SpectraSuite Data File
++++++++++++++++++++++++++++++++++++
Date: Tue Mar 03 12:45:40 ICT 2026
User: user
Dark Spectrum Present: Yes
Reference Spectrum Present: No
Number of Sampled Component Spectra: 1
Spectrometers: MAYP113682
Integration Time (usec): 3000000 (MAYP113682)
Spectra Averaged: 1 (MAYP113682)
Boxcar Smoothing: 0 (MAYP113682)
Correct for Electrical Dark: No (MAYP113682)
Strobe/Lamp Enabled: No (MAYP113682)
Correct for Detector Non-linearity: No (MAYP113682)
Correct for Stray Light: No (MAYP113682)
Number of Pixels in Processed Spectrum: 2068
>>>>>Begin Processed Spectral Data<<<<<
-37534,58	8,00
-37414,56	-1,00
-37295,11	0,00
-37176,24	0,00
-37057,95	55,00
-36940,22	51,00
-36823,05	125,00
-36706,45	55,00
-36590,40	174,00
-36474,90	122,00
-36359,95	84,00
-36245,55	196,00
-36131,68	49,00
-36018,35	92,00
-35905,55	128,00
-35793,29	171,00
-35681,54	58,00
-35570,32	52,00
-35459,62	-66,00
-35349,43	68,00
-35239,75	275,00
-35130,58	227,00
-35021,91	127,00
-34913,74	239,00
-34806,07	87,00
-34698,89	233,00
-34592,20	227,00
-34486,00	91,00
-34380,28	-14,00
-34275,04	95,00
-34170,27	125,00
-34065,98	11,00
-33962,16	114,00
-33858,81	126,00
-33755,92	112,00
-33653,49	201,00
-33551,52	104,00
-33450,01	204,00
-33348,94	181,00
-33248,33	103,00
-33148,16	118,00
-33048,43	187,00
-32949,14	220,00
-32850,29	155,00
-32751,87	153,00
-32653,89	179,00
-32556,33	144,00
-32459,20	89,00
-32362,49	138,00
-32266,19	63,00
-32170,32	113,00
-32074,86	83,00
-31979,82	96,00
-31885,18	-26,00
-31790,95	93,00
-31697,12	147,00
-31603,69	111,00
-31510,67	137,00
-31418,04	115,00
-31325,80	218,00
-31233,95	218,00
-31142,49	157,00
-31051,42	198,00
-30960,73	129,00
-30870,43	108,00
-30780,50	216,00
-30690,95	275,00
-30601,77	211,00
-30512,97	149,00
-30424,53	217,00
-30336,46	198,00
-30248,76	162,00
-30161,42	74,00
-30074,44	236,00
-29987,81	288,00
-29901,55	194,00
-29815,63	108,00
-29730,07	131,00
-29644,86	203,00
-29560,00	250,00
-29475,48	94,00
-29391,30	52,00
-29307,47	143,00
-29223,97	194,00
-29140,81	106,00
-29057,99	102,00
-28975,50	234,00
-28893,34	213,00
-28811,51	168,00
-28730,00	210,00
-28648,82	66,00
-28567,97	99,00
-28487,43	161,00
-28407,21	174,00
-28327,32	27,00
-28247,73	197,00
-28168,46	158,00
-28089,50	129,00
-28010,85	18,00
-27932,51	112,00
-27854,48	52,00
-27776,75	89,00
-27699,32	197,00
-27622,19	294,00
-27545,37	99,00
-27468,84	124,00
-27392,60	197,00
-27316,66	217,00
-27241,01	176,00
-27165,66	67,00
-27090,59	60,00
-27015,81	244,00
-26941,31	138,00
-26867,10	216,00
-26793,17	-6,00
-26719,52	176,00
-26646,15	156,00
-26573,06	237,00
-26500,24	132,00
-26427,70	61,00
-26355,43	252,00
-26283,43	83,00
-26211,71	79,00
-26140,25	89,00
-26069,06	231,00
-25998,13	15,00
-25927,46	135,00
-25857,06	150,00
-25786,92	111,00
-25717,04	49,00
-25647,42	179,00
-25578,05	101,00
-25508,94	49,00
-25440,09	91,00
-25371,48	118,00
-25303,13	135,00
-25235,02	128,00
-25167,17	71,00
-25099,56	232,00
-25032,19	227,00
-24965,07	139,00
-24898,20	119,00
-24831,56	108,00
-24765,17	100,00
-24699,01	206,00
-24633,10	80,00
-24567,41	138,00
-24501,97	193,00
-24436,75	103,00
-24371,77	127,00
-24307,03	79,00
-24242,51	113,00
-24178,22	174,00
-24114,16	40,00
-24050,32	35,00
-23986,71	100,00
-23923,32	157,00
-23860,16	40,00
-23797,22	206,00
-23734,50	144,00
-23672,00	151,00
-23609,71	324,00
-23547,65	158,00
-23485,80	159,00
-23424,16	126,00
-23362,74	189,00
-23301,53	142,00
-23240,54	62,00
-23179,75	208,00
-23119,17	144,00
-23058,80	219,00
-22998,64	155,00
-22938,68	88,00
-22878,93	78,00
-22819,39	164,00
-22760,04	50,00
-22700,90	226,00
-22641,96	69,00
-22583,22	105,00
-22524,68	198,00
-22466,33	140,00
-22408,19	120,00
-22350,23	130,00
-22292,48	102,00
-22234,92	133,00
-22177,55	179,00
-22120,37	145,00
-22063,38	174,00
-22006,58	117,00
-21949,98	146,00
-21893,56	251,00
-21837,33	158,00
-21781,28	205,00
-21725,42	218,00
-21669,74	221,00
-21614,25	197,00
-21558,94	181,00
-21503,81	208,00
-21448,86	136,00
-21394,10	156,00
-21339,51	86,00
-21285,10	97,00
-21230,86	92,00
-21176,81	164,00
-21122,93	206,00
-21069,22	271,00
-21015,69	53,00
-20962,33	165,00
-20909,14	44,00
-20856,13	315,00
-20803,28	46,00
-20750,61	167,00
-20698,10	96,00
-20645,76	124,00
-20593,59	177,00
-20541,59	217,00
-20489,75	79,00
-20438,07	167,00
-20386,56	103,00
-20335,22	224,00
-20284,03	205,00
-20233,01	76,00
-20182,15	122,00
-20131,45	34,00
-20080,91	121,00
-20030,52	201,00
-19980,30	160,00
-19930,23	94,00
-19880,32	9,00
-19830,56	281,00
-19780,96	141,00
-19731,52	116,00
-19682,23	109,00
-19633,09	112,00
-19584,10	200,00
-19535,26	286,00
-19486,58	119,00
-19438,04	13,00
-19389,66	82,00
-19341,42	97,00
-19293,33	57,00
-19245,39	112,00
-19197,60	200,00
-19149,95	329,00
-19102,45	99,00
-19055,09	160,00
-19007,87	212,00
-18960,80	213,00
-18913,87	139,00
-18867,09	119,00
-18820,44	224,00
-18773,94	150,00
-18727,57	160,00
-18681,35	197,00
-18635,26	181,00
-18589,31	175,00
-18543,50	123,00
-18497,83	130,00
-18452,29	114,00
-18406,89	83,00
-18361,63	76,00
-18316,50	72,00
-18271,50	17,00
-18226,63	98,00
-18181,90	88,00
-18137,30	165,00
-18092,84	75,00
-18048,50	141,00
-18004,29	80,00
-17960,22	216,00
-17916,27	140,00
-17872,45	116,00
-17828,76	49,00
-17785,20	139,00
-17741,77	37,00
-17698,46	60,00
-17655,28	97,00
-17612,22	86,00
-17569,29	190,00
-17526,48	133,00
-17483,79	95,00
-17441,23	83,00
-17398,79	187,00
-17356,48	220,00
-17314,28	203,00
-17272,21	176,00
-17230,26	105,00
-17188,42	187,00
-17146,71	322,00
-17105,12	155,00
-17063,64	95,00
-17022,28	136,00
-16981,04	135,00
-16939,92	259,00
-16898,91	151,00
-16858,02	83,00
-16817,25	147,00
-16776,59	218,00
-16736,04	261,00
-16695,61	204,00
-16655,29	272,00
-16615,09	114,00
-16574,99	153,00
-16535,01	73,00
-16495,15	93,00
-16455,39	56,00
-16415,74	146,00
-16376,21	53,00
-16336,78	-15,00
-16297,46	126,00
-16258,26	273,00
-16219,16	-4,00
-16180,17	183,00
-16141,28	134,00
-16102,51	30,00
-16063,84	186,00
-16025,27	214,00
-15986,82	165,00
-15948,46	27,00
-15910,22	157,00
-15872,07	166,00
-15834,04	179,00
-15796,10	89,00
-15758,27	149,00
-15720,54	121,00
-15682,91	150,00
-15645,39	91,00
-15607,97	262,00
-15570,64	126,00
-15533,42	197,00
-15496,30	121,00
-15459,28	120,00
-15422,36	180,00
-15385,54	140,00
-15348,82	197,00
-15312,19	71,00
-15275,66	61,00
-15239,23	73,00
-15202,90	110,00
-15166,67	172,00
-15130,53	55,00
-15094,48	157,00
-15058,54	160,00
-15022,68	161,00
-14986,93	187,00
-14951,26	89,00
-14915,69	82,00
-14880,22	186,00
-14844,84	88,00
-14809,55	81,00
-14774,35	133,00
-14739,25	258,00
-14704,24	-6,00
-14669,32	117,00
-14634,49	233,00
-14599,75	181,00
-14565,10	221,00
-14530,55	126,00
-14496,08	182,00
-14461,70	243,00
-14427,41	59,00
-14393,21	30,00
-14359,10	124,00
-14325,07	163,00
-14291,14	212,00
-14257,29	125,00
-14223,52	85,00
-14189,85	68,00
-14156,26	192,00
-14122,76	45,00
-14089,34	106,00
-14056,01	107,00
-14022,76	115,00
-13989,60	86,00
-13956,52	97,00
-13923,53	180,00
-13890,62	174,00
-13857,79	216,00
-13825,05	135,00
-13792,39	137,00
-13759,81	219,00
-13727,31	17,00
-13694,90	20,00
-13662,57	236,00
-13630,31	50,00
-13598,14	168,00
-13566,05	83,00
-13534,05	106,00
-13502,12	175,00
-13470,27	31,00
-13438,50	100,00
-13406,80	214,00
-13375,19	11,00
-13343,66	100,00
-13312,20	44,00
-13280,83	268,00
-13249,53	206,00
-13218,30	153,00
-13187,16	68,00
-13156,09	58,00
-13125,10	160,00
-13094,18	163,00
-13063,34	96,00
-13032,58	127,00
-13001,89	73,00
-12971,28	177,00
-12940,74	252,00
-12910,27	77,00
-12879,88	71,00
-12849,57	193,00
-12819,33	129,00
-12789,16	137,00
-12759,06	183,00
-12729,04	102,00
-12699,09	128,00
-12669,21	138,00
-12639,41	153,00
-12609,68	119,00
-12580,02	105,00
-12550,43	151,00
-12520,91	105,00
-12491,46	72,00
-12462,08	198,00
-12432,77	128,00
-12403,54	86,00
-12374,37	139,00
-12345,27	76,00
-12316,24	93,00
-12287,29	148,00
-12258,40	124,00
-12229,57	221,00
-12200,82	34,00
-12172,14	25,00
-12143,52	142,00
-12114,97	137,00
-12086,49	100,00
-12058,07	177,00
-12029,73	0,00
-12001,44	39,00
-11973,23	209,00
-11945,08	246,00
-11917,00	131,00
-11888,98	153,00
-11861,03	190,00
-11833,15	206,00
-11805,32	142,00
-11777,57	202,00
-11749,88	152,00
-11722,25	120,00
-11694,69	157,00
-11667,19	66,00
-11639,75	56,00
-11612,38	95,00
-11585,07	93,00
-11557,83	83,00
-11530,65	53,00
-11503,53	138,00
-11476,47	216,00
-11449,48	153,00
-11422,54	251,00
-11395,67	120,00
-11368,86	124,00
-11342,11	67,00
-11315,43	54,00
-11288,80	119,00
-11262,23	261,00
-11235,73	197,00
-11209,28	104,00
-11182,90	183,00
-11156,57	123,00
-11130,31	246,00
-11104,10	119,00
-11077,96	130,00
-11051,87	268,00
-11025,84	87,00
-10999,87	177,00
-10973,96	154,00
-10948,11	175,00
-10922,31	120,00
-10896,58	196,00
-10870,90	254,00
-10845,28	194,00
-10819,71	114,00
-10794,20	212,00
-10768,75	261,00
-10743,36	224,00
-10718,02	283,00
-10692,74	122,00
-10667,52	184,00
-10642,35	92,00
-10617,24	235,00
-10592,18	382,00
-10567,18	279,00
-10542,23	206,00
-10517,34	236,00
-10492,51	227,00
-10467,72	328,00
-10443,00	412,00
-10418,32	336,00
-10393,70	396,00
-10369,14	217,00
-10344,63	348,00
-10320,17	278,00
-10295,77	333,00
-10271,42	422,00
-10247,12	300,00
-10222,88	376,00
-10198,68	463,00
-10174,54	500,00
-10150,46	511,00
-10126,42	420,00
-10102,44	469,00
-10078,51	465,00
-10054,63	660,00
-10030,80	615,00
-10007,03	578,00
-9983,30	562,00
-9959,63	633,00
-9936,01	677,00
-9912,44	739,00
-9888,92	738,00
-9865,44	815,00
-9842,02	837,00
-9818,65	760,00
-9795,33	831,00
-9772,06	857,00
-9748,84	872,00
-9725,67	963,00
-9702,55	1202,00
-9679,47	1319,00
-9656,45	1378,00
-9633,47	1407,00
-9610,55	1474,00
-9587,67	1443,00
-9564,84	1550,00
-9542,06	1680,00
-9519,32	2003,00
-9496,64	2218,00
-9474,00	2351,00
-9451,41	2341,00
-9428,87	2423,00
-9406,37	2291,00
-9383,92	1947,00
-9361,52	2005,00
-9339,17	1902,00
-9316,86	2360,00
-9294,60	2666,00
-9272,38	2809,00
-9250,21	3016,00
-9228,09	3148,00
-9206,01	3009,00
-9183,98	2648,00
-9162,00	2280,00
-9140,06	2296,00
-9118,16	2266,00
-9096,31	2395,00
-9074,51	2408,00
-9052,75	2309,00
-9031,04	2349,00
-9009,37	1999,00
-8987,74	1798,00
-8966,16	1762,00
-8944,63	1512,00
-8923,14	1364,00
-8901,69	1482,00
-8880,29	1705,00
-8858,93	2036,00
-8837,61	1991,00
-8816,34	2268,00
-8795,11	2280,00
-8773,92	2132,00
-8752,78	1712,00
-8731,68	1568,00
-8710,62	1712,00
-8689,61	1735,00
-8668,63	2037,00
-8647,70	2125,00
-8626,82	2056,00
-8605,97	2076,00
-8585,17	1834,00
-8564,41	1618,00
-8543,69	1582,00
-8523,01	1472,00
-8502,37	1576,00
-8481,78	1428,00
-8461,23	1631,00
-8440,71	1821,00
-8420,24	1900,00
-8399,81	2011,00
-8379,42	1997,00
-8359,08	1808,00
-8338,77	1664,00
-8318,50	1542,00
-8298,27	1454,00
-8278,09	1634,00
-8257,94	1450,00
-8237,83	1837,00
-8217,76	1844,00
-8197,74	1898,00
-8177,75	1808,00
-8157,80	1585,00
-8137,89	1578,00
-8118,02	1612,00
-8098,19	1431,00
-8078,40	1482,00
-8058,65	1559,00
-8038,93	1727,00
-8019,26	1525,00
-7999,62	1552,00
-7980,02	1522,00
-7960,46	1502,00
-7940,94	1390,00
-7921,46	1419,00
-7902,01	1344,00
-7882,60	1227,00
-7863,23	1241,00
-7843,90	1520,00
-7824,61	1439,00
-7805,35	1524,00
-7786,13	1657,00
-7766,95	1591,00
-7747,80	1353,00
-7728,69	1380,00
-7709,62	1353,00
-7690,59	1491,00
-7671,59	1592,00
-7652,63	1626,00
-7633,70	1596,00
-7614,81	1631,00
-7595,96	1490,00
-7577,15	1228,00
-7558,37	1221,00
-7539,62	1438,00
-7520,91	1524,00
-7502,24	1472,00
-7483,60	1561,00
-7465,00	1329,00
-7446,44	1310,00
-7427,91	1207,00
-7409,41	1048,00
-7390,95	998,00
-7372,53	1015,00
-7354,14	1061,00
-7335,78	1018,00
-7317,46	1053,00
-7299,18	1291,00
-7280,92	1519,00
-7262,71	1364,00
-7244,52	1512,00
-7226,38	1569,00
-7208,26	1412,00
-7190,18	1559,00
-7172,14	1376,00
-7154,12	1318,00
-7136,15	1462,00
-7118,20	1592,00
-7100,29	1535,00
-7082,41	1448,00
-7064,57	1452,00
-7046,76	1359,00
-7028,98	1153,00
-7011,24	1097,00
-6993,53	835,00
-6975,85	829,00
-6958,20	744,00
-6940,59	800,00
-6923,01	754,00
-6905,46	890,00
-6887,94	1072,00
-6870,46	1176,00
-6853,01	1294,00
-6835,59	1334,00
-6818,21	1337,00
-6800,85	917,00
-6783,53	860,00
-6766,24	738,00
-6748,98	654,00
-6731,76	688,00
-6714,56	588,00
-6697,40	590,00
-6680,26	653,00
-6663,16	827,00
-6646,09	939,00
-6629,05	1083,00
-6612,05	1148,00
-6595,07	1036,00
-6578,13	1068,00
-6561,21	891,00
-6544,33	679,00
-6527,47	628,00
-6510,65	456,00
-6493,86	502,00
-6477,10	568,00
-6460,36	518,00
-6443,66	585,00
-6426,99	495,00
-6410,35	509,00
-6393,74	625,00
-6377,16	661,00
-6360,61	714,00
-6344,09	771,00
-6327,59	942,00
-6311,13	809,00
-6294,70	920,00
-6278,29	894,00
-6261,92	891,00
-6245,58	1140,00
-6229,26	1206,00
-6212,97	1077,00
-6196,72	819,00
-6180,49	708,00
-6164,29	476,00
-6148,12	443,00
-6131,98	295,00
-6115,86	369,00
-6099,78	471,00
-6083,72	239,00
-6067,69	349,00
-6051,69	349,00
-6035,72	342,00
-6019,78	474,00
-6003,87	612,00
-5987,98	835,00
-5972,12	781,00
-5956,29	803,00
-5940,49	638,00
-5924,71	571,00
-5908,96	518,00
-5893,24	356,00
-5877,55	435,00
-5861,89	389,00
-5846,25	395,00
-5830,64	452,00
-5815,05	431,00
-5799,50	336,00
-5783,97	482,00
-5768,47	480,00
-5752,99	521,00
-5737,55	714,00
-5722,12	769,00
-5706,73	705,00
-5691,36	591,00
-5676,02	341,00
-5660,71	363,00
-5645,42	251,00
-5630,16	492,00
-5614,92	403,00
-5599,71	493,00
-5584,53	496,00
-5569,37	522,00
-5554,24	1593,00
-5539,14	458,00
-5524,06	456,00
-5509,01	561,00
-5493,98	583,00
-5478,98	501,00
-5464,00	500,00
-5449,05	508,00
-5434,13	245,00
-5419,23	367,00
-5404,36	442,00
-5389,51	483,00
-5374,69	617,00
-5359,89	789,00
-5345,12	856,00
-5330,37	801,00
-5315,65	531,00
-5300,95	567,00
-5286,28	425,00
-5271,63	372,00
-5257,01	600,00
-5242,41	535,00
-5227,84	580,00
-5213,29	411,00
-5198,76	207,00
-5184,26	352,00
-5169,79	373,00
-5155,33	379,00
-5140,91	506,00
-5126,51	596,00
-5112,13	660,00
-5097,77	530,00
-5083,44	409,00
-5069,13	346,00
-5054,85	484,00
-5040,59	412,00
-5026,36	445,00
-5012,15	610,00
-4997,96	528,00
-4983,80	328,00
-4969,66	203,00
-4955,54	382,00
-4941,44	413,00
-4927,37	594,00
-4913,33	777,00
-4899,30	720,00
-4885,30	659,00
-4871,33	532,00
-4857,37	256,00
-4843,44	174,00
-4829,53	347,00
-4815,65	594,00
-4801,79	275,00
-4787,95	281,00
-4774,13	348,00
-4760,34	362,00
-4746,56	129,00
-4732,82	327,00
-4719,09	400,00
-4705,38	702,00
-4691,70	776,00
-4678,04	691,00
-4664,41	481,00
-4650,79	443,00
-4637,20	376,00
-4623,63	313,00
-4610,08	426,00
-4596,56	536,00
-4583,05	414,00
-4569,57	389,00
-4556,11	227,00
-4542,67	248,00
-4529,25	153,00
-4515,86	474,00
-4502,49	648,00
-4489,13	635,00
-4475,80	470,00
-4462,49	393,00
-4449,21	304,00
-4435,94	342,00
-4422,70	358,00
-4409,47	399,00
-4396,27	450,00
-4383,09	277,00
-4369,93	235,00
-4356,79	153,00
-4343,67	284,00
-4330,58	294,00
-4317,50	301,00
-4304,45	403,00
-4291,41	283,00
-4278,40	332,00
-4265,41	156,00
-4252,44	310,00
-4239,49	372,00
-4226,55	297,00
-4213,65	304,00
-4200,76	424,00
-4187,89	171,00
-4175,04	190,00
-4162,21	247,00
-4149,40	127,00
-4136,61	93,00
-4123,85	192,00
-4111,10	274,00
-4098,37	157,00
-4085,66	203,00
-4072,98	173,00
-4060,31	228,00
-4047,66	277,00
-4035,04	247,00
-4022,43	102,00
-4009,84	200,00
-3997,27	90,00
-3984,72	135,00
-3972,19	111,00
-3959,69	99,00
-3947,20	16,00
-3934,73	117,00
-3922,27	177,00
-3909,84	105,00
-3897,43	127,00
-3885,04	41,00
-3872,67	182,00
-3860,31	153,00
-3847,98	4,00
-3835,66	106,00
-3823,36	106,00
-3811,09	207,00
-3798,83	179,00
-3786,59	52,00
-3774,37	176,00
-3762,17	32,00
-3749,98	38,00
-3737,82	186,00
-3725,67	160,00
-3713,55	77,00
-3701,44	126,00
-3689,35	200,00
-3677,28	186,00
-3665,22	228,00
-3653,19	131,00
-3641,17	37,00
-3629,18	176,00
-3617,20	127,00
-3605,24	54,00
-3593,30	65,00
-3581,37	61,00
-3569,47	237,00
-3557,58	99,00
-3545,71	196,00
-3533,86	108,00
-3522,02	201,00
-3510,21	174,00
-3498,41	220,00
-3486,63	82,00
-3474,87	188,00
-3463,12	116,00
-3451,40	82,00
-3439,69	220,00
-3428,00	113,00
-3416,33	128,00
-3404,67	125,00
-3393,03	259,00
-3381,41	96,00
-3369,81	114,00
-3358,22	177,00
-3346,66	79,00
-3335,10	182,00
-3323,57	169,00
-3312,06	133,00
-3300,56	92,00
-3289,08	140,00
-3277,61	81,00
-3266,16	5,00
-3254,73	136,00
-3243,32	55,00
-3231,92	87,00
-3220,55	78,00
-3209,18	216,00
-3197,84	212,00
-3186,51	96,00
-3175,20	84,00
-3163,90	304,00
-3152,63	143,00
-3141,36	157,00
-3130,12	-2,00
-3118,89	166,00
-3107,68	56,00
-3096,49	88,00
-3085,31	111,00
-3074,15	170,00
-3063,00	209,00
-3051,87	109,00
-3040,76	176,00
-3029,67	172,00
-3018,59	142,00
-3007,52	141,00
-2996,48	46,00
-2985,44	180,00
-2974,43	246,00
-2963,43	174,00
-2952,45	225,00
-2941,48	177,00
-2930,53	165,00
-2919,60	104,00
-2908,68	190,00
-2897,78	76,00
-2886,89	212,00
-2876,02	63,00
-2865,17	18,00
-2854,33	71,00
-2843,50	134,00
-2832,70	185,00
-2821,90	91,00
-2811,13	32,00
-2800,37	112,00
-2789,62	176,00
-2778,89	171,00
-2768,18	139,00
-2757,48	153,00
-2746,80	176,00
-2736,13	158,00
-2725,48	149,00
-2714,84	109,00
-2704,22	121,00
-2693,61	225,00
-2683,02	211,00
-2672,45	42,00
-2661,89	213,00
-2651,34	78,00
-2640,81	123,00
-2630,30	182,00
-2619,80	146,00
-2609,31	71,00
-2598,84	100,00
-2588,39	183,00
-2577,95	-10,00
-2567,52	214,00
-2557,11	178,00
-2546,71	146,00
-2536,33	89,00
-2525,97	129,00
-2515,62	96,00
-2505,28	-20,00
-2494,96	159,00
-2484,65	66,00
-2474,36	179,00
-2464,08	240,00
-2453,82	64,00
-2443,57	124,00
-2433,33	153,00
-2423,11	173,00
-2412,91	117,00
-2402,72	209,00
-2392,54	70,00
-2382,38	163,00
-2372,23	210,00
-2362,09	187,00
-2351,97	286,00
-2341,87	110,00
-2331,78	109,00
-2321,70	184,00
-2311,64	184,00
-2301,59	98,00
-2291,55	196,00
-2281,53	172,00
-2271,53	254,00
-2261,53	146,00
-2251,55	126,00
-2241,59	248,00
-2231,64	72,00
-2221,70	106,00
-2211,78	122,00
-2201,87	207,00
-2191,97	75,00
-2182,09	72,00
-2172,22	205,00
-2162,37	198,00
-2152,53	128,00
-2142,70	205,00
-2132,89	194,00
-2123,09	80,00
-2113,30	193,00
-2103,53	85,00
-2093,77	95,00
-2084,02	46,00
-2074,29	166,00
-2064,57	183,00
-2054,86	194,00
-2045,17	168,00
-2035,49	189,00
-2025,82	198,00
-2016,17	49,00
-2006,53	104,00
-1996,91	131,00
-1987,29	54,00
-1977,69	131,00
-1968,11	258,00
-1958,53	172,00
-1948,97	160,00
-1939,42	111,00
-1929,89	31,00
-1920,37	270,00
-1910,86	107,00
-1901,36	138,00
-1891,88	109,00
-1882,41	107,00
-1872,95	129,00
-1863,51	-5,00
-1854,08	197,00
-1844,66	142,00
-1835,26	130,00
-1825,86	143,00
-1816,48	221,00
-1807,11	113,00
-1797,76	164,00
-1788,42	144,00
-1779,09	70,00
-1769,77	126,00
-1760,47	57,00
-1751,17	135,00
-1741,89	114,00
-1732,63	59,00
-1723,37	5,00
-1714,13	13,00
-1704,90	86,00
-1695,68	104,00
-1686,48	156,00
-1677,29	152,00
-1668,11	169,00
-1658,94	130,00
-1649,78	278,00
-1640,64	270,00
-1631,51	155,00
-1622,39	208,00
-1613,28	76,00
-1604,19	196,00
-1595,10	31,00
-1586,03	220,00
-1576,97	231,00
-1567,93	215,00
-1558,89	18,00
-1549,87	176,00
-1540,86	145,00
-1531,86	139,00
-1522,87	66,00
-1513,90	86,00
-1504,93	237,00
-1495,98	12,00
-1487,04	105,00
-1478,12	212,00
-1469,20	240,00
-1460,30	152,00
-1451,40	200,00
-1442,52	9,00
-1433,65	86,00
-1424,80	256,00
-1415,95	230,00
-1407,12	202,00
-1398,30	149,00
-1389,48	195,00
-1380,69	48,00
-1371,90	268,00
-1363,12	161,00
-1354,36	191,00
-1345,60	226,00
-1336,86	138,00
-1328,13	229,00
-1319,41	26,00
-1310,70	241,00
-1302,01	110,00
-1293,32	260,00
-1284,65	236,00
-1275,99	182,00
-1267,33	152,00
-1258,69	104,00
-1250,06	185,00
-1241,45	120,00
-1232,84	200,00
-1224,25	11,00
-1215,66	145,00
-1207,09	119,00
-1198,53	4,00
-1189,97	89,00
-1181,43	166,00
-1172,91	105,00
-1164,39	91,00
-1155,88	59,00
-1147,38	99,00
-1138,90	221,00
-1130,43	65,00
-1121,96	178,00
-1113,51	172,00
-1105,07	177,00
-1096,64	89,00
-1088,22	186,00
-1079,81	173,00
-1071,41	237,00
-1063,02	137,00
-1054,65	140,00
-1046,28	128,00
-1037,92	95,00
-1029,58	157,00
-1021,24	-24,00
-1012,92	275,00
-1004,61	128,00
-996,30	134,00
-988,01	183,00
-979,73	345,00
-971,46	64,00
-963,20	142,00
-954,95	131,00
-946,71	64,00
-938,48	237,00
-930,26	7,00
-922,06	50,00
-913,86	185,00
-905,67	261,00
-897,49	108,00
-889,33	159,00
-881,17	219,00
-873,02	156,00
-864,89	78,00
-856,76	54,00
-848,65	254,00
-840,54	52,00
-832,45	222,00
-824,36	76,00
-816,29	143,00
-808,22	75,00
-800,17	201,00
-792,12	211,00
-784,09	240,00
-776,06	51,00
-768,05	0,00
-760,04	187,00
-752,05	195,00
-744,07	206,00
-736,09	123,00
-728,13	240,00
-720,17	205,00
-712,23	98,00
-704,29	12,00
-696,37	148,00
-688,45	154,00
-680,55	106,00
-672,65	266,00
-664,77	166,00
-656,89	83,00
-649,03	89,00
-641,17	126,00
-633,32	168,00
-625,49	106,00
-617,66	179,00
-609,84	55,00
-602,03	120,00
-594,23	231,00
-586,45	78,00
-578,67	213,00
-570,90	162,00
-563,14	191,00
-555,39	105,00
-547,65	155,00
-539,91	224,00
-532,19	210,00
-524,48	168,00
-516,78	145,00
-509,08	169,00
-501,40	187,00
-493,72	176,00
-486,06	109,00
-478,40	188,00
-470,76	97,00
-463,12	132,00
-455,49	207,00
-447,87	94,00
-440,26	93,00
-432,66	153,00
-425,07	144,00
-417,49	86,00
-409,92	171,00
-402,35	19,00
-394,80	127,00
-387,25	164,00
-379,72	94,00
-372,19	216,00
-364,67	312,00
-357,17	95,00
-349,67	172,00
-342,18	209,00
-334,69	242,00
-327,22	185,00
-319,76	62,00
-312,30	108,00
-304,86	161,00
-297,42	206,00
-290,00	187,00
-282,58	63,00
-275,17	202,00
-267,77	131,00
-260,37	153,00
-252,99	293,00
-245,62	144,00
-238,25	140,00
-230,90	162,00
-223,55	309,00
-216,21	251,00
-208,88	274,00
-201,56	272,00
-194,25	299,00
-186,94	232,00
-179,65	295,00
-172,36	324,00
-165,08	287,00
-157,81	410,00
-150,55	221,00
-143,30	364,00
-136,06	337,00
-128,82	335,00
-121,60	443,00
-114,38	280,00
-107,17	322,00
-99,97	455,00
-92,78	580,00
-85,60	583,00
-78,42	751,00
-71,25	800,00
-64,10	899,00
-56,95	1115,00
-49,81	1175,00
-42,67	1478,00
-35,55	1925,00
-28,43	2457,00
-21,33	4370,00
-14,23	14510,00
-7,14	47266,00
-0,05	38051,00
7,02	42597,00
14,09	38084,00
21,14	10167,00
28,19	4352,00
35,23	2946,00
42,27	2152,00
49,29	1908,00
56,31	1583,00
63,32	1290,00
70,32	1268,00
77,31	1066,00
84,29	928,00
91,27	745,00
98,23	672,00
105,19	669,00
112,14	809,00
119,09	978,00
126,02	1429,00
132,95	1642,00
139,87	1492,00
146,78	1508,00
153,68	1484,00
160,58	1458,00
167,46	1601,00
174,34	1532,00
181,21	1408,00
188,08	1430,00
194,93	1458,00
201,78	1443,00
208,62	1423,00
215,45	1343,00
222,27	1488,00
229,09	1264,00
235,90	1438,00
242,70	1216,00
249,49	1298,00
256,27	1278,00
263,05	1282,00
269,82	1190,00
276,58	1253,00
283,33	1200,00
290,08	1469,00
296,82	1249,00
303,55	1158,00
310,27	1135,00
316,98	1166,00
323,69	1215,00
330,39	1291,00
337,08	1184,00
343,76	1019,00
350,44	1208,00
357,11	1084,00
363,77	1082,00
370,42	1263,00
377,07	1101,00
383,71	1023,00
390,34	1080,00
396,96	1163,00
403,58	1086,00
410,19	1110,00
416,79	1050,00
423,38	1075,00
429,97	1067,00
436,55	1097,00
443,12	1063,00
449,68	1014,00
456,24	1091,00
462,79	1080,00
469,33	914,00
475,86	1055,00
482,39	994,00
488,91	978,00
495,42	857,00
501,93	999,00
508,42	1000,00
514,91	1099,00
521,40	989,00
527,87	978,00
534,34	921,00
540,80	932,00
547,25	929,00
553,70	907,00
560,14	927,00
566,57	921,00
573,00	911,00
579,41	922,00
585,83	908,00
592,23	928,00
598,62	941,00
605,01	806,00
611,40	813,00
617,77	926,00
624,14	834,00
630,50	912,00
636,85	745,00
643,20	835,00
649,54	887,00
655,87	936,00
662,20	918,00
668,52	786,00
674,83	765,00
681,13	945,00
687,43	891,00
693,72	795,00
700,00	887,00
706,28	922,00
712,55	819,00
718,81	1025,00
725,07	968,00
731,32	809,00
737,56	1031,00
743,79	894,00
750,02	911,00
756,24	962,00
762,46	804,00
768,67	998,00
774,87	829,00
781,06	896,00
787,25	886,00
793,43	907,00
799,60	839,00
805,77	890,00
811,93	843,00
818,08	793,00
824,23	1011,00
830,37	798,00
836,50	872,00
842,63	829,00
848,75	791,00
854,87	876,00
860,97	925,00
867,07	889,00
873,17	972,00
879,25	858,00
885,33	918,00
891,41	903,00
897,47	827,00
903,53	771,00
909,59	785,00
915,63	962,00
921,67	798,00
927,71	752,00
933,74	769,00
939,76	722,00
945,77	839,00
951,78	820,00
957,78	817,00
963,78	784,00
969,77	714,00
975,75	855,00
981,72	688,00
987,69	1236,00
993,66	874,00
999,61	804,00
1005,56	928,00
1011,51	744,00
1017,44	878,00
1023,37	878,00
1029,30	803,00
1035,22	831,00
1041,13	974,00
1047,03	979,00
1052,93	1212,00
1058,83	1576,00
1064,71	1549,00
1070,59	1380,00
1076,47	1222,00
1082,33	1064,00
1088,20	1010,00
1094,05	1008,00
1099,90	928,00
1105,74	904,00
1111,58	894,00
1117,41	1067,00
1123,23	1517,00
1129,05	1853,00
1134,86	1554,00
1140,67	1291,00
1146,47	1020,00
1152,26	941,00
1158,05	928,00
1163,83	988,00
1169,60	924,00
1175,37	1052,00
1181,13	786,00
1186,89	880,00
1192,64	902,00
1198,38	913,00
1204,12	726,00
1209,85	745,00
1215,58	870,00
1221,30	760,00
1227,02	780,00
1232,72	819,00
1238,43	840,00
1244,12	863,00
1249,81	872,00
1255,50	907,00
1261,17	933,00
1266,85	999,00
1272,51	996,00
1278,17	1123,00
1283,83	1096,00
1289,47	1681,00
1295,12	2150,00
1300,75	1887,00
1306,38	1502,00
1312,01	1267,00
1317,63	1021,00
1323,24	1191,00
1328,85	940,00
1334,45	990,00
1340,04	856,00
1345,63	932,00
1351,22	937,00
1356,80	916,00
1362,37	1152,00
1367,93	1164,00
1373,49	1059,00
1379,05	1031,00
1384,60	1071,00
1390,14	1101,00
1395,68	1005,00
1401,21	1044,00
1406,74	1048,00
1412,26	1330,00
1417,77	1494,00
1423,28	1496,00
1428,78	1712,00
1434,28	1859,00
1439,77	2302,00
1445,26	2116,00
1450,74	1963,00
1456,22	1759,00
1461,68	1669,00
1467,15	1546,00
1472,61	1512,00
1478,06	1300,00
1483,51	1062,00
1488,95	1092,00
1494,38	950,00
1499,81	876,00
1505,24	752,00
1510,65	970,00
1516,07	903,00
1521,48	765,00
1526,88	823,00
1532,27	905,00
1537,67	932,00
1543,05	767,00
1548,43	785,00
1553,81	689,00
1559,18	814,00
1564,54	841,00
1569,90	858,00
1575,25	758,00
1580,60	824,00
1585,94	855,00
1591,28	798,00
1596,61	755,00
1601,93	656,00
1607,25	731,00
1612,57	778,00
1617,88	916,00
1623,18	852,00
1628,48	864,00
1633,77	830,00
1639,06	825,00
1644,34	774,00
1649,62	738,00
1654,89	713,00
1660,16	789,00
1665,42	712,00
1670,67	768,00
1675,92	812,00
1681,17	677,00
1686,41	653,00
1691,64	829,00
1696,87	717,00
1702,10	638,00
1707,32	575,00
1712,53	644,00
1717,74	806,00
1722,94	714,00
1728,14	752,00
1733,33	628,00
1738,52	742,00
1743,70	864,00
1748,88	700,00
1754,05	732,00
1759,22	710,00
1764,38	-1034,00
1769,53	657,00
1774,69	655,00
1779,83	707,00
1784,97	586,00
1790,11	737,00
1795,24	679,00
1800,36	726,00
1805,48	677,00
1810,60	728,00
1815,71	670,00
1820,82	666,00
1825,92	635,00
1831,01	663,00
1836,10	659,00
1841,19	642,00
1846,26	589,00
1851,34	682,00
1856,41	567,00
1861,47	722,00
1866,53	500,00
1871,59	634,00
1876,64	727,00
1881,68	663,00
1886,72	589,00
1891,76	516,00
1896,79	790,00
1901,81	612,00
1906,83	660,00
1911,85	606,00
1916,86	607,00
1921,86	568,00
1926,86	620,00
1931,86	718,00
1936,85	643,00
1941,83	569,00
1946,81	693,00
1951,79	731,00
1956,76	541,00
1961,72	669,00
1966,68	558,00
1971,64	563,00
1976,59	592,00
1981,54	563,00
1986,48	509,00
1991,42	599,00
1996,35	617,00
2001,27	409,00
2006,20	723,00
2011,11	617,00
2016,03	543,00
2020,93	700,00
2025,84	505,00
2030,73	529,00
2035,63	480,00
2040,52	540,00
2045,40	564,00
2050,28	509,00
2055,15	614,00
2060,02	648,00
2064,89	587,00
2069,75	534,00
2074,60	554,00
2079,46	435,00
2084,30	697,00
2089,14	498,00
2093,98	473,00
2098,81	634,00
2103,64	591,00
2108,46	527,00
2113,28	632,00
2118,09	552,00
2122,90	631,00
2127,70	585,00
2132,50	579,00
2137,30	512,00
2142,09	642,00
2146,87	571,00
2151,66	611,00
2156,43	620,00
2161,20	604,00
2165,97	626,00
2170,73	567,00
2175,49	457,00
2180,24	550,00
2184,99	349,00
2189,74	587,00
2194,48	526,00
2199,21	667,00
2203,94	617,00
2208,67	578,00
2213,39	544,00
2218,11	469,00
2222,82	554,00
2227,53	481,00
2232,23	503,00
2236,93	511,00
2241,63	463,00
2246,32	523,00
2251,00	516,00
2255,68	565,00
2260,36	480,00
2265,03	491,00
2269,70	629,00
2274,36	612,00
2279,02	455,00
2283,68	457,00
2288,33	505,00
2292,97	576,00
2297,61	601,00
2302,25	562,00
2306,88	552,00
2311,51	536,00
2316,14	517,00
2320,75	553,00
2325,37	493,00
2329,98	536,00
2334,59	533,00
2339,19	632,00
2343,79	396,00
2348,38	526,00
2352,97	492,00
2357,55	585,00
2362,13	543,00
2366,71	444,00
2371,28	502,00
2375,85	601,00
2380,41	521,00
2384,97	490,00
2389,52	400,00
2394,07	527,00
2398,62	412,00
2403,16	659,00
2407,70	489,00
2412,23	447,00
2416,76	431,00
2421,29	514,00
2425,81	609,00
2430,32	504,00
2434,84	456,00
2439,34	510,00
2443,85	461,00
2448,35	459,00
2452,84	457,00
2457,33	412,00
2461,82	437,00
2466,30	427,00
2470,78	519,00
2475,25	416,00
2479,72	435,00
2484,19	468,00
2488,65	559,00
2493,11	395,00
2497,56	406,00
2502,01	466,00
2506,46	460,00
2510,90	428,00
2515,34	368,00
2519,77	493,00
2524,20	333,00
2528,62	526,00
2533,04	524,00
2537,46	463,00
2541,87	476,00
2546,28	485,00
2550,68	379,00
2555,08	437,00
2559,48	428,00
2563,87	429,00
2568,26	417,00
2572,64	270,00
2577,02	497,00
2581,40	489,00
2585,77	399,00
2590,14	421,00
2594,50	363,00
2598,86	507,00
2603,22	400,00
2607,57	440,00
2611,92	399,00
2616,26	486,00
2620,60	468,00
2624,94	397,00
2629,27	447,00
2633,60	518,00
2637,92	425,00
2642,24	402,00
2646,56	439,00
2650,87	425,00
2655,18	487,00
2659,48	411,00
2663,78	412,00
2668,08	490,00
2672,37	520,00
2676,66	418,00
2680,95	462,00
2685,23	401,00
2689,50	497,00
2693,78	363,00
2698,05	529,00
2702,31	426,00
2706,57	452,00
2710,83	471,00
2715,08	379,00
2719,33	525,00
2723,58	573,00
2727,82	505,00
2732,06	553,00
2736,29	522,00
2740,53	558,00
2744,75	514,00
2748,97	543,00
2753,19	543,00
2757,41	436,00
2761,62	503,00
2765,83	445,00
2770,03	373,00
2774,23	440,00
2778,43	609,00
2782,62	714,00
2786,81	398,00
2791,00	611,00
2795,18	644,00
2799,35	650,00
2803,53	555,00
2807,70	748,00
2811,86	576,00
2816,03	684,00
2820,19	656,00
2824,34	701,00
2828,49	677,00
2832,64	951,00
2836,78	1167,00
2840,92	1480,00
2845,06	1667,00
2849,19	1887,00
2853,32	2043,00
2857,45	1929,00
2861,57	2021,00
2865,69	1761,00
2869,80	1727,00
2873,91	1751,00
2878,02	1881,00
2882,12	1987,00
2886,22	2101,00
2890,32	1945,00
2894,41	1859,00
2898,50	1617,00
2902,58	1508,00
2906,67	1446,00
2910,74	1275,00
2914,82	1314,00
2918,89	1272,00
2922,96	1065,00
2927,02	1086,00
2931,08	973,00
2935,13	961,00
2939,19	891,00
2943,24	818,00
2947,28	821,00
2951,32	650,00
2955,36	683,00
2959,40	660,00
2963,43	523,00
2967,46	545,00
2971,48	381,00
2975,50	551,00
2979,52	423,00
2983,53	470,00
2987,54	397,00
2991,55	413,00
2995,55	344,00
2999,55	466,00
3003,54	440,00
3007,54	399,00
3011,53	456,00
3015,51	363,00
3019,49	138,00
3023,47	297,00
3027,45	356,00
3031,42	320,00
3035,39	352,00
3039,35	394,00
3043,31	356,00
3047,27	376,00
3051,22	364,00
3055,17	281,00
3059,12	132,00
3063,06	322,00
3067,00	289,00
3070,94	335,00
3074,87	284,00
3078,80	305,00
3082,73	297,00
3086,65	197,00
3090,57	145,00
3094,49	308,00
3098,40	248,00
3102,31	305,00
3106,22	249,00
3110,12	280,00
3114,02	219,00
3117,92	332,00
3121,81	301,00
3125,70	295,00
3129,58	256,00
3133,47	219,00
3137,34	223,00
3141,22	340,00
3145,09	324,00
3148,96	241,00
3152,83	387,00
3156,69	272,00
3160,55	220,00
3164,40	240,00
3168,26	143,00
3172,10	322,00
3175,95	250,00
3179,79	163,00
3183,63	197,00
3187,47	350,00
3191,30	289,00
3195,13	277,00
3198,95	135,00
3202,78	297,00
3206,60	280,00
3210,41	268,00
3214,23	258,00
3218,03	329,00
3221,84	163,00
3225,64	184,00
3229,44	270,00
3233,24	190,00
3237,03	303,00
3240,82	252,00
3244,61	213,00
3248,39	207,00
3252,17	285,00
3255,95	189,00
3259,72	301,00
3263,49	193,00
3267,26	218,00
3271,03	295,00
3274,79	191,00
3278,54	75,00
3282,30	234,00
3286,05	121,00
3289,80	65,00
3293,54	171,00
3297,29	266,00
3301,02	226,00
3304,76	178,00
3308,49	248,00
3312,22	200,00
3315,95	38,00
3319,67	256,00
3323,39	244,00
3327,10	211,00
3330,82	178,00
3334,53	281,00
3338,24	232,00
3341,94	260,00
3345,64	137,00
3349,34	178,00
3353,03	264,00
3356,72	330,00
3360,41	183,00
3364,10	311,00
3367,78	74,00
3371,46	162,00
3375,13	178,00
3378,81	136,00
3382,48	195,00
3386,14	90,00
3389,81	262,00
3393,47	223,00
3397,12	232,00
3400,78	106,00
3404,43	309,00
3408,08	297,00
3411,72	210,00
3415,36	216,00
3419,00	111,00
3422,64	317,00
3426,27	163,00
3429,90	199,00
3433,53	234,00
3437,15	181,00
3440,77	275,00
3444,39	281,00
3448,00	116,00
3451,62	180,00
3455,22	200,00
3458,83	177,00
3462,43	148,00
3466,03	107,00
3469,63	150,00
3473,22	124,00
3476,81	216,00
3480,40	126,00
3483,99	88,00
3487,57	3,00
3491,15	65,00
3494,72	128,00
3498,29	129,00
3501,86	168,00
3505,43	144,00
3508,99	195,00
3512,56	152,00
3516,11	224,00
3519,67	193,00
3523,22	72,00
3526,77	45,00
3530,32	184,00
3533,86	269,00
3537,40	68,00
3540,94	244,00
3544,47	136,00
3548,00	183,00
3551,53	199,00
3555,06	-16,00
3558,58	112,00
3562,10	240,00
3565,62	301,00
3569,13	64,00
3572,64	48,00
3576,15	185,00
3579,66	86,00
3583,16	155,00
3586,66	130,00
3590,16	182,00
3593,65	55,00
3597,14	-12,00
3600,63	179,00
3604,11	253,00
3607,60	136,00
3611,08	178,00
3614,55	62,00
3618,03	171,00
3621,50	195,00
3624,97	171,00
3628,43	251,00
3631,90	223,00
3635,36	119,00
3638,81	94,00
3642,27	100,00
3645,72	149,00
3649,17	185,00
3652,61	26,00
3656,06	210,00
3659,50	82,00
3662,93	117,00
3666,37	133,00
3669,80	109,00
3673,23	226,00
3676,65	204,00
3680,08	106,00
3683,50	118,00
3686,92	127,00
3690,33	39,00
3693,74	12,00
3697,15	200,00
3700,56	29,00
3703,96	115,00
3707,36	121,00
3710,76	27,00
3714,16	188,00
3717,55	44,00
3720,94	143,00
3724,33	114,00
3727,71	75,00
3731,10	168,00
3734,48	81,00
3737,85	92,00
3741,23	66,00
3744,60	107,00
3747,97	163,00
3751,33	152,00
3754,69	23,00
3758,05	197,00
3761,41	12,00
3764,77	169,00
3768,12	142,00
3771,47	136,00
3774,82	99,00
3778,16	-6,00
3781,50	-4,00
3784,84	3,00
3788,18	7,00
>>>>>End Processed Spectral Data<<<<<
