SpectraSuite Data File
++++++++++++++++++++++++++++++++++++
Date: Tue Mar 03 12:47:55 ICT 2026
User: user
Dark Spectrum Present: Yes
Reference Spectrum Present: No
Number of Sampled Component Spectra: 1
Spectrometers: MAYP113682
Integration Time (usec): 3000000 (MAYP113682)
Spectra Averaged: 1 (MAYP113682)
Boxcar Smoothing: 0 (MAYP113682)
Correct for Electrical Dark: No (MAYP113682)
Strobe/Lamp Enabled: No (MAYP113682)
Correct for Detector Non-linearity: No (MAYP113682)
Correct for Stray Light: No (MAYP113682)
Number of Pixels in Processed Spectrum: 2068
>>>>>Begin Processed Spectral Data<<<<<
-37534,58	5,00
-37414,56	2,00
-37295,11	2,00
-37176,24	-1,00
-37057,95	58,00
-36940,22	73,00
-36823,05	186,00
-36706,45	88,00
-36590,40	210,00
-36474,90	185,00
-36359,95	121,00
-36245,55	189,00
-36131,68	167,00
-36018,35	149,00
-35905,55	178,00
-35793,29	208,00
-35681,54	146,00
-35570,32	81,00
-35459,62	99,00
-35349,43	30,00
-35239,75	210,00
-35130,58	232,00
-35021,91	154,00
-34913,74	230,00
-34806,07	231,00
-34698,89	103,00
-34592,20	80,00
-34486,00	224,00
-34380,28	22,00
-34275,04	167,00
-34170,27	144,00
-34065,98	60,00
-33962,16	112,00
-33858,81	206,00
-33755,92	61,00
-33653,49	262,00
-33551,52	110,00
-33450,01	142,00
-33348,94	215,00
-33248,33	108,00
-33148,16	82,00
-33048,43	110,00
-32949,14	174,00
-32850,29	243,00
-32751,87	139,00
-32653,89	197,00
-32556,33	169,00
-32459,20	143,00
-32362,49	97,00
-32266,19	256,00
-32170,32	159,00
-32074,86	144,00
-31979,82	147,00
-31885,18	3,00
-31790,95	153,00
-31697,12	243,00
-31603,69	68,00
-31510,67	217,00
-31418,04	175,00
-31325,80	210,00
-31233,95	228,00
-31142,49	136,00
-31051,42	168,00
-30960,73	224,00
-30870,43	157,00
-30780,50	241,00
-30690,95	167,00
-30601,77	176,00
-30512,97	109,00
-30424,53	266,00
-30336,46	238,00
-30248,76	81,00
-30161,42	171,00
-30074,44	192,00
-29987,81	127,00
-29901,55	219,00
-29815,63	77,00
-29730,07	105,00
-29644,86	209,00
-29560,00	289,00
-29475,48	45,00
-29391,30	189,00
-29307,47	155,00
-29223,97	187,00
-29140,81	35,00
-29057,99	246,00
-28975,50	181,00
-28893,34	64,00
-28811,51	177,00
-28730,00	365,00
-28648,82	158,00
-28567,97	7,00
-28487,43	88,00
-28407,21	152,00
-28327,32	54,00
-28247,73	160,00
-28168,46	198,00
-28089,50	174,00
-28010,85	140,00
-27932,51	273,00
-27854,48	-6,00
-27776,75	174,00
-27699,32	219,00
-27622,19	330,00
-27545,37	249,00
-27468,84	140,00
-27392,60	150,00
-27316,66	164,00
-27241,01	144,00
-27165,66	257,00
-27090,59	83,00
-27015,81	248,00
-26941,31	122,00
-26867,10	298,00
-26793,17	274,00
-26719,52	21,00
-26646,15	199,00
-26573,06	324,00
-26500,24	152,00
-26427,70	176,00
-26355,43	297,00
-26283,43	124,00
-26211,71	177,00
-26140,25	204,00
-26069,06	232,00
-25998,13	137,00
-25927,46	136,00
-25857,06	251,00
-25786,92	88,00
-25717,04	81,00
-25647,42	138,00
-25578,05	125,00
-25508,94	140,00
-25440,09	119,00
-25371,48	81,00
-25303,13	125,00
-25235,02	240,00
-25167,17	123,00
-25099,56	123,00
-25032,19	201,00
-24965,07	161,00
-24898,20	124,00
-24831,56	121,00
-24765,17	127,00
-24699,01	182,00
-24633,10	155,00
-24567,41	1,00
-24501,97	152,00
-24436,75	31,00
-24371,77	100,00
-24307,03	99,00
-24242,51	169,00
-24178,22	215,00
-24114,16	166,00
-24050,32	138,00
-23986,71	80,00
-23923,32	168,00
-23860,16	80,00
-23797,22	133,00
-23734,50	133,00
-23672,00	128,00
-23609,71	387,00
-23547,65	103,00
-23485,80	197,00
-23424,16	126,00
-23362,74	197,00
-23301,53	135,00
-23240,54	70,00
-23179,75	128,00
-23119,17	198,00
-23058,80	247,00
-22998,64	138,00
-22938,68	122,00
-22878,93	91,00
-22819,39	80,00
-22760,04	51,00
-22700,90	98,00
-22641,96	83,00
-22583,22	70,00
-22524,68	133,00
-22466,33	218,00
-22408,19	240,00
-22350,23	152,00
-22292,48	151,00
-22234,92	192,00
-22177,55	143,00
-22120,37	148,00
-22063,38	3,00
-22006,58	241,00
-21949,98	127,00
-21893,56	218,00
-21837,33	142,00
-21781,28	177,00
-21725,42	118,00
-21669,74	164,00
-21614,25	196,00
-21558,94	136,00
-21503,81	214,00
-21448,86	125,00
-21394,10	45,00
-21339,51	264,00
-21285,10	107,00
-21230,86	92,00
-21176,81	118,00
-21122,93	144,00
-21069,22	262,00
-21015,69	144,00
-20962,33	224,00
-20909,14	69,00
-20856,13	208,00
-20803,28	98,00
-20750,61	166,00
-20698,10	192,00
-20645,76	160,00
-20593,59	299,00
-20541,59	202,00
-20489,75	222,00
-20438,07	108,00
-20386,56	139,00
-20335,22	161,00
-20284,03	133,00
-20233,01	93,00
-20182,15	56,00
-20131,45	104,00
-20080,91	31,00
-20030,52	225,00
-19980,30	156,00
-19930,23	54,00
-19880,32	113,00
-19830,56	325,00
-19780,96	129,00
-19731,52	127,00
-19682,23	49,00
-19633,09	169,00
-19584,10	177,00
-19535,26	166,00
-19486,58	132,00
-19438,04	14,00
-19389,66	96,00
-19341,42	39,00
-19293,33	105,00
-19245,39	179,00
-19197,60	172,00
-19149,95	230,00
-19102,45	170,00
-19055,09	156,00
-19007,87	242,00
-18960,80	227,00
-18913,87	196,00
-18867,09	84,00
-18820,44	213,00
-18773,94	232,00
-18727,57	103,00
-18681,35	181,00
-18635,26	150,00
-18589,31	151,00
-18543,50	114,00
-18497,83	176,00
-18452,29	39,00
-18406,89	162,00
-18361,63	135,00
-18316,50	142,00
-18271,50	77,00
-18226,63	190,00
-18181,90	133,00
-18137,30	207,00
-18092,84	174,00
-18048,50	180,00
-18004,29	139,00
-17960,22	240,00
-17916,27	170,00
-17872,45	173,00
-17828,76	12,00
-17785,20	122,00
-17741,77	176,00
-17698,46	194,00
-17655,28	231,00
-17612,22	143,00
-17569,29	176,00
-17526,48	130,00
-17483,79	63,00
-17441,23	80,00
-17398,79	195,00
-17356,48	218,00
-17314,28	239,00
-17272,21	60,00
-17230,26	92,00
-17188,42	182,00
-17146,71	213,00
-17105,12	177,00
-17063,64	139,00
-17022,28	225,00
-16981,04	151,00
-16939,92	260,00
-16898,91	124,00
-16858,02	12,00
-16817,25	85,00
-16776,59	288,00
-16736,04	125,00
-16695,61	239,00
-16655,29	208,00
-16615,09	175,00
-16574,99	88,00
-16535,01	141,00
-16495,15	181,00
-16455,39	174,00
-16415,74	108,00
-16376,21	170,00
-16336,78	90,00
-16297,46	180,00
-16258,26	208,00
-16219,16	106,00
-16180,17	277,00
-16141,28	180,00
-16102,51	60,00
-16063,84	175,00
-16025,27	304,00
-15986,82	135,00
-15948,46	3,00
-15910,22	150,00
-15872,07	206,00
-15834,04	168,00
-15796,10	71,00
-15758,27	233,00
-15720,54	222,00
-15682,91	146,00
-15645,39	122,00
-15607,97	249,00
-15570,64	87,00
-15533,42	155,00
-15496,30	134,00
-15459,28	163,00
-15422,36	119,00
-15385,54	138,00
-15348,82	250,00
-15312,19	-1,00
-15275,66	101,00
-15239,23	116,00
-15202,90	128,00
-15166,67	107,00
-15130,53	85,00
-15094,48	136,00
-15058,54	222,00
-15022,68	87,00
-14986,93	132,00
-14951,26	159,00
-14915,69	53,00
-14880,22	122,00
-14844,84	116,00
-14809,55	38,00
-14774,35	197,00
-14739,25	160,00
-14704,24	64,00
-14669,32	47,00
-14634,49	349,00
-14599,75	161,00
-14565,10	276,00
-14530,55	18,00
-14496,08	252,00
-14461,70	187,00
-14427,41	124,00
-14393,21	137,00
-14359,10	44,00
-14325,07	161,00
-14291,14	249,00
-14257,29	24,00
-14223,52	116,00
-14189,85	152,00
-14156,26	191,00
-14122,76	105,00
-14089,34	156,00
-14056,01	262,00
-14022,76	264,00
-13989,60	160,00
-13956,52	176,00
-13923,53	219,00
-13890,62	186,00
-13857,79	204,00
-13825,05	233,00
-13792,39	150,00
-13759,81	187,00
-13727,31	32,00
-13694,90	78,00
-13662,57	293,00
-13630,31	108,00
-13598,14	273,00
-13566,05	140,00
-13534,05	112,00
-13502,12	148,00
-13470,27	72,00
-13438,50	73,00
-13406,80	162,00
-13375,19	83,00
-13343,66	156,00
-13312,20	35,00
-13280,83	62,00
-13249,53	129,00
-13218,30	143,00
-13187,16	88,00
-13156,09	24,00
-13125,10	202,00
-13094,18	242,00
-13063,34	-3,00
-13032,58	226,00
-13001,89	132,00
-12971,28	132,00
-12940,74	228,00
-12910,27	149,00
-12879,88	94,00
-12849,57	187,00
-12819,33	171,00
-12789,16	109,00
-12759,06	96,00
-12729,04	35,00
-12699,09	239,00
-12669,21	239,00
-12639,41	116,00
-12609,68	122,00
-12580,02	172,00
-12550,43	102,00
-12520,91	151,00
-12491,46	106,00
-12462,08	203,00
-12432,77	62,00
-12403,54	122,00
-12374,37	231,00
-12345,27	-3,00
-12316,24	176,00
-12287,29	83,00
-12258,40	186,00
-12229,57	301,00
-12200,82	152,00
-12172,14	149,00
-12143,52	152,00
-12114,97	10,00
-12086,49	167,00
-12058,07	167,00
-12029,73	42,00
-12001,44	130,00
-11973,23	84,00
-11945,08	56,00
-11917,00	235,00
-11888,98	232,00
-11861,03	121,00
-11833,15	230,00
-11805,32	220,00
-11777,57	103,00
-11749,88	192,00
-11722,25	188,00
-11694,69	154,00
-11667,19	181,00
-11639,75	116,00
-11612,38	166,00
-11585,07	208,00
-11557,83	158,00
-11530,65	122,00
-11503,53	222,00
-11476,47	192,00
-11449,48	139,00
-11422,54	155,00
-11395,67	208,00
-11368,86	154,00
-11342,11	65,00
-11315,43	123,00
-11288,80	135,00
-11262,23	272,00
-11235,73	212,00
-11209,28	56,00
-11182,90	148,00
-11156,57	240,00
-11130,31	269,00
-11104,10	118,00
-11077,96	176,00
-11051,87	112,00
-11025,84	203,00
-10999,87	284,00
-10973,96	118,00
-10948,11	129,00
-10922,31	108,00
-10896,58	118,00
-10870,90	237,00
-10845,28	208,00
-10819,71	49,00
-10794,20	189,00
-10768,75	283,00
-10743,36	246,00
-10718,02	158,00
-10692,74	155,00
-10667,52	166,00
-10642,35	121,00
-10617,24	272,00
-10592,18	344,00
-10567,18	221,00
-10542,23	119,00
-10517,34	287,00
-10492,51	131,00
-10467,72	294,00
-10443,00	365,00
-10418,32	242,00
-10393,70	261,00
-10369,14	288,00
-10344,63	312,00
-10320,17	304,00
-10295,77	305,00
-10271,42	337,00
-10247,12	302,00
-10222,88	347,00
-10198,68	357,00
-10174,54	465,00
-10150,46	475,00
-10126,42	381,00
-10102,44	494,00
-10078,51	458,00
-10054,63	555,00
-10030,80	457,00
-10007,03	522,00
-9983,30	528,00
-9959,63	549,00
-9936,01	630,00
-9912,44	572,00
-9888,92	479,00
-9865,44	588,00
-9842,02	544,00
-9818,65	570,00
-9795,33	599,00
-9772,06	691,00
-9748,84	714,00
-9725,67	774,00
-9702,55	866,00
-9679,47	1146,00
-9656,45	1061,00
-9633,47	1194,00
-9610,55	1164,00
-9587,67	1176,00
-9564,84	1451,00
-9542,06	1378,00
-9519,32	1572,00
-9496,64	1791,00
-9474,00	1903,00
-9451,41	1845,00
-9428,87	1868,00
-9406,37	1835,00
-9383,92	1662,00
-9361,52	1600,00
-9339,17	1488,00
-9316,86	1718,00
-9294,60	2008,00
-9272,38	2102,00
-9250,21	2339,00
-9228,09	2450,00
-9206,01	2297,00
-9183,98	2151,00
-9162,00	1793,00
-9140,06	1824,00
-9118,16	1798,00
-9096,31	1873,00
-9074,51	1979,00
-9052,75	1867,00
-9031,04	1827,00
-9009,37	1584,00
-8987,74	1554,00
-8966,16	1379,00
-8944,63	1204,00
-8923,14	980,00
-8901,69	1194,00
-8880,29	1331,00
-8858,93	1606,00
-8837,61	1725,00
-8816,34	1784,00
-8795,11	1766,00
-8773,92	1763,00
-8752,78	1327,00
-8731,68	1412,00
-8710,62	1329,00
-8689,61	1528,00
-8668,63	1598,00
-8647,70	1734,00
-8626,82	1608,00
-8605,97	1535,00
-8585,17	1564,00
-8564,41	1304,00
-8543,69	1389,00
-8523,01	1157,00
-8502,37	1240,00
-8481,78	1285,00
-8461,23	1373,00
-8440,71	1436,00
-8420,24	1519,00
-8399,81	1674,00
-8379,42	1682,00
-8359,08	1511,00
-8338,77	1287,00
-8318,50	1189,00
-8298,27	1249,00
-8278,09	1314,00
-8257,94	1262,00
-8237,83	1363,00
-8217,76	1545,00
-8197,74	1530,00
-8177,75	1504,00
-8157,80	1298,00
-8137,89	1186,00
-8118,02	1332,00
-8098,19	1136,00
-8078,40	1157,00
-8058,65	1212,00
-8038,93	1369,00
-8019,26	1221,00
-7999,62	1212,00
-7980,02	1228,00
-7960,46	1150,00
-7940,94	1109,00
-7921,46	1178,00
-7902,01	1123,00
-7882,60	1098,00
-7863,23	1102,00
-7843,90	1228,00
-7824,61	1257,00
-7805,35	1222,00
-7786,13	1308,00
-7766,95	1299,00
-7747,80	1043,00
-7728,69	1245,00
-7709,62	1101,00
-7690,59	1198,00
-7671,59	1227,00
-7652,63	1304,00
-7633,70	1319,00
-7614,81	1179,00
-7595,96	1142,00
-7577,15	1016,00
-7558,37	1005,00
-7539,62	1129,00
-7520,91	1362,00
-7502,24	1185,00
-7483,60	1352,00
-7465,00	1139,00
-7446,44	1104,00
-7427,91	1041,00
-7409,41	963,00
-7390,95	885,00
-7372,53	875,00
-7354,14	861,00
-7335,78	781,00
-7317,46	895,00
-7299,18	1005,00
-7280,92	1180,00
-7262,71	1060,00
-7244,52	1255,00
-7226,38	1214,00
-7208,26	1251,00
-7190,18	1189,00
-7172,14	1056,00
-7154,12	1147,00
-7136,15	1265,00
-7118,20	1188,00
-7100,29	1277,00
-7082,41	1238,00
-7064,57	1138,00
-7046,76	1141,00
-7028,98	952,00
-7011,24	931,00
-6993,53	767,00
-6975,85	757,00
-6958,20	668,00
-6940,59	621,00
-6923,01	568,00
-6905,46	778,00
-6887,94	952,00
-6870,46	935,00
-6853,01	1090,00
-6835,59	1157,00
-6818,21	950,00
-6800,85	709,00
-6783,53	735,00
-6766,24	650,00
-6748,98	637,00
-6731,76	527,00
-6714,56	605,00
-6697,40	527,00
-6680,26	573,00
-6663,16	679,00
-6646,09	745,00
-6629,05	802,00
-6612,05	821,00
-6595,07	940,00
-6578,13	745,00
-6561,21	736,00
-6544,33	615,00
-6527,47	482,00
-6510,65	407,00
-6493,86	438,00
-6477,10	575,00
-6460,36	460,00
-6443,66	426,00
-6426,99	354,00
-6410,35	450,00
-6393,74	435,00
-6377,16	618,00
-6360,61	698,00
-6344,09	649,00
-6327,59	761,00
-6311,13	624,00
-6294,70	801,00
-6278,29	721,00
-6261,92	694,00
-6245,58	1044,00
-6229,26	1039,00
-6212,97	848,00
-6196,72	634,00
-6180,49	627,00
-6164,29	359,00
-6148,12	454,00
-6131,98	288,00
-6115,86	316,00
-6099,78	328,00
-6083,72	166,00
-6067,69	379,00
-6051,69	329,00
-6035,72	270,00
-6019,78	352,00
-6003,87	491,00
-5987,98	604,00
-5972,12	608,00
-5956,29	640,00
-5940,49	518,00
-5924,71	391,00
-5908,96	428,00
-5893,24	335,00
-5877,55	313,00
-5861,89	322,00
-5846,25	395,00
-5830,64	292,00
-5815,05	428,00
-5799,50	206,00
-5783,97	323,00
-5768,47	379,00
-5752,99	392,00
-5737,55	729,00
-5722,12	627,00
-5706,73	626,00
-5691,36	483,00
-5676,02	391,00
-5660,71	327,00
-5645,42	215,00
-5630,16	437,00
-5614,92	363,00
-5599,71	509,00
-5584,53	547,00
-5569,37	377,00
-5554,24	1501,00
-5539,14	429,00
-5524,06	449,00
-5509,01	435,00
-5493,98	463,00
-5478,98	374,00
-5464,00	446,00
-5449,05	476,00
-5434,13	384,00
-5419,23	328,00
-5404,36	350,00
-5389,51	369,00
-5374,69	608,00
-5359,89	791,00
-5345,12	633,00
-5330,37	690,00
-5315,65	427,00
-5300,95	502,00
-5286,28	464,00
-5271,63	340,00
-5257,01	444,00
-5242,41	566,00
-5227,84	488,00
-5213,29	325,00
-5198,76	106,00
-5184,26	259,00
-5169,79	245,00
-5155,33	453,00
-5140,91	362,00
-5126,51	467,00
-5112,13	430,00
-5097,77	477,00
-5083,44	396,00
-5069,13	300,00
-5054,85	442,00
-5040,59	300,00
-5026,36	334,00
-5012,15	544,00
-4997,96	464,00
-4983,80	254,00
-4969,66	176,00
-4955,54	355,00
-4941,44	301,00
-4927,37	498,00
-4913,33	626,00
-4899,30	680,00
-4885,30	668,00
-4871,33	398,00
-4857,37	209,00
-4843,44	175,00
-4829,53	178,00
-4815,65	426,00
-4801,79	338,00
-4787,95	214,00
-4774,13	333,00
-4760,34	320,00
-4746,56	141,00
-4732,82	352,00
-4719,09	208,00
-4705,38	525,00
-4691,70	633,00
-4678,04	605,00
-4664,41	366,00
-4650,79	438,00
-4637,20	376,00
-4623,63	336,00
-4610,08	272,00
-4596,56	394,00
-4583,05	366,00
-4569,57	372,00
-4556,11	202,00
-4542,67	160,00
-4529,25	261,00
-4515,86	435,00
-4502,49	587,00
-4489,13	439,00
-4475,80	406,00
-4462,49	437,00
-4449,21	340,00
-4435,94	258,00
-4422,70	243,00
-4409,47	291,00
-4396,27	244,00
-4383,09	281,00
-4369,93	128,00
-4356,79	166,00
-4343,67	376,00
-4330,58	360,00
-4317,50	288,00
-4304,45	318,00
-4291,41	329,00
-4278,40	326,00
-4265,41	84,00
-4252,44	315,00
-4239,49	349,00
-4226,55	364,00
-4213,65	272,00
-4200,76	294,00
-4187,89	186,00
-4175,04	144,00
-4162,21	246,00
-4149,40	194,00
-4136,61	-26,00
-4123,85	136,00
-4111,10	179,00
-4098,37	206,00
-4085,66	275,00
-4072,98	188,00
-4060,31	98,00
-4047,66	280,00
-4035,04	254,00
-4022,43	29,00
-4009,84	127,00
-3997,27	145,00
-3984,72	69,00
-3972,19	201,00
-3959,69	108,00
-3947,20	126,00
-3934,73	88,00
-3922,27	125,00
-3909,84	101,00
-3897,43	62,00
-3885,04	116,00
-3872,67	232,00
-3860,31	137,00
-3847,98	71,00
-3835,66	97,00
-3823,36	156,00
-3811,09	191,00
-3798,83	176,00
-3786,59	158,00
-3774,37	128,00
-3762,17	178,00
-3749,98	83,00
-3737,82	188,00
-3725,67	159,00
-3713,55	193,00
-3701,44	252,00
-3689,35	229,00
-3677,28	49,00
-3665,22	278,00
-3653,19	134,00
-3641,17	202,00
-3629,18	181,00
-3617,20	205,00
-3605,24	95,00
-3593,30	93,00
-3581,37	96,00
-3569,47	245,00
-3557,58	178,00
-3545,71	158,00
-3533,86	189,00
-3522,02	149,00
-3510,21	142,00
-3498,41	289,00
-3486,63	162,00
-3474,87	157,00
-3463,12	133,00
-3451,40	94,00
-3439,69	244,00
-3428,00	113,00
-3416,33	128,00
-3404,67	116,00
-3393,03	324,00
-3381,41	168,00
-3369,81	97,00
-3358,22	192,00
-3346,66	178,00
-3335,10	-6,00
-3323,57	238,00
-3312,06	128,00
-3300,56	54,00
-3289,08	50,00
-3277,61	134,00
-3266,16	88,00
-3254,73	182,00
-3243,32	179,00
-3231,92	164,00
-3220,55	162,00
-3209,18	103,00
-3197,84	177,00
-3186,51	32,00
-3175,20	51,00
-3163,90	316,00
-3152,63	119,00
-3141,36	0,00
-3130,12	95,00
-3118,89	74,00
-3107,68	90,00
-3096,49	144,00
-3085,31	91,00
-3074,15	115,00
-3063,00	195,00
-3051,87	157,00
-3040,76	126,00
-3029,67	137,00
-3018,59	208,00
-3007,52	268,00
-2996,48	186,00
-2985,44	125,00
-2974,43	366,00
-2963,43	183,00
-2952,45	163,00
-2941,48	135,00
-2930,53	166,00
-2919,60	161,00
-2908,68	226,00
-2897,78	11,00
-2886,89	210,00
-2876,02	61,00
-2865,17	3,00
-2854,33	154,00
-2843,50	156,00
-2832,70	217,00
-2821,90	128,00
-2811,13	-17,00
-2800,37	184,00
-2789,62	174,00
-2778,89	135,00
-2768,18	169,00
-2757,48	252,00
-2746,80	131,00
-2736,13	178,00
-2725,48	95,00
-2714,84	134,00
-2704,22	-3,00
-2693,61	267,00
-2683,02	250,00
-2672,45	31,00
-2661,89	278,00
-2651,34	92,00
-2640,81	107,00
-2630,30	150,00
-2619,80	166,00
-2609,31	15,00
-2598,84	201,00
-2588,39	238,00
-2577,95	164,00
-2567,52	201,00
-2557,11	298,00
-2546,71	130,00
-2536,33	182,00
-2525,97	215,00
-2515,62	263,00
-2505,28	-42,00
-2494,96	86,00
-2484,65	84,00
-2474,36	183,00
-2464,08	209,00
-2453,82	99,00
-2443,57	113,00
-2433,33	150,00
-2423,11	66,00
-2412,91	113,00
-2402,72	153,00
-2392,54	123,00
-2382,38	203,00
-2372,23	184,00
-2362,09	251,00
-2351,97	267,00
-2341,87	125,00
-2331,78	105,00
-2321,70	168,00
-2311,64	155,00
-2301,59	142,00
-2291,55	220,00
-2281,53	160,00
-2271,53	234,00
-2261,53	182,00
-2251,55	138,00
-2241,59	131,00
-2231,64	137,00
-2221,70	159,00
-2211,78	129,00
-2201,87	261,00
-2191,97	197,00
-2182,09	140,00
-2172,22	277,00
-2162,37	153,00
-2152,53	134,00
-2142,70	212,00
-2132,89	202,00
-2123,09	144,00
-2113,30	75,00
-2103,53	44,00
-2093,77	-9,00
-2084,02	114,00
-2074,29	134,00
-2064,57	141,00
-2054,86	267,00
-2045,17	112,00
-2035,49	189,00
-2025,82	131,00
-2016,17	170,00
-2006,53	241,00
-1996,91	147,00
-1987,29	88,00
-1977,69	183,00
-1968,11	221,00
-1958,53	358,00
-1948,97	94,00
-1939,42	210,00
-1929,89	52,00
-1920,37	183,00
-1910,86	44,00
-1901,36	183,00
-1891,88	141,00
-1882,41	44,00
-1872,95	161,00
-1863,51	123,00
-1854,08	84,00
-1844,66	102,00
-1835,26	184,00
-1825,86	247,00
-1816,48	208,00
-1807,11	200,00
-1797,76	84,00
-1788,42	290,00
-1779,09	114,00
-1769,77	103,00
-1760,47	59,00
-1751,17	145,00
-1741,89	156,00
-1732,63	29,00
-1723,37	48,00
-1714,13	24,00
-1704,90	49,00
-1695,68	320,00
-1686,48	171,00
-1677,29	189,00
-1668,11	304,00
-1658,94	44,00
-1649,78	182,00
-1640,64	141,00
-1631,51	188,00
-1622,39	222,00
-1613,28	132,00
-1604,19	221,00
-1595,10	79,00
-1586,03	270,00
-1576,97	186,00
-1567,93	146,00
-1558,89	103,00
-1549,87	227,00
-1540,86	242,00
-1531,86	122,00
-1522,87	74,00
-1513,90	264,00
-1504,93	283,00
-1495,98	32,00
-1487,04	120,00
-1478,12	224,00
-1469,20	220,00
-1460,30	187,00
-1451,40	312,00
-1442,52	165,00
-1433,65	118,00
-1424,80	284,00
-1415,95	230,00
-1407,12	257,00
-1398,30	37,00
-1389,48	194,00
-1380,69	108,00
-1371,90	233,00
-1363,12	149,00
-1354,36	168,00
-1345,60	172,00
-1336,86	207,00
-1328,13	173,00
-1319,41	228,00
-1310,70	207,00
-1302,01	157,00
-1293,32	187,00
-1284,65	168,00
-1275,99	207,00
-1267,33	152,00
-1258,69	133,00
-1250,06	283,00
-1241,45	136,00
-1232,84	272,00
-1224,25	114,00
-1215,66	156,00
-1207,09	113,00
-1198,53	82,00
-1189,97	65,00
-1181,43	326,00
-1172,91	76,00
-1164,39	181,00
-1155,88	167,00
-1147,38	202,00
-1138,90	186,00
-1130,43	164,00
-1121,96	95,00
-1113,51	90,00
-1105,07	52,00
-1096,64	232,00
-1088,22	150,00
-1079,81	232,00
-1071,41	201,00
-1063,02	-34,00
-1054,65	103,00
-1046,28	75,00
-1037,92	109,00
-1029,58	177,00
-1021,24	24,00
-1012,92	312,00
-1004,61	180,00
-996,30	208,00
-988,01	129,00
-979,73	222,00
-971,46	159,00
-963,20	118,00
-954,95	64,00
-946,71	101,00
-938,48	268,00
-930,26	81,00
-922,06	125,00
-913,86	206,00
-905,67	195,00
-897,49	77,00
-889,33	193,00
-881,17	214,00
-873,02	256,00
-864,89	135,00
-856,76	86,00
-848,65	271,00
-840,54	102,00
-832,45	98,00
-824,36	133,00
-816,29	244,00
-808,22	149,00
-800,17	187,00
-792,12	107,00
-784,09	240,00
-776,06	151,00
-768,05	92,00
-760,04	233,00
-752,05	163,00
-744,07	220,00
-736,09	199,00
-728,13	152,00
-720,17	277,00
-712,23	206,00
-704,29	140,00
-696,37	132,00
-688,45	181,00
-680,55	74,00
-672,65	285,00
-664,77	120,00
-656,89	140,00
-649,03	197,00
-641,17	193,00
-633,32	196,00
-625,49	201,00
-617,66	239,00
-609,84	132,00
-602,03	112,00
-594,23	217,00
-586,45	157,00
-578,67	250,00
-570,90	174,00
-563,14	276,00
-555,39	169,00
-547,65	289,00
-539,91	136,00
-532,19	191,00
-524,48	178,00
-516,78	100,00
-509,08	243,00
-501,40	226,00
-493,72	153,00
-486,06	132,00
-478,40	186,00
-470,76	201,00
-463,12	62,00
-455,49	203,00
-447,87	152,00
-440,26	125,00
-432,66	98,00
-425,07	227,00
-417,49	194,00
-409,92	111,00
-402,35	176,00
-394,80	183,00
-387,25	234,00
-379,72	167,00
-372,19	238,00
-364,67	241,00
-357,17	97,00
-349,67	48,00
-342,18	305,00
-334,69	251,00
-327,22	166,00
-319,76	161,00
-312,30	238,00
-304,86	197,00
-297,42	262,00
-290,00	268,00
-282,58	135,00
-275,17	309,00
-267,77	238,00
-260,37	296,00
-252,99	301,00
-245,62	184,00
-238,25	186,00
-230,90	249,00
-223,55	392,00
-216,21	307,00
-208,88	238,00
-201,56	212,00
-194,25	249,00
-186,94	192,00
-179,65	372,00
-172,36	358,00
-165,08	351,00
-157,81	452,00
-150,55	314,00
-143,30	429,00
-136,06	419,00
-128,82	329,00
-121,60	509,00
-114,38	369,00
-107,17	360,00
-99,97	427,00
-92,78	684,00
-85,60	664,00
-78,42	762,00
-71,25	752,00
-64,10	976,00
-56,95	1240,00
-49,81	1255,00
-42,67	1454,00
-35,55	1868,00
-28,43	2575,00
-21,33	4543,00
-14,23	14974,00
-7,14	47266,00
-0,05	38051,00
7,02	42597,00
14,09	39158,00
21,14	10506,00
28,19	4600,00
35,23	3128,00
42,27	2250,00
49,29	2048,00
56,31	1655,00
63,32	1478,00
70,32	1201,00
77,31	1144,00
84,29	834,00
91,27	781,00
98,23	789,00
105,19	656,00
112,14	858,00
119,09	1141,00
126,02	1608,00
132,95	1760,00
139,87	1708,00
146,78	1826,00
153,68	1757,00
160,58	1758,00
167,46	1721,00
174,34	1744,00
181,21	1609,00
188,08	1638,00
194,93	1680,00
201,78	1695,00
208,62	1718,00
215,45	1629,00
222,27	1559,00
229,09	1499,00
235,90	1523,00
242,70	1387,00
249,49	1628,00
256,27	1487,00
263,05	1455,00
269,82	1341,00
276,58	1451,00
283,33	1396,00
290,08	1472,00
296,82	1373,00
303,55	1290,00
310,27	1392,00
316,98	1358,00
323,69	1351,00
330,39	1203,00
337,08	1303,00
343,76	1296,00
350,44	1239,00
357,11	1261,00
363,77	1385,00
370,42	1259,00
377,07	1357,00
383,71	1288,00
390,34	1169,00
396,96	1371,00
403,58	1178,00
410,19	1283,00
416,79	1253,00
423,38	1241,00
429,97	1217,00
436,55	1181,00
443,12	1248,00
449,68	1195,00
456,24	1198,00
462,79	1188,00
469,33	1024,00
475,86	1172,00
482,39	1152,00
488,91	1173,00
495,42	1056,00
501,93	1146,00
508,42	1253,00
514,91	1238,00
521,40	997,00
527,87	1142,00
534,34	1034,00
540,80	1228,00
547,25	1062,00
553,70	1126,00
560,14	1083,00
566,57	925,00
573,00	974,00
579,41	975,00
585,83	1140,00
592,23	1179,00
598,62	1029,00
605,01	1034,00
611,40	1027,00
617,77	1090,00
624,14	1067,00
630,50	1011,00
636,85	987,00
643,20	925,00
649,54	999,00
655,87	1043,00
662,20	1017,00
668,52	1001,00
674,83	912,00
681,13	1120,00
687,43	973,00
693,72	911,00
700,00	1011,00
706,28	988,00
712,55	988,00
718,81	1060,00
725,07	1064,00
731,32	866,00
737,56	1170,00
743,79	1084,00
750,02	1122,00
756,24	1083,00
762,46	914,00
768,67	1160,00
774,87	949,00
781,06	1059,00
787,25	1075,00
793,43	932,00
799,60	1012,00
805,77	957,00
811,93	902,00
818,08	1058,00
824,23	1060,00
830,37	1110,00
836,50	1057,00
842,63	1041,00
848,75	963,00
854,87	974,00
860,97	1097,00
867,07	1122,00
873,17	1125,00
879,25	984,00
885,33	1139,00
891,41	1031,00
897,47	879,00
903,53	930,00
909,59	847,00
915,63	1184,00
921,67	973,00
927,71	893,00
933,74	960,00
939,76	958,00
945,77	914,00
951,78	940,00
957,78	892,00
963,78	944,00
969,77	903,00
975,75	991,00
981,72	929,00
987,69	1145,00
993,66	933,00
999,61	958,00
1005,56	1015,00
1011,51	919,00
1017,44	936,00
1023,37	991,00
1029,30	1040,00
1035,22	1029,00
1041,13	1063,00
1047,03	1116,00
1052,93	1258,00
1058,83	1805,00
1064,71	1950,00
1070,59	1699,00
1076,47	1356,00
1082,33	1283,00
1088,20	1160,00
1094,05	1163,00
1099,90	1027,00
1105,74	1149,00
1111,58	1013,00
1117,41	1122,00
1123,23	1680,00
1129,05	2001,00
1134,86	1766,00
1140,67	1390,00
1146,47	1129,00
1152,26	1079,00
1158,05	897,00
1163,83	1067,00
1169,60	982,00
1175,37	1236,00
1181,13	943,00
1186,89	948,00
1192,64	951,00
1198,38	1037,00
1204,12	942,00
1209,85	953,00
1215,58	858,00
1221,30	1016,00
1227,02	912,00
1232,72	915,00
1238,43	853,00
1244,12	1014,00
1249,81	1016,00
1255,50	1079,00
1261,17	1147,00
1266,85	1087,00
1272,51	1150,00
1278,17	1218,00
1283,83	1312,00
1289,47	1896,00
1295,12	2399,00
1300,75	2146,00
1306,38	1626,00
1312,01	1375,00
1317,63	1096,00
1323,24	1170,00
1328,85	1116,00
1334,45	1092,00
1340,04	1044,00
1345,63	1016,00
1351,22	1074,00
1356,80	1040,00
1362,37	1104,00
1367,93	1256,00
1373,49	1251,00
1379,05	1157,00
1384,60	1155,00
1390,14	1187,00
1395,68	1099,00
1401,21	1232,00
1406,74	1205,00
1412,26	1515,00
1417,77	1552,00
1423,28	1701,00
1428,78	1916,00
1434,28	1939,00
1439,77	2517,00
1445,26	2439,00
1450,74	2265,00
1456,22	1951,00
1461,68	1949,00
1467,15	1704,00
1472,61	1661,00
1478,06	1415,00
1483,51	1263,00
1488,95	1226,00
1494,38	984,00
1499,81	922,00
1505,24	929,00
1510,65	1054,00
1516,07	961,00
1521,48	859,00
1526,88	947,00
1532,27	947,00
1537,67	986,00
1543,05	934,00
1548,43	884,00
1553,81	904,00
1559,18	983,00
1564,54	860,00
1569,90	932,00
1575,25	791,00
1580,60	1010,00
1585,94	827,00
1591,28	1020,00
1596,61	802,00
1601,93	807,00
1607,25	890,00
1612,57	798,00
1617,88	948,00
1623,18	1000,00
1628,48	874,00
1633,77	983,00
1639,06	979,00
1644,34	955,00
1649,62	788,00
1654,89	838,00
1660,16	845,00
1665,42	871,00
1670,67	892,00
1675,92	850,00
1681,17	885,00
1686,41	770,00
1691,64	875,00
1696,87	883,00
1702,10	736,00
1707,32	679,00
1712,53	823,00
1717,74	823,00
1722,94	692,00
1728,14	746,00
1733,33	726,00
1738,52	828,00
1743,70	852,00
1748,88	791,00
1754,05	809,00
1759,22	678,00
1764,38	-950,00
1769,53	741,00
1774,69	775,00
1779,83	809,00
1784,97	648,00
1790,11	759,00
1795,24	751,00
1800,36	769,00
1805,48	791,00
1810,60	786,00
1815,71	728,00
1820,82	773,00
1825,92	811,00
1831,01	804,00
1836,10	758,00
1841,19	814,00
1846,26	672,00
1851,34	726,00
1856,41	592,00
1861,47	794,00
1866,53	633,00
1871,59	696,00
1876,64	812,00
1881,68	790,00
1886,72	736,00
1891,76	615,00
1896,79	687,00
1901,81	653,00
1906,83	584,00
1911,85	666,00
1916,86	712,00
1921,86	640,00
1926,86	581,00
1931,86	680,00
1936,85	800,00
1941,83	633,00
1946,81	648,00
1951,79	715,00
1956,76	578,00
1961,72	671,00
1966,68	620,00
1971,64	606,00
1976,59	715,00
1981,54	609,00
1986,48	637,00
1991,42	615,00
1996,35	728,00
2001,27	475,00
2006,20	661,00
2011,11	722,00
2016,03	594,00
2020,93	691,00
2025,84	568,00
2030,73	626,00
2035,63	568,00
2040,52	542,00
2045,40	578,00
2050,28	592,00
2055,15	553,00
2060,02	619,00
2064,89	669,00
2069,75	614,00
2074,60	723,00
2079,46	587,00
2084,30	726,00
2089,14	588,00
2093,98	534,00
2098,81	628,00
2103,64	582,00
2108,46	613,00
2113,28	636,00
2118,09	527,00
2122,90	633,00
2127,70	662,00
2132,50	581,00
2137,30	588,00
2142,09	569,00
2146,87	557,00
2151,66	632,00
2156,43	661,00
2161,20	571,00
2165,97	610,00
2170,73	693,00
2175,49	606,00
2180,24	496,00
2184,99	529,00
2189,74	618,00
2194,48	669,00
2199,21	595,00
2203,94	511,00
2208,67	603,00
2213,39	517,00
2218,11	465,00
2222,82	563,00
2227,53	566,00
2232,23	540,00
2236,93	700,00
2241,63	543,00
2246,32	584,00
2251,00	673,00
2255,68	585,00
2260,36	584,00
2265,03	562,00
2269,70	551,00
2274,36	608,00
2279,02	542,00
2283,68	549,00
2288,33	519,00
2292,97	580,00
2297,61	603,00
2302,25	436,00
2306,88	554,00
2311,51	629,00
2316,14	477,00
2320,75	558,00
2325,37	513,00
2329,98	571,00
2334,59	474,00
2339,19	491,00
2343,79	462,00
2348,38	523,00
2352,97	454,00
2357,55	664,00
2362,13	618,00
2366,71	494,00
2371,28	497,00
2375,85	546,00
2380,41	642,00
2384,97	604,00
2389,52	401,00
2394,07	660,00
2398,62	410,00
2403,16	574,00
2407,70	483,00
2412,23	578,00
2416,76	535,00
2421,29	408,00
2425,81	583,00
2430,32	436,00
2434,84	476,00
2439,34	605,00
2443,85	475,00
2448,35	641,00
2452,84	481,00
2457,33	528,00
2461,82	515,00
2466,30	439,00
2470,78	528,00
2475,25	426,00
2479,72	476,00
2484,19	518,00
2488,65	544,00
2493,11	413,00
2497,56	557,00
2502,01	451,00
2506,46	483,00
2510,90	418,00
2515,34	462,00
2519,77	609,00
2524,20	496,00
2528,62	555,00
2533,04	542,00
2537,46	564,00
2541,87	430,00
2546,28	464,00
2550,68	420,00
2555,08	442,00
2559,48	432,00
2563,87	492,00
2568,26	469,00
2572,64	351,00
2577,02	496,00
2581,40	501,00
2585,77	468,00
2590,14	493,00
2594,50	486,00
2598,86	537,00
2603,22	488,00
2607,57	406,00
2611,92	491,00
2616,26	627,00
2620,60	605,00
2624,94	439,00
2629,27	546,00
2633,60	541,00
2637,92	310,00
2642,24	489,00
2646,56	468,00
2650,87	562,00
2655,18	475,00
2659,48	469,00
2663,78	454,00
2668,08	555,00
2672,37	592,00
2676,66	496,00
2680,95	473,00
2685,23	515,00
2689,50	549,00
2693,78	451,00
2698,05	568,00
2702,31	528,00
2706,57	499,00
2710,83	494,00
2715,08	589,00
2719,33	685,00
2723,58	694,00
2727,82	528,00
2732,06	579,00
2736,29	607,00
2740,53	570,00
2744,75	524,00
2748,97	589,00
2753,19	668,00
2757,41	414,00
2761,62	506,00
2765,83	544,00
2770,03	516,00
2774,23	542,00
2778,43	585,00
2782,62	767,00
2786,81	595,00
2791,00	613,00
2795,18	603,00
2799,35	562,00
2803,53	579,00
2807,70	692,00
2811,86	674,00
2816,03	732,00
2820,19	781,00
2824,34	802,00
2828,49	836,00
2832,64	1175,00
2836,78	1365,00
2840,92	1633,00
2845,06	1861,00
2849,19	2179,00
2853,32	2227,00
2857,45	2252,00
2861,57	2157,00
2865,69	1845,00
2869,80	1975,00
2873,91	2028,00
2878,02	2264,00
2882,12	2327,00
2886,22	2442,00
2890,32	2117,00
2894,41	2019,00
2898,50	1924,00
2902,58	1811,00
2906,67	1599,00
2910,74	1458,00
2914,82	1396,00
2918,89	1363,00
2922,96	1211,00
2927,02	1237,00
2931,08	1063,00
2935,13	999,00
2939,19	928,00
2943,24	829,00
2947,28	813,00
2951,32	787,00
2955,36	720,00
2959,40	595,00
2963,43	635,00
2967,46	592,00
2971,48	465,00
2975,50	604,00
2979,52	569,00
2983,53	477,00
2987,54	437,00
2991,55	434,00
2995,55	441,00
2999,55	488,00
3003,54	452,00
3007,54	351,00
3011,53	348,00
3015,51	357,00
3019,49	258,00
3023,47	369,00
3027,45	440,00
3031,42	437,00
3035,39	404,00
3039,35	386,00
3043,31	386,00
3047,27	346,00
3051,22	308,00
3055,17	262,00
3059,12	276,00
3063,06	329,00
3067,00	271,00
3070,94	245,00
3074,87	357,00
3078,80	346,00
3082,73	382,00
3086,65	256,00
3090,57	398,00
3094,49	263,00
3098,40	253,00
3102,31	346,00
3106,22	263,00
3110,12	317,00
3114,02	245,00
3117,92	238,00
3121,81	250,00
3125,70	201,00
3129,58	219,00
3133,47	267,00
3137,34	208,00
3141,22	375,00
3145,09	269,00
3148,96	306,00
3152,83	252,00
3156,69	228,00
3160,55	206,00
3164,40	123,00
3168,26	202,00
3172,10	400,00
3175,95	225,00
3179,79	182,00
3183,63	175,00
3187,47	433,00
3191,30	247,00
3195,13	213,00
3198,95	189,00
3202,78	333,00
3206,60	320,00
3210,41	270,00
3214,23	248,00
3218,03	168,00
3221,84	160,00
3225,64	248,00
3229,44	197,00
3233,24	102,00
3237,03	251,00
3240,82	232,00
3244,61	200,00
3248,39	162,00
3252,17	267,00
3255,95	253,00
3259,72	287,00
3263,49	181,00
3267,26	309,00
3271,03	290,00
3274,79	136,00
3278,54	195,00
3282,30	141,00
3286,05	283,00
3289,80	156,00
3293,54	178,00
3297,29	310,00
3301,02	221,00
3304,76	184,00
3308,49	325,00
3312,22	220,00
3315,95	141,00
3319,67	433,00
3323,39	215,00
3327,10	187,00
3330,82	231,00
3334,53	246,00
3338,24	308,00
3341,94	268,00
3345,64	208,00
3349,34	160,00
3353,03	215,00
3356,72	407,00
3360,41	231,00
3364,10	333,00
3367,78	104,00
3371,46	233,00
3375,13	247,00
3378,81	216,00
3382,48	193,00
3386,14	114,00
3389,81	198,00
3393,47	361,00
3397,12	245,00
3400,78	178,00
3404,43	378,00
3408,08	183,00
3411,72	203,00
3415,36	248,00
3419,00	292,00
3422,64	262,00
3426,27	242,00
3429,90	178,00
3433,53	244,00
3437,15	258,00
3440,77	192,00
3444,39	304,00
3448,00	99,00
3451,62	263,00
3455,22	332,00
3458,83	163,00
3462,43	73,00
3466,03	84,00
3469,63	104,00
3473,22	249,00
3476,81	314,00
3480,40	148,00
3483,99	126,00
3487,57	231,00
3491,15	177,00
3494,72	140,00
3498,29	128,00
3501,86	144,00
3505,43	115,00
3508,99	200,00
3512,56	263,00
3516,11	232,00
3519,67	281,00
3523,22	179,00
3526,77	73,00
3530,32	251,00
3533,86	232,00
3537,40	180,00
3540,94	70,00
3544,47	176,00
3548,00	178,00
3551,53	182,00
3555,06	99,00
3558,58	215,00
3562,10	230,00
3565,62	263,00
3569,13	182,00
3572,64	95,00
3576,15	179,00
3579,66	194,00
3583,16	200,00
3586,66	55,00
3590,16	120,00
3593,65	117,00
3597,14	134,00
3600,63	238,00
3604,11	184,00
3607,60	163,00
3611,08	238,00
3614,55	82,00
3618,03	158,00
3621,50	211,00
3624,97	174,00
3628,43	168,00
3631,90	159,00
3635,36	196,00
3638,81	135,00
3642,27	196,00
3645,72	275,00
3649,17	135,00
3652,61	40,00
3656,06	179,00
3659,50	102,00
3662,93	179,00
3666,37	61,00
3669,80	86,00
3673,23	302,00
3676,65	198,00
3680,08	86,00
3683,50	117,00
3686,92	82,00
3690,33	166,00
3693,74	194,00
3697,15	244,00
3700,56	136,00
3703,96	131,00
3707,36	100,00
3710,76	-14,00
3714,16	197,00
3717,55	135,00
3720,94	175,00
3724,33	60,00
3727,71	26,00
3731,10	122,00
3734,48	140,00
3737,85	120,00
3741,23	130,00
3744,60	281,00
3747,97	142,00
3751,33	204,00
3754,69	61,00
3758,05	316,00
3761,41	150,00
3764,77	241,00
3768,12	85,00
3771,47	194,00
3774,82	128,00
3778,16	-7,00
3781,50	6,00
3784,84	8,00
3788,18	5,00
>>>>>End Processed Spectral Data<<<<<
