SpectraSuite Data File
++++++++++++++++++++++++++++++++++++
Date: Tue Mar 03 12:42:22 ICT 2026
User: user
Dark Spectrum Present: Yes
Reference Spectrum Present: No
Number of Sampled Component Spectra: 1
Spectrometers: MAYP113682
Integration Time (usec): 3000000 (MAYP113682)
Spectra Averaged: 1 (MAYP113682)
Boxcar Smoothing: 0 (MAYP113682)
Correct for Electrical Dark: No (MAYP113682)
Strobe/Lamp Enabled: No (MAYP113682)
Correct for Detector Non-linearity: No (MAYP113682)
Correct for Stray Light: No (MAYP113682)
Number of Pixels in Processed Spectrum: 2068
>>>>>Begin Processed Spectral Data<<<<<
-37534,58	6,00
-37414,56	2,00
-37295,11	-1,00
-37176,24	-2,00
-37057,95	-17,00
-36940,22	75,00
-36823,05	167,00
-36706,45	47,00
-36590,40	212,00
-36474,90	125,00
-36359,95	57,00
-36245,55	189,00
-36131,68	143,00
-36018,35	122,00
-35905,55	172,00
-35793,29	181,00
-35681,54	134,00
-35570,32	25,00
-35459,62	83,00
-35349,43	115,00
-35239,75	263,00
-35130,58	53,00
-35021,91	108,00
-34913,74	215,00
-34806,07	177,00
-34698,89	108,00
-34592,20	106,00
-34486,00	86,00
-34380,28	50,00
-34275,04	59,00
-34170,27	65,00
-34065,98	-1,00
-33962,16	185,00
-33858,81	157,00
-33755,92	64,00
-33653,49	244,00
-33551,52	185,00
-33450,01	43,00
-33348,94	77,00
-33248,33	52,00
-33148,16	78,00
-33048,43	105,00
-32949,14	-22,00
-32850,29	127,00
-32751,87	200,00
-32653,89	167,00
-32556,33	107,00
-32459,20	67,00
-32362,49	39,00
-32266,19	107,00
-32170,32	122,00
-32074,86	108,00
-31979,82	64,00
-31885,18	10,00
-31790,95	8,00
-31697,12	179,00
-31603,69	47,00
-31510,67	70,00
-31418,04	180,00
-31325,80	133,00
-31233,95	167,00
-31142,49	221,00
-31051,42	111,00
-30960,73	196,00
-30870,43	220,00
-30780,50	103,00
-30690,95	9,00
-30601,77	139,00
-30512,97	117,00
-30424,53	139,00
-30336,46	90,00
-30248,76	98,00
-30161,42	106,00
-30074,44	213,00
-29987,81	87,00
-29901,55	43,00
-29815,63	111,00
-29730,07	136,00
-29644,86	33,00
-29560,00	190,00
-29475,48	54,00
-29391,30	140,00
-29307,47	126,00
-29223,97	213,00
-29140,81	32,00
-29057,99	168,00
-28975,50	90,00
-28893,34	96,00
-28811,51	122,00
-28730,00	100,00
-28648,82	60,00
-28567,97	63,00
-28487,43	73,00
-28407,21	35,00
-28327,32	39,00
-28247,73	67,00
-28168,46	101,00
-28089,50	50,00
-28010,85	4,00
-27932,51	152,00
-27854,48	21,00
-27776,75	123,00
-27699,32	122,00
-27622,19	167,00
-27545,37	206,00
-27468,84	7,00
-27392,60	130,00
-27316,66	146,00
-27241,01	56,00
-27165,66	88,00
-27090,59	-4,00
-27015,81	269,00
-26941,31	163,00
-26867,10	226,00
-26793,17	55,00
-26719,52	50,00
-26646,15	130,00
-26573,06	281,00
-26500,24	147,00
-26427,70	181,00
-26355,43	221,00
-26283,43	147,00
-26211,71	132,00
-26140,25	6,00
-26069,06	153,00
-25998,13	-40,00
-25927,46	64,00
-25857,06	89,00
-25786,92	105,00
-25717,04	33,00
-25647,42	106,00
-25578,05	-4,00
-25508,94	60,00
-25440,09	127,00
-25371,48	163,00
-25303,13	98,00
-25235,02	36,00
-25167,17	14,00
-25099,56	100,00
-25032,19	176,00
-24965,07	79,00
-24898,20	-68,00
-24831,56	168,00
-24765,17	74,00
-24699,01	187,00
-24633,10	149,00
-24567,41	11,00
-24501,97	86,00
-24436,75	11,00
-24371,77	195,00
-24307,03	-37,00
-24242,51	105,00
-24178,22	184,00
-24114,16	120,00
-24050,32	61,00
-23986,71	-8,00
-23923,32	233,00
-23860,16	2,00
-23797,22	71,00
-23734,50	0,00
-23672,00	143,00
-23609,71	325,00
-23547,65	-10,00
-23485,80	60,00
-23424,16	198,00
-23362,74	160,00
-23301,53	58,00
-23240,54	96,00
-23179,75	84,00
-23119,17	114,00
-23058,80	144,00
-22998,64	179,00
-22938,68	150,00
-22878,93	60,00
-22819,39	132,00
-22760,04	-25,00
-22700,90	52,00
-22641,96	25,00
-22583,22	94,00
-22524,68	71,00
-22466,33	60,00
-22408,19	140,00
-22350,23	149,00
-22292,48	97,00
-22234,92	132,00
-22177,55	126,00
-22120,37	65,00
-22063,38	115,00
-22006,58	229,00
-21949,98	124,00
-21893,56	226,00
-21837,33	185,00
-21781,28	159,00
-21725,42	96,00
-21669,74	27,00
-21614,25	225,00
-21558,94	119,00
-21503,81	205,00
-21448,86	56,00
-21394,10	89,00
-21339,51	165,00
-21285,10	1,00
-21230,86	141,00
-21176,81	95,00
-21122,93	216,00
-21069,22	155,00
-21015,69	93,00
-20962,33	111,00
-20909,14	-22,00
-20856,13	146,00
-20803,28	53,00
-20750,61	121,00
-20698,10	152,00
-20645,76	101,00
-20593,59	194,00
-20541,59	143,00
-20489,75	20,00
-20438,07	180,00
-20386,56	90,00
-20335,22	183,00
-20284,03	173,00
-20233,01	58,00
-20182,15	92,00
-20131,45	25,00
-20080,91	20,00
-20030,52	179,00
-19980,30	76,00
-19930,23	-9,00
-19880,32	71,00
-19830,56	312,00
-19780,96	85,00
-19731,52	116,00
-19682,23	-51,00
-19633,09	113,00
-19584,10	182,00
-19535,26	158,00
-19486,58	59,00
-19438,04	-2,00
-19389,66	60,00
-19341,42	68,00
-19293,33	122,00
-19245,39	87,00
-19197,60	161,00
-19149,95	160,00
-19102,45	190,00
-19055,09	-15,00
-19007,87	158,00
-18960,80	183,00
-18913,87	85,00
-18867,09	-12,00
-18820,44	181,00
-18773,94	143,00
-18727,57	128,00
-18681,35	54,00
-18635,26	173,00
-18589,31	159,00
-18543,50	92,00
-18497,83	70,00
-18452,29	105,00
-18406,89	187,00
-18361,63	144,00
-18316,50	12,00
-18271,50	120,00
-18226,63	106,00
-18181,90	148,00
-18137,30	214,00
-18092,84	114,00
-18048,50	101,00
-18004,29	73,00
-17960,22	188,00
-17916,27	43,00
-17872,45	55,00
-17828,76	67,00
-17785,20	23,00
-17741,77	66,00
-17698,46	209,00
-17655,28	119,00
-17612,22	44,00
-17569,29	143,00
-17526,48	11,00
-17483,79	147,00
-17441,23	14,00
-17398,79	155,00
-17356,48	154,00
-17314,28	146,00
-17272,21	36,00
-17230,26	56,00
-17188,42	190,00
-17146,71	299,00
-17105,12	72,00
-17063,64	134,00
-17022,28	112,00
-16981,04	56,00
-16939,92	151,00
-16898,91	102,00
-16858,02	110,00
-16817,25	95,00
-16776,59	211,00
-16736,04	186,00
-16695,61	100,00
-16655,29	221,00
-16615,09	117,00
-16574,99	156,00
-16535,01	170,00
-16495,15	86,00
-16455,39	99,00
-16415,74	105,00
-16376,21	-1,00
-16336,78	17,00
-16297,46	153,00
-16258,26	95,00
-16219,16	-31,00
-16180,17	185,00
-16141,28	158,00
-16102,51	-45,00
-16063,84	56,00
-16025,27	50,00
-15986,82	163,00
-15948,46	-10,00
-15910,22	229,00
-15872,07	122,00
-15834,04	96,00
-15796,10	27,00
-15758,27	214,00
-15720,54	61,00
-15682,91	104,00
-15645,39	8,00
-15607,97	87,00
-15570,64	118,00
-15533,42	103,00
-15496,30	72,00
-15459,28	215,00
-15422,36	57,00
-15385,54	87,00
-15348,82	164,00
-15312,19	110,00
-15275,66	115,00
-15239,23	-11,00
-15202,90	74,00
-15166,67	209,00
-15130,53	210,00
-15094,48	25,00
-15058,54	105,00
-15022,68	52,00
-14986,93	75,00
-14951,26	102,00
-14915,69	85,00
-14880,22	115,00
-14844,84	-61,00
-14809,55	45,00
-14774,35	7,00
-14739,25	153,00
-14704,24	-62,00
-14669,32	55,00
-14634,49	178,00
-14599,75	144,00
-14565,10	176,00
-14530,55	89,00
-14496,08	222,00
-14461,70	175,00
-14427,41	-3,00
-14393,21	146,00
-14359,10	86,00
-14325,07	197,00
-14291,14	254,00
-14257,29	81,00
-14223,52	128,00
-14189,85	43,00
-14156,26	70,00
-14122,76	88,00
-14089,34	116,00
-14056,01	84,00
-14022,76	130,00
-13989,60	155,00
-13956,52	66,00
-13923,53	154,00
-13890,62	83,00
-13857,79	217,00
-13825,05	203,00
-13792,39	161,00
-13759,81	245,00
-13727,31	62,00
-13694,90	80,00
-13662,57	170,00
-13630,31	129,00
-13598,14	110,00
-13566,05	85,00
-13534,05	-48,00
-13502,12	169,00
-13470,27	169,00
-13438,50	24,00
-13406,80	184,00
-13375,19	83,00
-13343,66	-44,00
-13312,20	41,00
-13280,83	108,00
-13249,53	181,00
-13218,30	44,00
-13187,16	81,00
-13156,09	25,00
-13125,10	200,00
-13094,18	146,00
-13063,34	138,00
-13032,58	43,00
-13001,89	4,00
-12971,28	149,00
-12940,74	108,00
-12910,27	48,00
-12879,88	31,00
-12849,57	147,00
-12819,33	53,00
-12789,16	69,00
-12759,06	55,00
-12729,04	90,00
-12699,09	54,00
-12669,21	197,00
-12639,41	32,00
-12609,68	76,00
-12580,02	33,00
-12550,43	67,00
-12520,91	194,00
-12491,46	64,00
-12462,08	124,00
-12432,77	144,00
-12403,54	77,00
-12374,37	149,00
-12345,27	37,00
-12316,24	144,00
-12287,29	153,00
-12258,40	126,00
-12229,57	197,00
-12200,82	77,00
-12172,14	78,00
-12143,52	104,00
-12114,97	157,00
-12086,49	69,00
-12058,07	36,00
-12029,73	81,00
-12001,44	113,00
-11973,23	21,00
-11945,08	20,00
-11917,00	131,00
-11888,98	124,00
-11861,03	94,00
-11833,15	192,00
-11805,32	76,00
-11777,57	137,00
-11749,88	141,00
-11722,25	95,00
-11694,69	109,00
-11667,19	-17,00
-11639,75	20,00
-11612,38	70,00
-11585,07	118,00
-11557,83	163,00
-11530,65	87,00
-11503,53	110,00
-11476,47	109,00
-11449,48	182,00
-11422,54	207,00
-11395,67	168,00
-11368,86	101,00
-11342,11	38,00
-11315,43	103,00
-11288,80	113,00
-11262,23	201,00
-11235,73	208,00
-11209,28	72,00
-11182,90	159,00
-11156,57	58,00
-11130,31	222,00
-11104,10	224,00
-11077,96	202,00
-11051,87	231,00
-11025,84	166,00
-10999,87	215,00
-10973,96	89,00
-10948,11	74,00
-10922,31	-31,00
-10896,58	202,00
-10870,90	146,00
-10845,28	191,00
-10819,71	104,00
-10794,20	243,00
-10768,75	203,00
-10743,36	252,00
-10718,02	166,00
-10692,74	145,00
-10667,52	93,00
-10642,35	148,00
-10617,24	252,00
-10592,18	298,00
-10567,18	245,00
-10542,23	206,00
-10517,34	279,00
-10492,51	220,00
-10467,72	231,00
-10443,00	320,00
-10418,32	367,00
-10393,70	285,00
-10369,14	341,00
-10344,63	460,00
-10320,17	395,00
-10295,77	313,00
-10271,42	378,00
-10247,12	239,00
-10222,88	475,00
-10198,68	438,00
-10174,54	375,00
-10150,46	555,00
-10126,42	460,00
-10102,44	479,00
-10078,51	464,00
-10054,63	624,00
-10030,80	594,00
-10007,03	533,00
-9983,30	590,00
-9959,63	625,00
-9936,01	737,00
-9912,44	741,00
-9888,92	654,00
-9865,44	740,00
-9842,02	802,00
-9818,65	827,00
-9795,33	754,00
-9772,06	891,00
-9748,84	947,00
-9725,67	960,00
-9702,55	1223,00
-9679,47	1432,00
-9656,45	1421,00
-9633,47	1468,00
-9610,55	1613,00
-9587,67	1575,00
-9564,84	1702,00
-9542,06	1846,00
-9519,32	2007,00
-9496,64	2247,00
-9474,00	2421,00
-9451,41	2508,00
-9428,87	2522,00
-9406,37	2379,00
-9383,92	2088,00
-9361,52	2210,00
-9339,17	2048,00
-9316,86	2560,00
-9294,60	2804,00
-9272,38	2924,00
-9250,21	3165,00
-9228,09	3361,00
-9206,01	3123,00
-9183,98	2921,00
-9162,00	2369,00
-9140,06	2385,00
-9118,16	2312,00
-9096,31	2577,00
-9074,51	2514,00
-9052,75	2444,00
-9031,04	2434,00
-9009,37	2127,00
-8987,74	1943,00
-8966,16	1764,00
-8944,63	1584,00
-8923,14	1463,00
-8901,69	1505,00
-8880,29	1696,00
-8858,93	2034,00
-8837,61	2151,00
-8816,34	2469,00
-8795,11	2317,00
-8773,92	2207,00
-8752,78	1892,00
-8731,68	1762,00
-8710,62	1747,00
-8689,61	1824,00
-8668,63	2008,00
-8647,70	2141,00
-8626,82	2178,00
-8605,97	2092,00
-8585,17	2021,00
-8564,41	1708,00
-8543,69	1744,00
-8523,01	1554,00
-8502,37	1461,00
-8481,78	1624,00
-8461,23	1631,00
-8440,71	2044,00
-8420,24	2117,00
-8399,81	2167,00
-8379,42	2177,00
-8359,08	1875,00
-8338,77	1655,00
-8318,50	1623,00
-8298,27	1528,00
-8278,09	1682,00
-8257,94	1663,00
-8237,83	1835,00
-8217,76	1920,00
-8197,74	2036,00
-8177,75	1810,00
-8157,80	1688,00
-8137,89	1606,00
-8118,02	1753,00
-8098,19	1448,00
-8078,40	1575,00
-8058,65	1636,00
-8038,93	1805,00
-8019,26	1572,00
-7999,62	1624,00
-7980,02	1506,00
-7960,46	1516,00
-7940,94	1488,00
-7921,46	1554,00
-7902,01	1455,00
-7882,60	1344,00
-7863,23	1317,00
-7843,90	1436,00
-7824,61	1546,00
-7805,35	1662,00
-7786,13	1696,00
-7766,95	1676,00
-7747,80	1448,00
-7728,69	1552,00
-7709,62	1471,00
-7690,59	1563,00
-7671,59	1760,00
-7652,63	1801,00
-7633,70	1812,00
-7614,81	1677,00
-7595,96	1488,00
-7577,15	1330,00
-7558,37	1362,00
-7539,62	1528,00
-7520,91	1496,00
-7502,24	1554,00
-7483,60	1704,00
-7465,00	1460,00
-7446,44	1225,00
-7427,91	1236,00
-7409,41	1120,00
-7390,95	1072,00
-7372,53	1198,00
-7354,14	1054,00
-7335,78	928,00
-7317,46	1104,00
-7299,18	1388,00
-7280,92	1426,00
-7262,71	1600,00
-7244,52	1712,00
-7226,38	1732,00
-7208,26	1528,00
-7190,18	1484,00
-7172,14	1341,00
-7154,12	1449,00
-7136,15	1496,00
-7118,20	1644,00
-7100,29	1688,00
-7082,41	1548,00
-7064,57	1458,00
-7046,76	1381,00
-7028,98	1175,00
-7011,24	1058,00
-6993,53	935,00
-6975,85	878,00
-6958,20	771,00
-6940,59	750,00
-6923,01	823,00
-6905,46	984,00
-6887,94	1114,00
-6870,46	-1642,00
-6853,01	1327,00
-6835,59	1512,00
-6818,21	1304,00
-6800,85	1027,00
-6783,53	843,00
-6766,24	812,00
-6748,98	665,00
-6731,76	615,00
-6714,56	787,00
-6697,40	629,00
-6680,26	697,00
-6663,16	911,00
-6646,09	925,00
-6629,05	1038,00
-6612,05	1099,00
-6595,07	1144,00
-6578,13	1044,00
-6561,21	928,00
-6544,33	666,00
-6527,47	679,00
-6510,65	411,00
-6493,86	532,00
-6477,10	624,00
-6460,36	482,00
-6443,66	641,00
-6426,99	491,00
-6410,35	505,00
-6393,74	656,00
-6377,16	651,00
-6360,61	753,00
-6344,09	838,00
-6327,59	942,00
-6311,13	770,00
-6294,70	936,00
-6278,29	992,00
-6261,92	986,00
-6245,58	1301,00
-6229,26	1186,00
-6212,97	938,00
-6196,72	812,00
-6180,49	645,00
-6164,29	560,00
-6148,12	287,00
-6131,98	366,00
-6115,86	247,00
-6099,78	425,00
-6083,72	162,00
-6067,69	267,00
-6051,69	320,00
-6035,72	285,00
-6019,78	456,00
-6003,87	704,00
-5987,98	779,00
-5972,12	720,00
-5956,29	760,00
-5940,49	706,00
-5924,71	544,00
-5908,96	523,00
-5893,24	368,00
-5877,55	336,00
-5861,89	299,00
-5846,25	414,00
-5830,64	487,00
-5815,05	473,00
-5799,50	337,00
-5783,97	442,00
-5768,47	480,00
-5752,99	549,00
-5737,55	761,00
-5722,12	946,00
-5706,73	810,00
-5691,36	567,00
-5676,02	476,00
-5660,71	359,00
-5645,42	332,00
-5630,16	445,00
-5614,92	332,00
-5599,71	602,00
-5584,53	511,00
-5569,37	542,00
-5554,24	1656,00
-5539,14	434,00
-5524,06	347,00
-5509,01	532,00
-5493,98	573,00
-5478,98	503,00
-5464,00	510,00
-5449,05	472,00
-5434,13	415,00
-5419,23	389,00
-5404,36	418,00
-5389,51	504,00
-5374,69	741,00
-5359,89	794,00
-5345,12	983,00
-5330,37	737,00
-5315,65	651,00
-5300,95	678,00
-5286,28	514,00
-5271,63	496,00
-5257,01	494,00
-5242,41	580,00
-5227,84	561,00
-5213,29	360,00
-5198,76	147,00
-5184,26	309,00
-5169,79	285,00
-5155,33	443,00
-5140,91	441,00
-5126,51	704,00
-5112,13	544,00
-5097,77	517,00
-5083,44	348,00
-5069,13	278,00
-5054,85	449,00
-5040,59	360,00
-5026,36	437,00
-5012,15	572,00
-4997,96	599,00
-4983,80	439,00
-4969,66	328,00
-4955,54	386,00
-4941,44	347,00
-4927,37	636,00
-4913,33	678,00
-4899,30	811,00
-4885,30	707,00
-4871,33	660,00
-4857,37	235,00
-4843,44	187,00
-4829,53	280,00
-4815,65	540,00
-4801,79	371,00
-4787,95	334,00
-4774,13	443,00
-4760,34	355,00
-4746,56	170,00
-4732,82	250,00
-4719,09	285,00
-4705,38	525,00
-4691,70	830,00
-4678,04	783,00
-4664,41	509,00
-4650,79	478,00
-4637,20	369,00
-4623,63	253,00
-4610,08	454,00
-4596,56	456,00
-4583,05	400,00
-4569,57	476,00
-4556,11	162,00
-4542,67	196,00
-4529,25	318,00
-4515,86	459,00
-4502,49	603,00
-4489,13	584,00
-4475,80	529,00
-4462,49	356,00
-4449,21	308,00
-4435,94	148,00
-4422,70	330,00
-4409,47	397,00
-4396,27	383,00
-4383,09	318,00
-4369,93	193,00
-4356,79	176,00
-4343,67	211,00
-4330,58	387,00
-4317,50	416,00
-4304,45	439,00
-4291,41	253,00
-4278,40	259,00
-4265,41	102,00
-4252,44	298,00
-4239,49	413,00
-4226,55	291,00
-4213,65	224,00
-4200,76	206,00
-4187,89	166,00
-4175,04	217,00
-4162,21	147,00
-4149,40	166,00
-4136,61	33,00
-4123,85	192,00
-4111,10	126,00
-4098,37	261,00
-4085,66	249,00
-4072,98	202,00
-4060,31	117,00
-4047,66	371,00
-4035,04	213,00
-4022,43	123,00
-4009,84	139,00
-3997,27	50,00
-3984,72	110,00
-3972,19	160,00
-3959,69	216,00
-3947,20	-15,00
-3934,73	62,00
-3922,27	112,00
-3909,84	26,00
-3897,43	137,00
-3885,04	31,00
-3872,67	153,00
-3860,31	157,00
-3847,98	130,00
-3835,66	122,00
-3823,36	109,00
-3811,09	175,00
-3798,83	161,00
-3786,59	112,00
-3774,37	145,00
-3762,17	-19,00
-3749,98	3,00
-3737,82	177,00
-3725,67	220,00
-3713,55	62,00
-3701,44	174,00
-3689,35	189,00
-3677,28	35,00
-3665,22	179,00
-3653,19	140,00
-3641,17	139,00
-3629,18	161,00
-3617,20	53,00
-3605,24	45,00
-3593,30	72,00
-3581,37	66,00
-3569,47	91,00
-3557,58	106,00
-3545,71	180,00
-3533,86	9,00
-3522,02	184,00
-3510,21	70,00
-3498,41	206,00
-3486,63	7,00
-3474,87	178,00
-3463,12	126,00
-3451,40	15,00
-3439,69	242,00
-3428,00	144,00
-3416,33	59,00
-3404,67	93,00
-3393,03	72,00
-3381,41	38,00
-3369,81	72,00
-3358,22	59,00
-3346,66	91,00
-3335,10	9,00
-3323,57	123,00
-3312,06	165,00
-3300,56	182,00
-3289,08	124,00
-3277,61	113,00
-3266,16	57,00
-3254,73	124,00
-3243,32	134,00
-3231,92	95,00
-3220,55	53,00
-3209,18	178,00
-3197,84	136,00
-3186,51	88,00
-3175,20	91,00
-3163,90	149,00
-3152,63	25,00
-3141,36	73,00
-3130,12	75,00
-3118,89	119,00
-3107,68	-14,00
-3096,49	92,00
-3085,31	119,00
-3074,15	128,00
-3063,00	134,00
-3051,87	41,00
-3040,76	94,00
-3029,67	132,00
-3018,59	147,00
-3007,52	233,00
-2996,48	-14,00
-2985,44	183,00
-2974,43	228,00
-2963,43	137,00
-2952,45	87,00
-2941,48	197,00
-2930,53	60,00
-2919,60	115,00
-2908,68	135,00
-2897,78	170,00
-2886,89	105,00
-2876,02	93,00
-2865,17	32,00
-2854,33	175,00
-2843,50	104,00
-2832,70	190,00
-2821,90	22,00
-2811,13	82,00
-2800,37	16,00
-2789,62	133,00
-2778,89	221,00
-2768,18	150,00
-2757,48	172,00
-2746,80	218,00
-2736,13	56,00
-2725,48	46,00
-2714,84	63,00
-2704,22	25,00
-2693,61	111,00
-2683,02	137,00
-2672,45	41,00
-2661,89	190,00
-2651,34	92,00
-2640,81	156,00
-2630,30	216,00
-2619,80	138,00
-2609,31	111,00
-2598,84	65,00
-2588,39	210,00
-2577,95	75,00
-2567,52	147,00
-2557,11	178,00
-2546,71	210,00
-2536,33	118,00
-2525,97	98,00
-2515,62	171,00
-2505,28	3,00
-2494,96	162,00
-2484,65	-55,00
-2474,36	43,00
-2464,08	117,00
-2453,82	64,00
-2443,57	32,00
-2433,33	94,00
-2423,11	75,00
-2412,91	158,00
-2402,72	72,00
-2392,54	192,00
-2382,38	113,00
-2372,23	93,00
-2362,09	118,00
-2351,97	183,00
-2341,87	245,00
-2331,78	-3,00
-2321,70	163,00
-2311,64	198,00
-2301,59	75,00
-2291,55	182,00
-2281,53	96,00
-2271,53	259,00
-2261,53	142,00
-2251,55	41,00
-2241,59	197,00
-2231,64	21,00
-2221,70	68,00
-2211,78	63,00
-2201,87	182,00
-2191,97	109,00
-2182,09	72,00
-2172,22	152,00
-2162,37	183,00
-2152,53	149,00
-2142,70	224,00
-2132,89	161,00
-2123,09	142,00
-2113,30	180,00
-2103,53	101,00
-2093,77	90,00
-2084,02	93,00
-2074,29	153,00
-2064,57	93,00
-2054,86	192,00
-2045,17	82,00
-2035,49	169,00
-2025,82	185,00
-2016,17	85,00
-2006,53	73,00
-1996,91	193,00
-1987,29	-68,00
-1977,69	199,00
-1968,11	136,00
-1958,53	230,00
-1948,97	101,00
-1939,42	193,00
-1929,89	20,00
-1920,37	214,00
-1910,86	92,00
-1901,36	214,00
-1891,88	116,00
-1882,41	-12,00
-1872,95	173,00
-1863,51	-85,00
-1854,08	184,00
-1844,66	45,00
-1835,26	126,00
-1825,86	83,00
-1816,48	159,00
-1807,11	62,00
-1797,76	108,00
-1788,42	130,00
-1779,09	158,00
-1769,77	56,00
-1760,47	68,00
-1751,17	109,00
-1741,89	129,00
-1732,63	92,00
-1723,37	40,00
-1714,13	112,00
-1704,90	48,00
-1695,68	200,00
-1686,48	72,00
-1677,29	54,00
-1668,11	216,00
-1658,94	88,00
-1649,78	63,00
-1640,64	58,00
-1631,51	163,00
-1622,39	95,00
-1613,28	71,00
-1604,19	87,00
-1595,10	152,00
-1586,03	201,00
-1576,97	137,00
-1567,93	36,00
-1558,89	86,00
-1549,87	202,00
-1540,86	-7,00
-1531,86	112,00
-1522,87	70,00
-1513,90	122,00
-1504,93	171,00
-1495,98	-18,00
-1487,04	132,00
-1478,12	88,00
-1469,20	164,00
-1460,30	208,00
-1451,40	224,00
-1442,52	104,00
-1433,65	2,00
-1424,80	155,00
-1415,95	246,00
-1407,12	137,00
-1398,30	16,00
-1389,48	136,00
-1380,69	27,00
-1371,90	272,00
-1363,12	112,00
-1354,36	159,00
-1345,60	171,00
-1336,86	103,00
-1328,13	200,00
-1319,41	167,00
-1310,70	151,00
-1302,01	141,00
-1293,32	156,00
-1284,65	180,00
-1275,99	219,00
-1267,33	81,00
-1258,69	86,00
-1250,06	176,00
-1241,45	197,00
-1232,84	180,00
-1224,25	-11,00
-1215,66	159,00
-1207,09	42,00
-1198,53	31,00
-1189,97	96,00
-1181,43	241,00
-1172,91	38,00
-1164,39	190,00
-1155,88	132,00
-1147,38	46,00
-1138,90	154,00
-1130,43	78,00
-1121,96	136,00
-1113,51	82,00
-1105,07	77,00
-1096,64	197,00
-1088,22	40,00
-1079,81	188,00
-1071,41	-8,00
-1063,02	109,00
-1054,65	192,00
-1046,28	126,00
-1037,92	30,00
-1029,58	131,00
-1021,24	159,00
-1012,92	231,00
-1004,61	108,00
-996,30	125,00
-988,01	148,00
-979,73	237,00
-971,46	69,00
-963,20	64,00
-954,95	61,00
-946,71	23,00
-938,48	56,00
-930,26	25,00
-922,06	87,00
-913,86	191,00
-905,67	172,00
-897,49	104,00
-889,33	175,00
-881,17	108,00
-873,02	89,00
-864,89	69,00
-856,76	69,00
-848,65	106,00
-840,54	97,00
-832,45	-8,00
-824,36	123,00
-816,29	186,00
-808,22	-17,00
-800,17	171,00
-792,12	18,00
-784,09	138,00
-776,06	15,00
-768,05	156,00
-760,04	64,00
-752,05	140,00
-744,07	113,00
-736,09	187,00
-728,13	172,00
-720,17	159,00
-712,23	200,00
-704,29	-27,00
-696,37	76,00
-688,45	176,00
-680,55	76,00
-672,65	175,00
-664,77	65,00
-656,89	95,00
-649,03	191,00
-641,17	18,00
-633,32	146,00
-625,49	64,00
-617,66	134,00
-609,84	52,00
-602,03	70,00
-594,23	117,00
-586,45	65,00
-578,67	159,00
-570,90	129,00
-563,14	139,00
-555,39	164,00
-547,65	41,00
-539,91	106,00
-532,19	224,00
-524,48	141,00
-516,78	160,00
-509,08	200,00
-501,40	88,00
-493,72	64,00
-486,06	40,00
-478,40	66,00
-470,76	4,00
-463,12	58,00
-455,49	106,00
-447,87	126,00
-440,26	181,00
-432,66	121,00
-425,07	192,00
-417,49	100,00
-409,92	88,00
-402,35	56,00
-394,80	144,00
-387,25	127,00
-379,72	117,00
-372,19	269,00
-364,67	211,00
-357,17	81,00
-349,67	-12,00
-342,18	189,00
-334,69	269,00
-327,22	174,00
-319,76	163,00
-312,30	191,00
-304,86	198,00
-297,42	156,00
-290,00	184,00
-282,58	52,00
-275,17	242,00
-267,77	201,00
-260,37	147,00
-252,99	173,00
-245,62	165,00
-238,25	117,00
-230,90	102,00
-223,55	301,00
-216,21	234,00
-208,88	204,00
-201,56	251,00
-194,25	273,00
-186,94	157,00
-179,65	265,00
-172,36	252,00
-165,08	160,00
-157,81	269,00
-150,55	258,00
-143,30	383,00
-136,06	356,00
-128,82	281,00
-121,60	401,00
-114,38	304,00
-107,17	308,00
-99,97	424,00
-92,78	439,00
-85,60	518,00
-78,42	590,00
-71,25	688,00
-64,10	881,00
-56,95	1076,00
-49,81	1143,00
-42,67	1402,00
-35,55	1776,00
-28,43	2441,00
-21,33	4218,00
-14,23	14336,00
-7,14	47266,00
-0,05	38051,00
7,02	42597,00
14,09	37539,00
21,14	10029,00
28,19	4449,00
35,23	2925,00
42,27	2144,00
49,29	1912,00
56,31	1494,00
63,32	1224,00
70,32	1192,00
77,31	940,00
84,29	867,00
91,27	746,00
98,23	700,00
105,19	661,00
112,14	847,00
119,09	1037,00
126,02	1573,00
132,95	1743,00
139,87	1751,00
146,78	1719,00
153,68	1619,00
160,58	1787,00
167,46	1744,00
174,34	1626,00
181,21	1531,00
188,08	1583,00
194,93	1608,00
201,78	1615,00
208,62	1582,00
215,45	1634,00
222,27	1598,00
229,09	1534,00
235,90	1693,00
242,70	1541,00
249,49	1524,00
256,27	1479,00
263,05	1511,00
269,82	1428,00
276,58	1438,00
283,33	1388,00
290,08	1477,00
296,82	1354,00
303,55	1282,00
310,27	1378,00
316,98	1273,00
323,69	1407,00
330,39	1379,00
337,08	1320,00
343,76	1307,00
350,44	1345,00
357,11	1232,00
363,77	1347,00
370,42	1307,00
377,07	1289,00
383,71	1358,00
390,34	1186,00
396,96	1227,00
403,58	1148,00
410,19	1244,00
416,79	1289,00
423,38	1160,00
429,97	1182,00
436,55	1212,00
443,12	1253,00
449,68	1291,00
456,24	1159,00
462,79	1184,00
469,33	1080,00
475,86	1192,00
482,39	1131,00
488,91	1103,00
495,42	1002,00
501,93	1164,00
508,42	1072,00
514,91	1107,00
521,40	1094,00
527,87	1109,00
534,34	1013,00
540,80	1109,00
547,25	1032,00
553,70	1118,00
560,14	1143,00
566,57	1099,00
573,00	1045,00
579,41	964,00
585,83	1129,00
592,23	1145,00
598,62	963,00
605,01	1044,00
611,40	1082,00
617,77	1104,00
624,14	987,00
630,50	1158,00
636,85	931,00
643,20	921,00
649,54	1043,00
655,87	1051,00
662,20	963,00
668,52	977,00
674,83	941,00
681,13	1075,00
687,43	1086,00
693,72	1049,00
700,00	967,00
706,28	1048,00
712,55	1040,00
718,81	1052,00
725,07	972,00
731,32	948,00
737,56	1203,00
743,79	1040,00
750,02	1050,00
756,24	1147,00
762,46	922,00
768,67	1240,00
774,87	941,00
781,06	1013,00
787,25	1112,00
793,43	1052,00
799,60	1058,00
805,77	979,00
811,93	967,00
818,08	1056,00
824,23	1035,00
830,37	999,00
836,50	1025,00
842,63	1032,00
848,75	1097,00
854,87	1082,00
860,97	1066,00
867,07	1179,00
873,17	1129,00
879,25	1000,00
885,33	1110,00
891,41	954,00
897,47	919,00
903,53	980,00
909,59	1015,00
915,63	1179,00
921,67	1038,00
927,71	852,00
933,74	941,00
939,76	910,00
945,77	1031,00
951,78	1111,00
957,78	961,00
963,78	969,00
969,77	851,00
975,75	965,00
981,72	987,00
987,69	1042,00
993,66	1064,00
999,61	944,00
1005,56	1118,00
1011,51	976,00
1017,44	835,00
1023,37	959,00
1029,30	1024,00
1035,22	942,00
1041,13	1156,00
1047,03	1095,00
1052,93	1455,00
1058,83	1835,00
1064,71	1973,00
1070,59	1652,00
1076,47	1310,00
1082,33	1251,00
1088,20	1330,00
1094,05	1238,00
1099,90	1013,00
1105,74	1049,00
1111,58	979,00
1117,41	1221,00
1123,23	1723,00
1129,05	2136,00
1134,86	1882,00
1140,67	1433,00
1146,47	1188,00
1152,26	1128,00
1158,05	1070,00
1163,83	1046,00
1169,60	1135,00
1175,37	1130,00
1181,13	983,00
1186,89	906,00
1192,64	1034,00
1198,38	1036,00
1204,12	958,00
1209,85	963,00
1215,58	906,00
1221,30	930,00
1227,02	948,00
1232,72	975,00
1238,43	944,00
1244,12	1035,00
1249,81	1032,00
1255,50	1042,00
1261,17	1109,00
1266,85	1077,00
1272,51	1132,00
1278,17	1207,00
1283,83	1392,00
1289,47	2042,00
1295,12	2515,00
1300,75	2218,00
1306,38	1730,00
1312,01	1419,00
1317,63	1243,00
1323,24	1275,00
1328,85	1211,00
1334,45	1120,00
1340,04	1054,00
1345,63	1056,00
1351,22	1129,00
1356,80	1164,00
1362,37	1183,00
1367,93	1288,00
1373,49	1137,00
1379,05	1263,00
1384,60	1138,00
1390,14	1210,00
1395,68	1093,00
1401,21	1171,00
1406,74	1182,00
1412,26	1718,00
1417,77	1679,00
1423,28	1760,00
1428,78	2033,00
1434,28	2100,00
1439,77	2520,00
1445,26	2502,00
1450,74	2405,00
1456,22	2093,00
1461,68	1994,00
1467,15	1855,00
1472,61	1724,00
1478,06	1519,00
1483,51	1310,00
1488,95	1289,00
1494,38	1056,00
1499,81	1037,00
1505,24	998,00
1510,65	992,00
1516,07	1084,00
1521,48	946,00
1526,88	987,00
1532,27	880,00
1537,67	1060,00
1543,05	952,00
1548,43	895,00
1553,81	931,00
1559,18	1028,00
1564,54	842,00
1569,90	976,00
1575,25	880,00
1580,60	976,00
1585,94	867,00
1591,28	872,00
1596,61	907,00
1601,93	839,00
1607,25	867,00
1612,57	883,00
1617,88	941,00
1623,18	952,00
1628,48	980,00
1633,77	951,00
1639,06	904,00
1644,34	954,00
1649,62	784,00
1654,89	821,00
1660,16	775,00
1665,42	946,00
1670,67	796,00
1675,92	734,00
1681,17	814,00
1686,41	757,00
1691,64	880,00
1696,87	807,00
1702,10	846,00
1707,32	726,00
1712,53	900,00
1717,74	821,00
1722,94	697,00
1728,14	890,00
1733,33	819,00
1738,52	828,00
1743,70	840,00
1748,88	836,00
1754,05	909,00
1759,22	812,00
1764,38	708,00
1769,53	719,00
1774,69	719,00
1779,83	739,00
1784,97	629,00
1790,11	748,00
1795,24	744,00
1800,36	828,00
1805,48	725,00
1810,60	859,00
1815,71	652,00
1820,82	799,00
1825,92	755,00
1831,01	764,00
1836,10	801,00
1841,19	771,00
1846,26	689,00
1851,34	787,00
1856,41	711,00
1861,47	790,00
1866,53	690,00
1871,59	705,00
1876,64	917,00
1881,68	853,00
1886,72	683,00
1891,76	599,00
1896,79	817,00
1901,81	718,00
1906,83	718,00
1911,85	768,00
1916,86	752,00
1921,86	640,00
1926,86	629,00
1931,86	758,00
1936,85	580,00
1941,83	696,00
1946,81	640,00
1951,79	676,00
1956,76	604,00
1961,72	739,00
1966,68	616,00
1971,64	747,00
1976,59	633,00
1981,54	708,00
1986,48	643,00
1991,42	592,00
1996,35	772,00
2001,27	482,00
2006,20	664,00
2011,11	794,00
2016,03	607,00
2020,93	683,00
2025,84	643,00
2030,73	550,00
2035,63	535,00
2040,52	729,00
2045,40	590,00
2050,28	551,00
2055,15	678,00
2060,02	631,00
2064,89	632,00
2069,75	642,00
2074,60	676,00
2079,46	524,00
2084,30	666,00
2089,14	697,00
2093,98	587,00
2098,81	617,00
2103,64	573,00
2108,46	596,00
2113,28	641,00
2118,09	596,00
2122,90	670,00
2127,70	679,00
2132,50	615,00
2137,30	557,00
2142,09	649,00
2146,87	653,00
2151,66	608,00
2156,43	613,00
2161,20	518,00
2165,97	583,00
2170,73	613,00
2175,49	483,00
2180,24	536,00
2184,99	572,00
2189,74	630,00
2194,48	667,00
2199,21	566,00
2203,94	631,00
2208,67	616,00
2213,39	499,00
2218,11	521,00
2222,82	684,00
2227,53	556,00
2232,23	522,00
2236,93	663,00
2241,63	604,00
2246,32	575,00
2251,00	679,00
2255,68	503,00
2260,36	653,00
2265,03	570,00
2269,70	549,00
2274,36	662,00
2279,02	506,00
2283,68	693,00
2288,33	523,00
2292,97	602,00
2297,61	632,00
2302,25	544,00
2306,88	547,00
2311,51	498,00
2316,14	569,00
2320,75	625,00
2325,37	501,00
2329,98	588,00
2334,59	571,00
2339,19	545,00
2343,79	495,00
2348,38	529,00
2352,97	600,00
2357,55	557,00
2362,13	603,00
2366,71	516,00
2371,28	486,00
2375,85	556,00
2380,41	588,00
2384,97	500,00
2389,52	516,00
2394,07	494,00
2398,62	435,00
2403,16	503,00
2407,70	516,00
2412,23	500,00
2416,76	598,00
2421,29	398,00
2425,81	537,00
2430,32	657,00
2434,84	448,00
2439,34	557,00
2443,85	408,00
2448,35	617,00
2452,84	428,00
2457,33	538,00
2461,82	494,00
2466,30	537,00
2470,78	522,00
2475,25	375,00
2479,72	486,00
2484,19	544,00
2488,65	500,00
2493,11	482,00
2497,56	385,00
2502,01	326,00
2506,46	434,00
2510,90	562,00
2515,34	534,00
2519,77	580,00
2524,20	525,00
2528,62	574,00
2533,04	561,00
2537,46	513,00
2541,87	528,00
2546,28	404,00
2550,68	481,00
2555,08	509,00
2559,48	459,00
2563,87	487,00
2568,26	386,00
2572,64	448,00
2577,02	488,00
2581,40	526,00
2585,77	447,00
2590,14	449,00
2594,50	510,00
2598,86	518,00
2603,22	465,00
2607,57	426,00
2611,92	445,00
2616,26	568,00
2620,60	547,00
2624,94	505,00
2629,27	459,00
2633,60	450,00
2637,92	378,00
2642,24	458,00
2646,56	555,00
2650,87	479,00
2655,18	457,00
2659,48	421,00
2663,78	427,00
2668,08	561,00
2672,37	589,00
2676,66	521,00
2680,95	547,00
2685,23	504,00
2689,50	593,00
2693,78	567,00
2698,05	491,00
2702,31	603,00
2706,57	500,00
2710,83	520,00
2715,08	599,00
2719,33	725,00
2723,58	751,00
2727,82	600,00
2732,06	686,00
2736,29	620,00
2740,53	604,00
2744,75	480,00
2748,97	455,00
2753,19	599,00
2757,41	535,00
2761,62	497,00
2765,83	502,00
2770,03	572,00
2774,23	536,00
2778,43	626,00
2782,62	703,00
2786,81	467,00
2791,00	617,00
2795,18	704,00
2799,35	705,00
2803,53	615,00
2807,70	784,00
2811,86	748,00
2816,03	782,00
2820,19	714,00
2824,34	948,00
2828,49	875,00
2832,64	1017,00
2836,78	1329,00
2840,92	1765,00
2845,06	2048,00
2849,19	2087,00
2853,32	2433,00
2857,45	2277,00
2861,57	2326,00
2865,69	1993,00
2869,80	2079,00
2873,91	2091,00
2878,02	2248,00
2882,12	2484,00
2886,22	2607,00
2890,32	2288,00
2894,41	2163,00
2898,50	1907,00
2902,58	1832,00
2906,67	1634,00
2910,74	1726,00
2914,82	1479,00
2918,89	1314,00
2922,96	1176,00
2927,02	1225,00
2931,08	1184,00
2935,13	1008,00
2939,19	984,00
2943,24	969,00
2947,28	893,00
2951,32	740,00
2955,36	670,00
2959,40	551,00
2963,43	576,00
2967,46	620,00
2971,48	517,00
2975,50	622,00
2979,52	482,00
2983,53	397,00
2987,54	393,00
2991,55	476,00
2995,55	429,00
2999,55	390,00
3003,54	405,00
3007,54	298,00
3011,53	488,00
3015,51	369,00
3019,49	176,00
3023,47	370,00
3027,45	328,00
3031,42	351,00
3035,39	310,00
3039,35	278,00
3043,31	383,00
3047,27	265,00
3051,22	308,00
3055,17	320,00
3059,12	256,00
3063,06	253,00
3067,00	258,00
3070,94	329,00
3074,87	280,00
3078,80	289,00
3082,73	284,00
3086,65	235,00
3090,57	349,00
3094,49	279,00
3098,40	222,00
3102,31	261,00
3106,22	256,00
3110,12	310,00
3114,02	270,00
3117,92	326,00
3121,81	272,00
3125,70	235,00
3129,58	228,00
3133,47	173,00
3137,34	176,00
3141,22	295,00
3145,09	312,00
3148,96	325,00
3152,83	256,00
3156,69	341,00
3160,55	234,00
3164,40	132,00
3168,26	139,00
3172,10	269,00
3175,95	276,00
3179,79	190,00
3183,63	163,00
3187,47	184,00
3191,30	221,00
3195,13	160,00
3198,95	112,00
3202,78	261,00
3206,60	246,00
3210,41	248,00
3214,23	147,00
3218,03	290,00
3221,84	187,00
3225,64	226,00
3229,44	361,00
3233,24	207,00
3237,03	168,00
3240,82	181,00
3244,61	146,00
3248,39	174,00
3252,17	263,00
3255,95	167,00
3259,72	220,00
3263,49	207,00
3267,26	334,00
3271,03	234,00
3274,79	133,00
3278,54	364,00
3282,30	240,00
3286,05	6,00
3289,80	56,00
3293,54	173,00
3297,29	266,00
3301,02	180,00
3304,76	105,00
3308,49	212,00
3312,22	240,00
3315,95	113,00
3319,67	383,00
3323,39	336,00
3327,10	142,00
3330,82	139,00
3334,53	146,00
3338,24	380,00
3341,94	244,00
3345,64	192,00
3349,34	212,00
3353,03	229,00
3356,72	161,00
3360,41	141,00
3364,10	282,00
3367,78	128,00
3371,46	205,00
3375,13	196,00
3378,81	162,00
3382,48	111,00
3386,14	122,00
3389,81	209,00
3393,47	241,00
3397,12	196,00
3400,78	122,00
3404,43	265,00
3408,08	133,00
3411,72	162,00
3415,36	221,00
3419,00	166,00
3422,64	224,00
3426,27	198,00
3429,90	113,00
3433,53	170,00
3437,15	171,00
3440,77	225,00
3444,39	224,00
3448,00	111,00
3451,62	231,00
3455,22	280,00
3458,83	126,00
3462,43	103,00
3466,03	-10,00
3469,63	189,00
3473,22	138,00
3476,81	214,00
3480,40	2,00
3483,99	79,00
3487,57	110,00
3491,15	167,00
3494,72	76,00
3498,29	219,00
3501,86	134,00
3505,43	-29,00
3508,99	125,00
3512,56	242,00
3516,11	329,00
3519,67	202,00
3523,22	198,00
3526,77	85,00
3530,32	168,00
3533,86	241,00
3537,40	206,00
3540,94	-18,00
3544,47	237,00
3548,00	130,00
3551,53	171,00
3555,06	73,00
3558,58	193,00
3562,10	232,00
3565,62	236,00
3569,13	70,00
3572,64	-32,00
3576,15	155,00
3579,66	100,00
3583,16	131,00
3586,66	48,00
3590,16	78,00
3593,65	107,00
3597,14	61,00
3600,63	129,00
3604,11	202,00
3607,60	137,00
3611,08	255,00
3614,55	52,00
3618,03	31,00
3621,50	168,00
3624,97	102,00
3628,43	142,00
3631,90	175,00
3635,36	76,00
3638,81	81,00
3642,27	102,00
3645,72	251,00
3649,17	94,00
3652,61	129,00
3656,06	124,00
3659,50	4,00
3662,93	137,00
3666,37	90,00
3669,80	62,00
3673,23	180,00
3676,65	191,00
3680,08	98,00
3683,50	23,00
3686,92	69,00
3690,33	125,00
3693,74	147,00
3697,15	202,00
3700,56	48,00
3703,96	179,00
3707,36	52,00
3710,76	-39,00
3714,16	177,00
3717,55	70,00
3720,94	33,00
3724,33	53,00
3727,71	38,00
3731,10	146,00
3734,48	75,00
3737,85	144,00
3741,23	37,00
3744,60	68,00
3747,97	46,00
3751,33	137,00
3754,69	86,00
3758,05	89,00
3761,41	114,00
3764,77	135,00
3768,12	71,00
3771,47	147,00
3774,82	34,00
3778,16	-1,00
3781,50	-6,00
3784,84	7,00
3788,18	7,00
>>>>>End Processed Spectral Data<<<<<
