SpectraSuite Data File
++++++++++++++++++++++++++++++++++++
Date: Tue Mar 03 12:44:49 ICT 2026
User: user
Dark Spectrum Present: Yes
Reference Spectrum Present: No
Number of Sampled Component Spectra: 1
Spectrometers: MAYP113682
Integration Time (usec): 3000000 (MAYP113682)
Spectra Averaged: 1 (MAYP113682)
Boxcar Smoothing: 0 (MAYP113682)
Correct for Electrical Dark: No (MAYP113682)
Strobe/Lamp Enabled: No (MAYP113682)
Correct for Detector Non-linearity: No (MAYP113682)
Correct for Stray Light: No (MAYP113682)
Number of Pixels in Processed Spectrum: 2068
>>>>>Begin Processed Spectral Data<<<<<
-37534,58	6,00
-37414,56	2,00
-37295,11	-2,00
-37176,24	3,00
-37057,95	45,00
-36940,22	74,00
-36823,05	32,00
-36706,45	106,00
-36590,40	187,00
-36474,90	89,00
-36359,95	152,00
-36245,55	176,00
-36131,68	102,00
-36018,35	97,00
-35905,55	158,00
-35793,29	179,00
-35681,54	205,00
-35570,32	118,00
-35459,62	36,00
-35349,43	72,00
-35239,75	223,00
-35130,58	121,00
-35021,91	161,00
-34913,74	247,00
-34806,07	146,00
-34698,89	136,00
-34592,20	56,00
-34486,00	112,00
-34380,28	105,00
-34275,04	10,00
-34170,27	59,00
-34065,98	109,00
-33962,16	80,00
-33858,81	190,00
-33755,92	154,00
-33653,49	180,00
-33551,52	275,00
-33450,01	119,00
-33348,94	172,00
-33248,33	157,00
-33148,16	179,00
-33048,43	207,00
-32949,14	71,00
-32850,29	242,00
-32751,87	209,00
-32653,89	168,00
-32556,33	141,00
-32459,20	78,00
-32362,49	100,00
-32266,19	112,00
-32170,32	214,00
-32074,86	-26,00
-31979,82	136,00
-31885,18	-12,00
-31790,95	2,00
-31697,12	120,00
-31603,69	90,00
-31510,67	143,00
-31418,04	136,00
-31325,80	108,00
-31233,95	209,00
-31142,49	184,00
-31051,42	166,00
-30960,73	141,00
-30870,43	140,00
-30780,50	168,00
-30690,95	130,00
-30601,77	149,00
-30512,97	62,00
-30424,53	138,00
-30336,46	233,00
-30248,76	107,00
-30161,42	234,00
-30074,44	138,00
-29987,81	236,00
-29901,55	141,00
-29815,63	33,00
-29730,07	113,00
-29644,86	72,00
-29560,00	202,00
-29475,48	-20,00
-29391,30	87,00
-29307,47	162,00
-29223,97	56,00
-29140,81	27,00
-29057,99	64,00
-28975,50	267,00
-28893,34	150,00
-28811,51	66,00
-28730,00	299,00
-28648,82	29,00
-28567,97	149,00
-28487,43	153,00
-28407,21	35,00
-28327,32	2,00
-28247,73	70,00
-28168,46	204,00
-28089,50	137,00
-28010,85	-33,00
-27932,51	222,00
-27854,48	106,00
-27776,75	75,00
-27699,32	112,00
-27622,19	305,00
-27545,37	196,00
-27468,84	87,00
-27392,60	154,00
-27316,66	158,00
-27241,01	78,00
-27165,66	141,00
-27090,59	64,00
-27015,81	321,00
-26941,31	158,00
-26867,10	194,00
-26793,17	219,00
-26719,52	-3,00
-26646,15	156,00
-26573,06	248,00
-26500,24	180,00
-26427,70	168,00
-26355,43	183,00
-26283,43	85,00
-26211,71	254,00
-26140,25	81,00
-26069,06	266,00
-25998,13	13,00
-25927,46	65,00
-25857,06	176,00
-25786,92	25,00
-25717,04	101,00
-25647,42	175,00
-25578,05	166,00
-25508,94	79,00
-25440,09	75,00
-25371,48	194,00
-25303,13	135,00
-25235,02	88,00
-25167,17	126,00
-25099,56	265,00
-25032,19	202,00
-24965,07	115,00
-24898,20	192,00
-24831,56	256,00
-24765,17	29,00
-24699,01	236,00
-24633,10	224,00
-24567,41	60,00
-24501,97	80,00
-24436,75	-41,00
-24371,77	211,00
-24307,03	73,00
-24242,51	188,00
-24178,22	152,00
-24114,16	187,00
-24050,32	30,00
-23986,71	113,00
-23923,32	189,00
-23860,16	94,00
-23797,22	150,00
-23734,50	33,00
-23672,00	68,00
-23609,71	360,00
-23547,65	87,00
-23485,80	139,00
-23424,16	145,00
-23362,74	96,00
-23301,53	63,00
-23240,54	136,00
-23179,75	204,00
-23119,17	208,00
-23058,80	225,00
-22998,64	53,00
-22938,68	91,00
-22878,93	128,00
-22819,39	119,00
-22760,04	10,00
-22700,90	98,00
-22641,96	88,00
-22583,22	193,00
-22524,68	179,00
-22466,33	105,00
-22408,19	138,00
-22350,23	182,00
-22292,48	126,00
-22234,92	78,00
-22177,55	90,00
-22120,37	214,00
-22063,38	-37,00
-22006,58	199,00
-21949,98	140,00
-21893,56	166,00
-21837,33	142,00
-21781,28	121,00
-21725,42	106,00
-21669,74	172,00
-21614,25	167,00
-21558,94	117,00
-21503,81	261,00
-21448,86	78,00
-21394,10	138,00
-21339,51	166,00
-21285,10	55,00
-21230,86	78,00
-21176,81	158,00
-21122,93	158,00
-21069,22	197,00
-21015,69	158,00
-20962,33	174,00
-20909,14	116,00
-20856,13	209,00
-20803,28	57,00
-20750,61	151,00
-20698,10	171,00
-20645,76	-33,00
-20593,59	193,00
-20541,59	148,00
-20489,75	95,00
-20438,07	129,00
-20386,56	207,00
-20335,22	95,00
-20284,03	160,00
-20233,01	25,00
-20182,15	104,00
-20131,45	50,00
-20080,91	68,00
-20030,52	137,00
-19980,30	99,00
-19930,23	85,00
-19880,32	136,00
-19830,56	261,00
-19780,96	101,00
-19731,52	140,00
-19682,23	43,00
-19633,09	158,00
-19584,10	188,00
-19535,26	126,00
-19486,58	28,00
-19438,04	54,00
-19389,66	71,00
-19341,42	77,00
-19293,33	45,00
-19245,39	184,00
-19197,60	148,00
-19149,95	237,00
-19102,45	154,00
-19055,09	91,00
-19007,87	226,00
-18960,80	220,00
-18913,87	132,00
-18867,09	37,00
-18820,44	231,00
-18773,94	136,00
-18727,57	131,00
-18681,35	127,00
-18635,26	168,00
-18589,31	217,00
-18543,50	170,00
-18497,83	92,00
-18452,29	55,00
-18406,89	146,00
-18361,63	122,00
-18316,50	120,00
-18271,50	26,00
-18226,63	232,00
-18181,90	226,00
-18137,30	274,00
-18092,84	57,00
-18048,50	148,00
-18004,29	160,00
-17960,22	151,00
-17916,27	63,00
-17872,45	176,00
-17828,76	98,00
-17785,20	119,00
-17741,77	200,00
-17698,46	189,00
-17655,28	84,00
-17612,22	23,00
-17569,29	183,00
-17526,48	112,00
-17483,79	152,00
-17441,23	118,00
-17398,79	225,00
-17356,48	194,00
-17314,28	90,00
-17272,21	196,00
-17230,26	163,00
-17188,42	165,00
-17146,71	276,00
-17105,12	171,00
-17063,64	100,00
-17022,28	35,00
-16981,04	94,00
-16939,92	124,00
-16898,91	58,00
-16858,02	73,00
-16817,25	79,00
-16776,59	197,00
-16736,04	221,00
-16695,61	175,00
-16655,29	211,00
-16615,09	80,00
-16574,99	124,00
-16535,01	149,00
-16495,15	128,00
-16455,39	274,00
-16415,74	143,00
-16376,21	63,00
-16336,78	28,00
-16297,46	135,00
-16258,26	154,00
-16219,16	56,00
-16180,17	226,00
-16141,28	212,00
-16102,51	6,00
-16063,84	79,00
-16025,27	144,00
-15986,82	91,00
-15948,46	43,00
-15910,22	179,00
-15872,07	120,00
-15834,04	107,00
-15796,10	139,00
-15758,27	32,00
-15720,54	195,00
-15682,91	161,00
-15645,39	75,00
-15607,97	185,00
-15570,64	167,00
-15533,42	77,00
-15496,30	161,00
-15459,28	153,00
-15422,36	158,00
-15385,54	100,00
-15348,82	186,00
-15312,19	24,00
-15275,66	30,00
-15239,23	81,00
-15202,90	96,00
-15166,67	139,00
-15130,53	101,00
-15094,48	80,00
-15058,54	177,00
-15022,68	54,00
-14986,93	143,00
-14951,26	46,00
-14915,69	-7,00
-14880,22	95,00
-14844,84	130,00
-14809,55	101,00
-14774,35	132,00
-14739,25	196,00
-14704,24	123,00
-14669,32	125,00
-14634,49	193,00
-14599,75	209,00
-14565,10	183,00
-14530,55	144,00
-14496,08	215,00
-14461,70	269,00
-14427,41	67,00
-14393,21	101,00
-14359,10	167,00
-14325,07	236,00
-14291,14	165,00
-14257,29	102,00
-14223,52	192,00
-14189,85	101,00
-14156,26	94,00
-14122,76	65,00
-14089,34	190,00
-14056,01	67,00
-14022,76	41,00
-13989,60	96,00
-13956,52	211,00
-13923,53	144,00
-13890,62	114,00
-13857,79	196,00
-13825,05	128,00
-13792,39	165,00
-13759,81	148,00
-13727,31	13,00
-13694,90	32,00
-13662,57	266,00
-13630,31	169,00
-13598,14	191,00
-13566,05	98,00
-13534,05	20,00
-13502,12	187,00
-13470,27	44,00
-13438,50	40,00
-13406,80	191,00
-13375,19	75,00
-13343,66	12,00
-13312,20	145,00
-13280,83	162,00
-13249,53	230,00
-13218,30	75,00
-13187,16	54,00
-13156,09	114,00
-13125,10	174,00
-13094,18	179,00
-13063,34	85,00
-13032,58	112,00
-13001,89	115,00
-12971,28	138,00
-12940,74	200,00
-12910,27	136,00
-12879,88	41,00
-12849,57	137,00
-12819,33	137,00
-12789,16	196,00
-12759,06	218,00
-12729,04	92,00
-12699,09	190,00
-12669,21	220,00
-12639,41	115,00
-12609,68	180,00
-12580,02	82,00
-12550,43	80,00
-12520,91	90,00
-12491,46	6,00
-12462,08	163,00
-12432,77	91,00
-12403,54	107,00
-12374,37	123,00
-12345,27	84,00
-12316,24	98,00
-12287,29	112,00
-12258,40	84,00
-12229,57	150,00
-12200,82	137,00
-12172,14	160,00
-12143,52	56,00
-12114,97	187,00
-12086,49	92,00
-12058,07	236,00
-12029,73	30,00
-12001,44	72,00
-11973,23	53,00
-11945,08	107,00
-11917,00	73,00
-11888,98	164,00
-11861,03	123,00
-11833,15	143,00
-11805,32	240,00
-11777,57	77,00
-11749,88	186,00
-11722,25	188,00
-11694,69	152,00
-11667,19	152,00
-11639,75	60,00
-11612,38	85,00
-11585,07	239,00
-11557,83	115,00
-11530,65	154,00
-11503,53	111,00
-11476,47	113,00
-11449,48	192,00
-11422,54	194,00
-11395,67	187,00
-11368,86	141,00
-11342,11	115,00
-11315,43	119,00
-11288,80	252,00
-11262,23	197,00
-11235,73	184,00
-11209,28	112,00
-11182,90	99,00
-11156,57	32,00
-11130,31	250,00
-11104,10	110,00
-11077,96	125,00
-11051,87	244,00
-11025,84	177,00
-10999,87	192,00
-10973,96	141,00
-10948,11	136,00
-10922,31	26,00
-10896,58	241,00
-10870,90	156,00
-10845,28	294,00
-10819,71	105,00
-10794,20	176,00
-10768,75	323,00
-10743,36	160,00
-10718,02	227,00
-10692,74	186,00
-10667,52	95,00
-10642,35	165,00
-10617,24	272,00
-10592,18	312,00
-10567,18	253,00
-10542,23	271,00
-10517,34	300,00
-10492,51	163,00
-10467,72	361,00
-10443,00	230,00
-10418,32	309,00
-10393,70	247,00
-10369,14	346,00
-10344,63	408,00
-10320,17	294,00
-10295,77	252,00
-10271,42	369,00
-10247,12	241,00
-10222,88	387,00
-10198,68	503,00
-10174,54	435,00
-10150,46	468,00
-10126,42	422,00
-10102,44	379,00
-10078,51	546,00
-10054,63	553,00
-10030,80	671,00
-10007,03	557,00
-9983,30	512,00
-9959,63	557,00
-9936,01	618,00
-9912,44	544,00
-9888,92	753,00
-9865,44	657,00
-9842,02	689,00
-9818,65	678,00
-9795,33	685,00
-9772,06	827,00
-9748,84	879,00
-9725,67	872,00
-9702,55	1037,00
-9679,47	1224,00
-9656,45	1201,00
-9633,47	1298,00
-9610,55	1167,00
-9587,67	1222,00
-9564,84	1532,00
-9542,06	1610,00
-9519,32	1770,00
-9496,64	2055,00
-9474,00	2121,00
-9451,41	2167,00
-9428,87	2079,00
-9406,37	2091,00
-9383,92	1917,00
-9361,52	1848,00
-9339,17	1856,00
-9316,86	2258,00
-9294,60	2451,00
-9272,38	2520,00
-9250,21	2684,00
-9228,09	2929,00
-9206,01	2694,00
-9183,98	2440,00
-9162,00	2097,00
-9140,06	2017,00
-9118,16	1998,00
-9096,31	2227,00
-9074,51	2057,00
-9052,75	2153,00
-9031,04	2022,00
-9009,37	1883,00
-8987,74	1694,00
-8966,16	1462,00
-8944,63	1463,00
-8923,14	1221,00
-8901,69	1388,00
-8880,29	1540,00
-8858,93	1833,00
-8837,61	1956,00
-8816,34	2031,00
-8795,11	2032,00
-8773,92	1958,00
-8752,78	1650,00
-8731,68	1581,00
-8710,62	1581,00
-8689,61	1720,00
-8668,63	1823,00
-8647,70	1949,00
-8626,82	1946,00
-8605,97	1809,00
-8585,17	1828,00
-8564,41	1491,00
-8543,69	1505,00
-8523,01	1395,00
-8502,37	1464,00
-8481,78	1551,00
-8461,23	1472,00
-8440,71	1673,00
-8420,24	1783,00
-8399,81	1820,00
-8379,42	1953,00
-8359,08	1683,00
-8338,77	1410,00
-8318,50	1439,00
-8298,27	1387,00
-8278,09	1466,00
-8257,94	1418,00
-8237,83	1579,00
-8217,76	1700,00
-8197,74	1714,00
-8177,75	1590,00
-8157,80	1447,00
-8137,89	1306,00
-8118,02	1429,00
-8098,19	1260,00
-8078,40	1346,00
-8058,65	1434,00
-8038,93	1538,00
-8019,26	1457,00
-7999,62	1407,00
-7980,02	1372,00
-7960,46	1430,00
-7940,94	1348,00
-7921,46	1270,00
-7902,01	1209,00
-7882,60	1125,00
-7863,23	1181,00
-7843,90	1343,00
-7824,61	1439,00
-7805,35	1446,00
-7786,13	1520,00
-7766,95	1356,00
-7747,80	1243,00
-7728,69	1367,00
-7709,62	1280,00
-7690,59	1399,00
-7671,59	1446,00
-7652,63	1581,00
-7633,70	1420,00
-7614,81	1447,00
-7595,96	1320,00
-7577,15	1171,00
-7558,37	1159,00
-7539,62	1337,00
-7520,91	1342,00
-7502,24	1383,00
-7483,60	1365,00
-7465,00	1240,00
-7446,44	1130,00
-7427,91	1241,00
-7409,41	1041,00
-7390,95	901,00
-7372,53	945,00
-7354,14	1029,00
-7335,78	928,00
-7317,46	962,00
-7299,18	1139,00
-7280,92	1199,00
-7262,71	1397,00
-7244,52	1437,00
-7226,38	1429,00
-7208,26	1369,00
-7190,18	1392,00
-7172,14	1165,00
-7154,12	1336,00
-7136,15	1419,00
-7118,20	1412,00
-7100,29	1491,00
-7082,41	1408,00
-7064,57	1386,00
-7046,76	1197,00
-7028,98	1081,00
-7011,24	1021,00
-6993,53	888,00
-6975,85	762,00
-6958,20	776,00
-6940,59	688,00
-6923,01	730,00
-6905,46	938,00
-6887,94	1013,00
-6870,46	1060,00
-6853,01	1244,00
-6835,59	1328,00
-6818,21	1157,00
-6800,85	1020,00
-6783,53	849,00
-6766,24	687,00
-6748,98	616,00
-6731,76	503,00
-6714,56	571,00
-6697,40	591,00
-6680,26	679,00
-6663,16	834,00
-6646,09	920,00
-6629,05	973,00
-6612,05	1077,00
-6595,07	1031,00
-6578,13	943,00
-6561,21	820,00
-6544,33	680,00
-6527,47	500,00
-6510,65	491,00
-6493,86	473,00
-6477,10	568,00
-6460,36	570,00
-6443,66	446,00
-6426,99	441,00
-6410,35	564,00
-6393,74	541,00
-6377,16	471,00
-6360,61	853,00
-6344,09	799,00
-6327,59	842,00
-6311,13	678,00
-6294,70	810,00
-6278,29	904,00
-6261,92	877,00
-6245,58	1044,00
-6229,26	1052,00
-6212,97	940,00
-6196,72	672,00
-6180,49	600,00
-6164,29	505,00
-6148,12	392,00
-6131,98	325,00
-6115,86	192,00
-6099,78	405,00
-6083,72	209,00
-6067,69	342,00
-6051,69	300,00
-6035,72	376,00
-6019,78	341,00
-6003,87	625,00
-5987,98	747,00
-5972,12	667,00
-5956,29	696,00
-5940,49	565,00
-5924,71	453,00
-5908,96	387,00
-5893,24	264,00
-5877,55	419,00
-5861,89	431,00
-5846,25	435,00
-5830,64	453,00
-5815,05	464,00
-5799,50	207,00
-5783,97	427,00
-5768,47	488,00
-5752,99	489,00
-5737,55	801,00
-5722,12	812,00
-5706,73	718,00
-5691,36	593,00
-5676,02	440,00
-5660,71	383,00
-5645,42	223,00
-5630,16	449,00
-5614,92	382,00
-5599,71	439,00
-5584,53	425,00
-5569,37	518,00
-5554,24	455,00
-5539,14	632,00
-5524,06	310,00
-5509,01	518,00
-5493,98	519,00
-5478,98	430,00
-5464,00	528,00
-5449,05	357,00
-5434,13	335,00
-5419,23	320,00
-5404,36	407,00
-5389,51	399,00
-5374,69	704,00
-5359,89	870,00
-5345,12	783,00
-5330,37	818,00
-5315,65	562,00
-5300,95	646,00
-5286,28	419,00
-5271,63	535,00
-5257,01	374,00
-5242,41	574,00
-5227,84	515,00
-5213,29	395,00
-5198,76	165,00
-5184,26	346,00
-5169,79	409,00
-5155,33	451,00
-5140,91	490,00
-5126,51	656,00
-5112,13	578,00
-5097,77	554,00
-5083,44	474,00
-5069,13	303,00
-5054,85	392,00
-5040,59	386,00
-5026,36	330,00
-5012,15	573,00
-4997,96	430,00
-4983,80	393,00
-4969,66	304,00
-4955,54	398,00
-4941,44	378,00
-4927,37	646,00
-4913,33	661,00
-4899,30	819,00
-4885,30	672,00
-4871,33	411,00
-4857,37	367,00
-4843,44	244,00
-4829,53	325,00
-4815,65	595,00
-4801,79	262,00
-4787,95	397,00
-4774,13	354,00
-4760,34	340,00
-4746,56	91,00
-4732,82	397,00
-4719,09	318,00
-4705,38	571,00
-4691,70	729,00
-4678,04	709,00
-4664,41	462,00
-4650,79	430,00
-4637,20	235,00
-4623,63	277,00
-4610,08	322,00
-4596,56	559,00
-4583,05	351,00
-4569,57	459,00
-4556,11	157,00
-4542,67	238,00
-4529,25	102,00
-4515,86	456,00
-4502,49	585,00
-4489,13	610,00
-4475,80	439,00
-4462,49	347,00
-4449,21	409,00
-4435,94	384,00
-4422,70	342,00
-4409,47	439,00
-4396,27	367,00
-4383,09	341,00
-4369,93	179,00
-4356,79	241,00
-4343,67	195,00
-4330,58	195,00
-4317,50	249,00
-4304,45	328,00
-4291,41	297,00
-4278,40	174,00
-4265,41	37,00
-4252,44	168,00
-4239,49	436,00
-4226,55	289,00
-4213,65	241,00
-4200,76	262,00
-4187,89	214,00
-4175,04	198,00
-4162,21	302,00
-4149,40	99,00
-4136,61	62,00
-4123,85	138,00
-4111,10	137,00
-4098,37	201,00
-4085,66	220,00
-4072,98	253,00
-4060,31	161,00
-4047,66	227,00
-4035,04	200,00
-4022,43	140,00
-4009,84	93,00
-3997,27	123,00
-3984,72	66,00
-3972,19	132,00
-3959,69	133,00
-3947,20	69,00
-3934,73	94,00
-3922,27	168,00
-3909,84	59,00
-3897,43	57,00
-3885,04	82,00
-3872,67	271,00
-3860,31	228,00
-3847,98	88,00
-3835,66	60,00
-3823,36	71,00
-3811,09	172,00
-3798,83	91,00
-3786,59	117,00
-3774,37	191,00
-3762,17	65,00
-3749,98	81,00
-3737,82	132,00
-3725,67	266,00
-3713,55	127,00
-3701,44	245,00
-3689,35	249,00
-3677,28	134,00
-3665,22	143,00
-3653,19	156,00
-3641,17	99,00
-3629,18	107,00
-3617,20	93,00
-3605,24	113,00
-3593,30	147,00
-3581,37	71,00
-3569,47	155,00
-3557,58	186,00
-3545,71	125,00
-3533,86	81,00
-3522,02	150,00
-3510,21	46,00
-3498,41	141,00
-3486,63	150,00
-3474,87	165,00
-3463,12	101,00
-3451,40	80,00
-3439,69	253,00
-3428,00	138,00
-3416,33	-1,00
-3404,67	84,00
-3393,03	257,00
-3381,41	150,00
-3369,81	46,00
-3358,22	74,00
-3346,66	110,00
-3335,10	118,00
-3323,57	118,00
-3312,06	226,00
-3300,56	102,00
-3289,08	58,00
-3277,61	58,00
-3266,16	32,00
-3254,73	172,00
-3243,32	111,00
-3231,92	102,00
-3220,55	110,00
-3209,18	115,00
-3197,84	178,00
-3186,51	108,00
-3175,20	99,00
-3163,90	214,00
-3152,63	52,00
-3141,36	34,00
-3130,12	60,00
-3118,89	31,00
-3107,68	0,00
-3096,49	98,00
-3085,31	72,00
-3074,15	266,00
-3063,00	118,00
-3051,87	217,00
-3040,76	71,00
-3029,67	117,00
-3018,59	139,00
-3007,52	269,00
-2996,48	89,00
-2985,44	118,00
-2974,43	260,00
-2963,43	145,00
-2952,45	197,00
-2941,48	158,00
-2930,53	179,00
-2919,60	96,00
-2908,68	274,00
-2897,78	96,00
-2886,89	117,00
-2876,02	103,00
-2865,17	141,00
-2854,33	109,00
-2843,50	158,00
-2832,70	220,00
-2821,90	90,00
-2811,13	24,00
-2800,37	113,00
-2789,62	168,00
-2778,89	52,00
-2768,18	119,00
-2757,48	190,00
-2746,80	210,00
-2736,13	106,00
-2725,48	58,00
-2714,84	16,00
-2704,22	130,00
-2693,61	188,00
-2683,02	161,00
-2672,45	16,00
-2661,89	132,00
-2651,34	199,00
-2640,81	196,00
-2630,30	228,00
-2619,80	70,00
-2609,31	55,00
-2598,84	104,00
-2588,39	192,00
-2577,95	-76,00
-2567,52	120,00
-2557,11	160,00
-2546,71	191,00
-2536,33	98,00
-2525,97	179,00
-2515,62	149,00
-2505,28	-13,00
-2494,96	113,00
-2484,65	-12,00
-2474,36	177,00
-2464,08	99,00
-2453,82	172,00
-2443,57	76,00
-2433,33	111,00
-2423,11	-2,00
-2412,91	84,00
-2402,72	140,00
-2392,54	60,00
-2382,38	122,00
-2372,23	184,00
-2362,09	131,00
-2351,97	104,00
-2341,87	80,00
-2331,78	221,00
-2321,70	94,00
-2311,64	24,00
-2301,59	177,00
-2291,55	246,00
-2281,53	155,00
-2271,53	166,00
-2261,53	49,00
-2251,55	159,00
-2241,59	209,00
-2231,64	81,00
-2221,70	100,00
-2211,78	129,00
-2201,87	236,00
-2191,97	97,00
-2182,09	130,00
-2172,22	211,00
-2162,37	203,00
-2152,53	72,00
-2142,70	140,00
-2132,89	203,00
-2123,09	173,00
-2113,30	160,00
-2103,53	92,00
-2093,77	58,00
-2084,02	76,00
-2074,29	153,00
-2064,57	159,00
-2054,86	127,00
-2045,17	204,00
-2035,49	201,00
-2025,82	103,00
-2016,17	91,00
-2006,53	221,00
-1996,91	158,00
-1987,29	37,00
-1977,69	158,00
-1968,11	118,00
-1958,53	230,00
-1948,97	64,00
-1939,42	151,00
-1929,89	87,00
-1920,37	297,00
-1910,86	156,00
-1901,36	109,00
-1891,88	163,00
-1882,41	95,00
-1872,95	218,00
-1863,51	57,00
-1854,08	158,00
-1844,66	140,00
-1835,26	74,00
-1825,86	151,00
-1816,48	91,00
-1807,11	86,00
-1797,76	102,00
-1788,42	163,00
-1779,09	130,00
-1769,77	96,00
-1760,47	177,00
-1751,17	183,00
-1741,89	94,00
-1732,63	155,00
-1723,37	56,00
-1714,13	119,00
-1704,90	91,00
-1695,68	261,00
-1686,48	97,00
-1677,29	166,00
-1668,11	233,00
-1658,94	24,00
-1649,78	215,00
-1640,64	186,00
-1631,51	112,00
-1622,39	78,00
-1613,28	114,00
-1604,19	54,00
-1595,10	255,00
-1586,03	176,00
-1576,97	115,00
-1567,93	177,00
-1558,89	-90,00
-1549,87	189,00
-1540,86	111,00
-1531,86	110,00
-1522,87	48,00
-1513,90	89,00
-1504,93	32,00
-1495,98	18,00
-1487,04	154,00
-1478,12	122,00
-1469,20	180,00
-1460,30	61,00
-1451,40	197,00
-1442,52	120,00
-1433,65	86,00
-1424,80	141,00
-1415,95	168,00
-1407,12	234,00
-1398,30	18,00
-1389,48	285,00
-1380,69	145,00
-1371,90	220,00
-1363,12	104,00
-1354,36	239,00
-1345,60	148,00
-1336,86	176,00
-1328,13	250,00
-1319,41	2,00
-1310,70	112,00
-1302,01	125,00
-1293,32	183,00
-1284,65	136,00
-1275,99	200,00
-1267,33	24,00
-1258,69	164,00
-1250,06	216,00
-1241,45	152,00
-1232,84	220,00
-1224,25	-2,00
-1215,66	177,00
-1207,09	35,00
-1198,53	72,00
-1189,97	184,00
-1181,43	173,00
-1172,91	117,00
-1164,39	289,00
-1155,88	147,00
-1147,38	73,00
-1138,90	301,00
-1130,43	68,00
-1121,96	103,00
-1113,51	80,00
-1105,07	176,00
-1096,64	148,00
-1088,22	269,00
-1079,81	202,00
-1071,41	97,00
-1063,02	105,00
-1054,65	173,00
-1046,28	214,00
-1037,92	127,00
-1029,58	233,00
-1021,24	61,00
-1012,92	308,00
-1004,61	227,00
-996,30	175,00
-988,01	37,00
-979,73	336,00
-971,46	126,00
-963,20	111,00
-954,95	99,00
-946,71	-32,00
-938,48	4,00
-930,26	74,00
-922,06	112,00
-913,86	266,00
-905,67	191,00
-897,49	76,00
-889,33	163,00
-881,17	179,00
-873,02	212,00
-864,89	70,00
-856,76	-7,00
-848,65	164,00
-840,54	63,00
-832,45	163,00
-824,36	59,00
-816,29	159,00
-808,22	72,00
-800,17	130,00
-792,12	108,00
-784,09	247,00
-776,06	90,00
-768,05	80,00
-760,04	117,00
-752,05	116,00
-744,07	208,00
-736,09	155,00
-728,13	189,00
-720,17	135,00
-712,23	98,00
-704,29	87,00
-696,37	121,00
-688,45	167,00
-680,55	121,00
-672,65	282,00
-664,77	56,00
-656,89	52,00
-649,03	128,00
-641,17	60,00
-633,32	186,00
-625,49	135,00
-617,66	101,00
-609,84	55,00
-602,03	235,00
-594,23	237,00
-586,45	101,00
-578,67	255,00
-570,90	172,00
-563,14	167,00
-555,39	205,00
-547,65	66,00
-539,91	30,00
-532,19	181,00
-524,48	64,00
-516,78	146,00
-509,08	169,00
-501,40	99,00
-493,72	98,00
-486,06	108,00
-478,40	161,00
-470,76	15,00
-463,12	154,00
-455,49	124,00
-447,87	73,00
-440,26	196,00
-432,66	138,00
-425,07	176,00
-417,49	119,00
-409,92	221,00
-402,35	97,00
-394,80	191,00
-387,25	127,00
-379,72	97,00
-372,19	271,00
-364,67	310,00
-357,17	71,00
-349,67	93,00
-342,18	232,00
-334,69	316,00
-327,22	114,00
-319,76	99,00
-312,30	222,00
-304,86	158,00
-297,42	212,00
-290,00	120,00
-282,58	126,00
-275,17	152,00
-267,77	141,00
-260,37	260,00
-252,99	168,00
-245,62	96,00
-238,25	59,00
-230,90	253,00
-223,55	340,00
-216,21	304,00
-208,88	269,00
-201,56	278,00
-194,25	279,00
-186,94	164,00
-179,65	207,00
-172,36	363,00
-165,08	314,00
-157,81	362,00
-150,55	216,00
-143,30	382,00
-136,06	388,00
-128,82	443,00
-121,60	503,00
-114,38	424,00
-107,17	371,00
-99,97	455,00
-92,78	559,00
-85,60	567,00
-78,42	783,00
-71,25	847,00
-64,10	1008,00
-56,95	1179,00
-49,81	1292,00
-42,67	1616,00
-35,55	2021,00
-28,43	2791,00
-21,33	4792,00
-14,23	16010,00
-7,14	47266,00
-0,05	38051,00
7,02	42597,00
14,09	42007,00
21,14	11379,00
28,19	5080,00
35,23	3312,00
42,27	2429,00
49,29	2140,00
56,31	1742,00
63,32	1516,00
70,32	1117,00
77,31	1136,00
84,29	981,00
91,27	746,00
98,23	737,00
105,19	641,00
112,14	859,00
119,09	1080,00
126,02	1333,00
132,95	1475,00
139,87	1521,00
146,78	1506,00
153,68	1423,00
160,58	1369,00
167,46	1419,00
174,34	1439,00
181,21	1342,00
188,08	1405,00
194,93	1362,00
201,78	1389,00
208,62	1361,00
215,45	1303,00
222,27	1444,00
229,09	1272,00
235,90	1385,00
242,70	1180,00
249,49	1176,00
256,27	1206,00
263,05	1128,00
269,82	1117,00
276,58	1206,00
283,33	1209,00
290,08	1282,00
296,82	1197,00
303,55	1076,00
310,27	1132,00
316,98	1061,00
323,69	1095,00
330,39	1229,00
337,08	904,00
343,76	1078,00
350,44	1013,00
357,11	933,00
363,77	1101,00
370,42	1038,00
377,07	1107,00
383,71	1083,00
390,34	1006,00
396,96	1019,00
403,58	914,00
410,19	980,00
416,79	1041,00
423,38	1076,00
429,97	1009,00
436,55	1089,00
443,12	1050,00
449,68	968,00
456,24	991,00
462,79	947,00
469,33	954,00
475,86	972,00
482,39	864,00
488,91	909,00
495,42	788,00
501,93	876,00
508,42	942,00
514,91	979,00
521,40	898,00
527,87	933,00
534,34	805,00
540,80	942,00
547,25	800,00
553,70	891,00
560,14	828,00
566,57	828,00
573,00	905,00
579,41	766,00
585,83	849,00
592,23	888,00
598,62	732,00
605,01	783,00
611,40	805,00
617,77	958,00
624,14	815,00
630,50	869,00
636,85	700,00
643,20	776,00
649,54	879,00
655,87	843,00
662,20	828,00
668,52	808,00
674,83	816,00
681,13	897,00
687,43	971,00
693,72	753,00
700,00	752,00
706,28	826,00
712,55	796,00
718,81	840,00
725,07	912,00
731,32	660,00
737,56	907,00
743,79	800,00
750,02	951,00
756,24	816,00
762,46	682,00
768,67	960,00
774,87	782,00
781,06	880,00
787,25	886,00
793,43	822,00
799,60	780,00
805,77	784,00
811,93	793,00
818,08	888,00
824,23	880,00
830,37	766,00
836,50	848,00
842,63	834,00
848,75	857,00
854,87	880,00
860,97	928,00
867,07	938,00
873,17	937,00
879,25	802,00
885,33	961,00
891,41	760,00
897,47	775,00
903,53	794,00
909,59	748,00
915,63	944,00
921,67	800,00
927,71	765,00
933,74	730,00
939,76	781,00
945,77	847,00
951,78	765,00
957,78	749,00
963,78	705,00
969,77	718,00
975,75	738,00
981,72	753,00
987,69	990,00
993,66	829,00
999,61	680,00
1005,56	806,00
1011,51	736,00
1017,44	718,00
1023,37	783,00
1029,30	823,00
1035,22	661,00
1041,13	829,00
1047,03	937,00
1052,93	1183,00
1058,83	1360,00
1064,71	1588,00
1070,59	1296,00
1076,47	1007,00
1082,33	974,00
1088,20	935,00
1094,05	905,00
1099,90	781,00
1105,74	883,00
1111,58	878,00
1117,41	972,00
1123,23	1351,00
1129,05	1575,00
1134,86	1448,00
1140,67	1094,00
1146,47	924,00
1152,26	839,00
1158,05	808,00
1163,83	851,00
1169,60	809,00
1175,37	885,00
1181,13	672,00
1186,89	768,00
1192,64	728,00
1198,38	863,00
1204,12	757,00
1209,85	718,00
1215,58	695,00
1221,30	739,00
1227,02	836,00
1232,72	701,00
1238,43	773,00
1244,12	856,00
1249,81	792,00
1255,50	937,00
1261,17	868,00
1266,85	896,00
1272,51	910,00
1278,17	931,00
1283,83	1051,00
1289,47	1528,00
1295,12	1855,00
1300,75	1733,00
1306,38	1337,00
1312,01	1139,00
1317,63	964,00
1323,24	991,00
1328,85	921,00
1334,45	882,00
1340,04	710,00
1345,63	880,00
1351,22	928,00
1356,80	884,00
1362,37	923,00
1367,93	1072,00
1373,49	931,00
1379,05	1008,00
1384,60	982,00
1390,14	1018,00
1395,68	1014,00
1401,21	987,00
1406,74	931,00
1412,26	1328,00
1417,77	1261,00
1423,28	1374,00
1428,78	1506,00
1434,28	1508,00
1439,77	1937,00
1445,26	1910,00
1450,74	1904,00
1456,22	1571,00
1461,68	1552,00
1467,15	1376,00
1472,61	1319,00
1478,06	1260,00
1483,51	1013,00
1488,95	1077,00
1494,38	897,00
1499,81	772,00
1505,24	836,00
1510,65	755,00
1516,07	770,00
1521,48	816,00
1526,88	823,00
1532,27	775,00
1537,67	901,00
1543,05	746,00
1548,43	668,00
1553,81	722,00
1559,18	858,00
1564,54	680,00
1569,90	719,00
1575,25	685,00
1580,60	856,00
1585,94	708,00
1591,28	673,00
1596,61	682,00
1601,93	677,00
1607,25	677,00
1612,57	696,00
1617,88	862,00
1623,18	697,00
1628,48	753,00
1633,77	768,00
1639,06	726,00
1644,34	761,00
1649,62	660,00
1654,89	648,00
1660,16	692,00
1665,42	620,00
1670,67	762,00
1675,92	640,00
1681,17	655,00
1686,41	617,00
1691,64	728,00
1696,87	629,00
1702,10	662,00
1707,32	475,00
1712,53	704,00
1717,74	721,00
1722,94	623,00
1728,14	617,00
1733,33	593,00
1738,52	591,00
1743,70	663,00
1748,88	608,00
1754,05	684,00
1759,22	673,00
1764,38	-1084,00
1769,53	572,00
1774,69	540,00
1779,83	664,00
1784,97	596,00
1790,11	607,00
1795,24	624,00
1800,36	666,00
1805,48	695,00
1810,60	680,00
1815,71	528,00
1820,82	704,00
1825,92	685,00
1831,01	525,00
1836,10	582,00
1841,19	559,00
1846,26	603,00
1851,34	632,00
1856,41	516,00
1861,47	634,00
1866,53	594,00
1871,59	577,00
1876,64	742,00
1881,68	605,00
1886,72	478,00
1891,76	469,00
1896,79	638,00
1901,81	616,00
1906,83	551,00
1911,85	514,00
1916,86	580,00
1921,86	552,00
1926,86	516,00
1931,86	707,00
1936,85	652,00
1941,83	569,00
1946,81	572,00
1951,79	535,00
1956,76	465,00
1961,72	597,00
1966,68	608,00
1971,64	523,00
1976,59	528,00
1981,54	548,00
1986,48	509,00
1991,42	522,00
1996,35	537,00
2001,27	421,00
2006,20	645,00
2011,11	641,00
2016,03	610,00
2020,93	586,00
2025,84	376,00
2030,73	436,00
2035,63	502,00
2040,52	550,00
2045,40	451,00
2050,28	403,00
2055,15	536,00
2060,02	591,00
2064,89	483,00
2069,75	435,00
2074,60	508,00
2079,46	513,00
2084,30	496,00
2089,14	502,00
2093,98	484,00
2098,81	531,00
2103,64	514,00
2108,46	497,00
2113,28	522,00
2118,09	523,00
2122,90	574,00
2127,70	544,00
2132,50	429,00
2137,30	406,00
2142,09	519,00
2146,87	533,00
2151,66	448,00
2156,43	559,00
2161,20	510,00
2165,97	492,00
2170,73	577,00
2175,49	475,00
2180,24	537,00
2184,99	451,00
2189,74	595,00
2194,48	514,00
2199,21	534,00
2203,94	541,00
2208,67	451,00
2213,39	393,00
2218,11	417,00
2222,82	527,00
2227,53	477,00
2232,23	428,00
2236,93	460,00
2241,63	472,00
2246,32	595,00
2251,00	613,00
2255,68	594,00
2260,36	508,00
2265,03	494,00
2269,70	449,00
2274,36	498,00
2279,02	341,00
2283,68	471,00
2288,33	485,00
2292,97	428,00
2297,61	531,00
2302,25	467,00
2306,88	481,00
2311,51	466,00
2316,14	355,00
2320,75	503,00
2325,37	439,00
2329,98	509,00
2334,59	475,00
2339,19	587,00
2343,79	306,00
2348,38	520,00
2352,97	467,00
2357,55	469,00
2362,13	559,00
2366,71	365,00
2371,28	423,00
2375,85	563,00
2380,41	535,00
2384,97	539,00
2389,52	442,00
2394,07	344,00
2398,62	384,00
2403,16	505,00
2407,70	392,00
2412,23	509,00
2416,76	435,00
2421,29	342,00
2425,81	418,00
2430,32	443,00
2434,84	325,00
2439,34	459,00
2443,85	300,00
2448,35	525,00
2452,84	380,00
2457,33	458,00
2461,82	404,00
2466,30	372,00
2470,78	468,00
2475,25	402,00
2479,72	464,00
2484,19	468,00
2488,65	489,00
2493,11	331,00
2497,56	342,00
2502,01	346,00
2506,46	374,00
2510,90	367,00
2515,34	349,00
2519,77	376,00
2524,20	450,00
2528,62	417,00
2533,04	406,00
2537,46	342,00
2541,87	395,00
2546,28	426,00
2550,68	350,00
2555,08	461,00
2559,48	427,00
2563,87	483,00
2568,26	397,00
2572,64	381,00
2577,02	361,00
2581,40	532,00
2585,77	390,00
2590,14	398,00
2594,50	306,00
2598,86	433,00
2603,22	351,00
2607,57	299,00
2611,92	338,00
2616,26	465,00
2620,60	347,00
2624,94	402,00
2629,27	498,00
2633,60	422,00
2637,92	277,00
2642,24	348,00
2646,56	324,00
2650,87	372,00
2655,18	418,00
2659,48	369,00
2663,78	322,00
2668,08	458,00
2672,37	441,00
2676,66	390,00
2680,95	507,00
2685,23	220,00
2689,50	544,00
2693,78	446,00
2698,05	411,00
2702,31	460,00
2706,57	365,00
2710,83	428,00
2715,08	355,00
2719,33	558,00
2723,58	506,00
2727,82	444,00
2732,06	538,00
2736,29	592,00
2740,53	529,00
2744,75	397,00
2748,97	432,00
2753,19	517,00
2757,41	353,00
2761,62	411,00
2765,83	347,00
2770,03	436,00
2774,23	371,00
2778,43	434,00
2782,62	650,00
2786,81	433,00
2791,00	489,00
2795,18	572,00
2799,35	456,00
2803,53	536,00
2807,70	639,00
2811,86	555,00
2816,03	620,00
2820,19	670,00
2824,34	671,00
2828,49	758,00
2832,64	885,00
2836,78	945,00
2840,92	1290,00
2845,06	1492,00
2849,19	1687,00
2853,32	1789,00
2857,45	1691,00
2861,57	1740,00
2865,69	1504,00
2869,80	1498,00
2873,91	1525,00
2878,02	1614,00
2882,12	1847,00
2886,22	1887,00
2890,32	1685,00
2894,41	1521,00
2898,50	1542,00
2902,58	1467,00
2906,67	1325,00
2910,74	1180,00
2914,82	1106,00
2918,89	1075,00
2922,96	912,00
2927,02	959,00
2931,08	969,00
2935,13	800,00
2939,19	793,00
2943,24	722,00
2947,28	541,00
2951,32	660,00
2955,36	622,00
2959,40	541,00
2963,43	498,00
2967,46	442,00
2971,48	411,00
2975,50	487,00
2979,52	281,00
2983,53	325,00
2987,54	376,00
2991,55	318,00
2995,55	365,00
2999,55	400,00
3003,54	287,00
3007,54	352,00
3011,53	331,00
3015,51	320,00
3019,49	236,00
3023,47	310,00
3027,45	295,00
3031,42	308,00
3035,39	299,00
3039,35	329,00
3043,31	406,00
3047,27	328,00
3051,22	294,00
3055,17	300,00
3059,12	189,00
3063,06	274,00
3067,00	289,00
3070,94	295,00
3074,87	212,00
3078,80	186,00
3082,73	309,00
3086,65	220,00
3090,57	252,00
3094,49	141,00
3098,40	263,00
3102,31	165,00
3106,22	325,00
3110,12	287,00
3114,02	166,00
3117,92	336,00
3121,81	312,00
3125,70	203,00
3129,58	259,00
3133,47	215,00
3137,34	207,00
3141,22	402,00
3145,09	278,00
3148,96	121,00
3152,83	266,00
3156,69	282,00
3160,55	202,00
3164,40	144,00
3168,26	139,00
3172,10	360,00
3175,95	262,00
3179,79	140,00
3183,63	217,00
3187,47	261,00
3191,30	155,00
3195,13	285,00
3198,95	68,00
3202,78	308,00
3206,60	285,00
3210,41	260,00
3214,23	198,00
3218,03	244,00
3221,84	129,00
3225,64	171,00
3229,44	231,00
3233,24	117,00
3237,03	328,00
3240,82	164,00
3244,61	154,00
3248,39	112,00
3252,17	283,00
3255,95	155,00
3259,72	187,00
3263,49	62,00
3267,26	194,00
3271,03	146,00
3274,79	157,00
3278,54	242,00
3282,30	242,00
3286,05	134,00
3289,80	89,00
3293,54	224,00
3297,29	262,00
3301,02	276,00
3304,76	137,00
3308,49	182,00
3312,22	205,00
3315,95	93,00
3319,67	283,00
3323,39	169,00
3327,10	234,00
3330,82	237,00
3334,53	184,00
3338,24	197,00
3341,94	155,00
3345,64	192,00
3349,34	156,00
3353,03	256,00
3356,72	191,00
3360,41	178,00
3364,10	218,00
3367,78	166,00
3371,46	193,00
3375,13	315,00
3378,81	147,00
3382,48	112,00
3386,14	94,00
3389,81	229,00
3393,47	303,00
3397,12	201,00
3400,78	178,00
3404,43	313,00
3408,08	328,00
3411,72	189,00
3415,36	197,00
3419,00	219,00
3422,64	228,00
3426,27	205,00
3429,90	222,00
3433,53	233,00
3437,15	162,00
3440,77	240,00
3444,39	240,00
3448,00	41,00
3451,62	290,00
3455,22	220,00
3458,83	184,00
3462,43	131,00
3466,03	-1,00
3469,63	181,00
3473,22	186,00
3476,81	218,00
3480,40	166,00
3483,99	81,00
3487,57	81,00
3491,15	195,00
3494,72	165,00
3498,29	239,00
3501,86	96,00
3505,43	74,00
3508,99	236,00
3512,56	298,00
3516,11	148,00
3519,67	13,00
3523,22	214,00
3526,77	118,00
3530,32	216,00
3533,86	190,00
3537,40	196,00
3540,94	206,00
3544,47	162,00
3548,00	198,00
3551,53	238,00
3555,06	63,00
3558,58	210,00
3562,10	228,00
3565,62	207,00
3569,13	110,00
3572,64	152,00
3576,15	155,00
3579,66	132,00
3583,16	191,00
3586,66	111,00
3590,16	144,00
3593,65	112,00
3597,14	84,00
3600,63	194,00
3604,11	248,00
3607,60	91,00
3611,08	193,00
3614,55	68,00
3618,03	164,00
3621,50	164,00
3624,97	210,00
3628,43	88,00
3631,90	183,00
3635,36	155,00
3638,81	179,00
3642,27	117,00
3645,72	247,00
3649,17	87,00
3652,61	96,00
3656,06	222,00
3659,50	128,00
3662,93	153,00
3666,37	137,00
3669,80	119,00
3673,23	261,00
3676,65	249,00
3680,08	51,00
3683,50	131,00
3686,92	157,00
3690,33	82,00
3693,74	95,00
3697,15	140,00
3700,56	32,00
3703,96	110,00
3707,36	38,00
3710,76	19,00
3714,16	176,00
3717,55	142,00
3720,94	59,00
3724,33	54,00
3727,71	122,00
3731,10	45,00
3734,48	148,00
3737,85	104,00
3741,23	87,00
3744,60	176,00
3747,97	86,00
3751,33	164,00
3754,69	84,00
3758,05	185,00
3761,41	44,00
3764,77	164,00
3768,12	100,00
3771,47	123,00
3774,82	60,00
3778,16	-2,00
3781,50	1,00
3784,84	5,00
3788,18	6,00
>>>>>End Processed Spectral Data<<<<<
