SpectraSuite Data File
++++++++++++++++++++++++++++++++++++
Date: Tue Mar 03 12:28:07 ICT 2026
User: user
Dark Spectrum Present: Yes
Reference Spectrum Present: No
Number of Sampled Component Spectra: 1
Spectrometers: MAYP113682
Integration Time (usec): 3000000 (MAYP113682)
Spectra Averaged: 1 (MAYP113682)
Boxcar Smoothing: 0 (MAYP113682)
Correct for Electrical Dark: No (MAYP113682)
Strobe/Lamp Enabled: No (MAYP113682)
Correct for Detector Non-linearity: No (MAYP113682)
Correct for Stray Light: No (MAYP113682)
Number of Pixels in Processed Spectrum: 2068
>>>>>Begin Processed Spectral Data<<<<<
-37534,58	9,00
-37414,56	2,00
-37295,11	-3,00
-37176,24	-2,00
-37057,95	-28,00
-36940,22	13,00
-36823,05	-1,00
-36706,45	23,00
-36590,40	48,00
-36474,90	61,00
-36359,95	108,00
-36245,55	153,00
-36131,68	17,00
-36018,35	88,00
-35905,55	64,00
-35793,29	139,00
-35681,54	103,00
-35570,32	-30,00
-35459,62	-109,00
-35349,43	44,00
-35239,75	187,00
-35130,58	121,00
-35021,91	111,00
-34913,74	109,00
-34806,07	37,00
-34698,89	110,00
-34592,20	-47,00
-34486,00	44,00
-34380,28	3,00
-34275,04	-37,00
-34170,27	0,00
-34065,98	-25,00
-33962,16	-18,00
-33858,81	51,00
-33755,92	-16,00
-33653,49	124,00
-33551,52	51,00
-33450,01	71,00
-33348,94	53,00
-33248,33	-21,00
-33148,16	22,00
-33048,43	63,00
-32949,14	-52,00
-32850,29	119,00
-32751,87	63,00
-32653,89	30,00
-32556,33	43,00
-32459,20	20,00
-32362,49	-80,00
-32266,19	-6,00
-32170,32	-38,00
-32074,86	69,00
-31979,82	-16,00
-31885,18	-45,00
-31790,95	0,00
-31697,12	70,00
-31603,69	93,00
-31510,67	43,00
-31418,04	31,00
-31325,80	80,00
-31233,95	72,00
-31142,49	90,00
-31051,42	34,00
-30960,73	110,00
-30870,43	70,00
-30780,50	63,00
-30690,95	36,00
-30601,77	14,00
-30512,97	47,00
-30424,53	44,00
-30336,46	57,00
-30248,76	195,00
-30161,42	-22,00
-30074,44	98,00
-29987,81	29,00
-29901,55	-35,00
-29815,63	-10,00
-29730,07	-68,00
-29644,86	90,00
-29560,00	62,00
-29475,48	-29,00
-29391,30	3,00
-29307,47	10,00
-29223,97	-6,00
-29140,81	-42,00
-29057,99	-59,00
-28975,50	81,00
-28893,34	28,00
-28811,51	26,00
-28730,00	92,00
-28648,82	-44,00
-28567,97	-35,00
-28487,43	22,00
-28407,21	36,00
-28327,32	-55,00
-28247,73	-68,00
-28168,46	20,00
-28089,50	-62,00
-28010,85	-73,00
-27932,51	117,00
-27854,48	-62,00
-27776,75	54,00
-27699,32	104,00
-27622,19	101,00
-27545,37	14,00
-27468,84	-40,00
-27392,60	-8,00
-27316,66	76,00
-27241,01	-38,00
-27165,66	67,00
-27090,59	-94,00
-27015,81	92,00
-26941,31	38,00
-26867,10	57,00
-26793,17	52,00
-26719,52	20,00
-26646,15	61,00
-26573,06	157,00
-26500,24	5,00
-26427,70	-6,00
-26355,43	168,00
-26283,43	69,00
-26211,71	73,00
-26140,25	47,00
-26069,06	156,00
-25998,13	-93,00
-25927,46	51,00
-25857,06	1,00
-25786,92	92,00
-25717,04	-69,00
-25647,42	47,00
-25578,05	-15,00
-25508,94	-79,00
-25440,09	87,00
-25371,48	92,00
-25303,13	67,00
-25235,02	-35,00
-25167,17	6,00
-25099,56	16,00
-25032,19	60,00
-24965,07	-13,00
-24898,20	23,00
-24831,56	72,00
-24765,17	-66,00
-24699,01	54,00
-24633,10	74,00
-24567,41	22,00
-24501,97	8,00
-24436,75	-53,00
-24371,77	115,00
-24307,03	-11,00
-24242,51	21,00
-24178,22	46,00
-24114,16	-32,00
-24050,32	-39,00
-23986,71	41,00
-23923,32	149,00
-23860,16	-80,00
-23797,22	56,00
-23734,50	66,00
-23672,00	159,00
-23609,71	276,00
-23547,65	6,00
-23485,80	-3,00
-23424,16	-22,00
-23362,74	77,00
-23301,53	16,00
-23240,54	-43,00
-23179,75	120,00
-23119,17	26,00
-23058,80	87,00
-22998,64	108,00
-22938,68	59,00
-22878,93	-64,00
-22819,39	41,00
-22760,04	-72,00
-22700,90	-73,00
-22641,96	2,00
-22583,22	92,00
-22524,68	22,00
-22466,33	48,00
-22408,19	26,00
-22350,23	58,00
-22292,48	-28,00
-22234,92	-64,00
-22177,55	-71,00
-22120,37	12,00
-22063,38	59,00
-22006,58	155,00
-21949,98	62,00
-21893,56	135,00
-21837,33	9,00
-21781,28	69,00
-21725,42	-35,00
-21669,74	83,00
-21614,25	36,00
-21558,94	73,00
-21503,81	94,00
-21448,86	76,00
-21394,10	64,00
-21339,51	134,00
-21285,10	15,00
-21230,86	-22,00
-21176,81	146,00
-21122,93	110,00
-21069,22	96,00
-21015,69	147,00
-20962,33	93,00
-20909,14	54,00
-20856,13	32,00
-20803,28	-122,00
-20750,61	51,00
-20698,10	42,00
-20645,76	106,00
-20593,59	104,00
-20541,59	8,00
-20489,75	-25,00
-20438,07	62,00
-20386,56	7,00
-20335,22	155,00
-20284,03	17,00
-20233,01	-23,00
-20182,15	-96,00
-20131,45	24,00
-20080,91	14,00
-20030,52	68,00
-19980,30	-14,00
-19930,23	14,00
-19880,32	12,00
-19830,56	150,00
-19780,96	19,00
-19731,52	-4,00
-19682,23	9,00
-19633,09	-47,00
-19584,10	87,00
-19535,26	126,00
-19486,58	-19,00
-19438,04	-99,00
-19389,66	-75,00
-19341,42	-59,00
-19293,33	-15,00
-19245,39	60,00
-19197,60	79,00
-19149,95	170,00
-19102,45	28,00
-19055,09	74,00
-19007,87	95,00
-18960,80	43,00
-18913,87	111,00
-18867,09	3,00
-18820,44	49,00
-18773,94	72,00
-18727,57	-39,00
-18681,35	109,00
-18635,26	-47,00
-18589,31	122,00
-18543,50	-56,00
-18497,83	8,00
-18452,29	-41,00
-18406,89	18,00
-18361,63	32,00
-18316,50	8,00
-18271,50	-20,00
-18226,63	-86,00
-18181,90	154,00
-18137,30	109,00
-18092,84	34,00
-18048,50	-23,00
-18004,29	123,00
-17960,22	60,00
-17916,27	-2,00
-17872,45	62,00
-17828,76	-59,00
-17785,20	-12,00
-17741,77	6,00
-17698,46	52,00
-17655,28	28,00
-17612,22	-109,00
-17569,29	17,00
-17526,48	23,00
-17483,79	-118,00
-17441,23	4,00
-17398,79	67,00
-17356,48	137,00
-17314,28	15,00
-17272,21	40,00
-17230,26	-19,00
-17188,42	18,00
-17146,71	105,00
-17105,12	-16,00
-17063,64	95,00
-17022,28	-31,00
-16981,04	40,00
-16939,92	66,00
-16898,91	18,00
-16858,02	15,00
-16817,25	-59,00
-16776,59	163,00
-16736,04	125,00
-16695,61	107,00
-16655,29	54,00
-16615,09	-13,00
-16574,99	32,00
-16535,01	-16,00
-16495,15	141,00
-16455,39	3,00
-16415,74	104,00
-16376,21	-37,00
-16336,78	-36,00
-16297,46	84,00
-16258,26	45,00
-16219,16	76,00
-16180,17	32,00
-16141,28	86,00
-16102,51	-73,00
-16063,84	49,00
-16025,27	33,00
-15986,82	-3,00
-15948,46	-51,00
-15910,22	34,00
-15872,07	79,00
-15834,04	40,00
-15796,10	-30,00
-15758,27	173,00
-15720,54	24,00
-15682,91	12,00
-15645,39	30,00
-15607,97	68,00
-15570,64	-37,00
-15533,42	87,00
-15496,30	0,00
-15459,28	83,00
-15422,36	73,00
-15385,54	68,00
-15348,82	107,00
-15312,19	44,00
-15275,66	-93,00
-15239,23	-28,00
-15202,90	42,00
-15166,67	65,00
-15130,53	-24,00
-15094,48	77,00
-15058,54	14,00
-15022,68	70,00
-14986,93	115,00
-14951,26	-9,00
-14915,69	-140,00
-14880,22	87,00
-14844,84	-37,00
-14809,55	-30,00
-14774,35	-11,00
-14739,25	45,00
-14704,24	-89,00
-14669,32	-22,00
-14634,49	113,00
-14599,75	104,00
-14565,10	82,00
-14530,55	93,00
-14496,08	100,00
-14461,70	88,00
-14427,41	-57,00
-14393,21	4,00
-14359,10	34,00
-14325,07	103,00
-14291,14	92,00
-14257,29	98,00
-14223,52	2,00
-14189,85	-2,00
-14156,26	69,00
-14122,76	-102,00
-14089,34	0,00
-14056,01	-7,00
-14022,76	3,00
-13989,60	37,00
-13956,52	82,00
-13923,53	20,00
-13890,62	24,00
-13857,79	51,00
-13825,05	108,00
-13792,39	66,00
-13759,81	-3,00
-13727,31	-8,00
-13694,90	-58,00
-13662,57	69,00
-13630,31	117,00
-13598,14	62,00
-13566,05	-54,00
-13534,05	-88,00
-13502,12	2,00
-13470,27	131,00
-13438,50	-16,00
-13406,80	132,00
-13375,19	48,00
-13343,66	-7,00
-13312,20	-35,00
-13280,83	-3,00
-13249,53	-4,00
-13218,30	-31,00
-13187,16	-13,00
-13156,09	-96,00
-13125,10	111,00
-13094,18	67,00
-13063,34	-11,00
-13032,58	50,00
-13001,89	-44,00
-12971,28	-14,00
-12940,74	38,00
-12910,27	-15,00
-12879,88	44,00
-12849,57	46,00
-12819,33	48,00
-12789,16	37,00
-12759,06	34,00
-12729,04	43,00
-12699,09	44,00
-12669,21	87,00
-12639,41	-29,00
-12609,68	-1,00
-12580,02	-62,00
-12550,43	-28,00
-12520,91	49,00
-12491,46	15,00
-12462,08	30,00
-12432,77	62,00
-12403,54	18,00
-12374,37	20,00
-12345,27	-92,00
-12316,24	-3,00
-12287,29	54,00
-12258,40	81,00
-12229,57	117,00
-12200,82	46,00
-12172,14	-16,00
-12143,52	-13,00
-12114,97	48,00
-12086,49	1,00
-12058,07	0,00
-12029,73	-53,00
-12001,44	43,00
-11973,23	8,00
-11945,08	16,00
-11917,00	50,00
-11888,98	44,00
-11861,03	-49,00
-11833,15	86,00
-11805,32	73,00
-11777,57	106,00
-11749,88	51,00
-11722,25	29,00
-11694,69	119,00
-11667,19	48,00
-11639,75	-42,00
-11612,38	55,00
-11585,07	95,00
-11557,83	14,00
-11530,65	19,00
-11503,53	210,00
-11476,47	85,00
-11449,48	39,00
-11422,54	39,00
-11395,67	96,00
-11368,86	28,00
-11342,11	7,00
-11315,43	-45,00
-11288,80	128,00
-11262,23	179,00
-11235,73	66,00
-11209,28	32,00
-11182,90	35,00
-11156,57	-79,00
-11130,31	-1,00
-11104,10	126,00
-11077,96	53,00
-11051,87	183,00
-11025,84	41,00
-10999,87	11,00
-10973,96	50,00
-10948,11	37,00
-10922,31	-91,00
-10896,58	-11,00
-10870,90	71,00
-10845,28	56,00
-10819,71	-26,00
-10794,20	31,00
-10768,75	134,00
-10743,36	40,00
-10718,02	58,00
-10692,74	77,00
-10667,52	16,00
-10642,35	104,00
-10617,24	196,00
-10592,18	140,00
-10567,18	127,00
-10542,23	147,00
-10517,34	208,00
-10492,51	35,00
-10467,72	188,00
-10443,00	229,00
-10418,32	194,00
-10393,70	178,00
-10369,14	218,00
-10344,63	132,00
-10320,17	227,00
-10295,77	270,00
-10271,42	298,00
-10247,12	170,00
-10222,88	344,00
-10198,68	317,00
-10174,54	397,00
-10150,46	380,00
-10126,42	322,00
-10102,44	372,00
-10078,51	448,00
-10054,63	502,00
-10030,80	512,00
-10007,03	427,00
-9983,30	419,00
-9959,63	538,00
-9936,01	566,00
-9912,44	582,00
-9888,92	573,00
-9865,44	633,00
-9842,02	755,00
-9818,65	680,00
-9795,33	720,00
-9772,06	755,00
-9748,84	800,00
-9725,67	797,00
-9702,55	946,00
-9679,47	1263,00
-9656,45	1139,00
-9633,47	1334,00
-9610,55	1346,00
-9587,67	1335,00
-9564,84	1522,00
-9542,06	1544,00
-9519,32	1921,00
-9496,64	2098,00
-9474,00	2128,00
-9451,41	2301,00
-9428,87	2388,00
-9406,37	2160,00
-9383,92	2007,00
-9361,52	1949,00
-9339,17	1915,00
-9316,86	2258,00
-9294,60	2561,00
-9272,38	2765,00
-9250,21	2949,00
-9228,09	3180,00
-9206,01	3016,00
-9183,98	2584,00
-9162,00	2284,00
-9140,06	2221,00
-9118,16	1988,00
-9096,31	2353,00
-9074,51	2311,00
-9052,75	2247,00
-9031,04	2227,00
-9009,37	2011,00
-8987,74	1786,00
-8966,16	1633,00
-8944,63	1464,00
-8923,14	1212,00
-8901,69	1477,00
-8880,29	1640,00
-8858,93	1811,00
-8837,61	2022,00
-8816,34	2092,00
-8795,11	2163,00
-8773,92	2066,00
-8752,78	1731,00
-8731,68	1627,00
-8710,62	1616,00
-8689,61	1611,00
-8668,63	1938,00
-8647,70	1816,00
-8626,82	1961,00
-8605,97	1862,00
-8585,17	1949,00
-8564,41	1554,00
-8543,69	1585,00
-8523,01	1448,00
-8502,37	1499,00
-8481,78	1369,00
-8461,23	1531,00
-8440,71	1688,00
-8420,24	1823,00
-8399,81	1891,00
-8379,42	1939,00
-8359,08	1744,00
-8338,77	1562,00
-8318,50	1507,00
-8298,27	1398,00
-8278,09	1509,00
-8257,94	1485,00
-8237,83	1644,00
-8217,76	1710,00
-8197,74	1738,00
-8177,75	1748,00
-8157,80	1590,00
-8137,89	1487,00
-8118,02	1545,00
-8098,19	1425,00
-8078,40	1514,00
-8058,65	1488,00
-8038,93	1576,00
-8019,26	1539,00
-7999,62	1385,00
-7980,02	1430,00
-7960,46	1523,00
-7940,94	1300,00
-7921,46	1263,00
-7902,01	1363,00
-7882,60	1258,00
-7863,23	1366,00
-7843,90	1432,00
-7824,61	1462,00
-7805,35	1568,00
-7786,13	1509,00
-7766,95	1541,00
-7747,80	1177,00
-7728,69	1301,00
-7709,62	1314,00
-7690,59	1435,00
-7671,59	1475,00
-7652,63	1495,00
-7633,70	1679,00
-7614,81	1482,00
-7595,96	1353,00
-7577,15	1317,00
-7558,37	1272,00
-7539,62	1219,00
-7520,91	1424,00
-7502,24	1457,00
-7483,60	1529,00
-7465,00	1368,00
-7446,44	1268,00
-7427,91	1130,00
-7409,41	1053,00
-7390,95	834,00
-7372,53	985,00
-7354,14	896,00
-7335,78	906,00
-7317,46	1040,00
-7299,18	1128,00
-7280,92	1301,00
-7262,71	1363,00
-7244,52	1531,00
-7226,38	1496,00
-7208,26	1350,00
-7190,18	1351,00
-7172,14	1326,00
-7154,12	1320,00
-7136,15	1405,00
-7118,20	1472,00
-7100,29	1528,00
-7082,41	1471,00
-7064,57	1322,00
-7046,76	1284,00
-7028,98	1076,00
-7011,24	900,00
-6993,53	876,00
-6975,85	821,00
-6958,20	688,00
-6940,59	773,00
-6923,01	784,00
-6905,46	819,00
-6887,94	1043,00
-6870,46	-1819,00
-6853,01	1291,00
-6835,59	1424,00
-6818,21	1121,00
-6800,85	927,00
-6783,53	816,00
-6766,24	662,00
-6748,98	644,00
-6731,76	513,00
-6714,56	537,00
-6697,40	518,00
-6680,26	667,00
-6663,16	781,00
-6646,09	843,00
-6629,05	1035,00
-6612,05	972,00
-6595,07	1053,00
-6578,13	945,00
-6561,21	832,00
-6544,33	583,00
-6527,47	426,00
-6510,65	460,00
-6493,86	400,00
-6477,10	482,00
-6460,36	384,00
-6443,66	399,00
-6426,99	336,00
-6410,35	396,00
-6393,74	550,00
-6377,16	699,00
-6360,61	610,00
-6344,09	678,00
-6327,59	788,00
-6311,13	710,00
-6294,70	844,00
-6278,29	878,00
-6261,92	781,00
-6245,58	1104,00
-6229,26	1038,00
-6212,97	833,00
-6196,72	626,00
-6180,49	579,00
-6164,29	322,00
-6148,12	314,00
-6131,98	183,00
-6115,86	205,00
-6099,78	391,00
-6083,72	193,00
-6067,69	271,00
-6051,69	349,00
-6035,72	301,00
-6019,78	326,00
-6003,87	528,00
-5987,98	668,00
-5972,12	616,00
-5956,29	646,00
-5940,49	640,00
-5924,71	520,00
-5908,96	405,00
-5893,24	235,00
-5877,55	347,00
-5861,89	250,00
-5846,25	461,00
-5830,64	332,00
-5815,05	397,00
-5799,50	201,00
-5783,97	306,00
-5768,47	363,00
-5752,99	424,00
-5737,55	732,00
-5722,12	782,00
-5706,73	682,00
-5691,36	573,00
-5676,02	344,00
-5660,71	173,00
-5645,42	202,00
-5630,16	382,00
-5614,92	267,00
-5599,71	455,00
-5584,53	431,00
-5569,37	506,00
-5554,24	1422,00
-5539,14	414,00
-5524,06	265,00
-5509,01	439,00
-5493,98	548,00
-5478,98	376,00
-5464,00	452,00
-5449,05	300,00
-5434,13	240,00
-5419,23	270,00
-5404,36	303,00
-5389,51	467,00
-5374,69	664,00
-5359,89	802,00
-5345,12	768,00
-5330,37	821,00
-5315,65	507,00
-5300,95	440,00
-5286,28	428,00
-5271,63	340,00
-5257,01	417,00
-5242,41	512,00
-5227,84	334,00
-5213,29	376,00
-5198,76	82,00
-5184,26	74,00
-5169,79	314,00
-5155,33	369,00
-5140,91	392,00
-5126,51	513,00
-5112,13	571,00
-5097,77	390,00
-5083,44	329,00
-5069,13	179,00
-5054,85	342,00
-5040,59	259,00
-5026,36	266,00
-5012,15	476,00
-4997,96	331,00
-4983,80	288,00
-4969,66	202,00
-4955,54	350,00
-4941,44	327,00
-4927,37	586,00
-4913,33	732,00
-4899,30	746,00
-4885,30	726,00
-4871,33	379,00
-4857,37	317,00
-4843,44	35,00
-4829,53	256,00
-4815,65	540,00
-4801,79	294,00
-4787,95	303,00
-4774,13	358,00
-4760,34	375,00
-4746,56	62,00
-4732,82	194,00
-4719,09	355,00
-4705,38	538,00
-4691,70	724,00
-4678,04	707,00
-4664,41	393,00
-4650,79	531,00
-4637,20	208,00
-4623,63	217,00
-4610,08	280,00
-4596,56	428,00
-4583,05	334,00
-4569,57	419,00
-4556,11	165,00
-4542,67	140,00
-4529,25	134,00
-4515,86	432,00
-4502,49	487,00
-4489,13	438,00
-4475,80	427,00
-4462,49	247,00
-4449,21	117,00
-4435,94	160,00
-4422,70	218,00
-4409,47	315,00
-4396,27	354,00
-4383,09	343,00
-4369,93	117,00
-4356,79	168,00
-4343,67	224,00
-4330,58	171,00
-4317,50	301,00
-4304,45	262,00
-4291,41	262,00
-4278,40	166,00
-4265,41	4,00
-4252,44	185,00
-4239,49	332,00
-4226,55	247,00
-4213,65	173,00
-4200,76	265,00
-4187,89	142,00
-4175,04	54,00
-4162,21	166,00
-4149,40	38,00
-4136,61	-26,00
-4123,85	120,00
-4111,10	62,00
-4098,37	48,00
-4085,66	123,00
-4072,98	57,00
-4060,31	64,00
-4047,66	173,00
-4035,04	134,00
-4022,43	-133,00
-4009,84	-45,00
-3997,27	-3,00
-3984,72	-11,00
-3972,19	-14,00
-3959,69	-58,00
-3947,20	13,00
-3934,73	6,00
-3922,27	58,00
-3909,84	-40,00
-3897,43	21,00
-3885,04	-5,00
-3872,67	157,00
-3860,31	26,00
-3847,98	29,00
-3835,66	54,00
-3823,36	-4,00
-3811,09	63,00
-3798,83	29,00
-3786,59	86,00
-3774,37	35,00
-3762,17	-72,00
-3749,98	-75,00
-3737,82	140,00
-3725,67	97,00
-3713,55	45,00
-3701,44	126,00
-3689,35	201,00
-3677,28	81,00
-3665,22	30,00
-3653,19	57,00
-3641,17	39,00
-3629,18	88,00
-3617,20	-44,00
-3605,24	-13,00
-3593,30	-56,00
-3581,37	34,00
-3569,47	69,00
-3557,58	26,00
-3545,71	-40,00
-3533,86	-66,00
-3522,02	124,00
-3510,21	-1,00
-3498,41	129,00
-3486,63	74,00
-3474,87	24,00
-3463,12	108,00
-3451,40	32,00
-3439,69	32,00
-3428,00	-35,00
-3416,33	-76,00
-3404,67	70,00
-3393,03	105,00
-3381,41	15,00
-3369,81	-67,00
-3358,22	28,00
-3346,66	-8,00
-3335,10	-98,00
-3323,57	117,00
-3312,06	40,00
-3300,56	57,00
-3289,08	-13,00
-3277,61	-12,00
-3266,16	5,00
-3254,73	-4,00
-3243,32	87,00
-3231,92	-60,00
-3220,55	-4,00
-3209,18	42,00
-3197,84	125,00
-3186,51	3,00
-3175,20	12,00
-3163,90	222,00
-3152,63	-19,00
-3141,36	-11,00
-3130,12	-19,00
-3118,89	-28,00
-3107,68	-16,00
-3096,49	38,00
-3085,31	47,00
-3074,15	93,00
-3063,00	31,00
-3051,87	24,00
-3040,76	-18,00
-3029,67	-15,00
-3018,59	-10,00
-3007,52	69,00
-2996,48	25,00
-2985,44	69,00
-2974,43	178,00
-2963,43	46,00
-2952,45	40,00
-2941,48	5,00
-2930,53	22,00
-2919,60	56,00
-2908,68	161,00
-2897,78	85,00
-2886,89	23,00
-2876,02	-82,00
-2865,17	-111,00
-2854,33	32,00
-2843,50	13,00
-2832,70	55,00
-2821,90	19,00
-2811,13	-51,00
-2800,37	64,00
-2789,62	32,00
-2778,89	87,00
-2768,18	56,00
-2757,48	110,00
-2746,80	107,00
-2736,13	-76,00
-2725,48	40,00
-2714,84	-74,00
-2704,22	-16,00
-2693,61	66,00
-2683,02	24,00
-2672,45	14,00
-2661,89	55,00
-2651,34	-17,00
-2640,81	64,00
-2630,30	52,00
-2619,80	-4,00
-2609,31	-70,00
-2598,84	44,00
-2588,39	84,00
-2577,95	29,00
-2567,52	74,00
-2557,11	42,00
-2546,71	19,00
-2536,33	52,00
-2525,97	22,00
-2515,62	75,00
-2505,28	-30,00
-2494,96	7,00
-2484,65	-120,00
-2474,36	41,00
-2464,08	16,00
-2453,82	184,00
-2443,57	25,00
-2433,33	-99,00
-2423,11	39,00
-2412,91	-30,00
-2402,72	91,00
-2392,54	58,00
-2382,38	-11,00
-2372,23	-12,00
-2362,09	155,00
-2351,97	93,00
-2341,87	75,00
-2331,78	-22,00
-2321,70	46,00
-2311,64	80,00
-2301,59	8,00
-2291,55	199,00
-2281,53	-32,00
-2271,53	227,00
-2261,53	27,00
-2251,55	74,00
-2241,59	52,00
-2231,64	-61,00
-2221,70	-33,00
-2211,78	-63,00
-2201,87	162,00
-2191,97	-2,00
-2182,09	-4,00
-2172,22	147,00
-2162,37	127,00
-2152,53	29,00
-2142,70	39,00
-2132,89	136,00
-2123,09	16,00
-2113,30	51,00
-2103,53	-102,00
-2093,77	-64,00
-2084,02	-28,00
-2074,29	95,00
-2064,57	108,00
-2054,86	-27,00
-2045,17	28,00
-2035,49	103,00
-2025,82	150,00
-2016,17	-81,00
-2006,53	49,00
-1996,91	47,00
-1987,29	-53,00
-1977,69	59,00
-1968,11	128,00
-1958,53	158,00
-1948,97	31,00
-1939,42	-1,00
-1929,89	63,00
-1920,37	200,00
-1910,86	-75,00
-1901,36	83,00
-1891,88	-46,00
-1882,41	-13,00
-1872,95	61,00
-1863,51	-31,00
-1854,08	74,00
-1844,66	59,00
-1835,26	-10,00
-1825,86	37,00
-1816,48	47,00
-1807,11	-59,00
-1797,76	6,00
-1788,42	37,00
-1779,09	-6,00
-1769,77	-71,00
-1760,47	-137,00
-1751,17	74,00
-1741,89	9,00
-1732,63	27,00
-1723,37	-92,00
-1714,13	106,00
-1704,90	67,00
-1695,68	86,00
-1686,48	-1,00
-1677,29	54,00
-1668,11	24,00
-1658,94	74,00
-1649,78	26,00
-1640,64	-3,00
-1631,51	31,00
-1622,39	102,00
-1613,28	80,00
-1604,19	21,00
-1595,10	1,00
-1586,03	140,00
-1576,97	24,00
-1567,93	-14,00
-1558,89	60,00
-1549,87	69,00
-1540,86	17,00
-1531,86	14,00
-1522,87	-44,00
-1513,90	76,00
-1504,93	101,00
-1495,98	-139,00
-1487,04	55,00
-1478,12	93,00
-1469,20	137,00
-1460,30	104,00
-1451,40	100,00
-1442,52	88,00
-1433,65	41,00
-1424,80	170,00
-1415,95	140,00
-1407,12	147,00
-1398,30	-40,00
-1389,48	75,00
-1380,69	-8,00
-1371,90	80,00
-1363,12	144,00
-1354,36	101,00
-1345,60	31,00
-1336,86	104,00
-1328,13	121,00
-1319,41	29,00
-1310,70	46,00
-1302,01	-24,00
-1293,32	107,00
-1284,65	53,00
-1275,99	104,00
-1267,33	3,00
-1258,69	36,00
-1250,06	173,00
-1241,45	16,00
-1232,84	73,00
-1224,25	-42,00
-1215,66	39,00
-1207,09	-77,00
-1198,53	47,00
-1189,97	80,00
-1181,43	15,00
-1172,91	36,00
-1164,39	-37,00
-1155,88	137,00
-1147,38	70,00
-1138,90	91,00
-1130,43	15,00
-1121,96	17,00
-1113,51	41,00
-1105,07	26,00
-1096,64	50,00
-1088,22	85,00
-1079,81	97,00
-1071,41	16,00
-1063,02	-48,00
-1054,65	15,00
-1046,28	110,00
-1037,92	-53,00
-1029,58	48,00
-1021,24	46,00
-1012,92	123,00
-1004,61	66,00
-996,30	117,00
-988,01	23,00
-979,73	129,00
-971,46	-57,00
-963,20	-7,00
-954,95	-81,00
-946,71	-53,00
-938,48	77,00
-930,26	-41,00
-922,06	-76,00
-913,86	73,00
-905,67	74,00
-897,49	44,00
-889,33	163,00
-881,17	56,00
-873,02	144,00
-864,89	5,00
-856,76	51,00
-848,65	134,00
-840,54	24,00
-832,45	88,00
-824,36	-53,00
-816,29	105,00
-808,22	50,00
-800,17	120,00
-792,12	3,00
-784,09	75,00
-776,06	39,00
-768,05	26,00
-760,04	25,00
-752,05	-21,00
-744,07	145,00
-736,09	-75,00
-728,13	57,00
-720,17	122,00
-712,23	54,00
-704,29	-40,00
-696,37	-16,00
-688,45	78,00
-680,55	-69,00
-672,65	201,00
-664,77	-22,00
-656,89	-29,00
-649,03	125,00
-641,17	2,00
-633,32	67,00
-625,49	10,00
-617,66	-53,00
-609,84	-76,00
-602,03	84,00
-594,23	118,00
-586,45	136,00
-578,67	61,00
-570,90	3,00
-563,14	48,00
-555,39	74,00
-547,65	-8,00
-539,91	41,00
-532,19	56,00
-524,48	29,00
-516,78	33,00
-509,08	33,00
-501,40	38,00
-493,72	-12,00
-486,06	63,00
-478,40	-107,00
-470,76	89,00
-463,12	-62,00
-455,49	118,00
-447,87	-1,00
-440,26	64,00
-432,66	6,00
-425,07	69,00
-417,49	29,00
-409,92	48,00
-402,35	-48,00
-394,80	137,00
-387,25	29,00
-379,72	56,00
-372,19	158,00
-364,67	232,00
-357,17	41,00
-349,67	35,00
-342,18	61,00
-334,69	60,00
-327,22	-80,00
-319,76	-29,00
-312,30	42,00
-304,86	53,00
-297,42	174,00
-290,00	112,00
-282,58	-53,00
-275,17	101,00
-267,77	170,00
-260,37	157,00
-252,99	-17,00
-245,62	77,00
-238,25	88,00
-230,90	27,00
-223,55	192,00
-216,21	104,00
-208,88	134,00
-201,56	65,00
-194,25	165,00
-186,94	85,00
-179,65	248,00
-172,36	216,00
-165,08	100,00
-157,81	204,00
-150,55	241,00
-143,30	215,00
-136,06	259,00
-128,82	188,00
-121,60	389,00
-114,38	193,00
-107,17	256,00
-99,97	351,00
-92,78	439,00
-85,60	567,00
-78,42	566,00
-71,25	700,00
-64,10	917,00
-56,95	1187,00
-49,81	1176,00
-42,67	1570,00
-35,55	1932,00
-28,43	2688,00
-21,33	4711,00
-14,23	15834,00
-7,14	47266,00
-0,05	38051,00
7,02	42597,00
14,09	41427,00
21,14	11035,00
28,19	4826,00
35,23	3192,00
42,27	2208,00
49,29	2084,00
56,31	1584,00
63,32	1326,00
70,32	1268,00
77,31	1082,00
84,29	929,00
91,27	756,00
98,23	702,00
105,19	698,00
112,14	632,00
119,09	946,00
126,02	1405,00
132,95	1712,00
139,87	1760,00
146,78	1643,00
153,68	1543,00
160,58	1595,00
167,46	1569,00
174,34	1605,00
181,21	1424,00
188,08	1592,00
194,93	1560,00
201,78	1663,00
208,62	1575,00
215,45	1431,00
222,27	1576,00
229,09	1404,00
235,90	1535,00
242,70	1345,00
249,49	1468,00
256,27	1470,00
263,05	1407,00
269,82	1280,00
276,58	1351,00
283,33	1391,00
290,08	1495,00
296,82	1355,00
303,55	1219,00
310,27	1270,00
316,98	1292,00
323,69	1317,00
330,39	1223,00
337,08	1192,00
343,76	1192,00
350,44	1265,00
357,11	1166,00
363,77	1232,00
370,42	1182,00
377,07	1256,00
383,71	1155,00
390,34	1105,00
396,96	1159,00
403,58	1115,00
410,19	1174,00
416,79	1163,00
423,38	1218,00
429,97	1109,00
436,55	1196,00
443,12	1119,00
449,68	1108,00
456,24	1094,00
462,79	1088,00
469,33	1000,00
475,86	1033,00
482,39	1023,00
488,91	965,00
495,42	1004,00
501,93	964,00
508,42	1084,00
514,91	1136,00
521,40	948,00
527,87	990,00
534,34	888,00
540,80	928,00
547,25	860,00
553,70	959,00
560,14	859,00
566,57	888,00
573,00	950,00
579,41	933,00
585,83	1102,00
592,23	1000,00
598,62	884,00
605,01	909,00
611,40	872,00
617,77	998,00
624,14	948,00
630,50	923,00
636,85	790,00
643,20	796,00
649,54	947,00
655,87	899,00
662,20	901,00
668,52	836,00
674,83	887,00
681,13	1011,00
687,43	937,00
693,72	826,00
700,00	921,00
706,28	822,00
712,55	931,00
718,81	928,00
725,07	1001,00
731,32	793,00
737,56	1027,00
743,79	961,00
750,02	923,00
756,24	825,00
762,46	793,00
768,67	914,00
774,87	806,00
781,06	806,00
787,25	996,00
793,43	897,00
799,60	818,00
805,77	904,00
811,93	832,00
818,08	1000,00
824,23	920,00
830,37	795,00
836,50	937,00
842,63	808,00
848,75	970,00
854,87	815,00
860,97	948,00
867,07	1036,00
873,17	1076,00
879,25	932,00
885,33	897,00
891,41	856,00
897,47	834,00
903,53	867,00
909,59	834,00
915,63	1003,00
921,67	857,00
927,71	793,00
933,74	722,00
939,76	865,00
945,77	777,00
951,78	943,00
957,78	778,00
963,78	738,00
969,77	792,00
975,75	802,00
981,72	693,00
987,69	892,00
993,66	869,00
999,61	726,00
1005,56	926,00
1011,51	804,00
1017,44	774,00
1023,37	815,00
1029,30	824,00
1035,22	724,00
1041,13	836,00
1047,03	991,00
1052,93	1281,00
1058,83	1706,00
1064,71	1766,00
1070,59	1519,00
1076,47	1126,00
1082,33	1129,00
1088,20	995,00
1094,05	1027,00
1099,90	865,00
1105,74	824,00
1111,58	897,00
1117,41	1133,00
1123,23	1609,00
1129,05	1944,00
1134,86	1672,00
1140,67	1132,00
1146,47	948,00
1152,26	920,00
1158,05	867,00
1163,83	961,00
1169,60	978,00
1175,37	1049,00
1181,13	844,00
1186,89	801,00
1192,64	761,00
1198,38	923,00
1204,12	795,00
1209,85	812,00
1215,58	826,00
1221,30	897,00
1227,02	828,00
1232,72	740,00
1238,43	786,00
1244,12	931,00
1249,81	933,00
1255,50	931,00
1261,17	839,00
1266,85	983,00
1272,51	1012,00
1278,17	1004,00
1283,83	1086,00
1289,47	1789,00
1295,12	2265,00
1300,75	1960,00
1306,38	1516,00
1312,01	1268,00
1317,63	1008,00
1323,24	1077,00
1328,85	1021,00
1334,45	964,00
1340,04	840,00
1345,63	955,00
1351,22	1015,00
1356,80	976,00
1362,37	994,00
1367,93	1107,00
1373,49	1076,00
1379,05	1039,00
1384,60	1008,00
1390,14	1106,00
1395,68	990,00
1401,21	1038,00
1406,74	1009,00
1412,26	1359,00
1417,77	1479,00
1423,28	1494,00
1428,78	1693,00
1434,28	1985,00
1439,77	2243,00
1445,26	2249,00
1450,74	2160,00
1456,22	1981,00
1461,68	1911,00
1467,15	1592,00
1472,61	1591,00
1478,06	1288,00
1483,51	1137,00
1488,95	1060,00
1494,38	943,00
1499,81	754,00
1505,24	834,00
1510,65	683,00
1516,07	874,00
1521,48	840,00
1526,88	802,00
1532,27	770,00
1537,67	916,00
1543,05	840,00
1548,43	716,00
1553,81	861,00
1559,18	833,00
1564,54	804,00
1569,90	792,00
1575,25	759,00
1580,60	707,00
1585,94	651,00
1591,28	675,00
1596,61	677,00
1601,93	690,00
1607,25	789,00
1612,57	656,00
1617,88	790,00
1623,18	842,00
1628,48	695,00
1633,77	770,00
1639,06	775,00
1644,34	804,00
1649,62	651,00
1654,89	777,00
1660,16	677,00
1665,42	706,00
1670,67	596,00
1675,92	726,00
1681,17	630,00
1686,41	670,00
1691,64	630,00
1696,87	597,00
1702,10	601,00
1707,32	430,00
1712,53	649,00
1717,74	635,00
1722,94	687,00
1728,14	676,00
1733,33	660,00
1738,52	650,00
1743,70	699,00
1748,88	543,00
1754,05	596,00
1759,22	606,00
1764,38	457,00
1769,53	508,00
1774,69	554,00
1779,83	665,00
1784,97	536,00
1790,11	615,00
1795,24	529,00
1800,36	673,00
1805,48	604,00
1810,60	687,00
1815,71	493,00
1820,82	570,00
1825,92	588,00
1831,01	605,00
1836,10	515,00
1841,19	597,00
1846,26	602,00
1851,34	518,00
1856,41	434,00
1861,47	584,00
1866,53	522,00
1871,59	443,00
1876,64	678,00
1881,68	585,00
1886,72	505,00
1891,76	420,00
1896,79	635,00
1901,81	640,00
1906,83	572,00
1911,85	544,00
1916,86	623,00
1921,86	616,00
1926,86	447,00
1931,86	603,00
1936,85	507,00
1941,83	522,00
1946,81	551,00
1951,79	507,00
1956,76	445,00
1961,72	604,00
1966,68	413,00
1971,64	519,00
1976,59	561,00
1981,54	454,00
1986,48	512,00
1991,42	433,00
1996,35	480,00
2001,27	240,00
2006,20	560,00
2011,11	510,00
2016,03	511,00
2020,93	600,00
2025,84	467,00
2030,73	405,00
2035,63	466,00
2040,52	374,00
2045,40	438,00
2050,28	386,00
2055,15	477,00
2060,02	505,00
2064,89	441,00
2069,75	511,00
2074,60	572,00
2079,46	321,00
2084,30	525,00
2089,14	526,00
2093,98	532,00
2098,81	505,00
2103,64	469,00
2108,46	437,00
2113,28	489,00
2118,09	452,00
2122,90	542,00
2127,70	459,00
2132,50	347,00
2137,30	445,00
2142,09	556,00
2146,87	526,00
2151,66	435,00
2156,43	428,00
2161,20	405,00
2165,97	457,00
2170,73	452,00
2175,49	299,00
2180,24	444,00
2184,99	379,00
2189,74	491,00
2194,48	506,00
2199,21	403,00
2203,94	514,00
2208,67	496,00
2213,39	400,00
2218,11	373,00
2222,82	517,00
2227,53	402,00
2232,23	407,00
2236,93	446,00
2241,63	428,00
2246,32	469,00
2251,00	396,00
2255,68	398,00
2260,36	403,00
2265,03	372,00
2269,70	326,00
2274,36	431,00
2279,02	468,00
2283,68	420,00
2288,33	464,00
2292,97	357,00
2297,61	442,00
2302,25	371,00
2306,88	345,00
2311,51	449,00
2316,14	378,00
2320,75	499,00
2325,37	337,00
2329,98	412,00
2334,59	393,00
2339,19	467,00
2343,79	347,00
2348,38	381,00
2352,97	418,00
2357,55	353,00
2362,13	436,00
2366,71	289,00
2371,28	286,00
2375,85	344,00
2380,41	436,00
2384,97	382,00
2389,52	264,00
2394,07	376,00
2398,62	289,00
2403,16	443,00
2407,70	332,00
2412,23	416,00
2416,76	339,00
2421,29	370,00
2425,81	425,00
2430,32	407,00
2434,84	340,00
2439,34	377,00
2443,85	325,00
2448,35	495,00
2452,84	366,00
2457,33	366,00
2461,82	339,00
2466,30	316,00
2470,78	357,00
2475,25	221,00
2479,72	419,00
2484,19	411,00
2488,65	338,00
2493,11	344,00
2497,56	278,00
2502,01	299,00
2506,46	315,00
2510,90	372,00
2515,34	309,00
2519,77	413,00
2524,20	299,00
2528,62	389,00
2533,04	336,00
2537,46	413,00
2541,87	278,00
2546,28	398,00
2550,68	336,00
2555,08	352,00
2559,48	347,00
2563,87	389,00
2568,26	304,00
2572,64	301,00
2577,02	348,00
2581,40	380,00
2585,77	365,00
2590,14	269,00
2594,50	336,00
2598,86	327,00
2603,22	296,00
2607,57	249,00
2611,92	348,00
2616,26	437,00
2620,60	439,00
2624,94	337,00
2629,27	355,00
2633,60	343,00
2637,92	312,00
2642,24	277,00
2646,56	292,00
2650,87	375,00
2655,18	394,00
2659,48	177,00
2663,78	356,00
2668,08	382,00
2672,37	481,00
2676,66	397,00
2680,95	406,00
2685,23	344,00
2689,50	345,00
2693,78	343,00
2698,05	416,00
2702,31	379,00
2706,57	346,00
2710,83	414,00
2715,08	476,00
2719,33	467,00
2723,58	474,00
2727,82	472,00
2732,06	425,00
2736,29	569,00
2740,53	556,00
2744,75	436,00
2748,97	469,00
2753,19	466,00
2757,41	362,00
2761,62	425,00
2765,83	366,00
2770,03	420,00
2774,23	448,00
2778,43	449,00
2782,62	603,00
2786,81	409,00
2791,00	475,00
2795,18	449,00
2799,35	538,00
2803,53	512,00
2807,70	604,00
2811,86	535,00
2816,03	701,00
2820,19	718,00
2824,34	700,00
2828,49	736,00
2832,64	1023,00
2836,78	1229,00
2840,92	1480,00
2845,06	1719,00
2849,19	1943,00
2853,32	2029,00
2857,45	2094,00
2861,57	1972,00
2865,69	1805,00
2869,80	1769,00
2873,91	1882,00
2878,02	1929,00
2882,12	2197,00
2886,22	2236,00
2890,32	1936,00
2894,41	1879,00
2898,50	1682,00
2902,58	1643,00
2906,67	1521,00
2910,74	1287,00
2914,82	1296,00
2918,89	1179,00
2922,96	1045,00
2927,02	1005,00
2931,08	988,00
2935,13	986,00
2939,19	942,00
2943,24	592,00
2947,28	714,00
2951,32	651,00
2955,36	532,00
2959,40	463,00
2963,43	409,00
2967,46	577,00
2971,48	335,00
2975,50	444,00
2979,52	403,00
2983,53	254,00
2987,54	393,00
2991,55	315,00
2995,55	285,00
2999,55	365,00
3003,54	341,00
3007,54	269,00
3011,53	205,00
3015,51	257,00
3019,49	126,00
3023,47	255,00
3027,45	286,00
3031,42	268,00
3035,39	299,00
3039,35	229,00
3043,31	239,00
3047,27	156,00
3051,22	224,00
3055,17	268,00
3059,12	134,00
3063,06	170,00
3067,00	244,00
3070,94	224,00
3074,87	173,00
3078,80	206,00
3082,73	210,00
3086,65	81,00
3090,57	182,00
3094,49	243,00
3098,40	239,00
3102,31	113,00
3106,22	201,00
3110,12	204,00
3114,02	78,00
3117,92	213,00
3121,81	256,00
3125,70	67,00
3129,58	112,00
3133,47	44,00
3137,34	106,00
3141,22	271,00
3145,09	199,00
3148,96	154,00
3152,83	200,00
3156,69	116,00
3160,55	107,00
3164,40	184,00
3168,26	107,00
3172,10	210,00
3175,95	191,00
3179,79	39,00
3183,63	114,00
3187,47	202,00
3191,30	85,00
3195,13	221,00
3198,95	101,00
3202,78	187,00
3206,60	245,00
3210,41	150,00
3214,23	23,00
3218,03	200,00
3221,84	7,00
3225,64	125,00
3229,44	199,00
3233,24	69,00
3237,03	136,00
3240,82	116,00
3244,61	106,00
3248,39	100,00
3252,17	166,00
3255,95	81,00
3259,72	192,00
3263,49	50,00
3267,26	171,00
3271,03	125,00
3274,79	82,00
3278,54	62,00
3282,30	128,00
3286,05	35,00
3289,80	39,00
3293,54	29,00
3297,29	109,00
3301,02	132,00
3304,76	113,00
3308,49	113,00
3312,22	68,00
3315,95	18,00
3319,67	207,00
3323,39	90,00
3327,10	72,00
3330,82	48,00
3334,53	83,00
3338,24	119,00
3341,94	88,00
3345,64	151,00
3349,34	16,00
3353,03	68,00
3356,72	187,00
3360,41	64,00
3364,10	205,00
3367,78	13,00
3371,46	98,00
3375,13	82,00
3378,81	41,00
3382,48	110,00
3386,14	-5,00
3389,81	106,00
3393,47	138,00
3397,12	-45,00
3400,78	17,00
3404,43	345,00
3408,08	135,00
3411,72	188,00
3415,36	162,00
3419,00	251,00
3422,64	23,00
3426,27	105,00
3429,90	79,00
3433,53	51,00
3437,15	36,00
3440,77	101,00
3444,39	149,00
3448,00	-109,00
3451,62	88,00
3455,22	105,00
3458,83	115,00
3462,43	56,00
3466,03	-58,00
3469,63	71,00
3473,22	116,00
3476,81	146,00
3480,40	-80,00
3483,99	24,00
3487,57	41,00
3491,15	72,00
3494,72	111,00
3498,29	53,00
3501,86	-42,00
3505,43	-13,00
3508,99	80,00
3512,56	121,00
3516,11	140,00
3519,67	41,00
3523,22	-55,00
3526,77	68,00
3530,32	89,00
3533,86	69,00
3537,40	84,00
3540,94	-45,00
3544,47	25,00
3548,00	144,00
3551,53	-41,00
3555,06	121,00
3558,58	52,00
3562,10	169,00
3565,62	161,00
3569,13	19,00
3572,64	16,00
3576,15	53,00
3579,66	-37,00
3583,16	22,00
3586,66	43,00
3590,16	76,00
3593,65	152,00
3597,14	-14,00
3600,63	150,00
3604,11	2,00
3607,60	67,00
3611,08	121,00
3614,55	-27,00
3618,03	34,00
3621,50	54,00
3624,97	47,00
3628,43	86,00
3631,90	-70,00
3635,36	128,00
3638,81	55,00
3642,27	41,00
3645,72	51,00
3649,17	56,00
3652,61	-51,00
3656,06	95,00
3659,50	-4,00
3662,93	-17,00
3666,37	-64,00
3669,80	24,00
3673,23	60,00
3676,65	161,00
3680,08	54,00
3683,50	29,00
3686,92	64,00
3690,33	49,00
3693,74	-13,00
3697,15	149,00
3700,56	59,00
3703,96	-6,00
3707,36	45,00
3710,76	-22,00
3714,16	101,00
3717,55	9,00
3720,94	116,00
3724,33	11,00
3727,71	-16,00
3731,10	70,00
3734,48	68,00
3737,85	11,00
3741,23	3,00
3744,60	100,00
3747,97	107,00
3751,33	-32,00
3754,69	20,00
3758,05	119,00
3761,41	-50,00
3764,77	32,00
3768,12	126,00
3771,47	4,00
3774,82	-88,00
3778,16	-3,00
3781,50	-3,00
3784,84	0,00
3788,18	10,00
>>>>>End Processed Spectral Data<<<<<
