SpectraSuite Data File
++++++++++++++++++++++++++++++++++++
Date: Tue Mar 03 12:48:58 ICT 2026
User: user
Dark Spectrum Present: Yes
Reference Spectrum Present: No
Number of Sampled Component Spectra: 1
Spectrometers: MAYP113682
Integration Time (usec): 3000000 (MAYP113682)
Spectra Averaged: 1 (MAYP113682)
Boxcar Smoothing: 0 (MAYP113682)
Correct for Electrical Dark: No (MAYP113682)
Strobe/Lamp Enabled: No (MAYP113682)
Correct for Detector Non-linearity: No (MAYP113682)
Correct for Stray Light: No (MAYP113682)
Number of Pixels in Processed Spectrum: 2068
>>>>>Begin Processed Spectral Data<<<<<
-37534,58	7,00
-37414,56	-2,00
-37295,11	0,00
-37176,24	-5,00
-37057,95	99,00
-36940,22	127,00
-36823,05	52,00
-36706,45	190,00
-36590,40	196,00
-36474,90	95,00
-36359,95	119,00
-36245,55	305,00
-36131,68	182,00
-36018,35	85,00
-35905,55	128,00
-35793,29	126,00
-35681,54	319,00
-35570,32	19,00
-35459,62	167,00
-35349,43	233,00
-35239,75	262,00
-35130,58	106,00
-35021,91	240,00
-34913,74	178,00
-34806,07	226,00
-34698,89	152,00
-34592,20	45,00
-34486,00	176,00
-34380,28	68,00
-34275,04	185,00
-34170,27	20,00
-34065,98	116,00
-33962,16	92,00
-33858,81	131,00
-33755,92	216,00
-33653,49	172,00
-33551,52	258,00
-33450,01	168,00
-33348,94	196,00
-33248,33	197,00
-33148,16	262,00
-33048,43	190,00
-32949,14	148,00
-32850,29	229,00
-32751,87	225,00
-32653,89	238,00
-32556,33	224,00
-32459,20	76,00
-32362,49	137,00
-32266,19	117,00
-32170,32	138,00
-32074,86	120,00
-31979,82	108,00
-31885,18	74,00
-31790,95	108,00
-31697,12	194,00
-31603,69	143,00
-31510,67	208,00
-31418,04	104,00
-31325,80	190,00
-31233,95	207,00
-31142,49	188,00
-31051,42	197,00
-30960,73	116,00
-30870,43	201,00
-30780,50	197,00
-30690,95	156,00
-30601,77	119,00
-30512,97	213,00
-30424,53	248,00
-30336,46	181,00
-30248,76	88,00
-30161,42	171,00
-30074,44	138,00
-29987,81	230,00
-29901,55	165,00
-29815,63	49,00
-29730,07	24,00
-29644,86	67,00
-29560,00	193,00
-29475,48	107,00
-29391,30	180,00
-29307,47	207,00
-29223,97	203,00
-29140,81	59,00
-29057,99	230,00
-28975,50	336,00
-28893,34	203,00
-28811,51	154,00
-28730,00	305,00
-28648,82	96,00
-28567,97	141,00
-28487,43	94,00
-28407,21	86,00
-28327,32	121,00
-28247,73	99,00
-28168,46	153,00
-28089,50	230,00
-28010,85	94,00
-27932,51	101,00
-27854,48	181,00
-27776,75	111,00
-27699,32	163,00
-27622,19	236,00
-27545,37	184,00
-27468,84	84,00
-27392,60	147,00
-27316,66	157,00
-27241,01	88,00
-27165,66	174,00
-27090,59	120,00
-27015,81	246,00
-26941,31	254,00
-26867,10	209,00
-26793,17	157,00
-26719,52	54,00
-26646,15	165,00
-26573,06	316,00
-26500,24	163,00
-26427,70	176,00
-26355,43	207,00
-26283,43	142,00
-26211,71	207,00
-26140,25	146,00
-26069,06	204,00
-25998,13	108,00
-25927,46	45,00
-25857,06	166,00
-25786,92	135,00
-25717,04	64,00
-25647,42	234,00
-25578,05	177,00
-25508,94	78,00
-25440,09	121,00
-25371,48	286,00
-25303,13	134,00
-25235,02	112,00
-25167,17	94,00
-25099,56	161,00
-25032,19	152,00
-24965,07	185,00
-24898,20	81,00
-24831,56	189,00
-24765,17	103,00
-24699,01	206,00
-24633,10	253,00
-24567,41	166,00
-24501,97	199,00
-24436,75	51,00
-24371,77	197,00
-24307,03	112,00
-24242,51	201,00
-24178,22	203,00
-24114,16	190,00
-24050,32	139,00
-23986,71	96,00
-23923,32	222,00
-23860,16	142,00
-23797,22	223,00
-23734,50	136,00
-23672,00	201,00
-23609,71	265,00
-23547,65	65,00
-23485,80	205,00
-23424,16	132,00
-23362,74	175,00
-23301,53	90,00
-23240,54	227,00
-23179,75	162,00
-23119,17	227,00
-23058,80	347,00
-22998,64	182,00
-22938,68	178,00
-22878,93	119,00
-22819,39	164,00
-22760,04	-31,00
-22700,90	42,00
-22641,96	36,00
-22583,22	166,00
-22524,68	163,00
-22466,33	191,00
-22408,19	108,00
-22350,23	192,00
-22292,48	222,00
-22234,92	77,00
-22177,55	249,00
-22120,37	152,00
-22063,38	59,00
-22006,58	238,00
-21949,98	119,00
-21893,56	215,00
-21837,33	120,00
-21781,28	171,00
-21725,42	259,00
-21669,74	200,00
-21614,25	109,00
-21558,94	122,00
-21503,81	256,00
-21448,86	55,00
-21394,10	132,00
-21339,51	237,00
-21285,10	135,00
-21230,86	88,00
-21176,81	274,00
-21122,93	221,00
-21069,22	212,00
-21015,69	200,00
-20962,33	207,00
-20909,14	158,00
-20856,13	168,00
-20803,28	120,00
-20750,61	187,00
-20698,10	153,00
-20645,76	202,00
-20593,59	192,00
-20541,59	127,00
-20489,75	29,00
-20438,07	131,00
-20386,56	289,00
-20335,22	197,00
-20284,03	145,00
-20233,01	185,00
-20182,15	200,00
-20131,45	80,00
-20080,91	146,00
-20030,52	106,00
-19980,30	5,00
-19930,23	99,00
-19880,32	147,00
-19830,56	262,00
-19780,96	196,00
-19731,52	156,00
-19682,23	116,00
-19633,09	190,00
-19584,10	178,00
-19535,26	134,00
-19486,58	116,00
-19438,04	-24,00
-19389,66	104,00
-19341,42	106,00
-19293,33	136,00
-19245,39	135,00
-19197,60	180,00
-19149,95	200,00
-19102,45	92,00
-19055,09	154,00
-19007,87	399,00
-18960,80	217,00
-18913,87	315,00
-18867,09	69,00
-18820,44	214,00
-18773,94	184,00
-18727,57	118,00
-18681,35	209,00
-18635,26	245,00
-18589,31	236,00
-18543,50	203,00
-18497,83	112,00
-18452,29	83,00
-18406,89	223,00
-18361,63	198,00
-18316,50	163,00
-18271,50	88,00
-18226,63	168,00
-18181,90	252,00
-18137,30	216,00
-18092,84	134,00
-18048,50	211,00
-18004,29	105,00
-17960,22	314,00
-17916,27	158,00
-17872,45	204,00
-17828,76	184,00
-17785,20	67,00
-17741,77	78,00
-17698,46	137,00
-17655,28	133,00
-17612,22	86,00
-17569,29	171,00
-17526,48	96,00
-17483,79	27,00
-17441,23	-2,00
-17398,79	112,00
-17356,48	234,00
-17314,28	253,00
-17272,21	174,00
-17230,26	125,00
-17188,42	152,00
-17146,71	256,00
-17105,12	192,00
-17063,64	162,00
-17022,28	120,00
-16981,04	2,00
-16939,92	217,00
-16898,91	179,00
-16858,02	159,00
-16817,25	84,00
-16776,59	246,00
-16736,04	213,00
-16695,61	209,00
-16655,29	152,00
-16615,09	83,00
-16574,99	202,00
-16535,01	177,00
-16495,15	146,00
-16455,39	188,00
-16415,74	158,00
-16376,21	79,00
-16336,78	195,00
-16297,46	153,00
-16258,26	317,00
-16219,16	81,00
-16180,17	177,00
-16141,28	183,00
-16102,51	24,00
-16063,84	127,00
-16025,27	240,00
-15986,82	195,00
-15948,46	-15,00
-15910,22	192,00
-15872,07	157,00
-15834,04	152,00
-15796,10	145,00
-15758,27	262,00
-15720,54	156,00
-15682,91	146,00
-15645,39	107,00
-15607,97	121,00
-15570,64	214,00
-15533,42	51,00
-15496,30	180,00
-15459,28	159,00
-15422,36	129,00
-15385,54	207,00
-15348,82	288,00
-15312,19	79,00
-15275,66	41,00
-15239,23	123,00
-15202,90	98,00
-15166,67	151,00
-15130,53	241,00
-15094,48	136,00
-15058,54	225,00
-15022,68	210,00
-14986,93	155,00
-14951,26	154,00
-14915,69	73,00
-14880,22	61,00
-14844,84	67,00
-14809,55	89,00
-14774,35	128,00
-14739,25	260,00
-14704,24	44,00
-14669,32	45,00
-14634,49	224,00
-14599,75	217,00
-14565,10	274,00
-14530,55	69,00
-14496,08	298,00
-14461,70	220,00
-14427,41	68,00
-14393,21	44,00
-14359,10	92,00
-14325,07	248,00
-14291,14	260,00
-14257,29	166,00
-14223,52	176,00
-14189,85	150,00
-14156,26	177,00
-14122,76	78,00
-14089,34	144,00
-14056,01	234,00
-14022,76	56,00
-13989,60	254,00
-13956,52	117,00
-13923,53	115,00
-13890,62	134,00
-13857,79	235,00
-13825,05	144,00
-13792,39	243,00
-13759,81	312,00
-13727,31	55,00
-13694,90	131,00
-13662,57	204,00
-13630,31	202,00
-13598,14	112,00
-13566,05	162,00
-13534,05	69,00
-13502,12	236,00
-13470,27	215,00
-13438,50	52,00
-13406,80	341,00
-13375,19	188,00
-13343,66	94,00
-13312,20	97,00
-13280,83	241,00
-13249,53	188,00
-13218,30	154,00
-13187,16	36,00
-13156,09	57,00
-13125,10	273,00
-13094,18	193,00
-13063,34	123,00
-13032,58	149,00
-13001,89	119,00
-12971,28	187,00
-12940,74	145,00
-12910,27	98,00
-12879,88	128,00
-12849,57	251,00
-12819,33	240,00
-12789,16	140,00
-12759,06	188,00
-12729,04	108,00
-12699,09	-1327,00
-12669,21	189,00
-12639,41	107,00
-12609,68	88,00
-12580,02	72,00
-12550,43	196,00
-12520,91	82,00
-12491,46	99,00
-12462,08	97,00
-12432,77	222,00
-12403,54	18,00
-12374,37	95,00
-12345,27	62,00
-12316,24	145,00
-12287,29	180,00
-12258,40	186,00
-12229,57	281,00
-12200,82	76,00
-12172,14	208,00
-12143,52	70,00
-12114,97	194,00
-12086,49	112,00
-12058,07	204,00
-12029,73	-16,00
-12001,44	106,00
-11973,23	62,00
-11945,08	127,00
-11917,00	74,00
-11888,98	252,00
-11861,03	207,00
-11833,15	225,00
-11805,32	164,00
-11777,57	179,00
-11749,88	206,00
-11722,25	144,00
-11694,69	210,00
-11667,19	101,00
-11639,75	75,00
-11612,38	148,00
-11585,07	75,00
-11557,83	123,00
-11530,65	82,00
-11503,53	249,00
-11476,47	228,00
-11449,48	269,00
-11422,54	232,00
-11395,67	244,00
-11368,86	96,00
-11342,11	103,00
-11315,43	159,00
-11288,80	260,00
-11262,23	235,00
-11235,73	198,00
-11209,28	116,00
-11182,90	163,00
-11156,57	171,00
-11130,31	208,00
-11104,10	71,00
-11077,96	159,00
-11051,87	263,00
-11025,84	275,00
-10999,87	143,00
-10973,96	136,00
-10948,11	53,00
-10922,31	73,00
-10896,58	303,00
-10870,90	150,00
-10845,28	222,00
-10819,71	77,00
-10794,20	122,00
-10768,75	267,00
-10743,36	233,00
-10718,02	166,00
-10692,74	128,00
-10667,52	130,00
-10642,35	164,00
-10617,24	360,00
-10592,18	217,00
-10567,18	238,00
-10542,23	245,00
-10517,34	341,00
-10492,51	195,00
-10467,72	305,00
-10443,00	323,00
-10418,32	227,00
-10393,70	263,00
-10369,14	260,00
-10344,63	336,00
-10320,17	228,00
-10295,77	262,00
-10271,42	328,00
-10247,12	285,00
-10222,88	424,00
-10198,68	344,00
-10174,54	285,00
-10150,46	420,00
-10126,42	247,00
-10102,44	371,00
-10078,51	392,00
-10054,63	550,00
-10030,80	441,00
-10007,03	323,00
-9983,30	491,00
-9959,63	463,00
-9936,01	578,00
-9912,44	613,00
-9888,92	449,00
-9865,44	488,00
-9842,02	509,00
-9818,65	560,00
-9795,33	471,00
-9772,06	612,00
-9748,84	612,00
-9725,67	693,00
-9702,55	754,00
-9679,47	877,00
-9656,45	851,00
-9633,47	975,00
-9610,55	1023,00
-9587,67	982,00
-9564,84	1051,00
-9542,06	1080,00
-9519,32	1300,00
-9496,64	1322,00
-9474,00	1444,00
-9451,41	1433,00
-9428,87	1479,00
-9406,37	1503,00
-9383,92	1337,00
-9361,52	1278,00
-9339,17	1208,00
-9316,86	1483,00
-9294,60	1589,00
-9272,38	1786,00
-9250,21	1751,00
-9228,09	1899,00
-9206,01	1750,00
-9183,98	1692,00
-9162,00	1488,00
-9140,06	1403,00
-9118,16	1302,00
-9096,31	1472,00
-9074,51	1447,00
-9052,75	1353,00
-9031,04	1470,00
-9009,37	1304,00
-8987,74	1222,00
-8966,16	1063,00
-8944,63	876,00
-8923,14	649,00
-8901,69	966,00
-8880,29	956,00
-8858,93	1101,00
-8837,61	1328,00
-8816,34	1414,00
-8795,11	1397,00
-8773,92	1402,00
-8752,78	1061,00
-8731,68	920,00
-8710,62	1115,00
-8689,61	1177,00
-8668,63	1135,00
-8647,70	1311,00
-8626,82	1286,00
-8605,97	1188,00
-8585,17	1330,00
-8564,41	1015,00
-8543,69	1194,00
-8523,01	853,00
-8502,37	1020,00
-8481,78	981,00
-8461,23	987,00
-8440,71	1030,00
-8420,24	1129,00
-8399,81	1181,00
-8379,42	1400,00
-8359,08	1090,00
-8338,77	853,00
-8318,50	1052,00
-8298,27	923,00
-8278,09	1126,00
-8257,94	930,00
-8237,83	1118,00
-8217,76	1156,00
-8197,74	1202,00
-8177,75	1208,00
-8157,80	921,00
-8137,89	954,00
-8118,02	1010,00
-8098,19	902,00
-8078,40	937,00
-8058,65	935,00
-8038,93	1108,00
-8019,26	880,00
-7999,62	935,00
-7980,02	967,00
-7960,46	948,00
-7940,94	832,00
-7921,46	910,00
-7902,01	907,00
-7882,60	821,00
-7863,23	880,00
-7843,90	956,00
-7824,61	998,00
-7805,35	959,00
-7786,13	1074,00
-7766,95	1016,00
-7747,80	777,00
-7728,69	1019,00
-7709,62	928,00
-7690,59	923,00
-7671,59	1003,00
-7652,63	1059,00
-7633,70	1073,00
-7614,81	1016,00
-7595,96	908,00
-7577,15	818,00
-7558,37	865,00
-7539,62	920,00
-7520,91	980,00
-7502,24	957,00
-7483,60	915,00
-7465,00	813,00
-7446,44	868,00
-7427,91	890,00
-7409,41	753,00
-7390,95	639,00
-7372,53	706,00
-7354,14	795,00
-7335,78	616,00
-7317,46	757,00
-7299,18	796,00
-7280,92	880,00
-7262,71	843,00
-7244,52	1035,00
-7226,38	976,00
-7208,26	849,00
-7190,18	1013,00
-7172,14	905,00
-7154,12	977,00
-7136,15	1105,00
-7118,20	994,00
-7100,29	1014,00
-7082,41	1004,00
-7064,57	989,00
-7046,76	942,00
-7028,98	816,00
-7011,24	649,00
-6993,53	563,00
-6975,85	581,00
-6958,20	547,00
-6940,59	568,00
-6923,01	556,00
-6905,46	738,00
-6887,94	642,00
-6870,46	-2003,00
-6853,01	1054,00
-6835,59	1002,00
-6818,21	862,00
-6800,85	735,00
-6783,53	547,00
-6766,24	522,00
-6748,98	521,00
-6731,76	333,00
-6714,56	536,00
-6697,40	509,00
-6680,26	521,00
-6663,16	648,00
-6646,09	655,00
-6629,05	699,00
-6612,05	733,00
-6595,07	757,00
-6578,13	588,00
-6561,21	646,00
-6544,33	397,00
-6527,47	531,00
-6510,65	304,00
-6493,86	508,00
-6477,10	446,00
-6460,36	424,00
-6443,66	434,00
-6426,99	285,00
-6410,35	282,00
-6393,74	473,00
-6377,16	437,00
-6360,61	517,00
-6344,09	513,00
-6327,59	718,00
-6311,13	502,00
-6294,70	648,00
-6278,29	613,00
-6261,92	636,00
-6245,58	850,00
-6229,26	823,00
-6212,97	648,00
-6196,72	565,00
-6180,49	499,00
-6164,29	387,00
-6148,12	358,00
-6131,98	220,00
-6115,86	323,00
-6099,78	321,00
-6083,72	220,00
-6067,69	272,00
-6051,69	332,00
-6035,72	256,00
-6019,78	282,00
-6003,87	435,00
-5987,98	513,00
-5972,12	340,00
-5956,29	577,00
-5940,49	435,00
-5924,71	405,00
-5908,96	343,00
-5893,24	345,00
-5877,55	291,00
-5861,89	349,00
-5846,25	247,00
-5830,64	334,00
-5815,05	226,00
-5799,50	168,00
-5783,97	269,00
-5768,47	374,00
-5752,99	371,00
-5737,55	588,00
-5722,12	521,00
-5706,73	528,00
-5691,36	485,00
-5676,02	337,00
-5660,71	288,00
-5645,42	206,00
-5630,16	324,00
-5614,92	339,00
-5599,71	307,00
-5584,53	394,00
-5569,37	428,00
-5554,24	1393,00
-5539,14	321,00
-5524,06	299,00
-5509,01	448,00
-5493,98	443,00
-5478,98	254,00
-5464,00	379,00
-5449,05	310,00
-5434,13	315,00
-5419,23	301,00
-5404,36	241,00
-5389,51	341,00
-5374,69	465,00
-5359,89	685,00
-5345,12	643,00
-5330,37	556,00
-5315,65	395,00
-5300,95	435,00
-5286,28	358,00
-5271,63	304,00
-5257,01	446,00
-5242,41	500,00
-5227,84	346,00
-5213,29	343,00
-5198,76	112,00
-5184,26	255,00
-5169,79	328,00
-5155,33	253,00
-5140,91	346,00
-5126,51	464,00
-5112,13	340,00
-5097,77	464,00
-5083,44	396,00
-5069,13	123,00
-5054,85	293,00
-5040,59	328,00
-5026,36	383,00
-5012,15	452,00
-4997,96	398,00
-4983,80	344,00
-4969,66	255,00
-4955,54	374,00
-4941,44	274,00
-4927,37	478,00
-4913,33	409,00
-4899,30	505,00
-4885,30	569,00
-4871,33	365,00
-4857,37	305,00
-4843,44	84,00
-4829,53	220,00
-4815,65	456,00
-4801,79	174,00
-4787,95	234,00
-4774,13	288,00
-4760,34	362,00
-4746,56	151,00
-4732,82	276,00
-4719,09	312,00
-4705,38	527,00
-4691,70	498,00
-4678,04	615,00
-4664,41	365,00
-4650,79	382,00
-4637,20	316,00
-4623,63	268,00
-4610,08	314,00
-4596,56	381,00
-4583,05	370,00
-4569,57	394,00
-4556,11	24,00
-4542,67	88,00
-4529,25	292,00
-4515,86	347,00
-4502,49	401,00
-4489,13	433,00
-4475,80	356,00
-4462,49	302,00
-4449,21	270,00
-4435,94	236,00
-4422,70	254,00
-4409,47	291,00
-4396,27	293,00
-4383,09	234,00
-4369,93	227,00
-4356,79	228,00
-4343,67	355,00
-4330,58	245,00
-4317,50	313,00
-4304,45	394,00
-4291,41	245,00
-4278,40	282,00
-4265,41	143,00
-4252,44	252,00
-4239,49	328,00
-4226,55	259,00
-4213,65	197,00
-4200,76	270,00
-4187,89	208,00
-4175,04	145,00
-4162,21	338,00
-4149,40	122,00
-4136,61	29,00
-4123,85	200,00
-4111,10	94,00
-4098,37	211,00
-4085,66	241,00
-4072,98	169,00
-4060,31	196,00
-4047,66	243,00
-4035,04	253,00
-4022,43	152,00
-4009,84	83,00
-3997,27	176,00
-3984,72	134,00
-3972,19	205,00
-3959,69	116,00
-3947,20	86,00
-3934,73	150,00
-3922,27	196,00
-3909,84	144,00
-3897,43	118,00
-3885,04	95,00
-3872,67	293,00
-3860,31	151,00
-3847,98	274,00
-3835,66	71,00
-3823,36	200,00
-3811,09	153,00
-3798,83	276,00
-3786,59	180,00
-3774,37	188,00
-3762,17	97,00
-3749,98	73,00
-3737,82	214,00
-3725,67	228,00
-3713,55	17,00
-3701,44	271,00
-3689,35	212,00
-3677,28	92,00
-3665,22	165,00
-3653,19	161,00
-3641,17	146,00
-3629,18	224,00
-3617,20	196,00
-3605,24	38,00
-3593,30	130,00
-3581,37	224,00
-3569,47	281,00
-3557,58	170,00
-3545,71	237,00
-3533,86	160,00
-3522,02	328,00
-3510,21	138,00
-3498,41	214,00
-3486,63	218,00
-3474,87	198,00
-3463,12	181,00
-3451,40	144,00
-3439,69	229,00
-3428,00	206,00
-3416,33	160,00
-3404,67	54,00
-3393,03	136,00
-3381,41	261,00
-3369,81	120,00
-3358,22	164,00
-3346,66	253,00
-3335,10	137,00
-3323,57	249,00
-3312,06	162,00
-3300,56	103,00
-3289,08	116,00
-3277,61	95,00
-3266,16	81,00
-3254,73	124,00
-3243,32	159,00
-3231,92	-8,00
-3220,55	109,00
-3209,18	20,00
-3197,84	288,00
-3186,51	67,00
-3175,20	98,00
-3163,90	304,00
-3152,63	80,00
-3141,36	192,00
-3130,12	126,00
-3118,89	100,00
-3107,68	161,00
-3096,49	262,00
-3085,31	231,00
-3074,15	287,00
-3063,00	173,00
-3051,87	166,00
-3040,76	230,00
-3029,67	161,00
-3018,59	97,00
-3007,52	303,00
-2996,48	118,00
-2985,44	158,00
-2974,43	436,00
-2963,43	84,00
-2952,45	116,00
-2941,48	211,00
-2930,53	165,00
-2919,60	88,00
-2908,68	174,00
-2897,78	244,00
-2886,89	85,00
-2876,02	148,00
-2865,17	28,00
-2854,33	78,00
-2843,50	201,00
-2832,70	178,00
-2821,90	169,00
-2811,13	68,00
-2800,37	126,00
-2789,62	241,00
-2778,89	221,00
-2768,18	240,00
-2757,48	257,00
-2746,80	233,00
-2736,13	59,00
-2725,48	190,00
-2714,84	106,00
-2704,22	124,00
-2693,61	362,00
-2683,02	275,00
-2672,45	83,00
-2661,89	226,00
-2651,34	144,00
-2640,81	7,00
-2630,30	115,00
-2619,80	172,00
-2609,31	90,00
-2598,84	168,00
-2588,39	235,00
-2577,95	108,00
-2567,52	168,00
-2557,11	191,00
-2546,71	175,00
-2536,33	126,00
-2525,97	157,00
-2515,62	174,00
-2505,28	141,00
-2494,96	251,00
-2484,65	94,00
-2474,36	167,00
-2464,08	128,00
-2453,82	120,00
-2443,57	23,00
-2433,33	202,00
-2423,11	129,00
-2412,91	129,00
-2402,72	168,00
-2392,54	193,00
-2382,38	168,00
-2372,23	144,00
-2362,09	241,00
-2351,97	211,00
-2341,87	110,00
-2331,78	137,00
-2321,70	211,00
-2311,64	137,00
-2301,59	174,00
-2291,55	226,00
-2281,53	121,00
-2271,53	275,00
-2261,53	89,00
-2251,55	70,00
-2241,59	123,00
-2231,64	153,00
-2221,70	267,00
-2211,78	150,00
-2201,87	228,00
-2191,97	66,00
-2182,09	139,00
-2172,22	275,00
-2162,37	263,00
-2152,53	93,00
-2142,70	196,00
-2132,89	171,00
-2123,09	146,00
-2113,30	201,00
-2103,53	183,00
-2093,77	86,00
-2084,02	184,00
-2074,29	250,00
-2064,57	92,00
-2054,86	130,00
-2045,17	208,00
-2035,49	186,00
-2025,82	235,00
-2016,17	151,00
-2006,53	185,00
-1996,91	153,00
-1987,29	35,00
-1977,69	260,00
-1968,11	128,00
-1958,53	225,00
-1948,97	190,00
-1939,42	255,00
-1929,89	164,00
-1920,37	318,00
-1910,86	134,00
-1901,36	261,00
-1891,88	147,00
-1882,41	111,00
-1872,95	358,00
-1863,51	125,00
-1854,08	31,00
-1844,66	186,00
-1835,26	192,00
-1825,86	112,00
-1816,48	233,00
-1807,11	197,00
-1797,76	184,00
-1788,42	179,00
-1779,09	113,00
-1769,77	206,00
-1760,47	78,00
-1751,17	99,00
-1741,89	97,00
-1732,63	154,00
-1723,37	145,00
-1714,13	103,00
-1704,90	58,00
-1695,68	237,00
-1686,48	202,00
-1677,29	113,00
-1668,11	320,00
-1658,94	192,00
-1649,78	87,00
-1640,64	192,00
-1631,51	145,00
-1622,39	220,00
-1613,28	97,00
-1604,19	230,00
-1595,10	147,00
-1586,03	241,00
-1576,97	169,00
-1567,93	144,00
-1558,89	57,00
-1549,87	182,00
-1540,86	170,00
-1531,86	112,00
-1522,87	81,00
-1513,90	262,00
-1504,93	176,00
-1495,98	119,00
-1487,04	141,00
-1478,12	199,00
-1469,20	193,00
-1460,30	221,00
-1451,40	330,00
-1442,52	155,00
-1433,65	114,00
-1424,80	130,00
-1415,95	236,00
-1407,12	302,00
-1398,30	99,00
-1389,48	186,00
-1380,69	118,00
-1371,90	160,00
-1363,12	137,00
-1354,36	231,00
-1345,60	273,00
-1336,86	228,00
-1328,13	173,00
-1319,41	146,00
-1310,70	315,00
-1302,01	216,00
-1293,32	226,00
-1284,65	216,00
-1275,99	206,00
-1267,33	84,00
-1258,69	141,00
-1250,06	260,00
-1241,45	237,00
-1232,84	216,00
-1224,25	87,00
-1215,66	97,00
-1207,09	32,00
-1198,53	174,00
-1189,97	89,00
-1181,43	194,00
-1172,91	146,00
-1164,39	261,00
-1155,88	219,00
-1147,38	118,00
-1138,90	265,00
-1130,43	131,00
-1121,96	232,00
-1113,51	196,00
-1105,07	158,00
-1096,64	182,00
-1088,22	274,00
-1079,81	168,00
-1071,41	272,00
-1063,02	118,00
-1054,65	225,00
-1046,28	200,00
-1037,92	166,00
-1029,58	186,00
-1021,24	-4,00
-1012,92	287,00
-1004,61	226,00
-996,30	213,00
-988,01	88,00
-979,73	301,00
-971,46	184,00
-963,20	130,00
-954,95	162,00
-946,71	78,00
-938,48	193,00
-930,26	95,00
-922,06	127,00
-913,86	271,00
-905,67	215,00
-897,49	185,00
-889,33	212,00
-881,17	269,00
-873,02	233,00
-864,89	-3,00
-856,76	99,00
-848,65	182,00
-840,54	176,00
-832,45	262,00
-824,36	179,00
-816,29	227,00
-808,22	127,00
-800,17	308,00
-792,12	79,00
-784,09	125,00
-776,06	191,00
-768,05	97,00
-760,04	138,00
-752,05	92,00
-744,07	221,00
-736,09	144,00
-728,13	244,00
-720,17	210,00
-712,23	238,00
-704,29	58,00
-696,37	89,00
-688,45	189,00
-680,55	128,00
-672,65	280,00
-664,77	166,00
-656,89	113,00
-649,03	222,00
-641,17	160,00
-633,32	228,00
-625,49	207,00
-617,66	175,00
-609,84	136,00
-602,03	146,00
-594,23	286,00
-586,45	71,00
-578,67	251,00
-570,90	131,00
-563,14	195,00
-555,39	203,00
-547,65	270,00
-539,91	130,00
-532,19	238,00
-524,48	157,00
-516,78	216,00
-509,08	142,00
-501,40	175,00
-493,72	117,00
-486,06	64,00
-478,40	252,00
-470,76	133,00
-463,12	126,00
-455,49	251,00
-447,87	98,00
-440,26	149,00
-432,66	126,00
-425,07	205,00
-417,49	168,00
-409,92	256,00
-402,35	118,00
-394,80	223,00
-387,25	151,00
-379,72	133,00
-372,19	241,00
-364,67	491,00
-357,17	138,00
-349,67	161,00
-342,18	198,00
-334,69	297,00
-327,22	209,00
-319,76	46,00
-312,30	198,00
-304,86	232,00
-297,42	209,00
-290,00	332,00
-282,58	135,00
-275,17	160,00
-267,77	215,00
-260,37	233,00
-252,99	213,00
-245,62	249,00
-238,25	83,00
-230,90	244,00
-223,55	372,00
-216,21	288,00
-208,88	301,00
-201,56	277,00
-194,25	328,00
-186,94	270,00
-179,65	343,00
-172,36	203,00
-165,08	323,00
-157,81	338,00
-150,55	263,00
-143,30	498,00
-136,06	323,00
-128,82	313,00
-121,60	671,00
-114,38	366,00
-107,17	398,00
-99,97	490,00
-92,78	564,00
-85,60	707,00
-78,42	779,00
-71,25	811,00
-64,10	1038,00
-56,95	1209,00
-49,81	1317,00
-42,67	1612,00
-35,55	1911,00
-28,43	2663,00
-21,33	4604,00
-14,23	15119,00
-7,14	47266,00
-0,05	38051,00
7,02	42597,00
14,09	41397,00
21,14	10955,00
28,19	4880,00
35,23	3259,00
42,27	2449,00
49,29	2220,00
56,31	1619,00
63,32	1451,00
70,32	1266,00
77,31	1093,00
84,29	856,00
91,27	852,00
98,23	840,00
105,19	761,00
112,14	777,00
119,09	1181,00
126,02	1551,00
132,95	1787,00
139,87	1681,00
146,78	1640,00
153,68	1646,00
160,58	1721,00
167,46	1691,00
174,34	1745,00
181,21	1564,00
188,08	1557,00
194,93	1616,00
201,78	1687,00
208,62	1637,00
215,45	1519,00
222,27	1616,00
229,09	1554,00
235,90	1606,00
242,70	1524,00
249,49	1556,00
256,27	1516,00
263,05	1341,00
269,82	1355,00
276,58	1491,00
283,33	1472,00
290,08	1553,00
296,82	1320,00
303,55	1263,00
310,27	1327,00
316,98	1329,00
323,69	1448,00
330,39	1423,00
337,08	1313,00
343,76	1235,00
350,44	1312,00
357,11	1186,00
363,77	1381,00
370,42	1390,00
377,07	1320,00
383,71	1325,00
390,34	1330,00
396,96	1324,00
403,58	1154,00
410,19	1304,00
416,79	1188,00
423,38	1214,00
429,97	1263,00
436,55	1225,00
443,12	1199,00
449,68	1297,00
456,24	1179,00
462,79	1230,00
469,33	1062,00
475,86	1316,00
482,39	1151,00
488,91	1053,00
495,42	1054,00
501,93	1180,00
508,42	1192,00
514,91	1222,00
521,40	1127,00
527,87	1151,00
534,34	1071,00
540,80	1203,00
547,25	1077,00
553,70	1227,00
560,14	1103,00
566,57	1006,00
573,00	1035,00
579,41	1042,00
585,83	1101,00
592,23	1070,00
598,62	955,00
605,01	988,00
611,40	958,00
617,77	1065,00
624,14	994,00
630,50	1114,00
636,85	920,00
643,20	922,00
649,54	966,00
655,87	990,00
662,20	1076,00
668,52	1015,00
674,83	924,00
681,13	1053,00
687,43	1026,00
693,72	901,00
700,00	989,00
706,28	1032,00
712,55	977,00
718,81	1074,00
725,07	1014,00
731,32	887,00
737,56	1171,00
743,79	996,00
750,02	1047,00
756,24	1053,00
762,46	970,00
768,67	1099,00
774,87	977,00
781,06	959,00
787,25	966,00
793,43	963,00
799,60	1019,00
805,77	1011,00
811,93	950,00
818,08	1040,00
824,23	988,00
830,37	979,00
836,50	920,00
842,63	1090,00
848,75	983,00
854,87	1032,00
860,97	983,00
867,07	1151,00
873,17	1027,00
879,25	960,00
885,33	1136,00
891,41	941,00
897,47	964,00
903,53	832,00
909,59	993,00
915,63	1177,00
921,67	900,00
927,71	986,00
933,74	955,00
939,76	932,00
945,77	1033,00
951,78	1053,00
957,78	892,00
963,78	857,00
969,77	759,00
975,75	869,00
981,72	865,00
987,69	1333,00
993,66	981,00
999,61	879,00
1005,56	1025,00
1011,51	1073,00
1017,44	920,00
1023,37	907,00
1029,30	890,00
1035,22	905,00
1041,13	1108,00
1047,03	959,00
1052,93	1356,00
1058,83	1750,00
1064,71	1933,00
1070,59	1563,00
1076,47	1236,00
1082,33	1209,00
1088,20	1157,00
1094,05	1079,00
1099,90	1010,00
1105,74	1120,00
1111,58	1056,00
1117,41	1135,00
1123,23	1469,00
1129,05	1834,00
1134,86	1712,00
1140,67	1320,00
1146,47	1107,00
1152,26	991,00
1158,05	930,00
1163,83	1017,00
1169,60	1042,00
1175,37	1122,00
1181,13	863,00
1186,89	958,00
1192,64	923,00
1198,38	903,00
1204,12	959,00
1209,85	786,00
1215,58	887,00
1221,30	961,00
1227,02	966,00
1232,72	933,00
1238,43	882,00
1244,12	1017,00
1249,81	1060,00
1255,50	1076,00
1261,17	1055,00
1266,85	1103,00
1272,51	1190,00
1278,17	1227,00
1283,83	1227,00
1289,47	2000,00
1295,12	2346,00
1300,75	2044,00
1306,38	1640,00
1312,01	1371,00
1317,63	1210,00
1323,24	1241,00
1328,85	1144,00
1334,45	1160,00
1340,04	977,00
1345,63	1176,00
1351,22	1116,00
1356,80	999,00
1362,37	1135,00
1367,93	1241,00
1373,49	1194,00
1379,05	1224,00
1384,60	1053,00
1390,14	1186,00
1395,68	1173,00
1401,21	1163,00
1406,74	1197,00
1412,26	1456,00
1417,77	1586,00
1423,28	1582,00
1428,78	1813,00
1434,28	2012,00
1439,77	2402,00
1445,26	2247,00
1450,74	2166,00
1456,22	1866,00
1461,68	1991,00
1467,15	1745,00
1472,61	1697,00
1478,06	1404,00
1483,51	1288,00
1488,95	1296,00
1494,38	1155,00
1499,81	994,00
1505,24	986,00
1510,65	930,00
1516,07	1010,00
1521,48	961,00
1526,88	1025,00
1532,27	980,00
1537,67	1073,00
1543,05	971,00
1548,43	748,00
1553,81	949,00
1559,18	983,00
1564,54	930,00
1569,90	858,00
1575,25	798,00
1580,60	992,00
1585,94	787,00
1591,28	921,00
1596,61	918,00
1601,93	880,00
1607,25	839,00
1612,57	916,00
1617,88	994,00
1623,18	965,00
1628,48	903,00
1633,77	843,00
1639,06	799,00
1644,34	936,00
1649,62	847,00
1654,89	780,00
1660,16	832,00
1665,42	822,00
1670,67	916,00
1675,92	772,00
1681,17	773,00
1686,41	832,00
1691,64	988,00
1696,87	790,00
1702,10	798,00
1707,32	722,00
1712,53	849,00
1717,74	832,00
1722,94	796,00
1728,14	844,00
1733,33	781,00
1738,52	913,00
1743,70	856,00
1748,88	779,00
1754,05	852,00
1759,22	728,00
1764,38	785,00
1769,53	796,00
1774,69	695,00
1779,83	809,00
1784,97	848,00
1790,11	791,00
1795,24	676,00
1800,36	864,00
1805,48	795,00
1810,60	857,00
1815,71	698,00
1820,82	807,00
1825,92	797,00
1831,01	749,00
1836,10	838,00
1841,19	879,00
1846,26	636,00
1851,34	815,00
1856,41	743,00
1861,47	758,00
1866,53	689,00
1871,59	766,00
1876,64	833,00
1881,68	805,00
1886,72	705,00
1891,76	599,00
1896,79	801,00
1901,81	716,00
1906,83	650,00
1911,85	642,00
1916,86	696,00
1921,86	616,00
1926,86	644,00
1931,86	866,00
1936,85	676,00
1941,83	711,00
1946,81	636,00
1951,79	796,00
1956,76	524,00
1961,72	749,00
1966,68	640,00
1971,64	659,00
1976,59	732,00
1981,54	552,00
1986,48	554,00
1991,42	517,00
1996,35	754,00
2001,27	524,00
2006,20	693,00
2011,11	765,00
2016,03	620,00
2020,93	813,00
2025,84	581,00
2030,73	687,00
2035,63	600,00
2040,52	645,00
2045,40	551,00
2050,28	618,00
2055,15	561,00
2060,02	669,00
2064,89	592,00
2069,75	616,00
2074,60	768,00
2079,46	608,00
2084,30	792,00
2089,14	577,00
2093,98	709,00
2098,81	609,00
2103,64	598,00
2108,46	658,00
2113,28	944,00
2118,09	854,00
2122,90	783,00
2127,70	632,00
2132,50	606,00
2137,30	718,00
2142,09	750,00
2146,87	613,00
2151,66	657,00
2156,43	636,00
2161,20	662,00
2165,97	620,00
2170,73	639,00
2175,49	627,00
2180,24	644,00
2184,99	663,00
2189,74	707,00
2194,48	605,00
2199,21	597,00
2203,94	626,00
2208,67	688,00
2213,39	522,00
2218,11	430,00
2222,82	655,00
2227,53	529,00
2232,23	601,00
2236,93	656,00
2241,63	661,00
2246,32	563,00
2251,00	552,00
2255,68	574,00
2260,36	683,00
2265,03	506,00
2269,70	539,00
2274,36	653,00
2279,02	528,00
2283,68	596,00
2288,33	611,00
2292,97	576,00
2297,61	641,00
2302,25	516,00
2306,88	546,00
2311,51	632,00
2316,14	543,00
2320,75	678,00
2325,37	505,00
2329,98	669,00
2334,59	494,00
2339,19	601,00
2343,79	463,00
2348,38	688,00
2352,97	538,00
2357,55	580,00
2362,13	638,00
2366,71	604,00
2371,28	505,00
2375,85	552,00
2380,41	633,00
2384,97	540,00
2389,52	436,00
2394,07	526,00
2398,62	411,00
2403,16	587,00
2407,70	481,00
2412,23	665,00
2416,76	528,00
2421,29	401,00
2425,81	746,00
2430,32	566,00
2434,84	524,00
2439,34	561,00
2443,85	480,00
2448,35	580,00
2452,84	498,00
2457,33	578,00
2461,82	499,00
2466,30	424,00
2470,78	527,00
2475,25	485,00
2479,72	461,00
2484,19	535,00
2488,65	600,00
2493,11	384,00
2497,56	404,00
2502,01	360,00
2506,46	508,00
2510,90	508,00
2515,34	443,00
2519,77	554,00
2524,20	585,00
2528,62	581,00
2533,04	577,00
2537,46	624,00
2541,87	467,00
2546,28	459,00
2550,68	496,00
2555,08	413,00
2559,48	563,00
2563,87	548,00
2568,26	466,00
2572,64	469,00
2577,02	549,00
2581,40	512,00
2585,77	486,00
2590,14	526,00
2594,50	496,00
2598,86	511,00
2603,22	391,00
2607,57	425,00
2611,92	528,00
2616,26	497,00
2620,60	568,00
2624,94	503,00
2629,27	651,00
2633,60	491,00
2637,92	492,00
2642,24	501,00
2646,56	596,00
2650,87	504,00
2655,18	615,00
2659,48	425,00
2663,78	452,00
2668,08	494,00
2672,37	592,00
2676,66	579,00
2680,95	590,00
2685,23	471,00
2689,50	592,00
2693,78	459,00
2698,05	500,00
2702,31	550,00
2706,57	561,00
2710,83	528,00
2715,08	490,00
2719,33	750,00
2723,58	681,00
2727,82	571,00
2732,06	628,00
2736,29	639,00
2740,53	647,00
2744,75	612,00
2748,97	576,00
2753,19	555,00
2757,41	442,00
2761,62	599,00
2765,83	582,00
2770,03	615,00
2774,23	565,00
2778,43	701,00
2782,62	663,00
2786,81	534,00
2791,00	589,00
2795,18	638,00
2799,35	642,00
2803,53	651,00
2807,70	798,00
2811,86	715,00
2816,03	718,00
2820,19	688,00
2824,34	889,00
2828,49	872,00
2832,64	1103,00
2836,78	1205,00
2840,92	1481,00
2845,06	1755,00
2849,19	1961,00
2853,32	2176,00
2857,45	2056,00
2861,57	1980,00
2865,69	1833,00
2869,80	1832,00
2873,91	1794,00
2878,02	2016,00
2882,12	2142,00
2886,22	2327,00
2890,32	2090,00
2894,41	1818,00
2898,50	1696,00
2902,58	1620,00
2906,67	1607,00
2910,74	1376,00
2914,82	1300,00
2918,89	1271,00
2922,96	1074,00
2927,02	1143,00
2931,08	1120,00
2935,13	977,00
2939,19	1021,00
2943,24	784,00
2947,28	687,00
2951,32	787,00
2955,36	599,00
2959,40	547,00
2963,43	634,00
2967,46	702,00
2971,48	492,00
2975,50	587,00
2979,52	473,00
2983,53	475,00
2987,54	491,00
2991,55	397,00
2995,55	388,00
2999,55	440,00
3003,54	459,00
3007,54	430,00
3011,53	509,00
3015,51	451,00
3019,49	192,00
3023,47	402,00
3027,45	443,00
3031,42	364,00
3035,39	316,00
3039,35	367,00
3043,31	323,00
3047,27	296,00
3051,22	309,00
3055,17	354,00
3059,12	243,00
3063,06	438,00
3067,00	298,00
3070,94	287,00
3074,87	442,00
3078,80	456,00
3082,73	309,00
3086,65	280,00
3090,57	249,00
3094,49	298,00
3098,40	376,00
3102,31	267,00
3106,22	243,00
3110,12	397,00
3114,02	287,00
3117,92	370,00
3121,81	360,00
3125,70	194,00
3129,58	303,00
3133,47	195,00
3137,34	257,00
3141,22	388,00
3145,09	341,00
3148,96	318,00
3152,83	284,00
3156,69	402,00
3160,55	228,00
3164,40	290,00
3168,26	79,00
3172,10	387,00
3175,95	334,00
3179,79	237,00
3183,63	215,00
3187,47	323,00
3191,30	229,00
3195,13	380,00
3198,95	231,00
3202,78	231,00
3206,60	296,00
3210,41	302,00
3214,23	267,00
3218,03	291,00
3221,84	208,00
3225,64	285,00
3229,44	297,00
3233,24	223,00
3237,03	352,00
3240,82	176,00
3244,61	151,00
3248,39	185,00
3252,17	338,00
3255,95	202,00
3259,72	334,00
3263,49	247,00
3267,26	303,00
3271,03	230,00
3274,79	141,00
3278,54	163,00
3282,30	243,00
3286,05	238,00
3289,80	132,00
3293,54	238,00
3297,29	291,00
3301,02	332,00
3304,76	153,00
3308,49	274,00
3312,22	226,00
3315,95	177,00
3319,67	345,00
3323,39	252,00
3327,10	280,00
3330,82	180,00
3334,53	316,00
3338,24	254,00
3341,94	191,00
3345,64	304,00
3349,34	217,00
3353,03	297,00
3356,72	250,00
3360,41	214,00
3364,10	293,00
3367,78	194,00
3371,46	223,00
3375,13	247,00
3378,81	170,00
3382,48	267,00
3386,14	130,00
3389,81	290,00
3393,47	277,00
3397,12	216,00
3400,78	170,00
3404,43	337,00
3408,08	326,00
3411,72	174,00
3415,36	216,00
3419,00	231,00
3422,64	316,00
3426,27	246,00
3429,90	177,00
3433,53	221,00
3437,15	233,00
3440,77	242,00
3444,39	145,00
3448,00	160,00
3451,62	255,00
3455,22	326,00
3458,83	261,00
3462,43	212,00
3466,03	105,00
3469,63	345,00
3473,22	263,00
3476,81	254,00
3480,40	181,00
3483,99	123,00
3487,57	195,00
3491,15	178,00
3494,72	168,00
3498,29	189,00
3501,86	129,00
3505,43	160,00
3508,99	234,00
3512,56	292,00
3516,11	216,00
3519,67	267,00
3523,22	182,00
3526,77	122,00
3530,32	273,00
3533,86	202,00
3537,40	208,00
3540,94	161,00
3544,47	243,00
3548,00	184,00
3551,53	150,00
3555,06	164,00
3558,58	192,00
3562,10	184,00
3565,62	292,00
3569,13	218,00
3572,64	82,00
3576,15	168,00
3579,66	148,00
3583,16	219,00
3586,66	121,00
3590,16	224,00
3593,65	168,00
3597,14	195,00
3600,63	193,00
3604,11	87,00
3607,60	166,00
3611,08	254,00
3614,55	70,00
3618,03	146,00
3621,50	331,00
3624,97	132,00
3628,43	184,00
3631,90	227,00
3635,36	119,00
3638,81	202,00
3642,27	217,00
3645,72	247,00
3649,17	199,00
3652,61	101,00
3656,06	208,00
3659,50	145,00
3662,93	169,00
3666,37	192,00
3669,80	113,00
3673,23	288,00
3676,65	290,00
3680,08	202,00
3683,50	45,00
3686,92	159,00
3690,33	102,00
3693,74	95,00
3697,15	263,00
3700,56	76,00
3703,96	163,00
3707,36	67,00
3710,76	29,00
3714,16	140,00
3717,55	190,00
3720,94	123,00
3724,33	102,00
3727,71	203,00
3731,10	170,00
3734,48	135,00
3737,85	198,00
3741,23	121,00
3744,60	216,00
3747,97	63,00
3751,33	214,00
3754,69	138,00
3758,05	196,00
3761,41	95,00
3764,77	140,00
3768,12	205,00
3771,47	155,00
3774,82	181,00
3778,16	-2,00
3781,50	3,00
3784,84	0,00
3788,18	7,00
>>>>>End Processed Spectral Data<<<<<
