SpectraSuite Data File
++++++++++++++++++++++++++++++++++++
Date: Tue Mar 03 12:30:16 ICT 2026
User: user
Dark Spectrum Present: Yes
Reference Spectrum Present: No
Number of Sampled Component Spectra: 1
Spectrometers: MAYP113682
Integration Time (usec): 3000000 (MAYP113682)
Spectra Averaged: 1 (MAYP113682)
Boxcar Smoothing: 0 (MAYP113682)
Correct for Electrical Dark: No (MAYP113682)
Strobe/Lamp Enabled: No (MAYP113682)
Correct for Detector Non-linearity: No (MAYP113682)
Correct for Stray Light: No (MAYP113682)
Number of Pixels in Processed Spectrum: 2068
>>>>>Begin Processed Spectral Data<<<<<
-37534,58	6,00
-37414,56	8,00
-37295,11	3,00
-37176,24	-8,00
-37057,95	-33,00
-36940,22	-29,00
-36823,05	53,00
-36706,45	42,00
-36590,40	154,00
-36474,90	33,00
-36359,95	91,00
-36245,55	193,00
-36131,68	-30,00
-36018,35	-54,00
-35905,55	45,00
-35793,29	88,00
-35681,54	39,00
-35570,32	8,00
-35459,62	44,00
-35349,43	15,00
-35239,75	111,00
-35130,58	54,00
-35021,91	-1,00
-34913,74	113,00
-34806,07	116,00
-34698,89	102,00
-34592,20	-19,00
-34486,00	48,00
-34380,28	-32,00
-34275,04	-61,00
-34170,27	3,00
-34065,98	-29,00
-33962,16	30,00
-33858,81	35,00
-33755,92	145,00
-33653,49	44,00
-33551,52	30,00
-33450,01	4,00
-33348,94	-4,00
-33248,33	-31,00
-33148,16	28,00
-33048,43	-6,00
-32949,14	52,00
-32850,29	98,00
-32751,87	65,00
-32653,89	130,00
-32556,33	135,00
-32459,20	-17,00
-32362,49	27,00
-32266,19	92,00
-32170,32	81,00
-32074,86	-30,00
-31979,82	91,00
-31885,18	-54,00
-31790,95	33,00
-31697,12	-12,00
-31603,69	-55,00
-31510,67	-5,00
-31418,04	79,00
-31325,80	149,00
-31233,95	119,00
-31142,49	160,00
-31051,42	7,00
-30960,73	148,00
-30870,43	57,00
-30780,50	41,00
-30690,95	112,00
-30601,77	-9,00
-30512,97	-31,00
-30424,53	88,00
-30336,46	45,00
-30248,76	-7,00
-30161,42	-28,00
-30074,44	85,00
-29987,81	186,00
-29901,55	62,00
-29815,63	-9,00
-29730,07	-3,00
-29644,86	104,00
-29560,00	182,00
-29475,48	-37,00
-29391,30	105,00
-29307,47	-10,00
-29223,97	45,00
-29140,81	-26,00
-29057,99	40,00
-28975,50	107,00
-28893,34	112,00
-28811,51	13,00
-28730,00	76,00
-28648,82	-34,00
-28567,97	-7,00
-28487,43	9,00
-28407,21	42,00
-28327,32	-66,00
-28247,73	-34,00
-28168,46	76,00
-28089,50	14,00
-28010,85	-55,00
-27932,51	91,00
-27854,48	-82,00
-27776,75	73,00
-27699,32	67,00
-27622,19	175,00
-27545,37	85,00
-27468,84	-15,00
-27392,60	41,00
-27316,66	-48,00
-27241,01	32,00
-27165,66	80,00
-27090,59	-96,00
-27015,81	127,00
-26941,31	86,00
-26867,10	88,00
-26793,17	21,00
-26719,52	-3,00
-26646,15	53,00
-26573,06	209,00
-26500,24	-40,00
-26427,70	53,00
-26355,43	92,00
-26283,43	-18,00
-26211,71	11,00
-26140,25	17,00
-26069,06	133,00
-25998,13	-24,00
-25927,46	0,00
-25857,06	14,00
-25786,92	20,00
-25717,04	-99,00
-25647,42	-24,00
-25578,05	63,00
-25508,94	0,00
-25440,09	31,00
-25371,48	39,00
-25303,13	73,00
-25235,02	16,00
-25167,17	-1,00
-25099,56	-40,00
-25032,19	168,00
-24965,07	0,00
-24898,20	16,00
-24831,56	48,00
-24765,17	34,00
-24699,01	136,00
-24633,10	37,00
-24567,41	-50,00
-24501,97	57,00
-24436,75	-42,00
-24371,77	19,00
-24307,03	30,00
-24242,51	69,00
-24178,22	38,00
-24114,16	-16,00
-24050,32	-8,00
-23986,71	8,00
-23923,32	105,00
-23860,16	-16,00
-23797,22	99,00
-23734,50	46,00
-23672,00	60,00
-23609,71	196,00
-23547,65	-5,00
-23485,80	59,00
-23424,16	54,00
-23362,74	24,00
-23301,53	14,00
-23240,54	15,00
-23179,75	9,00
-23119,17	64,00
-23058,80	293,00
-22998,64	91,00
-22938,68	84,00
-22878,93	33,00
-22819,39	12,00
-22760,04	-31,00
-22700,90	38,00
-22641,96	-4,00
-22583,22	61,00
-22524,68	-60,00
-22466,33	112,00
-22408,19	51,00
-22350,23	48,00
-22292,48	54,00
-22234,92	-68,00
-22177,55	79,00
-22120,37	-22,00
-22063,38	-2,00
-22006,58	93,00
-21949,98	90,00
-21893,56	98,00
-21837,33	60,00
-21781,28	49,00
-21725,42	29,00
-21669,74	131,00
-21614,25	25,00
-21558,94	40,00
-21503,81	113,00
-21448,86	41,00
-21394,10	79,00
-21339,51	62,00
-21285,10	15,00
-21230,86	50,00
-21176,81	14,00
-21122,93	24,00
-21069,22	129,00
-21015,69	-22,00
-20962,33	76,00
-20909,14	-16,00
-20856,13	107,00
-20803,28	-96,00
-20750,61	41,00
-20698,10	-24,00
-20645,76	145,00
-20593,59	182,00
-20541,59	71,00
-20489,75	-63,00
-20438,07	66,00
-20386,56	87,00
-20335,22	18,00
-20284,03	75,00
-20233,01	-44,00
-20182,15	5,00
-20131,45	128,00
-20080,91	-41,00
-20030,52	95,00
-19980,30	77,00
-19930,23	38,00
-19880,32	34,00
-19830,56	117,00
-19780,96	92,00
-19731,52	-44,00
-19682,23	0,00
-19633,09	40,00
-19584,10	38,00
-19535,26	182,00
-19486,58	-32,00
-19438,04	-83,00
-19389,66	-24,00
-19341,42	31,00
-19293,33	-51,00
-19245,39	57,00
-19197,60	25,00
-19149,95	150,00
-19102,45	-18,00
-19055,09	24,00
-19007,87	23,00
-18960,80	47,00
-18913,87	227,00
-18867,09	-27,00
-18820,44	76,00
-18773,94	52,00
-18727,57	-22,00
-18681,35	28,00
-18635,26	45,00
-18589,31	114,00
-18543,50	-33,00
-18497,83	-38,00
-18452,29	-45,00
-18406,89	16,00
-18361,63	-37,00
-18316,50	38,00
-18271,50	48,00
-18226,63	266,00
-18181,90	66,00
-18137,30	110,00
-18092,84	-42,00
-18048,50	67,00
-18004,29	120,00
-17960,22	157,00
-17916,27	37,00
-17872,45	2,00
-17828,76	-29,00
-17785,20	-68,00
-17741,77	83,00
-17698,46	96,00
-17655,28	129,00
-17612,22	-98,00
-17569,29	137,00
-17526,48	17,00
-17483,79	-56,00
-17441,23	-58,00
-17398,79	81,00
-17356,48	74,00
-17314,28	-14,00
-17272,21	-19,00
-17230,26	71,00
-17188,42	167,00
-17146,71	99,00
-17105,12	45,00
-17063,64	85,00
-17022,28	4,00
-16981,04	-59,00
-16939,92	59,00
-16898,91	-49,00
-16858,02	14,00
-16817,25	104,00
-16776,59	98,00
-16736,04	42,00
-16695,61	125,00
-16655,29	81,00
-16615,09	-33,00
-16574,99	61,00
-16535,01	39,00
-16495,15	91,00
-16455,39	39,00
-16415,74	48,00
-16376,21	-6,00
-16336,78	-33,00
-16297,46	9,00
-16258,26	195,00
-16219,16	-15,00
-16180,17	123,00
-16141,28	105,00
-16102,51	20,00
-16063,84	-17,00
-16025,27	86,00
-15986,82	-32,00
-15948,46	-72,00
-15910,22	141,00
-15872,07	65,00
-15834,04	-5,00
-15796,10	109,00
-15758,27	0,00
-15720,54	61,00
-15682,91	39,00
-15645,39	-41,00
-15607,97	20,00
-15570,64	-2,00
-15533,42	-8,00
-15496,30	91,00
-15459,28	86,00
-15422,36	-15,00
-15385,54	71,00
-15348,82	80,00
-15312,19	-42,00
-15275,66	0,00
-15239,23	32,00
-15202,90	-27,00
-15166,67	19,00
-15130,53	-22,00
-15094,48	5,00
-15058,54	80,00
-15022,68	-4,00
-14986,93	38,00
-14951,26	19,00
-14915,69	-42,00
-14880,22	78,00
-14844,84	-75,00
-14809,55	15,00
-14774,35	-31,00
-14739,25	124,00
-14704,24	-8,00
-14669,32	-15,00
-14634,49	159,00
-14599,75	35,00
-14565,10	167,00
-14530,55	-12,00
-14496,08	115,00
-14461,70	101,00
-14427,41	-43,00
-14393,21	24,00
-14359,10	53,00
-14325,07	133,00
-14291,14	136,00
-14257,29	23,00
-14223,52	8,00
-14189,85	101,00
-14156,26	-43,00
-14122,76	13,00
-14089,34	110,00
-14056,01	46,00
-14022,76	0,00
-13989,60	85,00
-13956,52	106,00
-13923,53	94,00
-13890,62	-12,00
-13857,79	20,00
-13825,05	94,00
-13792,39	103,00
-13759,81	93,00
-13727,31	-56,00
-13694,90	25,00
-13662,57	181,00
-13630,31	16,00
-13598,14	146,00
-13566,05	39,00
-13534,05	-59,00
-13502,12	145,00
-13470,27	-19,00
-13438,50	-151,00
-13406,80	55,00
-13375,19	-61,00
-13343,66	-22,00
-13312,20	28,00
-13280,83	45,00
-13249,53	56,00
-13218,30	58,00
-13187,16	-101,00
-13156,09	11,00
-13125,10	142,00
-13094,18	14,00
-13063,34	-14,00
-13032,58	-7,00
-13001,89	15,00
-12971,28	170,00
-12940,74	-20,00
-12910,27	10,00
-12879,88	73,00
-12849,57	114,00
-12819,33	86,00
-12789,16	74,00
-12759,06	83,00
-12729,04	-21,00
-12699,09	-1736,00
-12669,21	95,00
-12639,41	37,00
-12609,68	15,00
-12580,02	-12,00
-12550,43	-9,00
-12520,91	109,00
-12491,46	8,00
-12462,08	95,00
-12432,77	51,00
-12403,54	127,00
-12374,37	60,00
-12345,27	-16,00
-12316,24	27,00
-12287,29	-85,00
-12258,40	135,00
-12229,57	215,00
-12200,82	-56,00
-12172,14	-91,00
-12143,52	45,00
-12114,97	45,00
-12086,49	-47,00
-12058,07	-11,00
-12029,73	-37,00
-12001,44	-33,00
-11973,23	13,00
-11945,08	72,00
-11917,00	38,00
-11888,98	104,00
-11861,03	11,00
-11833,15	131,00
-11805,32	121,00
-11777,57	50,00
-11749,88	60,00
-11722,25	126,00
-11694,69	48,00
-11667,19	40,00
-11639,75	-39,00
-11612,38	30,00
-11585,07	78,00
-11557,83	21,00
-11530,65	50,00
-11503,53	153,00
-11476,47	100,00
-11449,48	147,00
-11422,54	107,00
-11395,67	84,00
-11368,86	76,00
-11342,11	-36,00
-11315,43	9,00
-11288,80	235,00
-11262,23	175,00
-11235,73	121,00
-11209,28	92,00
-11182,90	41,00
-11156,57	8,00
-11130,31	-15,00
-11104,10	56,00
-11077,96	9,00
-11051,87	125,00
-11025,84	125,00
-10999,87	74,00
-10973,96	15,00
-10948,11	64,00
-10922,31	-40,00
-10896,58	123,00
-10870,90	30,00
-10845,28	-9,00
-10819,71	16,00
-10794,20	40,00
-10768,75	19,00
-10743,36	14,00
-10718,02	84,00
-10692,74	40,00
-10667,52	61,00
-10642,35	88,00
-10617,24	131,00
-10592,18	103,00
-10567,18	101,00
-10542,23	121,00
-10517,34	228,00
-10492,51	108,00
-10467,72	208,00
-10443,00	230,00
-10418,32	181,00
-10393,70	202,00
-10369,14	224,00
-10344,63	345,00
-10320,17	327,00
-10295,77	243,00
-10271,42	274,00
-10247,12	190,00
-10222,88	365,00
-10198,68	450,00
-10174,54	428,00
-10150,46	528,00
-10126,42	334,00
-10102,44	509,00
-10078,51	474,00
-10054,63	575,00
-10030,80	515,00
-10007,03	500,00
-9983,30	481,00
-9959,63	552,00
-9936,01	788,00
-9912,44	660,00
-9888,92	582,00
-9865,44	748,00
-9842,02	830,00
-9818,65	737,00
-9795,33	793,00
-9772,06	801,00
-9748,84	880,00
-9725,67	1000,00
-9702,55	1114,00
-9679,47	1387,00
-9656,45	1421,00
-9633,47	1446,00
-9610,55	1460,00
-9587,67	1496,00
-9564,84	1753,00
-9542,06	1754,00
-9519,32	2176,00
-9496,64	2240,00
-9474,00	2493,00
-9451,41	2455,00
-9428,87	2551,00
-9406,37	2415,00
-9383,92	2200,00
-9361,52	2136,00
-9339,17	2142,00
-9316,86	2444,00
-9294,60	2857,00
-9272,38	3082,00
-9250,21	3101,00
-9228,09	3352,00
-9206,01	3113,00
-9183,98	2855,00
-9162,00	2348,00
-9140,06	2313,00
-9118,16	2386,00
-9096,31	2476,00
-9074,51	2557,00
-9052,75	2512,00
-9031,04	2367,00
-9009,37	2176,00
-8987,74	1944,00
-8966,16	1717,00
-8944,63	1500,00
-8923,14	1367,00
-8901,69	1537,00
-8880,29	1784,00
-8858,93	2035,00
-8837,61	2083,00
-8816,34	2425,00
-8795,11	2283,00
-8773,92	2264,00
-8752,78	1840,00
-8731,68	1828,00
-8710,62	1689,00
-8689,61	1874,00
-8668,63	2100,00
-8647,70	2102,00
-8626,82	2178,00
-8605,97	2052,00
-8585,17	1840,00
-8564,41	1706,00
-8543,69	1706,00
-8523,01	1528,00
-8502,37	1613,00
-8481,78	1612,00
-8461,23	1647,00
-8440,71	1891,00
-8420,24	2072,00
-8399,81	2004,00
-8379,42	2110,00
-8359,08	1776,00
-8338,77	1629,00
-8318,50	1659,00
-8298,27	1576,00
-8278,09	1721,00
-8257,94	1528,00
-8237,83	1853,00
-8217,76	1828,00
-8197,74	1948,00
-8177,75	1884,00
-8157,80	1696,00
-8137,89	1573,00
-8118,02	1568,00
-8098,19	1408,00
-8078,40	1613,00
-8058,65	1626,00
-8038,93	1823,00
-8019,26	1637,00
-7999,62	1612,00
-7980,02	1613,00
-7960,46	1534,00
-7940,94	1487,00
-7921,46	1422,00
-7902,01	1424,00
-7882,60	1226,00
-7863,23	1329,00
-7843,90	1508,00
-7824,61	1635,00
-7805,35	1611,00
-7786,13	1725,00
-7766,95	1631,00
-7747,80	1377,00
-7728,69	1536,00
-7709,62	1464,00
-7690,59	1524,00
-7671,59	1605,00
-7652,63	1687,00
-7633,70	1713,00
-7614,81	1597,00
-7595,96	1458,00
-7577,15	1309,00
-7558,37	1295,00
-7539,62	1392,00
-7520,91	1665,00
-7502,24	1618,00
-7483,60	1678,00
-7465,00	1433,00
-7446,44	1266,00
-7427,91	1260,00
-7409,41	992,00
-7390,95	1013,00
-7372,53	1087,00
-7354,14	1101,00
-7335,78	1048,00
-7317,46	1145,00
-7299,18	1251,00
-7280,92	1352,00
-7262,71	1517,00
-7244,52	1578,00
-7226,38	1572,00
-7208,26	1541,00
-7190,18	1508,00
-7172,14	1410,00
-7154,12	1386,00
-7136,15	1534,00
-7118,20	1572,00
-7100,29	1630,00
-7082,41	1637,00
-7064,57	1387,00
-7046,76	1357,00
-7028,98	1276,00
-7011,24	1076,00
-6993,53	1016,00
-6975,85	878,00
-6958,20	642,00
-6940,59	783,00
-6923,01	794,00
-6905,46	955,00
-6887,94	1080,00
-6870,46	1273,00
-6853,01	1374,00
-6835,59	1362,00
-6818,21	1340,00
-6800,85	1015,00
-6783,53	827,00
-6766,24	706,00
-6748,98	635,00
-6731,76	607,00
-6714,56	600,00
-6697,40	611,00
-6680,26	660,00
-6663,16	898,00
-6646,09	912,00
-6629,05	984,00
-6612,05	1144,00
-6595,07	1164,00
-6578,13	1056,00
-6561,21	854,00
-6544,33	570,00
-6527,47	615,00
-6510,65	465,00
-6493,86	469,00
-6477,10	548,00
-6460,36	596,00
-6443,66	479,00
-6426,99	443,00
-6410,35	535,00
-6393,74	594,00
-6377,16	626,00
-6360,61	677,00
-6344,09	790,00
-6327,59	974,00
-6311,13	796,00
-6294,70	920,00
-6278,29	928,00
-6261,92	995,00
-6245,58	1144,00
-6229,26	1169,00
-6212,97	905,00
-6196,72	677,00
-6180,49	742,00
-6164,29	422,00
-6148,12	447,00
-6131,98	285,00
-6115,86	269,00
-6099,78	372,00
-6083,72	186,00
-6067,69	251,00
-6051,69	254,00
-6035,72	332,00
-6019,78	445,00
-6003,87	518,00
-5987,98	747,00
-5972,12	662,00
-5956,29	676,00
-5940,49	642,00
-5924,71	522,00
-5908,96	344,00
-5893,24	268,00
-5877,55	223,00
-5861,89	368,00
-5846,25	461,00
-5830,64	315,00
-5815,05	385,00
-5799,50	321,00
-5783,97	300,00
-5768,47	536,00
-5752,99	523,00
-5737,55	768,00
-5722,12	822,00
-5706,73	756,00
-5691,36	581,00
-5676,02	398,00
-5660,71	331,00
-5645,42	245,00
-5630,16	323,00
-5614,92	406,00
-5599,71	490,00
-5584,53	493,00
-5569,37	552,00
-5554,24	1409,00
-5539,14	415,00
-5524,06	362,00
-5509,01	462,00
-5493,98	463,00
-5478,98	432,00
-5464,00	536,00
-5449,05	456,00
-5434,13	356,00
-5419,23	355,00
-5404,36	260,00
-5389,51	394,00
-5374,69	712,00
-5359,89	860,00
-5345,12	886,00
-5330,37	848,00
-5315,65	515,00
-5300,95	606,00
-5286,28	440,00
-5271,63	374,00
-5257,01	427,00
-5242,41	528,00
-5227,84	576,00
-5213,29	261,00
-5198,76	98,00
-5184,26	218,00
-5169,79	301,00
-5155,33	411,00
-5140,91	495,00
-5126,51	596,00
-5112,13	570,00
-5097,77	605,00
-5083,44	354,00
-5069,13	290,00
-5054,85	350,00
-5040,59	271,00
-5026,36	399,00
-5012,15	557,00
-4997,96	430,00
-4983,80	306,00
-4969,66	203,00
-4955,54	362,00
-4941,44	331,00
-4927,37	578,00
-4913,33	712,00
-4899,30	714,00
-4885,30	644,00
-4871,33	508,00
-4857,37	262,00
-4843,44	223,00
-4829,53	276,00
-4815,65	496,00
-4801,79	288,00
-4787,95	337,00
-4774,13	290,00
-4760,34	306,00
-4746,56	48,00
-4732,82	272,00
-4719,09	432,00
-4705,38	572,00
-4691,70	745,00
-4678,04	710,00
-4664,41	313,00
-4650,79	384,00
-4637,20	348,00
-4623,63	245,00
-4610,08	370,00
-4596,56	427,00
-4583,05	395,00
-4569,57	531,00
-4556,11	45,00
-4542,67	176,00
-4529,25	271,00
-4515,86	434,00
-4502,49	547,00
-4489,13	503,00
-4475,80	523,00
-4462,49	294,00
-4449,21	299,00
-4435,94	133,00
-4422,70	161,00
-4409,47	340,00
-4396,27	367,00
-4383,09	301,00
-4369,93	77,00
-4356,79	183,00
-4343,67	214,00
-4330,58	223,00
-4317,50	249,00
-4304,45	350,00
-4291,41	301,00
-4278,40	233,00
-4265,41	56,00
-4252,44	190,00
-4239,49	355,00
-4226,55	353,00
-4213,65	154,00
-4200,76	218,00
-4187,89	151,00
-4175,04	61,00
-4162,21	218,00
-4149,40	134,00
-4136,61	-47,00
-4123,85	131,00
-4111,10	2,00
-4098,37	76,00
-4085,66	158,00
-4072,98	53,00
-4060,31	148,00
-4047,66	171,00
-4035,04	143,00
-4022,43	-3,00
-4009,84	-29,00
-3997,27	93,00
-3984,72	40,00
-3972,19	-19,00
-3959,69	26,00
-3947,20	80,00
-3934,73	-12,00
-3922,27	106,00
-3909,84	-119,00
-3897,43	-97,00
-3885,04	91,00
-3872,67	102,00
-3860,31	90,00
-3847,98	41,00
-3835,66	-9,00
-3823,36	-17,00
-3811,09	95,00
-3798,83	-19,00
-3786,59	-17,00
-3774,37	-58,00
-3762,17	96,00
-3749,98	32,00
-3737,82	70,00
-3725,67	67,00
-3713,55	-58,00
-3701,44	106,00
-3689,35	43,00
-3677,28	-68,00
-3665,22	116,00
-3653,19	9,00
-3641,17	-53,00
-3629,18	38,00
-3617,20	10,00
-3605,24	-8,00
-3593,30	88,00
-3581,37	17,00
-3569,47	75,00
-3557,58	39,00
-3545,71	-18,00
-3533,86	-27,00
-3522,02	107,00
-3510,21	52,00
-3498,41	35,00
-3486,63	21,00
-3474,87	156,00
-3463,12	-37,00
-3451,40	-17,00
-3439,69	80,00
-3428,00	62,00
-3416,33	58,00
-3404,67	-40,00
-3393,03	-22,00
-3381,41	38,00
-3369,81	-127,00
-3358,22	126,00
-3346,66	81,00
-3335,10	80,00
-3323,57	133,00
-3312,06	194,00
-3300,56	14,00
-3289,08	1,00
-3277,61	-2,00
-3266,16	36,00
-3254,73	43,00
-3243,32	132,00
-3231,92	28,00
-3220,55	-142,00
-3209,18	-121,00
-3197,84	103,00
-3186,51	-8,00
-3175,20	35,00
-3163,90	152,00
-3152,63	-45,00
-3141,36	8,00
-3130,12	29,00
-3118,89	31,00
-3107,68	-13,00
-3096,49	32,00
-3085,31	16,00
-3074,15	123,00
-3063,00	42,00
-3051,87	6,00
-3040,76	35,00
-3029,67	139,00
-3018,59	-33,00
-3007,52	149,00
-2996,48	37,00
-2985,44	33,00
-2974,43	129,00
-2963,43	121,00
-2952,45	-3,00
-2941,48	-2,00
-2930,53	73,00
-2919,60	-2,00
-2908,68	41,00
-2897,78	31,00
-2886,89	125,00
-2876,02	32,00
-2865,17	-31,00
-2854,33	37,00
-2843,50	36,00
-2832,70	172,00
-2821,90	-73,00
-2811,13	-83,00
-2800,37	-77,00
-2789,62	8,00
-2778,89	106,00
-2768,18	23,00
-2757,48	79,00
-2746,80	66,00
-2736,13	41,00
-2725,48	-67,00
-2714,84	69,00
-2704,22	24,00
-2693,61	130,00
-2683,02	113,00
-2672,45	-116,00
-2661,89	82,00
-2651,34	38,00
-2640,81	28,00
-2630,30	40,00
-2619,80	64,00
-2609,31	-71,00
-2598,84	56,00
-2588,39	71,00
-2577,95	-72,00
-2567,52	134,00
-2557,11	93,00
-2546,71	39,00
-2536,33	79,00
-2525,97	29,00
-2515,62	89,00
-2505,28	-62,00
-2494,96	76,00
-2484,65	-130,00
-2474,36	45,00
-2464,08	27,00
-2453,82	104,00
-2443,57	9,00
-2433,33	13,00
-2423,11	79,00
-2412,91	18,00
-2402,72	38,00
-2392,54	136,00
-2382,38	48,00
-2372,23	95,00
-2362,09	-5102,00
-2351,97	177,00
-2341,87	-5,00
-2331,78	69,00
-2321,70	127,00
-2311,64	40,00
-2301,59	-5,00
-2291,55	77,00
-2281,53	60,00
-2271,53	219,00
-2261,53	13,00
-2251,55	-8,00
-2241,59	160,00
-2231,64	38,00
-2221,70	24,00
-2211,78	-24,00
-2201,87	165,00
-2191,97	69,00
-2182,09	-40,00
-2172,22	194,00
-2162,37	98,00
-2152,53	31,00
-2142,70	28,00
-2132,89	104,00
-2123,09	88,00
-2113,30	78,00
-2103,53	-68,00
-2093,77	25,00
-2084,02	0,00
-2074,29	154,00
-2064,57	68,00
-2054,86	97,00
-2045,17	-2,00
-2035,49	41,00
-2025,82	90,00
-2016,17	-44,00
-2006,53	24,00
-1996,91	37,00
-1987,29	3,00
-1977,69	86,00
-1968,11	171,00
-1958,53	116,00
-1948,97	31,00
-1939,42	175,00
-1929,89	-28,00
-1920,37	99,00
-1910,86	-1,00
-1901,36	95,00
-1891,88	42,00
-1882,41	-53,00
-1872,95	109,00
-1863,51	-24,00
-1854,08	1,00
-1844,66	190,00
-1835,26	59,00
-1825,86	0,00
-1816,48	131,00
-1807,11	5,00
-1797,76	138,00
-1788,42	78,00
-1779,09	-100,00
-1769,77	82,00
-1760,47	-45,00
-1751,17	92,00
-1741,89	80,00
-1732,63	-25,00
-1723,37	-12,00
-1714,13	-37,00
-1704,90	-7,00
-1695,68	117,00
-1686,48	-56,00
-1677,29	32,00
-1668,11	128,00
-1658,94	28,00
-1649,78	-26,00
-1640,64	83,00
-1631,51	163,00
-1622,39	37,00
-1613,28	71,00
-1604,19	9,00
-1595,10	20,00
-1586,03	165,00
-1576,97	21,00
-1567,93	36,00
-1558,89	-87,00
-1549,87	74,00
-1540,86	73,00
-1531,86	-58,00
-1522,87	-120,00
-1513,90	71,00
-1504,93	84,00
-1495,98	-105,00
-1487,04	48,00
-1478,12	164,00
-1469,20	76,00
-1460,30	29,00
-1451,40	86,00
-1442,52	-11,00
-1433,65	17,00
-1424,80	96,00
-1415,95	207,00
-1407,12	29,00
-1398,30	83,00
-1389,48	154,00
-1380,69	86,00
-1371,90	66,00
-1363,12	58,00
-1354,36	111,00
-1345,60	31,00
-1336,86	125,00
-1328,13	42,00
-1319,41	-8,00
-1310,70	31,00
-1302,01	-30,00
-1293,32	31,00
-1284,65	102,00
-1275,99	73,00
-1267,33	-55,00
-1258,69	88,00
-1250,06	121,00
-1241,45	29,00
-1232,84	68,00
-1224,25	-26,00
-1215,66	18,00
-1207,09	15,00
-1198,53	-22,00
-1189,97	59,00
-1181,43	90,00
-1172,91	40,00
-1164,39	50,00
-1155,88	91,00
-1147,38	-67,00
-1138,90	98,00
-1130,43	17,00
-1121,96	-20,00
-1113,51	-46,00
-1105,07	-20,00
-1096,64	104,00
-1088,22	62,00
-1079,81	22,00
-1071,41	54,00
-1063,02	-93,00
-1054,65	63,00
-1046,28	114,00
-1037,92	-66,00
-1029,58	-58,00
-1021,24	-27,00
-1012,92	95,00
-1004,61	115,00
-996,30	191,00
-988,01	56,00
-979,73	139,00
-971,46	22,00
-963,20	-25,00
-954,95	66,00
-946,71	-21,00
-938,48	19,00
-930,26	-113,00
-922,06	-61,00
-913,86	25,00
-905,67	155,00
-897,49	32,00
-889,33	163,00
-881,17	128,00
-873,02	56,00
-864,89	-59,00
-856,76	4,00
-848,65	184,00
-840,54	-60,00
-832,45	60,00
-824,36	40,00
-816,29	-6,00
-808,22	5,00
-800,17	60,00
-792,12	55,00
-784,09	122,00
-776,06	38,00
-768,05	3,00
-760,04	18,00
-752,05	97,00
-744,07	124,00
-736,09	115,00
-728,13	155,00
-720,17	30,00
-712,23	18,00
-704,29	-4,00
-696,37	-10,00
-688,45	84,00
-680,55	20,00
-672,65	84,00
-664,77	26,00
-656,89	-23,00
-649,03	88,00
-641,17	56,00
-633,32	56,00
-625,49	-46,00
-617,66	81,00
-609,84	25,00
-602,03	-37,00
-594,23	101,00
-586,45	-26,00
-578,67	141,00
-570,90	0,00
-563,14	127,00
-555,39	118,00
-547,65	121,00
-539,91	62,00
-532,19	105,00
-524,48	81,00
-516,78	44,00
-509,08	50,00
-501,40	-55,00
-493,72	-8,00
-486,06	72,00
-478,40	0,00
-470,76	-2,00
-463,12	40,00
-455,49	60,00
-447,87	71,00
-440,26	112,00
-432,66	31,00
-425,07	-39,00
-417,49	-120,00
-409,92	112,00
-402,35	-20,00
-394,80	151,00
-387,25	9,00
-379,72	22,00
-372,19	205,00
-364,67	264,00
-357,17	43,00
-349,67	0,00
-342,18	104,00
-334,69	140,00
-327,22	36,00
-319,76	-24,00
-312,30	97,00
-304,86	29,00
-297,42	132,00
-290,00	126,00
-282,58	39,00
-275,17	168,00
-267,77	160,00
-260,37	170,00
-252,99	85,00
-245,62	64,00
-238,25	89,00
-230,90	-3,00
-223,55	247,00
-216,21	122,00
-208,88	122,00
-201,56	150,00
-194,25	105,00
-186,94	83,00
-179,65	211,00
-172,36	181,00
-165,08	272,00
-157,81	215,00
-150,55	129,00
-143,30	312,00
-136,06	259,00
-128,82	280,00
-121,60	372,00
-114,38	233,00
-107,17	226,00
-99,97	476,00
-92,78	612,00
-85,60	525,00
-78,42	558,00
-71,25	639,00
-64,10	848,00
-56,95	1181,00
-49,81	1123,00
-42,67	1430,00
-35,55	1903,00
-28,43	2409,00
-21,33	4482,00
-14,23	14820,00
-7,14	47266,00
-0,05	38051,00
7,02	42597,00
14,09	39680,00
21,14	10370,00
28,19	4687,00
35,23	3039,00
42,27	2193,00
49,29	1988,00
56,31	1553,00
63,32	1324,00
70,32	1253,00
77,31	989,00
84,29	857,00
91,27	736,00
98,23	703,00
105,19	568,00
112,14	683,00
119,09	960,00
126,02	1422,00
132,95	1623,00
139,87	1636,00
146,78	1618,00
153,68	1507,00
160,58	1629,00
167,46	1607,00
174,34	1469,00
181,21	1458,00
188,08	1608,00
194,93	1452,00
201,78	1395,00
208,62	1656,00
215,45	1391,00
222,27	1565,00
229,09	1412,00
235,90	1520,00
242,70	1385,00
249,49	1336,00
256,27	1349,00
263,05	1273,00
269,82	1269,00
276,58	1330,00
283,33	1333,00
290,08	1443,00
296,82	1200,00
303,55	1247,00
310,27	1304,00
316,98	1236,00
323,69	1340,00
330,39	1171,00
337,08	1201,00
343,76	1128,00
350,44	1138,00
357,11	1073,00
363,77	1125,00
370,42	1223,00
377,07	1053,00
383,71	1148,00
390,34	967,00
396,96	1184,00
403,58	1116,00
410,19	1105,00
416,79	1068,00
423,38	1128,00
429,97	1012,00
436,55	1063,00
443,12	1015,00
449,68	1196,00
456,24	1000,00
462,79	1011,00
469,33	872,00
475,86	1068,00
482,39	1058,00
488,91	913,00
495,42	816,00
501,93	919,00
508,42	969,00
514,91	1042,00
521,40	971,00
527,87	1118,00
534,34	905,00
540,80	974,00
547,25	924,00
553,70	950,00
560,14	918,00
566,57	931,00
573,00	961,00
579,41	835,00
585,83	899,00
592,23	933,00
598,62	871,00
605,01	896,00
611,40	791,00
617,77	861,00
624,14	955,00
630,50	937,00
636,85	864,00
643,20	750,00
649,54	799,00
655,87	867,00
662,20	788,00
668,52	809,00
674,83	861,00
681,13	859,00
687,43	862,00
693,72	806,00
700,00	801,00
706,28	798,00
712,55	873,00
718,81	877,00
725,07	865,00
731,32	820,00
737,56	939,00
743,79	856,00
750,02	984,00
756,24	836,00
762,46	846,00
768,67	931,00
774,87	841,00
781,06	888,00
787,25	778,00
793,43	850,00
799,60	836,00
805,77	840,00
811,93	854,00
818,08	819,00
824,23	932,00
830,37	863,00
836,50	889,00
842,63	877,00
848,75	1020,00
854,87	902,00
860,97	939,00
867,07	1051,00
873,17	915,00
879,25	878,00
885,33	986,00
891,41	861,00
897,47	824,00
903,53	846,00
909,59	880,00
915,63	948,00
921,67	892,00
927,71	825,00
933,74	762,00
939,76	793,00
945,77	813,00
951,78	886,00
957,78	722,00
963,78	676,00
969,77	657,00
975,75	800,00
981,72	910,00
987,69	685,00
993,66	869,00
999,61	772,00
1005,56	862,00
1011,51	809,00
1017,44	824,00
1023,37	824,00
1029,30	787,00
1035,22	786,00
1041,13	924,00
1047,03	957,00
1052,93	1173,00
1058,83	1691,00
1064,71	1893,00
1070,59	1547,00
1076,47	1148,00
1082,33	1032,00
1088,20	1116,00
1094,05	980,00
1099,90	1021,00
1105,74	904,00
1111,58	959,00
1117,41	1029,00
1123,23	1505,00
1129,05	1978,00
1134,86	1765,00
1140,67	1277,00
1146,47	1073,00
1152,26	967,00
1158,05	930,00
1163,83	896,00
1169,60	955,00
1175,37	983,00
1181,13	879,00
1186,89	771,00
1192,64	796,00
1198,38	847,00
1204,12	769,00
1209,85	796,00
1215,58	807,00
1221,30	752,00
1227,02	812,00
1232,72	789,00
1238,43	750,00
1244,12	907,00
1249,81	811,00
1255,50	839,00
1261,17	824,00
1266,85	938,00
1272,51	876,00
1278,17	1067,00
1283,83	1192,00
1289,47	1944,00
1295,12	2368,00
1300,75	2128,00
1306,38	1512,00
1312,01	1278,00
1317,63	952,00
1323,24	1116,00
1328,85	1024,00
1334,45	920,00
1340,04	876,00
1345,63	917,00
1351,22	1011,00
1356,80	837,00
1362,37	1007,00
1367,93	1204,00
1373,49	941,00
1379,05	903,00
1384,60	1034,00
1390,14	1106,00
1395,68	1058,00
1401,21	1006,00
1406,74	1100,00
1412,26	1390,00
1417,77	1445,00
1423,28	1626,00
1428,78	1741,00
1434,28	1974,00
1439,77	2511,00
1445,26	2299,00
1450,74	2144,00
1456,22	1975,00
1461,68	1913,00
1467,15	1618,00
1472,61	1515,00
1478,06	1405,00
1483,51	1138,00
1488,95	1105,00
1494,38	966,00
1499,81	748,00
1505,24	793,00
1510,65	914,00
1516,07	868,00
1521,48	856,00
1526,88	908,00
1532,27	865,00
1537,67	917,00
1543,05	751,00
1548,43	693,00
1553,81	676,00
1559,18	855,00
1564,54	820,00
1569,90	648,00
1575,25	829,00
1580,60	877,00
1585,94	687,00
1591,28	719,00
1596,61	769,00
1601,93	628,00
1607,25	747,00
1612,57	671,00
1617,88	817,00
1623,18	804,00
1628,48	728,00
1633,77	710,00
1639,06	816,00
1644,34	823,00
1649,62	589,00
1654,89	765,00
1660,16	718,00
1665,42	662,00
1670,67	570,00
1675,92	682,00
1681,17	741,00
1686,41	609,00
1691,64	673,00
1696,87	731,00
1702,10	619,00
1707,32	512,00
1712,53	580,00
1717,74	687,00
1722,94	586,00
1728,14	669,00
1733,33	677,00
1738,52	696,00
1743,70	675,00
1748,88	668,00
1754,05	680,00
1759,22	654,00
1764,38	388,00
1769,53	516,00
1774,69	647,00
1779,83	633,00
1784,97	569,00
1790,11	617,00
1795,24	539,00
1800,36	611,00
1805,48	632,00
1810,60	643,00
1815,71	519,00
1820,82	657,00
1825,92	704,00
1831,01	595,00
1836,10	664,00
1841,19	637,00
1846,26	553,00
1851,34	614,00
1856,41	512,00
1861,47	690,00
1866,53	553,00
1871,59	572,00
1876,64	616,00
1881,68	623,00
1886,72	491,00
1891,76	472,00
1896,79	639,00
1901,81	543,00
1906,83	532,00
1911,85	577,00
1916,86	568,00
1921,86	580,00
1926,86	590,00
1931,86	635,00
1936,85	560,00
1941,83	621,00
1946,81	593,00
1951,79	539,00
1956,76	398,00
1961,72	600,00
1966,68	473,00
1971,64	588,00
1976,59	588,00
1981,54	524,00
1986,48	478,00
1991,42	467,00
1996,35	621,00
2001,27	414,00
2006,20	587,00
2011,11	655,00
2016,03	575,00
2020,93	614,00
2025,84	460,00
2030,73	457,00
2035,63	530,00
2040,52	571,00
2045,40	517,00
2050,28	516,00
2055,15	532,00
2060,02	469,00
2064,89	431,00
2069,75	503,00
2074,60	510,00
2079,46	416,00
2084,30	616,00
2089,14	507,00
2093,98	432,00
2098,81	549,00
2103,64	461,00
2108,46	628,00
2113,28	543,00
2118,09	499,00
2122,90	540,00
2127,70	553,00
2132,50	450,00
2137,30	379,00
2142,09	543,00
2146,87	536,00
2151,66	523,00
2156,43	561,00
2161,20	515,00
2165,97	463,00
2170,73	417,00
2175,49	387,00
2180,24	443,00
2184,99	373,00
2189,74	526,00
2194,48	567,00
2199,21	370,00
2203,94	498,00
2208,67	444,00
2213,39	387,00
2218,11	314,00
2222,82	460,00
2227,53	464,00
2232,23	452,00
2236,93	457,00
2241,63	417,00
2246,32	379,00
2251,00	492,00
2255,68	446,00
2260,36	467,00
2265,03	396,00
2269,70	438,00
2274,36	524,00
2279,02	352,00
2283,68	471,00
2288,33	427,00
2292,97	314,00
2297,61	471,00
2302,25	393,00
2306,88	513,00
2311,51	516,00
2316,14	420,00
2320,75	557,00
2325,37	475,00
2329,98	431,00
2334,59	457,00
2339,19	421,00
2343,79	299,00
2348,38	432,00
2352,97	367,00
2357,55	493,00
2362,13	400,00
2366,71	351,00
2371,28	361,00
2375,85	495,00
2380,41	421,00
2384,97	378,00
2389,52	313,00
2394,07	394,00
2398,62	330,00
2403,16	376,00
2407,70	353,00
2412,23	399,00
2416,76	419,00
2421,29	427,00
2425,81	442,00
2430,32	414,00
2434,84	329,00
2439,34	411,00
2443,85	394,00
2448,35	488,00
2452,84	320,00
2457,33	345,00
2461,82	388,00
2466,30	359,00
2470,78	405,00
2475,25	312,00
2479,72	230,00
2484,19	436,00
2488,65	456,00
2493,11	294,00
2497,56	404,00
2502,01	264,00
2506,46	364,00
2510,90	338,00
2515,34	296,00
2519,77	328,00
2524,20	320,00
2528,62	417,00
2533,04	334,00
2537,46	352,00
2541,87	413,00
2546,28	342,00
2550,68	336,00
2555,08	365,00
2559,48	477,00
2563,87	392,00
2568,26	294,00
2572,64	325,00
2577,02	320,00
2581,40	349,00
2585,77	460,00
2590,14	389,00
2594,50	299,00
2598,86	578,00
2603,22	364,00
2607,57	413,00
2611,92	384,00
2616,26	430,00
2620,60	488,00
2624,94	270,00
2629,27	467,00
2633,60	465,00
2637,92	267,00
2642,24	418,00
2646,56	367,00
2650,87	340,00
2655,18	394,00
2659,48	384,00
2663,78	391,00
2668,08	363,00
2672,37	496,00
2676,66	382,00
2680,95	361,00
2685,23	362,00
2689,50	559,00
2693,78	331,00
2698,05	461,00
2702,31	378,00
2706,57	338,00
2710,83	459,00
2715,08	428,00
2719,33	555,00
2723,58	500,00
2727,82	520,00
2732,06	489,00
2736,29	553,00
2740,53	465,00
2744,75	450,00
2748,97	501,00
2753,19	555,00
2757,41	342,00
2761,62	331,00
2765,83	553,00
2770,03	459,00
2774,23	420,00
2778,43	573,00
2782,62	541,00
2786,81	333,00
2791,00	545,00
2795,18	557,00
2799,35	603,00
2803,53	616,00
2807,70	620,00
2811,86	522,00
2816,03	642,00
2820,19	586,00
2824,34	792,00
2828,49	728,00
2832,64	1005,00
2836,78	1268,00
2840,92	1666,00
2845,06	1922,00
2849,19	2064,00
2853,32	2241,00
2857,45	2169,00
2861,57	2024,00
2865,69	1932,00
2869,80	1941,00
2873,91	1941,00
2878,02	2057,00
2882,12	2284,00
2886,22	2348,00
2890,32	2208,00
2894,41	2011,00
2898,50	1720,00
2902,58	1723,00
2906,67	1510,00
2910,74	1442,00
2914,82	1335,00
2918,89	1314,00
2922,96	1240,00
2927,02	1073,00
2931,08	1108,00
2935,13	962,00
2939,19	928,00
2943,24	842,00
2947,28	597,00
2951,32	679,00
2955,36	596,00
2959,40	497,00
2963,43	493,00
2967,46	505,00
2971,48	395,00
2975,50	384,00
2979,52	336,00
2983,53	293,00
2987,54	342,00
2991,55	272,00
2995,55	309,00
2999,55	458,00
3003,54	315,00
3007,54	231,00
3011,53	309,00
3015,51	309,00
3019,49	93,00
3023,47	210,00
3027,45	331,00
3031,42	288,00
3035,39	308,00
3039,35	243,00
3043,31	315,00
3047,27	192,00
3051,22	268,00
3055,17	259,00
3059,12	93,00
3063,06	280,00
3067,00	212,00
3070,94	295,00
3074,87	220,00
3078,80	208,00
3082,73	307,00
3086,65	104,00
3090,57	271,00
3094,49	281,00
3098,40	302,00
3102,31	211,00
3106,22	97,00
3110,12	198,00
3114,02	131,00
3117,92	249,00
3121,81	184,00
3125,70	162,00
3129,58	80,00
3133,47	118,00
3137,34	169,00
3141,22	254,00
3145,09	170,00
3148,96	98,00
3152,83	247,00
3156,69	160,00
3160,55	194,00
3164,40	189,00
3168,26	125,00
3172,10	291,00
3175,95	93,00
3179,79	133,00
3183,63	139,00
3187,47	168,00
3191,30	131,00
3195,13	78,00
3198,95	116,00
3202,78	222,00
3206,60	250,00
3210,41	116,00
3214,23	114,00
3218,03	184,00
3221,84	50,00
3225,64	197,00
3229,44	121,00
3233,24	134,00
3237,03	270,00
3240,82	37,00
3244,61	108,00
3248,39	53,00
3252,17	280,00
3255,95	17,00
3259,72	232,00
3263,49	102,00
3267,26	219,00
3271,03	105,00
3274,79	167,00
3278,54	67,00
3282,30	263,00
3286,05	40,00
3289,80	52,00
3293,54	153,00
3297,29	172,00
3301,02	108,00
3304,76	83,00
3308,49	63,00
3312,22	-11,00
3315,95	89,00
3319,67	225,00
3323,39	165,00
3327,10	126,00
3330,82	170,00
3334,53	106,00
3338,24	171,00
3341,94	196,00
3345,64	80,00
3349,34	105,00
3353,03	82,00
3356,72	260,00
3360,41	112,00
3364,10	231,00
3367,78	-30,00
3371,46	161,00
3375,13	124,00
3378,81	146,00
3382,48	75,00
3386,14	58,00
3389,81	165,00
3393,47	199,00
3397,12	16,00
3400,78	-53,00
3404,43	230,00
3408,08	25,00
3411,72	142,00
3415,36	125,00
3419,00	155,00
3422,64	124,00
3426,27	78,00
3429,90	-24,00
3433,53	55,00
3437,15	65,00
3440,77	117,00
3444,39	208,00
3448,00	-138,00
3451,62	49,00
3455,22	57,00
3458,83	110,00
3462,43	-47,00
3466,03	-68,00
3469,63	175,00
3473,22	58,00
3476,81	86,00
3480,40	-23,00
3483,99	56,00
3487,57	-2,00
3491,15	99,00
3494,72	92,00
3498,29	66,00
3501,86	117,00
3505,43	-42,00
3508,99	119,00
3512,56	98,00
3516,11	150,00
3519,67	19,00
3523,22	62,00
3526,77	89,00
3530,32	141,00
3533,86	42,00
3537,40	119,00
3540,94	169,00
3544,47	105,00
3548,00	-16,00
3551,53	78,00
3555,06	77,00
3558,58	22,00
3562,10	149,00
3565,62	111,00
3569,13	6,00
3572,64	10,00
3576,15	128,00
3579,66	19,00
3583,16	-48,00
3586,66	-22,00
3590,16	-15,00
3593,65	25,00
3597,14	30,00
3600,63	88,00
3604,11	88,00
3607,60	48,00
3611,08	174,00
3614,55	-97,00
3618,03	102,00
3621,50	171,00
3624,97	71,00
3628,43	122,00
3631,90	133,00
3635,36	84,00
3638,81	-44,00
3642,27	48,00
3645,72	128,00
3649,17	-47,00
3652,61	10,00
3656,06	100,00
3659,50	-17,00
3662,93	63,00
3666,37	33,00
3669,80	32,00
3673,23	60,00
3676,65	112,00
3680,08	75,00
3683,50	47,00
3686,92	-19,00
3690,33	102,00
3693,74	103,00
3697,15	119,00
3700,56	0,00
3703,96	-71,00
3707,36	21,00
3710,76	-2,00
3714,16	128,00
3717,55	70,00
3720,94	66,00
3724,33	97,00
3727,71	-81,00
3731,10	134,00
3734,48	103,00
3737,85	40,00
3741,23	-2,00
3744,60	11,00
3747,97	-21,00
3751,33	77,00
3754,69	22,00
3758,05	105,00
3761,41	2,00
3764,77	135,00
3768,12	41,00
3771,47	43,00
3774,82	35,00
3778,16	5,00
3781,50	5,00
3784,84	3,00
3788,18	9,00
>>>>>End Processed Spectral Data<<<<<
