SpectraSuite Data File
++++++++++++++++++++++++++++++++++++
Date: Tue Mar 03 12:45:07 ICT 2026
User: user
Dark Spectrum Present: Yes
Reference Spectrum Present: No
Number of Sampled Component Spectra: 1
Spectrometers: MAYP113682
Integration Time (usec): 3000000 (MAYP113682)
Spectra Averaged: 1 (MAYP113682)
Boxcar Smoothing: 0 (MAYP113682)
Correct for Electrical Dark: No (MAYP113682)
Strobe/Lamp Enabled: No (MAYP113682)
Correct for Detector Non-linearity: No (MAYP113682)
Correct for Stray Light: No (MAYP113682)
Number of Pixels in Processed Spectrum: 2068
>>>>>Begin Processed Spectral Data<<<<<
-37534,58	9,00
-37414,56	-3,00
-37295,11	2,00
-37176,24	3,00
-37057,95	103,00
-36940,22	91,00
-36823,05	122,00
-36706,45	20,00
-36590,40	150,00
-36474,90	53,00
-36359,95	172,00
-36245,55	336,00
-36131,68	59,00
-36018,35	145,00
-35905,55	168,00
-35793,29	137,00
-35681,54	141,00
-35570,32	65,00
-35459,62	39,00
-35349,43	166,00
-35239,75	175,00
-35130,58	234,00
-35021,91	31,00
-34913,74	272,00
-34806,07	171,00
-34698,89	152,00
-34592,20	58,00
-34486,00	131,00
-34380,28	72,00
-34275,04	30,00
-34170,27	40,00
-34065,98	126,00
-33962,16	127,00
-33858,81	107,00
-33755,92	54,00
-33653,49	135,00
-33551,52	173,00
-33450,01	131,00
-33348,94	155,00
-33248,33	68,00
-33148,16	104,00
-33048,43	54,00
-32949,14	127,00
-32850,29	138,00
-32751,87	152,00
-32653,89	287,00
-32556,33	33,00
-32459,20	209,00
-32362,49	123,00
-32266,19	183,00
-32170,32	101,00
-32074,86	84,00
-31979,82	178,00
-31885,18	73,00
-31790,95	32,00
-31697,12	257,00
-31603,69	106,00
-31510,67	118,00
-31418,04	103,00
-31325,80	203,00
-31233,95	178,00
-31142,49	192,00
-31051,42	231,00
-30960,73	160,00
-30870,43	168,00
-30780,50	131,00
-30690,95	73,00
-30601,77	141,00
-30512,97	95,00
-30424,53	169,00
-30336,46	73,00
-30248,76	181,00
-30161,42	100,00
-30074,44	227,00
-29987,81	167,00
-29901,55	166,00
-29815,63	134,00
-29730,07	72,00
-29644,86	68,00
-29560,00	270,00
-29475,48	90,00
-29391,30	221,00
-29307,47	103,00
-29223,97	132,00
-29140,81	24,00
-29057,99	146,00
-28975,50	194,00
-28893,34	129,00
-28811,51	100,00
-28730,00	144,00
-28648,82	76,00
-28567,97	87,00
-28487,43	191,00
-28407,21	100,00
-28327,32	-14,00
-28247,73	103,00
-28168,46	205,00
-28089,50	95,00
-28010,85	103,00
-27932,51	188,00
-27854,48	69,00
-27776,75	182,00
-27699,32	63,00
-27622,19	305,00
-27545,37	179,00
-27468,84	-31,00
-27392,60	242,00
-27316,66	144,00
-27241,01	175,00
-27165,66	140,00
-27090,59	75,00
-27015,81	239,00
-26941,31	184,00
-26867,10	184,00
-26793,17	113,00
-26719,52	61,00
-26646,15	108,00
-26573,06	217,00
-26500,24	179,00
-26427,70	109,00
-26355,43	247,00
-26283,43	36,00
-26211,71	127,00
-26140,25	145,00
-26069,06	184,00
-25998,13	31,00
-25927,46	34,00
-25857,06	93,00
-25786,92	84,00
-25717,04	-81,00
-25647,42	155,00
-25578,05	144,00
-25508,94	79,00
-25440,09	109,00
-25371,48	226,00
-25303,13	111,00
-25235,02	115,00
-25167,17	136,00
-25099,56	160,00
-25032,19	164,00
-24965,07	46,00
-24898,20	14,00
-24831,56	201,00
-24765,17	99,00
-24699,01	136,00
-24633,10	137,00
-24567,41	74,00
-24501,97	196,00
-24436,75	50,00
-24371,77	115,00
-24307,03	69,00
-24242,51	183,00
-24178,22	104,00
-24114,16	87,00
-24050,32	63,00
-23986,71	84,00
-23923,32	61,00
-23860,16	62,00
-23797,22	156,00
-23734,50	136,00
-23672,00	171,00
-23609,71	248,00
-23547,65	72,00
-23485,80	221,00
-23424,16	180,00
-23362,74	93,00
-23301,53	78,00
-23240,54	74,00
-23179,75	104,00
-23119,17	144,00
-23058,80	344,00
-22998,64	141,00
-22938,68	155,00
-22878,93	36,00
-22819,39	172,00
-22760,04	41,00
-22700,90	104,00
-22641,96	69,00
-22583,22	212,00
-22524,68	70,00
-22466,33	146,00
-22408,19	104,00
-22350,23	68,00
-22292,48	68,00
-22234,92	52,00
-22177,55	151,00
-22120,37	64,00
-22063,38	29,00
-22006,58	139,00
-21949,98	199,00
-21893,56	159,00
-21837,33	150,00
-21781,28	207,00
-21725,42	165,00
-21669,74	165,00
-21614,25	152,00
-21558,94	162,00
-21503,81	193,00
-21448,86	192,00
-21394,10	103,00
-21339,51	248,00
-21285,10	-52,00
-21230,86	36,00
-21176,81	132,00
-21122,93	203,00
-21069,22	196,00
-21015,69	111,00
-20962,33	95,00
-20909,14	86,00
-20856,13	178,00
-20803,28	69,00
-20750,61	113,00
-20698,10	49,00
-20645,76	154,00
-20593,59	218,00
-20541,59	115,00
-20489,75	15,00
-20438,07	101,00
-20386,56	167,00
-20335,22	105,00
-20284,03	87,00
-20233,01	152,00
-20182,15	67,00
-20131,45	234,00
-20080,91	162,00
-20030,52	205,00
-19980,30	49,00
-19930,23	104,00
-19880,32	-2,00
-19830,56	169,00
-19780,96	93,00
-19731,52	224,00
-19682,23	-48,00
-19633,09	66,00
-19584,10	159,00
-19535,26	100,00
-19486,58	136,00
-19438,04	-49,00
-19389,66	13,00
-19341,42	119,00
-19293,33	-10,00
-19245,39	148,00
-19197,60	100,00
-19149,95	232,00
-19102,45	91,00
-19055,09	112,00
-19007,87	144,00
-18960,80	155,00
-18913,87	93,00
-18867,09	53,00
-18820,44	169,00
-18773,94	190,00
-18727,57	75,00
-18681,35	141,00
-18635,26	158,00
-18589,31	161,00
-18543,50	10,00
-18497,83	-27,00
-18452,29	32,00
-18406,89	151,00
-18361,63	122,00
-18316,50	76,00
-18271,50	60,00
-18226,63	165,00
-18181,90	170,00
-18137,30	280,00
-18092,84	158,00
-18048,50	185,00
-18004,29	92,00
-17960,22	184,00
-17916,27	50,00
-17872,45	130,00
-17828,76	93,00
-17785,20	-39,00
-17741,77	114,00
-17698,46	152,00
-17655,28	175,00
-17612,22	22,00
-17569,29	155,00
-17526,48	107,00
-17483,79	87,00
-17441,23	58,00
-17398,79	152,00
-17356,48	281,00
-17314,28	203,00
-17272,21	125,00
-17230,26	111,00
-17188,42	133,00
-17146,71	99,00
-17105,12	107,00
-17063,64	133,00
-17022,28	88,00
-16981,04	61,00
-16939,92	127,00
-16898,91	47,00
-16858,02	1,00
-16817,25	79,00
-16776,59	175,00
-16736,04	125,00
-16695,61	245,00
-16655,29	24,00
-16615,09	33,00
-16574,99	103,00
-16535,01	134,00
-16495,15	26,00
-16455,39	94,00
-16415,74	145,00
-16376,21	-2,00
-16336,78	113,00
-16297,46	175,00
-16258,26	186,00
-16219,16	103,00
-16180,17	141,00
-16141,28	176,00
-16102,51	62,00
-16063,84	-15,00
-16025,27	131,00
-15986,82	31,00
-15948,46	-47,00
-15910,22	176,00
-15872,07	168,00
-15834,04	168,00
-15796,10	172,00
-15758,27	209,00
-15720,54	112,00
-15682,91	190,00
-15645,39	99,00
-15607,97	196,00
-15570,64	-24,00
-15533,42	62,00
-15496,30	103,00
-15459,28	239,00
-15422,36	167,00
-15385,54	47,00
-15348,82	198,00
-15312,19	87,00
-15275,66	-83,00
-15239,23	40,00
-15202,90	204,00
-15166,67	142,00
-15130,53	90,00
-15094,48	122,00
-15058,54	184,00
-15022,68	164,00
-14986,93	148,00
-14951,26	131,00
-14915,69	40,00
-14880,22	239,00
-14844,84	106,00
-14809,55	77,00
-14774,35	-18,00
-14739,25	131,00
-14704,24	103,00
-14669,32	103,00
-14634,49	217,00
-14599,75	196,00
-14565,10	180,00
-14530,55	85,00
-14496,08	287,00
-14461,70	106,00
-14427,41	58,00
-14393,21	103,00
-14359,10	12,00
-14325,07	229,00
-14291,14	192,00
-14257,29	110,00
-14223,52	152,00
-14189,85	182,00
-14156,26	137,00
-14122,76	61,00
-14089,34	60,00
-14056,01	117,00
-14022,76	169,00
-13989,60	80,00
-13956,52	118,00
-13923,53	160,00
-13890,62	82,00
-13857,79	193,00
-13825,05	156,00
-13792,39	135,00
-13759,81	88,00
-13727,31	75,00
-13694,90	22,00
-13662,57	270,00
-13630,31	212,00
-13598,14	112,00
-13566,05	125,00
-13534,05	58,00
-13502,12	96,00
-13470,27	154,00
-13438,50	59,00
-13406,80	114,00
-13375,19	40,00
-13343,66	-4,00
-13312,20	159,00
-13280,83	168,00
-13249,53	176,00
-13218,30	99,00
-13187,16	83,00
-13156,09	-48,00
-13125,10	230,00
-13094,18	127,00
-13063,34	133,00
-13032,58	139,00
-13001,89	159,00
-12971,28	86,00
-12940,74	188,00
-12910,27	121,00
-12879,88	126,00
-12849,57	259,00
-12819,33	138,00
-12789,16	168,00
-12759,06	108,00
-12729,04	64,00
-12699,09	-403,00
-12669,21	236,00
-12639,41	41,00
-12609,68	175,00
-12580,02	11,00
-12550,43	61,00
-12520,91	105,00
-12491,46	-69,00
-12462,08	251,00
-12432,77	149,00
-12403,54	149,00
-12374,37	153,00
-12345,27	-58,00
-12316,24	207,00
-12287,29	196,00
-12258,40	101,00
-12229,57	173,00
-12200,82	152,00
-12172,14	155,00
-12143,52	130,00
-12114,97	68,00
-12086,49	100,00
-12058,07	247,00
-12029,73	89,00
-12001,44	27,00
-11973,23	202,00
-11945,08	156,00
-11917,00	188,00
-11888,98	273,00
-11861,03	199,00
-11833,15	102,00
-11805,32	183,00
-11777,57	89,00
-11749,88	168,00
-11722,25	86,00
-11694,69	167,00
-11667,19	37,00
-11639,75	69,00
-11612,38	85,00
-11585,07	208,00
-11557,83	136,00
-11530,65	150,00
-11503,53	223,00
-11476,47	109,00
-11449,48	244,00
-11422,54	161,00
-11395,67	147,00
-11368,86	87,00
-11342,11	108,00
-11315,43	127,00
-11288,80	225,00
-11262,23	201,00
-11235,73	206,00
-11209,28	141,00
-11182,90	147,00
-11156,57	99,00
-11130,31	81,00
-11104,10	158,00
-11077,96	241,00
-11051,87	228,00
-11025,84	102,00
-10999,87	194,00
-10973,96	69,00
-10948,11	129,00
-10922,31	72,00
-10896,58	196,00
-10870,90	210,00
-10845,28	159,00
-10819,71	103,00
-10794,20	213,00
-10768,75	235,00
-10743,36	250,00
-10718,02	105,00
-10692,74	77,00
-10667,52	159,00
-10642,35	108,00
-10617,24	242,00
-10592,18	287,00
-10567,18	203,00
-10542,23	226,00
-10517,34	256,00
-10492,51	211,00
-10467,72	322,00
-10443,00	343,00
-10418,32	285,00
-10393,70	200,00
-10369,14	304,00
-10344,63	306,00
-10320,17	424,00
-10295,77	302,00
-10271,42	278,00
-10247,12	264,00
-10222,88	375,00
-10198,68	460,00
-10174,54	465,00
-10150,46	603,00
-10126,42	461,00
-10102,44	439,00
-10078,51	572,00
-10054,63	499,00
-10030,80	586,00
-10007,03	444,00
-9983,30	670,00
-9959,63	635,00
-9936,01	670,00
-9912,44	685,00
-9888,92	623,00
-9865,44	676,00
-9842,02	700,00
-9818,65	642,00
-9795,33	692,00
-9772,06	725,00
-9748,84	763,00
-9725,67	859,00
-9702,55	1063,00
-9679,47	1216,00
-9656,45	1154,00
-9633,47	1312,00
-9610,55	1365,00
-9587,67	1320,00
-9564,84	1542,00
-9542,06	1605,00
-9519,32	1800,00
-9496,64	1949,00
-9474,00	2053,00
-9451,41	2149,00
-9428,87	2175,00
-9406,37	2003,00
-9383,92	1917,00
-9361,52	1857,00
-9339,17	1745,00
-9316,86	2197,00
-9294,60	2462,00
-9272,38	2562,00
-9250,21	2759,00
-9228,09	2880,00
-9206,01	2745,00
-9183,98	2489,00
-9162,00	2115,00
-9140,06	2104,00
-9118,16	2001,00
-9096,31	2193,00
-9074,51	2212,00
-9052,75	2231,00
-9031,04	2039,00
-9009,37	1916,00
-8987,74	1774,00
-8966,16	1563,00
-8944,63	1372,00
-8923,14	1204,00
-8901,69	1378,00
-8880,29	1641,00
-8858,93	1704,00
-8837,61	1859,00
-8816,34	2196,00
-8795,11	1972,00
-8773,92	1960,00
-8752,78	1711,00
-8731,68	1521,00
-8710,62	1593,00
-8689,61	1706,00
-8668,63	1875,00
-8647,70	1926,00
-8626,82	1880,00
-8605,97	1792,00
-8585,17	1792,00
-8564,41	1539,00
-8543,69	1474,00
-8523,01	1373,00
-8502,37	1532,00
-8481,78	1359,00
-8461,23	1508,00
-8440,71	1771,00
-8420,24	1850,00
-8399,81	1869,00
-8379,42	1963,00
-8359,08	1791,00
-8338,77	1545,00
-8318,50	1343,00
-8298,27	1452,00
-8278,09	1605,00
-8257,94	1478,00
-8237,83	1720,00
-8217,76	1717,00
-8197,74	1698,00
-8177,75	1774,00
-8157,80	1501,00
-8137,89	1483,00
-8118,02	1371,00
-8098,19	1376,00
-8078,40	1332,00
-8058,65	1432,00
-8038,93	1615,00
-8019,26	1417,00
-7999,62	1409,00
-7980,02	1349,00
-7960,46	1426,00
-7940,94	1223,00
-7921,46	1186,00
-7902,01	1227,00
-7882,60	1259,00
-7863,23	1281,00
-7843,90	1373,00
-7824,61	1368,00
-7805,35	1489,00
-7786,13	1625,00
-7766,95	1459,00
-7747,80	1277,00
-7728,69	1427,00
-7709,62	1254,00
-7690,59	1339,00
-7671,59	1416,00
-7652,63	1555,00
-7633,70	1581,00
-7614,81	1520,00
-7595,96	1360,00
-7577,15	1218,00
-7558,37	1159,00
-7539,62	1334,00
-7520,91	1324,00
-7502,24	1443,00
-7483,60	1436,00
-7465,00	1218,00
-7446,44	1168,00
-7427,91	1188,00
-7409,41	976,00
-7390,95	816,00
-7372,53	1087,00
-7354,14	1035,00
-7335,78	1011,00
-7317,46	1130,00
-7299,18	1138,00
-7280,92	1383,00
-7262,71	1288,00
-7244,52	1396,00
-7226,38	1445,00
-7208,26	1397,00
-7190,18	1334,00
-7172,14	1235,00
-7154,12	1243,00
-7136,15	1364,00
-7118,20	1388,00
-7100,29	1417,00
-7082,41	1325,00
-7064,57	1285,00
-7046,76	1263,00
-7028,98	1118,00
-7011,24	1045,00
-6993,53	817,00
-6975,85	865,00
-6958,20	742,00
-6940,59	646,00
-6923,01	746,00
-6905,46	1011,00
-6887,94	1075,00
-6870,46	1118,00
-6853,01	1397,00
-6835,59	1237,00
-6818,21	1198,00
-6800,85	989,00
-6783,53	846,00
-6766,24	626,00
-6748,98	712,00
-6731,76	534,00
-6714,56	647,00
-6697,40	566,00
-6680,26	706,00
-6663,16	825,00
-6646,09	748,00
-6629,05	936,00
-6612,05	956,00
-6595,07	1063,00
-6578,13	1002,00
-6561,21	839,00
-6544,33	617,00
-6527,47	571,00
-6510,65	518,00
-6493,86	442,00
-6477,10	602,00
-6460,36	555,00
-6443,66	439,00
-6426,99	521,00
-6410,35	500,00
-6393,74	624,00
-6377,16	615,00
-6360,61	713,00
-6344,09	798,00
-6327,59	881,00
-6311,13	782,00
-6294,70	801,00
-6278,29	913,00
-6261,92	858,00
-6245,58	1145,00
-6229,26	1155,00
-6212,97	999,00
-6196,72	712,00
-6180,49	705,00
-6164,29	428,00
-6148,12	332,00
-6131,98	350,00
-6115,86	344,00
-6099,78	426,00
-6083,72	113,00
-6067,69	297,00
-6051,69	336,00
-6035,72	296,00
-6019,78	437,00
-6003,87	610,00
-5987,98	641,00
-5972,12	665,00
-5956,29	651,00
-5940,49	628,00
-5924,71	539,00
-5908,96	395,00
-5893,24	304,00
-5877,55	340,00
-5861,89	346,00
-5846,25	494,00
-5830,64	426,00
-5815,05	364,00
-5799,50	302,00
-5783,97	411,00
-5768,47	509,00
-5752,99	469,00
-5737,55	750,00
-5722,12	753,00
-5706,73	834,00
-5691,36	617,00
-5676,02	360,00
-5660,71	375,00
-5645,42	395,00
-5630,16	329,00
-5614,92	387,00
-5599,71	563,00
-5584,53	466,00
-5569,37	486,00
-5554,24	419,00
-5539,14	441,00
-5524,06	289,00
-5509,01	486,00
-5493,98	608,00
-5478,98	487,00
-5464,00	466,00
-5449,05	420,00
-5434,13	347,00
-5419,23	387,00
-5404,36	302,00
-5389,51	506,00
-5374,69	759,00
-5359,89	895,00
-5345,12	771,00
-5330,37	879,00
-5315,65	507,00
-5300,95	465,00
-5286,28	510,00
-5271,63	432,00
-5257,01	526,00
-5242,41	516,00
-5227,84	548,00
-5213,29	373,00
-5198,76	133,00
-5184,26	260,00
-5169,79	373,00
-5155,33	430,00
-5140,91	371,00
-5126,51	634,00
-5112,13	548,00
-5097,77	560,00
-5083,44	449,00
-5069,13	262,00
-5054,85	414,00
-5040,59	389,00
-5026,36	381,00
-5012,15	660,00
-4997,96	476,00
-4983,80	368,00
-4969,66	265,00
-4955,54	393,00
-4941,44	326,00
-4927,37	619,00
-4913,33	694,00
-4899,30	702,00
-4885,30	680,00
-4871,33	542,00
-4857,37	283,00
-4843,44	159,00
-4829,53	329,00
-4815,65	572,00
-4801,79	225,00
-4787,95	331,00
-4774,13	421,00
-4760,34	398,00
-4746,56	144,00
-4732,82	334,00
-4719,09	435,00
-4705,38	540,00
-4691,70	762,00
-4678,04	675,00
-4664,41	522,00
-4650,79	386,00
-4637,20	312,00
-4623,63	265,00
-4610,08	377,00
-4596,56	416,00
-4583,05	498,00
-4569,57	493,00
-4556,11	175,00
-4542,67	199,00
-4529,25	210,00
-4515,86	357,00
-4502,49	632,00
-4489,13	631,00
-4475,80	499,00
-4462,49	356,00
-4449,21	281,00
-4435,94	264,00
-4422,70	263,00
-4409,47	399,00
-4396,27	430,00
-4383,09	271,00
-4369,93	110,00
-4356,79	193,00
-4343,67	301,00
-4330,58	254,00
-4317,50	272,00
-4304,45	401,00
-4291,41	337,00
-4278,40	288,00
-4265,41	165,00
-4252,44	355,00
-4239,49	401,00
-4226,55	327,00
-4213,65	245,00
-4200,76	265,00
-4187,89	170,00
-4175,04	241,00
-4162,21	267,00
-4149,40	182,00
-4136,61	41,00
-4123,85	205,00
-4111,10	112,00
-4098,37	300,00
-4085,66	229,00
-4072,98	169,00
-4060,31	152,00
-4047,66	233,00
-4035,04	198,00
-4022,43	107,00
-4009,84	73,00
-3997,27	191,00
-3984,72	136,00
-3972,19	113,00
-3959,69	146,00
-3947,20	61,00
-3934,73	92,00
-3922,27	202,00
-3909,84	76,00
-3897,43	184,00
-3885,04	252,00
-3872,67	248,00
-3860,31	140,00
-3847,98	76,00
-3835,66	145,00
-3823,36	142,00
-3811,09	167,00
-3798,83	157,00
-3786,59	91,00
-3774,37	82,00
-3762,17	122,00
-3749,98	80,00
-3737,82	165,00
-3725,67	200,00
-3713,55	157,00
-3701,44	226,00
-3689,35	231,00
-3677,28	0,00
-3665,22	216,00
-3653,19	196,00
-3641,17	54,00
-3629,18	201,00
-3617,20	95,00
-3605,24	111,00
-3593,30	65,00
-3581,37	205,00
-3569,47	259,00
-3557,58	188,00
-3545,71	192,00
-3533,86	88,00
-3522,02	196,00
-3510,21	123,00
-3498,41	204,00
-3486,63	143,00
-3474,87	125,00
-3463,12	112,00
-3451,40	182,00
-3439,69	174,00
-3428,00	175,00
-3416,33	121,00
-3404,67	147,00
-3393,03	192,00
-3381,41	153,00
-3369,81	93,00
-3358,22	161,00
-3346,66	110,00
-3335,10	122,00
-3323,57	245,00
-3312,06	157,00
-3300,56	83,00
-3289,08	32,00
-3277,61	128,00
-3266,16	120,00
-3254,73	204,00
-3243,32	167,00
-3231,92	96,00
-3220,55	151,00
-3209,18	198,00
-3197,84	158,00
-3186,51	101,00
-3175,20	45,00
-3163,90	268,00
-3152,63	115,00
-3141,36	18,00
-3130,12	45,00
-3118,89	123,00
-3107,68	-2,00
-3096,49	67,00
-3085,31	26,00
-3074,15	168,00
-3063,00	126,00
-3051,87	130,00
-3040,76	192,00
-3029,67	96,00
-3018,59	161,00
-3007,52	171,00
-2996,48	24,00
-2985,44	144,00
-2974,43	333,00
-2963,43	153,00
-2952,45	169,00
-2941,48	186,00
-2930,53	216,00
-2919,60	64,00
-2908,68	263,00
-2897,78	272,00
-2886,89	207,00
-2876,02	38,00
-2865,17	-14,00
-2854,33	140,00
-2843,50	192,00
-2832,70	128,00
-2821,90	49,00
-2811,13	-39,00
-2800,37	96,00
-2789,62	230,00
-2778,89	155,00
-2768,18	155,00
-2757,48	166,00
-2746,80	139,00
-2736,13	-9,00
-2725,48	-52,00
-2714,84	94,00
-2704,22	74,00
-2693,61	229,00
-2683,02	218,00
-2672,45	36,00
-2661,89	83,00
-2651,34	79,00
-2640,81	131,00
-2630,30	209,00
-2619,80	116,00
-2609,31	70,00
-2598,84	57,00
-2588,39	184,00
-2577,95	69,00
-2567,52	69,00
-2557,11	237,00
-2546,71	190,00
-2536,33	225,00
-2525,97	130,00
-2515,62	136,00
-2505,28	-20,00
-2494,96	107,00
-2484,65	85,00
-2474,36	147,00
-2464,08	178,00
-2453,82	214,00
-2443,57	32,00
-2433,33	117,00
-2423,11	119,00
-2412,91	59,00
-2402,72	196,00
-2392,54	126,00
-2382,38	134,00
-2372,23	166,00
-2362,09	288,00
-2351,97	51,00
-2341,87	65,00
-2331,78	229,00
-2321,70	48,00
-2311,64	160,00
-2301,59	129,00
-2291,55	217,00
-2281,53	161,00
-2271,53	231,00
-2261,53	219,00
-2251,55	151,00
-2241,59	109,00
-2231,64	125,00
-2221,70	84,00
-2211,78	113,00
-2201,87	169,00
-2191,97	91,00
-2182,09	21,00
-2172,22	129,00
-2162,37	167,00
-2152,53	98,00
-2142,70	214,00
-2132,89	134,00
-2123,09	101,00
-2113,30	224,00
-2103,53	45,00
-2093,77	160,00
-2084,02	8,00
-2074,29	127,00
-2064,57	203,00
-2054,86	101,00
-2045,17	112,00
-2035,49	175,00
-2025,82	171,00
-2016,17	215,00
-2006,53	165,00
-1996,91	78,00
-1987,29	42,00
-1977,69	129,00
-1968,11	207,00
-1958,53	301,00
-1948,97	140,00
-1939,42	247,00
-1929,89	39,00
-1920,37	211,00
-1910,86	116,00
-1901,36	259,00
-1891,88	154,00
-1882,41	74,00
-1872,95	182,00
-1863,51	100,00
-1854,08	113,00
-1844,66	198,00
-1835,26	152,00
-1825,86	208,00
-1816,48	106,00
-1807,11	122,00
-1797,76	66,00
-1788,42	212,00
-1779,09	69,00
-1769,77	119,00
-1760,47	107,00
-1751,17	175,00
-1741,89	194,00
-1732,63	2,00
-1723,37	94,00
-1714,13	163,00
-1704,90	39,00
-1695,68	189,00
-1686,48	116,00
-1677,29	184,00
-1668,11	245,00
-1658,94	152,00
-1649,78	119,00
-1640,64	114,00
-1631,51	171,00
-1622,39	147,00
-1613,28	127,00
-1604,19	79,00
-1595,10	74,00
-1586,03	165,00
-1576,97	76,00
-1567,93	165,00
-1558,89	24,00
-1549,87	231,00
-1540,86	203,00
-1531,86	25,00
-1522,87	29,00
-1513,90	99,00
-1504,93	232,00
-1495,98	-63,00
-1487,04	97,00
-1478,12	91,00
-1469,20	170,00
-1460,30	71,00
-1451,40	232,00
-1442,52	158,00
-1433,65	54,00
-1424,80	156,00
-1415,95	268,00
-1407,12	267,00
-1398,30	173,00
-1389,48	153,00
-1380,69	142,00
-1371,90	143,00
-1363,12	82,00
-1354,36	219,00
-1345,60	116,00
-1336,86	140,00
-1328,13	166,00
-1319,41	214,00
-1310,70	138,00
-1302,01	101,00
-1293,32	137,00
-1284,65	212,00
-1275,99	276,00
-1267,33	158,00
-1258,69	65,00
-1250,06	237,00
-1241,45	128,00
-1232,84	170,00
-1224,25	87,00
-1215,66	36,00
-1207,09	34,00
-1198,53	11,00
-1189,97	181,00
-1181,43	253,00
-1172,91	148,00
-1164,39	221,00
-1155,88	107,00
-1147,38	55,00
-1138,90	228,00
-1130,43	96,00
-1121,96	100,00
-1113,51	107,00
-1105,07	94,00
-1096,64	217,00
-1088,22	221,00
-1079,81	196,00
-1071,41	126,00
-1063,02	91,00
-1054,65	142,00
-1046,28	81,00
-1037,92	55,00
-1029,58	198,00
-1021,24	160,00
-1012,92	181,00
-1004,61	96,00
-996,30	82,00
-988,01	88,00
-979,73	277,00
-971,46	92,00
-963,20	130,00
-954,95	135,00
-946,71	23,00
-938,48	242,00
-930,26	-7,00
-922,06	120,00
-913,86	233,00
-905,67	195,00
-897,49	83,00
-889,33	147,00
-881,17	189,00
-873,02	178,00
-864,89	75,00
-856,76	69,00
-848,65	114,00
-840,54	106,00
-832,45	134,00
-824,36	97,00
-816,29	69,00
-808,22	160,00
-800,17	147,00
-792,12	195,00
-784,09	248,00
-776,06	48,00
-768,05	101,00
-760,04	192,00
-752,05	65,00
-744,07	238,00
-736,09	90,00
-728,13	161,00
-720,17	48,00
-712,23	118,00
-704,29	27,00
-696,37	192,00
-688,45	105,00
-680,55	129,00
-672,65	252,00
-664,77	184,00
-656,89	113,00
-649,03	128,00
-641,17	102,00
-633,32	176,00
-625,49	101,00
-617,66	124,00
-609,84	82,00
-602,03	131,00
-594,23	141,00
-586,45	204,00
-578,67	229,00
-570,90	202,00
-563,14	195,00
-555,39	150,00
-547,65	142,00
-539,91	216,00
-532,19	190,00
-524,48	102,00
-516,78	112,00
-509,08	122,00
-501,40	127,00
-493,72	84,00
-486,06	65,00
-478,40	217,00
-470,76	97,00
-463,12	44,00
-455,49	216,00
-447,87	190,00
-440,26	96,00
-432,66	166,00
-425,07	151,00
-417,49	135,00
-409,92	163,00
-402,35	73,00
-394,80	149,00
-387,25	77,00
-379,72	154,00
-372,19	317,00
-364,67	360,00
-357,17	110,00
-349,67	192,00
-342,18	256,00
-334,69	192,00
-327,22	154,00
-319,76	117,00
-312,30	162,00
-304,86	167,00
-297,42	224,00
-290,00	185,00
-282,58	85,00
-275,17	194,00
-267,77	189,00
-260,37	127,00
-252,99	249,00
-245,62	130,00
-238,25	152,00
-230,90	164,00
-223,55	405,00
-216,21	196,00
-208,88	186,00
-201,56	227,00
-194,25	259,00
-186,94	168,00
-179,65	328,00
-172,36	316,00
-165,08	256,00
-157,81	415,00
-150,55	363,00
-143,30	300,00
-136,06	444,00
-128,82	348,00
-121,60	500,00
-114,38	390,00
-107,17	367,00
-99,97	425,00
-92,78	591,00
-85,60	607,00
-78,42	729,00
-71,25	824,00
-64,10	1022,00
-56,95	1166,00
-49,81	1259,00
-42,67	1631,00
-35,55	2119,00
-28,43	2643,00
-21,33	4719,00
-14,23	15941,00
-7,14	47266,00
-0,05	38051,00
7,02	42597,00
14,09	42386,00
21,14	11507,00
28,19	4914,00
35,23	3332,00
42,27	2405,00
49,29	2151,00
56,31	1655,00
63,32	1500,00
70,32	1264,00
77,31	1048,00
84,29	936,00
91,27	768,00
98,23	694,00
105,19	724,00
112,14	830,00
119,09	1004,00
126,02	1496,00
132,95	1532,00
139,87	1562,00
146,78	1601,00
153,68	1435,00
160,58	1456,00
167,46	1473,00
174,34	1432,00
181,21	1288,00
188,08	1302,00
194,93	1340,00
201,78	1387,00
208,62	1277,00
215,45	1343,00
222,27	1456,00
229,09	1275,00
235,90	1334,00
242,70	1216,00
249,49	1301,00
256,27	1297,00
263,05	1223,00
269,82	1090,00
276,58	1254,00
283,33	1201,00
290,08	1358,00
296,82	1135,00
303,55	1110,00
310,27	1186,00
316,98	1182,00
323,69	1212,00
330,39	1071,00
337,08	1035,00
343,76	1108,00
350,44	1053,00
357,11	1021,00
363,77	1158,00
370,42	1083,00
377,07	1176,00
383,71	1176,00
390,34	1032,00
396,96	1115,00
403,58	970,00
410,19	1043,00
416,79	1053,00
423,38	1040,00
429,97	1048,00
436,55	1070,00
443,12	1108,00
449,68	1043,00
456,24	1011,00
462,79	1027,00
469,33	961,00
475,86	926,00
482,39	926,00
488,91	1025,00
495,42	844,00
501,93	968,00
508,42	1048,00
514,91	1072,00
521,40	898,00
527,87	925,00
534,34	862,00
540,80	972,00
547,25	793,00
553,70	944,00
560,14	873,00
566,57	845,00
573,00	921,00
579,41	866,00
585,83	930,00
592,23	929,00
598,62	779,00
605,01	809,00
611,40	791,00
617,77	965,00
624,14	820,00
630,50	944,00
636,85	733,00
643,20	804,00
649,54	855,00
655,87	843,00
662,20	850,00
668,52	823,00
674,83	732,00
681,13	999,00
687,43	831,00
693,72	748,00
700,00	849,00
706,28	852,00
712,55	843,00
718,81	827,00
725,07	893,00
731,32	745,00
737,56	991,00
743,79	868,00
750,02	930,00
756,24	841,00
762,46	682,00
768,67	955,00
774,87	723,00
781,06	866,00
787,25	909,00
793,43	814,00
799,60	763,00
805,77	777,00
811,93	829,00
818,08	859,00
824,23	829,00
830,37	942,00
836,50	779,00
842,63	805,00
848,75	822,00
854,87	828,00
860,97	876,00
867,07	1039,00
873,17	948,00
879,25	754,00
885,33	849,00
891,41	763,00
897,47	773,00
903,53	794,00
909,59	841,00
915,63	884,00
921,67	811,00
927,71	764,00
933,74	808,00
939,76	733,00
945,77	779,00
951,78	774,00
957,78	771,00
963,78	756,00
969,77	588,00
975,75	755,00
981,72	773,00
987,69	1122,00
993,66	797,00
999,61	854,00
1005,56	805,00
1011,51	801,00
1017,44	695,00
1023,37	821,00
1029,30	791,00
1035,22	861,00
1041,13	869,00
1047,03	834,00
1052,93	1064,00
1058,83	1376,00
1064,71	1504,00
1070,59	1307,00
1076,47	1062,00
1082,33	1029,00
1088,20	1012,00
1094,05	972,00
1099,90	823,00
1105,74	865,00
1111,58	799,00
1117,41	1072,00
1123,23	1239,00
1129,05	1658,00
1134,86	1421,00
1140,67	1153,00
1146,47	1000,00
1152,26	861,00
1158,05	904,00
1163,83	1011,00
1169,60	778,00
1175,37	942,00
1181,13	682,00
1186,89	864,00
1192,64	801,00
1198,38	785,00
1204,12	671,00
1209,85	790,00
1215,58	754,00
1221,30	785,00
1227,02	839,00
1232,72	586,00
1238,43	618,00
1244,12	877,00
1249,81	785,00
1255,50	773,00
1261,17	843,00
1266,85	819,00
1272,51	944,00
1278,17	951,00
1283,83	997,00
1289,47	1552,00
1295,12	1847,00
1300,75	1715,00
1306,38	1235,00
1312,01	1144,00
1317,63	917,00
1323,24	907,00
1328,85	929,00
1334,45	920,00
1340,04	897,00
1345,63	873,00
1351,22	959,00
1356,80	843,00
1362,37	972,00
1367,93	1104,00
1373,49	1004,00
1379,05	1012,00
1384,60	905,00
1390,14	1036,00
1395,68	894,00
1401,21	996,00
1406,74	976,00
1412,26	1256,00
1417,77	1249,00
1423,28	1409,00
1428,78	1464,00
1434,28	1632,00
1439,77	1913,00
1445,26	1935,00
1450,74	1845,00
1456,22	1559,00
1461,68	1623,00
1467,15	1370,00
1472,61	1381,00
1478,06	1253,00
1483,51	1076,00
1488,95	1053,00
1494,38	904,00
1499,81	764,00
1505,24	860,00
1510,65	858,00
1516,07	806,00
1521,48	656,00
1526,88	774,00
1532,27	833,00
1537,67	865,00
1543,05	885,00
1548,43	738,00
1553,81	712,00
1559,18	812,00
1564,54	708,00
1569,90	824,00
1575,25	799,00
1580,60	821,00
1585,94	731,00
1591,28	696,00
1596,61	748,00
1601,93	737,00
1607,25	705,00
1612,57	625,00
1617,88	839,00
1623,18	773,00
1628,48	714,00
1633,77	835,00
1639,06	729,00
1644,34	804,00
1649,62	602,00
1654,89	702,00
1660,16	706,00
1665,42	644,00
1670,67	692,00
1675,92	679,00
1681,17	643,00
1686,41	626,00
1691,64	724,00
1696,87	651,00
1702,10	664,00
1707,32	564,00
1712,53	694,00
1717,74	673,00
1722,94	580,00
1728,14	694,00
1733,33	554,00
1738,52	785,00
1743,70	687,00
1748,88	602,00
1754,05	694,00
1759,22	656,00
1764,38	-1105,00
1769,53	621,00
1774,69	690,00
1779,83	566,00
1784,97	584,00
1790,11	645,00
1795,24	591,00
1800,36	695,00
1805,48	551,00
1810,60	635,00
1815,71	409,00
1820,82	701,00
1825,92	561,00
1831,01	612,00
1836,10	743,00
1841,19	698,00
1846,26	620,00
1851,34	579,00
1856,41	631,00
1861,47	650,00
1866,53	522,00
1871,59	515,00
1876,64	653,00
1881,68	600,00
1886,72	450,00
1891,76	508,00
1896,79	513,00
1901,81	607,00
1906,83	620,00
1911,85	576,00
1916,86	512,00
1921,86	546,00
1926,86	591,00
1931,86	644,00
1936,85	542,00
1941,83	554,00
1946,81	614,00
1951,79	519,00
1956,76	436,00
1961,72	619,00
1966,68	512,00
1971,64	598,00
1976,59	573,00
1981,54	549,00
1986,48	473,00
1991,42	563,00
1996,35	544,00
2001,27	392,00
2006,20	682,00
2011,11	549,00
2016,03	535,00
2020,93	627,00
2025,84	385,00
2030,73	538,00
2035,63	516,00
2040,52	538,00
2045,40	564,00
2050,28	522,00
2055,15	456,00
2060,02	505,00
2064,89	449,00
2069,75	480,00
2074,60	527,00
2079,46	432,00
2084,30	625,00
2089,14	610,00
2093,98	546,00
2098,81	436,00
2103,64	453,00
2108,46	460,00
2113,28	468,00
2118,09	398,00
2122,90	516,00
2127,70	545,00
2132,50	540,00
2137,30	598,00
2142,09	502,00
2146,87	496,00
2151,66	529,00
2156,43	510,00
2161,20	583,00
2165,97	484,00
2170,73	592,00
2175,49	451,00
2180,24	555,00
2184,99	491,00
2189,74	558,00
2194,48	575,00
2199,21	387,00
2203,94	442,00
2208,67	444,00
2213,39	308,00
2218,11	419,00
2222,82	588,00
2227,53	368,00
2232,23	410,00
2236,93	499,00
2241,63	487,00
2246,32	451,00
2251,00	460,00
2255,68	449,00
2260,36	451,00
2265,03	427,00
2269,70	426,00
2274,36	545,00
2279,02	338,00
2283,68	436,00
2288,33	464,00
2292,97	419,00
2297,61	567,00
2302,25	440,00
2306,88	548,00
2311,51	443,00
2316,14	446,00
2320,75	591,00
2325,37	478,00
2329,98	352,00
2334,59	401,00
2339,19	476,00
2343,79	406,00
2348,38	504,00
2352,97	454,00
2357,55	518,00
2362,13	587,00
2366,71	432,00
2371,28	398,00
2375,85	405,00
2380,41	516,00
2384,97	463,00
2389,52	397,00
2394,07	386,00
2398,62	446,00
2403,16	384,00
2407,70	427,00
2412,23	508,00
2416,76	404,00
2421,29	357,00
2425,81	485,00
2430,32	426,00
2434,84	300,00
2439,34	553,00
2443,85	439,00
2448,35	429,00
2452,84	397,00
2457,33	518,00
2461,82	355,00
2466,30	400,00
2470,78	488,00
2475,25	423,00
2479,72	379,00
2484,19	433,00
2488,65	563,00
2493,11	328,00
2497,56	431,00
2502,01	371,00
2506,46	418,00
2510,90	482,00
2515,34	374,00
2519,77	404,00
2524,20	514,00
2528,62	552,00
2533,04	491,00
2537,46	434,00
2541,87	325,00
2546,28	432,00
2550,68	344,00
2555,08	430,00
2559,48	367,00
2563,87	329,00
2568,26	373,00
2572,64	378,00
2577,02	432,00
2581,40	377,00
2585,77	420,00
2590,14	461,00
2594,50	421,00
2598,86	491,00
2603,22	317,00
2607,57	352,00
2611,92	437,00
2616,26	414,00
2620,60	382,00
2624,94	458,00
2629,27	409,00
2633,60	399,00
2637,92	349,00
2642,24	356,00
2646,56	389,00
2650,87	530,00
2655,18	495,00
2659,48	327,00
2663,78	353,00
2668,08	508,00
2672,37	532,00
2676,66	414,00
2680,95	454,00
2685,23	365,00
2689,50	549,00
2693,78	327,00
2698,05	467,00
2702,31	455,00
2706,57	387,00
2710,83	449,00
2715,08	396,00
2719,33	553,00
2723,58	582,00
2727,82	448,00
2732,06	437,00
2736,29	537,00
2740,53	559,00
2744,75	438,00
2748,97	473,00
2753,19	584,00
2757,41	380,00
2761,62	353,00
2765,83	438,00
2770,03	384,00
2774,23	418,00
2778,43	441,00
2782,62	562,00
2786,81	395,00
2791,00	489,00
2795,18	516,00
2799,35	473,00
2803,53	524,00
2807,70	615,00
2811,86	594,00
2816,03	566,00
2820,19	605,00
2824,34	676,00
2828,49	666,00
2832,64	898,00
2836,78	992,00
2840,92	1360,00
2845,06	1517,00
2849,19	1569,00
2853,32	1756,00
2857,45	1650,00
2861,57	1662,00
2865,69	1578,00
2869,80	1522,00
2873,91	1422,00
2878,02	1597,00
2882,12	1842,00
2886,22	1780,00
2890,32	1720,00
2894,41	1466,00
2898,50	1475,00
2902,58	1367,00
2906,67	1237,00
2910,74	1256,00
2914,82	1213,00
2918,89	992,00
2922,96	926,00
2927,02	929,00
2931,08	842,00
2935,13	828,00
2939,19	784,00
2943,24	655,00
2947,28	605,00
2951,32	625,00
2955,36	631,00
2959,40	427,00
2963,43	542,00
2967,46	454,00
2971,48	356,00
2975,50	461,00
2979,52	491,00
2983,53	413,00
2987,54	330,00
2991,55	366,00
2995,55	367,00
2999,55	419,00
3003,54	306,00
3007,54	344,00
3011,53	328,00
3015,51	323,00
3019,49	292,00
3023,47	265,00
3027,45	346,00
3031,42	377,00
3035,39	247,00
3039,35	165,00
3043,31	355,00
3047,27	328,00
3051,22	246,00
3055,17	316,00
3059,12	218,00
3063,06	202,00
3067,00	287,00
3070,94	251,00
3074,87	253,00
3078,80	304,00
3082,73	270,00
3086,65	116,00
3090,57	303,00
3094,49	216,00
3098,40	276,00
3102,31	280,00
3106,22	217,00
3110,12	339,00
3114,02	197,00
3117,92	241,00
3121,81	259,00
3125,70	242,00
3129,58	200,00
3133,47	125,00
3137,34	194,00
3141,22	289,00
3145,09	290,00
3148,96	197,00
3152,83	288,00
3156,69	234,00
3160,55	275,00
3164,40	218,00
3168,26	155,00
3172,10	360,00
3175,95	227,00
3179,79	190,00
3183,63	213,00
3187,47	371,00
3191,30	254,00
3195,13	246,00
3198,95	75,00
3202,78	345,00
3206,60	272,00
3210,41	265,00
3214,23	111,00
3218,03	234,00
3221,84	77,00
3225,64	302,00
3229,44	199,00
3233,24	117,00
3237,03	277,00
3240,82	246,00
3244,61	92,00
3248,39	47,00
3252,17	234,00
3255,95	174,00
3259,72	148,00
3263,49	197,00
3267,26	233,00
3271,03	213,00
3274,79	238,00
3278,54	222,00
3282,30	184,00
3286,05	160,00
3289,80	72,00
3293,54	155,00
3297,29	243,00
3301,02	209,00
3304,76	161,00
3308,49	185,00
3312,22	209,00
3315,95	145,00
3319,67	332,00
3323,39	244,00
3327,10	189,00
3330,82	219,00
3334,53	168,00
3338,24	334,00
3341,94	234,00
3345,64	178,00
3349,34	226,00
3353,03	212,00
3356,72	230,00
3360,41	208,00
3364,10	350,00
3367,78	170,00
3371,46	205,00
3375,13	106,00
3378,81	169,00
3382,48	164,00
3386,14	10,00
3389,81	213,00
3393,47	247,00
3397,12	159,00
3400,78	67,00
3404,43	308,00
3408,08	179,00
3411,72	191,00
3415,36	139,00
3419,00	165,00
3422,64	253,00
3426,27	217,00
3429,90	136,00
3433,53	198,00
3437,15	170,00
3440,77	187,00
3444,39	262,00
3448,00	52,00
3451,62	130,00
3455,22	272,00
3458,83	166,00
3462,43	135,00
3466,03	76,00
3469,63	214,00
3473,22	65,00
3476,81	250,00
3480,40	104,00
3483,99	144,00
3487,57	195,00
3491,15	148,00
3494,72	176,00
3498,29	85,00
3501,86	165,00
3505,43	96,00
3508,99	116,00
3512,56	168,00
3516,11	311,00
3519,67	184,00
3523,22	239,00
3526,77	26,00
3530,32	287,00
3533,86	176,00
3537,40	120,00
3540,94	273,00
3544,47	240,00
3548,00	175,00
3551,53	166,00
3555,06	122,00
3558,58	163,00
3562,10	249,00
3565,62	301,00
3569,13	86,00
3572,64	101,00
3576,15	148,00
3579,66	98,00
3583,16	133,00
3586,66	41,00
3590,16	123,00
3593,65	104,00
3597,14	90,00
3600,63	110,00
3604,11	149,00
3607,60	162,00
3611,08	230,00
3614,55	19,00
3618,03	50,00
3621,50	171,00
3624,97	126,00
3628,43	152,00
3631,90	131,00
3635,36	180,00
3638,81	126,00
3642,27	77,00
3645,72	227,00
3649,17	144,00
3652,61	32,00
3656,06	192,00
3659,50	108,00
3662,93	167,00
3666,37	155,00
3669,80	137,00
3673,23	296,00
3676,65	158,00
3680,08	128,00
3683,50	-34,00
3686,92	168,00
3690,33	52,00
3693,74	146,00
3697,15	240,00
3700,56	-7,00
3703,96	147,00
3707,36	194,00
3710,76	75,00
3714,16	145,00
3717,55	121,00
3720,94	87,00
3724,33	144,00
3727,71	66,00
3731,10	161,00
3734,48	105,00
3737,85	67,00
3741,23	117,00
3744,60	65,00
3747,97	160,00
3751,33	161,00
3754,69	68,00
3758,05	160,00
3761,41	93,00
3764,77	163,00
3768,12	159,00
3771,47	52,00
3774,82	60,00
3778,16	-11,00
3781,50	-4,00
3784,84	4,00
3788,18	12,00
>>>>>End Processed Spectral Data<<<<<
