SpectraSuite Data File
++++++++++++++++++++++++++++++++++++
Date: Tue Mar 03 12:33:13 ICT 2026
User: user
Dark Spectrum Present: Yes
Reference Spectrum Present: No
Number of Sampled Component Spectra: 1
Spectrometers: MAYP113682
Integration Time (usec): 3000000 (MAYP113682)
Spectra Averaged: 1 (MAYP113682)
Boxcar Smoothing: 0 (MAYP113682)
Correct for Electrical Dark: No (MAYP113682)
Strobe/Lamp Enabled: No (MAYP113682)
Correct for Detector Non-linearity: No (MAYP113682)
Correct for Stray Light: No (MAYP113682)
Number of Pixels in Processed Spectrum: 2068
>>>>>Begin Processed Spectral Data<<<<<
-37534,58	7,00
-37414,56	3,00
-37295,11	0,00
-37176,24	-3,00
-37057,95	7,00
-36940,22	-94,00
-36823,05	-7,00
-36706,45	79,00
-36590,40	105,00
-36474,90	88,00
-36359,95	52,00
-36245,55	104,00
-36131,68	-56,00
-36018,35	72,00
-35905,55	0,00
-35793,29	137,00
-35681,54	40,00
-35570,32	114,00
-35459,62	-1,00
-35349,43	86,00
-35239,75	176,00
-35130,58	104,00
-35021,91	103,00
-34913,74	89,00
-34806,07	76,00
-34698,89	3,00
-34592,20	5,00
-34486,00	19,00
-34380,28	24,00
-34275,04	3,00
-34170,27	80,00
-34065,98	51,00
-33962,16	-2,00
-33858,81	75,00
-33755,92	105,00
-33653,49	103,00
-33551,52	43,00
-33450,01	120,00
-33348,94	117,00
-33248,33	-67,00
-33148,16	133,00
-33048,43	104,00
-32949,14	80,00
-32850,29	78,00
-32751,87	42,00
-32653,89	139,00
-32556,33	48,00
-32459,20	64,00
-32362,49	167,00
-32266,19	56,00
-32170,32	34,00
-32074,86	-50,00
-31979,82	26,00
-31885,18	-63,00
-31790,95	36,00
-31697,12	93,00
-31603,69	109,00
-31510,67	33,00
-31418,04	30,00
-31325,80	51,00
-31233,95	62,00
-31142,49	104,00
-31051,42	93,00
-30960,73	120,00
-30870,43	100,00
-30780,50	154,00
-30690,95	164,00
-30601,77	27,00
-30512,97	130,00
-30424,53	102,00
-30336,46	38,00
-30248,76	-24,00
-30161,42	125,00
-30074,44	82,00
-29987,81	92,00
-29901,55	-1,00
-29815,63	197,00
-29730,07	-116,00
-29644,86	99,00
-29560,00	113,00
-29475,48	30,00
-29391,30	-4,00
-29307,47	144,00
-29223,97	16,00
-29140,81	82,00
-29057,99	86,00
-28975,50	145,00
-28893,34	178,00
-28811,51	-2,00
-28730,00	176,00
-28648,82	-12,00
-28567,97	34,00
-28487,43	43,00
-28407,21	88,00
-28327,32	-25,00
-28247,73	-16,00
-28168,46	9,00
-28089,50	55,00
-28010,85	-34,00
-27932,51	144,00
-27854,48	-78,00
-27776,75	111,00
-27699,32	119,00
-27622,19	43,00
-27545,37	95,00
-27468,84	-10,00
-27392,60	41,00
-27316,66	15,00
-27241,01	-15,00
-27165,66	57,00
-27090,59	-15,00
-27015,81	76,00
-26941,31	127,00
-26867,10	159,00
-26793,17	160,00
-26719,52	-24,00
-26646,15	45,00
-26573,06	241,00
-26500,24	38,00
-26427,70	-3,00
-26355,43	88,00
-26283,43	19,00
-26211,71	66,00
-26140,25	59,00
-26069,06	57,00
-25998,13	-31,00
-25927,46	91,00
-25857,06	57,00
-25786,92	90,00
-25717,04	-109,00
-25647,42	-2,00
-25578,05	79,00
-25508,94	-30,00
-25440,09	79,00
-25371,48	80,00
-25303,13	95,00
-25235,02	93,00
-25167,17	46,00
-25099,56	88,00
-25032,19	185,00
-24965,07	74,00
-24898,20	-68,00
-24831,56	120,00
-24765,17	92,00
-24699,01	56,00
-24633,10	120,00
-24567,41	36,00
-24501,97	83,00
-24436,75	-152,00
-24371,77	117,00
-24307,03	-8,00
-24242,51	49,00
-24178,22	72,00
-24114,16	21,00
-24050,32	66,00
-23986,71	32,00
-23923,32	21,00
-23860,16	-19,00
-23797,22	84,00
-23734,50	12,00
-23672,00	24,00
-23609,71	241,00
-23547,65	68,00
-23485,80	43,00
-23424,16	54,00
-23362,74	52,00
-23301,53	54,00
-23240,54	33,00
-23179,75	120,00
-23119,17	5,00
-23058,80	139,00
-22998,64	71,00
-22938,68	63,00
-22878,93	32,00
-22819,39	56,00
-22760,04	-26,00
-22700,90	14,00
-22641,96	73,00
-22583,22	153,00
-22524,68	62,00
-22466,33	152,00
-22408,19	8,00
-22350,23	91,00
-22292,48	6,00
-22234,92	-43,00
-22177,55	22,00
-22120,37	13,00
-22063,38	11,00
-22006,58	43,00
-21949,98	16,00
-21893,56	122,00
-21837,33	97,00
-21781,28	45,00
-21725,42	-11,00
-21669,74	77,00
-21614,25	90,00
-21558,94	87,00
-21503,81	101,00
-21448,86	-13,00
-21394,10	4,00
-21339,51	173,00
-21285,10	-1,00
-21230,86	71,00
-21176,81	146,00
-21122,93	143,00
-21069,22	75,00
-21015,69	120,00
-20962,33	156,00
-20909,14	20,00
-20856,13	82,00
-20803,28	-34,00
-20750,61	122,00
-20698,10	149,00
-20645,76	54,00
-20593,59	85,00
-20541,59	47,00
-20489,75	-14,00
-20438,07	20,00
-20386,56	31,00
-20335,22	71,00
-20284,03	45,00
-20233,01	8,00
-20182,15	-54,00
-20131,45	146,00
-20080,91	-25,00
-20030,52	49,00
-19980,30	16,00
-19930,23	-1,00
-19880,32	53,00
-19830,56	93,00
-19780,96	-4,00
-19731,52	3,00
-19682,23	-16,00
-19633,09	-34,00
-19584,10	33,00
-19535,26	135,00
-19486,58	29,00
-19438,04	-118,00
-19389,66	-88,00
-19341,42	27,00
-19293,33	5,00
-19245,39	36,00
-19197,60	71,00
-19149,95	133,00
-19102,45	-16,00
-19055,09	24,00
-19007,87	126,00
-18960,80	127,00
-18913,87	116,00
-18867,09	45,00
-18820,44	25,00
-18773,94	53,00
-18727,57	61,00
-18681,35	56,00
-18635,26	170,00
-18589,31	145,00
-18543,50	60,00
-18497,83	-46,00
-18452,29	-52,00
-18406,89	43,00
-18361,63	40,00
-18316,50	70,00
-18271,50	-13,00
-18226,63	39,00
-18181,90	152,00
-18137,30	108,00
-18092,84	-17,00
-18048,50	17,00
-18004,29	85,00
-17960,22	121,00
-17916,27	52,00
-17872,45	61,00
-17828,76	-39,00
-17785,20	52,00
-17741,77	92,00
-17698,46	148,00
-17655,28	39,00
-17612,22	-92,00
-17569,29	75,00
-17526,48	28,00
-17483,79	22,00
-17441,23	-71,00
-17398,79	-21,00
-17356,48	147,00
-17314,28	186,00
-17272,21	36,00
-17230,26	26,00
-17188,42	56,00
-17146,71	148,00
-17105,12	7,00
-17063,64	20,00
-17022,28	113,00
-16981,04	-47,00
-16939,92	97,00
-16898,91	-46,00
-16858,02	-19,00
-16817,25	143,00
-16776,59	186,00
-16736,04	67,00
-16695,61	25,00
-16655,29	160,00
-16615,09	105,00
-16574,99	61,00
-16535,01	109,00
-16495,15	-38,00
-16455,39	63,00
-16415,74	8,00
-16376,21	-29,00
-16336,78	-57,00
-16297,46	83,00
-16258,26	218,00
-16219,16	2,00
-16180,17	191,00
-16141,28	83,00
-16102,51	56,00
-16063,84	49,00
-16025,27	116,00
-15986,82	60,00
-15948,46	1,00
-15910,22	83,00
-15872,07	122,00
-15834,04	98,00
-15796,10	128,00
-15758,27	144,00
-15720,54	-16,00
-15682,91	41,00
-15645,39	12,00
-15607,97	66,00
-15570,64	22,00
-15533,42	31,00
-15496,30	80,00
-15459,28	23,00
-15422,36	96,00
-15385,54	-33,00
-15348,82	73,00
-15312,19	-33,00
-15275,66	-86,00
-15239,23	-79,00
-15202,90	42,00
-15166,67	132,00
-15130,53	8,00
-15094,48	29,00
-15058,54	76,00
-15022,68	41,00
-14986,93	155,00
-14951,26	105,00
-14915,69	-8,00
-14880,22	36,00
-14844,84	51,00
-14809,55	136,00
-14774,35	-42,00
-14739,25	141,00
-14704,24	-132,00
-14669,32	22,00
-14634,49	129,00
-14599,75	37,00
-14565,10	39,00
-14530,55	55,00
-14496,08	130,00
-14461,70	100,00
-14427,41	-96,00
-14393,21	-22,00
-14359,10	23,00
-14325,07	45,00
-14291,14	68,00
-14257,29	106,00
-14223,52	69,00
-14189,85	43,00
-14156,26	55,00
-14122,76	-88,00
-14089,34	18,00
-14056,01	70,00
-14022,76	40,00
-13989,60	80,00
-13956,52	43,00
-13923,53	154,00
-13890,62	78,00
-13857,79	137,00
-13825,05	153,00
-13792,39	30,00
-13759,81	202,00
-13727,31	24,00
-13694,90	2,00
-13662,57	203,00
-13630,31	80,00
-13598,14	35,00
-13566,05	52,00
-13534,05	13,00
-13502,12	100,00
-13470,27	95,00
-13438,50	-40,00
-13406,80	79,00
-13375,19	7,00
-13343,66	113,00
-13312,20	36,00
-13280,83	32,00
-13249,53	161,00
-13218,30	40,00
-13187,16	53,00
-13156,09	-47,00
-13125,10	89,00
-13094,18	71,00
-13063,34	25,00
-13032,58	130,00
-13001,89	-12,00
-12971,28	80,00
-12940,74	55,00
-12910,27	-30,00
-12879,88	59,00
-12849,57	-45,00
-12819,33	17,00
-12789,16	34,00
-12759,06	34,00
-12729,04	8,00
-12699,09	25,00
-12669,21	146,00
-12639,41	10,00
-12609,68	-8,00
-12580,02	69,00
-12550,43	116,00
-12520,91	69,00
-12491,46	-20,00
-12462,08	132,00
-12432,77	44,00
-12403,54	15,00
-12374,37	59,00
-12345,27	-50,00
-12316,24	132,00
-12287,29	-5,00
-12258,40	34,00
-12229,57	131,00
-12200,82	35,00
-12172,14	-5,00
-12143,52	91,00
-12114,97	-12,00
-12086,49	50,00
-12058,07	63,00
-12029,73	-84,00
-12001,44	81,00
-11973,23	-15,00
-11945,08	76,00
-11917,00	-34,00
-11888,98	232,00
-11861,03	0,00
-11833,15	117,00
-11805,32	25,00
-11777,57	71,00
-11749,88	16,00
-11722,25	131,00
-11694,69	95,00
-11667,19	18,00
-11639,75	32,00
-11612,38	23,00
-11585,07	32,00
-11557,83	123,00
-11530,65	22,00
-11503,53	103,00
-11476,47	38,00
-11449,48	170,00
-11422,54	143,00
-11395,67	112,00
-11368,86	154,00
-11342,11	-41,00
-11315,43	15,00
-11288,80	95,00
-11262,23	202,00
-11235,73	137,00
-11209,28	116,00
-11182,90	44,00
-11156,57	3,00
-11130,31	198,00
-11104,10	207,00
-11077,96	73,00
-11051,87	94,00
-11025,84	126,00
-10999,87	87,00
-10973,96	147,00
-10948,11	124,00
-10922,31	28,00
-10896,58	109,00
-10870,90	59,00
-10845,28	98,00
-10819,71	-27,00
-10794,20	59,00
-10768,75	172,00
-10743,36	100,00
-10718,02	98,00
-10692,74	36,00
-10667,52	129,00
-10642,35	144,00
-10617,24	209,00
-10592,18	254,00
-10567,18	202,00
-10542,23	111,00
-10517,34	265,00
-10492,51	89,00
-10467,72	208,00
-10443,00	145,00
-10418,32	231,00
-10393,70	256,00
-10369,14	235,00
-10344,63	355,00
-10320,17	286,00
-10295,77	351,00
-10271,42	335,00
-10247,12	295,00
-10222,88	320,00
-10198,68	467,00
-10174,54	515,00
-10150,46	475,00
-10126,42	466,00
-10102,44	622,00
-10078,51	590,00
-10054,63	620,00
-10030,80	651,00
-10007,03	552,00
-9983,30	608,00
-9959,63	745,00
-9936,01	664,00
-9912,44	789,00
-9888,92	761,00
-9865,44	871,00
-9842,02	888,00
-9818,65	968,00
-9795,33	809,00
-9772,06	990,00
-9748,84	954,00
-9725,67	1006,00
-9702,55	1418,00
-9679,47	1607,00
-9656,45	1522,00
-9633,47	1742,00
-9610,55	1718,00
-9587,67	1822,00
-9564,84	2019,00
-9542,06	2022,00
-9519,32	2469,00
-9496,64	2647,00
-9474,00	2874,00
-9451,41	2878,00
-9428,87	2912,00
-9406,37	2799,00
-9383,92	2466,00
-9361,52	2497,00
-9339,17	2515,00
-9316,86	2848,00
-9294,60	3104,00
-9272,38	3544,00
-9250,21	3645,00
-9228,09	3810,00
-9206,01	3650,00
-9183,98	3171,00
-9162,00	2741,00
-9140,06	2672,00
-9118,16	2753,00
-9096,31	2885,00
-9074,51	2928,00
-9052,75	2870,00
-9031,04	2768,00
-9009,37	2571,00
-8987,74	2186,00
-8966,16	2003,00
-8944,63	1712,00
-8923,14	1590,00
-8901,69	1858,00
-8880,29	2080,00
-8858,93	2388,00
-8837,61	2432,00
-8816,34	2781,00
-8795,11	2702,00
-8773,92	2505,00
-8752,78	2236,00
-8731,68	2099,00
-8710,62	2029,00
-8689,61	2068,00
-8668,63	2413,00
-8647,70	2540,00
-8626,82	2569,00
-8605,97	2369,00
-8585,17	2367,00
-8564,41	2039,00
-8543,69	1877,00
-8523,01	1706,00
-8502,37	1693,00
-8481,78	1877,00
-8461,23	1938,00
-8440,71	2248,00
-8420,24	2287,00
-8399,81	2387,00
-8379,42	2457,00
-8359,08	2105,00
-8338,77	1910,00
-8318,50	1836,00
-8298,27	1725,00
-8278,09	1868,00
-8257,94	1822,00
-8237,83	2118,00
-8217,76	2097,00
-8197,74	2269,00
-8177,75	2158,00
-8157,80	2056,00
-8137,89	1863,00
-8118,02	1888,00
-8098,19	1713,00
-8078,40	1805,00
-8058,65	1956,00
-8038,93	2007,00
-8019,26	1876,00
-7999,62	1828,00
-7980,02	1794,00
-7960,46	1723,00
-7940,94	1684,00
-7921,46	1671,00
-7902,01	1611,00
-7882,60	1527,00
-7863,23	1541,00
-7843,90	1617,00
-7824,61	1750,00
-7805,35	1922,00
-7786,13	1939,00
-7766,95	1828,00
-7747,80	1577,00
-7728,69	1838,00
-7709,62	1618,00
-7690,59	1747,00
-7671,59	1883,00
-7652,63	2002,00
-7633,70	1982,00
-7614,81	1863,00
-7595,96	1674,00
-7577,15	1635,00
-7558,37	1415,00
-7539,62	1671,00
-7520,91	1746,00
-7502,24	1837,00
-7483,60	1894,00
-7465,00	1782,00
-7446,44	1513,00
-7427,91	1438,00
-7409,41	1289,00
-7390,95	1144,00
-7372,53	1132,00
-7354,14	1141,00
-7335,78	1147,00
-7317,46	1257,00
-7299,18	1432,00
-7280,92	1606,00
-7262,71	1683,00
-7244,52	1961,00
-7226,38	1776,00
-7208,26	1745,00
-7190,18	1784,00
-7172,14	1535,00
-7154,12	1616,00
-7136,15	1801,00
-7118,20	1719,00
-7100,29	1849,00
-7082,41	1822,00
-7064,57	1646,00
-7046,76	1582,00
-7028,98	1376,00
-7011,24	1220,00
-6993,53	1071,00
-6975,85	966,00
-6958,20	871,00
-6940,59	895,00
-6923,01	898,00
-6905,46	1010,00
-6887,94	1240,00
-6870,46	-1347,00
-6853,01	1634,00
-6835,59	1631,00
-6818,21	1443,00
-6800,85	1141,00
-6783,53	1000,00
-6766,24	773,00
-6748,98	808,00
-6731,76	657,00
-6714,56	720,00
-6697,40	602,00
-6680,26	749,00
-6663,16	853,00
-6646,09	1076,00
-6629,05	1184,00
-6612,05	1366,00
-6595,07	1256,00
-6578,13	1088,00
-6561,21	988,00
-6544,33	727,00
-6527,47	616,00
-6510,65	608,00
-6493,86	510,00
-6477,10	686,00
-6460,36	659,00
-6443,66	518,00
-6426,99	463,00
-6410,35	600,00
-6393,74	720,00
-6377,16	665,00
-6360,61	846,00
-6344,09	936,00
-6327,59	974,00
-6311,13	911,00
-6294,70	986,00
-6278,29	1109,00
-6261,92	1214,00
-6245,58	1316,00
-6229,26	1325,00
-6212,97	1145,00
-6196,72	838,00
-6180,49	738,00
-6164,29	460,00
-6148,12	387,00
-6131,98	222,00
-6115,86	275,00
-6099,78	334,00
-6083,72	223,00
-6067,69	363,00
-6051,69	369,00
-6035,72	315,00
-6019,78	472,00
-6003,87	602,00
-5987,98	772,00
-5972,12	863,00
-5956,29	842,00
-5940,49	603,00
-5924,71	549,00
-5908,96	535,00
-5893,24	328,00
-5877,55	392,00
-5861,89	485,00
-5846,25	307,00
-5830,64	393,00
-5815,05	484,00
-5799,50	393,00
-5783,97	450,00
-5768,47	555,00
-5752,99	528,00
-5737,55	993,00
-5722,12	976,00
-5706,73	863,00
-5691,36	668,00
-5676,02	510,00
-5660,71	287,00
-5645,42	301,00
-5630,16	448,00
-5614,92	376,00
-5599,71	547,00
-5584,53	549,00
-5569,37	526,00
-5554,24	1513,00
-5539,14	590,00
-5524,06	395,00
-5509,01	550,00
-5493,98	578,00
-5478,98	488,00
-5464,00	558,00
-5449,05	460,00
-5434,13	436,00
-5419,23	266,00
-5404,36	415,00
-5389,51	538,00
-5374,69	897,00
-5359,89	965,00
-5345,12	950,00
-5330,37	970,00
-5315,65	638,00
-5300,95	631,00
-5286,28	547,00
-5271,63	431,00
-5257,01	611,00
-5242,41	588,00
-5227,84	583,00
-5213,29	376,00
-5198,76	191,00
-5184,26	261,00
-5169,79	325,00
-5155,33	422,00
-5140,91	382,00
-5126,51	628,00
-5112,13	625,00
-5097,77	570,00
-5083,44	377,00
-5069,13	250,00
-5054,85	355,00
-5040,59	341,00
-5026,36	503,00
-5012,15	562,00
-4997,96	470,00
-4983,80	410,00
-4969,66	210,00
-4955,54	333,00
-4941,44	386,00
-4927,37	770,00
-4913,33	846,00
-4899,30	880,00
-4885,30	867,00
-4871,33	533,00
-4857,37	228,00
-4843,44	108,00
-4829,53	278,00
-4815,65	516,00
-4801,79	440,00
-4787,95	341,00
-4774,13	348,00
-4760,34	413,00
-4746,56	91,00
-4732,82	422,00
-4719,09	399,00
-4705,38	680,00
-4691,70	812,00
-4678,04	734,00
-4664,41	545,00
-4650,79	366,00
-4637,20	235,00
-4623,63	257,00
-4610,08	385,00
-4596,56	425,00
-4583,05	438,00
-4569,57	449,00
-4556,11	14,00
-4542,67	182,00
-4529,25	166,00
-4515,86	409,00
-4502,49	605,00
-4489,13	608,00
-4475,80	584,00
-4462,49	383,00
-4449,21	308,00
-4435,94	207,00
-4422,70	326,00
-4409,47	401,00
-4396,27	417,00
-4383,09	214,00
-4369,93	171,00
-4356,79	112,00
-4343,67	211,00
-4330,58	291,00
-4317,50	315,00
-4304,45	430,00
-4291,41	259,00
-4278,40	160,00
-4265,41	173,00
-4252,44	231,00
-4239,49	424,00
-4226,55	290,00
-4213,65	208,00
-4200,76	262,00
-4187,89	161,00
-4175,04	130,00
-4162,21	238,00
-4149,40	42,00
-4136,61	-5,00
-4123,85	53,00
-4111,10	154,00
-4098,37	86,00
-4085,66	252,00
-4072,98	206,00
-4060,31	108,00
-4047,66	287,00
-4035,04	128,00
-4022,43	149,00
-4009,84	92,00
-3997,27	123,00
-3984,72	64,00
-3972,19	86,00
-3959,69	110,00
-3947,20	47,00
-3934,73	-27,00
-3922,27	91,00
-3909,84	19,00
-3897,43	-3,00
-3885,04	43,00
-3872,67	165,00
-3860,31	169,00
-3847,98	152,00
-3835,66	65,00
-3823,36	9,00
-3811,09	111,00
-3798,83	52,00
-3786,59	-37,00
-3774,37	128,00
-3762,17	6,00
-3749,98	-39,00
-3737,82	103,00
-3725,67	166,00
-3713,55	-54,00
-3701,44	223,00
-3689,35	163,00
-3677,28	16,00
-3665,22	129,00
-3653,19	18,00
-3641,17	32,00
-3629,18	115,00
-3617,20	55,00
-3605,24	-26,00
-3593,30	32,00
-3581,37	36,00
-3569,47	131,00
-3557,58	46,00
-3545,71	104,00
-3533,86	32,00
-3522,02	188,00
-3510,21	-9,00
-3498,41	25,00
-3486,63	40,00
-3474,87	42,00
-3463,12	84,00
-3451,40	-77,00
-3439,69	85,00
-3428,00	85,00
-3416,33	36,00
-3404,67	96,00
-3393,03	132,00
-3381,41	70,00
-3369,81	65,00
-3358,22	129,00
-3346,66	58,00
-3335,10	24,00
-3323,57	143,00
-3312,06	126,00
-3300,56	70,00
-3289,08	-91,00
-3277,61	-4,00
-3266,16	-153,00
-3254,73	-13,00
-3243,32	155,00
-3231,92	52,00
-3220,55	78,00
-3209,18	66,00
-3197,84	178,00
-3186,51	34,00
-3175,20	-41,00
-3163,90	218,00
-3152,63	41,00
-3141,36	20,00
-3130,12	19,00
-3118,89	19,00
-3107,68	-50,00
-3096,49	81,00
-3085,31	47,00
-3074,15	34,00
-3063,00	116,00
-3051,87	106,00
-3040,76	57,00
-3029,67	72,00
-3018,59	50,00
-3007,52	120,00
-2996,48	-77,00
-2985,44	95,00
-2974,43	194,00
-2963,43	113,00
-2952,45	121,00
-2941,48	47,00
-2930,53	38,00
-2919,60	-48,00
-2908,68	63,00
-2897,78	52,00
-2886,89	85,00
-2876,02	-36,00
-2865,17	-37,00
-2854,33	29,00
-2843,50	28,00
-2832,70	-4,00
-2821,90	-6,00
-2811,13	-84,00
-2800,37	84,00
-2789,62	66,00
-2778,89	68,00
-2768,18	71,00
-2757,48	161,00
-2746,80	113,00
-2736,13	-1,00
-2725,48	-58,00
-2714,84	-3,00
-2704,22	70,00
-2693,61	-28,00
-2683,02	82,00
-2672,45	-37,00
-2661,89	51,00
-2651,34	2,00
-2640,81	104,00
-2630,30	75,00
-2619,80	-53,00
-2609,31	-18,00
-2598,84	-9,00
-2588,39	103,00
-2577,95	-60,00
-2567,52	116,00
-2557,11	153,00
-2546,71	134,00
-2536,33	124,00
-2525,97	5,00
-2515,62	182,00
-2505,28	-92,00
-2494,96	95,00
-2484,65	-22,00
-2474,36	1,00
-2464,08	37,00
-2453,82	123,00
-2443,57	37,00
-2433,33	-8,00
-2423,11	119,00
-2412,91	-23,00
-2402,72	-38,00
-2392,54	83,00
-2382,38	45,00
-2372,23	180,00
-2362,09	-304,00
-2351,97	59,00
-2341,87	45,00
-2331,78	89,00
-2321,70	113,00
-2311,64	112,00
-2301,59	22,00
-2291,55	124,00
-2281,53	28,00
-2271,53	170,00
-2261,53	12,00
-2251,55	7,00
-2241,59	45,00
-2231,64	-6,00
-2221,70	100,00
-2211,78	16,00
-2201,87	161,00
-2191,97	5,00
-2182,09	53,00
-2172,22	70,00
-2162,37	147,00
-2152,53	7,00
-2142,70	124,00
-2132,89	48,00
-2123,09	47,00
-2113,30	168,00
-2103,53	84,00
-2093,77	-42,00
-2084,02	59,00
-2074,29	79,00
-2064,57	43,00
-2054,86	100,00
-2045,17	101,00
-2035,49	159,00
-2025,82	130,00
-2016,17	120,00
-2006,53	85,00
-1996,91	62,00
-1987,29	-81,00
-1977,69	70,00
-1968,11	45,00
-1958,53	193,00
-1948,97	6,00
-1939,42	149,00
-1929,89	52,00
-1920,37	102,00
-1910,86	17,00
-1901,36	49,00
-1891,88	-102,00
-1882,41	34,00
-1872,95	189,00
-1863,51	-21,00
-1854,08	44,00
-1844,66	67,00
-1835,26	-34,00
-1825,86	60,00
-1816,48	68,00
-1807,11	17,00
-1797,76	22,00
-1788,42	-8,00
-1779,09	4,00
-1769,77	54,00
-1760,47	25,00
-1751,17	130,00
-1741,89	91,00
-1732,63	-3,00
-1723,37	-59,00
-1714,13	47,00
-1704,90	-93,00
-1695,68	47,00
-1686,48	31,00
-1677,29	60,00
-1668,11	159,00
-1658,94	11,00
-1649,78	6,00
-1640,64	-2,00
-1631,51	60,00
-1622,39	21,00
-1613,28	94,00
-1604,19	32,00
-1595,10	13,00
-1586,03	79,00
-1576,97	71,00
-1567,93	40,00
-1558,89	41,00
-1549,87	113,00
-1540,86	77,00
-1531,86	-1,00
-1522,87	-28,00
-1513,90	64,00
-1504,93	44,00
-1495,98	-39,00
-1487,04	143,00
-1478,12	115,00
-1469,20	73,00
-1460,30	105,00
-1451,40	74,00
-1442,52	-43,00
-1433,65	73,00
-1424,80	98,00
-1415,95	105,00
-1407,12	0,00
-1398,30	-54,00
-1389,48	58,00
-1380,69	20,00
-1371,90	119,00
-1363,12	82,00
-1354,36	159,00
-1345,60	93,00
-1336,86	-20,00
-1328,13	50,00
-1319,41	60,00
-1310,70	122,00
-1302,01	39,00
-1293,32	94,00
-1284,65	138,00
-1275,99	81,00
-1267,33	40,00
-1258,69	106,00
-1250,06	165,00
-1241,45	77,00
-1232,84	161,00
-1224,25	-37,00
-1215,66	65,00
-1207,09	-20,00
-1198,53	81,00
-1189,97	72,00
-1181,43	81,00
-1172,91	110,00
-1164,39	-56,00
-1155,88	139,00
-1147,38	32,00
-1138,90	119,00
-1130,43	112,00
-1121,96	-13,00
-1113,51	80,00
-1105,07	32,00
-1096,64	97,00
-1088,22	50,00
-1079,81	68,00
-1071,41	96,00
-1063,02	-23,00
-1054,65	103,00
-1046,28	27,00
-1037,92	49,00
-1029,58	16,00
-1021,24	34,00
-1012,92	146,00
-1004,61	76,00
-996,30	93,00
-988,01	36,00
-979,73	119,00
-971,46	33,00
-963,20	78,00
-954,95	73,00
-946,71	19,00
-938,48	100,00
-930,26	-71,00
-922,06	23,00
-913,86	100,00
-905,67	64,00
-897,49	1,00
-889,33	131,00
-881,17	187,00
-873,02	22,00
-864,89	-22,00
-856,76	-4,00
-848,65	34,00
-840,54	-55,00
-832,45	128,00
-824,36	85,00
-816,29	62,00
-808,22	95,00
-800,17	104,00
-792,12	25,00
-784,09	50,00
-776,06	-6,00
-768,05	-55,00
-760,04	72,00
-752,05	52,00
-744,07	44,00
-736,09	61,00
-728,13	141,00
-720,17	48,00
-712,23	60,00
-704,29	-60,00
-696,37	30,00
-688,45	176,00
-680,55	-111,00
-672,65	140,00
-664,77	-10,00
-656,89	106,00
-649,03	59,00
-641,17	81,00
-633,32	64,00
-625,49	3,00
-617,66	91,00
-609,84	-11,00
-602,03	87,00
-594,23	130,00
-586,45	33,00
-578,67	81,00
-570,90	76,00
-563,14	67,00
-555,39	122,00
-547,65	30,00
-539,91	63,00
-532,19	95,00
-524,48	146,00
-516,78	193,00
-509,08	11,00
-501,40	100,00
-493,72	-53,00
-486,06	-63,00
-478,40	-16,00
-470,76	60,00
-463,12	-111,00
-455,49	157,00
-447,87	14,00
-440,26	93,00
-432,66	30,00
-425,07	90,00
-417,49	22,00
-409,92	111,00
-402,35	3,00
-394,80	175,00
-387,25	40,00
-379,72	86,00
-372,19	151,00
-364,67	201,00
-357,17	112,00
-349,67	157,00
-342,18	189,00
-334,69	138,00
-327,22	-3,00
-319,76	-32,00
-312,30	30,00
-304,86	139,00
-297,42	50,00
-290,00	120,00
-282,58	99,00
-275,17	163,00
-267,77	117,00
-260,37	96,00
-252,99	45,00
-245,62	3,00
-238,25	69,00
-230,90	100,00
-223,55	291,00
-216,21	168,00
-208,88	149,00
-201,56	46,00
-194,25	215,00
-186,94	155,00
-179,65	236,00
-172,36	218,00
-165,08	152,00
-157,81	231,00
-150,55	197,00
-143,30	270,00
-136,06	272,00
-128,82	229,00
-121,60	390,00
-114,38	281,00
-107,17	255,00
-99,97	402,00
-92,78	396,00
-85,60	439,00
-78,42	513,00
-71,25	632,00
-64,10	875,00
-56,95	1043,00
-49,81	1048,00
-42,67	1303,00
-35,55	1813,00
-28,43	2279,00
-21,33	4053,00
-14,23	13902,00
-7,14	47266,00
-0,05	38051,00
7,02	42597,00
14,09	37170,00
21,14	9726,00
28,19	4451,00
35,23	2902,00
42,27	2091,00
49,29	1813,00
56,31	1437,00
63,32	1164,00
70,32	1096,00
77,31	896,00
84,29	791,00
91,27	695,00
98,23	603,00
105,19	648,00
112,14	728,00
119,09	990,00
126,02	1440,00
132,95	1577,00
139,87	1588,00
146,78	1566,00
153,68	1485,00
160,58	1621,00
167,46	1653,00
174,34	1495,00
181,21	1478,00
188,08	1454,00
194,93	1546,00
201,78	1486,00
208,62	1499,00
215,45	1503,00
222,27	1603,00
229,09	1385,00
235,90	1511,00
242,70	1370,00
249,49	1418,00
256,27	1388,00
263,05	1311,00
269,82	1297,00
276,58	1343,00
283,33	1322,00
290,08	1480,00
296,82	1378,00
303,55	1246,00
310,27	1314,00
316,98	1110,00
323,69	1290,00
330,39	1279,00
337,08	1163,00
343,76	1176,00
350,44	1249,00
357,11	1087,00
363,77	1278,00
370,42	1195,00
377,07	1219,00
383,71	1036,00
390,34	1131,00
396,96	1179,00
403,58	1090,00
410,19	1195,00
416,79	1107,00
423,38	1212,00
429,97	1090,00
436,55	1057,00
443,12	1145,00
449,68	1096,00
456,24	1012,00
462,79	1164,00
469,33	925,00
475,86	1088,00
482,39	955,00
488,91	1041,00
495,42	992,00
501,93	1095,00
508,42	1165,00
514,91	1112,00
521,40	1065,00
527,87	1003,00
534,34	1005,00
540,80	1105,00
547,25	999,00
553,70	987,00
560,14	951,00
566,57	925,00
573,00	976,00
579,41	920,00
585,83	994,00
592,23	972,00
598,62	932,00
605,01	942,00
611,40	975,00
617,77	1091,00
624,14	937,00
630,50	900,00
636,85	874,00
643,20	856,00
649,54	1013,00
655,87	974,00
662,20	944,00
668,52	883,00
674,83	776,00
681,13	963,00
687,43	929,00
693,72	955,00
700,00	779,00
706,28	1000,00
712,55	891,00
718,81	952,00
725,07	924,00
731,32	887,00
737,56	1032,00
743,79	938,00
750,02	1002,00
756,24	939,00
762,46	967,00
768,67	1034,00
774,87	870,00
781,06	958,00
787,25	960,00
793,43	892,00
799,60	906,00
805,77	919,00
811,93	901,00
818,08	896,00
824,23	880,00
830,37	860,00
836,50	968,00
842,63	893,00
848,75	927,00
854,87	914,00
860,97	914,00
867,07	1156,00
873,17	916,00
879,25	834,00
885,33	1026,00
891,41	876,00
897,47	778,00
903,53	820,00
909,59	831,00
915,63	892,00
921,67	913,00
927,71	754,00
933,74	859,00
939,76	886,00
945,77	909,00
951,78	907,00
957,78	776,00
963,78	770,00
969,77	840,00
975,75	875,00
981,72	861,00
987,69	1291,00
993,66	910,00
999,61	923,00
1005,56	1016,00
1011,51	833,00
1017,44	759,00
1023,37	823,00
1029,30	926,00
1035,22	826,00
1041,13	1036,00
1047,03	1011,00
1052,93	1177,00
1058,83	1707,00
1064,71	1851,00
1070,59	1451,00
1076,47	1102,00
1082,33	1153,00
1088,20	1021,00
1094,05	1065,00
1099,90	989,00
1105,74	947,00
1111,58	973,00
1117,41	1140,00
1123,23	1527,00
1129,05	1926,00
1134,86	1683,00
1140,67	1354,00
1146,47	1195,00
1152,26	991,00
1158,05	978,00
1163,83	1044,00
1169,60	1015,00
1175,37	1034,00
1181,13	886,00
1186,89	958,00
1192,64	822,00
1198,38	878,00
1204,12	856,00
1209,85	777,00
1215,58	847,00
1221,30	944,00
1227,02	897,00
1232,72	880,00
1238,43	941,00
1244,12	936,00
1249,81	931,00
1255,50	991,00
1261,17	998,00
1266,85	1025,00
1272,51	1117,00
1278,17	1139,00
1283,83	1141,00
1289,47	1976,00
1295,12	2368,00
1300,75	2054,00
1306,38	1577,00
1312,01	1288,00
1317,63	1136,00
1323,24	1199,00
1328,85	1056,00
1334,45	939,00
1340,04	978,00
1345,63	1113,00
1351,22	1001,00
1356,80	1050,00
1362,37	1055,00
1367,93	1265,00
1373,49	988,00
1379,05	1179,00
1384,60	1090,00
1390,14	1193,00
1395,68	1120,00
1401,21	1131,00
1406,74	1124,00
1412,26	1606,00
1417,77	1528,00
1423,28	1610,00
1428,78	1808,00
1434,28	2009,00
1439,77	2330,00
1445,26	2292,00
1450,74	2276,00
1456,22	1920,00
1461,68	1900,00
1467,15	1666,00
1472,61	1589,00
1478,06	1383,00
1483,51	1172,00
1488,95	1148,00
1494,38	985,00
1499,81	794,00
1505,24	826,00
1510,65	965,00
1516,07	959,00
1521,48	827,00
1526,88	983,00
1532,27	907,00
1537,67	965,00
1543,05	938,00
1548,43	844,00
1553,81	769,00
1559,18	977,00
1564,54	867,00
1569,90	887,00
1575,25	843,00
1580,60	864,00
1585,94	771,00
1591,28	813,00
1596,61	759,00
1601,93	811,00
1607,25	812,00
1612,57	894,00
1617,88	860,00
1623,18	858,00
1628,48	759,00
1633,77	876,00
1639,06	889,00
1644,34	890,00
1649,62	767,00
1654,89	735,00
1660,16	739,00
1665,42	741,00
1670,67	788,00
1675,92	782,00
1681,17	825,00
1686,41	712,00
1691,64	886,00
1696,87	646,00
1702,10	719,00
1707,32	608,00
1712,53	701,00
1717,74	723,00
1722,94	681,00
1728,14	770,00
1733,33	778,00
1738,52	787,00
1743,70	743,00
1748,88	710,00
1754,05	756,00
1759,22	688,00
1764,38	618,00
1769,53	569,00
1774,69	639,00
1779,83	677,00
1784,97	656,00
1790,11	579,00
1795,24	651,00
1800,36	730,00
1805,48	721,00
1810,60	727,00
1815,71	571,00
1820,82	703,00
1825,92	760,00
1831,01	633,00
1836,10	745,00
1841,19	735,00
1846,26	645,00
1851,34	677,00
1856,41	647,00
1861,47	706,00
1866,53	633,00
1871,59	629,00
1876,64	701,00
1881,68	825,00
1886,72	612,00
1891,76	531,00
1896,79	699,00
1901,81	597,00
1906,83	636,00
1911,85	650,00
1916,86	580,00
1921,86	585,00
1926,86	709,00
1931,86	723,00
1936,85	665,00
1941,83	583,00
1946,81	757,00
1951,79	699,00
1956,76	498,00
1961,72	619,00
1966,68	608,00
1971,64	549,00
1976,59	656,00
1981,54	580,00
1986,48	480,00
1991,42	511,00
1996,35	660,00
2001,27	425,00
2006,20	738,00
2011,11	720,00
2016,03	599,00
2020,93	688,00
2025,84	525,00
2030,73	608,00
2035,63	531,00
2040,52	611,00
2045,40	542,00
2050,28	551,00
2055,15	537,00
2060,02	519,00
2064,89	655,00
2069,75	628,00
2074,60	630,00
2079,46	526,00
2084,30	649,00
2089,14	612,00
2093,98	568,00
2098,81	588,00
2103,64	533,00
2108,46	559,00
2113,28	677,00
2118,09	502,00
2122,90	627,00
2127,70	634,00
2132,50	591,00
2137,30	518,00
2142,09	598,00
2146,87	647,00
2151,66	688,00
2156,43	628,00
2161,20	611,00
2165,97	538,00
2170,73	626,00
2175,49	454,00
2180,24	696,00
2184,99	547,00
2189,74	609,00
2194,48	625,00
2199,21	428,00
2203,94	508,00
2208,67	536,00
2213,39	478,00
2218,11	501,00
2222,82	596,00
2227,53	498,00
2232,23	560,00
2236,93	577,00
2241,63	576,00
2246,32	624,00
2251,00	552,00
2255,68	540,00
2260,36	531,00
2265,03	366,00
2269,70	451,00
2274,36	512,00
2279,02	480,00
2283,68	438,00
2288,33	451,00
2292,97	395,00
2297,61	527,00
2302,25	472,00
2306,88	541,00
2311,51	481,00
2316,14	397,00
2320,75	539,00
2325,37	363,00
2329,98	542,00
2334,59	566,00
2339,19	483,00
2343,79	395,00
2348,38	506,00
2352,97	539,00
2357,55	559,00
2362,13	481,00
2366,71	478,00
2371,28	439,00
2375,85	657,00
2380,41	552,00
2384,97	499,00
2389,52	424,00
2394,07	494,00
2398,62	389,00
2403,16	486,00
2407,70	560,00
2412,23	607,00
2416,76	504,00
2421,29	442,00
2425,81	617,00
2430,32	514,00
2434,84	483,00
2439,34	471,00
2443,85	494,00
2448,35	484,00
2452,84	468,00
2457,33	528,00
2461,82	341,00
2466,30	475,00
2470,78	514,00
2475,25	397,00
2479,72	465,00
2484,19	539,00
2488,65	487,00
2493,11	363,00
2497,56	434,00
2502,01	342,00
2506,46	502,00
2510,90	481,00
2515,34	363,00
2519,77	416,00
2524,20	520,00
2528,62	434,00
2533,04	526,00
2537,46	446,00
2541,87	380,00
2546,28	469,00
2550,68	409,00
2555,08	394,00
2559,48	509,00
2563,87	478,00
2568,26	296,00
2572,64	371,00
2577,02	296,00
2581,40	397,00
2585,77	485,00
2590,14	384,00
2594,50	420,00
2598,86	486,00
2603,22	400,00
2607,57	348,00
2611,92	564,00
2616,26	449,00
2620,60	449,00
2624,94	370,00
2629,27	410,00
2633,60	463,00
2637,92	341,00
2642,24	493,00
2646,56	448,00
2650,87	476,00
2655,18	543,00
2659,48	387,00
2663,78	362,00
2668,08	409,00
2672,37	546,00
2676,66	462,00
2680,95	459,00
2685,23	350,00
2689,50	555,00
2693,78	408,00
2698,05	542,00
2702,31	458,00
2706,57	369,00
2710,83	454,00
2715,08	447,00
2719,33	521,00
2723,58	705,00
2727,82	456,00
2732,06	541,00
2736,29	476,00
2740,53	590,00
2744,75	471,00
2748,97	525,00
2753,19	535,00
2757,41	404,00
2761,62	473,00
2765,83	505,00
2770,03	465,00
2774,23	534,00
2778,43	505,00
2782,62	560,00
2786,81	486,00
2791,00	512,00
2795,18	556,00
2799,35	555,00
2803,53	495,00
2807,70	534,00
2811,86	586,00
2816,03	723,00
2820,19	700,00
2824,34	856,00
2828,49	860,00
2832,64	1047,00
2836,78	1221,00
2840,92	1613,00
2845,06	1831,00
2849,19	1938,00
2853,32	2198,00
2857,45	2181,00
2861,57	1965,00
2865,69	1857,00
2869,80	1981,00
2873,91	1933,00
2878,02	2018,00
2882,12	2325,00
2886,22	2349,00
2890,32	2016,00
2894,41	1937,00
2898,50	1681,00
2902,58	1585,00
2906,67	1352,00
2910,74	1369,00
2914,82	1240,00
2918,89	1335,00
2922,96	1131,00
2927,02	1117,00
2931,08	1047,00
2935,13	955,00
2939,19	849,00
2943,24	750,00
2947,28	664,00
2951,32	675,00
2955,36	751,00
2959,40	457,00
2963,43	527,00
2967,46	536,00
2971,48	366,00
2975,50	552,00
2979,52	432,00
2983,53	421,00
2987,54	372,00
2991,55	428,00
2995,55	325,00
2999,55	416,00
3003,54	345,00
3007,54	271,00
3011,53	332,00
3015,51	403,00
3019,49	108,00
3023,47	262,00
3027,45	400,00
3031,42	370,00
3035,39	292,00
3039,35	259,00
3043,31	293,00
3047,27	320,00
3051,22	282,00
3055,17	302,00
3059,12	240,00
3063,06	285,00
3067,00	271,00
3070,94	189,00
3074,87	172,00
3078,80	304,00
3082,73	237,00
3086,65	232,00
3090,57	164,00
3094,49	147,00
3098,40	183,00
3102,31	194,00
3106,22	213,00
3110,12	375,00
3114,02	153,00
3117,92	251,00
3121,81	163,00
3125,70	234,00
3129,58	112,00
3133,47	172,00
3137,34	200,00
3141,22	277,00
3145,09	258,00
3148,96	203,00
3152,83	189,00
3156,69	145,00
3160,55	210,00
3164,40	233,00
3168,26	137,00
3172,10	253,00
3175,95	110,00
3179,79	171,00
3183,63	143,00
3187,47	301,00
3191,30	197,00
3195,13	173,00
3198,95	115,00
3202,78	179,00
3206,60	190,00
3210,41	131,00
3214,23	204,00
3218,03	209,00
3221,84	49,00
3225,64	117,00
3229,44	261,00
3233,24	133,00
3237,03	282,00
3240,82	105,00
3244,61	138,00
3248,39	181,00
3252,17	299,00
3255,95	64,00
3259,72	192,00
3263,49	81,00
3267,26	206,00
3271,03	185,00
3274,79	53,00
3278,54	86,00
3282,30	186,00
3286,05	70,00
3289,80	-15,00
3293,54	75,00
3297,29	228,00
3301,02	194,00
3304,76	93,00
3308,49	142,00
3312,22	-5,00
3315,95	123,00
3319,67	265,00
3323,39	167,00
3327,10	174,00
3330,82	144,00
3334,53	232,00
3338,24	92,00
3341,94	140,00
3345,64	217,00
3349,34	120,00
3353,03	151,00
3356,72	171,00
3360,41	132,00
3364,10	297,00
3367,78	45,00
3371,46	71,00
3375,13	148,00
3378,81	193,00
3382,48	90,00
3386,14	59,00
3389,81	121,00
3393,47	207,00
3397,12	82,00
3400,78	174,00
3404,43	266,00
3408,08	99,00
3411,72	135,00
3415,36	202,00
3419,00	109,00
3422,64	193,00
3426,27	154,00
3429,90	139,00
3433,53	170,00
3437,15	18,00
3440,77	137,00
3444,39	184,00
3448,00	5,00
3451,62	115,00
3455,22	196,00
3458,83	86,00
3462,43	107,00
3466,03	82,00
3469,63	184,00
3473,22	181,00
3476,81	164,00
3480,40	130,00
3483,99	-20,00
3487,57	39,00
3491,15	40,00
3494,72	81,00
3498,29	109,00
3501,86	109,00
3505,43	19,00
3508,99	74,00
3512,56	166,00
3516,11	181,00
3519,67	61,00
3523,22	78,00
3526,77	69,00
3530,32	208,00
3533,86	122,00
3537,40	151,00
3540,94	220,00
3544,47	67,00
3548,00	-7,00
3551,53	103,00
3555,06	25,00
3558,58	73,00
3562,10	116,00
3565,62	164,00
3569,13	-14,00
3572,64	-4,00
3576,15	171,00
3579,66	11,00
3583,16	67,00
3586,66	35,00
3590,16	83,00
3593,65	16,00
3597,14	-38,00
3600,63	-10,00
3604,11	129,00
3607,60	14,00
3611,08	162,00
3614,55	16,00
3618,03	48,00
3621,50	161,00
3624,97	45,00
3628,43	0,00
3631,90	146,00
3635,36	180,00
3638,81	-29,00
3642,27	-29,00
3645,72	118,00
3649,17	22,00
3652,61	-6,00
3656,06	145,00
3659,50	-33,00
3662,93	56,00
3666,37	119,00
3669,80	35,00
3673,23	129,00
3676,65	83,00
3680,08	49,00
3683,50	64,00
3686,92	92,00
3690,33	1,00
3693,74	-78,00
3697,15	111,00
3700,56	33,00
3703,96	-45,00
3707,36	29,00
3710,76	-90,00
3714,16	119,00
3717,55	87,00
3720,94	128,00
3724,33	45,00
3727,71	-38,00
3731,10	159,00
3734,48	150,00
3737,85	11,00
3741,23	31,00
3744,60	-12,00
3747,97	63,00
3751,33	39,00
3754,69	-4,00
3758,05	204,00
3761,41	29,00
3764,77	89,00
3768,12	158,00
3771,47	144,00
3774,82	73,00
3778,16	-6,00
3781,50	2,00
3784,84	0,00
3788,18	8,00
>>>>>End Processed Spectral Data<<<<<
