SpectraSuite Data File
++++++++++++++++++++++++++++++++++++
Date: Tue Mar 03 12:40:40 ICT 2026
User: user
Dark Spectrum Present: Yes
Reference Spectrum Present: No
Number of Sampled Component Spectra: 1
Spectrometers: MAYP113682
Integration Time (usec): 3000000 (MAYP113682)
Spectra Averaged: 1 (MAYP113682)
Boxcar Smoothing: 0 (MAYP113682)
Correct for Electrical Dark: No (MAYP113682)
Strobe/Lamp Enabled: No (MAYP113682)
Correct for Detector Non-linearity: No (MAYP113682)
Correct for Stray Light: No (MAYP113682)
Number of Pixels in Processed Spectrum: 2068
>>>>>Begin Processed Spectral Data<<<<<
-37534,58	5,00
-37414,56	-1,00
-37295,11	0,00
-37176,24	-5,00
-37057,95	7,00
-36940,22	114,00
-36823,05	57,00
-36706,45	-32,00
-36590,40	182,00
-36474,90	87,00
-36359,95	60,00
-36245,55	189,00
-36131,68	59,00
-36018,35	56,00
-35905,55	74,00
-35793,29	147,00
-35681,54	191,00
-35570,32	84,00
-35459,62	8,00
-35349,43	50,00
-35239,75	218,00
-35130,58	49,00
-35021,91	76,00
-34913,74	143,00
-34806,07	177,00
-34698,89	112,00
-34592,20	77,00
-34486,00	105,00
-34380,28	24,00
-34275,04	25,00
-34170,27	98,00
-34065,98	-26,00
-33962,16	84,00
-33858,81	88,00
-33755,92	69,00
-33653,49	5,00
-33551,52	53,00
-33450,01	104,00
-33348,94	162,00
-33248,33	93,00
-33148,16	119,00
-33048,43	194,00
-32949,14	22,00
-32850,29	153,00
-32751,87	181,00
-32653,89	271,00
-32556,33	73,00
-32459,20	15,00
-32362,49	123,00
-32266,19	111,00
-32170,32	91,00
-32074,86	98,00
-31979,82	108,00
-31885,18	-28,00
-31790,95	92,00
-31697,12	116,00
-31603,69	55,00
-31510,67	140,00
-31418,04	54,00
-31325,80	200,00
-31233,95	102,00
-31142,49	64,00
-31051,42	129,00
-30960,73	108,00
-30870,43	108,00
-30780,50	192,00
-30690,95	74,00
-30601,77	187,00
-30512,97	-31,00
-30424,53	200,00
-30336,46	118,00
-30248,76	165,00
-30161,42	103,00
-30074,44	69,00
-29987,81	196,00
-29901,55	78,00
-29815,63	-12,00
-29730,07	35,00
-29644,86	25,00
-29560,00	167,00
-29475,48	67,00
-29391,30	68,00
-29307,47	179,00
-29223,97	145,00
-29140,81	84,00
-29057,99	123,00
-28975,50	104,00
-28893,34	83,00
-28811,51	90,00
-28730,00	228,00
-28648,82	9,00
-28567,97	41,00
-28487,43	57,00
-28407,21	128,00
-28327,32	-21,00
-28247,73	114,00
-28168,46	124,00
-28089,50	127,00
-28010,85	-37,00
-27932,51	194,00
-27854,48	83,00
-27776,75	47,00
-27699,32	103,00
-27622,19	252,00
-27545,37	47,00
-27468,84	-14,00
-27392,60	5,00
-27316,66	151,00
-27241,01	5,00
-27165,66	189,00
-27090,59	1,00
-27015,81	181,00
-26941,31	131,00
-26867,10	84,00
-26793,17	59,00
-26719,52	37,00
-26646,15	93,00
-26573,06	184,00
-26500,24	152,00
-26427,70	90,00
-26355,43	42,00
-26283,43	140,00
-26211,71	81,00
-26140,25	121,00
-26069,06	174,00
-25998,13	55,00
-25927,46	56,00
-25857,06	54,00
-25786,92	17,00
-25717,04	-50,00
-25647,42	100,00
-25578,05	59,00
-25508,94	64,00
-25440,09	122,00
-25371,48	101,00
-25303,13	47,00
-25235,02	197,00
-25167,17	-23,00
-25099,56	193,00
-25032,19	170,00
-24965,07	-34,00
-24898,20	34,00
-24831,56	200,00
-24765,17	-17,00
-24699,01	243,00
-24633,10	-21,00
-24567,41	36,00
-24501,97	87,00
-24436,75	-73,00
-24371,77	36,00
-24307,03	31,00
-24242,51	148,00
-24178,22	190,00
-24114,16	192,00
-24050,32	-10,00
-23986,71	120,00
-23923,32	144,00
-23860,16	34,00
-23797,22	79,00
-23734,50	-22,00
-23672,00	116,00
-23609,71	219,00
-23547,65	80,00
-23485,80	108,00
-23424,16	126,00
-23362,74	155,00
-23301,53	79,00
-23240,54	63,00
-23179,75	144,00
-23119,17	49,00
-23058,80	144,00
-22998,64	43,00
-22938,68	106,00
-22878,93	101,00
-22819,39	141,00
-22760,04	-26,00
-22700,90	20,00
-22641,96	-21,00
-22583,22	8,00
-22524,68	101,00
-22466,33	142,00
-22408,19	121,00
-22350,23	144,00
-22292,48	51,00
-22234,92	46,00
-22177,55	145,00
-22120,37	120,00
-22063,38	51,00
-22006,58	172,00
-21949,98	164,00
-21893,56	135,00
-21837,33	86,00
-21781,28	213,00
-21725,42	91,00
-21669,74	135,00
-21614,25	52,00
-21558,94	87,00
-21503,81	189,00
-21448,86	138,00
-21394,10	123,00
-21339,51	213,00
-21285,10	27,00
-21230,86	148,00
-21176,81	103,00
-21122,93	187,00
-21069,22	200,00
-21015,69	91,00
-20962,33	136,00
-20909,14	18,00
-20856,13	80,00
-20803,28	33,00
-20750,61	129,00
-20698,10	26,00
-20645,76	195,00
-20593,59	227,00
-20541,59	71,00
-20489,75	100,00
-20438,07	124,00
-20386,56	119,00
-20335,22	104,00
-20284,03	72,00
-20233,01	33,00
-20182,15	-79,00
-20131,45	120,00
-20080,91	50,00
-20030,52	124,00
-19980,30	16,00
-19930,23	138,00
-19880,32	115,00
-19830,56	229,00
-19780,96	27,00
-19731,52	167,00
-19682,23	-70,00
-19633,09	40,00
-19584,10	147,00
-19535,26	129,00
-19486,58	29,00
-19438,04	-48,00
-19389,66	50,00
-19341,42	111,00
-19293,33	-5,00
-19245,39	111,00
-19197,60	188,00
-19149,95	275,00
-19102,45	105,00
-19055,09	25,00
-19007,87	219,00
-18960,80	139,00
-18913,87	142,00
-18867,09	82,00
-18820,44	221,00
-18773,94	177,00
-18727,57	70,00
-18681,35	42,00
-18635,26	72,00
-18589,31	103,00
-18543,50	-48,00
-18497,83	16,00
-18452,29	68,00
-18406,89	175,00
-18361,63	53,00
-18316,50	21,00
-18271,50	85,00
-18226,63	114,00
-18181,90	131,00
-18137,30	133,00
-18092,84	57,00
-18048,50	62,00
-18004,29	106,00
-17960,22	183,00
-17916,27	90,00
-17872,45	152,00
-17828,76	-29,00
-17785,20	-15,00
-17741,77	-45,00
-17698,46	136,00
-17655,28	122,00
-17612,22	45,00
-17569,29	75,00
-17526,48	65,00
-17483,79	27,00
-17441,23	-25,00
-17398,79	70,00
-17356,48	48,00
-17314,28	243,00
-17272,21	99,00
-17230,26	77,00
-17188,42	142,00
-17146,71	153,00
-17105,12	43,00
-17063,64	93,00
-17022,28	153,00
-16981,04	-8,00
-16939,92	87,00
-16898,91	50,00
-16858,02	46,00
-16817,25	19,00
-16776,59	200,00
-16736,04	170,00
-16695,61	151,00
-16655,29	173,00
-16615,09	40,00
-16574,99	33,00
-16535,01	69,00
-16495,15	97,00
-16455,39	35,00
-16415,74	131,00
-16376,21	83,00
-16336,78	47,00
-16297,46	94,00
-16258,26	168,00
-16219,16	105,00
-16180,17	255,00
-16141,28	161,00
-16102,51	77,00
-16063,84	52,00
-16025,27	179,00
-15986,82	69,00
-15948,46	23,00
-15910,22	99,00
-15872,07	138,00
-15834,04	123,00
-15796,10	68,00
-15758,27	221,00
-15720,54	136,00
-15682,91	108,00
-15645,39	21,00
-15607,97	92,00
-15570,64	78,00
-15533,42	27,00
-15496,30	157,00
-15459,28	46,00
-15422,36	145,00
-15385,54	87,00
-15348,82	165,00
-15312,19	119,00
-15275,66	57,00
-15239,23	-51,00
-15202,90	119,00
-15166,67	113,00
-15130,53	-25,00
-15094,48	64,00
-15058,54	195,00
-15022,68	76,00
-14986,93	115,00
-14951,26	155,00
-14915,69	-50,00
-14880,22	157,00
-14844,84	65,00
-14809,55	52,00
-14774,35	62,00
-14739,25	215,00
-14704,24	66,00
-14669,32	61,00
-14634,49	138,00
-14599,75	198,00
-14565,10	167,00
-14530,55	117,00
-14496,08	186,00
-14461,70	192,00
-14427,41	25,00
-14393,21	-28,00
-14359,10	67,00
-14325,07	190,00
-14291,14	172,00
-14257,29	11,00
-14223,52	89,00
-14189,85	83,00
-14156,26	13,00
-14122,76	62,00
-14089,34	64,00
-14056,01	-2,00
-14022,76	89,00
-13989,60	128,00
-13956,52	119,00
-13923,53	117,00
-13890,62	-14,00
-13857,79	181,00
-13825,05	160,00
-13792,39	91,00
-13759,81	275,00
-13727,31	48,00
-13694,90	19,00
-13662,57	197,00
-13630,31	67,00
-13598,14	70,00
-13566,05	43,00
-13534,05	46,00
-13502,12	56,00
-13470,27	100,00
-13438,50	5,00
-13406,80	158,00
-13375,19	71,00
-13343,66	85,00
-13312,20	44,00
-13280,83	156,00
-13249,53	126,00
-13218,30	95,00
-13187,16	-55,00
-13156,09	19,00
-13125,10	206,00
-13094,18	144,00
-13063,34	53,00
-13032,58	62,00
-13001,89	-11,00
-12971,28	88,00
-12940,74	154,00
-12910,27	85,00
-12879,88	127,00
-12849,57	172,00
-12819,33	177,00
-12789,16	168,00
-12759,06	189,00
-12729,04	108,00
-12699,09	125,00
-12669,21	185,00
-12639,41	64,00
-12609,68	106,00
-12580,02	76,00
-12550,43	60,00
-12520,91	131,00
-12491,46	39,00
-12462,08	163,00
-12432,77	38,00
-12403,54	44,00
-12374,37	78,00
-12345,27	69,00
-12316,24	144,00
-12287,29	152,00
-12258,40	84,00
-12229,57	245,00
-12200,82	152,00
-12172,14	72,00
-12143,52	150,00
-12114,97	53,00
-12086,49	40,00
-12058,07	163,00
-12029,73	-45,00
-12001,44	11,00
-11973,23	71,00
-11945,08	143,00
-11917,00	65,00
-11888,98	141,00
-11861,03	44,00
-11833,15	178,00
-11805,32	81,00
-11777,57	29,00
-11749,88	141,00
-11722,25	59,00
-11694,69	68,00
-11667,19	69,00
-11639,75	-74,00
-11612,38	99,00
-11585,07	0,00
-11557,83	111,00
-11530,65	91,00
-11503,53	117,00
-11476,47	118,00
-11449,48	76,00
-11422,54	190,00
-11395,67	125,00
-11368,86	17,00
-11342,11	112,00
-11315,43	19,00
-11288,80	131,00
-11262,23	257,00
-11235,73	77,00
-11209,28	124,00
-11182,90	20,00
-11156,57	126,00
-11130,31	156,00
-11104,10	152,00
-11077,96	103,00
-11051,87	254,00
-11025,84	76,00
-10999,87	74,00
-10973,96	174,00
-10948,11	177,00
-10922,31	8,00
-10896,58	166,00
-10870,90	227,00
-10845,28	84,00
-10819,71	127,00
-10794,20	52,00
-10768,75	123,00
-10743,36	76,00
-10718,02	116,00
-10692,74	64,00
-10667,52	107,00
-10642,35	184,00
-10617,24	197,00
-10592,18	232,00
-10567,18	214,00
-10542,23	219,00
-10517,34	284,00
-10492,51	203,00
-10467,72	326,00
-10443,00	331,00
-10418,32	343,00
-10393,70	362,00
-10369,14	187,00
-10344,63	512,00
-10320,17	315,00
-10295,77	366,00
-10271,42	296,00
-10247,12	341,00
-10222,88	409,00
-10198,68	564,00
-10174,54	532,00
-10150,46	521,00
-10126,42	508,00
-10102,44	532,00
-10078,51	654,00
-10054,63	711,00
-10030,80	556,00
-10007,03	491,00
-9983,30	626,00
-9959,63	598,00
-9936,01	718,00
-9912,44	831,00
-9888,92	694,00
-9865,44	740,00
-9842,02	915,00
-9818,65	880,00
-9795,33	943,00
-9772,06	1011,00
-9748,84	901,00
-9725,67	984,00
-9702,55	1301,00
-9679,47	1484,00
-9656,45	1598,00
-9633,47	1559,00
-9610,55	1611,00
-9587,67	1670,00
-9564,84	1857,00
-9542,06	2094,00
-9519,32	2243,00
-9496,64	2485,00
-9474,00	2521,00
-9451,41	2715,00
-9428,87	2721,00
-9406,37	2591,00
-9383,92	2348,00
-9361,52	2247,00
-9339,17	2282,00
-9316,86	2560,00
-9294,60	2973,00
-9272,38	3297,00
-9250,21	3482,00
-9228,09	3586,00
-9206,01	3437,00
-9183,98	3085,00
-9162,00	2607,00
-9140,06	2549,00
-9118,16	2569,00
-9096,31	2655,00
-9074,51	2791,00
-9052,75	2688,00
-9031,04	2534,00
-9009,37	2309,00
-8987,74	2096,00
-8966,16	1811,00
-8944,63	1636,00
-8923,14	1446,00
-8901,69	1611,00
-8880,29	1877,00
-8858,93	2187,00
-8837,61	2284,00
-8816,34	2486,00
-8795,11	2527,00
-8773,92	2387,00
-8752,78	2105,00
-8731,68	1964,00
-8710,62	2046,00
-8689,61	2040,00
-8668,63	2108,00
-8647,70	2413,00
-8626,82	2296,00
-8605,97	2204,00
-8585,17	2126,00
-8564,41	1850,00
-8543,69	1758,00
-8523,01	1678,00
-8502,37	1738,00
-8481,78	1798,00
-8461,23	1805,00
-8440,71	2132,00
-8420,24	2139,00
-8399,81	2207,00
-8379,42	2304,00
-8359,08	2079,00
-8338,77	1789,00
-8318,50	1789,00
-8298,27	1646,00
-8278,09	1759,00
-8257,94	1770,00
-8237,83	2024,00
-8217,76	2085,00
-8197,74	2151,00
-8177,75	2058,00
-8157,80	1754,00
-8137,89	1724,00
-8118,02	1802,00
-8098,19	1533,00
-8078,40	1591,00
-8058,65	1806,00
-8038,93	1855,00
-8019,26	1708,00
-7999,62	1756,00
-7980,02	1738,00
-7960,46	1547,00
-7940,94	1600,00
-7921,46	1542,00
-7902,01	1504,00
-7882,60	1475,00
-7863,23	1504,00
-7843,90	1573,00
-7824,61	1678,00
-7805,35	1727,00
-7786,13	1915,00
-7766,95	1791,00
-7747,80	1563,00
-7728,69	1620,00
-7709,62	1502,00
-7690,59	1723,00
-7671,59	1811,00
-7652,63	1936,00
-7633,70	1788,00
-7614,81	1826,00
-7595,96	1623,00
-7577,15	1445,00
-7558,37	1395,00
-7539,62	1470,00
-7520,91	1754,00
-7502,24	1704,00
-7483,60	1852,00
-7465,00	1589,00
-7446,44	1480,00
-7427,91	1318,00
-7409,41	1249,00
-7390,95	1104,00
-7372,53	1121,00
-7354,14	1103,00
-7335,78	1108,00
-7317,46	1261,00
-7299,18	1385,00
-7280,92	1514,00
-7262,71	1661,00
-7244,52	1819,00
-7226,38	1614,00
-7208,26	1655,00
-7190,18	1588,00
-7172,14	1563,00
-7154,12	1465,00
-7136,15	1617,00
-7118,20	1669,00
-7100,29	1736,00
-7082,41	1646,00
-7064,57	1650,00
-7046,76	1545,00
-7028,98	1382,00
-7011,24	1172,00
-6993,53	963,00
-6975,85	967,00
-6958,20	876,00
-6940,59	885,00
-6923,01	780,00
-6905,46	1061,00
-6887,94	1137,00
-6870,46	-1469,00
-6853,01	1574,00
-6835,59	1544,00
-6818,21	1301,00
-6800,85	1093,00
-6783,53	1000,00
-6766,24	829,00
-6748,98	797,00
-6731,76	639,00
-6714,56	775,00
-6697,40	677,00
-6680,26	688,00
-6663,16	879,00
-6646,09	1025,00
-6629,05	1293,00
-6612,05	1320,00
-6595,07	1316,00
-6578,13	1174,00
-6561,21	1066,00
-6544,33	703,00
-6527,47	644,00
-6510,65	550,00
-6493,86	536,00
-6477,10	568,00
-6460,36	631,00
-6443,66	667,00
-6426,99	465,00
-6410,35	581,00
-6393,74	691,00
-6377,16	819,00
-6360,61	837,00
-6344,09	746,00
-6327,59	1102,00
-6311,13	844,00
-6294,70	956,00
-6278,29	1070,00
-6261,92	1067,00
-6245,58	1241,00
-6229,26	1214,00
-6212,97	1147,00
-6196,72	803,00
-6180,49	724,00
-6164,29	477,00
-6148,12	487,00
-6131,98	266,00
-6115,86	427,00
-6099,78	459,00
-6083,72	284,00
-6067,69	299,00
-6051,69	368,00
-6035,72	479,00
-6019,78	527,00
-6003,87	700,00
-5987,98	848,00
-5972,12	840,00
-5956,29	857,00
-5940,49	621,00
-5924,71	545,00
-5908,96	520,00
-5893,24	325,00
-5877,55	419,00
-5861,89	397,00
-5846,25	455,00
-5830,64	487,00
-5815,05	510,00
-5799,50	335,00
-5783,97	379,00
-5768,47	506,00
-5752,99	662,00
-5737,55	931,00
-5722,12	865,00
-5706,73	831,00
-5691,36	736,00
-5676,02	458,00
-5660,71	407,00
-5645,42	314,00
-5630,16	435,00
-5614,92	471,00
-5599,71	528,00
-5584,53	503,00
-5569,37	442,00
-5554,24	1631,00
-5539,14	480,00
-5524,06	403,00
-5509,01	582,00
-5493,98	613,00
-5478,98	630,00
-5464,00	536,00
-5449,05	534,00
-5434,13	302,00
-5419,23	382,00
-5404,36	386,00
-5389,51	602,00
-5374,69	707,00
-5359,89	888,00
-5345,12	809,00
-5330,37	842,00
-5315,65	649,00
-5300,95	632,00
-5286,28	426,00
-5271,63	459,00
-5257,01	601,00
-5242,41	606,00
-5227,84	584,00
-5213,29	486,00
-5198,76	198,00
-5184,26	243,00
-5169,79	317,00
-5155,33	471,00
-5140,91	449,00
-5126,51	640,00
-5112,13	673,00
-5097,77	517,00
-5083,44	396,00
-5069,13	237,00
-5054,85	365,00
-5040,59	485,00
-5026,36	485,00
-5012,15	561,00
-4997,96	447,00
-4983,80	353,00
-4969,66	202,00
-4955,54	329,00
-4941,44	458,00
-4927,37	794,00
-4913,33	764,00
-4899,30	793,00
-4885,30	915,00
-4871,33	516,00
-4857,37	297,00
-4843,44	276,00
-4829,53	328,00
-4815,65	597,00
-4801,79	400,00
-4787,95	404,00
-4774,13	384,00
-4760,34	332,00
-4746,56	5,00
-4732,82	288,00
-4719,09	376,00
-4705,38	643,00
-4691,70	786,00
-4678,04	783,00
-4664,41	454,00
-4650,79	426,00
-4637,20	352,00
-4623,63	223,00
-4610,08	470,00
-4596,56	513,00
-4583,05	433,00
-4569,57	455,00
-4556,11	147,00
-4542,67	212,00
-4529,25	330,00
-4515,86	393,00
-4502,49	684,00
-4489,13	642,00
-4475,80	587,00
-4462,49	422,00
-4449,21	328,00
-4435,94	252,00
-4422,70	208,00
-4409,47	447,00
-4396,27	480,00
-4383,09	277,00
-4369,93	196,00
-4356,79	103,00
-4343,67	305,00
-4330,58	333,00
-4317,50	379,00
-4304,45	425,00
-4291,41	228,00
-4278,40	278,00
-4265,41	128,00
-4252,44	287,00
-4239,49	432,00
-4226,55	319,00
-4213,65	288,00
-4200,76	294,00
-4187,89	146,00
-4175,04	116,00
-4162,21	239,00
-4149,40	60,00
-4136,61	11,00
-4123,85	85,00
-4111,10	94,00
-4098,37	182,00
-4085,66	259,00
-4072,98	161,00
-4060,31	120,00
-4047,66	300,00
-4035,04	93,00
-4022,43	63,00
-4009,84	92,00
-3997,27	25,00
-3984,72	77,00
-3972,19	82,00
-3959,69	201,00
-3947,20	6,00
-3934,73	122,00
-3922,27	35,00
-3909,84	-18,00
-3897,43	103,00
-3885,04	24,00
-3872,67	245,00
-3860,31	277,00
-3847,98	136,00
-3835,66	38,00
-3823,36	38,00
-3811,09	124,00
-3798,83	194,00
-3786,59	51,00
-3774,37	136,00
-3762,17	43,00
-3749,98	58,00
-3737,82	72,00
-3725,67	137,00
-3713,55	38,00
-3701,44	196,00
-3689,35	152,00
-3677,28	8,00
-3665,22	150,00
-3653,19	12,00
-3641,17	71,00
-3629,18	112,00
-3617,20	106,00
-3605,24	38,00
-3593,30	42,00
-3581,37	154,00
-3569,47	156,00
-3557,58	114,00
-3545,71	136,00
-3533,86	67,00
-3522,02	132,00
-3510,21	94,00
-3498,41	139,00
-3486,63	98,00
-3474,87	85,00
-3463,12	202,00
-3451,40	4,00
-3439,69	143,00
-3428,00	110,00
-3416,33	152,00
-3404,67	25,00
-3393,03	219,00
-3381,41	37,00
-3369,81	21,00
-3358,22	78,00
-3346,66	51,00
-3335,10	94,00
-3323,57	217,00
-3312,06	54,00
-3300,56	114,00
-3289,08	-44,00
-3277,61	90,00
-3266,16	68,00
-3254,73	97,00
-3243,32	127,00
-3231,92	97,00
-3220,55	40,00
-3209,18	126,00
-3197,84	102,00
-3186,51	49,00
-3175,20	84,00
-3163,90	209,00
-3152,63	129,00
-3141,36	108,00
-3130,12	116,00
-3118,89	79,00
-3107,68	3,00
-3096,49	174,00
-3085,31	146,00
-3074,15	180,00
-3063,00	102,00
-3051,87	133,00
-3040,76	54,00
-3029,67	165,00
-3018,59	132,00
-3007,52	153,00
-2996,48	83,00
-2985,44	174,00
-2974,43	233,00
-2963,43	101,00
-2952,45	93,00
-2941,48	123,00
-2930,53	51,00
-2919,60	94,00
-2908,68	290,00
-2897,78	136,00
-2886,89	104,00
-2876,02	62,00
-2865,17	-61,00
-2854,33	41,00
-2843,50	80,00
-2832,70	191,00
-2821,90	6,00
-2811,13	-47,00
-2800,37	48,00
-2789,62	99,00
-2778,89	63,00
-2768,18	124,00
-2757,48	153,00
-2746,80	142,00
-2736,13	102,00
-2725,48	106,00
-2714,84	21,00
-2704,22	54,00
-2693,61	111,00
-2683,02	214,00
-2672,45	82,00
-2661,89	63,00
-2651,34	106,00
-2640,81	136,00
-2630,30	131,00
-2619,80	123,00
-2609,31	47,00
-2598,84	60,00
-2588,39	231,00
-2577,95	80,00
-2567,52	84,00
-2557,11	101,00
-2546,71	38,00
-2536,33	78,00
-2525,97	85,00
-2515,62	127,00
-2505,28	17,00
-2494,96	64,00
-2484,65	24,00
-2474,36	36,00
-2464,08	113,00
-2453,82	189,00
-2443,57	56,00
-2433,33	13,00
-2423,11	129,00
-2412,91	49,00
-2402,72	112,00
-2392,54	97,00
-2382,38	73,00
-2372,23	92,00
-2362,09	-189,00
-2351,97	83,00
-2341,87	42,00
-2331,78	135,00
-2321,70	163,00
-2311,64	113,00
-2301,59	5,00
-2291,55	175,00
-2281,53	-21,00
-2271,53	166,00
-2261,53	15,00
-2251,55	136,00
-2241,59	139,00
-2231,64	47,00
-2221,70	103,00
-2211,78	63,00
-2201,87	84,00
-2191,97	39,00
-2182,09	152,00
-2172,22	233,00
-2162,37	165,00
-2152,53	53,00
-2142,70	103,00
-2132,89	128,00
-2123,09	43,00
-2113,30	226,00
-2103,53	117,00
-2093,77	75,00
-2084,02	-20,00
-2074,29	115,00
-2064,57	0,00
-2054,86	106,00
-2045,17	72,00
-2035,49	86,00
-2025,82	95,00
-2016,17	28,00
-2006,53	124,00
-1996,91	34,00
-1987,29	-27,00
-1977,69	111,00
-1968,11	136,00
-1958,53	252,00
-1948,97	62,00
-1939,42	64,00
-1929,89	-83,00
-1920,37	266,00
-1910,86	134,00
-1901,36	74,00
-1891,88	46,00
-1882,41	128,00
-1872,95	176,00
-1863,51	24,00
-1854,08	98,00
-1844,66	134,00
-1835,26	144,00
-1825,86	144,00
-1816,48	143,00
-1807,11	62,00
-1797,76	-28,00
-1788,42	160,00
-1779,09	196,00
-1769,77	106,00
-1760,47	109,00
-1751,17	103,00
-1741,89	81,00
-1732,63	70,00
-1723,37	-87,00
-1714,13	50,00
-1704,90	48,00
-1695,68	96,00
-1686,48	39,00
-1677,29	163,00
-1668,11	203,00
-1658,94	32,00
-1649,78	124,00
-1640,64	37,00
-1631,51	198,00
-1622,39	157,00
-1613,28	72,00
-1604,19	137,00
-1595,10	110,00
-1586,03	207,00
-1576,97	192,00
-1567,93	55,00
-1558,89	74,00
-1549,87	178,00
-1540,86	151,00
-1531,86	11,00
-1522,87	-28,00
-1513,90	130,00
-1504,93	138,00
-1495,98	10,00
-1487,04	75,00
-1478,12	189,00
-1469,20	137,00
-1460,30	235,00
-1451,40	208,00
-1442,52	1,00
-1433,65	-14,00
-1424,80	85,00
-1415,95	132,00
-1407,12	169,00
-1398,30	124,00
-1389,48	203,00
-1380,69	198,00
-1371,90	100,00
-1363,12	84,00
-1354,36	71,00
-1345,60	224,00
-1336,86	149,00
-1328,13	36,00
-1319,41	44,00
-1310,70	82,00
-1302,01	128,00
-1293,32	159,00
-1284,65	174,00
-1275,99	175,00
-1267,33	-54,00
-1258,69	85,00
-1250,06	220,00
-1241,45	104,00
-1232,84	281,00
-1224,25	-2,00
-1215,66	118,00
-1207,09	13,00
-1198,53	-2,00
-1189,97	233,00
-1181,43	144,00
-1172,91	93,00
-1164,39	45,00
-1155,88	89,00
-1147,38	62,00
-1138,90	125,00
-1130,43	104,00
-1121,96	-78,00
-1113,51	-16,00
-1105,07	100,00
-1096,64	174,00
-1088,22	205,00
-1079,81	140,00
-1071,41	108,00
-1063,02	22,00
-1054,65	150,00
-1046,28	115,00
-1037,92	149,00
-1029,58	109,00
-1021,24	42,00
-1012,92	260,00
-1004,61	187,00
-996,30	63,00
-988,01	-24,00
-979,73	197,00
-971,46	65,00
-963,20	129,00
-954,95	44,00
-946,71	51,00
-938,48	61,00
-930,26	1,00
-922,06	120,00
-913,86	153,00
-905,67	191,00
-897,49	158,00
-889,33	187,00
-881,17	160,00
-873,02	207,00
-864,89	134,00
-856,76	22,00
-848,65	142,00
-840,54	117,00
-832,45	59,00
-824,36	15,00
-816,29	23,00
-808,22	18,00
-800,17	192,00
-792,12	-4,00
-784,09	158,00
-776,06	27,00
-768,05	112,00
-760,04	118,00
-752,05	100,00
-744,07	201,00
-736,09	-9,00
-728,13	151,00
-720,17	195,00
-712,23	89,00
-704,29	-20,00
-696,37	44,00
-688,45	93,00
-680,55	104,00
-672,65	251,00
-664,77	50,00
-656,89	94,00
-649,03	129,00
-641,17	-18,00
-633,32	60,00
-625,49	62,00
-617,66	171,00
-609,84	34,00
-602,03	139,00
-594,23	85,00
-586,45	181,00
-578,67	71,00
-570,90	126,00
-563,14	130,00
-555,39	95,00
-547,65	82,00
-539,91	18,00
-532,19	112,00
-524,48	105,00
-516,78	162,00
-509,08	106,00
-501,40	41,00
-493,72	72,00
-486,06	114,00
-478,40	43,00
-470,76	146,00
-463,12	40,00
-455,49	156,00
-447,87	4,00
-440,26	101,00
-432,66	95,00
-425,07	53,00
-417,49	45,00
-409,92	162,00
-402,35	20,00
-394,80	168,00
-387,25	120,00
-379,72	115,00
-372,19	285,00
-364,67	259,00
-357,17	71,00
-349,67	50,00
-342,18	97,00
-334,69	172,00
-327,22	171,00
-319,76	-8,00
-312,30	97,00
-304,86	110,00
-297,42	162,00
-290,00	169,00
-282,58	104,00
-275,17	103,00
-267,77	193,00
-260,37	108,00
-252,99	169,00
-245,62	147,00
-238,25	177,00
-230,90	90,00
-223,55	290,00
-216,21	180,00
-208,88	173,00
-201,56	174,00
-194,25	284,00
-186,94	251,00
-179,65	264,00
-172,36	312,00
-165,08	218,00
-157,81	175,00
-150,55	237,00
-143,30	318,00
-136,06	379,00
-128,82	275,00
-121,60	476,00
-114,38	270,00
-107,17	306,00
-99,97	315,00
-92,78	582,00
-85,60	589,00
-78,42	695,00
-71,25	774,00
-64,10	878,00
-56,95	1142,00
-49,81	1251,00
-42,67	1487,00
-35,55	1832,00
-28,43	2495,00
-21,33	4418,00
-14,23	14448,00
-7,14	47266,00
-0,05	38051,00
7,02	42597,00
14,09	38611,00
21,14	10305,00
28,19	4576,00
35,23	3148,00
42,27	2283,00
49,29	1935,00
56,31	1502,00
63,32	1308,00
70,32	1166,00
77,31	1070,00
84,29	882,00
91,27	639,00
98,23	662,00
105,19	673,00
112,14	783,00
119,09	1025,00
126,02	1386,00
132,95	1559,00
139,87	1535,00
146,78	1536,00
153,68	1492,00
160,58	1525,00
167,46	1507,00
174,34	1423,00
181,21	1368,00
188,08	1389,00
194,93	1417,00
201,78	1390,00
208,62	1464,00
215,45	1453,00
222,27	1451,00
229,09	1296,00
235,90	1442,00
242,70	1297,00
249,49	1276,00
256,27	1308,00
263,05	1177,00
269,82	1204,00
276,58	1278,00
283,33	1135,00
290,08	1365,00
296,82	1159,00
303,55	1106,00
310,27	1271,00
316,98	1052,00
323,69	1227,00
330,39	1127,00
337,08	1172,00
343,76	1098,00
350,44	1059,00
357,11	1028,00
363,77	1079,00
370,42	1045,00
377,07	1152,00
383,71	1077,00
390,34	1017,00
396,96	1130,00
403,58	931,00
410,19	996,00
416,79	1023,00
423,38	1067,00
429,97	1116,00
436,55	1051,00
443,12	1015,00
449,68	963,00
456,24	1037,00
462,79	1028,00
469,33	929,00
475,86	1008,00
482,39	982,00
488,91	1046,00
495,42	804,00
501,93	980,00
508,42	1048,00
514,91	901,00
521,40	951,00
527,87	1029,00
534,34	848,00
540,80	970,00
547,25	802,00
553,70	892,00
560,14	823,00
566,57	854,00
573,00	843,00
579,41	838,00
585,83	880,00
592,23	910,00
598,62	850,00
605,01	813,00
611,40	801,00
617,77	911,00
624,14	899,00
630,50	940,00
636,85	752,00
643,20	790,00
649,54	858,00
655,87	919,00
662,20	880,00
668,52	862,00
674,83	745,00
681,13	896,00
687,43	844,00
693,72	754,00
700,00	823,00
706,28	797,00
712,55	903,00
718,81	920,00
725,07	917,00
731,32	853,00
737,56	952,00
743,79	884,00
750,02	1048,00
756,24	885,00
762,46	751,00
768,67	870,00
774,87	773,00
781,06	913,00
787,25	930,00
793,43	847,00
799,60	910,00
805,77	910,00
811,93	832,00
818,08	895,00
824,23	820,00
830,37	866,00
836,50	816,00
842,63	925,00
848,75	810,00
854,87	894,00
860,97	864,00
867,07	1016,00
873,17	897,00
879,25	952,00
885,33	892,00
891,41	878,00
897,47	738,00
903,53	747,00
909,59	813,00
915,63	977,00
921,67	816,00
927,71	779,00
933,74	830,00
939,76	800,00
945,77	737,00
951,78	812,00
957,78	822,00
963,78	660,00
969,77	671,00
975,75	736,00
981,72	783,00
987,69	946,00
993,66	887,00
999,61	777,00
1005,56	891,00
1011,51	690,00
1017,44	768,00
1023,37	800,00
1029,30	801,00
1035,22	873,00
1041,13	932,00
1047,03	1018,00
1052,93	1283,00
1058,83	1680,00
1064,71	1880,00
1070,59	1526,00
1076,47	1097,00
1082,33	1269,00
1088,20	1116,00
1094,05	846,00
1099,90	954,00
1105,74	944,00
1111,58	912,00
1117,41	1077,00
1123,23	1426,00
1129,05	1958,00
1134,86	1805,00
1140,67	1179,00
1146,47	1039,00
1152,26	986,00
1158,05	950,00
1163,83	932,00
1169,60	1010,00
1175,37	968,00
1181,13	748,00
1186,89	862,00
1192,64	846,00
1198,38	799,00
1204,12	760,00
1209,85	790,00
1215,58	766,00
1221,30	784,00
1227,02	769,00
1232,72	725,00
1238,43	749,00
1244,12	867,00
1249,81	869,00
1255,50	925,00
1261,17	960,00
1266,85	1002,00
1272,51	961,00
1278,17	1010,00
1283,83	1211,00
1289,47	1908,00
1295,12	2275,00
1300,75	1983,00
1306,38	1670,00
1312,01	1206,00
1317,63	1064,00
1323,24	1079,00
1328,85	1046,00
1334,45	1077,00
1340,04	818,00
1345,63	973,00
1351,22	1021,00
1356,80	924,00
1362,37	1139,00
1367,93	1117,00
1373,49	1143,00
1379,05	1024,00
1384,60	1034,00
1390,14	1016,00
1395,68	1005,00
1401,21	1014,00
1406,74	1050,00
1412,26	1386,00
1417,77	1555,00
1423,28	1526,00
1428,78	1592,00
1434,28	1946,00
1439,77	2355,00
1445,26	2251,00
1450,74	2108,00
1456,22	1870,00
1461,68	1820,00
1467,15	1742,00
1472,61	1549,00
1478,06	1310,00
1483,51	1095,00
1488,95	1156,00
1494,38	937,00
1499,81	886,00
1505,24	808,00
1510,65	779,00
1516,07	839,00
1521,48	781,00
1526,88	841,00
1532,27	804,00
1537,67	781,00
1543,05	942,00
1548,43	716,00
1553,81	804,00
1559,18	848,00
1564,54	762,00
1569,90	664,00
1575,25	802,00
1580,60	811,00
1585,94	755,00
1591,28	758,00
1596,61	730,00
1601,93	694,00
1607,25	779,00
1612,57	706,00
1617,88	820,00
1623,18	776,00
1628,48	743,00
1633,77	725,00
1639,06	830,00
1644,34	822,00
1649,62	623,00
1654,89	624,00
1660,16	614,00
1665,42	738,00
1670,67	706,00
1675,92	750,00
1681,17	691,00
1686,41	650,00
1691,64	690,00
1696,87	630,00
1702,10	701,00
1707,32	620,00
1712,53	653,00
1717,74	686,00
1722,94	506,00
1728,14	712,00
1733,33	720,00
1738,52	734,00
1743,70	737,00
1748,88	644,00
1754,05	692,00
1759,22	604,00
1764,38	-1150,00
1769,53	649,00
1774,69	548,00
1779,83	649,00
1784,97	574,00
1790,11	659,00
1795,24	583,00
1800,36	663,00
1805,48	649,00
1810,60	754,00
1815,71	523,00
1820,82	665,00
1825,92	637,00
1831,01	705,00
1836,10	634,00
1841,19	661,00
1846,26	580,00
1851,34	608,00
1856,41	567,00
1861,47	562,00
1866,53	622,00
1871,59	560,00
1876,64	671,00
1881,68	634,00
1886,72	632,00
1891,76	577,00
1896,79	709,00
1901,81	562,00
1906,83	604,00
1911,85	584,00
1916,86	577,00
1921,86	564,00
1926,86	601,00
1931,86	648,00
1936,85	569,00
1941,83	529,00
1946,81	649,00
1951,79	672,00
1956,76	490,00
1961,72	608,00
1966,68	484,00
1971,64	599,00
1976,59	632,00
1981,54	543,00
1986,48	446,00
1991,42	511,00
1996,35	592,00
2001,27	423,00
2006,20	744,00
2011,11	639,00
2016,03	586,00
2020,93	557,00
2025,84	499,00
2030,73	517,00
2035,63	498,00
2040,52	601,00
2045,40	495,00
2050,28	463,00
2055,15	475,00
2060,02	587,00
2064,89	561,00
2069,75	527,00
2074,60	574,00
2079,46	502,00
2084,30	605,00
2089,14	452,00
2093,98	524,00
2098,81	538,00
2103,64	523,00
2108,46	486,00
2113,28	564,00
2118,09	499,00
2122,90	530,00
2127,70	515,00
2132,50	539,00
2137,30	521,00
2142,09	579,00
2146,87	456,00
2151,66	478,00
2156,43	623,00
2161,20	523,00
2165,97	562,00
2170,73	567,00
2175,49	428,00
2180,24	526,00
2184,99	493,00
2189,74	575,00
2194,48	618,00
2199,21	458,00
2203,94	593,00
2208,67	422,00
2213,39	345,00
2218,11	383,00
2222,82	534,00
2227,53	453,00
2232,23	397,00
2236,93	531,00
2241,63	447,00
2246,32	415,00
2251,00	425,00
2255,68	558,00
2260,36	406,00
2265,03	447,00
2269,70	452,00
2274,36	575,00
2279,02	491,00
2283,68	397,00
2288,33	491,00
2292,97	485,00
2297,61	558,00
2302,25	379,00
2306,88	488,00
2311,51	471,00
2316,14	444,00
2320,75	580,00
2325,37	380,00
2329,98	469,00
2334,59	526,00
2339,19	554,00
2343,79	400,00
2348,38	536,00
2352,97	455,00
2357,55	602,00
2362,13	479,00
2366,71	412,00
2371,28	438,00
2375,85	484,00
2380,41	488,00
2384,97	479,00
2389,52	312,00
2394,07	528,00
2398,62	388,00
2403,16	455,00
2407,70	416,00
2412,23	491,00
2416,76	462,00
2421,29	359,00
2425,81	597,00
2430,32	398,00
2434,84	304,00
2439,34	450,00
2443,85	347,00
2448,35	499,00
2452,84	420,00
2457,33	494,00
2461,82	380,00
2466,30	437,00
2470,78	468,00
2475,25	266,00
2479,72	399,00
2484,19	413,00
2488,65	463,00
2493,11	370,00
2497,56	394,00
2502,01	367,00
2506,46	511,00
2510,90	388,00
2515,34	392,00
2519,77	473,00
2524,20	410,00
2528,62	518,00
2533,04	392,00
2537,46	468,00
2541,87	287,00
2546,28	363,00
2550,68	346,00
2555,08	439,00
2559,48	381,00
2563,87	454,00
2568,26	277,00
2572,64	246,00
2577,02	408,00
2581,40	447,00
2585,77	368,00
2590,14	445,00
2594,50	400,00
2598,86	376,00
2603,22	345,00
2607,57	305,00
2611,92	368,00
2616,26	468,00
2620,60	480,00
2624,94	443,00
2629,27	378,00
2633,60	388,00
2637,92	372,00
2642,24	354,00
2646,56	510,00
2650,87	502,00
2655,18	531,00
2659,48	401,00
2663,78	386,00
2668,08	523,00
2672,37	458,00
2676,66	404,00
2680,95	452,00
2685,23	426,00
2689,50	432,00
2693,78	459,00
2698,05	574,00
2702,31	421,00
2706,57	394,00
2710,83	475,00
2715,08	406,00
2719,33	638,00
2723,58	665,00
2727,82	483,00
2732,06	653,00
2736,29	646,00
2740,53	573,00
2744,75	519,00
2748,97	385,00
2753,19	592,00
2757,41	431,00
2761,62	372,00
2765,83	526,00
2770,03	470,00
2774,23	466,00
2778,43	553,00
2782,62	687,00
2786,81	505,00
2791,00	584,00
2795,18	720,00
2799,35	535,00
2803,53	518,00
2807,70	726,00
2811,86	565,00
2816,03	714,00
2820,19	698,00
2824,34	797,00
2828,49	702,00
2832,64	1095,00
2836,78	1224,00
2840,92	1562,00
2845,06	1874,00
2849,19	2081,00
2853,32	2174,00
2857,45	2233,00
2861,57	2076,00
2865,69	1948,00
2869,80	1987,00
2873,91	1946,00
2878,02	2088,00
2882,12	2223,00
2886,22	2390,00
2890,32	2066,00
2894,41	2058,00
2898,50	1830,00
2902,58	1700,00
2906,67	1591,00
2910,74	1434,00
2914,82	1462,00
2918,89	1341,00
2922,96	1233,00
2927,02	1077,00
2931,08	1090,00
2935,13	968,00
2939,19	849,00
2943,24	824,00
2947,28	709,00
2951,32	767,00
2955,36	589,00
2959,40	566,00
2963,43	512,00
2967,46	618,00
2971,48	425,00
2975,50	583,00
2979,52	361,00
2983,53	329,00
2987,54	508,00
2991,55	398,00
2995,55	270,00
2999,55	412,00
3003,54	405,00
3007,54	287,00
3011,53	307,00
3015,51	391,00
3019,49	209,00
3023,47	316,00
3027,45	325,00
3031,42	376,00
3035,39	227,00
3039,35	233,00
3043,31	355,00
3047,27	308,00
3051,22	301,00
3055,17	325,00
3059,12	221,00
3063,06	299,00
3067,00	214,00
3070,94	247,00
3074,87	357,00
3078,80	348,00
3082,73	301,00
3086,65	160,00
3090,57	228,00
3094,49	250,00
3098,40	342,00
3102,31	272,00
3106,22	259,00
3110,12	348,00
3114,02	131,00
3117,92	225,00
3121,81	218,00
3125,70	150,00
3129,58	258,00
3133,47	164,00
3137,34	229,00
3141,22	251,00
3145,09	316,00
3148,96	180,00
3152,83	297,00
3156,69	252,00
3160,55	244,00
3164,40	212,00
3168,26	79,00
3172,10	229,00
3175,95	209,00
3179,79	125,00
3183,63	124,00
3187,47	192,00
3191,30	147,00
3195,13	233,00
3198,95	154,00
3202,78	255,00
3206,60	285,00
3210,41	129,00
3214,23	154,00
3218,03	272,00
3221,84	128,00
3225,64	179,00
3229,44	261,00
3233,24	190,00
3237,03	161,00
3240,82	150,00
3244,61	102,00
3248,39	175,00
3252,17	256,00
3255,95	80,00
3259,72	235,00
3263,49	102,00
3267,26	221,00
3271,03	163,00
3274,79	218,00
3278,54	231,00
3282,30	210,00
3286,05	104,00
3289,80	56,00
3293,54	130,00
3297,29	226,00
3301,02	191,00
3304,76	165,00
3308,49	220,00
3312,22	72,00
3315,95	11,00
3319,67	294,00
3323,39	196,00
3327,10	248,00
3330,82	108,00
3334,53	213,00
3338,24	309,00
3341,94	186,00
3345,64	250,00
3349,34	148,00
3353,03	277,00
3356,72	267,00
3360,41	197,00
3364,10	315,00
3367,78	167,00
3371,46	88,00
3375,13	211,00
3378,81	180,00
3382,48	142,00
3386,14	71,00
3389,81	179,00
3393,47	176,00
3397,12	90,00
3400,78	114,00
3404,43	388,00
3408,08	182,00
3411,72	91,00
3415,36	92,00
3419,00	103,00
3422,64	122,00
3426,27	160,00
3429,90	153,00
3433,53	146,00
3437,15	239,00
3440,77	190,00
3444,39	169,00
3448,00	-31,00
3451,62	178,00
3455,22	77,00
3458,83	166,00
3462,43	164,00
3466,03	-28,00
3469,63	131,00
3473,22	137,00
3476,81	170,00
3480,40	74,00
3483,99	25,00
3487,57	65,00
3491,15	144,00
3494,72	81,00
3498,29	73,00
3501,86	141,00
3505,43	34,00
3508,99	146,00
3512,56	174,00
3516,11	220,00
3519,67	101,00
3523,22	127,00
3526,77	81,00
3530,32	193,00
3533,86	162,00
3537,40	52,00
3540,94	123,00
3544,47	190,00
3548,00	85,00
3551,53	79,00
3555,06	105,00
3558,58	160,00
3562,10	165,00
3565,62	233,00
3569,13	54,00
3572,64	-21,00
3576,15	23,00
3579,66	106,00
3583,16	24,00
3586,66	95,00
3590,16	145,00
3593,65	169,00
3597,14	178,00
3600,63	138,00
3604,11	96,00
3607,60	101,00
3611,08	155,00
3614,55	19,00
3618,03	159,00
3621,50	212,00
3624,97	78,00
3628,43	26,00
3631,90	63,00
3635,36	169,00
3638,81	39,00
3642,27	86,00
3645,72	136,00
3649,17	87,00
3652,61	-15,00
3656,06	164,00
3659,50	39,00
3662,93	107,00
3666,37	93,00
3669,80	48,00
3673,23	224,00
3676,65	281,00
3680,08	88,00
3683,50	57,00
3686,92	158,00
3690,33	54,00
3693,74	-23,00
3697,15	92,00
3700,56	-8,00
3703,96	40,00
3707,36	65,00
3710,76	16,00
3714,16	183,00
3717,55	101,00
3720,94	179,00
3724,33	90,00
3727,71	20,00
3731,10	125,00
3734,48	94,00
3737,85	85,00
3741,23	2,00
3744,60	48,00
3747,97	106,00
3751,33	104,00
3754,69	37,00
3758,05	197,00
3761,41	69,00
3764,77	107,00
3768,12	119,00
3771,47	111,00
3774,82	59,00
3778,16	1,00
3781,50	1,00
3784,84	1,00
3788,18	6,00
>>>>>End Processed Spectral Data<<<<<
