SpectraSuite Data File
++++++++++++++++++++++++++++++++++++
Date: Tue Mar 03 12:34:10 ICT 2026
User: user
Dark Spectrum Present: Yes
Reference Spectrum Present: No
Number of Sampled Component Spectra: 1
Spectrometers: MAYP113682
Integration Time (usec): 3000000 (MAYP113682)
Spectra Averaged: 1 (MAYP113682)
Boxcar Smoothing: 0 (MAYP113682)
Correct for Electrical Dark: No (MAYP113682)
Strobe/Lamp Enabled: No (MAYP113682)
Correct for Detector Non-linearity: No (MAYP113682)
Correct for Stray Light: No (MAYP113682)
Number of Pixels in Processed Spectrum: 2068
>>>>>Begin Processed Spectral Data<<<<<
-37534,58	1,00
-37414,56	-3,00
-37295,11	-3,00
-37176,24	-3,00
-37057,95	-9,00
-36940,22	-46,00
-36823,05	93,00
-36706,45	-18,00
-36590,40	154,00
-36474,90	-3,00
-36359,95	39,00
-36245,55	134,00
-36131,68	-12,00
-36018,35	41,00
-35905,55	72,00
-35793,29	129,00
-35681,54	22,00
-35570,32	24,00
-35459,62	-26,00
-35349,43	39,00
-35239,75	203,00
-35130,58	166,00
-35021,91	9,00
-34913,74	135,00
-34806,07	38,00
-34698,89	90,00
-34592,20	-64,00
-34486,00	70,00
-34380,28	38,00
-34275,04	14,00
-34170,27	-7,00
-34065,98	59,00
-33962,16	-20,00
-33858,81	141,00
-33755,92	134,00
-33653,49	87,00
-33551,52	105,00
-33450,01	67,00
-33348,94	-57,00
-33248,33	69,00
-33148,16	54,00
-33048,43	38,00
-32949,14	96,00
-32850,29	49,00
-32751,87	120,00
-32653,89	128,00
-32556,33	-6,00
-32459,20	9,00
-32362,49	108,00
-32266,19	90,00
-32170,32	77,00
-32074,86	4,00
-31979,82	48,00
-31885,18	-32,00
-31790,95	-43,00
-31697,12	138,00
-31603,69	29,00
-31510,67	87,00
-31418,04	162,00
-31325,80	162,00
-31233,95	159,00
-31142,49	-28,00
-31051,42	62,00
-30960,73	6,00
-30870,43	102,00
-30780,50	125,00
-30690,95	18,00
-30601,77	125,00
-30512,97	141,00
-30424,53	104,00
-30336,46	117,00
-30248,76	96,00
-30161,42	-8,00
-30074,44	69,00
-29987,81	165,00
-29901,55	94,00
-29815,63	76,00
-29730,07	57,00
-29644,86	52,00
-29560,00	128,00
-29475,48	39,00
-29391,30	36,00
-29307,47	135,00
-29223,97	72,00
-29140,81	48,00
-29057,99	156,00
-28975,50	141,00
-28893,34	80,00
-28811,51	17,00
-28730,00	154,00
-28648,82	-15,00
-28567,97	-24,00
-28487,43	19,00
-28407,21	-36,00
-28327,32	-130,00
-28247,73	-54,00
-28168,46	72,00
-28089,50	96,00
-28010,85	-41,00
-27932,51	184,00
-27854,48	-87,00
-27776,75	-19,00
-27699,32	-39,00
-27622,19	236,00
-27545,37	97,00
-27468,84	40,00
-27392,60	144,00
-27316,66	30,00
-27241,01	-82,00
-27165,66	123,00
-27090,59	-53,00
-27015,81	178,00
-26941,31	116,00
-26867,10	124,00
-26793,17	137,00
-26719,52	61,00
-26646,15	87,00
-26573,06	164,00
-26500,24	123,00
-26427,70	47,00
-26355,43	225,00
-26283,43	46,00
-26211,71	71,00
-26140,25	57,00
-26069,06	4,00
-25998,13	-46,00
-25927,46	61,00
-25857,06	70,00
-25786,92	84,00
-25717,04	-26,00
-25647,42	-48,00
-25578,05	54,00
-25508,94	100,00
-25440,09	55,00
-25371,48	33,00
-25303,13	15,00
-25235,02	78,00
-25167,17	-58,00
-25099,56	176,00
-25032,19	19,00
-24965,07	-18,00
-24898,20	50,00
-24831,56	0,00
-24765,17	114,00
-24699,01	137,00
-24633,10	134,00
-24567,41	-47,00
-24501,97	19,00
-24436,75	32,00
-24371,77	-10,00
-24307,03	25,00
-24242,51	26,00
-24178,22	24,00
-24114,16	-36,00
-24050,32	44,00
-23986,71	-56,00
-23923,32	89,00
-23860,16	18,00
-23797,22	162,00
-23734,50	-30,00
-23672,00	103,00
-23609,71	336,00
-23547,65	2,00
-23485,80	115,00
-23424,16	12,00
-23362,74	90,00
-23301,53	-58,00
-23240,54	61,00
-23179,75	60,00
-23119,17	112,00
-23058,80	123,00
-22998,64	34,00
-22938,68	151,00
-22878,93	21,00
-22819,39	62,00
-22760,04	-50,00
-22700,90	85,00
-22641,96	72,00
-22583,22	-28,00
-22524,68	63,00
-22466,33	2,00
-22408,19	19,00
-22350,23	72,00
-22292,48	38,00
-22234,92	87,00
-22177,55	88,00
-22120,37	92,00
-22063,38	76,00
-22006,58	81,00
-21949,98	40,00
-21893,56	152,00
-21837,33	64,00
-21781,28	122,00
-21725,42	34,00
-21669,74	101,00
-21614,25	86,00
-21558,94	87,00
-21503,81	67,00
-21448,86	8,00
-21394,10	51,00
-21339,51	86,00
-21285,10	65,00
-21230,86	-1,00
-21176,81	136,00
-21122,93	103,00
-21069,22	163,00
-21015,69	115,00
-20962,33	66,00
-20909,14	-10,00
-20856,13	117,00
-20803,28	-54,00
-20750,61	59,00
-20698,10	110,00
-20645,76	32,00
-20593,59	176,00
-20541,59	93,00
-20489,75	66,00
-20438,07	57,00
-20386,56	92,00
-20335,22	104,00
-20284,03	100,00
-20233,01	-39,00
-20182,15	-35,00
-20131,45	92,00
-20080,91	38,00
-20030,52	113,00
-19980,30	-24,00
-19930,23	22,00
-19880,32	40,00
-19830,56	225,00
-19780,96	68,00
-19731,52	37,00
-19682,23	-18,00
-19633,09	17,00
-19584,10	135,00
-19535,26	72,00
-19486,58	47,00
-19438,04	48,00
-19389,66	27,00
-19341,42	-12,00
-19293,33	12,00
-19245,39	-4,00
-19197,60	66,00
-19149,95	102,00
-19102,45	-17,00
-19055,09	88,00
-19007,87	147,00
-18960,80	88,00
-18913,87	-19,00
-18867,09	36,00
-18820,44	96,00
-18773,94	83,00
-18727,57	105,00
-18681,35	2,00
-18635,26	16,00
-18589,31	167,00
-18543,50	75,00
-18497,83	45,00
-18452,29	-65,00
-18406,89	120,00
-18361,63	58,00
-18316,50	-5,00
-18271,50	69,00
-18226,63	125,00
-18181,90	46,00
-18137,30	108,00
-18092,84	62,00
-18048,50	55,00
-18004,29	66,00
-17960,22	225,00
-17916,27	11,00
-17872,45	59,00
-17828,76	-44,00
-17785,20	-37,00
-17741,77	32,00
-17698,46	3,00
-17655,28	44,00
-17612,22	-79,00
-17569,29	133,00
-17526,48	31,00
-17483,79	34,00
-17441,23	-77,00
-17398,79	75,00
-17356,48	76,00
-17314,28	202,00
-17272,21	56,00
-17230,26	-43,00
-17188,42	155,00
-17146,71	177,00
-17105,12	-60,00
-17063,64	12,00
-17022,28	87,00
-16981,04	-47,00
-16939,92	123,00
-16898,91	-47,00
-16858,02	-14,00
-16817,25	31,00
-16776,59	168,00
-16736,04	184,00
-16695,61	160,00
-16655,29	60,00
-16615,09	13,00
-16574,99	42,00
-16535,01	-4,00
-16495,15	55,00
-16455,39	-5,00
-16415,74	0,00
-16376,21	54,00
-16336,78	-19,00
-16297,46	39,00
-16258,26	105,00
-16219,16	21,00
-16180,17	38,00
-16141,28	119,00
-16102,51	11,00
-16063,84	-15,00
-16025,27	107,00
-15986,82	5,00
-15948,46	-47,00
-15910,22	33,00
-15872,07	37,00
-15834,04	59,00
-15796,10	90,00
-15758,27	92,00
-15720,54	100,00
-15682,91	51,00
-15645,39	9,00
-15607,97	102,00
-15570,64	18,00
-15533,42	44,00
-15496,30	107,00
-15459,28	46,00
-15422,36	19,00
-15385,54	64,00
-15348,82	172,00
-15312,19	-42,00
-15275,66	-3,00
-15239,23	-35,00
-15202,90	20,00
-15166,67	94,00
-15130,53	-16,00
-15094,48	66,00
-15058,54	41,00
-15022,68	54,00
-14986,93	100,00
-14951,26	48,00
-14915,69	-48,00
-14880,22	139,00
-14844,84	-70,00
-14809,55	-14,00
-14774,35	102,00
-14739,25	120,00
-14704,24	-73,00
-14669,32	-18,00
-14634,49	144,00
-14599,75	33,00
-14565,10	169,00
-14530,55	125,00
-14496,08	92,00
-14461,70	84,00
-14427,41	-33,00
-14393,21	12,00
-14359,10	29,00
-14325,07	43,00
-14291,14	53,00
-14257,29	70,00
-14223,52	128,00
-14189,85	31,00
-14156,26	-12,00
-14122,76	-29,00
-14089,34	104,00
-14056,01	87,00
-14022,76	133,00
-13989,60	36,00
-13956,52	89,00
-13923,53	96,00
-13890,62	-10,00
-13857,79	76,00
-13825,05	48,00
-13792,39	29,00
-13759,81	164,00
-13727,31	80,00
-13694,90	-18,00
-13662,57	117,00
-13630,31	15,00
-13598,14	142,00
-13566,05	95,00
-13534,05	35,00
-13502,12	70,00
-13470,27	68,00
-13438,50	27,00
-13406,80	239,00
-13375,19	-13,00
-13343,66	-57,00
-13312,20	-25,00
-13280,83	73,00
-13249,53	91,00
-13218,30	119,00
-13187,16	-125,00
-13156,09	-127,00
-13125,10	132,00
-13094,18	103,00
-13063,34	49,00
-13032,58	102,00
-13001,89	-31,00
-12971,28	86,00
-12940,74	78,00
-12910,27	123,00
-12879,88	-62,00
-12849,57	170,00
-12819,33	101,00
-12789,16	-31,00
-12759,06	67,00
-12729,04	-26,00
-12699,09	-56,00
-12669,21	76,00
-12639,41	3,00
-12609,68	34,00
-12580,02	0,00
-12550,43	-19,00
-12520,91	30,00
-12491,46	78,00
-12462,08	68,00
-12432,77	145,00
-12403,54	-72,00
-12374,37	-50,00
-12345,27	14,00
-12316,24	1,00
-12287,29	79,00
-12258,40	63,00
-12229,57	81,00
-12200,82	145,00
-12172,14	-56,00
-12143,52	131,00
-12114,97	-6,00
-12086,49	52,00
-12058,07	12,00
-12029,73	-45,00
-12001,44	47,00
-11973,23	-23,00
-11945,08	49,00
-11917,00	141,00
-11888,98	169,00
-11861,03	0,00
-11833,15	156,00
-11805,32	20,00
-11777,57	21,00
-11749,88	74,00
-11722,25	69,00
-11694,69	74,00
-11667,19	-56,00
-11639,75	-76,00
-11612,38	32,00
-11585,07	36,00
-11557,83	78,00
-11530,65	-29,00
-11503,53	128,00
-11476,47	84,00
-11449,48	74,00
-11422,54	80,00
-11395,67	112,00
-11368,86	68,00
-11342,11	-81,00
-11315,43	8,00
-11288,80	109,00
-11262,23	104,00
-11235,73	89,00
-11209,28	58,00
-11182,90	-55,00
-11156,57	51,00
-11130,31	105,00
-11104,10	112,00
-11077,96	125,00
-11051,87	101,00
-11025,84	90,00
-10999,87	169,00
-10973,96	62,00
-10948,11	95,00
-10922,31	-11,00
-10896,58	128,00
-10870,90	154,00
-10845,28	130,00
-10819,71	75,00
-10794,20	-12,00
-10768,75	141,00
-10743,36	18,00
-10718,02	134,00
-10692,74	110,00
-10667,52	168,00
-10642,35	124,00
-10617,24	216,00
-10592,18	154,00
-10567,18	254,00
-10542,23	142,00
-10517,34	249,00
-10492,51	115,00
-10467,72	285,00
-10443,00	300,00
-10418,32	161,00
-10393,70	274,00
-10369,14	276,00
-10344,63	336,00
-10320,17	256,00
-10295,77	289,00
-10271,42	285,00
-10247,12	257,00
-10222,88	363,00
-10198,68	386,00
-10174,54	418,00
-10150,46	443,00
-10126,42	436,00
-10102,44	491,00
-10078,51	502,00
-10054,63	600,00
-10030,80	490,00
-10007,03	579,00
-9983,30	496,00
-9959,63	587,00
-9936,01	711,00
-9912,44	695,00
-9888,92	763,00
-9865,44	670,00
-9842,02	802,00
-9818,65	712,00
-9795,33	688,00
-9772,06	835,00
-9748,84	910,00
-9725,67	988,00
-9702,55	1161,00
-9679,47	1217,00
-9656,45	1355,00
-9633,47	1470,00
-9610,55	1554,00
-9587,67	1489,00
-9564,84	1758,00
-9542,06	1738,00
-9519,32	2100,00
-9496,64	2248,00
-9474,00	2432,00
-9451,41	2522,00
-9428,87	2476,00
-9406,37	2365,00
-9383,92	2176,00
-9361,52	2104,00
-9339,17	2015,00
-9316,86	2492,00
-9294,60	2847,00
-9272,38	2938,00
-9250,21	3160,00
-9228,09	3256,00
-9206,01	3164,00
-9183,98	2822,00
-9162,00	2314,00
-9140,06	2357,00
-9118,16	2307,00
-9096,31	2490,00
-9074,51	2535,00
-9052,75	2437,00
-9031,04	2406,00
-9009,37	2093,00
-8987,74	1828,00
-8966,16	1720,00
-8944,63	1614,00
-8923,14	1273,00
-8901,69	1514,00
-8880,29	1738,00
-8858,93	1897,00
-8837,61	2151,00
-8816,34	2277,00
-8795,11	2339,00
-8773,92	2187,00
-8752,78	1867,00
-8731,68	1802,00
-8710,62	1963,00
-8689,61	1822,00
-8668,63	2103,00
-8647,70	2212,00
-8626,82	2192,00
-8605,97	2133,00
-8585,17	2018,00
-8564,41	1634,00
-8543,69	1717,00
-8523,01	1597,00
-8502,37	1561,00
-8481,78	1704,00
-8461,23	1715,00
-8440,71	1763,00
-8420,24	2037,00
-8399,81	2091,00
-8379,42	2144,00
-8359,08	1839,00
-8338,77	1653,00
-8318,50	1611,00
-8298,27	1500,00
-8278,09	1685,00
-8257,94	1612,00
-8237,83	1874,00
-8217,76	1900,00
-8197,74	1940,00
-8177,75	1831,00
-8157,80	1742,00
-8137,89	1576,00
-8118,02	1666,00
-8098,19	1496,00
-8078,40	1571,00
-8058,65	1597,00
-8038,93	1703,00
-8019,26	1618,00
-7999,62	1642,00
-7980,02	1501,00
-7960,46	1513,00
-7940,94	1447,00
-7921,46	1388,00
-7902,01	1365,00
-7882,60	1370,00
-7863,23	1386,00
-7843,90	1629,00
-7824,61	1585,00
-7805,35	1569,00
-7786,13	1691,00
-7766,95	1647,00
-7747,80	1419,00
-7728,69	1479,00
-7709,62	1498,00
-7690,59	1499,00
-7671,59	1612,00
-7652,63	1781,00
-7633,70	1676,00
-7614,81	1690,00
-7595,96	1448,00
-7577,15	1414,00
-7558,37	1303,00
-7539,62	1523,00
-7520,91	1566,00
-7502,24	1672,00
-7483,60	1708,00
-7465,00	1498,00
-7446,44	1278,00
-7427,91	1236,00
-7409,41	1136,00
-7390,95	953,00
-7372,53	1174,00
-7354,14	1081,00
-7335,78	965,00
-7317,46	1080,00
-7299,18	1254,00
-7280,92	1347,00
-7262,71	1504,00
-7244,52	1608,00
-7226,38	1603,00
-7208,26	1508,00
-7190,18	1476,00
-7172,14	1406,00
-7154,12	1492,00
-7136,15	1572,00
-7118,20	1540,00
-7100,29	1581,00
-7082,41	1647,00
-7064,57	1567,00
-7046,76	1437,00
-7028,98	1272,00
-7011,24	1066,00
-6993,53	970,00
-6975,85	869,00
-6958,20	760,00
-6940,59	793,00
-6923,01	872,00
-6905,46	1034,00
-6887,94	1176,00
-6870,46	1210,00
-6853,01	1399,00
-6835,59	1424,00
-6818,21	1349,00
-6800,85	1109,00
-6783,53	881,00
-6766,24	708,00
-6748,98	705,00
-6731,76	554,00
-6714,56	710,00
-6697,40	643,00
-6680,26	711,00
-6663,16	853,00
-6646,09	974,00
-6629,05	1158,00
-6612,05	1091,00
-6595,07	1146,00
-6578,13	1040,00
-6561,21	911,00
-6544,33	688,00
-6527,47	570,00
-6510,65	446,00
-6493,86	481,00
-6477,10	582,00
-6460,36	416,00
-6443,66	519,00
-6426,99	426,00
-6410,35	477,00
-6393,74	590,00
-6377,16	665,00
-6360,61	759,00
-6344,09	877,00
-6327,59	902,00
-6311,13	702,00
-6294,70	1085,00
-6278,29	919,00
-6261,92	1014,00
-6245,58	1152,00
-6229,26	1140,00
-6212,97	1056,00
-6196,72	818,00
-6180,49	677,00
-6164,29	480,00
-6148,12	369,00
-6131,98	214,00
-6115,86	325,00
-6099,78	418,00
-6083,72	220,00
-6067,69	255,00
-6051,69	333,00
-6035,72	272,00
-6019,78	264,00
-6003,87	600,00
-5987,98	714,00
-5972,12	797,00
-5956,29	736,00
-5940,49	613,00
-5924,71	548,00
-5908,96	440,00
-5893,24	330,00
-5877,55	276,00
-5861,89	406,00
-5846,25	438,00
-5830,64	329,00
-5815,05	346,00
-5799,50	330,00
-5783,97	407,00
-5768,47	458,00
-5752,99	451,00
-5737,55	769,00
-5722,12	857,00
-5706,73	825,00
-5691,36	544,00
-5676,02	409,00
-5660,71	299,00
-5645,42	280,00
-5630,16	412,00
-5614,92	415,00
-5599,71	608,00
-5584,53	632,00
-5569,37	406,00
-5554,24	455,00
-5539,14	474,00
-5524,06	374,00
-5509,01	475,00
-5493,98	657,00
-5478,98	348,00
-5464,00	432,00
-5449,05	455,00
-5434,13	379,00
-5419,23	343,00
-5404,36	295,00
-5389,51	491,00
-5374,69	702,00
-5359,89	838,00
-5345,12	844,00
-5330,37	753,00
-5315,65	527,00
-5300,95	526,00
-5286,28	426,00
-5271,63	405,00
-5257,01	462,00
-5242,41	553,00
-5227,84	534,00
-5213,29	451,00
-5198,76	90,00
-5184,26	250,00
-5169,79	301,00
-5155,33	371,00
-5140,91	439,00
-5126,51	550,00
-5112,13	641,00
-5097,77	552,00
-5083,44	353,00
-5069,13	333,00
-5054,85	418,00
-5040,59	263,00
-5026,36	348,00
-5012,15	556,00
-4997,96	423,00
-4983,80	505,00
-4969,66	219,00
-4955,54	314,00
-4941,44	410,00
-4927,37	512,00
-4913,33	733,00
-4899,30	758,00
-4885,30	711,00
-4871,33	481,00
-4857,37	325,00
-4843,44	127,00
-4829,53	209,00
-4815,65	515,00
-4801,79	309,00
-4787,95	441,00
-4774,13	318,00
-4760,34	298,00
-4746,56	48,00
-4732,82	293,00
-4719,09	371,00
-4705,38	612,00
-4691,70	782,00
-4678,04	747,00
-4664,41	457,00
-4650,79	380,00
-4637,20	314,00
-4623,63	256,00
-4610,08	352,00
-4596,56	458,00
-4583,05	471,00
-4569,57	512,00
-4556,11	195,00
-4542,67	164,00
-4529,25	140,00
-4515,86	416,00
-4502,49	630,00
-4489,13	593,00
-4475,80	435,00
-4462,49	344,00
-4449,21	206,00
-4435,94	305,00
-4422,70	256,00
-4409,47	403,00
-4396,27	387,00
-4383,09	194,00
-4369,93	171,00
-4356,79	79,00
-4343,67	287,00
-4330,58	348,00
-4317,50	376,00
-4304,45	357,00
-4291,41	172,00
-4278,40	166,00
-4265,41	61,00
-4252,44	230,00
-4239,49	427,00
-4226,55	401,00
-4213,65	237,00
-4200,76	278,00
-4187,89	56,00
-4175,04	76,00
-4162,21	238,00
-4149,40	18,00
-4136,61	41,00
-4123,85	123,00
-4111,10	142,00
-4098,37	52,00
-4085,66	228,00
-4072,98	79,00
-4060,31	80,00
-4047,66	228,00
-4035,04	172,00
-4022,43	10,00
-4009,84	41,00
-3997,27	125,00
-3984,72	105,00
-3972,19	107,00
-3959,69	177,00
-3947,20	-121,00
-3934,73	12,00
-3922,27	42,00
-3909,84	-88,00
-3897,43	5,00
-3885,04	-15,00
-3872,67	170,00
-3860,31	90,00
-3847,98	55,00
-3835,66	54,00
-3823,36	49,00
-3811,09	187,00
-3798,83	33,00
-3786,59	37,00
-3774,37	80,00
-3762,17	33,00
-3749,98	75,00
-3737,82	113,00
-3725,67	136,00
-3713,55	32,00
-3701,44	124,00
-3689,35	103,00
-3677,28	27,00
-3665,22	163,00
-3653,19	45,00
-3641,17	76,00
-3629,18	32,00
-3617,20	98,00
-3605,24	-21,00
-3593,30	104,00
-3581,37	75,00
-3569,47	156,00
-3557,58	63,00
-3545,71	137,00
-3533,86	-8,00
-3522,02	30,00
-3510,21	34,00
-3498,41	158,00
-3486,63	58,00
-3474,87	117,00
-3463,12	62,00
-3451,40	-29,00
-3439,69	85,00
-3428,00	-9,00
-3416,33	-19,00
-3404,67	7,00
-3393,03	192,00
-3381,41	139,00
-3369,81	-31,00
-3358,22	149,00
-3346,66	21,00
-3335,10	-10,00
-3323,57	64,00
-3312,06	100,00
-3300,56	109,00
-3289,08	40,00
-3277,61	62,00
-3266,16	45,00
-3254,73	5,00
-3243,32	112,00
-3231,92	23,00
-3220,55	-20,00
-3209,18	-6,00
-3197,84	76,00
-3186,51	-13,00
-3175,20	-11,00
-3163,90	204,00
-3152,63	9,00
-3141,36	-36,00
-3130,12	-115,00
-3118,89	74,00
-3107,68	-17,00
-3096,49	32,00
-3085,31	7,00
-3074,15	88,00
-3063,00	131,00
-3051,87	47,00
-3040,76	31,00
-3029,67	96,00
-3018,59	-29,00
-3007,52	234,00
-2996,48	37,00
-2985,44	118,00
-2974,43	224,00
-2963,43	74,00
-2952,45	85,00
-2941,48	1,00
-2930,53	75,00
-2919,60	16,00
-2908,68	158,00
-2897,78	-5,00
-2886,89	-18,00
-2876,02	-55,00
-2865,17	0,00
-2854,33	41,00
-2843,50	55,00
-2832,70	16,00
-2821,90	-121,00
-2811,13	9,00
-2800,37	84,00
-2789,62	38,00
-2778,89	31,00
-2768,18	134,00
-2757,48	150,00
-2746,80	4,00
-2736,13	-9,00
-2725,48	-107,00
-2714,84	6,00
-2704,22	50,00
-2693,61	88,00
-2683,02	98,00
-2672,45	-100,00
-2661,89	111,00
-2651,34	3,00
-2640,81	55,00
-2630,30	45,00
-2619,80	-34,00
-2609,31	-16,00
-2598,84	100,00
-2588,39	117,00
-2577,95	24,00
-2567,52	93,00
-2557,11	61,00
-2546,71	113,00
-2536,33	-72,00
-2525,97	115,00
-2515,62	75,00
-2505,28	50,00
-2494,96	12,00
-2484,65	-28,00
-2474,36	44,00
-2464,08	35,00
-2453,82	99,00
-2443,57	-81,00
-2433,33	100,00
-2423,11	23,00
-2412,91	60,00
-2402,72	16,00
-2392,54	24,00
-2382,38	82,00
-2372,23	48,00
-2362,09	-236,00
-2351,97	123,00
-2341,87	20,00
-2331,78	0,00
-2321,70	246,00
-2311,64	101,00
-2301,59	37,00
-2291,55	93,00
-2281,53	86,00
-2271,53	294,00
-2261,53	44,00
-2251,55	-10,00
-2241,59	121,00
-2231,64	1,00
-2221,70	47,00
-2211,78	4,00
-2201,87	104,00
-2191,97	-51,00
-2182,09	51,00
-2172,22	177,00
-2162,37	168,00
-2152,53	25,00
-2142,70	172,00
-2132,89	116,00
-2123,09	-32,00
-2113,30	131,00
-2103,53	40,00
-2093,77	-6,00
-2084,02	-12,00
-2074,29	54,00
-2064,57	32,00
-2054,86	226,00
-2045,17	24,00
-2035,49	54,00
-2025,82	30,00
-2016,17	15,00
-2006,53	32,00
-1996,91	81,00
-1987,29	-81,00
-1977,69	146,00
-1968,11	127,00
-1958,53	132,00
-1948,97	94,00
-1939,42	85,00
-1929,89	-5,00
-1920,37	135,00
-1910,86	49,00
-1901,36	39,00
-1891,88	-22,00
-1882,41	67,00
-1872,95	133,00
-1863,51	-20,00
-1854,08	66,00
-1844,66	-8,00
-1835,26	84,00
-1825,86	-1,00
-1816,48	23,00
-1807,11	-9,00
-1797,76	-54,00
-1788,42	120,00
-1779,09	-2,00
-1769,77	46,00
-1760,47	-33,00
-1751,17	39,00
-1741,89	-4,00
-1732,63	51,00
-1723,37	-115,00
-1714,13	-17,00
-1704,90	-8,00
-1695,68	102,00
-1686,48	-8,00
-1677,29	28,00
-1668,11	144,00
-1658,94	-10,00
-1649,78	-63,00
-1640,64	42,00
-1631,51	63,00
-1622,39	81,00
-1613,28	116,00
-1604,19	1,00
-1595,10	82,00
-1586,03	56,00
-1576,97	108,00
-1567,93	76,00
-1558,89	-42,00
-1549,87	68,00
-1540,86	78,00
-1531,86	-12,00
-1522,87	-174,00
-1513,90	65,00
-1504,93	36,00
-1495,98	-22,00
-1487,04	15,00
-1478,12	16,00
-1469,20	119,00
-1460,30	60,00
-1451,40	135,00
-1442,52	-7,00
-1433,65	-94,00
-1424,80	181,00
-1415,95	118,00
-1407,12	227,00
-1398,30	-17,00
-1389,48	79,00
-1380,69	-60,00
-1371,90	92,00
-1363,12	128,00
-1354,36	55,00
-1345,60	108,00
-1336,86	86,00
-1328,13	136,00
-1319,41	29,00
-1310,70	121,00
-1302,01	56,00
-1293,32	17,00
-1284,65	164,00
-1275,99	121,00
-1267,33	-43,00
-1258,69	-7,00
-1250,06	136,00
-1241,45	152,00
-1232,84	104,00
-1224,25	-26,00
-1215,66	56,00
-1207,09	18,00
-1198,53	-56,00
-1189,97	4,00
-1181,43	120,00
-1172,91	85,00
-1164,39	74,00
-1155,88	135,00
-1147,38	-22,00
-1138,90	169,00
-1130,43	60,00
-1121,96	-13,00
-1113,51	48,00
-1105,07	-27,00
-1096,64	32,00
-1088,22	114,00
-1079,81	63,00
-1071,41	144,00
-1063,02	14,00
-1054,65	170,00
-1046,28	14,00
-1037,92	86,00
-1029,58	6,00
-1021,24	3,00
-1012,92	177,00
-1004,61	1,00
-996,30	62,00
-988,01	-95,00
-979,73	293,00
-971,46	25,00
-963,20	53,00
-954,95	18,00
-946,71	-18,00
-938,48	29,00
-930,26	-17,00
-922,06	112,00
-913,86	65,00
-905,67	152,00
-897,49	98,00
-889,33	77,00
-881,17	88,00
-873,02	97,00
-864,89	-71,00
-856,76	96,00
-848,65	54,00
-840,54	40,00
-832,45	64,00
-824,36	29,00
-816,29	79,00
-808,22	6,00
-800,17	80,00
-792,12	15,00
-784,09	106,00
-776,06	-17,00
-768,05	-44,00
-760,04	74,00
-752,05	15,00
-744,07	108,00
-736,09	9,00
-728,13	134,00
-720,17	74,00
-712,23	30,00
-704,29	-50,00
-696,37	117,00
-688,45	59,00
-680,55	33,00
-672,65	140,00
-664,77	-25,00
-656,89	26,00
-649,03	99,00
-641,17	54,00
-633,32	35,00
-625,49	92,00
-617,66	147,00
-609,84	9,00
-602,03	44,00
-594,23	66,00
-586,45	25,00
-578,67	177,00
-570,90	24,00
-563,14	69,00
-555,39	63,00
-547,65	-12,00
-539,91	38,00
-532,19	108,00
-524,48	29,00
-516,78	117,00
-509,08	-13,00
-501,40	-9,00
-493,72	64,00
-486,06	27,00
-478,40	109,00
-470,76	-39,00
-463,12	40,00
-455,49	53,00
-447,87	129,00
-440,26	-1,00
-432,66	49,00
-425,07	56,00
-417,49	52,00
-409,92	100,00
-402,35	16,00
-394,80	95,00
-387,25	-27,00
-379,72	203,00
-372,19	133,00
-364,67	204,00
-357,17	-47,00
-349,67	91,00
-342,18	114,00
-334,69	94,00
-327,22	103,00
-319,76	19,00
-312,30	146,00
-304,86	54,00
-297,42	138,00
-290,00	145,00
-282,58	132,00
-275,17	18,00
-267,77	110,00
-260,37	157,00
-252,99	53,00
-245,62	-46,00
-238,25	153,00
-230,90	82,00
-223,55	252,00
-216,21	165,00
-208,88	93,00
-201,56	155,00
-194,25	287,00
-186,94	106,00
-179,65	265,00
-172,36	237,00
-165,08	232,00
-157,81	232,00
-150,55	210,00
-143,30	404,00
-136,06	349,00
-128,82	256,00
-121,60	413,00
-114,38	298,00
-107,17	297,00
-99,97	455,00
-92,78	440,00
-85,60	545,00
-78,42	615,00
-71,25	790,00
-64,10	977,00
-56,95	1183,00
-49,81	1183,00
-42,67	1491,00
-35,55	2056,00
-28,43	2620,00
-21,33	4698,00
-14,23	15370,00
-7,14	47266,00
-0,05	38051,00
7,02	42597,00
14,09	41537,00
21,14	11118,00
28,19	4817,00
35,23	3234,00
42,27	2295,00
49,29	2131,00
56,31	1640,00
63,32	1409,00
70,32	1148,00
77,31	1106,00
84,29	793,00
91,27	728,00
98,23	706,00
105,19	650,00
112,14	726,00
119,09	950,00
126,02	1543,00
132,95	1600,00
139,87	1741,00
146,78	1669,00
153,68	1509,00
160,58	1538,00
167,46	1597,00
174,34	1676,00
181,21	1401,00
188,08	1501,00
194,93	1497,00
201,78	1547,00
208,62	1468,00
215,45	1421,00
222,27	1452,00
229,09	1405,00
235,90	1481,00
242,70	1332,00
249,49	1396,00
256,27	1366,00
263,05	1238,00
269,82	1250,00
276,58	1307,00
283,33	1402,00
290,08	1451,00
296,82	1429,00
303,55	1196,00
310,27	1220,00
316,98	1261,00
323,69	1351,00
330,39	1284,00
337,08	1221,00
343,76	1168,00
350,44	1258,00
357,11	1151,00
363,77	1295,00
370,42	1099,00
377,07	1149,00
383,71	1208,00
390,34	1132,00
396,96	1131,00
403,58	1133,00
410,19	1097,00
416,79	1157,00
423,38	1145,00
429,97	1179,00
436,55	1140,00
443,12	1085,00
449,68	1099,00
456,24	1187,00
462,79	1024,00
469,33	1065,00
475,86	936,00
482,39	990,00
488,91	985,00
495,42	937,00
501,93	1073,00
508,42	985,00
514,91	1123,00
521,40	984,00
527,87	1038,00
534,34	971,00
540,80	998,00
547,25	887,00
553,70	904,00
560,14	994,00
566,57	958,00
573,00	940,00
579,41	875,00
585,83	967,00
592,23	950,00
598,62	976,00
605,01	865,00
611,40	791,00
617,77	901,00
624,14	915,00
630,50	984,00
636,85	824,00
643,20	886,00
649,54	793,00
655,87	921,00
662,20	808,00
668,52	798,00
674,83	891,00
681,13	928,00
687,43	858,00
693,72	794,00
700,00	882,00
706,28	932,00
712,55	916,00
718,81	973,00
725,07	987,00
731,32	945,00
737,56	1044,00
743,79	920,00
750,02	999,00
756,24	930,00
762,46	831,00
768,67	921,00
774,87	901,00
781,06	928,00
787,25	889,00
793,43	955,00
799,60	790,00
805,77	896,00
811,93	764,00
818,08	959,00
824,23	997,00
830,37	889,00
836,50	866,00
842,63	814,00
848,75	961,00
854,87	938,00
860,97	941,00
867,07	1079,00
873,17	1038,00
879,25	750,00
885,33	806,00
891,41	734,00
897,47	761,00
903,53	819,00
909,59	808,00
915,63	898,00
921,67	921,00
927,71	728,00
933,74	824,00
939,76	772,00
945,77	851,00
951,78	956,00
957,78	831,00
963,78	699,00
969,77	829,00
975,75	775,00
981,72	800,00
987,69	1194,00
993,66	866,00
999,61	791,00
1005,56	915,00
1011,51	832,00
1017,44	702,00
1023,37	870,00
1029,30	880,00
1035,22	831,00
1041,13	974,00
1047,03	930,00
1052,93	1231,00
1058,83	1699,00
1064,71	1798,00
1070,59	1532,00
1076,47	1116,00
1082,33	1216,00
1088,20	1105,00
1094,05	980,00
1099,90	976,00
1105,74	997,00
1111,58	853,00
1117,41	1138,00
1123,23	1604,00
1129,05	1840,00
1134,86	1784,00
1140,67	1398,00
1146,47	1147,00
1152,26	1028,00
1158,05	872,00
1163,83	984,00
1169,60	1009,00
1175,37	1000,00
1181,13	731,00
1186,89	902,00
1192,64	831,00
1198,38	935,00
1204,12	809,00
1209,85	850,00
1215,58	853,00
1221,30	738,00
1227,02	853,00
1232,72	787,00
1238,43	786,00
1244,12	917,00
1249,81	901,00
1255,50	931,00
1261,17	956,00
1266,85	1036,00
1272,51	950,00
1278,17	951,00
1283,83	1163,00
1289,47	1854,00
1295,12	2295,00
1300,75	2027,00
1306,38	1525,00
1312,01	1328,00
1317,63	1029,00
1323,24	1071,00
1328,85	1011,00
1334,45	1032,00
1340,04	950,00
1345,63	1028,00
1351,22	1071,00
1356,80	1060,00
1362,37	1105,00
1367,93	1209,00
1373,49	1028,00
1379,05	988,00
1384,60	1004,00
1390,14	1079,00
1395,68	1057,00
1401,21	1131,00
1406,74	1012,00
1412,26	1395,00
1417,77	1495,00
1423,28	1480,00
1428,78	1688,00
1434,28	1961,00
1439,77	2381,00
1445,26	2215,00
1450,74	2208,00
1456,22	1922,00
1461,68	1868,00
1467,15	1667,00
1472,61	1645,00
1478,06	1361,00
1483,51	1196,00
1488,95	1177,00
1494,38	927,00
1499,81	837,00
1505,24	828,00
1510,65	963,00
1516,07	935,00
1521,48	757,00
1526,88	795,00
1532,27	824,00
1537,67	1011,00
1543,05	917,00
1548,43	654,00
1553,81	764,00
1559,18	924,00
1564,54	768,00
1569,90	802,00
1575,25	743,00
1580,60	924,00
1585,94	701,00
1591,28	757,00
1596,61	773,00
1601,93	775,00
1607,25	670,00
1612,57	770,00
1617,88	849,00
1623,18	779,00
1628,48	783,00
1633,77	674,00
1639,06	907,00
1644,34	815,00
1649,62	731,00
1654,89	750,00
1660,16	733,00
1665,42	692,00
1670,67	732,00
1675,92	689,00
1681,17	596,00
1686,41	552,00
1691,64	783,00
1696,87	643,00
1702,10	578,00
1707,32	614,00
1712,53	697,00
1717,74	647,00
1722,94	559,00
1728,14	786,00
1733,33	594,00
1738,52	659,00
1743,70	679,00
1748,88	708,00
1754,05	700,00
1759,22	589,00
1764,38	-1068,00
1769,53	596,00
1774,69	643,00
1779,83	618,00
1784,97	627,00
1790,11	676,00
1795,24	515,00
1800,36	659,00
1805,48	690,00
1810,60	691,00
1815,71	672,00
1820,82	695,00
1825,92	605,00
1831,01	635,00
1836,10	620,00
1841,19	709,00
1846,26	541,00
1851,34	583,00
1856,41	584,00
1861,47	611,00
1866,53	575,00
1871,59	589,00
1876,64	657,00
1881,68	657,00
1886,72	588,00
1891,76	492,00
1896,79	684,00
1901,81	566,00
1906,83	537,00
1911,85	540,00
1916,86	676,00
1921,86	541,00
1926,86	529,00
1931,86	761,00
1936,85	592,00
1941,83	483,00
1946,81	668,00
1951,79	534,00
1956,76	441,00
1961,72	585,00
1966,68	504,00
1971,64	459,00
1976,59	617,00
1981,54	489,00
1986,48	461,00
1991,42	524,00
1996,35	542,00
2001,27	411,00
2006,20	638,00
2011,11	615,00
2016,03	440,00
2020,93	594,00
2025,84	497,00
2030,73	545,00
2035,63	525,00
2040,52	479,00
2045,40	516,00
2050,28	375,00
2055,15	504,00
2060,02	478,00
2064,89	376,00
2069,75	510,00
2074,60	457,00
2079,46	427,00
2084,30	556,00
2089,14	598,00
2093,98	465,00
2098,81	649,00
2103,64	471,00
2108,46	534,00
2113,28	601,00
2118,09	454,00
2122,90	629,00
2127,70	560,00
2132,50	476,00
2137,30	502,00
2142,09	510,00
2146,87	464,00
2151,66	528,00
2156,43	501,00
2161,20	515,00
2165,97	637,00
2170,73	433,00
2175,49	487,00
2180,24	503,00
2184,99	491,00
2189,74	599,00
2194,48	561,00
2199,21	462,00
2203,94	511,00
2208,67	457,00
2213,39	411,00
2218,11	456,00
2222,82	629,00
2227,53	400,00
2232,23	468,00
2236,93	532,00
2241,63	488,00
2246,32	479,00
2251,00	437,00
2255,68	559,00
2260,36	411,00
2265,03	443,00
2269,70	508,00
2274,36	555,00
2279,02	437,00
2283,68	485,00
2288,33	460,00
2292,97	464,00
2297,61	447,00
2302,25	384,00
2306,88	370,00
2311,51	358,00
2316,14	485,00
2320,75	582,00
2325,37	383,00
2329,98	406,00
2334,59	460,00
2339,19	440,00
2343,79	378,00
2348,38	482,00
2352,97	498,00
2357,55	493,00
2362,13	502,00
2366,71	319,00
2371,28	358,00
2375,85	454,00
2380,41	560,00
2384,97	363,00
2389,52	464,00
2394,07	409,00
2398,62	372,00
2403,16	496,00
2407,70	402,00
2412,23	321,00
2416,76	356,00
2421,29	391,00
2425,81	553,00
2430,32	367,00
2434,84	282,00
2439,34	434,00
2443,85	278,00
2448,35	472,00
2452,84	464,00
2457,33	502,00
2461,82	424,00
2466,30	385,00
2470,78	525,00
2475,25	260,00
2479,72	439,00
2484,19	395,00
2488,65	437,00
2493,11	294,00
2497,56	338,00
2502,01	362,00
2506,46	367,00
2510,90	399,00
2515,34	272,00
2519,77	414,00
2524,20	470,00
2528,62	341,00
2533,04	384,00
2537,46	370,00
2541,87	347,00
2546,28	458,00
2550,68	360,00
2555,08	370,00
2559,48	543,00
2563,87	310,00
2568,26	333,00
2572,64	360,00
2577,02	350,00
2581,40	467,00
2585,77	428,00
2590,14	381,00
2594,50	378,00
2598,86	476,00
2603,22	419,00
2607,57	275,00
2611,92	420,00
2616,26	427,00
2620,60	408,00
2624,94	322,00
2629,27	468,00
2633,60	426,00
2637,92	341,00
2642,24	354,00
2646,56	385,00
2650,87	557,00
2655,18	449,00
2659,48	351,00
2663,78	421,00
2668,08	355,00
2672,37	496,00
2676,66	438,00
2680,95	352,00
2685,23	314,00
2689,50	441,00
2693,78	283,00
2698,05	437,00
2702,31	507,00
2706,57	312,00
2710,83	359,00
2715,08	426,00
2719,33	482,00
2723,58	514,00
2727,82	472,00
2732,06	517,00
2736,29	579,00
2740,53	616,00
2744,75	558,00
2748,97	477,00
2753,19	530,00
2757,41	388,00
2761,62	370,00
2765,83	478,00
2770,03	465,00
2774,23	456,00
2778,43	477,00
2782,62	547,00
2786,81	360,00
2791,00	537,00
2795,18	624,00
2799,35	443,00
2803,53	584,00
2807,70	683,00
2811,86	546,00
2816,03	668,00
2820,19	638,00
2824,34	705,00
2828,49	830,00
2832,64	1156,00
2836,78	1211,00
2840,92	1536,00
2845,06	1811,00
2849,19	2012,00
2853,32	2192,00
2857,45	2198,00
2861,57	1983,00
2865,69	1956,00
2869,80	1940,00
2873,91	1986,00
2878,02	2130,00
2882,12	2228,00
2886,22	2300,00
2890,32	2152,00
2894,41	1920,00
2898,50	1816,00
2902,58	1710,00
2906,67	1537,00
2910,74	1503,00
2914,82	1329,00
2918,89	1236,00
2922,96	1097,00
2927,02	1149,00
2931,08	1066,00
2935,13	877,00
2939,19	920,00
2943,24	765,00
2947,28	657,00
2951,32	720,00
2955,36	748,00
2959,40	588,00
2963,43	527,00
2967,46	526,00
2971,48	440,00
2975,50	444,00
2979,52	529,00
2983,53	304,00
2987,54	220,00
2991,55	328,00
2995,55	340,00
2999,55	401,00
3003,54	385,00
3007,54	301,00
3011,53	373,00
3015,51	353,00
3019,49	118,00
3023,47	299,00
3027,45	369,00
3031,42	285,00
3035,39	286,00
3039,35	301,00
3043,31	386,00
3047,27	264,00
3051,22	364,00
3055,17	237,00
3059,12	203,00
3063,06	193,00
3067,00	203,00
3070,94	178,00
3074,87	180,00
3078,80	244,00
3082,73	254,00
3086,65	172,00
3090,57	236,00
3094,49	151,00
3098,40	251,00
3102,31	161,00
3106,22	217,00
3110,12	259,00
3114,02	228,00
3117,92	241,00
3121,81	261,00
3125,70	66,00
3129,58	224,00
3133,47	149,00
3137,34	197,00
3141,22	319,00
3145,09	222,00
3148,96	172,00
3152,83	85,00
3156,69	237,00
3160,55	176,00
3164,40	60,00
3168,26	86,00
3172,10	261,00
3175,95	257,00
3179,79	171,00
3183,63	143,00
3187,47	261,00
3191,30	143,00
3195,13	197,00
3198,95	60,00
3202,78	147,00
3206,60	149,00
3210,41	123,00
3214,23	90,00
3218,03	265,00
3221,84	48,00
3225,64	146,00
3229,44	207,00
3233,24	82,00
3237,03	132,00
3240,82	111,00
3244,61	131,00
3248,39	180,00
3252,17	170,00
3255,95	142,00
3259,72	154,00
3263,49	181,00
3267,26	176,00
3271,03	64,00
3274,79	58,00
3278,54	91,00
3282,30	215,00
3286,05	96,00
3289,80	50,00
3293,54	122,00
3297,29	172,00
3301,02	146,00
3304,76	41,00
3308,49	178,00
3312,22	129,00
3315,95	29,00
3319,67	312,00
3323,39	87,00
3327,10	174,00
3330,82	159,00
3334,53	109,00
3338,24	131,00
3341,94	222,00
3345,64	190,00
3349,34	54,00
3353,03	119,00
3356,72	131,00
3360,41	185,00
3364,10	318,00
3367,78	75,00
3371,46	124,00
3375,13	181,00
3378,81	57,00
3382,48	156,00
3386,14	34,00
3389,81	97,00
3393,47	160,00
3397,12	113,00
3400,78	42,00
3404,43	221,00
3408,08	182,00
3411,72	44,00
3415,36	96,00
3419,00	99,00
3422,64	108,00
3426,27	160,00
3429,90	75,00
3433,53	102,00
3437,15	214,00
3440,77	213,00
3444,39	199,00
3448,00	-15,00
3451,62	140,00
3455,22	181,00
3458,83	105,00
3462,43	130,00
3466,03	36,00
3469,63	182,00
3473,22	143,00
3476,81	66,00
3480,40	96,00
3483,99	-6,00
3487,57	67,00
3491,15	40,00
3494,72	18,00
3498,29	70,00
3501,86	62,00
3505,43	-45,00
3508,99	95,00
3512,56	160,00
3516,11	148,00
3519,67	109,00
3523,22	78,00
3526,77	18,00
3530,32	106,00
3533,86	120,00
3537,40	85,00
3540,94	34,00
3544,47	192,00
3548,00	145,00
3551,53	44,00
3555,06	-42,00
3558,58	163,00
3562,10	100,00
3565,62	204,00
3569,13	102,00
3572,64	44,00
3576,15	141,00
3579,66	42,00
3583,16	68,00
3586,66	-89,00
3590,16	122,00
3593,65	69,00
3597,14	50,00
3600,63	110,00
3604,11	177,00
3607,60	80,00
3611,08	274,00
3614,55	58,00
3618,03	124,00
3621,50	139,00
3624,97	53,00
3628,43	56,00
3631,90	175,00
3635,36	17,00
3638,81	118,00
3642,27	-4,00
3645,72	167,00
3649,17	96,00
3652,61	7,00
3656,06	13,00
3659,50	79,00
3662,93	-17,00
3666,37	93,00
3669,80	85,00
3673,23	132,00
3676,65	163,00
3680,08	83,00
3683,50	56,00
3686,92	14,00
3690,33	82,00
3693,74	-37,00
3697,15	124,00
3700,56	24,00
3703,96	23,00
3707,36	13,00
3710,76	31,00
3714,16	153,00
3717,55	61,00
3720,94	42,00
3724,33	38,00
3727,71	-21,00
3731,10	170,00
3734,48	122,00
3737,85	104,00
3741,23	33,00
3744,60	70,00
3747,97	86,00
3751,33	143,00
3754,69	35,00
3758,05	163,00
3761,41	-7,00
3764,77	41,00
3768,12	56,00
3771,47	25,00
3774,82	56,00
3778,16	0,00
3781,50	5,00
3784,84	5,00
3788,18	12,00
>>>>>End Processed Spectral Data<<<<<
