SpectraSuite Data File
++++++++++++++++++++++++++++++++++++
Date: Tue Mar 03 12:25:49 ICT 2026
User: user
Dark Spectrum Present: Yes
Reference Spectrum Present: No
Number of Sampled Component Spectra: 1
Spectrometers: MAYP113682
Integration Time (usec): 3000000 (MAYP113682)
Spectra Averaged: 1 (MAYP113682)
Boxcar Smoothing: 0 (MAYP113682)
Correct for Electrical Dark: No (MAYP113682)
Strobe/Lamp Enabled: No (MAYP113682)
Correct for Detector Non-linearity: No (MAYP113682)
Correct for Stray Light: No (MAYP113682)
Number of Pixels in Processed Spectrum: 2068
>>>>>Begin Processed Spectral Data<<<<<
-37534,58	3,00
-37414,56	2,00
-37295,11	0,00
-37176,24	-5,00
-37057,95	-46,00
-36940,22	-46,00
-36823,05	69,00
-36706,45	-34,00
-36590,40	57,00
-36474,90	-23,00
-36359,95	49,00
-36245,55	131,00
-36131,68	-30,00
-36018,35	66,00
-35905,55	24,00
-35793,29	182,00
-35681,54	98,00
-35570,32	-85,00
-35459,62	0,00
-35349,43	-5,00
-35239,75	219,00
-35130,58	21,00
-35021,91	-46,00
-34913,74	125,00
-34806,07	115,00
-34698,89	80,00
-34592,20	-75,00
-34486,00	66,00
-34380,28	-23,00
-34275,04	-50,00
-34170,27	10,00
-34065,98	-70,00
-33962,16	-9,00
-33858,81	29,00
-33755,92	61,00
-33653,49	-7,00
-33551,52	-2,00
-33450,01	-96,00
-33348,94	69,00
-33248,33	-34,00
-33148,16	-55,00
-33048,43	64,00
-32949,14	-11,00
-32850,29	124,00
-32751,87	93,00
-32653,89	32,00
-32556,33	91,00
-32459,20	-33,00
-32362,49	10,00
-32266,19	47,00
-32170,32	90,00
-32074,86	-2,00
-31979,82	22,00
-31885,18	-180,00
-31790,95	-72,00
-31697,12	-16,00
-31603,69	-57,00
-31510,67	-38,00
-31418,04	12,00
-31325,80	151,00
-31233,95	92,00
-31142,49	32,00
-31051,42	97,00
-30960,73	56,00
-30870,43	60,00
-30780,50	37,00
-30690,95	78,00
-30601,77	-76,00
-30512,97	61,00
-30424,53	-7,00
-30336,46	-27,00
-30248,76	64,00
-30161,42	96,00
-30074,44	122,00
-29987,81	58,00
-29901,55	0,00
-29815,63	-8,00
-29730,07	-68,00
-29644,86	0,00
-29560,00	142,00
-29475,48	11,00
-29391,30	92,00
-29307,47	47,00
-29223,97	88,00
-29140,81	-25,00
-29057,99	-56,00
-28975,50	-7,00
-28893,34	29,00
-28811,51	102,00
-28730,00	158,00
-28648,82	-72,00
-28567,97	-32,00
-28487,43	-10,00
-28407,21	50,00
-28327,32	-102,00
-28247,73	-96,00
-28168,46	37,00
-28089,50	-15,00
-28010,85	-175,00
-27932,51	26,00
-27854,48	38,00
-27776,75	-3,00
-27699,32	27,00
-27622,19	151,00
-27545,37	86,00
-27468,84	-76,00
-27392,60	-32,00
-27316,66	58,00
-27241,01	-85,00
-27165,66	46,00
-27090,59	-42,00
-27015,81	62,00
-26941,31	55,00
-26867,10	80,00
-26793,17	86,00
-26719,52	14,00
-26646,15	61,00
-26573,06	105,00
-26500,24	123,00
-26427,70	42,00
-26355,43	167,00
-26283,43	38,00
-26211,71	113,00
-26140,25	-19,00
-26069,06	96,00
-25998,13	-21,00
-25927,46	24,00
-25857,06	-30,00
-25786,92	76,00
-25717,04	-59,00
-25647,42	58,00
-25578,05	108,00
-25508,94	-6,00
-25440,09	27,00
-25371,48	-2,00
-25303,13	67,00
-25235,02	87,00
-25167,17	1,00
-25099,56	-8,00
-25032,19	186,00
-24965,07	-34,00
-24898,20	52,00
-24831,56	88,00
-24765,17	-33,00
-24699,01	97,00
-24633,10	99,00
-24567,41	-13,00
-24501,97	66,00
-24436,75	-66,00
-24371,77	191,00
-24307,03	-17,00
-24242,51	-3,00
-24178,22	26,00
-24114,16	-43,00
-24050,32	-9,00
-23986,71	-8,00
-23923,32	-62,00
-23860,16	45,00
-23797,22	-5,00
-23734,50	73,00
-23672,00	45,00
-23609,71	211,00
-23547,65	-22,00
-23485,80	43,00
-23424,16	-60,00
-23362,74	42,00
-23301,53	34,00
-23240,54	-79,00
-23179,75	12,00
-23119,17	51,00
-23058,80	67,00
-22998,64	-126,00
-22938,68	-5,00
-22878,93	-48,00
-22819,39	60,00
-22760,04	-26,00
-22700,90	52,00
-22641,96	-56,00
-22583,22	8,00
-22524,68	-59,00
-22466,33	24,00
-22408,19	0,00
-22350,23	156,00
-22292,48	79,00
-22234,92	28,00
-22177,55	-25,00
-22120,37	28,00
-22063,38	-108,00
-22006,58	47,00
-21949,98	40,00
-21893,56	97,00
-21837,33	98,00
-21781,28	-36,00
-21725,42	101,00
-21669,74	126,00
-21614,25	48,00
-21558,94	24,00
-21503,81	121,00
-21448,86	-8,00
-21394,10	72,00
-21339,51	44,00
-21285,10	-20,00
-21230,86	69,00
-21176,81	40,00
-21122,93	99,00
-21069,22	63,00
-21015,69	106,00
-20962,33	31,00
-20909,14	18,00
-20856,13	21,00
-20803,28	-138,00
-20750,61	56,00
-20698,10	-54,00
-20645,76	9,00
-20593,59	67,00
-20541,59	25,00
-20489,75	43,00
-20438,07	48,00
-20386,56	96,00
-20335,22	-16,00
-20284,03	-18,00
-20233,01	-27,00
-20182,15	18,00
-20131,45	105,00
-20080,91	14,00
-20030,52	56,00
-19980,30	64,00
-19930,23	-18,00
-19880,32	-79,00
-19830,56	134,00
-19780,96	35,00
-19731,52	-13,00
-19682,23	-37,00
-19633,09	27,00
-19584,10	114,00
-19535,26	56,00
-19486,58	16,00
-19438,04	-54,00
-19389,66	61,00
-19341,42	-24,00
-19293,33	-85,00
-19245,39	28,00
-19197,60	132,00
-19149,95	150,00
-19102,45	123,00
-19055,09	40,00
-19007,87	141,00
-18960,80	-28,00
-18913,87	67,00
-18867,09	-66,00
-18820,44	160,00
-18773,94	27,00
-18727,57	47,00
-18681,35	26,00
-18635,26	46,00
-18589,31	129,00
-18543,50	-60,00
-18497,83	16,00
-18452,29	-93,00
-18406,89	7,00
-18361,63	17,00
-18316,50	-52,00
-18271,50	5,00
-18226,63	125,00
-18181,90	-29,00
-18137,30	117,00
-18092,84	16,00
-18048,50	99,00
-18004,29	80,00
-17960,22	98,00
-17916,27	122,00
-17872,45	84,00
-17828,76	-53,00
-17785,20	68,00
-17741,77	-23,00
-17698,46	33,00
-17655,28	63,00
-17612,22	-83,00
-17569,29	-45,00
-17526,48	-49,00
-17483,79	-82,00
-17441,23	-18,00
-17398,79	37,00
-17356,48	-46,00
-17314,28	131,00
-17272,21	-72,00
-17230,26	26,00
-17188,42	64,00
-17146,71	124,00
-17105,12	27,00
-17063,64	84,00
-17022,28	16,00
-16981,04	-4,00
-16939,92	27,00
-16898,91	-62,00
-16858,02	-38,00
-16817,25	-24,00
-16776,59	48,00
-16736,04	-60,00
-16695,61	127,00
-16655,29	56,00
-16615,09	-89,00
-16574,99	0,00
-16535,01	58,00
-16495,15	73,00
-16455,39	126,00
-16415,74	-2,00
-16376,21	-46,00
-16336,78	-112,00
-16297,46	33,00
-16258,26	61,00
-16219,16	3,00
-16180,17	32,00
-16141,28	134,00
-16102,51	-125,00
-16063,84	-1,00
-16025,27	41,00
-15986,82	51,00
-15948,46	-60,00
-15910,22	60,00
-15872,07	60,00
-15834,04	29,00
-15796,10	-70,00
-15758,27	42,00
-15720,54	-3,00
-15682,91	50,00
-15645,39	-29,00
-15607,97	88,00
-15570,64	-61,00
-15533,42	-106,00
-15496,30	38,00
-15459,28	79,00
-15422,36	9,00
-15385,54	57,00
-15348,82	96,00
-15312,19	33,00
-15275,66	-72,00
-15239,23	84,00
-15202,90	-42,00
-15166,67	28,00
-15130,53	-34,00
-15094,48	10,00
-15058,54	200,00
-15022,68	72,00
-14986,93	118,00
-14951,26	22,00
-14915,69	-84,00
-14880,22	62,00
-14844,84	-24,00
-14809,55	-38,00
-14774,35	-21,00
-14739,25	153,00
-14704,24	-73,00
-14669,32	15,00
-14634,49	101,00
-14599,75	41,00
-14565,10	143,00
-14530,55	-30,00
-14496,08	152,00
-14461,70	25,00
-14427,41	-10,00
-14393,21	-3,00
-14359,10	-108,00
-14325,07	129,00
-14291,14	207,00
-14257,29	-104,00
-14223,52	68,00
-14189,85	-23,00
-14156,26	21,00
-14122,76	-133,00
-14089,34	135,00
-14056,01	-46,00
-14022,76	-58,00
-13989,60	48,00
-13956,52	-22,00
-13923,53	52,00
-13890,62	19,00
-13857,79	67,00
-13825,05	80,00
-13792,39	71,00
-13759,81	33,00
-13727,31	-16,00
-13694,90	-61,00
-13662,57	208,00
-13630,31	63,00
-13598,14	6,00
-13566,05	-27,00
-13534,05	-64,00
-13502,12	23,00
-13470,27	20,00
-13438,50	25,00
-13406,80	130,00
-13375,19	3,00
-13343,66	40,00
-13312,20	-30,00
-13280,83	76,00
-13249,53	13,00
-13218,30	24,00
-13187,16	-174,00
-13156,09	24,00
-13125,10	76,00
-13094,18	13,00
-13063,34	-99,00
-13032,58	120,00
-13001,89	-51,00
-12971,28	-38,00
-12940,74	10,00
-12910,27	-22,00
-12879,88	-130,00
-12849,57	0,00
-12819,33	24,00
-12789,16	13,00
-12759,06	82,00
-12729,04	-43,00
-12699,09	-82,00
-12669,21	76,00
-12639,41	3,00
-12609,68	88,00
-12580,02	-96,00
-12550,43	11,00
-12520,91	57,00
-12491,46	-66,00
-12462,08	-17,00
-12432,77	98,00
-12403,54	-12,00
-12374,37	97,00
-12345,27	-170,00
-12316,24	34,00
-12287,29	54,00
-12258,40	63,00
-12229,57	68,00
-12200,82	-60,00
-12172,14	52,00
-12143,52	-45,00
-12114,97	8,00
-12086,49	-130,00
-12058,07	28,00
-12029,73	-79,00
-12001,44	-7,00
-11973,23	4,00
-11945,08	-38,00
-11917,00	66,00
-11888,98	129,00
-11861,03	104,00
-11833,15	119,00
-11805,32	102,00
-11777,57	-18,00
-11749,88	-32,00
-11722,25	47,00
-11694,69	37,00
-11667,19	-29,00
-11639,75	-115,00
-11612,38	8,00
-11585,07	-57,00
-11557,83	-33,00
-11530,65	-22,00
-11503,53	82,00
-11476,47	56,00
-11449,48	49,00
-11422,54	65,00
-11395,67	58,00
-11368,86	-31,00
-11342,11	-63,00
-11315,43	-33,00
-11288,80	86,00
-11262,23	105,00
-11235,73	152,00
-11209,28	19,00
-11182,90	-29,00
-11156,57	-17,00
-11130,31	-28,00
-11104,10	41,00
-11077,96	98,00
-11051,87	96,00
-11025,84	56,00
-10999,87	104,00
-10973,96	-21,00
-10948,11	25,00
-10922,31	3,00
-10896,58	35,00
-10870,90	24,00
-10845,28	29,00
-10819,71	5,00
-10794,20	-5,00
-10768,75	86,00
-10743,36	64,00
-10718,02	143,00
-10692,74	64,00
-10667,52	-8,00
-10642,35	50,00
-10617,24	146,00
-10592,18	130,00
-10567,18	125,00
-10542,23	159,00
-10517,34	229,00
-10492,51	119,00
-10467,72	170,00
-10443,00	161,00
-10418,32	144,00
-10393,70	216,00
-10369,14	228,00
-10344,63	210,00
-10320,17	307,00
-10295,77	242,00
-10271,42	309,00
-10247,12	277,00
-10222,88	206,00
-10198,68	375,00
-10174,54	434,00
-10150,46	480,00
-10126,42	332,00
-10102,44	405,00
-10078,51	577,00
-10054,63	564,00
-10030,80	497,00
-10007,03	460,00
-9983,30	491,00
-9959,63	576,00
-9936,01	587,00
-9912,44	713,00
-9888,92	575,00
-9865,44	711,00
-9842,02	777,00
-9818,65	727,00
-9795,33	709,00
-9772,06	803,00
-9748,84	789,00
-9725,67	940,00
-9702,55	1038,00
-9679,47	1239,00
-9656,45	1277,00
-9633,47	1476,00
-9610,55	1450,00
-9587,67	1503,00
-9564,84	1623,00
-9542,06	1714,00
-9519,32	2023,00
-9496,64	2217,00
-9474,00	2294,00
-9451,41	2497,00
-9428,87	2419,00
-9406,37	2338,00
-9383,92	2180,00
-9361,52	1940,00
-9339,17	1966,00
-9316,86	2424,00
-9294,60	2664,00
-9272,38	3014,00
-9250,21	3084,00
-9228,09	3246,00
-9206,01	3057,00
-9183,98	2844,00
-9162,00	2506,00
-9140,06	2301,00
-9118,16	2312,00
-9096,31	2452,00
-9074,51	2472,00
-9052,75	2476,00
-9031,04	2383,00
-9009,37	2123,00
-8987,74	1790,00
-8966,16	1601,00
-8944,63	1473,00
-8923,14	1336,00
-8901,69	1465,00
-8880,29	1676,00
-8858,93	2008,00
-8837,61	2067,00
-8816,34	2319,00
-8795,11	2180,00
-8773,92	2216,00
-8752,78	1796,00
-8731,68	1701,00
-8710,62	1672,00
-8689,61	1798,00
-8668,63	2092,00
-8647,70	2188,00
-8626,82	2084,00
-8605,97	2088,00
-8585,17	1951,00
-8564,41	1492,00
-8543,69	1650,00
-8523,01	1507,00
-8502,37	1551,00
-8481,78	1668,00
-8461,23	1720,00
-8440,71	1810,00
-8420,24	1965,00
-8399,81	2030,00
-8379,42	2025,00
-8359,08	1825,00
-8338,77	1533,00
-8318,50	1582,00
-8298,27	1491,00
-8278,09	1666,00
-8257,94	1627,00
-8237,83	1799,00
-8217,76	1855,00
-8197,74	1813,00
-8177,75	1884,00
-8157,80	1646,00
-8137,89	1551,00
-8118,02	1562,00
-8098,19	1429,00
-8078,40	1436,00
-8058,65	1620,00
-8038,93	1731,00
-8019,26	1646,00
-7999,62	1500,00
-7980,02	1529,00
-7960,46	1431,00
-7940,94	1392,00
-7921,46	1526,00
-7902,01	1371,00
-7882,60	1323,00
-7863,23	1288,00
-7843,90	1466,00
-7824,61	1570,00
-7805,35	1582,00
-7786,13	1582,00
-7766,95	1656,00
-7747,80	1448,00
-7728,69	1477,00
-7709,62	1398,00
-7690,59	1519,00
-7671,59	1609,00
-7652,63	1672,00
-7633,70	1708,00
-7614,81	1552,00
-7595,96	1457,00
-7577,15	1394,00
-7558,37	1250,00
-7539,62	1366,00
-7520,91	1517,00
-7502,24	1543,00
-7483,60	1501,00
-7465,00	1431,00
-7446,44	1325,00
-7427,91	1181,00
-7409,41	1059,00
-7390,95	917,00
-7372,53	986,00
-7354,14	1090,00
-7335,78	859,00
-7317,46	1032,00
-7299,18	1304,00
-7280,92	1383,00
-7262,71	1513,00
-7244,52	1547,00
-7226,38	1618,00
-7208,26	1548,00
-7190,18	1404,00
-7172,14	1287,00
-7154,12	1324,00
-7136,15	1480,00
-7118,20	1477,00
-7100,29	1573,00
-7082,41	1501,00
-7064,57	1434,00
-7046,76	1277,00
-7028,98	1186,00
-7011,24	965,00
-6993,53	874,00
-6975,85	900,00
-6958,20	699,00
-6940,59	671,00
-6923,01	685,00
-6905,46	879,00
-6887,94	1070,00
-6870,46	1170,00
-6853,01	1412,00
-6835,59	1307,00
-6818,21	1220,00
-6800,85	980,00
-6783,53	876,00
-6766,24	642,00
-6748,98	656,00
-6731,76	541,00
-6714,56	725,00
-6697,40	579,00
-6680,26	651,00
-6663,16	862,00
-6646,09	845,00
-6629,05	946,00
-6612,05	1112,00
-6595,07	1192,00
-6578,13	1039,00
-6561,21	830,00
-6544,33	605,00
-6527,47	657,00
-6510,65	398,00
-6493,86	510,00
-6477,10	509,00
-6460,36	309,00
-6443,66	413,00
-6426,99	484,00
-6410,35	480,00
-6393,74	460,00
-6377,16	705,00
-6360,61	704,00
-6344,09	627,00
-6327,59	905,00
-6311,13	722,00
-6294,70	872,00
-6278,29	904,00
-6261,92	943,00
-6245,58	1087,00
-6229,26	1098,00
-6212,97	1026,00
-6196,72	794,00
-6180,49	621,00
-6164,29	375,00
-6148,12	369,00
-6131,98	289,00
-6115,86	325,00
-6099,78	450,00
-6083,72	178,00
-6067,69	252,00
-6051,69	261,00
-6035,72	242,00
-6019,78	355,00
-6003,87	426,00
-5987,98	658,00
-5972,12	690,00
-5956,29	720,00
-5940,49	607,00
-5924,71	499,00
-5908,96	352,00
-5893,24	255,00
-5877,55	379,00
-5861,89	318,00
-5846,25	267,00
-5830,64	382,00
-5815,05	246,00
-5799,50	285,00
-5783,97	426,00
-5768,47	371,00
-5752,99	507,00
-5737,55	731,00
-5722,12	720,00
-5706,73	750,00
-5691,36	510,00
-5676,02	341,00
-5660,71	212,00
-5645,42	216,00
-5630,16	374,00
-5614,92	283,00
-5599,71	430,00
-5584,53	484,00
-5569,37	454,00
-5554,24	395,00
-5539,14	477,00
-5524,06	267,00
-5509,01	602,00
-5493,98	543,00
-5478,98	407,00
-5464,00	521,00
-5449,05	417,00
-5434,13	323,00
-5419,23	201,00
-5404,36	362,00
-5389,51	442,00
-5374,69	681,00
-5359,89	758,00
-5345,12	889,00
-5330,37	791,00
-5315,65	560,00
-5300,95	630,00
-5286,28	358,00
-5271,63	492,00
-5257,01	439,00
-5242,41	518,00
-5227,84	479,00
-5213,29	293,00
-5198,76	160,00
-5184,26	242,00
-5169,79	240,00
-5155,33	310,00
-5140,91	398,00
-5126,51	549,00
-5112,13	556,00
-5097,77	430,00
-5083,44	363,00
-5069,13	254,00
-5054,85	307,00
-5040,59	364,00
-5026,36	344,00
-5012,15	564,00
-4997,96	399,00
-4983,80	289,00
-4969,66	126,00
-4955,54	330,00
-4941,44	424,00
-4927,37	638,00
-4913,33	584,00
-4899,30	631,00
-4885,30	637,00
-4871,33	447,00
-4857,37	256,00
-4843,44	111,00
-4829,53	216,00
-4815,65	535,00
-4801,79	310,00
-4787,95	366,00
-4774,13	325,00
-4760,34	402,00
-4746,56	3,00
-4732,82	205,00
-4719,09	362,00
-4705,38	455,00
-4691,70	754,00
-4678,04	783,00
-4664,41	364,00
-4650,79	422,00
-4637,20	232,00
-4623,63	235,00
-4610,08	218,00
-4596,56	429,00
-4583,05	385,00
-4569,57	401,00
-4556,11	-9,00
-4542,67	126,00
-4529,25	70,00
-4515,86	357,00
-4502,49	589,00
-4489,13	422,00
-4475,80	454,00
-4462,49	351,00
-4449,21	294,00
-4435,94	175,00
-4422,70	250,00
-4409,47	236,00
-4396,27	373,00
-4383,09	227,00
-4369,93	150,00
-4356,79	10,00
-4343,67	195,00
-4330,58	201,00
-4317,50	184,00
-4304,45	295,00
-4291,41	262,00
-4278,40	263,00
-4265,41	38,00
-4252,44	217,00
-4239,49	310,00
-4226,55	297,00
-4213,65	174,00
-4200,76	334,00
-4187,89	43,00
-4175,04	29,00
-4162,21	159,00
-4149,40	69,00
-4136,61	9,00
-4123,85	107,00
-4111,10	212,00
-4098,37	38,00
-4085,66	181,00
-4072,98	1,00
-4060,31	127,00
-4047,66	187,00
-4035,04	80,00
-4022,43	-23,00
-4009,84	41,00
-3997,27	57,00
-3984,72	50,00
-3972,19	32,00
-3959,69	157,00
-3947,20	-83,00
-3934,73	-38,00
-3922,27	88,00
-3909,84	-80,00
-3897,43	-60,00
-3885,04	-47,00
-3872,67	106,00
-3860,31	-77,00
-3847,98	17,00
-3835,66	11,00
-3823,36	14,00
-3811,09	127,00
-3798,83	53,00
-3786,59	56,00
-3774,37	35,00
-3762,17	21,00
-3749,98	-82,00
-3737,82	60,00
-3725,67	2,00
-3713,55	-47,00
-3701,44	79,00
-3689,35	94,00
-3677,28	-28,00
-3665,22	171,00
-3653,19	-42,00
-3641,17	92,00
-3629,18	40,00
-3617,20	28,00
-3605,24	23,00
-3593,30	-51,00
-3581,37	52,00
-3569,47	99,00
-3557,58	50,00
-3545,71	65,00
-3533,86	-39,00
-3522,02	86,00
-3510,21	-8,00
-3498,41	82,00
-3486,63	100,00
-3474,87	101,00
-3463,12	10,00
-3451,40	-68,00
-3439,69	69,00
-3428,00	17,00
-3416,33	-68,00
-3404,67	-17,00
-3393,03	66,00
-3381,41	10,00
-3369,81	-30,00
-3358,22	-57,00
-3346,66	58,00
-3335,10	-79,00
-3323,57	130,00
-3312,06	92,00
-3300,56	22,00
-3289,08	-19,00
-3277,61	-47,00
-3266,16	-22,00
-3254,73	-76,00
-3243,32	119,00
-3231,92	-18,00
-3220,55	-118,00
-3209,18	103,00
-3197,84	14,00
-3186,51	46,00
-3175,20	-67,00
-3163,90	176,00
-3152,63	63,00
-3141,36	0,00
-3130,12	7,00
-3118,89	94,00
-3107,68	24,00
-3096,49	-22,00
-3085,31	11,00
-3074,15	115,00
-3063,00	67,00
-3051,87	26,00
-3040,76	64,00
-3029,67	56,00
-3018,59	-78,00
-3007,52	106,00
-2996,48	95,00
-2985,44	83,00
-2974,43	104,00
-2963,43	155,00
-2952,45	-63,00
-2941,48	71,00
-2930,53	30,00
-2919,60	81,00
-2908,68	-4,00
-2897,78	64,00
-2886,89	50,00
-2876,02	-10,00
-2865,17	-39,00
-2854,33	-11,00
-2843,50	-3,00
-2832,70	-31,00
-2821,90	-34,00
-2811,13	-89,00
-2800,37	-40,00
-2789,62	88,00
-2778,89	34,00
-2768,18	111,00
-2757,48	86,00
-2746,80	96,00
-2736,13	-38,00
-2725,48	-112,00
-2714,84	29,00
-2704,22	40,00
-2693,61	20,00
-2683,02	11,00
-2672,45	-24,00
-2661,89	114,00
-2651,34	41,00
-2640,81	-37,00
-2630,30	75,00
-2619,80	-18,00
-2609,31	48,00
-2598,84	-58,00
-2588,39	73,00
-2577,95	-84,00
-2567,52	12,00
-2557,11	45,00
-2546,71	87,00
-2536,33	-16,00
-2525,97	58,00
-2515,62	69,00
-2505,28	-82,00
-2494,96	98,00
-2484,65	16,00
-2474,36	-19,00
-2464,08	53,00
-2453,82	56,00
-2443,57	-96,00
-2433,33	-30,00
-2423,11	77,00
-2412,91	52,00
-2402,72	38,00
-2392,54	-18,00
-2382,38	147,00
-2372,23	-32,00
-2362,09	-5192,00
-2351,97	119,00
-2341,87	-22,00
-2331,78	66,00
-2321,70	144,00
-2311,64	120,00
-2301,59	-62,00
-2291,55	114,00
-2281,53	13,00
-2271,53	103,00
-2261,53	57,00
-2251,55	-42,00
-2241,59	33,00
-2231,64	29,00
-2221,70	45,00
-2211,78	-89,00
-2201,87	103,00
-2191,97	32,00
-2182,09	-35,00
-2172,22	149,00
-2162,37	94,00
-2152,53	-19,00
-2142,70	196,00
-2132,89	78,00
-2123,09	-5,00
-2113,30	86,00
-2103,53	23,00
-2093,77	-44,00
-2084,02	-28,00
-2074,29	73,00
-2064,57	52,00
-2054,86	90,00
-2045,17	-4,00
-2035,49	25,00
-2025,82	39,00
-2016,17	-35,00
-2006,53	100,00
-1996,91	155,00
-1987,29	-58,00
-1977,69	42,00
-1968,11	170,00
-1958,53	83,00
-1948,97	55,00
-1939,42	74,00
-1929,89	-33,00
-1920,37	81,00
-1910,86	76,00
-1901,36	61,00
-1891,88	12,00
-1882,41	-12,00
-1872,95	137,00
-1863,51	-38,00
-1854,08	42,00
-1844,66	4,00
-1835,26	56,00
-1825,86	134,00
-1816,48	87,00
-1807,11	-30,00
-1797,76	3,00
-1788,42	8,00
-1779,09	-50,00
-1769,77	29,00
-1760,47	-159,00
-1751,17	45,00
-1741,89	-4,00
-1732,63	-9,00
-1723,37	16,00
-1714,13	-37,00
-1704,90	-56,00
-1695,68	38,00
-1686,48	23,00
-1677,29	48,00
-1668,11	81,00
-1658,94	0,00
-1649,78	-33,00
-1640,64	167,00
-1631,51	43,00
-1622,39	64,00
-1613,28	-3,00
-1604,19	18,00
-1595,10	-43,00
-1586,03	53,00
-1576,97	36,00
-1567,93	21,00
-1558,89	-113,00
-1549,87	96,00
-1540,86	73,00
-1531,86	-10,00
-1522,87	-72,00
-1513,90	48,00
-1504,93	18,00
-1495,98	-79,00
-1487,04	-46,00
-1478,12	36,00
-1469,20	76,00
-1460,30	136,00
-1451,40	161,00
-1442,52	-11,00
-1433,65	-89,00
-1424,80	45,00
-1415,95	100,00
-1407,12	99,00
-1398,30	4,00
-1389,48	103,00
-1380,69	77,00
-1371,90	50,00
-1363,12	82,00
-1354,36	-25,00
-1345,60	114,00
-1336,86	77,00
-1328,13	152,00
-1319,41	16,00
-1310,70	69,00
-1302,01	60,00
-1293,32	55,00
-1284,65	95,00
-1275,99	88,00
-1267,33	-55,00
-1258,69	106,00
-1250,06	72,00
-1241,45	96,00
-1232,84	30,00
-1224,25	-26,00
-1215,66	-24,00
-1207,09	-3,00
-1198,53	14,00
-1189,97	16,00
-1181,43	166,00
-1172,91	-6,00
-1164,39	6,00
-1155,88	47,00
-1147,38	-8,00
-1138,90	4,00
-1130,43	46,00
-1121,96	-24,00
-1113,51	8,00
-1105,07	41,00
-1096,64	13,00
-1088,22	62,00
-1079,81	117,00
-1071,41	53,00
-1063,02	-8,00
-1054,65	167,00
-1046,28	-9,00
-1037,92	65,00
-1029,58	-17,00
-1021,24	-37,00
-1012,92	117,00
-1004,61	64,00
-996,30	21,00
-988,01	35,00
-979,73	181,00
-971,46	-76,00
-963,20	-20,00
-954,95	-36,00
-946,71	-21,00
-938,48	86,00
-930,26	-62,00
-922,06	-57,00
-913,86	71,00
-905,67	59,00
-897,49	-31,00
-889,33	128,00
-881,17	124,00
-873,02	28,00
-864,89	-94,00
-856,76	0,00
-848,65	-8,00
-840,54	-54,00
-832,45	106,00
-824,36	35,00
-816,29	66,00
-808,22	-1,00
-800,17	21,00
-792,12	-29,00
-784,09	107,00
-776,06	3,00
-768,05	-56,00
-760,04	71,00
-752,05	20,00
-744,07	19,00
-736,09	43,00
-728,13	108,00
-720,17	127,00
-712,23	65,00
-704,29	-12,00
-696,37	-12,00
-688,45	24,00
-680,55	24,00
-672,65	142,00
-664,77	43,00
-656,89	-16,00
-649,03	12,00
-641,17	-29,00
-633,32	124,00
-625,49	-27,00
-617,66	31,00
-609,84	-27,00
-602,03	-36,00
-594,23	49,00
-586,45	-22,00
-578,67	118,00
-570,90	10,00
-563,14	29,00
-555,39	10,00
-547,65	-8,00
-539,91	110,00
-532,19	128,00
-524,48	-25,00
-516,78	38,00
-509,08	74,00
-501,40	24,00
-493,72	0,00
-486,06	-24,00
-478,40	-40,00
-470,76	84,00
-463,12	-47,00
-455,49	77,00
-447,87	25,00
-440,26	-11,00
-432,66	47,00
-425,07	-3,00
-417,49	-27,00
-409,92	-16,00
-402,35	-16,00
-394,80	135,00
-387,25	20,00
-379,72	28,00
-372,19	58,00
-364,67	114,00
-357,17	68,00
-349,67	19,00
-342,18	148,00
-334,69	193,00
-327,22	-62,00
-319,76	-44,00
-312,30	40,00
-304,86	77,00
-297,42	102,00
-290,00	144,00
-282,58	9,00
-275,17	-45,00
-267,77	29,00
-260,37	140,00
-252,99	38,00
-245,62	58,00
-238,25	32,00
-230,90	-7,00
-223,55	176,00
-216,21	184,00
-208,88	130,00
-201,56	125,00
-194,25	120,00
-186,94	33,00
-179,65	139,00
-172,36	277,00
-165,08	183,00
-157,81	236,00
-150,55	109,00
-143,30	213,00
-136,06	339,00
-128,82	224,00
-121,60	381,00
-114,38	238,00
-107,17	214,00
-99,97	364,00
-92,78	375,00
-85,60	453,00
-78,42	604,00
-71,25	603,00
-64,10	884,00
-56,95	1065,00
-49,81	1182,00
-42,67	1466,00
-35,55	1897,00
-28,43	2594,00
-21,33	4586,00
-14,23	15108,00
-7,14	47266,00
-0,05	38051,00
7,02	42597,00
14,09	40417,00
21,14	10719,00
28,19	4794,00
35,23	3039,00
42,27	2235,00
49,29	1981,00
56,31	1485,00
63,32	1305,00
70,32	1167,00
77,31	971,00
84,29	802,00
91,27	805,00
98,23	545,00
105,19	601,00
112,14	701,00
119,09	902,00
126,02	1420,00
132,95	1611,00
139,87	1656,00
146,78	1517,00
153,68	1608,00
160,58	1536,00
167,46	1587,00
174,34	1434,00
181,21	1387,00
188,08	1497,00
194,93	1465,00
201,78	1431,00
208,62	1528,00
215,45	1432,00
222,27	1387,00
229,09	1444,00
235,90	1524,00
242,70	1322,00
249,49	1369,00
256,27	1281,00
263,05	1335,00
269,82	1196,00
276,58	1255,00
283,33	1236,00
290,08	1347,00
296,82	1243,00
303,55	1170,00
310,27	1212,00
316,98	1198,00
323,69	1346,00
330,39	1214,00
337,08	1188,00
343,76	1109,00
350,44	1101,00
357,11	1037,00
363,77	1102,00
370,42	1155,00
377,07	1249,00
383,71	1154,00
390,34	1030,00
396,96	1037,00
403,58	1082,00
410,19	1102,00
416,79	1106,00
423,38	1192,00
429,97	1195,00
436,55	1133,00
443,12	1087,00
449,68	983,00
456,24	1106,00
462,79	1072,00
469,33	1088,00
475,86	1061,00
482,39	1074,00
488,91	869,00
495,42	920,00
501,93	1000,00
508,42	1012,00
514,91	1009,00
521,40	1024,00
527,87	934,00
534,34	807,00
540,80	926,00
547,25	768,00
553,70	996,00
560,14	799,00
566,57	901,00
573,00	859,00
579,41	838,00
585,83	833,00
592,23	928,00
598,62	790,00
605,01	818,00
611,40	837,00
617,77	797,00
624,14	789,00
630,50	921,00
636,85	776,00
643,20	808,00
649,54	938,00
655,87	912,00
662,20	882,00
668,52	840,00
674,83	804,00
681,13	994,00
687,43	842,00
693,72	799,00
700,00	853,00
706,28	780,00
712,55	895,00
718,81	921,00
725,07	864,00
731,32	685,00
737,56	918,00
743,79	830,00
750,02	959,00
756,24	907,00
762,46	736,00
768,67	1063,00
774,87	809,00
781,06	899,00
787,25	887,00
793,43	720,00
799,60	841,00
805,77	855,00
811,93	836,00
818,08	848,00
824,23	856,00
830,37	796,00
836,50	744,00
842,63	838,00
848,75	908,00
854,87	894,00
860,97	875,00
867,07	991,00
873,17	920,00
879,25	769,00
885,33	959,00
891,41	898,00
897,47	761,00
903,53	819,00
909,59	815,00
915,63	944,00
921,67	827,00
927,71	762,00
933,74	750,00
939,76	772,00
945,77	803,00
951,78	922,00
957,78	722,00
963,78	653,00
969,77	729,00
975,75	715,00
981,72	834,00
987,69	1040,00
993,66	771,00
999,61	790,00
1005,56	913,00
1011,51	704,00
1017,44	773,00
1023,37	788,00
1029,30	821,00
1035,22	776,00
1041,13	948,00
1047,03	848,00
1052,93	1271,00
1058,83	1727,00
1064,71	1752,00
1070,59	1403,00
1076,47	1048,00
1082,33	1081,00
1088,20	1076,00
1094,05	955,00
1099,90	797,00
1105,74	898,00
1111,58	829,00
1117,41	1024,00
1123,23	1473,00
1129,05	1976,00
1134,86	1666,00
1140,67	1216,00
1146,47	1089,00
1152,26	973,00
1158,05	876,00
1163,83	828,00
1169,60	888,00
1175,37	1079,00
1181,13	760,00
1186,89	727,00
1192,64	822,00
1198,38	828,00
1204,12	660,00
1209,85	771,00
1215,58	906,00
1221,30	731,00
1227,02	783,00
1232,72	658,00
1238,43	810,00
1244,12	919,00
1249,81	772,00
1255,50	800,00
1261,17	954,00
1266,85	896,00
1272,51	1036,00
1278,17	1046,00
1283,83	1078,00
1289,47	1730,00
1295,12	2239,00
1300,75	2003,00
1306,38	1597,00
1312,01	1262,00
1317,63	883,00
1323,24	1079,00
1328,85	997,00
1334,45	924,00
1340,04	800,00
1345,63	925,00
1351,22	1002,00
1356,80	968,00
1362,37	983,00
1367,93	1080,00
1373,49	1001,00
1379,05	985,00
1384,60	1025,00
1390,14	858,00
1395,68	989,00
1401,21	1013,00
1406,74	1003,00
1412,26	1323,00
1417,77	1443,00
1423,28	1526,00
1428,78	1672,00
1434,28	1883,00
1439,77	2345,00
1445,26	2174,00
1450,74	2104,00
1456,22	1786,00
1461,68	1662,00
1467,15	1622,00
1472,61	1406,00
1478,06	1311,00
1483,51	1020,00
1488,95	1172,00
1494,38	964,00
1499,81	793,00
1505,24	812,00
1510,65	854,00
1516,07	765,00
1521,48	700,00
1526,88	849,00
1532,27	780,00
1537,67	821,00
1543,05	813,00
1548,43	656,00
1553,81	712,00
1559,18	823,00
1564,54	840,00
1569,90	724,00
1575,25	668,00
1580,60	744,00
1585,94	619,00
1591,28	680,00
1596,61	712,00
1601,93	684,00
1607,25	698,00
1612,57	664,00
1617,88	798,00
1623,18	720,00
1628,48	680,00
1633,77	643,00
1639,06	736,00
1644,34	764,00
1649,62	622,00
1654,89	650,00
1660,16	614,00
1665,42	690,00
1670,67	676,00
1675,92	649,00
1681,17	604,00
1686,41	628,00
1691,64	767,00
1696,87	701,00
1702,10	529,00
1707,32	525,00
1712,53	560,00
1717,74	657,00
1722,94	560,00
1728,14	624,00
1733,33	615,00
1738,52	677,00
1743,70	714,00
1748,88	580,00
1754,05	613,00
1759,22	495,00
1764,38	464,00
1769,53	512,00
1774,69	537,00
1779,83	553,00
1784,97	528,00
1790,11	563,00
1795,24	494,00
1800,36	712,00
1805,48	567,00
1810,60	608,00
1815,71	428,00
1820,82	735,00
1825,92	551,00
1831,01	542,00
1836,10	599,00
1841,19	589,00
1846,26	574,00
1851,34	558,00
1856,41	459,00
1861,47	587,00
1866,53	556,00
1871,59	566,00
1876,64	602,00
1881,68	535,00
1886,72	505,00
1891,76	426,00
1896,79	714,00
1901,81	511,00
1906,83	486,00
1911,85	578,00
1916,86	427,00
1921,86	511,00
1926,86	405,00
1931,86	718,00
1936,85	497,00
1941,83	484,00
1946,81	556,00
1951,79	581,00
1956,76	421,00
1961,72	564,00
1966,68	490,00
1971,64	520,00
1976,59	508,00
1981,54	433,00
1986,48	399,00
1991,42	489,00
1996,35	446,00
2001,27	263,00
2006,20	632,00
2011,11	573,00
2016,03	440,00
2020,93	565,00
2025,84	365,00
2030,73	376,00
2035,63	492,00
2040,52	461,00
2045,40	384,00
2050,28	405,00
2055,15	378,00
2060,02	480,00
2064,89	379,00
2069,75	426,00
2074,60	454,00
2079,46	364,00
2084,30	532,00
2089,14	568,00
2093,98	508,00
2098,81	500,00
2103,64	469,00
2108,46	430,00
2113,28	535,00
2118,09	403,00
2122,90	507,00
2127,70	482,00
2132,50	435,00
2137,30	445,00
2142,09	575,00
2146,87	429,00
2151,66	478,00
2156,43	428,00
2161,20	519,00
2165,97	387,00
2170,73	453,00
2175,49	479,00
2180,24	408,00
2184,99	334,00
2189,74	518,00
2194,48	497,00
2199,21	428,00
2203,94	487,00
2208,67	424,00
2213,39	300,00
2218,11	341,00
2222,82	483,00
2227,53	428,00
2232,23	358,00
2236,93	400,00
2241,63	355,00
2246,32	371,00
2251,00	383,00
2255,68	503,00
2260,36	437,00
2265,03	286,00
2269,70	357,00
2274,36	537,00
2279,02	328,00
2283,68	389,00
2288,33	368,00
2292,97	298,00
2297,61	493,00
2302,25	377,00
2306,88	416,00
2311,51	428,00
2316,14	321,00
2320,75	432,00
2325,37	349,00
2329,98	298,00
2334,59	349,00
2339,19	369,00
2343,79	313,00
2348,38	395,00
2352,97	422,00
2357,55	414,00
2362,13	466,00
2366,71	322,00
2371,28	326,00
2375,85	421,00
2380,41	365,00
2384,97	400,00
2389,52	226,00
2394,07	415,00
2398,62	365,00
2403,16	422,00
2407,70	424,00
2412,23	410,00
2416,76	424,00
2421,29	246,00
2425,81	471,00
2430,32	331,00
2434,84	241,00
2439,34	348,00
2443,85	338,00
2448,35	371,00
2452,84	317,00
2457,33	342,00
2461,82	388,00
2466,30	271,00
2470,78	411,00
2475,25	249,00
2479,72	359,00
2484,19	389,00
2488,65	279,00
2493,11	377,00
2497,56	341,00
2502,01	281,00
2506,46	280,00
2510,90	368,00
2515,34	221,00
2519,77	368,00
2524,20	305,00
2528,62	304,00
2533,04	319,00
2537,46	316,00
2541,87	284,00
2546,28	313,00
2550,68	435,00
2555,08	408,00
2559,48	329,00
2563,87	310,00
2568,26	270,00
2572,64	321,00
2577,02	330,00
2581,40	331,00
2585,77	409,00
2590,14	377,00
2594,50	302,00
2598,86	313,00
2603,22	199,00
2607,57	265,00
2611,92	396,00
2616,26	316,00
2620,60	429,00
2624,94	298,00
2629,27	354,00
2633,60	397,00
2637,92	278,00
2642,24	338,00
2646,56	355,00
2650,87	204,00
2655,18	395,00
2659,48	332,00
2663,78	348,00
2668,08	423,00
2672,37	461,00
2676,66	407,00
2680,95	390,00
2685,23	329,00
2689,50	456,00
2693,78	351,00
2698,05	385,00
2702,31	349,00
2706,57	287,00
2710,83	373,00
2715,08	313,00
2719,33	498,00
2723,58	555,00
2727,82	432,00
2732,06	475,00
2736,29	585,00
2740,53	551,00
2744,75	380,00
2748,97	379,00
2753,19	455,00
2757,41	356,00
2761,62	332,00
2765,83	333,00
2770,03	377,00
2774,23	397,00
2778,43	462,00
2782,62	534,00
2786,81	328,00
2791,00	437,00
2795,18	499,00
2799,35	420,00
2803,53	543,00
2807,70	612,00
2811,86	565,00
2816,03	669,00
2820,19	536,00
2824,34	695,00
2828,49	685,00
2832,64	951,00
2836,78	1094,00
2840,92	1499,00
2845,06	1760,00
2849,19	1911,00
2853,32	2097,00
2857,45	2098,00
2861,57	1950,00
2865,69	1816,00
2869,80	1822,00
2873,91	1819,00
2878,02	2051,00
2882,12	2288,00
2886,22	2268,00
2890,32	2085,00
2894,41	1801,00
2898,50	1733,00
2902,58	1579,00
2906,67	1522,00
2910,74	1339,00
2914,82	1294,00
2918,89	1191,00
2922,96	1051,00
2927,02	1125,00
2931,08	949,00
2935,13	933,00
2939,19	901,00
2943,24	755,00
2947,28	592,00
2951,32	631,00
2955,36	531,00
2959,40	420,00
2963,43	426,00
2967,46	456,00
2971,48	389,00
2975,50	483,00
2979,52	404,00
2983,53	382,00
2987,54	301,00
2991,55	311,00
2995,55	309,00
2999,55	362,00
3003,54	360,00
3007,54	249,00
3011,53	209,00
3015,51	186,00
3019,49	96,00
3023,47	174,00
3027,45	208,00
3031,42	261,00
3035,39	147,00
3039,35	218,00
3043,31	226,00
3047,27	144,00
3051,22	225,00
3055,17	274,00
3059,12	136,00
3063,06	165,00
3067,00	147,00
3070,94	179,00
3074,87	168,00
3078,80	212,00
3082,73	248,00
3086,65	48,00
3090,57	302,00
3094,49	170,00
3098,40	209,00
3102,31	138,00
3106,22	252,00
3110,12	199,00
3114,02	68,00
3117,92	229,00
3121,81	226,00
3125,70	42,00
3129,58	135,00
3133,47	83,00
3137,34	96,00
3141,22	193,00
3145,09	205,00
3148,96	90,00
3152,83	88,00
3156,69	178,00
3160,55	133,00
3164,40	138,00
3168,26	66,00
3172,10	314,00
3175,95	240,00
3179,79	2,00
3183,63	33,00
3187,47	168,00
3191,30	87,00
3195,13	124,00
3198,95	19,00
3202,78	107,00
3206,60	131,00
3210,41	88,00
3214,23	148,00
3218,03	138,00
3221,84	41,00
3225,64	29,00
3229,44	1,00
3233,24	13,00
3237,03	163,00
3240,82	112,00
3244,61	10,00
3248,39	112,00
3252,17	197,00
3255,95	81,00
3259,72	137,00
3263,49	36,00
3267,26	163,00
3271,03	190,00
3274,79	19,00
3278,54	9,00
3282,30	149,00
3286,05	141,00
3289,80	45,00
3293,54	41,00
3297,29	154,00
3301,02	186,00
3304,76	73,00
3308,49	53,00
3312,22	150,00
3315,95	-59,00
3319,67	298,00
3323,39	123,00
3327,10	137,00
3330,82	75,00
3334,53	146,00
3338,24	80,00
3341,94	135,00
3345,64	151,00
3349,34	85,00
3353,03	147,00
3356,72	54,00
3360,41	198,00
3364,10	102,00
3367,78	120,00
3371,46	151,00
3375,13	138,00
3378,81	11,00
3382,48	22,00
3386,14	-17,00
3389,81	169,00
3393,47	151,00
3397,12	122,00
3400,78	-30,00
3404,43	215,00
3408,08	125,00
3411,72	37,00
3415,36	20,00
3419,00	120,00
3422,64	126,00
3426,27	94,00
3429,90	89,00
3433,53	87,00
3437,15	112,00
3440,77	104,00
3444,39	151,00
3448,00	-56,00
3451,62	-15,00
3455,22	57,00
3458,83	142,00
3462,43	13,00
3466,03	-75,00
3469,63	126,00
3473,22	76,00
3476,81	132,00
3480,40	-31,00
3483,99	-8,00
3487,57	31,00
3491,15	29,00
3494,72	10,00
3498,29	65,00
3501,86	6,00
3505,43	4,00
3508,99	59,00
3512,56	103,00
3516,11	112,00
3519,67	99,00
3523,22	44,00
3526,77	15,00
3530,32	109,00
3533,86	80,00
3537,40	17,00
3540,94	23,00
3544,47	170,00
3548,00	-40,00
3551,53	16,00
3555,06	-63,00
3558,58	70,00
3562,10	64,00
3565,62	124,00
3569,13	-46,00
3572,64	72,00
3576,15	-1,00
3579,66	5,00
3583,16	35,00
3586,66	-19,00
3590,16	-31,00
3593,65	86,00
3597,14	34,00
3600,63	75,00
3604,11	113,00
3607,60	122,00
3611,08	58,00
3614,55	-76,00
3618,03	95,00
3621,50	83,00
3624,97	0,00
3628,43	21,00
3631,90	-16,00
3635,36	63,00
3638,81	56,00
3642,27	-15,00
3645,72	145,00
3649,17	29,00
3652,61	-42,00
3656,06	88,00
3659,50	29,00
3662,93	-21,00
3666,37	-21,00
3669,80	46,00
3673,23	124,00
3676,65	177,00
3680,08	-63,00
3683,50	37,00
3686,92	-89,00
3690,33	-16,00
3693,74	-24,00
3697,15	95,00
3700,56	-24,00
3703,96	0,00
3707,36	-3,00
3710,76	-90,00
3714,16	54,00
3717,55	9,00
3720,94	-20,00
3724,33	54,00
3727,71	60,00
3731,10	103,00
3734,48	55,00
3737,85	0,00
3741,23	-88,00
3744,60	36,00
3747,97	4,00
3751,33	14,00
3754,69	-1,00
3758,05	147,00
3761,41	29,00
3764,77	88,00
3768,12	97,00
3771,47	6,00
3774,82	-8,00
3778,16	-3,00
3781,50	3,00
3784,84	4,00
3788,18	6,00
>>>>>End Processed Spectral Data<<<<<
