SpectraSuite Data File
++++++++++++++++++++++++++++++++++++
Date: Tue Mar 03 12:41:13 ICT 2026
User: user
Dark Spectrum Present: Yes
Reference Spectrum Present: No
Number of Sampled Component Spectra: 1
Spectrometers: MAYP113682
Integration Time (usec): 3000000 (MAYP113682)
Spectra Averaged: 1 (MAYP113682)
Boxcar Smoothing: 0 (MAYP113682)
Correct for Electrical Dark: No (MAYP113682)
Strobe/Lamp Enabled: No (MAYP113682)
Correct for Detector Non-linearity: No (MAYP113682)
Correct for Stray Light: No (MAYP113682)
Number of Pixels in Processed Spectrum: 2068
>>>>>Begin Processed Spectral Data<<<<<
-37534,58	3,00
-37414,56	2,00
-37295,11	0,00
-37176,24	-4,00
-37057,95	-30,00
-36940,22	88,00
-36823,05	149,00
-36706,45	1,00
-36590,40	150,00
-36474,90	22,00
-36359,95	119,00
-36245,55	257,00
-36131,68	50,00
-36018,35	142,00
-35905,55	145,00
-35793,29	124,00
-35681,54	226,00
-35570,32	10,00
-35459,62	-13,00
-35349,43	48,00
-35239,75	249,00
-35130,58	188,00
-35021,91	7,00
-34913,74	254,00
-34806,07	185,00
-34698,89	74,00
-34592,20	56,00
-34486,00	123,00
-34380,28	73,00
-34275,04	11,00
-34170,27	43,00
-34065,98	43,00
-33962,16	4,00
-33858,81	149,00
-33755,92	104,00
-33653,49	152,00
-33551,52	134,00
-33450,01	108,00
-33348,94	73,00
-33248,33	140,00
-33148,16	168,00
-33048,43	171,00
-32949,14	134,00
-32850,29	152,00
-32751,87	60,00
-32653,89	187,00
-32556,33	147,00
-32459,20	79,00
-32362,49	87,00
-32266,19	95,00
-32170,32	75,00
-32074,86	61,00
-31979,82	96,00
-31885,18	-52,00
-31790,95	-13,00
-31697,12	146,00
-31603,69	53,00
-31510,67	80,00
-31418,04	26,00
-31325,80	155,00
-31233,95	136,00
-31142,49	112,00
-31051,42	114,00
-30960,73	89,00
-30870,43	76,00
-30780,50	164,00
-30690,95	231,00
-30601,77	67,00
-30512,97	29,00
-30424,53	136,00
-30336,46	54,00
-30248,76	101,00
-30161,42	123,00
-30074,44	118,00
-29987,81	109,00
-29901,55	165,00
-29815,63	45,00
-29730,07	0,00
-29644,86	100,00
-29560,00	247,00
-29475,48	-77,00
-29391,30	140,00
-29307,47	143,00
-29223,97	82,00
-29140,81	63,00
-29057,99	40,00
-28975,50	220,00
-28893,34	160,00
-28811,51	107,00
-28730,00	189,00
-28648,82	16,00
-28567,97	111,00
-28487,43	111,00
-28407,21	75,00
-28327,32	-59,00
-28247,73	35,00
-28168,46	121,00
-28089,50	73,00
-28010,85	-63,00
-27932,51	196,00
-27854,48	44,00
-27776,75	98,00
-27699,32	110,00
-27622,19	178,00
-27545,37	192,00
-27468,84	60,00
-27392,60	77,00
-27316,66	191,00
-27241,01	-16,00
-27165,66	72,00
-27090,59	64,00
-27015,81	100,00
-26941,31	158,00
-26867,10	156,00
-26793,17	28,00
-26719,52	-67,00
-26646,15	110,00
-26573,06	255,00
-26500,24	163,00
-26427,70	41,00
-26355,43	119,00
-26283,43	-32,00
-26211,71	247,00
-26140,25	78,00
-26069,06	132,00
-25998,13	-46,00
-25927,46	53,00
-25857,06	74,00
-25786,92	75,00
-25717,04	-66,00
-25647,42	98,00
-25578,05	22,00
-25508,94	40,00
-25440,09	117,00
-25371,48	137,00
-25303,13	91,00
-25235,02	88,00
-25167,17	49,00
-25099,56	264,00
-25032,19	66,00
-24965,07	110,00
-24898,20	-18,00
-24831,56	88,00
-24765,17	60,00
-24699,01	299,00
-24633,10	120,00
-24567,41	13,00
-24501,97	64,00
-24436,75	-38,00
-24371,77	263,00
-24307,03	-33,00
-24242,51	72,00
-24178,22	98,00
-24114,16	67,00
-24050,32	21,00
-23986,71	8,00
-23923,32	105,00
-23860,16	22,00
-23797,22	80,00
-23734,50	10,00
-23672,00	124,00
-23609,71	241,00
-23547,65	59,00
-23485,80	139,00
-23424,16	153,00
-23362,74	275,00
-23301,53	95,00
-23240,54	97,00
-23179,75	138,00
-23119,17	153,00
-23058,80	216,00
-22998,64	139,00
-22938,68	70,00
-22878,93	72,00
-22819,39	161,00
-22760,04	20,00
-22700,90	46,00
-22641,96	-3,00
-22583,22	100,00
-22524,68	54,00
-22466,33	101,00
-22408,19	148,00
-22350,23	186,00
-22292,48	144,00
-22234,92	78,00
-22177,55	66,00
-22120,37	69,00
-22063,38	14,00
-22006,58	111,00
-21949,98	116,00
-21893,56	133,00
-21837,33	98,00
-21781,28	173,00
-21725,42	53,00
-21669,74	96,00
-21614,25	93,00
-21558,94	165,00
-21503,81	198,00
-21448,86	96,00
-21394,10	131,00
-21339,51	105,00
-21285,10	18,00
-21230,86	-4,00
-21176,81	207,00
-21122,93	196,00
-21069,22	193,00
-21015,69	196,00
-20962,33	192,00
-20909,14	93,00
-20856,13	124,00
-20803,28	-19,00
-20750,61	105,00
-20698,10	64,00
-20645,76	137,00
-20593,59	211,00
-20541,59	185,00
-20489,75	74,00
-20438,07	104,00
-20386,56	130,00
-20335,22	98,00
-20284,03	165,00
-20233,01	-14,00
-20182,15	60,00
-20131,45	135,00
-20080,91	-125,00
-20030,52	110,00
-19980,30	99,00
-19930,23	97,00
-19880,32	80,00
-19830,56	125,00
-19780,96	139,00
-19731,52	112,00
-19682,23	-47,00
-19633,09	57,00
-19584,10	40,00
-19535,26	166,00
-19486,58	56,00
-19438,04	29,00
-19389,66	42,00
-19341,42	111,00
-19293,33	21,00
-19245,39	179,00
-19197,60	232,00
-19149,95	142,00
-19102,45	66,00
-19055,09	70,00
-19007,87	155,00
-18960,80	151,00
-18913,87	137,00
-18867,09	3,00
-18820,44	144,00
-18773,94	72,00
-18727,57	81,00
-18681,35	128,00
-18635,26	181,00
-18589,31	200,00
-18543,50	223,00
-18497,83	99,00
-18452,29	149,00
-18406,89	151,00
-18361,63	43,00
-18316,50	51,00
-18271,50	84,00
-18226,63	165,00
-18181,90	168,00
-18137,30	265,00
-18092,84	82,00
-18048,50	122,00
-18004,29	117,00
-17960,22	305,00
-17916,27	32,00
-17872,45	62,00
-17828,76	19,00
-17785,20	81,00
-17741,77	123,00
-17698,46	114,00
-17655,28	119,00
-17612,22	29,00
-17569,29	78,00
-17526,48	117,00
-17483,79	2,00
-17441,23	-49,00
-17398,79	104,00
-17356,48	127,00
-17314,28	150,00
-17272,21	14,00
-17230,26	11,00
-17188,42	88,00
-17146,71	184,00
-17105,12	54,00
-17063,64	148,00
-17022,28	88,00
-16981,04	89,00
-16939,92	143,00
-16898,91	68,00
-16858,02	4,00
-16817,25	28,00
-16776,59	170,00
-16736,04	226,00
-16695,61	111,00
-16655,29	98,00
-16615,09	-15,00
-16574,99	44,00
-16535,01	83,00
-16495,15	49,00
-16455,39	125,00
-16415,74	134,00
-16376,21	70,00
-16336,78	-9,00
-16297,46	141,00
-16258,26	150,00
-16219,16	74,00
-16180,17	221,00
-16141,28	133,00
-16102,51	6,00
-16063,84	88,00
-16025,27	212,00
-15986,82	75,00
-15948,46	-18,00
-15910,22	91,00
-15872,07	136,00
-15834,04	126,00
-15796,10	66,00
-15758,27	8,00
-15720,54	27,00
-15682,91	100,00
-15645,39	4,00
-15607,97	25,00
-15570,64	-62,00
-15533,42	117,00
-15496,30	115,00
-15459,28	153,00
-15422,36	62,00
-15385,54	88,00
-15348,82	160,00
-15312,19	2,00
-15275,66	69,00
-15239,23	100,00
-15202,90	37,00
-15166,67	172,00
-15130,53	40,00
-15094,48	101,00
-15058,54	29,00
-15022,68	44,00
-14986,93	97,00
-14951,26	99,00
-14915,69	1,00
-14880,22	-13,00
-14844,84	63,00
-14809,55	40,00
-14774,35	41,00
-14739,25	151,00
-14704,24	-65,00
-14669,32	57,00
-14634,49	192,00
-14599,75	100,00
-14565,10	160,00
-14530,55	5,00
-14496,08	296,00
-14461,70	165,00
-14427,41	33,00
-14393,21	56,00
-14359,10	89,00
-14325,07	145,00
-14291,14	190,00
-14257,29	142,00
-14223,52	88,00
-14189,85	59,00
-14156,26	22,00
-14122,76	-8,00
-14089,34	102,00
-14056,01	68,00
-14022,76	73,00
-13989,60	59,00
-13956,52	25,00
-13923,53	195,00
-13890,62	90,00
-13857,79	200,00
-13825,05	91,00
-13792,39	171,00
-13759,81	155,00
-13727,31	-24,00
-13694,90	20,00
-13662,57	175,00
-13630,31	118,00
-13598,14	76,00
-13566,05	112,00
-13534,05	-2,00
-13502,12	83,00
-13470,27	63,00
-13438,50	16,00
-13406,80	101,00
-13375,19	100,00
-13343,66	5,00
-13312,20	65,00
-13280,83	78,00
-13249,53	192,00
-13218,30	144,00
-13187,16	-48,00
-13156,09	88,00
-13125,10	207,00
-13094,18	151,00
-13063,34	69,00
-13032,58	82,00
-13001,89	-8,00
-12971,28	141,00
-12940,74	171,00
-12910,27	92,00
-12879,88	126,00
-12849,57	208,00
-12819,33	148,00
-12789,16	74,00
-12759,06	61,00
-12729,04	90,00
-12699,09	143,00
-12669,21	142,00
-12639,41	-11,00
-12609,68	129,00
-12580,02	-44,00
-12550,43	123,00
-12520,91	95,00
-12491,46	35,00
-12462,08	112,00
-12432,77	109,00
-12403,54	10,00
-12374,37	44,00
-12345,27	-4,00
-12316,24	81,00
-12287,29	157,00
-12258,40	100,00
-12229,57	157,00
-12200,82	160,00
-12172,14	-3,00
-12143,52	171,00
-12114,97	72,00
-12086,49	34,00
-12058,07	134,00
-12029,73	41,00
-12001,44	47,00
-11973,23	21,00
-11945,08	68,00
-11917,00	146,00
-11888,98	55,00
-11861,03	147,00
-11833,15	200,00
-11805,32	250,00
-11777,57	10,00
-11749,88	157,00
-11722,25	125,00
-11694,69	29,00
-11667,19	63,00
-11639,75	20,00
-11612,38	123,00
-11585,07	124,00
-11557,83	116,00
-11530,65	102,00
-11503,53	170,00
-11476,47	202,00
-11449,48	62,00
-11422,54	158,00
-11395,67	105,00
-11368,86	92,00
-11342,11	25,00
-11315,43	151,00
-11288,80	165,00
-11262,23	337,00
-11235,73	124,00
-11209,28	108,00
-11182,90	163,00
-11156,57	-51,00
-11130,31	233,00
-11104,10	159,00
-11077,96	74,00
-11051,87	208,00
-11025,84	61,00
-10999,87	104,00
-10973,96	26,00
-10948,11	172,00
-10922,31	-5,00
-10896,58	250,00
-10870,90	171,00
-10845,28	92,00
-10819,71	69,00
-10794,20	75,00
-10768,75	255,00
-10743,36	155,00
-10718,02	156,00
-10692,74	109,00
-10667,52	57,00
-10642,35	189,00
-10617,24	233,00
-10592,18	230,00
-10567,18	176,00
-10542,23	170,00
-10517,34	277,00
-10492,51	211,00
-10467,72	276,00
-10443,00	287,00
-10418,32	312,00
-10393,70	379,00
-10369,14	186,00
-10344,63	522,00
-10320,17	345,00
-10295,77	316,00
-10271,42	289,00
-10247,12	261,00
-10222,88	413,00
-10198,68	478,00
-10174,54	414,00
-10150,46	543,00
-10126,42	495,00
-10102,44	514,00
-10078,51	558,00
-10054,63	707,00
-10030,80	623,00
-10007,03	632,00
-9983,30	521,00
-9959,63	668,00
-9936,01	885,00
-9912,44	741,00
-9888,92	729,00
-9865,44	784,00
-9842,02	778,00
-9818,65	828,00
-9795,33	819,00
-9772,06	883,00
-9748,84	1048,00
-9725,67	923,00
-9702,55	1285,00
-9679,47	1451,00
-9656,45	1413,00
-9633,47	1497,00
-9610,55	1518,00
-9587,67	1543,00
-9564,84	1804,00
-9542,06	1989,00
-9519,32	2253,00
-9496,64	2475,00
-9474,00	2413,00
-9451,41	2566,00
-9428,87	2567,00
-9406,37	2532,00
-9383,92	2310,00
-9361,52	2160,00
-9339,17	2273,00
-9316,86	2717,00
-9294,60	2919,00
-9272,38	3142,00
-9250,21	3373,00
-9228,09	3429,00
-9206,01	3382,00
-9183,98	2943,00
-9162,00	2546,00
-9140,06	2493,00
-9118,16	2485,00
-9096,31	2589,00
-9074,51	2623,00
-9052,75	2685,00
-9031,04	2455,00
-9009,37	2259,00
-8987,74	2050,00
-8966,16	1843,00
-8944,63	1632,00
-8923,14	1454,00
-8901,69	1667,00
-8880,29	1754,00
-8858,93	2112,00
-8837,61	2263,00
-8816,34	2460,00
-8795,11	2540,00
-8773,92	2309,00
-8752,78	1852,00
-8731,68	1808,00
-8710,62	1947,00
-8689,61	2004,00
-8668,63	2173,00
-8647,70	2296,00
-8626,82	2242,00
-8605,97	2140,00
-8585,17	2082,00
-8564,41	1752,00
-8543,69	1736,00
-8523,01	1680,00
-8502,37	1736,00
-8481,78	1665,00
-8461,23	1708,00
-8440,71	2044,00
-8420,24	2186,00
-8399,81	2127,00
-8379,42	2264,00
-8359,08	1937,00
-8338,77	1673,00
-8318,50	1716,00
-8298,27	1600,00
-8278,09	1798,00
-8257,94	1670,00
-8237,83	1967,00
-8217,76	1903,00
-8197,74	2046,00
-8177,75	1986,00
-8157,80	1790,00
-8137,89	1662,00
-8118,02	1732,00
-8098,19	1504,00
-8078,40	1677,00
-8058,65	1670,00
-8038,93	1780,00
-8019,26	1695,00
-7999,62	1728,00
-7980,02	1548,00
-7960,46	1560,00
-7940,94	1481,00
-7921,46	1584,00
-7902,01	1550,00
-7882,60	1330,00
-7863,23	1413,00
-7843,90	1517,00
-7824,61	1570,00
-7805,35	1710,00
-7786,13	1768,00
-7766,95	1614,00
-7747,80	1508,00
-7728,69	1619,00
-7709,62	1412,00
-7690,59	1580,00
-7671,59	1733,00
-7652,63	1843,00
-7633,70	1750,00
-7614,81	1684,00
-7595,96	1539,00
-7577,15	1472,00
-7558,37	1436,00
-7539,62	1507,00
-7520,91	1673,00
-7502,24	1607,00
-7483,60	1708,00
-7465,00	1560,00
-7446,44	1411,00
-7427,91	1266,00
-7409,41	1176,00
-7390,95	933,00
-7372,53	1169,00
-7354,14	1117,00
-7335,78	1008,00
-7317,46	1205,00
-7299,18	1392,00
-7280,92	1480,00
-7262,71	1597,00
-7244,52	1675,00
-7226,38	1688,00
-7208,26	1554,00
-7190,18	1531,00
-7172,14	1514,00
-7154,12	1435,00
-7136,15	1595,00
-7118,20	1585,00
-7100,29	1769,00
-7082,41	1650,00
-7064,57	1486,00
-7046,76	1469,00
-7028,98	1276,00
-7011,24	1172,00
-6993,53	968,00
-6975,85	981,00
-6958,20	824,00
-6940,59	893,00
-6923,01	886,00
-6905,46	1008,00
-6887,94	1110,00
-6870,46	-1595,00
-6853,01	1451,00
-6835,59	1535,00
-6818,21	1386,00
-6800,85	1029,00
-6783,53	920,00
-6766,24	791,00
-6748,98	739,00
-6731,76	604,00
-6714,56	763,00
-6697,40	614,00
-6680,26	719,00
-6663,16	893,00
-6646,09	941,00
-6629,05	1104,00
-6612,05	1150,00
-6595,07	1167,00
-6578,13	1076,00
-6561,21	994,00
-6544,33	696,00
-6527,47	588,00
-6510,65	527,00
-6493,86	532,00
-6477,10	528,00
-6460,36	596,00
-6443,66	512,00
-6426,99	553,00
-6410,35	532,00
-6393,74	641,00
-6377,16	674,00
-6360,61	726,00
-6344,09	849,00
-6327,59	918,00
-6311,13	942,00
-6294,70	1019,00
-6278,29	1071,00
-6261,92	912,00
-6245,58	1200,00
-6229,26	1122,00
-6212,97	1077,00
-6196,72	753,00
-6180,49	598,00
-6164,29	415,00
-6148,12	412,00
-6131,98	305,00
-6115,86	292,00
-6099,78	469,00
-6083,72	187,00
-6067,69	364,00
-6051,69	357,00
-6035,72	409,00
-6019,78	500,00
-6003,87	654,00
-5987,98	765,00
-5972,12	785,00
-5956,29	836,00
-5940,49	674,00
-5924,71	560,00
-5908,96	499,00
-5893,24	314,00
-5877,55	351,00
-5861,89	389,00
-5846,25	456,00
-5830,64	360,00
-5815,05	417,00
-5799,50	358,00
-5783,97	477,00
-5768,47	461,00
-5752,99	571,00
-5737,55	942,00
-5722,12	878,00
-5706,73	721,00
-5691,36	672,00
-5676,02	428,00
-5660,71	439,00
-5645,42	327,00
-5630,16	456,00
-5614,92	250,00
-5599,71	655,00
-5584,53	591,00
-5569,37	597,00
-5554,24	1318,00
-5539,14	618,00
-5524,06	409,00
-5509,01	542,00
-5493,98	588,00
-5478,98	477,00
-5464,00	513,00
-5449,05	484,00
-5434,13	327,00
-5419,23	229,00
-5404,36	479,00
-5389,51	528,00
-5374,69	667,00
-5359,89	971,00
-5345,12	881,00
-5330,37	904,00
-5315,65	585,00
-5300,95	562,00
-5286,28	407,00
-5271,63	483,00
-5257,01	550,00
-5242,41	502,00
-5227,84	547,00
-5213,29	427,00
-5198,76	90,00
-5184,26	213,00
-5169,79	384,00
-5155,33	504,00
-5140,91	472,00
-5126,51	650,00
-5112,13	564,00
-5097,77	572,00
-5083,44	308,00
-5069,13	303,00
-5054,85	385,00
-5040,59	416,00
-5026,36	325,00
-5012,15	521,00
-4997,96	429,00
-4983,80	341,00
-4969,66	218,00
-4955,54	424,00
-4941,44	460,00
-4927,37	626,00
-4913,33	770,00
-4899,30	714,00
-4885,30	709,00
-4871,33	424,00
-4857,37	382,00
-4843,44	199,00
-4829,53	228,00
-4815,65	590,00
-4801,79	281,00
-4787,95	328,00
-4774,13	323,00
-4760,34	322,00
-4746,56	139,00
-4732,82	312,00
-4719,09	324,00
-4705,38	642,00
-4691,70	827,00
-4678,04	756,00
-4664,41	433,00
-4650,79	381,00
-4637,20	285,00
-4623,63	225,00
-4610,08	390,00
-4596,56	472,00
-4583,05	416,00
-4569,57	513,00
-4556,11	117,00
-4542,67	193,00
-4529,25	194,00
-4515,86	480,00
-4502,49	648,00
-4489,13	569,00
-4475,80	544,00
-4462,49	363,00
-4449,21	315,00
-4435,94	365,00
-4422,70	322,00
-4409,47	445,00
-4396,27	527,00
-4383,09	326,00
-4369,93	116,00
-4356,79	176,00
-4343,67	233,00
-4330,58	344,00
-4317,50	313,00
-4304,45	387,00
-4291,41	251,00
-4278,40	295,00
-4265,41	127,00
-4252,44	333,00
-4239,49	421,00
-4226,55	394,00
-4213,65	330,00
-4200,76	278,00
-4187,89	138,00
-4175,04	108,00
-4162,21	180,00
-4149,40	223,00
-4136,61	-10,00
-4123,85	144,00
-4111,10	219,00
-4098,37	159,00
-4085,66	195,00
-4072,98	164,00
-4060,31	132,00
-4047,66	135,00
-4035,04	154,00
-4022,43	126,00
-4009,84	80,00
-3997,27	58,00
-3984,72	77,00
-3972,19	138,00
-3959,69	120,00
-3947,20	46,00
-3934,73	26,00
-3922,27	104,00
-3909,84	4,00
-3897,43	-47,00
-3885,04	75,00
-3872,67	125,00
-3860,31	116,00
-3847,98	79,00
-3835,66	124,00
-3823,36	110,00
-3811,09	119,00
-3798,83	125,00
-3786,59	84,00
-3774,37	85,00
-3762,17	25,00
-3749,98	147,00
-3737,82	163,00
-3725,67	125,00
-3713,55	94,00
-3701,44	170,00
-3689,35	206,00
-3677,28	25,00
-3665,22	140,00
-3653,19	114,00
-3641,17	124,00
-3629,18	141,00
-3617,20	116,00
-3605,24	-1,00
-3593,30	41,00
-3581,37	67,00
-3569,47	123,00
-3557,58	45,00
-3545,71	136,00
-3533,86	-8,00
-3522,02	172,00
-3510,21	49,00
-3498,41	241,00
-3486,63	147,00
-3474,87	54,00
-3463,12	67,00
-3451,40	61,00
-3439,69	63,00
-3428,00	158,00
-3416,33	31,00
-3404,67	65,00
-3393,03	122,00
-3381,41	100,00
-3369,81	-12,00
-3358,22	133,00
-3346,66	30,00
-3335,10	10,00
-3323,57	112,00
-3312,06	90,00
-3300,56	114,00
-3289,08	16,00
-3277,61	145,00
-3266,16	-7,00
-3254,73	135,00
-3243,32	146,00
-3231,92	7,00
-3220,55	75,00
-3209,18	58,00
-3197,84	176,00
-3186,51	82,00
-3175,20	98,00
-3163,90	229,00
-3152,63	95,00
-3141,36	94,00
-3130,12	53,00
-3118,89	90,00
-3107,68	27,00
-3096,49	140,00
-3085,31	128,00
-3074,15	208,00
-3063,00	89,00
-3051,87	66,00
-3040,76	106,00
-3029,67	188,00
-3018,59	126,00
-3007,52	190,00
-2996,48	83,00
-2985,44	139,00
-2974,43	121,00
-2963,43	152,00
-2952,45	86,00
-2941,48	121,00
-2930,53	55,00
-2919,60	-88,00
-2908,68	90,00
-2897,78	60,00
-2886,89	157,00
-2876,02	26,00
-2865,17	48,00
-2854,33	38,00
-2843,50	36,00
-2832,70	120,00
-2821,90	119,00
-2811,13	-52,00
-2800,37	-8,00
-2789,62	97,00
-2778,89	191,00
-2768,18	145,00
-2757,48	122,00
-2746,80	193,00
-2736,13	44,00
-2725,48	115,00
-2714,84	-42,00
-2704,22	9,00
-2693,61	253,00
-2683,02	112,00
-2672,45	61,00
-2661,89	101,00
-2651,34	34,00
-2640,81	75,00
-2630,30	189,00
-2619,80	59,00
-2609,31	61,00
-2598,84	16,00
-2588,39	89,00
-2577,95	45,00
-2567,52	176,00
-2557,11	76,00
-2546,71	46,00
-2536,33	67,00
-2525,97	93,00
-2515,62	84,00
-2505,28	-33,00
-2494,96	61,00
-2484,65	24,00
-2474,36	17,00
-2464,08	120,00
-2453,82	172,00
-2443,57	23,00
-2433,33	119,00
-2423,11	114,00
-2412,91	69,00
-2402,72	59,00
-2392,54	112,00
-2382,38	37,00
-2372,23	92,00
-2362,09	-5096,00
-2351,97	179,00
-2341,87	-56,00
-2331,78	197,00
-2321,70	73,00
-2311,64	136,00
-2301,59	104,00
-2291,55	170,00
-2281,53	20,00
-2271,53	243,00
-2261,53	193,00
-2251,55	-51,00
-2241,59	158,00
-2231,64	-22,00
-2221,70	148,00
-2211,78	138,00
-2201,87	209,00
-2191,97	37,00
-2182,09	110,00
-2172,22	104,00
-2162,37	195,00
-2152,53	101,00
-2142,70	124,00
-2132,89	117,00
-2123,09	99,00
-2113,30	173,00
-2103,53	29,00
-2093,77	117,00
-2084,02	65,00
-2074,29	151,00
-2064,57	118,00
-2054,86	196,00
-2045,17	57,00
-2035,49	192,00
-2025,82	52,00
-2016,17	-15,00
-2006,53	128,00
-1996,91	18,00
-1987,29	5,00
-1977,69	108,00
-1968,11	193,00
-1958,53	125,00
-1948,97	74,00
-1939,42	145,00
-1929,89	-6,00
-1920,37	190,00
-1910,86	53,00
-1901,36	242,00
-1891,88	85,00
-1882,41	68,00
-1872,95	212,00
-1863,51	-39,00
-1854,08	4,00
-1844,66	121,00
-1835,26	164,00
-1825,86	79,00
-1816,48	156,00
-1807,11	113,00
-1797,76	205,00
-1788,42	126,00
-1779,09	35,00
-1769,77	172,00
-1760,47	88,00
-1751,17	20,00
-1741,89	45,00
-1732,63	0,00
-1723,37	93,00
-1714,13	139,00
-1704,90	53,00
-1695,68	249,00
-1686,48	71,00
-1677,29	133,00
-1668,11	253,00
-1658,94	88,00
-1649,78	134,00
-1640,64	145,00
-1631,51	67,00
-1622,39	58,00
-1613,28	100,00
-1604,19	17,00
-1595,10	98,00
-1586,03	133,00
-1576,97	95,00
-1567,93	89,00
-1558,89	16,00
-1549,87	107,00
-1540,86	96,00
-1531,86	41,00
-1522,87	2,00
-1513,90	218,00
-1504,93	112,00
-1495,98	-54,00
-1487,04	111,00
-1478,12	272,00
-1469,20	97,00
-1460,30	192,00
-1451,40	102,00
-1442,52	150,00
-1433,65	12,00
-1424,80	177,00
-1415,95	197,00
-1407,12	204,00
-1398,30	84,00
-1389,48	109,00
-1380,69	113,00
-1371,90	223,00
-1363,12	72,00
-1354,36	95,00
-1345,60	130,00
-1336,86	104,00
-1328,13	160,00
-1319,41	154,00
-1310,70	145,00
-1302,01	175,00
-1293,32	151,00
-1284,65	157,00
-1275,99	167,00
-1267,33	11,00
-1258,69	156,00
-1250,06	124,00
-1241,45	192,00
-1232,84	178,00
-1224,25	46,00
-1215,66	112,00
-1207,09	-8,00
-1198,53	16,00
-1189,97	92,00
-1181,43	157,00
-1172,91	20,00
-1164,39	84,00
-1155,88	143,00
-1147,38	-66,00
-1138,90	130,00
-1130,43	110,00
-1121,96	-8,00
-1113,51	84,00
-1105,07	94,00
-1096,64	99,00
-1088,22	178,00
-1079,81	85,00
-1071,41	236,00
-1063,02	27,00
-1054,65	220,00
-1046,28	14,00
-1037,92	123,00
-1029,58	97,00
-1021,24	101,00
-1012,92	265,00
-1004,61	88,00
-996,30	266,00
-988,01	44,00
-979,73	310,00
-971,46	15,00
-963,20	45,00
-954,95	27,00
-946,71	44,00
-938,48	85,00
-930,26	-1,00
-922,06	60,00
-913,86	157,00
-905,67	213,00
-897,49	192,00
-889,33	197,00
-881,17	182,00
-873,02	192,00
-864,89	68,00
-856,76	42,00
-848,65	193,00
-840,54	40,00
-832,45	106,00
-824,36	60,00
-816,29	96,00
-808,22	88,00
-800,17	91,00
-792,12	105,00
-784,09	218,00
-776,06	99,00
-768,05	3,00
-760,04	102,00
-752,05	98,00
-744,07	167,00
-736,09	92,00
-728,13	214,00
-720,17	77,00
-712,23	97,00
-704,29	4,00
-696,37	13,00
-688,45	49,00
-680,55	41,00
-672,65	317,00
-664,77	14,00
-656,89	104,00
-649,03	156,00
-641,17	121,00
-633,32	97,00
-625,49	121,00
-617,66	167,00
-609,84	52,00
-602,03	65,00
-594,23	145,00
-586,45	173,00
-578,67	123,00
-570,90	89,00
-563,14	172,00
-555,39	194,00
-547,65	46,00
-539,91	113,00
-532,19	108,00
-524,48	88,00
-516,78	76,00
-509,08	89,00
-501,40	-9,00
-493,72	128,00
-486,06	52,00
-478,40	109,00
-470,76	67,00
-463,12	16,00
-455,49	120,00
-447,87	54,00
-440,26	53,00
-432,66	102,00
-425,07	136,00
-417,49	64,00
-409,92	40,00
-402,35	1,00
-394,80	75,00
-387,25	-1,00
-379,72	135,00
-372,19	245,00
-364,67	292,00
-357,17	87,00
-349,67	64,00
-342,18	194,00
-334,69	111,00
-327,22	24,00
-319,76	107,00
-312,30	320,00
-304,86	114,00
-297,42	117,00
-290,00	155,00
-282,58	115,00
-275,17	129,00
-267,77	162,00
-260,37	211,00
-252,99	91,00
-245,62	133,00
-238,25	74,00
-230,90	149,00
-223,55	211,00
-216,21	210,00
-208,88	169,00
-201,56	203,00
-194,25	215,00
-186,94	178,00
-179,65	226,00
-172,36	269,00
-165,08	141,00
-157,81	274,00
-150,55	189,00
-143,30	283,00
-136,06	371,00
-128,82	270,00
-121,60	483,00
-114,38	274,00
-107,17	409,00
-99,97	383,00
-92,78	565,00
-85,60	498,00
-78,42	654,00
-71,25	708,00
-64,10	901,00
-56,95	1159,00
-49,81	1077,00
-42,67	1422,00
-35,55	1777,00
-28,43	2409,00
-21,33	4154,00
-14,23	13794,00
-7,14	47266,00
-0,05	38051,00
7,02	42597,00
14,09	36933,00
21,14	9918,00
28,19	4322,00
35,23	2842,00
42,27	2052,00
49,29	1708,00
56,31	1559,00
63,32	1266,00
70,32	1176,00
77,31	998,00
84,29	841,00
91,27	568,00
98,23	702,00
105,19	662,00
112,14	622,00
119,09	866,00
126,02	1187,00
132,95	1483,00
139,87	1398,00
146,78	1367,00
153,68	1340,00
160,58	1378,00
167,46	1368,00
174,34	1393,00
181,21	1154,00
188,08	1216,00
194,93	1322,00
201,78	1320,00
208,62	1283,00
215,45	1227,00
222,27	1318,00
229,09	1161,00
235,90	1275,00
242,70	1182,00
249,49	1255,00
256,27	1192,00
263,05	1063,00
269,82	1098,00
276,58	1190,00
283,33	1059,00
290,08	1267,00
296,82	1071,00
303,55	1051,00
310,27	1102,00
316,98	1009,00
323,69	1127,00
330,39	1006,00
337,08	1040,00
343,76	963,00
350,44	1059,00
357,11	984,00
363,77	1056,00
370,42	1079,00
377,07	993,00
383,71	1019,00
390,34	971,00
396,96	1003,00
403,58	924,00
410,19	1007,00
416,79	970,00
423,38	952,00
429,97	967,00
436,55	909,00
443,12	921,00
449,68	832,00
456,24	924,00
462,79	861,00
469,33	854,00
475,86	893,00
482,39	900,00
488,91	923,00
495,42	827,00
501,93	894,00
508,42	905,00
514,91	973,00
521,40	830,00
527,87	883,00
534,34	905,00
540,80	932,00
547,25	808,00
553,70	854,00
560,14	767,00
566,57	837,00
573,00	756,00
579,41	836,00
585,83	831,00
592,23	848,00
598,62	725,00
605,01	808,00
611,40	790,00
617,77	838,00
624,14	763,00
630,50	822,00
636,85	704,00
643,20	725,00
649,54	793,00
655,87	700,00
662,20	821,00
668,52	764,00
674,83	716,00
681,13	820,00
687,43	874,00
693,72	792,00
700,00	773,00
706,28	768,00
712,55	794,00
718,81	877,00
725,07	773,00
731,32	692,00
737,56	878,00
743,79	792,00
750,02	903,00
756,24	736,00
762,46	706,00
768,67	851,00
774,87	766,00
781,06	801,00
787,25	728,00
793,43	718,00
799,60	745,00
805,77	829,00
811,93	663,00
818,08	816,00
824,23	880,00
830,37	812,00
836,50	761,00
842,63	768,00
848,75	789,00
854,87	899,00
860,97	875,00
867,07	935,00
873,17	827,00
879,25	753,00
885,33	903,00
891,41	697,00
897,47	695,00
903,53	714,00
909,59	755,00
915,63	883,00
921,67	873,00
927,71	680,00
933,74	728,00
939,76	750,00
945,77	710,00
951,78	829,00
957,78	621,00
963,78	704,00
969,77	615,00
975,75	747,00
981,72	757,00
987,69	965,00
993,66	837,00
999,61	672,00
1005,56	866,00
1011,51	761,00
1017,44	759,00
1023,37	703,00
1029,30	771,00
1035,22	660,00
1041,13	802,00
1047,03	866,00
1052,93	1191,00
1058,83	1366,00
1064,71	1549,00
1070,59	1250,00
1076,47	969,00
1082,33	962,00
1088,20	1002,00
1094,05	848,00
1099,90	874,00
1105,74	856,00
1111,58	823,00
1117,41	929,00
1123,23	1308,00
1129,05	1588,00
1134,86	1505,00
1140,67	1121,00
1146,47	873,00
1152,26	908,00
1158,05	825,00
1163,83	816,00
1169,60	835,00
1175,37	844,00
1181,13	707,00
1186,89	783,00
1192,64	768,00
1198,38	817,00
1204,12	679,00
1209,85	719,00
1215,58	836,00
1221,30	744,00
1227,02	762,00
1232,72	714,00
1238,43	619,00
1244,12	772,00
1249,81	929,00
1255,50	860,00
1261,17	883,00
1266,85	844,00
1272,51	961,00
1278,17	964,00
1283,83	1084,00
1289,47	1576,00
1295,12	2010,00
1300,75	1764,00
1306,38	1451,00
1312,01	1173,00
1317,63	950,00
1323,24	993,00
1328,85	945,00
1334,45	960,00
1340,04	762,00
1345,63	866,00
1351,22	884,00
1356,80	835,00
1362,37	954,00
1367,93	1049,00
1373,49	1076,00
1379,05	967,00
1384,60	1004,00
1390,14	967,00
1395,68	982,00
1401,21	978,00
1406,74	936,00
1412,26	1216,00
1417,77	1294,00
1423,28	1363,00
1428,78	1496,00
1434,28	1635,00
1439,77	2115,00
1445,26	1958,00
1450,74	1910,00
1456,22	1587,00
1461,68	1652,00
1467,15	1313,00
1472,61	1254,00
1478,06	1258,00
1483,51	1030,00
1488,95	1012,00
1494,38	798,00
1499,81	758,00
1505,24	744,00
1510,65	835,00
1516,07	776,00
1521,48	670,00
1526,88	803,00
1532,27	691,00
1537,67	816,00
1543,05	704,00
1548,43	694,00
1553,81	649,00
1559,18	804,00
1564,54	722,00
1569,90	675,00
1575,25	671,00
1580,60	789,00
1585,94	685,00
1591,28	676,00
1596,61	698,00
1601,93	666,00
1607,25	695,00
1612,57	568,00
1617,88	742,00
1623,18	742,00
1628,48	737,00
1633,77	730,00
1639,06	746,00
1644,34	744,00
1649,62	599,00
1654,89	649,00
1660,16	725,00
1665,42	671,00
1670,67	665,00
1675,92	608,00
1681,17	652,00
1686,41	640,00
1691,64	783,00
1696,87	692,00
1702,10	656,00
1707,32	493,00
1712,53	689,00
1717,74	695,00
1722,94	648,00
1728,14	672,00
1733,33	689,00
1738,52	756,00
1743,70	655,00
1748,88	614,00
1754,05	638,00
1759,22	636,00
1764,38	-1185,00
1769,53	583,00
1774,69	577,00
1779,83	670,00
1784,97	636,00
1790,11	562,00
1795,24	604,00
1800,36	658,00
1805,48	729,00
1810,60	703,00
1815,71	483,00
1820,82	698,00
1825,92	626,00
1831,01	646,00
1836,10	610,00
1841,19	541,00
1846,26	649,00
1851,34	622,00
1856,41	556,00
1861,47	570,00
1866,53	513,00
1871,59	571,00
1876,64	581,00
1881,68	607,00
1886,72	558,00
1891,76	541,00
1896,79	624,00
1901,81	541,00
1906,83	550,00
1911,85	498,00
1916,86	601,00
1921,86	553,00
1926,86	542,00
1931,86	710,00
1936,85	472,00
1941,83	582,00
1946,81	644,00
1951,79	523,00
1956,76	449,00
1961,72	568,00
1966,68	608,00
1971,64	488,00
1976,59	571,00
1981,54	515,00
1986,48	592,00
1991,42	519,00
1996,35	635,00
2001,27	414,00
2006,20	707,00
2011,11	609,00
2016,03	447,00
2020,93	604,00
2025,84	431,00
2030,73	514,00
2035,63	499,00
2040,52	514,00
2045,40	446,00
2050,28	426,00
2055,15	512,00
2060,02	571,00
2064,89	529,00
2069,75	505,00
2074,60	466,00
2079,46	387,00
2084,30	560,00
2089,14	447,00
2093,98	503,00
2098,81	469,00
2103,64	430,00
2108,46	420,00
2113,28	528,00
2118,09	513,00
2122,90	539,00
2127,70	617,00
2132,50	508,00
2137,30	501,00
2142,09	529,00
2146,87	528,00
2151,66	452,00
2156,43	542,00
2161,20	547,00
2165,97	568,00
2170,73	622,00
2175,49	406,00
2180,24	466,00
2184,99	447,00
2189,74	560,00
2194,48	498,00
2199,21	398,00
2203,94	519,00
2208,67	499,00
2213,39	427,00
2218,11	311,00
2222,82	584,00
2227,53	466,00
2232,23	423,00
2236,93	492,00
2241,63	511,00
2246,32	454,00
2251,00	453,00
2255,68	486,00
2260,36	379,00
2265,03	434,00
2269,70	424,00
2274,36	530,00
2279,02	400,00
2283,68	516,00
2288,33	512,00
2292,97	464,00
2297,61	443,00
2302,25	457,00
2306,88	482,00
2311,51	564,00
2316,14	416,00
2320,75	520,00
2325,37	411,00
2329,98	423,00
2334,59	467,00
2339,19	521,00
2343,79	404,00
2348,38	470,00
2352,97	398,00
2357,55	542,00
2362,13	492,00
2366,71	363,00
2371,28	393,00
2375,85	487,00
2380,41	512,00
2384,97	470,00
2389,52	347,00
2394,07	401,00
2398,62	352,00
2403,16	498,00
2407,70	395,00
2412,23	535,00
2416,76	391,00
2421,29	445,00
2425,81	505,00
2430,32	498,00
2434,84	421,00
2439,34	508,00
2443,85	443,00
2448,35	521,00
2452,84	460,00
2457,33	447,00
2461,82	364,00
2466,30	391,00
2470,78	437,00
2475,25	339,00
2479,72	352,00
2484,19	456,00
2488,65	420,00
2493,11	264,00
2497,56	327,00
2502,01	382,00
2506,46	371,00
2510,90	367,00
2515,34	347,00
2519,77	464,00
2524,20	449,00
2528,62	405,00
2533,04	415,00
2537,46	437,00
2541,87	312,00
2546,28	370,00
2550,68	349,00
2555,08	375,00
2559,48	432,00
2563,87	380,00
2568,26	282,00
2572,64	342,00
2577,02	435,00
2581,40	392,00
2585,77	464,00
2590,14	470,00
2594,50	412,00
2598,86	452,00
2603,22	407,00
2607,57	371,00
2611,92	389,00
2616,26	427,00
2620,60	378,00
2624,94	385,00
2629,27	506,00
2633,60	292,00
2637,92	272,00
2642,24	373,00
2646,56	486,00
2650,87	361,00
2655,18	464,00
2659,48	329,00
2663,78	422,00
2668,08	405,00
2672,37	512,00
2676,66	306,00
2680,95	383,00
2685,23	411,00
2689,50	469,00
2693,78	276,00
2698,05	483,00
2702,31	491,00
2706,57	340,00
2710,83	504,00
2715,08	477,00
2719,33	538,00
2723,58	600,00
2727,82	432,00
2732,06	485,00
2736,29	509,00
2740,53	540,00
2744,75	425,00
2748,97	436,00
2753,19	506,00
2757,41	342,00
2761,62	341,00
2765,83	427,00
2770,03	514,00
2774,23	404,00
2778,43	397,00
2782,62	527,00
2786,81	388,00
2791,00	568,00
2795,18	580,00
2799,35	503,00
2803,53	483,00
2807,70	597,00
2811,86	626,00
2816,03	514,00
2820,19	664,00
2824,34	645,00
2828,49	684,00
2832,64	955,00
2836,78	937,00
2840,92	1292,00
2845,06	1565,00
2849,19	1741,00
2853,32	1866,00
2857,45	1862,00
2861,57	1655,00
2865,69	1677,00
2869,80	1674,00
2873,91	1634,00
2878,02	1800,00
2882,12	1831,00
2886,22	2037,00
2890,32	1764,00
2894,41	1625,00
2898,50	1638,00
2902,58	1415,00
2906,67	1391,00
2910,74	1263,00
2914,82	1132,00
2918,89	1116,00
2922,96	930,00
2927,02	935,00
2931,08	953,00
2935,13	866,00
2939,19	800,00
2943,24	677,00
2947,28	618,00
2951,32	679,00
2955,36	500,00
2959,40	456,00
2963,43	518,00
2967,46	424,00
2971,48	500,00
2975,50	542,00
2979,52	358,00
2983,53	359,00
2987,54	359,00
2991,55	294,00
2995,55	347,00
2999,55	409,00
3003,54	373,00
3007,54	234,00
3011,53	336,00
3015,51	239,00
3019,49	259,00
3023,47	253,00
3027,45	269,00
3031,42	293,00
3035,39	245,00
3039,35	320,00
3043,31	290,00
3047,27	325,00
3051,22	338,00
3055,17	285,00
3059,12	276,00
3063,06	189,00
3067,00	298,00
3070,94	240,00
3074,87	289,00
3078,80	269,00
3082,73	284,00
3086,65	237,00
3090,57	263,00
3094,49	219,00
3098,40	339,00
3102,31	205,00
3106,22	273,00
3110,12	314,00
3114,02	243,00
3117,92	231,00
3121,81	272,00
3125,70	165,00
3129,58	163,00
3133,47	196,00
3137,34	181,00
3141,22	355,00
3145,09	314,00
3148,96	261,00
3152,83	189,00
3156,69	344,00
3160,55	207,00
3164,40	233,00
3168,26	95,00
3172,10	411,00
3175,95	209,00
3179,79	142,00
3183,63	107,00
3187,47	304,00
3191,30	115,00
3195,13	127,00
3198,95	120,00
3202,78	251,00
3206,60	144,00
3210,41	202,00
3214,23	59,00
3218,03	249,00
3221,84	112,00
3225,64	255,00
3229,44	156,00
3233,24	154,00
3237,03	318,00
3240,82	49,00
3244,61	116,00
3248,39	174,00
3252,17	324,00
3255,95	270,00
3259,72	234,00
3263,49	135,00
3267,26	212,00
3271,03	225,00
3274,79	80,00
3278,54	75,00
3282,30	128,00
3286,05	129,00
3289,80	75,00
3293,54	135,00
3297,29	146,00
3301,02	209,00
3304,76	143,00
3308,49	158,00
3312,22	174,00
3315,95	85,00
3319,67	283,00
3323,39	177,00
3327,10	230,00
3330,82	197,00
3334,53	259,00
3338,24	196,00
3341,94	168,00
3345,64	144,00
3349,34	147,00
3353,03	234,00
3356,72	219,00
3360,41	221,00
3364,10	229,00
3367,78	93,00
3371,46	99,00
3375,13	258,00
3378,81	189,00
3382,48	195,00
3386,14	11,00
3389,81	241,00
3393,47	231,00
3397,12	104,00
3400,78	138,00
3404,43	281,00
3408,08	243,00
3411,72	114,00
3415,36	165,00
3419,00	311,00
3422,64	144,00
3426,27	139,00
3429,90	206,00
3433,53	123,00
3437,15	159,00
3440,77	265,00
3444,39	156,00
3448,00	108,00
3451,62	142,00
3455,22	244,00
3458,83	190,00
3462,43	132,00
3466,03	21,00
3469,63	259,00
3473,22	136,00
3476,81	204,00
3480,40	112,00
3483,99	61,00
3487,57	118,00
3491,15	104,00
3494,72	112,00
3498,29	144,00
3501,86	97,00
3505,43	-21,00
3508,99	145,00
3512,56	106,00
3516,11	217,00
3519,67	192,00
3523,22	194,00
3526,77	113,00
3530,32	256,00
3533,86	204,00
3537,40	91,00
3540,94	60,00
3544,47	88,00
3548,00	183,00
3551,53	84,00
3555,06	-22,00
3558,58	78,00
3562,10	143,00
3565,62	263,00
3569,13	30,00
3572,64	40,00
3576,15	54,00
3579,66	3,00
3583,16	157,00
3586,66	35,00
3590,16	143,00
3593,65	72,00
3597,14	60,00
3600,63	110,00
3604,11	116,00
3607,60	142,00
3611,08	198,00
3614,55	15,00
3618,03	32,00
3621,50	237,00
3624,97	205,00
3628,43	125,00
3631,90	143,00
3635,36	112,00
3638,81	58,00
3642,27	41,00
3645,72	179,00
3649,17	39,00
3652,61	54,00
3656,06	132,00
3659,50	127,00
3662,93	39,00
3666,37	107,00
3669,80	168,00
3673,23	112,00
3676,65	220,00
3680,08	69,00
3683,50	11,00
3686,92	77,00
3690,33	55,00
3693,74	114,00
3697,15	179,00
3700,56	9,00
3703,96	37,00
3707,36	32,00
3710,76	14,00
3714,16	156,00
3717,55	40,00
3720,94	100,00
3724,33	93,00
3727,71	48,00
3731,10	127,00
3734,48	144,00
3737,85	141,00
3741,23	12,00
3744,60	109,00
3747,97	18,00
3751,33	138,00
3754,69	14,00
3758,05	195,00
3761,41	-7,00
3764,77	168,00
3768,12	62,00
3771,47	126,00
3774,82	-40,00
3778,16	8,00
3781,50	-4,00
3784,84	1,00
3788,18	10,00
>>>>>End Processed Spectral Data<<<<<
