SpectraSuite Data File
++++++++++++++++++++++++++++++++++++
Date: Tue Mar 03 12:44:13 ICT 2026
User: user
Dark Spectrum Present: Yes
Reference Spectrum Present: No
Number of Sampled Component Spectra: 1
Spectrometers: MAYP113682
Integration Time (usec): 3000000 (MAYP113682)
Spectra Averaged: 1 (MAYP113682)
Boxcar Smoothing: 0 (MAYP113682)
Correct for Electrical Dark: No (MAYP113682)
Strobe/Lamp Enabled: No (MAYP113682)
Correct for Detector Non-linearity: No (MAYP113682)
Correct for Stray Light: No (MAYP113682)
Number of Pixels in Processed Spectrum: 2068
>>>>>Begin Processed Spectral Data<<<<<
-37534,58	6,00
-37414,56	-1,00
-37295,11	-5,00
-37176,24	3,00
-37057,95	94,00
-36940,22	26,00
-36823,05	146,00
-36706,45	32,00
-36590,40	140,00
-36474,90	55,00
-36359,95	147,00
-36245,55	221,00
-36131,68	100,00
-36018,35	29,00
-35905,55	118,00
-35793,29	150,00
-35681,54	175,00
-35570,32	19,00
-35459,62	29,00
-35349,43	13,00
-35239,75	231,00
-35130,58	145,00
-35021,91	160,00
-34913,74	270,00
-34806,07	130,00
-34698,89	224,00
-34592,20	109,00
-34486,00	88,00
-34380,28	63,00
-34275,04	81,00
-34170,27	88,00
-34065,98	5,00
-33962,16	92,00
-33858,81	155,00
-33755,92	184,00
-33653,49	100,00
-33551,52	105,00
-33450,01	162,00
-33348,94	94,00
-33248,33	115,00
-33148,16	64,00
-33048,43	105,00
-32949,14	158,00
-32850,29	114,00
-32751,87	89,00
-32653,89	192,00
-32556,33	202,00
-32459,20	192,00
-32362,49	104,00
-32266,19	60,00
-32170,32	206,00
-32074,86	101,00
-31979,82	99,00
-31885,18	62,00
-31790,95	37,00
-31697,12	44,00
-31603,69	64,00
-31510,67	132,00
-31418,04	149,00
-31325,80	205,00
-31233,95	126,00
-31142,49	256,00
-31051,42	61,00
-30960,73	157,00
-30870,43	200,00
-30780,50	217,00
-30690,95	88,00
-30601,77	115,00
-30512,97	84,00
-30424,53	171,00
-30336,46	157,00
-30248,76	213,00
-30161,42	135,00
-30074,44	200,00
-29987,81	167,00
-29901,55	73,00
-29815,63	84,00
-29730,07	56,00
-29644,86	91,00
-29560,00	207,00
-29475,48	19,00
-29391,30	165,00
-29307,47	127,00
-29223,97	148,00
-29140,81	59,00
-29057,99	61,00
-28975,50	173,00
-28893,34	172,00
-28811,51	89,00
-28730,00	204,00
-28648,82	152,00
-28567,97	130,00
-28487,43	140,00
-28407,21	129,00
-28327,32	71,00
-28247,73	68,00
-28168,46	53,00
-28089,50	135,00
-28010,85	103,00
-27932,51	138,00
-27854,48	-5,00
-27776,75	145,00
-27699,32	196,00
-27622,19	248,00
-27545,37	139,00
-27468,84	96,00
-27392,60	71,00
-27316,66	201,00
-27241,01	216,00
-27165,66	241,00
-27090,59	13,00
-27015,81	275,00
-26941,31	148,00
-26867,10	139,00
-26793,17	201,00
-26719,52	40,00
-26646,15	159,00
-26573,06	195,00
-26500,24	214,00
-26427,70	149,00
-26355,43	119,00
-26283,43	108,00
-26211,71	36,00
-26140,25	40,00
-26069,06	260,00
-25998,13	83,00
-25927,46	107,00
-25857,06	231,00
-25786,92	115,00
-25717,04	24,00
-25647,42	43,00
-25578,05	163,00
-25508,94	29,00
-25440,09	143,00
-25371,48	130,00
-25303,13	166,00
-25235,02	160,00
-25167,17	139,00
-25099,56	152,00
-25032,19	209,00
-24965,07	130,00
-24898,20	41,00
-24831,56	168,00
-24765,17	21,00
-24699,01	171,00
-24633,10	138,00
-24567,41	15,00
-24501,97	142,00
-24436,75	99,00
-24371,77	235,00
-24307,03	116,00
-24242,51	117,00
-24178,22	130,00
-24114,16	65,00
-24050,32	37,00
-23986,71	64,00
-23923,32	225,00
-23860,16	12,00
-23797,22	278,00
-23734,50	126,00
-23672,00	116,00
-23609,71	245,00
-23547,65	168,00
-23485,80	128,00
-23424,16	119,00
-23362,74	156,00
-23301,53	57,00
-23240,54	143,00
-23179,75	84,00
-23119,17	149,00
-23058,80	173,00
-22998,64	125,00
-22938,68	19,00
-22878,93	99,00
-22819,39	69,00
-22760,04	58,00
-22700,90	172,00
-22641,96	18,00
-22583,22	201,00
-22524,68	79,00
-22466,33	158,00
-22408,19	120,00
-22350,23	152,00
-22292,48	86,00
-22234,92	84,00
-22177,55	67,00
-22120,37	266,00
-22063,38	136,00
-22006,58	148,00
-21949,98	196,00
-21893,56	169,00
-21837,33	222,00
-21781,28	190,00
-21725,42	182,00
-21669,74	158,00
-21614,25	156,00
-21558,94	88,00
-21503,81	221,00
-21448,86	88,00
-21394,10	163,00
-21339,51	229,00
-21285,10	71,00
-21230,86	55,00
-21176,81	121,00
-21122,93	100,00
-21069,22	160,00
-21015,69	79,00
-20962,33	183,00
-20909,14	125,00
-20856,13	155,00
-20803,28	69,00
-20750,61	155,00
-20698,10	150,00
-20645,76	150,00
-20593,59	196,00
-20541,59	143,00
-20489,75	131,00
-20438,07	239,00
-20386,56	207,00
-20335,22	160,00
-20284,03	117,00
-20233,01	29,00
-20182,15	104,00
-20131,45	109,00
-20080,91	51,00
-20030,52	67,00
-19980,30	146,00
-19930,23	58,00
-19880,32	64,00
-19830,56	356,00
-19780,96	69,00
-19731,52	203,00
-19682,23	79,00
-19633,09	44,00
-19584,10	195,00
-19535,26	146,00
-19486,58	39,00
-19438,04	34,00
-19389,66	-24,00
-19341,42	55,00
-19293,33	-8,00
-19245,39	176,00
-19197,60	177,00
-19149,95	219,00
-19102,45	94,00
-19055,09	168,00
-19007,87	208,00
-18960,80	151,00
-18913,87	132,00
-18867,09	53,00
-18820,44	118,00
-18773,94	199,00
-18727,57	86,00
-18681,35	104,00
-18635,26	177,00
-18589,31	192,00
-18543,50	62,00
-18497,83	52,00
-18452,29	3,00
-18406,89	165,00
-18361,63	104,00
-18316,50	18,00
-18271,50	125,00
-18226,63	148,00
-18181,90	139,00
-18137,30	188,00
-18092,84	49,00
-18048,50	0,00
-18004,29	132,00
-17960,22	271,00
-17916,27	74,00
-17872,45	145,00
-17828,76	-27,00
-17785,20	119,00
-17741,77	230,00
-17698,46	108,00
-17655,28	162,00
-17612,22	-20,00
-17569,29	208,00
-17526,48	82,00
-17483,79	139,00
-17441,23	121,00
-17398,79	143,00
-17356,48	173,00
-17314,28	195,00
-17272,21	130,00
-17230,26	98,00
-17188,42	250,00
-17146,71	236,00
-17105,12	147,00
-17063,64	101,00
-17022,28	145,00
-16981,04	66,00
-16939,92	101,00
-16898,91	107,00
-16858,02	16,00
-16817,25	50,00
-16776,59	226,00
-16736,04	123,00
-16695,61	210,00
-16655,29	184,00
-16615,09	47,00
-16574,99	112,00
-16535,01	168,00
-16495,15	56,00
-16455,39	171,00
-16415,74	164,00
-16376,21	91,00
-16336,78	38,00
-16297,46	222,00
-16258,26	271,00
-16219,16	54,00
-16180,17	144,00
-16141,28	170,00
-16102,51	-27,00
-16063,84	61,00
-16025,27	121,00
-15986,82	132,00
-15948,46	40,00
-15910,22	57,00
-15872,07	169,00
-15834,04	128,00
-15796,10	138,00
-15758,27	182,00
-15720,54	161,00
-15682,91	152,00
-15645,39	28,00
-15607,97	134,00
-15570,64	63,00
-15533,42	52,00
-15496,30	78,00
-15459,28	176,00
-15422,36	159,00
-15385,54	60,00
-15348,82	137,00
-15312,19	66,00
-15275,66	88,00
-15239,23	71,00
-15202,90	90,00
-15166,67	75,00
-15130,53	82,00
-15094,48	131,00
-15058,54	208,00
-15022,68	103,00
-14986,93	118,00
-14951,26	138,00
-14915,69	111,00
-14880,22	98,00
-14844,84	115,00
-14809,55	0,00
-14774,35	174,00
-14739,25	191,00
-14704,24	31,00
-14669,32	157,00
-14634,49	288,00
-14599,75	164,00
-14565,10	169,00
-14530,55	106,00
-14496,08	238,00
-14461,70	171,00
-14427,41	98,00
-14393,21	41,00
-14359,10	86,00
-14325,07	146,00
-14291,14	144,00
-14257,29	118,00
-14223,52	205,00
-14189,85	127,00
-14156,26	97,00
-14122,76	-7,00
-14089,34	148,00
-14056,01	76,00
-14022,76	70,00
-13989,60	90,00
-13956,52	71,00
-13923,53	117,00
-13890,62	112,00
-13857,79	161,00
-13825,05	100,00
-13792,39	179,00
-13759,81	209,00
-13727,31	-69,00
-13694,90	129,00
-13662,57	204,00
-13630,31	176,00
-13598,14	178,00
-13566,05	166,00
-13534,05	96,00
-13502,12	116,00
-13470,27	120,00
-13438,50	8,00
-13406,80	294,00
-13375,19	57,00
-13343,66	68,00
-13312,20	147,00
-13280,83	100,00
-13249,53	166,00
-13218,30	128,00
-13187,16	24,00
-13156,09	129,00
-13125,10	238,00
-13094,18	143,00
-13063,34	9,00
-13032,58	142,00
-13001,89	136,00
-12971,28	132,00
-12940,74	140,00
-12910,27	40,00
-12879,88	14,00
-12849,57	263,00
-12819,33	28,00
-12789,16	97,00
-12759,06	208,00
-12729,04	120,00
-12699,09	-1438,00
-12669,21	175,00
-12639,41	106,00
-12609,68	93,00
-12580,02	102,00
-12550,43	60,00
-12520,91	209,00
-12491,46	64,00
-12462,08	161,00
-12432,77	148,00
-12403,54	119,00
-12374,37	102,00
-12345,27	61,00
-12316,24	72,00
-12287,29	61,00
-12258,40	95,00
-12229,57	172,00
-12200,82	109,00
-12172,14	160,00
-12143,52	108,00
-12114,97	141,00
-12086,49	144,00
-12058,07	-2,00
-12029,73	28,00
-12001,44	62,00
-11973,23	92,00
-11945,08	52,00
-11917,00	149,00
-11888,98	113,00
-11861,03	91,00
-11833,15	121,00
-11805,32	90,00
-11777,57	127,00
-11749,88	196,00
-11722,25	67,00
-11694,69	191,00
-11667,19	70,00
-11639,75	95,00
-11612,38	222,00
-11585,07	31,00
-11557,83	188,00
-11530,65	71,00
-11503,53	189,00
-11476,47	97,00
-11449,48	104,00
-11422,54	307,00
-11395,67	90,00
-11368,86	164,00
-11342,11	23,00
-11315,43	143,00
-11288,80	180,00
-11262,23	283,00
-11235,73	132,00
-11209,28	146,00
-11182,90	179,00
-11156,57	116,00
-11130,31	226,00
-11104,10	217,00
-11077,96	26,00
-11051,87	184,00
-11025,84	103,00
-10999,87	188,00
-10973,96	137,00
-10948,11	159,00
-10922,31	-63,00
-10896,58	233,00
-10870,90	154,00
-10845,28	162,00
-10819,71	77,00
-10794,20	124,00
-10768,75	334,00
-10743,36	155,00
-10718,02	163,00
-10692,74	121,00
-10667,52	82,00
-10642,35	135,00
-10617,24	276,00
-10592,18	278,00
-10567,18	268,00
-10542,23	182,00
-10517,34	324,00
-10492,51	212,00
-10467,72	286,00
-10443,00	296,00
-10418,32	285,00
-10393,70	184,00
-10369,14	264,00
-10344,63	391,00
-10320,17	348,00
-10295,77	362,00
-10271,42	413,00
-10247,12	256,00
-10222,88	433,00
-10198,68	445,00
-10174,54	447,00
-10150,46	586,00
-10126,42	460,00
-10102,44	493,00
-10078,51	722,00
-10054,63	651,00
-10030,80	635,00
-10007,03	560,00
-9983,30	545,00
-9959,63	643,00
-9936,01	799,00
-9912,44	732,00
-9888,92	711,00
-9865,44	784,00
-9842,02	836,00
-9818,65	735,00
-9795,33	770,00
-9772,06	806,00
-9748,84	848,00
-9725,67	932,00
-9702,55	1176,00
-9679,47	1353,00
-9656,45	1255,00
-9633,47	1440,00
-9610,55	1476,00
-9587,67	1454,00
-9564,84	1706,00
-9542,06	1772,00
-9519,32	1967,00
-9496,64	2290,00
-9474,00	2294,00
-9451,41	2362,00
-9428,87	2408,00
-9406,37	2388,00
-9383,92	2084,00
-9361,52	2017,00
-9339,17	1990,00
-9316,86	2305,00
-9294,60	2697,00
-9272,38	2908,00
-9250,21	2941,00
-9228,09	3222,00
-9206,01	3073,00
-9183,98	2703,00
-9162,00	2423,00
-9140,06	2301,00
-9118,16	2225,00
-9096,31	2392,00
-9074,51	2395,00
-9052,75	2409,00
-9031,04	2393,00
-9009,37	1992,00
-8987,74	1859,00
-8966,16	1723,00
-8944,63	1535,00
-8923,14	1387,00
-8901,69	1553,00
-8880,29	1683,00
-8858,93	1875,00
-8837,61	2119,00
-8816,34	2345,00
-8795,11	2201,00
-8773,92	2163,00
-8752,78	1797,00
-8731,68	1731,00
-8710,62	1685,00
-8689,61	1881,00
-8668,63	1941,00
-8647,70	2082,00
-8626,82	2120,00
-8605,97	2006,00
-8585,17	1885,00
-8564,41	1629,00
-8543,69	1671,00
-8523,01	1441,00
-8502,37	1617,00
-8481,78	1445,00
-8461,23	1655,00
-8440,71	1932,00
-8420,24	1964,00
-8399,81	2107,00
-8379,42	2028,00
-8359,08	1871,00
-8338,77	1681,00
-8318,50	1525,00
-8298,27	1486,00
-8278,09	1694,00
-8257,94	1662,00
-8237,83	1759,00
-8217,76	1894,00
-8197,74	1925,00
-8177,75	1764,00
-8157,80	1595,00
-8137,89	1534,00
-8118,02	1620,00
-8098,19	1424,00
-8078,40	1538,00
-8058,65	1561,00
-8038,93	1826,00
-8019,26	1651,00
-7999,62	1617,00
-7980,02	1588,00
-7960,46	1438,00
-7940,94	1502,00
-7921,46	1447,00
-7902,01	1363,00
-7882,60	1280,00
-7863,23	1417,00
-7843,90	1368,00
-7824,61	1478,00
-7805,35	1575,00
-7786,13	1683,00
-7766,95	1597,00
-7747,80	1455,00
-7728,69	1529,00
-7709,62	1512,00
-7690,59	1509,00
-7671,59	1523,00
-7652,63	1783,00
-7633,70	1743,00
-7614,81	1650,00
-7595,96	1394,00
-7577,15	1443,00
-7558,37	1279,00
-7539,62	1507,00
-7520,91	1490,00
-7502,24	1607,00
-7483,60	1737,00
-7465,00	1425,00
-7446,44	1250,00
-7427,91	1269,00
-7409,41	1104,00
-7390,95	927,00
-7372,53	1040,00
-7354,14	999,00
-7335,78	1002,00
-7317,46	1104,00
-7299,18	1337,00
-7280,92	1408,00
-7262,71	1516,00
-7244,52	1619,00
-7226,38	1536,00
-7208,26	1444,00
-7190,18	1561,00
-7172,14	1360,00
-7154,12	1298,00
-7136,15	1497,00
-7118,20	1668,00
-7100,29	1577,00
-7082,41	1570,00
-7064,57	1443,00
-7046,76	1457,00
-7028,98	1187,00
-7011,24	1096,00
-6993,53	866,00
-6975,85	950,00
-6958,20	784,00
-6940,59	803,00
-6923,01	794,00
-6905,46	1056,00
-6887,94	1057,00
-6870,46	1279,00
-6853,01	1314,00
-6835,59	1509,00
-6818,21	1233,00
-6800,85	997,00
-6783,53	882,00
-6766,24	725,00
-6748,98	681,00
-6731,76	643,00
-6714,56	603,00
-6697,40	690,00
-6680,26	623,00
-6663,16	741,00
-6646,09	973,00
-6629,05	1104,00
-6612,05	1129,00
-6595,07	1206,00
-6578,13	1065,00
-6561,21	990,00
-6544,33	588,00
-6527,47	601,00
-6510,65	472,00
-6493,86	598,00
-6477,10	605,00
-6460,36	513,00
-6443,66	507,00
-6426,99	481,00
-6410,35	540,00
-6393,74	564,00
-6377,16	733,00
-6360,61	764,00
-6344,09	797,00
-6327,59	958,00
-6311,13	841,00
-6294,70	914,00
-6278,29	1016,00
-6261,92	995,00
-6245,58	1141,00
-6229,26	1127,00
-6212,97	1125,00
-6196,72	717,00
-6180,49	744,00
-6164,29	551,00
-6148,12	455,00
-6131,98	316,00
-6115,86	419,00
-6099,78	397,00
-6083,72	177,00
-6067,69	315,00
-6051,69	358,00
-6035,72	337,00
-6019,78	379,00
-6003,87	597,00
-5987,98	848,00
-5972,12	793,00
-5956,29	785,00
-5940,49	602,00
-5924,71	620,00
-5908,96	362,00
-5893,24	400,00
-5877,55	395,00
-5861,89	357,00
-5846,25	507,00
-5830,64	487,00
-5815,05	468,00
-5799,50	429,00
-5783,97	424,00
-5768,47	526,00
-5752,99	485,00
-5737,55	840,00
-5722,12	746,00
-5706,73	707,00
-5691,36	578,00
-5676,02	418,00
-5660,71	412,00
-5645,42	238,00
-5630,16	517,00
-5614,92	450,00
-5599,71	654,00
-5584,53	559,00
-5569,37	466,00
-5554,24	1496,00
-5539,14	594,00
-5524,06	542,00
-5509,01	531,00
-5493,98	540,00
-5478,98	366,00
-5464,00	512,00
-5449,05	391,00
-5434,13	379,00
-5419,23	350,00
-5404,36	348,00
-5389,51	474,00
-5374,69	637,00
-5359,89	943,00
-5345,12	872,00
-5330,37	832,00
-5315,65	615,00
-5300,95	659,00
-5286,28	418,00
-5271,63	403,00
-5257,01	527,00
-5242,41	436,00
-5227,84	652,00
-5213,29	559,00
-5198,76	231,00
-5184,26	237,00
-5169,79	274,00
-5155,33	485,00
-5140,91	548,00
-5126,51	596,00
-5112,13	532,00
-5097,77	483,00
-5083,44	469,00
-5069,13	266,00
-5054,85	483,00
-5040,59	490,00
-5026,36	473,00
-5012,15	570,00
-4997,96	530,00
-4983,80	388,00
-4969,66	330,00
-4955,54	428,00
-4941,44	433,00
-4927,37	634,00
-4913,33	787,00
-4899,30	778,00
-4885,30	777,00
-4871,33	480,00
-4857,37	275,00
-4843,44	140,00
-4829,53	269,00
-4815,65	496,00
-4801,79	431,00
-4787,95	404,00
-4774,13	381,00
-4760,34	390,00
-4746,56	103,00
-4732,82	315,00
-4719,09	440,00
-4705,38	586,00
-4691,70	752,00
-4678,04	762,00
-4664,41	441,00
-4650,79	388,00
-4637,20	429,00
-4623,63	356,00
-4610,08	361,00
-4596,56	457,00
-4583,05	414,00
-4569,57	531,00
-4556,11	146,00
-4542,67	197,00
-4529,25	291,00
-4515,86	417,00
-4502,49	632,00
-4489,13	541,00
-4475,80	469,00
-4462,49	375,00
-4449,21	377,00
-4435,94	374,00
-4422,70	274,00
-4409,47	403,00
-4396,27	495,00
-4383,09	309,00
-4369,93	177,00
-4356,79	148,00
-4343,67	179,00
-4330,58	359,00
-4317,50	290,00
-4304,45	530,00
-4291,41	222,00
-4278,40	243,00
-4265,41	152,00
-4252,44	318,00
-4239,49	392,00
-4226,55	406,00
-4213,65	304,00
-4200,76	236,00
-4187,89	193,00
-4175,04	304,00
-4162,21	145,00
-4149,40	139,00
-4136,61	64,00
-4123,85	172,00
-4111,10	167,00
-4098,37	204,00
-4085,66	363,00
-4072,98	176,00
-4060,31	121,00
-4047,66	271,00
-4035,04	221,00
-4022,43	81,00
-4009,84	28,00
-3997,27	99,00
-3984,72	50,00
-3972,19	131,00
-3959,69	59,00
-3947,20	124,00
-3934,73	110,00
-3922,27	121,00
-3909,84	104,00
-3897,43	180,00
-3885,04	121,00
-3872,67	205,00
-3860,31	159,00
-3847,98	79,00
-3835,66	88,00
-3823,36	118,00
-3811,09	247,00
-3798,83	181,00
-3786,59	43,00
-3774,37	280,00
-3762,17	37,00
-3749,98	92,00
-3737,82	95,00
-3725,67	44,00
-3713,55	126,00
-3701,44	110,00
-3689,35	227,00
-3677,28	114,00
-3665,22	187,00
-3653,19	58,00
-3641,17	126,00
-3629,18	213,00
-3617,20	99,00
-3605,24	122,00
-3593,30	124,00
-3581,37	176,00
-3569,47	155,00
-3557,58	127,00
-3545,71	129,00
-3533,86	45,00
-3522,02	28,00
-3510,21	153,00
-3498,41	86,00
-3486,63	37,00
-3474,87	83,00
-3463,12	196,00
-3451,40	46,00
-3439,69	104,00
-3428,00	150,00
-3416,33	35,00
-3404,67	94,00
-3393,03	146,00
-3381,41	34,00
-3369,81	148,00
-3358,22	83,00
-3346,66	139,00
-3335,10	17,00
-3323,57	167,00
-3312,06	90,00
-3300,56	110,00
-3289,08	-17,00
-3277,61	-17,00
-3266,16	159,00
-3254,73	14,00
-3243,32	142,00
-3231,92	101,00
-3220,55	94,00
-3209,18	271,00
-3197,84	164,00
-3186,51	10,00
-3175,20	34,00
-3163,90	278,00
-3152,63	97,00
-3141,36	98,00
-3130,12	-4,00
-3118,89	56,00
-3107,68	112,00
-3096,49	135,00
-3085,31	99,00
-3074,15	196,00
-3063,00	104,00
-3051,87	159,00
-3040,76	174,00
-3029,67	154,00
-3018,59	82,00
-3007,52	149,00
-2996,48	25,00
-2985,44	243,00
-2974,43	216,00
-2963,43	219,00
-2952,45	186,00
-2941,48	204,00
-2930,53	156,00
-2919,60	81,00
-2908,68	97,00
-2897,78	72,00
-2886,89	61,00
-2876,02	89,00
-2865,17	-23,00
-2854,33	150,00
-2843,50	155,00
-2832,70	160,00
-2821,90	87,00
-2811,13	31,00
-2800,37	162,00
-2789,62	200,00
-2778,89	184,00
-2768,18	215,00
-2757,48	230,00
-2746,80	123,00
-2736,13	35,00
-2725,48	134,00
-2714,84	102,00
-2704,22	57,00
-2693,61	261,00
-2683,02	166,00
-2672,45	112,00
-2661,89	131,00
-2651,34	122,00
-2640,81	91,00
-2630,30	203,00
-2619,80	48,00
-2609,31	117,00
-2598,84	92,00
-2588,39	199,00
-2577,95	57,00
-2567,52	97,00
-2557,11	207,00
-2546,71	156,00
-2536,33	126,00
-2525,97	127,00
-2515,62	163,00
-2505,28	11,00
-2494,96	135,00
-2484,65	11,00
-2474,36	41,00
-2464,08	147,00
-2453,82	171,00
-2443,57	-37,00
-2433,33	85,00
-2423,11	37,00
-2412,91	122,00
-2402,72	81,00
-2392,54	193,00
-2382,38	241,00
-2372,23	101,00
-2362,09	123,00
-2351,97	204,00
-2341,87	142,00
-2331,78	278,00
-2321,70	181,00
-2311,64	186,00
-2301,59	80,00
-2291,55	191,00
-2281,53	186,00
-2271,53	121,00
-2261,53	137,00
-2251,55	126,00
-2241,59	165,00
-2231,64	106,00
-2221,70	116,00
-2211,78	94,00
-2201,87	182,00
-2191,97	102,00
-2182,09	75,00
-2172,22	210,00
-2162,37	199,00
-2152,53	115,00
-2142,70	240,00
-2132,89	141,00
-2123,09	204,00
-2113,30	182,00
-2103,53	173,00
-2093,77	132,00
-2084,02	67,00
-2074,29	144,00
-2064,57	52,00
-2054,86	232,00
-2045,17	152,00
-2035,49	54,00
-2025,82	179,00
-2016,17	18,00
-2006,53	190,00
-1996,91	175,00
-1987,29	134,00
-1977,69	166,00
-1968,11	252,00
-1958,53	211,00
-1948,97	54,00
-1939,42	226,00
-1929,89	7,00
-1920,37	258,00
-1910,86	128,00
-1901,36	117,00
-1891,88	56,00
-1882,41	52,00
-1872,95	266,00
-1863,51	4,00
-1854,08	68,00
-1844,66	170,00
-1835,26	99,00
-1825,86	69,00
-1816,48	113,00
-1807,11	109,00
-1797,76	139,00
-1788,42	128,00
-1779,09	64,00
-1769,77	22,00
-1760,47	105,00
-1751,17	78,00
-1741,89	41,00
-1732,63	69,00
-1723,37	-16,00
-1714,13	85,00
-1704,90	135,00
-1695,68	117,00
-1686,48	67,00
-1677,29	76,00
-1668,11	194,00
-1658,94	75,00
-1649,78	119,00
-1640,64	80,00
-1631,51	112,00
-1622,39	123,00
-1613,28	90,00
-1604,19	121,00
-1595,10	35,00
-1586,03	181,00
-1576,97	156,00
-1567,93	140,00
-1558,89	126,00
-1549,87	208,00
-1540,86	209,00
-1531,86	-21,00
-1522,87	-2,00
-1513,90	167,00
-1504,93	214,00
-1495,98	0,00
-1487,04	193,00
-1478,12	200,00
-1469,20	264,00
-1460,30	154,00
-1451,40	201,00
-1442,52	162,00
-1433,65	30,00
-1424,80	253,00
-1415,95	254,00
-1407,12	195,00
-1398,30	41,00
-1389,48	70,00
-1380,69	72,00
-1371,90	179,00
-1363,12	140,00
-1354,36	223,00
-1345,60	104,00
-1336,86	136,00
-1328,13	181,00
-1319,41	74,00
-1310,70	125,00
-1302,01	113,00
-1293,32	253,00
-1284,65	216,00
-1275,99	170,00
-1267,33	125,00
-1258,69	72,00
-1250,06	260,00
-1241,45	146,00
-1232,84	181,00
-1224,25	106,00
-1215,66	132,00
-1207,09	97,00
-1198,53	58,00
-1189,97	168,00
-1181,43	165,00
-1172,91	60,00
-1164,39	156,00
-1155,88	151,00
-1147,38	137,00
-1138,90	180,00
-1130,43	112,00
-1121,96	121,00
-1113,51	92,00
-1105,07	-4,00
-1096,64	91,00
-1088,22	209,00
-1079,81	164,00
-1071,41	232,00
-1063,02	62,00
-1054,65	146,00
-1046,28	54,00
-1037,92	108,00
-1029,58	130,00
-1021,24	-16,00
-1012,92	230,00
-1004,61	235,00
-996,30	64,00
-988,01	64,00
-979,73	227,00
-971,46	86,00
-963,20	248,00
-954,95	170,00
-946,71	119,00
-938,48	128,00
-930,26	-9,00
-922,06	60,00
-913,86	226,00
-905,67	182,00
-897,49	67,00
-889,33	107,00
-881,17	197,00
-873,02	185,00
-864,89	38,00
-856,76	83,00
-848,65	135,00
-840,54	78,00
-832,45	185,00
-824,36	105,00
-816,29	91,00
-808,22	106,00
-800,17	174,00
-792,12	60,00
-784,09	224,00
-776,06	163,00
-768,05	75,00
-760,04	179,00
-752,05	136,00
-744,07	188,00
-736,09	106,00
-728,13	167,00
-720,17	135,00
-712,23	75,00
-704,29	89,00
-696,37	85,00
-688,45	135,00
-680,55	64,00
-672,65	212,00
-664,77	156,00
-656,89	177,00
-649,03	128,00
-641,17	79,00
-633,32	164,00
-625,49	151,00
-617,66	129,00
-609,84	64,00
-602,03	119,00
-594,23	219,00
-586,45	167,00
-578,67	245,00
-570,90	173,00
-563,14	55,00
-555,39	124,00
-547,65	157,00
-539,91	56,00
-532,19	221,00
-524,48	120,00
-516,78	112,00
-509,08	79,00
-501,40	212,00
-493,72	83,00
-486,06	136,00
-478,40	140,00
-470,76	133,00
-463,12	129,00
-455,49	113,00
-447,87	143,00
-440,26	80,00
-432,66	171,00
-425,07	165,00
-417,49	89,00
-409,92	160,00
-402,35	-8,00
-394,80	284,00
-387,25	191,00
-379,72	48,00
-372,19	266,00
-364,67	306,00
-357,17	110,00
-349,67	137,00
-342,18	197,00
-334,69	183,00
-327,22	90,00
-319,76	72,00
-312,30	203,00
-304,86	254,00
-297,42	233,00
-290,00	224,00
-282,58	63,00
-275,17	157,00
-267,77	229,00
-260,37	173,00
-252,99	131,00
-245,62	181,00
-238,25	240,00
-230,90	152,00
-223,55	340,00
-216,21	249,00
-208,88	255,00
-201,56	200,00
-194,25	243,00
-186,94	174,00
-179,65	263,00
-172,36	205,00
-165,08	200,00
-157,81	303,00
-150,55	305,00
-143,30	346,00
-136,06	371,00
-128,82	264,00
-121,60	475,00
-114,38	328,00
-107,17	260,00
-99,97	339,00
-92,78	621,00
-85,60	588,00
-78,42	678,00
-71,25	736,00
-64,10	968,00
-56,95	1186,00
-49,81	1216,00
-42,67	1465,00
-35,55	1819,00
-28,43	2441,00
-21,33	4358,00
-14,23	14460,00
-7,14	47266,00
-0,05	38051,00
7,02	42597,00
14,09	37727,00
21,14	10264,00
28,19	4576,00
35,23	3008,00
42,27	2163,00
49,29	1984,00
56,31	1487,00
63,32	1343,00
70,32	1107,00
77,31	1024,00
84,29	816,00
91,27	810,00
98,23	706,00
105,19	747,00
112,14	774,00
119,09	1004,00
126,02	1458,00
132,95	1591,00
139,87	1689,00
146,78	1595,00
153,68	1516,00
160,58	1594,00
167,46	1641,00
174,34	1460,00
181,21	1417,00
188,08	1481,00
194,93	1388,00
201,78	1492,00
208,62	1571,00
215,45	1358,00
222,27	1451,00
229,09	1378,00
235,90	1483,00
242,70	1294,00
249,49	1444,00
256,27	1434,00
263,05	1315,00
269,82	1276,00
276,58	1410,00
283,33	1319,00
290,08	1371,00
296,82	1348,00
303,55	1122,00
310,27	1310,00
316,98	1240,00
323,69	1305,00
330,39	1247,00
337,08	1196,00
343,76	1115,00
350,44	1150,00
357,11	1072,00
363,77	1205,00
370,42	1249,00
377,07	1224,00
383,71	1132,00
390,34	1114,00
396,96	1124,00
403,58	1138,00
410,19	1151,00
416,79	1189,00
423,38	1232,00
429,97	1312,00
436,55	1100,00
443,12	1072,00
449,68	1100,00
456,24	1195,00
462,79	1070,00
469,33	1020,00
475,86	987,00
482,39	1058,00
488,91	990,00
495,42	1078,00
501,93	1065,00
508,42	1157,00
514,91	1035,00
521,40	1033,00
527,87	1103,00
534,34	1017,00
540,80	1037,00
547,25	958,00
553,70	912,00
560,14	1019,00
566,57	1045,00
573,00	881,00
579,41	848,00
585,83	995,00
592,23	1005,00
598,62	936,00
605,01	941,00
611,40	965,00
617,77	1058,00
624,14	922,00
630,50	1047,00
636,85	817,00
643,20	834,00
649,54	959,00
655,87	905,00
662,20	954,00
668,52	950,00
674,83	764,00
681,13	969,00
687,43	851,00
693,72	817,00
700,00	949,00
706,28	968,00
712,55	942,00
718,81	1097,00
725,07	988,00
731,32	941,00
737,56	1023,00
743,79	945,00
750,02	1010,00
756,24	922,00
762,46	927,00
768,67	1128,00
774,87	943,00
781,06	1013,00
787,25	1041,00
793,43	929,00
799,60	992,00
805,77	917,00
811,93	800,00
818,08	915,00
824,23	965,00
830,37	1001,00
836,50	896,00
842,63	914,00
848,75	987,00
854,87	862,00
860,97	952,00
867,07	1055,00
873,17	1022,00
879,25	909,00
885,33	1076,00
891,41	902,00
897,47	853,00
903,53	927,00
909,59	881,00
915,63	988,00
921,67	900,00
927,71	816,00
933,74	1039,00
939,76	911,00
945,77	821,00
951,78	970,00
957,78	804,00
963,78	796,00
969,77	800,00
975,75	855,00
981,72	913,00
987,69	1422,00
993,66	949,00
999,61	915,00
1005,56	992,00
1011,51	860,00
1017,44	848,00
1023,37	895,00
1029,30	944,00
1035,22	883,00
1041,13	1003,00
1047,03	1097,00
1052,93	1319,00
1058,83	1706,00
1064,71	1935,00
1070,59	1535,00
1076,47	1236,00
1082,33	1242,00
1088,20	1097,00
1094,05	1098,00
1099,90	957,00
1105,74	940,00
1111,58	1023,00
1117,41	1122,00
1123,23	1575,00
1129,05	1944,00
1134,86	1783,00
1140,67	1365,00
1146,47	1136,00
1152,26	1041,00
1158,05	977,00
1163,83	1061,00
1169,60	1053,00
1175,37	1054,00
1181,13	1060,00
1186,89	879,00
1192,64	1006,00
1198,38	918,00
1204,12	798,00
1209,85	917,00
1215,58	967,00
1221,30	905,00
1227,02	870,00
1232,72	832,00
1238,43	857,00
1244,12	921,00
1249,81	978,00
1255,50	883,00
1261,17	1074,00
1266,85	995,00
1272,51	1072,00
1278,17	1080,00
1283,83	1325,00
1289,47	1906,00
1295,12	2325,00
1300,75	2075,00
1306,38	1680,00
1312,01	1360,00
1317,63	1101,00
1323,24	1170,00
1328,85	1112,00
1334,45	1018,00
1340,04	884,00
1345,63	952,00
1351,22	1127,00
1356,80	1053,00
1362,37	1137,00
1367,93	1326,00
1373,49	1113,00
1379,05	1276,00
1384,60	1100,00
1390,14	1263,00
1395,68	1083,00
1401,21	1079,00
1406,74	1123,00
1412,26	1528,00
1417,77	1545,00
1423,28	1619,00
1428,78	1894,00
1434,28	2020,00
1439,77	2511,00
1445,26	2391,00
1450,74	2157,00
1456,22	1986,00
1461,68	2012,00
1467,15	1683,00
1472,61	1576,00
1478,06	1508,00
1483,51	1129,00
1488,95	1193,00
1494,38	1081,00
1499,81	989,00
1505,24	958,00
1510,65	991,00
1516,07	995,00
1521,48	872,00
1526,88	936,00
1532,27	835,00
1537,67	913,00
1543,05	973,00
1548,43	884,00
1553,81	845,00
1559,18	956,00
1564,54	822,00
1569,90	803,00
1575,25	779,00
1580,60	978,00
1585,94	728,00
1591,28	832,00
1596,61	905,00
1601,93	760,00
1607,25	758,00
1612,57	878,00
1617,88	908,00
1623,18	976,00
1628,48	962,00
1633,77	982,00
1639,06	940,00
1644,34	877,00
1649,62	779,00
1654,89	750,00
1660,16	728,00
1665,42	845,00
1670,67	778,00
1675,92	663,00
1681,17	811,00
1686,41	794,00
1691,64	1015,00
1696,87	797,00
1702,10	767,00
1707,32	732,00
1712,53	830,00
1717,74	896,00
1722,94	815,00
1728,14	850,00
1733,33	801,00
1738,52	902,00
1743,70	775,00
1748,88	725,00
1754,05	742,00
1759,22	702,00
1764,38	666,00
1769,53	627,00
1774,69	776,00
1779,83	745,00
1784,97	770,00
1790,11	803,00
1795,24	674,00
1800,36	773,00
1805,48	711,00
1810,60	724,00
1815,71	745,00
1820,82	704,00
1825,92	785,00
1831,01	759,00
1836,10	825,00
1841,19	792,00
1846,26	756,00
1851,34	726,00
1856,41	628,00
1861,47	650,00
1866,53	682,00
1871,59	684,00
1876,64	801,00
1881,68	749,00
1886,72	659,00
1891,76	667,00
1896,79	886,00
1901,81	668,00
1906,83	700,00
1911,85	704,00
1916,86	704,00
1921,86	601,00
1926,86	614,00
1931,86	803,00
1936,85	763,00
1941,83	586,00
1946,81	758,00
1951,79	667,00
1956,76	577,00
1961,72	691,00
1966,68	592,00
1971,64	776,00
1976,59	776,00
1981,54	620,00
1986,48	680,00
1991,42	663,00
1996,35	759,00
2001,27	586,00
2006,20	787,00
2011,11	550,00
2016,03	695,00
2020,93	716,00
2025,84	514,00
2030,73	632,00
2035,63	631,00
2040,52	655,00
2045,40	577,00
2050,28	570,00
2055,15	627,00
2060,02	643,00
2064,89	654,00
2069,75	579,00
2074,60	568,00
2079,46	584,00
2084,30	660,00
2089,14	695,00
2093,98	601,00
2098,81	719,00
2103,64	528,00
2108,46	740,00
2113,28	727,00
2118,09	513,00
2122,90	773,00
2127,70	630,00
2132,50	570,00
2137,30	525,00
2142,09	652,00
2146,87	541,00
2151,66	602,00
2156,43	660,00
2161,20	675,00
2165,97	663,00
2170,73	637,00
2175,49	568,00
2180,24	571,00
2184,99	656,00
2189,74	618,00
2194,48	728,00
2199,21	642,00
2203,94	587,00
2208,67	480,00
2213,39	404,00
2218,11	485,00
2222,82	629,00
2227,53	579,00
2232,23	468,00
2236,93	625,00
2241,63	477,00
2246,32	660,00
2251,00	599,00
2255,68	586,00
2260,36	531,00
2265,03	620,00
2269,70	645,00
2274,36	594,00
2279,02	470,00
2283,68	624,00
2288,33	603,00
2292,97	561,00
2297,61	652,00
2302,25	560,00
2306,88	602,00
2311,51	495,00
2316,14	587,00
2320,75	656,00
2325,37	521,00
2329,98	564,00
2334,59	577,00
2339,19	648,00
2343,79	481,00
2348,38	524,00
2352,97	645,00
2357,55	579,00
2362,13	549,00
2366,71	549,00
2371,28	510,00
2375,85	619,00
2380,41	628,00
2384,97	612,00
2389,52	537,00
2394,07	618,00
2398,62	411,00
2403,16	539,00
2407,70	549,00
2412,23	548,00
2416,76	551,00
2421,29	491,00
2425,81	640,00
2430,32	570,00
2434,84	552,00
2439,34	504,00
2443,85	590,00
2448,35	519,00
2452,84	566,00
2457,33	582,00
2461,82	518,00
2466,30	533,00
2470,78	615,00
2475,25	465,00
2479,72	403,00
2484,19	616,00
2488,65	471,00
2493,11	450,00
2497,56	389,00
2502,01	478,00
2506,46	552,00
2510,90	555,00
2515,34	515,00
2519,77	456,00
2524,20	524,00
2528,62	567,00
2533,04	479,00
2537,46	490,00
2541,87	452,00
2546,28	421,00
2550,68	504,00
2555,08	500,00
2559,48	520,00
2563,87	577,00
2568,26	311,00
2572,64	486,00
2577,02	490,00
2581,40	540,00
2585,77	596,00
2590,14	536,00
2594,50	437,00
2598,86	455,00
2603,22	379,00
2607,57	449,00
2611,92	495,00
2616,26	511,00
2620,60	515,00
2624,94	514,00
2629,27	562,00
2633,60	612,00
2637,92	513,00
2642,24	464,00
2646,56	528,00
2650,87	464,00
2655,18	496,00
2659,48	435,00
2663,78	535,00
2668,08	566,00
2672,37	572,00
2676,66	549,00
2680,95	514,00
2685,23	480,00
2689,50	543,00
2693,78	480,00
2698,05	665,00
2702,31	606,00
2706,57	463,00
2710,83	564,00
2715,08	463,00
2719,33	705,00
2723,58	636,00
2727,82	600,00
2732,06	618,00
2736,29	585,00
2740,53	595,00
2744,75	580,00
2748,97	557,00
2753,19	644,00
2757,41	503,00
2761,62	524,00
2765,83	637,00
2770,03	585,00
2774,23	537,00
2778,43	595,00
2782,62	735,00
2786,81	571,00
2791,00	675,00
2795,18	644,00
2799,35	567,00
2803,53	673,00
2807,70	660,00
2811,86	719,00
2816,03	763,00
2820,19	728,00
2824,34	881,00
2828,49	1009,00
2832,64	1081,00
2836,78	1264,00
2840,92	1753,00
2845,06	1975,00
2849,19	2136,00
2853,32	2290,00
2857,45	2188,00
2861,57	2101,00
2865,69	1965,00
2869,80	1951,00
2873,91	2067,00
2878,02	2160,00
2882,12	2360,00
2886,22	2399,00
2890,32	2112,00
2894,41	1953,00
2898,50	1866,00
2902,58	1740,00
2906,67	1591,00
2910,74	1495,00
2914,82	1440,00
2918,89	1346,00
2922,96	1245,00
2927,02	1162,00
2931,08	1071,00
2935,13	1099,00
2939,19	1101,00
2943,24	824,00
2947,28	731,00
2951,32	817,00
2955,36	687,00
2959,40	499,00
2963,43	554,00
2967,46	658,00
2971,48	419,00
2975,50	567,00
2979,52	489,00
2983,53	455,00
2987,54	449,00
2991,55	468,00
2995,55	441,00
2999,55	512,00
3003,54	432,00
3007,54	292,00
3011,53	317,00
3015,51	345,00
3019,49	170,00
3023,47	399,00
3027,45	392,00
3031,42	363,00
3035,39	315,00
3039,35	316,00
3043,31	389,00
3047,27	368,00
3051,22	240,00
3055,17	362,00
3059,12	234,00
3063,06	357,00
3067,00	343,00
3070,94	310,00
3074,87	239,00
3078,80	289,00
3082,73	420,00
3086,65	350,00
3090,57	284,00
3094,49	292,00
3098,40	317,00
3102,31	240,00
3106,22	314,00
3110,12	329,00
3114,02	274,00
3117,92	377,00
3121,81	328,00
3125,70	224,00
3129,58	293,00
3133,47	103,00
3137,34	206,00
3141,22	408,00
3145,09	372,00
3148,96	195,00
3152,83	265,00
3156,69	261,00
3160,55	243,00
3164,40	298,00
3168,26	165,00
3172,10	324,00
3175,95	265,00
3179,79	155,00
3183,63	193,00
3187,47	311,00
3191,30	283,00
3195,13	193,00
3198,95	205,00
3202,78	255,00
3206,60	279,00
3210,41	193,00
3214,23	180,00
3218,03	260,00
3221,84	112,00
3225,64	144,00
3229,44	303,00
3233,24	182,00
3237,03	386,00
3240,82	165,00
3244,61	215,00
3248,39	197,00
3252,17	281,00
3255,95	82,00
3259,72	186,00
3263,49	155,00
3267,26	241,00
3271,03	248,00
3274,79	226,00
3278,54	128,00
3282,30	215,00
3286,05	143,00
3289,80	155,00
3293,54	149,00
3297,29	200,00
3301,02	177,00
3304,76	146,00
3308,49	228,00
3312,22	240,00
3315,95	73,00
3319,67	307,00
3323,39	272,00
3327,10	235,00
3330,82	151,00
3334,53	240,00
3338,24	208,00
3341,94	278,00
3345,64	251,00
3349,34	172,00
3353,03	194,00
3356,72	187,00
3360,41	159,00
3364,10	294,00
3367,78	187,00
3371,46	152,00
3375,13	226,00
3378,81	288,00
3382,48	155,00
3386,14	86,00
3389,81	204,00
3393,47	287,00
3397,12	176,00
3400,78	132,00
3404,43	253,00
3408,08	218,00
3411,72	181,00
3415,36	263,00
3419,00	183,00
3422,64	332,00
3426,27	273,00
3429,90	97,00
3433,53	142,00
3437,15	132,00
3440,77	186,00
3444,39	264,00
3448,00	73,00
3451,62	176,00
3455,22	248,00
3458,83	163,00
3462,43	143,00
3466,03	60,00
3469,63	178,00
3473,22	145,00
3476,81	212,00
3480,40	3,00
3483,99	32,00
3487,57	124,00
3491,15	99,00
3494,72	187,00
3498,29	101,00
3501,86	229,00
3505,43	67,00
3508,99	196,00
3512,56	200,00
3516,11	160,00
3519,67	121,00
3523,22	227,00
3526,77	66,00
3530,32	216,00
3533,86	191,00
3537,40	130,00
3540,94	184,00
3544,47	208,00
3548,00	124,00
3551,53	187,00
3555,06	125,00
3558,58	210,00
3562,10	185,00
3565,62	332,00
3569,13	67,00
3572,64	45,00
3576,15	149,00
3579,66	55,00
3583,16	102,00
3586,66	84,00
3590,16	162,00
3593,65	186,00
3597,14	58,00
3600,63	147,00
3604,11	165,00
3607,60	186,00
3611,08	246,00
3614,55	91,00
3618,03	185,00
3621,50	171,00
3624,97	101,00
3628,43	104,00
3631,90	173,00
3635,36	84,00
3638,81	122,00
3642,27	67,00
3645,72	218,00
3649,17	127,00
3652,61	59,00
3656,06	225,00
3659,50	111,00
3662,93	66,00
3666,37	83,00
3669,80	125,00
3673,23	201,00
3676,65	125,00
3680,08	91,00
3683,50	81,00
3686,92	123,00
3690,33	135,00
3693,74	68,00
3697,15	162,00
3700,56	49,00
3703,96	100,00
3707,36	45,00
3710,76	-48,00
3714,16	200,00
3717,55	34,00
3720,94	136,00
3724,33	175,00
3727,71	42,00
3731,10	198,00
3734,48	54,00
3737,85	74,00
3741,23	177,00
3744,60	152,00
3747,97	146,00
3751,33	163,00
3754,69	77,00
3758,05	195,00
3761,41	84,00
3764,77	159,00
3768,12	138,00
3771,47	190,00
3774,82	107,00
3778,16	5,00
3781,50	0,00
3784,84	8,00
3788,18	-3,00
>>>>>End Processed Spectral Data<<<<<
