SpectraSuite Data File
++++++++++++++++++++++++++++++++++++
Date: Tue Mar 03 12:43:34 ICT 2026
User: user
Dark Spectrum Present: Yes
Reference Spectrum Present: No
Number of Sampled Component Spectra: 1
Spectrometers: MAYP113682
Integration Time (usec): 3000000 (MAYP113682)
Spectra Averaged: 1 (MAYP113682)
Boxcar Smoothing: 0 (MAYP113682)
Correct for Electrical Dark: No (MAYP113682)
Strobe/Lamp Enabled: No (MAYP113682)
Correct for Detector Non-linearity: No (MAYP113682)
Correct for Stray Light: No (MAYP113682)
Number of Pixels in Processed Spectrum: 2068
>>>>>Begin Processed Spectral Data<<<<<
-37534,58	7,00
-37414,56	3,00
-37295,11	-2,00
-37176,24	-3,00
-37057,95	122,00
-36940,22	58,00
-36823,05	150,00
-36706,45	61,00
-36590,40	204,00
-36474,90	117,00
-36359,95	76,00
-36245,55	277,00
-36131,68	91,00
-36018,35	172,00
-35905,55	125,00
-35793,29	217,00
-35681,54	140,00
-35570,32	97,00
-35459,62	132,00
-35349,43	112,00
-35239,75	295,00
-35130,58	146,00
-35021,91	33,00
-34913,74	186,00
-34806,07	155,00
-34698,89	202,00
-34592,20	36,00
-34486,00	104,00
-34380,28	6,00
-34275,04	62,00
-34170,27	84,00
-34065,98	108,00
-33962,16	84,00
-33858,81	83,00
-33755,92	121,00
-33653,49	104,00
-33551,52	146,00
-33450,01	74,00
-33348,94	87,00
-33248,33	44,00
-33148,16	43,00
-33048,43	95,00
-32949,14	94,00
-32850,29	187,00
-32751,87	112,00
-32653,89	174,00
-32556,33	215,00
-32459,20	82,00
-32362,49	35,00
-32266,19	263,00
-32170,32	150,00
-32074,86	67,00
-31979,82	139,00
-31885,18	49,00
-31790,95	50,00
-31697,12	182,00
-31603,69	128,00
-31510,67	89,00
-31418,04	148,00
-31325,80	208,00
-31233,95	114,00
-31142,49	72,00
-31051,42	132,00
-30960,73	122,00
-30870,43	199,00
-30780,50	57,00
-30690,95	122,00
-30601,77	179,00
-30512,97	151,00
-30424,53	139,00
-30336,46	149,00
-30248,76	137,00
-30161,42	149,00
-30074,44	102,00
-29987,81	184,00
-29901,55	109,00
-29815,63	64,00
-29730,07	-32,00
-29644,86	59,00
-29560,00	214,00
-29475,48	110,00
-29391,30	109,00
-29307,47	193,00
-29223,97	141,00
-29140,81	25,00
-29057,99	116,00
-28975,50	182,00
-28893,34	131,00
-28811,51	170,00
-28730,00	175,00
-28648,82	127,00
-28567,97	124,00
-28487,43	123,00
-28407,21	221,00
-28327,32	99,00
-28247,73	10,00
-28168,46	68,00
-28089,50	70,00
-28010,85	10,00
-27932,51	163,00
-27854,48	97,00
-27776,75	89,00
-27699,32	204,00
-27622,19	230,00
-27545,37	258,00
-27468,84	-4,00
-27392,60	154,00
-27316,66	154,00
-27241,01	135,00
-27165,66	108,00
-27090,59	106,00
-27015,81	180,00
-26941,31	110,00
-26867,10	184,00
-26793,17	85,00
-26719,52	3,00
-26646,15	220,00
-26573,06	214,00
-26500,24	192,00
-26427,70	95,00
-26355,43	74,00
-26283,43	71,00
-26211,71	153,00
-26140,25	90,00
-26069,06	212,00
-25998,13	79,00
-25927,46	83,00
-25857,06	102,00
-25786,92	96,00
-25717,04	-4,00
-25647,42	79,00
-25578,05	127,00
-25508,94	100,00
-25440,09	127,00
-25371,48	129,00
-25303,13	119,00
-25235,02	88,00
-25167,17	96,00
-25099,56	184,00
-25032,19	151,00
-24965,07	87,00
-24898,20	-6,00
-24831,56	142,00
-24765,17	130,00
-24699,01	272,00
-24633,10	132,00
-24567,41	59,00
-24501,97	120,00
-24436,75	-38,00
-24371,77	140,00
-24307,03	115,00
-24242,51	81,00
-24178,22	112,00
-24114,16	114,00
-24050,32	45,00
-23986,71	76,00
-23923,32	105,00
-23860,16	3,00
-23797,22	99,00
-23734,50	160,00
-23672,00	93,00
-23609,71	292,00
-23547,65	14,00
-23485,80	153,00
-23424,16	8,00
-23362,74	140,00
-23301,53	107,00
-23240,54	3,00
-23179,75	179,00
-23119,17	131,00
-23058,80	206,00
-22998,64	130,00
-22938,68	133,00
-22878,93	149,00
-22819,39	127,00
-22760,04	62,00
-22700,90	146,00
-22641,96	101,00
-22583,22	82,00
-22524,68	144,00
-22466,33	161,00
-22408,19	0,00
-22350,23	178,00
-22292,48	102,00
-22234,92	55,00
-22177,55	68,00
-22120,37	-24,00
-22063,38	14,00
-22006,58	181,00
-21949,98	100,00
-21893,56	151,00
-21837,33	199,00
-21781,28	140,00
-21725,42	133,00
-21669,74	175,00
-21614,25	81,00
-21558,94	65,00
-21503,81	213,00
-21448,86	97,00
-21394,10	147,00
-21339,51	302,00
-21285,10	98,00
-21230,86	69,00
-21176,81	203,00
-21122,93	116,00
-21069,22	216,00
-21015,69	90,00
-20962,33	138,00
-20909,14	80,00
-20856,13	149,00
-20803,28	29,00
-20750,61	195,00
-20698,10	42,00
-20645,76	184,00
-20593,59	154,00
-20541,59	172,00
-20489,75	87,00
-20438,07	134,00
-20386,56	231,00
-20335,22	247,00
-20284,03	165,00
-20233,01	112,00
-20182,15	56,00
-20131,45	101,00
-20080,91	75,00
-20030,52	76,00
-19980,30	75,00
-19930,23	88,00
-19880,32	75,00
-19830,56	269,00
-19780,96	91,00
-19731,52	183,00
-19682,23	27,00
-19633,09	95,00
-19584,10	171,00
-19535,26	158,00
-19486,58	37,00
-19438,04	-53,00
-19389,66	72,00
-19341,42	81,00
-19293,33	20,00
-19245,39	167,00
-19197,60	136,00
-19149,95	202,00
-19102,45	70,00
-19055,09	89,00
-19007,87	253,00
-18960,80	107,00
-18913,87	139,00
-18867,09	132,00
-18820,44	216,00
-18773,94	122,00
-18727,57	135,00
-18681,35	105,00
-18635,26	189,00
-18589,31	125,00
-18543,50	172,00
-18497,83	86,00
-18452,29	53,00
-18406,89	137,00
-18361,63	106,00
-18316,50	-8,00
-18271,50	59,00
-18226,63	183,00
-18181,90	225,00
-18137,30	170,00
-18092,84	2,00
-18048,50	145,00
-18004,29	73,00
-17960,22	160,00
-17916,27	19,00
-17872,45	84,00
-17828,76	38,00
-17785,20	115,00
-17741,77	95,00
-17698,46	160,00
-17655,28	111,00
-17612,22	12,00
-17569,29	179,00
-17526,48	82,00
-17483,79	144,00
-17441,23	17,00
-17398,79	155,00
-17356,48	65,00
-17314,28	140,00
-17272,21	107,00
-17230,26	149,00
-17188,42	173,00
-17146,71	181,00
-17105,12	79,00
-17063,64	150,00
-17022,28	84,00
-16981,04	62,00
-16939,92	33,00
-16898,91	128,00
-16858,02	-12,00
-16817,25	117,00
-16776,59	165,00
-16736,04	179,00
-16695,61	201,00
-16655,29	117,00
-16615,09	22,00
-16574,99	102,00
-16535,01	87,00
-16495,15	149,00
-16455,39	81,00
-16415,74	144,00
-16376,21	146,00
-16336,78	20,00
-16297,46	184,00
-16258,26	153,00
-16219,16	103,00
-16180,17	257,00
-16141,28	203,00
-16102,51	117,00
-16063,84	80,00
-16025,27	156,00
-15986,82	19,00
-15948,46	26,00
-15910,22	120,00
-15872,07	178,00
-15834,04	227,00
-15796,10	128,00
-15758,27	173,00
-15720,54	180,00
-15682,91	106,00
-15645,39	11,00
-15607,97	172,00
-15570,64	136,00
-15533,42	131,00
-15496,30	155,00
-15459,28	140,00
-15422,36	94,00
-15385,54	82,00
-15348,82	133,00
-15312,19	94,00
-15275,66	25,00
-15239,23	30,00
-15202,90	138,00
-15166,67	107,00
-15130,53	102,00
-15094,48	98,00
-15058,54	164,00
-15022,68	93,00
-14986,93	164,00
-14951,26	129,00
-14915,69	-76,00
-14880,22	82,00
-14844,84	115,00
-14809,55	0,00
-14774,35	118,00
-14739,25	256,00
-14704,24	93,00
-14669,32	101,00
-14634,49	178,00
-14599,75	92,00
-14565,10	212,00
-14530,55	69,00
-14496,08	245,00
-14461,70	111,00
-14427,41	23,00
-14393,21	121,00
-14359,10	88,00
-14325,07	237,00
-14291,14	92,00
-14257,29	-2,00
-14223,52	128,00
-14189,85	182,00
-14156,26	106,00
-14122,76	128,00
-14089,34	160,00
-14056,01	102,00
-14022,76	118,00
-13989,60	135,00
-13956,52	142,00
-13923,53	155,00
-13890,62	126,00
-13857,79	78,00
-13825,05	196,00
-13792,39	38,00
-13759,81	160,00
-13727,31	52,00
-13694,90	98,00
-13662,57	345,00
-13630,31	117,00
-13598,14	203,00
-13566,05	146,00
-13534,05	-32,00
-13502,12	87,00
-13470,27	162,00
-13438,50	3,00
-13406,80	226,00
-13375,19	30,00
-13343,66	132,00
-13312,20	31,00
-13280,83	30,00
-13249,53	166,00
-13218,30	177,00
-13187,16	-3,00
-13156,09	2,00
-13125,10	178,00
-13094,18	183,00
-13063,34	118,00
-13032,58	158,00
-13001,89	-18,00
-12971,28	105,00
-12940,74	137,00
-12910,27	114,00
-12879,88	0,00
-12849,57	101,00
-12819,33	79,00
-12789,16	109,00
-12759,06	174,00
-12729,04	86,00
-12699,09	175,00
-12669,21	256,00
-12639,41	74,00
-12609,68	131,00
-12580,02	26,00
-12550,43	83,00
-12520,91	125,00
-12491,46	54,00
-12462,08	87,00
-12432,77	176,00
-12403,54	103,00
-12374,37	12,00
-12345,27	-12,00
-12316,24	179,00
-12287,29	134,00
-12258,40	151,00
-12229,57	251,00
-12200,82	120,00
-12172,14	129,00
-12143,52	117,00
-12114,97	114,00
-12086,49	133,00
-12058,07	108,00
-12029,73	-53,00
-12001,44	95,00
-11973,23	68,00
-11945,08	76,00
-11917,00	186,00
-11888,98	123,00
-11861,03	211,00
-11833,15	135,00
-11805,32	169,00
-11777,57	85,00
-11749,88	198,00
-11722,25	164,00
-11694,69	154,00
-11667,19	120,00
-11639,75	105,00
-11612,38	91,00
-11585,07	259,00
-11557,83	72,00
-11530,65	67,00
-11503,53	147,00
-11476,47	182,00
-11449,48	90,00
-11422,54	222,00
-11395,67	204,00
-11368,86	145,00
-11342,11	131,00
-11315,43	104,00
-11288,80	123,00
-11262,23	181,00
-11235,73	163,00
-11209,28	152,00
-11182,90	131,00
-11156,57	79,00
-11130,31	277,00
-11104,10	32,00
-11077,96	122,00
-11051,87	175,00
-11025,84	209,00
-10999,87	162,00
-10973,96	64,00
-10948,11	121,00
-10922,31	-16,00
-10896,58	196,00
-10870,90	109,00
-10845,28	178,00
-10819,71	77,00
-10794,20	243,00
-10768,75	196,00
-10743,36	170,00
-10718,02	157,00
-10692,74	18,00
-10667,52	120,00
-10642,35	227,00
-10617,24	224,00
-10592,18	282,00
-10567,18	217,00
-10542,23	258,00
-10517,34	304,00
-10492,51	187,00
-10467,72	257,00
-10443,00	314,00
-10418,32	304,00
-10393,70	210,00
-10369,14	278,00
-10344,63	507,00
-10320,17	361,00
-10295,77	283,00
-10271,42	358,00
-10247,12	340,00
-10222,88	306,00
-10198,68	410,00
-10174,54	426,00
-10150,46	487,00
-10126,42	452,00
-10102,44	533,00
-10078,51	539,00
-10054,63	607,00
-10030,80	497,00
-10007,03	544,00
-9983,30	492,00
-9959,63	592,00
-9936,01	766,00
-9912,44	646,00
-9888,92	655,00
-9865,44	632,00
-9842,02	700,00
-9818,65	750,00
-9795,33	754,00
-9772,06	718,00
-9748,84	896,00
-9725,67	797,00
-9702,55	1012,00
-9679,47	1303,00
-9656,45	1225,00
-9633,47	1352,00
-9610,55	1282,00
-9587,67	1387,00
-9564,84	1632,00
-9542,06	1512,00
-9519,32	1877,00
-9496,64	1989,00
-9474,00	2229,00
-9451,41	2106,00
-9428,87	2183,00
-9406,37	2111,00
-9383,92	1893,00
-9361,52	1728,00
-9339,17	1860,00
-9316,86	2065,00
-9294,60	2456,00
-9272,38	2595,00
-9250,21	2755,00
-9228,09	2899,00
-9206,01	2693,00
-9183,98	2467,00
-9162,00	2159,00
-9140,06	2059,00
-9118,16	1953,00
-9096,31	2257,00
-9074,51	2191,00
-9052,75	2228,00
-9031,04	2098,00
-9009,37	1846,00
-8987,74	1647,00
-8966,16	1511,00
-8944,63	1357,00
-8923,14	1164,00
-8901,69	1361,00
-8880,29	1529,00
-8858,93	1768,00
-8837,61	1836,00
-8816,34	1978,00
-8795,11	2035,00
-8773,92	2063,00
-8752,78	1701,00
-8731,68	1577,00
-8710,62	1621,00
-8689,61	1653,00
-8668,63	1862,00
-8647,70	1885,00
-8626,82	1876,00
-8605,97	1764,00
-8585,17	1826,00
-8564,41	1540,00
-8543,69	1544,00
-8523,01	1305,00
-8502,37	1365,00
-8481,78	1434,00
-8461,23	1595,00
-8440,71	1751,00
-8420,24	1771,00
-8399,81	1735,00
-8379,42	1848,00
-8359,08	1588,00
-8338,77	1497,00
-8318,50	1406,00
-8298,27	1348,00
-8278,09	1607,00
-8257,94	1444,00
-8237,83	1724,00
-8217,76	1655,00
-8197,74	1731,00
-8177,75	1584,00
-8157,80	1424,00
-8137,89	1398,00
-8118,02	1546,00
-8098,19	1387,00
-8078,40	1413,00
-8058,65	1501,00
-8038,93	1579,00
-8019,26	1426,00
-7999,62	1353,00
-7980,02	1404,00
-7960,46	1367,00
-7940,94	1312,00
-7921,46	1256,00
-7902,01	1179,00
-7882,60	1227,00
-7863,23	1118,00
-7843,90	1405,00
-7824,61	1406,00
-7805,35	1426,00
-7786,13	1528,00
-7766,95	1326,00
-7747,80	1358,00
-7728,69	1371,00
-7709,62	1237,00
-7690,59	1399,00
-7671,59	1444,00
-7652,63	1561,00
-7633,70	1520,00
-7614,81	1497,00
-7595,96	1376,00
-7577,15	1207,00
-7558,37	1192,00
-7539,62	1322,00
-7520,91	1395,00
-7502,24	1328,00
-7483,60	1339,00
-7465,00	1264,00
-7446,44	1196,00
-7427,91	1244,00
-7409,41	992,00
-7390,95	925,00
-7372,53	979,00
-7354,14	1005,00
-7335,78	833,00
-7317,46	1113,00
-7299,18	1280,00
-7280,92	1188,00
-7262,71	1380,00
-7244,52	1440,00
-7226,38	1433,00
-7208,26	1462,00
-7190,18	1388,00
-7172,14	1285,00
-7154,12	1330,00
-7136,15	1419,00
-7118,20	1478,00
-7100,29	1433,00
-7082,41	1427,00
-7064,57	1250,00
-7046,76	1354,00
-7028,98	1042,00
-7011,24	1040,00
-6993,53	812,00
-6975,85	768,00
-6958,20	652,00
-6940,59	718,00
-6923,01	666,00
-6905,46	904,00
-6887,94	944,00
-6870,46	-1608,00
-6853,01	1246,00
-6835,59	1301,00
-6818,21	1215,00
-6800,85	968,00
-6783,53	864,00
-6766,24	671,00
-6748,98	632,00
-6731,76	610,00
-6714,56	708,00
-6697,40	537,00
-6680,26	643,00
-6663,16	845,00
-6646,09	872,00
-6629,05	1025,00
-6612,05	1011,00
-6595,07	1052,00
-6578,13	905,00
-6561,21	807,00
-6544,33	587,00
-6527,47	514,00
-6510,65	456,00
-6493,86	448,00
-6477,10	493,00
-6460,36	424,00
-6443,66	519,00
-6426,99	375,00
-6410,35	668,00
-6393,74	489,00
-6377,16	623,00
-6360,61	719,00
-6344,09	729,00
-6327,59	870,00
-6311,13	750,00
-6294,70	1011,00
-6278,29	879,00
-6261,92	872,00
-6245,58	1080,00
-6229,26	1096,00
-6212,97	1009,00
-6196,72	735,00
-6180,49	726,00
-6164,29	419,00
-6148,12	305,00
-6131,98	237,00
-6115,86	376,00
-6099,78	393,00
-6083,72	87,00
-6067,69	235,00
-6051,69	284,00
-6035,72	203,00
-6019,78	460,00
-6003,87	633,00
-5987,98	640,00
-5972,12	736,00
-5956,29	674,00
-5940,49	513,00
-5924,71	509,00
-5908,96	413,00
-5893,24	346,00
-5877,55	307,00
-5861,89	403,00
-5846,25	391,00
-5830,64	452,00
-5815,05	356,00
-5799,50	341,00
-5783,97	359,00
-5768,47	436,00
-5752,99	489,00
-5737,55	739,00
-5722,12	711,00
-5706,73	706,00
-5691,36	562,00
-5676,02	392,00
-5660,71	335,00
-5645,42	281,00
-5630,16	566,00
-5614,92	212,00
-5599,71	539,00
-5584,53	479,00
-5569,37	456,00
-5554,24	1545,00
-5539,14	453,00
-5524,06	317,00
-5509,01	530,00
-5493,98	529,00
-5478,98	543,00
-5464,00	489,00
-5449,05	484,00
-5434,13	331,00
-5419,23	263,00
-5404,36	311,00
-5389,51	363,00
-5374,69	626,00
-5359,89	755,00
-5345,12	779,00
-5330,37	781,00
-5315,65	512,00
-5300,95	539,00
-5286,28	450,00
-5271,63	397,00
-5257,01	387,00
-5242,41	531,00
-5227,84	559,00
-5213,29	449,00
-5198,76	156,00
-5184,26	238,00
-5169,79	349,00
-5155,33	383,00
-5140,91	446,00
-5126,51	565,00
-5112,13	457,00
-5097,77	418,00
-5083,44	457,00
-5069,13	259,00
-5054,85	384,00
-5040,59	395,00
-5026,36	473,00
-5012,15	585,00
-4997,96	502,00
-4983,80	435,00
-4969,66	220,00
-4955,54	385,00
-4941,44	394,00
-4927,37	595,00
-4913,33	714,00
-4899,30	611,00
-4885,30	641,00
-4871,33	440,00
-4857,37	330,00
-4843,44	186,00
-4829,53	251,00
-4815,65	472,00
-4801,79	302,00
-4787,95	333,00
-4774,13	376,00
-4760,34	381,00
-4746,56	129,00
-4732,82	327,00
-4719,09	389,00
-4705,38	514,00
-4691,70	778,00
-4678,04	734,00
-4664,41	420,00
-4650,79	440,00
-4637,20	304,00
-4623,63	281,00
-4610,08	302,00
-4596,56	374,00
-4583,05	400,00
-4569,57	452,00
-4556,11	61,00
-4542,67	224,00
-4529,25	217,00
-4515,86	404,00
-4502,49	529,00
-4489,13	575,00
-4475,80	484,00
-4462,49	356,00
-4449,21	384,00
-4435,94	214,00
-4422,70	417,00
-4409,47	325,00
-4396,27	375,00
-4383,09	213,00
-4369,93	195,00
-4356,79	216,00
-4343,67	200,00
-4330,58	261,00
-4317,50	344,00
-4304,45	323,00
-4291,41	297,00
-4278,40	184,00
-4265,41	128,00
-4252,44	248,00
-4239,49	432,00
-4226,55	291,00
-4213,65	368,00
-4200,76	350,00
-4187,89	54,00
-4175,04	141,00
-4162,21	230,00
-4149,40	140,00
-4136,61	15,00
-4123,85	193,00
-4111,10	225,00
-4098,37	167,00
-4085,66	231,00
-4072,98	110,00
-4060,31	232,00
-4047,66	333,00
-4035,04	253,00
-4022,43	65,00
-4009,84	136,00
-3997,27	141,00
-3984,72	86,00
-3972,19	146,00
-3959,69	128,00
-3947,20	49,00
-3934,73	180,00
-3922,27	88,00
-3909,84	14,00
-3897,43	52,00
-3885,04	148,00
-3872,67	189,00
-3860,31	146,00
-3847,98	50,00
-3835,66	117,00
-3823,36	109,00
-3811,09	191,00
-3798,83	166,00
-3786,59	76,00
-3774,37	165,00
-3762,17	21,00
-3749,98	140,00
-3737,82	189,00
-3725,67	225,00
-3713,55	77,00
-3701,44	171,00
-3689,35	227,00
-3677,28	86,00
-3665,22	164,00
-3653,19	115,00
-3641,17	92,00
-3629,18	210,00
-3617,20	69,00
-3605,24	75,00
-3593,30	176,00
-3581,37	94,00
-3569,47	185,00
-3557,58	68,00
-3545,71	180,00
-3533,86	92,00
-3522,02	141,00
-3510,21	144,00
-3498,41	163,00
-3486,63	119,00
-3474,87	189,00
-3463,12	123,00
-3451,40	144,00
-3439,69	197,00
-3428,00	67,00
-3416,33	81,00
-3404,67	55,00
-3393,03	139,00
-3381,41	229,00
-3369,81	109,00
-3358,22	209,00
-3346,66	183,00
-3335,10	66,00
-3323,57	190,00
-3312,06	214,00
-3300,56	130,00
-3289,08	61,00
-3277,61	138,00
-3266,16	94,00
-3254,73	40,00
-3243,32	129,00
-3231,92	110,00
-3220,55	67,00
-3209,18	173,00
-3197,84	155,00
-3186,51	61,00
-3175,20	30,00
-3163,90	138,00
-3152,63	103,00
-3141,36	40,00
-3130,12	1,00
-3118,89	98,00
-3107,68	38,00
-3096,49	117,00
-3085,31	184,00
-3074,15	133,00
-3063,00	114,00
-3051,87	69,00
-3040,76	71,00
-3029,67	170,00
-3018,59	72,00
-3007,52	136,00
-2996,48	213,00
-2985,44	200,00
-2974,43	240,00
-2963,43	97,00
-2952,45	184,00
-2941,48	137,00
-2930,53	152,00
-2919,60	59,00
-2908,68	10,00
-2897,78	27,00
-2886,89	117,00
-2876,02	119,00
-2865,17	32,00
-2854,33	29,00
-2843,50	102,00
-2832,70	216,00
-2821,90	31,00
-2811,13	70,00
-2800,37	75,00
-2789,62	122,00
-2778,89	141,00
-2768,18	147,00
-2757,48	172,00
-2746,80	166,00
-2736,13	149,00
-2725,48	37,00
-2714,84	105,00
-2704,22	158,00
-2693,61	200,00
-2683,02	143,00
-2672,45	-47,00
-2661,89	87,00
-2651,34	27,00
-2640,81	82,00
-2630,30	41,00
-2619,80	40,00
-2609,31	56,00
-2598,84	88,00
-2588,39	200,00
-2577,95	37,00
-2567,52	79,00
-2557,11	69,00
-2546,71	183,00
-2536,33	110,00
-2525,97	129,00
-2515,62	148,00
-2505,28	35,00
-2494,96	187,00
-2484,65	60,00
-2474,36	53,00
-2464,08	186,00
-2453,82	99,00
-2443,57	108,00
-2433,33	95,00
-2423,11	75,00
-2412,91	92,00
-2402,72	123,00
-2392,54	110,00
-2382,38	122,00
-2372,23	33,00
-2362,09	-215,00
-2351,97	204,00
-2341,87	135,00
-2331,78	150,00
-2321,70	211,00
-2311,64	105,00
-2301,59	181,00
-2291,55	196,00
-2281,53	163,00
-2271,53	219,00
-2261,53	158,00
-2251,55	-37,00
-2241,59	151,00
-2231,64	114,00
-2221,70	139,00
-2211,78	22,00
-2201,87	236,00
-2191,97	97,00
-2182,09	89,00
-2172,22	193,00
-2162,37	223,00
-2152,53	31,00
-2142,70	157,00
-2132,89	169,00
-2123,09	0,00
-2113,30	72,00
-2103,53	-25,00
-2093,77	69,00
-2084,02	92,00
-2074,29	121,00
-2064,57	209,00
-2054,86	205,00
-2045,17	131,00
-2035,49	150,00
-2025,82	174,00
-2016,17	103,00
-2006,53	136,00
-1996,91	106,00
-1987,29	-13,00
-1977,69	146,00
-1968,11	275,00
-1958,53	242,00
-1948,97	141,00
-1939,42	213,00
-1929,89	61,00
-1920,37	248,00
-1910,86	119,00
-1901,36	177,00
-1891,88	178,00
-1882,41	112,00
-1872,95	246,00
-1863,51	-2,00
-1854,08	144,00
-1844,66	118,00
-1835,26	64,00
-1825,86	57,00
-1816,48	143,00
-1807,11	-3,00
-1797,76	114,00
-1788,42	92,00
-1779,09	42,00
-1769,77	94,00
-1760,47	11,00
-1751,17	132,00
-1741,89	-1,00
-1732,63	149,00
-1723,37	16,00
-1714,13	143,00
-1704,90	-24,00
-1695,68	263,00
-1686,48	223,00
-1677,29	75,00
-1668,11	200,00
-1658,94	118,00
-1649,78	167,00
-1640,64	66,00
-1631,51	153,00
-1622,39	175,00
-1613,28	165,00
-1604,19	167,00
-1595,10	24,00
-1586,03	215,00
-1576,97	140,00
-1567,93	52,00
-1558,89	130,00
-1549,87	166,00
-1540,86	73,00
-1531,86	161,00
-1522,87	44,00
-1513,90	118,00
-1504,93	195,00
-1495,98	-132,00
-1487,04	167,00
-1478,12	178,00
-1469,20	204,00
-1460,30	139,00
-1451,40	170,00
-1442,52	76,00
-1433,65	17,00
-1424,80	221,00
-1415,95	159,00
-1407,12	169,00
-1398,30	68,00
-1389,48	107,00
-1380,69	76,00
-1371,90	183,00
-1363,12	89,00
-1354,36	167,00
-1345,60	154,00
-1336,86	204,00
-1328,13	248,00
-1319,41	137,00
-1310,70	180,00
-1302,01	133,00
-1293,32	136,00
-1284,65	124,00
-1275,99	223,00
-1267,33	118,00
-1258,69	85,00
-1250,06	173,00
-1241,45	176,00
-1232,84	290,00
-1224,25	104,00
-1215,66	68,00
-1207,09	111,00
-1198,53	48,00
-1189,97	147,00
-1181,43	205,00
-1172,91	90,00
-1164,39	235,00
-1155,88	176,00
-1147,38	41,00
-1138,90	188,00
-1130,43	92,00
-1121,96	116,00
-1113,51	100,00
-1105,07	180,00
-1096,64	160,00
-1088,22	143,00
-1079,81	200,00
-1071,41	266,00
-1063,02	14,00
-1054,65	197,00
-1046,28	84,00
-1037,92	139,00
-1029,58	176,00
-1021,24	143,00
-1012,92	182,00
-1004,61	81,00
-996,30	109,00
-988,01	96,00
-979,73	233,00
-971,46	36,00
-963,20	161,00
-954,95	132,00
-946,71	32,00
-938,48	118,00
-930,26	127,00
-922,06	99,00
-913,86	242,00
-905,67	235,00
-897,49	84,00
-889,33	212,00
-881,17	189,00
-873,02	246,00
-864,89	28,00
-856,76	187,00
-848,65	143,00
-840,54	16,00
-832,45	110,00
-824,36	147,00
-816,29	180,00
-808,22	118,00
-800,17	145,00
-792,12	51,00
-784,09	134,00
-776,06	32,00
-768,05	-13,00
-760,04	118,00
-752,05	192,00
-744,07	175,00
-736,09	63,00
-728,13	184,00
-720,17	241,00
-712,23	111,00
-704,29	-4,00
-696,37	196,00
-688,45	69,00
-680,55	93,00
-672,65	280,00
-664,77	134,00
-656,89	91,00
-649,03	53,00
-641,17	83,00
-633,32	107,00
-625,49	61,00
-617,66	175,00
-609,84	65,00
-602,03	89,00
-594,23	104,00
-586,45	120,00
-578,67	152,00
-570,90	137,00
-563,14	214,00
-555,39	142,00
-547,65	109,00
-539,91	48,00
-532,19	92,00
-524,48	154,00
-516,78	128,00
-509,08	92,00
-501,40	20,00
-493,72	107,00
-486,06	118,00
-478,40	69,00
-470,76	89,00
-463,12	113,00
-455,49	184,00
-447,87	136,00
-440,26	41,00
-432,66	169,00
-425,07	109,00
-417,49	58,00
-409,92	220,00
-402,35	8,00
-394,80	206,00
-387,25	63,00
-379,72	176,00
-372,19	142,00
-364,67	284,00
-357,17	59,00
-349,67	90,00
-342,18	256,00
-334,69	244,00
-327,22	115,00
-319,76	73,00
-312,30	182,00
-304,86	98,00
-297,42	146,00
-290,00	192,00
-282,58	71,00
-275,17	218,00
-267,77	218,00
-260,37	93,00
-252,99	175,00
-245,62	227,00
-238,25	138,00
-230,90	130,00
-223,55	359,00
-216,21	286,00
-208,88	165,00
-201,56	339,00
-194,25	239,00
-186,94	205,00
-179,65	380,00
-172,36	328,00
-165,08	315,00
-157,81	388,00
-150,55	254,00
-143,30	370,00
-136,06	379,00
-128,82	417,00
-121,60	455,00
-114,38	343,00
-107,17	365,00
-99,97	465,00
-92,78	628,00
-85,60	623,00
-78,42	602,00
-71,25	833,00
-64,10	968,00
-56,95	1352,00
-49,81	1267,00
-42,67	1614,00
-35,55	1981,00
-28,43	2821,00
-21,33	4596,00
-14,23	16259,00
-7,14	47266,00
-0,05	38051,00
7,02	42597,00
14,09	42014,00
21,14	11302,00
28,19	5040,00
35,23	3316,00
42,27	2379,00
49,29	2116,00
56,31	1749,00
63,32	1514,00
70,32	1264,00
77,31	1054,00
84,29	1100,00
91,27	808,00
98,23	727,00
105,19	787,00
112,14	802,00
119,09	967,00
126,02	1491,00
132,95	1601,00
139,87	1710,00
146,78	1654,00
153,68	1619,00
160,58	1510,00
167,46	1581,00
174,34	1653,00
181,21	1476,00
188,08	1466,00
194,93	1448,00
201,78	1582,00
208,62	1443,00
215,45	1499,00
222,27	1476,00
229,09	1337,00
235,90	1434,00
242,70	1242,00
249,49	1357,00
256,27	1403,00
263,05	1282,00
269,82	1187,00
276,58	1383,00
283,33	1241,00
290,08	1347,00
296,82	1359,00
303,55	1194,00
310,27	1337,00
316,98	1167,00
323,69	1246,00
330,39	1153,00
337,08	1179,00
343,76	1137,00
350,44	1202,00
357,11	1111,00
363,77	1232,00
370,42	1070,00
377,07	1194,00
383,71	1185,00
390,34	1075,00
396,96	1251,00
403,58	1019,00
410,19	1111,00
416,79	1049,00
423,38	1108,00
429,97	1141,00
436,55	1141,00
443,12	1156,00
449,68	1093,00
456,24	1072,00
462,79	1145,00
469,33	948,00
475,86	976,00
482,39	943,00
488,91	925,00
495,42	960,00
501,93	958,00
508,42	1052,00
514,91	1108,00
521,40	1093,00
527,87	1058,00
534,34	904,00
540,80	1017,00
547,25	892,00
553,70	987,00
560,14	907,00
566,57	928,00
573,00	857,00
579,41	893,00
585,83	987,00
592,23	1008,00
598,62	854,00
605,01	835,00
611,40	1000,00
617,77	853,00
624,14	933,00
630,50	988,00
636,85	832,00
643,20	835,00
649,54	831,00
655,87	859,00
662,20	985,00
668,52	858,00
674,83	708,00
681,13	1001,00
687,43	995,00
693,72	789,00
700,00	768,00
706,28	928,00
712,55	852,00
718,81	884,00
725,07	976,00
731,32	872,00
737,56	1007,00
743,79	960,00
750,02	887,00
756,24	920,00
762,46	886,00
768,67	1010,00
774,87	829,00
781,06	867,00
787,25	990,00
793,43	969,00
799,60	815,00
805,77	864,00
811,93	851,00
818,08	954,00
824,23	934,00
830,37	927,00
836,50	888,00
842,63	897,00
848,75	919,00
854,87	911,00
860,97	980,00
867,07	1013,00
873,17	1009,00
879,25	888,00
885,33	1018,00
891,41	965,00
897,47	890,00
903,53	938,00
909,59	976,00
915,63	997,00
921,67	915,00
927,71	824,00
933,74	753,00
939,76	785,00
945,77	889,00
951,78	859,00
957,78	761,00
963,78	877,00
969,77	784,00
975,75	770,00
981,72	838,00
987,69	1046,00
993,66	933,00
999,61	775,00
1005,56	981,00
1011,51	740,00
1017,44	870,00
1023,37	864,00
1029,30	993,00
1035,22	839,00
1041,13	1047,00
1047,03	887,00
1052,93	1312,00
1058,83	1737,00
1064,71	1818,00
1070,59	1547,00
1076,47	1170,00
1082,33	1145,00
1088,20	1062,00
1094,05	1057,00
1099,90	980,00
1105,74	924,00
1111,58	993,00
1117,41	1173,00
1123,23	1595,00
1129,05	1976,00
1134,86	1819,00
1140,67	1416,00
1146,47	1029,00
1152,26	1015,00
1158,05	931,00
1163,83	902,00
1169,60	982,00
1175,37	940,00
1181,13	860,00
1186,89	888,00
1192,64	864,00
1198,38	887,00
1204,12	827,00
1209,85	797,00
1215,58	966,00
1221,30	804,00
1227,02	908,00
1232,72	874,00
1238,43	838,00
1244,12	900,00
1249,81	836,00
1255,50	873,00
1261,17	979,00
1266,85	1027,00
1272,51	1054,00
1278,17	1032,00
1283,83	1162,00
1289,47	1885,00
1295,12	2272,00
1300,75	1977,00
1306,38	1566,00
1312,01	1401,00
1317,63	1194,00
1323,24	1145,00
1328,85	1133,00
1334,45	1029,00
1340,04	873,00
1345,63	1048,00
1351,22	1111,00
1356,80	1011,00
1362,37	1004,00
1367,93	1276,00
1373,49	1063,00
1379,05	1063,00
1384,60	1042,00
1390,14	1041,00
1395,68	1033,00
1401,21	941,00
1406,74	1081,00
1412,26	1433,00
1417,77	1581,00
1423,28	1630,00
1428,78	1792,00
1434,28	1985,00
1439,77	2437,00
1445,26	2285,00
1450,74	2219,00
1456,22	1862,00
1461,68	1948,00
1467,15	1664,00
1472,61	1539,00
1478,06	1432,00
1483,51	1194,00
1488,95	1200,00
1494,38	1007,00
1499,81	977,00
1505,24	950,00
1510,65	855,00
1516,07	927,00
1521,48	776,00
1526,88	879,00
1532,27	793,00
1537,67	893,00
1543,05	906,00
1548,43	732,00
1553,81	800,00
1559,18	916,00
1564,54	780,00
1569,90	867,00
1575,25	742,00
1580,60	880,00
1585,94	677,00
1591,28	773,00
1596,61	840,00
1601,93	768,00
1607,25	747,00
1612,57	779,00
1617,88	821,00
1623,18	848,00
1628,48	853,00
1633,77	872,00
1639,06	846,00
1644,34	879,00
1649,62	738,00
1654,89	725,00
1660,16	678,00
1665,42	712,00
1670,67	679,00
1675,92	743,00
1681,17	672,00
1686,41	629,00
1691,64	827,00
1696,87	710,00
1702,10	670,00
1707,32	604,00
1712,53	743,00
1717,74	652,00
1722,94	627,00
1728,14	605,00
1733,33	669,00
1738,52	707,00
1743,70	847,00
1748,88	649,00
1754,05	712,00
1759,22	620,00
1764,38	626,00
1769,53	633,00
1774,69	602,00
1779,83	663,00
1784,97	580,00
1790,11	641,00
1795,24	640,00
1800,36	704,00
1805,48	647,00
1810,60	804,00
1815,71	728,00
1820,82	793,00
1825,92	647,00
1831,01	659,00
1836,10	675,00
1841,19	661,00
1846,26	581,00
1851,34	655,00
1856,41	667,00
1861,47	674,00
1866,53	544,00
1871,59	690,00
1876,64	661,00
1881,68	733,00
1886,72	628,00
1891,76	486,00
1896,79	715,00
1901,81	728,00
1906,83	525,00
1911,85	628,00
1916,86	588,00
1921,86	600,00
1926,86	508,00
1931,86	802,00
1936,85	510,00
1941,83	628,00
1946,81	652,00
1951,79	685,00
1956,76	505,00
1961,72	733,00
1966,68	580,00
1971,64	631,00
1976,59	624,00
1981,54	537,00
1986,48	539,00
1991,42	520,00
1996,35	633,00
2001,27	383,00
2006,20	652,00
2011,11	618,00
2016,03	518,00
2020,93	680,00
2025,84	498,00
2030,73	473,00
2035,63	521,00
2040,52	550,00
2045,40	484,00
2050,28	565,00
2055,15	564,00
2060,02	607,00
2064,89	628,00
2069,75	491,00
2074,60	578,00
2079,46	397,00
2084,30	688,00
2089,14	545,00
2093,98	500,00
2098,81	540,00
2103,64	591,00
2108,46	564,00
2113,28	576,00
2118,09	487,00
2122,90	646,00
2127,70	655,00
2132,50	566,00
2137,30	445,00
2142,09	614,00
2146,87	620,00
2151,66	536,00
2156,43	526,00
2161,20	535,00
2165,97	563,00
2170,73	477,00
2175,49	547,00
2180,24	512,00
2184,99	421,00
2189,74	476,00
2194,48	623,00
2199,21	486,00
2203,94	496,00
2208,67	491,00
2213,39	457,00
2218,11	441,00
2222,82	524,00
2227,53	534,00
2232,23	485,00
2236,93	519,00
2241,63	419,00
2246,32	515,00
2251,00	544,00
2255,68	591,00
2260,36	455,00
2265,03	555,00
2269,70	483,00
2274,36	539,00
2279,02	368,00
2283,68	492,00
2288,33	531,00
2292,97	449,00
2297,61	509,00
2302,25	422,00
2306,88	515,00
2311,51	511,00
2316,14	529,00
2320,75	508,00
2325,37	418,00
2329,98	498,00
2334,59	570,00
2339,19	544,00
2343,79	353,00
2348,38	541,00
2352,97	461,00
2357,55	609,00
2362,13	552,00
2366,71	421,00
2371,28	495,00
2375,85	524,00
2380,41	504,00
2384,97	353,00
2389,52	432,00
2394,07	525,00
2398,62	375,00
2403,16	487,00
2407,70	460,00
2412,23	552,00
2416,76	414,00
2421,29	303,00
2425,81	593,00
2430,32	550,00
2434,84	377,00
2439,34	548,00
2443,85	454,00
2448,35	508,00
2452,84	356,00
2457,33	492,00
2461,82	535,00
2466,30	467,00
2470,78	493,00
2475,25	271,00
2479,72	427,00
2484,19	475,00
2488,65	538,00
2493,11	383,00
2497,56	400,00
2502,01	400,00
2506,46	431,00
2510,90	440,00
2515,34	373,00
2519,77	464,00
2524,20	492,00
2528,62	535,00
2533,04	438,00
2537,46	504,00
2541,87	363,00
2546,28	433,00
2550,68	317,00
2555,08	395,00
2559,48	379,00
2563,87	504,00
2568,26	398,00
2572,64	375,00
2577,02	496,00
2581,40	453,00
2585,77	451,00
2590,14	459,00
2594,50	416,00
2598,86	423,00
2603,22	393,00
2607,57	337,00
2611,92	377,00
2616,26	450,00
2620,60	591,00
2624,94	412,00
2629,27	520,00
2633,60	484,00
2637,92	334,00
2642,24	505,00
2646,56	571,00
2650,87	431,00
2655,18	515,00
2659,48	293,00
2663,78	377,00
2668,08	428,00
2672,37	584,00
2676,66	547,00
2680,95	518,00
2685,23	549,00
2689,50	561,00
2693,78	387,00
2698,05	451,00
2702,31	414,00
2706,57	511,00
2710,83	516,00
2715,08	460,00
2719,33	650,00
2723,58	632,00
2727,82	485,00
2732,06	595,00
2736,29	581,00
2740,53	572,00
2744,75	458,00
2748,97	506,00
2753,19	553,00
2757,41	392,00
2761,62	551,00
2765,83	527,00
2770,03	414,00
2774,23	430,00
2778,43	497,00
2782,62	628,00
2786,81	493,00
2791,00	625,00
2795,18	701,00
2799,35	649,00
2803,53	603,00
2807,70	637,00
2811,86	618,00
2816,03	655,00
2820,19	729,00
2824,34	822,00
2828,49	897,00
2832,64	1043,00
2836,78	1304,00
2840,92	1567,00
2845,06	1979,00
2849,19	2147,00
2853,32	2369,00
2857,45	2301,00
2861,57	2183,00
2865,69	1992,00
2869,80	2031,00
2873,91	1995,00
2878,02	2142,00
2882,12	2425,00
2886,22	2512,00
2890,32	2160,00
2894,41	2037,00
2898,50	1901,00
2902,58	1770,00
2906,67	1704,00
2910,74	1457,00
2914,82	1446,00
2918,89	1357,00
2922,96	1157,00
2927,02	1141,00
2931,08	1178,00
2935,13	1020,00
2939,19	1051,00
2943,24	826,00
2947,28	769,00
2951,32	850,00
2955,36	707,00
2959,40	628,00
2963,43	607,00
2967,46	633,00
2971,48	392,00
2975,50	534,00
2979,52	449,00
2983,53	493,00
2987,54	441,00
2991,55	396,00
2995,55	381,00
2999,55	518,00
3003,54	330,00
3007,54	296,00
3011,53	505,00
3015,51	433,00
3019,49	194,00
3023,47	391,00
3027,45	320,00
3031,42	386,00
3035,39	416,00
3039,35	347,00
3043,31	332,00
3047,27	253,00
3051,22	288,00
3055,17	288,00
3059,12	260,00
3063,06	422,00
3067,00	272,00
3070,94	311,00
3074,87	284,00
3078,80	268,00
3082,73	278,00
3086,65	242,00
3090,57	264,00
3094,49	295,00
3098,40	363,00
3102,31	244,00
3106,22	293,00
3110,12	297,00
3114,02	281,00
3117,92	285,00
3121,81	242,00
3125,70	182,00
3129,58	214,00
3133,47	144,00
3137,34	154,00
3141,22	242,00
3145,09	218,00
3148,96	227,00
3152,83	304,00
3156,69	216,00
3160,55	240,00
3164,40	202,00
3168,26	238,00
3172,10	272,00
3175,95	198,00
3179,79	151,00
3183,63	218,00
3187,47	279,00
3191,30	150,00
3195,13	237,00
3198,95	198,00
3202,78	284,00
3206,60	238,00
3210,41	150,00
3214,23	228,00
3218,03	258,00
3221,84	32,00
3225,64	217,00
3229,44	188,00
3233,24	201,00
3237,03	265,00
3240,82	156,00
3244,61	85,00
3248,39	137,00
3252,17	298,00
3255,95	204,00
3259,72	321,00
3263,49	141,00
3267,26	259,00
3271,03	229,00
3274,79	230,00
3278,54	119,00
3282,30	239,00
3286,05	195,00
3289,80	113,00
3293,54	185,00
3297,29	230,00
3301,02	146,00
3304,76	190,00
3308,49	213,00
3312,22	107,00
3315,95	81,00
3319,67	242,00
3323,39	169,00
3327,10	200,00
3330,82	162,00
3334,53	277,00
3338,24	165,00
3341,94	253,00
3345,64	139,00
3349,34	168,00
3353,03	193,00
3356,72	278,00
3360,41	212,00
3364,10	343,00
3367,78	57,00
3371,46	178,00
3375,13	183,00
3378,81	58,00
3382,48	188,00
3386,14	45,00
3389,81	137,00
3393,47	271,00
3397,12	98,00
3400,78	-22,00
3404,43	310,00
3408,08	195,00
3411,72	180,00
3415,36	121,00
3419,00	217,00
3422,64	285,00
3426,27	192,00
3429,90	46,00
3433,53	234,00
3437,15	273,00
3440,77	269,00
3444,39	210,00
3448,00	120,00
3451,62	216,00
3455,22	220,00
3458,83	133,00
3462,43	63,00
3466,03	95,00
3469,63	147,00
3473,22	192,00
3476,81	143,00
3480,40	10,00
3483,99	165,00
3487,57	130,00
3491,15	192,00
3494,72	78,00
3498,29	104,00
3501,86	110,00
3505,43	104,00
3508,99	130,00
3512,56	132,00
3516,11	192,00
3519,67	176,00
3523,22	203,00
3526,77	52,00
3530,32	302,00
3533,86	144,00
3537,40	143,00
3540,94	150,00
3544,47	188,00
3548,00	175,00
3551,53	67,00
3555,06	13,00
3558,58	59,00
3562,10	261,00
3565,62	193,00
3569,13	77,00
3572,64	125,00
3576,15	193,00
3579,66	14,00
3583,16	88,00
3586,66	5,00
3590,16	150,00
3593,65	148,00
3597,14	237,00
3600,63	158,00
3604,11	139,00
3607,60	150,00
3611,08	269,00
3614,55	51,00
3618,03	134,00
3621,50	201,00
3624,97	115,00
3628,43	188,00
3631,90	255,00
3635,36	116,00
3638,81	108,00
3642,27	155,00
3645,72	243,00
3649,17	26,00
3652,61	84,00
3656,06	179,00
3659,50	134,00
3662,93	187,00
3666,37	176,00
3669,80	93,00
3673,23	199,00
3676,65	225,00
3680,08	101,00
3683,50	17,00
3686,92	203,00
3690,33	103,00
3693,74	95,00
3697,15	191,00
3700,56	-34,00
3703,96	112,00
3707,36	-11,00
3710,76	25,00
3714,16	156,00
3717,55	76,00
3720,94	215,00
3724,33	-10,00
3727,71	87,00
3731,10	131,00
3734,48	81,00
3737,85	130,00
3741,23	137,00
3744,60	175,00
3747,97	159,00
3751,33	191,00
3754,69	107,00
3758,05	201,00
3761,41	84,00
3764,77	176,00
3768,12	140,00
3771,47	128,00
3774,82	128,00
3778,16	-7,00
3781,50	1,00
3784,84	0,00
3788,18	5,00
>>>>>End Processed Spectral Data<<<<<
