SpectraSuite Data File
++++++++++++++++++++++++++++++++++++
Date: Tue Mar 03 12:28:40 ICT 2026
User: user
Dark Spectrum Present: Yes
Reference Spectrum Present: No
Number of Sampled Component Spectra: 1
Spectrometers: MAYP113682
Integration Time (usec): 3000000 (MAYP113682)
Spectra Averaged: 1 (MAYP113682)
Boxcar Smoothing: 0 (MAYP113682)
Correct for Electrical Dark: No (MAYP113682)
Strobe/Lamp Enabled: No (MAYP113682)
Correct for Detector Non-linearity: No (MAYP113682)
Correct for Stray Light: No (MAYP113682)
Number of Pixels in Processed Spectrum: 2068
>>>>>Begin Processed Spectral Data<<<<<
-37534,58	3,00
-37414,56	3,00
-37295,11	-2,00
-37176,24	3,00
-37057,95	39,00
-36940,22	-36,00
-36823,05	-51,00
-36706,45	-1,00
-36590,40	140,00
-36474,90	53,00
-36359,95	29,00
-36245,55	162,00
-36131,68	50,00
-36018,35	25,00
-35905,55	69,00
-35793,29	-26,00
-35681,54	47,00
-35570,32	57,00
-35459,62	-41,00
-35349,43	-18,00
-35239,75	132,00
-35130,58	44,00
-35021,91	33,00
-34913,74	118,00
-34806,07	11,00
-34698,89	43,00
-34592,20	-24,00
-34486,00	26,00
-34380,28	-30,00
-34275,04	16,00
-34170,27	36,00
-34065,98	-32,00
-33962,16	-20,00
-33858,81	79,00
-33755,92	21,00
-33653,49	-1,00
-33551,52	21,00
-33450,01	-54,00
-33348,94	-34,00
-33248,33	45,00
-33148,16	57,00
-33048,43	24,00
-32949,14	70,00
-32850,29	138,00
-32751,87	8,00
-32653,89	20,00
-32556,33	43,00
-32459,20	-12,00
-32362,49	29,00
-32266,19	28,00
-32170,32	54,00
-32074,86	-34,00
-31979,82	136,00
-31885,18	-49,00
-31790,95	18,00
-31697,12	112,00
-31603,69	-71,00
-31510,67	44,00
-31418,04	-1,00
-31325,80	78,00
-31233,95	-14,00
-31142,49	16,00
-31051,42	125,00
-30960,73	42,00
-30870,43	132,00
-30780,50	38,00
-30690,95	44,00
-30601,77	94,00
-30512,97	15,00
-30424,53	90,00
-30336,46	75,00
-30248,76	40,00
-30161,42	13,00
-30074,44	103,00
-29987,81	129,00
-29901,55	-10,00
-29815,63	-20,00
-29730,07	-51,00
-29644,86	9,00
-29560,00	94,00
-29475,48	-73,00
-29391,30	27,00
-29307,47	88,00
-29223,97	37,00
-29140,81	4,00
-29057,99	-32,00
-28975,50	197,00
-28893,34	173,00
-28811,51	-63,00
-28730,00	135,00
-28648,82	-27,00
-28567,97	6,00
-28487,43	-2,00
-28407,21	-13,00
-28327,32	-18,00
-28247,73	44,00
-28168,46	52,00
-28089,50	86,00
-28010,85	-47,00
-27932,51	68,00
-27854,48	57,00
-27776,75	1,00
-27699,32	122,00
-27622,19	180,00
-27545,37	58,00
-27468,84	42,00
-27392,60	77,00
-27316,66	-17,00
-27241,01	-27,00
-27165,66	152,00
-27090,59	-37,00
-27015,81	71,00
-26941,31	152,00
-26867,10	164,00
-26793,17	65,00
-26719,52	0,00
-26646,15	30,00
-26573,06	134,00
-26500,24	127,00
-26427,70	13,00
-26355,43	39,00
-26283,43	-65,00
-26211,71	57,00
-26140,25	-2,00
-26069,06	159,00
-25998,13	-103,00
-25927,46	72,00
-25857,06	46,00
-25786,92	-13,00
-25717,04	-13,00
-25647,42	139,00
-25578,05	-35,00
-25508,94	-32,00
-25440,09	63,00
-25371,48	120,00
-25303,13	21,00
-25235,02	46,00
-25167,17	-23,00
-25099,56	-8,00
-25032,19	81,00
-24965,07	-42,00
-24898,20	41,00
-24831,56	19,00
-24765,17	-38,00
-24699,01	84,00
-24633,10	70,00
-24567,41	-14,00
-24501,97	-40,00
-24436,75	-51,00
-24371,77	91,00
-24307,03	37,00
-24242,51	64,00
-24178,22	56,00
-24114,16	-20,00
-24050,32	-2,00
-23986,71	-64,00
-23923,32	-17,00
-23860,16	-60,00
-23797,22	100,00
-23734,50	-37,00
-23672,00	-20,00
-23609,71	250,00
-23547,65	40,00
-23485,80	-83,00
-23424,16	25,00
-23362,74	71,00
-23301,53	-63,00
-23240,54	-87,00
-23179,75	66,00
-23119,17	11,00
-23058,80	179,00
-22998,64	10,00
-22938,68	74,00
-22878,93	48,00
-22819,39	105,00
-22760,04	-121,00
-22700,90	27,00
-22641,96	-1,00
-22583,22	6,00
-22524,68	55,00
-22466,33	43,00
-22408,19	-27,00
-22350,23	76,00
-22292,48	20,00
-22234,92	88,00
-22177,55	-74,00
-22120,37	-14,00
-22063,38	27,00
-22006,58	140,00
-21949,98	60,00
-21893,56	77,00
-21837,33	133,00
-21781,28	84,00
-21725,42	-27,00
-21669,74	80,00
-21614,25	95,00
-21558,94	-40,00
-21503,81	133,00
-21448,86	-3,00
-21394,10	75,00
-21339,51	113,00
-21285,10	-100,00
-21230,86	24,00
-21176,81	-9,00
-21122,93	131,00
-21069,22	101,00
-21015,69	77,00
-20962,33	58,00
-20909,14	-28,00
-20856,13	181,00
-20803,28	-138,00
-20750,61	-12,00
-20698,10	28,00
-20645,76	71,00
-20593,59	165,00
-20541,59	71,00
-20489,75	-21,00
-20438,07	86,00
-20386,56	43,00
-20335,22	24,00
-20284,03	78,00
-20233,01	-32,00
-20182,15	1,00
-20131,45	26,00
-20080,91	-88,00
-20030,52	114,00
-19980,30	16,00
-19930,23	10,00
-19880,32	17,00
-19830,56	122,00
-19780,96	36,00
-19731,52	0,00
-19682,23	-36,00
-19633,09	33,00
-19584,10	71,00
-19535,26	107,00
-19486,58	-56,00
-19438,04	-51,00
-19389,66	37,00
-19341,42	31,00
-19293,33	16,00
-19245,39	55,00
-19197,60	57,00
-19149,95	145,00
-19102,45	-10,00
-19055,09	84,00
-19007,87	140,00
-18960,80	184,00
-18913,87	135,00
-18867,09	-23,00
-18820,44	190,00
-18773,94	20,00
-18727,57	5,00
-18681,35	113,00
-18635,26	-13,00
-18589,31	114,00
-18543,50	-73,00
-18497,83	-63,00
-18452,29	-9,00
-18406,89	87,00
-18361,63	6,00
-18316,50	-19,00
-18271,50	21,00
-18226,63	115,00
-18181,90	80,00
-18137,30	134,00
-18092,84	46,00
-18048,50	41,00
-18004,29	-32,00
-17960,22	68,00
-17916,27	-2,00
-17872,45	5,00
-17828,76	-20,00
-17785,20	-57,00
-17741,77	-25,00
-17698,46	8,00
-17655,28	72,00
-17612,22	-96,00
-17569,29	37,00
-17526,48	-25,00
-17483,79	38,00
-17441,23	-111,00
-17398,79	8,00
-17356,48	50,00
-17314,28	47,00
-17272,21	51,00
-17230,26	43,00
-17188,42	20,00
-17146,71	229,00
-17105,12	22,00
-17063,64	51,00
-17022,28	16,00
-16981,04	-23,00
-16939,92	75,00
-16898,91	14,00
-16858,02	-39,00
-16817,25	-19,00
-16776,59	180,00
-16736,04	-18,00
-16695,61	82,00
-16655,29	25,00
-16615,09	89,00
-16574,99	140,00
-16535,01	58,00
-16495,15	24,00
-16455,39	-74,00
-16415,74	157,00
-16376,21	42,00
-16336,78	-12,00
-16297,46	13,00
-16258,26	118,00
-16219,16	78,00
-16180,17	90,00
-16141,28	26,00
-16102,51	-25,00
-16063,84	57,00
-16025,27	20,00
-15986,82	14,00
-15948,46	-20,00
-15910,22	104,00
-15872,07	81,00
-15834,04	-40,00
-15796,10	71,00
-15758,27	-42,00
-15720,54	25,00
-15682,91	6,00
-15645,39	131,00
-15607,97	74,00
-15570,64	34,00
-15533,42	57,00
-15496,30	22,00
-15459,28	56,00
-15422,36	49,00
-15385,54	111,00
-15348,82	1,00
-15312,19	-36,00
-15275,66	-123,00
-15239,23	-12,00
-15202,90	60,00
-15166,67	68,00
-15130,53	-59,00
-15094,48	45,00
-15058,54	132,00
-15022,68	15,00
-14986,93	85,00
-14951,26	25,00
-14915,69	-108,00
-14880,22	31,00
-14844,84	-22,00
-14809,55	-87,00
-14774,35	61,00
-14739,25	187,00
-14704,24	-64,00
-14669,32	7,00
-14634,49	153,00
-14599,75	22,00
-14565,10	119,00
-14530,55	-14,00
-14496,08	164,00
-14461,70	32,00
-14427,41	-66,00
-14393,21	-49,00
-14359,10	-38,00
-14325,07	83,00
-14291,14	93,00
-14257,29	38,00
-14223,52	25,00
-14189,85	-88,00
-14156,26	45,00
-14122,76	-58,00
-14089,34	50,00
-14056,01	54,00
-14022,76	-105,00
-13989,60	-18,00
-13956,52	10,00
-13923,53	113,00
-13890,62	-1,00
-13857,79	157,00
-13825,05	21,00
-13792,39	60,00
-13759,81	6,00
-13727,31	-8,00
-13694,90	-2,00
-13662,57	221,00
-13630,31	19,00
-13598,14	87,00
-13566,05	76,00
-13534,05	-24,00
-13502,12	136,00
-13470,27	19,00
-13438,50	-120,00
-13406,80	-7,00
-13375,19	-27,00
-13343,66	16,00
-13312,20	85,00
-13280,83	-23,00
-13249,53	79,00
-13218,30	53,00
-13187,16	-51,00
-13156,09	-119,00
-13125,10	115,00
-13094,18	94,00
-13063,34	-29,00
-13032,58	56,00
-13001,89	-60,00
-12971,28	-22,00
-12940,74	152,00
-12910,27	5,00
-12879,88	9,00
-12849,57	132,00
-12819,33	-24,00
-12789,16	9,00
-12759,06	63,00
-12729,04	8,00
-12699,09	12,00
-12669,21	86,00
-12639,41	-11,00
-12609,68	43,00
-12580,02	-76,00
-12550,43	43,00
-12520,91	19,00
-12491,46	-18,00
-12462,08	140,00
-12432,77	11,00
-12403,54	-41,00
-12374,37	-49,00
-12345,27	-119,00
-12316,24	24,00
-12287,29	69,00
-12258,40	27,00
-12229,57	54,00
-12200,82	41,00
-12172,14	-68,00
-12143,52	28,00
-12114,97	19,00
-12086,49	31,00
-12058,07	-9,00
-12029,73	-127,00
-12001,44	-27,00
-11973,23	-24,00
-11945,08	25,00
-11917,00	54,00
-11888,98	184,00
-11861,03	0,00
-11833,15	32,00
-11805,32	116,00
-11777,57	25,00
-11749,88	35,00
-11722,25	-29,00
-11694,69	56,00
-11667,19	-19,00
-11639,75	-124,00
-11612,38	67,00
-11585,07	6,00
-11557,83	65,00
-11530,65	-77,00
-11503,53	137,00
-11476,47	56,00
-11449,48	112,00
-11422,54	114,00
-11395,67	52,00
-11368,86	-4,00
-11342,11	23,00
-11315,43	-36,00
-11288,80	108,00
-11262,23	41,00
-11235,73	108,00
-11209,28	31,00
-11182,90	67,00
-11156,57	39,00
-11130,31	32,00
-11104,10	168,00
-11077,96	5,00
-11051,87	102,00
-11025,84	6,00
-10999,87	74,00
-10973,96	14,00
-10948,11	40,00
-10922,31	-63,00
-10896,58	57,00
-10870,90	-85,00
-10845,28	135,00
-10819,71	67,00
-10794,20	46,00
-10768,75	141,00
-10743,36	147,00
-10718,02	130,00
-10692,74	-24,00
-10667,52	107,00
-10642,35	109,00
-10617,24	106,00
-10592,18	206,00
-10567,18	125,00
-10542,23	136,00
-10517,34	288,00
-10492,51	39,00
-10467,72	224,00
-10443,00	262,00
-10418,32	208,00
-10393,70	176,00
-10369,14	242,00
-10344,63	252,00
-10320,17	250,00
-10295,77	281,00
-10271,42	226,00
-10247,12	153,00
-10222,88	229,00
-10198,68	414,00
-10174,54	383,00
-10150,46	383,00
-10126,42	308,00
-10102,44	315,00
-10078,51	444,00
-10054,63	496,00
-10030,80	571,00
-10007,03	449,00
-9983,30	377,00
-9959,63	404,00
-9936,01	565,00
-9912,44	618,00
-9888,92	551,00
-9865,44	692,00
-9842,02	720,00
-9818,65	608,00
-9795,33	687,00
-9772,06	693,00
-9748,84	721,00
-9725,67	746,00
-9702,55	1007,00
-9679,47	1173,00
-9656,45	1237,00
-9633,47	1275,00
-9610,55	1229,00
-9587,67	1356,00
-9564,84	1478,00
-9542,06	1584,00
-9519,32	1827,00
-9496,64	2122,00
-9474,00	2171,00
-9451,41	2197,00
-9428,87	2279,00
-9406,37	2207,00
-9383,92	1974,00
-9361,52	1848,00
-9339,17	1892,00
-9316,86	2081,00
-9294,60	2408,00
-9272,38	2632,00
-9250,21	2806,00
-9228,09	2899,00
-9206,01	2849,00
-9183,98	2731,00
-9162,00	2243,00
-9140,06	2127,00
-9118,16	2065,00
-9096,31	2174,00
-9074,51	2261,00
-9052,75	2160,00
-9031,04	2187,00
-9009,37	1883,00
-8987,74	1647,00
-8966,16	1504,00
-8944,63	1379,00
-8923,14	1148,00
-8901,69	1393,00
-8880,29	1438,00
-8858,93	1780,00
-8837,61	1888,00
-8816,34	2133,00
-8795,11	2060,00
-8773,92	1969,00
-8752,78	1552,00
-8731,68	1638,00
-8710,62	1607,00
-8689,61	1664,00
-8668,63	1838,00
-8647,70	1921,00
-8626,82	1976,00
-8605,97	1801,00
-8585,17	1816,00
-8564,41	1540,00
-8543,69	1516,00
-8523,01	1349,00
-8502,37	1402,00
-8481,78	1444,00
-8461,23	1538,00
-8440,71	1671,00
-8420,24	1784,00
-8399,81	1837,00
-8379,42	1941,00
-8359,08	1674,00
-8338,77	1463,00
-8318,50	1436,00
-8298,27	1273,00
-8278,09	1509,00
-8257,94	1512,00
-8237,83	1643,00
-8217,76	1657,00
-8197,74	1698,00
-8177,75	1615,00
-8157,80	1425,00
-8137,89	1376,00
-8118,02	1504,00
-8098,19	1288,00
-8078,40	1319,00
-8058,65	1436,00
-8038,93	1610,00
-8019,26	1427,00
-7999,62	1423,00
-7980,02	1377,00
-7960,46	1390,00
-7940,94	1433,00
-7921,46	1198,00
-7902,01	1188,00
-7882,60	1179,00
-7863,23	1226,00
-7843,90	1376,00
-7824,61	1350,00
-7805,35	1482,00
-7786,13	1592,00
-7766,95	1516,00
-7747,80	1303,00
-7728,69	1419,00
-7709,62	1265,00
-7690,59	1251,00
-7671,59	1503,00
-7652,63	1547,00
-7633,70	1605,00
-7614,81	1483,00
-7595,96	1288,00
-7577,15	1290,00
-7558,37	1087,00
-7539,62	1201,00
-7520,91	1416,00
-7502,24	1250,00
-7483,60	1393,00
-7465,00	1377,00
-7446,44	1163,00
-7427,91	1183,00
-7409,41	994,00
-7390,95	877,00
-7372,53	952,00
-7354,14	925,00
-7335,78	874,00
-7317,46	978,00
-7299,18	1170,00
-7280,92	1322,00
-7262,71	1251,00
-7244,52	1434,00
-7226,38	1448,00
-7208,26	1370,00
-7190,18	1321,00
-7172,14	1265,00
-7154,12	1193,00
-7136,15	1432,00
-7118,20	1392,00
-7100,29	1512,00
-7082,41	1410,00
-7064,57	1365,00
-7046,76	1328,00
-7028,98	1000,00
-7011,24	906,00
-6993,53	769,00
-6975,85	837,00
-6958,20	652,00
-6940,59	622,00
-6923,01	737,00
-6905,46	827,00
-6887,94	985,00
-6870,46	-1804,00
-6853,01	1254,00
-6835,59	1345,00
-6818,21	1077,00
-6800,85	902,00
-6783,53	765,00
-6766,24	610,00
-6748,98	657,00
-6731,76	565,00
-6714,56	551,00
-6697,40	496,00
-6680,26	545,00
-6663,16	749,00
-6646,09	746,00
-6629,05	932,00
-6612,05	1054,00
-6595,07	1044,00
-6578,13	993,00
-6561,21	876,00
-6544,33	521,00
-6527,47	426,00
-6510,65	358,00
-6493,86	388,00
-6477,10	435,00
-6460,36	416,00
-6443,66	522,00
-6426,99	328,00
-6410,35	445,00
-6393,74	589,00
-6377,16	560,00
-6360,61	785,00
-6344,09	682,00
-6327,59	874,00
-6311,13	694,00
-6294,70	860,00
-6278,29	780,00
-6261,92	898,00
-6245,58	1028,00
-6229,26	956,00
-6212,97	797,00
-6196,72	609,00
-6180,49	576,00
-6164,29	274,00
-6148,12	319,00
-6131,98	196,00
-6115,86	171,00
-6099,78	380,00
-6083,72	182,00
-6067,69	211,00
-6051,69	366,00
-6035,72	250,00
-6019,78	293,00
-6003,87	448,00
-5987,98	662,00
-5972,12	655,00
-5956,29	686,00
-5940,49	586,00
-5924,71	512,00
-5908,96	387,00
-5893,24	226,00
-5877,55	252,00
-5861,89	248,00
-5846,25	355,00
-5830,64	336,00
-5815,05	268,00
-5799,50	311,00
-5783,97	355,00
-5768,47	453,00
-5752,99	454,00
-5737,55	734,00
-5722,12	721,00
-5706,73	736,00
-5691,36	534,00
-5676,02	381,00
-5660,71	275,00
-5645,42	154,00
-5630,16	325,00
-5614,92	307,00
-5599,71	434,00
-5584,53	383,00
-5569,37	412,00
-5554,24	426,00
-5539,14	477,00
-5524,06	186,00
-5509,01	478,00
-5493,98	379,00
-5478,98	379,00
-5464,00	429,00
-5449,05	374,00
-5434,13	235,00
-5419,23	381,00
-5404,36	250,00
-5389,51	462,00
-5374,69	541,00
-5359,89	805,00
-5345,12	741,00
-5330,37	672,00
-5315,65	563,00
-5300,95	542,00
-5286,28	378,00
-5271,63	279,00
-5257,01	403,00
-5242,41	440,00
-5227,84	424,00
-5213,29	355,00
-5198,76	58,00
-5184,26	142,00
-5169,79	296,00
-5155,33	387,00
-5140,91	370,00
-5126,51	524,00
-5112,13	566,00
-5097,77	434,00
-5083,44	236,00
-5069,13	298,00
-5054,85	246,00
-5040,59	300,00
-5026,36	409,00
-5012,15	536,00
-4997,96	422,00
-4983,80	235,00
-4969,66	196,00
-4955,54	319,00
-4941,44	388,00
-4927,37	656,00
-4913,33	691,00
-4899,30	692,00
-4885,30	664,00
-4871,33	485,00
-4857,37	241,00
-4843,44	44,00
-4829,53	145,00
-4815,65	464,00
-4801,79	278,00
-4787,95	246,00
-4774,13	325,00
-4760,34	246,00
-4746,56	85,00
-4732,82	185,00
-4719,09	271,00
-4705,38	438,00
-4691,70	677,00
-4678,04	618,00
-4664,41	359,00
-4650,79	474,00
-4637,20	222,00
-4623,63	178,00
-4610,08	257,00
-4596,56	390,00
-4583,05	330,00
-4569,57	426,00
-4556,11	101,00
-4542,67	40,00
-4529,25	223,00
-4515,86	365,00
-4502,49	446,00
-4489,13	426,00
-4475,80	468,00
-4462,49	294,00
-4449,21	210,00
-4435,94	108,00
-4422,70	232,00
-4409,47	235,00
-4396,27	284,00
-4383,09	285,00
-4369,93	75,00
-4356,79	128,00
-4343,67	237,00
-4330,58	230,00
-4317,50	272,00
-4304,45	320,00
-4291,41	155,00
-4278,40	270,00
-4265,41	-18,00
-4252,44	225,00
-4239,49	298,00
-4226,55	320,00
-4213,65	272,00
-4200,76	149,00
-4187,89	32,00
-4175,04	164,00
-4162,21	195,00
-4149,40	62,00
-4136,61	21,00
-4123,85	164,00
-4111,10	66,00
-4098,37	149,00
-4085,66	168,00
-4072,98	176,00
-4060,31	157,00
-4047,66	183,00
-4035,04	109,00
-4022,43	-3,00
-4009,84	-40,00
-3997,27	24,00
-3984,72	-22,00
-3972,19	58,00
-3959,69	64,00
-3947,20	6,00
-3934,73	35,00
-3922,27	32,00
-3909,84	-13,00
-3897,43	4,00
-3885,04	9,00
-3872,67	93,00
-3860,31	51,00
-3847,98	71,00
-3835,66	-61,00
-3823,36	62,00
-3811,09	85,00
-3798,83	-35,00
-3786,59	-2,00
-3774,37	97,00
-3762,17	-129,00
-3749,98	-18,00
-3737,82	104,00
-3725,67	80,00
-3713,55	-3,00
-3701,44	112,00
-3689,35	163,00
-3677,28	53,00
-3665,22	59,00
-3653,19	-18,00
-3641,17	-26,00
-3629,18	34,00
-3617,20	-39,00
-3605,24	-59,00
-3593,30	55,00
-3581,37	72,00
-3569,47	155,00
-3557,58	31,00
-3545,71	181,00
-3533,86	4,00
-3522,02	150,00
-3510,21	23,00
-3498,41	22,00
-3486,63	130,00
-3474,87	20,00
-3463,12	60,00
-3451,40	-16,00
-3439,69	188,00
-3428,00	78,00
-3416,33	42,00
-3404,67	61,00
-3393,03	15,00
-3381,41	70,00
-3369,81	-18,00
-3358,22	21,00
-3346,66	79,00
-3335,10	-66,00
-3323,57	95,00
-3312,06	48,00
-3300,56	73,00
-3289,08	14,00
-3277,61	36,00
-3266,16	-33,00
-3254,73	24,00
-3243,32	91,00
-3231,92	4,00
-3220,55	-11,00
-3209,18	42,00
-3197,84	48,00
-3186,51	16,00
-3175,20	106,00
-3163,90	90,00
-3152,63	71,00
-3141,36	-38,00
-3130,12	-3,00
-3118,89	51,00
-3107,68	-5,00
-3096,49	129,00
-3085,31	63,00
-3074,15	149,00
-3063,00	19,00
-3051,87	-3,00
-3040,76	58,00
-3029,67	88,00
-3018,59	75,00
-3007,52	137,00
-2996,48	13,00
-2985,44	139,00
-2974,43	123,00
-2963,43	59,00
-2952,45	56,00
-2941,48	102,00
-2930,53	75,00
-2919,60	4,00
-2908,68	95,00
-2897,78	112,00
-2886,89	-2,00
-2876,02	-31,00
-2865,17	-47,00
-2854,33	-9,00
-2843,50	21,00
-2832,70	136,00
-2821,90	8,00
-2811,13	-90,00
-2800,37	-10,00
-2789,62	136,00
-2778,89	8,00
-2768,18	-49,00
-2757,48	3,00
-2746,80	108,00
-2736,13	20,00
-2725,48	-61,00
-2714,84	-14,00
-2704,22	0,00
-2693,61	129,00
-2683,02	-19,00
-2672,45	-6,00
-2661,89	123,00
-2651,34	-89,00
-2640,81	52,00
-2630,30	40,00
-2619,80	-55,00
-2609,31	-9,00
-2598,84	40,00
-2588,39	116,00
-2577,95	-35,00
-2567,52	31,00
-2557,11	75,00
-2546,71	76,00
-2536,33	17,00
-2525,97	64,00
-2515,62	43,00
-2505,28	-72,00
-2494,96	107,00
-2484,65	77,00
-2474,36	-43,00
-2464,08	16,00
-2453,82	43,00
-2443,57	-44,00
-2433,33	37,00
-2423,11	-86,00
-2412,91	-15,00
-2402,72	60,00
-2392,54	-13,00
-2382,38	40,00
-2372,23	-8,00
-2362,09	-4979,00
-2351,97	119,00
-2341,87	-58,00
-2331,78	72,00
-2321,70	30,00
-2311,64	26,00
-2301,59	74,00
-2291,55	53,00
-2281,53	24,00
-2271,53	156,00
-2261,53	81,00
-2251,55	-25,00
-2241,59	110,00
-2231,64	117,00
-2221,70	43,00
-2211,78	-17,00
-2201,87	88,00
-2191,97	-35,00
-2182,09	-31,00
-2172,22	136,00
-2162,37	98,00
-2152,53	56,00
-2142,70	107,00
-2132,89	43,00
-2123,09	3,00
-2113,30	92,00
-2103,53	-38,00
-2093,77	5,00
-2084,02	-16,00
-2074,29	81,00
-2064,57	115,00
-2054,86	99,00
-2045,17	-29,00
-2035,49	42,00
-2025,82	-10,00
-2016,17	12,00
-2006,53	69,00
-1996,91	-82,00
-1987,29	-106,00
-1977,69	31,00
-1968,11	154,00
-1958,53	122,00
-1948,97	20,00
-1939,42	140,00
-1929,89	-38,00
-1920,37	175,00
-1910,86	-8,00
-1901,36	56,00
-1891,88	10,00
-1882,41	40,00
-1872,95	77,00
-1863,51	-24,00
-1854,08	-10,00
-1844,66	78,00
-1835,26	-11,00
-1825,86	38,00
-1816,48	130,00
-1807,11	-23,00
-1797,76	-24,00
-1788,42	107,00
-1779,09	68,00
-1769,77	51,00
-1760,47	-21,00
-1751,17	60,00
-1741,89	-13,00
-1732,63	-43,00
-1723,37	-139,00
-1714,13	39,00
-1704,90	-79,00
-1695,68	66,00
-1686,48	90,00
-1677,29	11,00
-1668,11	112,00
-1658,94	40,00
-1649,78	-1,00
-1640,64	1,00
-1631,51	39,00
-1622,39	59,00
-1613,28	64,00
-1604,19	53,00
-1595,10	85,00
-1586,03	-13,00
-1576,97	100,00
-1567,93	21,00
-1558,89	-10,00
-1549,87	52,00
-1540,86	85,00
-1531,86	-6,00
-1522,87	-69,00
-1513,90	97,00
-1504,93	43,00
-1495,98	-51,00
-1487,04	42,00
-1478,12	78,00
-1469,20	60,00
-1460,30	123,00
-1451,40	73,00
-1442,52	-14,00
-1433,65	22,00
-1424,80	74,00
-1415,95	116,00
-1407,12	82,00
-1398,30	-17,00
-1389,48	58,00
-1380,69	44,00
-1371,90	90,00
-1363,12	1,00
-1354,36	145,00
-1345,60	-26,00
-1336,86	65,00
-1328,13	31,00
-1319,41	106,00
-1310,70	141,00
-1302,01	79,00
-1293,32	111,00
-1284,65	64,00
-1275,99	163,00
-1267,33	-15,00
-1258,69	29,00
-1250,06	80,00
-1241,45	69,00
-1232,84	116,00
-1224,25	-18,00
-1215,66	21,00
-1207,09	-45,00
-1198,53	-166,00
-1189,97	137,00
-1181,43	82,00
-1172,91	-28,00
-1164,39	23,00
-1155,88	43,00
-1147,38	-15,00
-1138,90	30,00
-1130,43	76,00
-1121,96	10,00
-1113,51	-58,00
-1105,07	40,00
-1096,64	89,00
-1088,22	110,00
-1079,81	-17,00
-1071,41	97,00
-1063,02	-7,00
-1054,65	87,00
-1046,28	7,00
-1037,92	38,00
-1029,58	38,00
-1021,24	34,00
-1012,92	129,00
-1004,61	-10,00
-996,30	122,00
-988,01	-57,00
-979,73	161,00
-971,46	82,00
-963,20	7,00
-954,95	5,00
-946,71	-85,00
-938,48	40,00
-930,26	-121,00
-922,06	-83,00
-913,86	12,00
-905,67	106,00
-897,49	-40,00
-889,33	134,00
-881,17	132,00
-873,02	56,00
-864,89	39,00
-856,76	-48,00
-848,65	17,00
-840,54	115,00
-832,45	88,00
-824,36	51,00
-816,29	101,00
-808,22	0,00
-800,17	137,00
-792,12	-71,00
-784,09	91,00
-776,06	12,00
-768,05	-128,00
-760,04	-1,00
-752,05	-11,00
-744,07	-41,00
-736,09	-28,00
-728,13	157,00
-720,17	11,00
-712,23	34,00
-704,29	-51,00
-696,37	21,00
-688,45	44,00
-680,55	-40,00
-672,65	108,00
-664,77	45,00
-656,89	-23,00
-649,03	65,00
-641,17	-9,00
-633,32	67,00
-625,49	11,00
-617,66	55,00
-609,84	-40,00
-602,03	61,00
-594,23	98,00
-586,45	22,00
-578,67	109,00
-570,90	137,00
-563,14	112,00
-555,39	89,00
-547,65	5,00
-539,91	22,00
-532,19	108,00
-524,48	87,00
-516,78	4,00
-509,08	-59,00
-501,40	68,00
-493,72	25,00
-486,06	-8,00
-478,40	-32,00
-470,76	81,00
-463,12	2,00
-455,49	116,00
-447,87	40,00
-440,26	134,00
-432,66	47,00
-425,07	22,00
-417,49	51,00
-409,92	35,00
-402,35	48,00
-394,80	165,00
-387,25	-6,00
-379,72	-16,00
-372,19	154,00
-364,67	116,00
-357,17	-45,00
-349,67	43,00
-342,18	148,00
-334,69	180,00
-327,22	-42,00
-319,76	7,00
-312,30	9,00
-304,86	41,00
-297,42	112,00
-290,00	59,00
-282,58	-9,00
-275,17	143,00
-267,77	162,00
-260,37	72,00
-252,99	178,00
-245,62	24,00
-238,25	83,00
-230,90	56,00
-223,55	256,00
-216,21	131,00
-208,88	121,00
-201,56	262,00
-194,25	183,00
-186,94	71,00
-179,65	265,00
-172,36	183,00
-165,08	173,00
-157,81	277,00
-150,55	110,00
-143,30	191,00
-136,06	307,00
-128,82	275,00
-121,60	360,00
-114,38	244,00
-107,17	262,00
-99,97	373,00
-92,78	563,00
-85,60	440,00
-78,42	594,00
-71,25	716,00
-64,10	938,00
-56,95	1108,00
-49,81	1208,00
-42,67	1516,00
-35,55	1932,00
-28,43	2552,00
-21,33	4606,00
-14,23	15330,00
-7,14	47266,00
-0,05	38051,00
7,02	42597,00
14,09	39891,00
21,14	10462,00
28,19	4704,00
35,23	3136,00
42,27	2350,00
49,29	1956,00
56,31	1522,00
63,32	1304,00
70,32	1281,00
77,31	972,00
84,29	826,00
91,27	604,00
98,23	579,00
105,19	512,00
112,14	678,00
119,09	1013,00
126,02	1420,00
132,95	1626,00
139,87	1656,00
146,78	1536,00
153,68	1547,00
160,58	1480,00
167,46	1472,00
174,34	1478,00
181,21	1384,00
188,08	1501,00
194,93	1499,00
201,78	1466,00
208,62	1518,00
215,45	1337,00
222,27	1434,00
229,09	1437,00
235,90	1485,00
242,70	1286,00
249,49	1326,00
256,27	1380,00
263,05	1239,00
269,82	1177,00
276,58	1258,00
283,33	1167,00
290,08	1341,00
296,82	1255,00
303,55	1084,00
310,27	1180,00
316,98	1167,00
323,69	1277,00
330,39	1243,00
337,08	1044,00
343,76	1180,00
350,44	1106,00
357,11	1183,00
363,77	1152,00
370,42	1093,00
377,07	1024,00
383,71	1128,00
390,34	1098,00
396,96	1123,00
403,58	962,00
410,19	1032,00
416,79	1142,00
423,38	1073,00
429,97	1103,00
436,55	1159,00
443,12	1151,00
449,68	1031,00
456,24	1016,00
462,79	1059,00
469,33	968,00
475,86	1002,00
482,39	1038,00
488,91	968,00
495,42	916,00
501,93	1010,00
508,42	982,00
514,91	1014,00
521,40	941,00
527,87	988,00
534,34	824,00
540,80	995,00
547,25	868,00
553,70	835,00
560,14	903,00
566,57	864,00
573,00	819,00
579,41	781,00
585,83	897,00
592,23	947,00
598,62	902,00
605,01	841,00
611,40	914,00
617,77	979,00
624,14	903,00
630,50	936,00
636,85	716,00
643,20	859,00
649,54	875,00
655,87	861,00
662,20	830,00
668,52	778,00
674,83	745,00
681,13	979,00
687,43	930,00
693,72	824,00
700,00	810,00
706,28	904,00
712,55	825,00
718,81	1006,00
725,07	968,00
731,32	749,00
737,56	904,00
743,79	872,00
750,02	931,00
756,24	857,00
762,46	858,00
768,67	920,00
774,87	869,00
781,06	858,00
787,25	902,00
793,43	903,00
799,60	874,00
805,77	759,00
811,93	883,00
818,08	827,00
824,23	929,00
830,37	918,00
836,50	946,00
842,63	818,00
848,75	911,00
854,87	963,00
860,97	845,00
867,07	1009,00
873,17	866,00
879,25	884,00
885,33	878,00
891,41	851,00
897,47	840,00
903,53	762,00
909,59	794,00
915,63	964,00
921,67	861,00
927,71	706,00
933,74	753,00
939,76	729,00
945,77	709,00
951,78	940,00
957,78	796,00
963,78	733,00
969,77	612,00
975,75	737,00
981,72	871,00
987,69	1108,00
993,66	847,00
999,61	769,00
1005,56	848,00
1011,51	876,00
1017,44	819,00
1023,37	720,00
1029,30	896,00
1035,22	837,00
1041,13	956,00
1047,03	978,00
1052,93	1175,00
1058,83	1656,00
1064,71	1725,00
1070,59	1436,00
1076,47	1062,00
1082,33	1039,00
1088,20	1018,00
1094,05	990,00
1099,90	861,00
1105,74	890,00
1111,58	934,00
1117,41	1077,00
1123,23	1513,00
1129,05	1815,00
1134,86	1744,00
1140,67	1252,00
1146,47	1081,00
1152,26	903,00
1158,05	920,00
1163,83	888,00
1169,60	892,00
1175,37	995,00
1181,13	736,00
1186,89	866,00
1192,64	719,00
1198,38	855,00
1204,12	841,00
1209,85	776,00
1215,58	820,00
1221,30	742,00
1227,02	796,00
1232,72	806,00
1238,43	717,00
1244,12	915,00
1249,81	801,00
1255,50	827,00
1261,17	980,00
1266,85	1074,00
1272,51	1046,00
1278,17	1089,00
1283,83	1152,00
1289,47	1735,00
1295,12	2290,00
1300,75	1942,00
1306,38	1446,00
1312,01	1224,00
1317,63	980,00
1323,24	1139,00
1328,85	1006,00
1334,45	977,00
1340,04	865,00
1345,63	940,00
1351,22	984,00
1356,80	955,00
1362,37	1199,00
1367,93	1144,00
1373,49	1015,00
1379,05	1116,00
1384,60	1004,00
1390,14	1011,00
1395,68	1045,00
1401,21	943,00
1406,74	1043,00
1412,26	1392,00
1417,77	1525,00
1423,28	1580,00
1428,78	1713,00
1434,28	1896,00
1439,77	2194,00
1445,26	2217,00
1450,74	2192,00
1456,22	1842,00
1461,68	1759,00
1467,15	1565,00
1472,61	1544,00
1478,06	1291,00
1483,51	1094,00
1488,95	1115,00
1494,38	843,00
1499,81	771,00
1505,24	779,00
1510,65	871,00
1516,07	858,00
1521,48	829,00
1526,88	772,00
1532,27	825,00
1537,67	897,00
1543,05	911,00
1548,43	825,00
1553,81	723,00
1559,18	763,00
1564,54	805,00
1569,90	826,00
1575,25	775,00
1580,60	946,00
1585,94	799,00
1591,28	769,00
1596,61	717,00
1601,93	690,00
1607,25	608,00
1612,57	544,00
1617,88	856,00
1623,18	799,00
1628,48	839,00
1633,77	691,00
1639,06	793,00
1644,34	836,00
1649,62	607,00
1654,89	685,00
1660,16	647,00
1665,42	612,00
1670,67	653,00
1675,92	739,00
1681,17	716,00
1686,41	646,00
1691,64	694,00
1696,87	557,00
1702,10	718,00
1707,32	568,00
1712,53	714,00
1717,74	740,00
1722,94	591,00
1728,14	567,00
1733,33	604,00
1738,52	699,00
1743,70	627,00
1748,88	567,00
1754,05	743,00
1759,22	556,00
1764,38	569,00
1769,53	545,00
1774,69	594,00
1779,83	664,00
1784,97	568,00
1790,11	515,00
1795,24	557,00
1800,36	631,00
1805,48	623,00
1810,60	698,00
1815,71	649,00
1820,82	674,00
1825,92	599,00
1831,01	667,00
1836,10	561,00
1841,19	622,00
1846,26	621,00
1851,34	526,00
1856,41	525,00
1861,47	630,00
1866,53	533,00
1871,59	564,00
1876,64	672,00
1881,68	562,00
1886,72	605,00
1891,76	536,00
1896,79	645,00
1901,81	489,00
1906,83	559,00
1911,85	597,00
1916,86	616,00
1921,86	616,00
1926,86	512,00
1931,86	594,00
1936,85	547,00
1941,83	574,00
1946,81	559,00
1951,79	588,00
1956,76	364,00
1961,72	632,00
1966,68	582,00
1971,64	639,00
1976,59	611,00
1981,54	508,00
1986,48	361,00
1991,42	503,00
1996,35	604,00
2001,27	321,00
2006,20	649,00
2011,11	653,00
2016,03	519,00
2020,93	658,00
2025,84	441,00
2030,73	473,00
2035,63	435,00
2040,52	549,00
2045,40	412,00
2050,28	490,00
2055,15	504,00
2060,02	556,00
2064,89	358,00
2069,75	495,00
2074,60	446,00
2079,46	431,00
2084,30	588,00
2089,14	521,00
2093,98	446,00
2098,81	525,00
2103,64	434,00
2108,46	486,00
2113,28	495,00
2118,09	487,00
2122,90	507,00
2127,70	475,00
2132,50	498,00
2137,30	503,00
2142,09	596,00
2146,87	518,00
2151,66	564,00
2156,43	476,00
2161,20	408,00
2165,97	524,00
2170,73	485,00
2175,49	501,00
2180,24	451,00
2184,99	376,00
2189,74	509,00
2194,48	470,00
2199,21	427,00
2203,94	388,00
2208,67	458,00
2213,39	348,00
2218,11	319,00
2222,82	548,00
2227,53	474,00
2232,23	508,00
2236,93	332,00
2241,63	505,00
2246,32	515,00
2251,00	503,00
2255,68	474,00
2260,36	420,00
2265,03	347,00
2269,70	460,00
2274,36	474,00
2279,02	426,00
2283,68	404,00
2288,33	363,00
2292,97	472,00
2297,61	542,00
2302,25	353,00
2306,88	441,00
2311,51	539,00
2316,14	360,00
2320,75	478,00
2325,37	388,00
2329,98	500,00
2334,59	374,00
2339,19	426,00
2343,79	467,00
2348,38	414,00
2352,97	310,00
2357,55	454,00
2362,13	399,00
2366,71	386,00
2371,28	363,00
2375,85	428,00
2380,41	432,00
2384,97	421,00
2389,52	414,00
2394,07	400,00
2398,62	333,00
2403,16	442,00
2407,70	344,00
2412,23	372,00
2416,76	308,00
2421,29	370,00
2425,81	555,00
2430,32	382,00
2434,84	340,00
2439,34	419,00
2443,85	430,00
2448,35	411,00
2452,84	404,00
2457,33	401,00
2461,82	445,00
2466,30	367,00
2470,78	551,00
2475,25	338,00
2479,72	299,00
2484,19	414,00
2488,65	425,00
2493,11	293,00
2497,56	324,00
2502,01	291,00
2506,46	338,00
2510,90	412,00
2515,34	338,00
2519,77	371,00
2524,20	331,00
2528,62	441,00
2533,04	420,00
2537,46	406,00
2541,87	303,00
2546,28	381,00
2550,68	371,00
2555,08	407,00
2559,48	347,00
2563,87	312,00
2568,26	319,00
2572,64	229,00
2577,02	272,00
2581,40	420,00
2585,77	451,00
2590,14	437,00
2594,50	376,00
2598,86	395,00
2603,22	351,00
2607,57	390,00
2611,92	337,00
2616,26	417,00
2620,60	452,00
2624,94	312,00
2629,27	410,00
2633,60	341,00
2637,92	266,00
2642,24	213,00
2646,56	464,00
2650,87	417,00
2655,18	393,00
2659,48	354,00
2663,78	386,00
2668,08	461,00
2672,37	498,00
2676,66	334,00
2680,95	340,00
2685,23	449,00
2689,50	488,00
2693,78	387,00
2698,05	415,00
2702,31	432,00
2706,57	360,00
2710,83	359,00
2715,08	389,00
2719,33	542,00
2723,58	526,00
2727,82	420,00
2732,06	552,00
2736,29	458,00
2740,53	465,00
2744,75	420,00
2748,97	441,00
2753,19	535,00
2757,41	304,00
2761,62	349,00
2765,83	429,00
2770,03	468,00
2774,23	426,00
2778,43	525,00
2782,62	539,00
2786,81	420,00
2791,00	536,00
2795,18	548,00
2799,35	388,00
2803,53	549,00
2807,70	542,00
2811,86	648,00
2816,03	632,00
2820,19	592,00
2824,34	671,00
2828,49	760,00
2832,64	1019,00
2836,78	1141,00
2840,92	1464,00
2845,06	1797,00
2849,19	2003,00
2853,32	2123,00
2857,45	2042,00
2861,57	2022,00
2865,69	1745,00
2869,80	1865,00
2873,91	1767,00
2878,02	2002,00
2882,12	2096,00
2886,22	2227,00
2890,32	1950,00
2894,41	1887,00
2898,50	1720,00
2902,58	1652,00
2906,67	1540,00
2910,74	1401,00
2914,82	1284,00
2918,89	1244,00
2922,96	1147,00
2927,02	1060,00
2931,08	943,00
2935,13	839,00
2939,19	865,00
2943,24	722,00
2947,28	589,00
2951,32	682,00
2955,36	588,00
2959,40	419,00
2963,43	602,00
2967,46	435,00
2971,48	375,00
2975,50	531,00
2979,52	362,00
2983,53	387,00
2987,54	326,00
2991,55	313,00
2995,55	232,00
2999,55	354,00
3003,54	318,00
3007,54	229,00
3011,53	262,00
3015,51	264,00
3019,49	136,00
3023,47	307,00
3027,45	348,00
3031,42	248,00
3035,39	254,00
3039,35	207,00
3043,31	219,00
3047,27	275,00
3051,22	292,00
3055,17	267,00
3059,12	169,00
3063,06	202,00
3067,00	204,00
3070,94	215,00
3074,87	294,00
3078,80	253,00
3082,73	336,00
3086,65	66,00
3090,57	232,00
3094,49	180,00
3098,40	171,00
3102,31	200,00
3106,22	173,00
3110,12	254,00
3114,02	124,00
3117,92	239,00
3121,81	225,00
3125,70	84,00
3129,58	157,00
3133,47	59,00
3137,34	-19,00
3141,22	227,00
3145,09	214,00
3148,96	152,00
3152,83	198,00
3156,69	134,00
3160,55	81,00
3164,40	74,00
3168,26	118,00
3172,10	250,00
3175,95	193,00
3179,79	203,00
3183,63	85,00
3187,47	241,00
3191,30	143,00
3195,13	57,00
3198,95	41,00
3202,78	195,00
3206,60	74,00
3210,41	224,00
3214,23	115,00
3218,03	280,00
3221,84	-21,00
3225,64	64,00
3229,44	165,00
3233,24	151,00
3237,03	140,00
3240,82	67,00
3244,61	111,00
3248,39	29,00
3252,17	153,00
3255,95	46,00
3259,72	272,00
3263,49	34,00
3267,26	138,00
3271,03	153,00
3274,79	79,00
3278,54	155,00
3282,30	135,00
3286,05	126,00
3289,80	-44,00
3293,54	78,00
3297,29	182,00
3301,02	196,00
3304,76	1,00
3308,49	180,00
3312,22	165,00
3315,95	-60,00
3319,67	350,00
3323,39	128,00
3327,10	96,00
3330,82	113,00
3334,53	163,00
3338,24	132,00
3341,94	113,00
3345,64	100,00
3349,34	-11,00
3353,03	196,00
3356,72	224,00
3360,41	132,00
3364,10	189,00
3367,78	103,00
3371,46	49,00
3375,13	51,00
3378,81	78,00
3382,48	74,00
3386,14	-1,00
3389,81	106,00
3393,47	87,00
3397,12	-14,00
3400,78	20,00
3404,43	187,00
3408,08	68,00
3411,72	64,00
3415,36	-6,00
3419,00	177,00
3422,64	176,00
3426,27	64,00
3429,90	103,00
3433,53	122,00
3437,15	158,00
3440,77	109,00
3444,39	89,00
3448,00	6,00
3451,62	113,00
3455,22	100,00
3458,83	75,00
3462,43	100,00
3466,03	-92,00
3469,63	133,00
3473,22	47,00
3476,81	84,00
3480,40	-32,00
3483,99	-11,00
3487,57	23,00
3491,15	14,00
3494,72	12,00
3498,29	-15,00
3501,86	37,00
3505,43	-77,00
3508,99	152,00
3512,56	64,00
3516,11	88,00
3519,67	48,00
3523,22	28,00
3526,77	15,00
3530,32	168,00
3533,86	83,00
3537,40	4,00
3540,94	38,00
3544,47	136,00
3548,00	64,00
3551,53	57,00
3555,06	14,00
3558,58	24,00
3562,10	62,00
3565,62	140,00
3569,13	-21,00
3572,64	56,00
3576,15	116,00
3579,66	63,00
3583,16	-13,00
3586,66	-54,00
3590,16	-44,00
3593,65	64,00
3597,14	-77,00
3600,63	183,00
3604,11	127,00
3607,60	182,00
3611,08	85,00
3614,55	2,00
3618,03	46,00
3621,50	46,00
3624,97	31,00
3628,43	32,00
3631,90	13,00
3635,36	31,00
3638,81	-33,00
3642,27	47,00
3645,72	140,00
3649,17	88,00
3652,61	-70,00
3656,06	160,00
3659,50	82,00
3662,93	36,00
3666,37	-28,00
3669,80	14,00
3673,23	114,00
3676,65	81,00
3680,08	53,00
3683,50	45,00
3686,92	68,00
3690,33	39,00
3693,74	138,00
3697,15	125,00
3700,56	-63,00
3703,96	-10,00
3707,36	-25,00
3710,76	-151,00
3714,16	81,00
3717,55	44,00
3720,94	56,00
3724,33	11,00
3727,71	-43,00
3731,10	109,00
3734,48	9,00
3737,85	52,00
3741,23	83,00
3744,60	35,00
3747,97	11,00
3751,33	128,00
3754,69	-16,00
3758,05	129,00
3761,41	36,00
3764,77	118,00
3768,12	65,00
3771,47	81,00
3774,82	21,00
3778,16	-1,00
3781,50	5,00
3784,84	0,00
3788,18	12,00
>>>>>End Processed Spectral Data<<<<<
