SpectraSuite Data File
++++++++++++++++++++++++++++++++++++
Date: Tue Mar 03 12:26:46 ICT 2026
User: user
Dark Spectrum Present: Yes
Reference Spectrum Present: No
Number of Sampled Component Spectra: 1
Spectrometers: MAYP113682
Integration Time (usec): 3000000 (MAYP113682)
Spectra Averaged: 1 (MAYP113682)
Boxcar Smoothing: 0 (MAYP113682)
Correct for Electrical Dark: No (MAYP113682)
Strobe/Lamp Enabled: No (MAYP113682)
Correct for Detector Non-linearity: No (MAYP113682)
Correct for Stray Light: No (MAYP113682)
Number of Pixels in Processed Spectrum: 2068
>>>>>Begin Processed Spectral Data<<<<<
-37534,58	4,00
-37414,56	-1,00
-37295,11	-3,00
-37176,24	0,00
-37057,95	10,00
-36940,22	-6,00
-36823,05	40,00
-36706,45	-70,00
-36590,40	44,00
-36474,90	95,00
-36359,95	14,00
-36245,55	184,00
-36131,68	-5,00
-36018,35	37,00
-35905,55	50,00
-35793,29	103,00
-35681,54	14,00
-35570,32	24,00
-35459,62	-96,00
-35349,43	-2,00
-35239,75	62,00
-35130,58	25,00
-35021,91	39,00
-34913,74	112,00
-34806,07	61,00
-34698,89	88,00
-34592,20	-107,00
-34486,00	8,00
-34380,28	83,00
-34275,04	-34,00
-34170,27	-118,00
-34065,98	-66,00
-33962,16	6,00
-33858,81	93,00
-33755,92	21,00
-33653,49	-31,00
-33551,52	10,00
-33450,01	-29,00
-33348,94	87,00
-33248,33	-1,00
-33148,16	33,00
-33048,43	38,00
-32949,14	25,00
-32850,29	-36,00
-32751,87	6,00
-32653,89	89,00
-32556,33	39,00
-32459,20	45,00
-32362,49	36,00
-32266,19	0,00
-32170,32	26,00
-32074,86	-22,00
-31979,82	-42,00
-31885,18	-89,00
-31790,95	-14,00
-31697,12	88,00
-31603,69	103,00
-31510,67	-44,00
-31418,04	-65,00
-31325,80	117,00
-31233,95	104,00
-31142,49	65,00
-31051,42	41,00
-30960,73	68,00
-30870,43	22,00
-30780,50	120,00
-30690,95	28,00
-30601,77	37,00
-30512,97	-74,00
-30424,53	27,00
-30336,46	26,00
-30248,76	57,00
-30161,42	10,00
-30074,44	96,00
-29987,81	64,00
-29901,55	66,00
-29815,63	-46,00
-29730,07	-139,00
-29644,86	-21,00
-29560,00	104,00
-29475,48	-41,00
-29391,30	48,00
-29307,47	-11,00
-29223,97	37,00
-29140,81	-58,00
-29057,99	-40,00
-28975,50	97,00
-28893,34	131,00
-28811,51	66,00
-28730,00	44,00
-28648,82	-15,00
-28567,97	20,00
-28487,43	59,00
-28407,21	6,00
-28327,32	-86,00
-28247,73	-52,00
-28168,46	36,00
-28089,50	41,00
-28010,85	-17,00
-27932,51	16,00
-27854,48	-12,00
-27776,75	-27,00
-27699,32	-37,00
-27622,19	92,00
-27545,37	68,00
-27468,84	-88,00
-27392,60	24,00
-27316,66	29,00
-27241,01	-30,00
-27165,66	-18,00
-27090,59	-4,00
-27015,81	62,00
-26941,31	110,00
-26867,10	80,00
-26793,17	-16,00
-26719,52	-56,00
-26646,15	45,00
-26573,06	172,00
-26500,24	16,00
-26427,70	-43,00
-26355,43	91,00
-26283,43	1,00
-26211,71	109,00
-26140,25	-24,00
-26069,06	150,00
-25998,13	-22,00
-25927,46	15,00
-25857,06	-26,00
-25786,92	-89,00
-25717,04	-73,00
-25647,42	24,00
-25578,05	-26,00
-25508,94	-51,00
-25440,09	63,00
-25371,48	31,00
-25303,13	37,00
-25235,02	32,00
-25167,17	-6,00
-25099,56	160,00
-25032,19	92,00
-24965,07	-38,00
-24898,20	-70,00
-24831,56	38,00
-24765,17	-6,00
-24699,01	129,00
-24633,10	61,00
-24567,41	-39,00
-24501,97	46,00
-24436,75	9,00
-24371,77	66,00
-24307,03	-85,00
-24242,51	62,00
-24178,22	43,00
-24114,16	-24,00
-24050,32	48,00
-23986,71	8,00
-23923,32	18,00
-23860,16	-62,00
-23797,22	70,00
-23734,50	-56,00
-23672,00	151,00
-23609,71	124,00
-23547,65	-64,00
-23485,80	122,00
-23424,16	-20,00
-23362,74	14,00
-23301,53	14,00
-23240,54	0,00
-23179,75	32,00
-23119,17	36,00
-23058,80	166,00
-22998,64	-30,00
-22938,68	93,00
-22878,93	-59,00
-22819,39	72,00
-22760,04	-105,00
-22700,90	48,00
-22641,96	-120,00
-22583,22	86,00
-22524,68	-20,00
-22466,33	61,00
-22408,19	50,00
-22350,23	32,00
-22292,48	10,00
-22234,92	-100,00
-22177,55	13,00
-22120,37	-36,00
-22063,38	-21,00
-22006,58	86,00
-21949,98	26,00
-21893,56	177,00
-21837,33	74,00
-21781,28	-24,00
-21725,42	-79,00
-21669,74	59,00
-21614,25	90,00
-21558,94	73,00
-21503,81	111,00
-21448,86	32,00
-21394,10	44,00
-21339,51	93,00
-21285,10	-58,00
-21230,86	12,00
-21176,81	-2,00
-21122,93	138,00
-21069,22	54,00
-21015,69	58,00
-20962,33	17,00
-20909,14	10,00
-20856,13	56,00
-20803,28	-81,00
-20750,61	45,00
-20698,10	36,00
-20645,76	64,00
-20593,59	91,00
-20541,59	41,00
-20489,75	-33,00
-20438,07	115,00
-20386,56	55,00
-20335,22	-8,00
-20284,03	13,00
-20233,01	75,00
-20182,15	-72,00
-20131,45	33,00
-20080,91	-29,00
-20030,52	57,00
-19980,30	-38,00
-19930,23	-63,00
-19880,32	98,00
-19830,56	165,00
-19780,96	40,00
-19731,52	46,00
-19682,23	-28,00
-19633,09	-86,00
-19584,10	81,00
-19535,26	47,00
-19486,58	-17,00
-19438,04	-109,00
-19389,66	-83,00
-19341,42	16,00
-19293,33	-16,00
-19245,39	58,00
-19197,60	53,00
-19149,95	77,00
-19102,45	70,00
-19055,09	56,00
-19007,87	63,00
-18960,80	66,00
-18913,87	43,00
-18867,09	-41,00
-18820,44	125,00
-18773,94	11,00
-18727,57	-3,00
-18681,35	14,00
-18635,26	109,00
-18589,31	128,00
-18543,50	-2,00
-18497,83	-72,00
-18452,29	-48,00
-18406,89	31,00
-18361,63	42,00
-18316,50	7,00
-18271,50	-66,00
-18226,63	-8,00
-18181,90	112,00
-18137,30	153,00
-18092,84	8,00
-18048,50	37,00
-18004,29	28,00
-17960,22	59,00
-17916,27	8,00
-17872,45	48,00
-17828,76	29,00
-17785,20	-71,00
-17741,77	11,00
-17698,46	-100,00
-17655,28	139,00
-17612,22	-30,00
-17569,29	88,00
-17526,48	19,00
-17483,79	23,00
-17441,23	-57,00
-17398,79	96,00
-17356,48	189,00
-17314,28	95,00
-17272,21	80,00
-17230,26	94,00
-17188,42	43,00
-17146,71	93,00
-17105,12	24,00
-17063,64	-101,00
-17022,28	-20,00
-16981,04	-59,00
-16939,92	59,00
-16898,91	59,00
-16858,02	-38,00
-16817,25	61,00
-16776,59	120,00
-16736,04	58,00
-16695,61	59,00
-16655,29	-6,00
-16615,09	-30,00
-16574,99	26,00
-16535,01	24,00
-16495,15	32,00
-16455,39	38,00
-16415,74	41,00
-16376,21	-6,00
-16336,78	-90,00
-16297,46	98,00
-16258,26	149,00
-16219,16	38,00
-16180,17	70,00
-16141,28	30,00
-16102,51	-45,00
-16063,84	-5,00
-16025,27	142,00
-15986,82	9,00
-15948,46	-93,00
-15910,22	146,00
-15872,07	84,00
-15834,04	10,00
-15796,10	21,00
-15758,27	22,00
-15720,54	29,00
-15682,91	0,00
-15645,39	35,00
-15607,97	4,00
-15570,64	64,00
-15533,42	-42,00
-15496,30	-5,00
-15459,28	118,00
-15422,36	59,00
-15385,54	71,00
-15348,82	133,00
-15312,19	16,00
-15275,66	-24,00
-15239,23	-22,00
-15202,90	18,00
-15166,67	37,00
-15130,53	-16,00
-15094,48	-2,00
-15058,54	52,00
-15022,68	-24,00
-14986,93	43,00
-14951,26	98,00
-14915,69	-71,00
-14880,22	38,00
-14844,84	37,00
-14809,55	-48,00
-14774,35	-132,00
-14739,25	30,00
-14704,24	4,00
-14669,32	17,00
-14634,49	75,00
-14599,75	75,00
-14565,10	164,00
-14530,55	-3,00
-14496,08	119,00
-14461,70	27,00
-14427,41	-37,00
-14393,21	-4,00
-14359,10	39,00
-14325,07	105,00
-14291,14	52,00
-14257,29	-37,00
-14223,52	60,00
-14189,85	22,00
-14156,26	94,00
-14122,76	-6,00
-14089,34	-37,00
-14056,01	-10,00
-14022,76	65,00
-13989,60	-86,00
-13956,52	41,00
-13923,53	-46,00
-13890,62	6,00
-13857,79	43,00
-13825,05	86,00
-13792,39	52,00
-13759,81	43,00
-13727,31	-14,00
-13694,90	-63,00
-13662,57	185,00
-13630,31	55,00
-13598,14	-10,00
-13566,05	4,00
-13534,05	-55,00
-13502,12	-9,00
-13470,27	74,00
-13438,50	-125,00
-13406,80	104,00
-13375,19	-4,00
-13343,66	-139,00
-13312,20	-32,00
-13280,83	28,00
-13249,53	87,00
-13218,30	36,00
-13187,16	-48,00
-13156,09	-46,00
-13125,10	58,00
-13094,18	79,00
-13063,34	40,00
-13032,58	119,00
-13001,89	-91,00
-12971,28	128,00
-12940,74	65,00
-12910,27	-95,00
-12879,88	6,00
-12849,57	94,00
-12819,33	25,00
-12789,16	28,00
-12759,06	-43,00
-12729,04	11,00
-12699,09	-1386,00
-12669,21	134,00
-12639,41	22,00
-12609,68	-54,00
-12580,02	13,00
-12550,43	-8,00
-12520,91	112,00
-12491,46	3,00
-12462,08	38,00
-12432,77	86,00
-12403,54	74,00
-12374,37	27,00
-12345,27	-122,00
-12316,24	24,00
-12287,29	11,00
-12258,40	35,00
-12229,57	169,00
-12200,82	69,00
-12172,14	-24,00
-12143,52	21,00
-12114,97	-45,00
-12086,49	68,00
-12058,07	108,00
-12029,73	-122,00
-12001,44	76,00
-11973,23	-31,00
-11945,08	30,00
-11917,00	30,00
-11888,98	-28,00
-11861,03	66,00
-11833,15	123,00
-11805,32	65,00
-11777,57	-65,00
-11749,88	-15,00
-11722,25	42,00
-11694,69	54,00
-11667,19	18,00
-11639,75	-75,00
-11612,38	46,00
-11585,07	49,00
-11557,83	-1,00
-11530,65	40,00
-11503,53	127,00
-11476,47	8,00
-11449,48	73,00
-11422,54	108,00
-11395,67	50,00
-11368,86	28,00
-11342,11	-10,00
-11315,43	-11,00
-11288,80	78,00
-11262,23	147,00
-11235,73	74,00
-11209,28	6,00
-11182,90	-68,00
-11156,57	-11,00
-11130,31	76,00
-11104,10	46,00
-11077,96	51,00
-11051,87	129,00
-11025,84	98,00
-10999,87	166,00
-10973,96	18,00
-10948,11	25,00
-10922,31	-32,00
-10896,58	105,00
-10870,90	28,00
-10845,28	-2,00
-10819,71	-48,00
-10794,20	19,00
-10768,75	159,00
-10743,36	116,00
-10718,02	123,00
-10692,74	-19,00
-10667,52	128,00
-10642,35	28,00
-10617,24	184,00
-10592,18	159,00
-10567,18	229,00
-10542,23	86,00
-10517,34	137,00
-10492,51	180,00
-10467,72	181,00
-10443,00	178,00
-10418,32	171,00
-10393,70	224,00
-10369,14	148,00
-10344,63	376,00
-10320,17	244,00
-10295,77	286,00
-10271,42	247,00
-10247,12	253,00
-10222,88	229,00
-10198,68	360,00
-10174,54	318,00
-10150,46	357,00
-10126,42	277,00
-10102,44	366,00
-10078,51	534,00
-10054,63	611,00
-10030,80	495,00
-10007,03	345,00
-9983,30	449,00
-9959,63	648,00
-9936,01	602,00
-9912,44	572,00
-9888,92	614,00
-9865,44	668,00
-9842,02	683,00
-9818,65	690,00
-9795,33	648,00
-9772,06	773,00
-9748,84	832,00
-9725,67	869,00
-9702,55	1010,00
-9679,47	1242,00
-9656,45	1355,00
-9633,47	1351,00
-9610,55	1314,00
-9587,67	1342,00
-9564,84	1544,00
-9542,06	1704,00
-9519,32	1947,00
-9496,64	2138,00
-9474,00	2399,00
-9451,41	2266,00
-9428,87	2404,00
-9406,37	2127,00
-9383,92	2092,00
-9361,52	1937,00
-9339,17	1836,00
-9316,86	2323,00
-9294,60	2655,00
-9272,38	2770,00
-9250,21	2837,00
-9228,09	3074,00
-9206,01	2943,00
-9183,98	2696,00
-9162,00	2324,00
-9140,06	2200,00
-9118,16	2193,00
-9096,31	2355,00
-9074,51	2420,00
-9052,75	2358,00
-9031,04	2166,00
-9009,37	2097,00
-8987,74	1736,00
-8966,16	1641,00
-8944,63	1394,00
-8923,14	1172,00
-8901,69	1541,00
-8880,29	1604,00
-8858,93	1893,00
-8837,61	2038,00
-8816,34	2175,00
-8795,11	2156,00
-8773,92	2107,00
-8752,78	1806,00
-8731,68	1592,00
-8710,62	1696,00
-8689,61	1749,00
-8668,63	1932,00
-8647,70	2030,00
-8626,82	2061,00
-8605,97	1964,00
-8585,17	1855,00
-8564,41	1602,00
-8543,69	1618,00
-8523,01	1382,00
-8502,37	1536,00
-8481,78	1438,00
-8461,23	1616,00
-8440,71	1711,00
-8420,24	1904,00
-8399,81	2005,00
-8379,42	1912,00
-8359,08	1717,00
-8338,77	1546,00
-8318,50	1619,00
-8298,27	1415,00
-8278,09	1563,00
-8257,94	1531,00
-8237,83	1611,00
-8217,76	1766,00
-8197,74	1786,00
-8177,75	1858,00
-8157,80	1510,00
-8137,89	1614,00
-8118,02	1511,00
-8098,19	1300,00
-8078,40	1451,00
-8058,65	1502,00
-8038,93	1647,00
-8019,26	1515,00
-7999,62	1499,00
-7980,02	1423,00
-7960,46	1474,00
-7940,94	1351,00
-7921,46	1265,00
-7902,01	1259,00
-7882,60	1247,00
-7863,23	1231,00
-7843,90	1356,00
-7824,61	1535,00
-7805,35	1484,00
-7786,13	1635,00
-7766,95	1484,00
-7747,80	1379,00
-7728,69	1462,00
-7709,62	1298,00
-7690,59	1341,00
-7671,59	1506,00
-7652,63	1651,00
-7633,70	1642,00
-7614,81	1608,00
-7595,96	1331,00
-7577,15	1314,00
-7558,37	1192,00
-7539,62	1247,00
-7520,91	1456,00
-7502,24	1452,00
-7483,60	1502,00
-7465,00	1241,00
-7446,44	1257,00
-7427,91	1136,00
-7409,41	1000,00
-7390,95	887,00
-7372,53	966,00
-7354,14	998,00
-7335,78	1025,00
-7317,46	1013,00
-7299,18	1249,00
-7280,92	1239,00
-7262,71	1371,00
-7244,52	1472,00
-7226,38	1456,00
-7208,26	1452,00
-7190,18	1394,00
-7172,14	1199,00
-7154,12	1304,00
-7136,15	1384,00
-7118,20	1428,00
-7100,29	1402,00
-7082,41	1557,00
-7064,57	1382,00
-7046,76	1421,00
-7028,98	1173,00
-7011,24	994,00
-6993,53	844,00
-6975,85	751,00
-6958,20	733,00
-6940,59	724,00
-6923,01	692,00
-6905,46	768,00
-6887,94	1042,00
-6870,46	1061,00
-6853,01	1318,00
-6835,59	1362,00
-6818,21	1251,00
-6800,85	897,00
-6783,53	760,00
-6766,24	655,00
-6748,98	704,00
-6731,76	515,00
-6714,56	523,00
-6697,40	531,00
-6680,26	507,00
-6663,16	788,00
-6646,09	847,00
-6629,05	968,00
-6612,05	1027,00
-6595,07	1120,00
-6578,13	860,00
-6561,21	830,00
-6544,33	561,00
-6527,47	477,00
-6510,65	374,00
-6493,86	391,00
-6477,10	448,00
-6460,36	400,00
-6443,66	422,00
-6426,99	376,00
-6410,35	468,00
-6393,74	508,00
-6377,16	497,00
-6360,61	669,00
-6344,09	712,00
-6327,59	838,00
-6311,13	591,00
-6294,70	861,00
-6278,29	902,00
-6261,92	786,00
-6245,58	1048,00
-6229,26	973,00
-6212,97	901,00
-6196,72	685,00
-6180,49	530,00
-6164,29	359,00
-6148,12	352,00
-6131,98	157,00
-6115,86	275,00
-6099,78	356,00
-6083,72	194,00
-6067,69	340,00
-6051,69	332,00
-6035,72	251,00
-6019,78	317,00
-6003,87	516,00
-5987,98	715,00
-5972,12	652,00
-5956,29	716,00
-5940,49	463,00
-5924,71	490,00
-5908,96	376,00
-5893,24	206,00
-5877,55	227,00
-5861,89	338,00
-5846,25	347,00
-5830,64	431,00
-5815,05	321,00
-5799,50	271,00
-5783,97	275,00
-5768,47	443,00
-5752,99	443,00
-5737,55	768,00
-5722,12	798,00
-5706,73	730,00
-5691,36	542,00
-5676,02	435,00
-5660,71	215,00
-5645,42	286,00
-5630,16	397,00
-5614,92	301,00
-5599,71	469,00
-5584,53	459,00
-5569,37	385,00
-5554,24	335,00
-5539,14	453,00
-5524,06	280,00
-5509,01	455,00
-5493,98	511,00
-5478,98	478,00
-5464,00	456,00
-5449,05	262,00
-5434,13	272,00
-5419,23	362,00
-5404,36	270,00
-5389,51	430,00
-5374,69	589,00
-5359,89	733,00
-5345,12	719,00
-5330,37	724,00
-5315,65	491,00
-5300,95	506,00
-5286,28	442,00
-5271,63	350,00
-5257,01	464,00
-5242,41	330,00
-5227,84	474,00
-5213,29	308,00
-5198,76	27,00
-5184,26	237,00
-5169,79	294,00
-5155,33	427,00
-5140,91	342,00
-5126,51	470,00
-5112,13	510,00
-5097,77	415,00
-5083,44	368,00
-5069,13	204,00
-5054,85	276,00
-5040,59	302,00
-5026,36	400,00
-5012,15	445,00
-4997,96	458,00
-4983,80	311,00
-4969,66	181,00
-4955,54	350,00
-4941,44	352,00
-4927,37	604,00
-4913,33	633,00
-4899,30	650,00
-4885,30	741,00
-4871,33	446,00
-4857,37	244,00
-4843,44	156,00
-4829,53	272,00
-4815,65	473,00
-4801,79	306,00
-4787,95	373,00
-4774,13	300,00
-4760,34	222,00
-4746,56	69,00
-4732,82	256,00
-4719,09	270,00
-4705,38	476,00
-4691,70	659,00
-4678,04	578,00
-4664,41	305,00
-4650,79	383,00
-4637,20	197,00
-4623,63	237,00
-4610,08	258,00
-4596,56	363,00
-4583,05	344,00
-4569,57	435,00
-4556,11	94,00
-4542,67	84,00
-4529,25	154,00
-4515,86	424,00
-4502,49	509,00
-4489,13	579,00
-4475,80	497,00
-4462,49	282,00
-4449,21	246,00
-4435,94	176,00
-4422,70	210,00
-4409,47	347,00
-4396,27	359,00
-4383,09	225,00
-4369,93	108,00
-4356,79	175,00
-4343,67	179,00
-4330,58	211,00
-4317,50	240,00
-4304,45	308,00
-4291,41	186,00
-4278,40	161,00
-4265,41	-4,00
-4252,44	162,00
-4239,49	224,00
-4226,55	297,00
-4213,65	139,00
-4200,76	214,00
-4187,89	110,00
-4175,04	54,00
-4162,21	170,00
-4149,40	-102,00
-4136,61	-49,00
-4123,85	0,00
-4111,10	108,00
-4098,37	122,00
-4085,66	182,00
-4072,98	81,00
-4060,31	37,00
-4047,66	191,00
-4035,04	150,00
-4022,43	6,00
-4009,84	-27,00
-3997,27	30,00
-3984,72	51,00
-3972,19	104,00
-3959,69	119,00
-3947,20	-43,00
-3934,73	-24,00
-3922,27	-15,00
-3909,84	-152,00
-3897,43	-64,00
-3885,04	15,00
-3872,67	137,00
-3860,31	-46,00
-3847,98	71,00
-3835,66	43,00
-3823,36	17,00
-3811,09	109,00
-3798,83	126,00
-3786,59	-16,00
-3774,37	21,00
-3762,17	85,00
-3749,98	-82,00
-3737,82	63,00
-3725,67	-14,00
-3713,55	42,00
-3701,44	70,00
-3689,35	145,00
-3677,28	16,00
-3665,22	22,00
-3653,19	-46,00
-3641,17	-34,00
-3629,18	100,00
-3617,20	72,00
-3605,24	-135,00
-3593,30	-24,00
-3581,37	-26,00
-3569,47	-4,00
-3557,58	55,00
-3545,71	49,00
-3533,86	-52,00
-3522,02	37,00
-3510,21	57,00
-3498,41	5,00
-3486,63	-30,00
-3474,87	173,00
-3463,12	102,00
-3451,40	17,00
-3439,69	132,00
-3428,00	46,00
-3416,33	-43,00
-3404,67	-77,00
-3393,03	91,00
-3381,41	69,00
-3369,81	-25,00
-3358,22	123,00
-3346,66	-96,00
-3335,10	-55,00
-3323,57	157,00
-3312,06	68,00
-3300,56	80,00
-3289,08	5,00
-3277,61	107,00
-3266,16	6,00
-3254,73	4,00
-3243,32	-17,00
-3231,92	13,00
-3220,55	-83,00
-3209,18	-13,00
-3197,84	86,00
-3186,51	-30,00
-3175,20	-64,00
-3163,90	175,00
-3152,63	49,00
-3141,36	40,00
-3130,12	-69,00
-3118,89	6,00
-3107,68	-97,00
-3096,49	116,00
-3085,31	-14,00
-3074,15	138,00
-3063,00	42,00
-3051,87	-7,00
-3040,76	67,00
-3029,67	0,00
-3018,59	9,00
-3007,52	91,00
-2996,48	-2,00
-2985,44	71,00
-2974,43	221,00
-2963,43	61,00
-2952,45	21,00
-2941,48	79,00
-2930,53	70,00
-2919,60	-46,00
-2908,68	64,00
-2897,78	61,00
-2886,89	96,00
-2876,02	-60,00
-2865,17	-21,00
-2854,33	-18,00
-2843,50	38,00
-2832,70	29,00
-2821,90	40,00
-2811,13	-34,00
-2800,37	2,00
-2789,62	50,00
-2778,89	141,00
-2768,18	120,00
-2757,48	45,00
-2746,80	101,00
-2736,13	26,00
-2725,48	-22,00
-2714,84	18,00
-2704,22	-26,00
-2693,61	69,00
-2683,02	64,00
-2672,45	48,00
-2661,89	2,00
-2651,34	-75,00
-2640,81	27,00
-2630,30	67,00
-2619,80	-8,00
-2609,31	-51,00
-2598,84	-14,00
-2588,39	145,00
-2577,95	-59,00
-2567,52	110,00
-2557,11	123,00
-2546,71	-50,00
-2536,33	-35,00
-2525,97	3,00
-2515,62	101,00
-2505,28	-150,00
-2494,96	-13,00
-2484,65	-60,00
-2474,36	67,00
-2464,08	109,00
-2453,82	52,00
-2443,57	-151,00
-2433,33	110,00
-2423,11	-3,00
-2412,91	-15,00
-2402,72	-53,00
-2392,54	2,00
-2382,38	-24,00
-2372,23	33,00
-2362,09	78,00
-2351,97	39,00
-2341,87	8,00
-2331,78	107,00
-2321,70	-54,00
-2311,64	74,00
-2301,59	126,00
-2291,55	112,00
-2281,53	-28,00
-2271,53	83,00
-2261,53	58,00
-2251,55	-91,00
-2241,59	83,00
-2231,64	11,00
-2221,70	70,00
-2211,78	-39,00
-2201,87	57,00
-2191,97	-11,00
-2182,09	-72,00
-2172,22	125,00
-2162,37	113,00
-2152,53	-19,00
-2142,70	85,00
-2132,89	88,00
-2123,09	-23,00
-2113,30	74,00
-2103,53	-11,00
-2093,77	-37,00
-2084,02	24,00
-2074,29	57,00
-2064,57	95,00
-2054,86	72,00
-2045,17	33,00
-2035,49	131,00
-2025,82	9,00
-2016,17	76,00
-2006,53	-52,00
-1996,91	163,00
-1987,29	-93,00
-1977,69	90,00
-1968,11	116,00
-1958,53	114,00
-1948,97	-9,00
-1939,42	129,00
-1929,89	-9,00
-1920,37	118,00
-1910,86	-32,00
-1901,36	40,00
-1891,88	-59,00
-1882,41	12,00
-1872,95	108,00
-1863,51	-95,00
-1854,08	23,00
-1844,66	31,00
-1835,26	-23,00
-1825,86	13,00
-1816,48	15,00
-1807,11	1,00
-1797,76	6,00
-1788,42	64,00
-1779,09	-33,00
-1769,77	96,00
-1760,47	-91,00
-1751,17	84,00
-1741,89	-84,00
-1732,63	-52,00
-1723,37	-80,00
-1714,13	31,00
-1704,90	-83,00
-1695,68	120,00
-1686,48	-20,00
-1677,29	120,00
-1668,11	144,00
-1658,94	-27,00
-1649,78	-66,00
-1640,64	58,00
-1631,51	43,00
-1622,39	-5,00
-1613,28	15,00
-1604,19	85,00
-1595,10	52,00
-1586,03	135,00
-1576,97	33,00
-1567,93	-35,00
-1558,89	-25,00
-1549,87	53,00
-1540,86	110,00
-1531,86	20,00
-1522,87	-95,00
-1513,90	88,00
-1504,93	40,00
-1495,98	-191,00
-1487,04	-12,00
-1478,12	48,00
-1469,20	99,00
-1460,30	173,00
-1451,40	272,00
-1442,52	13,00
-1433,65	-65,00
-1424,80	134,00
-1415,95	108,00
-1407,12	44,00
-1398,30	52,00
-1389,48	82,00
-1380,69	-31,00
-1371,90	139,00
-1363,12	49,00
-1354,36	90,00
-1345,60	-1,00
-1336,86	85,00
-1328,13	93,00
-1319,41	27,00
-1310,70	47,00
-1302,01	56,00
-1293,32	164,00
-1284,65	110,00
-1275,99	43,00
-1267,33	-52,00
-1258,69	112,00
-1250,06	212,00
-1241,45	48,00
-1232,84	122,00
-1224,25	11,00
-1215,66	108,00
-1207,09	-31,00
-1198,53	-80,00
-1189,97	41,00
-1181,43	5,00
-1172,91	9,00
-1164,39	72,00
-1155,88	36,00
-1147,38	6,00
-1138,90	112,00
-1130,43	62,00
-1121,96	31,00
-1113,51	-53,00
-1105,07	-12,00
-1096,64	68,00
-1088,22	63,00
-1079,81	71,00
-1071,41	129,00
-1063,02	-69,00
-1054,65	38,00
-1046,28	36,00
-1037,92	-23,00
-1029,58	77,00
-1021,24	-11,00
-1012,92	3,00
-1004,61	3,00
-996,30	-42,00
-988,01	-25,00
-979,73	-16,00
-971,46	5,00
-963,20	0,00
-954,95	-13,00
-946,71	-104,00
-938,48	10,00
-930,26	-179,00
-922,06	-77,00
-913,86	119,00
-905,67	101,00
-897,49	40,00
-889,33	100,00
-881,17	151,00
-873,02	-20,00
-864,89	29,00
-856,76	-64,00
-848,65	81,00
-840,54	18,00
-832,45	120,00
-824,36	14,00
-816,29	94,00
-808,22	38,00
-800,17	64,00
-792,12	-36,00
-784,09	66,00
-776,06	61,00
-768,05	-43,00
-760,04	70,00
-752,05	36,00
-744,07	52,00
-736,09	59,00
-728,13	16,00
-720,17	76,00
-712,23	-42,00
-704,29	-68,00
-696,37	5,00
-688,45	76,00
-680,55	-183,00
-672,65	166,00
-664,77	43,00
-656,89	43,00
-649,03	92,00
-641,17	63,00
-633,32	44,00
-625,49	-5,00
-617,66	69,00
-609,84	-28,00
-602,03	-47,00
-594,23	75,00
-586,45	11,00
-578,67	87,00
-570,90	-4,00
-563,14	44,00
-555,39	159,00
-547,65	-39,00
-539,91	15,00
-532,19	135,00
-524,48	252,00
-516,78	18,00
-509,08	88,00
-501,40	-62,00
-493,72	76,00
-486,06	-66,00
-478,40	28,00
-470,76	21,00
-463,12	-36,00
-455,49	150,00
-447,87	25,00
-440,26	62,00
-432,66	19,00
-425,07	37,00
-417,49	94,00
-409,92	123,00
-402,35	-48,00
-394,80	12,00
-387,25	48,00
-379,72	103,00
-372,19	136,00
-364,67	211,00
-357,17	-9,00
-349,67	49,00
-342,18	104,00
-334,69	49,00
-327,22	-19,00
-319,76	-68,00
-312,30	62,00
-304,86	61,00
-297,42	106,00
-290,00	147,00
-282,58	-50,00
-275,17	14,00
-267,77	81,00
-260,37	81,00
-252,99	91,00
-245,62	-19,00
-238,25	40,00
-230,90	49,00
-223,55	216,00
-216,21	124,00
-208,88	149,00
-201,56	139,00
-194,25	189,00
-186,94	181,00
-179,65	180,00
-172,36	309,00
-165,08	107,00
-157,81	260,00
-150,55	202,00
-143,30	122,00
-136,06	388,00
-128,82	312,00
-121,60	283,00
-114,38	206,00
-107,17	164,00
-99,97	252,00
-92,78	452,00
-85,60	439,00
-78,42	590,00
-71,25	675,00
-64,10	816,00
-56,95	990,00
-49,81	1139,00
-42,67	1516,00
-35,55	1782,00
-28,43	2428,00
-21,33	4342,00
-14,23	14323,00
-7,14	47266,00
-0,05	38051,00
7,02	42597,00
14,09	38203,00
21,14	9958,00
28,19	4336,00
35,23	2805,00
42,27	2064,00
49,29	1861,00
56,31	1511,00
63,32	1237,00
70,32	1126,00
77,31	892,00
84,29	816,00
91,27	604,00
98,23	576,00
105,19	690,00
112,14	655,00
119,09	898,00
126,02	1362,00
132,95	1667,00
139,87	1636,00
146,78	1669,00
153,68	1547,00
160,58	1640,00
167,46	1600,00
174,34	1650,00
181,21	1464,00
188,08	1518,00
194,93	1495,00
201,78	1527,00
208,62	1583,00
215,45	1433,00
222,27	1560,00
229,09	1424,00
235,90	1426,00
242,70	1416,00
249,49	1367,00
256,27	1416,00
263,05	1340,00
269,82	1204,00
276,58	1259,00
283,33	1298,00
290,08	1395,00
296,82	1287,00
303,55	1098,00
310,27	1372,00
316,98	1087,00
323,69	1215,00
330,39	1275,00
337,08	1062,00
343,76	1029,00
350,44	1181,00
357,11	1110,00
363,77	1272,00
370,42	1147,00
377,07	1212,00
383,71	1200,00
390,34	1107,00
396,96	1139,00
403,58	1061,00
410,19	1171,00
416,79	1106,00
423,38	1131,00
429,97	1037,00
436,55	1241,00
443,12	1095,00
449,68	1095,00
456,24	1079,00
462,79	1081,00
469,33	1000,00
475,86	1039,00
482,39	945,00
488,91	973,00
495,42	973,00
501,93	1063,00
508,42	1080,00
514,91	1005,00
521,40	960,00
527,87	1050,00
534,34	881,00
540,80	950,00
547,25	877,00
553,70	955,00
560,14	927,00
566,57	931,00
573,00	973,00
579,41	789,00
585,83	941,00
592,23	1008,00
598,62	830,00
605,01	886,00
611,40	882,00
617,77	1013,00
624,14	885,00
630,50	893,00
636,85	887,00
643,20	799,00
649,54	874,00
655,87	936,00
662,20	842,00
668,52	830,00
674,83	840,00
681,13	968,00
687,43	844,00
693,72	745,00
700,00	799,00
706,28	860,00
712,55	891,00
718,81	897,00
725,07	904,00
731,32	828,00
737,56	991,00
743,79	852,00
750,02	1028,00
756,24	846,00
762,46	827,00
768,67	958,00
774,87	880,00
781,06	830,00
787,25	929,00
793,43	870,00
799,60	842,00
805,77	854,00
811,93	780,00
818,08	970,00
824,23	965,00
830,37	908,00
836,50	840,00
842,63	802,00
848,75	954,00
854,87	926,00
860,97	948,00
867,07	994,00
873,17	916,00
879,25	851,00
885,33	1027,00
891,41	841,00
897,47	759,00
903,53	837,00
909,59	815,00
915,63	996,00
921,67	903,00
927,71	688,00
933,74	768,00
939,76	806,00
945,77	822,00
951,78	877,00
957,78	875,00
963,78	716,00
969,77	719,00
975,75	717,00
981,72	790,00
987,69	1184,00
993,66	801,00
999,61	885,00
1005,56	911,00
1011,51	669,00
1017,44	784,00
1023,37	820,00
1029,30	853,00
1035,22	775,00
1041,13	868,00
1047,03	919,00
1052,93	1217,00
1058,83	1572,00
1064,71	1776,00
1070,59	1457,00
1076,47	1143,00
1082,33	1127,00
1088,20	1025,00
1094,05	964,00
1099,90	825,00
1105,74	936,00
1111,58	896,00
1117,41	1118,00
1123,23	1555,00
1129,05	1876,00
1134,86	1645,00
1140,67	1187,00
1146,47	1024,00
1152,26	884,00
1158,05	840,00
1163,83	886,00
1169,60	881,00
1175,37	977,00
1181,13	689,00
1186,89	871,00
1192,64	907,00
1198,38	789,00
1204,12	806,00
1209,85	779,00
1215,58	876,00
1221,30	819,00
1227,02	780,00
1232,72	755,00
1238,43	877,00
1244,12	854,00
1249,81	782,00
1255,50	900,00
1261,17	838,00
1266,85	983,00
1272,51	924,00
1278,17	1092,00
1283,83	1237,00
1289,47	1722,00
1295,12	2335,00
1300,75	2090,00
1306,38	1408,00
1312,01	1251,00
1317,63	1045,00
1323,24	1193,00
1328,85	1010,00
1334,45	945,00
1340,04	906,00
1345,63	968,00
1351,22	1007,00
1356,80	961,00
1362,37	1039,00
1367,93	1221,00
1373,49	1015,00
1379,05	1024,00
1384,60	989,00
1390,14	975,00
1395,68	1007,00
1401,21	1088,00
1406,74	1038,00
1412,26	1361,00
1417,77	1445,00
1423,28	1525,00
1428,78	1637,00
1434,28	1857,00
1439,77	2325,00
1445,26	2199,00
1450,74	2131,00
1456,22	1837,00
1461,68	1816,00
1467,15	1678,00
1472,61	1549,00
1478,06	1268,00
1483,51	1121,00
1488,95	1052,00
1494,38	958,00
1499,81	821,00
1505,24	898,00
1510,65	863,00
1516,07	819,00
1521,48	805,00
1526,88	716,00
1532,27	911,00
1537,67	816,00
1543,05	772,00
1548,43	756,00
1553,81	775,00
1559,18	849,00
1564,54	794,00
1569,90	744,00
1575,25	671,00
1580,60	809,00
1585,94	763,00
1591,28	717,00
1596,61	816,00
1601,93	752,00
1607,25	747,00
1612,57	743,00
1617,88	784,00
1623,18	817,00
1628,48	740,00
1633,77	774,00
1639,06	794,00
1644,34	835,00
1649,62	602,00
1654,89	787,00
1660,16	693,00
1665,42	769,00
1670,67	722,00
1675,92	684,00
1681,17	765,00
1686,41	653,00
1691,64	747,00
1696,87	756,00
1702,10	558,00
1707,32	522,00
1712,53	669,00
1717,74	740,00
1722,94	535,00
1728,14	679,00
1733,33	672,00
1738,52	689,00
1743,70	604,00
1748,88	660,00
1754,05	724,00
1759,22	540,00
1764,38	-1137,00
1769,53	628,00
1774,69	616,00
1779,83	636,00
1784,97	536,00
1790,11	511,00
1795,24	527,00
1800,36	736,00
1805,48	673,00
1810,60	666,00
1815,71	580,00
1820,82	667,00
1825,92	672,00
1831,01	587,00
1836,10	696,00
1841,19	677,00
1846,26	580,00
1851,34	584,00
1856,41	529,00
1861,47	582,00
1866,53	525,00
1871,59	563,00
1876,64	695,00
1881,68	641,00
1886,72	630,00
1891,76	408,00
1896,79	661,00
1901,81	544,00
1906,83	486,00
1911,85	613,00
1916,86	536,00
1921,86	584,00
1926,86	566,00
1931,86	654,00
1936,85	571,00
1941,83	588,00
1946,81	591,00
1951,79	565,00
1956,76	500,00
1961,72	603,00
1966,68	544,00
1971,64	603,00
1976,59	536,00
1981,54	477,00
1986,48	488,00
1991,42	439,00
1996,35	652,00
2001,27	376,00
2006,20	616,00
2011,11	666,00
2016,03	439,00
2020,93	585,00
2025,84	472,00
2030,73	405,00
2035,63	550,00
2040,52	529,00
2045,40	431,00
2050,28	431,00
2055,15	504,00
2060,02	427,00
2064,89	523,00
2069,75	535,00
2074,60	513,00
2079,46	403,00
2084,30	545,00
2089,14	537,00
2093,98	440,00
2098,81	593,00
2103,64	518,00
2108,46	488,00
2113,28	545,00
2118,09	327,00
2122,90	547,00
2127,70	558,00
2132,50	510,00
2137,30	528,00
2142,09	483,00
2146,87	514,00
2151,66	489,00
2156,43	510,00
2161,20	464,00
2165,97	537,00
2170,73	454,00
2175,49	403,00
2180,24	434,00
2184,99	392,00
2189,74	523,00
2194,48	506,00
2199,21	447,00
2203,94	528,00
2208,67	448,00
2213,39	523,00
2218,11	382,00
2222,82	543,00
2227,53	384,00
2232,23	368,00
2236,93	439,00
2241,63	465,00
2246,32	400,00
2251,00	451,00
2255,68	398,00
2260,36	484,00
2265,03	530,00
2269,70	565,00
2274,36	428,00
2279,02	469,00
2283,68	425,00
2288,33	488,00
2292,97	404,00
2297,61	447,00
2302,25	444,00
2306,88	447,00
2311,51	508,00
2316,14	479,00
2320,75	439,00
2325,37	395,00
2329,98	375,00
2334,59	406,00
2339,19	384,00
2343,79	308,00
2348,38	457,00
2352,97	444,00
2357,55	470,00
2362,13	504,00
2366,71	428,00
2371,28	306,00
2375,85	410,00
2380,41	492,00
2384,97	373,00
2389,52	296,00
2394,07	551,00
2398,62	282,00
2403,16	419,00
2407,70	390,00
2412,23	357,00
2416,76	395,00
2421,29	339,00
2425,81	545,00
2430,32	385,00
2434,84	331,00
2439,34	440,00
2443,85	273,00
2448,35	417,00
2452,84	262,00
2457,33	398,00
2461,82	341,00
2466,30	336,00
2470,78	475,00
2475,25	372,00
2479,72	443,00
2484,19	392,00
2488,65	481,00
2493,11	292,00
2497,56	340,00
2502,01	345,00
2506,46	376,00
2510,90	268,00
2515,34	286,00
2519,77	352,00
2524,20	446,00
2528,62	425,00
2533,04	412,00
2537,46	331,00
2541,87	372,00
2546,28	342,00
2550,68	296,00
2555,08	432,00
2559,48	396,00
2563,87	416,00
2568,26	251,00
2572,64	374,00
2577,02	354,00
2581,40	404,00
2585,77	348,00
2590,14	431,00
2594,50	376,00
2598,86	303,00
2603,22	363,00
2607,57	352,00
2611,92	404,00
2616,26	422,00
2620,60	443,00
2624,94	353,00
2629,27	330,00
2633,60	405,00
2637,92	269,00
2642,24	461,00
2646,56	395,00
2650,87	368,00
2655,18	337,00
2659,48	326,00
2663,78	420,00
2668,08	493,00
2672,37	480,00
2676,66	510,00
2680,95	482,00
2685,23	307,00
2689,50	432,00
2693,78	374,00
2698,05	411,00
2702,31	421,00
2706,57	332,00
2710,83	467,00
2715,08	380,00
2719,33	484,00
2723,58	528,00
2727,82	457,00
2732,06	483,00
2736,29	487,00
2740,53	496,00
2744,75	399,00
2748,97	442,00
2753,19	480,00
2757,41	316,00
2761,62	295,00
2765,83	401,00
2770,03	392,00
2774,23	524,00
2778,43	498,00
2782,62	567,00
2786,81	363,00
2791,00	538,00
2795,18	560,00
2799,35	612,00
2803,53	587,00
2807,70	664,00
2811,86	622,00
2816,03	584,00
2820,19	626,00
2824,34	661,00
2828,49	776,00
2832,64	948,00
2836,78	1104,00
2840,92	1530,00
2845,06	1662,00
2849,19	1903,00
2853,32	2090,00
2857,45	1953,00
2861,57	1990,00
2865,69	1704,00
2869,80	1811,00
2873,91	1869,00
2878,02	1920,00
2882,12	2060,00
2886,22	2272,00
2890,32	1968,00
2894,41	1767,00
2898,50	1705,00
2902,58	1499,00
2906,67	1391,00
2910,74	1279,00
2914,82	1183,00
2918,89	1090,00
2922,96	1104,00
2927,02	1101,00
2931,08	931,00
2935,13	918,00
2939,19	819,00
2943,24	739,00
2947,28	665,00
2951,32	759,00
2955,36	531,00
2959,40	476,00
2963,43	328,00
2967,46	520,00
2971,48	390,00
2975,50	421,00
2979,52	342,00
2983,53	247,00
2987,54	401,00
2991,55	239,00
2995,55	200,00
2999,55	472,00
3003,54	296,00
3007,54	189,00
3011,53	195,00
3015,51	343,00
3019,49	64,00
3023,47	253,00
3027,45	330,00
3031,42	250,00
3035,39	195,00
3039,35	294,00
3043,31	261,00
3047,27	221,00
3051,22	270,00
3055,17	194,00
3059,12	204,00
3063,06	207,00
3067,00	154,00
3070,94	241,00
3074,87	212,00
3078,80	316,00
3082,73	246,00
3086,65	17,00
3090,57	224,00
3094,49	159,00
3098,40	147,00
3102,31	184,00
3106,22	258,00
3110,12	290,00
3114,02	120,00
3117,92	135,00
3121,81	179,00
3125,70	55,00
3129,58	104,00
3133,47	27,00
3137,34	55,00
3141,22	191,00
3145,09	207,00
3148,96	134,00
3152,83	115,00
3156,69	63,00
3160,55	123,00
3164,40	248,00
3168,26	102,00
3172,10	224,00
3175,95	89,00
3179,79	1,00
3183,63	56,00
3187,47	145,00
3191,30	191,00
3195,13	213,00
3198,95	43,00
3202,78	196,00
3206,60	184,00
3210,41	168,00
3214,23	139,00
3218,03	264,00
3221,84	-2,00
3225,64	117,00
3229,44	92,00
3233,24	57,00
3237,03	224,00
3240,82	77,00
3244,61	42,00
3248,39	100,00
3252,17	217,00
3255,95	99,00
3259,72	119,00
3263,49	23,00
3267,26	158,00
3271,03	106,00
3274,79	18,00
3278,54	113,00
3282,30	154,00
3286,05	-10,00
3289,80	3,00
3293,54	61,00
3297,29	172,00
3301,02	109,00
3304,76	82,00
3308,49	156,00
3312,22	-9,00
3315,95	-27,00
3319,67	214,00
3323,39	128,00
3327,10	69,00
3330,82	110,00
3334,53	201,00
3338,24	90,00
3341,94	212,00
3345,64	91,00
3349,34	16,00
3353,03	55,00
3356,72	208,00
3360,41	83,00
3364,10	216,00
3367,78	93,00
3371,46	61,00
3375,13	140,00
3378,81	64,00
3382,48	76,00
3386,14	-28,00
3389,81	33,00
3393,47	148,00
3397,12	54,00
3400,78	34,00
3404,43	187,00
3408,08	83,00
3411,72	66,00
3415,36	130,00
3419,00	64,00
3422,64	95,00
3426,27	70,00
3429,90	96,00
3433,53	-43,00
3437,15	75,00
3440,77	93,00
3444,39	121,00
3448,00	-68,00
3451,62	155,00
3455,22	208,00
3458,83	128,00
3462,43	67,00
3466,03	-31,00
3469,63	162,00
3473,22	75,00
3476,81	75,00
3480,40	72,00
3483,99	-36,00
3487,57	48,00
3491,15	40,00
3494,72	19,00
3498,29	30,00
3501,86	8,00
3505,43	-8,00
3508,99	107,00
3512,56	46,00
3516,11	104,00
3519,67	32,00
3523,22	54,00
3526,77	7,00
3530,32	64,00
3533,86	203,00
3537,40	95,00
3540,94	107,00
3544,47	171,00
3548,00	15,00
3551,53	-60,00
3555,06	7,00
3558,58	124,00
3562,10	111,00
3565,62	196,00
3569,13	-28,00
3572,64	-21,00
3576,15	138,00
3579,66	68,00
3583,16	67,00
3586,66	-50,00
3590,16	25,00
3593,65	105,00
3597,14	-52,00
3600,63	27,00
3604,11	174,00
3607,60	67,00
3611,08	95,00
3614,55	-35,00
3618,03	4,00
3621,50	64,00
3624,97	96,00
3628,43	73,00
3631,90	116,00
3635,36	55,00
3638,81	87,00
3642,27	-47,00
3645,72	93,00
3649,17	-19,00
3652,61	-127,00
3656,06	141,00
3659,50	7,00
3662,93	71,00
3666,37	-25,00
3669,80	-30,00
3673,23	156,00
3676,65	102,00
3680,08	13,00
3683,50	-27,00
3686,92	73,00
3690,33	30,00
3693,74	-28,00
3697,15	192,00
3700,56	27,00
3703,96	-2,00
3707,36	-67,00
3710,76	59,00
3714,16	127,00
3717,55	-78,00
3720,94	70,00
3724,33	-22,00
3727,71	-6,00
3731,10	91,00
3734,48	32,00
3737,85	-8,00
3741,23	-26,00
3744,60	32,00
3747,97	-10,00
3751,33	24,00
3754,69	-32,00
3758,05	98,00
3761,41	4,00
3764,77	63,00
3768,12	20,00
3771,47	67,00
3774,82	-45,00
3778,16	-1,00
3781,50	3,00
3784,84	3,00
3788,18	4,00
>>>>>End Processed Spectral Data<<<<<
