SpectraSuite Data File
++++++++++++++++++++++++++++++++++++
Date: Tue Mar 03 12:33:31 ICT 2026
User: user
Dark Spectrum Present: Yes
Reference Spectrum Present: No
Number of Sampled Component Spectra: 1
Spectrometers: MAYP113682
Integration Time (usec): 3000000 (MAYP113682)
Spectra Averaged: 1 (MAYP113682)
Boxcar Smoothing: 0 (MAYP113682)
Correct for Electrical Dark: No (MAYP113682)
Strobe/Lamp Enabled: No (MAYP113682)
Correct for Detector Non-linearity: No (MAYP113682)
Correct for Stray Light: No (MAYP113682)
Number of Pixels in Processed Spectrum: 2068
>>>>>Begin Processed Spectral Data<<<<<
-37534,58	8,00
-37414,56	0,00
-37295,11	-3,00
-37176,24	-3,00
-37057,95	-5,00
-36940,22	-48,00
-36823,05	53,00
-36706,45	-4,00
-36590,40	68,00
-36474,90	26,00
-36359,95	126,00
-36245,55	165,00
-36131,68	29,00
-36018,35	88,00
-35905,55	73,00
-35793,29	77,00
-35681,54	118,00
-35570,32	-18,00
-35459,62	-49,00
-35349,43	-18,00
-35239,75	183,00
-35130,58	46,00
-35021,91	87,00
-34913,74	106,00
-34806,07	135,00
-34698,89	107,00
-34592,20	37,00
-34486,00	97,00
-34380,28	-13,00
-34275,04	-62,00
-34170,27	35,00
-34065,98	-8,00
-33962,16	15,00
-33858,81	38,00
-33755,92	38,00
-33653,49	64,00
-33551,52	101,00
-33450,01	73,00
-33348,94	102,00
-33248,33	-44,00
-33148,16	-15,00
-33048,43	65,00
-32949,14	144,00
-32850,29	106,00
-32751,87	48,00
-32653,89	70,00
-32556,33	-17,00
-32459,20	104,00
-32362,49	127,00
-32266,19	63,00
-32170,32	101,00
-32074,86	-30,00
-31979,82	104,00
-31885,18	-76,00
-31790,95	13,00
-31697,12	56,00
-31603,69	-54,00
-31510,67	42,00
-31418,04	43,00
-31325,80	63,00
-31233,95	103,00
-31142,49	24,00
-31051,42	117,00
-30960,73	68,00
-30870,43	84,00
-30780,50	98,00
-30690,95	27,00
-30601,77	91,00
-30512,97	13,00
-30424,53	164,00
-30336,46	127,00
-30248,76	104,00
-30161,42	6,00
-30074,44	151,00
-29987,81	97,00
-29901,55	110,00
-29815,63	-102,00
-29730,07	-21,00
-29644,86	76,00
-29560,00	88,00
-29475,48	43,00
-29391,30	36,00
-29307,47	11,00
-29223,97	136,00
-29140,81	-38,00
-29057,99	-45,00
-28975,50	29,00
-28893,34	-5,00
-28811,51	-25,00
-28730,00	60,00
-28648,82	5,00
-28567,97	30,00
-28487,43	123,00
-28407,21	38,00
-28327,32	-50,00
-28247,73	12,00
-28168,46	61,00
-28089,50	22,00
-28010,85	98,00
-27932,51	25,00
-27854,48	65,00
-27776,75	104,00
-27699,32	-13,00
-27622,19	166,00
-27545,37	134,00
-27468,84	36,00
-27392,60	134,00
-27316,66	69,00
-27241,01	-11,00
-27165,66	59,00
-27090,59	37,00
-27015,81	67,00
-26941,31	80,00
-26867,10	165,00
-26793,17	-13,00
-26719,52	-22,00
-26646,15	-11,00
-26573,06	238,00
-26500,24	23,00
-26427,70	127,00
-26355,43	135,00
-26283,43	-6,00
-26211,71	-5,00
-26140,25	92,00
-26069,06	132,00
-25998,13	-70,00
-25927,46	-47,00
-25857,06	72,00
-25786,92	72,00
-25717,04	-106,00
-25647,42	76,00
-25578,05	-10,00
-25508,94	24,00
-25440,09	111,00
-25371,48	76,00
-25303,13	-7,00
-25235,02	75,00
-25167,17	-26,00
-25099,56	14,00
-25032,19	91,00
-24965,07	-2,00
-24898,20	57,00
-24831,56	59,00
-24765,17	75,00
-24699,01	94,00
-24633,10	139,00
-24567,41	-73,00
-24501,97	87,00
-24436,75	-81,00
-24371,77	64,00
-24307,03	119,00
-24242,51	-2,00
-24178,22	82,00
-24114,16	-14,00
-24050,32	-14,00
-23986,71	-40,00
-23923,32	86,00
-23860,16	-91,00
-23797,22	135,00
-23734,50	-54,00
-23672,00	119,00
-23609,71	221,00
-23547,65	68,00
-23485,80	52,00
-23424,16	18,00
-23362,74	152,00
-23301,53	20,00
-23240,54	69,00
-23179,75	125,00
-23119,17	133,00
-23058,80	180,00
-22998,64	43,00
-22938,68	21,00
-22878,93	36,00
-22819,39	42,00
-22760,04	-93,00
-22700,90	96,00
-22641,96	-42,00
-22583,22	-1,00
-22524,68	41,00
-22466,33	41,00
-22408,19	27,00
-22350,23	106,00
-22292,48	84,00
-22234,92	18,00
-22177,55	28,00
-22120,37	-51,00
-22063,38	59,00
-22006,58	40,00
-21949,98	100,00
-21893,56	141,00
-21837,33	70,00
-21781,28	118,00
-21725,42	81,00
-21669,74	35,00
-21614,25	140,00
-21558,94	6,00
-21503,81	141,00
-21448,86	117,00
-21394,10	71,00
-21339,51	157,00
-21285,10	24,00
-21230,86	9,00
-21176,81	169,00
-21122,93	138,00
-21069,22	116,00
-21015,69	11,00
-20962,33	153,00
-20909,14	3,00
-20856,13	180,00
-20803,28	-50,00
-20750,61	55,00
-20698,10	155,00
-20645,76	30,00
-20593,59	27,00
-20541,59	59,00
-20489,75	72,00
-20438,07	97,00
-20386,56	161,00
-20335,22	40,00
-20284,03	24,00
-20233,01	74,00
-20182,15	58,00
-20131,45	32,00
-20080,91	-95,00
-20030,52	-3,00
-19980,30	-28,00
-19930,23	-67,00
-19880,32	-1,00
-19830,56	129,00
-19780,96	111,00
-19731,52	36,00
-19682,23	88,00
-19633,09	-40,00
-19584,10	97,00
-19535,26	122,00
-19486,58	55,00
-19438,04	-98,00
-19389,66	-64,00
-19341,42	47,00
-19293,33	32,00
-19245,39	8,00
-19197,60	76,00
-19149,95	73,00
-19102,45	-38,00
-19055,09	22,00
-19007,87	143,00
-18960,80	99,00
-18913,87	35,00
-18867,09	-27,00
-18820,44	127,00
-18773,94	35,00
-18727,57	136,00
-18681,35	99,00
-18635,26	40,00
-18589,31	179,00
-18543,50	-5,00
-18497,83	-72,00
-18452,29	-37,00
-18406,89	115,00
-18361,63	59,00
-18316,50	-3,00
-18271,50	60,00
-18226,63	131,00
-18181,90	41,00
-18137,30	160,00
-18092,84	56,00
-18048,50	30,00
-18004,29	19,00
-17960,22	219,00
-17916,27	90,00
-17872,45	24,00
-17828,76	0,00
-17785,20	-32,00
-17741,77	56,00
-17698,46	80,00
-17655,28	56,00
-17612,22	-34,00
-17569,29	65,00
-17526,48	-20,00
-17483,79	15,00
-17441,23	-74,00
-17398,79	125,00
-17356,48	151,00
-17314,28	110,00
-17272,21	54,00
-17230,26	121,00
-17188,42	177,00
-17146,71	206,00
-17105,12	-24,00
-17063,64	27,00
-17022,28	46,00
-16981,04	-47,00
-16939,92	131,00
-16898,91	-41,00
-16858,02	46,00
-16817,25	27,00
-16776,59	106,00
-16736,04	112,00
-16695,61	176,00
-16655,29	109,00
-16615,09	-63,00
-16574,99	61,00
-16535,01	19,00
-16495,15	-14,00
-16455,39	24,00
-16415,74	64,00
-16376,21	-30,00
-16336,78	-16,00
-16297,46	68,00
-16258,26	210,00
-16219,16	79,00
-16180,17	103,00
-16141,28	88,00
-16102,51	-77,00
-16063,84	4,00
-16025,27	83,00
-15986,82	15,00
-15948,46	40,00
-15910,22	98,00
-15872,07	97,00
-15834,04	112,00
-15796,10	21,00
-15758,27	166,00
-15720,54	39,00
-15682,91	-18,00
-15645,39	-36,00
-15607,97	121,00
-15570,64	-2,00
-15533,42	53,00
-15496,30	35,00
-15459,28	95,00
-15422,36	134,00
-15385,54	47,00
-15348,82	48,00
-15312,19	1,00
-15275,66	-95,00
-15239,23	-15,00
-15202,90	52,00
-15166,67	86,00
-15130,53	-30,00
-15094,48	115,00
-15058,54	154,00
-15022,68	0,00
-14986,93	155,00
-14951,26	7,00
-14915,69	-2,00
-14880,22	5,00
-14844,84	-30,00
-14809,55	-32,00
-14774,35	21,00
-14739,25	235,00
-14704,24	-1,00
-14669,32	37,00
-14634,49	211,00
-14599,75	65,00
-14565,10	135,00
-14530,55	-113,00
-14496,08	74,00
-14461,70	107,00
-14427,41	-25,00
-14393,21	-4,00
-14359,10	35,00
-14325,07	198,00
-14291,14	209,00
-14257,29	-10,00
-14223,52	-13,00
-14189,85	111,00
-14156,26	-16,00
-14122,76	-35,00
-14089,34	-40,00
-14056,01	157,00
-14022,76	46,00
-13989,60	-13,00
-13956,52	56,00
-13923,53	51,00
-13890,62	-26,00
-13857,79	116,00
-13825,05	20,00
-13792,39	80,00
-13759,81	152,00
-13727,31	-15,00
-13694,90	31,00
-13662,57	124,00
-13630,31	34,00
-13598,14	90,00
-13566,05	74,00
-13534,05	-155,00
-13502,12	156,00
-13470,27	97,00
-13438,50	-36,00
-13406,80	149,00
-13375,19	-7,00
-13343,66	157,00
-13312,20	-34,00
-13280,83	28,00
-13249,53	82,00
-13218,30	-15,00
-13187,16	21,00
-13156,09	-80,00
-13125,10	187,00
-13094,18	63,00
-13063,34	-17,00
-13032,58	130,00
-13001,89	2,00
-12971,28	73,00
-12940,74	143,00
-12910,27	104,00
-12879,88	8,00
-12849,57	62,00
-12819,33	66,00
-12789,16	-6,00
-12759,06	92,00
-12729,04	70,00
-12699,09	-1607,00
-12669,21	212,00
-12639,41	-52,00
-12609,68	57,00
-12580,02	-52,00
-12550,43	14,00
-12520,91	96,00
-12491,46	-29,00
-12462,08	113,00
-12432,77	56,00
-12403,54	27,00
-12374,37	59,00
-12345,27	-23,00
-12316,24	16,00
-12287,29	20,00
-12258,40	11,00
-12229,57	222,00
-12200,82	11,00
-12172,14	-118,00
-12143,52	89,00
-12114,97	14,00
-12086,49	-26,00
-12058,07	70,00
-12029,73	-126,00
-12001,44	19,00
-11973,23	-25,00
-11945,08	71,00
-11917,00	92,00
-11888,98	128,00
-11861,03	120,00
-11833,15	48,00
-11805,32	119,00
-11777,57	20,00
-11749,88	178,00
-11722,25	11,00
-11694,69	18,00
-11667,19	-47,00
-11639,75	-18,00
-11612,38	30,00
-11585,07	92,00
-11557,83	51,00
-11530,65	-53,00
-11503,53	147,00
-11476,47	61,00
-11449,48	76,00
-11422,54	79,00
-11395,67	86,00
-11368,86	88,00
-11342,11	38,00
-11315,43	19,00
-11288,80	57,00
-11262,23	168,00
-11235,73	113,00
-11209,28	-10,00
-11182,90	27,00
-11156,57	68,00
-11130,31	80,00
-11104,10	172,00
-11077,96	111,00
-11051,87	192,00
-11025,84	76,00
-10999,87	105,00
-10973,96	78,00
-10948,11	156,00
-10922,31	-31,00
-10896,58	102,00
-10870,90	122,00
-10845,28	102,00
-10819,71	47,00
-10794,20	47,00
-10768,75	126,00
-10743,36	128,00
-10718,02	129,00
-10692,74	128,00
-10667,52	103,00
-10642,35	50,00
-10617,24	156,00
-10592,18	262,00
-10567,18	189,00
-10542,23	17,00
-10517,34	239,00
-10492,51	216,00
-10467,72	199,00
-10443,00	300,00
-10418,32	238,00
-10393,70	120,00
-10369,14	167,00
-10344,63	405,00
-10320,17	403,00
-10295,77	334,00
-10271,42	313,00
-10247,12	260,00
-10222,88	477,00
-10198,68	394,00
-10174,54	392,00
-10150,46	587,00
-10126,42	409,00
-10102,44	405,00
-10078,51	610,00
-10054,63	667,00
-10030,80	559,00
-10007,03	537,00
-9983,30	532,00
-9959,63	715,00
-9936,01	696,00
-9912,44	751,00
-9888,92	704,00
-9865,44	834,00
-9842,02	754,00
-9818,65	801,00
-9795,33	779,00
-9772,06	846,00
-9748,84	948,00
-9725,67	1115,00
-9702,55	1239,00
-9679,47	1352,00
-9656,45	1514,00
-9633,47	1596,00
-9610,55	1618,00
-9587,67	1682,00
-9564,84	1769,00
-9542,06	2027,00
-9519,32	2272,00
-9496,64	2482,00
-9474,00	2568,00
-9451,41	2644,00
-9428,87	2719,00
-9406,37	2602,00
-9383,92	2304,00
-9361,52	2209,00
-9339,17	2271,00
-9316,86	2685,00
-9294,60	2951,00
-9272,38	3312,00
-9250,21	3315,00
-9228,09	3629,00
-9206,01	3465,00
-9183,98	3004,00
-9162,00	2583,00
-9140,06	2521,00
-9118,16	2498,00
-9096,31	2614,00
-9074,51	2643,00
-9052,75	2792,00
-9031,04	2507,00
-9009,37	2352,00
-8987,74	2022,00
-8966,16	1801,00
-8944,63	1598,00
-8923,14	1378,00
-8901,69	1693,00
-8880,29	1862,00
-8858,93	2128,00
-8837,61	2313,00
-8816,34	2442,00
-8795,11	2535,00
-8773,92	2402,00
-8752,78	1995,00
-8731,68	1856,00
-8710,62	1907,00
-8689,61	2030,00
-8668,63	2207,00
-8647,70	2370,00
-8626,82	2288,00
-8605,97	2228,00
-8585,17	2123,00
-8564,41	1767,00
-8543,69	1778,00
-8523,01	1593,00
-8502,37	1683,00
-8481,78	1718,00
-8461,23	1940,00
-8440,71	2084,00
-8420,24	2191,00
-8399,81	2331,00
-8379,42	2184,00
-8359,08	1962,00
-8338,77	1689,00
-8318,50	1675,00
-8298,27	1675,00
-8278,09	1778,00
-8257,94	1765,00
-8237,83	2043,00
-8217,76	2134,00
-8197,74	2091,00
-8177,75	1985,00
-8157,80	1698,00
-8137,89	1635,00
-8118,02	1720,00
-8098,19	1464,00
-8078,40	1719,00
-8058,65	1700,00
-8038,93	1888,00
-8019,26	1677,00
-7999,62	1791,00
-7980,02	1668,00
-7960,46	1654,00
-7940,94	1629,00
-7921,46	1514,00
-7902,01	1390,00
-7882,60	1415,00
-7863,23	1447,00
-7843,90	1622,00
-7824,61	1691,00
-7805,35	1779,00
-7786,13	1841,00
-7766,95	1799,00
-7747,80	1519,00
-7728,69	1628,00
-7709,62	1586,00
-7690,59	1639,00
-7671,59	1684,00
-7652,63	1975,00
-7633,70	1880,00
-7614,81	1701,00
-7595,96	1568,00
-7577,15	1443,00
-7558,37	1436,00
-7539,62	1499,00
-7520,91	1629,00
-7502,24	1589,00
-7483,60	1826,00
-7465,00	1383,00
-7446,44	1392,00
-7427,91	1240,00
-7409,41	1192,00
-7390,95	1107,00
-7372,53	1158,00
-7354,14	1210,00
-7335,78	1040,00
-7317,46	1215,00
-7299,18	1446,00
-7280,92	1597,00
-7262,71	1566,00
-7244,52	1762,00
-7226,38	1696,00
-7208,26	1650,00
-7190,18	1570,00
-7172,14	1430,00
-7154,12	1586,00
-7136,15	1598,00
-7118,20	1678,00
-7100,29	1640,00
-7082,41	1659,00
-7064,57	1546,00
-7046,76	1509,00
-7028,98	1360,00
-7011,24	1257,00
-6993,53	1091,00
-6975,85	944,00
-6958,20	870,00
-6940,59	771,00
-6923,01	874,00
-6905,46	1057,00
-6887,94	1115,00
-6870,46	-1596,00
-6853,01	1586,00
-6835,59	1507,00
-6818,21	1349,00
-6800,85	1066,00
-6783,53	843,00
-6766,24	785,00
-6748,98	733,00
-6731,76	527,00
-6714,56	567,00
-6697,40	733,00
-6680,26	669,00
-6663,16	871,00
-6646,09	947,00
-6629,05	1175,00
-6612,05	1176,00
-6595,07	1281,00
-6578,13	1061,00
-6561,21	1007,00
-6544,33	741,00
-6527,47	571,00
-6510,65	562,00
-6493,86	428,00
-6477,10	501,00
-6460,36	597,00
-6443,66	479,00
-6426,99	466,00
-6410,35	557,00
-6393,74	649,00
-6377,16	635,00
-6360,61	733,00
-6344,09	838,00
-6327,59	911,00
-6311,13	844,00
-6294,70	953,00
-6278,29	1021,00
-6261,92	987,00
-6245,58	1246,00
-6229,26	1187,00
-6212,97	1149,00
-6196,72	824,00
-6180,49	755,00
-6164,29	455,00
-6148,12	354,00
-6131,98	266,00
-6115,86	311,00
-6099,78	393,00
-6083,72	266,00
-6067,69	253,00
-6051,69	332,00
-6035,72	267,00
-6019,78	402,00
-6003,87	576,00
-5987,98	811,00
-5972,12	792,00
-5956,29	836,00
-5940,49	691,00
-5924,71	560,00
-5908,96	452,00
-5893,24	298,00
-5877,55	384,00
-5861,89	366,00
-5846,25	457,00
-5830,64	455,00
-5815,05	414,00
-5799,50	352,00
-5783,97	428,00
-5768,47	472,00
-5752,99	507,00
-5737,55	721,00
-5722,12	826,00
-5706,73	737,00
-5691,36	781,00
-5676,02	477,00
-5660,71	281,00
-5645,42	313,00
-5630,16	425,00
-5614,92	434,00
-5599,71	543,00
-5584,53	535,00
-5569,37	480,00
-5554,24	1529,00
-5539,14	424,00
-5524,06	328,00
-5509,01	558,00
-5493,98	579,00
-5478,98	447,00
-5464,00	614,00
-5449,05	416,00
-5434,13	383,00
-5419,23	296,00
-5404,36	349,00
-5389,51	603,00
-5374,69	781,00
-5359,89	925,00
-5345,12	880,00
-5330,37	741,00
-5315,65	683,00
-5300,95	539,00
-5286,28	498,00
-5271,63	421,00
-5257,01	516,00
-5242,41	531,00
-5227,84	528,00
-5213,29	379,00
-5198,76	122,00
-5184,26	248,00
-5169,79	229,00
-5155,33	379,00
-5140,91	414,00
-5126,51	728,00
-5112,13	624,00
-5097,77	490,00
-5083,44	441,00
-5069,13	299,00
-5054,85	387,00
-5040,59	323,00
-5026,36	379,00
-5012,15	578,00
-4997,96	398,00
-4983,80	406,00
-4969,66	217,00
-4955,54	439,00
-4941,44	400,00
-4927,37	690,00
-4913,33	824,00
-4899,30	800,00
-4885,30	643,00
-4871,33	523,00
-4857,37	289,00
-4843,44	173,00
-4829,53	209,00
-4815,65	514,00
-4801,79	345,00
-4787,95	247,00
-4774,13	464,00
-4760,34	397,00
-4746,56	97,00
-4732,82	259,00
-4719,09	281,00
-4705,38	627,00
-4691,70	837,00
-4678,04	798,00
-4664,41	450,00
-4650,79	443,00
-4637,20	314,00
-4623,63	280,00
-4610,08	395,00
-4596,56	457,00
-4583,05	388,00
-4569,57	523,00
-4556,11	125,00
-4542,67	185,00
-4529,25	182,00
-4515,86	393,00
-4502,49	690,00
-4489,13	611,00
-4475,80	525,00
-4462,49	297,00
-4449,21	314,00
-4435,94	283,00
-4422,70	206,00
-4409,47	383,00
-4396,27	432,00
-4383,09	198,00
-4369,93	120,00
-4356,79	234,00
-4343,67	217,00
-4330,58	211,00
-4317,50	376,00
-4304,45	306,00
-4291,41	148,00
-4278,40	215,00
-4265,41	60,00
-4252,44	276,00
-4239,49	400,00
-4226,55	311,00
-4213,65	160,00
-4200,76	225,00
-4187,89	112,00
-4175,04	176,00
-4162,21	209,00
-4149,40	131,00
-4136,61	-4,00
-4123,85	205,00
-4111,10	146,00
-4098,37	124,00
-4085,66	165,00
-4072,98	114,00
-4060,31	169,00
-4047,66	259,00
-4035,04	93,00
-4022,43	-7,00
-4009,84	27,00
-3997,27	58,00
-3984,72	168,00
-3972,19	73,00
-3959,69	94,00
-3947,20	-21,00
-3934,73	18,00
-3922,27	11,00
-3909,84	-28,00
-3897,43	-20,00
-3885,04	16,00
-3872,67	216,00
-3860,31	-58,00
-3847,98	32,00
-3835,66	55,00
-3823,36	-13,00
-3811,09	79,00
-3798,83	78,00
-3786,59	7,00
-3774,37	38,00
-3762,17	-13,00
-3749,98	14,00
-3737,82	132,00
-3725,67	178,00
-3713,55	5,00
-3701,44	166,00
-3689,35	130,00
-3677,28	-16,00
-3665,22	116,00
-3653,19	64,00
-3641,17	18,00
-3629,18	144,00
-3617,20	16,00
-3605,24	101,00
-3593,30	53,00
-3581,37	45,00
-3569,47	192,00
-3557,58	62,00
-3545,71	13,00
-3533,86	-29,00
-3522,02	110,00
-3510,21	32,00
-3498,41	113,00
-3486,63	114,00
-3474,87	31,00
-3463,12	111,00
-3451,40	-50,00
-3439,69	151,00
-3428,00	79,00
-3416,33	9,00
-3404,67	4,00
-3393,03	91,00
-3381,41	117,00
-3369,81	20,00
-3358,22	76,00
-3346,66	50,00
-3335,10	0,00
-3323,57	178,00
-3312,06	74,00
-3300,56	-33,00
-3289,08	-26,00
-3277,61	3,00
-3266,16	-76,00
-3254,73	62,00
-3243,32	71,00
-3231,92	-39,00
-3220,55	-42,00
-3209,18	26,00
-3197,84	131,00
-3186,51	-8,00
-3175,20	58,00
-3163,90	157,00
-3152,63	-27,00
-3141,36	18,00
-3130,12	73,00
-3118,89	65,00
-3107,68	-86,00
-3096,49	30,00
-3085,31	61,00
-3074,15	142,00
-3063,00	99,00
-3051,87	69,00
-3040,76	6,00
-3029,67	85,00
-3018,59	36,00
-3007,52	46,00
-2996,48	67,00
-2985,44	148,00
-2974,43	184,00
-2963,43	102,00
-2952,45	87,00
-2941,48	-50,00
-2930,53	127,00
-2919,60	-54,00
-2908,68	44,00
-2897,78	51,00
-2886,89	93,00
-2876,02	16,00
-2865,17	-75,00
-2854,33	-57,00
-2843,50	13,00
-2832,70	16,00
-2821,90	2,00
-2811,13	-84,00
-2800,37	17,00
-2789,62	128,00
-2778,89	-4,00
-2768,18	103,00
-2757,48	113,00
-2746,80	52,00
-2736,13	34,00
-2725,48	-118,00
-2714,84	66,00
-2704,22	71,00
-2693,61	143,00
-2683,02	121,00
-2672,45	-121,00
-2661,89	34,00
-2651,34	-94,00
-2640,81	7,00
-2630,30	88,00
-2619,80	-76,00
-2609,31	61,00
-2598,84	22,00
-2588,39	127,00
-2577,95	-112,00
-2567,52	72,00
-2557,11	32,00
-2546,71	114,00
-2536,33	-37,00
-2525,97	51,00
-2515,62	129,00
-2505,28	57,00
-2494,96	119,00
-2484,65	-47,00
-2474,36	-86,00
-2464,08	82,00
-2453,82	160,00
-2443,57	-52,00
-2433,33	-23,00
-2423,11	39,00
-2412,91	8,00
-2402,72	64,00
-2392,54	154,00
-2382,38	36,00
-2372,23	94,00
-2362,09	28,00
-2351,97	91,00
-2341,87	-30,00
-2331,78	67,00
-2321,70	111,00
-2311,64	133,00
-2301,59	13,00
-2291,55	173,00
-2281,53	18,00
-2271,53	176,00
-2261,53	-26,00
-2251,55	-21,00
-2241,59	88,00
-2231,64	82,00
-2221,70	35,00
-2211,78	31,00
-2201,87	196,00
-2191,97	-65,00
-2182,09	-28,00
-2172,22	200,00
-2162,37	55,00
-2152,53	121,00
-2142,70	165,00
-2132,89	188,00
-2123,09	58,00
-2113,30	53,00
-2103,53	40,00
-2093,77	-26,00
-2084,02	-24,00
-2074,29	102,00
-2064,57	51,00
-2054,86	235,00
-2045,17	35,00
-2035,49	151,00
-2025,82	123,00
-2016,17	23,00
-2006,53	122,00
-1996,91	46,00
-1987,29	85,00
-1977,69	48,00
-1968,11	107,00
-1958,53	151,00
-1948,97	21,00
-1939,42	111,00
-1929,89	-22,00
-1920,37	138,00
-1910,86	52,00
-1901,36	128,00
-1891,88	-86,00
-1882,41	-32,00
-1872,95	221,00
-1863,51	-42,00
-1854,08	29,00
-1844,66	27,00
-1835,26	88,00
-1825,86	3,00
-1816,48	68,00
-1807,11	8,00
-1797,76	72,00
-1788,42	32,00
-1779,09	-151,00
-1769,77	14,00
-1760,47	-58,00
-1751,17	94,00
-1741,89	12,00
-1732,63	-46,00
-1723,37	-16,00
-1714,13	-11,00
-1704,90	20,00
-1695,68	131,00
-1686,48	79,00
-1677,29	140,00
-1668,11	221,00
-1658,94	93,00
-1649,78	43,00
-1640,64	101,00
-1631,51	-4,00
-1622,39	113,00
-1613,28	41,00
-1604,19	-8,00
-1595,10	71,00
-1586,03	86,00
-1576,97	-7,00
-1567,93	76,00
-1558,89	14,00
-1549,87	92,00
-1540,86	149,00
-1531,86	102,00
-1522,87	-34,00
-1513,90	222,00
-1504,93	0,00
-1495,98	-71,00
-1487,04	-15,00
-1478,12	121,00
-1469,20	160,00
-1460,30	19,00
-1451,40	176,00
-1442,52	-22,00
-1433,65	-16,00
-1424,80	192,00
-1415,95	152,00
-1407,12	203,00
-1398,30	-94,00
-1389,48	149,00
-1380,69	30,00
-1371,90	119,00
-1363,12	109,00
-1354,36	36,00
-1345,60	38,00
-1336,86	37,00
-1328,13	96,00
-1319,41	-30,00
-1310,70	127,00
-1302,01	114,00
-1293,32	178,00
-1284,65	40,00
-1275,99	100,00
-1267,33	37,00
-1258,69	77,00
-1250,06	171,00
-1241,45	210,00
-1232,84	138,00
-1224,25	-122,00
-1215,66	-22,00
-1207,09	53,00
-1198,53	-69,00
-1189,97	73,00
-1181,43	109,00
-1172,91	-36,00
-1164,39	64,00
-1155,88	19,00
-1147,38	-26,00
-1138,90	72,00
-1130,43	39,00
-1121,96	58,00
-1113,51	70,00
-1105,07	57,00
-1096,64	187,00
-1088,22	98,00
-1079,81	148,00
-1071,41	149,00
-1063,02	62,00
-1054,65	22,00
-1046,28	49,00
-1037,92	46,00
-1029,58	50,00
-1021,24	73,00
-1012,92	59,00
-1004,61	92,00
-996,30	104,00
-988,01	9,00
-979,73	205,00
-971,46	-10,00
-963,20	173,00
-954,95	2,00
-946,71	-10,00
-938,48	165,00
-930,26	-100,00
-922,06	43,00
-913,86	41,00
-905,67	43,00
-897,49	117,00
-889,33	147,00
-881,17	83,00
-873,02	13,00
-864,89	62,00
-856,76	24,00
-848,65	60,00
-840,54	13,00
-832,45	-21,00
-824,36	2,00
-816,29	7,00
-808,22	-44,00
-800,17	94,00
-792,12	-29,00
-784,09	70,00
-776,06	24,00
-768,05	35,00
-760,04	113,00
-752,05	63,00
-744,07	78,00
-736,09	76,00
-728,13	153,00
-720,17	107,00
-712,23	60,00
-704,29	-48,00
-696,37	121,00
-688,45	80,00
-680,55	-50,00
-672,65	164,00
-664,77	66,00
-656,89	51,00
-649,03	101,00
-641,17	-23,00
-633,32	133,00
-625,49	-63,00
-617,66	95,00
-609,84	-4,00
-602,03	82,00
-594,23	99,00
-586,45	7,00
-578,67	69,00
-570,90	104,00
-563,14	107,00
-555,39	42,00
-547,65	68,00
-539,91	54,00
-532,19	125,00
-524,48	117,00
-516,78	112,00
-509,08	48,00
-501,40	-2,00
-493,72	40,00
-486,06	24,00
-478,40	39,00
-470,76	150,00
-463,12	48,00
-455,49	97,00
-447,87	4,00
-440,26	63,00
-432,66	78,00
-425,07	-22,00
-417,49	48,00
-409,92	64,00
-402,35	8,00
-394,80	83,00
-387,25	9,00
-379,72	52,00
-372,19	177,00
-364,67	259,00
-357,17	44,00
-349,67	166,00
-342,18	164,00
-334,69	116,00
-327,22	70,00
-319,76	40,00
-312,30	-5,00
-304,86	65,00
-297,42	119,00
-290,00	137,00
-282,58	-35,00
-275,17	89,00
-267,77	95,00
-260,37	128,00
-252,99	93,00
-245,62	8,00
-238,25	42,00
-230,90	0,00
-223,55	229,00
-216,21	146,00
-208,88	157,00
-201,56	211,00
-194,25	299,00
-186,94	135,00
-179,65	185,00
-172,36	328,00
-165,08	234,00
-157,81	215,00
-150,55	284,00
-143,30	255,00
-136,06	242,00
-128,82	254,00
-121,60	401,00
-114,38	247,00
-107,17	243,00
-99,97	277,00
-92,78	441,00
-85,60	383,00
-78,42	486,00
-71,25	691,00
-64,10	912,00
-56,95	1041,00
-49,81	1195,00
-42,67	1390,00
-35,55	1793,00
-28,43	2508,00
-21,33	4244,00
-14,23	14231,00
-7,14	47266,00
-0,05	38051,00
7,02	42597,00
14,09	38323,00
21,14	10068,00
28,19	4460,00
35,23	2928,00
42,27	2169,00
49,29	1972,00
56,31	1512,00
63,32	1300,00
70,32	1202,00
77,31	1012,00
84,29	909,00
91,27	683,00
98,23	623,00
105,19	556,00
112,14	710,00
119,09	935,00
126,02	1527,00
132,95	1591,00
139,87	1661,00
146,78	1487,00
153,68	1516,00
160,58	1581,00
167,46	1538,00
174,34	1555,00
181,21	1394,00
188,08	1625,00
194,93	1456,00
201,78	1556,00
208,62	1497,00
215,45	1527,00
222,27	1453,00
229,09	1437,00
235,90	1506,00
242,70	1345,00
249,49	1437,00
256,27	1345,00
263,05	1327,00
269,82	1278,00
276,58	1370,00
283,33	1196,00
290,08	1475,00
296,82	1275,00
303,55	1191,00
310,27	1190,00
316,98	1140,00
323,69	1284,00
330,39	1284,00
337,08	1205,00
343,76	1121,00
350,44	1185,00
357,11	1122,00
363,77	1167,00
370,42	1213,00
377,07	1175,00
383,71	1204,00
390,34	1116,00
396,96	1180,00
403,58	1095,00
410,19	1119,00
416,79	1110,00
423,38	1043,00
429,97	1126,00
436,55	1025,00
443,12	1078,00
449,68	1051,00
456,24	1067,00
462,79	1033,00
469,33	930,00
475,86	1037,00
482,39	1009,00
488,91	970,00
495,42	1007,00
501,93	1069,00
508,42	1019,00
514,91	1019,00
521,40	953,00
527,87	1027,00
534,34	896,00
540,80	1091,00
547,25	846,00
553,70	989,00
560,14	956,00
566,57	1035,00
573,00	943,00
579,41	877,00
585,83	951,00
592,23	1017,00
598,62	843,00
605,01	882,00
611,40	927,00
617,77	901,00
624,14	935,00
630,50	945,00
636,85	809,00
643,20	729,00
649,54	847,00
655,87	939,00
662,20	963,00
668,52	886,00
674,83	868,00
681,13	971,00
687,43	949,00
693,72	854,00
700,00	873,00
706,28	912,00
712,55	893,00
718,81	925,00
725,07	912,00
731,32	837,00
737,56	921,00
743,79	829,00
750,02	971,00
756,24	928,00
762,46	887,00
768,67	1014,00
774,87	862,00
781,06	856,00
787,25	982,00
793,43	863,00
799,60	817,00
805,77	960,00
811,93	860,00
818,08	895,00
824,23	909,00
830,37	883,00
836,50	984,00
842,63	821,00
848,75	940,00
854,87	942,00
860,97	997,00
867,07	1003,00
873,17	1023,00
879,25	834,00
885,33	905,00
891,41	858,00
897,47	855,00
903,53	818,00
909,59	862,00
915,63	928,00
921,67	883,00
927,71	800,00
933,74	794,00
939,76	788,00
945,77	887,00
951,78	890,00
957,78	848,00
963,78	652,00
969,77	791,00
975,75	813,00
981,72	779,00
987,69	920,00
993,66	799,00
999,61	768,00
1005,56	859,00
1011,51	821,00
1017,44	841,00
1023,37	734,00
1029,30	821,00
1035,22	821,00
1041,13	1009,00
1047,03	1013,00
1052,93	1289,00
1058,83	1755,00
1064,71	1847,00
1070,59	1475,00
1076,47	1180,00
1082,33	1185,00
1088,20	1070,00
1094,05	1049,00
1099,90	911,00
1105,74	988,00
1111,58	887,00
1117,41	1104,00
1123,23	1637,00
1129,05	1999,00
1134,86	1794,00
1140,67	1345,00
1146,47	1120,00
1152,26	1002,00
1158,05	869,00
1163,83	984,00
1169,60	1035,00
1175,37	1076,00
1181,13	754,00
1186,89	820,00
1192,64	800,00
1198,38	883,00
1204,12	758,00
1209,85	787,00
1215,58	791,00
1221,30	924,00
1227,02	861,00
1232,72	843,00
1238,43	758,00
1244,12	931,00
1249,81	884,00
1255,50	933,00
1261,17	932,00
1266,85	967,00
1272,51	952,00
1278,17	1048,00
1283,83	1225,00
1289,47	1942,00
1295,12	2410,00
1300,75	2058,00
1306,38	1520,00
1312,01	1262,00
1317,63	1097,00
1323,24	1171,00
1328,85	1101,00
1334,45	974,00
1340,04	883,00
1345,63	997,00
1351,22	1052,00
1356,80	979,00
1362,37	1107,00
1367,93	1150,00
1373,49	1035,00
1379,05	1031,00
1384,60	1005,00
1390,14	1122,00
1395,68	1020,00
1401,21	1031,00
1406,74	993,00
1412,26	1461,00
1417,77	1519,00
1423,28	1595,00
1428,78	1830,00
1434,28	2013,00
1439,77	2567,00
1445,26	2361,00
1450,74	2278,00
1456,22	2019,00
1461,68	1980,00
1467,15	1777,00
1472,61	1546,00
1478,06	1382,00
1483,51	1108,00
1488,95	1166,00
1494,38	962,00
1499,81	871,00
1505,24	819,00
1510,65	867,00
1516,07	907,00
1521,48	866,00
1526,88	770,00
1532,27	818,00
1537,67	979,00
1543,05	878,00
1548,43	802,00
1553,81	811,00
1559,18	941,00
1564,54	784,00
1569,90	883,00
1575,25	803,00
1580,60	874,00
1585,94	803,00
1591,28	785,00
1596,61	714,00
1601,93	645,00
1607,25	691,00
1612,57	769,00
1617,88	804,00
1623,18	859,00
1628,48	820,00
1633,77	740,00
1639,06	783,00
1644,34	802,00
1649,62	751,00
1654,89	752,00
1660,16	704,00
1665,42	719,00
1670,67	748,00
1675,92	623,00
1681,17	696,00
1686,41	664,00
1691,64	794,00
1696,87	728,00
1702,10	712,00
1707,32	623,00
1712,53	638,00
1717,74	722,00
1722,94	640,00
1728,14	682,00
1733,33	672,00
1738,52	723,00
1743,70	699,00
1748,88	699,00
1754,05	802,00
1759,22	580,00
1764,38	554,00
1769,53	632,00
1774,69	528,00
1779,83	665,00
1784,97	611,00
1790,11	726,00
1795,24	637,00
1800,36	663,00
1805,48	717,00
1810,60	657,00
1815,71	667,00
1820,82	695,00
1825,92	741,00
1831,01	605,00
1836,10	598,00
1841,19	584,00
1846,26	577,00
1851,34	611,00
1856,41	600,00
1861,47	653,00
1866,53	509,00
1871,59	570,00
1876,64	779,00
1881,68	661,00
1886,72	624,00
1891,76	541,00
1896,79	653,00
1901,81	535,00
1906,83	504,00
1911,85	567,00
1916,86	552,00
1921,86	636,00
1926,86	519,00
1931,86	709,00
1936,85	510,00
1941,83	532,00
1946,81	645,00
1951,79	675,00
1956,76	468,00
1961,72	554,00
1966,68	616,00
1971,64	601,00
1976,59	656,00
1981,54	562,00
1986,48	603,00
1991,42	530,00
1996,35	523,00
2001,27	503,00
2006,20	651,00
2011,11	637,00
2016,03	575,00
2020,93	552,00
2025,84	349,00
2030,73	494,00
2035,63	460,00
2040,52	625,00
2045,40	404,00
2050,28	492,00
2055,15	475,00
2060,02	417,00
2064,89	536,00
2069,75	486,00
2074,60	552,00
2079,46	252,00
2084,30	600,00
2089,14	598,00
2093,98	486,00
2098,81	561,00
2103,64	496,00
2108,46	586,00
2113,28	636,00
2118,09	503,00
2122,90	677,00
2127,70	542,00
2132,50	481,00
2137,30	409,00
2142,09	561,00
2146,87	533,00
2151,66	453,00
2156,43	532,00
2161,20	435,00
2165,97	575,00
2170,73	527,00
2175,49	523,00
2180,24	493,00
2184,99	525,00
2189,74	435,00
2194,48	570,00
2199,21	486,00
2203,94	467,00
2208,67	465,00
2213,39	392,00
2218,11	328,00
2222,82	526,00
2227,53	502,00
2232,23	472,00
2236,93	469,00
2241,63	457,00
2246,32	456,00
2251,00	432,00
2255,68	396,00
2260,36	408,00
2265,03	491,00
2269,70	519,00
2274,36	460,00
2279,02	385,00
2283,68	481,00
2288,33	456,00
2292,97	442,00
2297,61	496,00
2302,25	454,00
2306,88	543,00
2311,51	429,00
2316,14	408,00
2320,75	657,00
2325,37	375,00
2329,98	497,00
2334,59	461,00
2339,19	464,00
2343,79	367,00
2348,38	544,00
2352,97	411,00
2357,55	435,00
2362,13	463,00
2366,71	350,00
2371,28	542,00
2375,85	452,00
2380,41	588,00
2384,97	447,00
2389,52	365,00
2394,07	406,00
2398,62	321,00
2403,16	486,00
2407,70	403,00
2412,23	447,00
2416,76	350,00
2421,29	413,00
2425,81	550,00
2430,32	466,00
2434,84	303,00
2439,34	477,00
2443,85	355,00
2448,35	484,00
2452,84	356,00
2457,33	440,00
2461,82	416,00
2466,30	366,00
2470,78	392,00
2475,25	391,00
2479,72	355,00
2484,19	404,00
2488,65	428,00
2493,11	339,00
2497,56	294,00
2502,01	354,00
2506,46	421,00
2510,90	335,00
2515,34	322,00
2519,77	513,00
2524,20	389,00
2528,62	381,00
2533,04	440,00
2537,46	445,00
2541,87	328,00
2546,28	400,00
2550,68	257,00
2555,08	322,00
2559,48	389,00
2563,87	457,00
2568,26	383,00
2572,64	312,00
2577,02	264,00
2581,40	425,00
2585,77	476,00
2590,14	472,00
2594,50	376,00
2598,86	375,00
2603,22	297,00
2607,57	310,00
2611,92	372,00
2616,26	443,00
2620,60	406,00
2624,94	419,00
2629,27	477,00
2633,60	444,00
2637,92	363,00
2642,24	357,00
2646,56	383,00
2650,87	335,00
2655,18	459,00
2659,48	342,00
2663,78	377,00
2668,08	444,00
2672,37	490,00
2676,66	414,00
2680,95	422,00
2685,23	388,00
2689,50	448,00
2693,78	432,00
2698,05	529,00
2702,31	432,00
2706,57	376,00
2710,83	461,00
2715,08	407,00
2719,33	574,00
2723,58	583,00
2727,82	476,00
2732,06	588,00
2736,29	412,00
2740,53	540,00
2744,75	528,00
2748,97	434,00
2753,19	506,00
2757,41	466,00
2761,62	447,00
2765,83	610,00
2770,03	434,00
2774,23	576,00
2778,43	551,00
2782,62	569,00
2786,81	462,00
2791,00	412,00
2795,18	620,00
2799,35	515,00
2803,53	571,00
2807,70	711,00
2811,86	575,00
2816,03	704,00
2820,19	646,00
2824,34	834,00
2828,49	769,00
2832,64	1067,00
2836,78	1304,00
2840,92	1635,00
2845,06	1954,00
2849,19	2099,00
2853,32	2304,00
2857,45	2277,00
2861,57	2125,00
2865,69	1888,00
2869,80	2100,00
2873,91	2096,00
2878,02	2209,00
2882,12	2403,00
2886,22	2428,00
2890,32	2147,00
2894,41	2091,00
2898,50	1866,00
2902,58	1679,00
2906,67	1588,00
2910,74	1459,00
2914,82	1389,00
2918,89	1283,00
2922,96	1080,00
2927,02	1094,00
2931,08	1081,00
2935,13	956,00
2939,19	995,00
2943,24	877,00
2947,28	697,00
2951,32	751,00
2955,36	556,00
2959,40	513,00
2963,43	506,00
2967,46	483,00
2971,48	305,00
2975,50	526,00
2979,52	345,00
2983,53	378,00
2987,54	338,00
2991,55	340,00
2995,55	402,00
2999,55	451,00
3003,54	371,00
3007,54	242,00
3011,53	345,00
3015,51	281,00
3019,49	169,00
3023,47	230,00
3027,45	332,00
3031,42	254,00
3035,39	198,00
3039,35	297,00
3043,31	295,00
3047,27	228,00
3051,22	188,00
3055,17	207,00
3059,12	141,00
3063,06	258,00
3067,00	223,00
3070,94	144,00
3074,87	285,00
3078,80	292,00
3082,73	314,00
3086,65	25,00
3090,57	270,00
3094,49	178,00
3098,40	228,00
3102,31	229,00
3106,22	225,00
3110,12	174,00
3114,02	173,00
3117,92	330,00
3121,81	113,00
3125,70	152,00
3129,58	242,00
3133,47	99,00
3137,34	115,00
3141,22	283,00
3145,09	402,00
3148,96	141,00
3152,83	208,00
3156,69	247,00
3160,55	150,00
3164,40	168,00
3168,26	131,00
3172,10	232,00
3175,95	107,00
3179,79	83,00
3183,63	52,00
3187,47	258,00
3191,30	119,00
3195,13	237,00
3198,95	54,00
3202,78	155,00
3206,60	205,00
3210,41	147,00
3214,23	101,00
3218,03	200,00
3221,84	26,00
3225,64	195,00
3229,44	169,00
3233,24	25,00
3237,03	223,00
3240,82	124,00
3244,61	138,00
3248,39	100,00
3252,17	265,00
3255,95	102,00
3259,72	196,00
3263,49	174,00
3267,26	182,00
3271,03	165,00
3274,79	102,00
3278,54	107,00
3282,30	131,00
3286,05	203,00
3289,80	95,00
3293,54	169,00
3297,29	141,00
3301,02	151,00
3304,76	87,00
3308,49	109,00
3312,22	102,00
3315,95	92,00
3319,67	255,00
3323,39	196,00
3327,10	68,00
3330,82	120,00
3334,53	91,00
3338,24	162,00
3341,94	164,00
3345,64	155,00
3349,34	37,00
3353,03	80,00
3356,72	190,00
3360,41	208,00
3364,10	206,00
3367,78	25,00
3371,46	160,00
3375,13	118,00
3378,81	146,00
3382,48	211,00
3386,14	51,00
3389,81	159,00
3393,47	164,00
3397,12	107,00
3400,78	29,00
3404,43	260,00
3408,08	173,00
3411,72	60,00
3415,36	42,00
3419,00	181,00
3422,64	168,00
3426,27	103,00
3429,90	-19,00
3433,53	87,00
3437,15	170,00
3440,77	169,00
3444,39	63,00
3448,00	-9,00
3451,62	210,00
3455,22	176,00
3458,83	8,00
3462,43	79,00
3466,03	-119,00
3469,63	118,00
3473,22	82,00
3476,81	168,00
3480,40	93,00
3483,99	-37,00
3487,57	57,00
3491,15	32,00
3494,72	55,00
3498,29	51,00
3501,86	69,00
3505,43	-12,00
3508,99	103,00
3512,56	90,00
3516,11	152,00
3519,67	48,00
3523,22	46,00
3526,77	40,00
3530,32	212,00
3533,86	98,00
3537,40	25,00
3540,94	68,00
3544,47	131,00
3548,00	72,00
3551,53	118,00
3555,06	94,00
3558,58	58,00
3562,10	225,00
3565,62	159,00
3569,13	-24,00
3572,64	34,00
3576,15	103,00
3579,66	-41,00
3583,16	56,00
3586,66	-20,00
3590,16	92,00
3593,65	67,00
3597,14	31,00
3600,63	110,00
3604,11	157,00
3607,60	64,00
3611,08	165,00
3614,55	124,00
3618,03	69,00
3621,50	124,00
3624,97	23,00
3628,43	59,00
3631,90	130,00
3635,36	42,00
3638,81	-56,00
3642,27	35,00
3645,72	192,00
3649,17	46,00
3652,61	34,00
3656,06	165,00
3659,50	77,00
3662,93	81,00
3666,37	102,00
3669,80	141,00
3673,23	122,00
3676,65	146,00
3680,08	113,00
3683,50	-47,00
3686,92	-15,00
3690,33	57,00
3693,74	-5,00
3697,15	225,00
3700,56	41,00
3703,96	-11,00
3707,36	0,00
3710,76	-23,00
3714,16	96,00
3717,55	66,00
3720,94	52,00
3724,33	75,00
3727,71	-9,00
3731,10	135,00
3734,48	78,00
3737,85	22,00
3741,23	22,00
3744,60	63,00
3747,97	81,00
3751,33	70,00
3754,69	62,00
3758,05	98,00
3761,41	14,00
3764,77	127,00
3768,12	58,00
3771,47	39,00
3774,82	38,00
3778,16	-3,00
3781,50	5,00
3784,84	0,00
3788,18	7,00
>>>>>End Processed Spectral Data<<<<<
