SpectraSuite Data File
++++++++++++++++++++++++++++++++++++
Date: Tue Mar 03 12:32:49 ICT 2026
User: user
Dark Spectrum Present: Yes
Reference Spectrum Present: No
Number of Sampled Component Spectra: 1
Spectrometers: MAYP113682
Integration Time (usec): 3000000 (MAYP113682)
Spectra Averaged: 1 (MAYP113682)
Boxcar Smoothing: 0 (MAYP113682)
Correct for Electrical Dark: No (MAYP113682)
Strobe/Lamp Enabled: No (MAYP113682)
Correct for Detector Non-linearity: No (MAYP113682)
Correct for Stray Light: No (MAYP113682)
Number of Pixels in Processed Spectrum: 2068
>>>>>Begin Processed Spectral Data<<<<<
-37534,58	0,00
-37414,56	2,00
-37295,11	1,00
-37176,24	-7,00
-37057,95	-1,00
-36940,22	19,00
-36823,05	56,00
-36706,45	34,00
-36590,40	132,00
-36474,90	55,00
-36359,95	46,00
-36245,55	233,00
-36131,68	37,00
-36018,35	57,00
-35905,55	18,00
-35793,29	-48,00
-35681,54	43,00
-35570,32	-4,00
-35459,62	-13,00
-35349,43	-46,00
-35239,75	180,00
-35130,58	71,00
-35021,91	-9,00
-34913,74	175,00
-34806,07	93,00
-34698,89	180,00
-34592,20	-40,00
-34486,00	-7,00
-34380,28	11,00
-34275,04	0,00
-34170,27	-23,00
-34065,98	5,00
-33962,16	28,00
-33858,81	61,00
-33755,92	54,00
-33653,49	11,00
-33551,52	73,00
-33450,01	11,00
-33348,94	84,00
-33248,33	-2,00
-33148,16	-40,00
-33048,43	133,00
-32949,14	-19,00
-32850,29	82,00
-32751,87	81,00
-32653,89	143,00
-32556,33	28,00
-32459,20	94,00
-32362,49	44,00
-32266,19	36,00
-32170,32	2,00
-32074,86	28,00
-31979,82	56,00
-31885,18	-2,00
-31790,95	-64,00
-31697,12	77,00
-31603,69	27,00
-31510,67	31,00
-31418,04	10,00
-31325,80	87,00
-31233,95	32,00
-31142,49	96,00
-31051,42	74,00
-30960,73	74,00
-30870,43	133,00
-30780,50	62,00
-30690,95	36,00
-30601,77	19,00
-30512,97	-30,00
-30424,53	192,00
-30336,46	199,00
-30248,76	77,00
-30161,42	61,00
-30074,44	172,00
-29987,81	68,00
-29901,55	14,00
-29815,63	28,00
-29730,07	83,00
-29644,86	50,00
-29560,00	176,00
-29475,48	-18,00
-29391,30	17,00
-29307,47	66,00
-29223,97	-11,00
-29140,81	33,00
-29057,99	136,00
-28975,50	153,00
-28893,34	1,00
-28811,51	40,00
-28730,00	153,00
-28648,82	-47,00
-28567,97	95,00
-28487,43	50,00
-28407,21	21,00
-28327,32	-17,00
-28247,73	-40,00
-28168,46	117,00
-28089,50	-32,00
-28010,85	-21,00
-27932,51	142,00
-27854,48	-87,00
-27776,75	-8,00
-27699,32	98,00
-27622,19	221,00
-27545,37	137,00
-27468,84	-54,00
-27392,60	105,00
-27316,66	-97,00
-27241,01	-5,00
-27165,66	111,00
-27090,59	-16,00
-27015,81	126,00
-26941,31	163,00
-26867,10	123,00
-26793,17	138,00
-26719,52	4,00
-26646,15	167,00
-26573,06	156,00
-26500,24	108,00
-26427,70	-38,00
-26355,43	155,00
-26283,43	56,00
-26211,71	179,00
-26140,25	28,00
-26069,06	87,00
-25998,13	-75,00
-25927,46	61,00
-25857,06	70,00
-25786,92	148,00
-25717,04	-117,00
-25647,42	-48,00
-25578,05	114,00
-25508,94	-43,00
-25440,09	64,00
-25371,48	118,00
-25303,13	66,00
-25235,02	114,00
-25167,17	12,00
-25099,56	184,00
-25032,19	26,00
-24965,07	94,00
-24898,20	44,00
-24831,56	90,00
-24765,17	70,00
-24699,01	152,00
-24633,10	52,00
-24567,41	15,00
-24501,97	70,00
-24436,75	-56,00
-24371,77	26,00
-24307,03	-29,00
-24242,51	-16,00
-24178,22	72,00
-24114,16	48,00
-24050,32	87,00
-23986,71	0,00
-23923,32	61,00
-23860,16	-64,00
-23797,22	67,00
-23734,50	64,00
-23672,00	7,00
-23609,71	221,00
-23547,65	-9,00
-23485,80	35,00
-23424,16	-10,00
-23362,74	176,00
-23301,53	39,00
-23240,54	1,00
-23179,75	48,00
-23119,17	77,00
-23058,80	148,00
-22998,64	-8,00
-22938,68	125,00
-22878,93	-55,00
-22819,39	52,00
-22760,04	-57,00
-22700,90	-3,00
-22641,96	-34,00
-22583,22	38,00
-22524,68	1,00
-22466,33	90,00
-22408,19	36,00
-22350,23	96,00
-22292,48	121,00
-22234,92	36,00
-22177,55	91,00
-22120,37	59,00
-22063,38	-23,00
-22006,58	121,00
-21949,98	55,00
-21893,56	196,00
-21837,33	99,00
-21781,28	107,00
-21725,42	70,00
-21669,74	96,00
-21614,25	55,00
-21558,94	181,00
-21503,81	176,00
-21448,86	-51,00
-21394,10	159,00
-21339,51	79,00
-21285,10	33,00
-21230,86	68,00
-21176,81	126,00
-21122,93	91,00
-21069,22	78,00
-21015,69	109,00
-20962,33	63,00
-20909,14	-83,00
-20856,13	137,00
-20803,28	-31,00
-20750,61	86,00
-20698,10	80,00
-20645,76	111,00
-20593,59	145,00
-20541,59	139,00
-20489,75	11,00
-20438,07	88,00
-20386,56	127,00
-20335,22	95,00
-20284,03	80,00
-20233,01	-14,00
-20182,15	-35,00
-20131,45	-35,00
-20080,91	7,00
-20030,52	132,00
-19980,30	16,00
-19930,23	-26,00
-19880,32	23,00
-19830,56	110,00
-19780,96	14,00
-19731,52	-60,00
-19682,23	-84,00
-19633,09	64,00
-19584,10	119,00
-19535,26	142,00
-19486,58	31,00
-19438,04	-56,00
-19389,66	89,00
-19341,42	10,00
-19293,33	37,00
-19245,39	96,00
-19197,60	62,00
-19149,95	61,00
-19102,45	78,00
-19055,09	65,00
-19007,87	151,00
-18960,80	-33,00
-18913,87	92,00
-18867,09	-52,00
-18820,44	164,00
-18773,94	28,00
-18727,57	17,00
-18681,35	98,00
-18635,26	150,00
-18589,31	55,00
-18543,50	85,00
-18497,83	-32,00
-18452,29	20,00
-18406,89	107,00
-18361,63	-10,00
-18316,50	67,00
-18271,50	40,00
-18226,63	71,00
-18181,90	41,00
-18137,30	148,00
-18092,84	-5,00
-18048,50	180,00
-18004,29	16,00
-17960,22	188,00
-17916,27	38,00
-17872,45	108,00
-17828,76	-139,00
-17785,20	29,00
-17741,77	-17,00
-17698,46	104,00
-17655,28	79,00
-17612,22	-139,00
-17569,29	141,00
-17526,48	-46,00
-17483,79	23,00
-17441,23	-30,00
-17398,79	109,00
-17356,48	116,00
-17314,28	166,00
-17272,21	26,00
-17230,26	4,00
-17188,42	88,00
-17146,71	151,00
-17105,12	-20,00
-17063,64	59,00
-17022,28	129,00
-16981,04	-35,00
-16939,92	107,00
-16898,91	-42,00
-16858,02	9,00
-16817,25	59,00
-16776,59	114,00
-16736,04	100,00
-16695,61	64,00
-16655,29	109,00
-16615,09	56,00
-16574,99	9,00
-16535,01	-31,00
-16495,15	23,00
-16455,39	83,00
-16415,74	46,00
-16376,21	-28,00
-16336,78	-66,00
-16297,46	109,00
-16258,26	64,00
-16219,16	76,00
-16180,17	82,00
-16141,28	15,00
-16102,51	43,00
-16063,84	88,00
-16025,27	36,00
-15986,82	25,00
-15948,46	-70,00
-15910,22	93,00
-15872,07	112,00
-15834,04	61,00
-15796,10	105,00
-15758,27	60,00
-15720,54	42,00
-15682,91	76,00
-15645,39	-62,00
-15607,97	-28,00
-15570,64	23,00
-15533,42	87,00
-15496,30	99,00
-15459,28	12,00
-15422,36	65,00
-15385,54	36,00
-15348,82	163,00
-15312,19	-96,00
-15275,66	-12,00
-15239,23	-3,00
-15202,90	-20,00
-15166,67	62,00
-15130,53	11,00
-15094,48	10,00
-15058,54	78,00
-15022,68	8,00
-14986,93	108,00
-14951,26	-34,00
-14915,69	-15,00
-14880,22	91,00
-14844,84	138,00
-14809,55	57,00
-14774,35	-77,00
-14739,25	150,00
-14704,24	-88,00
-14669,32	38,00
-14634,49	182,00
-14599,75	-7,00
-14565,10	143,00
-14530,55	30,00
-14496,08	154,00
-14461,70	61,00
-14427,41	-13,00
-14393,21	4,00
-14359,10	-11,00
-14325,07	69,00
-14291,14	124,00
-14257,29	96,00
-14223,52	43,00
-14189,85	59,00
-14156,26	25,00
-14122,76	-32,00
-14089,34	50,00
-14056,01	92,00
-14022,76	139,00
-13989,60	16,00
-13956,52	15,00
-13923,53	69,00
-13890,62	51,00
-13857,79	82,00
-13825,05	137,00
-13792,39	103,00
-13759,81	88,00
-13727,31	8,00
-13694,90	59,00
-13662,57	173,00
-13630,31	37,00
-13598,14	82,00
-13566,05	-5,00
-13534,05	-96,00
-13502,12	96,00
-13470,27	110,00
-13438,50	32,00
-13406,80	88,00
-13375,19	-12,00
-13343,66	56,00
-13312,20	34,00
-13280,83	12,00
-13249,53	76,00
-13218,30	88,00
-13187,16	-86,00
-13156,09	-4,00
-13125,10	80,00
-13094,18	18,00
-13063,34	-2,00
-13032,58	119,00
-13001,89	-44,00
-12971,28	-24,00
-12940,74	28,00
-12910,27	84,00
-12879,88	-26,00
-12849,57	19,00
-12819,33	16,00
-12789,16	11,00
-12759,06	130,00
-12729,04	90,00
-12699,09	83,00
-12669,21	114,00
-12639,41	9,00
-12609,68	57,00
-12580,02	-35,00
-12550,43	88,00
-12520,91	118,00
-12491,46	-51,00
-12462,08	68,00
-12432,77	59,00
-12403,54	-1,00
-12374,37	46,00
-12345,27	-30,00
-12316,24	146,00
-12287,29	-24,00
-12258,40	90,00
-12229,57	184,00
-12200,82	67,00
-12172,14	46,00
-12143,52	62,00
-12114,97	73,00
-12086,49	9,00
-12058,07	11,00
-12029,73	-58,00
-12001,44	-16,00
-11973,23	-1,00
-11945,08	-20,00
-11917,00	42,00
-11888,98	128,00
-11861,03	43,00
-11833,15	55,00
-11805,32	88,00
-11777,57	14,00
-11749,88	112,00
-11722,25	44,00
-11694,69	82,00
-11667,19	5,00
-11639,75	33,00
-11612,38	15,00
-11585,07	85,00
-11557,83	-12,00
-11530,65	-5,00
-11503,53	114,00
-11476,47	117,00
-11449,48	70,00
-11422,54	100,00
-11395,67	141,00
-11368,86	56,00
-11342,11	-49,00
-11315,43	50,00
-11288,80	123,00
-11262,23	181,00
-11235,73	128,00
-11209,28	33,00
-11182,90	57,00
-11156,57	26,00
-11130,31	181,00
-11104,10	112,00
-11077,96	34,00
-11051,87	172,00
-11025,84	148,00
-10999,87	154,00
-10973,96	-34,00
-10948,11	140,00
-10922,31	21,00
-10896,58	16,00
-10870,90	148,00
-10845,28	149,00
-10819,71	-43,00
-10794,20	67,00
-10768,75	187,00
-10743,36	179,00
-10718,02	85,00
-10692,74	96,00
-10667,52	42,00
-10642,35	97,00
-10617,24	195,00
-10592,18	191,00
-10567,18	197,00
-10542,23	268,00
-10517,34	182,00
-10492,51	96,00
-10467,72	287,00
-10443,00	216,00
-10418,32	202,00
-10393,70	168,00
-10369,14	162,00
-10344,63	307,00
-10320,17	228,00
-10295,77	302,00
-10271,42	262,00
-10247,12	250,00
-10222,88	418,00
-10198,68	479,00
-10174,54	338,00
-10150,46	500,00
-10126,42	380,00
-10102,44	501,00
-10078,51	688,00
-10054,63	619,00
-10030,80	639,00
-10007,03	568,00
-9983,30	515,00
-9959,63	594,00
-9936,01	714,00
-9912,44	740,00
-9888,92	657,00
-9865,44	861,00
-9842,02	835,00
-9818,65	742,00
-9795,33	779,00
-9772,06	872,00
-9748,84	878,00
-9725,67	964,00
-9702,55	1268,00
-9679,47	1459,00
-9656,45	1547,00
-9633,47	1635,00
-9610,55	1642,00
-9587,67	1737,00
-9564,84	1824,00
-9542,06	1928,00
-9519,32	2243,00
-9496,64	2455,00
-9474,00	2691,00
-9451,41	2589,00
-9428,87	2642,00
-9406,37	2586,00
-9383,92	2395,00
-9361,52	2161,00
-9339,17	2239,00
-9316,86	2689,00
-9294,60	2987,00
-9272,38	3409,00
-9250,21	3423,00
-9228,09	3664,00
-9206,01	3344,00
-9183,98	3033,00
-9162,00	2680,00
-9140,06	2573,00
-9118,16	2470,00
-9096,31	2696,00
-9074,51	2810,00
-9052,75	2609,00
-9031,04	2561,00
-9009,37	2382,00
-8987,74	1990,00
-8966,16	1832,00
-8944,63	1625,00
-8923,14	1420,00
-8901,69	1739,00
-8880,29	1848,00
-8858,93	2160,00
-8837,61	2295,00
-8816,34	2575,00
-8795,11	2531,00
-8773,92	2400,00
-8752,78	1996,00
-8731,68	1828,00
-8710,62	2011,00
-8689,61	2109,00
-8668,63	2178,00
-8647,70	2349,00
-8626,82	2336,00
-8605,97	2149,00
-8585,17	2177,00
-8564,41	1711,00
-8543,69	1722,00
-8523,01	1669,00
-8502,37	1673,00
-8481,78	1737,00
-8461,23	1861,00
-8440,71	2019,00
-8420,24	2231,00
-8399,81	2171,00
-8379,42	2213,00
-8359,08	1938,00
-8338,77	1733,00
-8318,50	1608,00
-8298,27	1719,00
-8278,09	1755,00
-8257,94	1725,00
-8237,83	2013,00
-8217,76	1928,00
-8197,74	2127,00
-8177,75	2004,00
-8157,80	1894,00
-8137,89	1690,00
-8118,02	1688,00
-8098,19	1531,00
-8078,40	1597,00
-8058,65	1740,00
-8038,93	1961,00
-8019,26	1715,00
-7999,62	1770,00
-7980,02	1644,00
-7960,46	1646,00
-7940,94	1568,00
-7921,46	1534,00
-7902,01	1491,00
-7882,60	1375,00
-7863,23	1422,00
-7843,90	1660,00
-7824,61	1699,00
-7805,35	1755,00
-7786,13	1827,00
-7766,95	1748,00
-7747,80	1496,00
-7728,69	1564,00
-7709,62	1443,00
-7690,59	1559,00
-7671,59	1692,00
-7652,63	1951,00
-7633,70	1822,00
-7614,81	1817,00
-7595,96	1502,00
-7577,15	1552,00
-7558,37	1398,00
-7539,62	1583,00
-7520,91	1771,00
-7502,24	1727,00
-7483,60	1817,00
-7465,00	1488,00
-7446,44	1325,00
-7427,91	1332,00
-7409,41	1213,00
-7390,95	952,00
-7372,53	1163,00
-7354,14	1016,00
-7335,78	980,00
-7317,46	1199,00
-7299,18	1304,00
-7280,92	1476,00
-7262,71	1608,00
-7244,52	1730,00
-7226,38	1836,00
-7208,26	1631,00
-7190,18	1733,00
-7172,14	1423,00
-7154,12	1483,00
-7136,15	1679,00
-7118,20	1663,00
-7100,29	1724,00
-7082,41	1714,00
-7064,57	1541,00
-7046,76	1618,00
-7028,98	1317,00
-7011,24	1185,00
-6993,53	982,00
-6975,85	1017,00
-6958,20	776,00
-6940,59	765,00
-6923,01	808,00
-6905,46	1016,00
-6887,94	1077,00
-6870,46	1247,00
-6853,01	1473,00
-6835,59	1570,00
-6818,21	1427,00
-6800,85	1097,00
-6783,53	912,00
-6766,24	874,00
-6748,98	648,00
-6731,76	667,00
-6714,56	719,00
-6697,40	656,00
-6680,26	780,00
-6663,16	921,00
-6646,09	1008,00
-6629,05	1147,00
-6612,05	1195,00
-6595,07	1200,00
-6578,13	1133,00
-6561,21	945,00
-6544,33	680,00
-6527,47	574,00
-6510,65	531,00
-6493,86	508,00
-6477,10	560,00
-6460,36	619,00
-6443,66	478,00
-6426,99	553,00
-6410,35	615,00
-6393,74	603,00
-6377,16	696,00
-6360,61	667,00
-6344,09	831,00
-6327,59	1002,00
-6311,13	747,00
-6294,70	904,00
-6278,29	912,00
-6261,92	1034,00
-6245,58	1191,00
-6229,26	1240,00
-6212,97	1194,00
-6196,72	730,00
-6180,49	696,00
-6164,29	316,00
-6148,12	464,00
-6131,98	332,00
-6115,86	339,00
-6099,78	350,00
-6083,72	174,00
-6067,69	307,00
-6051,69	335,00
-6035,72	356,00
-6019,78	376,00
-6003,87	579,00
-5987,98	796,00
-5972,12	856,00
-5956,29	765,00
-5940,49	662,00
-5924,71	580,00
-5908,96	406,00
-5893,24	316,00
-5877,55	336,00
-5861,89	387,00
-5846,25	317,00
-5830,64	303,00
-5815,05	368,00
-5799,50	398,00
-5783,97	410,00
-5768,47	512,00
-5752,99	515,00
-5737,55	863,00
-5722,12	868,00
-5706,73	718,00
-5691,36	531,00
-5676,02	399,00
-5660,71	363,00
-5645,42	231,00
-5630,16	468,00
-5614,92	411,00
-5599,71	541,00
-5584,53	522,00
-5569,37	523,00
-5554,24	1445,00
-5539,14	403,00
-5524,06	333,00
-5509,01	502,00
-5493,98	560,00
-5478,98	536,00
-5464,00	514,00
-5449,05	484,00
-5434,13	416,00
-5419,23	342,00
-5404,36	338,00
-5389,51	432,00
-5374,69	634,00
-5359,89	958,00
-5345,12	889,00
-5330,37	819,00
-5315,65	635,00
-5300,95	552,00
-5286,28	555,00
-5271,63	415,00
-5257,01	464,00
-5242,41	493,00
-5227,84	497,00
-5213,29	328,00
-5198,76	114,00
-5184,26	298,00
-5169,79	318,00
-5155,33	336,00
-5140,91	447,00
-5126,51	640,00
-5112,13	457,00
-5097,77	494,00
-5083,44	420,00
-5069,13	283,00
-5054,85	377,00
-5040,59	499,00
-5026,36	503,00
-5012,15	536,00
-4997,96	499,00
-4983,80	436,00
-4969,66	164,00
-4955,54	294,00
-4941,44	328,00
-4927,37	687,00
-4913,33	738,00
-4899,30	840,00
-4885,30	663,00
-4871,33	499,00
-4857,37	243,00
-4843,44	215,00
-4829,53	301,00
-4815,65	537,00
-4801,79	358,00
-4787,95	278,00
-4774,13	304,00
-4760,34	270,00
-4746,56	114,00
-4732,82	231,00
-4719,09	364,00
-4705,38	582,00
-4691,70	794,00
-4678,04	759,00
-4664,41	402,00
-4650,79	390,00
-4637,20	309,00
-4623,63	220,00
-4610,08	427,00
-4596,56	472,00
-4583,05	360,00
-4569,57	421,00
-4556,11	63,00
-4542,67	149,00
-4529,25	243,00
-4515,86	371,00
-4502,49	659,00
-4489,13	579,00
-4475,80	572,00
-4462,49	305,00
-4449,21	272,00
-4435,94	180,00
-4422,70	219,00
-4409,47	409,00
-4396,27	332,00
-4383,09	237,00
-4369,93	131,00
-4356,79	78,00
-4343,67	215,00
-4330,58	224,00
-4317,50	213,00
-4304,45	297,00
-4291,41	177,00
-4278,40	160,00
-4265,41	3,00
-4252,44	350,00
-4239,49	530,00
-4226,55	449,00
-4213,65	211,00
-4200,76	193,00
-4187,89	46,00
-4175,04	96,00
-4162,21	177,00
-4149,40	98,00
-4136,61	23,00
-4123,85	96,00
-4111,10	89,00
-4098,37	149,00
-4085,66	214,00
-4072,98	121,00
-4060,31	78,00
-4047,66	251,00
-4035,04	30,00
-4022,43	52,00
-4009,84	99,00
-3997,27	82,00
-3984,72	31,00
-3972,19	45,00
-3959,69	53,00
-3947,20	6,00
-3934,73	32,00
-3922,27	149,00
-3909,84	21,00
-3897,43	-27,00
-3885,04	39,00
-3872,67	98,00
-3860,31	96,00
-3847,98	50,00
-3835,66	112,00
-3823,36	118,00
-3811,09	142,00
-3798,83	-39,00
-3786,59	29,00
-3774,37	-64,00
-3762,17	81,00
-3749,98	-58,00
-3737,82	104,00
-3725,67	107,00
-3713,55	96,00
-3701,44	196,00
-3689,35	87,00
-3677,28	-69,00
-3665,22	172,00
-3653,19	-8,00
-3641,17	-22,00
-3629,18	94,00
-3617,20	-73,00
-3605,24	51,00
-3593,30	91,00
-3581,37	96,00
-3569,47	133,00
-3557,58	26,00
-3545,71	77,00
-3533,86	24,00
-3522,02	120,00
-3510,21	40,00
-3498,41	66,00
-3486,63	68,00
-3474,87	68,00
-3463,12	101,00
-3451,40	20,00
-3439,69	116,00
-3428,00	40,00
-3416,33	42,00
-3404,67	12,00
-3393,03	103,00
-3381,41	70,00
-3369,81	4,00
-3358,22	46,00
-3346,66	137,00
-3335,10	-87,00
-3323,57	80,00
-3312,06	26,00
-3300,56	131,00
-3289,08	-72,00
-3277,61	6,00
-3266,16	-54,00
-3254,73	-79,00
-3243,32	131,00
-3231,92	52,00
-3220,55	10,00
-3209,18	93,00
-3197,84	81,00
-3186,51	-44,00
-3175,20	18,00
-3163,90	101,00
-3152,63	17,00
-3141,36	-46,00
-3130,12	-24,00
-3118,89	-25,00
-3107,68	-78,00
-3096,49	36,00
-3085,31	80,00
-3074,15	119,00
-3063,00	48,00
-3051,87	40,00
-3040,76	55,00
-3029,67	-13,00
-3018,59	113,00
-3007,52	119,00
-2996,48	8,00
-2985,44	123,00
-2974,43	98,00
-2963,43	53,00
-2952,45	121,00
-2941,48	45,00
-2930,53	118,00
-2919,60	98,00
-2908,68	159,00
-2897,78	48,00
-2886,89	49,00
-2876,02	-30,00
-2865,17	40,00
-2854,33	2,00
-2843,50	15,00
-2832,70	-12,00
-2821,90	36,00
-2811,13	-4,00
-2800,37	-20,00
-2789,62	141,00
-2778,89	106,00
-2768,18	243,00
-2757,48	193,00
-2746,80	49,00
-2736,13	2,00
-2725,48	21,00
-2714,84	97,00
-2704,22	62,00
-2693,61	172,00
-2683,02	66,00
-2672,45	-47,00
-2661,89	99,00
-2651,34	71,00
-2640,81	21,00
-2630,30	102,00
-2619,80	-54,00
-2609,31	-43,00
-2598,84	96,00
-2588,39	112,00
-2577,95	-2,00
-2567,52	92,00
-2557,11	12,00
-2546,71	79,00
-2536,33	30,00
-2525,97	118,00
-2515,62	99,00
-2505,28	-16,00
-2494,96	103,00
-2484,65	32,00
-2474,36	92,00
-2464,08	61,00
-2453,82	5,00
-2443,57	-63,00
-2433,33	11,00
-2423,11	81,00
-2412,91	35,00
-2402,72	74,00
-2392,54	91,00
-2382,38	-37,00
-2372,23	170,00
-2362,09	-5144,00
-2351,97	195,00
-2341,87	-66,00
-2331,78	58,00
-2321,70	56,00
-2311,64	104,00
-2301,59	27,00
-2291,55	159,00
-2281,53	34,00
-2271,53	174,00
-2261,53	70,00
-2251,55	-9,00
-2241,59	81,00
-2231,64	9,00
-2221,70	133,00
-2211,78	3,00
-2201,87	155,00
-2191,97	71,00
-2182,09	54,00
-2172,22	114,00
-2162,37	4,00
-2152,53	-18,00
-2142,70	76,00
-2132,89	67,00
-2123,09	13,00
-2113,30	187,00
-2103,53	-19,00
-2093,77	-51,00
-2084,02	-12,00
-2074,29	74,00
-2064,57	89,00
-2054,86	156,00
-2045,17	39,00
-2035,49	27,00
-2025,82	38,00
-2016,17	-13,00
-2006,53	114,00
-1996,91	80,00
-1987,29	-29,00
-1977,69	162,00
-1968,11	169,00
-1958,53	85,00
-1948,97	90,00
-1939,42	149,00
-1929,89	-48,00
-1920,37	178,00
-1910,86	40,00
-1901,36	125,00
-1891,88	42,00
-1882,41	71,00
-1872,95	88,00
-1863,51	-28,00
-1854,08	32,00
-1844,66	92,00
-1835,26	17,00
-1825,86	80,00
-1816,48	32,00
-1807,11	66,00
-1797,76	57,00
-1788,42	81,00
-1779,09	28,00
-1769,77	30,00
-1760,47	12,00
-1751,17	20,00
-1741,89	-25,00
-1732,63	-22,00
-1723,37	-167,00
-1714,13	100,00
-1704,90	74,00
-1695,68	129,00
-1686,48	-47,00
-1677,29	144,00
-1668,11	80,00
-1658,94	45,00
-1649,78	156,00
-1640,64	125,00
-1631,51	227,00
-1622,39	16,00
-1613,28	12,00
-1604,19	53,00
-1595,10	139,00
-1586,03	100,00
-1576,97	165,00
-1567,93	138,00
-1558,89	-130,00
-1549,87	73,00
-1540,86	30,00
-1531,86	30,00
-1522,87	-48,00
-1513,90	106,00
-1504,93	156,00
-1495,98	3,00
-1487,04	113,00
-1478,12	118,00
-1469,20	129,00
-1460,30	120,00
-1451,40	124,00
-1442,52	32,00
-1433,65	73,00
-1424,80	64,00
-1415,95	108,00
-1407,12	100,00
-1398,30	74,00
-1389,48	87,00
-1380,69	89,00
-1371,90	87,00
-1363,12	91,00
-1354,36	180,00
-1345,60	124,00
-1336,86	60,00
-1328,13	90,00
-1319,41	-30,00
-1310,70	208,00
-1302,01	-32,00
-1293,32	79,00
-1284,65	104,00
-1275,99	53,00
-1267,33	11,00
-1258,69	98,00
-1250,06	171,00
-1241,45	108,00
-1232,84	118,00
-1224,25	-52,00
-1215,66	31,00
-1207,09	-39,00
-1198,53	-18,00
-1189,97	120,00
-1181,43	191,00
-1172,91	-20,00
-1164,39	59,00
-1155,88	208,00
-1147,38	18,00
-1138,90	121,00
-1130,43	25,00
-1121,96	116,00
-1113,51	-88,00
-1105,07	100,00
-1096,64	91,00
-1088,22	109,00
-1079,81	42,00
-1071,41	120,00
-1063,02	130,00
-1054,65	110,00
-1046,28	81,00
-1037,92	81,00
-1029,58	85,00
-1021,24	37,00
-1012,92	89,00
-1004,61	133,00
-996,30	53,00
-988,01	12,00
-979,73	205,00
-971,46	24,00
-963,20	62,00
-954,95	59,00
-946,71	35,00
-938,48	73,00
-930,26	-95,00
-922,06	11,00
-913,86	-21,00
-905,67	179,00
-897,49	-3,00
-889,33	94,00
-881,17	87,00
-873,02	133,00
-864,89	16,00
-856,76	0,00
-848,65	64,00
-840,54	-20,00
-832,45	-5,00
-824,36	-17,00
-816,29	72,00
-808,22	11,00
-800,17	21,00
-792,12	33,00
-784,09	130,00
-776,06	-13,00
-768,05	3,00
-760,04	137,00
-752,05	154,00
-744,07	148,00
-736,09	18,00
-728,13	112,00
-720,17	104,00
-712,23	14,00
-704,29	-52,00
-696,37	89,00
-688,45	83,00
-680,55	-61,00
-672,65	68,00
-664,77	64,00
-656,89	80,00
-649,03	120,00
-641,17	70,00
-633,32	152,00
-625,49	-40,00
-617,66	167,00
-609,84	-32,00
-602,03	91,00
-594,23	54,00
-586,45	153,00
-578,67	149,00
-570,90	11,00
-563,14	63,00
-555,39	-66,00
-547,65	73,00
-539,91	84,00
-532,19	110,00
-524,48	151,00
-516,78	76,00
-509,08	-25,00
-501,40	42,00
-493,72	-7,00
-486,06	62,00
-478,40	41,00
-470,76	90,00
-463,12	50,00
-455,49	94,00
-447,87	-47,00
-440,26	69,00
-432,66	83,00
-425,07	34,00
-417,49	-24,00
-409,92	72,00
-402,35	-8,00
-394,80	79,00
-387,25	68,00
-379,72	123,00
-372,19	98,00
-364,67	221,00
-357,17	64,00
-349,67	30,00
-342,18	166,00
-334,69	100,00
-327,22	38,00
-319,76	69,00
-312,30	127,00
-304,86	181,00
-297,42	46,00
-290,00	219,00
-282,58	-34,00
-275,17	72,00
-267,77	87,00
-260,37	161,00
-252,99	111,00
-245,62	100,00
-238,25	102,00
-230,90	24,00
-223,55	321,00
-216,21	59,00
-208,88	149,00
-201,56	146,00
-194,25	191,00
-186,94	129,00
-179,65	213,00
-172,36	181,00
-165,08	202,00
-157,81	197,00
-150,55	237,00
-143,30	282,00
-136,06	340,00
-128,82	320,00
-121,60	395,00
-114,38	310,00
-107,17	232,00
-99,97	366,00
-92,78	373,00
-85,60	503,00
-78,42	628,00
-71,25	664,00
-64,10	835,00
-56,95	1027,00
-49,81	1066,00
-42,67	1352,00
-35,55	1677,00
-28,43	2301,00
-21,33	4239,00
-14,23	14207,00
-7,14	47266,00
-0,05	38051,00
7,02	42597,00
14,09	37960,00
21,14	9985,00
28,19	4476,00
35,23	2837,00
42,27	2088,00
49,29	1914,00
56,31	1528,00
63,32	1206,00
70,32	1120,00
77,31	823,00
84,29	768,00
91,27	633,00
98,23	562,00
105,19	605,00
112,14	664,00
119,09	1057,00
126,02	1461,00
132,95	1738,00
139,87	1606,00
146,78	1666,00
153,68	1488,00
160,58	1581,00
167,46	1548,00
174,34	1572,00
181,21	1517,00
188,08	1501,00
194,93	1513,00
201,78	1517,00
208,62	1672,00
215,45	1351,00
222,27	1476,00
229,09	1470,00
235,90	1479,00
242,70	1272,00
249,49	1431,00
256,27	1293,00
263,05	1298,00
269,82	1325,00
276,58	1340,00
283,33	1345,00
290,08	1406,00
296,82	1319,00
303,55	1212,00
310,27	1296,00
316,98	1209,00
323,69	1316,00
330,39	1291,00
337,08	1187,00
343,76	1115,00
350,44	1194,00
357,11	1103,00
363,77	1289,00
370,42	1210,00
377,07	1280,00
383,71	1248,00
390,34	1065,00
396,96	1239,00
403,58	1146,00
410,19	1031,00
416,79	1221,00
423,38	1152,00
429,97	1180,00
436,55	1061,00
443,12	1154,00
449,68	1171,00
456,24	1115,00
462,79	1136,00
469,33	989,00
475,86	1084,00
482,39	942,00
488,91	920,00
495,42	1008,00
501,93	1157,00
508,42	1128,00
514,91	1082,00
521,40	1002,00
527,87	941,00
534,34	848,00
540,80	1039,00
547,25	1041,00
553,70	977,00
560,14	995,00
566,57	893,00
573,00	931,00
579,41	901,00
585,83	999,00
592,23	995,00
598,62	1010,00
605,01	866,00
611,40	942,00
617,77	886,00
624,14	931,00
630,50	944,00
636,85	848,00
643,20	920,00
649,54	859,00
655,87	883,00
662,20	884,00
668,52	872,00
674,83	821,00
681,13	896,00
687,43	913,00
693,72	864,00
700,00	898,00
706,28	824,00
712,55	935,00
718,81	994,00
725,07	984,00
731,32	836,00
737,56	915,00
743,79	1017,00
750,02	997,00
756,24	952,00
762,46	885,00
768,67	1042,00
774,87	968,00
781,06	995,00
787,25	1040,00
793,43	950,00
799,60	940,00
805,77	888,00
811,93	806,00
818,08	896,00
824,23	971,00
830,37	902,00
836,50	860,00
842,63	953,00
848,75	928,00
854,87	923,00
860,97	1057,00
867,07	1027,00
873,17	943,00
879,25	1009,00
885,33	1009,00
891,41	884,00
897,47	756,00
903,53	844,00
909,59	852,00
915,63	953,00
921,67	883,00
927,71	803,00
933,74	876,00
939,76	849,00
945,77	793,00
951,78	942,00
957,78	728,00
963,78	786,00
969,77	824,00
975,75	894,00
981,72	770,00
987,69	923,00
993,66	871,00
999,61	796,00
1005,56	866,00
1011,51	824,00
1017,44	842,00
1023,37	956,00
1029,30	897,00
1035,22	899,00
1041,13	917,00
1047,03	960,00
1052,93	1353,00
1058,83	1619,00
1064,71	1807,00
1070,59	1492,00
1076,47	1182,00
1082,33	1126,00
1088,20	1168,00
1094,05	966,00
1099,90	961,00
1105,74	1060,00
1111,58	922,00
1117,41	1166,00
1123,23	1451,00
1129,05	1940,00
1134,86	1729,00
1140,67	1291,00
1146,47	1128,00
1152,26	1008,00
1158,05	936,00
1163,83	898,00
1169,60	1043,00
1175,37	981,00
1181,13	771,00
1186,89	851,00
1192,64	1014,00
1198,38	972,00
1204,12	852,00
1209,85	781,00
1215,58	754,00
1221,30	729,00
1227,02	914,00
1232,72	822,00
1238,43	861,00
1244,12	961,00
1249,81	816,00
1255,50	916,00
1261,17	927,00
1266,85	959,00
1272,51	996,00
1278,17	1084,00
1283,83	1196,00
1289,47	1822,00
1295,12	2289,00
1300,75	2014,00
1306,38	1586,00
1312,01	1275,00
1317,63	1103,00
1323,24	1122,00
1328,85	1017,00
1334,45	992,00
1340,04	882,00
1345,63	1120,00
1351,22	1057,00
1356,80	851,00
1362,37	1146,00
1367,93	1146,00
1373,49	959,00
1379,05	1089,00
1384,60	959,00
1390,14	1136,00
1395,68	1071,00
1401,21	1047,00
1406,74	1102,00
1412,26	1443,00
1417,77	1432,00
1423,28	1608,00
1428,78	1752,00
1434,28	1963,00
1439,77	2310,00
1445,26	2316,00
1450,74	2088,00
1456,22	1914,00
1461,68	1870,00
1467,15	1744,00
1472,61	1495,00
1478,06	1335,00
1483,51	1255,00
1488,95	1158,00
1494,38	1051,00
1499,81	964,00
1505,24	905,00
1510,65	893,00
1516,07	1005,00
1521,48	825,00
1526,88	916,00
1532,27	915,00
1537,67	883,00
1543,05	812,00
1548,43	681,00
1553,81	825,00
1559,18	895,00
1564,54	852,00
1569,90	844,00
1575,25	795,00
1580,60	825,00
1585,94	744,00
1591,28	744,00
1596,61	832,00
1601,93	712,00
1607,25	687,00
1612,57	730,00
1617,88	783,00
1623,18	778,00
1628,48	792,00
1633,77	829,00
1639,06	862,00
1644,34	899,00
1649,62	698,00
1654,89	869,00
1660,16	773,00
1665,42	706,00
1670,67	712,00
1675,92	749,00
1681,17	667,00
1686,41	635,00
1691,64	726,00
1696,87	699,00
1702,10	706,00
1707,32	590,00
1712,53	647,00
1717,74	747,00
1722,94	589,00
1728,14	729,00
1733,33	669,00
1738,52	723,00
1743,70	746,00
1748,88	618,00
1754,05	745,00
1759,22	698,00
1764,38	644,00
1769,53	654,00
1774,69	651,00
1779,83	679,00
1784,97	552,00
1790,11	636,00
1795,24	671,00
1800,36	711,00
1805,48	743,00
1810,60	623,00
1815,71	643,00
1820,82	802,00
1825,92	637,00
1831,01	603,00
1836,10	802,00
1841,19	653,00
1846,26	552,00
1851,34	683,00
1856,41	552,00
1861,47	591,00
1866,53	669,00
1871,59	633,00
1876,64	575,00
1881,68	637,00
1886,72	626,00
1891,76	553,00
1896,79	688,00
1901,81	588,00
1906,83	580,00
1911,85	563,00
1916,86	548,00
1921,86	516,00
1926,86	612,00
1931,86	710,00
1936,85	509,00
1941,83	573,00
1946,81	667,00
1951,79	667,00
1956,76	483,00
1961,72	653,00
1966,68	563,00
1971,64	539,00
1976,59	634,00
1981,54	605,00
1986,48	424,00
1991,42	468,00
1996,35	595,00
2001,27	463,00
2006,20	728,00
2011,11	717,00
2016,03	426,00
2020,93	623,00
2025,84	513,00
2030,73	556,00
2035,63	536,00
2040,52	583,00
2045,40	446,00
2050,28	458,00
2055,15	517,00
2060,02	547,00
2064,89	429,00
2069,75	511,00
2074,60	537,00
2079,46	503,00
2084,30	660,00
2089,14	603,00
2093,98	486,00
2098,81	649,00
2103,64	512,00
2108,46	507,00
2113,28	590,00
2118,09	548,00
2122,90	628,00
2127,70	543,00
2132,50	480,00
2137,30	440,00
2142,09	579,00
2146,87	541,00
2151,66	504,00
2156,43	624,00
2161,20	424,00
2165,97	493,00
2170,73	530,00
2175,49	481,00
2180,24	438,00
2184,99	447,00
2189,74	520,00
2194,48	587,00
2199,21	514,00
2203,94	578,00
2208,67	392,00
2213,39	453,00
2218,11	423,00
2222,82	600,00
2227,53	470,00
2232,23	532,00
2236,93	413,00
2241,63	544,00
2246,32	403,00
2251,00	561,00
2255,68	489,00
2260,36	548,00
2265,03	459,00
2269,70	447,00
2274,36	541,00
2279,02	496,00
2283,68	375,00
2288,33	466,00
2292,97	500,00
2297,61	477,00
2302,25	539,00
2306,88	480,00
2311,51	483,00
2316,14	460,00
2320,75	537,00
2325,37	398,00
2329,98	502,00
2334,59	510,00
2339,19	449,00
2343,79	401,00
2348,38	504,00
2352,97	423,00
2357,55	628,00
2362,13	494,00
2366,71	457,00
2371,28	478,00
2375,85	442,00
2380,41	496,00
2384,97	463,00
2389,52	361,00
2394,07	454,00
2398,62	441,00
2403,16	486,00
2407,70	433,00
2412,23	492,00
2416,76	455,00
2421,29	461,00
2425,81	516,00
2430,32	457,00
2434,84	320,00
2439,34	475,00
2443,85	378,00
2448,35	545,00
2452,84	388,00
2457,33	406,00
2461,82	423,00
2466,30	324,00
2470,78	457,00
2475,25	367,00
2479,72	333,00
2484,19	392,00
2488,65	463,00
2493,11	326,00
2497,56	412,00
2502,01	334,00
2506,46	451,00
2510,90	489,00
2515,34	343,00
2519,77	417,00
2524,20	400,00
2528,62	477,00
2533,04	424,00
2537,46	439,00
2541,87	347,00
2546,28	408,00
2550,68	308,00
2555,08	438,00
2559,48	400,00
2563,87	415,00
2568,26	329,00
2572,64	346,00
2577,02	449,00
2581,40	529,00
2585,77	433,00
2590,14	445,00
2594,50	293,00
2598,86	384,00
2603,22	311,00
2607,57	369,00
2611,92	386,00
2616,26	422,00
2620,60	429,00
2624,94	476,00
2629,27	330,00
2633,60	415,00
2637,92	355,00
2642,24	421,00
2646,56	387,00
2650,87	477,00
2655,18	434,00
2659,48	347,00
2663,78	376,00
2668,08	361,00
2672,37	466,00
2676,66	464,00
2680,95	524,00
2685,23	311,00
2689,50	528,00
2693,78	323,00
2698,05	451,00
2702,31	368,00
2706,57	385,00
2710,83	493,00
2715,08	487,00
2719,33	616,00
2723,58	520,00
2727,82	406,00
2732,06	576,00
2736,29	496,00
2740,53	489,00
2744,75	458,00
2748,97	462,00
2753,19	555,00
2757,41	428,00
2761,62	340,00
2765,83	471,00
2770,03	385,00
2774,23	460,00
2778,43	526,00
2782,62	562,00
2786,81	494,00
2791,00	464,00
2795,18	632,00
2799,35	543,00
2803,53	534,00
2807,70	709,00
2811,86	664,00
2816,03	529,00
2820,19	717,00
2824,34	786,00
2828,49	781,00
2832,64	1040,00
2836,78	1161,00
2840,92	1512,00
2845,06	1710,00
2849,19	1985,00
2853,32	2170,00
2857,45	2174,00
2861,57	2097,00
2865,69	1828,00
2869,80	1847,00
2873,91	1791,00
2878,02	2020,00
2882,12	2104,00
2886,22	2303,00
2890,32	2010,00
2894,41	1913,00
2898,50	1654,00
2902,58	1716,00
2906,67	1463,00
2910,74	1463,00
2914,82	1406,00
2918,89	1212,00
2922,96	1096,00
2927,02	1100,00
2931,08	1021,00
2935,13	888,00
2939,19	938,00
2943,24	753,00
2947,28	737,00
2951,32	695,00
2955,36	661,00
2959,40	467,00
2963,43	536,00
2967,46	532,00
2971,48	411,00
2975,50	456,00
2979,52	341,00
2983,53	401,00
2987,54	437,00
2991,55	213,00
2995,55	416,00
2999,55	481,00
3003,54	328,00
3007,54	252,00
3011,53	305,00
3015,51	274,00
3019,49	153,00
3023,47	281,00
3027,45	393,00
3031,42	242,00
3035,39	281,00
3039,35	275,00
3043,31	312,00
3047,27	203,00
3051,22	269,00
3055,17	326,00
3059,12	124,00
3063,06	289,00
3067,00	267,00
3070,94	167,00
3074,87	177,00
3078,80	234,00
3082,73	218,00
3086,65	108,00
3090,57	238,00
3094,49	207,00
3098,40	283,00
3102,31	79,00
3106,22	257,00
3110,12	287,00
3114,02	138,00
3117,92	248,00
3121,81	184,00
3125,70	114,00
3129,58	95,00
3133,47	192,00
3137,34	176,00
3141,22	227,00
3145,09	187,00
3148,96	166,00
3152,83	187,00
3156,69	272,00
3160,55	223,00
3164,40	207,00
3168,26	136,00
3172,10	280,00
3175,95	209,00
3179,79	43,00
3183,63	118,00
3187,47	205,00
3191,30	128,00
3195,13	189,00
3198,95	71,00
3202,78	135,00
3206,60	165,00
3210,41	90,00
3214,23	97,00
3218,03	172,00
3221,84	27,00
3225,64	221,00
3229,44	145,00
3233,24	69,00
3237,03	114,00
3240,82	159,00
3244,61	78,00
3248,39	82,00
3252,17	208,00
3255,95	48,00
3259,72	134,00
3263,49	130,00
3267,26	215,00
3271,03	211,00
3274,79	139,00
3278,54	75,00
3282,30	200,00
3286,05	94,00
3289,80	-65,00
3293,54	23,00
3297,29	114,00
3301,02	64,00
3304,76	173,00
3308,49	108,00
3312,22	109,00
3315,95	43,00
3319,67	269,00
3323,39	252,00
3327,10	120,00
3330,82	180,00
3334,53	122,00
3338,24	211,00
3341,94	160,00
3345,64	189,00
3349,34	57,00
3353,03	187,00
3356,72	227,00
3360,41	170,00
3364,10	262,00
3367,78	37,00
3371,46	154,00
3375,13	218,00
3378,81	152,00
3382,48	68,00
3386,14	-37,00
3389,81	112,00
3393,47	183,00
3397,12	76,00
3400,78	35,00
3404,43	170,00
3408,08	171,00
3411,72	68,00
3415,36	-37,00
3419,00	227,00
3422,64	159,00
3426,27	160,00
3429,90	148,00
3433,53	164,00
3437,15	116,00
3440,77	176,00
3444,39	187,00
3448,00	19,00
3451,62	180,00
3455,22	182,00
3458,83	126,00
3462,43	151,00
3466,03	7,00
3469,63	53,00
3473,22	130,00
3476,81	160,00
3480,40	57,00
3483,99	32,00
3487,57	16,00
3491,15	153,00
3494,72	120,00
3498,29	141,00
3501,86	48,00
3505,43	-107,00
3508,99	114,00
3512,56	40,00
3516,11	91,00
3519,67	77,00
3523,22	83,00
3526,77	70,00
3530,32	156,00
3533,86	68,00
3537,40	65,00
3540,94	127,00
3544,47	104,00
3548,00	39,00
3551,53	110,00
3555,06	55,00
3558,58	178,00
3562,10	258,00
3565,62	156,00
3569,13	30,00
3572,64	0,00
3576,15	35,00
3579,66	54,00
3583,16	63,00
3586,66	80,00
3590,16	101,00
3593,65	16,00
3597,14	-19,00
3600,63	87,00
3604,11	85,00
3607,60	96,00
3611,08	120,00
3614,55	-36,00
3618,03	132,00
3621,50	196,00
3624,97	102,00
3628,43	168,00
3631,90	100,00
3635,36	110,00
3638,81	92,00
3642,27	4,00
3645,72	102,00
3649,17	132,00
3652,61	73,00
3656,06	89,00
3659,50	26,00
3662,93	109,00
3666,37	41,00
3669,80	5,00
3673,23	128,00
3676,65	96,00
3680,08	29,00
3683,50	-7,00
3686,92	85,00
3690,33	-19,00
3693,74	34,00
3697,15	236,00
3700,56	10,00
3703,96	24,00
3707,36	25,00
3710,76	-101,00
3714,16	22,00
3717,55	123,00
3720,94	55,00
3724,33	23,00
3727,71	-7,00
3731,10	-26,00
3734,48	38,00
3737,85	53,00
3741,23	22,00
3744,60	71,00
3747,97	-34,00
3751,33	24,00
3754,69	61,00
3758,05	121,00
3761,41	38,00
3764,77	99,00
3768,12	111,00
3771,47	163,00
3774,82	49,00
3778,16	-6,00
3781,50	2,00
3784,84	4,00
3788,18	5,00
>>>>>End Processed Spectral Data<<<<<
