SpectraSuite Data File
++++++++++++++++++++++++++++++++++++
Date: Tue Mar 03 12:35:07 ICT 2026
User: user
Dark Spectrum Present: Yes
Reference Spectrum Present: No
Number of Sampled Component Spectra: 1
Spectrometers: MAYP113682
Integration Time (usec): 3000000 (MAYP113682)
Spectra Averaged: 1 (MAYP113682)
Boxcar Smoothing: 0 (MAYP113682)
Correct for Electrical Dark: No (MAYP113682)
Strobe/Lamp Enabled: No (MAYP113682)
Correct for Detector Non-linearity: No (MAYP113682)
Correct for Stray Light: No (MAYP113682)
Number of Pixels in Processed Spectrum: 2068
>>>>>Begin Processed Spectral Data<<<<<
-37534,58	5,00
-37414,56	2,00
-37295,11	-3,00
-37176,24	-2,00
-37057,95	-29,00
-36940,22	139,00
-36823,05	101,00
-36706,45	16,00
-36590,40	229,00
-36474,90	84,00
-36359,95	-7,00
-36245,55	156,00
-36131,68	82,00
-36018,35	81,00
-35905,55	92,00
-35793,29	53,00
-35681,54	27,00
-35570,32	47,00
-35459,62	7,00
-35349,43	49,00
-35239,75	193,00
-35130,58	96,00
-35021,91	-4,00
-34913,74	221,00
-34806,07	137,00
-34698,89	130,00
-34592,20	17,00
-34486,00	77,00
-34380,28	-28,00
-34275,04	22,00
-34170,27	-28,00
-34065,98	6,00
-33962,16	24,00
-33858,81	107,00
-33755,92	88,00
-33653,49	37,00
-33551,52	63,00
-33450,01	208,00
-33348,94	14,00
-33248,33	93,00
-33148,16	70,00
-33048,43	105,00
-32949,14	-6,00
-32850,29	68,00
-32751,87	140,00
-32653,89	159,00
-32556,33	7,00
-32459,20	75,00
-32362,49	72,00
-32266,19	28,00
-32170,32	114,00
-32074,86	0,00
-31979,82	130,00
-31885,18	-79,00
-31790,95	33,00
-31697,12	92,00
-31603,69	117,00
-31510,67	32,00
-31418,04	152,00
-31325,80	222,00
-31233,95	85,00
-31142,49	89,00
-31051,42	17,00
-30960,73	156,00
-30870,43	170,00
-30780,50	39,00
-30690,95	107,00
-30601,77	16,00
-30512,97	37,00
-30424,53	112,00
-30336,46	101,00
-30248,76	66,00
-30161,42	82,00
-30074,44	46,00
-29987,81	111,00
-29901,55	79,00
-29815,63	68,00
-29730,07	-96,00
-29644,86	133,00
-29560,00	84,00
-29475,48	-28,00
-29391,30	77,00
-29307,47	95,00
-29223,97	128,00
-29140,81	38,00
-29057,99	50,00
-28975,50	168,00
-28893,34	105,00
-28811,51	69,00
-28730,00	66,00
-28648,82	26,00
-28567,97	-25,00
-28487,43	143,00
-28407,21	52,00
-28327,32	-34,00
-28247,73	16,00
-28168,46	26,00
-28089,50	104,00
-28010,85	-75,00
-27932,51	80,00
-27854,48	-149,00
-27776,75	5,00
-27699,32	122,00
-27622,19	197,00
-27545,37	204,00
-27468,84	35,00
-27392,60	-14,00
-27316,66	136,00
-27241,01	61,00
-27165,66	83,00
-27090,59	0,00
-27015,81	124,00
-26941,31	50,00
-26867,10	40,00
-26793,17	73,00
-26719,52	-51,00
-26646,15	49,00
-26573,06	228,00
-26500,24	94,00
-26427,70	18,00
-26355,43	69,00
-26283,43	104,00
-26211,71	67,00
-26140,25	100,00
-26069,06	110,00
-25998,13	-25,00
-25927,46	1,00
-25857,06	19,00
-25786,92	17,00
-25717,04	-54,00
-25647,42	33,00
-25578,05	94,00
-25508,94	-60,00
-25440,09	75,00
-25371,48	60,00
-25303,13	50,00
-25235,02	120,00
-25167,17	20,00
-25099,56	105,00
-25032,19	136,00
-24965,07	63,00
-24898,20	49,00
-24831,56	150,00
-24765,17	8,00
-24699,01	137,00
-24633,10	80,00
-24567,41	-31,00
-24501,97	58,00
-24436,75	-87,00
-24371,77	92,00
-24307,03	13,00
-24242,51	18,00
-24178,22	61,00
-24114,16	6,00
-24050,32	12,00
-23986,71	16,00
-23923,32	56,00
-23860,16	-21,00
-23797,22	32,00
-23734,50	93,00
-23672,00	44,00
-23609,71	322,00
-23547,65	6,00
-23485,80	135,00
-23424,16	45,00
-23362,74	152,00
-23301,53	27,00
-23240,54	54,00
-23179,75	99,00
-23119,17	93,00
-23058,80	47,00
-22998,64	42,00
-22938,68	103,00
-22878,93	28,00
-22819,39	127,00
-22760,04	-7,00
-22700,90	90,00
-22641,96	-40,00
-22583,22	3,00
-22524,68	118,00
-22466,33	106,00
-22408,19	88,00
-22350,23	-4,00
-22292,48	17,00
-22234,92	54,00
-22177,55	120,00
-22120,37	53,00
-22063,38	-4,00
-22006,58	107,00
-21949,98	44,00
-21893,56	169,00
-21837,33	30,00
-21781,28	97,00
-21725,42	89,00
-21669,74	150,00
-21614,25	141,00
-21558,94	77,00
-21503,81	103,00
-21448,86	54,00
-21394,10	18,00
-21339,51	261,00
-21285,10	7,00
-21230,86	-3,00
-21176,81	28,00
-21122,93	118,00
-21069,22	94,00
-21015,69	76,00
-20962,33	85,00
-20909,14	-48,00
-20856,13	96,00
-20803,28	-37,00
-20750,61	188,00
-20698,10	42,00
-20645,76	35,00
-20593,59	224,00
-20541,59	42,00
-20489,75	55,00
-20438,07	60,00
-20386,56	82,00
-20335,22	87,00
-20284,03	17,00
-20233,01	58,00
-20182,15	-20,00
-20131,45	31,00
-20080,91	11,00
-20030,52	66,00
-19980,30	27,00
-19930,23	-36,00
-19880,32	75,00
-19830,56	213,00
-19780,96	-18,00
-19731,52	176,00
-19682,23	-112,00
-19633,09	24,00
-19584,10	66,00
-19535,26	81,00
-19486,58	16,00
-19438,04	-23,00
-19389,66	0,00
-19341,42	57,00
-19293,33	-77,00
-19245,39	88,00
-19197,60	96,00
-19149,95	120,00
-19102,45	-23,00
-19055,09	104,00
-19007,87	38,00
-18960,80	-57,00
-18913,87	83,00
-18867,09	-30,00
-18820,44	161,00
-18773,94	121,00
-18727,57	67,00
-18681,35	125,00
-18635,26	-24,00
-18589,31	92,00
-18543,50	47,00
-18497,83	-86,00
-18452,29	52,00
-18406,89	89,00
-18361,63	77,00
-18316,50	-45,00
-18271,50	-52,00
-18226,63	237,00
-18181,90	48,00
-18137,30	111,00
-18092,84	-12,00
-18048,50	85,00
-18004,29	8,00
-17960,22	175,00
-17916,27	90,00
-17872,45	83,00
-17828,76	92,00
-17785,20	-95,00
-17741,77	22,00
-17698,46	153,00
-17655,28	108,00
-17612,22	-46,00
-17569,29	123,00
-17526,48	58,00
-17483,79	6,00
-17441,23	-105,00
-17398,79	41,00
-17356,48	117,00
-17314,28	122,00
-17272,21	-11,00
-17230,26	42,00
-17188,42	27,00
-17146,71	178,00
-17105,12	48,00
-17063,64	54,00
-17022,28	107,00
-16981,04	-69,00
-16939,92	39,00
-16898,91	-18,00
-16858,02	11,00
-16817,25	57,00
-16776,59	107,00
-16736,04	50,00
-16695,61	125,00
-16655,29	77,00
-16615,09	6,00
-16574,99	45,00
-16535,01	172,00
-16495,15	16,00
-16455,39	-7,00
-16415,74	184,00
-16376,21	-66,00
-16336,78	-19,00
-16297,46	81,00
-16258,26	115,00
-16219,16	35,00
-16180,17	70,00
-16141,28	55,00
-16102,51	19,00
-16063,84	-3,00
-16025,27	216,00
-15986,82	142,00
-15948,46	-44,00
-15910,22	140,00
-15872,07	170,00
-15834,04	117,00
-15796,10	16,00
-15758,27	193,00
-15720,54	66,00
-15682,91	34,00
-15645,39	-18,00
-15607,97	64,00
-15570,64	43,00
-15533,42	89,00
-15496,30	125,00
-15459,28	106,00
-15422,36	67,00
-15385,54	39,00
-15348,82	120,00
-15312,19	27,00
-15275,66	77,00
-15239,23	-75,00
-15202,90	53,00
-15166,67	60,00
-15130,53	-87,00
-15094,48	45,00
-15058,54	105,00
-15022,68	94,00
-14986,93	111,00
-14951,26	19,00
-14915,69	-87,00
-14880,22	62,00
-14844,84	-66,00
-14809,55	40,00
-14774,35	64,00
-14739,25	103,00
-14704,24	-48,00
-14669,32	35,00
-14634,49	249,00
-14599,75	59,00
-14565,10	77,00
-14530,55	47,00
-14496,08	151,00
-14461,70	155,00
-14427,41	-32,00
-14393,21	-2,00
-14359,10	68,00
-14325,07	216,00
-14291,14	210,00
-14257,29	-33,00
-14223,52	153,00
-14189,85	145,00
-14156,26	-23,00
-14122,76	72,00
-14089,34	94,00
-14056,01	131,00
-14022,76	7,00
-13989,60	8,00
-13956,52	14,00
-13923,53	60,00
-13890,62	113,00
-13857,79	56,00
-13825,05	67,00
-13792,39	38,00
-13759,81	252,00
-13727,31	22,00
-13694,90	-26,00
-13662,57	190,00
-13630,31	-32,00
-13598,14	94,00
-13566,05	38,00
-13534,05	58,00
-13502,12	76,00
-13470,27	92,00
-13438,50	-11,00
-13406,80	79,00
-13375,19	14,00
-13343,66	-87,00
-13312,20	-13,00
-13280,83	172,00
-13249,53	149,00
-13218,30	67,00
-13187,16	-31,00
-13156,09	-6,00
-13125,10	184,00
-13094,18	95,00
-13063,34	-10,00
-13032,58	108,00
-13001,89	-47,00
-12971,28	129,00
-12940,74	186,00
-12910,27	53,00
-12879,88	54,00
-12849,57	133,00
-12819,33	99,00
-12789,16	0,00
-12759,06	83,00
-12729,04	57,00
-12699,09	12,00
-12669,21	70,00
-12639,41	97,00
-12609,68	101,00
-12580,02	-58,00
-12550,43	30,00
-12520,91	-24,00
-12491,46	-27,00
-12462,08	102,00
-12432,77	76,00
-12403,54	47,00
-12374,37	191,00
-12345,27	9,00
-12316,24	107,00
-12287,29	102,00
-12258,40	39,00
-12229,57	123,00
-12200,82	101,00
-12172,14	36,00
-12143,52	101,00
-12114,97	42,00
-12086,49	22,00
-12058,07	-20,00
-12029,73	-105,00
-12001,44	-32,00
-11973,23	10,00
-11945,08	-9,00
-11917,00	-8,00
-11888,98	149,00
-11861,03	-36,00
-11833,15	86,00
-11805,32	90,00
-11777,57	-15,00
-11749,88	88,00
-11722,25	206,00
-11694,69	55,00
-11667,19	-45,00
-11639,75	-38,00
-11612,38	155,00
-11585,07	99,00
-11557,83	-35,00
-11530,65	98,00
-11503,53	84,00
-11476,47	12,00
-11449,48	4,00
-11422,54	111,00
-11395,67	8,00
-11368,86	-4,00
-11342,11	-123,00
-11315,43	36,00
-11288,80	144,00
-11262,23	141,00
-11235,73	125,00
-11209,28	32,00
-11182,90	27,00
-11156,57	90,00
-11130,31	158,00
-11104,10	88,00
-11077,96	96,00
-11051,87	182,00
-11025,84	87,00
-10999,87	92,00
-10973,96	54,00
-10948,11	117,00
-10922,31	14,00
-10896,58	171,00
-10870,90	1,00
-10845,28	78,00
-10819,71	35,00
-10794,20	75,00
-10768,75	197,00
-10743,36	112,00
-10718,02	114,00
-10692,74	-20,00
-10667,52	67,00
-10642,35	121,00
-10617,24	277,00
-10592,18	213,00
-10567,18	226,00
-10542,23	194,00
-10517,34	242,00
-10492,51	220,00
-10467,72	207,00
-10443,00	272,00
-10418,32	116,00
-10393,70	188,00
-10369,14	183,00
-10344,63	344,00
-10320,17	278,00
-10295,77	277,00
-10271,42	236,00
-10247,12	145,00
-10222,88	320,00
-10198,68	493,00
-10174,54	391,00
-10150,46	471,00
-10126,42	346,00
-10102,44	511,00
-10078,51	633,00
-10054,63	571,00
-10030,80	569,00
-10007,03	584,00
-9983,30	617,00
-9959,63	595,00
-9936,01	765,00
-9912,44	597,00
-9888,92	691,00
-9865,44	820,00
-9842,02	664,00
-9818,65	745,00
-9795,33	819,00
-9772,06	879,00
-9748,84	900,00
-9725,67	916,00
-9702,55	1207,00
-9679,47	1311,00
-9656,45	1430,00
-9633,47	1406,00
-9610,55	1518,00
-9587,67	1450,00
-9564,84	1770,00
-9542,06	1810,00
-9519,32	2120,00
-9496,64	2258,00
-9474,00	2481,00
-9451,41	2522,00
-9428,87	2543,00
-9406,37	2487,00
-9383,92	2189,00
-9361,52	2064,00
-9339,17	2130,00
-9316,86	2498,00
-9294,60	2743,00
-9272,38	3065,00
-9250,21	3171,00
-9228,09	3411,00
-9206,01	3216,00
-9183,98	2832,00
-9162,00	2451,00
-9140,06	2441,00
-9118,16	2349,00
-9096,31	2453,00
-9074,51	2505,00
-9052,75	2431,00
-9031,04	2447,00
-9009,37	2261,00
-8987,74	1956,00
-8966,16	1567,00
-8944,63	1509,00
-8923,14	1516,00
-8901,69	1649,00
-8880,29	1716,00
-8858,93	2064,00
-8837,61	2159,00
-8816,34	2348,00
-8795,11	2348,00
-8773,92	2240,00
-8752,78	1961,00
-8731,68	1744,00
-8710,62	1835,00
-8689,61	1918,00
-8668,63	2028,00
-8647,70	2192,00
-8626,82	2267,00
-8605,97	2044,00
-8585,17	1977,00
-8564,41	1754,00
-8543,69	1698,00
-8523,01	1525,00
-8502,37	1640,00
-8481,78	1573,00
-8461,23	1731,00
-8440,71	1980,00
-8420,24	2045,00
-8399,81	2000,00
-8379,42	2149,00
-8359,08	1711,00
-8338,77	1713,00
-8318,50	1604,00
-8298,27	1468,00
-8278,09	1655,00
-8257,94	1722,00
-8237,83	1879,00
-8217,76	1972,00
-8197,74	1954,00
-8177,75	1908,00
-8157,80	1718,00
-8137,89	1578,00
-8118,02	1643,00
-8098,19	1621,00
-8078,40	1534,00
-8058,65	1652,00
-8038,93	1631,00
-8019,26	1569,00
-7999,62	1648,00
-7980,02	1612,00
-7960,46	1478,00
-7940,94	1530,00
-7921,46	1542,00
-7902,01	1359,00
-7882,60	1304,00
-7863,23	1410,00
-7843,90	1548,00
-7824,61	1651,00
-7805,35	1665,00
-7786,13	1614,00
-7766,95	1691,00
-7747,80	1407,00
-7728,69	1555,00
-7709,62	1418,00
-7690,59	1475,00
-7671,59	1579,00
-7652,63	1703,00
-7633,70	1774,00
-7614,81	1649,00
-7595,96	1449,00
-7577,15	1367,00
-7558,37	1288,00
-7539,62	1491,00
-7520,91	1557,00
-7502,24	1578,00
-7483,60	1625,00
-7465,00	1480,00
-7446,44	1291,00
-7427,91	1218,00
-7409,41	1072,00
-7390,95	848,00
-7372,53	1135,00
-7354,14	1067,00
-7335,78	1100,00
-7317,46	1189,00
-7299,18	1313,00
-7280,92	1444,00
-7262,71	1509,00
-7244,52	1744,00
-7226,38	1666,00
-7208,26	1527,00
-7190,18	1543,00
-7172,14	1432,00
-7154,12	1377,00
-7136,15	1585,00
-7118,20	1616,00
-7100,29	1603,00
-7082,41	1629,00
-7064,57	1626,00
-7046,76	1423,00
-7028,98	1224,00
-7011,24	1118,00
-6993,53	953,00
-6975,85	805,00
-6958,20	727,00
-6940,59	801,00
-6923,01	786,00
-6905,46	960,00
-6887,94	1075,00
-6870,46	1187,00
-6853,01	1363,00
-6835,59	1491,00
-6818,21	1402,00
-6800,85	1012,00
-6783,53	928,00
-6766,24	698,00
-6748,98	771,00
-6731,76	656,00
-6714,56	589,00
-6697,40	589,00
-6680,26	660,00
-6663,16	797,00
-6646,09	1029,00
-6629,05	1145,00
-6612,05	1102,00
-6595,07	1199,00
-6578,13	926,00
-6561,21	974,00
-6544,33	616,00
-6527,47	562,00
-6510,65	483,00
-6493,86	498,00
-6477,10	530,00
-6460,36	642,00
-6443,66	537,00
-6426,99	397,00
-6410,35	549,00
-6393,74	585,00
-6377,16	589,00
-6360,61	774,00
-6344,09	857,00
-6327,59	899,00
-6311,13	809,00
-6294,70	920,00
-6278,29	942,00
-6261,92	939,00
-6245,58	1268,00
-6229,26	1162,00
-6212,97	1046,00
-6196,72	760,00
-6180,49	632,00
-6164,29	421,00
-6148,12	440,00
-6131,98	213,00
-6115,86	304,00
-6099,78	425,00
-6083,72	203,00
-6067,69	307,00
-6051,69	336,00
-6035,72	283,00
-6019,78	477,00
-6003,87	530,00
-5987,98	852,00
-5972,12	753,00
-5956,29	794,00
-5940,49	679,00
-5924,71	548,00
-5908,96	464,00
-5893,24	226,00
-5877,55	339,00
-5861,89	330,00
-5846,25	410,00
-5830,64	441,00
-5815,05	415,00
-5799,50	293,00
-5783,97	458,00
-5768,47	453,00
-5752,99	492,00
-5737,55	825,00
-5722,12	835,00
-5706,73	814,00
-5691,36	686,00
-5676,02	501,00
-5660,71	287,00
-5645,42	322,00
-5630,16	391,00
-5614,92	358,00
-5599,71	561,00
-5584,53	650,00
-5569,37	522,00
-5554,24	533,00
-5539,14	480,00
-5524,06	368,00
-5509,01	626,00
-5493,98	466,00
-5478,98	468,00
-5464,00	498,00
-5449,05	492,00
-5434,13	318,00
-5419,23	267,00
-5404,36	460,00
-5389,51	460,00
-5374,69	706,00
-5359,89	831,00
-5345,12	905,00
-5330,37	836,00
-5315,65	549,00
-5300,95	541,00
-5286,28	468,00
-5271,63	461,00
-5257,01	459,00
-5242,41	524,00
-5227,84	544,00
-5213,29	411,00
-5198,76	106,00
-5184,26	230,00
-5169,79	398,00
-5155,33	391,00
-5140,91	431,00
-5126,51	547,00
-5112,13	584,00
-5097,77	610,00
-5083,44	527,00
-5069,13	240,00
-5054,85	395,00
-5040,59	372,00
-5026,36	409,00
-5012,15	612,00
-4997,96	411,00
-4983,80	336,00
-4969,66	220,00
-4955,54	340,00
-4941,44	367,00
-4927,37	696,00
-4913,33	664,00
-4899,30	792,00
-4885,30	811,00
-4871,33	515,00
-4857,37	322,00
-4843,44	139,00
-4829,53	216,00
-4815,65	498,00
-4801,79	272,00
-4787,95	321,00
-4774,13	283,00
-4760,34	346,00
-4746,56	91,00
-4732,82	354,00
-4719,09	321,00
-4705,38	589,00
-4691,70	712,00
-4678,04	741,00
-4664,41	482,00
-4650,79	395,00
-4637,20	213,00
-4623,63	301,00
-4610,08	312,00
-4596,56	490,00
-4583,05	388,00
-4569,57	436,00
-4556,11	80,00
-4542,67	116,00
-4529,25	203,00
-4515,86	339,00
-4502,49	624,00
-4489,13	490,00
-4475,80	531,00
-4462,49	435,00
-4449,21	306,00
-4435,94	201,00
-4422,70	320,00
-4409,47	383,00
-4396,27	368,00
-4383,09	277,00
-4369,93	252,00
-4356,79	143,00
-4343,67	167,00
-4330,58	203,00
-4317,50	258,00
-4304,45	356,00
-4291,41	257,00
-4278,40	90,00
-4265,41	79,00
-4252,44	295,00
-4239,49	375,00
-4226,55	284,00
-4213,65	269,00
-4200,76	252,00
-4187,89	201,00
-4175,04	27,00
-4162,21	231,00
-4149,40	98,00
-4136,61	60,00
-4123,85	129,00
-4111,10	159,00
-4098,37	192,00
-4085,66	205,00
-4072,98	181,00
-4060,31	254,00
-4047,66	226,00
-4035,04	131,00
-4022,43	65,00
-4009,84	60,00
-3997,27	142,00
-3984,72	-31,00
-3972,19	2,00
-3959,69	133,00
-3947,20	47,00
-3934,73	92,00
-3922,27	64,00
-3909,84	-7,00
-3897,43	-33,00
-3885,04	-105,00
-3872,67	165,00
-3860,31	165,00
-3847,98	48,00
-3835,66	115,00
-3823,36	70,00
-3811,09	25,00
-3798,83	102,00
-3786,59	-56,00
-3774,37	48,00
-3762,17	21,00
-3749,98	3,00
-3737,82	106,00
-3725,67	192,00
-3713,55	45,00
-3701,44	94,00
-3689,35	52,00
-3677,28	56,00
-3665,22	111,00
-3653,19	123,00
-3641,17	-106,00
-3629,18	163,00
-3617,20	117,00
-3605,24	15,00
-3593,30	84,00
-3581,37	17,00
-3569,47	254,00
-3557,58	16,00
-3545,71	93,00
-3533,86	-36,00
-3522,02	161,00
-3510,21	94,00
-3498,41	59,00
-3486,63	51,00
-3474,87	63,00
-3463,12	10,00
-3451,40	-2,00
-3439,69	88,00
-3428,00	121,00
-3416,33	16,00
-3404,67	-42,00
-3393,03	73,00
-3381,41	132,00
-3369,81	-21,00
-3358,22	53,00
-3346,66	32,00
-3335,10	2,00
-3323,57	134,00
-3312,06	99,00
-3300,56	215,00
-3289,08	-14,00
-3277,61	16,00
-3266,16	36,00
-3254,73	77,00
-3243,32	-8,00
-3231,92	-53,00
-3220,55	-30,00
-3209,18	8,00
-3197,84	114,00
-3186,51	-27,00
-3175,20	36,00
-3163,90	136,00
-3152,63	22,00
-3141,36	-38,00
-3130,12	-58,00
-3118,89	56,00
-3107,68	56,00
-3096,49	156,00
-3085,31	104,00
-3074,15	104,00
-3063,00	122,00
-3051,87	-51,00
-3040,76	71,00
-3029,67	73,00
-3018,59	-37,00
-3007,52	144,00
-2996,48	155,00
-2985,44	84,00
-2974,43	216,00
-2963,43	106,00
-2952,45	16,00
-2941,48	120,00
-2930,53	88,00
-2919,60	44,00
-2908,68	86,00
-2897,78	-38,00
-2886,89	41,00
-2876,02	13,00
-2865,17	-26,00
-2854,33	182,00
-2843,50	39,00
-2832,70	133,00
-2821,90	54,00
-2811,13	-37,00
-2800,37	-64,00
-2789,62	184,00
-2778,89	51,00
-2768,18	148,00
-2757,48	137,00
-2746,80	96,00
-2736,13	-28,00
-2725,48	-76,00
-2714,84	5,00
-2704,22	75,00
-2693,61	81,00
-2683,02	105,00
-2672,45	21,00
-2661,89	125,00
-2651,34	-14,00
-2640,81	108,00
-2630,30	-2,00
-2619,80	40,00
-2609,31	-4,00
-2598,84	-12,00
-2588,39	105,00
-2577,95	-56,00
-2567,52	57,00
-2557,11	149,00
-2546,71	76,00
-2536,33	79,00
-2525,97	65,00
-2515,62	132,00
-2505,28	-29,00
-2494,96	96,00
-2484,65	32,00
-2474,36	49,00
-2464,08	20,00
-2453,82	76,00
-2443,57	29,00
-2433,33	144,00
-2423,11	5,00
-2412,91	-27,00
-2402,72	51,00
-2392,54	-22,00
-2382,38	98,00
-2372,23	42,00
-2362,09	-5055,00
-2351,97	79,00
-2341,87	41,00
-2331,78	45,00
-2321,70	158,00
-2311,64	42,00
-2301,59	83,00
-2291,55	194,00
-2281,53	89,00
-2271,53	123,00
-2261,53	88,00
-2251,55	50,00
-2241,59	80,00
-2231,64	37,00
-2221,70	-16,00
-2211,78	39,00
-2201,87	157,00
-2191,97	30,00
-2182,09	-25,00
-2172,22	165,00
-2162,37	87,00
-2152,53	-62,00
-2142,70	196,00
-2132,89	112,00
-2123,09	45,00
-2113,30	56,00
-2103,53	-12,00
-2093,77	-33,00
-2084,02	19,00
-2074,29	198,00
-2064,57	97,00
-2054,86	104,00
-2045,17	-72,00
-2035,49	113,00
-2025,82	77,00
-2016,17	-53,00
-2006,53	66,00
-1996,91	79,00
-1987,29	-34,00
-1977,69	121,00
-1968,11	80,00
-1958,53	217,00
-1948,97	5,00
-1939,42	81,00
-1929,89	-23,00
-1920,37	135,00
-1910,86	86,00
-1901,36	96,00
-1891,88	-59,00
-1882,41	12,00
-1872,95	142,00
-1863,51	-28,00
-1854,08	30,00
-1844,66	7,00
-1835,26	103,00
-1825,86	51,00
-1816,48	124,00
-1807,11	21,00
-1797,76	11,00
-1788,42	-43,00
-1779,09	66,00
-1769,77	58,00
-1760,47	63,00
-1751,17	127,00
-1741,89	56,00
-1732,63	67,00
-1723,37	-8,00
-1714,13	41,00
-1704,90	25,00
-1695,68	119,00
-1686,48	8,00
-1677,29	10,00
-1668,11	235,00
-1658,94	45,00
-1649,78	63,00
-1640,64	92,00
-1631,51	177,00
-1622,39	-4,00
-1613,28	37,00
-1604,19	101,00
-1595,10	-13,00
-1586,03	216,00
-1576,97	151,00
-1567,93	89,00
-1558,89	-52,00
-1549,87	176,00
-1540,86	61,00
-1531,86	52,00
-1522,87	-20,00
-1513,90	147,00
-1504,93	54,00
-1495,98	-163,00
-1487,04	-30,00
-1478,12	43,00
-1469,20	199,00
-1460,30	156,00
-1451,40	131,00
-1442,52	1,00
-1433,65	0,00
-1424,80	63,00
-1415,95	204,00
-1407,12	177,00
-1398,30	22,00
-1389,48	42,00
-1380,69	44,00
-1371,90	-73,00
-1363,12	152,00
-1354,36	92,00
-1345,60	26,00
-1336,86	4,00
-1328,13	153,00
-1319,41	100,00
-1310,70	143,00
-1302,01	53,00
-1293,32	196,00
-1284,65	99,00
-1275,99	135,00
-1267,33	33,00
-1258,69	10,00
-1250,06	112,00
-1241,45	115,00
-1232,84	79,00
-1224,25	-21,00
-1215,66	116,00
-1207,09	57,00
-1198,53	-53,00
-1189,97	96,00
-1181,43	21,00
-1172,91	55,00
-1164,39	24,00
-1155,88	44,00
-1147,38	-42,00
-1138,90	116,00
-1130,43	30,00
-1121,96	79,00
-1113,51	104,00
-1105,07	68,00
-1096,64	140,00
-1088,22	72,00
-1079,81	92,00
-1071,41	120,00
-1063,02	-80,00
-1054,65	190,00
-1046,28	7,00
-1037,92	106,00
-1029,58	63,00
-1021,24	-6,00
-1012,92	161,00
-1004,61	25,00
-996,30	136,00
-988,01	88,00
-979,73	289,00
-971,46	47,00
-963,20	50,00
-954,95	53,00
-946,71	-74,00
-938,48	65,00
-930,26	-110,00
-922,06	-53,00
-913,86	170,00
-905,67	-8,00
-897,49	105,00
-889,33	51,00
-881,17	107,00
-873,02	119,00
-864,89	-60,00
-856,76	28,00
-848,65	36,00
-840,54	64,00
-832,45	71,00
-824,36	97,00
-816,29	55,00
-808,22	-5,00
-800,17	120,00
-792,12	-79,00
-784,09	211,00
-776,06	-30,00
-768,05	-60,00
-760,04	73,00
-752,05	2,00
-744,07	112,00
-736,09	-3,00
-728,13	68,00
-720,17	95,00
-712,23	103,00
-704,29	22,00
-696,37	69,00
-688,45	59,00
-680,55	-8,00
-672,65	215,00
-664,77	0,00
-656,89	80,00
-649,03	85,00
-641,17	102,00
-633,32	122,00
-625,49	35,00
-617,66	179,00
-609,84	-46,00
-602,03	106,00
-594,23	85,00
-586,45	17,00
-578,67	114,00
-570,90	61,00
-563,14	105,00
-555,39	39,00
-547,65	47,00
-539,91	30,00
-532,19	103,00
-524,48	4,00
-516,78	115,00
-509,08	160,00
-501,40	47,00
-493,72	32,00
-486,06	-87,00
-478,40	-1,00
-470,76	25,00
-463,12	27,00
-455,49	164,00
-447,87	70,00
-440,26	48,00
-432,66	-56,00
-425,07	57,00
-417,49	46,00
-409,92	0,00
-402,35	-56,00
-394,80	207,00
-387,25	-4,00
-379,72	115,00
-372,19	222,00
-364,67	212,00
-357,17	74,00
-349,67	53,00
-342,18	129,00
-334,69	164,00
-327,22	122,00
-319,76	68,00
-312,30	140,00
-304,86	72,00
-297,42	123,00
-290,00	120,00
-282,58	65,00
-275,17	160,00
-267,77	107,00
-260,37	101,00
-252,99	133,00
-245,62	96,00
-238,25	174,00
-230,90	152,00
-223,55	240,00
-216,21	136,00
-208,88	123,00
-201,56	187,00
-194,25	279,00
-186,94	150,00
-179,65	270,00
-172,36	187,00
-165,08	187,00
-157,81	266,00
-150,55	305,00
-143,30	380,00
-136,06	339,00
-128,82	341,00
-121,60	397,00
-114,38	218,00
-107,17	311,00
-99,97	283,00
-92,78	524,00
-85,60	538,00
-78,42	702,00
-71,25	753,00
-64,10	961,00
-56,95	1161,00
-49,81	1201,00
-42,67	1577,00
-35,55	1950,00
-28,43	2724,00
-21,33	4732,00
-14,23	15771,00
-7,14	47266,00
-0,05	38051,00
7,02	42597,00
14,09	42058,00
21,14	11358,00
28,19	5049,00
35,23	3261,00
42,27	2416,00
49,29	2132,00
56,31	1741,00
63,32	1327,00
70,32	1197,00
77,31	1022,00
84,29	942,00
91,27	704,00
98,23	727,00
105,19	740,00
112,14	888,00
119,09	927,00
126,02	1461,00
132,95	1722,00
139,87	1724,00
146,78	1605,00
153,68	1612,00
160,58	1584,00
167,46	1756,00
174,34	1626,00
181,21	1433,00
188,08	1538,00
194,93	1524,00
201,78	1497,00
208,62	1635,00
215,45	1473,00
222,27	1641,00
229,09	1377,00
235,90	1470,00
242,70	1420,00
249,49	1372,00
256,27	1369,00
263,05	1229,00
269,82	1136,00
276,58	1354,00
283,33	1250,00
290,08	1387,00
296,82	1343,00
303,55	1203,00
310,27	1268,00
316,98	1292,00
323,69	1327,00
330,39	1243,00
337,08	1130,00
343,76	1232,00
350,44	1196,00
357,11	1198,00
363,77	1185,00
370,42	1181,00
377,07	1115,00
383,71	1177,00
390,34	1126,00
396,96	1128,00
403,58	1019,00
410,19	1075,00
416,79	1153,00
423,38	1133,00
429,97	1147,00
436,55	1092,00
443,12	1103,00
449,68	1133,00
456,24	1016,00
462,79	1056,00
469,33	944,00
475,86	974,00
482,39	967,00
488,91	960,00
495,42	929,00
501,93	1060,00
508,42	1043,00
514,91	1049,00
521,40	943,00
527,87	1042,00
534,34	913,00
540,80	984,00
547,25	904,00
553,70	1047,00
560,14	914,00
566,57	939,00
573,00	1026,00
579,41	814,00
585,83	985,00
592,23	934,00
598,62	912,00
605,01	850,00
611,40	893,00
617,77	905,00
624,14	915,00
630,50	956,00
636,85	828,00
643,20	872,00
649,54	947,00
655,87	932,00
662,20	950,00
668,52	814,00
674,83	856,00
681,13	921,00
687,43	949,00
693,72	833,00
700,00	839,00
706,28	978,00
712,55	883,00
718,81	954,00
725,07	934,00
731,32	743,00
737,56	1022,00
743,79	936,00
750,02	941,00
756,24	1005,00
762,46	821,00
768,67	966,00
774,87	854,00
781,06	889,00
787,25	930,00
793,43	836,00
799,60	908,00
805,77	880,00
811,93	804,00
818,08	875,00
824,23	967,00
830,37	848,00
836,50	892,00
842,63	886,00
848,75	863,00
854,87	984,00
860,97	1077,00
867,07	1071,00
873,17	1027,00
879,25	873,00
885,33	962,00
891,41	799,00
897,47	854,00
903,53	856,00
909,59	977,00
915,63	1002,00
921,67	967,00
927,71	755,00
933,74	829,00
939,76	838,00
945,77	935,00
951,78	772,00
957,78	764,00
963,78	761,00
969,77	787,00
975,75	801,00
981,72	825,00
987,69	992,00
993,66	906,00
999,61	834,00
1005,56	981,00
1011,51	883,00
1017,44	759,00
1023,37	864,00
1029,30	885,00
1035,22	826,00
1041,13	968,00
1047,03	1051,00
1052,93	1248,00
1058,83	1714,00
1064,71	1857,00
1070,59	1536,00
1076,47	1210,00
1082,33	1193,00
1088,20	1082,00
1094,05	1001,00
1099,90	932,00
1105,74	1008,00
1111,58	987,00
1117,41	1056,00
1123,23	1561,00
1129,05	1977,00
1134,86	1751,00
1140,67	1223,00
1146,47	981,00
1152,26	871,00
1158,05	945,00
1163,83	980,00
1169,60	923,00
1175,37	1128,00
1181,13	865,00
1186,89	914,00
1192,64	832,00
1198,38	863,00
1204,12	880,00
1209,85	796,00
1215,58	831,00
1221,30	813,00
1227,02	830,00
1232,72	678,00
1238,43	809,00
1244,12	895,00
1249,81	890,00
1255,50	959,00
1261,17	987,00
1266,85	1034,00
1272,51	1036,00
1278,17	1023,00
1283,83	1188,00
1289,47	1881,00
1295,12	2268,00
1300,75	2014,00
1306,38	1584,00
1312,01	1300,00
1317,63	1156,00
1323,24	1140,00
1328,85	1056,00
1334,45	989,00
1340,04	934,00
1345,63	971,00
1351,22	1066,00
1356,80	956,00
1362,37	981,00
1367,93	1072,00
1373,49	1005,00
1379,05	1065,00
1384,60	1026,00
1390,14	1103,00
1395,68	1063,00
1401,21	923,00
1406,74	1081,00
1412,26	1426,00
1417,77	1496,00
1423,28	1602,00
1428,78	1708,00
1434,28	1994,00
1439,77	2426,00
1445,26	2288,00
1450,74	2245,00
1456,22	1946,00
1461,68	1852,00
1467,15	1694,00
1472,61	1562,00
1478,06	1245,00
1483,51	1108,00
1488,95	1142,00
1494,38	955,00
1499,81	861,00
1505,24	944,00
1510,65	724,00
1516,07	859,00
1521,48	722,00
1526,88	844,00
1532,27	849,00
1537,67	869,00
1543,05	719,00
1548,43	857,00
1553,81	813,00
1559,18	807,00
1564,54	809,00
1569,90	801,00
1575,25	833,00
1580,60	916,00
1585,94	758,00
1591,28	824,00
1596,61	818,00
1601,93	819,00
1607,25	744,00
1612,57	670,00
1617,88	830,00
1623,18	854,00
1628,48	807,00
1633,77	794,00
1639,06	887,00
1644,34	726,00
1649,62	664,00
1654,89	705,00
1660,16	729,00
1665,42	646,00
1670,67	756,00
1675,92	824,00
1681,17	716,00
1686,41	648,00
1691,64	760,00
1696,87	774,00
1702,10	648,00
1707,32	577,00
1712,53	662,00
1717,74	692,00
1722,94	578,00
1728,14	722,00
1733,33	610,00
1738,52	760,00
1743,70	745,00
1748,88	593,00
1754,05	772,00
1759,22	616,00
1764,38	-1147,00
1769,53	610,00
1774,69	636,00
1779,83	650,00
1784,97	616,00
1790,11	655,00
1795,24	536,00
1800,36	663,00
1805,48	712,00
1810,60	673,00
1815,71	641,00
1820,82	807,00
1825,92	699,00
1831,01	516,00
1836,10	681,00
1841,19	624,00
1846,26	544,00
1851,34	641,00
1856,41	552,00
1861,47	662,00
1866,53	633,00
1871,59	572,00
1876,64	744,00
1881,68	633,00
1886,72	592,00
1891,76	528,00
1896,79	749,00
1901,81	676,00
1906,83	514,00
1911,85	544,00
1916,86	592,00
1921,86	546,00
1926,86	513,00
1931,86	711,00
1936,85	508,00
1941,83	664,00
1946,81	639,00
1951,79	599,00
1956,76	507,00
1961,72	713,00
1966,68	531,00
1971,64	574,00
1976,59	528,00
1981,54	487,00
1986,48	524,00
1991,42	434,00
1996,35	729,00
2001,27	372,00
2006,20	721,00
2011,11	610,00
2016,03	535,00
2020,93	667,00
2025,84	442,00
2030,73	549,00
2035,63	496,00
2040,52	485,00
2045,40	435,00
2050,28	468,00
2055,15	497,00
2060,02	493,00
2064,89	573,00
2069,75	489,00
2074,60	470,00
2079,46	486,00
2084,30	524,00
2089,14	595,00
2093,98	456,00
2098,81	542,00
2103,64	464,00
2108,46	463,00
2113,28	588,00
2118,09	504,00
2122,90	639,00
2127,70	458,00
2132,50	446,00
2137,30	547,00
2142,09	566,00
2146,87	620,00
2151,66	554,00
2156,43	593,00
2161,20	542,00
2165,97	508,00
2170,73	507,00
2175,49	505,00
2180,24	466,00
2184,99	377,00
2189,74	523,00
2194,48	489,00
2199,21	446,00
2203,94	463,00
2208,67	485,00
2213,39	381,00
2218,11	360,00
2222,82	567,00
2227,53	488,00
2232,23	421,00
2236,93	329,00
2241,63	365,00
2246,32	446,00
2251,00	567,00
2255,68	436,00
2260,36	355,00
2265,03	486,00
2269,70	486,00
2274,36	506,00
2279,02	324,00
2283,68	502,00
2288,33	488,00
2292,97	581,00
2297,61	499,00
2302,25	526,00
2306,88	465,00
2311,51	481,00
2316,14	483,00
2320,75	601,00
2325,37	367,00
2329,98	452,00
2334,59	506,00
2339,19	509,00
2343,79	417,00
2348,38	513,00
2352,97	414,00
2357,55	483,00
2362,13	448,00
2366,71	399,00
2371,28	394,00
2375,85	517,00
2380,41	522,00
2384,97	391,00
2389,52	317,00
2394,07	547,00
2398,62	372,00
2403,16	478,00
2407,70	388,00
2412,23	519,00
2416,76	511,00
2421,29	397,00
2425,81	525,00
2430,32	427,00
2434,84	311,00
2439,34	513,00
2443,85	341,00
2448,35	372,00
2452,84	325,00
2457,33	415,00
2461,82	339,00
2466,30	383,00
2470,78	351,00
2475,25	364,00
2479,72	350,00
2484,19	504,00
2488,65	373,00
2493,11	331,00
2497,56	366,00
2502,01	399,00
2506,46	354,00
2510,90	399,00
2515,34	250,00
2519,77	488,00
2524,20	489,00
2528,62	432,00
2533,04	478,00
2537,46	430,00
2541,87	383,00
2546,28	365,00
2550,68	366,00
2555,08	397,00
2559,48	355,00
2563,87	416,00
2568,26	383,00
2572,64	307,00
2577,02	366,00
2581,40	476,00
2585,77	345,00
2590,14	345,00
2594,50	413,00
2598,86	423,00
2603,22	289,00
2607,57	326,00
2611,92	430,00
2616,26	442,00
2620,60	406,00
2624,94	384,00
2629,27	421,00
2633,60	412,00
2637,92	377,00
2642,24	360,00
2646,56	472,00
2650,87	418,00
2655,18	456,00
2659,48	330,00
2663,78	409,00
2668,08	381,00
2672,37	494,00
2676,66	438,00
2680,95	319,00
2685,23	322,00
2689,50	521,00
2693,78	318,00
2698,05	467,00
2702,31	485,00
2706,57	458,00
2710,83	450,00
2715,08	516,00
2719,33	511,00
2723,58	582,00
2727,82	472,00
2732,06	571,00
2736,29	605,00
2740,53	524,00
2744,75	421,00
2748,97	606,00
2753,19	575,00
2757,41	447,00
2761,62	412,00
2765,83	515,00
2770,03	470,00
2774,23	542,00
2778,43	525,00
2782,62	676,00
2786,81	545,00
2791,00	500,00
2795,18	604,00
2799,35	528,00
2803,53	510,00
2807,70	606,00
2811,86	657,00
2816,03	737,00
2820,19	700,00
2824,34	844,00
2828,49	832,00
2832,64	1139,00
2836,78	1169,00
2840,92	1580,00
2845,06	1829,00
2849,19	2088,00
2853,32	2265,00
2857,45	2225,00
2861,57	2204,00
2865,69	1945,00
2869,80	1962,00
2873,91	2049,00
2878,02	2203,00
2882,12	2323,00
2886,22	2326,00
2890,32	2146,00
2894,41	1940,00
2898,50	1864,00
2902,58	1780,00
2906,67	1575,00
2910,74	1527,00
2914,82	1409,00
2918,89	1301,00
2922,96	1112,00
2927,02	1087,00
2931,08	1078,00
2935,13	1010,00
2939,19	955,00
2943,24	740,00
2947,28	695,00
2951,32	608,00
2955,36	662,00
2959,40	494,00
2963,43	467,00
2967,46	483,00
2971,48	462,00
2975,50	379,00
2979,52	342,00
2983,53	410,00
2987,54	393,00
2991,55	312,00
2995,55	376,00
2999,55	381,00
3003,54	401,00
3007,54	213,00
3011,53	313,00
3015,51	320,00
3019,49	200,00
3023,47	285,00
3027,45	372,00
3031,42	336,00
3035,39	280,00
3039,35	274,00
3043,31	313,00
3047,27	360,00
3051,22	313,00
3055,17	240,00
3059,12	195,00
3063,06	264,00
3067,00	246,00
3070,94	141,00
3074,87	216,00
3078,80	216,00
3082,73	164,00
3086,65	240,00
3090,57	161,00
3094,49	181,00
3098,40	238,00
3102,31	261,00
3106,22	263,00
3110,12	289,00
3114,02	217,00
3117,92	199,00
3121,81	264,00
3125,70	183,00
3129,58	216,00
3133,47	117,00
3137,34	96,00
3141,22	284,00
3145,09	318,00
3148,96	162,00
3152,83	200,00
3156,69	196,00
3160,55	104,00
3164,40	235,00
3168,26	201,00
3172,10	276,00
3175,95	209,00
3179,79	172,00
3183,63	99,00
3187,47	202,00
3191,30	248,00
3195,13	151,00
3198,95	29,00
3202,78	195,00
3206,60	237,00
3210,41	163,00
3214,23	202,00
3218,03	171,00
3221,84	-64,00
3225,64	122,00
3229,44	213,00
3233,24	101,00
3237,03	105,00
3240,82	172,00
3244,61	170,00
3248,39	154,00
3252,17	201,00
3255,95	103,00
3259,72	138,00
3263,49	90,00
3267,26	199,00
3271,03	176,00
3274,79	42,00
3278,54	29,00
3282,30	199,00
3286,05	89,00
3289,80	131,00
3293,54	178,00
3297,29	196,00
3301,02	189,00
3304,76	97,00
3308,49	153,00
3312,22	84,00
3315,95	108,00
3319,67	235,00
3323,39	204,00
3327,10	109,00
3330,82	89,00
3334,53	199,00
3338,24	174,00
3341,94	184,00
3345,64	22,00
3349,34	56,00
3353,03	160,00
3356,72	191,00
3360,41	191,00
3364,10	139,00
3367,78	71,00
3371,46	142,00
3375,13	132,00
3378,81	56,00
3382,48	166,00
3386,14	90,00
3389,81	201,00
3393,47	178,00
3397,12	112,00
3400,78	158,00
3404,43	198,00
3408,08	240,00
3411,72	108,00
3415,36	57,00
3419,00	174,00
3422,64	91,00
3426,27	166,00
3429,90	91,00
3433,53	127,00
3437,15	135,00
3440,77	187,00
3444,39	146,00
3448,00	-19,00
3451,62	166,00
3455,22	125,00
3458,83	166,00
3462,43	104,00
3466,03	16,00
3469,63	206,00
3473,22	62,00
3476,81	89,00
3480,40	49,00
3483,99	41,00
3487,57	25,00
3491,15	157,00
3494,72	73,00
3498,29	66,00
3501,86	127,00
3505,43	82,00
3508,99	57,00
3512,56	38,00
3516,11	184,00
3519,67	88,00
3523,22	119,00
3526,77	14,00
3530,32	188,00
3533,86	133,00
3537,40	73,00
3540,94	6,00
3544,47	235,00
3548,00	123,00
3551,53	116,00
3555,06	90,00
3558,58	124,00
3562,10	77,00
3565,62	254,00
3569,13	41,00
3572,64	50,00
3576,15	73,00
3579,66	39,00
3583,16	134,00
3586,66	79,00
3590,16	67,00
3593,65	-46,00
3597,14	-56,00
3600,63	82,00
3604,11	218,00
3607,60	89,00
3611,08	206,00
3614,55	44,00
3618,03	99,00
3621,50	45,00
3624,97	116,00
3628,43	154,00
3631,90	73,00
3635,36	112,00
3638,81	130,00
3642,27	-69,00
3645,72	175,00
3649,17	40,00
3652,61	17,00
3656,06	108,00
3659,50	99,00
3662,93	103,00
3666,37	56,00
3669,80	77,00
3673,23	140,00
3676,65	115,00
3680,08	62,00
3683,50	-35,00
3686,92	112,00
3690,33	-27,00
3693,74	79,00
3697,15	65,00
3700,56	10,00
3703,96	155,00
3707,36	66,00
3710,76	-26,00
3714,16	124,00
3717,55	38,00
3720,94	30,00
3724,33	75,00
3727,71	96,00
3731,10	226,00
3734,48	68,00
3737,85	100,00
3741,23	59,00
3744,60	34,00
3747,97	78,00
3751,33	112,00
3754,69	59,00
3758,05	68,00
3761,41	-14,00
3764,77	100,00
3768,12	15,00
3771,47	88,00
3774,82	9,00
3778,16	1,00
3781,50	6,00
3784,84	0,00
3788,18	8,00
>>>>>End Processed Spectral Data<<<<<
