SpectraSuite Data File
++++++++++++++++++++++++++++++++++++
Date: Tue Mar 03 12:48:37 ICT 2026
User: user
Dark Spectrum Present: Yes
Reference Spectrum Present: No
Number of Sampled Component Spectra: 1
Spectrometers: MAYP113682
Integration Time (usec): 3000000 (MAYP113682)
Spectra Averaged: 1 (MAYP113682)
Boxcar Smoothing: 0 (MAYP113682)
Correct for Electrical Dark: No (MAYP113682)
Strobe/Lamp Enabled: No (MAYP113682)
Correct for Detector Non-linearity: No (MAYP113682)
Correct for Stray Light: No (MAYP113682)
Number of Pixels in Processed Spectrum: 2068
>>>>>Begin Processed Spectral Data<<<<<
-37534,58	9,00
-37414,56	-3,00
-37295,11	2,00
-37176,24	0,00
-37057,95	71,00
-36940,22	42,00
-36823,05	149,00
-36706,45	167,00
-36590,40	189,00
-36474,90	101,00
-36359,95	239,00
-36245,55	212,00
-36131,68	178,00
-36018,35	157,00
-35905,55	141,00
-35793,29	255,00
-35681,54	171,00
-35570,32	41,00
-35459,62	96,00
-35349,43	141,00
-35239,75	252,00
-35130,58	176,00
-35021,91	111,00
-34913,74	293,00
-34806,07	160,00
-34698,89	185,00
-34592,20	58,00
-34486,00	192,00
-34380,28	150,00
-34275,04	34,00
-34170,27	84,00
-34065,98	-21,00
-33962,16	41,00
-33858,81	179,00
-33755,92	131,00
-33653,49	109,00
-33551,52	150,00
-33450,01	111,00
-33348,94	128,00
-33248,33	82,00
-33148,16	161,00
-33048,43	166,00
-32949,14	191,00
-32850,29	210,00
-32751,87	219,00
-32653,89	305,00
-32556,33	205,00
-32459,20	61,00
-32362,49	83,00
-32266,19	247,00
-32170,32	149,00
-32074,86	10,00
-31979,82	97,00
-31885,18	41,00
-31790,95	93,00
-31697,12	109,00
-31603,69	80,00
-31510,67	115,00
-31418,04	143,00
-31325,80	269,00
-31233,95	244,00
-31142,49	180,00
-31051,42	165,00
-30960,73	246,00
-30870,43	155,00
-30780,50	231,00
-30690,95	162,00
-30601,77	147,00
-30512,97	74,00
-30424,53	251,00
-30336,46	189,00
-30248,76	100,00
-30161,42	103,00
-30074,44	245,00
-29987,81	191,00
-29901,55	142,00
-29815,63	188,00
-29730,07	80,00
-29644,86	164,00
-29560,00	215,00
-29475,48	178,00
-29391,30	92,00
-29307,47	147,00
-29223,97	192,00
-29140,81	81,00
-29057,99	115,00
-28975,50	193,00
-28893,34	248,00
-28811,51	151,00
-28730,00	250,00
-28648,82	158,00
-28567,97	103,00
-28487,43	203,00
-28407,21	56,00
-28327,32	62,00
-28247,73	122,00
-28168,46	148,00
-28089,50	145,00
-28010,85	11,00
-27932,51	174,00
-27854,48	73,00
-27776,75	95,00
-27699,32	228,00
-27622,19	369,00
-27545,37	185,00
-27468,84	103,00
-27392,60	231,00
-27316,66	106,00
-27241,01	162,00
-27165,66	126,00
-27090,59	141,00
-27015,81	230,00
-26941,31	206,00
-26867,10	161,00
-26793,17	296,00
-26719,52	56,00
-26646,15	191,00
-26573,06	252,00
-26500,24	159,00
-26427,70	109,00
-26355,43	183,00
-26283,43	156,00
-26211,71	130,00
-26140,25	70,00
-26069,06	264,00
-25998,13	24,00
-25927,46	232,00
-25857,06	123,00
-25786,92	258,00
-25717,04	42,00
-25647,42	71,00
-25578,05	172,00
-25508,94	136,00
-25440,09	209,00
-25371,48	158,00
-25303,13	103,00
-25235,02	182,00
-25167,17	134,00
-25099,56	192,00
-25032,19	164,00
-24965,07	227,00
-24898,20	140,00
-24831,56	272,00
-24765,17	150,00
-24699,01	241,00
-24633,10	265,00
-24567,41	41,00
-24501,97	221,00
-24436,75	43,00
-24371,77	219,00
-24307,03	177,00
-24242,51	143,00
-24178,22	224,00
-24114,16	189,00
-24050,32	73,00
-23986,71	230,00
-23923,32	204,00
-23860,16	-3,00
-23797,22	189,00
-23734,50	181,00
-23672,00	159,00
-23609,71	352,00
-23547,65	158,00
-23485,80	232,00
-23424,16	178,00
-23362,74	255,00
-23301,53	86,00
-23240,54	86,00
-23179,75	150,00
-23119,17	256,00
-23058,80	263,00
-22998,64	116,00
-22938,68	108,00
-22878,93	88,00
-22819,39	245,00
-22760,04	62,00
-22700,90	152,00
-22641,96	128,00
-22583,22	145,00
-22524,68	177,00
-22466,33	157,00
-22408,19	174,00
-22350,23	185,00
-22292,48	79,00
-22234,92	127,00
-22177,55	258,00
-22120,37	136,00
-22063,38	64,00
-22006,58	218,00
-21949,98	133,00
-21893,56	274,00
-21837,33	194,00
-21781,28	187,00
-21725,42	80,00
-21669,74	161,00
-21614,25	197,00
-21558,94	152,00
-21503,81	144,00
-21448,86	17,00
-21394,10	92,00
-21339,51	319,00
-21285,10	7,00
-21230,86	89,00
-21176,81	188,00
-21122,93	189,00
-21069,22	195,00
-21015,69	252,00
-20962,33	91,00
-20909,14	53,00
-20856,13	267,00
-20803,28	42,00
-20750,61	116,00
-20698,10	192,00
-20645,76	183,00
-20593,59	256,00
-20541,59	207,00
-20489,75	137,00
-20438,07	201,00
-20386,56	211,00
-20335,22	239,00
-20284,03	208,00
-20233,01	80,00
-20182,15	41,00
-20131,45	66,00
-20080,91	68,00
-20030,52	217,00
-19980,30	144,00
-19930,23	153,00
-19880,32	179,00
-19830,56	297,00
-19780,96	113,00
-19731,52	61,00
-19682,23	106,00
-19633,09	122,00
-19584,10	151,00
-19535,26	214,00
-19486,58	71,00
-19438,04	32,00
-19389,66	125,00
-19341,42	103,00
-19293,33	27,00
-19245,39	185,00
-19197,60	141,00
-19149,95	173,00
-19102,45	102,00
-19055,09	168,00
-19007,87	178,00
-18960,80	210,00
-18913,87	245,00
-18867,09	140,00
-18820,44	224,00
-18773,94	143,00
-18727,57	98,00
-18681,35	98,00
-18635,26	151,00
-18589,31	229,00
-18543,50	186,00
-18497,83	-16,00
-18452,29	61,00
-18406,89	207,00
-18361,63	56,00
-18316,50	7,00
-18271,50	200,00
-18226,63	210,00
-18181,90	218,00
-18137,30	200,00
-18092,84	71,00
-18048,50	164,00
-18004,29	126,00
-17960,22	213,00
-17916,27	149,00
-17872,45	172,00
-17828,76	20,00
-17785,20	103,00
-17741,77	158,00
-17698,46	231,00
-17655,28	192,00
-17612,22	45,00
-17569,29	153,00
-17526,48	173,00
-17483,79	86,00
-17441,23	150,00
-17398,79	101,00
-17356,48	349,00
-17314,28	212,00
-17272,21	204,00
-17230,26	156,00
-17188,42	238,00
-17146,71	256,00
-17105,12	161,00
-17063,64	80,00
-17022,28	181,00
-16981,04	188,00
-16939,92	187,00
-16898,91	74,00
-16858,02	4,00
-16817,25	180,00
-16776,59	238,00
-16736,04	186,00
-16695,61	182,00
-16655,29	137,00
-16615,09	167,00
-16574,99	140,00
-16535,01	186,00
-16495,15	217,00
-16455,39	75,00
-16415,74	174,00
-16376,21	98,00
-16336,78	20,00
-16297,46	102,00
-16258,26	158,00
-16219,16	238,00
-16180,17	135,00
-16141,28	237,00
-16102,51	99,00
-16063,84	87,00
-16025,27	227,00
-15986,82	179,00
-15948,46	61,00
-15910,22	258,00
-15872,07	176,00
-15834,04	144,00
-15796,10	181,00
-15758,27	185,00
-15720,54	117,00
-15682,91	147,00
-15645,39	133,00
-15607,97	164,00
-15570,64	198,00
-15533,42	99,00
-15496,30	108,00
-15459,28	206,00
-15422,36	102,00
-15385,54	108,00
-15348,82	267,00
-15312,19	162,00
-15275,66	141,00
-15239,23	61,00
-15202,90	134,00
-15166,67	135,00
-15130,53	136,00
-15094,48	194,00
-15058,54	211,00
-15022,68	161,00
-14986,93	191,00
-14951,26	78,00
-14915,69	81,00
-14880,22	186,00
-14844,84	127,00
-14809,55	80,00
-14774,35	224,00
-14739,25	213,00
-14704,24	56,00
-14669,32	195,00
-14634,49	230,00
-14599,75	138,00
-14565,10	235,00
-14530,55	113,00
-14496,08	187,00
-14461,70	219,00
-14427,41	142,00
-14393,21	70,00
-14359,10	158,00
-14325,07	208,00
-14291,14	260,00
-14257,29	112,00
-14223,52	132,00
-14189,85	139,00
-14156,26	117,00
-14122,76	78,00
-14089,34	189,00
-14056,01	200,00
-14022,76	210,00
-13989,60	155,00
-13956,52	47,00
-13923,53	257,00
-13890,62	99,00
-13857,79	224,00
-13825,05	152,00
-13792,39	203,00
-13759,81	217,00
-13727,31	67,00
-13694,90	51,00
-13662,57	236,00
-13630,31	191,00
-13598,14	145,00
-13566,05	118,00
-13534,05	99,00
-13502,12	149,00
-13470,27	212,00
-13438,50	120,00
-13406,80	200,00
-13375,19	179,00
-13343,66	189,00
-13312,20	113,00
-13280,83	204,00
-13249,53	305,00
-13218,30	158,00
-13187,16	80,00
-13156,09	34,00
-13125,10	226,00
-13094,18	66,00
-13063,34	147,00
-13032,58	87,00
-13001,89	158,00
-12971,28	224,00
-12940,74	165,00
-12910,27	155,00
-12879,88	158,00
-12849,57	163,00
-12819,33	136,00
-12789,16	63,00
-12759,06	186,00
-12729,04	0,00
-12699,09	-1347,00
-12669,21	210,00
-12639,41	76,00
-12609,68	103,00
-12580,02	58,00
-12550,43	177,00
-12520,91	162,00
-12491,46	26,00
-12462,08	131,00
-12432,77	86,00
-12403,54	243,00
-12374,37	175,00
-12345,27	36,00
-12316,24	112,00
-12287,29	150,00
-12258,40	95,00
-12229,57	225,00
-12200,82	162,00
-12172,14	73,00
-12143,52	172,00
-12114,97	112,00
-12086,49	90,00
-12058,07	199,00
-12029,73	126,00
-12001,44	119,00
-11973,23	81,00
-11945,08	-9,00
-11917,00	175,00
-11888,98	157,00
-11861,03	174,00
-11833,15	211,00
-11805,32	159,00
-11777,57	72,00
-11749,88	200,00
-11722,25	99,00
-11694,69	52,00
-11667,19	125,00
-11639,75	92,00
-11612,38	208,00
-11585,07	245,00
-11557,83	83,00
-11530,65	187,00
-11503,53	205,00
-11476,47	171,00
-11449,48	203,00
-11422,54	286,00
-11395,67	147,00
-11368,86	232,00
-11342,11	93,00
-11315,43	92,00
-11288,80	207,00
-11262,23	250,00
-11235,73	292,00
-11209,28	97,00
-11182,90	205,00
-11156,57	169,00
-11130,31	173,00
-11104,10	128,00
-11077,96	299,00
-11051,87	311,00
-11025,84	194,00
-10999,87	229,00
-10973,96	162,00
-10948,11	66,00
-10922,31	64,00
-10896,58	189,00
-10870,90	223,00
-10845,28	211,00
-10819,71	173,00
-10794,20	148,00
-10768,75	249,00
-10743,36	204,00
-10718,02	219,00
-10692,74	189,00
-10667,52	155,00
-10642,35	96,00
-10617,24	284,00
-10592,18	270,00
-10567,18	214,00
-10542,23	135,00
-10517,34	282,00
-10492,51	203,00
-10467,72	293,00
-10443,00	256,00
-10418,32	347,00
-10393,70	200,00
-10369,14	274,00
-10344,63	400,00
-10320,17	259,00
-10295,77	313,00
-10271,42	367,00
-10247,12	328,00
-10222,88	394,00
-10198,68	394,00
-10174,54	416,00
-10150,46	558,00
-10126,42	255,00
-10102,44	515,00
-10078,51	510,00
-10054,63	548,00
-10030,80	550,00
-10007,03	536,00
-9983,30	572,00
-9959,63	485,00
-9936,01	649,00
-9912,44	603,00
-9888,92	624,00
-9865,44	653,00
-9842,02	576,00
-9818,65	633,00
-9795,33	569,00
-9772,06	676,00
-9748,84	677,00
-9725,67	715,00
-9702,55	972,00
-9679,47	1116,00
-9656,45	1059,00
-9633,47	1117,00
-9610,55	1130,00
-9587,67	1186,00
-9564,84	1306,00
-9542,06	1358,00
-9519,32	1436,00
-9496,64	1674,00
-9474,00	1857,00
-9451,41	1907,00
-9428,87	1925,00
-9406,37	1837,00
-9383,92	1659,00
-9361,52	1474,00
-9339,17	1622,00
-9316,86	1911,00
-9294,60	2100,00
-9272,38	2244,00
-9250,21	2409,00
-9228,09	2412,00
-9206,01	2299,00
-9183,98	2229,00
-9162,00	1877,00
-9140,06	1824,00
-9118,16	1759,00
-9096,31	1912,00
-9074,51	1871,00
-9052,75	1781,00
-9031,04	1880,00
-9009,37	1631,00
-8987,74	1514,00
-8966,16	1335,00
-8944,63	1138,00
-8923,14	1014,00
-8901,69	1185,00
-8880,29	1348,00
-8858,93	1613,00
-8837,61	1647,00
-8816,34	1788,00
-8795,11	1823,00
-8773,92	1737,00
-8752,78	1421,00
-8731,68	1360,00
-8710,62	1407,00
-8689,61	1449,00
-8668,63	1588,00
-8647,70	1568,00
-8626,82	1528,00
-8605,97	1549,00
-8585,17	1567,00
-8564,41	1362,00
-8543,69	1422,00
-8523,01	1109,00
-8502,37	1330,00
-8481,78	1208,00
-8461,23	1298,00
-8440,71	1379,00
-8420,24	1597,00
-8399,81	1566,00
-8379,42	1653,00
-8359,08	1395,00
-8338,77	1302,00
-8318,50	1258,00
-8298,27	1164,00
-8278,09	1372,00
-8257,94	1269,00
-8237,83	1427,00
-8217,76	1504,00
-8197,74	1515,00
-8177,75	1497,00
-8157,80	1273,00
-8137,89	1140,00
-8118,02	1314,00
-8098,19	1165,00
-8078,40	1156,00
-8058,65	1250,00
-8038,93	1377,00
-8019,26	1239,00
-7999,62	1375,00
-7980,02	1244,00
-7960,46	1124,00
-7940,94	1151,00
-7921,46	1196,00
-7902,01	1053,00
-7882,60	1072,00
-7863,23	1125,00
-7843,90	1288,00
-7824,61	1195,00
-7805,35	1273,00
-7786,13	1261,00
-7766,95	1323,00
-7747,80	1179,00
-7728,69	1225,00
-7709,62	1128,00
-7690,59	1228,00
-7671,59	1294,00
-7652,63	1340,00
-7633,70	1281,00
-7614,81	1306,00
-7595,96	1232,00
-7577,15	1162,00
-7558,37	1047,00
-7539,62	1176,00
-7520,91	1160,00
-7502,24	1184,00
-7483,60	1323,00
-7465,00	1071,00
-7446,44	1036,00
-7427,91	1013,00
-7409,41	928,00
-7390,95	786,00
-7372,53	940,00
-7354,14	821,00
-7335,78	683,00
-7317,46	992,00
-7299,18	1024,00
-7280,92	1144,00
-7262,71	1062,00
-7244,52	1123,00
-7226,38	1129,00
-7208,26	1206,00
-7190,18	1180,00
-7172,14	1138,00
-7154,12	1111,00
-7136,15	1211,00
-7118,20	1287,00
-7100,29	1178,00
-7082,41	1186,00
-7064,57	1202,00
-7046,76	1086,00
-7028,98	933,00
-7011,24	980,00
-6993,53	728,00
-6975,85	761,00
-6958,20	668,00
-6940,59	716,00
-6923,01	696,00
-6905,46	810,00
-6887,94	837,00
-6870,46	995,00
-6853,01	940,00
-6835,59	1109,00
-6818,21	1021,00
-6800,85	822,00
-6783,53	751,00
-6766,24	594,00
-6748,98	587,00
-6731,76	599,00
-6714,56	701,00
-6697,40	476,00
-6680,26	613,00
-6663,16	785,00
-6646,09	809,00
-6629,05	876,00
-6612,05	930,00
-6595,07	875,00
-6578,13	909,00
-6561,21	814,00
-6544,33	591,00
-6527,47	557,00
-6510,65	462,00
-6493,86	422,00
-6477,10	507,00
-6460,36	520,00
-6443,66	380,00
-6426,99	439,00
-6410,35	430,00
-6393,74	548,00
-6377,16	521,00
-6360,61	662,00
-6344,09	759,00
-6327,59	782,00
-6311,13	694,00
-6294,70	844,00
-6278,29	803,00
-6261,92	803,00
-6245,58	1079,00
-6229,26	956,00
-6212,97	843,00
-6196,72	697,00
-6180,49	603,00
-6164,29	449,00
-6148,12	446,00
-6131,98	316,00
-6115,86	281,00
-6099,78	438,00
-6083,72	240,00
-6067,69	305,00
-6051,69	325,00
-6035,72	276,00
-6019,78	429,00
-6003,87	468,00
-5987,98	716,00
-5972,12	552,00
-5956,29	560,00
-5940,49	677,00
-5924,71	586,00
-5908,96	390,00
-5893,24	367,00
-5877,55	365,00
-5861,89	314,00
-5846,25	295,00
-5830,64	411,00
-5815,05	460,00
-5799,50	323,00
-5783,97	406,00
-5768,47	417,00
-5752,99	359,00
-5737,55	793,00
-5722,12	672,00
-5706,73	718,00
-5691,36	490,00
-5676,02	434,00
-5660,71	411,00
-5645,42	352,00
-5630,16	459,00
-5614,92	318,00
-5599,71	446,00
-5584,53	383,00
-5569,37	384,00
-5554,24	1479,00
-5539,14	443,00
-5524,06	344,00
-5509,01	444,00
-5493,98	548,00
-5478,98	431,00
-5464,00	435,00
-5449,05	444,00
-5434,13	453,00
-5419,23	309,00
-5404,36	350,00
-5389,51	418,00
-5374,69	550,00
-5359,89	782,00
-5345,12	806,00
-5330,37	684,00
-5315,65	534,00
-5300,95	484,00
-5286,28	533,00
-5271,63	331,00
-5257,01	557,00
-5242,41	545,00
-5227,84	595,00
-5213,29	443,00
-5198,76	130,00
-5184,26	322,00
-5169,79	487,00
-5155,33	421,00
-5140,91	337,00
-5126,51	515,00
-5112,13	585,00
-5097,77	451,00
-5083,44	512,00
-5069,13	284,00
-5054,85	442,00
-5040,59	407,00
-5026,36	330,00
-5012,15	574,00
-4997,96	395,00
-4983,80	446,00
-4969,66	210,00
-4955,54	369,00
-4941,44	380,00
-4927,37	547,00
-4913,33	672,00
-4899,30	683,00
-4885,30	694,00
-4871,33	515,00
-4857,37	342,00
-4843,44	156,00
-4829,53	254,00
-4815,65	545,00
-4801,79	263,00
-4787,95	287,00
-4774,13	384,00
-4760,34	393,00
-4746,56	138,00
-4732,82	404,00
-4719,09	345,00
-4705,38	498,00
-4691,70	685,00
-4678,04	646,00
-4664,41	431,00
-4650,79	524,00
-4637,20	320,00
-4623,63	301,00
-4610,08	317,00
-4596,56	466,00
-4583,05	310,00
-4569,57	427,00
-4556,11	162,00
-4542,67	239,00
-4529,25	287,00
-4515,86	354,00
-4502,49	456,00
-4489,13	546,00
-4475,80	483,00
-4462,49	390,00
-4449,21	368,00
-4435,94	337,00
-4422,70	221,00
-4409,47	407,00
-4396,27	415,00
-4383,09	273,00
-4369,93	215,00
-4356,79	308,00
-4343,67	366,00
-4330,58	288,00
-4317,50	384,00
-4304,45	384,00
-4291,41	273,00
-4278,40	190,00
-4265,41	125,00
-4252,44	238,00
-4239,49	408,00
-4226,55	308,00
-4213,65	281,00
-4200,76	361,00
-4187,89	198,00
-4175,04	206,00
-4162,21	193,00
-4149,40	122,00
-4136,61	74,00
-4123,85	219,00
-4111,10	195,00
-4098,37	196,00
-4085,66	317,00
-4072,98	223,00
-4060,31	146,00
-4047,66	331,00
-4035,04	221,00
-4022,43	68,00
-4009,84	96,00
-3997,27	135,00
-3984,72	104,00
-3972,19	149,00
-3959,69	185,00
-3947,20	113,00
-3934,73	117,00
-3922,27	180,00
-3909,84	59,00
-3897,43	105,00
-3885,04	49,00
-3872,67	235,00
-3860,31	130,00
-3847,98	180,00
-3835,66	156,00
-3823,36	177,00
-3811,09	207,00
-3798,83	126,00
-3786,59	113,00
-3774,37	183,00
-3762,17	48,00
-3749,98	121,00
-3737,82	175,00
-3725,67	120,00
-3713,55	130,00
-3701,44	264,00
-3689,35	221,00
-3677,28	93,00
-3665,22	318,00
-3653,19	152,00
-3641,17	106,00
-3629,18	251,00
-3617,20	186,00
-3605,24	3,00
-3593,30	100,00
-3581,37	82,00
-3569,47	355,00
-3557,58	213,00
-3545,71	191,00
-3533,86	209,00
-3522,02	219,00
-3510,21	142,00
-3498,41	217,00
-3486,63	250,00
-3474,87	207,00
-3463,12	138,00
-3451,40	15,00
-3439,69	174,00
-3428,00	124,00
-3416,33	12,00
-3404,67	49,00
-3393,03	213,00
-3381,41	201,00
-3369,81	140,00
-3358,22	251,00
-3346,66	177,00
-3335,10	107,00
-3323,57	150,00
-3312,06	139,00
-3300,56	108,00
-3289,08	63,00
-3277,61	18,00
-3266,16	111,00
-3254,73	210,00
-3243,32	215,00
-3231,92	-6,00
-3220,55	125,00
-3209,18	122,00
-3197,84	179,00
-3186,51	155,00
-3175,20	108,00
-3163,90	299,00
-3152,63	112,00
-3141,36	136,00
-3130,12	106,00
-3118,89	31,00
-3107,68	20,00
-3096,49	232,00
-3085,31	75,00
-3074,15	124,00
-3063,00	176,00
-3051,87	75,00
-3040,76	175,00
-3029,67	157,00
-3018,59	262,00
-3007,52	272,00
-2996,48	148,00
-2985,44	157,00
-2974,43	297,00
-2963,43	193,00
-2952,45	224,00
-2941,48	216,00
-2930,53	181,00
-2919,60	99,00
-2908,68	136,00
-2897,78	195,00
-2886,89	133,00
-2876,02	78,00
-2865,17	45,00
-2854,33	-6,00
-2843,50	194,00
-2832,70	166,00
-2821,90	129,00
-2811,13	111,00
-2800,37	142,00
-2789,62	244,00
-2778,89	99,00
-2768,18	295,00
-2757,48	213,00
-2746,80	282,00
-2736,13	123,00
-2725,48	50,00
-2714,84	157,00
-2704,22	98,00
-2693,61	284,00
-2683,02	253,00
-2672,45	25,00
-2661,89	227,00
-2651,34	84,00
-2640,81	140,00
-2630,30	263,00
-2619,80	128,00
-2609,31	13,00
-2598,84	229,00
-2588,39	199,00
-2577,95	113,00
-2567,52	119,00
-2557,11	249,00
-2546,71	209,00
-2536,33	268,00
-2525,97	144,00
-2515,62	155,00
-2505,28	86,00
-2494,96	197,00
-2484,65	101,00
-2474,36	213,00
-2464,08	256,00
-2453,82	216,00
-2443,57	142,00
-2433,33	149,00
-2423,11	144,00
-2412,91	123,00
-2402,72	136,00
-2392,54	102,00
-2382,38	168,00
-2372,23	211,00
-2362,09	250,00
-2351,97	156,00
-2341,87	126,00
-2331,78	187,00
-2321,70	210,00
-2311,64	94,00
-2301,59	177,00
-2291,55	248,00
-2281,53	52,00
-2271,53	280,00
-2261,53	139,00
-2251,55	159,00
-2241,59	190,00
-2231,64	153,00
-2221,70	216,00
-2211,78	187,00
-2201,87	232,00
-2191,97	3,00
-2182,09	121,00
-2172,22	107,00
-2162,37	143,00
-2152,53	144,00
-2142,70	208,00
-2132,89	116,00
-2123,09	146,00
-2113,30	236,00
-2103,53	86,00
-2093,77	119,00
-2084,02	97,00
-2074,29	186,00
-2064,57	117,00
-2054,86	232,00
-2045,17	176,00
-2035,49	143,00
-2025,82	192,00
-2016,17	91,00
-2006,53	106,00
-1996,91	126,00
-1987,29	76,00
-1977,69	216,00
-1968,11	224,00
-1958,53	322,00
-1948,97	252,00
-1939,42	248,00
-1929,89	26,00
-1920,37	289,00
-1910,86	140,00
-1901,36	157,00
-1891,88	115,00
-1882,41	136,00
-1872,95	296,00
-1863,51	81,00
-1854,08	181,00
-1844,66	95,00
-1835,26	121,00
-1825,86	198,00
-1816,48	130,00
-1807,11	138,00
-1797,76	163,00
-1788,42	258,00
-1779,09	145,00
-1769,77	108,00
-1760,47	170,00
-1751,17	129,00
-1741,89	176,00
-1732,63	114,00
-1723,37	45,00
-1714,13	103,00
-1704,90	26,00
-1695,68	238,00
-1686,48	151,00
-1677,29	157,00
-1668,11	252,00
-1658,94	177,00
-1649,78	131,00
-1640,64	135,00
-1631,51	160,00
-1622,39	101,00
-1613,28	255,00
-1604,19	115,00
-1595,10	180,00
-1586,03	169,00
-1576,97	256,00
-1567,93	109,00
-1558,89	87,00
-1549,87	200,00
-1540,86	169,00
-1531,86	140,00
-1522,87	67,00
-1513,90	80,00
-1504,93	248,00
-1495,98	40,00
-1487,04	179,00
-1478,12	240,00
-1469,20	140,00
-1460,30	156,00
-1451,40	253,00
-1442,52	163,00
-1433,65	83,00
-1424,80	222,00
-1415,95	276,00
-1407,12	234,00
-1398,30	130,00
-1389,48	210,00
-1380,69	188,00
-1371,90	297,00
-1363,12	124,00
-1354,36	212,00
-1345,60	175,00
-1336,86	293,00
-1328,13	105,00
-1319,41	115,00
-1310,70	130,00
-1302,01	232,00
-1293,32	311,00
-1284,65	237,00
-1275,99	239,00
-1267,33	163,00
-1258,69	116,00
-1250,06	274,00
-1241,45	201,00
-1232,84	207,00
-1224,25	72,00
-1215,66	209,00
-1207,09	119,00
-1198,53	86,00
-1189,97	154,00
-1181,43	183,00
-1172,91	141,00
-1164,39	204,00
-1155,88	108,00
-1147,38	50,00
-1138,90	124,00
-1130,43	129,00
-1121,96	232,00
-1113,51	65,00
-1105,07	116,00
-1096,64	184,00
-1088,22	225,00
-1079,81	178,00
-1071,41	200,00
-1063,02	206,00
-1054,65	286,00
-1046,28	172,00
-1037,92	90,00
-1029,58	189,00
-1021,24	108,00
-1012,92	252,00
-1004,61	108,00
-996,30	39,00
-988,01	122,00
-979,73	312,00
-971,46	54,00
-963,20	56,00
-954,95	154,00
-946,71	86,00
-938,48	173,00
-930,26	65,00
-922,06	133,00
-913,86	248,00
-905,67	231,00
-897,49	80,00
-889,33	200,00
-881,17	162,00
-873,02	180,00
-864,89	41,00
-856,76	113,00
-848,65	214,00
-840,54	78,00
-832,45	170,00
-824,36	87,00
-816,29	229,00
-808,22	131,00
-800,17	153,00
-792,12	155,00
-784,09	292,00
-776,06	159,00
-768,05	108,00
-760,04	155,00
-752,05	168,00
-744,07	207,00
-736,09	147,00
-728,13	219,00
-720,17	193,00
-712,23	249,00
-704,29	70,00
-696,37	185,00
-688,45	173,00
-680,55	68,00
-672,65	334,00
-664,77	182,00
-656,89	146,00
-649,03	197,00
-641,17	98,00
-633,32	258,00
-625,49	223,00
-617,66	230,00
-609,84	43,00
-602,03	172,00
-594,23	236,00
-586,45	101,00
-578,67	181,00
-570,90	92,00
-563,14	127,00
-555,39	270,00
-547,65	195,00
-539,91	57,00
-532,19	224,00
-524,48	209,00
-516,78	198,00
-509,08	149,00
-501,40	144,00
-493,72	113,00
-486,06	127,00
-478,40	165,00
-470,76	21,00
-463,12	102,00
-455,49	170,00
-447,87	161,00
-440,26	105,00
-432,66	139,00
-425,07	114,00
-417,49	151,00
-409,92	164,00
-402,35	118,00
-394,80	235,00
-387,25	159,00
-379,72	120,00
-372,19	224,00
-364,67	450,00
-357,17	109,00
-349,67	173,00
-342,18	232,00
-334,69	349,00
-327,22	98,00
-319,76	19,00
-312,30	272,00
-304,86	130,00
-297,42	241,00
-290,00	267,00
-282,58	118,00
-275,17	193,00
-267,77	261,00
-260,37	225,00
-252,99	245,00
-245,62	204,00
-238,25	143,00
-230,90	173,00
-223,55	418,00
-216,21	244,00
-208,88	397,00
-201,56	291,00
-194,25	173,00
-186,94	303,00
-179,65	343,00
-172,36	401,00
-165,08	289,00
-157,81	387,00
-150,55	173,00
-143,30	423,00
-136,06	481,00
-128,82	396,00
-121,60	419,00
-114,38	337,00
-107,17	310,00
-99,97	434,00
-92,78	687,00
-85,60	639,00
-78,42	696,00
-71,25	832,00
-64,10	1033,00
-56,95	1148,00
-49,81	1379,00
-42,67	1616,00
-35,55	2104,00
-28,43	2657,00
-21,33	4645,00
-14,23	15950,00
-7,14	47266,00
-0,05	38051,00
7,02	42597,00
14,09	40962,00
21,14	11110,00
28,19	4989,00
35,23	3286,00
42,27	2315,00
49,29	2158,00
56,31	1636,00
63,32	1516,00
70,32	1398,00
77,31	1109,00
84,29	973,00
91,27	738,00
98,23	680,00
105,19	693,00
112,14	834,00
119,09	994,00
126,02	1391,00
132,95	1407,00
139,87	1429,00
146,78	1395,00
153,68	1255,00
160,58	1365,00
167,46	1363,00
174,34	1380,00
181,21	1260,00
188,08	1247,00
194,93	1336,00
201,78	1278,00
208,62	1272,00
215,45	1202,00
222,27	1298,00
229,09	1232,00
235,90	1257,00
242,70	1221,00
249,49	1296,00
256,27	1210,00
263,05	1031,00
269,82	1136,00
276,58	1246,00
283,33	1164,00
290,08	1218,00
296,82	1230,00
303,55	1048,00
310,27	1153,00
316,98	1100,00
323,69	1146,00
330,39	1027,00
337,08	1110,00
343,76	1071,00
350,44	1047,00
357,11	995,00
363,77	1091,00
370,42	1044,00
377,07	1088,00
383,71	1085,00
390,34	969,00
396,96	996,00
403,58	1024,00
410,19	995,00
416,79	950,00
423,38	961,00
429,97	877,00
436,55	975,00
443,12	995,00
449,68	992,00
456,24	950,00
462,79	888,00
469,33	848,00
475,86	905,00
482,39	980,00
488,91	901,00
495,42	859,00
501,93	942,00
508,42	866,00
514,91	876,00
521,40	856,00
527,87	870,00
534,34	808,00
540,80	894,00
547,25	805,00
553,70	939,00
560,14	695,00
566,57	845,00
573,00	734,00
579,41	810,00
585,83	819,00
592,23	930,00
598,62	788,00
605,01	749,00
611,40	832,00
617,77	831,00
624,14	813,00
630,50	860,00
636,85	658,00
643,20	804,00
649,54	820,00
655,87	692,00
662,20	890,00
668,52	715,00
674,83	777,00
681,13	891,00
687,43	743,00
693,72	719,00
700,00	740,00
706,28	834,00
712,55	754,00
718,81	835,00
725,07	826,00
731,32	609,00
737,56	788,00
743,79	773,00
750,02	855,00
756,24	776,00
762,46	741,00
768,67	877,00
774,87	705,00
781,06	793,00
787,25	806,00
793,43	768,00
799,60	790,00
805,77	831,00
811,93	699,00
818,08	760,00
824,23	792,00
830,37	712,00
836,50	756,00
842,63	761,00
848,75	809,00
854,87	766,00
860,97	842,00
867,07	951,00
873,17	894,00
879,25	716,00
885,33	829,00
891,41	710,00
897,47	757,00
903,53	706,00
909,59	591,00
915,63	896,00
921,67	809,00
927,71	692,00
933,74	768,00
939,76	684,00
945,77	614,00
951,78	756,00
957,78	704,00
963,78	695,00
969,77	601,00
975,75	658,00
981,72	758,00
987,69	1030,00
993,66	770,00
999,61	678,00
1005,56	891,00
1011,51	668,00
1017,44	703,00
1023,37	699,00
1029,30	792,00
1035,22	759,00
1041,13	812,00
1047,03	719,00
1052,93	1000,00
1058,83	1169,00
1064,71	1285,00
1070,59	1160,00
1076,47	881,00
1082,33	757,00
1088,20	752,00
1094,05	836,00
1099,90	765,00
1105,74	768,00
1111,58	757,00
1117,41	883,00
1123,23	1091,00
1129,05	1308,00
1134,86	1251,00
1140,67	894,00
1146,47	877,00
1152,26	649,00
1158,05	785,00
1163,83	842,00
1169,60	758,00
1175,37	853,00
1181,13	637,00
1186,89	722,00
1192,64	736,00
1198,38	684,00
1204,12	583,00
1209,85	626,00
1215,58	718,00
1221,30	702,00
1227,02	744,00
1232,72	624,00
1238,43	699,00
1244,12	881,00
1249,81	684,00
1255,50	781,00
1261,17	735,00
1266,85	834,00
1272,51	844,00
1278,17	816,00
1283,83	971,00
1289,47	1194,00
1295,12	1594,00
1300,75	1456,00
1306,38	1078,00
1312,01	943,00
1317,63	889,00
1323,24	970,00
1328,85	876,00
1334,45	896,00
1340,04	740,00
1345,63	867,00
1351,22	789,00
1356,80	786,00
1362,37	808,00
1367,93	964,00
1373,49	895,00
1379,05	879,00
1384,60	838,00
1390,14	919,00
1395,68	949,00
1401,21	840,00
1406,74	810,00
1412,26	1171,00
1417,77	1154,00
1423,28	1201,00
1428,78	1211,00
1434,28	1329,00
1439,77	1575,00
1445,26	1582,00
1450,74	1600,00
1456,22	1215,00
1461,68	1305,00
1467,15	1190,00
1472,61	1173,00
1478,06	1168,00
1483,51	912,00
1488,95	930,00
1494,38	814,00
1499,81	656,00
1505,24	768,00
1510,65	739,00
1516,07	856,00
1521,48	690,00
1526,88	627,00
1532,27	773,00
1537,67	793,00
1543,05	839,00
1548,43	681,00
1553,81	628,00
1559,18	798,00
1564,54	657,00
1569,90	634,00
1575,25	644,00
1580,60	832,00
1585,94	571,00
1591,28	602,00
1596,61	760,00
1601,93	674,00
1607,25	651,00
1612,57	626,00
1617,88	652,00
1623,18	771,00
1628,48	721,00
1633,77	752,00
1639,06	687,00
1644,34	640,00
1649,62	583,00
1654,89	675,00
1660,16	629,00
1665,42	640,00
1670,67	644,00
1675,92	732,00
1681,17	599,00
1686,41	577,00
1691,64	684,00
1696,87	639,00
1702,10	583,00
1707,32	506,00
1712,53	503,00
1717,74	677,00
1722,94	571,00
1728,14	632,00
1733,33	625,00
1738,52	684,00
1743,70	628,00
1748,88	602,00
1754,05	721,00
1759,22	537,00
1764,38	509,00
1769,53	520,00
1774,69	558,00
1779,83	578,00
1784,97	561,00
1790,11	503,00
1795,24	408,00
1800,36	615,00
1805,48	632,00
1810,60	622,00
1815,71	500,00
1820,82	637,00
1825,92	559,00
1831,01	567,00
1836,10	606,00
1841,19	656,00
1846,26	571,00
1851,34	577,00
1856,41	519,00
1861,47	588,00
1866,53	406,00
1871,59	536,00
1876,64	578,00
1881,68	501,00
1886,72	508,00
1891,76	493,00
1896,79	581,00
1901,81	584,00
1906,83	473,00
1911,85	537,00
1916,86	586,00
1921,86	453,00
1926,86	495,00
1931,86	670,00
1936,85	530,00
1941,83	623,00
1946,81	428,00
1951,79	679,00
1956,76	395,00
1961,72	646,00
1966,68	473,00
1971,64	477,00
1976,59	395,00
1981,54	561,00
1986,48	480,00
1991,42	459,00
1996,35	477,00
2001,27	403,00
2006,20	615,00
2011,11	622,00
2016,03	455,00
2020,93	549,00
2025,84	401,00
2030,73	413,00
2035,63	432,00
2040,52	484,00
2045,40	383,00
2050,28	396,00
2055,15	503,00
2060,02	524,00
2064,89	609,00
2069,75	394,00
2074,60	454,00
2079,46	371,00
2084,30	555,00
2089,14	488,00
2093,98	502,00
2098,81	445,00
2103,64	550,00
2108,46	404,00
2113,28	545,00
2118,09	436,00
2122,90	565,00
2127,70	538,00
2132,50	402,00
2137,30	505,00
2142,09	550,00
2146,87	493,00
2151,66	464,00
2156,43	459,00
2161,20	438,00
2165,97	456,00
2170,73	422,00
2175,49	471,00
2180,24	369,00
2184,99	453,00
2189,74	438,00
2194,48	502,00
2199,21	414,00
2203,94	455,00
2208,67	413,00
2213,39	425,00
2218,11	352,00
2222,82	396,00
2227,53	412,00
2232,23	416,00
2236,93	509,00
2241,63	425,00
2246,32	493,00
2251,00	483,00
2255,68	471,00
2260,36	379,00
2265,03	434,00
2269,70	423,00
2274,36	457,00
2279,02	421,00
2283,68	477,00
2288,33	454,00
2292,97	356,00
2297,61	459,00
2302,25	465,00
2306,88	421,00
2311,51	427,00
2316,14	439,00
2320,75	543,00
2325,37	399,00
2329,98	405,00
2334,59	471,00
2339,19	492,00
2343,79	281,00
2348,38	468,00
2352,97	391,00
2357,55	416,00
2362,13	458,00
2366,71	423,00
2371,28	366,00
2375,85	468,00
2380,41	438,00
2384,97	364,00
2389,52	236,00
2394,07	355,00
2398,62	348,00
2403,16	495,00
2407,70	419,00
2412,23	393,00
2416,76	353,00
2421,29	295,00
2425,81	444,00
2430,32	411,00
2434,84	274,00
2439,34	433,00
2443,85	356,00
2448,35	479,00
2452,84	380,00
2457,33	452,00
2461,82	339,00
2466,30	339,00
2470,78	477,00
2475,25	260,00
2479,72	380,00
2484,19	470,00
2488,65	479,00
2493,11	417,00
2497,56	369,00
2502,01	337,00
2506,46	376,00
2510,90	397,00
2515,34	253,00
2519,77	386,00
2524,20	441,00
2528,62	400,00
2533,04	456,00
2537,46	415,00
2541,87	311,00
2546,28	418,00
2550,68	398,00
2555,08	349,00
2559,48	360,00
2563,87	352,00
2568,26	381,00
2572,64	429,00
2577,02	400,00
2581,40	377,00
2585,77	372,00
2590,14	317,00
2594,50	408,00
2598,86	332,00
2603,22	321,00
2607,57	385,00
2611,92	420,00
2616,26	340,00
2620,60	436,00
2624,94	273,00
2629,27	339,00
2633,60	399,00
2637,92	230,00
2642,24	315,00
2646,56	311,00
2650,87	317,00
2655,18	367,00
2659,48	310,00
2663,78	335,00
2668,08	478,00
2672,37	456,00
2676,66	347,00
2680,95	359,00
2685,23	432,00
2689,50	333,00
2693,78	344,00
2698,05	340,00
2702,31	361,00
2706,57	361,00
2710,83	342,00
2715,08	400,00
2719,33	542,00
2723,58	546,00
2727,82	362,00
2732,06	492,00
2736,29	347,00
2740,53	524,00
2744,75	389,00
2748,97	441,00
2753,19	612,00
2757,41	281,00
2761,62	391,00
2765,83	450,00
2770,03	296,00
2774,23	356,00
2778,43	420,00
2782,62	596,00
2786,81	409,00
2791,00	432,00
2795,18	557,00
2799,35	427,00
2803,53	394,00
2807,70	519,00
2811,86	488,00
2816,03	552,00
2820,19	442,00
2824,34	554,00
2828,49	539,00
2832,64	803,00
2836,78	722,00
2840,92	1087,00
2845,06	1174,00
2849,19	1391,00
2853,32	1445,00
2857,45	1387,00
2861,57	1326,00
2865,69	1244,00
2869,80	1263,00
2873,91	1150,00
2878,02	1218,00
2882,12	1397,00
2886,22	1493,00
2890,32	1327,00
2894,41	1216,00
2898,50	1101,00
2902,58	1043,00
2906,67	1042,00
2910,74	889,00
2914,82	843,00
2918,89	885,00
2922,96	665,00
2927,02	717,00
2931,08	722,00
2935,13	641,00
2939,19	577,00
2943,24	577,00
2947,28	565,00
2951,32	483,00
2955,36	459,00
2959,40	443,00
2963,43	452,00
2967,46	576,00
2971,48	319,00
2975,50	526,00
2979,52	289,00
2983,53	329,00
2987,54	353,00
2991,55	284,00
2995,55	304,00
2999,55	398,00
3003,54	368,00
3007,54	136,00
3011,53	297,00
3015,51	311,00
3019,49	247,00
3023,47	226,00
3027,45	403,00
3031,42	249,00
3035,39	327,00
3039,35	298,00
3043,31	275,00
3047,27	262,00
3051,22	351,00
3055,17	233,00
3059,12	189,00
3063,06	259,00
3067,00	204,00
3070,94	360,00
3074,87	247,00
3078,80	320,00
3082,73	307,00
3086,65	170,00
3090,57	221,00
3094,49	187,00
3098,40	333,00
3102,31	316,00
3106,22	339,00
3110,12	296,00
3114,02	173,00
3117,92	220,00
3121,81	184,00
3125,70	187,00
3129,58	282,00
3133,47	128,00
3137,34	166,00
3141,22	300,00
3145,09	288,00
3148,96	251,00
3152,83	340,00
3156,69	276,00
3160,55	230,00
3164,40	240,00
3168,26	206,00
3172,10	330,00
3175,95	201,00
3179,79	174,00
3183,63	214,00
3187,47	261,00
3191,30	237,00
3195,13	255,00
3198,95	127,00
3202,78	251,00
3206,60	341,00
3210,41	274,00
3214,23	173,00
3218,03	293,00
3221,84	184,00
3225,64	269,00
3229,44	164,00
3233,24	161,00
3237,03	204,00
3240,82	190,00
3244,61	132,00
3248,39	196,00
3252,17	358,00
3255,95	196,00
3259,72	218,00
3263,49	213,00
3267,26	257,00
3271,03	258,00
3274,79	138,00
3278,54	208,00
3282,30	263,00
3286,05	222,00
3289,80	162,00
3293,54	188,00
3297,29	280,00
3301,02	257,00
3304,76	221,00
3308,49	207,00
3312,22	242,00
3315,95	89,00
3319,67	318,00
3323,39	212,00
3327,10	212,00
3330,82	205,00
3334,53	280,00
3338,24	205,00
3341,94	253,00
3345,64	193,00
3349,34	234,00
3353,03	336,00
3356,72	329,00
3360,41	233,00
3364,10	303,00
3367,78	101,00
3371,46	227,00
3375,13	213,00
3378,81	138,00
3382,48	257,00
3386,14	138,00
3389,81	200,00
3393,47	223,00
3397,12	205,00
3400,78	146,00
3404,43	370,00
3408,08	275,00
3411,72	241,00
3415,36	166,00
3419,00	197,00
3422,64	237,00
3426,27	231,00
3429,90	111,00
3433,53	211,00
3437,15	175,00
3440,77	258,00
3444,39	227,00
3448,00	78,00
3451,62	226,00
3455,22	199,00
3458,83	158,00
3462,43	224,00
3466,03	79,00
3469,63	218,00
3473,22	174,00
3476,81	242,00
3480,40	115,00
3483,99	105,00
3487,57	94,00
3491,15	220,00
3494,72	140,00
3498,29	184,00
3501,86	221,00
3505,43	58,00
3508,99	248,00
3512,56	179,00
3516,11	260,00
3519,67	143,00
3523,22	123,00
3526,77	146,00
3530,32	265,00
3533,86	176,00
3537,40	76,00
3540,94	242,00
3544,47	232,00
3548,00	230,00
3551,53	138,00
3555,06	143,00
3558,58	194,00
3562,10	176,00
3565,62	346,00
3569,13	132,00
3572,64	136,00
3576,15	155,00
3579,66	167,00
3583,16	228,00
3586,66	91,00
3590,16	175,00
3593,65	177,00
3597,14	170,00
3600,63	167,00
3604,11	272,00
3607,60	121,00
3611,08	159,00
3614,55	162,00
3618,03	182,00
3621,50	172,00
3624,97	155,00
3628,43	188,00
3631,90	166,00
3635,36	207,00
3638,81	151,00
3642,27	83,00
3645,72	283,00
3649,17	154,00
3652,61	108,00
3656,06	206,00
3659,50	194,00
3662,93	253,00
3666,37	64,00
3669,80	179,00
3673,23	173,00
3676,65	173,00
3680,08	174,00
3683,50	102,00
3686,92	129,00
3690,33	129,00
3693,74	127,00
3697,15	289,00
3700,56	163,00
3703,96	110,00
3707,36	153,00
3710,76	56,00
3714,16	198,00
3717,55	217,00
3720,94	128,00
3724,33	62,00
3727,71	109,00
3731,10	162,00
3734,48	183,00
3737,85	164,00
3741,23	108,00
3744,60	212,00
3747,97	102,00
3751,33	131,00
3754,69	121,00
3758,05	270,00
3761,41	142,00
3764,77	241,00
3768,12	188,00
3771,47	184,00
3774,82	137,00
3778,16	-10,00
3781,50	6,00
3784,84	0,00
3788,18	6,00
>>>>>End Processed Spectral Data<<<<<
