SpectraSuite Data File
++++++++++++++++++++++++++++++++++++
Date: Tue Mar 03 12:30:31 ICT 2026
User: user
Dark Spectrum Present: Yes
Reference Spectrum Present: No
Number of Sampled Component Spectra: 1
Spectrometers: MAYP113682
Integration Time (usec): 3000000 (MAYP113682)
Spectra Averaged: 1 (MAYP113682)
Boxcar Smoothing: 0 (MAYP113682)
Correct for Electrical Dark: No (MAYP113682)
Strobe/Lamp Enabled: No (MAYP113682)
Correct for Detector Non-linearity: No (MAYP113682)
Correct for Stray Light: No (MAYP113682)
Number of Pixels in Processed Spectrum: 2068
>>>>>Begin Processed Spectral Data<<<<<
-37534,58	9,00
-37414,56	2,00
-37295,11	2,00
-37176,24	-5,00
-37057,95	33,00
-36940,22	-84,00
-36823,05	37,00
-36706,45	7,00
-36590,40	29,00
-36474,90	75,00
-36359,95	23,00
-36245,55	185,00
-36131,68	12,00
-36018,35	34,00
-35905,55	24,00
-35793,29	31,00
-35681,54	101,00
-35570,32	-40,00
-35459,62	-82,00
-35349,43	29,00
-35239,75	155,00
-35130,58	87,00
-35021,91	31,00
-34913,74	122,00
-34806,07	57,00
-34698,89	58,00
-34592,20	-48,00
-34486,00	153,00
-34380,28	-32,00
-34275,04	-58,00
-34170,27	-42,00
-34065,98	38,00
-33962,16	93,00
-33858,81	41,00
-33755,92	64,00
-33653,49	84,00
-33551,52	28,00
-33450,01	36,00
-33348,94	29,00
-33248,33	28,00
-33148,16	19,00
-33048,43	42,00
-32949,14	69,00
-32850,29	163,00
-32751,87	51,00
-32653,89	96,00
-32556,33	91,00
-32459,20	-20,00
-32362,49	1,00
-32266,19	100,00
-32170,32	24,00
-32074,86	-22,00
-31979,82	42,00
-31885,18	-99,00
-31790,95	36,00
-31697,12	126,00
-31603,69	9,00
-31510,67	26,00
-31418,04	112,00
-31325,80	108,00
-31233,95	135,00
-31142,49	57,00
-31051,42	73,00
-30960,73	82,00
-30870,43	116,00
-30780,50	143,00
-30690,95	56,00
-30601,77	86,00
-30512,97	-39,00
-30424,53	90,00
-30336,46	79,00
-30248,76	50,00
-30161,42	-50,00
-30074,44	38,00
-29987,81	52,00
-29901,55	13,00
-29815,63	28,00
-29730,07	-61,00
-29644,86	-93,00
-29560,00	31,00
-29475,48	52,00
-29391,30	36,00
-29307,47	21,00
-29223,97	120,00
-29140,81	-34,00
-29057,99	3,00
-28975,50	16,00
-28893,34	109,00
-28811,51	62,00
-28730,00	172,00
-28648,82	42,00
-28567,97	31,00
-28487,43	52,00
-28407,21	40,00
-28327,32	-72,00
-28247,73	-104,00
-28168,46	96,00
-28089,50	8,00
-28010,85	-28,00
-27932,51	96,00
-27854,48	61,00
-27776,75	47,00
-27699,32	-19,00
-27622,19	175,00
-27545,37	59,00
-27468,84	31,00
-27392,60	-54,00
-27316,66	-26,00
-27241,01	-40,00
-27165,66	127,00
-27090,59	-5,00
-27015,81	192,00
-26941,31	91,00
-26867,10	98,00
-26793,17	-15,00
-26719,52	120,00
-26646,15	16,00
-26573,06	231,00
-26500,24	72,00
-26427,70	109,00
-26355,43	86,00
-26283,43	-45,00
-26211,71	-28,00
-26140,25	36,00
-26069,06	139,00
-25998,13	-55,00
-25927,46	23,00
-25857,06	78,00
-25786,92	100,00
-25717,04	-75,00
-25647,42	97,00
-25578,05	19,00
-25508,94	-28,00
-25440,09	119,00
-25371,48	10,00
-25303,13	116,00
-25235,02	80,00
-25167,17	-14,00
-25099,56	-5,00
-25032,19	137,00
-24965,07	112,00
-24898,20	-15,00
-24831,56	56,00
-24765,17	-41,00
-24699,01	108,00
-24633,10	40,00
-24567,41	-197,00
-24501,97	100,00
-24436,75	-121,00
-24371,77	19,00
-24307,03	32,00
-24242,51	11,00
-24178,22	8,00
-24114,16	-10,00
-24050,32	-3,00
-23986,71	-45,00
-23923,32	43,00
-23860,16	-31,00
-23797,22	99,00
-23734,50	35,00
-23672,00	22,00
-23609,71	176,00
-23547,65	10,00
-23485,80	113,00
-23424,16	20,00
-23362,74	71,00
-23301,53	18,00
-23240,54	42,00
-23179,75	0,00
-23119,17	117,00
-23058,80	222,00
-22998,64	108,00
-22938,68	78,00
-22878,93	7,00
-22819,39	109,00
-22760,04	-88,00
-22700,90	-77,00
-22641,96	0,00
-22583,22	36,00
-22524,68	77,00
-22466,33	67,00
-22408,19	24,00
-22350,23	4,00
-22292,48	42,00
-22234,92	104,00
-22177,55	92,00
-22120,37	48,00
-22063,38	44,00
-22006,58	52,00
-21949,98	28,00
-21893,56	106,00
-21837,33	20,00
-21781,28	81,00
-21725,42	111,00
-21669,74	29,00
-21614,25	65,00
-21558,94	16,00
-21503,81	75,00
-21448,86	4,00
-21394,10	41,00
-21339,51	170,00
-21285,10	50,00
-21230,86	-60,00
-21176,81	63,00
-21122,93	146,00
-21069,22	41,00
-21015,69	75,00
-20962,33	-3,00
-20909,14	50,00
-20856,13	152,00
-20803,28	-29,00
-20750,61	-21,00
-20698,10	99,00
-20645,76	63,00
-20593,59	152,00
-20541,59	9,00
-20489,75	48,00
-20438,07	-4,00
-20386,56	163,00
-20335,22	2,00
-20284,03	42,00
-20233,01	60,00
-20182,15	-19,00
-20131,45	64,00
-20080,91	63,00
-20030,52	99,00
-19980,30	100,00
-19930,23	-37,00
-19880,32	41,00
-19830,56	88,00
-19780,96	-7,00
-19731,52	76,00
-19682,23	-152,00
-19633,09	27,00
-19584,10	165,00
-19535,26	96,00
-19486,58	-16,00
-19438,04	-58,00
-19389,66	16,00
-19341,42	35,00
-19293,33	0,00
-19245,39	36,00
-19197,60	-4,00
-19149,95	165,00
-19102,45	60,00
-19055,09	25,00
-19007,87	54,00
-18960,80	124,00
-18913,87	53,00
-18867,09	-76,00
-18820,44	20,00
-18773,94	192,00
-18727,57	-10,00
-18681,35	110,00
-18635,26	71,00
-18589,31	144,00
-18543,50	53,00
-18497,83	-52,00
-18452,29	76,00
-18406,89	42,00
-18361,63	-59,00
-18316,50	-21,00
-18271,50	-7,00
-18226,63	130,00
-18181,90	46,00
-18137,30	71,00
-18092,84	-31,00
-18048,50	-32,00
-18004,29	19,00
-17960,22	-23,00
-17916,27	25,00
-17872,45	128,00
-17828,76	-28,00
-17785,20	-9,00
-17741,77	-13,00
-17698,46	-45,00
-17655,28	184,00
-17612,22	-76,00
-17569,29	76,00
-17526,48	-6,00
-17483,79	19,00
-17441,23	-26,00
-17398,79	37,00
-17356,48	28,00
-17314,28	114,00
-17272,21	-32,00
-17230,26	44,00
-17188,42	53,00
-17146,71	189,00
-17105,12	4,00
-17063,64	103,00
-17022,28	-8,00
-16981,04	2,00
-16939,92	128,00
-16898,91	-10,00
-16858,02	23,00
-16817,25	92,00
-16776,59	93,00
-16736,04	69,00
-16695,61	115,00
-16655,29	99,00
-16615,09	-9,00
-16574,99	-40,00
-16535,01	98,00
-16495,15	32,00
-16455,39	6,00
-16415,74	34,00
-16376,21	-76,00
-16336,78	-20,00
-16297,46	98,00
-16258,26	45,00
-16219,16	-5,00
-16180,17	43,00
-16141,28	84,00
-16102,51	-104,00
-16063,84	34,00
-16025,27	113,00
-15986,82	-4,00
-15948,46	-106,00
-15910,22	122,00
-15872,07	25,00
-15834,04	-10,00
-15796,10	65,00
-15758,27	225,00
-15720,54	57,00
-15682,91	37,00
-15645,39	30,00
-15607,97	135,00
-15570,64	-60,00
-15533,42	-21,00
-15496,30	80,00
-15459,28	72,00
-15422,36	57,00
-15385,54	-32,00
-15348,82	162,00
-15312,19	-79,00
-15275,66	-23,00
-15239,23	20,00
-15202,90	30,00
-15166,67	115,00
-15130,53	-79,00
-15094,48	-33,00
-15058,54	195,00
-15022,68	-31,00
-14986,93	151,00
-14951,26	-26,00
-14915,69	-156,00
-14880,22	98,00
-14844,84	15,00
-14809,55	112,00
-14774,35	-45,00
-14739,25	114,00
-14704,24	3,00
-14669,32	-16,00
-14634,49	120,00
-14599,75	103,00
-14565,10	144,00
-14530,55	-50,00
-14496,08	154,00
-14461,70	190,00
-14427,41	-59,00
-14393,21	36,00
-14359,10	64,00
-14325,07	103,00
-14291,14	132,00
-14257,29	-16,00
-14223,52	76,00
-14189,85	51,00
-14156,26	46,00
-14122,76	28,00
-14089,34	88,00
-14056,01	110,00
-14022,76	80,00
-13989,60	48,00
-13956,52	42,00
-13923,53	97,00
-13890,62	-82,00
-13857,79	-4,00
-13825,05	2,00
-13792,39	131,00
-13759,81	136,00
-13727,31	-51,00
-13694,90	-6,00
-13662,57	112,00
-13630,31	49,00
-13598,14	54,00
-13566,05	-1,00
-13534,05	-34,00
-13502,12	47,00
-13470,27	-29,00
-13438,50	27,00
-13406,80	104,00
-13375,19	7,00
-13343,66	-25,00
-13312,20	-43,00
-13280,83	38,00
-13249,53	56,00
-13218,30	60,00
-13187,16	-72,00
-13156,09	32,00
-13125,10	142,00
-13094,18	164,00
-13063,34	-51,00
-13032,58	73,00
-13001,89	-55,00
-12971,28	56,00
-12940,74	28,00
-12910,27	88,00
-12879,88	-19,00
-12849,57	87,00
-12819,33	-6,00
-12789,16	0,00
-12759,06	50,00
-12729,04	6,00
-12699,09	-1516,00
-12669,21	57,00
-12639,41	-41,00
-12609,68	89,00
-12580,02	-34,00
-12550,43	-75,00
-12520,91	97,00
-12491,46	-19,00
-12462,08	60,00
-12432,77	-70,00
-12403,54	-16,00
-12374,37	20,00
-12345,27	-96,00
-12316,24	128,00
-12287,29	-42,00
-12258,40	79,00
-12229,57	88,00
-12200,82	51,00
-12172,14	-22,00
-12143,52	29,00
-12114,97	33,00
-12086,49	37,00
-12058,07	139,00
-12029,73	-100,00
-12001,44	0,00
-11973,23	64,00
-11945,08	7,00
-11917,00	102,00
-11888,98	105,00
-11861,03	15,00
-11833,15	66,00
-11805,32	88,00
-11777,57	2,00
-11749,88	60,00
-11722,25	59,00
-11694,69	53,00
-11667,19	-43,00
-11639,75	-26,00
-11612,38	23,00
-11585,07	55,00
-11557,83	35,00
-11530,65	-34,00
-11503,53	125,00
-11476,47	42,00
-11449,48	70,00
-11422,54	78,00
-11395,67	-14,00
-11368,86	69,00
-11342,11	4,00
-11315,43	-49,00
-11288,80	143,00
-11262,23	169,00
-11235,73	208,00
-11209,28	-5,00
-11182,90	91,00
-11156,57	-79,00
-11130,31	162,00
-11104,10	108,00
-11077,96	57,00
-11051,87	166,00
-11025,84	28,00
-10999,87	183,00
-10973,96	62,00
-10948,11	4,00
-10922,31	-75,00
-10896,58	97,00
-10870,90	92,00
-10845,28	98,00
-10819,71	-49,00
-10794,20	107,00
-10768,75	195,00
-10743,36	69,00
-10718,02	1,00
-10692,74	19,00
-10667,52	155,00
-10642,35	85,00
-10617,24	198,00
-10592,18	168,00
-10567,18	181,00
-10542,23	36,00
-10517,34	220,00
-10492,51	187,00
-10467,72	191,00
-10443,00	260,00
-10418,32	234,00
-10393,70	195,00
-10369,14	244,00
-10344,63	249,00
-10320,17	257,00
-10295,77	271,00
-10271,42	294,00
-10247,12	148,00
-10222,88	405,00
-10198,68	362,00
-10174,54	378,00
-10150,46	562,00
-10126,42	340,00
-10102,44	598,00
-10078,51	456,00
-10054,63	569,00
-10030,80	511,00
-10007,03	460,00
-9983,30	586,00
-9959,63	562,00
-9936,01	661,00
-9912,44	721,00
-9888,92	678,00
-9865,44	777,00
-9842,02	805,00
-9818,65	758,00
-9795,33	722,00
-9772,06	838,00
-9748,84	877,00
-9725,67	1009,00
-9702,55	1118,00
-9679,47	1441,00
-9656,45	1465,00
-9633,47	1574,00
-9610,55	1595,00
-9587,67	1581,00
-9564,84	1784,00
-9542,06	1865,00
-9519,32	2164,00
-9496,64	2354,00
-9474,00	2466,00
-9451,41	2636,00
-9428,87	2669,00
-9406,37	2428,00
-9383,92	2392,00
-9361,52	2104,00
-9339,17	2222,00
-9316,86	2528,00
-9294,60	2991,00
-9272,38	3189,00
-9250,21	3419,00
-9228,09	3416,00
-9206,01	3351,00
-9183,98	3049,00
-9162,00	2487,00
-9140,06	2581,00
-9118,16	2373,00
-9096,31	2598,00
-9074,51	2639,00
-9052,75	2509,00
-9031,04	2489,00
-9009,37	2311,00
-8987,74	1966,00
-8966,16	1776,00
-8944,63	1544,00
-8923,14	1314,00
-8901,69	1627,00
-8880,29	1889,00
-8858,93	2129,00
-8837,61	2199,00
-8816,34	2486,00
-8795,11	2399,00
-8773,92	2301,00
-8752,78	1914,00
-8731,68	1840,00
-8710,62	1879,00
-8689,61	1947,00
-8668,63	2084,00
-8647,70	2329,00
-8626,82	2257,00
-8605,97	2148,00
-8585,17	2017,00
-8564,41	1828,00
-8543,69	1693,00
-8523,01	1669,00
-8502,37	1675,00
-8481,78	1662,00
-8461,23	1715,00
-8440,71	1921,00
-8420,24	2081,00
-8399,81	2171,00
-8379,42	2232,00
-8359,08	1895,00
-8338,77	1743,00
-8318,50	1659,00
-8298,27	1515,00
-8278,09	1710,00
-8257,94	1675,00
-8237,83	1996,00
-8217,76	1957,00
-8197,74	1944,00
-8177,75	1861,00
-8157,80	1782,00
-8137,89	1674,00
-8118,02	1765,00
-8098,19	1536,00
-8078,40	1656,00
-8058,65	1681,00
-8038,93	1743,00
-8019,26	1769,00
-7999,62	1691,00
-7980,02	1541,00
-7960,46	1658,00
-7940,94	1552,00
-7921,46	1474,00
-7902,01	1483,00
-7882,60	1407,00
-7863,23	1341,00
-7843,90	1565,00
-7824,61	1662,00
-7805,35	1654,00
-7786,13	1824,00
-7766,95	1749,00
-7747,80	1434,00
-7728,69	1579,00
-7709,62	1478,00
-7690,59	1590,00
-7671,59	1654,00
-7652,63	1755,00
-7633,70	1791,00
-7614,81	1723,00
-7595,96	1600,00
-7577,15	1423,00
-7558,37	1348,00
-7539,62	1443,00
-7520,91	1722,00
-7502,24	1690,00
-7483,60	1736,00
-7465,00	1587,00
-7446,44	1321,00
-7427,91	1352,00
-7409,41	1184,00
-7390,95	1014,00
-7372,53	1066,00
-7354,14	1091,00
-7335,78	1072,00
-7317,46	1082,00
-7299,18	1332,00
-7280,92	1498,00
-7262,71	1444,00
-7244,52	1666,00
-7226,38	1673,00
-7208,26	1436,00
-7190,18	1561,00
-7172,14	1453,00
-7154,12	1457,00
-7136,15	1494,00
-7118,20	1636,00
-7100,29	1642,00
-7082,41	1634,00
-7064,57	1567,00
-7046,76	1481,00
-7028,98	1329,00
-7011,24	1192,00
-6993,53	944,00
-6975,85	869,00
-6958,20	649,00
-6940,59	770,00
-6923,01	765,00
-6905,46	954,00
-6887,94	1090,00
-6870,46	1421,00
-6853,01	1532,00
-6835,59	1500,00
-6818,21	1320,00
-6800,85	1013,00
-6783,53	888,00
-6766,24	751,00
-6748,98	668,00
-6731,76	608,00
-6714,56	635,00
-6697,40	601,00
-6680,26	712,00
-6663,16	856,00
-6646,09	984,00
-6629,05	1160,00
-6612,05	1196,00
-6595,07	1193,00
-6578,13	1020,00
-6561,21	894,00
-6544,33	680,00
-6527,47	442,00
-6510,65	433,00
-6493,86	585,00
-6477,10	588,00
-6460,36	544,00
-6443,66	471,00
-6426,99	508,00
-6410,35	628,00
-6393,74	580,00
-6377,16	654,00
-6360,61	717,00
-6344,09	810,00
-6327,59	922,00
-6311,13	790,00
-6294,70	896,00
-6278,29	988,00
-6261,92	950,00
-6245,58	1218,00
-6229,26	1173,00
-6212,97	1054,00
-6196,72	801,00
-6180,49	665,00
-6164,29	426,00
-6148,12	352,00
-6131,98	257,00
-6115,86	224,00
-6099,78	312,00
-6083,72	122,00
-6067,69	171,00
-6051,69	400,00
-6035,72	259,00
-6019,78	397,00
-6003,87	530,00
-5987,98	835,00
-5972,12	834,00
-5956,29	752,00
-5940,49	603,00
-5924,71	574,00
-5908,96	340,00
-5893,24	296,00
-5877,55	333,00
-5861,89	434,00
-5846,25	364,00
-5830,64	418,00
-5815,05	407,00
-5799,50	234,00
-5783,97	379,00
-5768,47	509,00
-5752,99	496,00
-5737,55	841,00
-5722,12	731,00
-5706,73	742,00
-5691,36	546,00
-5676,02	450,00
-5660,71	389,00
-5645,42	213,00
-5630,16	473,00
-5614,92	306,00
-5599,71	465,00
-5584,53	532,00
-5569,37	416,00
-5554,24	1466,00
-5539,14	484,00
-5524,06	420,00
-5509,01	510,00
-5493,98	482,00
-5478,98	406,00
-5464,00	457,00
-5449,05	390,00
-5434,13	305,00
-5419,23	298,00
-5404,36	375,00
-5389,51	502,00
-5374,69	646,00
-5359,89	905,00
-5345,12	874,00
-5330,37	843,00
-5315,65	537,00
-5300,95	609,00
-5286,28	438,00
-5271,63	448,00
-5257,01	398,00
-5242,41	489,00
-5227,84	527,00
-5213,29	365,00
-5198,76	188,00
-5184,26	201,00
-5169,79	363,00
-5155,33	391,00
-5140,91	425,00
-5126,51	621,00
-5112,13	517,00
-5097,77	443,00
-5083,44	430,00
-5069,13	234,00
-5054,85	478,00
-5040,59	353,00
-5026,36	342,00
-5012,15	544,00
-4997,96	480,00
-4983,80	388,00
-4969,66	216,00
-4955,54	371,00
-4941,44	354,00
-4927,37	653,00
-4913,33	812,00
-4899,30	779,00
-4885,30	734,00
-4871,33	566,00
-4857,37	297,00
-4843,44	145,00
-4829,53	268,00
-4815,65	462,00
-4801,79	326,00
-4787,95	309,00
-4774,13	234,00
-4760,34	262,00
-4746,56	-27,00
-4732,82	269,00
-4719,09	324,00
-4705,38	570,00
-4691,70	729,00
-4678,04	780,00
-4664,41	399,00
-4650,79	410,00
-4637,20	276,00
-4623,63	284,00
-4610,08	290,00
-4596,56	509,00
-4583,05	462,00
-4569,57	527,00
-4556,11	102,00
-4542,67	169,00
-4529,25	219,00
-4515,86	520,00
-4502,49	631,00
-4489,13	430,00
-4475,80	487,00
-4462,49	350,00
-4449,21	244,00
-4435,94	199,00
-4422,70	267,00
-4409,47	332,00
-4396,27	281,00
-4383,09	226,00
-4369,93	75,00
-4356,79	93,00
-4343,67	158,00
-4330,58	280,00
-4317,50	312,00
-4304,45	274,00
-4291,41	180,00
-4278,40	186,00
-4265,41	149,00
-4252,44	160,00
-4239,49	320,00
-4226,55	385,00
-4213,65	159,00
-4200,76	225,00
-4187,89	85,00
-4175,04	57,00
-4162,21	88,00
-4149,40	102,00
-4136,61	54,00
-4123,85	61,00
-4111,10	128,00
-4098,37	78,00
-4085,66	184,00
-4072,98	180,00
-4060,31	69,00
-4047,66	224,00
-4035,04	113,00
-4022,43	12,00
-4009,84	8,00
-3997,27	93,00
-3984,72	16,00
-3972,19	33,00
-3959,69	105,00
-3947,20	5,00
-3934,73	116,00
-3922,27	40,00
-3909,84	5,00
-3897,43	-84,00
-3885,04	-25,00
-3872,67	95,00
-3860,31	64,00
-3847,98	-8,00
-3835,66	123,00
-3823,36	94,00
-3811,09	-17,00
-3798,83	19,00
-3786,59	-75,00
-3774,37	98,00
-3762,17	5,00
-3749,98	8,00
-3737,82	117,00
-3725,67	64,00
-3713,55	0,00
-3701,44	22,00
-3689,35	56,00
-3677,28	17,00
-3665,22	52,00
-3653,19	52,00
-3641,17	-22,00
-3629,18	37,00
-3617,20	-8,00
-3605,24	-96,00
-3593,30	-25,00
-3581,37	48,00
-3569,47	182,00
-3557,58	62,00
-3545,71	56,00
-3533,86	51,00
-3522,02	148,00
-3510,21	147,00
-3498,41	33,00
-3486,63	-44,00
-3474,87	92,00
-3463,12	97,00
-3451,40	122,00
-3439,69	94,00
-3428,00	40,00
-3416,33	32,00
-3404,67	-49,00
-3393,03	84,00
-3381,41	11,00
-3369,81	-1,00
-3358,22	29,00
-3346,66	9,00
-3335,10	-85,00
-3323,57	74,00
-3312,06	67,00
-3300,56	83,00
-3289,08	53,00
-3277,61	-34,00
-3266,16	-20,00
-3254,73	57,00
-3243,32	99,00
-3231,92	49,00
-3220,55	-17,00
-3209,18	26,00
-3197,84	91,00
-3186,51	-15,00
-3175,20	118,00
-3163,90	129,00
-3152,63	55,00
-3141,36	35,00
-3130,12	-59,00
-3118,89	-58,00
-3107,68	29,00
-3096,49	32,00
-3085,31	80,00
-3074,15	86,00
-3063,00	30,00
-3051,87	106,00
-3040,76	22,00
-3029,67	78,00
-3018,59	26,00
-3007,52	131,00
-2996,48	44,00
-2985,44	163,00
-2974,43	53,00
-2963,43	43,00
-2952,45	85,00
-2941,48	103,00
-2930,53	32,00
-2919,60	14,00
-2908,68	112,00
-2897,78	202,00
-2886,89	34,00
-2876,02	54,00
-2865,17	-11,00
-2854,33	0,00
-2843,50	104,00
-2832,70	116,00
-2821,90	6,00
-2811,13	-121,00
-2800,37	60,00
-2789,62	-28,00
-2778,89	95,00
-2768,18	31,00
-2757,48	97,00
-2746,80	72,00
-2736,13	-78,00
-2725,48	36,00
-2714,84	77,00
-2704,22	-110,00
-2693,61	49,00
-2683,02	133,00
-2672,45	15,00
-2661,89	111,00
-2651,34	74,00
-2640,81	-73,00
-2630,30	99,00
-2619,80	-61,00
-2609,31	11,00
-2598,84	7,00
-2588,39	176,00
-2577,95	-84,00
-2567,52	140,00
-2557,11	-25,00
-2546,71	88,00
-2536,33	3,00
-2525,97	-22,00
-2515,62	131,00
-2505,28	-73,00
-2494,96	-38,00
-2484,65	-7,00
-2474,36	41,00
-2464,08	-20,00
-2453,82	54,00
-2443,57	-1,00
-2433,33	18,00
-2423,11	-73,00
-2412,91	-9,00
-2402,72	51,00
-2392,54	82,00
-2382,38	24,00
-2372,23	44,00
-2362,09	-4812,00
-2351,97	91,00
-2341,87	-130,00
-2331,78	75,00
-2321,70	39,00
-2311,64	-10,00
-2301,59	67,00
-2291,55	173,00
-2281,53	-24,00
-2271,53	129,00
-2261,53	-32,00
-2251,55	-56,00
-2241,59	45,00
-2231,64	-112,00
-2221,70	76,00
-2211,78	55,00
-2201,87	140,00
-2191,97	-30,00
-2182,09	1,00
-2172,22	184,00
-2162,37	95,00
-2152,53	46,00
-2142,70	103,00
-2132,89	128,00
-2123,09	26,00
-2113,30	0,00
-2103,53	34,00
-2093,77	-54,00
-2084,02	8,00
-2074,29	167,00
-2064,57	-32,00
-2054,86	40,00
-2045,17	-3,00
-2035,49	64,00
-2025,82	137,00
-2016,17	-31,00
-2006,53	169,00
-1996,91	113,00
-1987,29	-148,00
-1977,69	79,00
-1968,11	88,00
-1958,53	159,00
-1948,97	41,00
-1939,42	94,00
-1929,89	-10,00
-1920,37	57,00
-1910,86	81,00
-1901,36	69,00
-1891,88	-45,00
-1882,41	52,00
-1872,95	88,00
-1863,51	-80,00
-1854,08	74,00
-1844,66	80,00
-1835,26	112,00
-1825,86	29,00
-1816,48	159,00
-1807,11	13,00
-1797,76	80,00
-1788,42	103,00
-1779,09	-17,00
-1769,77	9,00
-1760,47	112,00
-1751,17	-16,00
-1741,89	42,00
-1732,63	-49,00
-1723,37	-67,00
-1714,13	-87,00
-1704,90	74,00
-1695,68	147,00
-1686,48	25,00
-1677,29	0,00
-1668,11	148,00
-1658,94	-28,00
-1649,78	-12,00
-1640,64	104,00
-1631,51	51,00
-1622,39	60,00
-1613,28	81,00
-1604,19	117,00
-1595,10	-19,00
-1586,03	48,00
-1576,97	-21,00
-1567,93	17,00
-1558,89	-25,00
-1549,87	130,00
-1540,86	105,00
-1531,86	-14,00
-1522,87	-45,00
-1513,90	30,00
-1504,93	22,00
-1495,98	-144,00
-1487,04	-25,00
-1478,12	44,00
-1469,20	116,00
-1460,30	123,00
-1451,40	-8,00
-1442,52	0,00
-1433,65	18,00
-1424,80	136,00
-1415,95	136,00
-1407,12	82,00
-1398,30	-26,00
-1389,48	59,00
-1380,69	45,00
-1371,90	80,00
-1363,12	-31,00
-1354,36	123,00
-1345,60	92,00
-1336,86	-50,00
-1328,13	88,00
-1319,41	-35,00
-1310,70	94,00
-1302,01	84,00
-1293,32	189,00
-1284,65	93,00
-1275,99	207,00
-1267,33	-46,00
-1258,69	53,00
-1250,06	181,00
-1241,45	144,00
-1232,84	25,00
-1224,25	-66,00
-1215,66	-21,00
-1207,09	-1,00
-1198,53	-96,00
-1189,97	81,00
-1181,43	62,00
-1172,91	-10,00
-1164,39	49,00
-1155,88	113,00
-1147,38	-62,00
-1138,90	119,00
-1130,43	98,00
-1121,96	-97,00
-1113,51	19,00
-1105,07	34,00
-1096,64	128,00
-1088,22	33,00
-1079,81	149,00
-1071,41	83,00
-1063,02	56,00
-1054,65	113,00
-1046,28	95,00
-1037,92	-2,00
-1029,58	-73,00
-1021,24	10,00
-1012,92	144,00
-1004,61	94,00
-996,30	125,00
-988,01	89,00
-979,73	199,00
-971,46	38,00
-963,20	56,00
-954,95	68,00
-946,71	-36,00
-938,48	31,00
-930,26	-100,00
-922,06	-67,00
-913,86	63,00
-905,67	204,00
-897,49	22,00
-889,33	91,00
-881,17	120,00
-873,02	110,00
-864,89	-100,00
-856,76	-36,00
-848,65	146,00
-840,54	-40,00
-832,45	23,00
-824,36	50,00
-816,29	45,00
-808,22	10,00
-800,17	-47,00
-792,12	86,00
-784,09	48,00
-776,06	24,00
-768,05	-102,00
-760,04	120,00
-752,05	-28,00
-744,07	47,00
-736,09	-1,00
-728,13	111,00
-720,17	60,00
-712,23	86,00
-704,29	-60,00
-696,37	-44,00
-688,45	131,00
-680,55	-59,00
-672,65	236,00
-664,77	47,00
-656,89	13,00
-649,03	48,00
-641,17	-40,00
-633,32	72,00
-625,49	29,00
-617,66	35,00
-609,84	7,00
-602,03	24,00
-594,23	143,00
-586,45	123,00
-578,67	75,00
-570,90	72,00
-563,14	96,00
-555,39	76,00
-547,65	29,00
-539,91	26,00
-532,19	154,00
-524,48	153,00
-516,78	-9,00
-509,08	66,00
-501,40	43,00
-493,72	17,00
-486,06	-16,00
-478,40	31,00
-470,76	77,00
-463,12	-36,00
-455,49	49,00
-447,87	64,00
-440,26	49,00
-432,66	62,00
-425,07	16,00
-417,49	30,00
-409,92	109,00
-402,35	20,00
-394,80	90,00
-387,25	75,00
-379,72	118,00
-372,19	171,00
-364,67	336,00
-357,17	15,00
-349,67	8,00
-342,18	91,00
-334,69	6,00
-327,22	70,00
-319,76	-51,00
-312,30	59,00
-304,86	39,00
-297,42	155,00
-290,00	90,00
-282,58	51,00
-275,17	146,00
-267,77	71,00
-260,37	181,00
-252,99	58,00
-245,62	118,00
-238,25	96,00
-230,90	44,00
-223,55	274,00
-216,21	160,00
-208,88	141,00
-201,56	211,00
-194,25	157,00
-186,94	73,00
-179,65	121,00
-172,36	204,00
-165,08	157,00
-157,81	311,00
-150,55	213,00
-143,30	203,00
-136,06	274,00
-128,82	240,00
-121,60	423,00
-114,38	296,00
-107,17	290,00
-99,97	343,00
-92,78	424,00
-85,60	466,00
-78,42	609,00
-71,25	625,00
-64,10	829,00
-56,95	1021,00
-49,81	1143,00
-42,67	1443,00
-35,55	1750,00
-28,43	2455,00
-21,33	4179,00
-14,23	14142,00
-7,14	47266,00
-0,05	38051,00
7,02	42597,00
14,09	38128,00
21,14	9990,00
28,19	4432,00
35,23	2962,00
42,27	2018,00
49,29	1928,00
56,31	1451,00
63,32	1281,00
70,32	1084,00
77,31	917,00
84,29	908,00
91,27	641,00
98,23	642,00
105,19	595,00
112,14	710,00
119,09	994,00
126,02	1434,00
132,95	1686,00
139,87	1767,00
146,78	1576,00
153,68	1660,00
160,58	1632,00
167,46	1576,00
174,34	1731,00
181,21	1540,00
188,08	1493,00
194,93	1645,00
201,78	1570,00
208,62	1543,00
215,45	1532,00
222,27	1636,00
229,09	1508,00
235,90	1558,00
242,70	1425,00
249,49	1524,00
256,27	1477,00
263,05	1306,00
269,82	1213,00
276,58	1338,00
283,33	1295,00
290,08	1500,00
296,82	1292,00
303,55	1330,00
310,27	1228,00
316,98	1270,00
323,69	1354,00
330,39	1335,00
337,08	1246,00
343,76	1162,00
350,44	1219,00
357,11	1181,00
363,77	1312,00
370,42	1211,00
377,07	1315,00
383,71	1301,00
390,34	1195,00
396,96	1325,00
403,58	1082,00
410,19	1139,00
416,79	1170,00
423,38	1324,00
429,97	1297,00
436,55	1177,00
443,12	1207,00
449,68	1144,00
456,24	1115,00
462,79	1076,00
469,33	1032,00
475,86	1046,00
482,39	1110,00
488,91	1051,00
495,42	1084,00
501,93	1140,00
508,42	1105,00
514,91	1109,00
521,40	1005,00
527,87	1074,00
534,34	915,00
540,80	1070,00
547,25	904,00
553,70	995,00
560,14	1012,00
566,57	1024,00
573,00	942,00
579,41	918,00
585,83	1067,00
592,23	1046,00
598,62	1015,00
605,01	925,00
611,40	961,00
617,77	961,00
624,14	907,00
630,50	909,00
636,85	871,00
643,20	910,00
649,54	952,00
655,87	934,00
662,20	844,00
668,52	905,00
674,83	877,00
681,13	936,00
687,43	991,00
693,72	847,00
700,00	913,00
706,28	872,00
712,55	887,00
718,81	940,00
725,07	1008,00
731,32	765,00
737,56	963,00
743,79	976,00
750,02	924,00
756,24	931,00
762,46	866,00
768,67	1070,00
774,87	923,00
781,06	1008,00
787,25	998,00
793,43	880,00
799,60	935,00
805,77	1016,00
811,93	877,00
818,08	1061,00
824,23	874,00
830,37	910,00
836,50	900,00
842,63	887,00
848,75	1008,00
854,87	999,00
860,97	981,00
867,07	1023,00
873,17	1107,00
879,25	814,00
885,33	992,00
891,41	835,00
897,47	771,00
903,53	865,00
909,59	978,00
915,63	956,00
921,67	895,00
927,71	848,00
933,74	862,00
939,76	932,00
945,77	851,00
951,78	964,00
957,78	832,00
963,78	814,00
969,77	872,00
975,75	820,00
981,72	869,00
987,69	1091,00
993,66	944,00
999,61	907,00
1005,56	982,00
1011,51	840,00
1017,44	854,00
1023,37	905,00
1029,30	892,00
1035,22	853,00
1041,13	1007,00
1047,03	1071,00
1052,93	1359,00
1058,83	1744,00
1064,71	1965,00
1070,59	1549,00
1076,47	1186,00
1082,33	1142,00
1088,20	1038,00
1094,05	1084,00
1099,90	965,00
1105,74	976,00
1111,58	941,00
1117,41	1093,00
1123,23	1581,00
1129,05	2089,00
1134,86	1805,00
1140,67	1409,00
1146,47	1132,00
1152,26	1007,00
1158,05	1016,00
1163,83	1021,00
1169,60	971,00
1175,37	1036,00
1181,13	847,00
1186,89	898,00
1192,64	907,00
1198,38	840,00
1204,12	874,00
1209,85	853,00
1215,58	989,00
1221,30	921,00
1227,02	853,00
1232,72	778,00
1238,43	856,00
1244,12	928,00
1249,81	949,00
1255,50	1012,00
1261,17	905,00
1266,85	1010,00
1272,51	1061,00
1278,17	1013,00
1283,83	1214,00
1289,47	2021,00
1295,12	2436,00
1300,75	2230,00
1306,38	1738,00
1312,01	1412,00
1317,63	1096,00
1323,24	1180,00
1328,85	1062,00
1334,45	973,00
1340,04	938,00
1345,63	1025,00
1351,22	1009,00
1356,80	976,00
1362,37	1095,00
1367,93	1164,00
1373,49	1173,00
1379,05	1007,00
1384,60	1050,00
1390,14	1064,00
1395,68	1034,00
1401,21	1166,00
1406,74	1116,00
1412,26	1504,00
1417,77	1658,00
1423,28	1674,00
1428,78	1782,00
1434,28	2052,00
1439,77	2548,00
1445,26	2441,00
1450,74	2280,00
1456,22	1968,00
1461,68	2040,00
1467,15	1678,00
1472,61	1750,00
1478,06	1465,00
1483,51	1167,00
1488,95	1153,00
1494,38	1030,00
1499,81	905,00
1505,24	862,00
1510,65	850,00
1516,07	977,00
1521,48	860,00
1526,88	967,00
1532,27	858,00
1537,67	950,00
1543,05	831,00
1548,43	697,00
1553,81	825,00
1559,18	855,00
1564,54	821,00
1569,90	802,00
1575,25	756,00
1580,60	841,00
1585,94	771,00
1591,28	753,00
1596,61	793,00
1601,93	728,00
1607,25	719,00
1612,57	718,00
1617,88	797,00
1623,18	704,00
1628,48	847,00
1633,77	882,00
1639,06	934,00
1644,34	811,00
1649,62	709,00
1654,89	733,00
1660,16	764,00
1665,42	674,00
1670,67	828,00
1675,92	708,00
1681,17	755,00
1686,41	728,00
1691,64	782,00
1696,87	704,00
1702,10	683,00
1707,32	601,00
1712,53	797,00
1717,74	747,00
1722,94	672,00
1728,14	762,00
1733,33	698,00
1738,52	749,00
1743,70	655,00
1748,88	730,00
1754,05	808,00
1759,22	615,00
1764,38	-1114,00
1769,53	668,00
1774,69	623,00
1779,83	657,00
1784,97	488,00
1790,11	673,00
1795,24	639,00
1800,36	647,00
1805,48	649,00
1810,60	730,00
1815,71	609,00
1820,82	687,00
1825,92	614,00
1831,01	680,00
1836,10	659,00
1841,19	709,00
1846,26	696,00
1851,34	630,00
1856,41	535,00
1861,47	664,00
1866,53	602,00
1871,59	498,00
1876,64	760,00
1881,68	682,00
1886,72	570,00
1891,76	574,00
1896,79	694,00
1901,81	657,00
1906,83	550,00
1911,85	590,00
1916,86	580,00
1921,86	653,00
1926,86	596,00
1931,86	674,00
1936,85	680,00
1941,83	508,00
1946,81	436,00
1951,79	697,00
1956,76	546,00
1961,72	625,00
1966,68	540,00
1971,64	483,00
1976,59	520,00
1981,54	567,00
1986,48	544,00
1991,42	491,00
1996,35	636,00
2001,27	491,00
2006,20	667,00
2011,11	687,00
2016,03	519,00
2020,93	592,00
2025,84	353,00
2030,73	653,00
2035,63	408,00
2040,52	605,00
2045,40	411,00
2050,28	482,00
2055,15	490,00
2060,02	528,00
2064,89	475,00
2069,75	510,00
2074,60	547,00
2079,46	590,00
2084,30	592,00
2089,14	475,00
2093,98	581,00
2098,81	466,00
2103,64	448,00
2108,46	485,00
2113,28	568,00
2118,09	446,00
2122,90	639,00
2127,70	582,00
2132,50	588,00
2137,30	472,00
2142,09	510,00
2146,87	529,00
2151,66	566,00
2156,43	567,00
2161,20	523,00
2165,97	536,00
2170,73	621,00
2175,49	443,00
2180,24	566,00
2184,99	415,00
2189,74	491,00
2194,48	487,00
2199,21	542,00
2203,94	542,00
2208,67	430,00
2213,39	413,00
2218,11	413,00
2222,82	540,00
2227,53	378,00
2232,23	433,00
2236,93	437,00
2241,63	557,00
2246,32	433,00
2251,00	528,00
2255,68	503,00
2260,36	531,00
2265,03	535,00
2269,70	487,00
2274,36	526,00
2279,02	369,00
2283,68	452,00
2288,33	472,00
2292,97	398,00
2297,61	566,00
2302,25	411,00
2306,88	476,00
2311,51	553,00
2316,14	485,00
2320,75	414,00
2325,37	407,00
2329,98	473,00
2334,59	475,00
2339,19	521,00
2343,79	254,00
2348,38	506,00
2352,97	362,00
2357,55	523,00
2362,13	474,00
2366,71	484,00
2371,28	414,00
2375,85	444,00
2380,41	532,00
2384,97	459,00
2389,52	355,00
2394,07	412,00
2398,62	456,00
2403,16	450,00
2407,70	409,00
2412,23	410,00
2416,76	456,00
2421,29	313,00
2425,81	489,00
2430,32	432,00
2434,84	405,00
2439,34	488,00
2443,85	346,00
2448,35	475,00
2452,84	308,00
2457,33	523,00
2461,82	308,00
2466,30	463,00
2470,78	437,00
2475,25	369,00
2479,72	430,00
2484,19	374,00
2488,65	432,00
2493,11	367,00
2497,56	360,00
2502,01	402,00
2506,46	398,00
2510,90	401,00
2515,34	270,00
2519,77	441,00
2524,20	414,00
2528,62	389,00
2533,04	511,00
2537,46	276,00
2541,87	359,00
2546,28	256,00
2550,68	364,00
2555,08	343,00
2559,48	349,00
2563,87	435,00
2568,26	318,00
2572,64	243,00
2577,02	339,00
2581,40	413,00
2585,77	449,00
2590,14	369,00
2594,50	349,00
2598,86	428,00
2603,22	367,00
2607,57	297,00
2611,92	407,00
2616,26	451,00
2620,60	516,00
2624,94	375,00
2629,27	418,00
2633,60	340,00
2637,92	270,00
2642,24	441,00
2646,56	476,00
2650,87	340,00
2655,18	351,00
2659,48	369,00
2663,78	422,00
2668,08	488,00
2672,37	451,00
2676,66	503,00
2680,95	411,00
2685,23	383,00
2689,50	548,00
2693,78	425,00
2698,05	492,00
2702,31	384,00
2706,57	385,00
2710,83	474,00
2715,08	440,00
2719,33	579,00
2723,58	718,00
2727,82	440,00
2732,06	552,00
2736,29	523,00
2740,53	478,00
2744,75	404,00
2748,97	438,00
2753,19	591,00
2757,41	364,00
2761,62	409,00
2765,83	375,00
2770,03	429,00
2774,23	442,00
2778,43	574,00
2782,62	578,00
2786,81	511,00
2791,00	536,00
2795,18	740,00
2799,35	636,00
2803,53	624,00
2807,70	770,00
2811,86	622,00
2816,03	776,00
2820,19	707,00
2824,34	786,00
2828,49	859,00
2832,64	1056,00
2836,78	1386,00
2840,92	1666,00
2845,06	2148,00
2849,19	2184,00
2853,32	2501,00
2857,45	2315,00
2861,57	2272,00
2865,69	2020,00
2869,80	2029,00
2873,91	2071,00
2878,02	2382,00
2882,12	2389,00
2886,22	2708,00
2890,32	2224,00
2894,41	2100,00
2898,50	1855,00
2902,58	1806,00
2906,67	1724,00
2910,74	1497,00
2914,82	1382,00
2918,89	1354,00
2922,96	1209,00
2927,02	1205,00
2931,08	1097,00
2935,13	952,00
2939,19	1009,00
2943,24	867,00
2947,28	701,00
2951,32	723,00
2955,36	670,00
2959,40	491,00
2963,43	538,00
2967,46	532,00
2971,48	483,00
2975,50	550,00
2979,52	380,00
2983,53	310,00
2987,54	438,00
2991,55	368,00
2995,55	288,00
2999,55	429,00
3003,54	308,00
3007,54	187,00
3011,53	298,00
3015,51	277,00
3019,49	216,00
3023,47	259,00
3027,45	273,00
3031,42	284,00
3035,39	307,00
3039,35	242,00
3043,31	200,00
3047,27	267,00
3051,22	276,00
3055,17	258,00
3059,12	224,00
3063,06	184,00
3067,00	220,00
3070,94	255,00
3074,87	228,00
3078,80	243,00
3082,73	372,00
3086,65	211,00
3090,57	263,00
3094,49	180,00
3098,40	211,00
3102,31	268,00
3106,22	289,00
3110,12	315,00
3114,02	172,00
3117,92	144,00
3121,81	242,00
3125,70	61,00
3129,58	160,00
3133,47	63,00
3137,34	165,00
3141,22	215,00
3145,09	132,00
3148,96	126,00
3152,83	170,00
3156,69	225,00
3160,55	187,00
3164,40	208,00
3168,26	78,00
3172,10	312,00
3175,95	132,00
3179,79	147,00
3183,63	84,00
3187,47	236,00
3191,30	130,00
3195,13	133,00
3198,95	19,00
3202,78	259,00
3206,60	66,00
3210,41	195,00
3214,23	164,00
3218,03	250,00
3221,84	-44,00
3225,64	226,00
3229,44	113,00
3233,24	134,00
3237,03	105,00
3240,82	82,00
3244,61	82,00
3248,39	135,00
3252,17	255,00
3255,95	128,00
3259,72	203,00
3263,49	-11,00
3267,26	187,00
3271,03	98,00
3274,79	146,00
3278,54	115,00
3282,30	84,00
3286,05	22,00
3289,80	30,00
3293,54	151,00
3297,29	240,00
3301,02	124,00
3304,76	90,00
3308,49	182,00
3312,22	107,00
3315,95	-6,00
3319,67	283,00
3323,39	121,00
3327,10	120,00
3330,82	133,00
3334,53	168,00
3338,24	129,00
3341,94	167,00
3345,64	140,00
3349,34	2,00
3353,03	151,00
3356,72	107,00
3360,41	132,00
3364,10	253,00
3367,78	-27,00
3371,46	44,00
3375,13	90,00
3378,81	160,00
3382,48	66,00
3386,14	-2,00
3389,81	137,00
3393,47	69,00
3397,12	85,00
3400,78	96,00
3404,43	235,00
3408,08	125,00
3411,72	34,00
3415,36	161,00
3419,00	237,00
3422,64	180,00
3426,27	134,00
3429,90	47,00
3433,53	149,00
3437,15	127,00
3440,77	149,00
3444,39	152,00
3448,00	-60,00
3451,62	181,00
3455,22	-39,00
3458,83	111,00
3462,43	160,00
3466,03	-66,00
3469,63	173,00
3473,22	68,00
3476,81	169,00
3480,40	0,00
3483,99	0,00
3487,57	-14,00
3491,15	33,00
3494,72	8,00
3498,29	-11,00
3501,86	141,00
3505,43	-102,00
3508,99	130,00
3512,56	56,00
3516,11	118,00
3519,67	133,00
3523,22	130,00
3526,77	26,00
3530,32	141,00
3533,86	96,00
3537,40	88,00
3540,94	62,00
3544,47	109,00
3548,00	96,00
3551,53	74,00
3555,06	33,00
3558,58	106,00
3562,10	141,00
3565,62	117,00
3569,13	-14,00
3572,64	-18,00
3576,15	30,00
3579,66	-55,00
3583,16	49,00
3586,66	47,00
3590,16	99,00
3593,65	68,00
3597,14	-14,00
3600,63	130,00
3604,11	29,00
3607,60	8,00
3611,08	-7,00
3614,55	-26,00
3618,03	42,00
3621,50	41,00
3624,97	47,00
3628,43	6,00
3631,90	64,00
3635,36	42,00
3638,81	-38,00
3642,27	4,00
3645,72	96,00
3649,17	29,00
3652,61	8,00
3656,06	-4,00
3659,50	3,00
3662,93	111,00
3666,37	155,00
3669,80	18,00
3673,23	148,00
3676,65	10,00
3680,08	-14,00
3683,50	-47,00
3686,92	24,00
3690,33	53,00
3693,74	3,00
3697,15	148,00
3700,56	32,00
3703,96	62,00
3707,36	-11,00
3710,76	-7,00
3714,16	70,00
3717,55	27,00
3720,94	41,00
3724,33	6,00
3727,71	-30,00
3731,10	13,00
3734,48	124,00
3737,85	78,00
3741,23	16,00
3744,60	82,00
3747,97	78,00
3751,33	80,00
3754,69	-38,00
3758,05	106,00
3761,41	-32,00
3764,77	163,00
3768,12	55,00
3771,47	152,00
3774,82	53,00
3778,16	-3,00
3781,50	2,00
3784,84	0,00
3788,18	8,00
>>>>>End Processed Spectral Data<<<<<
