SpectraSuite Data File
++++++++++++++++++++++++++++++++++++
Date: Tue Mar 03 12:46:28 ICT 2026
User: user
Dark Spectrum Present: Yes
Reference Spectrum Present: No
Number of Sampled Component Spectra: 1
Spectrometers: MAYP113682
Integration Time (usec): 3000000 (MAYP113682)
Spectra Averaged: 1 (MAYP113682)
Boxcar Smoothing: 0 (MAYP113682)
Correct for Electrical Dark: No (MAYP113682)
Strobe/Lamp Enabled: No (MAYP113682)
Correct for Detector Non-linearity: No (MAYP113682)
Correct for Stray Light: No (MAYP113682)
Number of Pixels in Processed Spectrum: 2068
>>>>>Begin Processed Spectral Data<<<<<
-37534,58	10,00
-37414,56	-1,00
-37295,11	-2,00
-37176,24	3,00
-37057,95	42,00
-36940,22	79,00
-36823,05	150,00
-36706,45	132,00
-36590,40	148,00
-36474,90	78,00
-36359,95	76,00
-36245,55	285,00
-36131,68	133,00
-36018,35	208,00
-35905,55	130,00
-35793,29	211,00
-35681,54	143,00
-35570,32	124,00
-35459,62	-57,00
-35349,43	78,00
-35239,75	277,00
-35130,58	145,00
-35021,91	95,00
-34913,74	226,00
-34806,07	197,00
-34698,89	222,00
-34592,20	17,00
-34486,00	123,00
-34380,28	58,00
-34275,04	88,00
-34170,27	112,00
-34065,98	104,00
-33962,16	180,00
-33858,81	223,00
-33755,92	121,00
-33653,49	183,00
-33551,52	135,00
-33450,01	196,00
-33348,94	124,00
-33248,33	46,00
-33148,16	157,00
-33048,43	158,00
-32949,14	134,00
-32850,29	90,00
-32751,87	219,00
-32653,89	243,00
-32556,33	139,00
-32459,20	120,00
-32362,49	9,00
-32266,19	183,00
-32170,32	156,00
-32074,86	46,00
-31979,82	117,00
-31885,18	30,00
-31790,95	34,00
-31697,12	182,00
-31603,69	109,00
-31510,67	152,00
-31418,04	248,00
-31325,80	125,00
-31233,95	231,00
-31142,49	158,00
-31051,42	170,00
-30960,73	147,00
-30870,43	278,00
-30780,50	154,00
-30690,95	239,00
-30601,77	36,00
-30512,97	205,00
-30424,53	35,00
-30336,46	113,00
-30248,76	90,00
-30161,42	56,00
-30074,44	141,00
-29987,81	235,00
-29901,55	-3,00
-29815,63	89,00
-29730,07	34,00
-29644,86	139,00
-29560,00	278,00
-29475,48	82,00
-29391,30	187,00
-29307,47	145,00
-29223,97	141,00
-29140,81	61,00
-29057,99	8,00
-28975,50	248,00
-28893,34	127,00
-28811,51	32,00
-28730,00	144,00
-28648,82	164,00
-28567,97	55,00
-28487,43	161,00
-28407,21	67,00
-28327,32	-1,00
-28247,73	128,00
-28168,46	150,00
-28089,50	177,00
-28010,85	48,00
-27932,51	241,00
-27854,48	73,00
-27776,75	68,00
-27699,32	88,00
-27622,19	316,00
-27545,37	163,00
-27468,84	121,00
-27392,60	205,00
-27316,66	168,00
-27241,01	42,00
-27165,66	222,00
-27090,59	61,00
-27015,81	312,00
-26941,31	312,00
-26867,10	140,00
-26793,17	205,00
-26719,52	97,00
-26646,15	136,00
-26573,06	233,00
-26500,24	239,00
-26427,70	82,00
-26355,43	243,00
-26283,43	172,00
-26211,71	149,00
-26140,25	73,00
-26069,06	255,00
-25998,13	72,00
-25927,46	266,00
-25857,06	170,00
-25786,92	58,00
-25717,04	130,00
-25647,42	138,00
-25578,05	131,00
-25508,94	82,00
-25440,09	263,00
-25371,48	181,00
-25303,13	160,00
-25235,02	144,00
-25167,17	128,00
-25099,56	276,00
-25032,19	168,00
-24965,07	122,00
-24898,20	87,00
-24831,56	129,00
-24765,17	154,00
-24699,01	336,00
-24633,10	131,00
-24567,41	9,00
-24501,97	184,00
-24436,75	-49,00
-24371,77	117,00
-24307,03	58,00
-24242,51	81,00
-24178,22	176,00
-24114,16	178,00
-24050,32	189,00
-23986,71	29,00
-23923,32	149,00
-23860,16	32,00
-23797,22	278,00
-23734,50	122,00
-23672,00	148,00
-23609,71	384,00
-23547,65	178,00
-23485,80	19,00
-23424,16	142,00
-23362,74	156,00
-23301,53	188,00
-23240,54	120,00
-23179,75	123,00
-23119,17	177,00
-23058,80	283,00
-22998,64	93,00
-22938,68	112,00
-22878,93	96,00
-22819,39	126,00
-22760,04	-10,00
-22700,90	107,00
-22641,96	180,00
-22583,22	178,00
-22524,68	139,00
-22466,33	181,00
-22408,19	108,00
-22350,23	232,00
-22292,48	170,00
-22234,92	182,00
-22177,55	115,00
-22120,37	307,00
-22063,38	91,00
-22006,58	173,00
-21949,98	160,00
-21893,56	193,00
-21837,33	140,00
-21781,28	251,00
-21725,42	173,00
-21669,74	119,00
-21614,25	161,00
-21558,94	229,00
-21503,81	217,00
-21448,86	146,00
-21394,10	85,00
-21339,51	341,00
-21285,10	119,00
-21230,86	163,00
-21176,81	177,00
-21122,93	178,00
-21069,22	151,00
-21015,69	223,00
-20962,33	151,00
-20909,14	79,00
-20856,13	170,00
-20803,28	-42,00
-20750,61	99,00
-20698,10	177,00
-20645,76	198,00
-20593,59	192,00
-20541,59	143,00
-20489,75	103,00
-20438,07	209,00
-20386,56	199,00
-20335,22	132,00
-20284,03	117,00
-20233,01	125,00
-20182,15	81,00
-20131,45	120,00
-20080,91	126,00
-20030,52	219,00
-19980,30	152,00
-19930,23	140,00
-19880,32	206,00
-19830,56	301,00
-19780,96	166,00
-19731,52	129,00
-19682,23	96,00
-19633,09	118,00
-19584,10	203,00
-19535,26	182,00
-19486,58	35,00
-19438,04	69,00
-19389,66	129,00
-19341,42	47,00
-19293,33	71,00
-19245,39	155,00
-19197,60	157,00
-19149,95	182,00
-19102,45	107,00
-19055,09	90,00
-19007,87	179,00
-18960,80	132,00
-18913,87	180,00
-18867,09	101,00
-18820,44	237,00
-18773,94	123,00
-18727,57	123,00
-18681,35	69,00
-18635,26	177,00
-18589,31	237,00
-18543,50	83,00
-18497,83	78,00
-18452,29	77,00
-18406,89	195,00
-18361,63	52,00
-18316,50	116,00
-18271,50	133,00
-18226,63	202,00
-18181,90	160,00
-18137,30	214,00
-18092,84	64,00
-18048,50	37,00
-18004,29	115,00
-17960,22	271,00
-17916,27	26,00
-17872,45	168,00
-17828,76	80,00
-17785,20	100,00
-17741,77	139,00
-17698,46	128,00
-17655,28	51,00
-17612,22	28,00
-17569,29	235,00
-17526,48	29,00
-17483,79	19,00
-17441,23	71,00
-17398,79	110,00
-17356,48	229,00
-17314,28	218,00
-17272,21	35,00
-17230,26	83,00
-17188,42	273,00
-17146,71	96,00
-17105,12	43,00
-17063,64	160,00
-17022,28	114,00
-16981,04	95,00
-16939,92	232,00
-16898,91	137,00
-16858,02	38,00
-16817,25	87,00
-16776,59	213,00
-16736,04	130,00
-16695,61	191,00
-16655,29	112,00
-16615,09	82,00
-16574,99	109,00
-16535,01	123,00
-16495,15	174,00
-16455,39	231,00
-16415,74	175,00
-16376,21	66,00
-16336,78	76,00
-16297,46	146,00
-16258,26	221,00
-16219,16	139,00
-16180,17	238,00
-16141,28	124,00
-16102,51	90,00
-16063,84	156,00
-16025,27	154,00
-15986,82	156,00
-15948,46	-3,00
-15910,22	100,00
-15872,07	92,00
-15834,04	173,00
-15796,10	141,00
-15758,27	194,00
-15720,54	161,00
-15682,91	175,00
-15645,39	55,00
-15607,97	142,00
-15570,64	38,00
-15533,42	54,00
-15496,30	83,00
-15459,28	134,00
-15422,36	110,00
-15385,54	162,00
-15348,82	164,00
-15312,19	48,00
-15275,66	113,00
-15239,23	35,00
-15202,90	152,00
-15166,67	92,00
-15130,53	77,00
-15094,48	150,00
-15058,54	186,00
-15022,68	95,00
-14986,93	139,00
-14951,26	141,00
-14915,69	-1,00
-14880,22	162,00
-14844,84	122,00
-14809,55	109,00
-14774,35	126,00
-14739,25	217,00
-14704,24	26,00
-14669,32	144,00
-14634,49	254,00
-14599,75	167,00
-14565,10	264,00
-14530,55	161,00
-14496,08	259,00
-14461,70	211,00
-14427,41	96,00
-14393,21	31,00
-14359,10	147,00
-14325,07	206,00
-14291,14	172,00
-14257,29	84,00
-14223,52	177,00
-14189,85	60,00
-14156,26	217,00
-14122,76	96,00
-14089,34	154,00
-14056,01	221,00
-14022,76	210,00
-13989,60	144,00
-13956,52	190,00
-13923,53	96,00
-13890,62	123,00
-13857,79	209,00
-13825,05	122,00
-13792,39	175,00
-13759,81	224,00
-13727,31	129,00
-13694,90	70,00
-13662,57	184,00
-13630,31	189,00
-13598,14	223,00
-13566,05	51,00
-13534,05	64,00
-13502,12	173,00
-13470,27	119,00
-13438,50	88,00
-13406,80	214,00
-13375,19	116,00
-13343,66	150,00
-13312,20	117,00
-13280,83	92,00
-13249,53	215,00
-13218,30	148,00
-13187,16	52,00
-13156,09	136,00
-13125,10	222,00
-13094,18	207,00
-13063,34	74,00
-13032,58	137,00
-13001,89	4,00
-12971,28	121,00
-12940,74	152,00
-12910,27	58,00
-12879,88	25,00
-12849,57	112,00
-12819,33	80,00
-12789,16	102,00
-12759,06	204,00
-12729,04	104,00
-12699,09	94,00
-12669,21	188,00
-12639,41	40,00
-12609,68	211,00
-12580,02	124,00
-12550,43	71,00
-12520,91	106,00
-12491,46	35,00
-12462,08	183,00
-12432,77	161,00
-12403,54	124,00
-12374,37	67,00
-12345,27	3,00
-12316,24	187,00
-12287,29	77,00
-12258,40	106,00
-12229,57	244,00
-12200,82	112,00
-12172,14	73,00
-12143,52	120,00
-12114,97	177,00
-12086,49	44,00
-12058,07	290,00
-12029,73	17,00
-12001,44	113,00
-11973,23	136,00
-11945,08	135,00
-11917,00	169,00
-11888,98	148,00
-11861,03	198,00
-11833,15	247,00
-11805,32	130,00
-11777,57	143,00
-11749,88	164,00
-11722,25	93,00
-11694,69	153,00
-11667,19	111,00
-11639,75	32,00
-11612,38	147,00
-11585,07	185,00
-11557,83	194,00
-11530,65	140,00
-11503,53	183,00
-11476,47	136,00
-11449,48	152,00
-11422,54	210,00
-11395,67	131,00
-11368,86	-36,00
-11342,11	93,00
-11315,43	275,00
-11288,80	208,00
-11262,23	325,00
-11235,73	221,00
-11209,28	214,00
-11182,90	172,00
-11156,57	34,00
-11130,31	180,00
-11104,10	112,00
-11077,96	234,00
-11051,87	333,00
-11025,84	182,00
-10999,87	125,00
-10973,96	73,00
-10948,11	228,00
-10922,31	105,00
-10896,58	244,00
-10870,90	167,00
-10845,28	212,00
-10819,71	114,00
-10794,20	205,00
-10768,75	182,00
-10743,36	170,00
-10718,02	209,00
-10692,74	207,00
-10667,52	130,00
-10642,35	264,00
-10617,24	248,00
-10592,18	318,00
-10567,18	237,00
-10542,23	350,00
-10517,34	308,00
-10492,51	229,00
-10467,72	326,00
-10443,00	337,00
-10418,32	284,00
-10393,70	266,00
-10369,14	232,00
-10344,63	355,00
-10320,17	293,00
-10295,77	377,00
-10271,42	245,00
-10247,12	323,00
-10222,88	372,00
-10198,68	415,00
-10174,54	436,00
-10150,46	491,00
-10126,42	426,00
-10102,44	547,00
-10078,51	545,00
-10054,63	645,00
-10030,80	587,00
-10007,03	506,00
-9983,30	522,00
-9959,63	552,00
-9936,01	640,00
-9912,44	732,00
-9888,92	556,00
-9865,44	668,00
-9842,02	710,00
-9818,65	683,00
-9795,33	751,00
-9772,06	747,00
-9748,84	860,00
-9725,67	837,00
-9702,55	1026,00
-9679,47	1175,00
-9656,45	1249,00
-9633,47	1331,00
-9610,55	1262,00
-9587,67	1409,00
-9564,84	1513,00
-9542,06	1546,00
-9519,32	1870,00
-9496,64	2091,00
-9474,00	2093,00
-9451,41	2294,00
-9428,87	2226,00
-9406,37	2120,00
-9383,92	1862,00
-9361,52	1896,00
-9339,17	1860,00
-9316,86	2206,00
-9294,60	2491,00
-9272,38	2687,00
-9250,21	2769,00
-9228,09	2891,00
-9206,01	2883,00
-9183,98	2549,00
-9162,00	2201,00
-9140,06	2133,00
-9118,16	2148,00
-9096,31	2259,00
-9074,51	2407,00
-9052,75	2203,00
-9031,04	2238,00
-9009,37	1979,00
-8987,74	1631,00
-8966,16	1447,00
-8944,63	1448,00
-8923,14	1292,00
-8901,69	1438,00
-8880,29	1632,00
-8858,93	1854,00
-8837,61	2030,00
-8816,34	2134,00
-8795,11	1987,00
-8773,92	2041,00
-8752,78	1673,00
-8731,68	1645,00
-8710,62	1656,00
-8689,61	1766,00
-8668,63	1858,00
-8647,70	2014,00
-8626,82	2001,00
-8605,97	1759,00
-8585,17	1829,00
-8564,41	1543,00
-8543,69	1563,00
-8523,01	1455,00
-8502,37	1448,00
-8481,78	1506,00
-8461,23	1512,00
-8440,71	1711,00
-8420,24	1903,00
-8399,81	1929,00
-8379,42	2040,00
-8359,08	1673,00
-8338,77	1421,00
-8318,50	1470,00
-8298,27	1363,00
-8278,09	1593,00
-8257,94	1502,00
-8237,83	1741,00
-8217,76	1822,00
-8197,74	1738,00
-8177,75	1591,00
-8157,80	1566,00
-8137,89	1467,00
-8118,02	1473,00
-8098,19	1225,00
-8078,40	1437,00
-8058,65	1493,00
-8038,93	1642,00
-8019,26	1556,00
-7999,62	1432,00
-7980,02	1366,00
-7960,46	1454,00
-7940,94	1292,00
-7921,46	1370,00
-7902,01	1213,00
-7882,60	1234,00
-7863,23	1221,00
-7843,90	1380,00
-7824,61	1411,00
-7805,35	1438,00
-7786,13	1525,00
-7766,95	1491,00
-7747,80	1311,00
-7728,69	1395,00
-7709,62	1317,00
-7690,59	1434,00
-7671,59	1408,00
-7652,63	1559,00
-7633,70	1492,00
-7614,81	1445,00
-7595,96	1384,00
-7577,15	1210,00
-7558,37	1155,00
-7539,62	1223,00
-7520,91	1496,00
-7502,24	1383,00
-7483,60	1602,00
-7465,00	1268,00
-7446,44	1165,00
-7427,91	1126,00
-7409,41	1108,00
-7390,95	908,00
-7372,53	992,00
-7354,14	968,00
-7335,78	968,00
-7317,46	1090,00
-7299,18	1237,00
-7280,92	1257,00
-7262,71	1339,00
-7244,52	1476,00
-7226,38	1417,00
-7208,26	1372,00
-7190,18	1400,00
-7172,14	1252,00
-7154,12	1278,00
-7136,15	1424,00
-7118,20	1393,00
-7100,29	1417,00
-7082,41	1331,00
-7064,57	1212,00
-7046,76	1361,00
-7028,98	1016,00
-7011,24	1176,00
-6993,53	873,00
-6975,85	878,00
-6958,20	715,00
-6940,59	792,00
-6923,01	674,00
-6905,46	947,00
-6887,94	912,00
-6870,46	1189,00
-6853,01	1260,00
-6835,59	1386,00
-6818,21	1097,00
-6800,85	981,00
-6783,53	752,00
-6766,24	751,00
-6748,98	649,00
-6731,76	576,00
-6714,56	716,00
-6697,40	546,00
-6680,26	687,00
-6663,16	787,00
-6646,09	878,00
-6629,05	1000,00
-6612,05	958,00
-6595,07	1087,00
-6578,13	950,00
-6561,21	826,00
-6544,33	618,00
-6527,47	546,00
-6510,65	529,00
-6493,86	477,00
-6477,10	589,00
-6460,36	485,00
-6443,66	531,00
-6426,99	519,00
-6410,35	482,00
-6393,74	557,00
-6377,16	685,00
-6360,61	621,00
-6344,09	693,00
-6327,59	894,00
-6311,13	738,00
-6294,70	829,00
-6278,29	952,00
-6261,92	866,00
-6245,58	1102,00
-6229,26	1022,00
-6212,97	951,00
-6196,72	773,00
-6180,49	805,00
-6164,29	375,00
-6148,12	458,00
-6131,98	216,00
-6115,86	304,00
-6099,78	469,00
-6083,72	226,00
-6067,69	352,00
-6051,69	325,00
-6035,72	344,00
-6019,78	485,00
-6003,87	580,00
-5987,98	838,00
-5972,12	757,00
-5956,29	802,00
-5940,49	628,00
-5924,71	572,00
-5908,96	515,00
-5893,24	397,00
-5877,55	387,00
-5861,89	336,00
-5846,25	408,00
-5830,64	402,00
-5815,05	436,00
-5799,50	261,00
-5783,97	395,00
-5768,47	476,00
-5752,99	533,00
-5737,55	873,00
-5722,12	761,00
-5706,73	638,00
-5691,36	636,00
-5676,02	425,00
-5660,71	297,00
-5645,42	256,00
-5630,16	430,00
-5614,92	315,00
-5599,71	517,00
-5584,53	432,00
-5569,37	515,00
-5554,24	448,00
-5539,14	470,00
-5524,06	307,00
-5509,01	426,00
-5493,98	608,00
-5478,98	416,00
-5464,00	473,00
-5449,05	452,00
-5434,13	362,00
-5419,23	279,00
-5404,36	322,00
-5389,51	470,00
-5374,69	661,00
-5359,89	790,00
-5345,12	839,00
-5330,37	819,00
-5315,65	516,00
-5300,95	603,00
-5286,28	474,00
-5271,63	515,00
-5257,01	496,00
-5242,41	593,00
-5227,84	597,00
-5213,29	424,00
-5198,76	99,00
-5184,26	230,00
-5169,79	409,00
-5155,33	392,00
-5140,91	406,00
-5126,51	584,00
-5112,13	532,00
-5097,77	534,00
-5083,44	316,00
-5069,13	310,00
-5054,85	480,00
-5040,59	400,00
-5026,36	397,00
-5012,15	654,00
-4997,96	438,00
-4983,80	376,00
-4969,66	346,00
-4955,54	398,00
-4941,44	408,00
-4927,37	605,00
-4913,33	657,00
-4899,30	746,00
-4885,30	699,00
-4871,33	496,00
-4857,37	312,00
-4843,44	161,00
-4829,53	192,00
-4815,65	586,00
-4801,79	324,00
-4787,95	372,00
-4774,13	372,00
-4760,34	315,00
-4746,56	112,00
-4732,82	347,00
-4719,09	365,00
-4705,38	659,00
-4691,70	709,00
-4678,04	714,00
-4664,41	553,00
-4650,79	377,00
-4637,20	309,00
-4623,63	280,00
-4610,08	359,00
-4596,56	413,00
-4583,05	472,00
-4569,57	490,00
-4556,11	81,00
-4542,67	192,00
-4529,25	230,00
-4515,86	416,00
-4502,49	549,00
-4489,13	568,00
-4475,80	551,00
-4462,49	390,00
-4449,21	347,00
-4435,94	247,00
-4422,70	312,00
-4409,47	371,00
-4396,27	457,00
-4383,09	341,00
-4369,93	238,00
-4356,79	213,00
-4343,67	381,00
-4330,58	347,00
-4317,50	334,00
-4304,45	432,00
-4291,41	209,00
-4278,40	199,00
-4265,41	180,00
-4252,44	209,00
-4239,49	444,00
-4226,55	341,00
-4213,65	368,00
-4200,76	346,00
-4187,89	246,00
-4175,04	82,00
-4162,21	304,00
-4149,40	191,00
-4136,61	33,00
-4123,85	194,00
-4111,10	217,00
-4098,37	247,00
-4085,66	311,00
-4072,98	297,00
-4060,31	248,00
-4047,66	245,00
-4035,04	163,00
-4022,43	188,00
-4009,84	82,00
-3997,27	142,00
-3984,72	181,00
-3972,19	201,00
-3959,69	132,00
-3947,20	85,00
-3934,73	42,00
-3922,27	181,00
-3909,84	43,00
-3897,43	102,00
-3885,04	91,00
-3872,67	193,00
-3860,31	166,00
-3847,98	43,00
-3835,66	121,00
-3823,36	169,00
-3811,09	215,00
-3798,83	119,00
-3786,59	95,00
-3774,37	292,00
-3762,17	142,00
-3749,98	40,00
-3737,82	206,00
-3725,67	218,00
-3713,55	145,00
-3701,44	230,00
-3689,35	243,00
-3677,28	121,00
-3665,22	203,00
-3653,19	43,00
-3641,17	122,00
-3629,18	200,00
-3617,20	103,00
-3605,24	44,00
-3593,30	144,00
-3581,37	177,00
-3569,47	179,00
-3557,58	74,00
-3545,71	236,00
-3533,86	98,00
-3522,02	225,00
-3510,21	123,00
-3498,41	130,00
-3486,63	139,00
-3474,87	170,00
-3463,12	184,00
-3451,40	110,00
-3439,69	185,00
-3428,00	110,00
-3416,33	171,00
-3404,67	145,00
-3393,03	122,00
-3381,41	167,00
-3369,81	38,00
-3358,22	135,00
-3346,66	219,00
-3335,10	121,00
-3323,57	269,00
-3312,06	181,00
-3300,56	78,00
-3289,08	77,00
-3277,61	127,00
-3266,16	12,00
-3254,73	105,00
-3243,32	203,00
-3231,92	144,00
-3220,55	109,00
-3209,18	157,00
-3197,84	236,00
-3186,51	41,00
-3175,20	162,00
-3163,90	254,00
-3152,63	245,00
-3141,36	-3,00
-3130,12	12,00
-3118,89	169,00
-3107,68	78,00
-3096,49	140,00
-3085,31	159,00
-3074,15	150,00
-3063,00	174,00
-3051,87	210,00
-3040,76	169,00
-3029,67	152,00
-3018,59	214,00
-3007,52	161,00
-2996,48	118,00
-2985,44	123,00
-2974,43	376,00
-2963,43	201,00
-2952,45	182,00
-2941,48	147,00
-2930,53	122,00
-2919,60	18,00
-2908,68	240,00
-2897,78	227,00
-2886,89	200,00
-2876,02	103,00
-2865,17	40,00
-2854,33	61,00
-2843,50	49,00
-2832,70	184,00
-2821,90	-26,00
-2811,13	-81,00
-2800,37	80,00
-2789,62	197,00
-2778,89	132,00
-2768,18	192,00
-2757,48	156,00
-2746,80	224,00
-2736,13	34,00
-2725,48	62,00
-2714,84	157,00
-2704,22	118,00
-2693,61	181,00
-2683,02	230,00
-2672,45	159,00
-2661,89	306,00
-2651,34	78,00
-2640,81	131,00
-2630,30	136,00
-2619,80	149,00
-2609,31	166,00
-2598,84	222,00
-2588,39	140,00
-2577,95	24,00
-2567,52	150,00
-2557,11	117,00
-2546,71	205,00
-2536,33	78,00
-2525,97	207,00
-2515,62	203,00
-2505,28	94,00
-2494,96	120,00
-2484,65	13,00
-2474,36	274,00
-2464,08	212,00
-2453,82	224,00
-2443,57	95,00
-2433,33	125,00
-2423,11	198,00
-2412,91	169,00
-2402,72	195,00
-2392,54	163,00
-2382,38	178,00
-2372,23	148,00
-2362,09	180,00
-2351,97	168,00
-2341,87	103,00
-2331,78	208,00
-2321,70	223,00
-2311,64	110,00
-2301,59	71,00
-2291,55	125,00
-2281,53	164,00
-2271,53	203,00
-2261,53	72,00
-2251,55	104,00
-2241,59	221,00
-2231,64	107,00
-2221,70	217,00
-2211,78	195,00
-2201,87	201,00
-2191,97	154,00
-2182,09	114,00
-2172,22	233,00
-2162,37	175,00
-2152,53	47,00
-2142,70	205,00
-2132,89	221,00
-2123,09	192,00
-2113,30	189,00
-2103,53	156,00
-2093,77	66,00
-2084,02	107,00
-2074,29	88,00
-2064,57	83,00
-2054,86	136,00
-2045,17	139,00
-2035,49	153,00
-2025,82	72,00
-2016,17	23,00
-2006,53	154,00
-1996,91	63,00
-1987,29	83,00
-1977,69	140,00
-1968,11	102,00
-1958,53	259,00
-1948,97	160,00
-1939,42	247,00
-1929,89	-3,00
-1920,37	294,00
-1910,86	136,00
-1901,36	203,00
-1891,88	63,00
-1882,41	119,00
-1872,95	131,00
-1863,51	16,00
-1854,08	140,00
-1844,66	176,00
-1835,26	177,00
-1825,86	237,00
-1816,48	128,00
-1807,11	76,00
-1797,76	146,00
-1788,42	160,00
-1779,09	76,00
-1769,77	76,00
-1760,47	195,00
-1751,17	146,00
-1741,89	118,00
-1732,63	95,00
-1723,37	80,00
-1714,13	76,00
-1704,90	17,00
-1695,68	160,00
-1686,48	160,00
-1677,29	163,00
-1668,11	224,00
-1658,94	203,00
-1649,78	122,00
-1640,64	183,00
-1631,51	240,00
-1622,39	228,00
-1613,28	68,00
-1604,19	101,00
-1595,10	184,00
-1586,03	130,00
-1576,97	121,00
-1567,93	130,00
-1558,89	158,00
-1549,87	236,00
-1540,86	163,00
-1531,86	115,00
-1522,87	36,00
-1513,90	246,00
-1504,93	171,00
-1495,98	80,00
-1487,04	50,00
-1478,12	184,00
-1469,20	116,00
-1460,30	224,00
-1451,40	228,00
-1442,52	82,00
-1433,65	75,00
-1424,80	192,00
-1415,95	281,00
-1407,12	254,00
-1398,30	165,00
-1389,48	223,00
-1380,69	100,00
-1371,90	103,00
-1363,12	128,00
-1354,36	120,00
-1345,60	218,00
-1336,86	152,00
-1328,13	208,00
-1319,41	133,00
-1310,70	213,00
-1302,01	174,00
-1293,32	258,00
-1284,65	208,00
-1275,99	108,00
-1267,33	67,00
-1258,69	184,00
-1250,06	201,00
-1241,45	226,00
-1232,84	144,00
-1224,25	10,00
-1215,66	173,00
-1207,09	89,00
-1198,53	39,00
-1189,97	132,00
-1181,43	277,00
-1172,91	199,00
-1164,39	237,00
-1155,88	158,00
-1147,38	158,00
-1138,90	205,00
-1130,43	134,00
-1121,96	117,00
-1113,51	184,00
-1105,07	121,00
-1096,64	184,00
-1088,22	245,00
-1079,81	180,00
-1071,41	281,00
-1063,02	31,00
-1054,65	186,00
-1046,28	143,00
-1037,92	175,00
-1029,58	153,00
-1021,24	148,00
-1012,92	328,00
-1004,61	80,00
-996,30	281,00
-988,01	25,00
-979,73	298,00
-971,46	65,00
-963,20	134,00
-954,95	66,00
-946,71	139,00
-938,48	144,00
-930,26	-21,00
-922,06	128,00
-913,86	264,00
-905,67	277,00
-897,49	64,00
-889,33	125,00
-881,17	271,00
-873,02	278,00
-864,89	66,00
-856,76	52,00
-848,65	278,00
-840,54	113,00
-832,45	174,00
-824,36	107,00
-816,29	220,00
-808,22	134,00
-800,17	160,00
-792,12	187,00
-784,09	231,00
-776,06	125,00
-768,05	120,00
-760,04	178,00
-752,05	138,00
-744,07	214,00
-736,09	159,00
-728,13	187,00
-720,17	159,00
-712,23	150,00
-704,29	100,00
-696,37	162,00
-688,45	123,00
-680,55	176,00
-672,65	189,00
-664,77	145,00
-656,89	41,00
-649,03	155,00
-641,17	184,00
-633,32	160,00
-625,49	141,00
-617,66	126,00
-609,84	94,00
-602,03	151,00
-594,23	117,00
-586,45	95,00
-578,67	128,00
-570,90	101,00
-563,14	121,00
-555,39	247,00
-547,65	81,00
-539,91	151,00
-532,19	193,00
-524,48	143,00
-516,78	139,00
-509,08	167,00
-501,40	127,00
-493,72	97,00
-486,06	170,00
-478,40	228,00
-470,76	105,00
-463,12	97,00
-455,49	163,00
-447,87	103,00
-440,26	173,00
-432,66	112,00
-425,07	208,00
-417,49	132,00
-409,92	208,00
-402,35	104,00
-394,80	256,00
-387,25	113,00
-379,72	155,00
-372,19	240,00
-364,67	412,00
-357,17	156,00
-349,67	190,00
-342,18	265,00
-334,69	277,00
-327,22	172,00
-319,76	149,00
-312,30	217,00
-304,86	125,00
-297,42	158,00
-290,00	229,00
-282,58	119,00
-275,17	272,00
-267,77	270,00
-260,37	160,00
-252,99	241,00
-245,62	178,00
-238,25	272,00
-230,90	144,00
-223,55	331,00
-216,21	187,00
-208,88	283,00
-201,56	288,00
-194,25	343,00
-186,94	174,00
-179,65	318,00
-172,36	383,00
-165,08	193,00
-157,81	350,00
-150,55	283,00
-143,30	334,00
-136,06	355,00
-128,82	378,00
-121,60	449,00
-114,38	431,00
-107,17	235,00
-99,97	477,00
-92,78	604,00
-85,60	536,00
-78,42	745,00
-71,25	774,00
-64,10	965,00
-56,95	1099,00
-49,81	1288,00
-42,67	1576,00
-35,55	1796,00
-28,43	2471,00
-21,33	4314,00
-14,23	14495,00
-7,14	47266,00
-0,05	38051,00
7,02	42597,00
14,09	38208,00
21,14	10303,00
28,19	4506,00
35,23	3109,00
42,27	2192,00
49,29	1910,00
56,31	1602,00
63,32	1304,00
70,32	1369,00
77,31	1105,00
84,29	897,00
91,27	773,00
98,23	747,00
105,19	778,00
112,14	738,00
119,09	980,00
126,02	1357,00
132,95	1440,00
139,87	1630,00
146,78	1442,00
153,68	1363,00
160,58	1461,00
167,46	1402,00
174,34	1471,00
181,21	1316,00
188,08	1327,00
194,93	1420,00
201,78	1353,00
208,62	1463,00
215,45	1329,00
222,27	1464,00
229,09	1328,00
235,90	1289,00
242,70	1242,00
249,49	1316,00
256,27	1338,00
263,05	1199,00
269,82	1232,00
276,58	1312,00
283,33	1279,00
290,08	1396,00
296,82	1223,00
303,55	1052,00
310,27	1216,00
316,98	1094,00
323,69	1320,00
330,39	1128,00
337,08	1164,00
343,76	1109,00
350,44	1098,00
357,11	1053,00
363,77	1149,00
370,42	1091,00
377,07	1075,00
383,71	1002,00
390,34	1096,00
396,96	1113,00
403,58	1047,00
410,19	1031,00
416,79	1077,00
423,38	1076,00
429,97	1141,00
436,55	958,00
443,12	1044,00
449,68	1107,00
456,24	1050,00
462,79	1048,00
469,33	883,00
475,86	1035,00
482,39	1063,00
488,91	960,00
495,42	961,00
501,93	999,00
508,42	1153,00
514,91	1024,00
521,40	954,00
527,87	933,00
534,34	820,00
540,80	985,00
547,25	876,00
553,70	923,00
560,14	935,00
566,57	902,00
573,00	931,00
579,41	853,00
585,83	967,00
592,23	891,00
598,62	838,00
605,01	741,00
611,40	797,00
617,77	901,00
624,14	884,00
630,50	888,00
636,85	676,00
643,20	864,00
649,54	903,00
655,87	865,00
662,20	923,00
668,52	866,00
674,83	894,00
681,13	820,00
687,43	866,00
693,72	804,00
700,00	873,00
706,28	896,00
712,55	911,00
718,81	952,00
725,07	860,00
731,32	812,00
737,56	885,00
743,79	867,00
750,02	988,00
756,24	918,00
762,46	683,00
768,67	1025,00
774,87	789,00
781,06	896,00
787,25	850,00
793,43	810,00
799,60	950,00
805,77	776,00
811,93	807,00
818,08	944,00
824,23	869,00
830,37	782,00
836,50	823,00
842,63	765,00
848,75	833,00
854,87	872,00
860,97	937,00
867,07	995,00
873,17	969,00
879,25	761,00
885,33	982,00
891,41	803,00
897,47	792,00
903,53	683,00
909,59	848,00
915,63	936,00
921,67	851,00
927,71	710,00
933,74	769,00
939,76	807,00
945,77	803,00
951,78	967,00
957,78	659,00
963,78	808,00
969,77	856,00
975,75	775,00
981,72	776,00
987,69	1174,00
993,66	875,00
999,61	842,00
1005,56	962,00
1011,51	745,00
1017,44	694,00
1023,37	793,00
1029,30	772,00
1035,22	767,00
1041,13	853,00
1047,03	844,00
1052,93	1087,00
1058,83	1433,00
1064,71	1486,00
1070,59	1311,00
1076,47	966,00
1082,33	1064,00
1088,20	841,00
1094,05	834,00
1099,90	951,00
1105,74	855,00
1111,58	821,00
1117,41	978,00
1123,23	1320,00
1129,05	1530,00
1134,86	1550,00
1140,67	1166,00
1146,47	952,00
1152,26	852,00
1158,05	942,00
1163,83	922,00
1169,60	883,00
1175,37	942,00
1181,13	823,00
1186,89	839,00
1192,64	858,00
1198,38	791,00
1204,12	784,00
1209,85	757,00
1215,58	835,00
1221,30	771,00
1227,02	756,00
1232,72	729,00
1238,43	789,00
1244,12	931,00
1249,81	930,00
1255,50	888,00
1261,17	837,00
1266,85	961,00
1272,51	1057,00
1278,17	981,00
1283,83	1120,00
1289,47	1596,00
1295,12	1853,00
1300,75	1765,00
1306,38	1417,00
1312,01	1012,00
1317,63	1005,00
1323,24	958,00
1328,85	939,00
1334,45	984,00
1340,04	861,00
1345,63	875,00
1351,22	877,00
1356,80	892,00
1362,37	1071,00
1367,93	1170,00
1373,49	1076,00
1379,05	996,00
1384,60	1018,00
1390,14	1042,00
1395,68	934,00
1401,21	1009,00
1406,74	1063,00
1412,26	1241,00
1417,77	1297,00
1423,28	1333,00
1428,78	1509,00
1434,28	1768,00
1439,77	1974,00
1445,26	1990,00
1450,74	1837,00
1456,22	1661,00
1461,68	1613,00
1467,15	1383,00
1472,61	1365,00
1478,06	1327,00
1483,51	1076,00
1488,95	1048,00
1494,38	967,00
1499,81	728,00
1505,24	836,00
1510,65	826,00
1516,07	890,00
1521,48	864,00
1526,88	718,00
1532,27	871,00
1537,67	869,00
1543,05	836,00
1548,43	753,00
1553,81	785,00
1559,18	957,00
1564,54	649,00
1569,90	660,00
1575,25	651,00
1580,60	902,00
1585,94	708,00
1591,28	781,00
1596,61	768,00
1601,93	738,00
1607,25	703,00
1612,57	836,00
1617,88	788,00
1623,18	840,00
1628,48	816,00
1633,77	826,00
1639,06	814,00
1644,34	712,00
1649,62	647,00
1654,89	639,00
1660,16	708,00
1665,42	766,00
1670,67	734,00
1675,92	685,00
1681,17	780,00
1686,41	648,00
1691,64	814,00
1696,87	652,00
1702,10	732,00
1707,32	625,00
1712,53	620,00
1717,74	661,00
1722,94	606,00
1728,14	786,00
1733,33	687,00
1738,52	870,00
1743,70	740,00
1748,88	671,00
1754,05	690,00
1759,22	628,00
1764,38	636,00
1769,53	582,00
1774,69	656,00
1779,83	646,00
1784,97	557,00
1790,11	607,00
1795,24	567,00
1800,36	743,00
1805,48	647,00
1810,60	656,00
1815,71	492,00
1820,82	770,00
1825,92	605,00
1831,01	595,00
1836,10	635,00
1841,19	658,00
1846,26	557,00
1851,34	664,00
1856,41	593,00
1861,47	660,00
1866,53	564,00
1871,59	624,00
1876,64	629,00
1881,68	647,00
1886,72	598,00
1891,76	477,00
1896,79	621,00
1901,81	618,00
1906,83	592,00
1911,85	567,00
1916,86	636,00
1921,86	568,00
1926,86	594,00
1931,86	649,00
1936,85	676,00
1941,83	669,00
1946,81	560,00
1951,79	686,00
1956,76	480,00
1961,72	680,00
1966,68	550,00
1971,64	683,00
1976,59	552,00
1981,54	539,00
1986,48	512,00
1991,42	560,00
1996,35	720,00
2001,27	421,00
2006,20	683,00
2011,11	703,00
2016,03	498,00
2020,93	652,00
2025,84	460,00
2030,73	537,00
2035,63	494,00
2040,52	593,00
2045,40	519,00
2050,28	464,00
2055,15	480,00
2060,02	646,00
2064,89	583,00
2069,75	468,00
2074,60	574,00
2079,46	531,00
2084,30	544,00
2089,14	526,00
2093,98	529,00
2098,81	489,00
2103,64	549,00
2108,46	588,00
2113,28	533,00
2118,09	613,00
2122,90	608,00
2127,70	599,00
2132,50	522,00
2137,30	465,00
2142,09	591,00
2146,87	469,00
2151,66	499,00
2156,43	575,00
2161,20	565,00
2165,97	528,00
2170,73	558,00
2175,49	568,00
2180,24	577,00
2184,99	371,00
2189,74	587,00
2194,48	505,00
2199,21	498,00
2203,94	479,00
2208,67	496,00
2213,39	456,00
2218,11	485,00
2222,82	550,00
2227,53	536,00
2232,23	414,00
2236,93	547,00
2241,63	515,00
2246,32	403,00
2251,00	612,00
2255,68	526,00
2260,36	429,00
2265,03	490,00
2269,70	454,00
2274,36	551,00
2279,02	439,00
2283,68	468,00
2288,33	511,00
2292,97	472,00
2297,61	547,00
2302,25	453,00
2306,88	541,00
2311,51	552,00
2316,14	447,00
2320,75	455,00
2325,37	462,00
2329,98	492,00
2334,59	392,00
2339,19	520,00
2343,79	389,00
2348,38	517,00
2352,97	503,00
2357,55	572,00
2362,13	536,00
2366,71	396,00
2371,28	528,00
2375,85	511,00
2380,41	607,00
2384,97	347,00
2389,52	395,00
2394,07	422,00
2398,62	349,00
2403,16	531,00
2407,70	507,00
2412,23	495,00
2416,76	457,00
2421,29	364,00
2425,81	476,00
2430,32	398,00
2434,84	398,00
2439,34	552,00
2443,85	414,00
2448,35	439,00
2452,84	445,00
2457,33	470,00
2461,82	371,00
2466,30	499,00
2470,78	532,00
2475,25	336,00
2479,72	439,00
2484,19	473,00
2488,65	401,00
2493,11	318,00
2497,56	521,00
2502,01	470,00
2506,46	476,00
2510,90	503,00
2515,34	322,00
2519,77	388,00
2524,20	449,00
2528,62	510,00
2533,04	414,00
2537,46	518,00
2541,87	355,00
2546,28	369,00
2550,68	384,00
2555,08	449,00
2559,48	389,00
2563,87	438,00
2568,26	212,00
2572,64	333,00
2577,02	392,00
2581,40	342,00
2585,77	428,00
2590,14	515,00
2594,50	417,00
2598,86	453,00
2603,22	357,00
2607,57	270,00
2611,92	480,00
2616,26	459,00
2620,60	483,00
2624,94	364,00
2629,27	443,00
2633,60	394,00
2637,92	361,00
2642,24	320,00
2646,56	483,00
2650,87	384,00
2655,18	475,00
2659,48	386,00
2663,78	394,00
2668,08	538,00
2672,37	529,00
2676,66	473,00
2680,95	457,00
2685,23	384,00
2689,50	527,00
2693,78	463,00
2698,05	419,00
2702,31	435,00
2706,57	400,00
2710,83	390,00
2715,08	473,00
2719,33	517,00
2723,58	438,00
2727,82	379,00
2732,06	464,00
2736,29	560,00
2740,53	572,00
2744,75	478,00
2748,97	390,00
2753,19	531,00
2757,41	313,00
2761,62	522,00
2765,83	479,00
2770,03	488,00
2774,23	453,00
2778,43	457,00
2782,62	650,00
2786,81	417,00
2791,00	520,00
2795,18	564,00
2799,35	503,00
2803,53	502,00
2807,70	572,00
2811,86	650,00
2816,03	652,00
2820,19	593,00
2824,34	699,00
2828,49	632,00
2832,64	894,00
2836,78	994,00
2840,92	1356,00
2845,06	1410,00
2849,19	1547,00
2853,32	1772,00
2857,45	1633,00
2861,57	1588,00
2865,69	1494,00
2869,80	1533,00
2873,91	1618,00
2878,02	1630,00
2882,12	1767,00
2886,22	1886,00
2890,32	1604,00
2894,41	1463,00
2898,50	1453,00
2902,58	1359,00
2906,67	1310,00
2910,74	1211,00
2914,82	1054,00
2918,89	979,00
2922,96	968,00
2927,02	929,00
2931,08	956,00
2935,13	752,00
2939,19	875,00
2943,24	739,00
2947,28	591,00
2951,32	708,00
2955,36	648,00
2959,40	517,00
2963,43	418,00
2967,46	569,00
2971,48	355,00
2975,50	509,00
2979,52	416,00
2983,53	376,00
2987,54	429,00
2991,55	349,00
2995,55	373,00
2999,55	419,00
3003,54	419,00
3007,54	391,00
3011,53	370,00
3015,51	372,00
3019,49	248,00
3023,47	291,00
3027,45	310,00
3031,42	233,00
3035,39	331,00
3039,35	327,00
3043,31	407,00
3047,27	392,00
3051,22	244,00
3055,17	311,00
3059,12	302,00
3063,06	229,00
3067,00	267,00
3070,94	368,00
3074,87	296,00
3078,80	236,00
3082,73	355,00
3086,65	227,00
3090,57	320,00
3094,49	231,00
3098,40	324,00
3102,31	208,00
3106,22	371,00
3110,12	336,00
3114,02	202,00
3117,92	359,00
3121,81	242,00
3125,70	197,00
3129,58	285,00
3133,47	268,00
3137,34	213,00
3141,22	470,00
3145,09	290,00
3148,96	239,00
3152,83	330,00
3156,69	248,00
3160,55	259,00
3164,40	304,00
3168,26	187,00
3172,10	301,00
3175,95	249,00
3179,79	195,00
3183,63	147,00
3187,47	370,00
3191,30	300,00
3195,13	296,00
3198,95	123,00
3202,78	270,00
3206,60	278,00
3210,41	198,00
3214,23	241,00
3218,03	255,00
3221,84	173,00
3225,64	208,00
3229,44	165,00
3233,24	245,00
3237,03	330,00
3240,82	239,00
3244,61	203,00
3248,39	208,00
3252,17	350,00
3255,95	126,00
3259,72	223,00
3263,49	158,00
3267,26	244,00
3271,03	277,00
3274,79	236,00
3278,54	236,00
3282,30	214,00
3286,05	189,00
3289,80	116,00
3293,54	151,00
3297,29	210,00
3301,02	272,00
3304,76	134,00
3308,49	138,00
3312,22	226,00
3315,95	141,00
3319,67	269,00
3323,39	190,00
3327,10	147,00
3330,82	308,00
3334,53	242,00
3338,24	208,00
3341,94	260,00
3345,64	165,00
3349,34	185,00
3353,03	289,00
3356,72	299,00
3360,41	251,00
3364,10	277,00
3367,78	201,00
3371,46	194,00
3375,13	310,00
3378,81	152,00
3382,48	184,00
3386,14	48,00
3389,81	274,00
3393,47	264,00
3397,12	165,00
3400,78	173,00
3404,43	257,00
3408,08	291,00
3411,72	176,00
3415,36	168,00
3419,00	244,00
3422,64	206,00
3426,27	278,00
3429,90	85,00
3433,53	154,00
3437,15	170,00
3440,77	248,00
3444,39	216,00
3448,00	4,00
3451,62	231,00
3455,22	326,00
3458,83	230,00
3462,43	131,00
3466,03	-8,00
3469,63	224,00
3473,22	140,00
3476,81	282,00
3480,40	44,00
3483,99	87,00
3487,57	211,00
3491,15	213,00
3494,72	164,00
3498,29	203,00
3501,86	210,00
3505,43	204,00
3508,99	308,00
3512,56	177,00
3516,11	202,00
3519,67	129,00
3523,22	149,00
3526,77	130,00
3530,32	192,00
3533,86	224,00
3537,40	200,00
3540,94	202,00
3544,47	129,00
3548,00	175,00
3551,53	166,00
3555,06	101,00
3558,58	262,00
3562,10	207,00
3565,62	301,00
3569,13	174,00
3572,64	163,00
3576,15	284,00
3579,66	171,00
3583,16	138,00
3586,66	95,00
3590,16	185,00
3593,65	172,00
3597,14	76,00
3600,63	186,00
3604,11	284,00
3607,60	128,00
3611,08	205,00
3614,55	87,00
3618,03	166,00
3621,50	141,00
3624,97	148,00
3628,43	186,00
3631,90	177,00
3635,36	180,00
3638,81	86,00
3642,27	56,00
3645,72	204,00
3649,17	114,00
3652,61	32,00
3656,06	237,00
3659,50	119,00
3662,93	87,00
3666,37	100,00
3669,80	74,00
3673,23	191,00
3676,65	113,00
3680,08	197,00
3683,50	63,00
3686,92	157,00
3690,33	117,00
3693,74	57,00
3697,15	255,00
3700,56	85,00
3703,96	83,00
3707,36	83,00
3710,76	27,00
3714,16	132,00
3717,55	110,00
3720,94	194,00
3724,33	80,00
3727,71	30,00
3731,10	148,00
3734,48	113,00
3737,85	133,00
3741,23	83,00
3744,60	215,00
3747,97	132,00
3751,33	159,00
3754,69	83,00
3758,05	141,00
3761,41	38,00
3764,77	191,00
3768,12	180,00
3771,47	171,00
3774,82	86,00
3778,16	2,00
3781,50	-4,00
3784,84	0,00
3788,18	12,00
>>>>>End Processed Spectral Data<<<<<
