SpectraSuite Data File
++++++++++++++++++++++++++++++++++++
Date: Tue Mar 03 12:37:31 ICT 2026
User: user
Dark Spectrum Present: Yes
Reference Spectrum Present: No
Number of Sampled Component Spectra: 1
Spectrometers: MAYP113682
Integration Time (usec): 3000000 (MAYP113682)
Spectra Averaged: 1 (MAYP113682)
Boxcar Smoothing: 0 (MAYP113682)
Correct for Electrical Dark: No (MAYP113682)
Strobe/Lamp Enabled: No (MAYP113682)
Correct for Detector Non-linearity: No (MAYP113682)
Correct for Stray Light: No (MAYP113682)
Number of Pixels in Processed Spectrum: 2068
>>>>>Begin Processed Spectral Data<<<<<
-37534,58	7,00
-37414,56	-1,00
-37295,11	-3,00
-37176,24	3,00
-37057,95	71,00
-36940,22	42,00
-36823,05	52,00
-36706,45	74,00
-36590,40	183,00
-36474,90	12,00
-36359,95	-35,00
-36245,55	232,00
-36131,68	79,00
-36018,35	144,00
-35905,55	60,00
-35793,29	62,00
-35681,54	111,00
-35570,32	100,00
-35459,62	-17,00
-35349,43	56,00
-35239,75	163,00
-35130,58	216,00
-35021,91	55,00
-34913,74	134,00
-34806,07	40,00
-34698,89	167,00
-34592,20	8,00
-34486,00	-40,00
-34380,28	99,00
-34275,04	9,00
-34170,27	25,00
-34065,98	30,00
-33962,16	97,00
-33858,81	101,00
-33755,92	133,00
-33653,49	41,00
-33551,52	94,00
-33450,01	52,00
-33348,94	109,00
-33248,33	112,00
-33148,16	104,00
-33048,43	137,00
-32949,14	100,00
-32850,29	161,00
-32751,87	104,00
-32653,89	51,00
-32556,33	-17,00
-32459,20	47,00
-32362,49	54,00
-32266,19	84,00
-32170,32	92,00
-32074,86	-26,00
-31979,82	132,00
-31885,18	-23,00
-31790,95	-83,00
-31697,12	155,00
-31603,69	87,00
-31510,67	134,00
-31418,04	167,00
-31325,80	101,00
-31233,95	95,00
-31142,49	124,00
-31051,42	5,00
-30960,73	49,00
-30870,43	39,00
-30780,50	35,00
-30690,95	71,00
-30601,77	62,00
-30512,97	-1,00
-30424,53	144,00
-30336,46	101,00
-30248,76	64,00
-30161,42	96,00
-30074,44	90,00
-29987,81	199,00
-29901,55	106,00
-29815,63	74,00
-29730,07	-54,00
-29644,86	-27,00
-29560,00	160,00
-29475,48	28,00
-29391,30	75,00
-29307,47	64,00
-29223,97	66,00
-29140,81	-58,00
-29057,99	70,00
-28975,50	137,00
-28893,34	110,00
-28811,51	32,00
-28730,00	109,00
-28648,82	-15,00
-28567,97	34,00
-28487,43	92,00
-28407,21	22,00
-28327,32	14,00
-28247,73	-67,00
-28168,46	92,00
-28089,50	-2,00
-28010,85	2,00
-27932,51	170,00
-27854,48	-70,00
-27776,75	31,00
-27699,32	-30,00
-27622,19	168,00
-27545,37	163,00
-27468,84	127,00
-27392,60	1,00
-27316,66	112,00
-27241,01	52,00
-27165,66	137,00
-27090,59	68,00
-27015,81	179,00
-26941,31	25,00
-26867,10	204,00
-26793,17	24,00
-26719,52	-40,00
-26646,15	113,00
-26573,06	221,00
-26500,24	182,00
-26427,70	42,00
-26355,43	146,00
-26283,43	39,00
-26211,71	44,00
-26140,25	31,00
-26069,06	184,00
-25998,13	-45,00
-25927,46	166,00
-25857,06	-87,00
-25786,92	13,00
-25717,04	-42,00
-25647,42	98,00
-25578,05	178,00
-25508,94	22,00
-25440,09	148,00
-25371,48	114,00
-25303,13	87,00
-25235,02	96,00
-25167,17	-69,00
-25099,56	69,00
-25032,19	240,00
-24965,07	48,00
-24898,20	-20,00
-24831,56	136,00
-24765,17	19,00
-24699,01	117,00
-24633,10	51,00
-24567,41	9,00
-24501,97	62,00
-24436,75	-52,00
-24371,77	150,00
-24307,03	32,00
-24242,51	22,00
-24178,22	88,00
-24114,16	21,00
-24050,32	72,00
-23986,71	1,00
-23923,32	101,00
-23860,16	40,00
-23797,22	106,00
-23734,50	-42,00
-23672,00	88,00
-23609,71	312,00
-23547,65	26,00
-23485,80	135,00
-23424,16	110,00
-23362,74	95,00
-23301,53	16,00
-23240,54	112,00
-23179,75	36,00
-23119,17	105,00
-23058,80	139,00
-22998,64	76,00
-22938,68	102,00
-22878,93	-90,00
-22819,39	140,00
-22760,04	-118,00
-22700,90	-30,00
-22641,96	-71,00
-22583,22	111,00
-22524,68	136,00
-22466,33	148,00
-22408,19	57,00
-22350,23	101,00
-22292,48	30,00
-22234,92	-36,00
-22177,55	7,00
-22120,37	5,00
-22063,38	57,00
-22006,58	95,00
-21949,98	163,00
-21893,56	183,00
-21837,33	144,00
-21781,28	157,00
-21725,42	7,00
-21669,74	68,00
-21614,25	96,00
-21558,94	29,00
-21503,81	189,00
-21448,86	58,00
-21394,10	20,00
-21339,51	200,00
-21285,10	67,00
-21230,86	71,00
-21176,81	70,00
-21122,93	134,00
-21069,22	129,00
-21015,69	80,00
-20962,33	137,00
-20909,14	86,00
-20856,13	132,00
-20803,28	55,00
-20750,61	103,00
-20698,10	133,00
-20645,76	135,00
-20593,59	83,00
-20541,59	93,00
-20489,75	-21,00
-20438,07	230,00
-20386,56	130,00
-20335,22	21,00
-20284,03	16,00
-20233,01	-63,00
-20182,15	81,00
-20131,45	149,00
-20080,91	-7,00
-20030,52	82,00
-19980,30	5,00
-19930,23	6,00
-19880,32	108,00
-19830,56	158,00
-19780,96	47,00
-19731,52	157,00
-19682,23	-23,00
-19633,09	-8,00
-19584,10	79,00
-19535,26	167,00
-19486,58	-81,00
-19438,04	-56,00
-19389,66	48,00
-19341,42	-16,00
-19293,33	24,00
-19245,39	60,00
-19197,60	108,00
-19149,95	161,00
-19102,45	116,00
-19055,09	149,00
-19007,87	102,00
-18960,80	113,00
-18913,87	69,00
-18867,09	74,00
-18820,44	142,00
-18773,94	77,00
-18727,57	159,00
-18681,35	72,00
-18635,26	71,00
-18589,31	162,00
-18543,50	139,00
-18497,83	-70,00
-18452,29	-40,00
-18406,89	75,00
-18361,63	16,00
-18316,50	37,00
-18271,50	10,00
-18226,63	191,00
-18181,90	136,00
-18137,30	94,00
-18092,84	73,00
-18048,50	59,00
-18004,29	83,00
-17960,22	186,00
-17916,27	15,00
-17872,45	84,00
-17828,76	59,00
-17785,20	26,00
-17741,77	148,00
-17698,46	140,00
-17655,28	116,00
-17612,22	-11,00
-17569,29	152,00
-17526,48	40,00
-17483,79	12,00
-17441,23	31,00
-17398,79	126,00
-17356,48	114,00
-17314,28	83,00
-17272,21	84,00
-17230,26	99,00
-17188,42	161,00
-17146,71	189,00
-17105,12	93,00
-17063,64	183,00
-17022,28	16,00
-16981,04	36,00
-16939,92	125,00
-16898,91	118,00
-16858,02	-84,00
-16817,25	49,00
-16776,59	189,00
-16736,04	35,00
-16695,61	82,00
-16655,29	148,00
-16615,09	-24,00
-16574,99	2,00
-16535,01	115,00
-16495,15	102,00
-16455,39	102,00
-16415,74	178,00
-16376,21	15,00
-16336,78	-30,00
-16297,46	86,00
-16258,26	245,00
-16219,16	-5,00
-16180,17	153,00
-16141,28	141,00
-16102,51	-55,00
-16063,84	59,00
-16025,27	106,00
-15986,82	156,00
-15948,46	-52,00
-15910,22	63,00
-15872,07	120,00
-15834,04	91,00
-15796,10	121,00
-15758,27	115,00
-15720,54	5,00
-15682,91	-24,00
-15645,39	67,00
-15607,97	148,00
-15570,64	22,00
-15533,42	123,00
-15496,30	9,00
-15459,28	62,00
-15422,36	89,00
-15385,54	80,00
-15348,82	140,00
-15312,19	-10,00
-15275,66	-86,00
-15239,23	36,00
-15202,90	74,00
-15166,67	151,00
-15130,53	32,00
-15094,48	105,00
-15058,54	93,00
-15022,68	100,00
-14986,93	53,00
-14951,26	74,00
-14915,69	41,00
-14880,22	52,00
-14844,84	34,00
-14809,55	-20,00
-14774,35	-57,00
-14739,25	143,00
-14704,24	63,00
-14669,32	65,00
-14634,49	158,00
-14599,75	49,00
-14565,10	159,00
-14530,55	33,00
-14496,08	159,00
-14461,70	110,00
-14427,41	3,00
-14393,21	-25,00
-14359,10	84,00
-14325,07	149,00
-14291,14	215,00
-14257,29	-18,00
-14223,52	-24,00
-14189,85	57,00
-14156,26	38,00
-14122,76	22,00
-14089,34	46,00
-14056,01	168,00
-14022,76	92,00
-13989,60	48,00
-13956,52	22,00
-13923,53	30,00
-13890,62	146,00
-13857,79	129,00
-13825,05	140,00
-13792,39	173,00
-13759,81	115,00
-13727,31	80,00
-13694,90	82,00
-13662,57	212,00
-13630,31	78,00
-13598,14	-2,00
-13566,05	108,00
-13534,05	-8,00
-13502,12	109,00
-13470,27	127,00
-13438,50	-38,00
-13406,80	206,00
-13375,19	52,00
-13343,66	4,00
-13312,20	11,00
-13280,83	66,00
-13249,53	89,00
-13218,30	155,00
-13187,16	-16,00
-13156,09	-36,00
-13125,10	163,00
-13094,18	104,00
-13063,34	5,00
-13032,58	54,00
-13001,89	-59,00
-12971,28	136,00
-12940,74	47,00
-12910,27	74,00
-12879,88	50,00
-12849,57	98,00
-12819,33	138,00
-12789,16	100,00
-12759,06	39,00
-12729,04	81,00
-12699,09	-56,00
-12669,21	84,00
-12639,41	50,00
-12609,68	-4,00
-12580,02	23,00
-12550,43	101,00
-12520,91	120,00
-12491,46	34,00
-12462,08	86,00
-12432,77	86,00
-12403,54	77,00
-12374,37	107,00
-12345,27	-15,00
-12316,24	152,00
-12287,29	73,00
-12258,40	91,00
-12229,57	184,00
-12200,82	88,00
-12172,14	14,00
-12143,52	71,00
-12114,97	148,00
-12086,49	110,00
-12058,07	54,00
-12029,73	-63,00
-12001,44	42,00
-11973,23	112,00
-11945,08	57,00
-11917,00	57,00
-11888,98	160,00
-11861,03	44,00
-11833,15	108,00
-11805,32	94,00
-11777,57	82,00
-11749,88	96,00
-11722,25	-20,00
-11694,69	78,00
-11667,19	99,00
-11639,75	54,00
-11612,38	129,00
-11585,07	81,00
-11557,83	123,00
-11530,65	181,00
-11503,53	189,00
-11476,47	96,00
-11449,48	102,00
-11422,54	88,00
-11395,67	88,00
-11368,86	-34,00
-11342,11	123,00
-11315,43	66,00
-11288,80	190,00
-11262,23	126,00
-11235,73	122,00
-11209,28	56,00
-11182,90	20,00
-11156,57	33,00
-11130,31	214,00
-11104,10	120,00
-11077,96	99,00
-11051,87	173,00
-11025,84	106,00
-10999,87	103,00
-10973,96	15,00
-10948,11	114,00
-10922,31	-52,00
-10896,58	121,00
-10870,90	101,00
-10845,28	82,00
-10819,71	-7,00
-10794,20	144,00
-10768,75	107,00
-10743,36	96,00
-10718,02	183,00
-10692,74	96,00
-10667,52	118,00
-10642,35	145,00
-10617,24	179,00
-10592,18	303,00
-10567,18	54,00
-10542,23	182,00
-10517,34	246,00
-10492,51	139,00
-10467,72	303,00
-10443,00	214,00
-10418,32	209,00
-10393,70	180,00
-10369,14	238,00
-10344,63	257,00
-10320,17	294,00
-10295,77	374,00
-10271,42	301,00
-10247,12	286,00
-10222,88	413,00
-10198,68	456,00
-10174,54	482,00
-10150,46	512,00
-10126,42	393,00
-10102,44	460,00
-10078,51	576,00
-10054,63	587,00
-10030,80	583,00
-10007,03	597,00
-9983,30	638,00
-9959,63	696,00
-9936,01	757,00
-9912,44	811,00
-9888,92	806,00
-9865,44	783,00
-9842,02	809,00
-9818,65	944,00
-9795,33	862,00
-9772,06	939,00
-9748,84	936,00
-9725,67	1076,00
-9702,55	1241,00
-9679,47	1431,00
-9656,45	1570,00
-9633,47	1626,00
-9610,55	1503,00
-9587,67	1681,00
-9564,84	1922,00
-9542,06	1987,00
-9519,32	2258,00
-9496,64	2597,00
-9474,00	2725,00
-9451,41	2740,00
-9428,87	2705,00
-9406,37	2660,00
-9383,92	2469,00
-9361,52	2236,00
-9339,17	2310,00
-9316,86	2701,00
-9294,60	2938,00
-9272,38	3299,00
-9250,21	3449,00
-9228,09	3654,00
-9206,01	3443,00
-9183,98	3095,00
-9162,00	2575,00
-9140,06	2470,00
-9118,16	2604,00
-9096,31	2686,00
-9074,51	2872,00
-9052,75	2765,00
-9031,04	2550,00
-9009,37	2311,00
-8987,74	2126,00
-8966,16	1824,00
-8944,63	1662,00
-8923,14	1500,00
-8901,69	1661,00
-8880,29	1970,00
-8858,93	2213,00
-8837,61	2369,00
-8816,34	2495,00
-8795,11	2571,00
-8773,92	2387,00
-8752,78	1995,00
-8731,68	1875,00
-8710,62	1845,00
-8689,61	2054,00
-8668,63	2230,00
-8647,70	2437,00
-8626,82	2272,00
-8605,97	2132,00
-8585,17	2184,00
-8564,41	1922,00
-8543,69	1884,00
-8523,01	1642,00
-8502,37	1724,00
-8481,78	1714,00
-8461,23	1789,00
-8440,71	2043,00
-8420,24	2231,00
-8399,81	2308,00
-8379,42	2346,00
-8359,08	1976,00
-8338,77	1734,00
-8318,50	1792,00
-8298,27	1648,00
-8278,09	1804,00
-8257,94	1682,00
-8237,83	1970,00
-8217,76	2190,00
-8197,74	2170,00
-8177,75	2023,00
-8157,80	1729,00
-8137,89	1718,00
-8118,02	1683,00
-8098,19	1584,00
-8078,40	1714,00
-8058,65	1729,00
-8038,93	1895,00
-8019,26	1784,00
-7999,62	1767,00
-7980,02	1769,00
-7960,46	1614,00
-7940,94	1567,00
-7921,46	1536,00
-7902,01	1475,00
-7882,60	1420,00
-7863,23	1434,00
-7843,90	1558,00
-7824,61	1758,00
-7805,35	1671,00
-7786,13	1825,00
-7766,95	1775,00
-7747,80	1632,00
-7728,69	1680,00
-7709,62	1462,00
-7690,59	1595,00
-7671,59	1664,00
-7652,63	1856,00
-7633,70	1766,00
-7614,81	1785,00
-7595,96	1606,00
-7577,15	1466,00
-7558,37	1460,00
-7539,62	1540,00
-7520,91	1702,00
-7502,24	1707,00
-7483,60	1789,00
-7465,00	1535,00
-7446,44	1442,00
-7427,91	1455,00
-7409,41	1158,00
-7390,95	1168,00
-7372,53	1107,00
-7354,14	1193,00
-7335,78	1116,00
-7317,46	1225,00
-7299,18	1411,00
-7280,92	1532,00
-7262,71	1638,00
-7244,52	1668,00
-7226,38	1784,00
-7208,26	1785,00
-7190,18	1655,00
-7172,14	1513,00
-7154,12	1507,00
-7136,15	1706,00
-7118,20	1647,00
-7100,29	1608,00
-7082,41	1677,00
-7064,57	1579,00
-7046,76	1615,00
-7028,98	1299,00
-7011,24	1253,00
-6993,53	989,00
-6975,85	899,00
-6958,20	867,00
-6940,59	807,00
-6923,01	930,00
-6905,46	904,00
-6887,94	1046,00
-6870,46	1241,00
-6853,01	1498,00
-6835,59	1586,00
-6818,21	1421,00
-6800,85	1149,00
-6783,53	1000,00
-6766,24	778,00
-6748,98	747,00
-6731,76	625,00
-6714,56	655,00
-6697,40	674,00
-6680,26	608,00
-6663,16	885,00
-6646,09	977,00
-6629,05	1133,00
-6612,05	1290,00
-6595,07	1285,00
-6578,13	1009,00
-6561,21	967,00
-6544,33	769,00
-6527,47	571,00
-6510,65	551,00
-6493,86	567,00
-6477,10	581,00
-6460,36	576,00
-6443,66	591,00
-6426,99	499,00
-6410,35	670,00
-6393,74	668,00
-6377,16	763,00
-6360,61	793,00
-6344,09	870,00
-6327,59	1030,00
-6311,13	854,00
-6294,70	966,00
-6278,29	989,00
-6261,92	996,00
-6245,58	1301,00
-6229,26	1190,00
-6212,97	1095,00
-6196,72	817,00
-6180,49	729,00
-6164,29	487,00
-6148,12	558,00
-6131,98	252,00
-6115,86	281,00
-6099,78	442,00
-6083,72	142,00
-6067,69	323,00
-6051,69	325,00
-6035,72	313,00
-6019,78	586,00
-6003,87	672,00
-5987,98	770,00
-5972,12	772,00
-5956,29	873,00
-5940,49	630,00
-5924,71	568,00
-5908,96	376,00
-5893,24	340,00
-5877,55	339,00
-5861,89	431,00
-5846,25	388,00
-5830,64	384,00
-5815,05	449,00
-5799,50	336,00
-5783,97	282,00
-5768,47	469,00
-5752,99	652,00
-5737,55	899,00
-5722,12	803,00
-5706,73	860,00
-5691,36	721,00
-5676,02	432,00
-5660,71	391,00
-5645,42	354,00
-5630,16	485,00
-5614,92	263,00
-5599,71	625,00
-5584,53	504,00
-5569,37	532,00
-5554,24	1619,00
-5539,14	470,00
-5524,06	426,00
-5509,01	486,00
-5493,98	561,00
-5478,98	529,00
-5464,00	448,00
-5449,05	486,00
-5434,13	424,00
-5419,23	329,00
-5404,36	377,00
-5389,51	492,00
-5374,69	817,00
-5359,89	957,00
-5345,12	927,00
-5330,37	951,00
-5315,65	725,00
-5300,95	623,00
-5286,28	494,00
-5271,63	455,00
-5257,01	496,00
-5242,41	588,00
-5227,84	560,00
-5213,29	387,00
-5198,76	185,00
-5184,26	284,00
-5169,79	349,00
-5155,33	447,00
-5140,91	502,00
-5126,51	640,00
-5112,13	624,00
-5097,77	549,00
-5083,44	436,00
-5069,13	308,00
-5054,85	429,00
-5040,59	396,00
-5026,36	509,00
-5012,15	662,00
-4997,96	489,00
-4983,80	424,00
-4969,66	319,00
-4955,54	403,00
-4941,44	331,00
-4927,37	678,00
-4913,33	832,00
-4899,30	869,00
-4885,30	783,00
-4871,33	563,00
-4857,37	219,00
-4843,44	232,00
-4829,53	311,00
-4815,65	502,00
-4801,79	346,00
-4787,95	260,00
-4774,13	286,00
-4760,34	378,00
-4746,56	101,00
-4732,82	323,00
-4719,09	365,00
-4705,38	653,00
-4691,70	763,00
-4678,04	772,00
-4664,41	506,00
-4650,79	379,00
-4637,20	360,00
-4623,63	248,00
-4610,08	520,00
-4596,56	544,00
-4583,05	476,00
-4569,57	496,00
-4556,11	23,00
-4542,67	229,00
-4529,25	134,00
-4515,86	437,00
-4502,49	602,00
-4489,13	582,00
-4475,80	550,00
-4462,49	346,00
-4449,21	304,00
-4435,94	233,00
-4422,70	312,00
-4409,47	325,00
-4396,27	475,00
-4383,09	461,00
-4369,93	187,00
-4356,79	190,00
-4343,67	370,00
-4330,58	283,00
-4317,50	313,00
-4304,45	377,00
-4291,41	155,00
-4278,40	257,00
-4265,41	108,00
-4252,44	230,00
-4239,49	410,00
-4226,55	377,00
-4213,65	248,00
-4200,76	235,00
-4187,89	102,00
-4175,04	148,00
-4162,21	195,00
-4149,40	125,00
-4136,61	58,00
-4123,85	72,00
-4111,10	63,00
-4098,37	240,00
-4085,66	197,00
-4072,98	145,00
-4060,31	89,00
-4047,66	171,00
-4035,04	243,00
-4022,43	59,00
-4009,84	34,00
-3997,27	89,00
-3984,72	64,00
-3972,19	109,00
-3959,69	114,00
-3947,20	139,00
-3934,73	47,00
-3922,27	136,00
-3909,84	73,00
-3897,43	5,00
-3885,04	-30,00
-3872,67	159,00
-3860,31	-6,00
-3847,98	23,00
-3835,66	19,00
-3823,36	55,00
-3811,09	101,00
-3798,83	207,00
-3786,59	67,00
-3774,37	89,00
-3762,17	-51,00
-3749,98	38,00
-3737,82	42,00
-3725,67	235,00
-3713,55	117,00
-3701,44	139,00
-3689,35	140,00
-3677,28	40,00
-3665,22	148,00
-3653,19	-14,00
-3641,17	79,00
-3629,18	99,00
-3617,20	5,00
-3605,24	-28,00
-3593,30	102,00
-3581,37	130,00
-3569,47	127,00
-3557,58	34,00
-3545,71	98,00
-3533,86	-8,00
-3522,02	92,00
-3510,21	142,00
-3498,41	153,00
-3486,63	47,00
-3474,87	44,00
-3463,12	114,00
-3451,40	-45,00
-3439,69	182,00
-3428,00	30,00
-3416,33	112,00
-3404,67	-45,00
-3393,03	105,00
-3381,41	36,00
-3369,81	55,00
-3358,22	98,00
-3346,66	111,00
-3335,10	6,00
-3323,57	176,00
-3312,06	151,00
-3300,56	95,00
-3289,08	26,00
-3277,61	-63,00
-3266,16	25,00
-3254,73	140,00
-3243,32	81,00
-3231,92	40,00
-3220,55	23,00
-3209,18	122,00
-3197,84	168,00
-3186,51	64,00
-3175,20	-32,00
-3163,90	284,00
-3152,63	90,00
-3141,36	1,00
-3130,12	-30,00
-3118,89	57,00
-3107,68	67,00
-3096,49	60,00
-3085,31	-73,00
-3074,15	118,00
-3063,00	62,00
-3051,87	101,00
-3040,76	206,00
-3029,67	80,00
-3018,59	27,00
-3007,52	136,00
-2996,48	29,00
-2985,44	21,00
-2974,43	192,00
-2963,43	97,00
-2952,45	127,00
-2941,48	5,00
-2930,53	61,00
-2919,60	-60,00
-2908,68	33,00
-2897,78	32,00
-2886,89	224,00
-2876,02	-43,00
-2865,17	11,00
-2854,33	112,00
-2843,50	31,00
-2832,70	134,00
-2821,90	73,00
-2811,13	-10,00
-2800,37	40,00
-2789,62	116,00
-2778,89	24,00
-2768,18	119,00
-2757,48	155,00
-2746,80	142,00
-2736,13	68,00
-2725,48	30,00
-2714,84	73,00
-2704,22	123,00
-2693,61	125,00
-2683,02	5,00
-2672,45	-1,00
-2661,89	159,00
-2651,34	-11,00
-2640,81	151,00
-2630,30	113,00
-2619,80	35,00
-2609,31	49,00
-2598,84	60,00
-2588,39	63,00
-2577,95	12,00
-2567,52	177,00
-2557,11	-7,00
-2546,71	77,00
-2536,33	57,00
-2525,97	74,00
-2515,62	110,00
-2505,28	-98,00
-2494,96	107,00
-2484,65	32,00
-2474,36	-11,00
-2464,08	136,00
-2453,82	120,00
-2443,57	-4,00
-2433,33	98,00
-2423,11	106,00
-2412,91	15,00
-2402,72	11,00
-2392,54	104,00
-2382,38	80,00
-2372,23	26,00
-2362,09	-127,00
-2351,97	182,00
-2341,87	91,00
-2331,78	77,00
-2321,70	86,00
-2311,64	99,00
-2301,59	121,00
-2291,55	214,00
-2281,53	64,00
-2271,53	138,00
-2261,53	51,00
-2251,55	22,00
-2241,59	61,00
-2231,64	101,00
-2221,70	62,00
-2211,78	73,00
-2201,87	74,00
-2191,97	-31,00
-2182,09	31,00
-2172,22	216,00
-2162,37	98,00
-2152,53	114,00
-2142,70	204,00
-2132,89	188,00
-2123,09	28,00
-2113,30	129,00
-2103,53	27,00
-2093,77	-18,00
-2084,02	46,00
-2074,29	115,00
-2064,57	112,00
-2054,86	108,00
-2045,17	-43,00
-2035,49	33,00
-2025,82	82,00
-2016,17	10,00
-2006,53	176,00
-1996,91	75,00
-1987,29	-2,00
-1977,69	108,00
-1968,11	142,00
-1958,53	169,00
-1948,97	41,00
-1939,42	135,00
-1929,89	-37,00
-1920,37	166,00
-1910,86	36,00
-1901,36	85,00
-1891,88	92,00
-1882,41	-14,00
-1872,95	157,00
-1863,51	-38,00
-1854,08	87,00
-1844,66	25,00
-1835,26	-4,00
-1825,86	155,00
-1816,48	170,00
-1807,11	-27,00
-1797,76	94,00
-1788,42	94,00
-1779,09	41,00
-1769,77	-2,00
-1760,47	140,00
-1751,17	114,00
-1741,89	57,00
-1732,63	37,00
-1723,37	-9,00
-1714,13	19,00
-1704,90	-4,00
-1695,68	165,00
-1686,48	107,00
-1677,29	101,00
-1668,11	32,00
-1658,94	9,00
-1649,78	75,00
-1640,64	-9,00
-1631,51	67,00
-1622,39	51,00
-1613,28	155,00
-1604,19	174,00
-1595,10	9,00
-1586,03	92,00
-1576,97	148,00
-1567,93	85,00
-1558,89	58,00
-1549,87	108,00
-1540,86	13,00
-1531,86	103,00
-1522,87	-74,00
-1513,90	30,00
-1504,93	75,00
-1495,98	-65,00
-1487,04	35,00
-1478,12	102,00
-1469,20	130,00
-1460,30	149,00
-1451,40	148,00
-1442,52	61,00
-1433,65	-46,00
-1424,80	162,00
-1415,95	126,00
-1407,12	187,00
-1398,30	24,00
-1389,48	58,00
-1380,69	31,00
-1371,90	147,00
-1363,12	-2,00
-1354,36	67,00
-1345,60	152,00
-1336,86	48,00
-1328,13	49,00
-1319,41	2,00
-1310,70	131,00
-1302,01	87,00
-1293,32	179,00
-1284,65	51,00
-1275,99	130,00
-1267,33	48,00
-1258,69	64,00
-1250,06	221,00
-1241,45	196,00
-1232,84	108,00
-1224,25	-104,00
-1215,66	112,00
-1207,09	7,00
-1198,53	38,00
-1189,97	50,00
-1181,43	210,00
-1172,91	50,00
-1164,39	83,00
-1155,88	147,00
-1147,38	-84,00
-1138,90	121,00
-1130,43	13,00
-1121,96	2,00
-1113,51	-44,00
-1105,07	102,00
-1096,64	78,00
-1088,22	162,00
-1079,81	155,00
-1071,41	101,00
-1063,02	-114,00
-1054,65	86,00
-1046,28	69,00
-1037,92	174,00
-1029,58	82,00
-1021,24	4,00
-1012,92	83,00
-1004,61	16,00
-996,30	33,00
-988,01	14,00
-979,73	322,00
-971,46	102,00
-963,20	116,00
-954,95	62,00
-946,71	29,00
-938,48	52,00
-930,26	-79,00
-922,06	120,00
-913,86	163,00
-905,67	165,00
-897,49	155,00
-889,33	147,00
-881,17	185,00
-873,02	68,00
-864,89	4,00
-856,76	6,00
-848,65	159,00
-840,54	55,00
-832,45	1,00
-824,36	25,00
-816,29	64,00
-808,22	40,00
-800,17	97,00
-792,12	56,00
-784,09	133,00
-776,06	64,00
-768,05	-7,00
-760,04	114,00
-752,05	28,00
-744,07	72,00
-736,09	83,00
-728,13	140,00
-720,17	89,00
-712,23	51,00
-704,29	76,00
-696,37	34,00
-688,45	79,00
-680,55	10,00
-672,65	220,00
-664,77	38,00
-656,89	72,00
-649,03	38,00
-641,17	3,00
-633,32	48,00
-625,49	70,00
-617,66	97,00
-609,84	-8,00
-602,03	19,00
-594,23	119,00
-586,45	192,00
-578,67	142,00
-570,90	132,00
-563,14	113,00
-555,39	50,00
-547,65	57,00
-539,91	128,00
-532,19	92,00
-524,48	172,00
-516,78	176,00
-509,08	102,00
-501,40	33,00
-493,72	-80,00
-486,06	144,00
-478,40	111,00
-470,76	73,00
-463,12	-32,00
-455,49	121,00
-447,87	94,00
-440,26	80,00
-432,66	128,00
-425,07	112,00
-417,49	6,00
-409,92	216,00
-402,35	0,00
-394,80	91,00
-387,25	96,00
-379,72	80,00
-372,19	193,00
-364,67	244,00
-357,17	110,00
-349,67	26,00
-342,18	97,00
-334,69	180,00
-327,22	25,00
-319,76	-29,00
-312,30	82,00
-304,86	99,00
-297,42	76,00
-290,00	112,00
-282,58	67,00
-275,17	195,00
-267,77	146,00
-260,37	224,00
-252,99	165,00
-245,62	90,00
-238,25	93,00
-230,90	65,00
-223,55	288,00
-216,21	187,00
-208,88	254,00
-201,56	128,00
-194,25	263,00
-186,94	145,00
-179,65	169,00
-172,36	314,00
-165,08	238,00
-157,81	191,00
-150,55	165,00
-143,30	322,00
-136,06	344,00
-128,82	329,00
-121,60	315,00
-114,38	200,00
-107,17	293,00
-99,97	388,00
-92,78	617,00
-85,60	537,00
-78,42	633,00
-71,25	822,00
-64,10	967,00
-56,95	1195,00
-49,81	1132,00
-42,67	1524,00
-35,55	1860,00
-28,43	2575,00
-21,33	4360,00
-14,23	14832,00
-7,14	47266,00
-0,05	38051,00
7,02	42597,00
14,09	39288,00
21,14	10470,00
28,19	4618,00
35,23	3076,00
42,27	2280,00
49,29	1952,00
56,31	1674,00
63,32	1242,00
70,32	1113,00
77,31	1002,00
84,29	886,00
91,27	672,00
98,23	781,00
105,19	642,00
112,14	716,00
119,09	1023,00
126,02	1479,00
132,95	1620,00
139,87	1740,00
146,78	1626,00
153,68	1624,00
160,58	1625,00
167,46	1556,00
174,34	1616,00
181,21	1491,00
188,08	1479,00
194,93	1458,00
201,78	1444,00
208,62	1545,00
215,45	1456,00
222,27	1497,00
229,09	1533,00
235,90	1475,00
242,70	1229,00
249,49	1406,00
256,27	1402,00
263,05	1303,00
269,82	1307,00
276,58	1250,00
283,33	1245,00
290,08	1403,00
296,82	1403,00
303,55	1214,00
310,27	1333,00
316,98	1188,00
323,69	1303,00
330,39	1204,00
337,08	1196,00
343,76	1140,00
350,44	1138,00
357,11	1202,00
363,77	1271,00
370,42	1182,00
377,07	1236,00
383,71	1153,00
390,34	1155,00
396,96	1140,00
403,58	1055,00
410,19	1127,00
416,79	1174,00
423,38	1158,00
429,97	1145,00
436,55	1133,00
443,12	1077,00
449,68	1105,00
456,24	1071,00
462,79	1128,00
469,33	928,00
475,86	1129,00
482,39	979,00
488,91	1024,00
495,42	920,00
501,93	1068,00
508,42	944,00
514,91	1000,00
521,40	882,00
527,87	1019,00
534,34	920,00
540,80	994,00
547,25	816,00
553,70	891,00
560,14	951,00
566,57	901,00
573,00	883,00
579,41	832,00
585,83	956,00
592,23	1011,00
598,62	966,00
605,01	950,00
611,40	859,00
617,77	920,00
624,14	903,00
630,50	921,00
636,85	920,00
643,20	894,00
649,54	877,00
655,87	956,00
662,20	899,00
668,52	840,00
674,83	864,00
681,13	938,00
687,43	993,00
693,72	876,00
700,00	895,00
706,28	724,00
712,55	825,00
718,81	952,00
725,07	925,00
731,32	793,00
737,56	958,00
743,79	865,00
750,02	927,00
756,24	890,00
762,46	819,00
768,67	1053,00
774,87	839,00
781,06	914,00
787,25	870,00
793,43	955,00
799,60	938,00
805,77	909,00
811,93	798,00
818,08	895,00
824,23	1088,00
830,37	830,00
836,50	839,00
842,63	961,00
848,75	951,00
854,87	783,00
860,97	988,00
867,07	1070,00
873,17	1025,00
879,25	882,00
885,33	935,00
891,41	941,00
897,47	740,00
903,53	882,00
909,59	874,00
915,63	1000,00
921,67	902,00
927,71	804,00
933,74	794,00
939,76	918,00
945,77	826,00
951,78	952,00
957,78	785,00
963,78	800,00
969,77	761,00
975,75	779,00
981,72	784,00
987,69	939,00
993,66	873,00
999,61	888,00
1005,56	1029,00
1011,51	771,00
1017,44	847,00
1023,37	827,00
1029,30	832,00
1035,22	926,00
1041,13	944,00
1047,03	1035,00
1052,93	1319,00
1058,83	1696,00
1064,71	1821,00
1070,59	1582,00
1076,47	1222,00
1082,33	1194,00
1088,20	985,00
1094,05	1140,00
1099,90	995,00
1105,74	1040,00
1111,58	862,00
1117,41	1107,00
1123,23	1573,00
1129,05	2032,00
1134,86	1837,00
1140,67	1350,00
1146,47	1169,00
1152,26	851,00
1158,05	1014,00
1163,83	912,00
1169,60	1011,00
1175,37	935,00
1181,13	745,00
1186,89	966,00
1192,64	952,00
1198,38	935,00
1204,12	752,00
1209,85	757,00
1215,58	866,00
1221,30	805,00
1227,02	868,00
1232,72	787,00
1238,43	754,00
1244,12	931,00
1249,81	940,00
1255,50	974,00
1261,17	1001,00
1266,85	1057,00
1272,51	978,00
1278,17	1098,00
1283,83	1088,00
1289,47	1859,00
1295,12	2269,00
1300,75	2158,00
1306,38	1618,00
1312,01	1292,00
1317,63	1144,00
1323,24	1010,00
1328,85	1032,00
1334,45	1010,00
1340,04	912,00
1345,63	1028,00
1351,22	1015,00
1356,80	952,00
1362,37	955,00
1367,93	1152,00
1373,49	1052,00
1379,05	1100,00
1384,60	1099,00
1390,14	1073,00
1395,68	989,00
1401,21	1148,00
1406,74	1195,00
1412,26	1487,00
1417,77	1568,00
1423,28	1616,00
1428,78	1830,00
1434,28	2097,00
1439,77	2461,00
1445,26	2390,00
1450,74	2220,00
1456,22	1935,00
1461,68	1972,00
1467,15	1666,00
1472,61	1667,00
1478,06	1352,00
1483,51	1261,00
1488,95	1230,00
1494,38	984,00
1499,81	865,00
1505,24	795,00
1510,65	900,00
1516,07	921,00
1521,48	856,00
1526,88	835,00
1532,27	888,00
1537,67	996,00
1543,05	856,00
1548,43	752,00
1553,81	752,00
1559,18	888,00
1564,54	885,00
1569,90	860,00
1575,25	715,00
1580,60	861,00
1585,94	796,00
1591,28	702,00
1596,61	811,00
1601,93	701,00
1607,25	657,00
1612,57	718,00
1617,88	814,00
1623,18	897,00
1628,48	794,00
1633,77	791,00
1639,06	874,00
1644,34	863,00
1649,62	815,00
1654,89	761,00
1660,16	690,00
1665,42	670,00
1670,67	742,00
1675,92	623,00
1681,17	779,00
1686,41	741,00
1691,64	751,00
1696,87	691,00
1702,10	715,00
1707,32	566,00
1712,53	711,00
1717,74	694,00
1722,94	552,00
1728,14	667,00
1733,33	712,00
1738,52	809,00
1743,70	807,00
1748,88	583,00
1754,05	780,00
1759,22	740,00
1764,38	588,00
1769,53	533,00
1774,69	729,00
1779,83	641,00
1784,97	576,00
1790,11	631,00
1795,24	601,00
1800,36	656,00
1805,48	623,00
1810,60	617,00
1815,71	662,00
1820,82	659,00
1825,92	691,00
1831,01	597,00
1836,10	675,00
1841,19	594,00
1846,26	729,00
1851,34	662,00
1856,41	627,00
1861,47	739,00
1866,53	605,00
1871,59	558,00
1876,64	643,00
1881,68	565,00
1886,72	539,00
1891,76	608,00
1896,79	703,00
1901,81	648,00
1906,83	540,00
1911,85	586,00
1916,86	706,00
1921,86	576,00
1926,86	636,00
1931,86	676,00
1936,85	612,00
1941,83	612,00
1946,81	660,00
1951,79	544,00
1956,76	482,00
1961,72	718,00
1966,68	580,00
1971,64	587,00
1976,59	704,00
1981,54	557,00
1986,48	496,00
1991,42	455,00
1996,35	532,00
2001,27	495,00
2006,20	764,00
2011,11	689,00
2016,03	511,00
2020,93	600,00
2025,84	474,00
2030,73	511,00
2035,63	546,00
2040,52	527,00
2045,40	554,00
2050,28	467,00
2055,15	458,00
2060,02	551,00
2064,89	623,00
2069,75	488,00
2074,60	490,00
2079,46	371,00
2084,30	650,00
2089,14	523,00
2093,98	528,00
2098,81	612,00
2103,64	478,00
2108,46	562,00
2113,28	502,00
2118,09	555,00
2122,90	593,00
2127,70	562,00
2132,50	566,00
2137,30	465,00
2142,09	583,00
2146,87	538,00
2151,66	490,00
2156,43	580,00
2161,20	555,00
2165,97	500,00
2170,73	586,00
2175,49	388,00
2180,24	524,00
2184,99	568,00
2189,74	552,00
2194,48	558,00
2199,21	502,00
2203,94	533,00
2208,67	472,00
2213,39	416,00
2218,11	386,00
2222,82	560,00
2227,53	494,00
2232,23	473,00
2236,93	520,00
2241,63	503,00
2246,32	547,00
2251,00	412,00
2255,68	533,00
2260,36	539,00
2265,03	557,00
2269,70	454,00
2274,36	526,00
2279,02	499,00
2283,68	429,00
2288,33	429,00
2292,97	552,00
2297,61	522,00
2302,25	501,00
2306,88	480,00
2311,51	431,00
2316,14	481,00
2320,75	472,00
2325,37	471,00
2329,98	469,00
2334,59	493,00
2339,19	461,00
2343,79	356,00
2348,38	536,00
2352,97	527,00
2357,55	616,00
2362,13	558,00
2366,71	508,00
2371,28	406,00
2375,85	500,00
2380,41	531,00
2384,97	455,00
2389,52	277,00
2394,07	473,00
2398,62	430,00
2403,16	504,00
2407,70	493,00
2412,23	467,00
2416,76	440,00
2421,29	384,00
2425,81	601,00
2430,32	375,00
2434,84	408,00
2439,34	518,00
2443,85	442,00
2448,35	476,00
2452,84	454,00
2457,33	512,00
2461,82	444,00
2466,30	358,00
2470,78	435,00
2475,25	280,00
2479,72	435,00
2484,19	379,00
2488,65	513,00
2493,11	422,00
2497,56	320,00
2502,01	343,00
2506,46	435,00
2510,90	380,00
2515,34	346,00
2519,77	421,00
2524,20	436,00
2528,62	445,00
2533,04	451,00
2537,46	458,00
2541,87	332,00
2546,28	357,00
2550,68	371,00
2555,08	549,00
2559,48	341,00
2563,87	416,00
2568,26	353,00
2572,64	326,00
2577,02	453,00
2581,40	398,00
2585,77	470,00
2590,14	439,00
2594,50	388,00
2598,86	412,00
2603,22	281,00
2607,57	332,00
2611,92	430,00
2616,26	448,00
2620,60	494,00
2624,94	407,00
2629,27	378,00
2633,60	476,00
2637,92	318,00
2642,24	445,00
2646,56	509,00
2650,87	421,00
2655,18	425,00
2659,48	353,00
2663,78	520,00
2668,08	484,00
2672,37	500,00
2676,66	509,00
2680,95	451,00
2685,23	379,00
2689,50	528,00
2693,78	432,00
2698,05	491,00
2702,31	507,00
2706,57	423,00
2710,83	400,00
2715,08	477,00
2719,33	551,00
2723,58	649,00
2727,82	600,00
2732,06	539,00
2736,29	529,00
2740,53	527,00
2744,75	528,00
2748,97	475,00
2753,19	585,00
2757,41	359,00
2761,62	431,00
2765,83	520,00
2770,03	444,00
2774,23	507,00
2778,43	558,00
2782,62	660,00
2786,81	454,00
2791,00	530,00
2795,18	534,00
2799,35	433,00
2803,53	479,00
2807,70	756,00
2811,86	594,00
2816,03	704,00
2820,19	736,00
2824,34	783,00
2828,49	867,00
2832,64	1113,00
2836,78	1282,00
2840,92	1620,00
2845,06	1925,00
2849,19	2204,00
2853,32	2372,00
2857,45	2218,00
2861,57	2215,00
2865,69	1944,00
2869,80	1961,00
2873,91	2028,00
2878,02	2186,00
2882,12	2404,00
2886,22	2488,00
2890,32	2206,00
2894,41	2152,00
2898,50	1932,00
2902,58	1780,00
2906,67	1571,00
2910,74	1579,00
2914,82	1446,00
2918,89	1358,00
2922,96	1259,00
2927,02	1227,00
2931,08	1084,00
2935,13	1056,00
2939,19	990,00
2943,24	801,00
2947,28	894,00
2951,32	746,00
2955,36	573,00
2959,40	640,00
2963,43	522,00
2967,46	523,00
2971,48	421,00
2975,50	571,00
2979,52	499,00
2983,53	345,00
2987,54	363,00
2991,55	365,00
2995,55	309,00
2999,55	422,00
3003,54	393,00
3007,54	292,00
3011,53	386,00
3015,51	337,00
3019,49	120,00
3023,47	295,00
3027,45	331,00
3031,42	273,00
3035,39	260,00
3039,35	298,00
3043,31	293,00
3047,27	288,00
3051,22	352,00
3055,17	293,00
3059,12	185,00
3063,06	324,00
3067,00	314,00
3070,94	250,00
3074,87	276,00
3078,80	256,00
3082,73	243,00
3086,65	145,00
3090,57	259,00
3094,49	254,00
3098,40	315,00
3102,31	212,00
3106,22	284,00
3110,12	335,00
3114,02	178,00
3117,92	208,00
3121,81	313,00
3125,70	112,00
3129,58	210,00
3133,47	136,00
3137,34	133,00
3141,22	291,00
3145,09	203,00
3148,96	143,00
3152,83	246,00
3156,69	273,00
3160,55	192,00
3164,40	214,00
3168,26	182,00
3172,10	304,00
3175,95	200,00
3179,79	41,00
3183,63	150,00
3187,47	293,00
3191,30	139,00
3195,13	301,00
3198,95	112,00
3202,78	232,00
3206,60	218,00
3210,41	154,00
3214,23	205,00
3218,03	208,00
3221,84	96,00
3225,64	133,00
3229,44	151,00
3233,24	151,00
3237,03	193,00
3240,82	104,00
3244,61	114,00
3248,39	134,00
3252,17	251,00
3255,95	130,00
3259,72	124,00
3263,49	145,00
3267,26	225,00
3271,03	91,00
3274,79	81,00
3278,54	124,00
3282,30	203,00
3286,05	112,00
3289,80	122,00
3293,54	130,00
3297,29	236,00
3301,02	255,00
3304,76	44,00
3308,49	183,00
3312,22	200,00
3315,95	129,00
3319,67	289,00
3323,39	240,00
3327,10	224,00
3330,82	201,00
3334,53	161,00
3338,24	203,00
3341,94	125,00
3345,64	168,00
3349,34	82,00
3353,03	103,00
3356,72	207,00
3360,41	164,00
3364,10	303,00
3367,78	11,00
3371,46	37,00
3375,13	138,00
3378,81	94,00
3382,48	90,00
3386,14	132,00
3389,81	148,00
3393,47	209,00
3397,12	32,00
3400,78	-19,00
3404,43	286,00
3408,08	111,00
3411,72	204,00
3415,36	172,00
3419,00	169,00
3422,64	157,00
3426,27	105,00
3429,90	219,00
3433,53	131,00
3437,15	216,00
3440,77	193,00
3444,39	193,00
3448,00	54,00
3451,62	162,00
3455,22	253,00
3458,83	185,00
3462,43	79,00
3466,03	-38,00
3469,63	121,00
3473,22	187,00
3476,81	144,00
3480,40	10,00
3483,99	28,00
3487,57	55,00
3491,15	72,00
3494,72	113,00
3498,29	93,00
3501,86	198,00
3505,43	42,00
3508,99	139,00
3512,56	129,00
3516,11	104,00
3519,67	85,00
3523,22	151,00
3526,77	65,00
3530,32	83,00
3533,86	107,00
3537,40	132,00
3540,94	187,00
3544,47	163,00
3548,00	92,00
3551,53	3,00
3555,06	79,00
3558,58	101,00
3562,10	204,00
3565,62	198,00
3569,13	7,00
3572,64	48,00
3576,15	95,00
3579,66	100,00
3583,16	126,00
3586,66	44,00
3590,16	47,00
3593,65	45,00
3597,14	-26,00
3600,63	118,00
3604,11	101,00
3607,60	232,00
3611,08	206,00
3614,55	-1,00
3618,03	72,00
3621,50	155,00
3624,97	72,00
3628,43	147,00
3631,90	107,00
3635,36	85,00
3638,81	51,00
3642,27	-27,00
3645,72	167,00
3649,17	62,00
3652,61	22,00
3656,06	132,00
3659,50	-9,00
3662,93	3,00
3666,37	83,00
3669,80	105,00
3673,23	127,00
3676,65	191,00
3680,08	-19,00
3683,50	90,00
3686,92	59,00
3690,33	141,00
3693,74	34,00
3697,15	116,00
3700,56	60,00
3703,96	-31,00
3707,36	-48,00
3710,76	-55,00
3714,16	172,00
3717,55	31,00
3720,94	38,00
3724,33	58,00
3727,71	28,00
3731,10	122,00
3734,48	102,00
3737,85	144,00
3741,23	-39,00
3744,60	2,00
3747,97	98,00
3751,33	66,00
3754,69	27,00
3758,05	155,00
3761,41	37,00
3764,77	143,00
3768,12	165,00
3771,47	52,00
3774,82	70,00
3778,16	-3,00
3781,50	3,00
3784,84	4,00
3788,18	5,00
>>>>>End Processed Spectral Data<<<<<
