SpectraSuite Data File
++++++++++++++++++++++++++++++++++++
Date: Tue Mar 03 12:24:37 ICT 2026
User: user
Dark Spectrum Present: Yes
Reference Spectrum Present: No
Number of Sampled Component Spectra: 1
Spectrometers: MAYP113682
Integration Time (usec): 3000000 (MAYP113682)
Spectra Averaged: 1 (MAYP113682)
Boxcar Smoothing: 0 (MAYP113682)
Correct for Electrical Dark: No (MAYP113682)
Strobe/Lamp Enabled: No (MAYP113682)
Correct for Detector Non-linearity: No (MAYP113682)
Correct for Stray Light: No (MAYP113682)
Number of Pixels in Processed Spectrum: 2068
>>>>>Begin Processed Spectral Data<<<<<
-37534,58	9,00
-37414,56	-1,00
-37295,11	-2,00
-37176,24	-9,00
-37057,95	15,00
-36940,22	22,00
-36823,05	11,00
-36706,45	-15,00
-36590,40	132,00
-36474,90	0,00
-36359,95	52,00
-36245,55	177,00
-36131,68	83,00
-36018,35	9,00
-35905,55	17,00
-35793,29	53,00
-35681,54	26,00
-35570,32	3,00
-35459,62	-56,00
-35349,43	38,00
-35239,75	103,00
-35130,58	16,00
-35021,91	31,00
-34913,74	108,00
-34806,07	10,00
-34698,89	29,00
-34592,20	-64,00
-34486,00	-54,00
-34380,28	-45,00
-34275,04	-10,00
-34170,27	-70,00
-34065,98	-15,00
-33962,16	12,00
-33858,81	5,00
-33755,92	138,00
-33653,49	10,00
-33551,52	-11,00
-33450,01	23,00
-33348,94	44,00
-33248,33	35,00
-33148,16	62,00
-33048,43	50,00
-32949,14	-91,00
-32850,29	45,00
-32751,87	3,00
-32653,89	71,00
-32556,33	-16,00
-32459,20	-17,00
-32362,49	-25,00
-32266,19	91,00
-32170,32	-17,00
-32074,86	-93,00
-31979,82	-41,00
-31885,18	-56,00
-31790,95	-44,00
-31697,12	56,00
-31603,69	-7,00
-31510,67	-6,00
-31418,04	139,00
-31325,80	58,00
-31233,95	15,00
-31142,49	-12,00
-31051,42	41,00
-30960,73	-7,00
-30870,43	36,00
-30780,50	21,00
-30690,95	96,00
-30601,77	29,00
-30512,97	70,00
-30424,53	26,00
-30336,46	120,00
-30248,76	40,00
-30161,42	20,00
-30074,44	6,00
-29987,81	2,00
-29901,55	-9,00
-29815,63	-72,00
-29730,07	-76,00
-29644,86	11,00
-29560,00	24,00
-29475,48	52,00
-29391,30	23,00
-29307,47	45,00
-29223,97	109,00
-29140,81	26,00
-29057,99	8,00
-28975,50	138,00
-28893,34	-26,00
-28811,51	94,00
-28730,00	86,00
-28648,82	-34,00
-28567,97	-79,00
-28487,43	48,00
-28407,21	19,00
-28327,32	-40,00
-28247,73	-56,00
-28168,46	60,00
-28089,50	74,00
-28010,85	-46,00
-27932,51	132,00
-27854,48	-7,00
-27776,75	43,00
-27699,32	63,00
-27622,19	150,00
-27545,37	51,00
-27468,84	-51,00
-27392,60	-11,00
-27316,66	-10,00
-27241,01	22,00
-27165,66	79,00
-27090,59	8,00
-27015,81	27,00
-26941,31	47,00
-26867,10	80,00
-26793,17	-11,00
-26719,52	-64,00
-26646,15	47,00
-26573,06	55,00
-26500,24	56,00
-26427,70	3,00
-26355,43	95,00
-26283,43	-107,00
-26211,71	76,00
-26140,25	-72,00
-26069,06	145,00
-25998,13	-119,00
-25927,46	95,00
-25857,06	15,00
-25786,92	57,00
-25717,04	-130,00
-25647,42	-3,00
-25578,05	43,00
-25508,94	-68,00
-25440,09	-25,00
-25371,48	49,00
-25303,13	39,00
-25235,02	44,00
-25167,17	-79,00
-25099,56	19,00
-25032,19	98,00
-24965,07	-34,00
-24898,20	20,00
-24831,56	66,00
-24765,17	-78,00
-24699,01	192,00
-24633,10	-44,00
-24567,41	-66,00
-24501,97	58,00
-24436,75	-121,00
-24371,77	-13,00
-24307,03	-31,00
-24242,51	13,00
-24178,22	37,00
-24114,16	18,00
-24050,32	-62,00
-23986,71	-8,00
-23923,32	151,00
-23860,16	-120,00
-23797,22	75,00
-23734,50	69,00
-23672,00	61,00
-23609,71	178,00
-23547,65	14,00
-23485,80	22,00
-23424,16	-13,00
-23362,74	71,00
-23301,53	3,00
-23240,54	-51,00
-23179,75	57,00
-23119,17	-29,00
-23058,80	115,00
-22998,64	46,00
-22938,68	34,00
-22878,93	-84,00
-22819,39	76,00
-22760,04	-124,00
-22700,90	28,00
-22641,96	32,00
-22583,22	103,00
-22524,68	-52,00
-22466,33	40,00
-22408,19	12,00
-22350,23	112,00
-22292,48	-77,00
-22234,92	-84,00
-22177,55	-43,00
-22120,37	-70,00
-22063,38	53,00
-22006,58	107,00
-21949,98	26,00
-21893,56	103,00
-21837,33	64,00
-21781,28	38,00
-21725,42	61,00
-21669,74	30,00
-21614,25	9,00
-21558,94	73,00
-21503,81	-11,00
-21448,86	-24,00
-21394,10	23,00
-21339,51	208,00
-21285,10	-17,00
-21230,86	72,00
-21176,81	8,00
-21122,93	93,00
-21069,22	129,00
-21015,69	31,00
-20962,33	61,00
-20909,14	53,00
-20856,13	91,00
-20803,28	-99,00
-20750,61	62,00
-20698,10	116,00
-20645,76	-9,00
-20593,59	122,00
-20541,59	-1,00
-20489,75	-127,00
-20438,07	96,00
-20386,56	25,00
-20335,22	91,00
-20284,03	22,00
-20233,01	-63,00
-20182,15	77,00
-20131,45	51,00
-20080,91	-7,00
-20030,52	27,00
-19980,30	-28,00
-19930,23	39,00
-19880,32	31,00
-19830,56	133,00
-19780,96	40,00
-19731,52	-4,00
-19682,23	-86,00
-19633,09	-20,00
-19584,10	87,00
-19535,26	182,00
-19486,58	-120,00
-19438,04	-41,00
-19389,66	-48,00
-19341,42	-37,00
-19293,33	-55,00
-19245,39	55,00
-19197,60	58,00
-19149,95	91,00
-19102,45	30,00
-19055,09	86,00
-19007,87	41,00
-18960,80	76,00
-18913,87	109,00
-18867,09	-44,00
-18820,44	78,00
-18773,94	52,00
-18727,57	46,00
-18681,35	25,00
-18635,26	27,00
-18589,31	79,00
-18543,50	23,00
-18497,83	-92,00
-18452,29	-20,00
-18406,89	79,00
-18361,63	-5,00
-18316,50	-29,00
-18271,50	32,00
-18226,63	114,00
-18181,90	72,00
-18137,30	78,00
-18092,84	61,00
-18048,50	-24,00
-18004,29	21,00
-17960,22	121,00
-17916,27	-1,00
-17872,45	132,00
-17828,76	-121,00
-17785,20	5,00
-17741,77	-45,00
-17698,46	12,00
-17655,28	51,00
-17612,22	-96,00
-17569,29	-3,00
-17526,48	47,00
-17483,79	-37,00
-17441,23	-65,00
-17398,79	76,00
-17356,48	124,00
-17314,28	61,00
-17272,21	64,00
-17230,26	5,00
-17188,42	80,00
-17146,71	118,00
-17105,12	75,00
-17063,64	64,00
-17022,28	16,00
-16981,04	-88,00
-16939,92	3,00
-16898,91	-21,00
-16858,02	-86,00
-16817,25	32,00
-16776,59	6,00
-16736,04	132,00
-16695,61	68,00
-16655,29	8,00
-16615,09	-3,00
-16574,99	-56,00
-16535,01	-17,00
-16495,15	11,00
-16455,39	-5,00
-16415,74	72,00
-16376,21	-45,00
-16336,78	-44,00
-16297,46	-30,00
-16258,26	109,00
-16219,16	-4,00
-16180,17	23,00
-16141,28	7,00
-16102,51	-35,00
-16063,84	27,00
-16025,27	96,00
-15986,82	36,00
-15948,46	-104,00
-15910,22	16,00
-15872,07	6,00
-15834,04	-23,00
-15796,10	24,00
-15758,27	73,00
-15720,54	-13,00
-15682,91	-1,00
-15645,39	-124,00
-15607,97	57,00
-15570,64	-18,00
-15533,42	-5,00
-15496,30	-121,00
-15459,28	96,00
-15422,36	43,00
-15385,54	48,00
-15348,82	72,00
-15312,19	-74,00
-15275,66	-119,00
-15239,23	-20,00
-15202,90	-33,00
-15166,67	21,00
-15130,53	-11,00
-15094,48	10,00
-15058,54	29,00
-15022,68	8,00
-14986,93	28,00
-14951,26	24,00
-14915,69	-54,00
-14880,22	42,00
-14844,84	-70,00
-14809,55	-109,00
-14774,35	-85,00
-14739,25	111,00
-14704,24	-77,00
-14669,32	-27,00
-14634,49	51,00
-14599,75	36,00
-14565,10	87,00
-14530,55	83,00
-14496,08	131,00
-14461,70	102,00
-14427,41	-62,00
-14393,21	17,00
-14359,10	-45,00
-14325,07	129,00
-14291,14	74,00
-14257,29	14,00
-14223,52	22,00
-14189,85	-19,00
-14156,26	90,00
-14122,76	-69,00
-14089,34	-20,00
-14056,01	93,00
-14022,76	80,00
-13989,60	8,00
-13956,52	54,00
-13923,53	26,00
-13890,62	3,00
-13857,79	107,00
-13825,05	45,00
-13792,39	76,00
-13759,81	132,00
-13727,31	-61,00
-13694,90	-10,00
-13662,57	72,00
-13630,31	106,00
-13598,14	98,00
-13566,05	-24,00
-13534,05	-27,00
-13502,12	40,00
-13470,27	-67,00
-13438,50	-144,00
-13406,80	100,00
-13375,19	-93,00
-13343,66	-68,00
-13312,20	-17,00
-13280,83	-35,00
-13249,53	21,00
-13218,30	50,00
-13187,16	24,00
-13156,09	-160,00
-13125,10	131,00
-13094,18	11,00
-13063,34	-151,00
-13032,58	44,00
-13001,89	13,00
-12971,28	1,00
-12940,74	1,00
-12910,27	21,00
-12879,88	-42,00
-12849,57	59,00
-12819,33	44,00
-12789,16	28,00
-12759,06	48,00
-12729,04	-10,00
-12699,09	-111,00
-12669,21	32,00
-12639,41	-5,00
-12609,68	-23,00
-12580,02	-93,00
-12550,43	-92,00
-12520,91	29,00
-12491,46	-104,00
-12462,08	36,00
-12432,77	41,00
-12403,54	44,00
-12374,37	-57,00
-12345,27	-62,00
-12316,24	40,00
-12287,29	14,00
-12258,40	39,00
-12229,57	144,00
-12200,82	77,00
-12172,14	-85,00
-12143,52	3,00
-12114,97	17,00
-12086,49	0,00
-12058,07	-84,00
-12029,73	-99,00
-12001,44	24,00
-11973,23	56,00
-11945,08	6,00
-11917,00	-5,00
-11888,98	40,00
-11861,03	22,00
-11833,15	18,00
-11805,32	40,00
-11777,57	83,00
-11749,88	152,00
-11722,25	-125,00
-11694,69	-14,00
-11667,19	-19,00
-11639,75	-60,00
-11612,38	103,00
-11585,07	-22,00
-11557,83	27,00
-11530,65	61,00
-11503,53	93,00
-11476,47	-6,00
-11449,48	149,00
-11422,54	-8,00
-11395,67	38,00
-11368,86	34,00
-11342,11	-89,00
-11315,43	3,00
-11288,80	157,00
-11262,23	190,00
-11235,73	97,00
-11209,28	-8,00
-11182,90	-35,00
-11156,57	-68,00
-11130,31	45,00
-11104,10	37,00
-11077,96	-17,00
-11051,87	126,00
-11025,84	17,00
-10999,87	140,00
-10973,96	-58,00
-10948,11	30,00
-10922,31	-71,00
-10896,58	51,00
-10870,90	-21,00
-10845,28	-14,00
-10819,71	-33,00
-10794,20	139,00
-10768,75	64,00
-10743,36	157,00
-10718,02	145,00
-10692,74	13,00
-10667,52	46,00
-10642,35	172,00
-10617,24	89,00
-10592,18	157,00
-10567,18	141,00
-10542,23	190,00
-10517,34	143,00
-10492,51	82,00
-10467,72	240,00
-10443,00	307,00
-10418,32	226,00
-10393,70	124,00
-10369,14	179,00
-10344,63	237,00
-10320,17	293,00
-10295,77	260,00
-10271,42	224,00
-10247,12	180,00
-10222,88	266,00
-10198,68	402,00
-10174,54	309,00
-10150,46	499,00
-10126,42	256,00
-10102,44	428,00
-10078,51	433,00
-10054,63	550,00
-10030,80	572,00
-10007,03	519,00
-9983,30	484,00
-9959,63	448,00
-9936,01	578,00
-9912,44	613,00
-9888,92	596,00
-9865,44	540,00
-9842,02	764,00
-9818,65	642,00
-9795,33	632,00
-9772,06	800,00
-9748,84	744,00
-9725,67	846,00
-9702,55	1092,00
-9679,47	1224,00
-9656,45	1304,00
-9633,47	1334,00
-9610,55	1380,00
-9587,67	1298,00
-9564,84	1586,00
-9542,06	1606,00
-9519,32	1925,00
-9496,64	2070,00
-9474,00	2309,00
-9451,41	2284,00
-9428,87	2379,00
-9406,37	2282,00
-9383,92	1977,00
-9361,52	2072,00
-9339,17	2038,00
-9316,86	2389,00
-9294,60	2540,00
-9272,38	2954,00
-9250,21	3015,00
-9228,09	3173,00
-9206,01	2986,00
-9183,98	2715,00
-9162,00	2255,00
-9140,06	2231,00
-9118,16	2209,00
-9096,31	2407,00
-9074,51	2337,00
-9052,75	2351,00
-9031,04	2191,00
-9009,37	2097,00
-8987,74	1742,00
-8966,16	1528,00
-8944,63	1413,00
-8923,14	1200,00
-8901,69	1507,00
-8880,29	1693,00
-8858,93	1974,00
-8837,61	2010,00
-8816,34	2168,00
-8795,11	2214,00
-8773,92	2153,00
-8752,78	1763,00
-8731,68	1729,00
-8710,62	1759,00
-8689,61	1738,00
-8668,63	1837,00
-8647,70	2072,00
-8626,82	2025,00
-8605,97	1878,00
-8585,17	1927,00
-8564,41	1565,00
-8543,69	1483,00
-8523,01	1437,00
-8502,37	1486,00
-8481,78	1509,00
-8461,23	1626,00
-8440,71	1684,00
-8420,24	1820,00
-8399,81	1964,00
-8379,42	2013,00
-8359,08	1707,00
-8338,77	1594,00
-8318,50	1389,00
-8298,27	1427,00
-8278,09	1531,00
-8257,94	1506,00
-8237,83	1704,00
-8217,76	1930,00
-8197,74	1770,00
-8177,75	1740,00
-8157,80	1496,00
-8137,89	1523,00
-8118,02	1544,00
-8098,19	1324,00
-8078,40	1419,00
-8058,65	1561,00
-8038,93	1607,00
-8019,26	1599,00
-7999,62	1525,00
-7980,02	1509,00
-7960,46	1474,00
-7940,94	1403,00
-7921,46	1523,00
-7902,01	1257,00
-7882,60	1271,00
-7863,23	1200,00
-7843,90	1290,00
-7824,61	1394,00
-7805,35	1550,00
-7786,13	1700,00
-7766,95	1587,00
-7747,80	1257,00
-7728,69	1551,00
-7709,62	1314,00
-7690,59	1421,00
-7671,59	1531,00
-7652,63	1656,00
-7633,70	1547,00
-7614,81	1517,00
-7595,96	1422,00
-7577,15	1246,00
-7558,37	1304,00
-7539,62	1398,00
-7520,91	1473,00
-7502,24	1433,00
-7483,60	1445,00
-7465,00	1465,00
-7446,44	1200,00
-7427,91	1140,00
-7409,41	1141,00
-7390,95	869,00
-7372,53	966,00
-7354,14	983,00
-7335,78	968,00
-7317,46	1040,00
-7299,18	1174,00
-7280,92	1287,00
-7262,71	1406,00
-7244,52	1586,00
-7226,38	1464,00
-7208,26	1378,00
-7190,18	1302,00
-7172,14	1304,00
-7154,12	1302,00
-7136,15	1376,00
-7118,20	1502,00
-7100,29	1502,00
-7082,41	1485,00
-7064,57	1371,00
-7046,76	1322,00
-7028,98	1107,00
-7011,24	1020,00
-6993,53	866,00
-6975,85	775,00
-6958,20	732,00
-6940,59	711,00
-6923,01	784,00
-6905,46	868,00
-6887,94	1036,00
-6870,46	-907,00
-6853,01	1339,00
-6835,59	1323,00
-6818,21	1273,00
-6800,85	971,00
-6783,53	876,00
-6766,24	707,00
-6748,98	594,00
-6731,76	521,00
-6714,56	577,00
-6697,40	582,00
-6680,26	587,00
-6663,16	794,00
-6646,09	756,00
-6629,05	952,00
-6612,05	1108,00
-6595,07	1036,00
-6578,13	996,00
-6561,21	868,00
-6544,33	539,00
-6527,47	447,00
-6510,65	440,00
-6493,86	492,00
-6477,10	393,00
-6460,36	480,00
-6443,66	505,00
-6426,99	385,00
-6410,35	529,00
-6393,74	453,00
-6377,16	568,00
-6360,61	671,00
-6344,09	753,00
-6327,59	840,00
-6311,13	699,00
-6294,70	910,00
-6278,29	880,00
-6261,92	891,00
-6245,58	1046,00
-6229,26	1106,00
-6212,97	868,00
-6196,72	776,00
-6180,49	536,00
-6164,29	394,00
-6148,12	434,00
-6131,98	181,00
-6115,86	187,00
-6099,78	390,00
-6083,72	91,00
-6067,69	224,00
-6051,69	206,00
-6035,72	217,00
-6019,78	325,00
-6003,87	578,00
-5987,98	725,00
-5972,12	596,00
-5956,29	696,00
-5940,49	533,00
-5924,71	506,00
-5908,96	400,00
-5893,24	273,00
-5877,55	347,00
-5861,89	174,00
-5846,25	381,00
-5830,64	431,00
-5815,05	330,00
-5799,50	218,00
-5783,97	278,00
-5768,47	457,00
-5752,99	433,00
-5737,55	805,00
-5722,12	650,00
-5706,73	734,00
-5691,36	522,00
-5676,02	425,00
-5660,71	234,00
-5645,42	197,00
-5630,16	440,00
-5614,92	394,00
-5599,71	423,00
-5584,53	401,00
-5569,37	438,00
-5554,24	1485,00
-5539,14	338,00
-5524,06	296,00
-5509,01	480,00
-5493,98	489,00
-5478,98	529,00
-5464,00	467,00
-5449,05	372,00
-5434,13	286,00
-5419,23	303,00
-5404,36	282,00
-5389,51	380,00
-5374,69	643,00
-5359,89	733,00
-5345,12	787,00
-5330,37	671,00
-5315,65	508,00
-5300,95	505,00
-5286,28	392,00
-5271,63	355,00
-5257,01	447,00
-5242,41	404,00
-5227,84	463,00
-5213,29	413,00
-5198,76	122,00
-5184,26	190,00
-5169,79	365,00
-5155,33	336,00
-5140,91	494,00
-5126,51	612,00
-5112,13	556,00
-5097,77	474,00
-5083,44	388,00
-5069,13	258,00
-5054,85	291,00
-5040,59	354,00
-5026,36	291,00
-5012,15	540,00
-4997,96	354,00
-4983,80	325,00
-4969,66	121,00
-4955,54	289,00
-4941,44	242,00
-4927,37	650,00
-4913,33	593,00
-4899,30	644,00
-4885,30	593,00
-4871,33	452,00
-4857,37	253,00
-4843,44	63,00
-4829,53	227,00
-4815,65	453,00
-4801,79	281,00
-4787,95	280,00
-4774,13	209,00
-4760,34	285,00
-4746,56	65,00
-4732,82	208,00
-4719,09	234,00
-4705,38	562,00
-4691,70	674,00
-4678,04	677,00
-4664,41	433,00
-4650,79	214,00
-4637,20	208,00
-4623,63	259,00
-4610,08	217,00
-4596,56	338,00
-4583,05	334,00
-4569,57	404,00
-4556,11	-58,00
-4542,67	128,00
-4529,25	112,00
-4515,86	400,00
-4502,49	508,00
-4489,13	478,00
-4475,80	383,00
-4462,49	307,00
-4449,21	306,00
-4435,94	236,00
-4422,70	279,00
-4409,47	260,00
-4396,27	239,00
-4383,09	236,00
-4369,93	78,00
-4356,79	172,00
-4343,67	223,00
-4330,58	310,00
-4317,50	285,00
-4304,45	310,00
-4291,41	139,00
-4278,40	263,00
-4265,41	38,00
-4252,44	193,00
-4239,49	339,00
-4226,55	329,00
-4213,65	148,00
-4200,76	204,00
-4187,89	38,00
-4175,04	117,00
-4162,21	94,00
-4149,40	38,00
-4136,61	29,00
-4123,85	75,00
-4111,10	137,00
-4098,37	57,00
-4085,66	211,00
-4072,98	29,00
-4060,31	74,00
-4047,66	112,00
-4035,04	113,00
-4022,43	-21,00
-4009,84	-58,00
-3997,27	109,00
-3984,72	125,00
-3972,19	-3,00
-3959,69	-26,00
-3947,20	-21,00
-3934,73	-76,00
-3922,27	-33,00
-3909,84	-3,00
-3897,43	-81,00
-3885,04	-45,00
-3872,67	45,00
-3860,31	79,00
-3847,98	7,00
-3835,66	-83,00
-3823,36	50,00
-3811,09	52,00
-3798,83	27,00
-3786,59	-20,00
-3774,37	11,00
-3762,17	-15,00
-3749,98	-9,00
-3737,82	36,00
-3725,67	61,00
-3713,55	-84,00
-3701,44	131,00
-3689,35	11,00
-3677,28	0,00
-3665,22	43,00
-3653,19	3,00
-3641,17	-1,00
-3629,18	17,00
-3617,20	-25,00
-3605,24	-97,00
-3593,30	-72,00
-3581,37	33,00
-3569,47	12,00
-3557,58	-14,00
-3545,71	-83,00
-3533,86	82,00
-3522,02	39,00
-3510,21	-106,00
-3498,41	188,00
-3486,63	68,00
-3474,87	44,00
-3463,12	7,00
-3451,40	-24,00
-3439,69	156,00
-3428,00	-29,00
-3416,33	22,00
-3404,67	43,00
-3393,03	68,00
-3381,41	46,00
-3369,81	-43,00
-3358,22	-90,00
-3346,66	-23,00
-3335,10	26,00
-3323,57	88,00
-3312,06	-25,00
-3300,56	103,00
-3289,08	-76,00
-3277,61	51,00
-3266,16	-63,00
-3254,73	-103,00
-3243,32	39,00
-3231,92	-81,00
-3220,55	59,00
-3209,18	-12,00
-3197,84	17,00
-3186,51	-110,00
-3175,20	-27,00
-3163,90	96,00
-3152,63	11,00
-3141,36	2,00
-3130,12	-35,00
-3118,89	-45,00
-3107,68	-138,00
-3096,49	-13,00
-3085,31	18,00
-3074,15	228,00
-3063,00	104,00
-3051,87	133,00
-3040,76	127,00
-3029,67	106,00
-3018,59	-90,00
-3007,52	48,00
-2996,48	54,00
-2985,44	54,00
-2974,43	136,00
-2963,43	97,00
-2952,45	-16,00
-2941,48	61,00
-2930,53	117,00
-2919,60	80,00
-2908,68	42,00
-2897,78	16,00
-2886,89	13,00
-2876,02	-4,00
-2865,17	-88,00
-2854,33	24,00
-2843,50	54,00
-2832,70	73,00
-2821,90	-121,00
-2811,13	-124,00
-2800,37	-28,00
-2789,62	-61,00
-2778,89	167,00
-2768,18	1,00
-2757,48	60,00
-2746,80	88,00
-2736,13	-26,00
-2725,48	-118,00
-2714,84	-17,00
-2704,22	1,00
-2693,61	72,00
-2683,02	121,00
-2672,45	-168,00
-2661,89	59,00
-2651,34	-8,00
-2640,81	-43,00
-2630,30	96,00
-2619,80	15,00
-2609,31	-19,00
-2598,84	-81,00
-2588,39	39,00
-2577,95	-56,00
-2567,52	12,00
-2557,11	-11,00
-2546,71	7,00
-2536,33	36,00
-2525,97	26,00
-2515,62	111,00
-2505,28	-173,00
-2494,96	-7,00
-2484,65	-96,00
-2474,36	24,00
-2464,08	66,00
-2453,82	96,00
-2443,57	-121,00
-2433,33	-19,00
-2423,11	-10,00
-2412,91	-68,00
-2402,72	69,00
-2392,54	51,00
-2382,38	45,00
-2372,23	25,00
-2362,09	-5084,00
-2351,97	148,00
-2341,87	39,00
-2331,78	67,00
-2321,70	51,00
-2311,64	9,00
-2301,59	-24,00
-2291,55	119,00
-2281,53	-11,00
-2271,53	102,00
-2261,53	-32,00
-2251,55	20,00
-2241,59	-17,00
-2231,64	35,00
-2221,70	59,00
-2211,78	-55,00
-2201,87	76,00
-2191,97	-139,00
-2182,09	-43,00
-2172,22	60,00
-2162,37	127,00
-2152,53	24,00
-2142,70	60,00
-2132,89	94,00
-2123,09	105,00
-2113,30	104,00
-2103,53	-107,00
-2093,77	-65,00
-2084,02	-48,00
-2074,29	-2,00
-2064,57	-7,00
-2054,86	44,00
-2045,17	-22,00
-2035,49	17,00
-2025,82	124,00
-2016,17	0,00
-2006,53	88,00
-1996,91	41,00
-1987,29	-61,00
-1977,69	83,00
-1968,11	28,00
-1958,53	191,00
-1948,97	74,00
-1939,42	47,00
-1929,89	-113,00
-1920,37	75,00
-1910,86	38,00
-1901,36	49,00
-1891,88	-96,00
-1882,41	-77,00
-1872,95	160,00
-1863,51	-62,00
-1854,08	-31,00
-1844,66	96,00
-1835,26	110,00
-1825,86	19,00
-1816,48	31,00
-1807,11	50,00
-1797,76	-48,00
-1788,42	-27,00
-1779,09	-18,00
-1769,77	55,00
-1760,47	-77,00
-1751,17	7,00
-1741,89	-33,00
-1732,63	3,00
-1723,37	-79,00
-1714,13	-12,00
-1704,90	-5,00
-1695,68	135,00
-1686,48	83,00
-1677,29	36,00
-1668,11	114,00
-1658,94	-2,00
-1649,78	-18,00
-1640,64	3,00
-1631,51	73,00
-1622,39	17,00
-1613,28	-19,00
-1604,19	90,00
-1595,10	20,00
-1586,03	95,00
-1576,97	-11,00
-1567,93	36,00
-1558,89	-15,00
-1549,87	76,00
-1540,86	71,00
-1531,86	56,00
-1522,87	-10,00
-1513,90	86,00
-1504,93	0,00
-1495,98	-115,00
-1487,04	83,00
-1478,12	105,00
-1469,20	36,00
-1460,30	112,00
-1451,40	176,00
-1442,52	-40,00
-1433,65	-71,00
-1424,80	129,00
-1415,95	124,00
-1407,12	105,00
-1398,30	48,00
-1389,48	74,00
-1380,69	-4,00
-1371,90	133,00
-1363,12	50,00
-1354,36	28,00
-1345,60	49,00
-1336,86	132,00
-1328,13	-6,00
-1319,41	23,00
-1310,70	175,00
-1302,01	23,00
-1293,32	47,00
-1284,65	75,00
-1275,99	117,00
-1267,33	-88,00
-1258,69	-48,00
-1250,06	59,00
-1241,45	52,00
-1232,84	93,00
-1224,25	-92,00
-1215,66	15,00
-1207,09	-91,00
-1198,53	-212,00
-1189,97	29,00
-1181,43	69,00
-1172,91	26,00
-1164,39	-35,00
-1155,88	67,00
-1147,38	-72,00
-1138,90	124,00
-1130,43	14,00
-1121,96	0,00
-1113,51	8,00
-1105,07	42,00
-1096,64	65,00
-1088,22	128,00
-1079,81	136,00
-1071,41	73,00
-1063,02	-131,00
-1054,65	-6,00
-1046,28	49,00
-1037,92	23,00
-1029,58	-38,00
-1021,24	23,00
-1012,92	155,00
-1004,61	12,00
-996,30	-22,00
-988,01	12,00
-979,73	232,00
-971,46	-47,00
-963,20	63,00
-954,95	50,00
-946,71	-33,00
-938,48	91,00
-930,26	-63,00
-922,06	-13,00
-913,86	3,00
-905,67	67,00
-897,49	82,00
-889,33	101,00
-881,17	26,00
-873,02	9,00
-864,89	17,00
-856,76	-32,00
-848,65	92,00
-840,54	73,00
-832,45	26,00
-824,36	3,00
-816,29	127,00
-808,22	-9,00
-800,17	58,00
-792,12	-21,00
-784,09	29,00
-776,06	-28,00
-768,05	11,00
-760,04	-63,00
-752,05	80,00
-744,07	37,00
-736,09	48,00
-728,13	33,00
-720,17	-9,00
-712,23	20,00
-704,29	25,00
-696,37	8,00
-688,45	-59,00
-680,55	-78,00
-672,65	148,00
-664,77	39,00
-656,89	72,00
-649,03	88,00
-641,17	-18,00
-633,32	77,00
-625,49	-44,00
-617,66	115,00
-609,84	9,00
-602,03	-13,00
-594,23	69,00
-586,45	-3,00
-578,67	118,00
-570,90	17,00
-563,14	53,00
-555,39	33,00
-547,65	-55,00
-539,91	47,00
-532,19	154,00
-524,48	-7,00
-516,78	44,00
-509,08	-24,00
-501,40	-61,00
-493,72	76,00
-486,06	-37,00
-478,40	49,00
-470,76	-39,00
-463,12	-32,00
-455,49	29,00
-447,87	-2,00
-440,26	-35,00
-432,66	157,00
-425,07	-22,00
-417,49	36,00
-409,92	126,00
-402,35	-19,00
-394,80	124,00
-387,25	-25,00
-379,72	-1,00
-372,19	69,00
-364,67	149,00
-357,17	-39,00
-349,67	75,00
-342,18	80,00
-334,69	94,00
-327,22	-39,00
-319,76	31,00
-312,30	-42,00
-304,86	78,00
-297,42	114,00
-290,00	91,00
-282,58	-115,00
-275,17	94,00
-267,77	63,00
-260,37	14,00
-252,99	54,00
-245,62	8,00
-238,25	101,00
-230,90	-64,00
-223,55	139,00
-216,21	152,00
-208,88	150,00
-201,56	206,00
-194,25	79,00
-186,94	98,00
-179,65	210,00
-172,36	370,00
-165,08	101,00
-157,81	228,00
-150,55	147,00
-143,30	293,00
-136,06	262,00
-128,82	265,00
-121,60	261,00
-114,38	258,00
-107,17	193,00
-99,97	349,00
-92,78	429,00
-85,60	490,00
-78,42	591,00
-71,25	660,00
-64,10	901,00
-56,95	1068,00
-49,81	1229,00
-42,67	1534,00
-35,55	1837,00
-28,43	2519,00
-21,33	4588,00
-14,23	15400,00
-7,14	47266,00
-0,05	38051,00
7,02	42597,00
14,09	40504,00
21,14	10906,00
28,19	4854,00
35,23	3193,00
42,27	2358,00
49,29	1984,00
56,31	1469,00
63,32	1325,00
70,32	1198,00
77,31	1108,00
84,29	898,00
91,27	674,00
98,23	694,00
105,19	664,00
112,14	730,00
119,09	892,00
126,02	1327,00
132,95	1508,00
139,87	1569,00
146,78	1410,00
153,68	1484,00
160,58	1541,00
167,46	1397,00
174,34	1338,00
181,21	1344,00
188,08	1341,00
194,93	1296,00
201,78	1334,00
208,62	1297,00
215,45	1304,00
222,27	1269,00
229,09	1269,00
235,90	1337,00
242,70	1112,00
249,49	1156,00
256,27	1231,00
263,05	1232,00
269,82	1171,00
276,58	1179,00
283,33	1099,00
290,08	1310,00
296,82	1059,00
303,55	1026,00
310,27	1118,00
316,98	992,00
323,69	1144,00
330,39	1096,00
337,08	1035,00
343,76	1096,00
350,44	1071,00
357,11	928,00
363,77	1054,00
370,42	979,00
377,07	1008,00
383,71	1080,00
390,34	914,00
396,96	1003,00
403,58	930,00
410,19	1023,00
416,79	929,00
423,38	861,00
429,97	923,00
436,55	1007,00
443,12	979,00
449,68	975,00
456,24	838,00
462,79	912,00
469,33	785,00
475,86	896,00
482,39	806,00
488,91	786,00
495,42	776,00
501,93	825,00
508,42	913,00
514,91	848,00
521,40	878,00
527,87	786,00
534,34	762,00
540,80	924,00
547,25	782,00
553,70	761,00
560,14	800,00
566,57	787,00
573,00	673,00
579,41	730,00
585,83	777,00
592,23	751,00
598,62	712,00
605,01	815,00
611,40	733,00
617,77	933,00
624,14	680,00
630,50	774,00
636,85	632,00
643,20	723,00
649,54	881,00
655,87	868,00
662,20	757,00
668,52	726,00
674,83	692,00
681,13	838,00
687,43	676,00
693,72	736,00
700,00	697,00
706,28	761,00
712,55	796,00
718,81	842,00
725,07	883,00
731,32	742,00
737,56	852,00
743,79	732,00
750,02	897,00
756,24	813,00
762,46	661,00
768,67	935,00
774,87	733,00
781,06	708,00
787,25	814,00
793,43	797,00
799,60	742,00
805,77	712,00
811,93	726,00
818,08	800,00
824,23	808,00
830,37	735,00
836,50	786,00
842,63	777,00
848,75	736,00
854,87	895,00
860,97	921,00
867,07	969,00
873,17	929,00
879,25	776,00
885,33	889,00
891,41	669,00
897,47	751,00
903,53	725,00
909,59	682,00
915,63	884,00
921,67	716,00
927,71	613,00
933,74	827,00
939,76	710,00
945,77	774,00
951,78	863,00
957,78	737,00
963,78	585,00
969,77	616,00
975,75	807,00
981,72	618,00
987,69	770,00
993,66	766,00
999,61	716,00
1005,56	801,00
1011,51	660,00
1017,44	649,00
1023,37	752,00
1029,30	628,00
1035,22	751,00
1041,13	908,00
1047,03	887,00
1052,93	1163,00
1058,83	1528,00
1064,71	1718,00
1070,59	1335,00
1076,47	954,00
1082,33	919,00
1088,20	968,00
1094,05	925,00
1099,90	880,00
1105,74	906,00
1111,58	818,00
1117,41	1073,00
1123,23	1413,00
1129,05	1790,00
1134,86	1541,00
1140,67	1127,00
1146,47	936,00
1152,26	787,00
1158,05	825,00
1163,83	808,00
1169,60	864,00
1175,37	783,00
1181,13	578,00
1186,89	778,00
1192,64	695,00
1198,38	803,00
1204,12	639,00
1209,85	660,00
1215,58	675,00
1221,30	745,00
1227,02	691,00
1232,72	634,00
1238,43	703,00
1244,12	707,00
1249,81	732,00
1255,50	841,00
1261,17	768,00
1266,85	832,00
1272,51	948,00
1278,17	897,00
1283,83	1096,00
1289,47	1651,00
1295,12	2123,00
1300,75	1933,00
1306,38	1469,00
1312,01	1188,00
1317,63	880,00
1323,24	967,00
1328,85	917,00
1334,45	896,00
1340,04	759,00
1345,63	937,00
1351,22	888,00
1356,80	882,00
1362,37	948,00
1367,93	1077,00
1373,49	995,00
1379,05	983,00
1384,60	994,00
1390,14	934,00
1395,68	890,00
1401,21	974,00
1406,74	1011,00
1412,26	1383,00
1417,77	1406,00
1423,28	1502,00
1428,78	1608,00
1434,28	1773,00
1439,77	2169,00
1445,26	2138,00
1450,74	2081,00
1456,22	1740,00
1461,68	1760,00
1467,15	1575,00
1472,61	1397,00
1478,06	1149,00
1483,51	964,00
1488,95	986,00
1494,38	887,00
1499,81	698,00
1505,24	782,00
1510,65	730,00
1516,07	744,00
1521,48	736,00
1526,88	721,00
1532,27	746,00
1537,67	839,00
1543,05	776,00
1548,43	639,00
1553,81	713,00
1559,18	801,00
1564,54	648,00
1569,90	631,00
1575,25	638,00
1580,60	792,00
1585,94	650,00
1591,28	690,00
1596,61	718,00
1601,93	646,00
1607,25	608,00
1612,57	566,00
1617,88	732,00
1623,18	760,00
1628,48	703,00
1633,77	741,00
1639,06	750,00
1644,34	681,00
1649,62	464,00
1654,89	581,00
1660,16	680,00
1665,42	608,00
1670,67	622,00
1675,92	582,00
1681,17	548,00
1686,41	499,00
1691,64	729,00
1696,87	547,00
1702,10	542,00
1707,32	557,00
1712,53	444,00
1717,74	723,00
1722,94	507,00
1728,14	627,00
1733,33	573,00
1738,52	689,00
1743,70	561,00
1748,88	551,00
1754,05	620,00
1759,22	508,00
1764,38	463,00
1769,53	500,00
1774,69	503,00
1779,83	572,00
1784,97	464,00
1790,11	516,00
1795,24	497,00
1800,36	627,00
1805,48	548,00
1810,60	620,00
1815,71	522,00
1820,82	655,00
1825,92	596,00
1831,01	521,00
1836,10	556,00
1841,19	597,00
1846,26	557,00
1851,34	540,00
1856,41	414,00
1861,47	535,00
1866,53	526,00
1871,59	434,00
1876,64	609,00
1881,68	568,00
1886,72	504,00
1891,76	411,00
1896,79	545,00
1901,81	493,00
1906,83	508,00
1911,85	487,00
1916,86	533,00
1921,86	536,00
1926,86	396,00
1931,86	712,00
1936,85	490,00
1941,83	497,00
1946,81	532,00
1951,79	540,00
1956,76	409,00
1961,72	510,00
1966,68	386,00
1971,64	521,00
1976,59	531,00
1981,54	468,00
1986,48	376,00
1991,42	514,00
1996,35	503,00
2001,27	312,00
2006,20	483,00
2011,11	470,00
2016,03	387,00
2020,93	468,00
2025,84	406,00
2030,73	442,00
2035,63	400,00
2040,52	421,00
2045,40	361,00
2050,28	350,00
2055,15	395,00
2060,02	428,00
2064,89	405,00
2069,75	520,00
2074,60	434,00
2079,46	355,00
2084,30	656,00
2089,14	480,00
2093,98	448,00
2098,81	506,00
2103,64	382,00
2108,46	400,00
2113,28	441,00
2118,09	392,00
2122,90	518,00
2127,70	530,00
2132,50	410,00
2137,30	385,00
2142,09	441,00
2146,87	493,00
2151,66	444,00
2156,43	472,00
2161,20	454,00
2165,97	461,00
2170,73	369,00
2175,49	343,00
2180,24	435,00
2184,99	365,00
2189,74	379,00
2194,48	518,00
2199,21	385,00
2203,94	415,00
2208,67	416,00
2213,39	285,00
2218,11	325,00
2222,82	422,00
2227,53	373,00
2232,23	364,00
2236,93	483,00
2241,63	394,00
2246,32	389,00
2251,00	499,00
2255,68	416,00
2260,36	435,00
2265,03	373,00
2269,70	356,00
2274,36	524,00
2279,02	365,00
2283,68	356,00
2288,33	381,00
2292,97	366,00
2297,61	371,00
2302,25	448,00
2306,88	469,00
2311,51	466,00
2316,14	388,00
2320,75	490,00
2325,37	377,00
2329,98	402,00
2334,59	449,00
2339,19	422,00
2343,79	162,00
2348,38	372,00
2352,97	314,00
2357,55	419,00
2362,13	397,00
2366,71	359,00
2371,28	302,00
2375,85	405,00
2380,41	383,00
2384,97	354,00
2389,52	321,00
2394,07	336,00
2398,62	253,00
2403,16	394,00
2407,70	353,00
2412,23	387,00
2416,76	342,00
2421,29	235,00
2425,81	458,00
2430,32	431,00
2434,84	240,00
2439,34	419,00
2443,85	232,00
2448,35	355,00
2452,84	284,00
2457,33	466,00
2461,82	267,00
2466,30	324,00
2470,78	451,00
2475,25	368,00
2479,72	318,00
2484,19	377,00
2488,65	319,00
2493,11	297,00
2497,56	286,00
2502,01	222,00
2506,46	357,00
2510,90	388,00
2515,34	331,00
2519,77	358,00
2524,20	294,00
2528,62	320,00
2533,04	358,00
2537,46	370,00
2541,87	237,00
2546,28	261,00
2550,68	152,00
2555,08	291,00
2559,48	308,00
2563,87	344,00
2568,26	222,00
2572,64	213,00
2577,02	293,00
2581,40	388,00
2585,77	412,00
2590,14	333,00
2594,50	296,00
2598,86	336,00
2603,22	263,00
2607,57	318,00
2611,92	260,00
2616,26	436,00
2620,60	308,00
2624,94	365,00
2629,27	285,00
2633,60	418,00
2637,92	214,00
2642,24	381,00
2646,56	334,00
2650,87	400,00
2655,18	380,00
2659,48	209,00
2663,78	261,00
2668,08	378,00
2672,37	472,00
2676,66	343,00
2680,95	350,00
2685,23	360,00
2689,50	450,00
2693,78	352,00
2698,05	382,00
2702,31	304,00
2706,57	399,00
2710,83	358,00
2715,08	324,00
2719,33	444,00
2723,58	508,00
2727,82	442,00
2732,06	488,00
2736,29	485,00
2740,53	503,00
2744,75	372,00
2748,97	459,00
2753,19	476,00
2757,41	280,00
2761,62	428,00
2765,83	438,00
2770,03	423,00
2774,23	329,00
2778,43	406,00
2782,62	547,00
2786,81	387,00
2791,00	564,00
2795,18	532,00
2799,35	431,00
2803,53	561,00
2807,70	520,00
2811,86	440,00
2816,03	586,00
2820,19	568,00
2824,34	655,00
2828,49	725,00
2832,64	999,00
2836,78	1104,00
2840,92	1477,00
2845,06	1712,00
2849,19	1948,00
2853,32	2070,00
2857,45	2109,00
2861,57	1944,00
2865,69	1810,00
2869,80	1843,00
2873,91	1868,00
2878,02	2000,00
2882,12	2100,00
2886,22	2269,00
2890,32	1983,00
2894,41	1833,00
2898,50	1696,00
2902,58	1472,00
2906,67	1416,00
2910,74	1343,00
2914,82	1358,00
2918,89	1213,00
2922,96	1112,00
2927,02	1000,00
2931,08	979,00
2935,13	831,00
2939,19	811,00
2943,24	804,00
2947,28	687,00
2951,32	683,00
2955,36	567,00
2959,40	500,00
2963,43	373,00
2967,46	385,00
2971,48	363,00
2975,50	475,00
2979,52	370,00
2983,53	242,00
2987,54	333,00
2991,55	280,00
2995,55	252,00
2999,55	368,00
3003,54	269,00
3007,54	291,00
3011,53	286,00
3015,51	214,00
3019,49	72,00
3023,47	203,00
3027,45	261,00
3031,42	217,00
3035,39	156,00
3039,35	172,00
3043,31	267,00
3047,27	106,00
3051,22	156,00
3055,17	250,00
3059,12	83,00
3063,06	229,00
3067,00	241,00
3070,94	173,00
3074,87	186,00
3078,80	128,00
3082,73	214,00
3086,65	137,00
3090,57	215,00
3094,49	193,00
3098,40	76,00
3102,31	104,00
3106,22	213,00
3110,12	291,00
3114,02	157,00
3117,92	167,00
3121,81	328,00
3125,70	108,00
3129,58	66,00
3133,47	171,00
3137,34	107,00
3141,22	306,00
3145,09	207,00
3148,96	147,00
3152,83	150,00
3156,69	43,00
3160,55	20,00
3164,40	42,00
3168,26	110,00
3172,10	160,00
3175,95	145,00
3179,79	103,00
3183,63	-33,00
3187,47	146,00
3191,30	99,00
3195,13	126,00
3198,95	4,00
3202,78	180,00
3206,60	122,00
3210,41	113,00
3214,23	14,00
3218,03	197,00
3221,84	-7,00
3225,64	106,00
3229,44	156,00
3233,24	118,00
3237,03	127,00
3240,82	157,00
3244,61	20,00
3248,39	20,00
3252,17	185,00
3255,95	75,00
3259,72	158,00
3263,49	145,00
3267,26	170,00
3271,03	84,00
3274,79	69,00
3278,54	61,00
3282,30	89,00
3286,05	-26,00
3289,80	-81,00
3293,54	47,00
3297,29	234,00
3301,02	104,00
3304,76	33,00
3308,49	136,00
3312,22	42,00
3315,95	-16,00
3319,67	153,00
3323,39	71,00
3327,10	140,00
3330,82	81,00
3334,53	123,00
3338,24	140,00
3341,94	141,00
3345,64	125,00
3349,34	101,00
3353,03	192,00
3356,72	174,00
3360,41	-14,00
3364,10	185,00
3367,78	-1,00
3371,46	56,00
3375,13	141,00
3378,81	124,00
3382,48	46,00
3386,14	-61,00
3389,81	196,00
3393,47	152,00
3397,12	-13,00
3400,78	-70,00
3404,43	182,00
3408,08	101,00
3411,72	9,00
3415,36	22,00
3419,00	109,00
3422,64	128,00
3426,27	70,00
3429,90	69,00
3433,53	130,00
3437,15	79,00
3440,77	86,00
3444,39	147,00
3448,00	-26,00
3451,62	138,00
3455,22	150,00
3458,83	26,00
3462,43	77,00
3466,03	-99,00
3469,63	133,00
3473,22	52,00
3476,81	127,00
3480,40	-72,00
3483,99	36,00
3487,57	24,00
3491,15	145,00
3494,72	-42,00
3498,29	39,00
3501,86	72,00
3505,43	40,00
3508,99	103,00
3512,56	106,00
3516,11	126,00
3519,67	-22,00
3523,22	-56,00
3526,77	36,00
3530,32	85,00
3533,86	37,00
3537,40	-9,00
3540,94	183,00
3544,47	132,00
3548,00	71,00
3551,53	18,00
3555,06	-55,00
3558,58	72,00
3562,10	130,00
3565,62	177,00
3569,13	-62,00
3572,64	-55,00
3576,15	-5,00
3579,66	88,00
3583,16	-67,00
3586,66	59,00
3590,16	30,00
3593,65	20,00
3597,14	-58,00
3600,63	59,00
3604,11	41,00
3607,60	9,00
3611,08	205,00
3614,55	44,00
3618,03	141,00
3621,50	16,00
3624,97	115,00
3628,43	-41,00
3631,90	59,00
3635,36	24,00
3638,81	66,00
3642,27	-40,00
3645,72	96,00
3649,17	-35,00
3652,61	9,00
3656,06	105,00
3659,50	36,00
3662,93	81,00
3666,37	-3,00
3669,80	101,00
3673,23	103,00
3676,65	54,00
3680,08	-34,00
3683,50	-84,00
3686,92	61,00
3690,33	4,00
3693,74	31,00
3697,15	103,00
3700,56	6,00
3703,96	44,00
3707,36	-2,00
3710,76	-24,00
3714,16	44,00
3717,55	25,00
3720,94	35,00
3724,33	49,00
3727,71	-52,00
3731,10	109,00
3734,48	9,00
3737,85	35,00
3741,23	-73,00
3744,60	47,00
3747,97	15,00
3751,33	-27,00
3754,69	-38,00
3758,05	102,00
3761,41	12,00
3764,77	33,00
3768,12	140,00
3771,47	62,00
3774,82	91,00
3778,16	-6,00
3781,50	2,00
3784,84	5,00
3788,18	5,00
>>>>>End Processed Spectral Data<<<<<
