SpectraSuite Data File
++++++++++++++++++++++++++++++++++++
Date: Tue Mar 03 12:46:55 ICT 2026
User: user
Dark Spectrum Present: Yes
Reference Spectrum Present: No
Number of Sampled Component Spectra: 1
Spectrometers: MAYP113682
Integration Time (usec): 3000000 (MAYP113682)
Spectra Averaged: 1 (MAYP113682)
Boxcar Smoothing: 0 (MAYP113682)
Correct for Electrical Dark: No (MAYP113682)
Strobe/Lamp Enabled: No (MAYP113682)
Correct for Detector Non-linearity: No (MAYP113682)
Correct for Stray Light: No (MAYP113682)
Number of Pixels in Processed Spectrum: 2068
>>>>>Begin Processed Spectral Data<<<<<
-37534,58	10,00
-37414,56	-2,00
-37295,11	-1,00
-37176,24	-4,00
-37057,95	73,00
-36940,22	34,00
-36823,05	169,00
-36706,45	163,00
-36590,40	193,00
-36474,90	86,00
-36359,95	174,00
-36245,55	272,00
-36131,68	167,00
-36018,35	162,00
-35905,55	109,00
-35793,29	90,00
-35681,54	265,00
-35570,32	93,00
-35459,62	59,00
-35349,43	61,00
-35239,75	301,00
-35130,58	80,00
-35021,91	137,00
-34913,74	224,00
-34806,07	155,00
-34698,89	196,00
-34592,20	72,00
-34486,00	136,00
-34380,28	160,00
-34275,04	25,00
-34170,27	121,00
-34065,98	64,00
-33962,16	77,00
-33858,81	162,00
-33755,92	217,00
-33653,49	113,00
-33551,52	181,00
-33450,01	104,00
-33348,94	101,00
-33248,33	34,00
-33148,16	142,00
-33048,43	190,00
-32949,14	164,00
-32850,29	197,00
-32751,87	138,00
-32653,89	286,00
-32556,33	188,00
-32459,20	130,00
-32362,49	143,00
-32266,19	111,00
-32170,32	202,00
-32074,86	64,00
-31979,82	176,00
-31885,18	86,00
-31790,95	150,00
-31697,12	158,00
-31603,69	96,00
-31510,67	107,00
-31418,04	229,00
-31325,80	234,00
-31233,95	66,00
-31142,49	216,00
-31051,42	186,00
-30960,73	176,00
-30870,43	235,00
-30780,50	131,00
-30690,95	204,00
-30601,77	189,00
-30512,97	185,00
-30424,53	232,00
-30336,46	191,00
-30248,76	157,00
-30161,42	178,00
-30074,44	178,00
-29987,81	261,00
-29901,55	203,00
-29815,63	188,00
-29730,07	104,00
-29644,86	136,00
-29560,00	203,00
-29475,48	112,00
-29391,30	203,00
-29307,47	155,00
-29223,97	132,00
-29140,81	110,00
-29057,99	177,00
-28975,50	198,00
-28893,34	161,00
-28811,51	122,00
-28730,00	252,00
-28648,82	106,00
-28567,97	95,00
-28487,43	90,00
-28407,21	157,00
-28327,32	131,00
-28247,73	176,00
-28168,46	146,00
-28089,50	174,00
-28010,85	63,00
-27932,51	184,00
-27854,48	42,00
-27776,75	179,00
-27699,32	81,00
-27622,19	284,00
-27545,37	151,00
-27468,84	97,00
-27392,60	151,00
-27316,66	172,00
-27241,01	101,00
-27165,66	199,00
-27090,59	148,00
-27015,81	199,00
-26941,31	164,00
-26867,10	280,00
-26793,17	43,00
-26719,52	100,00
-26646,15	182,00
-26573,06	268,00
-26500,24	127,00
-26427,70	184,00
-26355,43	152,00
-26283,43	94,00
-26211,71	234,00
-26140,25	165,00
-26069,06	184,00
-25998,13	27,00
-25927,46	115,00
-25857,06	115,00
-25786,92	169,00
-25717,04	94,00
-25647,42	47,00
-25578,05	142,00
-25508,94	74,00
-25440,09	222,00
-25371,48	188,00
-25303,13	157,00
-25235,02	153,00
-25167,17	86,00
-25099,56	117,00
-25032,19	170,00
-24965,07	127,00
-24898,20	25,00
-24831,56	160,00
-24765,17	153,00
-24699,01	305,00
-24633,10	88,00
-24567,41	38,00
-24501,97	192,00
-24436,75	15,00
-24371,77	269,00
-24307,03	51,00
-24242,51	45,00
-24178,22	139,00
-24114,16	129,00
-24050,32	-23,00
-23986,71	100,00
-23923,32	153,00
-23860,16	27,00
-23797,22	179,00
-23734,50	122,00
-23672,00	125,00
-23609,71	299,00
-23547,65	120,00
-23485,80	109,00
-23424,16	116,00
-23362,74	159,00
-23301,53	155,00
-23240,54	178,00
-23179,75	219,00
-23119,17	190,00
-23058,80	261,00
-22998,64	187,00
-22938,68	183,00
-22878,93	180,00
-22819,39	212,00
-22760,04	34,00
-22700,90	194,00
-22641,96	192,00
-22583,22	164,00
-22524,68	29,00
-22466,33	90,00
-22408,19	184,00
-22350,23	193,00
-22292,48	182,00
-22234,92	60,00
-22177,55	119,00
-22120,37	233,00
-22063,38	85,00
-22006,58	209,00
-21949,98	159,00
-21893,56	175,00
-21837,33	152,00
-21781,28	123,00
-21725,42	169,00
-21669,74	108,00
-21614,25	171,00
-21558,94	39,00
-21503,81	154,00
-21448,86	152,00
-21394,10	164,00
-21339,51	229,00
-21285,10	56,00
-21230,86	52,00
-21176,81	178,00
-21122,93	306,00
-21069,22	139,00
-21015,69	170,00
-20962,33	272,00
-20909,14	112,00
-20856,13	83,00
-20803,28	101,00
-20750,61	94,00
-20698,10	112,00
-20645,76	152,00
-20593,59	254,00
-20541,59	143,00
-20489,75	19,00
-20438,07	184,00
-20386,56	196,00
-20335,22	101,00
-20284,03	97,00
-20233,01	43,00
-20182,15	197,00
-20131,45	142,00
-20080,91	55,00
-20030,52	200,00
-19980,30	121,00
-19930,23	46,00
-19880,32	152,00
-19830,56	281,00
-19780,96	49,00
-19731,52	132,00
-19682,23	110,00
-19633,09	147,00
-19584,10	231,00
-19535,26	202,00
-19486,58	119,00
-19438,04	11,00
-19389,66	121,00
-19341,42	115,00
-19293,33	81,00
-19245,39	188,00
-19197,60	217,00
-19149,95	255,00
-19102,45	118,00
-19055,09	43,00
-19007,87	232,00
-18960,80	109,00
-18913,87	163,00
-18867,09	140,00
-18820,44	174,00
-18773,94	155,00
-18727,57	118,00
-18681,35	202,00
-18635,26	218,00
-18589,31	259,00
-18543,50	114,00
-18497,83	73,00
-18452,29	175,00
-18406,89	113,00
-18361,63	170,00
-18316,50	-57,00
-18271,50	132,00
-18226,63	261,00
-18181,90	303,00
-18137,30	201,00
-18092,84	142,00
-18048,50	114,00
-18004,29	136,00
-17960,22	280,00
-17916,27	149,00
-17872,45	177,00
-17828,76	20,00
-17785,20	200,00
-17741,77	167,00
-17698,46	243,00
-17655,28	185,00
-17612,22	18,00
-17569,29	160,00
-17526,48	87,00
-17483,79	118,00
-17441,23	158,00
-17398,79	169,00
-17356,48	226,00
-17314,28	138,00
-17272,21	124,00
-17230,26	130,00
-17188,42	188,00
-17146,71	128,00
-17105,12	88,00
-17063,64	131,00
-17022,28	108,00
-16981,04	82,00
-16939,92	92,00
-16898,91	207,00
-16858,02	24,00
-16817,25	207,00
-16776,59	281,00
-16736,04	186,00
-16695,61	217,00
-16655,29	272,00
-16615,09	57,00
-16574,99	172,00
-16535,01	87,00
-16495,15	120,00
-16455,39	20,00
-16415,74	246,00
-16376,21	195,00
-16336,78	76,00
-16297,46	142,00
-16258,26	269,00
-16219,16	122,00
-16180,17	231,00
-16141,28	94,00
-16102,51	156,00
-16063,84	88,00
-16025,27	130,00
-15986,82	91,00
-15948,46	-6,00
-15910,22	145,00
-15872,07	193,00
-15834,04	192,00
-15796,10	201,00
-15758,27	143,00
-15720,54	99,00
-15682,91	96,00
-15645,39	197,00
-15607,97	212,00
-15570,64	96,00
-15533,42	86,00
-15496,30	121,00
-15459,28	174,00
-15422,36	156,00
-15385,54	74,00
-15348,82	211,00
-15312,19	75,00
-15275,66	14,00
-15239,23	32,00
-15202,90	146,00
-15166,67	184,00
-15130,53	117,00
-15094,48	149,00
-15058,54	136,00
-15022,68	180,00
-14986,93	86,00
-14951,26	139,00
-14915,69	48,00
-14880,22	125,00
-14844,84	11,00
-14809,55	93,00
-14774,35	70,00
-14739,25	176,00
-14704,24	82,00
-14669,32	142,00
-14634,49	294,00
-14599,75	63,00
-14565,10	296,00
-14530,55	165,00
-14496,08	259,00
-14461,70	203,00
-14427,41	58,00
-14393,21	105,00
-14359,10	117,00
-14325,07	224,00
-14291,14	165,00
-14257,29	96,00
-14223,52	184,00
-14189,85	135,00
-14156,26	65,00
-14122,76	11,00
-14089,34	121,00
-14056,01	247,00
-14022,76	116,00
-13989,60	86,00
-13956,52	119,00
-13923,53	213,00
-13890,62	182,00
-13857,79	233,00
-13825,05	86,00
-13792,39	171,00
-13759,81	203,00
-13727,31	31,00
-13694,90	54,00
-13662,57	228,00
-13630,31	149,00
-13598,14	103,00
-13566,05	78,00
-13534,05	68,00
-13502,12	247,00
-13470,27	62,00
-13438,50	48,00
-13406,80	232,00
-13375,19	20,00
-13343,66	121,00
-13312,20	110,00
-13280,83	220,00
-13249,53	261,00
-13218,30	133,00
-13187,16	2,00
-13156,09	-6,00
-13125,10	246,00
-13094,18	154,00
-13063,34	161,00
-13032,58	168,00
-13001,89	23,00
-12971,28	174,00
-12940,74	202,00
-12910,27	108,00
-12879,88	131,00
-12849,57	106,00
-12819,33	98,00
-12789,16	81,00
-12759,06	144,00
-12729,04	76,00
-12699,09	174,00
-12669,21	218,00
-12639,41	149,00
-12609,68	62,00
-12580,02	10,00
-12550,43	53,00
-12520,91	58,00
-12491,46	82,00
-12462,08	171,00
-12432,77	53,00
-12403,54	134,00
-12374,37	107,00
-12345,27	4,00
-12316,24	84,00
-12287,29	173,00
-12258,40	148,00
-12229,57	238,00
-12200,82	170,00
-12172,14	115,00
-12143,52	184,00
-12114,97	193,00
-12086,49	49,00
-12058,07	292,00
-12029,73	9,00
-12001,44	89,00
-11973,23	132,00
-11945,08	116,00
-11917,00	140,00
-11888,98	136,00
-11861,03	129,00
-11833,15	175,00
-11805,32	222,00
-11777,57	126,00
-11749,88	153,00
-11722,25	155,00
-11694,69	175,00
-11667,19	78,00
-11639,75	37,00
-11612,38	126,00
-11585,07	91,00
-11557,83	158,00
-11530,65	226,00
-11503,53	253,00
-11476,47	205,00
-11449,48	88,00
-11422,54	267,00
-11395,67	152,00
-11368,86	164,00
-11342,11	98,00
-11315,43	47,00
-11288,80	285,00
-11262,23	256,00
-11235,73	225,00
-11209,28	88,00
-11182,90	202,00
-11156,57	149,00
-11130,31	252,00
-11104,10	171,00
-11077,96	202,00
-11051,87	225,00
-11025,84	217,00
-10999,87	192,00
-10973,96	57,00
-10948,11	119,00
-10922,31	-46,00
-10896,58	205,00
-10870,90	134,00
-10845,28	276,00
-10819,71	70,00
-10794,20	173,00
-10768,75	243,00
-10743,36	187,00
-10718,02	176,00
-10692,74	98,00
-10667,52	178,00
-10642,35	91,00
-10617,24	299,00
-10592,18	275,00
-10567,18	183,00
-10542,23	286,00
-10517,34	317,00
-10492,51	198,00
-10467,72	351,00
-10443,00	223,00
-10418,32	405,00
-10393,70	272,00
-10369,14	349,00
-10344,63	368,00
-10320,17	392,00
-10295,77	362,00
-10271,42	237,00
-10247,12	258,00
-10222,88	469,00
-10198,68	471,00
-10174,54	523,00
-10150,46	596,00
-10126,42	335,00
-10102,44	488,00
-10078,51	578,00
-10054,63	629,00
-10030,80	559,00
-10007,03	472,00
-9983,30	587,00
-9959,63	516,00
-9936,01	669,00
-9912,44	748,00
-9888,92	654,00
-9865,44	775,00
-9842,02	727,00
-9818,65	739,00
-9795,33	686,00
-9772,06	787,00
-9748,84	842,00
-9725,67	834,00
-9702,55	1070,00
-9679,47	1219,00
-9656,45	1265,00
-9633,47	1287,00
-9610,55	1347,00
-9587,67	1463,00
-9564,84	1545,00
-9542,06	1508,00
-9519,32	1880,00
-9496,64	1920,00
-9474,00	2061,00
-9451,41	2161,00
-9428,87	2273,00
-9406,37	2143,00
-9383,92	1805,00
-9361,52	1891,00
-9339,17	1798,00
-9316,86	2104,00
-9294,60	2375,00
-9272,38	2576,00
-9250,21	2700,00
-9228,09	2874,00
-9206,01	2758,00
-9183,98	2438,00
-9162,00	2125,00
-9140,06	2102,00
-9118,16	1922,00
-9096,31	2163,00
-9074,51	2215,00
-9052,75	2131,00
-9031,04	2078,00
-9009,37	1795,00
-8987,74	1666,00
-8966,16	1482,00
-8944,63	1331,00
-8923,14	1320,00
-8901,69	1375,00
-8880,29	1512,00
-8858,93	1754,00
-8837,61	1823,00
-8816,34	2055,00
-8795,11	1999,00
-8773,92	2020,00
-8752,78	1631,00
-8731,68	1592,00
-8710,62	1660,00
-8689,61	1627,00
-8668,63	1834,00
-8647,70	1967,00
-8626,82	1916,00
-8605,97	1900,00
-8585,17	1804,00
-8564,41	1452,00
-8543,69	1488,00
-8523,01	1351,00
-8502,37	1485,00
-8481,78	1482,00
-8461,23	1474,00
-8440,71	1689,00
-8420,24	1752,00
-8399,81	1685,00
-8379,42	1880,00
-8359,08	1562,00
-8338,77	1545,00
-8318,50	1366,00
-8298,27	1375,00
-8278,09	1503,00
-8257,94	1466,00
-8237,83	1595,00
-8217,76	1652,00
-8197,74	1679,00
-8177,75	1647,00
-8157,80	1440,00
-8137,89	1388,00
-8118,02	1443,00
-8098,19	1272,00
-8078,40	1410,00
-8058,65	1436,00
-8038,93	1601,00
-8019,26	1528,00
-7999,62	1399,00
-7980,02	1348,00
-7960,46	1360,00
-7940,94	1328,00
-7921,46	1320,00
-7902,01	1191,00
-7882,60	1288,00
-7863,23	1259,00
-7843,90	1292,00
-7824,61	1342,00
-7805,35	1431,00
-7786,13	1464,00
-7766,95	1455,00
-7747,80	1239,00
-7728,69	1396,00
-7709,62	1230,00
-7690,59	1261,00
-7671,59	1547,00
-7652,63	1500,00
-7633,70	1452,00
-7614,81	1486,00
-7595,96	1371,00
-7577,15	1313,00
-7558,37	1171,00
-7539,62	1274,00
-7520,91	1456,00
-7502,24	1414,00
-7483,60	1381,00
-7465,00	1318,00
-7446,44	1080,00
-7427,91	1198,00
-7409,41	944,00
-7390,95	900,00
-7372,53	969,00
-7354,14	938,00
-7335,78	916,00
-7317,46	1072,00
-7299,18	1116,00
-7280,92	1297,00
-7262,71	1367,00
-7244,52	1465,00
-7226,38	1346,00
-7208,26	1353,00
-7190,18	1376,00
-7172,14	1272,00
-7154,12	1296,00
-7136,15	1385,00
-7118,20	1412,00
-7100,29	1483,00
-7082,41	1363,00
-7064,57	1242,00
-7046,76	1285,00
-7028,98	1062,00
-7011,24	1012,00
-6993,53	843,00
-6975,85	821,00
-6958,20	683,00
-6940,59	767,00
-6923,01	751,00
-6905,46	833,00
-6887,94	986,00
-6870,46	1026,00
-6853,01	1219,00
-6835,59	1324,00
-6818,21	1189,00
-6800,85	922,00
-6783,53	961,00
-6766,24	690,00
-6748,98	684,00
-6731,76	534,00
-6714,56	616,00
-6697,40	627,00
-6680,26	716,00
-6663,16	841,00
-6646,09	964,00
-6629,05	928,00
-6612,05	1095,00
-6595,07	1006,00
-6578,13	961,00
-6561,21	783,00
-6544,33	608,00
-6527,47	509,00
-6510,65	511,00
-6493,86	520,00
-6477,10	610,00
-6460,36	593,00
-6443,66	527,00
-6426,99	393,00
-6410,35	519,00
-6393,74	655,00
-6377,16	541,00
-6360,61	814,00
-6344,09	642,00
-6327,59	838,00
-6311,13	660,00
-6294,70	862,00
-6278,29	904,00
-6261,92	990,00
-6245,58	1083,00
-6229,26	1108,00
-6212,97	929,00
-6196,72	716,00
-6180,49	676,00
-6164,29	505,00
-6148,12	374,00
-6131,98	300,00
-6115,86	379,00
-6099,78	458,00
-6083,72	169,00
-6067,69	364,00
-6051,69	360,00
-6035,72	353,00
-6019,78	463,00
-6003,87	596,00
-5987,98	732,00
-5972,12	697,00
-5956,29	674,00
-5940,49	532,00
-5924,71	456,00
-5908,96	503,00
-5893,24	318,00
-5877,55	492,00
-5861,89	451,00
-5846,25	435,00
-5830,64	343,00
-5815,05	432,00
-5799,50	228,00
-5783,97	378,00
-5768,47	544,00
-5752,99	501,00
-5737,55	781,00
-5722,12	711,00
-5706,73	746,00
-5691,36	529,00
-5676,02	456,00
-5660,71	487,00
-5645,42	321,00
-5630,16	407,00
-5614,92	354,00
-5599,71	616,00
-5584,53	594,00
-5569,37	488,00
-5554,24	609,00
-5539,14	496,00
-5524,06	346,00
-5509,01	486,00
-5493,98	545,00
-5478,98	411,00
-5464,00	403,00
-5449,05	476,00
-5434,13	284,00
-5419,23	397,00
-5404,36	398,00
-5389,51	554,00
-5374,69	727,00
-5359,89	829,00
-5345,12	845,00
-5330,37	832,00
-5315,65	593,00
-5300,95	529,00
-5286,28	383,00
-5271,63	459,00
-5257,01	432,00
-5242,41	522,00
-5227,84	440,00
-5213,29	422,00
-5198,76	120,00
-5184,26	357,00
-5169,79	369,00
-5155,33	373,00
-5140,91	432,00
-5126,51	549,00
-5112,13	641,00
-5097,77	474,00
-5083,44	477,00
-5069,13	279,00
-5054,85	427,00
-5040,59	427,00
-5026,36	494,00
-5012,15	628,00
-4997,96	383,00
-4983,80	508,00
-4969,66	302,00
-4955,54	355,00
-4941,44	301,00
-4927,37	599,00
-4913,33	717,00
-4899,30	672,00
-4885,30	643,00
-4871,33	640,00
-4857,37	299,00
-4843,44	167,00
-4829,53	290,00
-4815,65	507,00
-4801,79	382,00
-4787,95	259,00
-4774,13	329,00
-4760,34	354,00
-4746,56	205,00
-4732,82	327,00
-4719,09	436,00
-4705,38	557,00
-4691,70	712,00
-4678,04	733,00
-4664,41	353,00
-4650,79	455,00
-4637,20	378,00
-4623,63	180,00
-4610,08	384,00
-4596,56	487,00
-4583,05	399,00
-4569,57	510,00
-4556,11	139,00
-4542,67	140,00
-4529,25	230,00
-4515,86	357,00
-4502,49	580,00
-4489,13	578,00
-4475,80	485,00
-4462,49	391,00
-4449,21	322,00
-4435,94	332,00
-4422,70	358,00
-4409,47	366,00
-4396,27	327,00
-4383,09	335,00
-4369,93	208,00
-4356,79	217,00
-4343,67	232,00
-4330,58	291,00
-4317,50	296,00
-4304,45	422,00
-4291,41	217,00
-4278,40	248,00
-4265,41	60,00
-4252,44	313,00
-4239,49	442,00
-4226,55	298,00
-4213,65	267,00
-4200,76	286,00
-4187,89	191,00
-4175,04	259,00
-4162,21	241,00
-4149,40	167,00
-4136,61	89,00
-4123,85	106,00
-4111,10	215,00
-4098,37	244,00
-4085,66	315,00
-4072,98	72,00
-4060,31	214,00
-4047,66	195,00
-4035,04	294,00
-4022,43	130,00
-4009,84	112,00
-3997,27	179,00
-3984,72	111,00
-3972,19	156,00
-3959,69	168,00
-3947,20	120,00
-3934,73	176,00
-3922,27	120,00
-3909,84	43,00
-3897,43	120,00
-3885,04	135,00
-3872,67	192,00
-3860,31	180,00
-3847,98	165,00
-3835,66	92,00
-3823,36	216,00
-3811,09	159,00
-3798,83	136,00
-3786,59	153,00
-3774,37	96,00
-3762,17	41,00
-3749,98	171,00
-3737,82	156,00
-3725,67	178,00
-3713,55	60,00
-3701,44	270,00
-3689,35	204,00
-3677,28	90,00
-3665,22	237,00
-3653,19	99,00
-3641,17	143,00
-3629,18	242,00
-3617,20	143,00
-3605,24	33,00
-3593,30	144,00
-3581,37	240,00
-3569,47	249,00
-3557,58	123,00
-3545,71	217,00
-3533,86	93,00
-3522,02	152,00
-3510,21	72,00
-3498,41	117,00
-3486,63	235,00
-3474,87	164,00
-3463,12	162,00
-3451,40	73,00
-3439,69	276,00
-3428,00	206,00
-3416,33	117,00
-3404,67	112,00
-3393,03	247,00
-3381,41	168,00
-3369,81	52,00
-3358,22	139,00
-3346,66	193,00
-3335,10	80,00
-3323,57	234,00
-3312,06	274,00
-3300,56	187,00
-3289,08	119,00
-3277,61	131,00
-3266,16	104,00
-3254,73	122,00
-3243,32	173,00
-3231,92	152,00
-3220,55	93,00
-3209,18	168,00
-3197,84	216,00
-3186,51	129,00
-3175,20	146,00
-3163,90	351,00
-3152,63	128,00
-3141,36	18,00
-3130,12	140,00
-3118,89	90,00
-3107,68	70,00
-3096,49	171,00
-3085,31	176,00
-3074,15	303,00
-3063,00	130,00
-3051,87	190,00
-3040,76	152,00
-3029,67	119,00
-3018,59	219,00
-3007,52	232,00
-2996,48	128,00
-2985,44	211,00
-2974,43	223,00
-2963,43	265,00
-2952,45	142,00
-2941,48	120,00
-2930,53	138,00
-2919,60	99,00
-2908,68	182,00
-2897,78	114,00
-2886,89	109,00
-2876,02	142,00
-2865,17	-99,00
-2854,33	174,00
-2843,50	76,00
-2832,70	210,00
-2821,90	110,00
-2811,13	4,00
-2800,37	61,00
-2789,62	122,00
-2778,89	231,00
-2768,18	207,00
-2757,48	217,00
-2746,80	154,00
-2736,13	118,00
-2725,48	86,00
-2714,84	38,00
-2704,22	174,00
-2693,61	289,00
-2683,02	189,00
-2672,45	13,00
-2661,89	219,00
-2651,34	95,00
-2640,81	87,00
-2630,30	237,00
-2619,80	167,00
-2609,31	96,00
-2598,84	167,00
-2588,39	183,00
-2577,95	42,00
-2567,52	156,00
-2557,11	224,00
-2546,71	142,00
-2536,33	54,00
-2525,97	115,00
-2515,62	254,00
-2505,28	12,00
-2494,96	128,00
-2484,65	58,00
-2474,36	169,00
-2464,08	186,00
-2453,82	213,00
-2443,57	32,00
-2433,33	202,00
-2423,11	126,00
-2412,91	189,00
-2402,72	212,00
-2392,54	158,00
-2382,38	244,00
-2372,23	233,00
-2362,09	272,00
-2351,97	246,00
-2341,87	103,00
-2331,78	203,00
-2321,70	144,00
-2311,64	145,00
-2301,59	97,00
-2291,55	173,00
-2281,53	112,00
-2271,53	190,00
-2261,53	170,00
-2251,55	106,00
-2241,59	151,00
-2231,64	22,00
-2221,70	172,00
-2211,78	103,00
-2201,87	245,00
-2191,97	202,00
-2182,09	173,00
-2172,22	225,00
-2162,37	177,00
-2152,53	53,00
-2142,70	218,00
-2132,89	210,00
-2123,09	209,00
-2113,30	218,00
-2103,53	103,00
-2093,77	90,00
-2084,02	96,00
-2074,29	150,00
-2064,57	174,00
-2054,86	229,00
-2045,17	136,00
-2035,49	174,00
-2025,82	273,00
-2016,17	29,00
-2006,53	157,00
-1996,91	122,00
-1987,29	0,00
-1977,69	245,00
-1968,11	205,00
-1958,53	230,00
-1948,97	108,00
-1939,42	182,00
-1929,89	115,00
-1920,37	240,00
-1910,86	132,00
-1901,36	285,00
-1891,88	17,00
-1882,41	85,00
-1872,95	253,00
-1863,51	64,00
-1854,08	92,00
-1844,66	214,00
-1835,26	101,00
-1825,86	126,00
-1816,48	133,00
-1807,11	131,00
-1797,76	244,00
-1788,42	244,00
-1779,09	72,00
-1769,77	138,00
-1760,47	137,00
-1751,17	122,00
-1741,89	180,00
-1732,63	99,00
-1723,37	112,00
-1714,13	195,00
-1704,90	72,00
-1695,68	245,00
-1686,48	207,00
-1677,29	176,00
-1668,11	149,00
-1658,94	144,00
-1649,78	83,00
-1640,64	174,00
-1631,51	158,00
-1622,39	117,00
-1613,28	161,00
-1604,19	126,00
-1595,10	180,00
-1586,03	180,00
-1576,97	105,00
-1567,93	95,00
-1558,89	81,00
-1549,87	238,00
-1540,86	242,00
-1531,86	147,00
-1522,87	82,00
-1513,90	179,00
-1504,93	255,00
-1495,98	-70,00
-1487,04	115,00
-1478,12	177,00
-1469,20	167,00
-1460,30	262,00
-1451,40	275,00
-1442,52	144,00
-1433,65	131,00
-1424,80	272,00
-1415,95	213,00
-1407,12	254,00
-1398,30	68,00
-1389,48	187,00
-1380,69	103,00
-1371,90	305,00
-1363,12	79,00
-1354,36	167,00
-1345,60	118,00
-1336,86	204,00
-1328,13	146,00
-1319,41	-6,00
-1310,70	194,00
-1302,01	145,00
-1293,32	175,00
-1284,65	231,00
-1275,99	188,00
-1267,33	62,00
-1258,69	132,00
-1250,06	299,00
-1241,45	228,00
-1232,84	236,00
-1224,25	78,00
-1215,66	117,00
-1207,09	220,00
-1198,53	142,00
-1189,97	201,00
-1181,43	295,00
-1172,91	168,00
-1164,39	157,00
-1155,88	187,00
-1147,38	97,00
-1138,90	223,00
-1130,43	101,00
-1121,96	52,00
-1113,51	64,00
-1105,07	89,00
-1096,64	233,00
-1088,22	246,00
-1079,81	165,00
-1071,41	176,00
-1063,02	22,00
-1054,65	246,00
-1046,28	84,00
-1037,92	200,00
-1029,58	58,00
-1021,24	100,00
-1012,92	309,00
-1004,61	195,00
-996,30	173,00
-988,01	61,00
-979,73	311,00
-971,46	168,00
-963,20	156,00
-954,95	58,00
-946,71	140,00
-938,48	152,00
-930,26	-25,00
-922,06	103,00
-913,86	271,00
-905,67	145,00
-897,49	164,00
-889,33	178,00
-881,17	131,00
-873,02	192,00
-864,89	60,00
-856,76	80,00
-848,65	178,00
-840,54	114,00
-832,45	150,00
-824,36	66,00
-816,29	159,00
-808,22	56,00
-800,17	112,00
-792,12	184,00
-784,09	236,00
-776,06	134,00
-768,05	102,00
-760,04	97,00
-752,05	164,00
-744,07	286,00
-736,09	218,00
-728,13	236,00
-720,17	185,00
-712,23	152,00
-704,29	106,00
-696,37	173,00
-688,45	72,00
-680,55	98,00
-672,65	265,00
-664,77	35,00
-656,89	56,00
-649,03	181,00
-641,17	110,00
-633,32	252,00
-625,49	144,00
-617,66	163,00
-609,84	112,00
-602,03	210,00
-594,23	209,00
-586,45	161,00
-578,67	237,00
-570,90	124,00
-563,14	224,00
-555,39	192,00
-547,65	209,00
-539,91	118,00
-532,19	137,00
-524,48	206,00
-516,78	139,00
-509,08	100,00
-501,40	139,00
-493,72	153,00
-486,06	136,00
-478,40	131,00
-470,76	124,00
-463,12	170,00
-455,49	195,00
-447,87	134,00
-440,26	161,00
-432,66	120,00
-425,07	120,00
-417,49	132,00
-409,92	181,00
-402,35	99,00
-394,80	211,00
-387,25	161,00
-379,72	206,00
-372,19	209,00
-364,67	264,00
-357,17	156,00
-349,67	80,00
-342,18	240,00
-334,69	210,00
-327,22	183,00
-319,76	87,00
-312,30	187,00
-304,86	209,00
-297,42	166,00
-290,00	158,00
-282,58	113,00
-275,17	209,00
-267,77	213,00
-260,37	144,00
-252,99	172,00
-245,62	216,00
-238,25	126,00
-230,90	149,00
-223,55	320,00
-216,21	280,00
-208,88	219,00
-201,56	174,00
-194,25	323,00
-186,94	221,00
-179,65	333,00
-172,36	378,00
-165,08	267,00
-157,81	420,00
-150,55	349,00
-143,30	367,00
-136,06	403,00
-128,82	409,00
-121,60	523,00
-114,38	375,00
-107,17	291,00
-99,97	457,00
-92,78	613,00
-85,60	542,00
-78,42	715,00
-71,25	788,00
-64,10	1051,00
-56,95	1219,00
-49,81	1277,00
-42,67	1578,00
-35,55	1980,00
-28,43	2659,00
-21,33	4663,00
-14,23	15418,00
-7,14	47266,00
-0,05	38051,00
7,02	42597,00
14,09	40672,00
21,14	10889,00
28,19	4944,00
35,23	3189,00
42,27	2482,00
49,29	2225,00
56,31	1635,00
63,32	1406,00
70,32	1291,00
77,31	1001,00
84,29	936,00
91,27	858,00
98,23	787,00
105,19	727,00
112,14	850,00
119,09	1008,00
126,02	1394,00
132,95	1488,00
139,87	1527,00
146,78	1477,00
153,68	1446,00
160,58	1506,00
167,46	1437,00
174,34	1520,00
181,21	1276,00
188,08	1385,00
194,93	1316,00
201,78	1460,00
208,62	1462,00
215,45	1480,00
222,27	1380,00
229,09	1368,00
235,90	1469,00
242,70	1219,00
249,49	1416,00
256,27	1321,00
263,05	1148,00
269,82	1256,00
276,58	1164,00
283,33	1226,00
290,08	1337,00
296,82	1267,00
303,55	1106,00
310,27	1268,00
316,98	1180,00
323,69	1289,00
330,39	1139,00
337,08	1075,00
343,76	1138,00
350,44	1146,00
357,11	1100,00
363,77	1128,00
370,42	1133,00
377,07	1169,00
383,71	1203,00
390,34	1091,00
396,96	1182,00
403,58	974,00
410,19	1059,00
416,79	1030,00
423,38	1068,00
429,97	1039,00
436,55	1078,00
443,12	1157,00
449,68	967,00
456,24	1111,00
462,79	914,00
469,33	928,00
475,86	932,00
482,39	1015,00
488,91	1005,00
495,42	776,00
501,93	1028,00
508,42	1082,00
514,91	1050,00
521,40	909,00
527,87	989,00
534,34	806,00
540,80	910,00
547,25	956,00
553,70	950,00
560,14	948,00
566,57	987,00
573,00	812,00
579,41	871,00
585,83	919,00
592,23	1008,00
598,62	918,00
605,01	904,00
611,40	822,00
617,77	914,00
624,14	935,00
630,50	856,00
636,85	787,00
643,20	865,00
649,54	899,00
655,87	862,00
662,20	808,00
668,52	807,00
674,83	725,00
681,13	777,00
687,43	827,00
693,72	878,00
700,00	807,00
706,28	883,00
712,55	889,00
718,81	880,00
725,07	968,00
731,32	733,00
737,56	907,00
743,79	785,00
750,02	900,00
756,24	884,00
762,46	823,00
768,67	998,00
774,87	782,00
781,06	774,00
787,25	888,00
793,43	824,00
799,60	819,00
805,77	833,00
811,93	823,00
818,08	856,00
824,23	826,00
830,37	855,00
836,50	947,00
842,63	805,00
848,75	849,00
854,87	894,00
860,97	870,00
867,07	1001,00
873,17	962,00
879,25	802,00
885,33	960,00
891,41	806,00
897,47	797,00
903,53	719,00
909,59	756,00
915,63	921,00
921,67	755,00
927,71	698,00
933,74	773,00
939,76	711,00
945,77	761,00
951,78	919,00
957,78	769,00
963,78	639,00
969,77	706,00
975,75	766,00
981,72	704,00
987,69	984,00
993,66	840,00
999,61	719,00
1005,56	877,00
1011,51	790,00
1017,44	718,00
1023,37	756,00
1029,30	745,00
1035,22	707,00
1041,13	983,00
1047,03	859,00
1052,93	1018,00
1058,83	1234,00
1064,71	1415,00
1070,59	1190,00
1076,47	950,00
1082,33	1030,00
1088,20	944,00
1094,05	872,00
1099,90	834,00
1105,74	741,00
1111,58	846,00
1117,41	876,00
1123,23	1226,00
1129,05	1468,00
1134,86	1381,00
1140,67	1140,00
1146,47	968,00
1152,26	839,00
1158,05	797,00
1163,83	774,00
1169,60	875,00
1175,37	1033,00
1181,13	719,00
1186,89	829,00
1192,64	879,00
1198,38	693,00
1204,12	868,00
1209,85	753,00
1215,58	760,00
1221,30	732,00
1227,02	769,00
1232,72	679,00
1238,43	746,00
1244,12	861,00
1249,81	753,00
1255,50	841,00
1261,17	844,00
1266,85	890,00
1272,51	938,00
1278,17	976,00
1283,83	979,00
1289,47	1584,00
1295,12	1743,00
1300,75	1666,00
1306,38	1271,00
1312,01	1073,00
1317,63	945,00
1323,24	919,00
1328,85	844,00
1334,45	856,00
1340,04	849,00
1345,63	824,00
1351,22	959,00
1356,80	924,00
1362,37	911,00
1367,93	1091,00
1373,49	954,00
1379,05	962,00
1384,60	981,00
1390,14	991,00
1395,68	982,00
1401,21	948,00
1406,74	861,00
1412,26	1280,00
1417,77	1355,00
1423,28	1253,00
1428,78	1424,00
1434,28	1552,00
1439,77	1766,00
1445,26	1694,00
1450,74	1740,00
1456,22	1474,00
1461,68	1472,00
1467,15	1327,00
1472,61	1266,00
1478,06	1262,00
1483,51	905,00
1488,95	1067,00
1494,38	930,00
1499,81	758,00
1505,24	726,00
1510,65	807,00
1516,07	778,00
1521,48	737,00
1526,88	786,00
1532,27	805,00
1537,67	797,00
1543,05	872,00
1548,43	793,00
1553,81	790,00
1559,18	831,00
1564,54	792,00
1569,90	727,00
1575,25	744,00
1580,60	812,00
1585,94	787,00
1591,28	718,00
1596,61	792,00
1601,93	688,00
1607,25	679,00
1612,57	834,00
1617,88	780,00
1623,18	778,00
1628,48	771,00
1633,77	782,00
1639,06	822,00
1644,34	735,00
1649,62	681,00
1654,89	791,00
1660,16	656,00
1665,42	748,00
1670,67	721,00
1675,92	780,00
1681,17	619,00
1686,41	552,00
1691,64	667,00
1696,87	683,00
1702,10	654,00
1707,32	579,00
1712,53	674,00
1717,74	635,00
1722,94	609,00
1728,14	666,00
1733,33	569,00
1738,52	787,00
1743,70	728,00
1748,88	575,00
1754,05	684,00
1759,22	594,00
1764,38	727,00
1769,53	504,00
1774,69	648,00
1779,83	671,00
1784,97	549,00
1790,11	576,00
1795,24	608,00
1800,36	655,00
1805,48	685,00
1810,60	626,00
1815,71	622,00
1820,82	706,00
1825,92	629,00
1831,01	576,00
1836,10	723,00
1841,19	703,00
1846,26	523,00
1851,34	643,00
1856,41	574,00
1861,47	618,00
1866,53	571,00
1871,59	560,00
1876,64	803,00
1881,68	597,00
1886,72	589,00
1891,76	456,00
1896,79	676,00
1901,81	531,00
1906,83	545,00
1911,85	510,00
1916,86	625,00
1921,86	632,00
1926,86	584,00
1931,86	670,00
1936,85	656,00
1941,83	654,00
1946,81	505,00
1951,79	669,00
1956,76	410,00
1961,72	629,00
1966,68	413,00
1971,64	643,00
1976,59	544,00
1981,54	603,00
1986,48	472,00
1991,42	536,00
1996,35	662,00
2001,27	380,00
2006,20	639,00
2011,11	623,00
2016,03	450,00
2020,93	552,00
2025,84	400,00
2030,73	487,00
2035,63	525,00
2040,52	467,00
2045,40	481,00
2050,28	482,00
2055,15	512,00
2060,02	537,00
2064,89	589,00
2069,75	529,00
2074,60	506,00
2079,46	422,00
2084,30	603,00
2089,14	523,00
2093,98	510,00
2098,81	530,00
2103,64	537,00
2108,46	484,00
2113,28	558,00
2118,09	539,00
2122,90	472,00
2127,70	522,00
2132,50	467,00
2137,30	463,00
2142,09	545,00
2146,87	477,00
2151,66	563,00
2156,43	450,00
2161,20	480,00
2165,97	614,00
2170,73	577,00
2175,49	539,00
2180,24	442,00
2184,99	404,00
2189,74	530,00
2194,48	550,00
2199,21	472,00
2203,94	434,00
2208,67	475,00
2213,39	387,00
2218,11	371,00
2222,82	536,00
2227,53	484,00
2232,23	476,00
2236,93	361,00
2241,63	459,00
2246,32	487,00
2251,00	508,00
2255,68	477,00
2260,36	511,00
2265,03	528,00
2269,70	459,00
2274,36	571,00
2279,02	360,00
2283,68	412,00
2288,33	449,00
2292,97	509,00
2297,61	432,00
2302,25	362,00
2306,88	402,00
2311,51	415,00
2316,14	398,00
2320,75	548,00
2325,37	463,00
2329,98	457,00
2334,59	516,00
2339,19	526,00
2343,79	413,00
2348,38	512,00
2352,97	422,00
2357,55	606,00
2362,13	475,00
2366,71	481,00
2371,28	354,00
2375,85	558,00
2380,41	459,00
2384,97	479,00
2389,52	396,00
2394,07	467,00
2398,62	442,00
2403,16	400,00
2407,70	421,00
2412,23	512,00
2416,76	437,00
2421,29	342,00
2425,81	475,00
2430,32	399,00
2434,84	322,00
2439,34	521,00
2443,85	425,00
2448,35	386,00
2452,84	324,00
2457,33	547,00
2461,82	323,00
2466,30	334,00
2470,78	567,00
2475,25	296,00
2479,72	400,00
2484,19	432,00
2488,65	459,00
2493,11	444,00
2497,56	301,00
2502,01	319,00
2506,46	439,00
2510,90	392,00
2515,34	290,00
2519,77	359,00
2524,20	395,00
2528,62	398,00
2533,04	451,00
2537,46	410,00
2541,87	464,00
2546,28	374,00
2550,68	396,00
2555,08	500,00
2559,48	405,00
2563,87	433,00
2568,26	427,00
2572,64	402,00
2577,02	468,00
2581,40	410,00
2585,77	452,00
2590,14	342,00
2594,50	424,00
2598,86	555,00
2603,22	365,00
2607,57	377,00
2611,92	343,00
2616,26	454,00
2620,60	459,00
2624,94	390,00
2629,27	426,00
2633,60	500,00
2637,92	353,00
2642,24	326,00
2646,56	411,00
2650,87	397,00
2655,18	496,00
2659,48	286,00
2663,78	436,00
2668,08	430,00
2672,37	428,00
2676,66	387,00
2680,95	491,00
2685,23	299,00
2689,50	557,00
2693,78	363,00
2698,05	492,00
2702,31	406,00
2706,57	395,00
2710,83	417,00
2715,08	375,00
2719,33	461,00
2723,58	563,00
2727,82	468,00
2732,06	464,00
2736,29	517,00
2740,53	469,00
2744,75	304,00
2748,97	477,00
2753,19	628,00
2757,41	384,00
2761,62	381,00
2765,83	408,00
2770,03	419,00
2774,23	400,00
2778,43	491,00
2782,62	535,00
2786,81	370,00
2791,00	475,00
2795,18	501,00
2799,35	508,00
2803,53	473,00
2807,70	519,00
2811,86	517,00
2816,03	673,00
2820,19	520,00
2824,34	596,00
2828,49	608,00
2832,64	802,00
2836,78	878,00
2840,92	1127,00
2845,06	1317,00
2849,19	1492,00
2853,32	1555,00
2857,45	1537,00
2861,57	1446,00
2865,69	1313,00
2869,80	1361,00
2873,91	1439,00
2878,02	1480,00
2882,12	1585,00
2886,22	1693,00
2890,32	1412,00
2894,41	1512,00
2898,50	1368,00
2902,58	1251,00
2906,67	1159,00
2910,74	1029,00
2914,82	1012,00
2918,89	952,00
2922,96	936,00
2927,02	789,00
2931,08	740,00
2935,13	792,00
2939,19	610,00
2943,24	640,00
2947,28	592,00
2951,32	631,00
2955,36	606,00
2959,40	412,00
2963,43	497,00
2967,46	414,00
2971,48	423,00
2975,50	405,00
2979,52	415,00
2983,53	389,00
2987,54	381,00
2991,55	414,00
2995,55	355,00
2999,55	387,00
3003,54	372,00
3007,54	407,00
3011,53	329,00
3015,51	352,00
3019,49	184,00
3023,47	323,00
3027,45	422,00
3031,42	297,00
3035,39	280,00
3039,35	335,00
3043,31	327,00
3047,27	282,00
3051,22	222,00
3055,17	255,00
3059,12	142,00
3063,06	325,00
3067,00	334,00
3070,94	298,00
3074,87	261,00
3078,80	444,00
3082,73	347,00
3086,65	97,00
3090,57	268,00
3094,49	271,00
3098,40	254,00
3102,31	221,00
3106,22	292,00
3110,12	246,00
3114,02	219,00
3117,92	328,00
3121,81	233,00
3125,70	121,00
3129,58	156,00
3133,47	149,00
3137,34	240,00
3141,22	323,00
3145,09	348,00
3148,96	250,00
3152,83	240,00
3156,69	270,00
3160,55	320,00
3164,40	220,00
3168,26	168,00
3172,10	411,00
3175,95	193,00
3179,79	156,00
3183,63	247,00
3187,47	246,00
3191,30	315,00
3195,13	305,00
3198,95	212,00
3202,78	253,00
3206,60	285,00
3210,41	306,00
3214,23	222,00
3218,03	304,00
3221,84	129,00
3225,64	202,00
3229,44	207,00
3233,24	211,00
3237,03	259,00
3240,82	175,00
3244,61	122,00
3248,39	209,00
3252,17	326,00
3255,95	207,00
3259,72	243,00
3263,49	189,00
3267,26	266,00
3271,03	193,00
3274,79	216,00
3278,54	172,00
3282,30	259,00
3286,05	231,00
3289,80	107,00
3293,54	192,00
3297,29	244,00
3301,02	273,00
3304,76	201,00
3308,49	190,00
3312,22	246,00
3315,95	41,00
3319,67	316,00
3323,39	247,00
3327,10	194,00
3330,82	199,00
3334,53	242,00
3338,24	228,00
3341,94	252,00
3345,64	164,00
3349,34	212,00
3353,03	292,00
3356,72	317,00
3360,41	216,00
3364,10	283,00
3367,78	126,00
3371,46	256,00
3375,13	254,00
3378,81	156,00
3382,48	230,00
3386,14	92,00
3389,81	262,00
3393,47	210,00
3397,12	200,00
3400,78	37,00
3404,43	318,00
3408,08	243,00
3411,72	232,00
3415,36	164,00
3419,00	197,00
3422,64	164,00
3426,27	246,00
3429,90	141,00
3433,53	205,00
3437,15	157,00
3440,77	223,00
3444,39	256,00
3448,00	73,00
3451,62	174,00
3455,22	277,00
3458,83	111,00
3462,43	145,00
3466,03	92,00
3469,63	150,00
3473,22	251,00
3476,81	197,00
3480,40	88,00
3483,99	67,00
3487,57	106,00
3491,15	160,00
3494,72	58,00
3498,29	193,00
3501,86	145,00
3505,43	199,00
3508,99	175,00
3512,56	187,00
3516,11	181,00
3519,67	261,00
3523,22	160,00
3526,77	174,00
3530,32	255,00
3533,86	180,00
3537,40	190,00
3540,94	260,00
3544,47	184,00
3548,00	151,00
3551,53	188,00
3555,06	187,00
3558,58	104,00
3562,10	204,00
3565,62	328,00
3569,13	112,00
3572,64	105,00
3576,15	188,00
3579,66	187,00
3583,16	166,00
3586,66	175,00
3590,16	142,00
3593,65	224,00
3597,14	142,00
3600,63	218,00
3604,11	218,00
3607,60	220,00
3611,08	293,00
3614,55	18,00
3618,03	167,00
3621,50	248,00
3624,97	142,00
3628,43	83,00
3631,90	49,00
3635,36	85,00
3638,81	121,00
3642,27	114,00
3645,72	344,00
3649,17	93,00
3652,61	106,00
3656,06	210,00
3659,50	123,00
3662,93	159,00
3666,37	82,00
3669,80	170,00
3673,23	188,00
3676,65	208,00
3680,08	50,00
3683,50	63,00
3686,92	115,00
3690,33	125,00
3693,74	151,00
3697,15	261,00
3700,56	107,00
3703,96	138,00
3707,36	49,00
3710,76	89,00
3714,16	265,00
3717,55	-13,00
3720,94	224,00
3724,33	113,00
3727,71	28,00
3731,10	231,00
3734,48	136,00
3737,85	192,00
3741,23	147,00
3744,60	147,00
3747,97	92,00
3751,33	231,00
3754,69	107,00
3758,05	158,00
3761,41	127,00
3764,77	194,00
3768,12	167,00
3771,47	189,00
3774,82	88,00
3778,16	-3,00
3781,50	-4,00
3784,84	0,00
3788,18	12,00
>>>>>End Processed Spectral Data<<<<<
