SpectraSuite Data File
++++++++++++++++++++++++++++++++++++
Date: Tue Mar 03 12:31:34 ICT 2026
User: user
Dark Spectrum Present: Yes
Reference Spectrum Present: No
Number of Sampled Component Spectra: 1
Spectrometers: MAYP113682
Integration Time (usec): 3000000 (MAYP113682)
Spectra Averaged: 1 (MAYP113682)
Boxcar Smoothing: 0 (MAYP113682)
Correct for Electrical Dark: No (MAYP113682)
Strobe/Lamp Enabled: No (MAYP113682)
Correct for Detector Non-linearity: No (MAYP113682)
Correct for Stray Light: No (MAYP113682)
Number of Pixels in Processed Spectrum: 2068
>>>>>Begin Processed Spectral Data<<<<<
-37534,58	6,00
-37414,56	-1,00
-37295,11	-1,00
-37176,24	-8,00
-37057,95	-23,00
-36940,22	-6,00
-36823,05	64,00
-36706,45	26,00
-36590,40	82,00
-36474,90	23,00
-36359,95	28,00
-36245,55	196,00
-36131,68	84,00
-36018,35	114,00
-35905,55	74,00
-35793,29	97,00
-35681,54	75,00
-35570,32	-32,00
-35459,62	8,00
-35349,43	38,00
-35239,75	163,00
-35130,58	44,00
-35021,91	26,00
-34913,74	65,00
-34806,07	67,00
-34698,89	11,00
-34592,20	-60,00
-34486,00	56,00
-34380,28	78,00
-34275,04	-53,00
-34170,27	-49,00
-34065,98	59,00
-33962,16	50,00
-33858,81	71,00
-33755,92	56,00
-33653,49	-4,00
-33551,52	50,00
-33450,01	39,00
-33348,94	103,00
-33248,33	-16,00
-33148,16	94,00
-33048,43	43,00
-32949,14	84,00
-32850,29	98,00
-32751,87	35,00
-32653,89	6,00
-32556,33	19,00
-32459,20	28,00
-32362,49	47,00
-32266,19	47,00
-32170,32	110,00
-32074,86	-13,00
-31979,82	104,00
-31885,18	-8,00
-31790,95	-37,00
-31697,12	48,00
-31603,69	81,00
-31510,67	76,00
-31418,04	36,00
-31325,80	90,00
-31233,95	100,00
-31142,49	14,00
-31051,42	18,00
-30960,73	196,00
-30870,43	137,00
-30780,50	-3,00
-30690,95	68,00
-30601,77	86,00
-30512,97	-19,00
-30424,53	84,00
-30336,46	204,00
-30248,76	-20,00
-30161,42	50,00
-30074,44	91,00
-29987,81	100,00
-29901,55	78,00
-29815,63	14,00
-29730,07	-43,00
-29644,86	85,00
-29560,00	35,00
-29475,48	3,00
-29391,30	22,00
-29307,47	64,00
-29223,97	42,00
-29140,81	52,00
-29057,99	-85,00
-28975,50	96,00
-28893,34	43,00
-28811,51	-11,00
-28730,00	128,00
-28648,82	-5,00
-28567,97	-32,00
-28487,43	80,00
-28407,21	30,00
-28327,32	-42,00
-28247,73	-60,00
-28168,46	-67,00
-28089,50	38,00
-28010,85	-102,00
-27932,51	123,00
-27854,48	89,00
-27776,75	-20,00
-27699,32	87,00
-27622,19	172,00
-27545,37	57,00
-27468,84	50,00
-27392,60	69,00
-27316,66	69,00
-27241,01	2,00
-27165,66	94,00
-27090,59	14,00
-27015,81	119,00
-26941,31	34,00
-26867,10	80,00
-26793,17	53,00
-26719,52	-36,00
-26646,15	52,00
-26573,06	128,00
-26500,24	140,00
-26427,70	27,00
-26355,43	153,00
-26283,43	-47,00
-26211,71	42,00
-26140,25	-3,00
-26069,06	68,00
-25998,13	35,00
-25927,46	166,00
-25857,06	35,00
-25786,92	39,00
-25717,04	5,00
-25647,42	-68,00
-25578,05	177,00
-25508,94	-82,00
-25440,09	-41,00
-25371,48	66,00
-25303,13	-104,00
-25235,02	11,00
-25167,17	26,00
-25099,56	24,00
-25032,19	57,00
-24965,07	86,00
-24898,20	-12,00
-24831,56	160,00
-24765,17	48,00
-24699,01	54,00
-24633,10	72,00
-24567,41	-28,00
-24501,97	65,00
-24436,75	-41,00
-24371,77	161,00
-24307,03	23,00
-24242,51	-40,00
-24178,22	145,00
-24114,16	-36,00
-24050,32	-80,00
-23986,71	52,00
-23923,32	136,00
-23860,16	16,00
-23797,22	29,00
-23734,50	-3,00
-23672,00	102,00
-23609,71	267,00
-23547,65	-7,00
-23485,80	65,00
-23424,16	75,00
-23362,74	68,00
-23301,53	65,00
-23240,54	-18,00
-23179,75	121,00
-23119,17	77,00
-23058,80	205,00
-22998,64	131,00
-22938,68	59,00
-22878,93	-117,00
-22819,39	39,00
-22760,04	-26,00
-22700,90	-43,00
-22641,96	48,00
-22583,22	43,00
-22524,68	109,00
-22466,33	45,00
-22408,19	68,00
-22350,23	101,00
-22292,48	46,00
-22234,92	-41,00
-22177,55	111,00
-22120,37	64,00
-22063,38	-37,00
-22006,58	31,00
-21949,98	14,00
-21893,56	183,00
-21837,33	22,00
-21781,28	-14,00
-21725,42	-5,00
-21669,74	136,00
-21614,25	46,00
-21558,94	85,00
-21503,81	97,00
-21448,86	-15,00
-21394,10	46,00
-21339,51	99,00
-21285,10	-14,00
-21230,86	44,00
-21176,81	102,00
-21122,93	123,00
-21069,22	60,00
-21015,69	-3,00
-20962,33	88,00
-20909,14	21,00
-20856,13	208,00
-20803,28	16,00
-20750,61	-16,00
-20698,10	10,00
-20645,76	20,00
-20593,59	114,00
-20541,59	3,00
-20489,75	-19,00
-20438,07	103,00
-20386,56	59,00
-20335,22	103,00
-20284,03	9,00
-20233,01	-23,00
-20182,15	-54,00
-20131,45	58,00
-20080,91	-42,00
-20030,52	105,00
-19980,30	12,00
-19930,23	-17,00
-19880,32	60,00
-19830,56	182,00
-19780,96	142,00
-19731,52	17,00
-19682,23	12,00
-19633,09	110,00
-19584,10	18,00
-19535,26	170,00
-19486,58	-11,00
-19438,04	-128,00
-19389,66	75,00
-19341,42	-3,00
-19293,33	-4,00
-19245,39	112,00
-19197,60	28,00
-19149,95	186,00
-19102,45	-40,00
-19055,09	25,00
-19007,87	107,00
-18960,80	84,00
-18913,87	30,00
-18867,09	9,00
-18820,44	30,00
-18773,94	72,00
-18727,57	-7,00
-18681,35	93,00
-18635,26	17,00
-18589,31	83,00
-18543,50	35,00
-18497,83	-27,00
-18452,29	-31,00
-18406,89	-6,00
-18361,63	-48,00
-18316,50	-9,00
-18271,50	0,00
-18226,63	61,00
-18181,90	192,00
-18137,30	197,00
-18092,84	9,00
-18048,50	88,00
-18004,29	-20,00
-17960,22	163,00
-17916,27	-22,00
-17872,45	82,00
-17828,76	-5,00
-17785,20	114,00
-17741,77	47,00
-17698,46	96,00
-17655,28	82,00
-17612,22	-104,00
-17569,29	139,00
-17526,48	-78,00
-17483,79	-51,00
-17441,23	-48,00
-17398,79	-35,00
-17356,48	142,00
-17314,28	76,00
-17272,21	20,00
-17230,26	110,00
-17188,42	136,00
-17146,71	11,00
-17105,12	84,00
-17063,64	43,00
-17022,28	12,00
-16981,04	5,00
-16939,92	28,00
-16898,91	-60,00
-16858,02	42,00
-16817,25	-15,00
-16776,59	78,00
-16736,04	98,00
-16695,61	185,00
-16655,29	61,00
-16615,09	3,00
-16574,99	76,00
-16535,01	-60,00
-16495,15	101,00
-16455,39	21,00
-16415,74	67,00
-16376,21	53,00
-16336,78	-41,00
-16297,46	75,00
-16258,26	77,00
-16219,16	51,00
-16180,17	109,00
-16141,28	156,00
-16102,51	-29,00
-16063,84	59,00
-16025,27	64,00
-15986,82	27,00
-15948,46	-29,00
-15910,22	53,00
-15872,07	29,00
-15834,04	98,00
-15796,10	106,00
-15758,27	54,00
-15720,54	72,00
-15682,91	-10,00
-15645,39	5,00
-15607,97	51,00
-15570,64	-10,00
-15533,42	-9,00
-15496,30	143,00
-15459,28	11,00
-15422,36	30,00
-15385,54	120,00
-15348,82	16,00
-15312,19	36,00
-15275,66	-10,00
-15239,23	-12,00
-15202,90	38,00
-15166,67	-10,00
-15130,53	-15,00
-15094,48	42,00
-15058,54	37,00
-15022,68	-67,00
-14986,93	17,00
-14951,26	97,00
-14915,69	-18,00
-14880,22	36,00
-14844,84	-14,00
-14809,55	-56,00
-14774,35	-22,00
-14739,25	187,00
-14704,24	13,00
-14669,32	5,00
-14634,49	197,00
-14599,75	17,00
-14565,10	143,00
-14530,55	-6,00
-14496,08	120,00
-14461,70	180,00
-14427,41	-26,00
-14393,21	-76,00
-14359,10	78,00
-14325,07	127,00
-14291,14	63,00
-14257,29	25,00
-14223,52	27,00
-14189,85	11,00
-14156,26	70,00
-14122,76	-117,00
-14089,34	116,00
-14056,01	55,00
-14022,76	28,00
-13989,60	-12,00
-13956,52	30,00
-13923,53	148,00
-13890,62	72,00
-13857,79	113,00
-13825,05	-77,00
-13792,39	102,00
-13759,81	121,00
-13727,31	90,00
-13694,90	31,00
-13662,57	116,00
-13630,31	5,00
-13598,14	30,00
-13566,05	50,00
-13534,05	-16,00
-13502,12	94,00
-13470,27	111,00
-13438,50	-112,00
-13406,80	116,00
-13375,19	68,00
-13343,66	-15,00
-13312,20	86,00
-13280,83	12,00
-13249,53	68,00
-13218,30	121,00
-13187,16	-56,00
-13156,09	-62,00
-13125,10	115,00
-13094,18	25,00
-13063,34	14,00
-13032,58	29,00
-13001,89	-75,00
-12971,28	11,00
-12940,74	39,00
-12910,27	56,00
-12879,88	-12,00
-12849,57	161,00
-12819,33	72,00
-12789,16	33,00
-12759,06	58,00
-12729,04	-24,00
-12699,09	-103,00
-12669,21	125,00
-12639,41	43,00
-12609,68	51,00
-12580,02	-23,00
-12550,43	-50,00
-12520,91	25,00
-12491,46	62,00
-12462,08	113,00
-12432,77	-37,00
-12403,54	61,00
-12374,37	46,00
-12345,27	-97,00
-12316,24	-22,00
-12287,29	46,00
-12258,40	46,00
-12229,57	105,00
-12200,82	-24,00
-12172,14	-6,00
-12143,52	37,00
-12114,97	30,00
-12086,49	38,00
-12058,07	33,00
-12029,73	-43,00
-12001,44	49,00
-11973,23	-29,00
-11945,08	8,00
-11917,00	20,00
-11888,98	227,00
-11861,03	145,00
-11833,15	112,00
-11805,32	93,00
-11777,57	41,00
-11749,88	48,00
-11722,25	40,00
-11694,69	42,00
-11667,19	66,00
-11639,75	48,00
-11612,38	31,00
-11585,07	-17,00
-11557,83	76,00
-11530,65	12,00
-11503,53	65,00
-11476,47	81,00
-11449,48	110,00
-11422,54	28,00
-11395,67	45,00
-11368,86	132,00
-11342,11	127,00
-11315,43	33,00
-11288,80	184,00
-11262,23	110,00
-11235,73	35,00
-11209,28	-71,00
-11182,90	78,00
-11156,57	10,00
-11130,31	156,00
-11104,10	4,00
-11077,96	154,00
-11051,87	109,00
-11025,84	71,00
-10999,87	139,00
-10973,96	-38,00
-10948,11	153,00
-10922,31	24,00
-10896,58	185,00
-10870,90	122,00
-10845,28	-20,00
-10819,71	73,00
-10794,20	88,00
-10768,75	133,00
-10743,36	108,00
-10718,02	61,00
-10692,74	200,00
-10667,52	22,00
-10642,35	133,00
-10617,24	279,00
-10592,18	232,00
-10567,18	157,00
-10542,23	98,00
-10517,34	193,00
-10492,51	135,00
-10467,72	196,00
-10443,00	208,00
-10418,32	232,00
-10393,70	170,00
-10369,14	166,00
-10344,63	248,00
-10320,17	223,00
-10295,77	271,00
-10271,42	307,00
-10247,12	256,00
-10222,88	328,00
-10198,68	328,00
-10174,54	354,00
-10150,46	521,00
-10126,42	432,00
-10102,44	448,00
-10078,51	449,00
-10054,63	605,00
-10030,80	495,00
-10007,03	501,00
-9983,30	513,00
-9959,63	496,00
-9936,01	557,00
-9912,44	730,00
-9888,92	695,00
-9865,44	663,00
-9842,02	776,00
-9818,65	742,00
-9795,33	623,00
-9772,06	863,00
-9748,84	780,00
-9725,67	878,00
-9702,55	1085,00
-9679,47	1386,00
-9656,45	1383,00
-9633,47	1479,00
-9610,55	1378,00
-9587,67	1450,00
-9564,84	1655,00
-9542,06	1827,00
-9519,32	2195,00
-9496,64	2224,00
-9474,00	2336,00
-9451,41	2429,00
-9428,87	2461,00
-9406,37	2312,00
-9383,92	2210,00
-9361,52	2040,00
-9339,17	2018,00
-9316,86	2397,00
-9294,60	2638,00
-9272,38	2921,00
-9250,21	3037,00
-9228,09	3099,00
-9206,01	3006,00
-9183,98	2638,00
-9162,00	2393,00
-9140,06	2246,00
-9118,16	2332,00
-9096,31	2464,00
-9074,51	2506,00
-9052,75	2403,00
-9031,04	2334,00
-9009,37	2184,00
-8987,74	1809,00
-8966,16	1695,00
-8944,63	1472,00
-8923,14	1200,00
-8901,69	1509,00
-8880,29	1706,00
-8858,93	1972,00
-8837,61	2063,00
-8816,34	2231,00
-8795,11	2289,00
-8773,92	2168,00
-8752,78	1839,00
-8731,68	1698,00
-8710,62	1731,00
-8689,61	1819,00
-8668,63	2036,00
-8647,70	2209,00
-8626,82	2074,00
-8605,97	1916,00
-8585,17	1958,00
-8564,41	1735,00
-8543,69	1619,00
-8523,01	1465,00
-8502,37	1536,00
-8481,78	1564,00
-8461,23	1652,00
-8440,71	1859,00
-8420,24	1960,00
-8399,81	2027,00
-8379,42	2070,00
-8359,08	1818,00
-8338,77	1613,00
-8318,50	1543,00
-8298,27	1384,00
-8278,09	1628,00
-8257,94	1627,00
-8237,83	1793,00
-8217,76	1908,00
-8197,74	1906,00
-8177,75	1837,00
-8157,80	1515,00
-8137,89	1522,00
-8118,02	1594,00
-8098,19	1478,00
-8078,40	1508,00
-8058,65	1600,00
-8038,93	1714,00
-8019,26	1596,00
-7999,62	1495,00
-7980,02	1531,00
-7960,46	1438,00
-7940,94	1437,00
-7921,46	1379,00
-7902,01	1431,00
-7882,60	1304,00
-7863,23	1429,00
-7843,90	1575,00
-7824,61	1601,00
-7805,35	1474,00
-7786,13	1560,00
-7766,95	1579,00
-7747,80	1427,00
-7728,69	1459,00
-7709,62	1381,00
-7690,59	1511,00
-7671,59	1605,00
-7652,63	1688,00
-7633,70	1704,00
-7614,81	1744,00
-7595,96	1436,00
-7577,15	1360,00
-7558,37	1239,00
-7539,62	1377,00
-7520,91	1483,00
-7502,24	1557,00
-7483,60	1576,00
-7465,00	1399,00
-7446,44	1345,00
-7427,91	1252,00
-7409,41	1069,00
-7390,95	845,00
-7372,53	1080,00
-7354,14	1082,00
-7335,78	1028,00
-7317,46	1134,00
-7299,18	1265,00
-7280,92	1445,00
-7262,71	1462,00
-7244,52	1660,00
-7226,38	1653,00
-7208,26	1540,00
-7190,18	1500,00
-7172,14	1284,00
-7154,12	1378,00
-7136,15	1504,00
-7118,20	1602,00
-7100,29	1658,00
-7082,41	1514,00
-7064,57	1474,00
-7046,76	1416,00
-7028,98	1211,00
-7011,24	1022,00
-6993,53	856,00
-6975,85	841,00
-6958,20	683,00
-6940,59	795,00
-6923,01	690,00
-6905,46	912,00
-6887,94	1090,00
-6870,46	1219,00
-6853,01	1409,00
-6835,59	1512,00
-6818,21	1305,00
-6800,85	1014,00
-6783,53	876,00
-6766,24	678,00
-6748,98	736,00
-6731,76	552,00
-6714,56	640,00
-6697,40	566,00
-6680,26	683,00
-6663,16	901,00
-6646,09	792,00
-6629,05	970,00
-6612,05	1032,00
-6595,07	1009,00
-6578,13	1028,00
-6561,21	902,00
-6544,33	555,00
-6527,47	503,00
-6510,65	430,00
-6493,86	460,00
-6477,10	512,00
-6460,36	443,00
-6443,66	543,00
-6426,99	267,00
-6410,35	524,00
-6393,74	562,00
-6377,16	691,00
-6360,61	730,00
-6344,09	762,00
-6327,59	843,00
-6311,13	740,00
-6294,70	850,00
-6278,29	828,00
-6261,92	874,00
-6245,58	1089,00
-6229,26	1221,00
-6212,97	981,00
-6196,72	728,00
-6180,49	617,00
-6164,29	394,00
-6148,12	384,00
-6131,98	230,00
-6115,86	214,00
-6099,78	407,00
-6083,72	202,00
-6067,69	319,00
-6051,69	232,00
-6035,72	261,00
-6019,78	380,00
-6003,87	565,00
-5987,98	745,00
-5972,12	745,00
-5956,29	872,00
-5940,49	613,00
-5924,71	477,00
-5908,96	343,00
-5893,24	268,00
-5877,55	322,00
-5861,89	303,00
-5846,25	349,00
-5830,64	392,00
-5815,05	412,00
-5799,50	257,00
-5783,97	328,00
-5768,47	424,00
-5752,99	450,00
-5737,55	824,00
-5722,12	766,00
-5706,73	774,00
-5691,36	505,00
-5676,02	450,00
-5660,71	364,00
-5645,42	199,00
-5630,16	359,00
-5614,92	360,00
-5599,71	454,00
-5584,53	472,00
-5569,37	545,00
-5554,24	1471,00
-5539,14	464,00
-5524,06	329,00
-5509,01	462,00
-5493,98	499,00
-5478,98	439,00
-5464,00	457,00
-5449,05	452,00
-5434,13	379,00
-5419,23	324,00
-5404,36	212,00
-5389,51	407,00
-5374,69	605,00
-5359,89	790,00
-5345,12	816,00
-5330,37	740,00
-5315,65	571,00
-5300,95	555,00
-5286,28	446,00
-5271,63	391,00
-5257,01	539,00
-5242,41	502,00
-5227,84	531,00
-5213,29	395,00
-5198,76	122,00
-5184,26	223,00
-5169,79	263,00
-5155,33	377,00
-5140,91	375,00
-5126,51	573,00
-5112,13	479,00
-5097,77	447,00
-5083,44	422,00
-5069,13	180,00
-5054,85	291,00
-5040,59	302,00
-5026,36	311,00
-5012,15	521,00
-4997,96	422,00
-4983,80	415,00
-4969,66	209,00
-4955,54	318,00
-4941,44	314,00
-4927,37	573,00
-4913,33	793,00
-4899,30	740,00
-4885,30	701,00
-4871,33	436,00
-4857,37	277,00
-4843,44	102,00
-4829,53	243,00
-4815,65	478,00
-4801,79	316,00
-4787,95	177,00
-4774,13	400,00
-4760,34	214,00
-4746,56	88,00
-4732,82	289,00
-4719,09	346,00
-4705,38	570,00
-4691,70	822,00
-4678,04	708,00
-4664,41	545,00
-4650,79	382,00
-4637,20	308,00
-4623,63	203,00
-4610,08	349,00
-4596,56	510,00
-4583,05	385,00
-4569,57	412,00
-4556,11	66,00
-4542,67	79,00
-4529,25	138,00
-4515,86	371,00
-4502,49	625,00
-4489,13	613,00
-4475,80	488,00
-4462,49	412,00
-4449,21	164,00
-4435,94	273,00
-4422,70	347,00
-4409,47	299,00
-4396,27	388,00
-4383,09	254,00
-4369,93	158,00
-4356,79	73,00
-4343,67	222,00
-4330,58	267,00
-4317,50	249,00
-4304,45	345,00
-4291,41	110,00
-4278,40	271,00
-4265,41	61,00
-4252,44	280,00
-4239,49	365,00
-4226,55	371,00
-4213,65	222,00
-4200,76	217,00
-4187,89	110,00
-4175,04	80,00
-4162,21	167,00
-4149,40	45,00
-4136,61	-26,00
-4123,85	54,00
-4111,10	103,00
-4098,37	167,00
-4085,66	175,00
-4072,98	40,00
-4060,31	107,00
-4047,66	230,00
-4035,04	145,00
-4022,43	-55,00
-4009,84	64,00
-3997,27	101,00
-3984,72	75,00
-3972,19	113,00
-3959,69	59,00
-3947,20	-9,00
-3934,73	-8,00
-3922,27	83,00
-3909,84	-16,00
-3897,43	-15,00
-3885,04	-24,00
-3872,67	85,00
-3860,31	182,00
-3847,98	-10,00
-3835,66	35,00
-3823,36	-16,00
-3811,09	54,00
-3798,83	37,00
-3786,59	19,00
-3774,37	48,00
-3762,17	102,00
-3749,98	50,00
-3737,82	88,00
-3725,67	155,00
-3713,55	-65,00
-3701,44	112,00
-3689,35	179,00
-3677,28	8,00
-3665,22	42,00
-3653,19	-10,00
-3641,17	15,00
-3629,18	211,00
-3617,20	-10,00
-3605,24	-124,00
-3593,30	81,00
-3581,37	80,00
-3569,47	123,00
-3557,58	57,00
-3545,71	140,00
-3533,86	-53,00
-3522,02	1,00
-3510,21	111,00
-3498,41	191,00
-3486,63	74,00
-3474,87	44,00
-3463,12	18,00
-3451,40	62,00
-3439,69	88,00
-3428,00	78,00
-3416,33	64,00
-3404,67	-12,00
-3393,03	7,00
-3381,41	67,00
-3369,81	-23,00
-3358,22	205,00
-3346,66	-59,00
-3335,10	-24,00
-3323,57	89,00
-3312,06	120,00
-3300,56	98,00
-3289,08	-78,00
-3277,61	19,00
-3266,16	-25,00
-3254,73	15,00
-3243,32	138,00
-3231,92	-60,00
-3220,55	42,00
-3209,18	-6,00
-3197,84	109,00
-3186,51	-2,00
-3175,20	52,00
-3163,90	218,00
-3152,63	-2,00
-3141,36	-35,00
-3130,12	21,00
-3118,89	-26,00
-3107,68	70,00
-3096,49	12,00
-3085,31	131,00
-3074,15	80,00
-3063,00	78,00
-3051,87	25,00
-3040,76	6,00
-3029,67	88,00
-3018,59	101,00
-3007,52	140,00
-2996,48	-29,00
-2985,44	133,00
-2974,43	226,00
-2963,43	63,00
-2952,45	119,00
-2941,48	29,00
-2930,53	101,00
-2919,60	-62,00
-2908,68	67,00
-2897,78	83,00
-2886,89	-13,00
-2876,02	2,00
-2865,17	-44,00
-2854,33	15,00
-2843,50	28,00
-2832,70	136,00
-2821,90	0,00
-2811,13	-78,00
-2800,37	11,00
-2789,62	8,00
-2778,89	119,00
-2768,18	124,00
-2757,48	129,00
-2746,80	80,00
-2736,13	55,00
-2725,48	56,00
-2714,84	-11,00
-2704,22	32,00
-2693,61	65,00
-2683,02	108,00
-2672,45	-39,00
-2661,89	53,00
-2651,34	18,00
-2640,81	43,00
-2630,30	113,00
-2619,80	-5,00
-2609,31	-59,00
-2598,84	-56,00
-2588,39	87,00
-2577,95	15,00
-2567,52	104,00
-2557,11	9,00
-2546,71	47,00
-2536,33	-5,00
-2525,97	-17,00
-2515,62	139,00
-2505,28	-117,00
-2494,96	177,00
-2484,65	-128,00
-2474,36	0,00
-2464,08	114,00
-2453,82	112,00
-2443,57	0,00
-2433,33	-3,00
-2423,11	102,00
-2412,91	-46,00
-2402,72	-30,00
-2392,54	103,00
-2382,38	60,00
-2372,23	65,00
-2362,09	9,00
-2351,97	28,00
-2341,87	-7,00
-2331,78	21,00
-2321,70	214,00
-2311,64	55,00
-2301,59	67,00
-2291,55	136,00
-2281,53	22,00
-2271,53	134,00
-2261,53	48,00
-2251,55	23,00
-2241,59	42,00
-2231,64	34,00
-2221,70	28,00
-2211,78	62,00
-2201,87	134,00
-2191,97	123,00
-2182,09	-31,00
-2172,22	178,00
-2162,37	95,00
-2152,53	0,00
-2142,70	124,00
-2132,89	101,00
-2123,09	30,00
-2113,30	89,00
-2103,53	-24,00
-2093,77	50,00
-2084,02	-16,00
-2074,29	90,00
-2064,57	-28,00
-2054,86	23,00
-2045,17	35,00
-2035,49	34,00
-2025,82	138,00
-2016,17	-30,00
-2006,53	96,00
-1996,91	10,00
-1987,29	-13,00
-1977,69	154,00
-1968,11	43,00
-1958,53	132,00
-1948,97	57,00
-1939,42	117,00
-1929,89	-89,00
-1920,37	103,00
-1910,86	23,00
-1901,36	129,00
-1891,88	18,00
-1882,41	-40,00
-1872,95	153,00
-1863,51	-99,00
-1854,08	22,00
-1844,66	110,00
-1835,26	61,00
-1825,86	67,00
-1816,48	64,00
-1807,11	-46,00
-1797,76	78,00
-1788,42	153,00
-1779,09	34,00
-1769,77	-26,00
-1760,47	-86,00
-1751,17	-6,00
-1741,89	50,00
-1732,63	6,00
-1723,37	-90,00
-1714,13	23,00
-1704,90	20,00
-1695,68	129,00
-1686,48	34,00
-1677,29	10,00
-1668,11	145,00
-1658,94	-12,00
-1649,78	6,00
-1640,64	121,00
-1631,51	62,00
-1622,39	-29,00
-1613,28	78,00
-1604,19	6,00
-1595,10	59,00
-1586,03	58,00
-1576,97	-4,00
-1567,93	62,00
-1558,89	-53,00
-1549,87	141,00
-1540,86	66,00
-1531,86	7,00
-1522,87	-56,00
-1513,90	24,00
-1504,93	172,00
-1495,98	-94,00
-1487,04	36,00
-1478,12	52,00
-1469,20	76,00
-1460,30	114,00
-1451,40	220,00
-1442,52	59,00
-1433,65	6,00
-1424,80	131,00
-1415,95	180,00
-1407,12	80,00
-1398,30	4,00
-1389,48	116,00
-1380,69	118,00
-1371,90	18,00
-1363,12	67,00
-1354,36	125,00
-1345,60	172,00
-1336,86	101,00
-1328,13	93,00
-1319,41	-14,00
-1310,70	95,00
-1302,01	62,00
-1293,32	120,00
-1284,65	128,00
-1275,99	140,00
-1267,33	-8,00
-1258,69	33,00
-1250,06	66,00
-1241,45	107,00
-1232,84	76,00
-1224,25	11,00
-1215,66	-8,00
-1207,09	18,00
-1198,53	-130,00
-1189,97	41,00
-1181,43	47,00
-1172,91	16,00
-1164,39	92,00
-1155,88	0,00
-1147,38	6,00
-1138,90	100,00
-1130,43	-20,00
-1121,96	32,00
-1113,51	-37,00
-1105,07	24,00
-1096,64	50,00
-1088,22	118,00
-1079,81	101,00
-1071,41	104,00
-1063,02	-34,00
-1054,65	105,00
-1046,28	80,00
-1037,92	5,00
-1029,58	32,00
-1021,24	65,00
-1012,92	172,00
-1004,61	26,00
-996,30	90,00
-988,01	52,00
-979,73	224,00
-971,46	-37,00
-963,20	36,00
-954,95	74,00
-946,71	43,00
-938,48	16,00
-930,26	-79,00
-922,06	76,00
-913,86	82,00
-905,67	101,00
-897,49	19,00
-889,33	156,00
-881,17	180,00
-873,02	148,00
-864,89	-36,00
-856,76	9,00
-848,65	56,00
-840,54	-69,00
-832,45	33,00
-824,36	75,00
-816,29	-1,00
-808,22	-49,00
-800,17	48,00
-792,12	75,00
-784,09	82,00
-776,06	31,00
-768,05	-5,00
-760,04	125,00
-752,05	22,00
-744,07	81,00
-736,09	138,00
-728,13	136,00
-720,17	147,00
-712,23	14,00
-704,29	9,00
-696,37	-12,00
-688,45	65,00
-680,55	-29,00
-672,65	142,00
-664,77	-23,00
-656,89	75,00
-649,03	86,00
-641,17	-26,00
-633,32	89,00
-625,49	100,00
-617,66	27,00
-609,84	-36,00
-602,03	23,00
-594,23	167,00
-586,45	31,00
-578,67	93,00
-570,90	28,00
-563,14	159,00
-555,39	80,00
-547,65	-13,00
-539,91	78,00
-532,19	166,00
-524,48	40,00
-516,78	13,00
-509,08	85,00
-501,40	12,00
-493,72	-6,00
-486,06	-60,00
-478,40	110,00
-470,76	61,00
-463,12	-14,00
-455,49	215,00
-447,87	92,00
-440,26	119,00
-432,66	67,00
-425,07	21,00
-417,49	66,00
-409,92	85,00
-402,35	-10,00
-394,80	79,00
-387,25	87,00
-379,72	51,00
-372,19	203,00
-364,67	261,00
-357,17	0,00
-349,67	68,00
-342,18	156,00
-334,69	95,00
-327,22	126,00
-319,76	-4,00
-312,30	33,00
-304,86	109,00
-297,42	91,00
-290,00	197,00
-282,58	57,00
-275,17	48,00
-267,77	185,00
-260,37	84,00
-252,99	101,00
-245,62	88,00
-238,25	205,00
-230,90	120,00
-223,55	208,00
-216,21	193,00
-208,88	177,00
-201,56	152,00
-194,25	231,00
-186,94	196,00
-179,65	234,00
-172,36	240,00
-165,08	224,00
-157,81	331,00
-150,55	210,00
-143,30	263,00
-136,06	244,00
-128,82	195,00
-121,60	395,00
-114,38	246,00
-107,17	297,00
-99,97	457,00
-92,78	505,00
-85,60	471,00
-78,42	578,00
-71,25	761,00
-64,10	863,00
-56,95	1147,00
-49,81	1194,00
-42,67	1561,00
-35,55	2029,00
-28,43	2701,00
-21,33	4727,00
-14,23	15735,00
-7,14	47266,00
-0,05	38051,00
7,02	42597,00
14,09	41769,00
21,14	11031,00
28,19	4821,00
35,23	3149,00
42,27	2317,00
49,29	2146,00
56,31	1669,00
63,32	1318,00
70,32	1157,00
77,31	982,00
84,29	885,00
91,27	706,00
98,23	658,00
105,19	624,00
112,14	756,00
119,09	1009,00
126,02	1451,00
132,95	1679,00
139,87	1700,00
146,78	1654,00
153,68	1495,00
160,58	1475,00
167,46	1547,00
174,34	1472,00
181,21	1382,00
188,08	1408,00
194,93	1537,00
201,78	1548,00
208,62	1403,00
215,45	1498,00
222,27	1493,00
229,09	1410,00
235,90	1557,00
242,70	1363,00
249,49	1317,00
256,27	1375,00
263,05	1363,00
269,82	1212,00
276,58	1215,00
283,33	1232,00
290,08	1407,00
296,82	1287,00
303,55	1138,00
310,27	1289,00
316,98	1176,00
323,69	1268,00
330,39	1275,00
337,08	1196,00
343,76	1110,00
350,44	1160,00
357,11	1131,00
363,77	1191,00
370,42	1189,00
377,07	1144,00
383,71	1105,00
390,34	1116,00
396,96	1060,00
403,58	1010,00
410,19	1071,00
416,79	990,00
423,38	1109,00
429,97	1050,00
436,55	1137,00
443,12	1126,00
449,68	1072,00
456,24	988,00
462,79	987,00
469,33	960,00
475,86	952,00
482,39	954,00
488,91	997,00
495,42	984,00
501,93	1005,00
508,42	1036,00
514,91	1111,00
521,40	1034,00
527,87	967,00
534,34	837,00
540,80	973,00
547,25	868,00
553,70	1021,00
560,14	855,00
566,57	901,00
573,00	881,00
579,41	851,00
585,83	946,00
592,23	968,00
598,62	860,00
605,01	805,00
611,40	1021,00
617,77	975,00
624,14	965,00
630,50	985,00
636,85	840,00
643,20	873,00
649,54	911,00
655,87	963,00
662,20	872,00
668,52	886,00
674,83	784,00
681,13	906,00
687,43	865,00
693,72	798,00
700,00	767,00
706,28	902,00
712,55	841,00
718,81	932,00
725,07	894,00
731,32	791,00
737,56	993,00
743,79	928,00
750,02	973,00
756,24	823,00
762,46	742,00
768,67	942,00
774,87	877,00
781,06	867,00
787,25	811,00
793,43	877,00
799,60	892,00
805,77	906,00
811,93	795,00
818,08	948,00
824,23	957,00
830,37	854,00
836,50	889,00
842,63	839,00
848,75	820,00
854,87	803,00
860,97	909,00
867,07	1031,00
873,17	969,00
879,25	733,00
885,33	932,00
891,41	752,00
897,47	763,00
903,53	778,00
909,59	737,00
915,63	977,00
921,67	819,00
927,71	731,00
933,74	812,00
939,76	811,00
945,77	770,00
951,78	913,00
957,78	945,00
963,78	727,00
969,77	676,00
975,75	764,00
981,72	733,00
987,69	944,00
993,66	881,00
999,61	807,00
1005,56	845,00
1011,51	782,00
1017,44	823,00
1023,37	754,00
1029,30	807,00
1035,22	758,00
1041,13	940,00
1047,03	960,00
1052,93	1200,00
1058,83	1676,00
1064,71	1790,00
1070,59	1315,00
1076,47	1065,00
1082,33	1053,00
1088,20	1028,00
1094,05	983,00
1099,90	835,00
1105,74	876,00
1111,58	903,00
1117,41	1060,00
1123,23	1408,00
1129,05	1816,00
1134,86	1558,00
1140,67	1201,00
1146,47	987,00
1152,26	975,00
1158,05	858,00
1163,83	915,00
1169,60	1006,00
1175,37	908,00
1181,13	765,00
1186,89	798,00
1192,64	774,00
1198,38	855,00
1204,12	782,00
1209,85	743,00
1215,58	924,00
1221,30	784,00
1227,02	860,00
1232,72	725,00
1238,43	722,00
1244,12	835,00
1249,81	788,00
1255,50	892,00
1261,17	993,00
1266,85	971,00
1272,51	978,00
1278,17	1036,00
1283,83	1163,00
1289,47	1740,00
1295,12	2220,00
1300,75	2007,00
1306,38	1515,00
1312,01	1337,00
1317,63	1016,00
1323,24	1130,00
1328,85	1044,00
1334,45	948,00
1340,04	901,00
1345,63	936,00
1351,22	955,00
1356,80	960,00
1362,37	1092,00
1367,93	1153,00
1373,49	1014,00
1379,05	1033,00
1384,60	970,00
1390,14	1056,00
1395,68	992,00
1401,21	1049,00
1406,74	1088,00
1412,26	1464,00
1417,77	1411,00
1423,28	1582,00
1428,78	1658,00
1434,28	1917,00
1439,77	2368,00
1445,26	2225,00
1450,74	2080,00
1456,22	1866,00
1461,68	1736,00
1467,15	1595,00
1472,61	1379,00
1478,06	1348,00
1483,51	1061,00
1488,95	1111,00
1494,38	842,00
1499,81	829,00
1505,24	832,00
1510,65	847,00
1516,07	888,00
1521,48	856,00
1526,88	832,00
1532,27	840,00
1537,67	837,00
1543,05	801,00
1548,43	669,00
1553,81	744,00
1559,18	878,00
1564,54	739,00
1569,90	743,00
1575,25	635,00
1580,60	875,00
1585,94	701,00
1591,28	733,00
1596,61	753,00
1601,93	741,00
1607,25	648,00
1612,57	670,00
1617,88	753,00
1623,18	779,00
1628,48	728,00
1633,77	742,00
1639,06	672,00
1644,34	772,00
1649,62	617,00
1654,89	589,00
1660,16	661,00
1665,42	623,00
1670,67	696,00
1675,92	636,00
1681,17	635,00
1686,41	616,00
1691,64	739,00
1696,87	613,00
1702,10	598,00
1707,32	550,00
1712,53	684,00
1717,74	764,00
1722,94	565,00
1728,14	707,00
1733,33	569,00
1738,52	732,00
1743,70	663,00
1748,88	637,00
1754,05	617,00
1759,22	662,00
1764,38	562,00
1769,53	583,00
1774,69	668,00
1779,83	692,00
1784,97	606,00
1790,11	596,00
1795,24	604,00
1800,36	711,00
1805,48	626,00
1810,60	530,00
1815,71	553,00
1820,82	691,00
1825,92	548,00
1831,01	555,00
1836,10	560,00
1841,19	634,00
1846,26	568,00
1851,34	602,00
1856,41	543,00
1861,47	703,00
1866,53	428,00
1871,59	562,00
1876,64	696,00
1881,68	598,00
1886,72	509,00
1891,76	464,00
1896,79	671,00
1901,81	544,00
1906,83	576,00
1911,85	465,00
1916,86	560,00
1921,86	553,00
1926,86	522,00
1931,86	667,00
1936,85	560,00
1941,83	558,00
1946,81	588,00
1951,79	590,00
1956,76	477,00
1961,72	576,00
1966,68	473,00
1971,64	686,00
1976,59	546,00
1981,54	474,00
1986,48	373,00
1991,42	543,00
1996,35	574,00
2001,27	433,00
2006,20	556,00
2011,11	531,00
2016,03	581,00
2020,93	615,00
2025,84	440,00
2030,73	586,00
2035,63	478,00
2040,52	513,00
2045,40	472,00
2050,28	470,00
2055,15	434,00
2060,02	519,00
2064,89	491,00
2069,75	519,00
2074,60	478,00
2079,46	435,00
2084,30	545,00
2089,14	582,00
2093,98	572,00
2098,81	517,00
2103,64	403,00
2108,46	452,00
2113,28	479,00
2118,09	402,00
2122,90	516,00
2127,70	596,00
2132,50	505,00
2137,30	400,00
2142,09	510,00
2146,87	478,00
2151,66	508,00
2156,43	585,00
2161,20	483,00
2165,97	471,00
2170,73	514,00
2175,49	523,00
2180,24	456,00
2184,99	387,00
2189,74	526,00
2194,48	490,00
2199,21	409,00
2203,94	472,00
2208,67	536,00
2213,39	336,00
2218,11	405,00
2222,82	368,00
2227,53	520,00
2232,23	431,00
2236,93	445,00
2241,63	386,00
2246,32	388,00
2251,00	492,00
2255,68	468,00
2260,36	454,00
2265,03	402,00
2269,70	383,00
2274,36	516,00
2279,02	400,00
2283,68	468,00
2288,33	415,00
2292,97	372,00
2297,61	433,00
2302,25	388,00
2306,88	481,00
2311,51	504,00
2316,14	399,00
2320,75	518,00
2325,37	361,00
2329,98	407,00
2334,59	413,00
2339,19	410,00
2343,79	380,00
2348,38	440,00
2352,97	322,00
2357,55	606,00
2362,13	379,00
2366,71	421,00
2371,28	332,00
2375,85	480,00
2380,41	425,00
2384,97	450,00
2389,52	228,00
2394,07	359,00
2398,62	262,00
2403,16	444,00
2407,70	321,00
2412,23	367,00
2416,76	483,00
2421,29	214,00
2425,81	486,00
2430,32	406,00
2434,84	269,00
2439,34	444,00
2443,85	222,00
2448,35	491,00
2452,84	318,00
2457,33	310,00
2461,82	327,00
2466,30	243,00
2470,78	391,00
2475,25	313,00
2479,72	390,00
2484,19	380,00
2488,65	365,00
2493,11	330,00
2497,56	284,00
2502,01	341,00
2506,46	374,00
2510,90	377,00
2515,34	170,00
2519,77	384,00
2524,20	313,00
2528,62	353,00
2533,04	474,00
2537,46	352,00
2541,87	316,00
2546,28	337,00
2550,68	297,00
2555,08	346,00
2559,48	422,00
2563,87	313,00
2568,26	301,00
2572,64	158,00
2577,02	304,00
2581,40	361,00
2585,77	372,00
2590,14	337,00
2594,50	374,00
2598,86	415,00
2603,22	351,00
2607,57	284,00
2611,92	397,00
2616,26	414,00
2620,60	398,00
2624,94	291,00
2629,27	384,00
2633,60	446,00
2637,92	226,00
2642,24	469,00
2646,56	374,00
2650,87	429,00
2655,18	432,00
2659,48	354,00
2663,78	378,00
2668,08	484,00
2672,37	536,00
2676,66	310,00
2680,95	408,00
2685,23	373,00
2689,50	473,00
2693,78	268,00
2698,05	521,00
2702,31	516,00
2706,57	391,00
2710,83	465,00
2715,08	455,00
2719,33	558,00
2723,58	491,00
2727,82	454,00
2732,06	557,00
2736,29	417,00
2740,53	513,00
2744,75	424,00
2748,97	389,00
2753,19	536,00
2757,41	412,00
2761,62	387,00
2765,83	334,00
2770,03	381,00
2774,23	451,00
2778,43	464,00
2782,62	615,00
2786,81	378,00
2791,00	523,00
2795,18	557,00
2799,35	404,00
2803,53	451,00
2807,70	577,00
2811,86	562,00
2816,03	603,00
2820,19	668,00
2824,34	732,00
2828,49	806,00
2832,64	955,00
2836,78	1108,00
2840,92	1571,00
2845,06	1698,00
2849,19	1947,00
2853,32	2259,00
2857,45	2069,00
2861,57	2087,00
2865,69	1802,00
2869,80	1860,00
2873,91	1938,00
2878,02	2025,00
2882,12	2184,00
2886,22	2268,00
2890,32	2004,00
2894,41	1851,00
2898,50	1794,00
2902,58	1639,00
2906,67	1546,00
2910,74	1361,00
2914,82	1347,00
2918,89	1215,00
2922,96	1107,00
2927,02	1045,00
2931,08	1055,00
2935,13	946,00
2939,19	828,00
2943,24	785,00
2947,28	539,00
2951,32	655,00
2955,36	513,00
2959,40	474,00
2963,43	415,00
2967,46	447,00
2971,48	347,00
2975,50	467,00
2979,52	390,00
2983,53	288,00
2987,54	229,00
2991,55	332,00
2995,55	328,00
2999,55	333,00
3003,54	297,00
3007,54	220,00
3011,53	251,00
3015,51	242,00
3019,49	166,00
3023,47	256,00
3027,45	292,00
3031,42	248,00
3035,39	266,00
3039,35	158,00
3043,31	234,00
3047,27	200,00
3051,22	224,00
3055,17	271,00
3059,12	144,00
3063,06	242,00
3067,00	194,00
3070,94	306,00
3074,87	238,00
3078,80	236,00
3082,73	310,00
3086,65	25,00
3090,57	206,00
3094,49	207,00
3098,40	225,00
3102,31	146,00
3106,22	257,00
3110,12	334,00
3114,02	171,00
3117,92	191,00
3121,81	169,00
3125,70	219,00
3129,58	216,00
3133,47	95,00
3137,34	186,00
3141,22	234,00
3145,09	292,00
3148,96	178,00
3152,83	163,00
3156,69	173,00
3160,55	128,00
3164,40	273,00
3168,26	127,00
3172,10	303,00
3175,95	125,00
3179,79	112,00
3183,63	16,00
3187,47	269,00
3191,30	160,00
3195,13	131,00
3198,95	13,00
3202,78	236,00
3206,60	99,00
3210,41	184,00
3214,23	50,00
3218,03	221,00
3221,84	-16,00
3225,64	103,00
3229,44	102,00
3233,24	93,00
3237,03	201,00
3240,82	150,00
3244,61	90,00
3248,39	60,00
3252,17	137,00
3255,95	140,00
3259,72	197,00
3263,49	85,00
3267,26	177,00
3271,03	147,00
3274,79	96,00
3278,54	168,00
3282,30	223,00
3286,05	99,00
3289,80	7,00
3293,54	227,00
3297,29	116,00
3301,02	247,00
3304,76	17,00
3308,49	100,00
3312,22	83,00
3315,95	43,00
3319,67	234,00
3323,39	182,00
3327,10	112,00
3330,82	161,00
3334,53	211,00
3338,24	120,00
3341,94	106,00
3345,64	140,00
3349,34	159,00
3353,03	23,00
3356,72	259,00
3360,41	114,00
3364,10	248,00
3367,78	5,00
3371,46	161,00
3375,13	87,00
3378,81	164,00
3382,48	142,00
3386,14	-17,00
3389,81	97,00
3393,47	137,00
3397,12	78,00
3400,78	1,00
3404,43	161,00
3408,08	115,00
3411,72	25,00
3415,36	120,00
3419,00	203,00
3422,64	186,00
3426,27	120,00
3429,90	146,00
3433,53	78,00
3437,15	76,00
3440,77	227,00
3444,39	138,00
3448,00	-29,00
3451,62	101,00
3455,22	56,00
3458,83	38,00
3462,43	71,00
3466,03	-20,00
3469,63	198,00
3473,22	67,00
3476,81	131,00
3480,40	-29,00
3483,99	4,00
3487,57	70,00
3491,15	132,00
3494,72	50,00
3498,29	93,00
3501,86	110,00
3505,43	-12,00
3508,99	71,00
3512,56	173,00
3516,11	172,00
3519,67	4,00
3523,22	92,00
3526,77	-38,00
3530,32	190,00
3533,86	6,00
3537,40	29,00
3540,94	122,00
3544,47	85,00
3548,00	112,00
3551,53	-23,00
3555,06	-8,00
3558,58	26,00
3562,10	179,00
3565,62	192,00
3569,13	53,00
3572,64	43,00
3576,15	99,00
3579,66	-39,00
3583,16	-72,00
3586,66	-72,00
3590,16	14,00
3593,65	51,00
3597,14	69,00
3600,63	49,00
3604,11	93,00
3607,60	77,00
3611,08	199,00
3614,55	14,00
3618,03	98,00
3621,50	83,00
3624,97	107,00
3628,43	72,00
3631,90	65,00
3635,36	91,00
3638,81	54,00
3642,27	48,00
3645,72	124,00
3649,17	12,00
3652,61	-38,00
3656,06	12,00
3659,50	-16,00
3662,93	14,00
3666,37	137,00
3669,80	82,00
3673,23	191,00
3676,65	0,00
3680,08	41,00
3683,50	-5,00
3686,92	19,00
3690,33	36,00
3693,74	-34,00
3697,15	113,00
3700,56	-39,00
3703,96	23,00
3707,36	-63,00
3710,76	-120,00
3714,16	64,00
3717,55	41,00
3720,94	100,00
3724,33	50,00
3727,71	19,00
3731,10	61,00
3734,48	118,00
3737,85	99,00
3741,23	71,00
3744,60	80,00
3747,97	70,00
3751,33	73,00
3754,69	46,00
3758,05	162,00
3761,41	-35,00
3764,77	98,00
3768,12	81,00
3771,47	172,00
3774,82	62,00
3778,16	-3,00
3781,50	0,00
3784,84	3,00
3788,18	4,00
>>>>>End Processed Spectral Data<<<<<
