SpectraSuite Data File
++++++++++++++++++++++++++++++++++++
Date: Tue Mar 03 12:29:22 ICT 2026
User: user
Dark Spectrum Present: Yes
Reference Spectrum Present: No
Number of Sampled Component Spectra: 1
Spectrometers: MAYP113682
Integration Time (usec): 3000000 (MAYP113682)
Spectra Averaged: 1 (MAYP113682)
Boxcar Smoothing: 0 (MAYP113682)
Correct for Electrical Dark: No (MAYP113682)
Strobe/Lamp Enabled: No (MAYP113682)
Correct for Detector Non-linearity: No (MAYP113682)
Correct for Stray Light: No (MAYP113682)
Number of Pixels in Processed Spectrum: 2068
>>>>>Begin Processed Spectral Data<<<<<
-37534,58	5,00
-37414,56	2,00
-37295,11	-1,00
-37176,24	3,00
-37057,95	13,00
-36940,22	-43,00
-36823,05	45,00
-36706,45	50,00
-36590,40	116,00
-36474,90	71,00
-36359,95	136,00
-36245,55	136,00
-36131,68	28,00
-36018,35	65,00
-35905,55	73,00
-35793,29	138,00
-35681,54	32,00
-35570,32	-112,00
-35459,62	15,00
-35349,43	50,00
-35239,75	93,00
-35130,58	36,00
-35021,91	-4,00
-34913,74	154,00
-34806,07	119,00
-34698,89	93,00
-34592,20	-12,00
-34486,00	-48,00
-34380,28	-4,00
-34275,04	-7,00
-34170,27	-20,00
-34065,98	-33,00
-33962,16	76,00
-33858,81	162,00
-33755,92	52,00
-33653,49	36,00
-33551,52	33,00
-33450,01	10,00
-33348,94	68,00
-33248,33	50,00
-33148,16	-4,00
-33048,43	34,00
-32949,14	-6,00
-32850,29	42,00
-32751,87	36,00
-32653,89	125,00
-32556,33	-27,00
-32459,20	-41,00
-32362,49	8,00
-32266,19	-8,00
-32170,32	92,00
-32074,86	-81,00
-31979,82	10,00
-31885,18	-80,00
-31790,95	-40,00
-31697,12	145,00
-31603,69	-60,00
-31510,67	20,00
-31418,04	87,00
-31325,80	54,00
-31233,95	92,00
-31142,49	90,00
-31051,42	64,00
-30960,73	84,00
-30870,43	100,00
-30780,50	47,00
-30690,95	64,00
-30601,77	59,00
-30512,97	-22,00
-30424,53	132,00
-30336,46	97,00
-30248,76	108,00
-30161,42	79,00
-30074,44	124,00
-29987,81	98,00
-29901,55	69,00
-29815,63	-89,00
-29730,07	-9,00
-29644,86	146,00
-29560,00	190,00
-29475,48	3,00
-29391,30	18,00
-29307,47	115,00
-29223,97	58,00
-29140,81	-34,00
-29057,99	43,00
-28975,50	128,00
-28893,34	4,00
-28811,51	-59,00
-28730,00	73,00
-28648,82	59,00
-28567,97	-4,00
-28487,43	20,00
-28407,21	-134,00
-28327,32	-38,00
-28247,73	-19,00
-28168,46	53,00
-28089,50	105,00
-28010,85	-9,00
-27932,51	28,00
-27854,48	2,00
-27776,75	3,00
-27699,32	91,00
-27622,19	105,00
-27545,37	127,00
-27468,84	-48,00
-27392,60	30,00
-27316,66	68,00
-27241,01	48,00
-27165,66	35,00
-27090,59	-29,00
-27015,81	198,00
-26941,31	49,00
-26867,10	76,00
-26793,17	-17,00
-26719,52	69,00
-26646,15	36,00
-26573,06	118,00
-26500,24	53,00
-26427,70	55,00
-26355,43	-9,00
-26283,43	-15,00
-26211,71	111,00
-26140,25	2,00
-26069,06	148,00
-25998,13	-87,00
-25927,46	45,00
-25857,06	119,00
-25786,92	75,00
-25717,04	-63,00
-25647,42	-84,00
-25578,05	51,00
-25508,94	-108,00
-25440,09	41,00
-25371,48	75,00
-25303,13	71,00
-25235,02	54,00
-25167,17	91,00
-25099,56	42,00
-25032,19	123,00
-24965,07	-25,00
-24898,20	55,00
-24831,56	39,00
-24765,17	-28,00
-24699,01	8,00
-24633,10	70,00
-24567,41	-60,00
-24501,97	75,00
-24436,75	-34,00
-24371,77	-29,00
-24307,03	-45,00
-24242,51	53,00
-24178,22	10,00
-24114,16	-40,00
-24050,32	-19,00
-23986,71	-20,00
-23923,32	-1,00
-23860,16	10,00
-23797,22	77,00
-23734,50	-16,00
-23672,00	36,00
-23609,71	176,00
-23547,65	-54,00
-23485,80	30,00
-23424,16	25,00
-23362,74	108,00
-23301,53	-48,00
-23240,54	-97,00
-23179,75	42,00
-23119,17	-26,00
-23058,80	182,00
-22998,64	4,00
-22938,68	27,00
-22878,93	80,00
-22819,39	8,00
-22760,04	-113,00
-22700,90	-51,00
-22641,96	-86,00
-22583,22	80,00
-22524,68	58,00
-22466,33	102,00
-22408,19	47,00
-22350,23	96,00
-22292,48	25,00
-22234,92	65,00
-22177,55	-108,00
-22120,37	8,00
-22063,38	-31,00
-22006,58	-55,00
-21949,98	65,00
-21893,56	127,00
-21837,33	-23,00
-21781,28	28,00
-21725,42	-75,00
-21669,74	-41,00
-21614,25	30,00
-21558,94	13,00
-21503,81	62,00
-21448,86	40,00
-21394,10	-28,00
-21339,51	185,00
-21285,10	3,00
-21230,86	12,00
-21176,81	144,00
-21122,93	138,00
-21069,22	41,00
-21015,69	-26,00
-20962,33	69,00
-20909,14	25,00
-20856,13	124,00
-20803,28	-126,00
-20750,61	14,00
-20698,10	81,00
-20645,76	46,00
-20593,59	86,00
-20541,59	8,00
-20489,75	11,00
-20438,07	92,00
-20386,56	50,00
-20335,22	114,00
-20284,03	-8,00
-20233,01	12,00
-20182,15	-8,00
-20131,45	40,00
-20080,91	-36,00
-20030,52	17,00
-19980,30	16,00
-19930,23	-81,00
-19880,32	-71,00
-19830,56	182,00
-19780,96	84,00
-19731,52	-4,00
-19682,23	-168,00
-19633,09	22,00
-19584,10	72,00
-19535,26	230,00
-19486,58	-73,00
-19438,04	-73,00
-19389,66	-64,00
-19341,42	-1,00
-19293,33	-39,00
-19245,39	117,00
-19197,60	105,00
-19149,95	45,00
-19102,45	81,00
-19055,09	-13,00
-19007,87	143,00
-18960,80	55,00
-18913,87	88,00
-18867,09	12,00
-18820,44	80,00
-18773,94	-32,00
-18727,57	46,00
-18681,35	13,00
-18635,26	163,00
-18589,31	76,00
-18543,50	13,00
-18497,83	-80,00
-18452,29	27,00
-18406,89	18,00
-18361,63	9,00
-18316,50	12,00
-18271,50	60,00
-18226,63	118,00
-18181,90	52,00
-18137,30	71,00
-18092,84	-17,00
-18048,50	4,00
-18004,29	108,00
-17960,22	42,00
-17916,27	55,00
-17872,45	42,00
-17828,76	38,00
-17785,20	-2,00
-17741,77	79,00
-17698,46	88,00
-17655,28	64,00
-17612,22	10,00
-17569,29	63,00
-17526,48	52,00
-17483,79	11,00
-17441,23	6,00
-17398,79	91,00
-17356,48	137,00
-17314,28	64,00
-17272,21	19,00
-17230,26	28,00
-17188,42	88,00
-17146,71	137,00
-17105,12	79,00
-17063,64	59,00
-17022,28	27,00
-16981,04	-112,00
-16939,92	142,00
-16898,91	-24,00
-16858,02	-61,00
-16817,25	-57,00
-16776,59	55,00
-16736,04	90,00
-16695,61	156,00
-16655,29	28,00
-16615,09	21,00
-16574,99	7,00
-16535,01	50,00
-16495,15	-14,00
-16455,39	110,00
-16415,74	75,00
-16376,21	-52,00
-16336,78	-79,00
-16297,46	22,00
-16258,26	76,00
-16219,16	113,00
-16180,17	165,00
-16141,28	101,00
-16102,51	-63,00
-16063,84	-25,00
-16025,27	2,00
-15986,82	55,00
-15948,46	-11,00
-15910,22	8,00
-15872,07	10,00
-15834,04	38,00
-15796,10	54,00
-15758,27	95,00
-15720,54	24,00
-15682,91	-42,00
-15645,39	-74,00
-15607,97	59,00
-15570,64	71,00
-15533,42	-10,00
-15496,30	30,00
-15459,28	16,00
-15422,36	62,00
-15385,54	37,00
-15348,82	150,00
-15312,19	6,00
-15275,66	-78,00
-15239,23	-36,00
-15202,90	-13,00
-15166,67	81,00
-15130,53	26,00
-15094,48	-58,00
-15058,54	81,00
-15022,68	-11,00
-14986,93	142,00
-14951,26	70,00
-14915,69	-72,00
-14880,22	-26,00
-14844,84	24,00
-14809,55	27,00
-14774,35	35,00
-14739,25	105,00
-14704,24	-25,00
-14669,32	-45,00
-14634,49	112,00
-14599,75	68,00
-14565,10	98,00
-14530,55	-2,00
-14496,08	156,00
-14461,70	172,00
-14427,41	-101,00
-14393,21	65,00
-14359,10	-59,00
-14325,07	58,00
-14291,14	7,00
-14257,29	56,00
-14223,52	-54,00
-14189,85	120,00
-14156,26	117,00
-14122,76	-8,00
-14089,34	17,00
-14056,01	27,00
-14022,76	86,00
-13989,60	8,00
-13956,52	42,00
-13923,53	-46,00
-13890,62	-18,00
-13857,79	154,00
-13825,05	-2,00
-13792,39	-4,00
-13759,81	104,00
-13727,31	3,00
-13694,90	-119,00
-13662,57	178,00
-13630,31	45,00
-13598,14	46,00
-13566,05	-38,00
-13534,05	-64,00
-13502,12	95,00
-13470,27	51,00
-13438,50	11,00
-13406,80	132,00
-13375,19	-16,00
-13343,66	-8,00
-13312,20	-45,00
-13280,83	56,00
-13249,53	71,00
-13218,30	-14,00
-13187,16	-75,00
-13156,09	-39,00
-13125,10	81,00
-13094,18	111,00
-13063,34	-115,00
-13032,58	6,00
-13001,89	-12,00
-12971,28	71,00
-12940,74	13,00
-12910,27	-13,00
-12879,88	-21,00
-12849,57	83,00
-12819,33	-36,00
-12789,16	51,00
-12759,06	11,00
-12729,04	-24,00
-12699,09	-1628,00
-12669,21	49,00
-12639,41	-36,00
-12609,68	93,00
-12580,02	-41,00
-12550,43	-8,00
-12520,91	-7,00
-12491,46	-57,00
-12462,08	112,00
-12432,77	17,00
-12403,54	26,00
-12374,37	104,00
-12345,27	-124,00
-12316,24	-27,00
-12287,29	12,00
-12258,40	30,00
-12229,57	207,00
-12200,82	37,00
-12172,14	0,00
-12143,52	16,00
-12114,97	91,00
-12086,49	-76,00
-12058,07	80,00
-12029,73	-178,00
-12001,44	-30,00
-11973,23	-20,00
-11945,08	58,00
-11917,00	-2,00
-11888,98	80,00
-11861,03	-28,00
-11833,15	75,00
-11805,32	-28,00
-11777,57	104,00
-11749,88	32,00
-11722,25	32,00
-11694,69	58,00
-11667,19	-31,00
-11639,75	9,00
-11612,38	62,00
-11585,07	21,00
-11557,83	62,00
-11530,65	-31,00
-11503,53	125,00
-11476,47	55,00
-11449,48	81,00
-11422,54	49,00
-11395,67	-32,00
-11368,86	-40,00
-11342,11	-16,00
-11315,43	-49,00
-11288,80	84,00
-11262,23	150,00
-11235,73	138,00
-11209,28	10,00
-11182,90	61,00
-11156,57	-7,00
-11130,31	82,00
-11104,10	198,00
-11077,96	-18,00
-11051,87	90,00
-11025,84	51,00
-10999,87	114,00
-10973,96	49,00
-10948,11	146,00
-10922,31	-71,00
-10896,58	315,00
-10870,90	107,00
-10845,28	94,00
-10819,71	58,00
-10794,20	89,00
-10768,75	131,00
-10743,36	96,00
-10718,02	54,00
-10692,74	63,00
-10667,52	73,00
-10642,35	112,00
-10617,24	160,00
-10592,18	210,00
-10567,18	143,00
-10542,23	131,00
-10517,34	209,00
-10492,51	179,00
-10467,72	244,00
-10443,00	245,00
-10418,32	237,00
-10393,70	148,00
-10369,14	134,00
-10344,63	232,00
-10320,17	271,00
-10295,77	220,00
-10271,42	247,00
-10247,12	200,00
-10222,88	240,00
-10198,68	358,00
-10174,54	399,00
-10150,46	467,00
-10126,42	260,00
-10102,44	422,00
-10078,51	394,00
-10054,63	528,00
-10030,80	560,00
-10007,03	464,00
-9983,30	544,00
-9959,63	624,00
-9936,01	610,00
-9912,44	635,00
-9888,92	667,00
-9865,44	591,00
-9842,02	695,00
-9818,65	695,00
-9795,33	692,00
-9772,06	737,00
-9748,84	820,00
-9725,67	898,00
-9702,55	1066,00
-9679,47	1258,00
-9656,45	1296,00
-9633,47	1444,00
-9610,55	1427,00
-9587,67	1376,00
-9564,84	1603,00
-9542,06	1701,00
-9519,32	2015,00
-9496,64	2146,00
-9474,00	2264,00
-9451,41	2225,00
-9428,87	2341,00
-9406,37	2314,00
-9383,92	2113,00
-9361,52	1947,00
-9339,17	1942,00
-9316,86	2259,00
-9294,60	2767,00
-9272,38	2864,00
-9250,21	3089,00
-9228,09	3197,00
-9206,01	2904,00
-9183,98	2734,00
-9162,00	2456,00
-9140,06	2288,00
-9118,16	2221,00
-9096,31	2321,00
-9074,51	2365,00
-9052,75	2307,00
-9031,04	2210,00
-9009,37	2051,00
-8987,74	1863,00
-8966,16	1650,00
-8944,63	1448,00
-8923,14	1260,00
-8901,69	1453,00
-8880,29	1620,00
-8858,93	1885,00
-8837,61	2099,00
-8816,34	2265,00
-8795,11	2243,00
-8773,92	2092,00
-8752,78	1783,00
-8731,68	1654,00
-8710,62	1755,00
-8689,61	1847,00
-8668,63	1999,00
-8647,70	2164,00
-8626,82	2060,00
-8605,97	1894,00
-8585,17	1925,00
-8564,41	1591,00
-8543,69	1646,00
-8523,01	1509,00
-8502,37	1549,00
-8481,78	1556,00
-8461,23	1629,00
-8440,71	1804,00
-8420,24	1956,00
-8399,81	1871,00
-8379,42	2103,00
-8359,08	1755,00
-8338,77	1509,00
-8318,50	1577,00
-8298,27	1430,00
-8278,09	1522,00
-8257,94	1498,00
-8237,83	1682,00
-8217,76	1767,00
-8197,74	1954,00
-8177,75	1777,00
-8157,80	1694,00
-8137,89	1495,00
-8118,02	1573,00
-8098,19	1330,00
-8078,40	1514,00
-8058,65	1618,00
-8038,93	1707,00
-8019,26	1584,00
-7999,62	1556,00
-7980,02	1388,00
-7960,46	1499,00
-7940,94	1326,00
-7921,46	1391,00
-7902,01	1367,00
-7882,60	1285,00
-7863,23	1294,00
-7843,90	1436,00
-7824,61	1469,00
-7805,35	1537,00
-7786,13	1512,00
-7766,95	1579,00
-7747,80	1375,00
-7728,69	1411,00
-7709,62	1368,00
-7690,59	1423,00
-7671,59	1531,00
-7652,63	1693,00
-7633,70	1677,00
-7614,81	1599,00
-7595,96	1433,00
-7577,15	1382,00
-7558,37	1196,00
-7539,62	1337,00
-7520,91	1444,00
-7502,24	1503,00
-7483,60	1533,00
-7465,00	1495,00
-7446,44	1270,00
-7427,91	1209,00
-7409,41	1139,00
-7390,95	913,00
-7372,53	1075,00
-7354,14	1026,00
-7335,78	960,00
-7317,46	1015,00
-7299,18	1161,00
-7280,92	1447,00
-7262,71	1343,00
-7244,52	1612,00
-7226,38	1440,00
-7208,26	1380,00
-7190,18	1414,00
-7172,14	1315,00
-7154,12	1385,00
-7136,15	1490,00
-7118,20	1502,00
-7100,29	1426,00
-7082,41	1552,00
-7064,57	1440,00
-7046,76	1414,00
-7028,98	1176,00
-7011,24	1050,00
-6993,53	801,00
-6975,85	950,00
-6958,20	654,00
-6940,59	669,00
-6923,01	682,00
-6905,46	827,00
-6887,94	965,00
-6870,46	-1608,00
-6853,01	1345,00
-6835,59	1352,00
-6818,21	1225,00
-6800,85	861,00
-6783,53	840,00
-6766,24	706,00
-6748,98	622,00
-6731,76	541,00
-6714,56	579,00
-6697,40	576,00
-6680,26	691,00
-6663,16	802,00
-6646,09	888,00
-6629,05	965,00
-6612,05	1072,00
-6595,07	1184,00
-6578,13	1023,00
-6561,21	848,00
-6544,33	553,00
-6527,47	503,00
-6510,65	519,00
-6493,86	493,00
-6477,10	528,00
-6460,36	507,00
-6443,66	474,00
-6426,99	337,00
-6410,35	436,00
-6393,74	528,00
-6377,16	577,00
-6360,61	645,00
-6344,09	790,00
-6327,59	802,00
-6311,13	807,00
-6294,70	832,00
-6278,29	927,00
-6261,92	940,00
-6245,58	1144,00
-6229,26	1091,00
-6212,97	993,00
-6196,72	698,00
-6180,49	624,00
-6164,29	355,00
-6148,12	292,00
-6131,98	321,00
-6115,86	171,00
-6099,78	358,00
-6083,72	129,00
-6067,69	221,00
-6051,69	301,00
-6035,72	316,00
-6019,78	349,00
-6003,87	520,00
-5987,98	786,00
-5972,12	697,00
-5956,29	732,00
-5940,49	571,00
-5924,71	508,00
-5908,96	391,00
-5893,24	322,00
-5877,55	329,00
-5861,89	390,00
-5846,25	351,00
-5830,64	391,00
-5815,05	365,00
-5799,50	361,00
-5783,97	355,00
-5768,47	386,00
-5752,99	570,00
-5737,55	842,00
-5722,12	766,00
-5706,73	704,00
-5691,36	676,00
-5676,02	443,00
-5660,71	242,00
-5645,42	189,00
-5630,16	443,00
-5614,92	216,00
-5599,71	521,00
-5584,53	520,00
-5569,37	434,00
-5554,24	302,00
-5539,14	467,00
-5524,06	392,00
-5509,01	478,00
-5493,98	521,00
-5478,98	358,00
-5464,00	437,00
-5449,05	392,00
-5434,13	307,00
-5419,23	346,00
-5404,36	306,00
-5389,51	393,00
-5374,69	674,00
-5359,89	861,00
-5345,12	832,00
-5330,37	811,00
-5315,65	555,00
-5300,95	515,00
-5286,28	361,00
-5271,63	344,00
-5257,01	458,00
-5242,41	372,00
-5227,84	488,00
-5213,29	291,00
-5198,76	131,00
-5184,26	303,00
-5169,79	342,00
-5155,33	409,00
-5140,91	347,00
-5126,51	616,00
-5112,13	519,00
-5097,77	450,00
-5083,44	346,00
-5069,13	253,00
-5054,85	300,00
-5040,59	344,00
-5026,36	391,00
-5012,15	594,00
-4997,96	429,00
-4983,80	400,00
-4969,66	185,00
-4955,54	246,00
-4941,44	374,00
-4927,37	541,00
-4913,33	757,00
-4899,30	724,00
-4885,30	660,00
-4871,33	395,00
-4857,37	256,00
-4843,44	109,00
-4829,53	212,00
-4815,65	416,00
-4801,79	354,00
-4787,95	297,00
-4774,13	312,00
-4760,34	276,00
-4746,56	93,00
-4732,82	290,00
-4719,09	320,00
-4705,38	682,00
-4691,70	720,00
-4678,04	719,00
-4664,41	445,00
-4650,79	375,00
-4637,20	304,00
-4623,63	184,00
-4610,08	305,00
-4596,56	405,00
-4583,05	300,00
-4569,57	433,00
-4556,11	58,00
-4542,67	104,00
-4529,25	217,00
-4515,86	364,00
-4502,49	489,00
-4489,13	507,00
-4475,80	431,00
-4462,49	271,00
-4449,21	194,00
-4435,94	236,00
-4422,70	372,00
-4409,47	312,00
-4396,27	311,00
-4383,09	302,00
-4369,93	171,00
-4356,79	143,00
-4343,67	197,00
-4330,58	265,00
-4317,50	310,00
-4304,45	478,00
-4291,41	115,00
-4278,40	113,00
-4265,41	60,00
-4252,44	212,00
-4239,49	365,00
-4226,55	332,00
-4213,65	142,00
-4200,76	198,00
-4187,89	204,00
-4175,04	160,00
-4162,21	146,00
-4149,40	61,00
-4136,61	-5,00
-4123,85	123,00
-4111,10	146,00
-4098,37	106,00
-4085,66	132,00
-4072,98	112,00
-4060,31	111,00
-4047,66	219,00
-4035,04	109,00
-4022,43	32,00
-4009,84	16,00
-3997,27	61,00
-3984,72	56,00
-3972,19	90,00
-3959,69	60,00
-3947,20	-70,00
-3934,73	24,00
-3922,27	128,00
-3909,84	-83,00
-3897,43	4,00
-3885,04	-57,00
-3872,67	136,00
-3860,31	5,00
-3847,98	-77,00
-3835,66	6,00
-3823,36	38,00
-3811,09	108,00
-3798,83	159,00
-3786,59	28,00
-3774,37	-21,00
-3762,17	-19,00
-3749,98	-13,00
-3737,82	129,00
-3725,67	24,00
-3713,55	-30,00
-3701,44	135,00
-3689,35	119,00
-3677,28	140,00
-3665,22	107,00
-3653,19	28,00
-3641,17	10,00
-3629,18	16,00
-3617,20	-18,00
-3605,24	-45,00
-3593,30	-79,00
-3581,37	88,00
-3569,47	189,00
-3557,58	61,00
-3545,71	-8,00
-3533,86	-16,00
-3522,02	87,00
-3510,21	39,00
-3498,41	81,00
-3486,63	-28,00
-3474,87	103,00
-3463,12	-3,00
-3451,40	-44,00
-3439,69	70,00
-3428,00	49,00
-3416,33	89,00
-3404,67	-33,00
-3393,03	104,00
-3381,41	96,00
-3369,81	-6,00
-3358,22	17,00
-3346,66	34,00
-3335,10	56,00
-3323,57	144,00
-3312,06	63,00
-3300,56	76,00
-3289,08	16,00
-3277,61	26,00
-3266,16	-76,00
-3254,73	-12,00
-3243,32	47,00
-3231,92	15,00
-3220,55	3,00
-3209,18	106,00
-3197,84	80,00
-3186,51	-45,00
-3175,20	27,00
-3163,90	141,00
-3152,63	-19,00
-3141,36	-15,00
-3130,12	-75,00
-3118,89	61,00
-3107,68	-42,00
-3096,49	-24,00
-3085,31	83,00
-3074,15	74,00
-3063,00	-56,00
-3051,87	58,00
-3040,76	-64,00
-3029,67	22,00
-3018,59	75,00
-3007,52	19,00
-2996,48	79,00
-2985,44	190,00
-2974,43	105,00
-2963,43	73,00
-2952,45	-7,00
-2941,48	-35,00
-2930,53	87,00
-2919,60	-18,00
-2908,68	94,00
-2897,78	41,00
-2886,89	69,00
-2876,02	24,00
-2865,17	-39,00
-2854,33	101,00
-2843,50	-88,00
-2832,70	106,00
-2821,90	-104,00
-2811,13	-58,00
-2800,37	62,00
-2789,62	136,00
-2778,89	32,00
-2768,18	108,00
-2757,48	145,00
-2746,80	67,00
-2736,13	2,00
-2725,48	-46,00
-2714,84	17,00
-2704,22	62,00
-2693,61	112,00
-2683,02	81,00
-2672,45	-17,00
-2661,89	186,00
-2651,34	66,00
-2640,81	3,00
-2630,30	161,00
-2619,80	30,00
-2609,31	23,00
-2598,84	-26,00
-2588,39	77,00
-2577,95	-7,00
-2567,52	20,00
-2557,11	55,00
-2546,71	107,00
-2536,33	14,00
-2525,97	80,00
-2515,62	-13,00
-2505,28	31,00
-2494,96	123,00
-2484,65	-83,00
-2474,36	-7,00
-2464,08	66,00
-2453,82	27,00
-2443,57	36,00
-2433,33	29,00
-2423,11	21,00
-2412,91	81,00
-2402,72	-21,00
-2392,54	62,00
-2382,38	34,00
-2372,23	83,00
-2362,09	-5144,00
-2351,97	169,00
-2341,87	-58,00
-2331,78	138,00
-2321,70	14,00
-2311,64	-16,00
-2301,59	-93,00
-2291,55	62,00
-2281,53	72,00
-2271,53	113,00
-2261,53	14,00
-2251,55	54,00
-2241,59	104,00
-2231,64	-6,00
-2221,70	79,00
-2211,78	12,00
-2201,87	153,00
-2191,97	57,00
-2182,09	-37,00
-2172,22	74,00
-2162,37	139,00
-2152,53	46,00
-2142,70	14,00
-2132,89	129,00
-2123,09	108,00
-2113,30	77,00
-2103,53	5,00
-2093,77	5,00
-2084,02	-55,00
-2074,29	15,00
-2064,57	25,00
-2054,86	90,00
-2045,17	-50,00
-2035,49	22,00
-2025,82	83,00
-2016,17	55,00
-2006,53	40,00
-1996,91	85,00
-1987,29	-43,00
-1977,69	200,00
-1968,11	219,00
-1958,53	225,00
-1948,97	30,00
-1939,42	101,00
-1929,89	-53,00
-1920,37	222,00
-1910,86	29,00
-1901,36	101,00
-1891,88	58,00
-1882,41	-16,00
-1872,95	85,00
-1863,51	-22,00
-1854,08	52,00
-1844,66	44,00
-1835,26	84,00
-1825,86	65,00
-1816,48	77,00
-1807,11	-8,00
-1797,76	-19,00
-1788,42	5,00
-1779,09	-101,00
-1769,77	-22,00
-1760,47	-12,00
-1751,17	-43,00
-1741,89	-68,00
-1732,63	48,00
-1723,37	-136,00
-1714,13	2,00
-1704,90	5,00
-1695,68	-7,00
-1686,48	41,00
-1677,29	-61,00
-1668,11	138,00
-1658,94	-27,00
-1649,78	-24,00
-1640,64	39,00
-1631,51	-20,00
-1622,39	43,00
-1613,28	3,00
-1604,19	16,00
-1595,10	8,00
-1586,03	32,00
-1576,97	16,00
-1567,93	72,00
-1558,89	54,00
-1549,87	81,00
-1540,86	129,00
-1531,86	106,00
-1522,87	-65,00
-1513,90	78,00
-1504,93	-43,00
-1495,98	-141,00
-1487,04	23,00
-1478,12	80,00
-1469,20	90,00
-1460,30	86,00
-1451,40	28,00
-1442,52	-37,00
-1433,65	-104,00
-1424,80	158,00
-1415,95	64,00
-1407,12	201,00
-1398,30	-48,00
-1389,48	-73,00
-1380,69	124,00
-1371,90	-17,00
-1363,12	2,00
-1354,36	58,00
-1345,60	95,00
-1336,86	-12,00
-1328,13	126,00
-1319,41	5,00
-1310,70	95,00
-1302,01	66,00
-1293,32	127,00
-1284,65	99,00
-1275,99	52,00
-1267,33	-28,00
-1258,69	102,00
-1250,06	120,00
-1241,45	89,00
-1232,84	160,00
-1224,25	-122,00
-1215,66	-65,00
-1207,09	-25,00
-1198,53	-66,00
-1189,97	32,00
-1181,43	119,00
-1172,91	-65,00
-1164,39	72,00
-1155,88	99,00
-1147,38	30,00
-1138,90	109,00
-1130,43	68,00
-1121,96	42,00
-1113,51	-6,00
-1105,07	-8,00
-1096,64	64,00
-1088,22	59,00
-1079,81	95,00
-1071,41	5,00
-1063,02	30,00
-1054,65	232,00
-1046,28	55,00
-1037,92	50,00
-1029,58	-99,00
-1021,24	0,00
-1012,92	106,00
-1004,61	97,00
-996,30	35,00
-988,01	60,00
-979,73	208,00
-971,46	-87,00
-963,20	12,00
-954,95	-43,00
-946,71	-36,00
-938,48	68,00
-930,26	-37,00
-922,06	-65,00
-913,86	125,00
-905,67	128,00
-897,49	44,00
-889,33	141,00
-881,17	92,00
-873,02	36,00
-864,89	-36,00
-856,76	89,00
-848,65	56,00
-840,54	26,00
-832,45	17,00
-824,36	60,00
-816,29	138,00
-808,22	-98,00
-800,17	125,00
-792,12	-20,00
-784,09	139,00
-776,06	3,00
-768,05	90,00
-760,04	77,00
-752,05	78,00
-744,07	44,00
-736,09	50,00
-728,13	120,00
-720,17	89,00
-712,23	-6,00
-704,29	-82,00
-696,37	7,00
-688,45	78,00
-680,55	2,00
-672,65	200,00
-664,77	-9,00
-656,89	40,00
-649,03	64,00
-641,17	7,00
-633,32	24,00
-625,49	81,00
-617,66	75,00
-609,84	-122,00
-602,03	21,00
-594,23	-11,00
-586,45	0,00
-578,67	231,00
-570,90	-3,00
-563,14	65,00
-555,39	51,00
-547,65	13,00
-539,91	-25,00
-532,19	16,00
-524,48	58,00
-516,78	81,00
-509,08	74,00
-501,40	24,00
-493,72	-21,00
-486,06	1,00
-478,40	60,00
-470,76	73,00
-463,12	40,00
-455,49	145,00
-447,87	2,00
-440,26	85,00
-432,66	-18,00
-425,07	72,00
-417,49	52,00
-409,92	11,00
-402,35	-68,00
-394,80	23,00
-387,25	76,00
-379,72	135,00
-372,19	127,00
-364,67	171,00
-357,17	-9,00
-349,67	48,00
-342,18	112,00
-334,69	81,00
-327,22	58,00
-319,76	-17,00
-312,30	38,00
-304,86	98,00
-297,42	95,00
-290,00	51,00
-282,58	26,00
-275,17	166,00
-267,77	65,00
-260,37	107,00
-252,99	106,00
-245,62	57,00
-238,25	-7,00
-230,90	54,00
-223,55	200,00
-216,21	164,00
-208,88	141,00
-201,56	157,00
-194,25	160,00
-186,94	126,00
-179,65	231,00
-172,36	242,00
-165,08	213,00
-157,81	183,00
-150,55	213,00
-143,30	243,00
-136,06	315,00
-128,82	315,00
-121,60	469,00
-114,38	300,00
-107,17	185,00
-99,97	363,00
-92,78	527,00
-85,60	514,00
-78,42	614,00
-71,25	729,00
-64,10	905,00
-56,95	1139,00
-49,81	1179,00
-42,67	1515,00
-35,55	1917,00
-28,43	2645,00
-21,33	4615,00
-14,23	15832,00
-7,14	47266,00
-0,05	38051,00
7,02	42597,00
14,09	41552,00
21,14	11057,00
28,19	4924,00
35,23	3097,00
42,27	2335,00
49,29	2031,00
56,31	1653,00
63,32	1452,00
70,32	1216,00
77,31	884,00
84,29	902,00
91,27	717,00
98,23	671,00
105,19	685,00
112,14	743,00
119,09	1010,00
126,02	1566,00
132,95	1593,00
139,87	1668,00
146,78	1590,00
153,68	1487,00
160,58	1522,00
167,46	1449,00
174,34	1512,00
181,21	1357,00
188,08	1505,00
194,93	1469,00
201,78	1494,00
208,62	1486,00
215,45	1352,00
222,27	1580,00
229,09	1344,00
235,90	1489,00
242,70	1272,00
249,49	1299,00
256,27	1457,00
263,05	1275,00
269,82	1264,00
276,58	1206,00
283,33	1239,00
290,08	1344,00
296,82	1277,00
303,55	1130,00
310,27	1246,00
316,98	1119,00
323,69	1330,00
330,39	1171,00
337,08	1206,00
343,76	1096,00
350,44	1225,00
357,11	1140,00
363,77	1229,00
370,42	1043,00
377,07	1192,00
383,71	1100,00
390,34	1055,00
396,96	1128,00
403,58	1008,00
410,19	1166,00
416,79	1119,00
423,38	1051,00
429,97	1071,00
436,55	1034,00
443,12	1085,00
449,68	1059,00
456,24	997,00
462,79	1036,00
469,33	929,00
475,86	1028,00
482,39	942,00
488,91	975,00
495,42	949,00
501,93	989,00
508,42	1067,00
514,91	1011,00
521,40	942,00
527,87	994,00
534,34	727,00
540,80	944,00
547,25	877,00
553,70	850,00
560,14	879,00
566,57	841,00
573,00	905,00
579,41	918,00
585,83	899,00
592,23	878,00
598,62	878,00
605,01	836,00
611,40	870,00
617,77	873,00
624,14	891,00
630,50	906,00
636,85	848,00
643,20	881,00
649,54	941,00
655,87	851,00
662,20	845,00
668,52	894,00
674,83	773,00
681,13	890,00
687,43	906,00
693,72	757,00
700,00	764,00
706,28	885,00
712,55	872,00
718,81	939,00
725,07	965,00
731,32	836,00
737,56	945,00
743,79	845,00
750,02	959,00
756,24	954,00
762,46	832,00
768,67	782,00
774,87	767,00
781,06	944,00
787,25	843,00
793,43	846,00
799,60	873,00
805,77	851,00
811,93	744,00
818,08	780,00
824,23	874,00
830,37	766,00
836,50	709,00
842,63	841,00
848,75	839,00
854,87	957,00
860,97	912,00
867,07	1067,00
873,17	873,00
879,25	856,00
885,33	962,00
891,41	796,00
897,47	828,00
903,53	899,00
909,59	906,00
915,63	906,00
921,67	836,00
927,71	710,00
933,74	792,00
939,76	799,00
945,77	791,00
951,78	839,00
957,78	768,00
963,78	724,00
969,77	692,00
975,75	775,00
981,72	728,00
987,69	853,00
993,66	870,00
999,61	760,00
1005,56	950,00
1011,51	821,00
1017,44	803,00
1023,37	863,00
1029,30	806,00
1035,22	861,00
1041,13	983,00
1047,03	1006,00
1052,93	1282,00
1058,83	1608,00
1064,71	1854,00
1070,59	1452,00
1076,47	1104,00
1082,33	1034,00
1088,20	1042,00
1094,05	901,00
1099,90	873,00
1105,74	908,00
1111,58	905,00
1117,41	1107,00
1123,23	1564,00
1129,05	2020,00
1134,86	1845,00
1140,67	1306,00
1146,47	1121,00
1152,26	972,00
1158,05	832,00
1163,83	924,00
1169,60	848,00
1175,37	1079,00
1181,13	775,00
1186,89	910,00
1192,64	747,00
1198,38	759,00
1204,12	726,00
1209,85	720,00
1215,58	815,00
1221,30	824,00
1227,02	772,00
1232,72	602,00
1238,43	864,00
1244,12	886,00
1249,81	821,00
1255,50	945,00
1261,17	960,00
1266,85	1016,00
1272,51	956,00
1278,17	1089,00
1283,83	1150,00
1289,47	1762,00
1295,12	2403,00
1300,75	2125,00
1306,38	1472,00
1312,01	1395,00
1317,63	995,00
1323,24	1032,00
1328,85	915,00
1334,45	989,00
1340,04	860,00
1345,63	931,00
1351,22	930,00
1356,80	981,00
1362,37	938,00
1367,93	1144,00
1373,49	997,00
1379,05	1073,00
1384,60	1023,00
1390,14	1002,00
1395,68	986,00
1401,21	1011,00
1406,74	1000,00
1412,26	1467,00
1417,77	1498,00
1423,28	1589,00
1428,78	1856,00
1434,28	1953,00
1439,77	2460,00
1445,26	2256,00
1450,74	2187,00
1456,22	1918,00
1461,68	2030,00
1467,15	1518,00
1472,61	1614,00
1478,06	1273,00
1483,51	1124,00
1488,95	1156,00
1494,38	991,00
1499,81	784,00
1505,24	786,00
1510,65	819,00
1516,07	786,00
1521,48	749,00
1526,88	849,00
1532,27	847,00
1537,67	819,00
1543,05	768,00
1548,43	660,00
1553,81	760,00
1559,18	873,00
1564,54	760,00
1569,90	684,00
1575,25	717,00
1580,60	925,00
1585,94	679,00
1591,28	680,00
1596,61	843,00
1601,93	731,00
1607,25	668,00
1612,57	634,00
1617,88	781,00
1623,18	704,00
1628,48	818,00
1633,77	692,00
1639,06	726,00
1644,34	746,00
1649,62	649,00
1654,89	625,00
1660,16	666,00
1665,42	658,00
1670,67	630,00
1675,92	600,00
1681,17	685,00
1686,41	649,00
1691,64	686,00
1696,87	611,00
1702,10	582,00
1707,32	628,00
1712,53	651,00
1717,74	595,00
1722,94	666,00
1728,14	645,00
1733,33	658,00
1738,52	699,00
1743,70	738,00
1748,88	621,00
1754,05	751,00
1759,22	556,00
1764,38	554,00
1769,53	581,00
1774,69	528,00
1779,83	664,00
1784,97	523,00
1790,11	479,00
1795,24	517,00
1800,36	655,00
1805,48	537,00
1810,60	667,00
1815,71	603,00
1820,82	669,00
1825,92	650,00
1831,01	541,00
1836,10	665,00
1841,19	704,00
1846,26	560,00
1851,34	586,00
1856,41	469,00
1861,47	655,00
1866,53	489,00
1871,59	448,00
1876,64	750,00
1881,68	629,00
1886,72	523,00
1891,76	470,00
1896,79	571,00
1901,81	596,00
1906,83	446,00
1911,85	548,00
1916,86	636,00
1921,86	529,00
1926,86	623,00
1931,86	568,00
1936,85	592,00
1941,83	550,00
1946,81	463,00
1951,79	556,00
1956,76	488,00
1961,72	569,00
1966,68	528,00
1971,64	561,00
1976,59	536,00
1981,54	531,00
1986,48	371,00
1991,42	611,00
1996,35	542,00
2001,27	371,00
2006,20	650,00
2011,11	529,00
2016,03	402,00
2020,93	576,00
2025,84	463,00
2030,73	502,00
2035,63	403,00
2040,52	489,00
2045,40	459,00
2050,28	439,00
2055,15	580,00
2060,02	527,00
2064,89	384,00
2069,75	440,00
2074,60	501,00
2079,46	463,00
2084,30	525,00
2089,14	470,00
2093,98	487,00
2098,81	509,00
2103,64	506,00
2108,46	534,00
2113,28	598,00
2118,09	491,00
2122,90	609,00
2127,70	490,00
2132,50	522,00
2137,30	487,00
2142,09	490,00
2146,87	426,00
2151,66	470,00
2156,43	500,00
2161,20	479,00
2165,97	429,00
2170,73	509,00
2175,49	403,00
2180,24	505,00
2184,99	373,00
2189,74	569,00
2194,48	543,00
2199,21	560,00
2203,94	370,00
2208,67	490,00
2213,39	368,00
2218,11	384,00
2222,82	486,00
2227,53	470,00
2232,23	457,00
2236,93	483,00
2241,63	417,00
2246,32	475,00
2251,00	484,00
2255,68	372,00
2260,36	408,00
2265,03	443,00
2269,70	452,00
2274,36	504,00
2279,02	429,00
2283,68	404,00
2288,33	423,00
2292,97	419,00
2297,61	455,00
2302,25	416,00
2306,88	402,00
2311,51	393,00
2316,14	381,00
2320,75	484,00
2325,37	395,00
2329,98	420,00
2334,59	446,00
2339,19	459,00
2343,79	401,00
2348,38	424,00
2352,97	450,00
2357,55	416,00
2362,13	519,00
2366,71	503,00
2371,28	412,00
2375,85	500,00
2380,41	475,00
2384,97	402,00
2389,52	280,00
2394,07	314,00
2398,62	339,00
2403,16	379,00
2407,70	332,00
2412,23	399,00
2416,76	397,00
2421,29	376,00
2425,81	537,00
2430,32	443,00
2434,84	308,00
2439,34	387,00
2443,85	286,00
2448,35	525,00
2452,84	300,00
2457,33	384,00
2461,82	349,00
2466,30	342,00
2470,78	480,00
2475,25	303,00
2479,72	382,00
2484,19	376,00
2488,65	371,00
2493,11	371,00
2497,56	348,00
2502,01	240,00
2506,46	360,00
2510,90	331,00
2515,34	346,00
2519,77	368,00
2524,20	476,00
2528,62	379,00
2533,04	358,00
2537,46	349,00
2541,87	231,00
2546,28	365,00
2550,68	335,00
2555,08	343,00
2559,48	343,00
2563,87	397,00
2568,26	270,00
2572,64	245,00
2577,02	347,00
2581,40	372,00
2585,77	404,00
2590,14	409,00
2594,50	334,00
2598,86	355,00
2603,22	344,00
2607,57	364,00
2611,92	472,00
2616,26	406,00
2620,60	410,00
2624,94	303,00
2629,27	382,00
2633,60	437,00
2637,92	289,00
2642,24	361,00
2646,56	368,00
2650,87	396,00
2655,18	338,00
2659,48	281,00
2663,78	346,00
2668,08	468,00
2672,37	357,00
2676,66	367,00
2680,95	376,00
2685,23	296,00
2689,50	461,00
2693,78	320,00
2698,05	501,00
2702,31	444,00
2706,57	482,00
2710,83	349,00
2715,08	418,00
2719,33	641,00
2723,58	496,00
2727,82	456,00
2732,06	512,00
2736,29	482,00
2740,53	484,00
2744,75	453,00
2748,97	489,00
2753,19	624,00
2757,41	327,00
2761,62	320,00
2765,83	462,00
2770,03	513,00
2774,23	513,00
2778,43	470,00
2782,62	583,00
2786,81	398,00
2791,00	474,00
2795,18	661,00
2799,35	432,00
2803,53	512,00
2807,70	567,00
2811,86	594,00
2816,03	581,00
2820,19	656,00
2824,34	794,00
2828,49	806,00
2832,64	1017,00
2836,78	1235,00
2840,92	1584,00
2845,06	1935,00
2849,19	2172,00
2853,32	2262,00
2857,45	2343,00
2861,57	2162,00
2865,69	2096,00
2869,80	2007,00
2873,91	1930,00
2878,02	2282,00
2882,12	2279,00
2886,22	2512,00
2890,32	2184,00
2894,41	2000,00
2898,50	1872,00
2902,58	1779,00
2906,67	1533,00
2910,74	1583,00
2914,82	1457,00
2918,89	1424,00
2922,96	1200,00
2927,02	1165,00
2931,08	1136,00
2935,13	933,00
2939,19	945,00
2943,24	824,00
2947,28	808,00
2951,32	663,00
2955,36	605,00
2959,40	515,00
2963,43	501,00
2967,46	478,00
2971,48	336,00
2975,50	451,00
2979,52	351,00
2983,53	285,00
2987,54	426,00
2991,55	428,00
2995,55	356,00
2999,55	354,00
3003,54	347,00
3007,54	129,00
3011,53	248,00
3015,51	297,00
3019,49	114,00
3023,47	210,00
3027,45	344,00
3031,42	265,00
3035,39	231,00
3039,35	325,00
3043,31	344,00
3047,27	212,00
3051,22	132,00
3055,17	172,00
3059,12	147,00
3063,06	225,00
3067,00	224,00
3070,94	186,00
3074,87	188,00
3078,80	176,00
3082,73	230,00
3086,65	99,00
3090,57	177,00
3094,49	95,00
3098,40	85,00
3102,31	249,00
3106,22	153,00
3110,12	250,00
3114,02	148,00
3117,92	212,00
3121,81	112,00
3125,70	116,00
3129,58	104,00
3133,47	61,00
3137,34	169,00
3141,22	242,00
3145,09	219,00
3148,96	39,00
3152,83	294,00
3156,69	145,00
3160,55	171,00
3164,40	160,00
3168,26	166,00
3172,10	273,00
3175,95	210,00
3179,79	83,00
3183,63	121,00
3187,47	165,00
3191,30	113,00
3195,13	89,00
3198,95	59,00
3202,78	248,00
3206,60	73,00
3210,41	182,00
3214,23	149,00
3218,03	272,00
3221,84	29,00
3225,64	172,00
3229,44	108,00
3233,24	83,00
3237,03	188,00
3240,82	113,00
3244,61	77,00
3248,39	71,00
3252,17	251,00
3255,95	92,00
3259,72	138,00
3263,49	93,00
3267,26	199,00
3271,03	148,00
3274,79	79,00
3278,54	37,00
3282,30	225,00
3286,05	86,00
3289,80	15,00
3293,54	90,00
3297,29	144,00
3301,02	180,00
3304,76	113,00
3308,49	138,00
3312,22	155,00
3315,95	-5,00
3319,67	248,00
3323,39	157,00
3327,10	179,00
3330,82	173,00
3334,53	113,00
3338,24	101,00
3341,94	138,00
3345,64	162,00
3349,34	65,00
3353,03	64,00
3356,72	183,00
3360,41	169,00
3364,10	121,00
3367,78	107,00
3371,46	113,00
3375,13	135,00
3378,81	89,00
3382,48	54,00
3386,14	104,00
3389,81	89,00
3393,47	207,00
3397,12	104,00
3400,78	-54,00
3404,43	238,00
3408,08	155,00
3411,72	68,00
3415,36	192,00
3419,00	101,00
3422,64	161,00
3426,27	138,00
3429,90	100,00
3433,53	78,00
3437,15	144,00
3440,77	137,00
3444,39	97,00
3448,00	11,00
3451,62	62,00
3455,22	132,00
3458,83	75,00
3462,43	63,00
3466,03	-37,00
3469,63	63,00
3473,22	28,00
3476,81	5,00
3480,40	-31,00
3483,99	36,00
3487,57	47,00
3491,15	54,00
3494,72	-24,00
3498,29	63,00
3501,86	39,00
3505,43	-46,00
3508,99	79,00
3512,56	64,00
3516,11	123,00
3519,67	98,00
3523,22	38,00
3526,77	-21,00
3530,32	180,00
3533,86	24,00
3537,40	17,00
3540,94	50,00
3544,47	123,00
3548,00	66,00
3551,53	78,00
3555,06	54,00
3558,58	32,00
3562,10	61,00
3565,62	217,00
3569,13	-81,00
3572,64	-10,00
3576,15	67,00
3579,66	52,00
3583,16	-7,00
3586,66	56,00
3590,16	6,00
3593,65	78,00
3597,14	3,00
3600,63	66,00
3604,11	181,00
3607,60	16,00
3611,08	133,00
3614,55	80,00
3618,03	66,00
3621,50	128,00
3624,97	60,00
3628,43	75,00
3631,90	111,00
3635,36	55,00
3638,81	-13,00
3642,27	77,00
3645,72	127,00
3649,17	-35,00
3652,61	112,00
3656,06	116,00
3659,50	-1,00
3662,93	59,00
3666,37	50,00
3669,80	22,00
3673,23	157,00
3676,65	258,00
3680,08	109,00
3683,50	21,00
3686,92	42,00
3690,33	63,00
3693,74	-17,00
3697,15	121,00
3700,56	-28,00
3703,96	113,00
3707,36	-86,00
3710,76	-5,00
3714,16	-50,00
3717,55	97,00
3720,94	40,00
3724,33	24,00
3727,71	-33,00
3731,10	50,00
3734,48	51,00
3737,85	-14,00
3741,23	7,00
3744,60	-32,00
3747,97	74,00
3751,33	7,00
3754,69	-47,00
3758,05	73,00
3761,41	28,00
3764,77	100,00
3768,12	52,00
3771,47	89,00
3774,82	-20,00
3778,16	1,00
3781,50	-1,00
3784,84	0,00
3788,18	9,00
>>>>>End Processed Spectral Data<<<<<
