SpectraSuite Data File
++++++++++++++++++++++++++++++++++++
Date: Tue Mar 03 12:37:49 ICT 2026
User: user
Dark Spectrum Present: Yes
Reference Spectrum Present: No
Number of Sampled Component Spectra: 1
Spectrometers: MAYP113682
Integration Time (usec): 3000000 (MAYP113682)
Spectra Averaged: 1 (MAYP113682)
Boxcar Smoothing: 0 (MAYP113682)
Correct for Electrical Dark: No (MAYP113682)
Strobe/Lamp Enabled: No (MAYP113682)
Correct for Detector Non-linearity: No (MAYP113682)
Correct for Stray Light: No (MAYP113682)
Number of Pixels in Processed Spectrum: 2068
>>>>>Begin Processed Spectral Data<<<<<
-37534,58	7,00
-37414,56	1,00
-37295,11	-3,00
-37176,24	-1,00
-37057,95	40,00
-36940,22	10,00
-36823,05	109,00
-36706,45	90,00
-36590,40	92,00
-36474,90	67,00
-36359,95	133,00
-36245,55	174,00
-36131,68	95,00
-36018,35	104,00
-35905,55	118,00
-35793,29	159,00
-35681,54	130,00
-35570,32	83,00
-35459,62	-55,00
-35349,43	46,00
-35239,75	146,00
-35130,58	84,00
-35021,91	49,00
-34913,74	157,00
-34806,07	102,00
-34698,89	186,00
-34592,20	-6,00
-34486,00	9,00
-34380,28	8,00
-34275,04	-41,00
-34170,27	-5,00
-34065,98	23,00
-33962,16	76,00
-33858,81	124,00
-33755,92	189,00
-33653,49	89,00
-33551,52	210,00
-33450,01	143,00
-33348,94	36,00
-33248,33	121,00
-33148,16	76,00
-33048,43	131,00
-32949,14	72,00
-32850,29	65,00
-32751,87	69,00
-32653,89	187,00
-32556,33	48,00
-32459,20	64,00
-32362,49	63,00
-32266,19	38,00
-32170,32	138,00
-32074,86	15,00
-31979,82	146,00
-31885,18	-62,00
-31790,95	50,00
-31697,12	144,00
-31603,69	-71,00
-31510,67	73,00
-31418,04	-15,00
-31325,80	194,00
-31233,95	73,00
-31142,49	61,00
-31051,42	143,00
-30960,73	74,00
-30870,43	180,00
-30780,50	170,00
-30690,95	9,00
-30601,77	31,00
-30512,97	17,00
-30424,53	80,00
-30336,46	178,00
-30248,76	75,00
-30161,42	31,00
-30074,44	146,00
-29987,81	167,00
-29901,55	-23,00
-29815,63	65,00
-29730,07	-55,00
-29644,86	71,00
-29560,00	230,00
-29475,48	65,00
-29391,30	52,00
-29307,47	37,00
-29223,97	112,00
-29140,81	1,00
-29057,99	54,00
-28975,50	155,00
-28893,34	-20,00
-28811,51	46,00
-28730,00	119,00
-28648,82	138,00
-28567,97	144,00
-28487,43	71,00
-28407,21	33,00
-28327,32	38,00
-28247,73	-48,00
-28168,46	76,00
-28089,50	98,00
-28010,85	-100,00
-27932,51	104,00
-27854,48	12,00
-27776,75	60,00
-27699,32	51,00
-27622,19	159,00
-27545,37	142,00
-27468,84	2,00
-27392,60	117,00
-27316,66	11,00
-27241,01	110,00
-27165,66	95,00
-27090,59	-16,00
-27015,81	211,00
-26941,31	166,00
-26867,10	29,00
-26793,17	88,00
-26719,52	-84,00
-26646,15	105,00
-26573,06	244,00
-26500,24	80,00
-26427,70	87,00
-26355,43	146,00
-26283,43	41,00
-26211,71	159,00
-26140,25	89,00
-26069,06	148,00
-25998,13	-73,00
-25927,46	53,00
-25857,06	62,00
-25786,92	72,00
-25717,04	-54,00
-25647,42	186,00
-25578,05	86,00
-25508,94	-4,00
-25440,09	26,00
-25371,48	83,00
-25303,13	42,00
-25235,02	120,00
-25167,17	-62,00
-25099,56	168,00
-25032,19	165,00
-24965,07	2,00
-24898,20	12,00
-24831,56	144,00
-24765,17	160,00
-24699,01	116,00
-24633,10	144,00
-24567,41	33,00
-24501,97	66,00
-24436,75	-81,00
-24371,77	96,00
-24307,03	25,00
-24242,51	-11,00
-24178,22	61,00
-24114,16	56,00
-24050,32	-7,00
-23986,71	69,00
-23923,32	118,00
-23860,16	1,00
-23797,22	179,00
-23734,50	40,00
-23672,00	182,00
-23609,71	224,00
-23547,65	1,00
-23485,80	51,00
-23424,16	71,00
-23362,74	72,00
-23301,53	-8,00
-23240,54	85,00
-23179,75	64,00
-23119,17	160,00
-23058,80	235,00
-22998,64	-54,00
-22938,68	50,00
-22878,93	32,00
-22819,39	16,00
-22760,04	-65,00
-22700,90	22,00
-22641,96	121,00
-22583,22	81,00
-22524,68	63,00
-22466,33	152,00
-22408,19	161,00
-22350,23	81,00
-22292,48	79,00
-22234,92	124,00
-22177,55	45,00
-22120,37	124,00
-22063,38	134,00
-22006,58	123,00
-21949,98	-3,00
-21893,56	179,00
-21837,33	169,00
-21781,28	57,00
-21725,42	70,00
-21669,74	23,00
-21614,25	52,00
-21558,94	143,00
-21503,81	149,00
-21448,86	34,00
-21394,10	76,00
-21339,51	181,00
-21285,10	23,00
-21230,86	44,00
-21176,81	78,00
-21122,93	130,00
-21069,22	49,00
-21015,69	-11,00
-20962,33	95,00
-20909,14	64,00
-20856,13	160,00
-20803,28	-87,00
-20750,61	135,00
-20698,10	-2,00
-20645,76	86,00
-20593,59	176,00
-20541,59	204,00
-20489,75	75,00
-20438,07	76,00
-20386,56	97,00
-20335,22	117,00
-20284,03	30,00
-20233,01	16,00
-20182,15	12,00
-20131,45	-8,00
-20080,91	42,00
-20030,52	117,00
-19980,30	-37,00
-19930,23	70,00
-19880,32	54,00
-19830,56	278,00
-19780,96	51,00
-19731,52	41,00
-19682,23	3,00
-19633,09	71,00
-19584,10	143,00
-19535,26	194,00
-19486,58	-21,00
-19438,04	-8,00
-19389,66	-94,00
-19341,42	18,00
-19293,33	67,00
-19245,39	148,00
-19197,60	100,00
-19149,95	109,00
-19102,45	79,00
-19055,09	48,00
-19007,87	144,00
-18960,80	95,00
-18913,87	123,00
-18867,09	98,00
-18820,44	21,00
-18773,94	121,00
-18727,57	80,00
-18681,35	72,00
-18635,26	48,00
-18589,31	167,00
-18543,50	7,00
-18497,83	12,00
-18452,29	36,00
-18406,89	70,00
-18361,63	160,00
-18316,50	-17,00
-18271,50	104,00
-18226,63	101,00
-18181,90	135,00
-18137,30	149,00
-18092,84	73,00
-18048,50	40,00
-18004,29	35,00
-17960,22	185,00
-17916,27	30,00
-17872,45	48,00
-17828,76	12,00
-17785,20	106,00
-17741,77	67,00
-17698,46	83,00
-17655,28	147,00
-17612,22	24,00
-17569,29	196,00
-17526,48	61,00
-17483,79	20,00
-17441,23	-21,00
-17398,79	61,00
-17356,48	56,00
-17314,28	77,00
-17272,21	116,00
-17230,26	10,00
-17188,42	146,00
-17146,71	99,00
-17105,12	27,00
-17063,64	69,00
-17022,28	90,00
-16981,04	90,00
-16939,92	89,00
-16898,91	-34,00
-16858,02	73,00
-16817,25	148,00
-16776,59	119,00
-16736,04	74,00
-16695,61	123,00
-16655,29	174,00
-16615,09	-49,00
-16574,99	41,00
-16535,01	106,00
-16495,15	22,00
-16455,39	1,00
-16415,74	106,00
-16376,21	-1,00
-16336,78	-4,00
-16297,46	164,00
-16258,26	111,00
-16219,16	177,00
-16180,17	101,00
-16141,28	103,00
-16102,51	-30,00
-16063,84	75,00
-16025,27	182,00
-15986,82	27,00
-15948,46	-19,00
-15910,22	74,00
-15872,07	123,00
-15834,04	-2,00
-15796,10	150,00
-15758,27	159,00
-15720,54	76,00
-15682,91	26,00
-15645,39	76,00
-15607,97	165,00
-15570,64	58,00
-15533,42	31,00
-15496,30	126,00
-15459,28	169,00
-15422,36	62,00
-15385,54	71,00
-15348,82	152,00
-15312,19	50,00
-15275,66	26,00
-15239,23	29,00
-15202,90	116,00
-15166,67	171,00
-15130,53	37,00
-15094,48	57,00
-15058,54	75,00
-15022,68	132,00
-14986,93	149,00
-14951,26	105,00
-14915,69	-14,00
-14880,22	55,00
-14844,84	-70,00
-14809,55	84,00
-14774,35	103,00
-14739,25	83,00
-14704,24	4,00
-14669,32	117,00
-14634,49	193,00
-14599,75	56,00
-14565,10	183,00
-14530,55	53,00
-14496,08	155,00
-14461,70	209,00
-14427,41	-94,00
-14393,21	66,00
-14359,10	16,00
-14325,07	89,00
-14291,14	72,00
-14257,29	62,00
-14223,52	76,00
-14189,85	16,00
-14156,26	73,00
-14122,76	33,00
-14089,34	100,00
-14056,01	47,00
-14022,76	147,00
-13989,60	28,00
-13956,52	58,00
-13923,53	70,00
-13890,62	52,00
-13857,79	121,00
-13825,05	94,00
-13792,39	196,00
-13759,81	158,00
-13727,31	-53,00
-13694,90	86,00
-13662,57	164,00
-13630,31	69,00
-13598,14	120,00
-13566,05	18,00
-13534,05	-2,00
-13502,12	75,00
-13470,27	16,00
-13438,50	32,00
-13406,80	145,00
-13375,19	8,00
-13343,66	100,00
-13312,20	65,00
-13280,83	20,00
-13249,53	88,00
-13218,30	124,00
-13187,16	-48,00
-13156,09	-48,00
-13125,10	180,00
-13094,18	119,00
-13063,34	75,00
-13032,58	57,00
-13001,89	97,00
-12971,28	164,00
-12940,74	140,00
-12910,27	73,00
-12879,88	65,00
-12849,57	85,00
-12819,33	136,00
-12789,16	79,00
-12759,06	122,00
-12729,04	26,00
-12699,09	28,00
-12669,21	103,00
-12639,41	88,00
-12609,68	11,00
-12580,02	-2,00
-12550,43	41,00
-12520,91	73,00
-12491,46	82,00
-12462,08	35,00
-12432,77	-5,00
-12403,54	32,00
-12374,37	128,00
-12345,27	68,00
-12316,24	50,00
-12287,29	-60,00
-12258,40	95,00
-12229,57	176,00
-12200,82	77,00
-12172,14	89,00
-12143,52	68,00
-12114,97	58,00
-12086,49	102,00
-12058,07	152,00
-12029,73	-3,00
-12001,44	27,00
-11973,23	103,00
-11945,08	94,00
-11917,00	78,00
-11888,98	137,00
-11861,03	80,00
-11833,15	118,00
-11805,32	38,00
-11777,57	69,00
-11749,88	35,00
-11722,25	134,00
-11694,69	84,00
-11667,19	27,00
-11639,75	-92,00
-11612,38	230,00
-11585,07	93,00
-11557,83	110,00
-11530,65	69,00
-11503,53	197,00
-11476,47	36,00
-11449,48	118,00
-11422,54	47,00
-11395,67	72,00
-11368,86	42,00
-11342,11	26,00
-11315,43	92,00
-11288,80	195,00
-11262,23	141,00
-11235,73	84,00
-11209,28	2,00
-11182,90	51,00
-11156,57	51,00
-11130,31	125,00
-11104,10	177,00
-11077,96	145,00
-11051,87	202,00
-11025,84	98,00
-10999,87	183,00
-10973,96	90,00
-10948,11	150,00
-10922,31	48,00
-10896,58	178,00
-10870,90	133,00
-10845,28	178,00
-10819,71	114,00
-10794,20	148,00
-10768,75	264,00
-10743,36	187,00
-10718,02	109,00
-10692,74	118,00
-10667,52	49,00
-10642,35	65,00
-10617,24	209,00
-10592,18	291,00
-10567,18	227,00
-10542,23	238,00
-10517,34	263,00
-10492,51	180,00
-10467,72	196,00
-10443,00	273,00
-10418,32	325,00
-10393,70	104,00
-10369,14	298,00
-10344,63	244,00
-10320,17	206,00
-10295,77	289,00
-10271,42	337,00
-10247,12	209,00
-10222,88	363,00
-10198,68	482,00
-10174,54	436,00
-10150,46	532,00
-10126,42	423,00
-10102,44	535,00
-10078,51	554,00
-10054,63	663,00
-10030,80	615,00
-10007,03	469,00
-9983,30	602,00
-9959,63	578,00
-9936,01	704,00
-9912,44	829,00
-9888,92	671,00
-9865,44	745,00
-9842,02	792,00
-9818,65	812,00
-9795,33	701,00
-9772,06	895,00
-9748,84	856,00
-9725,67	1044,00
-9702,55	1146,00
-9679,47	1378,00
-9656,45	1390,00
-9633,47	1553,00
-9610,55	1531,00
-9587,67	1497,00
-9564,84	1801,00
-9542,06	1839,00
-9519,32	2080,00
-9496,64	2322,00
-9474,00	2447,00
-9451,41	2515,00
-9428,87	2600,00
-9406,37	2506,00
-9383,92	2296,00
-9361,52	2207,00
-9339,17	2071,00
-9316,86	2538,00
-9294,60	2845,00
-9272,38	3125,00
-9250,21	3129,00
-9228,09	3412,00
-9206,01	3253,00
-9183,98	2936,00
-9162,00	2603,00
-9140,06	2509,00
-9118,16	2457,00
-9096,31	2459,00
-9074,51	2623,00
-9052,75	2520,00
-9031,04	2527,00
-9009,37	2253,00
-8987,74	1953,00
-8966,16	1759,00
-8944,63	1733,00
-8923,14	1313,00
-8901,69	1609,00
-8880,29	1766,00
-8858,93	2125,00
-8837,61	2200,00
-8816,34	2477,00
-8795,11	2333,00
-8773,92	2350,00
-8752,78	2009,00
-8731,68	1730,00
-8710,62	1804,00
-8689,61	1905,00
-8668,63	2098,00
-8647,70	2246,00
-8626,82	2201,00
-8605,97	2069,00
-8585,17	2066,00
-8564,41	1802,00
-8543,69	1736,00
-8523,01	1541,00
-8502,37	1624,00
-8481,78	1620,00
-8461,23	1866,00
-8440,71	1992,00
-8420,24	2185,00
-8399,81	2056,00
-8379,42	2177,00
-8359,08	1975,00
-8338,77	1593,00
-8318,50	1657,00
-8298,27	1580,00
-8278,09	1652,00
-8257,94	1722,00
-8237,83	1908,00
-8217,76	2048,00
-8197,74	2043,00
-8177,75	1948,00
-8157,80	1862,00
-8137,89	1562,00
-8118,02	1731,00
-8098,19	1523,00
-8078,40	1568,00
-8058,65	1646,00
-8038,93	1788,00
-8019,26	1684,00
-7999,62	1696,00
-7980,02	1596,00
-7960,46	1508,00
-7940,94	1621,00
-7921,46	1515,00
-7902,01	1456,00
-7882,60	1303,00
-7863,23	1416,00
-7843,90	1562,00
-7824,61	1538,00
-7805,35	1662,00
-7786,13	1819,00
-7766,95	1571,00
-7747,80	1479,00
-7728,69	1568,00
-7709,62	1346,00
-7690,59	1579,00
-7671,59	1657,00
-7652,63	1767,00
-7633,70	1758,00
-7614,81	1704,00
-7595,96	1524,00
-7577,15	1420,00
-7558,37	1308,00
-7539,62	1527,00
-7520,91	1608,00
-7502,24	1628,00
-7483,60	1600,00
-7465,00	1599,00
-7446,44	1372,00
-7427,91	1255,00
-7409,41	1202,00
-7390,95	1015,00
-7372,53	995,00
-7354,14	1152,00
-7335,78	1136,00
-7317,46	1160,00
-7299,18	1332,00
-7280,92	1563,00
-7262,71	1526,00
-7244,52	1623,00
-7226,38	1632,00
-7208,26	1559,00
-7190,18	1547,00
-7172,14	1491,00
-7154,12	1391,00
-7136,15	1541,00
-7118,20	1630,00
-7100,29	1604,00
-7082,41	1456,00
-7064,57	1464,00
-7046,76	1461,00
-7028,98	1298,00
-7011,24	1044,00
-6993,53	1023,00
-6975,85	946,00
-6958,20	772,00
-6940,59	890,00
-6923,01	823,00
-6905,46	1064,00
-6887,94	965,00
-6870,46	1279,00
-6853,01	1510,00
-6835,59	1531,00
-6818,21	1417,00
-6800,85	1026,00
-6783,53	896,00
-6766,24	886,00
-6748,98	682,00
-6731,76	695,00
-6714,56	696,00
-6697,40	561,00
-6680,26	623,00
-6663,16	885,00
-6646,09	888,00
-6629,05	1064,00
-6612,05	1226,00
-6595,07	1309,00
-6578,13	1008,00
-6561,21	978,00
-6544,33	747,00
-6527,47	495,00
-6510,65	569,00
-6493,86	510,00
-6477,10	496,00
-6460,36	536,00
-6443,66	612,00
-6426,99	469,00
-6410,35	558,00
-6393,74	587,00
-6377,16	635,00
-6360,61	863,00
-6344,09	814,00
-6327,59	1019,00
-6311,13	792,00
-6294,70	913,00
-6278,29	944,00
-6261,92	1059,00
-6245,58	1206,00
-6229,26	1204,00
-6212,97	1079,00
-6196,72	794,00
-6180,49	742,00
-6164,29	445,00
-6148,12	289,00
-6131,98	359,00
-6115,86	342,00
-6099,78	446,00
-6083,72	255,00
-6067,69	387,00
-6051,69	358,00
-6035,72	306,00
-6019,78	488,00
-6003,87	662,00
-5987,98	782,00
-5972,12	760,00
-5956,29	796,00
-5940,49	614,00
-5924,71	460,00
-5908,96	444,00
-5893,24	237,00
-5877,55	380,00
-5861,89	394,00
-5846,25	403,00
-5830,64	346,00
-5815,05	420,00
-5799,50	277,00
-5783,97	395,00
-5768,47	490,00
-5752,99	547,00
-5737,55	837,00
-5722,12	859,00
-5706,73	744,00
-5691,36	641,00
-5676,02	515,00
-5660,71	339,00
-5645,42	307,00
-5630,16	459,00
-5614,92	302,00
-5599,71	560,00
-5584,53	624,00
-5569,37	534,00
-5554,24	1575,00
-5539,14	502,00
-5524,06	352,00
-5509,01	486,00
-5493,98	500,00
-5478,98	441,00
-5464,00	593,00
-5449,05	484,00
-5434,13	331,00
-5419,23	315,00
-5404,36	365,00
-5389,51	460,00
-5374,69	720,00
-5359,89	853,00
-5345,12	896,00
-5330,37	863,00
-5315,65	507,00
-5300,95	547,00
-5286,28	455,00
-5271,63	485,00
-5257,01	463,00
-5242,41	510,00
-5227,84	579,00
-5213,29	499,00
-5198,76	198,00
-5184,26	339,00
-5169,79	341,00
-5155,33	491,00
-5140,91	577,00
-5126,51	583,00
-5112,13	544,00
-5097,77	498,00
-5083,44	397,00
-5069,13	274,00
-5054,85	384,00
-5040,59	415,00
-5026,36	446,00
-5012,15	548,00
-4997,96	458,00
-4983,80	403,00
-4969,66	214,00
-4955,54	328,00
-4941,44	354,00
-4927,37	628,00
-4913,33	800,00
-4899,30	845,00
-4885,30	809,00
-4871,33	508,00
-4857,37	267,00
-4843,44	242,00
-4829,53	250,00
-4815,65	498,00
-4801,79	336,00
-4787,95	313,00
-4774,13	362,00
-4760,34	375,00
-4746,56	141,00
-4732,82	291,00
-4719,09	458,00
-4705,38	562,00
-4691,70	822,00
-4678,04	815,00
-4664,41	459,00
-4650,79	542,00
-4637,20	325,00
-4623,63	272,00
-4610,08	331,00
-4596,56	336,00
-4583,05	473,00
-4569,57	440,00
-4556,11	126,00
-4542,67	174,00
-4529,25	211,00
-4515,86	402,00
-4502,49	642,00
-4489,13	579,00
-4475,80	583,00
-4462,49	369,00
-4449,21	321,00
-4435,94	128,00
-4422,70	302,00
-4409,47	381,00
-4396,27	407,00
-4383,09	181,00
-4369,93	192,00
-4356,79	92,00
-4343,67	301,00
-4330,58	293,00
-4317,50	352,00
-4304,45	396,00
-4291,41	278,00
-4278,40	138,00
-4265,41	132,00
-4252,44	299,00
-4239,49	381,00
-4226,55	345,00
-4213,65	177,00
-4200,76	260,00
-4187,89	198,00
-4175,04	114,00
-4162,21	206,00
-4149,40	119,00
-4136,61	-39,00
-4123,85	208,00
-4111,10	179,00
-4098,37	173,00
-4085,66	149,00
-4072,98	132,00
-4060,31	95,00
-4047,66	253,00
-4035,04	278,00
-4022,43	76,00
-4009,84	42,00
-3997,27	123,00
-3984,72	133,00
-3972,19	117,00
-3959,69	110,00
-3947,20	38,00
-3934,73	9,00
-3922,27	80,00
-3909,84	-5,00
-3897,43	15,00
-3885,04	31,00
-3872,67	37,00
-3860,31	126,00
-3847,98	68,00
-3835,66	-4,00
-3823,36	35,00
-3811,09	87,00
-3798,83	84,00
-3786,59	-101,00
-3774,37	133,00
-3762,17	72,00
-3749,98	68,00
-3737,82	120,00
-3725,67	226,00
-3713,55	19,00
-3701,44	170,00
-3689,35	158,00
-3677,28	80,00
-3665,22	105,00
-3653,19	48,00
-3641,17	2,00
-3629,18	157,00
-3617,20	-17,00
-3605,24	-77,00
-3593,30	132,00
-3581,37	195,00
-3569,47	149,00
-3557,58	46,00
-3545,71	73,00
-3533,86	12,00
-3522,02	168,00
-3510,21	110,00
-3498,41	177,00
-3486,63	165,00
-3474,87	-27,00
-3463,12	87,00
-3451,40	10,00
-3439,69	36,00
-3428,00	56,00
-3416,33	19,00
-3404,67	61,00
-3393,03	23,00
-3381,41	127,00
-3369,81	-76,00
-3358,22	85,00
-3346,66	94,00
-3335,10	94,00
-3323,57	123,00
-3312,06	32,00
-3300,56	111,00
-3289,08	16,00
-3277,61	10,00
-3266,16	-100,00
-3254,73	132,00
-3243,32	82,00
-3231,92	-36,00
-3220,55	-28,00
-3209,18	93,00
-3197,84	114,00
-3186,51	32,00
-3175,20	66,00
-3163,90	234,00
-3152,63	-25,00
-3141,36	67,00
-3130,12	-60,00
-3118,89	-90,00
-3107,68	50,00
-3096,49	64,00
-3085,31	82,00
-3074,15	154,00
-3063,00	134,00
-3051,87	130,00
-3040,76	22,00
-3029,67	110,00
-3018,59	92,00
-3007,52	186,00
-2996,48	83,00
-2985,44	141,00
-2974,43	168,00
-2963,43	61,00
-2952,45	8,00
-2941,48	101,00
-2930,53	1,00
-2919,60	122,00
-2908,68	67,00
-2897,78	18,00
-2886,89	128,00
-2876,02	77,00
-2865,17	-8,00
-2854,33	81,00
-2843,50	125,00
-2832,70	118,00
-2821,90	30,00
-2811,13	-2,00
-2800,37	-2,00
-2789,62	81,00
-2778,89	63,00
-2768,18	231,00
-2757,48	194,00
-2746,80	15,00
-2736,13	24,00
-2725,48	-8,00
-2714,84	117,00
-2704,22	18,00
-2693,61	60,00
-2683,02	117,00
-2672,45	-43,00
-2661,89	163,00
-2651,34	50,00
-2640,81	51,00
-2630,30	88,00
-2619,80	-42,00
-2609,31	55,00
-2598,84	7,00
-2588,39	104,00
-2577,95	-19,00
-2567,52	125,00
-2557,11	62,00
-2546,71	125,00
-2536,33	73,00
-2525,97	24,00
-2515,62	155,00
-2505,28	-126,00
-2494,96	98,00
-2484,65	16,00
-2474,36	97,00
-2464,08	128,00
-2453,82	29,00
-2443,57	-57,00
-2433,33	-7,00
-2423,11	104,00
-2412,91	-2,00
-2402,72	121,00
-2392,54	47,00
-2382,38	63,00
-2372,23	40,00
-2362,09	-174,00
-2351,97	-8,00
-2341,87	9,00
-2331,78	71,00
-2321,70	118,00
-2311,64	68,00
-2301,59	90,00
-2291,55	166,00
-2281,53	66,00
-2271,53	138,00
-2261,53	54,00
-2251,55	2,00
-2241,59	167,00
-2231,64	38,00
-2221,70	51,00
-2211,78	7,00
-2201,87	73,00
-2191,97	82,00
-2182,09	39,00
-2172,22	163,00
-2162,37	123,00
-2152,53	41,00
-2142,70	229,00
-2132,89	115,00
-2123,09	99,00
-2113,30	67,00
-2103,53	37,00
-2093,77	98,00
-2084,02	67,00
-2074,29	99,00
-2064,57	81,00
-2054,86	104,00
-2045,17	-2,00
-2035,49	126,00
-2025,82	68,00
-2016,17	-5,00
-2006,53	99,00
-1996,91	154,00
-1987,29	-5,00
-1977,69	162,00
-1968,11	24,00
-1958,53	182,00
-1948,97	0,00
-1939,42	152,00
-1929,89	20,00
-1920,37	168,00
-1910,86	84,00
-1901,36	117,00
-1891,88	26,00
-1882,41	63,00
-1872,95	187,00
-1863,51	-32,00
-1854,08	28,00
-1844,66	142,00
-1835,26	107,00
-1825,86	149,00
-1816,48	96,00
-1807,11	29,00
-1797,76	112,00
-1788,42	120,00
-1779,09	56,00
-1769,77	118,00
-1760,47	-14,00
-1751,17	73,00
-1741,89	-71,00
-1732,63	-62,00
-1723,37	-100,00
-1714,13	0,00
-1704,90	84,00
-1695,68	121,00
-1686,48	127,00
-1677,29	11,00
-1668,11	250,00
-1658,94	82,00
-1649,78	30,00
-1640,64	112,00
-1631,51	68,00
-1622,39	-5,00
-1613,28	124,00
-1604,19	22,00
-1595,10	54,00
-1586,03	62,00
-1576,97	69,00
-1567,93	77,00
-1558,89	-26,00
-1549,87	161,00
-1540,86	119,00
-1531,86	76,00
-1522,87	15,00
-1513,90	110,00
-1504,93	104,00
-1495,98	-85,00
-1487,04	75,00
-1478,12	63,00
-1469,20	175,00
-1460,30	136,00
-1451,40	94,00
-1442,52	107,00
-1433,65	15,00
-1424,80	78,00
-1415,95	180,00
-1407,12	198,00
-1398,30	33,00
-1389,48	227,00
-1380,69	23,00
-1371,90	95,00
-1363,12	128,00
-1354,36	156,00
-1345,60	102,00
-1336,86	112,00
-1328,13	137,00
-1319,41	111,00
-1310,70	118,00
-1302,01	53,00
-1293,32	44,00
-1284,65	144,00
-1275,99	57,00
-1267,33	-43,00
-1258,69	109,00
-1250,06	204,00
-1241,45	140,00
-1232,84	184,00
-1224,25	-34,00
-1215,66	64,00
-1207,09	3,00
-1198,53	-10,00
-1189,97	129,00
-1181,43	93,00
-1172,91	76,00
-1164,39	56,00
-1155,88	37,00
-1147,38	-9,00
-1138,90	144,00
-1130,43	102,00
-1121,96	141,00
-1113,51	57,00
-1105,07	94,00
-1096,64	147,00
-1088,22	70,00
-1079,81	140,00
-1071,41	122,00
-1063,02	-65,00
-1054,65	39,00
-1046,28	75,00
-1037,92	-34,00
-1029,58	121,00
-1021,24	45,00
-1012,92	256,00
-1004,61	275,00
-996,30	30,00
-988,01	6,00
-979,73	195,00
-971,46	13,00
-963,20	98,00
-954,95	10,00
-946,71	40,00
-938,48	121,00
-930,26	15,00
-922,06	87,00
-913,86	165,00
-905,67	63,00
-897,49	29,00
-889,33	70,00
-881,17	179,00
-873,02	95,00
-864,89	39,00
-856,76	12,00
-848,65	108,00
-840,54	-64,00
-832,45	170,00
-824,36	71,00
-816,29	76,00
-808,22	1,00
-800,17	137,00
-792,12	20,00
-784,09	141,00
-776,06	28,00
-768,05	76,00
-760,04	149,00
-752,05	117,00
-744,07	129,00
-736,09	79,00
-728,13	191,00
-720,17	191,00
-712,23	80,00
-704,29	4,00
-696,37	30,00
-688,45	47,00
-680,55	37,00
-672,65	212,00
-664,77	2,00
-656,89	-8,00
-649,03	136,00
-641,17	70,00
-633,32	201,00
-625,49	120,00
-617,66	165,00
-609,84	36,00
-602,03	163,00
-594,23	222,00
-586,45	94,00
-578,67	168,00
-570,90	25,00
-563,14	152,00
-555,39	70,00
-547,65	60,00
-539,91	102,00
-532,19	140,00
-524,48	145,00
-516,78	120,00
-509,08	111,00
-501,40	135,00
-493,72	60,00
-486,06	39,00
-478,40	13,00
-470,76	20,00
-463,12	-52,00
-455,49	120,00
-447,87	72,00
-440,26	78,00
-432,66	70,00
-425,07	174,00
-417,49	52,00
-409,92	140,00
-402,35	-44,00
-394,80	218,00
-387,25	132,00
-379,72	-18,00
-372,19	87,00
-364,67	246,00
-357,17	100,00
-349,67	68,00
-342,18	293,00
-334,69	156,00
-327,22	57,00
-319,76	20,00
-312,30	130,00
-304,86	57,00
-297,42	98,00
-290,00	60,00
-282,58	16,00
-275,17	89,00
-267,77	143,00
-260,37	125,00
-252,99	125,00
-245,62	154,00
-238,25	0,00
-230,90	74,00
-223,55	330,00
-216,21	202,00
-208,88	135,00
-201,56	127,00
-194,25	231,00
-186,94	142,00
-179,65	248,00
-172,36	222,00
-165,08	203,00
-157,81	264,00
-150,55	186,00
-143,30	271,00
-136,06	259,00
-128,82	364,00
-121,60	386,00
-114,38	329,00
-107,17	219,00
-99,97	370,00
-92,78	549,00
-85,60	519,00
-78,42	796,00
-71,25	708,00
-64,10	952,00
-56,95	1193,00
-49,81	1246,00
-42,67	1548,00
-35,55	2028,00
-28,43	2553,00
-21,33	4592,00
-14,23	15518,00
-7,14	47266,00
-0,05	38051,00
7,02	42597,00
14,09	41034,00
21,14	11143,00
28,19	4952,00
35,23	3315,00
42,27	2358,00
49,29	2073,00
56,31	1694,00
63,32	1316,00
70,32	1190,00
77,31	1008,00
84,29	844,00
91,27	714,00
98,23	713,00
105,19	595,00
112,14	784,00
119,09	1068,00
126,02	1471,00
132,95	1703,00
139,87	1607,00
146,78	1599,00
153,68	1603,00
160,58	1516,00
167,46	1520,00
174,34	1537,00
181,21	1312,00
188,08	1560,00
194,93	1412,00
201,78	1474,00
208,62	1475,00
215,45	1322,00
222,27	1509,00
229,09	1194,00
235,90	1441,00
242,70	1331,00
249,49	1348,00
256,27	1359,00
263,05	1393,00
269,82	1206,00
276,58	1319,00
283,33	1263,00
290,08	1450,00
296,82	1289,00
303,55	1015,00
310,27	1217,00
316,98	1168,00
323,69	1234,00
330,39	1229,00
337,08	1145,00
343,76	1144,00
350,44	1217,00
357,11	1090,00
363,77	1242,00
370,42	1159,00
377,07	1101,00
383,71	1060,00
390,34	1204,00
396,96	1245,00
403,58	989,00
410,19	1139,00
416,79	1073,00
423,38	1120,00
429,97	1074,00
436,55	1123,00
443,12	1095,00
449,68	1155,00
456,24	1069,00
462,79	1081,00
469,33	930,00
475,86	931,00
482,39	1011,00
488,91	965,00
495,42	824,00
501,93	1106,00
508,42	1021,00
514,91	996,00
521,40	961,00
527,87	1020,00
534,34	934,00
540,80	1001,00
547,25	829,00
553,70	925,00
560,14	916,00
566,57	839,00
573,00	889,00
579,41	874,00
585,83	952,00
592,23	969,00
598,62	966,00
605,01	759,00
611,40	910,00
617,77	1035,00
624,14	848,00
630,50	936,00
636,85	852,00
643,20	856,00
649,54	896,00
655,87	916,00
662,20	768,00
668,52	840,00
674,83	832,00
681,13	869,00
687,43	786,00
693,72	868,00
700,00	902,00
706,28	913,00
712,55	892,00
718,81	990,00
725,07	858,00
731,32	758,00
737,56	1067,00
743,79	804,00
750,02	927,00
756,24	888,00
762,46	778,00
768,67	938,00
774,87	958,00
781,06	923,00
787,25	843,00
793,43	886,00
799,60	830,00
805,77	917,00
811,93	910,00
818,08	888,00
824,23	868,00
830,37	857,00
836,50	949,00
842,63	862,00
848,75	928,00
854,87	890,00
860,97	852,00
867,07	1024,00
873,17	997,00
879,25	771,00
885,33	947,00
891,41	840,00
897,47	760,00
903,53	813,00
909,59	805,00
915,63	980,00
921,67	803,00
927,71	773,00
933,74	784,00
939,76	812,00
945,77	878,00
951,78	1024,00
957,78	739,00
963,78	856,00
969,77	732,00
975,75	794,00
981,72	757,00
987,69	775,00
993,66	843,00
999,61	839,00
1005,56	898,00
1011,51	769,00
1017,44	758,00
1023,37	780,00
1029,30	819,00
1035,22	801,00
1041,13	992,00
1047,03	1037,00
1052,93	1252,00
1058,83	1668,00
1064,71	1789,00
1070,59	1492,00
1076,47	1138,00
1082,33	1148,00
1088,20	1048,00
1094,05	1011,00
1099,90	979,00
1105,74	992,00
1111,58	885,00
1117,41	1148,00
1123,23	1660,00
1129,05	1854,00
1134,86	1733,00
1140,67	1352,00
1146,47	1208,00
1152,26	874,00
1158,05	905,00
1163,83	940,00
1169,60	942,00
1175,37	1066,00
1181,13	827,00
1186,89	847,00
1192,64	799,00
1198,38	873,00
1204,12	811,00
1209,85	861,00
1215,58	905,00
1221,30	720,00
1227,02	821,00
1232,72	738,00
1238,43	840,00
1244,12	827,00
1249,81	928,00
1255,50	926,00
1261,17	1027,00
1266,85	959,00
1272,51	956,00
1278,17	1101,00
1283,83	1283,00
1289,47	1945,00
1295,12	2375,00
1300,75	2130,00
1306,38	1642,00
1312,01	1352,00
1317,63	1108,00
1323,24	1111,00
1328,85	1018,00
1334,45	1006,00
1340,04	889,00
1345,63	1000,00
1351,22	1016,00
1356,80	936,00
1362,37	1129,00
1367,93	1181,00
1373,49	1076,00
1379,05	991,00
1384,60	1082,00
1390,14	1052,00
1395,68	1049,00
1401,21	1011,00
1406,74	1081,00
1412,26	1425,00
1417,77	1518,00
1423,28	1537,00
1428,78	1737,00
1434,28	1875,00
1439,77	2429,00
1445,26	2368,00
1450,74	2147,00
1456,22	1885,00
1461,68	1886,00
1467,15	1697,00
1472,61	1575,00
1478,06	1454,00
1483,51	1153,00
1488,95	1180,00
1494,38	1057,00
1499,81	929,00
1505,24	812,00
1510,65	882,00
1516,07	879,00
1521,48	845,00
1526,88	887,00
1532,27	847,00
1537,67	967,00
1543,05	808,00
1548,43	660,00
1553,81	752,00
1559,18	823,00
1564,54	752,00
1569,90	802,00
1575,25	707,00
1580,60	820,00
1585,94	703,00
1591,28	792,00
1596,61	787,00
1601,93	746,00
1607,25	702,00
1612,57	718,00
1617,88	876,00
1623,18	744,00
1628,48	833,00
1633,77	771,00
1639,06	870,00
1644,34	754,00
1649,62	671,00
1654,89	749,00
1660,16	725,00
1665,42	815,00
1670,67	716,00
1675,92	780,00
1681,17	793,00
1686,41	747,00
1691,64	709,00
1696,87	755,00
1702,10	656,00
1707,32	594,00
1712,53	687,00
1717,74	656,00
1722,94	575,00
1728,14	688,00
1733,33	679,00
1738,52	736,00
1743,70	649,00
1748,88	626,00
1754,05	744,00
1759,22	558,00
1764,38	648,00
1769,53	552,00
1774,69	642,00
1779,83	685,00
1784,97	558,00
1790,11	674,00
1795,24	640,00
1800,36	729,00
1805,48	735,00
1810,60	646,00
1815,71	666,00
1820,82	639,00
1825,92	571,00
1831,01	667,00
1836,10	654,00
1841,19	649,00
1846,26	628,00
1851,34	672,00
1856,41	653,00
1861,47	631,00
1866,53	519,00
1871,59	527,00
1876,64	676,00
1881,68	625,00
1886,72	645,00
1891,76	564,00
1896,79	734,00
1901,81	647,00
1906,83	599,00
1911,85	646,00
1916,86	625,00
1921,86	612,00
1926,86	520,00
1931,86	659,00
1936,85	600,00
1941,83	569,00
1946,81	604,00
1951,79	623,00
1956,76	501,00
1961,72	690,00
1966,68	445,00
1971,64	507,00
1976,59	560,00
1981,54	450,00
1986,48	568,00
1991,42	563,00
1996,35	573,00
2001,27	407,00
2006,20	712,00
2011,11	675,00
2016,03	541,00
2020,93	590,00
2025,84	426,00
2030,73	581,00
2035,63	485,00
2040,52	517,00
2045,40	513,00
2050,28	466,00
2055,15	529,00
2060,02	559,00
2064,89	564,00
2069,75	504,00
2074,60	601,00
2079,46	341,00
2084,30	633,00
2089,14	549,00
2093,98	538,00
2098,81	529,00
2103,64	538,00
2108,46	559,00
2113,28	541,00
2118,09	423,00
2122,90	495,00
2127,70	573,00
2132,50	501,00
2137,30	449,00
2142,09	588,00
2146,87	490,00
2151,66	494,00
2156,43	498,00
2161,20	552,00
2165,97	531,00
2170,73	565,00
2175,49	539,00
2180,24	491,00
2184,99	355,00
2189,74	534,00
2194,48	568,00
2199,21	510,00
2203,94	420,00
2208,67	592,00
2213,39	410,00
2218,11	509,00
2222,82	544,00
2227,53	504,00
2232,23	503,00
2236,93	504,00
2241,63	516,00
2246,32	503,00
2251,00	533,00
2255,68	454,00
2260,36	535,00
2265,03	540,00
2269,70	451,00
2274,36	485,00
2279,02	326,00
2283,68	536,00
2288,33	471,00
2292,97	437,00
2297,61	555,00
2302,25	412,00
2306,88	494,00
2311,51	519,00
2316,14	422,00
2320,75	532,00
2325,37	378,00
2329,98	420,00
2334,59	410,00
2339,19	471,00
2343,79	433,00
2348,38	474,00
2352,97	510,00
2357,55	531,00
2362,13	411,00
2366,71	423,00
2371,28	438,00
2375,85	462,00
2380,41	392,00
2384,97	398,00
2389,52	389,00
2394,07	406,00
2398,62	376,00
2403,16	460,00
2407,70	377,00
2412,23	479,00
2416,76	455,00
2421,29	415,00
2425,81	522,00
2430,32	463,00
2434,84	288,00
2439,34	505,00
2443,85	398,00
2448,35	575,00
2452,84	404,00
2457,33	474,00
2461,82	334,00
2466,30	463,00
2470,78	533,00
2475,25	367,00
2479,72	421,00
2484,19	446,00
2488,65	493,00
2493,11	401,00
2497,56	294,00
2502,01	359,00
2506,46	379,00
2510,90	428,00
2515,34	335,00
2519,77	381,00
2524,20	461,00
2528,62	493,00
2533,04	503,00
2537,46	438,00
2541,87	382,00
2546,28	432,00
2550,68	393,00
2555,08	391,00
2559,48	383,00
2563,87	429,00
2568,26	336,00
2572,64	353,00
2577,02	440,00
2581,40	519,00
2585,77	380,00
2590,14	245,00
2594,50	432,00
2598,86	401,00
2603,22	404,00
2607,57	345,00
2611,92	442,00
2616,26	491,00
2620,60	427,00
2624,94	435,00
2629,27	492,00
2633,60	441,00
2637,92	430,00
2642,24	339,00
2646,56	453,00
2650,87	484,00
2655,18	432,00
2659,48	457,00
2663,78	468,00
2668,08	488,00
2672,37	456,00
2676,66	440,00
2680,95	374,00
2685,23	388,00
2689,50	480,00
2693,78	326,00
2698,05	499,00
2702,31	472,00
2706,57	484,00
2710,83	502,00
2715,08	392,00
2719,33	566,00
2723,58	646,00
2727,82	508,00
2732,06	588,00
2736,29	511,00
2740,53	590,00
2744,75	475,00
2748,97	561,00
2753,19	538,00
2757,41	435,00
2761,62	409,00
2765,83	530,00
2770,03	525,00
2774,23	424,00
2778,43	586,00
2782,62	520,00
2786,81	469,00
2791,00	523,00
2795,18	552,00
2799,35	523,00
2803,53	587,00
2807,70	613,00
2811,86	616,00
2816,03	673,00
2820,19	627,00
2824,34	815,00
2828,49	853,00
2832,64	1071,00
2836,78	1256,00
2840,92	1648,00
2845,06	1906,00
2849,19	2211,00
2853,32	2292,00
2857,45	2188,00
2861,57	2121,00
2865,69	2044,00
2869,80	1963,00
2873,91	2118,00
2878,02	2152,00
2882,12	2451,00
2886,22	2432,00
2890,32	2216,00
2894,41	2089,00
2898,50	1832,00
2902,58	1768,00
2906,67	1622,00
2910,74	1477,00
2914,82	1382,00
2918,89	1335,00
2922,96	1181,00
2927,02	1158,00
2931,08	1094,00
2935,13	944,00
2939,19	905,00
2943,24	808,00
2947,28	667,00
2951,32	730,00
2955,36	617,00
2959,40	584,00
2963,43	454,00
2967,46	523,00
2971,48	391,00
2975,50	551,00
2979,52	415,00
2983,53	359,00
2987,54	415,00
2991,55	351,00
2995,55	407,00
2999,55	408,00
3003,54	414,00
3007,54	313,00
3011,53	349,00
3015,51	311,00
3019,49	209,00
3023,47	271,00
3027,45	362,00
3031,42	297,00
3035,39	313,00
3039,35	282,00
3043,31	343,00
3047,27	354,00
3051,22	242,00
3055,17	255,00
3059,12	190,00
3063,06	304,00
3067,00	196,00
3070,94	245,00
3074,87	231,00
3078,80	307,00
3082,73	313,00
3086,65	208,00
3090,57	223,00
3094,49	211,00
3098,40	189,00
3102,31	338,00
3106,22	316,00
3110,12	318,00
3114,02	127,00
3117,92	314,00
3121,81	240,00
3125,70	88,00
3129,58	224,00
3133,47	222,00
3137,34	136,00
3141,22	301,00
3145,09	339,00
3148,96	155,00
3152,83	229,00
3156,69	176,00
3160,55	152,00
3164,40	120,00
3168,26	103,00
3172,10	236,00
3175,95	117,00
3179,79	68,00
3183,63	228,00
3187,47	339,00
3191,30	223,00
3195,13	233,00
3198,95	19,00
3202,78	228,00
3206,60	176,00
3210,41	222,00
3214,23	151,00
3218,03	153,00
3221,84	36,00
3225,64	195,00
3229,44	213,00
3233,24	58,00
3237,03	306,00
3240,82	122,00
3244,61	108,00
3248,39	167,00
3252,17	329,00
3255,95	194,00
3259,72	247,00
3263,49	23,00
3267,26	254,00
3271,03	154,00
3274,79	55,00
3278,54	164,00
3282,30	185,00
3286,05	156,00
3289,80	85,00
3293,54	108,00
3297,29	127,00
3301,02	168,00
3304,76	129,00
3308,49	165,00
3312,22	58,00
3315,95	69,00
3319,67	337,00
3323,39	180,00
3327,10	196,00
3330,82	112,00
3334,53	193,00
3338,24	155,00
3341,94	210,00
3345,64	97,00
3349,34	118,00
3353,03	91,00
3356,72	191,00
3360,41	140,00
3364,10	304,00
3367,78	46,00
3371,46	140,00
3375,13	83,00
3378,81	94,00
3382,48	85,00
3386,14	45,00
3389,81	90,00
3393,47	208,00
3397,12	125,00
3400,78	166,00
3404,43	183,00
3408,08	173,00
3411,72	168,00
3415,36	180,00
3419,00	137,00
3422,64	135,00
3426,27	128,00
3429,90	96,00
3433,53	111,00
3437,15	175,00
3440,77	194,00
3444,39	170,00
3448,00	72,00
3451,62	139,00
3455,22	235,00
3458,83	134,00
3462,43	119,00
3466,03	-12,00
3469,63	134,00
3473,22	67,00
3476,81	114,00
3480,40	20,00
3483,99	-14,00
3487,57	32,00
3491,15	53,00
3494,72	53,00
3498,29	147,00
3501,86	96,00
3505,43	29,00
3508,99	82,00
3512,56	195,00
3516,11	210,00
3519,67	2,00
3523,22	142,00
3526,77	84,00
3530,32	192,00
3533,86	100,00
3537,40	153,00
3540,94	49,00
3544,47	157,00
3548,00	140,00
3551,53	118,00
3555,06	13,00
3558,58	94,00
3562,10	99,00
3565,62	172,00
3569,13	118,00
3572,64	24,00
3576,15	74,00
3579,66	64,00
3583,16	43,00
3586,66	-25,00
3590,16	124,00
3593,65	56,00
3597,14	4,00
3600,63	133,00
3604,11	183,00
3607,60	159,00
3611,08	47,00
3614,55	-66,00
3618,03	90,00
3621,50	94,00
3624,97	72,00
3628,43	108,00
3631,90	93,00
3635,36	124,00
3638,81	34,00
3642,27	36,00
3645,72	152,00
3649,17	77,00
3652,61	5,00
3656,06	168,00
3659,50	37,00
3662,93	60,00
3666,37	89,00
3669,80	49,00
3673,23	204,00
3676,65	165,00
3680,08	174,00
3683,50	-19,00
3686,92	216,00
3690,33	70,00
3693,74	146,00
3697,15	125,00
3700,56	10,00
3703,96	52,00
3707,36	-27,00
3710,76	-15,00
3714,16	70,00
3717,55	6,00
3720,94	119,00
3724,33	54,00
3727,71	45,00
3731,10	91,00
3734,48	34,00
3737,85	128,00
3741,23	9,00
3744,60	136,00
3747,97	45,00
3751,33	111,00
3754,69	94,00
3758,05	164,00
3761,41	38,00
3764,77	151,00
3768,12	86,00
3771,47	86,00
3774,82	19,00
3778,16	-6,00
3781,50	2,00
3784,84	2,00
3788,18	3,00
>>>>>End Processed Spectral Data<<<<<
