SpectraSuite Data File
++++++++++++++++++++++++++++++++++++
Date: Tue Mar 03 12:34:46 ICT 2026
User: user
Dark Spectrum Present: Yes
Reference Spectrum Present: No
Number of Sampled Component Spectra: 1
Spectrometers: MAYP113682
Integration Time (usec): 3000000 (MAYP113682)
Spectra Averaged: 1 (MAYP113682)
Boxcar Smoothing: 0 (MAYP113682)
Correct for Electrical Dark: No (MAYP113682)
Strobe/Lamp Enabled: No (MAYP113682)
Correct for Detector Non-linearity: No (MAYP113682)
Correct for Stray Light: No (MAYP113682)
Number of Pixels in Processed Spectrum: 2068
>>>>>Begin Processed Spectral Data<<<<<
-37534,58	6,00
-37414,56	-5,00
-37295,11	-3,00
-37176,24	-5,00
-37057,95	-32,00
-36940,22	24,00
-36823,05	15,00
-36706,45	22,00
-36590,40	101,00
-36474,90	65,00
-36359,95	-23,00
-36245,55	179,00
-36131,68	26,00
-36018,35	116,00
-35905,55	120,00
-35793,29	112,00
-35681,54	-2,00
-35570,32	47,00
-35459,62	-1,00
-35349,43	72,00
-35239,75	185,00
-35130,58	102,00
-35021,91	0,00
-34913,74	90,00
-34806,07	139,00
-34698,89	174,00
-34592,20	-36,00
-34486,00	64,00
-34380,28	-39,00
-34275,04	38,00
-34170,27	-27,00
-34065,98	-53,00
-33962,16	41,00
-33858,81	96,00
-33755,92	132,00
-33653,49	79,00
-33551,52	61,00
-33450,01	-103,00
-33348,94	76,00
-33248,33	-10,00
-33148,16	97,00
-33048,43	17,00
-32949,14	149,00
-32850,29	141,00
-32751,87	216,00
-32653,89	107,00
-32556,33	92,00
-32459,20	-22,00
-32362,49	38,00
-32266,19	45,00
-32170,32	22,00
-32074,86	-17,00
-31979,82	51,00
-31885,18	-26,00
-31790,95	-44,00
-31697,12	22,00
-31603,69	-25,00
-31510,67	146,00
-31418,04	79,00
-31325,80	70,00
-31233,95	77,00
-31142,49	139,00
-31051,42	80,00
-30960,73	26,00
-30870,43	196,00
-30780,50	91,00
-30690,95	40,00
-30601,77	71,00
-30512,97	113,00
-30424,53	156,00
-30336,46	56,00
-30248,76	46,00
-30161,42	196,00
-30074,44	214,00
-29987,81	57,00
-29901,55	55,00
-29815,63	-57,00
-29730,07	-58,00
-29644,86	48,00
-29560,00	119,00
-29475,48	23,00
-29391,30	52,00
-29307,47	40,00
-29223,97	31,00
-29140,81	27,00
-29057,99	116,00
-28975,50	129,00
-28893,34	30,00
-28811,51	117,00
-28730,00	121,00
-28648,82	-28,00
-28567,97	75,00
-28487,43	96,00
-28407,21	52,00
-28327,32	-49,00
-28247,73	40,00
-28168,46	76,00
-28089,50	98,00
-28010,85	73,00
-27932,51	44,00
-27854,48	-47,00
-27776,75	-2,00
-27699,32	-15,00
-27622,19	204,00
-27545,37	101,00
-27468,84	92,00
-27392,60	142,00
-27316,66	61,00
-27241,01	-31,00
-27165,66	97,00
-27090,59	-8,00
-27015,81	227,00
-26941,31	171,00
-26867,10	139,00
-26793,17	92,00
-26719,52	-44,00
-26646,15	92,00
-26573,06	132,00
-26500,24	61,00
-26427,70	69,00
-26355,43	77,00
-26283,43	-17,00
-26211,71	47,00
-26140,25	-9,00
-26069,06	134,00
-25998,13	-111,00
-25927,46	100,00
-25857,06	108,00
-25786,92	42,00
-25717,04	-23,00
-25647,42	31,00
-25578,05	32,00
-25508,94	-23,00
-25440,09	148,00
-25371,48	45,00
-25303,13	9,00
-25235,02	93,00
-25167,17	162,00
-25099,56	184,00
-25032,19	72,00
-24965,07	38,00
-24898,20	-9,00
-24831,56	141,00
-24765,17	101,00
-24699,01	136,00
-24633,10	-5,00
-24567,41	54,00
-24501,97	178,00
-24436,75	-44,00
-24371,77	91,00
-24307,03	-49,00
-24242,51	41,00
-24178,22	-16,00
-24114,16	-32,00
-24050,32	61,00
-23986,71	13,00
-23923,32	-18,00
-23860,16	0,00
-23797,22	57,00
-23734,50	61,00
-23672,00	102,00
-23609,71	264,00
-23547,65	-15,00
-23485,80	97,00
-23424,16	22,00
-23362,74	101,00
-23301,53	22,00
-23240,54	24,00
-23179,75	78,00
-23119,17	92,00
-23058,80	216,00
-22998,64	56,00
-22938,68	40,00
-22878,93	-66,00
-22819,39	110,00
-22760,04	-21,00
-22700,90	-6,00
-22641,96	28,00
-22583,22	95,00
-22524,68	79,00
-22466,33	0,00
-22408,19	96,00
-22350,23	98,00
-22292,48	82,00
-22234,92	51,00
-22177,55	167,00
-22120,37	5,00
-22063,38	73,00
-22006,58	4,00
-21949,98	73,00
-21893,56	187,00
-21837,33	81,00
-21781,28	92,00
-21725,42	22,00
-21669,74	131,00
-21614,25	177,00
-21558,94	98,00
-21503,81	170,00
-21448,86	118,00
-21394,10	92,00
-21339,51	124,00
-21285,10	-6,00
-21230,86	-20,00
-21176,81	152,00
-21122,93	151,00
-21069,22	126,00
-21015,69	-27,00
-20962,33	23,00
-20909,14	29,00
-20856,13	97,00
-20803,28	5,00
-20750,61	85,00
-20698,10	26,00
-20645,76	51,00
-20593,59	137,00
-20541,59	51,00
-20489,75	3,00
-20438,07	4,00
-20386,56	170,00
-20335,22	91,00
-20284,03	69,00
-20233,01	-66,00
-20182,15	40,00
-20131,45	16,00
-20080,91	34,00
-20030,52	56,00
-19980,30	39,00
-19930,23	-3,00
-19880,32	55,00
-19830,56	177,00
-19780,96	-34,00
-19731,52	52,00
-19682,23	-61,00
-19633,09	70,00
-19584,10	141,00
-19535,26	158,00
-19486,58	-19,00
-19438,04	21,00
-19389,66	34,00
-19341,42	60,00
-19293,33	-27,00
-19245,39	79,00
-19197,60	123,00
-19149,95	160,00
-19102,45	-21,00
-19055,09	164,00
-19007,87	96,00
-18960,80	187,00
-18913,87	40,00
-18867,09	-52,00
-18820,44	68,00
-18773,94	43,00
-18727,57	-18,00
-18681,35	177,00
-18635,26	30,00
-18589,31	74,00
-18543,50	4,00
-18497,83	16,00
-18452,29	11,00
-18406,89	141,00
-18361,63	83,00
-18316,50	-17,00
-18271,50	-35,00
-18226,63	306,00
-18181,90	94,00
-18137,30	142,00
-18092,84	104,00
-18048,50	38,00
-18004,29	19,00
-17960,22	136,00
-17916,27	-33,00
-17872,45	77,00
-17828,76	11,00
-17785,20	127,00
-17741,77	64,00
-17698,46	81,00
-17655,28	96,00
-17612,22	-47,00
-17569,29	163,00
-17526,48	13,00
-17483,79	3,00
-17441,23	67,00
-17398,79	68,00
-17356,48	98,00
-17314,28	50,00
-17272,21	96,00
-17230,26	84,00
-17188,42	214,00
-17146,71	129,00
-17105,12	45,00
-17063,64	21,00
-17022,28	86,00
-16981,04	-50,00
-16939,92	179,00
-16898,91	-42,00
-16858,02	-23,00
-16817,25	80,00
-16776,59	207,00
-16736,04	98,00
-16695,61	7,00
-16655,29	81,00
-16615,09	-37,00
-16574,99	58,00
-16535,01	56,00
-16495,15	14,00
-16455,39	31,00
-16415,74	52,00
-16376,21	-25,00
-16336,78	15,00
-16297,46	39,00
-16258,26	117,00
-16219,16	-19,00
-16180,17	146,00
-16141,28	96,00
-16102,51	-29,00
-16063,84	48,00
-16025,27	90,00
-15986,82	43,00
-15948,46	-98,00
-15910,22	105,00
-15872,07	117,00
-15834,04	-46,00
-15796,10	17,00
-15758,27	32,00
-15720,54	84,00
-15682,91	30,00
-15645,39	-55,00
-15607,97	-8,00
-15570,64	40,00
-15533,42	0,00
-15496,30	58,00
-15459,28	126,00
-15422,36	89,00
-15385,54	59,00
-15348,82	213,00
-15312,19	46,00
-15275,66	5,00
-15239,23	14,00
-15202,90	52,00
-15166,67	115,00
-15130,53	-46,00
-15094,48	71,00
-15058,54	57,00
-15022,68	69,00
-14986,93	91,00
-14951,26	89,00
-14915,69	-3,00
-14880,22	0,00
-14844,84	-30,00
-14809,55	21,00
-14774,35	3,00
-14739,25	114,00
-14704,24	-22,00
-14669,32	37,00
-14634,49	162,00
-14599,75	159,00
-14565,10	219,00
-14530,55	82,00
-14496,08	55,00
-14461,70	169,00
-14427,41	-22,00
-14393,21	28,00
-14359,10	25,00
-14325,07	113,00
-14291,14	162,00
-14257,29	-18,00
-14223,52	61,00
-14189,85	-57,00
-14156,26	98,00
-14122,76	32,00
-14089,34	124,00
-14056,01	164,00
-14022,76	108,00
-13989,60	72,00
-13956,52	111,00
-13923,53	131,00
-13890,62	94,00
-13857,79	144,00
-13825,05	27,00
-13792,39	141,00
-13759,81	126,00
-13727,31	80,00
-13694,90	-16,00
-13662,57	173,00
-13630,31	110,00
-13598,14	41,00
-13566,05	94,00
-13534,05	10,00
-13502,12	91,00
-13470,27	103,00
-13438,50	14,00
-13406,80	204,00
-13375,19	-49,00
-13343,66	-2,00
-13312,20	87,00
-13280,83	117,00
-13249,53	49,00
-13218,30	34,00
-13187,16	-59,00
-13156,09	16,00
-13125,10	10,00
-13094,18	124,00
-13063,34	-27,00
-13032,58	26,00
-13001,89	-108,00
-12971,28	35,00
-12940,74	70,00
-12910,27	125,00
-12879,88	11,00
-12849,57	95,00
-12819,33	52,00
-12789,16	80,00
-12759,06	123,00
-12729,04	21,00
-12699,09	5,00
-12669,21	100,00
-12639,41	-50,00
-12609,68	48,00
-12580,02	25,00
-12550,43	24,00
-12520,91	101,00
-12491,46	-54,00
-12462,08	57,00
-12432,77	54,00
-12403,54	3,00
-12374,37	59,00
-12345,27	-83,00
-12316,24	136,00
-12287,29	8,00
-12258,40	-8,00
-12229,57	135,00
-12200,82	112,00
-12172,14	-36,00
-12143,52	32,00
-12114,97	141,00
-12086,49	45,00
-12058,07	-4,00
-12029,73	-127,00
-12001,44	20,00
-11973,23	57,00
-11945,08	-6,00
-11917,00	58,00
-11888,98	205,00
-11861,03	59,00
-11833,15	81,00
-11805,32	72,00
-11777,57	50,00
-11749,88	90,00
-11722,25	122,00
-11694,69	26,00
-11667,19	77,00
-11639,75	120,00
-11612,38	94,00
-11585,07	70,00
-11557,83	138,00
-11530,65	2,00
-11503,53	159,00
-11476,47	144,00
-11449,48	6,00
-11422,54	-21,00
-11395,67	113,00
-11368,86	95,00
-11342,11	-5,00
-11315,43	112,00
-11288,80	133,00
-11262,23	209,00
-11235,73	131,00
-11209,28	13,00
-11182,90	28,00
-11156,57	1,00
-11130,31	112,00
-11104,10	192,00
-11077,96	66,00
-11051,87	127,00
-11025,84	36,00
-10999,87	63,00
-10973,96	53,00
-10948,11	28,00
-10922,31	-50,00
-10896,58	105,00
-10870,90	108,00
-10845,28	160,00
-10819,71	48,00
-10794,20	115,00
-10768,75	151,00
-10743,36	216,00
-10718,02	130,00
-10692,74	140,00
-10667,52	62,00
-10642,35	83,00
-10617,24	176,00
-10592,18	154,00
-10567,18	234,00
-10542,23	138,00
-10517,34	218,00
-10492,51	123,00
-10467,72	262,00
-10443,00	117,00
-10418,32	225,00
-10393,70	160,00
-10369,14	187,00
-10344,63	314,00
-10320,17	246,00
-10295,77	244,00
-10271,42	295,00
-10247,12	148,00
-10222,88	315,00
-10198,68	382,00
-10174,54	290,00
-10150,46	507,00
-10126,42	353,00
-10102,44	499,00
-10078,51	375,00
-10054,63	590,00
-10030,80	426,00
-10007,03	476,00
-9983,30	393,00
-9959,63	513,00
-9936,01	695,00
-9912,44	590,00
-9888,92	611,00
-9865,44	546,00
-9842,02	715,00
-9818,65	666,00
-9795,33	641,00
-9772,06	750,00
-9748,84	776,00
-9725,67	714,00
-9702,55	1005,00
-9679,47	1273,00
-9656,45	1339,00
-9633,47	1321,00
-9610,55	1306,00
-9587,67	1372,00
-9564,84	1536,00
-9542,06	1579,00
-9519,32	1904,00
-9496,64	2019,00
-9474,00	2266,00
-9451,41	2139,00
-9428,87	2196,00
-9406,37	2215,00
-9383,92	1850,00
-9361,52	1875,00
-9339,17	1910,00
-9316,86	2176,00
-9294,60	2547,00
-9272,38	2665,00
-9250,21	2831,00
-9228,09	2986,00
-9206,01	2820,00
-9183,98	2565,00
-9162,00	2211,00
-9140,06	2103,00
-9118,16	2025,00
-9096,31	2281,00
-9074,51	2287,00
-9052,75	2212,00
-9031,04	2027,00
-9009,37	1896,00
-8987,74	1666,00
-8966,16	1503,00
-8944,63	1440,00
-8923,14	1199,00
-8901,69	1488,00
-8880,29	1548,00
-8858,93	1824,00
-8837,61	1919,00
-8816,34	2026,00
-8795,11	2136,00
-8773,92	2019,00
-8752,78	1628,00
-8731,68	1592,00
-8710,62	1663,00
-8689,61	1599,00
-8668,63	1793,00
-8647,70	2020,00
-8626,82	1892,00
-8605,97	1755,00
-8585,17	1653,00
-8564,41	1587,00
-8543,69	1533,00
-8523,01	1295,00
-8502,37	1480,00
-8481,78	1476,00
-8461,23	1520,00
-8440,71	1753,00
-8420,24	1818,00
-8399,81	1861,00
-8379,42	1881,00
-8359,08	1719,00
-8338,77	1415,00
-8318,50	1534,00
-8298,27	1333,00
-8278,09	1554,00
-8257,94	1384,00
-8237,83	1680,00
-8217,76	1656,00
-8197,74	1688,00
-8177,75	1732,00
-8157,80	1566,00
-8137,89	1429,00
-8118,02	1433,00
-8098,19	1369,00
-8078,40	1355,00
-8058,65	1439,00
-8038,93	1563,00
-8019,26	1431,00
-7999,62	1314,00
-7980,02	1373,00
-7960,46	1270,00
-7940,94	1452,00
-7921,46	1272,00
-7902,01	1224,00
-7882,60	1259,00
-7863,23	1181,00
-7843,90	1429,00
-7824,61	1422,00
-7805,35	1451,00
-7786,13	1600,00
-7766,95	1468,00
-7747,80	1092,00
-7728,69	1423,00
-7709,62	1238,00
-7690,59	1436,00
-7671,59	1383,00
-7652,63	1529,00
-7633,70	1588,00
-7614,81	1415,00
-7595,96	1332,00
-7577,15	1286,00
-7558,37	1068,00
-7539,62	1350,00
-7520,91	1379,00
-7502,24	1420,00
-7483,60	1376,00
-7465,00	1295,00
-7446,44	1152,00
-7427,91	1131,00
-7409,41	1003,00
-7390,95	866,00
-7372,53	990,00
-7354,14	1034,00
-7335,78	928,00
-7317,46	971,00
-7299,18	1180,00
-7280,92	1315,00
-7262,71	1212,00
-7244,52	1520,00
-7226,38	1416,00
-7208,26	1461,00
-7190,18	1369,00
-7172,14	1256,00
-7154,12	1386,00
-7136,15	1481,00
-7118,20	1541,00
-7100,29	1483,00
-7082,41	1446,00
-7064,57	1287,00
-7046,76	1296,00
-7028,98	1048,00
-7011,24	1061,00
-6993,53	898,00
-6975,85	805,00
-6958,20	692,00
-6940,59	716,00
-6923,01	720,00
-6905,46	1061,00
-6887,94	1036,00
-6870,46	1141,00
-6853,01	1308,00
-6835,59	1303,00
-6818,21	1180,00
-6800,85	834,00
-6783,53	710,00
-6766,24	721,00
-6748,98	565,00
-6731,76	515,00
-6714,56	555,00
-6697,40	482,00
-6680,26	576,00
-6663,16	791,00
-6646,09	873,00
-6629,05	972,00
-6612,05	1021,00
-6595,07	1012,00
-6578,13	938,00
-6561,21	839,00
-6544,33	570,00
-6527,47	436,00
-6510,65	465,00
-6493,86	505,00
-6477,10	496,00
-6460,36	428,00
-6443,66	398,00
-6426,99	360,00
-6410,35	516,00
-6393,74	480,00
-6377,16	531,00
-6360,61	673,00
-6344,09	707,00
-6327,59	814,00
-6311,13	790,00
-6294,70	811,00
-6278,29	790,00
-6261,92	757,00
-6245,58	1068,00
-6229,26	1126,00
-6212,97	837,00
-6196,72	673,00
-6180,49	536,00
-6164,29	511,00
-6148,12	390,00
-6131,98	270,00
-6115,86	299,00
-6099,78	375,00
-6083,72	189,00
-6067,69	285,00
-6051,69	332,00
-6035,72	257,00
-6019,78	399,00
-6003,87	533,00
-5987,98	792,00
-5972,12	644,00
-5956,29	602,00
-5940,49	541,00
-5924,71	496,00
-5908,96	270,00
-5893,24	211,00
-5877,55	272,00
-5861,89	367,00
-5846,25	443,00
-5830,64	439,00
-5815,05	305,00
-5799,50	247,00
-5783,97	371,00
-5768,47	360,00
-5752,99	323,00
-5737,55	725,00
-5722,12	730,00
-5706,73	761,00
-5691,36	611,00
-5676,02	373,00
-5660,71	273,00
-5645,42	293,00
-5630,16	339,00
-5614,92	245,00
-5599,71	518,00
-5584,53	432,00
-5569,37	609,00
-5554,24	379,00
-5539,14	411,00
-5524,06	231,00
-5509,01	518,00
-5493,98	529,00
-5478,98	366,00
-5464,00	491,00
-5449,05	342,00
-5434,13	311,00
-5419,23	341,00
-5404,36	274,00
-5389,51	427,00
-5374,69	664,00
-5359,89	733,00
-5345,12	907,00
-5330,37	780,00
-5315,65	564,00
-5300,95	574,00
-5286,28	441,00
-5271,63	340,00
-5257,01	459,00
-5242,41	531,00
-5227,84	439,00
-5213,29	407,00
-5198,76	130,00
-5184,26	291,00
-5169,79	305,00
-5155,33	390,00
-5140,91	384,00
-5126,51	480,00
-5112,13	499,00
-5097,77	438,00
-5083,44	439,00
-5069,13	244,00
-5054,85	366,00
-5040,59	394,00
-5026,36	357,00
-5012,15	514,00
-4997,96	433,00
-4983,80	301,00
-4969,66	180,00
-4955,54	329,00
-4941,44	372,00
-4927,37	550,00
-4913,33	652,00
-4899,30	646,00
-4885,30	616,00
-4871,33	485,00
-4857,37	204,00
-4843,44	160,00
-4829,53	186,00
-4815,65	477,00
-4801,79	237,00
-4787,95	324,00
-4774,13	280,00
-4760,34	360,00
-4746,56	134,00
-4732,82	368,00
-4719,09	365,00
-4705,38	453,00
-4691,70	653,00
-4678,04	738,00
-4664,41	369,00
-4650,79	335,00
-4637,20	341,00
-4623,63	259,00
-4610,08	336,00
-4596,56	325,00
-4583,05	350,00
-4569,57	380,00
-4556,11	19,00
-4542,67	107,00
-4529,25	168,00
-4515,86	363,00
-4502,49	456,00
-4489,13	584,00
-4475,80	430,00
-4462,49	267,00
-4449,21	196,00
-4435,94	197,00
-4422,70	235,00
-4409,47	275,00
-4396,27	349,00
-4383,09	236,00
-4369,93	230,00
-4356,79	167,00
-4343,67	238,00
-4330,58	324,00
-4317,50	142,00
-4304,45	296,00
-4291,41	245,00
-4278,40	225,00
-4265,41	6,00
-4252,44	222,00
-4239,49	329,00
-4226,55	307,00
-4213,65	219,00
-4200,76	246,00
-4187,89	171,00
-4175,04	51,00
-4162,21	199,00
-4149,40	71,00
-4136,61	26,00
-4123,85	43,00
-4111,10	232,00
-4098,37	121,00
-4085,66	112,00
-4072,98	128,00
-4060,31	119,00
-4047,66	197,00
-4035,04	194,00
-4022,43	94,00
-4009,84	-7,00
-3997,27	39,00
-3984,72	91,00
-3972,19	82,00
-3959,69	121,00
-3947,20	-26,00
-3934,73	0,00
-3922,27	60,00
-3909,84	67,00
-3897,43	36,00
-3885,04	-5,00
-3872,67	86,00
-3860,31	3,00
-3847,98	55,00
-3835,66	68,00
-3823,36	82,00
-3811,09	82,00
-3798,83	54,00
-3786,59	59,00
-3774,37	48,00
-3762,17	40,00
-3749,98	-18,00
-3737,82	94,00
-3725,67	186,00
-3713,55	17,00
-3701,44	104,00
-3689,35	243,00
-3677,28	-56,00
-3665,22	91,00
-3653,19	80,00
-3641,17	5,00
-3629,18	57,00
-3617,20	96,00
-3605,24	-40,00
-3593,30	4,00
-3581,37	36,00
-3569,47	132,00
-3557,58	119,00
-3545,71	68,00
-3533,86	72,00
-3522,02	144,00
-3510,21	9,00
-3498,41	153,00
-3486,63	-17,00
-3474,87	41,00
-3463,12	44,00
-3451,40	76,00
-3439,69	156,00
-3428,00	17,00
-3416,33	50,00
-3404,67	6,00
-3393,03	107,00
-3381,41	13,00
-3369,81	-32,00
-3358,22	18,00
-3346,66	53,00
-3335,10	-54,00
-3323,57	152,00
-3312,06	143,00
-3300,56	33,00
-3289,08	23,00
-3277,61	92,00
-3266,16	-26,00
-3254,73	78,00
-3243,32	83,00
-3231,92	14,00
-3220,55	36,00
-3209,18	67,00
-3197,84	36,00
-3186,51	-23,00
-3175,20	36,00
-3163,90	199,00
-3152,63	39,00
-3141,36	34,00
-3130,12	39,00
-3118,89	-10,00
-3107,68	98,00
-3096,49	78,00
-3085,31	49,00
-3074,15	108,00
-3063,00	78,00
-3051,87	133,00
-3040,76	68,00
-3029,67	127,00
-3018,59	90,00
-3007,52	200,00
-2996,48	99,00
-2985,44	126,00
-2974,43	132,00
-2963,43	134,00
-2952,45	-17,00
-2941,48	118,00
-2930,53	79,00
-2919,60	18,00
-2908,68	115,00
-2897,78	99,00
-2886,89	39,00
-2876,02	13,00
-2865,17	-7,00
-2854,33	38,00
-2843,50	-24,00
-2832,70	125,00
-2821,90	-102,00
-2811,13	-116,00
-2800,37	84,00
-2789,62	40,00
-2778,89	34,00
-2768,18	103,00
-2757,48	90,00
-2746,80	15,00
-2736,13	106,00
-2725,48	7,00
-2714,84	-37,00
-2704,22	1,00
-2693,61	116,00
-2683,02	60,00
-2672,45	-123,00
-2661,89	106,00
-2651,34	-34,00
-2640,81	-78,00
-2630,30	152,00
-2619,80	13,00
-2609,31	1,00
-2598,84	-92,00
-2588,39	74,00
-2577,95	-56,00
-2567,52	33,00
-2557,11	66,00
-2546,71	53,00
-2536,33	80,00
-2525,97	28,00
-2515,62	148,00
-2505,28	-25,00
-2494,96	119,00
-2484,65	-42,00
-2474,36	19,00
-2464,08	73,00
-2453,82	152,00
-2443,57	-53,00
-2433,33	64,00
-2423,11	15,00
-2412,91	-27,00
-2402,72	58,00
-2392,54	26,00
-2382,38	171,00
-2372,23	145,00
-2362,09	-5272,00
-2351,97	184,00
-2341,87	-82,00
-2331,78	77,00
-2321,70	153,00
-2311,64	198,00
-2301,59	69,00
-2291,55	124,00
-2281,53	48,00
-2271,53	127,00
-2261,53	80,00
-2251,55	-41,00
-2241,59	53,00
-2231,64	5,00
-2221,70	43,00
-2211,78	18,00
-2201,87	140,00
-2191,97	-71,00
-2182,09	-49,00
-2172,22	153,00
-2162,37	113,00
-2152,53	93,00
-2142,70	132,00
-2132,89	152,00
-2123,09	21,00
-2113,30	176,00
-2103,53	-111,00
-2093,77	-12,00
-2084,02	-74,00
-2074,29	135,00
-2064,57	99,00
-2054,86	176,00
-2045,17	-32,00
-2035,49	145,00
-2025,82	57,00
-2016,17	-25,00
-2006,53	-14,00
-1996,91	38,00
-1987,29	6,00
-1977,69	101,00
-1968,11	21,00
-1958,53	196,00
-1948,97	105,00
-1939,42	131,00
-1929,89	89,00
-1920,37	137,00
-1910,86	68,00
-1901,36	133,00
-1891,88	38,00
-1882,41	9,00
-1872,95	160,00
-1863,51	-40,00
-1854,08	145,00
-1844,66	91,00
-1835,26	85,00
-1825,86	57,00
-1816,48	109,00
-1807,11	-32,00
-1797,76	52,00
-1788,42	-11,00
-1779,09	124,00
-1769,77	-66,00
-1760,47	-21,00
-1751,17	86,00
-1741,89	28,00
-1732,63	60,00
-1723,37	-39,00
-1714,13	-27,00
-1704,90	-22,00
-1695,68	73,00
-1686,48	143,00
-1677,29	24,00
-1668,11	133,00
-1658,94	116,00
-1649,78	152,00
-1640,64	30,00
-1631,51	179,00
-1622,39	109,00
-1613,28	124,00
-1604,19	50,00
-1595,10	12,00
-1586,03	99,00
-1576,97	63,00
-1567,93	20,00
-1558,89	14,00
-1549,87	98,00
-1540,86	41,00
-1531,86	112,00
-1522,87	-58,00
-1513,90	78,00
-1504,93	113,00
-1495,98	-114,00
-1487,04	112,00
-1478,12	-20,00
-1469,20	119,00
-1460,30	53,00
-1451,40	101,00
-1442,52	38,00
-1433,65	109,00
-1424,80	184,00
-1415,95	68,00
-1407,12	170,00
-1398,30	30,00
-1389,48	79,00
-1380,69	57,00
-1371,90	122,00
-1363,12	141,00
-1354,36	48,00
-1345,60	86,00
-1336,86	72,00
-1328,13	146,00
-1319,41	98,00
-1310,70	111,00
-1302,01	50,00
-1293,32	70,00
-1284,65	75,00
-1275,99	180,00
-1267,33	8,00
-1258,69	135,00
-1250,06	146,00
-1241,45	73,00
-1232,84	196,00
-1224,25	-57,00
-1215,66	5,00
-1207,09	74,00
-1198,53	-7,00
-1189,97	-32,00
-1181,43	152,00
-1172,91	76,00
-1164,39	11,00
-1155,88	137,00
-1147,38	-83,00
-1138,90	90,00
-1130,43	27,00
-1121,96	16,00
-1113,51	21,00
-1105,07	96,00
-1096,64	219,00
-1088,22	101,00
-1079,81	125,00
-1071,41	35,00
-1063,02	17,00
-1054,65	-5,00
-1046,28	50,00
-1037,92	58,00
-1029,58	45,00
-1021,24	47,00
-1012,92	223,00
-1004,61	144,00
-996,30	15,00
-988,01	50,00
-979,73	229,00
-971,46	-44,00
-963,20	15,00
-954,95	103,00
-946,71	-61,00
-938,48	104,00
-930,26	-41,00
-922,06	5,00
-913,86	116,00
-905,67	131,00
-897,49	8,00
-889,33	172,00
-881,17	197,00
-873,02	58,00
-864,89	113,00
-856,76	-14,00
-848,65	98,00
-840,54	9,00
-832,45	17,00
-824,36	7,00
-816,29	42,00
-808,22	-118,00
-800,17	57,00
-792,12	27,00
-784,09	117,00
-776,06	-26,00
-768,05	2,00
-760,04	90,00
-752,05	140,00
-744,07	61,00
-736,09	129,00
-728,13	148,00
-720,17	98,00
-712,23	80,00
-704,29	-89,00
-696,37	95,00
-688,45	152,00
-680,55	16,00
-672,65	238,00
-664,77	43,00
-656,89	-7,00
-649,03	81,00
-641,17	-51,00
-633,32	172,00
-625,49	159,00
-617,66	56,00
-609,84	63,00
-602,03	39,00
-594,23	90,00
-586,45	86,00
-578,67	181,00
-570,90	116,00
-563,14	103,00
-555,39	46,00
-547,65	125,00
-539,91	-8,00
-532,19	179,00
-524,48	92,00
-516,78	40,00
-509,08	-1,00
-501,40	23,00
-493,72	-23,00
-486,06	59,00
-478,40	76,00
-470,76	113,00
-463,12	32,00
-455,49	34,00
-447,87	30,00
-440,26	78,00
-432,66	-1,00
-425,07	-42,00
-417,49	110,00
-409,92	115,00
-402,35	-80,00
-394,80	167,00
-387,25	7,00
-379,72	131,00
-372,19	117,00
-364,67	263,00
-357,17	69,00
-349,67	-17,00
-342,18	88,00
-334,69	168,00
-327,22	46,00
-319,76	21,00
-312,30	160,00
-304,86	121,00
-297,42	158,00
-290,00	96,00
-282,58	15,00
-275,17	84,00
-267,77	16,00
-260,37	114,00
-252,99	77,00
-245,62	72,00
-238,25	72,00
-230,90	77,00
-223,55	330,00
-216,21	122,00
-208,88	134,00
-201,56	118,00
-194,25	249,00
-186,94	102,00
-179,65	251,00
-172,36	221,00
-165,08	241,00
-157,81	404,00
-150,55	226,00
-143,30	315,00
-136,06	283,00
-128,82	392,00
-121,60	395,00
-114,38	414,00
-107,17	404,00
-99,97	439,00
-92,78	594,00
-85,60	480,00
-78,42	550,00
-71,25	683,00
-64,10	881,00
-56,95	1133,00
-49,81	1202,00
-42,67	1590,00
-35,55	1864,00
-28,43	2602,00
-21,33	4621,00
-14,23	15694,00
-7,14	47266,00
-0,05	38051,00
7,02	42597,00
14,09	41621,00
21,14	11056,00
28,19	4912,00
35,23	3243,00
42,27	2285,00
49,29	2100,00
56,31	1671,00
63,32	1293,00
70,32	1219,00
77,31	988,00
84,29	949,00
91,27	680,00
98,23	699,00
105,19	744,00
112,14	775,00
119,09	943,00
126,02	1603,00
132,95	1621,00
139,87	1838,00
146,78	1717,00
153,68	1607,00
160,58	1508,00
167,46	1651,00
174,34	1579,00
181,21	1483,00
188,08	1453,00
194,93	1504,00
201,78	1542,00
208,62	1545,00
215,45	1512,00
222,27	1562,00
229,09	1289,00
235,90	1605,00
242,70	1394,00
249,49	1524,00
256,27	1438,00
263,05	1331,00
269,82	1316,00
276,58	1386,00
283,33	1313,00
290,08	1515,00
296,82	1330,00
303,55	1183,00
310,27	1249,00
316,98	1264,00
323,69	1245,00
330,39	1275,00
337,08	1211,00
343,76	1233,00
350,44	1185,00
357,11	1162,00
363,77	1351,00
370,42	1204,00
377,07	1301,00
383,71	1168,00
390,34	1127,00
396,96	1229,00
403,58	1040,00
410,19	1123,00
416,79	1202,00
423,38	1172,00
429,97	1205,00
436,55	1176,00
443,12	1191,00
449,68	1041,00
456,24	1184,00
462,79	1013,00
469,33	1016,00
475,86	1067,00
482,39	1156,00
488,91	1041,00
495,42	938,00
501,93	1048,00
508,42	1072,00
514,91	1109,00
521,40	1034,00
527,87	1115,00
534,34	953,00
540,80	1031,00
547,25	960,00
553,70	1019,00
560,14	979,00
566,57	946,00
573,00	990,00
579,41	957,00
585,83	1053,00
592,23	1113,00
598,62	970,00
605,01	949,00
611,40	887,00
617,77	968,00
624,14	987,00
630,50	933,00
636,85	850,00
643,20	880,00
649,54	927,00
655,87	897,00
662,20	972,00
668,52	842,00
674,83	935,00
681,13	1013,00
687,43	961,00
693,72	903,00
700,00	871,00
706,28	936,00
712,55	893,00
718,81	956,00
725,07	937,00
731,32	836,00
737,56	1027,00
743,79	1019,00
750,02	951,00
756,24	923,00
762,46	970,00
768,67	1033,00
774,87	847,00
781,06	893,00
787,25	866,00
793,43	872,00
799,60	964,00
805,77	1003,00
811,93	779,00
818,08	885,00
824,23	928,00
830,37	806,00
836,50	949,00
842,63	931,00
848,75	945,00
854,87	926,00
860,97	953,00
867,07	1049,00
873,17	1049,00
879,25	913,00
885,33	987,00
891,41	832,00
897,47	799,00
903,53	914,00
909,59	807,00
915,63	1024,00
921,67	910,00
927,71	792,00
933,74	856,00
939,76	929,00
945,77	900,00
951,78	894,00
957,78	814,00
963,78	862,00
969,77	791,00
975,75	760,00
981,72	885,00
987,69	1178,00
993,66	998,00
999,61	836,00
1005,56	1053,00
1011,51	824,00
1017,44	886,00
1023,37	758,00
1029,30	864,00
1035,22	824,00
1041,13	1004,00
1047,03	1078,00
1052,93	1363,00
1058,83	1755,00
1064,71	1887,00
1070,59	1483,00
1076,47	1346,00
1082,33	1082,00
1088,20	1152,00
1094,05	1045,00
1099,90	975,00
1105,74	992,00
1111,58	997,00
1117,41	1090,00
1123,23	1627,00
1129,05	2022,00
1134,86	1749,00
1140,67	1300,00
1146,47	1147,00
1152,26	911,00
1158,05	955,00
1163,83	941,00
1169,60	878,00
1175,37	1058,00
1181,13	951,00
1186,89	895,00
1192,64	954,00
1198,38	952,00
1204,12	855,00
1209,85	746,00
1215,58	970,00
1221,30	849,00
1227,02	862,00
1232,72	824,00
1238,43	873,00
1244,12	915,00
1249,81	865,00
1255,50	904,00
1261,17	995,00
1266,85	1043,00
1272,51	1044,00
1278,17	1048,00
1283,83	1247,00
1289,47	1888,00
1295,12	2411,00
1300,75	2109,00
1306,38	1597,00
1312,01	1275,00
1317,63	1045,00
1323,24	1054,00
1328,85	1088,00
1334,45	922,00
1340,04	825,00
1345,63	984,00
1351,22	1028,00
1356,80	981,00
1362,37	1123,00
1367,93	1160,00
1373,49	1115,00
1379,05	1077,00
1384,60	1092,00
1390,14	1119,00
1395,68	1069,00
1401,21	1108,00
1406,74	1099,00
1412,26	1481,00
1417,77	1506,00
1423,28	1689,00
1428,78	1701,00
1434,28	2088,00
1439,77	2483,00
1445,26	2342,00
1450,74	2323,00
1456,22	1941,00
1461,68	2006,00
1467,15	1662,00
1472,61	1571,00
1478,06	1349,00
1483,51	1124,00
1488,95	1193,00
1494,38	1030,00
1499,81	914,00
1505,24	824,00
1510,65	830,00
1516,07	914,00
1521,48	768,00
1526,88	895,00
1532,27	857,00
1537,67	1023,00
1543,05	895,00
1548,43	724,00
1553,81	816,00
1559,18	872,00
1564,54	800,00
1569,90	855,00
1575,25	795,00
1580,60	892,00
1585,94	671,00
1591,28	788,00
1596,61	834,00
1601,93	733,00
1607,25	811,00
1612,57	752,00
1617,88	862,00
1623,18	860,00
1628,48	885,00
1633,77	719,00
1639,06	906,00
1644,34	815,00
1649,62	684,00
1654,89	721,00
1660,16	770,00
1665,42	788,00
1670,67	842,00
1675,92	609,00
1681,17	771,00
1686,41	693,00
1691,64	806,00
1696,87	668,00
1702,10	627,00
1707,32	553,00
1712,53	776,00
1717,74	787,00
1722,94	612,00
1728,14	770,00
1733,33	680,00
1738,52	811,00
1743,70	752,00
1748,88	614,00
1754,05	628,00
1759,22	612,00
1764,38	-1142,00
1769,53	621,00
1774,69	668,00
1779,83	700,00
1784,97	688,00
1790,11	607,00
1795,24	610,00
1800,36	719,00
1805,48	655,00
1810,60	736,00
1815,71	560,00
1820,82	677,00
1825,92	769,00
1831,01	622,00
1836,10	654,00
1841,19	645,00
1846,26	728,00
1851,34	740,00
1856,41	558,00
1861,47	627,00
1866,53	562,00
1871,59	551,00
1876,64	650,00
1881,68	688,00
1886,72	650,00
1891,76	534,00
1896,79	717,00
1901,81	628,00
1906,83	668,00
1911,85	586,00
1916,86	613,00
1921,86	536,00
1926,86	522,00
1931,86	742,00
1936,85	652,00
1941,83	654,00
1946,81	535,00
1951,79	569,00
1956,76	462,00
1961,72	592,00
1966,68	534,00
1971,64	563,00
1976,59	614,00
1981,54	599,00
1986,48	388,00
1991,42	524,00
1996,35	801,00
2001,27	440,00
2006,20	676,00
2011,11	627,00
2016,03	402,00
2020,93	636,00
2025,84	424,00
2030,73	577,00
2035,63	482,00
2040,52	517,00
2045,40	491,00
2050,28	458,00
2055,15	585,00
2060,02	510,00
2064,89	503,00
2069,75	577,00
2074,60	560,00
2079,46	512,00
2084,30	626,00
2089,14	604,00
2093,98	483,00
2098,81	657,00
2103,64	421,00
2108,46	495,00
2113,28	620,00
2118,09	403,00
2122,90	595,00
2127,70	591,00
2132,50	563,00
2137,30	431,00
2142,09	575,00
2146,87	517,00
2151,66	455,00
2156,43	504,00
2161,20	564,00
2165,97	558,00
2170,73	562,00
2175,49	548,00
2180,24	460,00
2184,99	427,00
2189,74	651,00
2194,48	502,00
2199,21	471,00
2203,94	509,00
2208,67	573,00
2213,39	498,00
2218,11	441,00
2222,82	572,00
2227,53	517,00
2232,23	400,00
2236,93	518,00
2241,63	495,00
2246,32	439,00
2251,00	491,00
2255,68	540,00
2260,36	461,00
2265,03	522,00
2269,70	502,00
2274,36	454,00
2279,02	443,00
2283,68	503,00
2288,33	387,00
2292,97	385,00
2297,61	507,00
2302,25	504,00
2306,88	472,00
2311,51	455,00
2316,14	420,00
2320,75	459,00
2325,37	451,00
2329,98	529,00
2334,59	494,00
2339,19	556,00
2343,79	405,00
2348,38	496,00
2352,97	432,00
2357,55	512,00
2362,13	606,00
2366,71	419,00
2371,28	375,00
2375,85	484,00
2380,41	528,00
2384,97	511,00
2389,52	317,00
2394,07	472,00
2398,62	388,00
2403,16	494,00
2407,70	382,00
2412,23	419,00
2416,76	415,00
2421,29	410,00
2425,81	498,00
2430,32	382,00
2434,84	361,00
2439,34	457,00
2443,85	334,00
2448,35	475,00
2452,84	341,00
2457,33	451,00
2461,82	423,00
2466,30	429,00
2470,78	468,00
2475,25	375,00
2479,72	363,00
2484,19	416,00
2488,65	507,00
2493,11	294,00
2497,56	356,00
2502,01	330,00
2506,46	439,00
2510,90	394,00
2515,34	338,00
2519,77	437,00
2524,20	454,00
2528,62	445,00
2533,04	404,00
2537,46	329,00
2541,87	300,00
2546,28	413,00
2550,68	281,00
2555,08	318,00
2559,48	501,00
2563,87	458,00
2568,26	369,00
2572,64	341,00
2577,02	296,00
2581,40	442,00
2585,77	416,00
2590,14	285,00
2594,50	404,00
2598,86	377,00
2603,22	335,00
2607,57	344,00
2611,92	372,00
2616,26	388,00
2620,60	395,00
2624,94	407,00
2629,27	466,00
2633,60	453,00
2637,92	398,00
2642,24	319,00
2646,56	415,00
2650,87	337,00
2655,18	463,00
2659,48	349,00
2663,78	380,00
2668,08	488,00
2672,37	549,00
2676,66	593,00
2680,95	460,00
2685,23	399,00
2689,50	542,00
2693,78	406,00
2698,05	449,00
2702,31	448,00
2706,57	385,00
2710,83	442,00
2715,08	376,00
2719,33	591,00
2723,58	570,00
2727,82	513,00
2732,06	529,00
2736,29	553,00
2740,53	516,00
2744,75	484,00
2748,97	426,00
2753,19	533,00
2757,41	416,00
2761,62	467,00
2765,83	502,00
2770,03	512,00
2774,23	516,00
2778,43	412,00
2782,62	594,00
2786,81	447,00
2791,00	476,00
2795,18	638,00
2799,35	563,00
2803,53	563,00
2807,70	668,00
2811,86	615,00
2816,03	600,00
2820,19	720,00
2824,34	766,00
2828,49	851,00
2832,64	1068,00
2836,78	1259,00
2840,92	1691,00
2845,06	1866,00
2849,19	2129,00
2853,32	2256,00
2857,45	2282,00
2861,57	2144,00
2865,69	1990,00
2869,80	2092,00
2873,91	1936,00
2878,02	2106,00
2882,12	2377,00
2886,22	2478,00
2890,32	2226,00
2894,41	2096,00
2898,50	1888,00
2902,58	1824,00
2906,67	1616,00
2910,74	1537,00
2914,82	1431,00
2918,89	1340,00
2922,96	1189,00
2927,02	1169,00
2931,08	1207,00
2935,13	905,00
2939,19	856,00
2943,24	843,00
2947,28	713,00
2951,32	703,00
2955,36	687,00
2959,40	489,00
2963,43	492,00
2967,46	524,00
2971,48	350,00
2975,50	491,00
2979,52	438,00
2983,53	439,00
2987,54	309,00
2991,55	359,00
2995,55	376,00
2999,55	368,00
3003,54	372,00
3007,54	345,00
3011,53	353,00
3015,51	285,00
3019,49	200,00
3023,47	243,00
3027,45	316,00
3031,42	228,00
3035,39	339,00
3039,35	372,00
3043,31	289,00
3047,27	352,00
3051,22	316,00
3055,17	299,00
3059,12	208,00
3063,06	218,00
3067,00	231,00
3070,94	268,00
3074,87	296,00
3078,80	290,00
3082,73	297,00
3086,65	137,00
3090,57	263,00
3094,49	243,00
3098,40	271,00
3102,31	170,00
3106,22	202,00
3110,12	278,00
3114,02	197,00
3117,92	128,00
3121,81	245,00
3125,70	151,00
3129,58	104,00
3133,47	198,00
3137,34	222,00
3141,22	275,00
3145,09	325,00
3148,96	156,00
3152,83	240,00
3156,69	128,00
3160,55	118,00
3164,40	141,00
3168,26	124,00
3172,10	296,00
3175,95	233,00
3179,79	59,00
3183,63	129,00
3187,47	256,00
3191,30	171,00
3195,13	254,00
3198,95	52,00
3202,78	191,00
3206,60	191,00
3210,41	117,00
3214,23	146,00
3218,03	104,00
3221,84	52,00
3225,64	139,00
3229,44	142,00
3233,24	160,00
3237,03	179,00
3240,82	188,00
3244,61	-30,00
3248,39	48,00
3252,17	204,00
3255,95	94,00
3259,72	138,00
3263,49	56,00
3267,26	119,00
3271,03	119,00
3274,79	111,00
3278,54	182,00
3282,30	132,00
3286,05	52,00
3289,80	64,00
3293,54	56,00
3297,29	143,00
3301,02	119,00
3304,76	108,00
3308,49	260,00
3312,22	71,00
3315,95	135,00
3319,67	260,00
3323,39	148,00
3327,10	72,00
3330,82	87,00
3334,53	228,00
3338,24	212,00
3341,94	65,00
3345,64	97,00
3349,34	78,00
3353,03	96,00
3356,72	113,00
3360,41	99,00
3364,10	295,00
3367,78	14,00
3371,46	80,00
3375,13	147,00
3378,81	48,00
3382,48	138,00
3386,14	-11,00
3389,81	213,00
3393,47	239,00
3397,12	46,00
3400,78	75,00
3404,43	316,00
3408,08	214,00
3411,72	120,00
3415,36	85,00
3419,00	269,00
3422,64	116,00
3426,27	57,00
3429,90	101,00
3433,53	95,00
3437,15	181,00
3440,77	108,00
3444,39	173,00
3448,00	23,00
3451,62	95,00
3455,22	230,00
3458,83	96,00
3462,43	1,00
3466,03	-75,00
3469,63	115,00
3473,22	-8,00
3476,81	74,00
3480,40	11,00
3483,99	-16,00
3487,57	134,00
3491,15	107,00
3494,72	-20,00
3498,29	7,00
3501,86	161,00
3505,43	1,00
3508,99	161,00
3512,56	63,00
3516,11	153,00
3519,67	3,00
3523,22	168,00
3526,77	-13,00
3530,32	169,00
3533,86	207,00
3537,40	113,00
3540,94	80,00
3544,47	-13,00
3548,00	159,00
3551,53	31,00
3555,06	-3,00
3558,58	123,00
3562,10	132,00
3565,62	134,00
3569,13	11,00
3572,64	48,00
3576,15	97,00
3579,66	40,00
3583,16	131,00
3586,66	-40,00
3590,16	14,00
3593,65	41,00
3597,14	50,00
3600,63	78,00
3604,11	85,00
3607,60	86,00
3611,08	152,00
3614,55	23,00
3618,03	86,00
3621,50	141,00
3624,97	7,00
3628,43	56,00
3631,90	115,00
3635,36	143,00
3638,81	33,00
3642,27	48,00
3645,72	173,00
3649,17	63,00
3652,61	8,00
3656,06	52,00
3659,50	34,00
3662,93	127,00
3666,37	57,00
3669,80	13,00
3673,23	127,00
3676,65	116,00
3680,08	45,00
3683,50	-2,00
3686,92	76,00
3690,33	130,00
3693,74	39,00
3697,15	128,00
3700,56	-79,00
3703,96	67,00
3707,36	-51,00
3710,76	-56,00
3714,16	80,00
3717,55	77,00
3720,94	24,00
3724,33	46,00
3727,71	34,00
3731,10	59,00
3734,48	62,00
3737,85	149,00
3741,23	-37,00
3744,60	55,00
3747,97	50,00
3751,33	85,00
3754,69	21,00
3758,05	99,00
3761,41	-15,00
3764,77	117,00
3768,12	52,00
3771,47	77,00
3774,82	-40,00
3778,16	-1,00
3781,50	0,00
3784,84	0,00
3788,18	5,00
>>>>>End Processed Spectral Data<<<<<
