SpectraSuite Data File
++++++++++++++++++++++++++++++++++++
Date: Tue Mar 03 12:23:52 ICT 2026
User: user
Dark Spectrum Present: Yes
Reference Spectrum Present: No
Number of Sampled Component Spectra: 1
Spectrometers: MAYP113682
Integration Time (usec): 3000000 (MAYP113682)
Spectra Averaged: 1 (MAYP113682)
Boxcar Smoothing: 0 (MAYP113682)
Correct for Electrical Dark: No (MAYP113682)
Strobe/Lamp Enabled: No (MAYP113682)
Correct for Detector Non-linearity: No (MAYP113682)
Correct for Stray Light: No (MAYP113682)
Number of Pixels in Processed Spectrum: 2068
>>>>>Begin Processed Spectral Data<<<<<
-37534,58	1,00
-37414,56	6,00
-37295,11	-3,00
-37176,24	-5,00
-37057,95	-64,00
-36940,22	-64,00
-36823,05	-8,00
-36706,45	34,00
-36590,40	44,00
-36474,90	-27,00
-36359,95	61,00
-36245,55	184,00
-36131,68	-6,00
-36018,35	40,00
-35905,55	-12,00
-35793,29	37,00
-35681,54	51,00
-35570,32	24,00
-35459,62	-62,00
-35349,43	40,00
-35239,75	56,00
-35130,58	34,00
-35021,91	53,00
-34913,74	166,00
-34806,07	57,00
-34698,89	36,00
-34592,20	-51,00
-34486,00	-11,00
-34380,28	19,00
-34275,04	-39,00
-34170,27	-80,00
-34065,98	4,00
-33962,16	48,00
-33858,81	94,00
-33755,92	5,00
-33653,49	133,00
-33551,52	28,00
-33450,01	-43,00
-33348,94	57,00
-33248,33	41,00
-33148,16	6,00
-33048,43	100,00
-32949,14	-31,00
-32850,29	90,00
-32751,87	80,00
-32653,89	61,00
-32556,33	-18,00
-32459,20	-4,00
-32362,49	12,00
-32266,19	62,00
-32170,32	-21,00
-32074,86	-46,00
-31979,82	12,00
-31885,18	-73,00
-31790,95	-35,00
-31697,12	41,00
-31603,69	-11,00
-31510,67	57,00
-31418,04	98,00
-31325,80	54,00
-31233,95	-5,00
-31142,49	118,00
-31051,42	-14,00
-30960,73	63,00
-30870,43	62,00
-30780,50	16,00
-30690,95	31,00
-30601,77	8,00
-30512,97	-19,00
-30424,53	97,00
-30336,46	110,00
-30248,76	14,00
-30161,42	-54,00
-30074,44	154,00
-29987,81	135,00
-29901,55	15,00
-29815,63	13,00
-29730,07	-109,00
-29644,86	-85,00
-29560,00	44,00
-29475,48	-9,00
-29391,30	-60,00
-29307,47	26,00
-29223,97	134,00
-29140,81	6,00
-29057,99	8,00
-28975,50	21,00
-28893,34	98,00
-28811,51	32,00
-28730,00	119,00
-28648,82	12,00
-28567,97	-56,00
-28487,43	19,00
-28407,21	-3,00
-28327,32	-45,00
-28247,73	-45,00
-28168,46	56,00
-28089,50	-15,00
-28010,85	-39,00
-27932,51	9,00
-27854,48	-94,00
-27776,75	-53,00
-27699,32	99,00
-27622,19	115,00
-27545,37	155,00
-27468,84	-89,00
-27392,60	-34,00
-27316,66	85,00
-27241,01	-23,00
-27165,66	131,00
-27090,59	4,00
-27015,81	80,00
-26941,31	-13,00
-26867,10	62,00
-26793,17	-78,00
-26719,52	-92,00
-26646,15	83,00
-26573,06	226,00
-26500,24	95,00
-26427,70	-67,00
-26355,43	55,00
-26283,43	-43,00
-26211,71	35,00
-26140,25	44,00
-26069,06	133,00
-25998,13	-56,00
-25927,46	48,00
-25857,06	-54,00
-25786,92	-35,00
-25717,04	-126,00
-25647,42	58,00
-25578,05	-49,00
-25508,94	-28,00
-25440,09	151,00
-25371,48	-21,00
-25303,13	-13,00
-25235,02	8,00
-25167,17	-49,00
-25099,56	44,00
-25032,19	98,00
-24965,07	49,00
-24898,20	-31,00
-24831,56	148,00
-24765,17	26,00
-24699,01	229,00
-24633,10	-32,00
-24567,41	-153,00
-24501,97	34,00
-24436,75	-97,00
-24371,77	51,00
-24307,03	15,00
-24242,51	-82,00
-24178,22	66,00
-24114,16	-40,00
-24050,32	-73,00
-23986,71	12,00
-23923,32	33,00
-23860,16	-40,00
-23797,22	83,00
-23734,50	-71,00
-23672,00	8,00
-23609,71	253,00
-23547,65	46,00
-23485,80	83,00
-23424,16	-22,00
-23362,74	8,00
-23301,53	32,00
-23240,54	-81,00
-23179,75	-22,00
-23119,17	51,00
-23058,80	140,00
-22998,64	106,00
-22938,68	34,00
-22878,93	-60,00
-22819,39	-4,00
-22760,04	-26,00
-22700,90	-93,00
-22641,96	-48,00
-22583,22	36,00
-22524,68	6,00
-22466,33	33,00
-22408,19	-54,00
-22350,23	73,00
-22292,48	46,00
-22234,92	9,00
-22177,55	26,00
-22120,37	16,00
-22063,38	0,00
-22006,58	79,00
-21949,98	-71,00
-21893,56	71,00
-21837,33	57,00
-21781,28	65,00
-21725,42	-3,00
-21669,74	-17,00
-21614,25	-47,00
-21558,94	48,00
-21503,81	205,00
-21448,86	13,00
-21394,10	-26,00
-21339,51	183,00
-21285,10	-97,00
-21230,86	-29,00
-21176,81	39,00
-21122,93	30,00
-21069,22	17,00
-21015,69	112,00
-20962,33	16,00
-20909,14	38,00
-20856,13	78,00
-20803,28	-133,00
-20750,61	62,00
-20698,10	21,00
-20645,76	-10,00
-20593,59	60,00
-20541,59	29,00
-20489,75	-23,00
-20438,07	50,00
-20386,56	40,00
-20335,22	61,00
-20284,03	80,00
-20233,01	-16,00
-20182,15	-31,00
-20131,45	-60,00
-20080,91	-30,00
-20030,52	50,00
-19980,30	-24,00
-19930,23	-60,00
-19880,32	-2,00
-19830,56	69,00
-19780,96	-15,00
-19731,52	36,00
-19682,23	-20,00
-19633,09	54,00
-19584,10	72,00
-19535,26	111,00
-19486,58	-9,00
-19438,04	-30,00
-19389,66	-40,00
-19341,42	-1,00
-19293,33	-82,00
-19245,39	-15,00
-19197,60	107,00
-19149,95	113,00
-19102,45	-13,00
-19055,09	-80,00
-19007,87	47,00
-18960,80	91,00
-18913,87	-10,00
-18867,09	-73,00
-18820,44	2,00
-18773,94	-11,00
-18727,57	102,00
-18681,35	-10,00
-18635,26	-11,00
-18589,31	156,00
-18543,50	-50,00
-18497,83	15,00
-18452,29	-54,00
-18406,89	61,00
-18361,63	-36,00
-18316,50	-53,00
-18271,50	-30,00
-18226,63	105,00
-18181,90	133,00
-18137,30	160,00
-18092,84	-39,00
-18048,50	16,00
-18004,29	11,00
-17960,22	83,00
-17916,27	18,00
-17872,45	89,00
-17828,76	-51,00
-17785,20	-41,00
-17741,77	-44,00
-17698,46	17,00
-17655,28	22,00
-17612,22	-68,00
-17569,29	106,00
-17526,48	7,00
-17483,79	-45,00
-17441,23	-46,00
-17398,79	123,00
-17356,48	15,00
-17314,28	73,00
-17272,21	-8,00
-17230,26	82,00
-17188,42	8,00
-17146,71	211,00
-17105,12	43,00
-17063,64	15,00
-17022,28	-40,00
-16981,04	-74,00
-16939,92	-3,00
-16898,91	-74,00
-16858,02	-212,00
-16817,25	-14,00
-16776,59	37,00
-16736,04	67,00
-16695,61	-9,00
-16655,29	53,00
-16615,09	-27,00
-16574,99	9,00
-16535,01	-37,00
-16495,15	42,00
-16455,39	28,00
-16415,74	51,00
-16376,21	-59,00
-16336,78	-56,00
-16297,46	26,00
-16258,26	101,00
-16219,16	6,00
-16180,17	133,00
-16141,28	68,00
-16102,51	47,00
-16063,84	-25,00
-16025,27	122,00
-15986,82	45,00
-15948,46	-96,00
-15910,22	89,00
-15872,07	33,00
-15834,04	2,00
-15796,10	33,00
-15758,27	34,00
-15720,54	48,00
-15682,91	-22,00
-15645,39	-121,00
-15607,97	-56,00
-15570,64	-68,00
-15533,42	-44,00
-15496,30	-23,00
-15459,28	24,00
-15422,36	-23,00
-15385,54	18,00
-15348,82	101,00
-15312,19	-9,00
-15275,66	-118,00
-15239,23	-76,00
-15202,90	-55,00
-15166,67	29,00
-15130,53	-30,00
-15094,48	-43,00
-15058,54	4,00
-15022,68	20,00
-14986,93	-2,00
-14951,26	-69,00
-14915,69	-27,00
-14880,22	-44,00
-14844,84	-10,00
-14809,55	0,00
-14774,35	30,00
-14739,25	81,00
-14704,24	-69,00
-14669,32	-6,00
-14634,49	112,00
-14599,75	37,00
-14565,10	88,00
-14530,55	18,00
-14496,08	154,00
-14461,70	111,00
-14427,41	-65,00
-14393,21	-52,00
-14359,10	-59,00
-14325,07	72,00
-14291,14	103,00
-14257,29	54,00
-14223,52	-2,00
-14189,85	-14,00
-14156,26	23,00
-14122,76	-60,00
-14089,34	48,00
-14056,01	44,00
-14022,76	8,00
-13989,60	19,00
-13956,52	29,00
-13923,53	28,00
-13890,62	-63,00
-13857,79	64,00
-13825,05	21,00
-13792,39	53,00
-13759,81	24,00
-13727,31	-8,00
-13694,90	-122,00
-13662,57	159,00
-13630,31	80,00
-13598,14	14,00
-13566,05	-21,00
-13534,05	-25,00
-13502,12	39,00
-13470,27	29,00
-13438,50	-29,00
-13406,80	44,00
-13375,19	-20,00
-13343,66	12,00
-13312,20	42,00
-13280,83	-50,00
-13249,53	70,00
-13218,30	50,00
-13187,16	-136,00
-13156,09	-33,00
-13125,10	60,00
-13094,18	57,00
-13063,34	-2,00
-13032,58	-2,00
-13001,89	-20,00
-12971,28	26,00
-12940,74	57,00
-12910,27	-78,00
-12879,88	38,00
-12849,57	6,00
-12819,33	40,00
-12789,16	28,00
-12759,06	74,00
-12729,04	-111,00
-12699,09	-43,00
-12669,21	9,00
-12639,41	-46,00
-12609,68	-49,00
-12580,02	-19,00
-12550,43	10,00
-12520,91	37,00
-12491,46	-46,00
-12462,08	43,00
-12432,77	16,00
-12403,54	-123,00
-12374,37	1,00
-12345,27	-101,00
-12316,24	-15,00
-12287,29	5,00
-12258,40	95,00
-12229,57	16,00
-12200,82	128,00
-12172,14	-46,00
-12143,52	-21,00
-12114,97	44,00
-12086,49	42,00
-12058,07	33,00
-12029,73	-80,00
-12001,44	-7,00
-11973,23	-95,00
-11945,08	52,00
-11917,00	26,00
-11888,98	123,00
-11861,03	-34,00
-11833,15	126,00
-11805,32	17,00
-11777,57	-46,00
-11749,88	51,00
-11722,25	36,00
-11694,69	42,00
-11667,19	-70,00
-11639,75	-79,00
-11612,38	46,00
-11585,07	14,00
-11557,83	-19,00
-11530,65	7,00
-11503,53	52,00
-11476,47	68,00
-11449,48	44,00
-11422,54	98,00
-11395,67	53,00
-11368,86	-44,00
-11342,11	11,00
-11315,43	-89,00
-11288,80	85,00
-11262,23	123,00
-11235,73	132,00
-11209,28	-21,00
-11182,90	-11,00
-11156,57	-65,00
-11130,31	76,00
-11104,10	20,00
-11077,96	7,00
-11051,87	97,00
-11025,84	82,00
-10999,87	108,00
-10973,96	-26,00
-10948,11	15,00
-10922,31	27,00
-10896,58	40,00
-10870,90	42,00
-10845,28	14,00
-10819,71	-11,00
-10794,20	54,00
-10768,75	110,00
-10743,36	163,00
-10718,02	49,00
-10692,74	50,00
-10667,52	103,00
-10642,35	-12,00
-10617,24	161,00
-10592,18	151,00
-10567,18	90,00
-10542,23	68,00
-10517,34	201,00
-10492,51	31,00
-10467,72	209,00
-10443,00	140,00
-10418,32	228,00
-10393,70	194,00
-10369,14	83,00
-10344,63	304,00
-10320,17	316,00
-10295,77	221,00
-10271,42	285,00
-10247,12	172,00
-10222,88	233,00
-10198,68	260,00
-10174,54	298,00
-10150,46	308,00
-10126,42	334,00
-10102,44	333,00
-10078,51	454,00
-10054,63	459,00
-10030,80	468,00
-10007,03	408,00
-9983,30	388,00
-9959,63	496,00
-9936,01	467,00
-9912,44	576,00
-9888,92	490,00
-9865,44	524,00
-9842,02	689,00
-9818,65	558,00
-9795,33	546,00
-9772,06	507,00
-9748,84	792,00
-9725,67	764,00
-9702,55	883,00
-9679,47	1064,00
-9656,45	1037,00
-9633,47	1178,00
-9610,55	1136,00
-9587,67	1116,00
-9564,84	1338,00
-9542,06	1363,00
-9519,32	1539,00
-9496,64	1858,00
-9474,00	1973,00
-9451,41	1957,00
-9428,87	1965,00
-9406,37	1889,00
-9383,92	1714,00
-9361,52	1705,00
-9339,17	1606,00
-9316,86	1957,00
-9294,60	2160,00
-9272,38	2423,00
-9250,21	2423,00
-9228,09	2549,00
-9206,01	2557,00
-9183,98	2231,00
-9162,00	1897,00
-9140,06	1893,00
-9118,16	1782,00
-9096,31	1980,00
-9074,51	2087,00
-9052,75	2006,00
-9031,04	1838,00
-9009,37	1755,00
-8987,74	1530,00
-8966,16	1308,00
-8944,63	1220,00
-8923,14	887,00
-8901,69	1086,00
-8880,29	1356,00
-8858,93	1674,00
-8837,61	1763,00
-8816,34	1982,00
-8795,11	1911,00
-8773,92	1826,00
-8752,78	1492,00
-8731,68	1400,00
-8710,62	1495,00
-8689,61	1507,00
-8668,63	1707,00
-8647,70	1676,00
-8626,82	1724,00
-8605,97	1684,00
-8585,17	1649,00
-8564,41	1247,00
-8543,69	1442,00
-8523,01	1139,00
-8502,37	1386,00
-8481,78	1312,00
-8461,23	1315,00
-8440,71	1540,00
-8420,24	1652,00
-8399,81	1556,00
-8379,42	1741,00
-8359,08	1575,00
-8338,77	1477,00
-8318,50	1341,00
-8298,27	1235,00
-8278,09	1438,00
-8257,94	1319,00
-8237,83	1532,00
-8217,76	1583,00
-8197,74	1623,00
-8177,75	1570,00
-8157,80	1332,00
-8137,89	1218,00
-8118,02	1312,00
-8098,19	1168,00
-8078,40	1196,00
-8058,65	1228,00
-8038,93	1450,00
-8019,26	1239,00
-7999,62	1291,00
-7980,02	1208,00
-7960,46	1260,00
-7940,94	1195,00
-7921,46	1152,00
-7902,01	1105,00
-7882,60	1089,00
-7863,23	1061,00
-7843,90	1269,00
-7824,61	1198,00
-7805,35	1278,00
-7786,13	1383,00
-7766,95	1333,00
-7747,80	1095,00
-7728,69	1177,00
-7709,62	1176,00
-7690,59	1228,00
-7671,59	1208,00
-7652,63	1367,00
-7633,70	1378,00
-7614,81	1193,00
-7595,96	1234,00
-7577,15	1101,00
-7558,37	981,00
-7539,62	1103,00
-7520,91	1219,00
-7502,24	1311,00
-7483,60	1190,00
-7465,00	1207,00
-7446,44	1029,00
-7427,91	1012,00
-7409,41	883,00
-7390,95	749,00
-7372,53	878,00
-7354,14	800,00
-7335,78	741,00
-7317,46	909,00
-7299,18	1023,00
-7280,92	1125,00
-7262,71	1239,00
-7244,52	1301,00
-7226,38	1238,00
-7208,26	1228,00
-7190,18	1167,00
-7172,14	1126,00
-7154,12	1150,00
-7136,15	1251,00
-7118,20	1209,00
-7100,29	1248,00
-7082,41	1314,00
-7064,57	1332,00
-7046,76	1070,00
-7028,98	1090,00
-7011,24	799,00
-6993,53	686,00
-6975,85	690,00
-6958,20	652,00
-6940,59	638,00
-6923,01	772,00
-6905,46	806,00
-6887,94	810,00
-6870,46	-1869,00
-6853,01	1052,00
-6835,59	1169,00
-6818,21	1102,00
-6800,85	739,00
-6783,53	634,00
-6766,24	607,00
-6748,98	617,00
-6731,76	508,00
-6714,56	573,00
-6697,40	456,00
-6680,26	474,00
-6663,16	636,00
-6646,09	700,00
-6629,05	835,00
-6612,05	896,00
-6595,07	964,00
-6578,13	876,00
-6561,21	742,00
-6544,33	488,00
-6527,47	394,00
-6510,65	401,00
-6493,86	468,00
-6477,10	347,00
-6460,36	459,00
-6443,66	310,00
-6426,99	240,00
-6410,35	352,00
-6393,74	440,00
-6377,16	493,00
-6360,61	538,00
-6344,09	560,00
-6327,59	721,00
-6311,13	590,00
-6294,70	748,00
-6278,29	802,00
-6261,92	894,00
-6245,58	853,00
-6229,26	978,00
-6212,97	847,00
-6196,72	474,00
-6180,49	543,00
-6164,29	305,00
-6148,12	208,00
-6131,98	256,00
-6115,86	197,00
-6099,78	344,00
-6083,72	153,00
-6067,69	243,00
-6051,69	224,00
-6035,72	179,00
-6019,78	399,00
-6003,87	400,00
-5987,98	691,00
-5972,12	512,00
-5956,29	586,00
-5940,49	410,00
-5924,71	349,00
-5908,96	293,00
-5893,24	154,00
-5877,55	231,00
-5861,89	278,00
-5846,25	307,00
-5830,64	239,00
-5815,05	292,00
-5799,50	261,00
-5783,97	319,00
-5768,47	368,00
-5752,99	430,00
-5737,55	700,00
-5722,12	728,00
-5706,73	641,00
-5691,36	493,00
-5676,02	269,00
-5660,71	219,00
-5645,42	150,00
-5630,16	291,00
-5614,92	231,00
-5599,71	389,00
-5584,53	346,00
-5569,37	344,00
-5554,24	304,00
-5539,14	406,00
-5524,06	261,00
-5509,01	412,00
-5493,98	426,00
-5478,98	283,00
-5464,00	406,00
-5449,05	276,00
-5434,13	155,00
-5419,23	226,00
-5404,36	319,00
-5389,51	380,00
-5374,69	598,00
-5359,89	677,00
-5345,12	731,00
-5330,37	729,00
-5315,65	460,00
-5300,95	515,00
-5286,28	400,00
-5271,63	245,00
-5257,01	447,00
-5242,41	391,00
-5227,84	436,00
-5213,29	376,00
-5198,76	30,00
-5184,26	140,00
-5169,79	208,00
-5155,33	299,00
-5140,91	290,00
-5126,51	541,00
-5112,13	465,00
-5097,77	452,00
-5083,44	194,00
-5069,13	154,00
-5054,85	363,00
-5040,59	189,00
-5026,36	280,00
-5012,15	438,00
-4997,96	296,00
-4983,80	277,00
-4969,66	205,00
-4955,54	214,00
-4941,44	284,00
-4927,37	456,00
-4913,33	568,00
-4899,30	480,00
-4885,30	588,00
-4871,33	358,00
-4857,37	258,00
-4843,44	67,00
-4829,53	142,00
-4815,65	378,00
-4801,79	230,00
-4787,95	100,00
-4774,13	291,00
-4760,34	228,00
-4746,56	71,00
-4732,82	224,00
-4719,09	320,00
-4705,38	506,00
-4691,70	673,00
-4678,04	558,00
-4664,41	315,00
-4650,79	290,00
-4637,20	123,00
-4623,63	241,00
-4610,08	224,00
-4596,56	264,00
-4583,05	434,00
-4569,57	356,00
-4556,11	31,00
-4542,67	-10,00
-4529,25	102,00
-4515,86	212,00
-4502,49	528,00
-4489,13	438,00
-4475,80	479,00
-4462,49	304,00
-4449,21	220,00
-4435,94	132,00
-4422,70	251,00
-4409,47	198,00
-4396,27	387,00
-4383,09	128,00
-4369,93	67,00
-4356,79	95,00
-4343,67	156,00
-4330,58	207,00
-4317,50	250,00
-4304,45	318,00
-4291,41	169,00
-4278,40	171,00
-4265,41	24,00
-4252,44	106,00
-4239,49	204,00
-4226,55	201,00
-4213,65	202,00
-4200,76	134,00
-4187,89	39,00
-4175,04	74,00
-4162,21	71,00
-4149,40	2,00
-4136,61	-55,00
-4123,85	176,00
-4111,10	89,00
-4098,37	105,00
-4085,66	22,00
-4072,98	108,00
-4060,31	-4,00
-4047,66	179,00
-4035,04	34,00
-4022,43	-7,00
-4009,84	8,00
-3997,27	62,00
-3984,72	-43,00
-3972,19	77,00
-3959,69	58,00
-3947,20	-41,00
-3934,73	-21,00
-3922,27	34,00
-3909,84	17,00
-3897,43	-36,00
-3885,04	-46,00
-3872,67	94,00
-3860,31	2,00
-3847,98	-89,00
-3835,66	67,00
-3823,36	-41,00
-3811,09	113,00
-3798,83	-9,00
-3786,59	31,00
-3774,37	113,00
-3762,17	37,00
-3749,98	-102,00
-3737,82	68,00
-3725,67	97,00
-3713,55	-2,00
-3701,44	183,00
-3689,35	56,00
-3677,28	-30,00
-3665,22	167,00
-3653,19	10,00
-3641,17	-25,00
-3629,18	76,00
-3617,20	14,00
-3605,24	-74,00
-3593,30	-28,00
-3581,37	125,00
-3569,47	123,00
-3557,58	-12,00
-3545,71	88,00
-3533,86	-59,00
-3522,02	189,00
-3510,21	30,00
-3498,41	-5,00
-3486,63	34,00
-3474,87	-17,00
-3463,12	43,00
-3451,40	-125,00
-3439,69	100,00
-3428,00	16,00
-3416,33	-66,00
-3404,67	-130,00
-3393,03	64,00
-3381,41	48,00
-3369,81	-84,00
-3358,22	77,00
-3346,66	-19,00
-3335,10	-40,00
-3323,57	80,00
-3312,06	123,00
-3300,56	38,00
-3289,08	-106,00
-3277,61	-74,00
-3266,16	-54,00
-3254,73	13,00
-3243,32	24,00
-3231,92	-16,00
-3220,55	-22,00
-3209,18	35,00
-3197,84	12,00
-3186,51	-22,00
-3175,20	45,00
-3163,90	148,00
-3152,63	-46,00
-3141,36	-68,00
-3130,12	-114,00
-3118,89	-14,00
-3107,68	-96,00
-3096,49	-32,00
-3085,31	7,00
-3074,15	98,00
-3063,00	-18,00
-3051,87	23,00
-3040,76	17,00
-3029,67	72,00
-3018,59	14,00
-3007,52	104,00
-2996,48	70,00
-2985,44	131,00
-2974,43	108,00
-2963,43	95,00
-2952,45	69,00
-2941,48	129,00
-2930,53	77,00
-2919,60	-23,00
-2908,68	74,00
-2897,78	-20,00
-2886,89	-47,00
-2876,02	-67,00
-2865,17	-72,00
-2854,33	-72,00
-2843,50	-68,00
-2832,70	57,00
-2821,90	-71,00
-2811,13	-65,00
-2800,37	0,00
-2789,62	35,00
-2778,89	72,00
-2768,18	35,00
-2757,48	137,00
-2746,80	6,00
-2736,13	-22,00
-2725,48	53,00
-2714,84	31,00
-2704,22	23,00
-2693,61	152,00
-2683,02	56,00
-2672,45	-32,00
-2661,89	98,00
-2651,34	-112,00
-2640,81	10,00
-2630,30	-15,00
-2619,80	36,00
-2609,31	-51,00
-2598,84	5,00
-2588,39	62,00
-2577,95	48,00
-2567,52	-15,00
-2557,11	88,00
-2546,71	21,00
-2536,33	-47,00
-2525,97	90,00
-2515,62	55,00
-2505,28	-39,00
-2494,96	19,00
-2484,65	-64,00
-2474,36	3,00
-2464,08	-30,00
-2453,82	37,00
-2443,57	-108,00
-2433,33	40,00
-2423,11	29,00
-2412,91	-79,00
-2402,72	24,00
-2392,54	-90,00
-2382,38	63,00
-2372,23	-32,00
-2362,09	-5103,00
-2351,97	237,00
-2341,87	-104,00
-2331,78	56,00
-2321,70	22,00
-2311,64	44,00
-2301,59	5,00
-2291,55	156,00
-2281,53	48,00
-2271,53	124,00
-2261,53	-39,00
-2251,55	-15,00
-2241,59	-51,00
-2231,64	48,00
-2221,70	-33,00
-2211,78	-8,00
-2201,87	48,00
-2191,97	-19,00
-2182,09	-82,00
-2172,22	80,00
-2162,37	68,00
-2152,53	-8,00
-2142,70	69,00
-2132,89	93,00
-2123,09	-22,00
-2113,30	136,00
-2103,53	-91,00
-2093,77	14,00
-2084,02	-110,00
-2074,29	47,00
-2064,57	11,00
-2054,86	65,00
-2045,17	9,00
-2035,49	53,00
-2025,82	32,00
-2016,17	-62,00
-2006,53	61,00
-1996,91	-22,00
-1987,29	-35,00
-1977,69	-44,00
-1968,11	57,00
-1958,53	85,00
-1948,97	-12,00
-1939,42	31,00
-1929,89	-69,00
-1920,37	115,00
-1910,86	-25,00
-1901,36	0,00
-1891,88	-17,00
-1882,41	-6,00
-1872,95	98,00
-1863,51	-79,00
-1854,08	79,00
-1844,66	51,00
-1835,26	16,00
-1825,86	15,00
-1816,48	0,00
-1807,11	-47,00
-1797,76	30,00
-1788,42	-22,00
-1779,09	-52,00
-1769,77	40,00
-1760,47	-62,00
-1751,17	-50,00
-1741,89	-1,00
-1732,63	-20,00
-1723,37	-176,00
-1714,13	-32,00
-1704,90	-13,00
-1695,68	37,00
-1686,48	-70,00
-1677,29	67,00
-1668,11	118,00
-1658,94	8,00
-1649,78	94,00
-1640,64	-26,00
-1631,51	96,00
-1622,39	30,00
-1613,28	-18,00
-1604,19	135,00
-1595,10	21,00
-1586,03	112,00
-1576,97	79,00
-1567,93	-46,00
-1558,89	-64,00
-1549,87	109,00
-1540,86	77,00
-1531,86	-19,00
-1522,87	-146,00
-1513,90	121,00
-1504,93	137,00
-1495,98	-240,00
-1487,04	-32,00
-1478,12	-11,00
-1469,20	12,00
-1460,30	63,00
-1451,40	149,00
-1442,52	65,00
-1433,65	-4,00
-1424,80	59,00
-1415,95	28,00
-1407,12	120,00
-1398,30	-20,00
-1389,48	92,00
-1380,69	-52,00
-1371,90	-17,00
-1363,12	7,00
-1354,36	93,00
-1345,60	97,00
-1336,86	98,00
-1328,13	48,00
-1319,41	15,00
-1310,70	16,00
-1302,01	10,00
-1293,32	59,00
-1284,65	78,00
-1275,99	98,00
-1267,33	-99,00
-1258,69	68,00
-1250,06	156,00
-1241,45	104,00
-1232,84	65,00
-1224,25	28,00
-1215,66	-64,00
-1207,09	3,00
-1198,53	-50,00
-1189,97	118,00
-1181,43	98,00
-1172,91	21,00
-1164,39	53,00
-1155,88	51,00
-1147,38	-10,00
-1138,90	140,00
-1130,43	-10,00
-1121,96	-70,00
-1113,51	32,00
-1105,07	-13,00
-1096,64	100,00
-1088,22	113,00
-1079,81	64,00
-1071,41	113,00
-1063,02	-76,00
-1054,65	16,00
-1046,28	97,00
-1037,92	-122,00
-1029,58	62,00
-1021,24	-76,00
-1012,92	135,00
-1004,61	117,00
-996,30	104,00
-988,01	-68,00
-979,73	195,00
-971,46	-104,00
-963,20	-20,00
-954,95	-32,00
-946,71	-91,00
-938,48	58,00
-930,26	-77,00
-922,06	52,00
-913,86	60,00
-905,67	47,00
-897,49	-12,00
-889,33	105,00
-881,17	43,00
-873,02	54,00
-864,89	-91,00
-856,76	-64,00
-848,65	-18,00
-840,54	-18,00
-832,45	30,00
-824,36	-12,00
-816,29	-23,00
-808,22	3,00
-800,17	-16,00
-792,12	-17,00
-784,09	78,00
-776,06	19,00
-768,05	-32,00
-760,04	-27,00
-752,05	-7,00
-744,07	92,00
-736,09	47,00
-728,13	46,00
-720,17	0,00
-712,23	12,00
-704,29	-90,00
-696,37	-2,00
-688,45	105,00
-680,55	-27,00
-672,65	129,00
-664,77	-22,00
-656,89	84,00
-649,03	81,00
-641,17	18,00
-633,32	43,00
-625,49	77,00
-617,66	-1,00
-609,84	-51,00
-602,03	-1,00
-594,23	62,00
-586,45	6,00
-578,67	94,00
-570,90	40,00
-563,14	151,00
-555,39	79,00
-547,65	-11,00
-539,91	-1,00
-532,19	73,00
-524,48	20,00
-516,78	32,00
-509,08	56,00
-501,40	39,00
-493,72	-2,00
-486,06	-16,00
-478,40	-22,00
-470,76	5,00
-463,12	-21,00
-455,49	128,00
-447,87	-47,00
-440,26	-49,00
-432,66	44,00
-425,07	70,00
-417,49	-57,00
-409,92	66,00
-402,35	-68,00
-394,80	95,00
-387,25	2,00
-379,72	76,00
-372,19	190,00
-364,67	73,00
-357,17	-6,00
-349,67	-21,00
-342,18	133,00
-334,69	30,00
-327,22	-24,00
-319,76	6,00
-312,30	-90,00
-304,86	61,00
-297,42	70,00
-290,00	200,00
-282,58	42,00
-275,17	61,00
-267,77	3,00
-260,37	87,00
-252,99	138,00
-245,62	53,00
-238,25	53,00
-230,90	61,00
-223,55	161,00
-216,21	49,00
-208,88	213,00
-201,56	148,00
-194,25	176,00
-186,94	110,00
-179,65	261,00
-172,36	237,00
-165,08	157,00
-157,81	219,00
-150,55	120,00
-143,30	242,00
-136,06	300,00
-128,82	336,00
-121,60	333,00
-114,38	270,00
-107,17	179,00
-99,97	331,00
-92,78	541,00
-85,60	471,00
-78,42	486,00
-71,25	547,00
-64,10	912,00
-56,95	1092,00
-49,81	1151,00
-42,67	1435,00
-35,55	1815,00
-28,43	2455,00
-21,33	4563,00
-14,23	15333,00
-7,14	47266,00
-0,05	38051,00
7,02	42597,00
14,09	39970,00
21,14	10592,00
28,19	4664,00
35,23	2960,00
42,27	2164,00
49,29	1918,00
56,31	1558,00
63,32	1236,00
70,32	1136,00
77,31	913,00
84,29	773,00
91,27	616,00
98,23	589,00
105,19	564,00
112,14	709,00
119,09	817,00
126,02	1370,00
132,95	1517,00
139,87	1415,00
146,78	1423,00
153,68	1371,00
160,58	1306,00
167,46	1352,00
174,34	1444,00
181,21	1320,00
188,08	1312,00
194,93	1248,00
201,78	1322,00
208,62	1387,00
215,45	1288,00
222,27	1375,00
229,09	1241,00
235,90	1389,00
242,70	1091,00
249,49	1191,00
256,27	1241,00
263,05	1251,00
269,82	1133,00
276,58	1149,00
283,33	1127,00
290,08	1325,00
296,82	1183,00
303,55	1106,00
310,27	1179,00
316,98	1060,00
323,69	1154,00
330,39	1139,00
337,08	1059,00
343,76	1080,00
350,44	1141,00
357,11	1010,00
363,77	1252,00
370,42	1139,00
377,07	1164,00
383,71	1137,00
390,34	991,00
396,96	1111,00
403,58	922,00
410,19	1041,00
416,79	1018,00
423,38	1012,00
429,97	1046,00
436,55	1073,00
443,12	1055,00
449,68	1065,00
456,24	1059,00
462,79	1028,00
469,33	928,00
475,86	1024,00
482,39	1024,00
488,91	929,00
495,42	992,00
501,93	1028,00
508,42	1081,00
514,91	968,00
521,40	925,00
527,87	966,00
534,34	816,00
540,80	951,00
547,25	912,00
553,70	899,00
560,14	895,00
566,57	889,00
573,00	926,00
579,41	919,00
585,83	1003,00
592,23	948,00
598,62	806,00
605,01	854,00
611,40	819,00
617,77	906,00
624,14	899,00
630,50	928,00
636,85	800,00
643,20	820,00
649,54	879,00
655,87	892,00
662,20	870,00
668,52	756,00
674,83	700,00
681,13	842,00
687,43	878,00
693,72	858,00
700,00	804,00
706,28	848,00
712,55	927,00
718,81	993,00
725,07	924,00
731,32	834,00
737,56	1059,00
743,79	812,00
750,02	859,00
756,24	888,00
762,46	815,00
768,67	910,00
774,87	859,00
781,06	885,00
787,25	876,00
793,43	878,00
799,60	797,00
805,77	776,00
811,93	900,00
818,08	913,00
824,23	872,00
830,37	891,00
836,50	864,00
842,63	837,00
848,75	880,00
854,87	816,00
860,97	960,00
867,07	972,00
873,17	913,00
879,25	776,00
885,33	883,00
891,41	805,00
897,47	691,00
903,53	890,00
909,59	855,00
915,63	938,00
921,67	739,00
927,71	769,00
933,74	811,00
939,76	857,00
945,77	801,00
951,78	897,00
957,78	807,00
963,78	735,00
969,77	733,00
975,75	691,00
981,72	798,00
987,69	965,00
993,66	856,00
999,61	835,00
1005,56	952,00
1011,51	770,00
1017,44	735,00
1023,37	884,00
1029,30	852,00
1035,22	842,00
1041,13	820,00
1047,03	890,00
1052,93	1119,00
1058,83	1395,00
1064,71	1334,00
1070,59	1079,00
1076,47	1007,00
1082,33	946,00
1088,20	944,00
1094,05	959,00
1099,90	867,00
1105,74	880,00
1111,58	855,00
1117,41	960,00
1123,23	1200,00
1129,05	1373,00
1134,86	1278,00
1140,67	1124,00
1146,47	1004,00
1152,26	962,00
1158,05	860,00
1163,83	901,00
1169,60	940,00
1175,37	1104,00
1181,13	817,00
1186,89	806,00
1192,64	965,00
1198,38	890,00
1204,12	803,00
1209,85	897,00
1215,58	1005,00
1221,30	912,00
1227,02	869,00
1232,72	793,00
1238,43	838,00
1244,12	925,00
1249,81	888,00
1255,50	919,00
1261,17	957,00
1266,85	1031,00
1272,51	1026,00
1278,17	1053,00
1283,83	1137,00
1289,47	1592,00
1295,12	1742,00
1300,75	1631,00
1306,38	1372,00
1312,01	1195,00
1317,63	932,00
1323,24	1199,00
1328,85	1028,00
1334,45	1078,00
1340,04	926,00
1345,63	1101,00
1351,22	1041,00
1356,80	933,00
1362,37	1151,00
1367,93	1208,00
1373,49	1115,00
1379,05	1016,00
1384,60	1066,00
1390,14	1211,00
1395,68	1030,00
1401,21	1103,00
1406,74	1131,00
1412,26	1440,00
1417,77	1372,00
1423,28	1325,00
1428,78	1421,00
1434,28	1528,00
1439,77	1829,00
1445,26	1786,00
1450,74	1662,00
1456,22	1506,00
1461,68	1484,00
1467,15	1288,00
1472,61	1267,00
1478,06	1272,00
1483,51	1076,00
1488,95	1092,00
1494,38	923,00
1499,81	882,00
1505,24	984,00
1510,65	884,00
1516,07	961,00
1521,48	800,00
1526,88	881,00
1532,27	887,00
1537,67	966,00
1543,05	920,00
1548,43	855,00
1553,81	812,00
1559,18	976,00
1564,54	960,00
1569,90	925,00
1575,25	827,00
1580,60	992,00
1585,94	819,00
1591,28	864,00
1596,61	964,00
1601,93	928,00
1607,25	835,00
1612,57	812,00
1617,88	980,00
1623,18	881,00
1628,48	796,00
1633,77	885,00
1639,06	905,00
1644,34	924,00
1649,62	815,00
1654,89	852,00
1660,16	805,00
1665,42	805,00
1670,67	815,00
1675,92	686,00
1681,17	751,00
1686,41	804,00
1691,64	994,00
1696,87	724,00
1702,10	720,00
1707,32	666,00
1712,53	906,00
1717,74	803,00
1722,94	748,00
1728,14	847,00
1733,33	697,00
1738,52	838,00
1743,70	817,00
1748,88	748,00
1754,05	860,00
1759,22	765,00
1764,38	676,00
1769,53	578,00
1774,69	656,00
1779,83	774,00
1784,97	694,00
1790,11	584,00
1795,24	665,00
1800,36	848,00
1805,48	759,00
1810,60	706,00
1815,71	669,00
1820,82	762,00
1825,92	767,00
1831,01	779,00
1836,10	854,00
1841,19	776,00
1846,26	712,00
1851,34	690,00
1856,41	627,00
1861,47	674,00
1866,53	675,00
1871,59	726,00
1876,64	833,00
1881,68	730,00
1886,72	646,00
1891,76	704,00
1896,79	777,00
1901,81	665,00
1906,83	696,00
1911,85	730,00
1916,86	698,00
1921,86	616,00
1926,86	671,00
1931,86	792,00
1936,85	694,00
1941,83	682,00
1946,81	748,00
1951,79	747,00
1956,76	669,00
1961,72	792,00
1966,68	747,00
1971,64	725,00
1976,59	619,00
1981,54	625,00
1986,48	612,00
1991,42	574,00
1996,35	798,00
2001,27	511,00
2006,20	766,00
2011,11	687,00
2016,03	595,00
2020,93	764,00
2025,84	569,00
2030,73	638,00
2035,63	620,00
2040,52	679,00
2045,40	578,00
2050,28	522,00
2055,15	645,00
2060,02	607,00
2064,89	627,00
2069,75	663,00
2074,60	594,00
2079,46	568,00
2084,30	761,00
2089,14	570,00
2093,98	576,00
2098,81	698,00
2103,64	653,00
2108,46	647,00
2113,28	710,00
2118,09	620,00
2122,90	712,00
2127,70	748,00
2132,50	587,00
2137,30	672,00
2142,09	618,00
2146,87	770,00
2151,66	712,00
2156,43	641,00
2161,20	675,00
2165,97	592,00
2170,73	598,00
2175,49	577,00
2180,24	564,00
2184,99	654,00
2189,74	605,00
2194,48	574,00
2199,21	590,00
2203,94	655,00
2208,67	619,00
2213,39	520,00
2218,11	478,00
2222,82	591,00
2227,53	609,00
2232,23	553,00
2236,93	575,00
2241,63	660,00
2246,32	512,00
2251,00	667,00
2255,68	594,00
2260,36	529,00
2265,03	612,00
2269,70	579,00
2274,36	635,00
2279,02	528,00
2283,68	594,00
2288,33	556,00
2292,97	486,00
2297,61	685,00
2302,25	518,00
2306,88	477,00
2311,51	543,00
2316,14	538,00
2320,75	630,00
2325,37	495,00
2329,98	548,00
2334,59	557,00
2339,19	513,00
2343,79	491,00
2348,38	600,00
2352,97	462,00
2357,55	639,00
2362,13	563,00
2366,71	477,00
2371,28	526,00
2375,85	585,00
2380,41	641,00
2384,97	594,00
2389,52	358,00
2394,07	401,00
2398,62	376,00
2403,16	620,00
2407,70	452,00
2412,23	591,00
2416,76	540,00
2421,29	464,00
2425,81	617,00
2430,32	610,00
2434,84	496,00
2439,34	481,00
2443,85	438,00
2448,35	625,00
2452,84	514,00
2457,33	468,00
2461,82	475,00
2466,30	499,00
2470,78	573,00
2475,25	484,00
2479,72	533,00
2484,19	499,00
2488,65	557,00
2493,11	400,00
2497,56	479,00
2502,01	443,00
2506,46	370,00
2510,90	536,00
2515,34	482,00
2519,77	547,00
2524,20	571,00
2528,62	497,00
2533,04	534,00
2537,46	560,00
2541,87	419,00
2546,28	419,00
2550,68	420,00
2555,08	421,00
2559,48	511,00
2563,87	453,00
2568,26	365,00
2572,64	401,00
2577,02	464,00
2581,40	399,00
2585,77	500,00
2590,14	495,00
2594,50	425,00
2598,86	519,00
2603,22	338,00
2607,57	367,00
2611,92	429,00
2616,26	449,00
2620,60	505,00
2624,94	447,00
2629,27	403,00
2633,60	437,00
2637,92	485,00
2642,24	416,00
2646,56	443,00
2650,87	440,00
2655,18	420,00
2659,48	301,00
2663,78	508,00
2668,08	456,00
2672,37	544,00
2676,66	460,00
2680,95	418,00
2685,23	445,00
2689,50	440,00
2693,78	382,00
2698,05	461,00
2702,31	443,00
2706,57	372,00
2710,83	430,00
2715,08	383,00
2719,33	553,00
2723,58	512,00
2727,82	408,00
2732,06	468,00
2736,29	482,00
2740,53	465,00
2744,75	440,00
2748,97	354,00
2753,19	495,00
2757,41	298,00
2761,62	415,00
2765,83	381,00
2770,03	406,00
2774,23	460,00
2778,43	464,00
2782,62	603,00
2786,81	381,00
2791,00	440,00
2795,18	484,00
2799,35	483,00
2803,53	355,00
2807,70	605,00
2811,86	587,00
2816,03	370,00
2820,19	552,00
2824,34	631,00
2828,49	616,00
2832,64	663,00
2836,78	776,00
2840,92	1046,00
2845,06	1236,00
2849,19	1289,00
2853,32	1388,00
2857,45	1370,00
2861,57	1356,00
2865,69	1216,00
2869,80	1188,00
2873,91	1125,00
2878,02	1400,00
2882,12	1428,00
2886,22	1445,00
2890,32	1324,00
2894,41	1267,00
2898,50	1115,00
2902,58	1095,00
2906,67	1074,00
2910,74	920,00
2914,82	806,00
2918,89	847,00
2922,96	659,00
2927,02	751,00
2931,08	779,00
2935,13	601,00
2939,19	589,00
2943,24	536,00
2947,28	501,00
2951,32	575,00
2955,36	521,00
2959,40	473,00
2963,43	391,00
2967,46	419,00
2971,48	345,00
2975,50	393,00
2979,52	313,00
2983,53	330,00
2987,54	296,00
2991,55	304,00
2995,55	348,00
2999,55	432,00
3003,54	320,00
3007,54	252,00
3011,53	304,00
3015,51	459,00
3019,49	128,00
3023,47	254,00
3027,45	303,00
3031,42	313,00
3035,39	135,00
3039,35	188,00
3043,31	199,00
3047,27	223,00
3051,22	332,00
3055,17	287,00
3059,12	170,00
3063,06	287,00
3067,00	254,00
3070,94	238,00
3074,87	289,00
3078,80	296,00
3082,73	300,00
3086,65	217,00
3090,57	252,00
3094,49	175,00
3098,40	171,00
3102,31	260,00
3106,22	161,00
3110,12	362,00
3114,02	262,00
3117,92	252,00
3121,81	240,00
3125,70	195,00
3129,58	256,00
3133,47	109,00
3137,34	186,00
3141,22	248,00
3145,09	280,00
3148,96	170,00
3152,83	258,00
3156,69	240,00
3160,55	267,00
3164,40	107,00
3168,26	48,00
3172,10	303,00
3175,95	170,00
3179,79	141,00
3183,63	103,00
3187,47	249,00
3191,30	243,00
3195,13	291,00
3198,95	28,00
3202,78	183,00
3206,60	205,00
3210,41	253,00
3214,23	170,00
3218,03	246,00
3221,84	17,00
3225,64	128,00
3229,44	198,00
3233,24	131,00
3237,03	199,00
3240,82	127,00
3244,61	112,00
3248,39	89,00
3252,17	254,00
3255,95	166,00
3259,72	173,00
3263,49	204,00
3267,26	270,00
3271,03	181,00
3274,79	97,00
3278,54	119,00
3282,30	154,00
3286,05	88,00
3289,80	-62,00
3293,54	59,00
3297,29	131,00
3301,02	108,00
3304,76	7,00
3308,49	239,00
3312,22	121,00
3315,95	73,00
3319,67	215,00
3323,39	128,00
3327,10	232,00
3330,82	156,00
3334,53	181,00
3338,24	104,00
3341,94	215,00
3345,64	179,00
3349,34	131,00
3353,03	71,00
3356,72	199,00
3360,41	140,00
3364,10	176,00
3367,78	-4,00
3371,46	66,00
3375,13	172,00
3378,81	64,00
3382,48	172,00
3386,14	-101,00
3389,81	137,00
3393,47	114,00
3397,12	47,00
3400,78	87,00
3404,43	191,00
3408,08	181,00
3411,72	140,00
3415,36	44,00
3419,00	74,00
3422,64	128,00
3426,27	159,00
3429,90	42,00
3433,53	58,00
3437,15	145,00
3440,77	66,00
3444,39	174,00
3448,00	-29,00
3451,62	70,00
3455,22	124,00
3458,83	70,00
3462,43	27,00
3466,03	-18,00
3469,63	112,00
3473,22	136,00
3476,81	85,00
3480,40	-38,00
3483,99	-2,00
3487,57	-2,00
3491,15	16,00
3494,72	73,00
3498,29	-11,00
3501,86	121,00
3505,43	-104,00
3508,99	85,00
3512,56	56,00
3516,11	109,00
3519,67	73,00
3523,22	-1,00
3526,77	94,00
3530,32	101,00
3533,86	36,00
3537,40	52,00
3540,94	30,00
3544,47	73,00
3548,00	123,00
3551,53	111,00
3555,06	-53,00
3558,58	47,00
3562,10	123,00
3565,62	174,00
3569,13	-14,00
3572,64	17,00
3576,15	20,00
3579,66	18,00
3583,16	68,00
3586,66	-24,00
3590,16	35,00
3593,65	47,00
3597,14	-22,00
3600,63	96,00
3604,11	45,00
3607,60	62,00
3611,08	139,00
3614,55	-51,00
3618,03	94,00
3621,50	38,00
3624,97	37,00
3628,43	76,00
3631,90	68,00
3635,36	50,00
3638,81	-14,00
3642,27	-56,00
3645,72	140,00
3649,17	-31,00
3652,61	-53,00
3656,06	51,00
3659,50	-30,00
3662,93	-19,00
3666,37	-24,00
3669,80	120,00
3673,23	-7,00
3676,65	162,00
3680,08	-50,00
3683,50	-57,00
3686,92	-41,00
3690,33	-89,00
3693,74	88,00
3697,15	104,00
3700,56	-53,00
3703,96	73,00
3707,36	1,00
3710,76	-7,00
3714,16	84,00
3717,55	87,00
3720,94	92,00
3724,33	33,00
3727,71	-67,00
3731,10	39,00
3734,48	-22,00
3737,85	66,00
3741,23	63,00
3744,60	79,00
3747,97	-3,00
3751,33	-35,00
3754,69	15,00
3758,05	150,00
3761,41	17,00
3764,77	40,00
3768,12	98,00
3771,47	155,00
3774,82	46,00
3778,16	1,00
3781,50	2,00
3784,84	6,00
3788,18	7,00
>>>>>End Processed Spectral Data<<<<<
