SpectraSuite Data File
++++++++++++++++++++++++++++++++++++
Date: Tue Mar 03 12:39:52 ICT 2026
User: user
Dark Spectrum Present: Yes
Reference Spectrum Present: No
Number of Sampled Component Spectra: 1
Spectrometers: MAYP113682
Integration Time (usec): 3000000 (MAYP113682)
Spectra Averaged: 1 (MAYP113682)
Boxcar Smoothing: 0 (MAYP113682)
Correct for Electrical Dark: No (MAYP113682)
Strobe/Lamp Enabled: No (MAYP113682)
Correct for Detector Non-linearity: No (MAYP113682)
Correct for Stray Light: No (MAYP113682)
Number of Pixels in Processed Spectrum: 2068
>>>>>Begin Processed Spectral Data<<<<<
-37534,58	8,00
-37414,56	-5,00
-37295,11	1,00
-37176,24	-1,00
-37057,95	13,00
-36940,22	-43,00
-36823,05	133,00
-36706,45	34,00
-36590,40	113,00
-36474,90	90,00
-36359,95	107,00
-36245,55	197,00
-36131,68	-27,00
-36018,35	58,00
-35905,55	113,00
-35793,29	109,00
-35681,54	130,00
-35570,32	-37,00
-35459,62	-72,00
-35349,43	-2,00
-35239,75	219,00
-35130,58	109,00
-35021,91	102,00
-34913,74	258,00
-34806,07	152,00
-34698,89	205,00
-34592,20	24,00
-34486,00	53,00
-34380,28	92,00
-34275,04	-30,00
-34170,27	-3,00
-34065,98	27,00
-33962,16	22,00
-33858,81	53,00
-33755,92	141,00
-33653,49	109,00
-33551,52	85,00
-33450,01	82,00
-33348,94	137,00
-33248,33	52,00
-33148,16	38,00
-33048,43	66,00
-32949,14	116,00
-32850,29	252,00
-32751,87	112,00
-32653,89	161,00
-32556,33	86,00
-32459,20	51,00
-32362,49	7,00
-32266,19	159,00
-32170,32	61,00
-32074,86	15,00
-31979,82	184,00
-31885,18	-39,00
-31790,95	-15,00
-31697,12	107,00
-31603,69	66,00
-31510,67	177,00
-31418,04	144,00
-31325,80	178,00
-31233,95	144,00
-31142,49	145,00
-31051,42	202,00
-30960,73	60,00
-30870,43	185,00
-30780,50	177,00
-30690,95	121,00
-30601,77	93,00
-30512,97	17,00
-30424,53	200,00
-30336,46	177,00
-30248,76	163,00
-30161,42	91,00
-30074,44	186,00
-29987,81	73,00
-29901,55	136,00
-29815,63	14,00
-29730,07	-46,00
-29644,86	119,00
-29560,00	137,00
-29475,48	101,00
-29391,30	53,00
-29307,47	97,00
-29223,97	134,00
-29140,81	-21,00
-29057,99	74,00
-28975,50	200,00
-28893,34	113,00
-28811,51	167,00
-28730,00	167,00
-28648,82	92,00
-28567,97	72,00
-28487,43	137,00
-28407,21	10,00
-28327,32	34,00
-28247,73	-6,00
-28168,46	29,00
-28089,50	27,00
-28010,85	12,00
-27932,51	160,00
-27854,48	-23,00
-27776,75	161,00
-27699,32	111,00
-27622,19	117,00
-27545,37	175,00
-27468,84	6,00
-27392,60	118,00
-27316,66	54,00
-27241,01	-103,00
-27165,66	219,00
-27090,59	0,00
-27015,81	195,00
-26941,31	190,00
-26867,10	104,00
-26793,17	40,00
-26719,52	48,00
-26646,15	132,00
-26573,06	140,00
-26500,24	61,00
-26427,70	4,00
-26355,43	139,00
-26283,43	142,00
-26211,71	113,00
-26140,25	34,00
-26069,06	247,00
-25998,13	-45,00
-25927,46	94,00
-25857,06	150,00
-25786,92	89,00
-25717,04	-90,00
-25647,42	102,00
-25578,05	30,00
-25508,94	-40,00
-25440,09	127,00
-25371,48	155,00
-25303,13	79,00
-25235,02	90,00
-25167,17	58,00
-25099,56	193,00
-25032,19	139,00
-24965,07	140,00
-24898,20	62,00
-24831,56	96,00
-24765,17	10,00
-24699,01	237,00
-24633,10	65,00
-24567,41	-23,00
-24501,97	24,00
-24436,75	-16,00
-24371,77	172,00
-24307,03	7,00
-24242,51	109,00
-24178,22	20,00
-24114,16	-51,00
-24050,32	-1,00
-23986,71	96,00
-23923,32	120,00
-23860,16	-32,00
-23797,22	139,00
-23734,50	113,00
-23672,00	101,00
-23609,71	352,00
-23547,65	78,00
-23485,80	156,00
-23424,16	115,00
-23362,74	-15,00
-23301,53	-57,00
-23240,54	82,00
-23179,75	200,00
-23119,17	32,00
-23058,80	193,00
-22998,64	86,00
-22938,68	68,00
-22878,93	8,00
-22819,39	121,00
-22760,04	-2,00
-22700,90	2,00
-22641,96	29,00
-22583,22	102,00
-22524,68	45,00
-22466,33	107,00
-22408,19	88,00
-22350,23	170,00
-22292,48	134,00
-22234,92	67,00
-22177,55	55,00
-22120,37	104,00
-22063,38	117,00
-22006,58	171,00
-21949,98	159,00
-21893,56	192,00
-21837,33	144,00
-21781,28	181,00
-21725,42	49,00
-21669,74	188,00
-21614,25	89,00
-21558,94	112,00
-21503,81	135,00
-21448,86	155,00
-21394,10	124,00
-21339,51	156,00
-21285,10	52,00
-21230,86	44,00
-21176,81	123,00
-21122,93	189,00
-21069,22	176,00
-21015,69	116,00
-20962,33	63,00
-20909,14	94,00
-20856,13	168,00
-20803,28	-82,00
-20750,61	95,00
-20698,10	155,00
-20645,76	107,00
-20593,59	120,00
-20541,59	135,00
-20489,75	127,00
-20438,07	-4,00
-20386,56	107,00
-20335,22	83,00
-20284,03	118,00
-20233,01	93,00
-20182,15	33,00
-20131,45	45,00
-20080,91	-41,00
-20030,52	58,00
-19980,30	69,00
-19930,23	83,00
-19880,32	126,00
-19830,56	176,00
-19780,96	181,00
-19731,52	72,00
-19682,23	-24,00
-19633,09	65,00
-19584,10	63,00
-19535,26	251,00
-19486,58	168,00
-19438,04	-36,00
-19389,66	121,00
-19341,42	116,00
-19293,33	-4,00
-19245,39	167,00
-19197,60	153,00
-19149,95	271,00
-19102,45	86,00
-19055,09	138,00
-19007,87	142,00
-18960,80	175,00
-18913,87	1,00
-18867,09	58,00
-18820,44	193,00
-18773,94	114,00
-18727,57	23,00
-18681,35	113,00
-18635,26	206,00
-18589,31	123,00
-18543,50	35,00
-18497,83	-41,00
-18452,29	37,00
-18406,89	73,00
-18361,63	86,00
-18316,50	140,00
-18271,50	64,00
-18226,63	156,00
-18181,90	72,00
-18137,30	204,00
-18092,84	-20,00
-18048,50	132,00
-18004,29	156,00
-17960,22	89,00
-17916,27	146,00
-17872,45	76,00
-17828,76	22,00
-17785,20	-3,00
-17741,77	72,00
-17698,46	44,00
-17655,28	119,00
-17612,22	74,00
-17569,29	93,00
-17526,48	87,00
-17483,79	-54,00
-17441,23	-55,00
-17398,79	11,00
-17356,48	62,00
-17314,28	186,00
-17272,21	169,00
-17230,26	120,00
-17188,42	125,00
-17146,71	179,00
-17105,12	5,00
-17063,64	123,00
-17022,28	43,00
-16981,04	-42,00
-16939,92	86,00
-16898,91	16,00
-16858,02	-14,00
-16817,25	125,00
-16776,59	210,00
-16736,04	202,00
-16695,61	167,00
-16655,29	250,00
-16615,09	90,00
-16574,99	32,00
-16535,01	66,00
-16495,15	78,00
-16455,39	67,00
-16415,74	104,00
-16376,21	-22,00
-16336,78	12,00
-16297,46	68,00
-16258,26	229,00
-16219,16	137,00
-16180,17	129,00
-16141,28	142,00
-16102,51	-4,00
-16063,84	-31,00
-16025,27	112,00
-15986,82	184,00
-15948,46	-48,00
-15910,22	171,00
-15872,07	5,00
-15834,04	105,00
-15796,10	178,00
-15758,27	77,00
-15720,54	81,00
-15682,91	87,00
-15645,39	54,00
-15607,97	69,00
-15570,64	14,00
-15533,42	94,00
-15496,30	140,00
-15459,28	33,00
-15422,36	51,00
-15385,54	41,00
-15348,82	138,00
-15312,19	35,00
-15275,66	69,00
-15239,23	12,00
-15202,90	91,00
-15166,67	99,00
-15130,53	-38,00
-15094,48	111,00
-15058,54	140,00
-15022,68	88,00
-14986,93	51,00
-14951,26	67,00
-14915,69	24,00
-14880,22	126,00
-14844,84	-6,00
-14809,55	3,00
-14774,35	104,00
-14739,25	154,00
-14704,24	41,00
-14669,32	48,00
-14634,49	154,00
-14599,75	159,00
-14565,10	195,00
-14530,55	121,00
-14496,08	159,00
-14461,70	51,00
-14427,41	28,00
-14393,21	23,00
-14359,10	32,00
-14325,07	157,00
-14291,14	221,00
-14257,29	105,00
-14223,52	70,00
-14189,85	44,00
-14156,26	72,00
-14122,76	3,00
-14089,34	88,00
-14056,01	92,00
-14022,76	92,00
-13989,60	-26,00
-13956,52	118,00
-13923,53	87,00
-13890,62	34,00
-13857,79	138,00
-13825,05	34,00
-13792,39	76,00
-13759,81	110,00
-13727,31	9,00
-13694,90	51,00
-13662,57	150,00
-13630,31	165,00
-13598,14	43,00
-13566,05	51,00
-13534,05	102,00
-13502,12	171,00
-13470,27	47,00
-13438,50	-48,00
-13406,80	165,00
-13375,19	0,00
-13343,66	39,00
-13312,20	-79,00
-13280,83	111,00
-13249,53	117,00
-13218,30	-31,00
-13187,16	64,00
-13156,09	64,00
-13125,10	174,00
-13094,18	223,00
-13063,34	61,00
-13032,58	144,00
-13001,89	72,00
-12971,28	104,00
-12940,74	112,00
-12910,27	-5,00
-12879,88	-18,00
-12849,57	54,00
-12819,33	41,00
-12789,16	-35,00
-12759,06	133,00
-12729,04	80,00
-12699,09	-5,00
-12669,21	77,00
-12639,41	-4,00
-12609,68	31,00
-12580,02	116,00
-12550,43	85,00
-12520,91	72,00
-12491,46	36,00
-12462,08	91,00
-12432,77	171,00
-12403,54	104,00
-12374,37	25,00
-12345,27	2,00
-12316,24	113,00
-12287,29	107,00
-12258,40	92,00
-12229,57	200,00
-12200,82	192,00
-12172,14	-15,00
-12143,52	3,00
-12114,97	99,00
-12086,49	-68,00
-12058,07	65,00
-12029,73	-49,00
-12001,44	83,00
-11973,23	95,00
-11945,08	44,00
-11917,00	68,00
-11888,98	155,00
-11861,03	105,00
-11833,15	137,00
-11805,32	82,00
-11777,57	139,00
-11749,88	115,00
-11722,25	80,00
-11694,69	90,00
-11667,19	21,00
-11639,75	56,00
-11612,38	180,00
-11585,07	234,00
-11557,83	37,00
-11530,65	-46,00
-11503,53	128,00
-11476,47	152,00
-11449,48	203,00
-11422,54	97,00
-11395,67	56,00
-11368,86	108,00
-11342,11	83,00
-11315,43	44,00
-11288,80	139,00
-11262,23	221,00
-11235,73	180,00
-11209,28	-16,00
-11182,90	99,00
-11156,57	31,00
-11130,31	169,00
-11104,10	109,00
-11077,96	126,00
-11051,87	150,00
-11025,84	159,00
-10999,87	183,00
-10973,96	82,00
-10948,11	76,00
-10922,31	126,00
-10896,58	169,00
-10870,90	117,00
-10845,28	135,00
-10819,71	5,00
-10794,20	109,00
-10768,75	243,00
-10743,36	112,00
-10718,02	93,00
-10692,74	58,00
-10667,52	126,00
-10642,35	192,00
-10617,24	288,00
-10592,18	164,00
-10567,18	114,00
-10542,23	251,00
-10517,34	336,00
-10492,51	203,00
-10467,72	326,00
-10443,00	314,00
-10418,32	283,00
-10393,70	360,00
-10369,14	317,00
-10344,63	261,00
-10320,17	419,00
-10295,77	377,00
-10271,42	371,00
-10247,12	282,00
-10222,88	277,00
-10198,68	418,00
-10174,54	453,00
-10150,46	498,00
-10126,42	372,00
-10102,44	501,00
-10078,51	590,00
-10054,63	669,00
-10030,80	615,00
-10007,03	437,00
-9983,30	545,00
-9959,63	592,00
-9936,01	671,00
-9912,44	703,00
-9888,92	710,00
-9865,44	798,00
-9842,02	927,00
-9818,65	670,00
-9795,33	821,00
-9772,06	791,00
-9748,84	848,00
-9725,67	1068,00
-9702,55	1138,00
-9679,47	1395,00
-9656,45	1431,00
-9633,47	1500,00
-9610,55	1515,00
-9587,67	1482,00
-9564,84	1808,00
-9542,06	1786,00
-9519,32	2082,00
-9496,64	2318,00
-9474,00	2459,00
-9451,41	2436,00
-9428,87	2442,00
-9406,37	2468,00
-9383,92	2081,00
-9361,52	2051,00
-9339,17	2072,00
-9316,86	2411,00
-9294,60	2879,00
-9272,38	2996,00
-9250,21	3173,00
-9228,09	3269,00
-9206,01	3216,00
-9183,98	2869,00
-9162,00	2436,00
-9140,06	2454,00
-9118,16	2367,00
-9096,31	2574,00
-9074,51	2476,00
-9052,75	2469,00
-9031,04	2462,00
-9009,37	2139,00
-8987,74	1910,00
-8966,16	1609,00
-8944,63	1562,00
-8923,14	1334,00
-8901,69	1577,00
-8880,29	1767,00
-8858,93	2049,00
-8837,61	2051,00
-8816,34	2344,00
-8795,11	2271,00
-8773,92	2214,00
-8752,78	1879,00
-8731,68	1716,00
-8710,62	1867,00
-8689,61	1902,00
-8668,63	2040,00
-8647,70	2178,00
-8626,82	2168,00
-8605,97	1979,00
-8585,17	2031,00
-8564,41	1677,00
-8543,69	1802,00
-8523,01	1599,00
-8502,37	1593,00
-8481,78	1598,00
-8461,23	1803,00
-8440,71	2017,00
-8420,24	1928,00
-8399,81	2223,00
-8379,42	2192,00
-8359,08	1896,00
-8338,77	1718,00
-8318,50	1676,00
-8298,27	1518,00
-8278,09	1627,00
-8257,94	1616,00
-8237,83	1878,00
-8217,76	1961,00
-8197,74	1966,00
-8177,75	1889,00
-8157,80	1610,00
-8137,89	1615,00
-8118,02	1635,00
-8098,19	1328,00
-8078,40	1562,00
-8058,65	1669,00
-8038,93	1788,00
-8019,26	1622,00
-7999,62	1639,00
-7980,02	1559,00
-7960,46	1542,00
-7940,94	1394,00
-7921,46	1542,00
-7902,01	1403,00
-7882,60	1377,00
-7863,23	1371,00
-7843,90	1551,00
-7824,61	1638,00
-7805,35	1715,00
-7786,13	1652,00
-7766,95	1672,00
-7747,80	1476,00
-7728,69	1612,00
-7709,62	1493,00
-7690,59	1487,00
-7671,59	1744,00
-7652,63	1731,00
-7633,70	1713,00
-7614,81	1543,00
-7595,96	1537,00
-7577,15	1458,00
-7558,37	1401,00
-7539,62	1473,00
-7520,91	1668,00
-7502,24	1589,00
-7483,60	1586,00
-7465,00	1490,00
-7446,44	1308,00
-7427,91	1319,00
-7409,41	1227,00
-7390,95	1015,00
-7372,53	1098,00
-7354,14	1128,00
-7335,78	1001,00
-7317,46	1123,00
-7299,18	1308,00
-7280,92	1479,00
-7262,71	1501,00
-7244,52	1681,00
-7226,38	1610,00
-7208,26	1486,00
-7190,18	1644,00
-7172,14	1352,00
-7154,12	1500,00
-7136,15	1548,00
-7118,20	1556,00
-7100,29	1701,00
-7082,41	1594,00
-7064,57	1387,00
-7046,76	1469,00
-7028,98	1291,00
-7011,24	1022,00
-6993,53	899,00
-6975,85	869,00
-6958,20	819,00
-6940,59	785,00
-6923,01	813,00
-6905,46	969,00
-6887,94	1031,00
-6870,46	-1501,00
-6853,01	1399,00
-6835,59	1453,00
-6818,21	1293,00
-6800,85	1114,00
-6783,53	960,00
-6766,24	751,00
-6748,98	709,00
-6731,76	682,00
-6714,56	638,00
-6697,40	631,00
-6680,26	733,00
-6663,16	837,00
-6646,09	944,00
-6629,05	1112,00
-6612,05	1200,00
-6595,07	1161,00
-6578,13	1052,00
-6561,21	920,00
-6544,33	744,00
-6527,47	564,00
-6510,65	583,00
-6493,86	561,00
-6477,10	531,00
-6460,36	636,00
-6443,66	505,00
-6426,99	517,00
-6410,35	558,00
-6393,74	588,00
-6377,16	685,00
-6360,61	824,00
-6344,09	855,00
-6327,59	1034,00
-6311,13	808,00
-6294,70	946,00
-6278,29	989,00
-6261,92	1034,00
-6245,58	1175,00
-6229,26	1246,00
-6212,97	957,00
-6196,72	790,00
-6180,49	721,00
-6164,29	444,00
-6148,12	358,00
-6131,98	312,00
-6115,86	309,00
-6099,78	375,00
-6083,72	169,00
-6067,69	278,00
-6051,69	258,00
-6035,72	350,00
-6019,78	467,00
-6003,87	552,00
-5987,98	875,00
-5972,12	742,00
-5956,29	813,00
-5940,49	572,00
-5924,71	483,00
-5908,96	563,00
-5893,24	271,00
-5877,55	367,00
-5861,89	366,00
-5846,25	419,00
-5830,64	450,00
-5815,05	396,00
-5799,50	337,00
-5783,97	370,00
-5768,47	476,00
-5752,99	357,00
-5737,55	901,00
-5722,12	860,00
-5706,73	742,00
-5691,36	576,00
-5676,02	427,00
-5660,71	429,00
-5645,42	318,00
-5630,16	454,00
-5614,92	418,00
-5599,71	537,00
-5584,53	597,00
-5569,37	539,00
-5554,24	1509,00
-5539,14	483,00
-5524,06	324,00
-5509,01	510,00
-5493,98	563,00
-5478,98	422,00
-5464,00	596,00
-5449,05	528,00
-5434,13	363,00
-5419,23	373,00
-5404,36	418,00
-5389,51	451,00
-5374,69	655,00
-5359,89	926,00
-5345,12	827,00
-5330,37	756,00
-5315,65	635,00
-5300,95	634,00
-5286,28	395,00
-5271,63	493,00
-5257,01	526,00
-5242,41	560,00
-5227,84	545,00
-5213,29	339,00
-5198,76	165,00
-5184,26	289,00
-5169,79	390,00
-5155,33	440,00
-5140,91	448,00
-5126,51	594,00
-5112,13	545,00
-5097,77	483,00
-5083,44	436,00
-5069,13	298,00
-5054,85	452,00
-5040,59	378,00
-5026,36	589,00
-5012,15	553,00
-4997,96	470,00
-4983,80	350,00
-4969,66	225,00
-4955,54	342,00
-4941,44	354,00
-4927,37	690,00
-4913,33	744,00
-4899,30	792,00
-4885,30	693,00
-4871,33	572,00
-4857,37	249,00
-4843,44	136,00
-4829,53	285,00
-4815,65	494,00
-4801,79	328,00
-4787,95	374,00
-4774,13	386,00
-4760,34	346,00
-4746,56	103,00
-4732,82	289,00
-4719,09	384,00
-4705,38	570,00
-4691,70	830,00
-4678,04	818,00
-4664,41	516,00
-4650,79	481,00
-4637,20	245,00
-4623,63	305,00
-4610,08	436,00
-4596,56	469,00
-4583,05	472,00
-4569,57	504,00
-4556,11	146,00
-4542,67	236,00
-4529,25	257,00
-4515,86	464,00
-4502,49	619,00
-4489,13	582,00
-4475,80	529,00
-4462,49	326,00
-4449,21	370,00
-4435,94	214,00
-4422,70	290,00
-4409,47	403,00
-4396,27	361,00
-4383,09	257,00
-4369,93	187,00
-4356,79	162,00
-4343,67	285,00
-4330,58	332,00
-4317,50	314,00
-4304,45	350,00
-4291,41	227,00
-4278,40	166,00
-4265,41	84,00
-4252,44	318,00
-4239,49	441,00
-4226,55	293,00
-4213,65	316,00
-4200,76	323,00
-4187,89	236,00
-4175,04	96,00
-4162,21	236,00
-4149,40	10,00
-4136,61	32,00
-4123,85	116,00
-4111,10	240,00
-4098,37	200,00
-4085,66	207,00
-4072,98	210,00
-4060,31	116,00
-4047,66	269,00
-4035,04	175,00
-4022,43	153,00
-4009,84	-15,00
-3997,27	166,00
-3984,72	30,00
-3972,19	107,00
-3959,69	97,00
-3947,20	145,00
-3934,73	52,00
-3922,27	171,00
-3909,84	0,00
-3897,43	36,00
-3885,04	47,00
-3872,67	264,00
-3860,31	74,00
-3847,98	87,00
-3835,66	147,00
-3823,36	118,00
-3811,09	199,00
-3798,83	171,00
-3786,59	19,00
-3774,37	159,00
-3762,17	104,00
-3749,98	36,00
-3737,82	32,00
-3725,67	211,00
-3713,55	21,00
-3701,44	187,00
-3689,35	131,00
-3677,28	99,00
-3665,22	36,00
-3653,19	24,00
-3641,17	75,00
-3629,18	33,00
-3617,20	60,00
-3605,24	-11,00
-3593,30	100,00
-3581,37	152,00
-3569,47	73,00
-3557,58	48,00
-3545,71	100,00
-3533,86	32,00
-3522,02	53,00
-3510,21	142,00
-3498,41	177,00
-3486,63	168,00
-3474,87	89,00
-3463,12	122,00
-3451,40	15,00
-3439,69	34,00
-3428,00	38,00
-3416,33	48,00
-3404,67	-5,00
-3393,03	192,00
-3381,41	129,00
-3369,81	12,00
-3358,22	134,00
-3346,66	54,00
-3335,10	86,00
-3323,57	112,00
-3312,06	83,00
-3300,56	110,00
-3289,08	-57,00
-3277,61	43,00
-3266,16	68,00
-3254,73	244,00
-3243,32	169,00
-3231,92	30,00
-3220,55	19,00
-3209,18	46,00
-3197,84	170,00
-3186,51	107,00
-3175,20	50,00
-3163,90	148,00
-3152,63	52,00
-3141,36	125,00
-3130,12	-29,00
-3118,89	55,00
-3107,68	18,00
-3096,49	96,00
-3085,31	95,00
-3074,15	215,00
-3063,00	35,00
-3051,87	65,00
-3040,76	95,00
-3029,67	74,00
-3018,59	54,00
-3007,52	213,00
-2996,48	121,00
-2985,44	71,00
-2974,43	220,00
-2963,43	191,00
-2952,45	93,00
-2941,48	39,00
-2930,53	41,00
-2919,60	112,00
-2908,68	152,00
-2897,78	77,00
-2886,89	2,00
-2876,02	46,00
-2865,17	-82,00
-2854,33	82,00
-2843,50	23,00
-2832,70	80,00
-2821,90	4,00
-2811,13	-16,00
-2800,37	-8,00
-2789,62	160,00
-2778,89	103,00
-2768,18	113,00
-2757,48	125,00
-2746,80	224,00
-2736,13	21,00
-2725,48	86,00
-2714,84	-34,00
-2704,22	55,00
-2693,61	174,00
-2683,02	49,00
-2672,45	3,00
-2661,89	146,00
-2651,34	46,00
-2640,81	143,00
-2630,30	148,00
-2619,80	10,00
-2609,31	-25,00
-2598,84	116,00
-2588,39	164,00
-2577,95	36,00
-2567,52	55,00
-2557,11	157,00
-2546,71	133,00
-2536,33	30,00
-2525,97	72,00
-2515,62	118,00
-2505,28	-50,00
-2494,96	114,00
-2484,65	32,00
-2474,36	84,00
-2464,08	110,00
-2453,82	105,00
-2443,57	77,00
-2433,33	54,00
-2423,11	-11,00
-2412,91	51,00
-2402,72	91,00
-2392,54	-13,00
-2382,38	177,00
-2372,23	163,00
-2362,09	-154,00
-2351,97	139,00
-2341,87	41,00
-2331,78	134,00
-2321,70	78,00
-2311,64	95,00
-2301,59	10,00
-2291,55	140,00
-2281,53	48,00
-2271,53	235,00
-2261,53	111,00
-2251,55	-38,00
-2241,59	109,00
-2231,64	-19,00
-2221,70	111,00
-2211,78	185,00
-2201,87	144,00
-2191,97	-2,00
-2182,09	45,00
-2172,22	225,00
-2162,37	133,00
-2152,53	35,00
-2142,70	90,00
-2132,89	133,00
-2123,09	138,00
-2113,30	104,00
-2103,53	40,00
-2093,77	30,00
-2084,02	76,00
-2074,29	62,00
-2064,57	95,00
-2054,86	114,00
-2045,17	77,00
-2035,49	185,00
-2025,82	176,00
-2016,17	40,00
-2006,53	40,00
-1996,91	118,00
-1987,29	27,00
-1977,69	90,00
-1968,11	200,00
-1958,53	165,00
-1948,97	100,00
-1939,42	221,00
-1929,89	114,00
-1920,37	233,00
-1910,86	-8,00
-1901,36	148,00
-1891,88	26,00
-1882,41	79,00
-1872,95	182,00
-1863,51	-116,00
-1854,08	173,00
-1844,66	158,00
-1835,26	-32,00
-1825,86	46,00
-1816,48	141,00
-1807,11	-78,00
-1797,76	64,00
-1788,42	142,00
-1779,09	151,00
-1769,77	94,00
-1760,47	92,00
-1751,17	22,00
-1741,89	96,00
-1732,63	26,00
-1723,37	-64,00
-1714,13	99,00
-1704,90	5,00
-1695,68	190,00
-1686,48	81,00
-1677,29	62,00
-1668,11	129,00
-1658,94	56,00
-1649,78	55,00
-1640,64	109,00
-1631,51	197,00
-1622,39	124,00
-1613,28	148,00
-1604,19	147,00
-1595,10	44,00
-1586,03	197,00
-1576,97	156,00
-1567,93	140,00
-1558,89	95,00
-1549,87	216,00
-1540,86	152,00
-1531,86	34,00
-1522,87	-74,00
-1513,90	76,00
-1504,93	136,00
-1495,98	-91,00
-1487,04	186,00
-1478,12	153,00
-1469,20	196,00
-1460,30	168,00
-1451,40	212,00
-1442,52	-12,00
-1433,65	113,00
-1424,80	86,00
-1415,95	228,00
-1407,12	203,00
-1398,30	50,00
-1389,48	114,00
-1380,69	4,00
-1371,90	303,00
-1363,12	-5,00
-1354,36	55,00
-1345,60	185,00
-1336,86	130,00
-1328,13	81,00
-1319,41	108,00
-1310,70	167,00
-1302,01	80,00
-1293,32	223,00
-1284,65	91,00
-1275,99	175,00
-1267,33	2,00
-1258,69	103,00
-1250,06	144,00
-1241,45	84,00
-1232,84	172,00
-1224,25	-22,00
-1215,66	52,00
-1207,09	-24,00
-1198,53	33,00
-1189,97	57,00
-1181,43	117,00
-1172,91	61,00
-1164,39	-10,00
-1155,88	198,00
-1147,38	30,00
-1138,90	180,00
-1130,43	105,00
-1121,96	-6,00
-1113,51	-7,00
-1105,07	94,00
-1096,64	160,00
-1088,22	152,00
-1079,81	148,00
-1071,41	108,00
-1063,02	-18,00
-1054,65	155,00
-1046,28	25,00
-1037,92	62,00
-1029,58	101,00
-1021,24	26,00
-1012,92	255,00
-1004,61	97,00
-996,30	112,00
-988,01	73,00
-979,73	245,00
-971,46	26,00
-963,20	72,00
-954,95	11,00
-946,71	-17,00
-938,48	30,00
-930,26	-27,00
-922,06	140,00
-913,86	116,00
-905,67	157,00
-897,49	6,00
-889,33	174,00
-881,17	207,00
-873,02	145,00
-864,89	28,00
-856,76	16,00
-848,65	65,00
-840,54	56,00
-832,45	129,00
-824,36	21,00
-816,29	119,00
-808,22	-26,00
-800,17	100,00
-792,12	87,00
-784,09	114,00
-776,06	75,00
-768,05	152,00
-760,04	85,00
-752,05	122,00
-744,07	120,00
-736,09	132,00
-728,13	140,00
-720,17	100,00
-712,23	104,00
-704,29	16,00
-696,37	-25,00
-688,45	83,00
-680,55	1,00
-672,65	309,00
-664,77	123,00
-656,89	46,00
-649,03	116,00
-641,17	107,00
-633,32	154,00
-625,49	54,00
-617,66	127,00
-609,84	-48,00
-602,03	141,00
-594,23	113,00
-586,45	10,00
-578,67	189,00
-570,90	65,00
-563,14	183,00
-555,39	6,00
-547,65	65,00
-539,91	67,00
-532,19	182,00
-524,48	152,00
-516,78	54,00
-509,08	24,00
-501,40	8,00
-493,72	66,00
-486,06	24,00
-478,40	65,00
-470,76	34,00
-463,12	123,00
-455,49	138,00
-447,87	103,00
-440,26	109,00
-432,66	91,00
-425,07	213,00
-417,49	-26,00
-409,92	117,00
-402,35	-44,00
-394,80	172,00
-387,25	63,00
-379,72	55,00
-372,19	128,00
-364,67	222,00
-357,17	26,00
-349,67	50,00
-342,18	105,00
-334,69	220,00
-327,22	102,00
-319,76	66,00
-312,30	128,00
-304,86	140,00
-297,42	90,00
-290,00	159,00
-282,58	25,00
-275,17	138,00
-267,77	139,00
-260,37	49,00
-252,99	181,00
-245,62	183,00
-238,25	80,00
-230,90	174,00
-223,55	341,00
-216,21	157,00
-208,88	344,00
-201,56	199,00
-194,25	286,00
-186,94	182,00
-179,65	313,00
-172,36	324,00
-165,08	269,00
-157,81	288,00
-150,55	205,00
-143,30	388,00
-136,06	374,00
-128,82	367,00
-121,60	455,00
-114,38	459,00
-107,17	366,00
-99,97	489,00
-92,78	518,00
-85,60	675,00
-78,42	710,00
-71,25	803,00
-64,10	1024,00
-56,95	1179,00
-49,81	1336,00
-42,67	1582,00
-35,55	1988,00
-28,43	2636,00
-21,33	4720,00
-14,23	15904,00
-7,14	47266,00
-0,05	38051,00
7,02	42597,00
14,09	41776,00
21,14	11147,00
28,19	4914,00
35,23	3330,00
42,27	2361,00
49,29	2070,00
56,31	1759,00
63,32	1348,00
70,32	1268,00
77,31	1048,00
84,29	951,00
91,27	681,00
98,23	745,00
105,19	626,00
112,14	749,00
119,09	918,00
126,02	1471,00
132,95	1628,00
139,87	1678,00
146,78	1615,00
153,68	1564,00
160,58	1501,00
167,46	1634,00
174,34	1455,00
181,21	1432,00
188,08	1449,00
194,93	1378,00
201,78	1408,00
208,62	1553,00
215,45	1328,00
222,27	1448,00
229,09	1390,00
235,90	1475,00
242,70	1347,00
249,49	1287,00
256,27	1417,00
263,05	1298,00
269,82	1196,00
276,58	1234,00
283,33	1323,00
290,08	1406,00
296,82	1208,00
303,55	1114,00
310,27	1339,00
316,98	1200,00
323,69	1204,00
330,39	1285,00
337,08	1156,00
343,76	1144,00
350,44	1080,00
357,11	1042,00
363,77	1167,00
370,42	1123,00
377,07	1160,00
383,71	1222,00
390,34	1107,00
396,96	1187,00
403,58	1154,00
410,19	1135,00
416,79	985,00
423,38	1085,00
429,97	1114,00
436,55	1133,00
443,12	1087,00
449,68	1035,00
456,24	995,00
462,79	1066,00
469,33	957,00
475,86	989,00
482,39	990,00
488,91	999,00
495,42	979,00
501,93	1068,00
508,42	1120,00
514,91	984,00
521,40	909,00
527,87	1050,00
534,34	808,00
540,80	1106,00
547,25	836,00
553,70	981,00
560,14	960,00
566,57	920,00
573,00	900,00
579,41	903,00
585,83	855,00
592,23	944,00
598,62	842,00
605,01	851,00
611,40	910,00
617,77	952,00
624,14	891,00
630,50	973,00
636,85	793,00
643,20	804,00
649,54	943,00
655,87	907,00
662,20	856,00
668,52	862,00
674,83	744,00
681,13	901,00
687,43	860,00
693,72	740,00
700,00	836,00
706,28	906,00
712,55	899,00
718,81	903,00
725,07	993,00
731,32	769,00
737,56	999,00
743,79	909,00
750,02	981,00
756,24	986,00
762,46	778,00
768,67	950,00
774,87	839,00
781,06	906,00
787,25	961,00
793,43	872,00
799,60	786,00
805,77	834,00
811,93	898,00
818,08	944,00
824,23	939,00
830,37	876,00
836,50	977,00
842,63	885,00
848,75	828,00
854,87	930,00
860,97	912,00
867,07	1073,00
873,17	910,00
879,25	894,00
885,33	910,00
891,41	829,00
897,47	808,00
903,53	738,00
909,59	879,00
915,63	987,00
921,67	865,00
927,71	692,00
933,74	831,00
939,76	787,00
945,77	909,00
951,78	862,00
957,78	850,00
963,78	640,00
969,77	831,00
975,75	839,00
981,72	776,00
987,69	788,00
993,66	865,00
999,61	883,00
1005,56	856,00
1011,51	816,00
1017,44	923,00
1023,37	790,00
1029,30	876,00
1035,22	796,00
1041,13	1009,00
1047,03	981,00
1052,93	1212,00
1058,83	1686,00
1064,71	1733,00
1070,59	1524,00
1076,47	1052,00
1082,33	1157,00
1088,20	1012,00
1094,05	1077,00
1099,90	1029,00
1105,74	913,00
1111,58	847,00
1117,41	1083,00
1123,23	1528,00
1129,05	2048,00
1134,86	1681,00
1140,67	1339,00
1146,47	1107,00
1152,26	1019,00
1158,05	865,00
1163,83	944,00
1169,60	945,00
1175,37	1053,00
1181,13	891,00
1186,89	888,00
1192,64	982,00
1198,38	868,00
1204,12	972,00
1209,85	772,00
1215,58	830,00
1221,30	917,00
1227,02	784,00
1232,72	843,00
1238,43	765,00
1244,12	887,00
1249,81	789,00
1255,50	962,00
1261,17	923,00
1266,85	954,00
1272,51	974,00
1278,17	1069,00
1283,83	1151,00
1289,47	1867,00
1295,12	2332,00
1300,75	1958,00
1306,38	1560,00
1312,01	1347,00
1317,63	1027,00
1323,24	1136,00
1328,85	1033,00
1334,45	1003,00
1340,04	797,00
1345,63	1075,00
1351,22	1027,00
1356,80	894,00
1362,37	1144,00
1367,93	1068,00
1373,49	1167,00
1379,05	1090,00
1384,60	983,00
1390,14	1049,00
1395,68	1078,00
1401,21	947,00
1406,74	1005,00
1412,26	1376,00
1417,77	1554,00
1423,28	1565,00
1428,78	1771,00
1434,28	1905,00
1439,77	2404,00
1445,26	2304,00
1450,74	2153,00
1456,22	1861,00
1461,68	1820,00
1467,15	1666,00
1472,61	1569,00
1478,06	1328,00
1483,51	1196,00
1488,95	1153,00
1494,38	1089,00
1499,81	909,00
1505,24	869,00
1510,65	805,00
1516,07	889,00
1521,48	802,00
1526,88	861,00
1532,27	937,00
1537,67	870,00
1543,05	860,00
1548,43	709,00
1553,81	805,00
1559,18	812,00
1564,54	837,00
1569,90	757,00
1575,25	779,00
1580,60	870,00
1585,94	827,00
1591,28	728,00
1596,61	728,00
1601,93	792,00
1607,25	708,00
1612,57	582,00
1617,88	847,00
1623,18	803,00
1628,48	857,00
1633,77	805,00
1639,06	772,00
1644,34	798,00
1649,62	680,00
1654,89	649,00
1660,16	820,00
1665,42	676,00
1670,67	831,00
1675,92	718,00
1681,17	740,00
1686,41	656,00
1691,64	831,00
1696,87	595,00
1702,10	660,00
1707,32	597,00
1712,53	619,00
1717,74	787,00
1722,94	506,00
1728,14	653,00
1733,33	700,00
1738,52	867,00
1743,70	663,00
1748,88	648,00
1754,05	740,00
1759,22	609,00
1764,38	534,00
1769,53	532,00
1774,69	558,00
1779,83	657,00
1784,97	616,00
1790,11	639,00
1795,24	575,00
1800,36	706,00
1805,48	639,00
1810,60	759,00
1815,71	589,00
1820,82	662,00
1825,92	773,00
1831,01	670,00
1836,10	649,00
1841,19	670,00
1846,26	656,00
1851,34	598,00
1856,41	576,00
1861,47	610,00
1866,53	530,00
1871,59	594,00
1876,64	649,00
1881,68	689,00
1886,72	581,00
1891,76	515,00
1896,79	656,00
1901,81	588,00
1906,83	527,00
1911,85	630,00
1916,86	568,00
1921,86	538,00
1926,86	608,00
1931,86	738,00
1936,85	459,00
1941,83	591,00
1946,81	542,00
1951,79	587,00
1956,76	348,00
1961,72	656,00
1966,68	589,00
1971,64	536,00
1976,59	576,00
1981,54	630,00
1986,48	426,00
1991,42	499,00
1996,35	577,00
2001,27	423,00
2006,20	640,00
2011,11	637,00
2016,03	545,00
2020,93	665,00
2025,84	548,00
2030,73	573,00
2035,63	470,00
2040,52	493,00
2045,40	482,00
2050,28	490,00
2055,15	368,00
2060,02	547,00
2064,89	547,00
2069,75	434,00
2074,60	501,00
2079,46	400,00
2084,30	584,00
2089,14	614,00
2093,98	514,00
2098,81	524,00
2103,64	579,00
2108,46	459,00
2113,28	583,00
2118,09	460,00
2122,90	642,00
2127,70	618,00
2132,50	523,00
2137,30	517,00
2142,09	648,00
2146,87	579,00
2151,66	512,00
2156,43	523,00
2161,20	544,00
2165,97	444,00
2170,73	547,00
2175,49	532,00
2180,24	552,00
2184,99	391,00
2189,74	514,00
2194,48	593,00
2199,21	464,00
2203,94	460,00
2208,67	449,00
2213,39	427,00
2218,11	466,00
2222,82	519,00
2227,53	478,00
2232,23	484,00
2236,93	463,00
2241,63	532,00
2246,32	479,00
2251,00	532,00
2255,68	633,00
2260,36	407,00
2265,03	467,00
2269,70	485,00
2274,36	421,00
2279,02	443,00
2283,68	476,00
2288,33	464,00
2292,97	514,00
2297,61	504,00
2302,25	401,00
2306,88	417,00
2311,51	473,00
2316,14	431,00
2320,75	550,00
2325,37	408,00
2329,98	396,00
2334,59	459,00
2339,19	597,00
2343,79	409,00
2348,38	515,00
2352,97	450,00
2357,55	572,00
2362,13	420,00
2366,71	397,00
2371,28	462,00
2375,85	462,00
2380,41	496,00
2384,97	469,00
2389,52	468,00
2394,07	440,00
2398,62	501,00
2403,16	491,00
2407,70	417,00
2412,23	459,00
2416,76	492,00
2421,29	394,00
2425,81	689,00
2430,32	443,00
2434,84	408,00
2439,34	528,00
2443,85	465,00
2448,35	507,00
2452,84	401,00
2457,33	542,00
2461,82	403,00
2466,30	371,00
2470,78	536,00
2475,25	237,00
2479,72	445,00
2484,19	338,00
2488,65	399,00
2493,11	373,00
2497,56	396,00
2502,01	388,00
2506,46	434,00
2510,90	511,00
2515,34	463,00
2519,77	419,00
2524,20	372,00
2528,62	521,00
2533,04	470,00
2537,46	376,00
2541,87	422,00
2546,28	386,00
2550,68	384,00
2555,08	541,00
2559,48	435,00
2563,87	452,00
2568,26	317,00
2572,64	335,00
2577,02	435,00
2581,40	492,00
2585,77	457,00
2590,14	406,00
2594,50	392,00
2598,86	418,00
2603,22	385,00
2607,57	326,00
2611,92	351,00
2616,26	426,00
2620,60	462,00
2624,94	384,00
2629,27	409,00
2633,60	442,00
2637,92	425,00
2642,24	358,00
2646,56	406,00
2650,87	469,00
2655,18	408,00
2659,48	321,00
2663,78	348,00
2668,08	522,00
2672,37	499,00
2676,66	379,00
2680,95	463,00
2685,23	459,00
2689,50	485,00
2693,78	367,00
2698,05	423,00
2702,31	483,00
2706,57	431,00
2710,83	395,00
2715,08	460,00
2719,33	618,00
2723,58	630,00
2727,82	472,00
2732,06	637,00
2736,29	511,00
2740,53	668,00
2744,75	514,00
2748,97	409,00
2753,19	579,00
2757,41	380,00
2761,62	442,00
2765,83	521,00
2770,03	455,00
2774,23	488,00
2778,43	433,00
2782,62	587,00
2786,81	419,00
2791,00	570,00
2795,18	658,00
2799,35	490,00
2803,53	564,00
2807,70	596,00
2811,86	578,00
2816,03	658,00
2820,19	570,00
2824,34	741,00
2828,49	841,00
2832,64	930,00
2836,78	1300,00
2840,92	1704,00
2845,06	1887,00
2849,19	2063,00
2853,32	2258,00
2857,45	2175,00
2861,57	2069,00
2865,69	1955,00
2869,80	1983,00
2873,91	2058,00
2878,02	2064,00
2882,12	2266,00
2886,22	2337,00
2890,32	2053,00
2894,41	1999,00
2898,50	1772,00
2902,58	1811,00
2906,67	1556,00
2910,74	1427,00
2914,82	1422,00
2918,89	1318,00
2922,96	1179,00
2927,02	1094,00
2931,08	1082,00
2935,13	920,00
2939,19	1024,00
2943,24	752,00
2947,28	689,00
2951,32	789,00
2955,36	549,00
2959,40	533,00
2963,43	536,00
2967,46	552,00
2971,48	445,00
2975,50	515,00
2979,52	383,00
2983,53	401,00
2987,54	445,00
2991,55	350,00
2995,55	400,00
2999,55	392,00
3003,54	280,00
3007,54	240,00
3011,53	376,00
3015,51	327,00
3019,49	228,00
3023,47	281,00
3027,45	317,00
3031,42	240,00
3035,39	351,00
3039,35	315,00
3043,31	332,00
3047,27	256,00
3051,22	348,00
3055,17	274,00
3059,12	184,00
3063,06	279,00
3067,00	245,00
3070,94	335,00
3074,87	354,00
3078,80	347,00
3082,73	350,00
3086,65	115,00
3090,57	205,00
3094,49	204,00
3098,40	163,00
3102,31	202,00
3106,22	164,00
3110,12	318,00
3114,02	193,00
3117,92	239,00
3121,81	296,00
3125,70	131,00
3129,58	173,00
3133,47	181,00
3137,34	152,00
3141,22	268,00
3145,09	218,00
3148,96	143,00
3152,83	265,00
3156,69	203,00
3160,55	282,00
3164,40	250,00
3168,26	97,00
3172,10	245,00
3175,95	153,00
3179,79	100,00
3183,63	131,00
3187,47	242,00
3191,30	246,00
3195,13	210,00
3198,95	46,00
3202,78	227,00
3206,60	138,00
3210,41	176,00
3214,23	202,00
3218,03	301,00
3221,84	97,00
3225,64	153,00
3229,44	220,00
3233,24	69,00
3237,03	237,00
3240,82	185,00
3244,61	130,00
3248,39	209,00
3252,17	267,00
3255,95	190,00
3259,72	230,00
3263,49	120,00
3267,26	170,00
3271,03	182,00
3274,79	128,00
3278,54	180,00
3282,30	311,00
3286,05	30,00
3289,80	100,00
3293,54	236,00
3297,29	212,00
3301,02	150,00
3304,76	139,00
3308,49	149,00
3312,22	293,00
3315,95	89,00
3319,67	310,00
3323,39	228,00
3327,10	192,00
3330,82	205,00
3334,53	154,00
3338,24	164,00
3341,94	266,00
3345,64	187,00
3349,34	174,00
3353,03	135,00
3356,72	223,00
3360,41	270,00
3364,10	189,00
3367,78	157,00
3371,46	103,00
3375,13	174,00
3378,81	210,00
3382,48	315,00
3386,14	30,00
3389,81	185,00
3393,47	199,00
3397,12	66,00
3400,78	87,00
3404,43	315,00
3408,08	213,00
3411,72	122,00
3415,36	185,00
3419,00	239,00
3422,64	149,00
3426,27	158,00
3429,90	106,00
3433,53	132,00
3437,15	183,00
3440,77	277,00
3444,39	238,00
3448,00	-53,00
3451,62	119,00
3455,22	149,00
3458,83	213,00
3462,43	111,00
3466,03	-26,00
3469,63	245,00
3473,22	133,00
3476,81	140,00
3480,40	94,00
3483,99	20,00
3487,57	-80,00
3491,15	54,00
3494,72	61,00
3498,29	192,00
3501,86	157,00
3505,43	-58,00
3508,99	127,00
3512,56	97,00
3516,11	164,00
3519,67	97,00
3523,22	152,00
3526,77	15,00
3530,32	136,00
3533,86	272,00
3537,40	160,00
3540,94	143,00
3544,47	160,00
3548,00	175,00
3551,53	102,00
3555,06	55,00
3558,58	94,00
3562,10	224,00
3565,62	218,00
3569,13	65,00
3572,64	60,00
3576,15	128,00
3579,66	136,00
3583,16	83,00
3586,66	27,00
3590,16	23,00
3593,65	127,00
3597,14	36,00
3600,63	78,00
3604,11	229,00
3607,60	122,00
3611,08	142,00
3614,55	-29,00
3618,03	114,00
3621,50	64,00
3624,97	82,00
3628,43	122,00
3631,90	151,00
3635,36	204,00
3638,81	89,00
3642,27	63,00
3645,72	199,00
3649,17	157,00
3652,61	50,00
3656,06	120,00
3659,50	178,00
3662,93	68,00
3666,37	154,00
3669,80	73,00
3673,23	204,00
3676,65	140,00
3680,08	54,00
3683,50	-12,00
3686,92	133,00
3690,33	2,00
3693,74	27,00
3697,15	220,00
3700,56	28,00
3703,96	63,00
3707,36	48,00
3710,76	29,00
3714,16	154,00
3717,55	113,00
3720,94	65,00
3724,33	126,00
3727,71	-1,00
3731,10	196,00
3734,48	24,00
3737,85	46,00
3741,23	-1,00
3744,60	160,00
3747,97	51,00
3751,33	22,00
3754,69	48,00
3758,05	111,00
3761,41	53,00
3764,77	151,00
3768,12	211,00
3771,47	172,00
3774,82	78,00
3778,16	-10,00
3781,50	-4,00
3784,84	2,00
3788,18	0,00
>>>>>End Processed Spectral Data<<<<<
