SpectraSuite Data File
++++++++++++++++++++++++++++++++++++
Date: Tue Mar 03 12:26:25 ICT 2026
User: user
Dark Spectrum Present: Yes
Reference Spectrum Present: No
Number of Sampled Component Spectra: 1
Spectrometers: MAYP113682
Integration Time (usec): 3000000 (MAYP113682)
Spectra Averaged: 1 (MAYP113682)
Boxcar Smoothing: 0 (MAYP113682)
Correct for Electrical Dark: No (MAYP113682)
Strobe/Lamp Enabled: No (MAYP113682)
Correct for Detector Non-linearity: No (MAYP113682)
Correct for Stray Light: No (MAYP113682)
Number of Pixels in Processed Spectrum: 2068
>>>>>Begin Processed Spectral Data<<<<<
-37534,58	6,00
-37414,56	-2,00
-37295,11	-3,00
-37176,24	3,00
-37057,95	-80,00
-36940,22	20,00
-36823,05	73,00
-36706,45	35,00
-36590,40	60,00
-36474,90	66,00
-36359,95	12,00
-36245,55	168,00
-36131,68	-22,00
-36018,35	32,00
-35905,55	124,00
-35793,29	85,00
-35681,54	59,00
-35570,32	-96,00
-35459,62	-57,00
-35349,43	-80,00
-35239,75	135,00
-35130,58	100,00
-35021,91	26,00
-34913,74	61,00
-34806,07	123,00
-34698,89	-26,00
-34592,20	-56,00
-34486,00	-32,00
-34380,28	38,00
-34275,04	-18,00
-34170,27	-7,00
-34065,98	-101,00
-33962,16	44,00
-33858,81	118,00
-33755,92	3,00
-33653,49	90,00
-33551,52	45,00
-33450,01	-25,00
-33348,94	13,00
-33248,33	-56,00
-33148,16	92,00
-33048,43	72,00
-32949,14	-38,00
-32850,29	108,00
-32751,87	64,00
-32653,89	111,00
-32556,33	53,00
-32459,20	1,00
-32362,49	28,00
-32266,19	7,00
-32170,32	34,00
-32074,86	-17,00
-31979,82	92,00
-31885,18	22,00
-31790,95	-42,00
-31697,12	36,00
-31603,69	93,00
-31510,67	32,00
-31418,04	-21,00
-31325,80	143,00
-31233,95	66,00
-31142,49	176,00
-31051,42	53,00
-30960,73	33,00
-30870,43	28,00
-30780,50	53,00
-30690,95	73,00
-30601,77	-67,00
-30512,97	-96,00
-30424,53	90,00
-30336,46	3,00
-30248,76	64,00
-30161,42	13,00
-30074,44	87,00
-29987,81	120,00
-29901,55	93,00
-29815,63	37,00
-29730,07	27,00
-29644,86	31,00
-29560,00	115,00
-29475,48	-3,00
-29391,30	-22,00
-29307,47	126,00
-29223,97	50,00
-29140,81	-106,00
-29057,99	28,00
-28975,50	90,00
-28893,34	42,00
-28811,51	42,00
-28730,00	28,00
-28648,82	-49,00
-28567,97	-36,00
-28487,43	-51,00
-28407,21	51,00
-28327,32	-81,00
-28247,73	-107,00
-28168,46	60,00
-28089,50	10,00
-28010,85	-69,00
-27932,51	-4,00
-27854,48	-57,00
-27776,75	15,00
-27699,32	36,00
-27622,19	157,00
-27545,37	16,00
-27468,84	32,00
-27392,60	64,00
-27316,66	-8,00
-27241,01	-15,00
-27165,66	19,00
-27090,59	-12,00
-27015,81	35,00
-26941,31	110,00
-26867,10	66,00
-26793,17	-71,00
-26719,52	8,00
-26646,15	44,00
-26573,06	196,00
-26500,24	-21,00
-26427,70	48,00
-26355,43	59,00
-26283,43	22,00
-26211,71	59,00
-26140,25	-44,00
-26069,06	258,00
-25998,13	-92,00
-25927,46	50,00
-25857,06	9,00
-25786,92	-50,00
-25717,04	-6,00
-25647,42	-70,00
-25578,05	-7,00
-25508,94	-2,00
-25440,09	67,00
-25371,48	126,00
-25303,13	-13,00
-25235,02	76,00
-25167,17	22,00
-25099,56	8,00
-25032,19	-2,00
-24965,07	16,00
-24898,20	-14,00
-24831,56	46,00
-24765,17	-11,00
-24699,01	40,00
-24633,10	49,00
-24567,41	-53,00
-24501,97	15,00
-24436,75	-121,00
-24371,77	77,00
-24307,03	-31,00
-24242,51	0,00
-24178,22	-69,00
-24114,16	42,00
-24050,32	13,00
-23986,71	-38,00
-23923,32	107,00
-23860,16	-48,00
-23797,22	135,00
-23734,50	86,00
-23672,00	47,00
-23609,71	144,00
-23547,65	102,00
-23485,80	-25,00
-23424,16	10,00
-23362,74	32,00
-23301,53	22,00
-23240,54	18,00
-23179,75	-40,00
-23119,17	-14,00
-23058,80	146,00
-22998,64	-2,00
-22938,68	62,00
-22878,93	87,00
-22819,39	80,00
-22760,04	-143,00
-22700,90	-19,00
-22641,96	-12,00
-22583,22	65,00
-22524,68	-13,00
-22466,33	72,00
-22408,19	91,00
-22350,23	130,00
-22292,48	62,00
-22234,92	34,00
-22177,55	-9,00
-22120,37	-26,00
-22063,38	-71,00
-22006,58	96,00
-21949,98	-8,00
-21893,56	183,00
-21837,33	104,00
-21781,28	148,00
-21725,42	-99,00
-21669,74	27,00
-21614,25	-28,00
-21558,94	-90,00
-21503,81	127,00
-21448,86	-15,00
-21394,10	20,00
-21339,51	65,00
-21285,10	-6,00
-21230,86	0,00
-21176,81	129,00
-21122,93	45,00
-21069,22	96,00
-21015,69	19,00
-20962,33	-22,00
-20909,14	20,00
-20856,13	79,00
-20803,28	-91,00
-20750,61	54,00
-20698,10	66,00
-20645,76	-15,00
-20593,59	158,00
-20541,59	-4,00
-20489,75	-22,00
-20438,07	33,00
-20386,56	-4,00
-20335,22	84,00
-20284,03	-19,00
-20233,01	-56,00
-20182,15	-83,00
-20131,45	-16,00
-20080,91	41,00
-20030,52	-13,00
-19980,30	64,00
-19930,23	40,00
-19880,32	-25,00
-19830,56	157,00
-19780,96	51,00
-19731,52	-50,00
-19682,23	0,00
-19633,09	38,00
-19584,10	99,00
-19535,26	112,00
-19486,58	-89,00
-19438,04	-54,00
-19389,66	83,00
-19341,42	12,00
-19293,33	-122,00
-19245,39	23,00
-19197,60	57,00
-19149,95	125,00
-19102,45	86,00
-19055,09	24,00
-19007,87	118,00
-18960,80	67,00
-18913,87	88,00
-18867,09	-28,00
-18820,44	-12,00
-18773,94	-20,00
-18727,57	64,00
-18681,35	86,00
-18635,26	27,00
-18589,31	83,00
-18543,50	50,00
-18497,83	-71,00
-18452,29	59,00
-18406,89	17,00
-18361,63	-45,00
-18316,50	6,00
-18271,50	72,00
-18226,63	79,00
-18181,90	-53,00
-18137,30	76,00
-18092,84	22,00
-18048,50	16,00
-18004,29	-51,00
-17960,22	128,00
-17916,27	-4,00
-17872,45	-52,00
-17828,76	27,00
-17785,20	-48,00
-17741,77	88,00
-17698,46	58,00
-17655,28	5,00
-17612,22	-118,00
-17569,29	101,00
-17526,48	68,00
-17483,79	93,00
-17441,23	-154,00
-17398,79	-28,00
-17356,48	120,00
-17314,28	82,00
-17272,21	20,00
-17230,26	-10,00
-17188,42	164,00
-17146,71	117,00
-17105,12	110,00
-17063,64	-12,00
-17022,28	128,00
-16981,04	35,00
-16939,92	72,00
-16898,91	-42,00
-16858,02	14,00
-16817,25	66,00
-16776,59	118,00
-16736,04	18,00
-16695,61	148,00
-16655,29	33,00
-16615,09	-44,00
-16574,99	68,00
-16535,01	47,00
-16495,15	-2,00
-16455,39	27,00
-16415,74	80,00
-16376,21	-99,00
-16336,78	-46,00
-16297,46	88,00
-16258,26	90,00
-16219,16	39,00
-16180,17	93,00
-16141,28	-12,00
-16102,51	10,00
-16063,84	68,00
-16025,27	116,00
-15986,82	3,00
-15948,46	45,00
-15910,22	37,00
-15872,07	74,00
-15834,04	44,00
-15796,10	68,00
-15758,27	61,00
-15720,54	-24,00
-15682,91	-5,00
-15645,39	-32,00
-15607,97	8,00
-15570,64	64,00
-15533,42	-48,00
-15496,30	6,00
-15459,28	73,00
-15422,36	-2,00
-15385,54	17,00
-15348,82	5,00
-15312,19	14,00
-15275,66	17,00
-15239,23	-23,00
-15202,90	59,00
-15166,67	22,00
-15130,53	-8,00
-15094,48	-6,00
-15058,54	113,00
-15022,68	87,00
-14986,93	46,00
-14951,26	-10,00
-14915,69	-123,00
-14880,22	4,00
-14844,84	-35,00
-14809,55	-8,00
-14774,35	-37,00
-14739,25	61,00
-14704,24	-43,00
-14669,32	-18,00
-14634,49	98,00
-14599,75	53,00
-14565,10	178,00
-14530,55	-6,00
-14496,08	158,00
-14461,70	127,00
-14427,41	31,00
-14393,21	-2,00
-14359,10	7,00
-14325,07	158,00
-14291,14	153,00
-14257,29	51,00
-14223,52	36,00
-14189,85	93,00
-14156,26	33,00
-14122,76	19,00
-14089,34	53,00
-14056,01	-48,00
-14022,76	64,00
-13989,60	30,00
-13956,52	3,00
-13923,53	65,00
-13890,62	-6,00
-13857,79	41,00
-13825,05	65,00
-13792,39	112,00
-13759,81	26,00
-13727,31	-78,00
-13694,90	-12,00
-13662,57	232,00
-13630,31	10,00
-13598,14	-24,00
-13566,05	67,00
-13534,05	21,00
-13502,12	80,00
-13470,27	65,00
-13438,50	-77,00
-13406,80	70,00
-13375,19	27,00
-13343,66	7,00
-13312,20	107,00
-13280,83	-28,00
-13249,53	80,00
-13218,30	110,00
-13187,16	-31,00
-13156,09	-67,00
-13125,10	95,00
-13094,18	79,00
-13063,34	-154,00
-13032,58	2,00
-13001,89	-67,00
-12971,28	-5,00
-12940,74	36,00
-12910,27	8,00
-12879,88	-106,00
-12849,57	122,00
-12819,33	118,00
-12789,16	-22,00
-12759,06	9,00
-12729,04	17,00
-12699,09	-32,00
-12669,21	145,00
-12639,41	-100,00
-12609,68	-134,00
-12580,02	-34,00
-12550,43	-5,00
-12520,91	29,00
-12491,46	18,00
-12462,08	61,00
-12432,77	-45,00
-12403,54	-41,00
-12374,37	99,00
-12345,27	-124,00
-12316,24	24,00
-12287,29	50,00
-12258,40	-7,00
-12229,57	106,00
-12200,82	-16,00
-12172,14	-39,00
-12143,52	37,00
-12114,97	9,00
-12086,49	-32,00
-12058,07	71,00
-12029,73	-106,00
-12001,44	-81,00
-11973,23	26,00
-11945,08	2,00
-11917,00	13,00
-11888,98	67,00
-11861,03	3,00
-11833,15	32,00
-11805,32	44,00
-11777,57	-40,00
-11749,88	34,00
-11722,25	123,00
-11694,69	48,00
-11667,19	30,00
-11639,75	-18,00
-11612,38	-31,00
-11585,07	11,00
-11557,83	-45,00
-11530,65	-84,00
-11503,53	104,00
-11476,47	-20,00
-11449,48	104,00
-11422,54	59,00
-11395,67	51,00
-11368,86	-58,00
-11342,11	4,00
-11315,43	-63,00
-11288,80	43,00
-11262,23	125,00
-11235,73	89,00
-11209,28	57,00
-11182,90	3,00
-11156,57	35,00
-11130,31	116,00
-11104,10	12,00
-11077,96	112,00
-11051,87	101,00
-11025,84	53,00
-10999,87	57,00
-10973,96	-58,00
-10948,11	-44,00
-10922,31	-32,00
-10896,58	81,00
-10870,90	111,00
-10845,28	114,00
-10819,71	47,00
-10794,20	68,00
-10768,75	109,00
-10743,36	120,00
-10718,02	34,00
-10692,74	53,00
-10667,52	97,00
-10642,35	40,00
-10617,24	178,00
-10592,18	146,00
-10567,18	82,00
-10542,23	94,00
-10517,34	178,00
-10492,51	160,00
-10467,72	193,00
-10443,00	173,00
-10418,32	265,00
-10393,70	120,00
-10369,14	115,00
-10344,63	297,00
-10320,17	238,00
-10295,77	305,00
-10271,42	306,00
-10247,12	334,00
-10222,88	400,00
-10198,68	395,00
-10174,54	274,00
-10150,46	451,00
-10126,42	364,00
-10102,44	422,00
-10078,51	518,00
-10054,63	539,00
-10030,80	556,00
-10007,03	392,00
-9983,30	472,00
-9959,63	488,00
-9936,01	637,00
-9912,44	572,00
-9888,92	612,00
-9865,44	656,00
-9842,02	745,00
-9818,65	623,00
-9795,33	709,00
-9772,06	806,00
-9748,84	762,00
-9725,67	956,00
-9702,55	1068,00
-9679,47	1208,00
-9656,45	1245,00
-9633,47	1431,00
-9610,55	1333,00
-9587,67	1323,00
-9564,84	1594,00
-9542,06	1650,00
-9519,32	1864,00
-9496,64	2240,00
-9474,00	2266,00
-9451,41	2293,00
-9428,87	2502,00
-9406,37	2207,00
-9383,92	2065,00
-9361,52	1951,00
-9339,17	1890,00
-9316,86	2314,00
-9294,60	2683,00
-9272,38	2872,00
-9250,21	2996,00
-9228,09	3146,00
-9206,01	3141,00
-9183,98	2644,00
-9162,00	2341,00
-9140,06	2293,00
-9118,16	2237,00
-9096,31	2279,00
-9074,51	2457,00
-9052,75	2379,00
-9031,04	2320,00
-9009,37	1998,00
-8987,74	1777,00
-8966,16	1587,00
-8944,63	1417,00
-8923,14	1310,00
-8901,69	1515,00
-8880,29	1656,00
-8858,93	1840,00
-8837,61	1963,00
-8816,34	2117,00
-8795,11	2222,00
-8773,92	2048,00
-8752,78	1752,00
-8731,68	1693,00
-8710,62	1683,00
-8689,61	1777,00
-8668,63	1866,00
-8647,70	2052,00
-8626,82	2024,00
-8605,97	1820,00
-8585,17	1906,00
-8564,41	1674,00
-8543,69	1599,00
-8523,01	1429,00
-8502,37	1459,00
-8481,78	1472,00
-8461,23	1594,00
-8440,71	1819,00
-8420,24	1943,00
-8399,81	1924,00
-8379,42	2025,00
-8359,08	1740,00
-8338,77	1599,00
-8318,50	1595,00
-8298,27	1407,00
-8278,09	1538,00
-8257,94	1467,00
-8237,83	1745,00
-8217,76	1796,00
-8197,74	1813,00
-8177,75	1860,00
-8157,80	1606,00
-8137,89	1490,00
-8118,02	1529,00
-8098,19	1379,00
-8078,40	1471,00
-8058,65	1545,00
-8038,93	1572,00
-8019,26	1567,00
-7999,62	1494,00
-7980,02	1429,00
-7960,46	1392,00
-7940,94	1332,00
-7921,46	1321,00
-7902,01	1236,00
-7882,60	1223,00
-7863,23	1214,00
-7843,90	1444,00
-7824,61	1487,00
-7805,35	1483,00
-7786,13	1607,00
-7766,95	1517,00
-7747,80	1325,00
-7728,69	1399,00
-7709,62	1419,00
-7690,59	1448,00
-7671,59	1535,00
-7652,63	1715,00
-7633,70	1548,00
-7614,81	1536,00
-7595,96	1392,00
-7577,15	1325,00
-7558,37	1281,00
-7539,62	1266,00
-7520,91	1496,00
-7502,24	1468,00
-7483,60	1517,00
-7465,00	1286,00
-7446,44	1141,00
-7427,91	1148,00
-7409,41	933,00
-7390,95	911,00
-7372,53	974,00
-7354,14	945,00
-7335,78	879,00
-7317,46	975,00
-7299,18	1245,00
-7280,92	1308,00
-7262,71	1472,00
-7244,52	1552,00
-7226,38	1496,00
-7208,26	1520,00
-7190,18	1350,00
-7172,14	1307,00
-7154,12	1287,00
-7136,15	1576,00
-7118,20	1536,00
-7100,29	1509,00
-7082,41	1472,00
-7064,57	1334,00
-7046,76	1289,00
-7028,98	1174,00
-7011,24	1077,00
-6993,53	840,00
-6975,85	935,00
-6958,20	732,00
-6940,59	644,00
-6923,01	700,00
-6905,46	891,00
-6887,94	961,00
-6870,46	1142,00
-6853,01	1144,00
-6835,59	1288,00
-6818,21	1272,00
-6800,85	1003,00
-6783,53	793,00
-6766,24	611,00
-6748,98	641,00
-6731,76	517,00
-6714,56	630,00
-6697,40	499,00
-6680,26	622,00
-6663,16	845,00
-6646,09	856,00
-6629,05	876,00
-6612,05	1010,00
-6595,07	1039,00
-6578,13	941,00
-6561,21	839,00
-6544,33	563,00
-6527,47	471,00
-6510,65	430,00
-6493,86	606,00
-6477,10	562,00
-6460,36	538,00
-6443,66	417,00
-6426,99	374,00
-6410,35	425,00
-6393,74	516,00
-6377,16	527,00
-6360,61	666,00
-6344,09	736,00
-6327,59	866,00
-6311,13	715,00
-6294,70	868,00
-6278,29	860,00
-6261,92	758,00
-6245,58	1116,00
-6229,26	1086,00
-6212,97	949,00
-6196,72	608,00
-6180,49	620,00
-6164,29	324,00
-6148,12	384,00
-6131,98	177,00
-6115,86	248,00
-6099,78	320,00
-6083,72	190,00
-6067,69	339,00
-6051,69	169,00
-6035,72	273,00
-6019,78	338,00
-6003,87	452,00
-5987,98	792,00
-5972,12	704,00
-5956,29	640,00
-5940,49	523,00
-5924,71	498,00
-5908,96	430,00
-5893,24	306,00
-5877,55	347,00
-5861,89	218,00
-5846,25	411,00
-5830,64	367,00
-5815,05	364,00
-5799,50	248,00
-5783,97	358,00
-5768,47	420,00
-5752,99	515,00
-5737,55	662,00
-5722,12	718,00
-5706,73	619,00
-5691,36	509,00
-5676,02	344,00
-5660,71	305,00
-5645,42	254,00
-5630,16	396,00
-5614,92	286,00
-5599,71	472,00
-5584,53	505,00
-5569,37	464,00
-5554,24	325,00
-5539,14	385,00
-5524,06	267,00
-5509,01	418,00
-5493,98	525,00
-5478,98	376,00
-5464,00	494,00
-5449,05	412,00
-5434,13	249,00
-5419,23	408,00
-5404,36	260,00
-5389,51	380,00
-5374,69	565,00
-5359,89	794,00
-5345,12	891,00
-5330,37	695,00
-5315,65	512,00
-5300,95	510,00
-5286,28	431,00
-5271,63	379,00
-5257,01	441,00
-5242,41	385,00
-5227,84	473,00
-5213,29	334,00
-5198,76	170,00
-5184,26	311,00
-5169,79	233,00
-5155,33	355,00
-5140,91	422,00
-5126,51	568,00
-5112,13	607,00
-5097,77	402,00
-5083,44	447,00
-5069,13	182,00
-5054,85	353,00
-5040,59	362,00
-5026,36	343,00
-5012,15	516,00
-4997,96	403,00
-4983,80	342,00
-4969,66	211,00
-4955,54	273,00
-4941,44	320,00
-4927,37	499,00
-4913,33	607,00
-4899,30	681,00
-4885,30	653,00
-4871,33	456,00
-4857,37	321,00
-4843,44	19,00
-4829,53	198,00
-4815,65	488,00
-4801,79	239,00
-4787,95	244,00
-4774,13	176,00
-4760,34	245,00
-4746,56	86,00
-4732,82	264,00
-4719,09	251,00
-4705,38	504,00
-4691,70	716,00
-4678,04	625,00
-4664,41	412,00
-4650,79	278,00
-4637,20	182,00
-4623,63	102,00
-4610,08	269,00
-4596,56	424,00
-4583,05	345,00
-4569,57	428,00
-4556,11	49,00
-4542,67	134,00
-4529,25	141,00
-4515,86	353,00
-4502,49	489,00
-4489,13	495,00
-4475,80	372,00
-4462,49	354,00
-4449,21	211,00
-4435,94	180,00
-4422,70	321,00
-4409,47	323,00
-4396,27	391,00
-4383,09	245,00
-4369,93	115,00
-4356,79	116,00
-4343,67	136,00
-4330,58	291,00
-4317,50	245,00
-4304,45	255,00
-4291,41	208,00
-4278,40	225,00
-4265,41	-1,00
-4252,44	220,00
-4239,49	376,00
-4226,55	229,00
-4213,65	97,00
-4200,76	161,00
-4187,89	93,00
-4175,04	160,00
-4162,21	56,00
-4149,40	82,00
-4136,61	-11,00
-4123,85	93,00
-4111,10	60,00
-4098,37	92,00
-4085,66	100,00
-4072,98	199,00
-4060,31	-20,00
-4047,66	195,00
-4035,04	152,00
-4022,43	59,00
-4009,84	16,00
-3997,27	69,00
-3984,72	-19,00
-3972,19	55,00
-3959,69	125,00
-3947,20	-70,00
-3934,73	-39,00
-3922,27	-46,00
-3909,84	-47,00
-3897,43	0,00
-3885,04	-64,00
-3872,67	101,00
-3860,31	46,00
-3847,98	39,00
-3835,66	19,00
-3823,36	28,00
-3811,09	89,00
-3798,83	11,00
-3786,59	-13,00
-3774,37	33,00
-3762,17	21,00
-3749,98	-62,00
-3737,82	6,00
-3725,67	72,00
-3713,55	6,00
-3701,44	201,00
-3689,35	115,00
-3677,28	10,00
-3665,22	87,00
-3653,19	52,00
-3641,17	87,00
-3629,18	108,00
-3617,20	-60,00
-3605,24	-28,00
-3593,30	-18,00
-3581,37	13,00
-3569,47	56,00
-3557,58	-12,00
-3545,71	128,00
-3533,86	-4,00
-3522,02	77,00
-3510,21	30,00
-3498,41	118,00
-3486,63	-52,00
-3474,87	36,00
-3463,12	35,00
-3451,40	-47,00
-3439,69	57,00
-3428,00	58,00
-3416,33	3,00
-3404,67	-1,00
-3393,03	83,00
-3381,41	-3,00
-3369,81	9,00
-3358,22	51,00
-3346,66	-17,00
-3335,10	-69,00
-3323,57	-10,00
-3312,06	69,00
-3300,56	-56,00
-3289,08	14,00
-3277,61	-49,00
-3266,16	44,00
-3254,73	40,00
-3243,32	61,00
-3231,92	-31,00
-3220,55	66,00
-3209,18	-49,00
-3197,84	91,00
-3186,51	-105,00
-3175,20	4,00
-3163,90	234,00
-3152,63	-45,00
-3141,36	-34,00
-3130,12	-181,00
-3118,89	3,00
-3107,68	-55,00
-3096,49	-62,00
-3085,31	40,00
-3074,15	83,00
-3063,00	-1,00
-3051,87	40,00
-3040,76	6,00
-3029,67	41,00
-3018,59	36,00
-3007,52	51,00
-2996,48	66,00
-2985,44	104,00
-2974,43	120,00
-2963,43	90,00
-2952,45	78,00
-2941,48	86,00
-2930,53	45,00
-2919,60	-53,00
-2908,68	94,00
-2897,78	53,00
-2886,89	21,00
-2876,02	-16,00
-2865,17	-72,00
-2854,33	18,00
-2843,50	106,00
-2832,70	24,00
-2821,90	-5,00
-2811,13	-76,00
-2800,37	40,00
-2789,62	48,00
-2778,89	-16,00
-2768,18	67,00
-2757,48	158,00
-2746,80	44,00
-2736,13	-3,00
-2725,48	-54,00
-2714,84	63,00
-2704,22	69,00
-2693,61	55,00
-2683,02	101,00
-2672,45	-81,00
-2661,89	62,00
-2651,34	71,00
-2640,81	-99,00
-2630,30	103,00
-2619,80	-26,00
-2609,31	-38,00
-2598,84	64,00
-2588,39	137,00
-2577,95	-85,00
-2567,52	80,00
-2557,11	38,00
-2546,71	-17,00
-2536,33	70,00
-2525,97	-1,00
-2515,62	117,00
-2505,28	-101,00
-2494,96	20,00
-2484,65	-24,00
-2474,36	-83,00
-2464,08	-55,00
-2453,82	52,00
-2443,57	-65,00
-2433,33	30,00
-2423,11	13,00
-2412,91	-31,00
-2402,72	32,00
-2392,54	68,00
-2382,38	145,00
-2372,23	-32,00
-2362,09	-4952,00
-2351,97	129,00
-2341,87	-89,00
-2331,78	96,00
-2321,70	40,00
-2311,64	86,00
-2301,59	24,00
-2291,55	107,00
-2281,53	24,00
-2271,53	155,00
-2261,53	-89,00
-2251,55	57,00
-2241,59	34,00
-2231,64	18,00
-2221,70	-17,00
-2211,78	-23,00
-2201,87	120,00
-2191,97	63,00
-2182,09	43,00
-2172,22	73,00
-2162,37	135,00
-2152,53	-16,00
-2142,70	60,00
-2132,89	-20,00
-2123,09	32,00
-2113,30	49,00
-2103,53	-49,00
-2093,77	-46,00
-2084,02	-39,00
-2074,29	75,00
-2064,57	45,00
-2054,86	116,00
-2045,17	51,00
-2035,49	49,00
-2025,82	158,00
-2016,17	-35,00
-2006,53	152,00
-1996,91	38,00
-1987,29	-111,00
-1977,69	68,00
-1968,11	21,00
-1958,53	171,00
-1948,97	107,00
-1939,42	101,00
-1929,89	-6,00
-1920,37	172,00
-1910,86	-2,00
-1901,36	37,00
-1891,88	-107,00
-1882,41	0,00
-1872,95	67,00
-1863,51	-88,00
-1854,08	47,00
-1844,66	81,00
-1835,26	59,00
-1825,86	41,00
-1816,48	36,00
-1807,11	-66,00
-1797,76	59,00
-1788,42	40,00
-1779,09	-20,00
-1769,77	-6,00
-1760,47	-9,00
-1751,17	62,00
-1741,89	-100,00
-1732,63	26,00
-1723,37	-147,00
-1714,13	-25,00
-1704,90	-87,00
-1695,68	11,00
-1686,48	28,00
-1677,29	36,00
-1668,11	132,00
-1658,94	-54,00
-1649,78	-81,00
-1640,64	38,00
-1631,51	123,00
-1622,39	128,00
-1613,28	-33,00
-1604,19	-18,00
-1595,10	24,00
-1586,03	81,00
-1576,97	88,00
-1567,93	39,00
-1558,89	-88,00
-1549,87	157,00
-1540,86	83,00
-1531,86	-18,00
-1522,87	-58,00
-1513,90	39,00
-1504,93	38,00
-1495,98	-58,00
-1487,04	59,00
-1478,12	85,00
-1469,20	55,00
-1460,30	189,00
-1451,40	118,00
-1442,52	-31,00
-1433,65	2,00
-1424,80	-7,00
-1415,95	80,00
-1407,12	155,00
-1398,30	-76,00
-1389,48	47,00
-1380,69	7,00
-1371,90	89,00
-1363,12	33,00
-1354,36	89,00
-1345,60	111,00
-1336,86	88,00
-1328,13	56,00
-1319,41	-14,00
-1310,70	145,00
-1302,01	106,00
-1293,32	103,00
-1284,65	113,00
-1275,99	59,00
-1267,33	8,00
-1258,69	-8,00
-1250,06	209,00
-1241,45	106,00
-1232,84	54,00
-1224,25	-57,00
-1215,66	-28,00
-1207,09	-149,00
-1198,53	-113,00
-1189,97	40,00
-1181,43	86,00
-1172,91	139,00
-1164,39	24,00
-1155,88	152,00
-1147,38	-90,00
-1138,90	93,00
-1130,43	-87,00
-1121,96	12,00
-1113,51	18,00
-1105,07	-16,00
-1096,64	116,00
-1088,22	30,00
-1079,81	81,00
-1071,41	-24,00
-1063,02	-42,00
-1054,65	109,00
-1046,28	25,00
-1037,92	47,00
-1029,58	-14,00
-1021,24	11,00
-1012,92	37,00
-1004,61	90,00
-996,30	127,00
-988,01	28,00
-979,73	205,00
-971,46	-92,00
-963,20	-59,00
-954,95	47,00
-946,71	-61,00
-938,48	63,00
-930,26	-145,00
-922,06	-5,00
-913,86	104,00
-905,67	114,00
-897,49	27,00
-889,33	78,00
-881,17	95,00
-873,02	55,00
-864,89	-73,00
-856,76	41,00
-848,65	15,00
-840,54	-36,00
-832,45	-48,00
-824,36	12,00
-816,29	-15,00
-808,22	-22,00
-800,17	61,00
-792,12	12,00
-784,09	75,00
-776,06	88,00
-768,05	24,00
-760,04	21,00
-752,05	125,00
-744,07	-16,00
-736,09	-17,00
-728,13	222,00
-720,17	6,00
-712,23	31,00
-704,29	-23,00
-696,37	47,00
-688,45	58,00
-680,55	-8,00
-672,65	209,00
-664,77	-25,00
-656,89	-88,00
-649,03	40,00
-641,17	-46,00
-633,32	33,00
-625,49	-46,00
-617,66	49,00
-609,84	18,00
-602,03	-57,00
-594,23	4,00
-586,45	-37,00
-578,67	123,00
-570,90	-39,00
-563,14	52,00
-555,39	0,00
-547,65	-12,00
-539,91	-46,00
-532,19	36,00
-524,48	41,00
-516,78	-14,00
-509,08	8,00
-501,40	167,00
-493,72	16,00
-486,06	8,00
-478,40	-16,00
-470,76	121,00
-463,12	5,00
-455,49	0,00
-447,87	-5,00
-440,26	19,00
-432,66	8,00
-425,07	-5,00
-417,49	25,00
-409,92	113,00
-402,35	16,00
-394,80	7,00
-387,25	-24,00
-379,72	152,00
-372,19	154,00
-364,67	200,00
-357,17	7,00
-349,67	52,00
-342,18	102,00
-334,69	188,00
-327,22	6,00
-319,76	-2,00
-312,30	38,00
-304,86	94,00
-297,42	174,00
-290,00	47,00
-282,58	91,00
-275,17	104,00
-267,77	33,00
-260,37	90,00
-252,99	89,00
-245,62	12,00
-238,25	78,00
-230,90	74,00
-223,55	232,00
-216,21	129,00
-208,88	161,00
-201,56	149,00
-194,25	116,00
-186,94	81,00
-179,65	183,00
-172,36	184,00
-165,08	152,00
-157,81	184,00
-150,55	247,00
-143,30	309,00
-136,06	268,00
-128,82	224,00
-121,60	348,00
-114,38	298,00
-107,17	351,00
-99,97	252,00
-92,78	500,00
-85,60	410,00
-78,42	518,00
-71,25	668,00
-64,10	729,00
-56,95	1057,00
-49,81	1134,00
-42,67	1497,00
-35,55	1796,00
-28,43	2282,00
-21,33	4292,00
-14,23	14326,00
-7,14	47266,00
-0,05	38051,00
7,02	42597,00
14,09	38566,00
21,14	10224,00
28,19	4472,00
35,23	2898,00
42,27	2052,00
49,29	1909,00
56,31	1502,00
63,32	1210,00
70,32	1131,00
77,31	892,00
84,29	871,00
91,27	698,00
98,23	779,00
105,19	632,00
112,14	642,00
119,09	922,00
126,02	1418,00
132,95	1644,00
139,87	1661,00
146,78	1669,00
153,68	1499,00
160,58	1438,00
167,46	1608,00
174,34	1528,00
181,21	1498,00
188,08	1439,00
194,93	1520,00
201,78	1470,00
208,62	1476,00
215,45	1463,00
222,27	1471,00
229,09	1404,00
235,90	1517,00
242,70	1281,00
249,49	1346,00
256,27	1302,00
263,05	1299,00
269,82	1224,00
276,58	1354,00
283,33	1261,00
290,08	1436,00
296,82	1316,00
303,55	1154,00
310,27	1267,00
316,98	1186,00
323,69	1254,00
330,39	1190,00
337,08	1136,00
343,76	1124,00
350,44	1149,00
357,11	1107,00
363,77	1193,00
370,42	1220,00
377,07	1118,00
383,71	1214,00
390,34	1151,00
396,96	1067,00
403,58	1075,00
410,19	1091,00
416,79	1049,00
423,38	1126,00
429,97	1111,00
436,55	1118,00
443,12	1183,00
449,68	1060,00
456,24	1100,00
462,79	1062,00
469,33	893,00
475,86	1026,00
482,39	1038,00
488,91	1071,00
495,42	896,00
501,93	1029,00
508,42	1024,00
514,91	1034,00
521,40	1048,00
527,87	1062,00
534,34	851,00
540,80	975,00
547,25	869,00
553,70	919,00
560,14	923,00
566,57	895,00
573,00	865,00
579,41	882,00
585,83	995,00
592,23	909,00
598,62	886,00
605,01	853,00
611,40	1002,00
617,77	957,00
624,14	927,00
630,50	1021,00
636,85	815,00
643,20	786,00
649,54	924,00
655,87	980,00
662,20	937,00
668,52	848,00
674,83	848,00
681,13	864,00
687,43	901,00
693,72	797,00
700,00	911,00
706,28	852,00
712,55	942,00
718,81	869,00
725,07	936,00
731,32	765,00
737,56	940,00
743,79	826,00
750,02	951,00
756,24	989,00
762,46	874,00
768,67	905,00
774,87	843,00
781,06	1002,00
787,25	948,00
793,43	962,00
799,60	862,00
805,77	905,00
811,93	879,00
818,08	865,00
824,23	960,00
830,37	782,00
836,50	912,00
842,63	782,00
848,75	941,00
854,87	846,00
860,97	867,00
867,07	1079,00
873,17	929,00
879,25	848,00
885,33	993,00
891,41	823,00
897,47	848,00
903,53	867,00
909,59	751,00
915,63	936,00
921,67	869,00
927,71	834,00
933,74	800,00
939,76	732,00
945,77	864,00
951,78	936,00
957,78	725,00
963,78	716,00
969,77	753,00
975,75	823,00
981,72	793,00
987,69	1175,00
993,66	889,00
999,61	833,00
1005,56	906,00
1011,51	816,00
1017,44	786,00
1023,37	788,00
1029,30	786,00
1035,22	845,00
1041,13	904,00
1047,03	999,00
1052,93	1207,00
1058,83	1657,00
1064,71	1798,00
1070,59	1495,00
1076,47	1083,00
1082,33	1269,00
1088,20	1047,00
1094,05	975,00
1099,90	1000,00
1105,74	996,00
1111,58	926,00
1117,41	1136,00
1123,23	1504,00
1129,05	1937,00
1134,86	1755,00
1140,67	1196,00
1146,47	1152,00
1152,26	860,00
1158,05	904,00
1163,83	1008,00
1169,60	958,00
1175,37	1037,00
1181,13	831,00
1186,89	847,00
1192,64	809,00
1198,38	840,00
1204,12	791,00
1209,85	689,00
1215,58	725,00
1221,30	896,00
1227,02	804,00
1232,72	811,00
1238,43	677,00
1244,12	864,00
1249,81	859,00
1255,50	881,00
1261,17	949,00
1266,85	874,00
1272,51	964,00
1278,17	980,00
1283,83	1141,00
1289,47	1824,00
1295,12	2215,00
1300,75	2075,00
1306,38	1577,00
1312,01	1363,00
1317,63	1048,00
1323,24	1055,00
1328,85	1018,00
1334,45	969,00
1340,04	843,00
1345,63	1014,00
1351,22	994,00
1356,80	968,00
1362,37	1019,00
1367,93	1176,00
1373,49	1035,00
1379,05	1097,00
1384,60	1066,00
1390,14	954,00
1395,68	1050,00
1401,21	1039,00
1406,74	1129,00
1412,26	1506,00
1417,77	1498,00
1423,28	1515,00
1428,78	1680,00
1434,28	1898,00
1439,77	2392,00
1445,26	2252,00
1450,74	2124,00
1456,22	2035,00
1461,68	1806,00
1467,15	1631,00
1472,61	1441,00
1478,06	1240,00
1483,51	1090,00
1488,95	1164,00
1494,38	1019,00
1499,81	920,00
1505,24	754,00
1510,65	899,00
1516,07	804,00
1521,48	816,00
1526,88	832,00
1532,27	867,00
1537,67	882,00
1543,05	825,00
1548,43	706,00
1553,81	834,00
1559,18	881,00
1564,54	814,00
1569,90	793,00
1575,25	683,00
1580,60	825,00
1585,94	734,00
1591,28	621,00
1596,61	768,00
1601,93	672,00
1607,25	625,00
1612,57	737,00
1617,88	872,00
1623,18	808,00
1628,48	748,00
1633,77	750,00
1639,06	822,00
1644,34	759,00
1649,62	634,00
1654,89	662,00
1660,16	678,00
1665,42	671,00
1670,67	714,00
1675,92	729,00
1681,17	676,00
1686,41	608,00
1691,64	804,00
1696,87	665,00
1702,10	586,00
1707,32	559,00
1712,53	660,00
1717,74	632,00
1722,94	599,00
1728,14	690,00
1733,33	623,00
1738,52	715,00
1743,70	631,00
1748,88	600,00
1754,05	708,00
1759,22	612,00
1764,38	620,00
1769,53	521,00
1774,69	537,00
1779,83	654,00
1784,97	608,00
1790,11	576,00
1795,24	548,00
1800,36	668,00
1805,48	662,00
1810,60	611,00
1815,71	604,00
1820,82	656,00
1825,92	607,00
1831,01	623,00
1836,10	642,00
1841,19	645,00
1846,26	634,00
1851,34	496,00
1856,41	548,00
1861,47	652,00
1866,53	579,00
1871,59	600,00
1876,64	602,00
1881,68	669,00
1886,72	597,00
1891,76	522,00
1896,79	595,00
1901,81	564,00
1906,83	501,00
1911,85	546,00
1916,86	603,00
1921,86	514,00
1926,86	577,00
1931,86	671,00
1936,85	617,00
1941,83	518,00
1946,81	534,00
1951,79	567,00
1956,76	322,00
1961,72	652,00
1966,68	565,00
1971,64	524,00
1976,59	504,00
1981,54	517,00
1986,48	475,00
1991,42	467,00
1996,35	536,00
2001,27	298,00
2006,20	539,00
2011,11	661,00
2016,03	448,00
2020,93	589,00
2025,84	426,00
2030,73	535,00
2035,63	434,00
2040,52	566,00
2045,40	517,00
2050,28	386,00
2055,15	504,00
2060,02	427,00
2064,89	466,00
2069,75	462,00
2074,60	600,00
2079,46	536,00
2084,30	648,00
2089,14	506,00
2093,98	578,00
2098,81	534,00
2103,64	390,00
2108,46	384,00
2113,28	615,00
2118,09	393,00
2122,90	604,00
2127,70	536,00
2132,50	402,00
2137,30	581,00
2142,09	502,00
2146,87	445,00
2151,66	618,00
2156,43	458,00
2161,20	459,00
2165,97	335,00
2170,73	605,00
2175,49	471,00
2180,24	397,00
2184,99	371,00
2189,74	534,00
2194,48	465,00
2199,21	430,00
2203,94	381,00
2208,67	451,00
2213,39	312,00
2218,11	437,00
2222,82	456,00
2227,53	392,00
2232,23	383,00
2236,93	417,00
2241,63	431,00
2246,32	403,00
2251,00	422,00
2255,68	428,00
2260,36	419,00
2265,03	410,00
2269,70	451,00
2274,36	586,00
2279,02	332,00
2283,68	375,00
2288,33	380,00
2292,97	429,00
2297,61	483,00
2302,25	312,00
2306,88	541,00
2311,51	419,00
2316,14	322,00
2320,75	395,00
2325,37	359,00
2329,98	444,00
2334,59	388,00
2339,19	366,00
2343,79	450,00
2348,38	573,00
2352,97	383,00
2357,55	547,00
2362,13	402,00
2366,71	383,00
2371,28	423,00
2375,85	328,00
2380,41	564,00
2384,97	394,00
2389,52	361,00
2394,07	348,00
2398,62	404,00
2403,16	434,00
2407,70	389,00
2412,23	380,00
2416,76	459,00
2421,29	411,00
2425,81	510,00
2430,32	382,00
2434,84	370,00
2439,34	467,00
2443,85	431,00
2448,35	397,00
2452,84	392,00
2457,33	378,00
2461,82	253,00
2466,30	349,00
2470,78	354,00
2475,25	345,00
2479,72	292,00
2484,19	364,00
2488,65	469,00
2493,11	332,00
2497,56	300,00
2502,01	298,00
2506,46	390,00
2510,90	263,00
2515,34	306,00
2519,77	405,00
2524,20	387,00
2528,62	443,00
2533,04	439,00
2537,46	345,00
2541,87	384,00
2546,28	329,00
2550,68	314,00
2555,08	349,00
2559,48	398,00
2563,87	280,00
2568,26	429,00
2572,64	317,00
2577,02	432,00
2581,40	353,00
2585,77	471,00
2590,14	413,00
2594,50	352,00
2598,86	338,00
2603,22	311,00
2607,57	340,00
2611,92	474,00
2616,26	347,00
2620,60	507,00
2624,94	406,00
2629,27	334,00
2633,60	484,00
2637,92	320,00
2642,24	318,00
2646,56	403,00
2650,87	396,00
2655,18	386,00
2659,48	354,00
2663,78	324,00
2668,08	337,00
2672,37	465,00
2676,66	398,00
2680,95	383,00
2685,23	447,00
2689,50	424,00
2693,78	347,00
2698,05	431,00
2702,31	443,00
2706,57	335,00
2710,83	327,00
2715,08	416,00
2719,33	481,00
2723,58	470,00
2727,82	386,00
2732,06	432,00
2736,29	547,00
2740,53	500,00
2744,75	392,00
2748,97	336,00
2753,19	497,00
2757,41	276,00
2761,62	319,00
2765,83	445,00
2770,03	388,00
2774,23	476,00
2778,43	449,00
2782,62	576,00
2786,81	441,00
2791,00	546,00
2795,18	566,00
2799,35	509,00
2803,53	557,00
2807,70	738,00
2811,86	582,00
2816,03	580,00
2820,19	596,00
2824,34	632,00
2828,49	657,00
2832,64	911,00
2836,78	1235,00
2840,92	1461,00
2845,06	1792,00
2849,19	1953,00
2853,32	2088,00
2857,45	2093,00
2861,57	2038,00
2865,69	1842,00
2869,80	1868,00
2873,91	1867,00
2878,02	2117,00
2882,12	2172,00
2886,22	2377,00
2890,32	1994,00
2894,41	1949,00
2898,50	1756,00
2902,58	1541,00
2906,67	1548,00
2910,74	1386,00
2914,82	1241,00
2918,89	1190,00
2922,96	1069,00
2927,02	1071,00
2931,08	967,00
2935,13	907,00
2939,19	953,00
2943,24	708,00
2947,28	576,00
2951,32	648,00
2955,36	556,00
2959,40	450,00
2963,43	412,00
2967,46	466,00
2971,48	355,00
2975,50	480,00
2979,52	391,00
2983,53	295,00
2987,54	305,00
2991,55	388,00
2995,55	312,00
2999,55	485,00
3003,54	312,00
3007,54	191,00
3011,53	263,00
3015,51	308,00
3019,49	109,00
3023,47	226,00
3027,45	270,00
3031,42	264,00
3035,39	247,00
3039,35	256,00
3043,31	287,00
3047,27	190,00
3051,22	316,00
3055,17	160,00
3059,12	200,00
3063,06	144,00
3067,00	211,00
3070,94	314,00
3074,87	241,00
3078,80	96,00
3082,73	206,00
3086,65	129,00
3090,57	193,00
3094,49	65,00
3098,40	199,00
3102,31	128,00
3106,22	257,00
3110,12	256,00
3114,02	138,00
3117,92	324,00
3121,81	182,00
3125,70	82,00
3129,58	162,00
3133,47	187,00
3137,34	218,00
3141,22	236,00
3145,09	174,00
3148,96	83,00
3152,83	208,00
3156,69	210,00
3160,55	7,00
3164,40	148,00
3168,26	73,00
3172,10	264,00
3175,95	145,00
3179,79	142,00
3183,63	55,00
3187,47	186,00
3191,30	142,00
3195,13	178,00
3198,95	51,00
3202,78	142,00
3206,60	137,00
3210,41	80,00
3214,23	159,00
3218,03	188,00
3221,84	40,00
3225,64	143,00
3229,44	137,00
3233,24	149,00
3237,03	232,00
3240,82	82,00
3244,61	70,00
3248,39	101,00
3252,17	306,00
3255,95	35,00
3259,72	167,00
3263,49	7,00
3267,26	153,00
3271,03	133,00
3274,79	-73,00
3278,54	123,00
3282,30	85,00
3286,05	51,00
3289,80	18,00
3293,54	50,00
3297,29	74,00
3301,02	166,00
3304,76	37,00
3308,49	122,00
3312,22	26,00
3315,95	115,00
3319,67	202,00
3323,39	117,00
3327,10	179,00
3330,82	124,00
3334,53	96,00
3338,24	170,00
3341,94	143,00
3345,64	132,00
3349,34	54,00
3353,03	135,00
3356,72	157,00
3360,41	107,00
3364,10	167,00
3367,78	138,00
3371,46	124,00
3375,13	71,00
3378,81	43,00
3382,48	155,00
3386,14	-31,00
3389,81	164,00
3393,47	203,00
3397,12	112,00
3400,78	-22,00
3404,43	158,00
3408,08	216,00
3411,72	136,00
3415,36	92,00
3419,00	144,00
3422,64	191,00
3426,27	62,00
3429,90	51,00
3433,53	26,00
3437,15	90,00
3440,77	109,00
3444,39	180,00
3448,00	-45,00
3451,62	58,00
3455,22	140,00
3458,83	105,00
3462,43	42,00
3466,03	-114,00
3469,63	40,00
3473,22	44,00
3476,81	159,00
3480,40	-21,00
3483,99	-56,00
3487,57	-34,00
3491,15	128,00
3494,72	54,00
3498,29	87,00
3501,86	141,00
3505,43	-44,00
3508,99	124,00
3512,56	70,00
3516,11	118,00
3519,67	72,00
3523,22	72,00
3526,77	67,00
3530,32	89,00
3533,86	180,00
3537,40	92,00
3540,94	115,00
3544,47	97,00
3548,00	-9,00
3551,53	33,00
3555,06	-55,00
3558,58	64,00
3562,10	142,00
3565,62	290,00
3569,13	-20,00
3572,64	69,00
3576,15	11,00
3579,66	-66,00
3583,16	51,00
3586,66	26,00
3590,16	14,00
3593,65	5,00
3597,14	-11,00
3600,63	9,00
3604,11	13,00
3607,60	64,00
3611,08	174,00
3614,55	-137,00
3618,03	85,00
3621,50	91,00
3624,97	83,00
3628,43	53,00
3631,90	42,00
3635,36	28,00
3638,81	-2,00
3642,27	16,00
3645,72	167,00
3649,17	-50,00
3652,61	10,00
3656,06	36,00
3659,50	73,00
3662,93	40,00
3666,37	-118,00
3669,80	-19,00
3673,23	101,00
3676,65	22,00
3680,08	-39,00
3683,50	2,00
3686,92	-18,00
3690,33	14,00
3693,74	21,00
3697,15	12,00
3700,56	17,00
3703,96	20,00
3707,36	39,00
3710,76	-16,00
3714,16	-8,00
3717,55	41,00
3720,94	81,00
3724,33	131,00
3727,71	-45,00
3731,10	30,00
3734,48	12,00
3737,85	92,00
3741,23	-33,00
3744,60	47,00
3747,97	54,00
3751,33	20,00
3754,69	22,00
3758,05	71,00
3761,41	-54,00
3764,77	71,00
3768,12	48,00
3771,47	-24,00
3774,82	-16,00
3778,16	-3,00
3781,50	-4,00
3784,84	9,00
3788,18	13,00
>>>>>End Processed Spectral Data<<<<<
