SpectraSuite Data File
++++++++++++++++++++++++++++++++++++
Date: Tue Mar 03 12:23:04 ICT 2026
User: user
Dark Spectrum Present: Yes
Reference Spectrum Present: No
Number of Sampled Component Spectra: 1
Spectrometers: MAYP113682
Integration Time (usec): 3000000 (MAYP113682)
Spectra Averaged: 1 (MAYP113682)
Boxcar Smoothing: 0 (MAYP113682)
Correct for Electrical Dark: No (MAYP113682)
Strobe/Lamp Enabled: No (MAYP113682)
Correct for Detector Non-linearity: No (MAYP113682)
Correct for Stray Light: No (MAYP113682)
Number of Pixels in Processed Spectrum: 2068
>>>>>Begin Processed Spectral Data<<<<<
-37534,58	6,00
-37414,56	-1,00
-37295,11	-3,00
-37176,24	-2,00
-37057,95	-1,00
-36940,22	76,00
-36823,05	-33,00
-36706,45	-25,00
-36590,40	80,00
-36474,90	-24,00
-36359,95	52,00
-36245,55	132,00
-36131,68	32,00
-36018,35	62,00
-35905,55	56,00
-35793,29	6,00
-35681,54	108,00
-35570,32	-52,00
-35459,62	-13,00
-35349,43	30,00
-35239,75	122,00
-35130,58	74,00
-35021,91	-91,00
-34913,74	117,00
-34806,07	27,00
-34698,89	40,00
-34592,20	-107,00
-34486,00	-28,00
-34380,28	19,00
-34275,04	-133,00
-34170,27	-37,00
-34065,98	-99,00
-33962,16	20,00
-33858,81	24,00
-33755,92	86,00
-33653,49	49,00
-33551,52	21,00
-33450,01	-32,00
-33348,94	100,00
-33248,33	42,00
-33148,16	35,00
-33048,43	28,00
-32949,14	0,00
-32850,29	10,00
-32751,87	60,00
-32653,89	61,00
-32556,33	-81,00
-32459,20	19,00
-32362,49	-14,00
-32266,19	48,00
-32170,32	-38,00
-32074,86	-34,00
-31979,82	27,00
-31885,18	-90,00
-31790,95	-11,00
-31697,12	9,00
-31603,69	13,00
-31510,67	58,00
-31418,04	23,00
-31325,80	112,00
-31233,95	34,00
-31142,49	90,00
-31051,42	-10,00
-30960,73	-55,00
-30870,43	129,00
-30780,50	47,00
-30690,95	16,00
-30601,77	-29,00
-30512,97	5,00
-30424,53	93,00
-30336,46	99,00
-30248,76	42,00
-30161,42	-13,00
-30074,44	47,00
-29987,81	-48,00
-29901,55	-43,00
-29815,63	-76,00
-29730,07	-144,00
-29644,86	58,00
-29560,00	118,00
-29475,48	-107,00
-29391,30	20,00
-29307,47	91,00
-29223,97	35,00
-29140,81	-118,00
-29057,99	-24,00
-28975,50	116,00
-28893,34	-24,00
-28811,51	-35,00
-28730,00	72,00
-28648,82	63,00
-28567,97	41,00
-28487,43	1,00
-28407,21	7,00
-28327,32	-93,00
-28247,73	-96,00
-28168,46	6,00
-28089,50	-4,00
-28010,85	-104,00
-27932,51	2,00
-27854,48	-79,00
-27776,75	-53,00
-27699,32	87,00
-27622,19	137,00
-27545,37	53,00
-27468,84	-35,00
-27392,60	96,00
-27316,66	1,00
-27241,01	25,00
-27165,66	-34,00
-27090,59	-57,00
-27015,81	31,00
-26941,31	-24,00
-26867,10	32,00
-26793,17	80,00
-26719,52	-23,00
-26646,15	64,00
-26573,06	123,00
-26500,24	52,00
-26427,70	-22,00
-26355,43	48,00
-26283,43	0,00
-26211,71	67,00
-26140,25	-76,00
-26069,06	105,00
-25998,13	-39,00
-25927,46	45,00
-25857,06	83,00
-25786,92	32,00
-25717,04	-83,00
-25647,42	-3,00
-25578,05	-26,00
-25508,94	-102,00
-25440,09	35,00
-25371,48	25,00
-25303,13	34,00
-25235,02	-43,00
-25167,17	-65,00
-25099,56	121,00
-25032,19	77,00
-24965,07	-10,00
-24898,20	-73,00
-24831,56	-10,00
-24765,17	22,00
-24699,01	96,00
-24633,10	-24,00
-24567,41	-46,00
-24501,97	-26,00
-24436,75	-145,00
-24371,77	167,00
-24307,03	-79,00
-24242,51	88,00
-24178,22	48,00
-24114,16	-35,00
-24050,32	-9,00
-23986,71	-8,00
-23923,32	-67,00
-23860,16	-69,00
-23797,22	81,00
-23734,50	-16,00
-23672,00	17,00
-23609,71	224,00
-23547,65	-30,00
-23485,80	-12,00
-23424,16	46,00
-23362,74	92,00
-23301,53	-30,00
-23240,54	-147,00
-23179,75	50,00
-23119,17	-24,00
-23058,80	136,00
-22998,64	23,00
-22938,68	-37,00
-22878,93	-67,00
-22819,39	48,00
-22760,04	-85,00
-22700,90	-6,00
-22641,96	-12,00
-22583,22	76,00
-22524,68	41,00
-22466,33	0,00
-22408,19	20,00
-22350,23	20,00
-22292,48	32,00
-22234,92	-106,00
-22177,55	-38,00
-22120,37	29,00
-22063,38	40,00
-22006,58	-17,00
-21949,98	44,00
-21893,56	148,00
-21837,33	46,00
-21781,28	78,00
-21725,42	-43,00
-21669,74	23,00
-21614,25	6,00
-21558,94	48,00
-21503,81	86,00
-21448,86	-27,00
-21394,10	-25,00
-21339,51	146,00
-21285,10	-113,00
-21230,86	-2,00
-21176,81	71,00
-21122,93	98,00
-21069,22	117,00
-21015,69	-5,00
-20962,33	58,00
-20909,14	-1,00
-20856,13	-13,00
-20803,28	-179,00
-20750,61	115,00
-20698,10	18,00
-20645,76	74,00
-20593,59	39,00
-20541,59	-9,00
-20489,75	19,00
-20438,07	-8,00
-20386,56	64,00
-20335,22	59,00
-20284,03	35,00
-20233,01	-28,00
-20182,15	-104,00
-20131,45	80,00
-20080,91	-13,00
-20030,52	-27,00
-19980,30	-54,00
-19930,23	46,00
-19880,32	-70,00
-19830,56	101,00
-19780,96	-42,00
-19731,52	15,00
-19682,23	-92,00
-19633,09	0,00
-19584,10	69,00
-19535,26	44,00
-19486,58	79,00
-19438,04	-47,00
-19389,66	-111,00
-19341,42	31,00
-19293,33	0,00
-19245,39	74,00
-19197,60	44,00
-19149,95	49,00
-19102,45	38,00
-19055,09	65,00
-19007,87	85,00
-18960,80	35,00
-18913,87	83,00
-18867,09	-20,00
-18820,44	73,00
-18773,94	64,00
-18727,57	39,00
-18681,35	-32,00
-18635,26	83,00
-18589,31	151,00
-18543,50	10,00
-18497,83	-98,00
-18452,29	11,00
-18406,89	57,00
-18361,63	-8,00
-18316,50	12,00
-18271,50	-40,00
-18226,63	104,00
-18181,90	81,00
-18137,30	48,00
-18092,84	39,00
-18048,50	29,00
-18004,29	44,00
-17960,22	23,00
-17916,27	-19,00
-17872,45	10,00
-17828,76	-24,00
-17785,20	-74,00
-17741,77	-4,00
-17698,46	8,00
-17655,28	17,00
-17612,22	37,00
-17569,29	76,00
-17526,48	-89,00
-17483,79	-47,00
-17441,23	-9,00
-17398,79	69,00
-17356,48	198,00
-17314,28	83,00
-17272,21	-36,00
-17230,26	79,00
-17188,42	96,00
-17146,71	91,00
-17105,12	-10,00
-17063,64	19,00
-17022,28	28,00
-16981,04	-112,00
-16939,92	129,00
-16898,91	-121,00
-16858,02	-23,00
-16817,25	7,00
-16776,59	56,00
-16736,04	146,00
-16695,61	89,00
-16655,29	56,00
-16615,09	-153,00
-16574,99	-35,00
-16535,01	-28,00
-16495,15	-51,00
-16455,39	-17,00
-16415,74	15,00
-16376,21	-66,00
-16336,78	-89,00
-16297,46	83,00
-16258,26	37,00
-16219,16	-28,00
-16180,17	7,00
-16141,28	4,00
-16102,51	-114,00
-16063,84	0,00
-16025,27	48,00
-15986,82	-23,00
-15948,46	-111,00
-15910,22	17,00
-15872,07	128,00
-15834,04	-1,00
-15796,10	27,00
-15758,27	21,00
-15720,54	32,00
-15682,91	58,00
-15645,39	-63,00
-15607,97	-44,00
-15570,64	-45,00
-15533,42	-17,00
-15496,30	77,00
-15459,28	26,00
-15422,36	-78,00
-15385,54	34,00
-15348,82	88,00
-15312,19	-12,00
-15275,66	-48,00
-15239,23	-25,00
-15202,90	46,00
-15166,67	52,00
-15130,53	18,00
-15094,48	3,00
-15058,54	51,00
-15022,68	-50,00
-14986,93	19,00
-14951,26	104,00
-14915,69	-39,00
-14880,22	-28,00
-14844,84	79,00
-14809,55	-35,00
-14774,35	-3,00
-14739,25	103,00
-14704,24	-97,00
-14669,32	18,00
-14634,49	110,00
-14599,75	4,00
-14565,10	135,00
-14530,55	36,00
-14496,08	202,00
-14461,70	89,00
-14427,41	-33,00
-14393,21	-100,00
-14359,10	-19,00
-14325,07	85,00
-14291,14	156,00
-14257,29	78,00
-14223,52	-11,00
-14189,85	-75,00
-14156,26	105,00
-14122,76	-97,00
-14089,34	32,00
-14056,01	-1,00
-14022,76	-43,00
-13989,60	-50,00
-13956,52	-35,00
-13923,53	-8,00
-13890,62	22,00
-13857,79	115,00
-13825,05	-5,00
-13792,39	107,00
-13759,81	19,00
-13727,31	32,00
-13694,90	-31,00
-13662,57	70,00
-13630,31	52,00
-13598,14	-53,00
-13566,05	-110,00
-13534,05	-11,00
-13502,12	7,00
-13470,27	-15,00
-13438,50	-37,00
-13406,80	101,00
-13375,19	17,00
-13343,66	-44,00
-13312,20	-63,00
-13280,83	-32,00
-13249,53	100,00
-13218,30	37,00
-13187,16	-134,00
-13156,09	-73,00
-13125,10	79,00
-13094,18	81,00
-13063,34	-65,00
-13032,58	30,00
-13001,89	-103,00
-12971,28	24,00
-12940,74	55,00
-12910,27	0,00
-12879,88	-82,00
-12849,57	13,00
-12819,33	51,00
-12789,16	23,00
-12759,06	91,00
-12729,04	14,00
-12699,09	-120,00
-12669,21	166,00
-12639,41	-107,00
-12609,68	11,00
-12580,02	-12,00
-12550,43	27,00
-12520,91	18,00
-12491,46	-113,00
-12462,08	-69,00
-12432,77	74,00
-12403,54	-49,00
-12374,37	11,00
-12345,27	-73,00
-12316,24	46,00
-12287,29	-21,00
-12258,40	27,00
-12229,57	93,00
-12200,82	-31,00
-12172,14	-28,00
-12143,52	43,00
-12114,97	112,00
-12086,49	-8,00
-12058,07	79,00
-12029,73	-22,00
-12001,44	-63,00
-11973,23	-36,00
-11945,08	-70,00
-11917,00	106,00
-11888,98	84,00
-11861,03	33,00
-11833,15	31,00
-11805,32	4,00
-11777,57	90,00
-11749,88	35,00
-11722,25	-3,00
-11694,69	28,00
-11667,19	-47,00
-11639,75	7,00
-11612,38	30,00
-11585,07	75,00
-11557,83	-13,00
-11530,65	-52,00
-11503,53	29,00
-11476,47	-32,00
-11449,48	144,00
-11422,54	70,00
-11395,67	53,00
-11368,86	0,00
-11342,11	-121,00
-11315,43	-36,00
-11288,80	-20,00
-11262,23	147,00
-11235,73	139,00
-11209,28	14,00
-11182,90	-22,00
-11156,57	-38,00
-11130,31	63,00
-11104,10	-32,00
-11077,96	49,00
-11051,87	96,00
-11025,84	12,00
-10999,87	-33,00
-10973,96	15,00
-10948,11	-43,00
-10922,31	50,00
-10896,58	80,00
-10870,90	76,00
-10845,28	10,00
-10819,71	5,00
-10794,20	79,00
-10768,75	147,00
-10743,36	61,00
-10718,02	84,00
-10692,74	40,00
-10667,52	24,00
-10642,35	65,00
-10617,24	100,00
-10592,18	144,00
-10567,18	79,00
-10542,23	99,00
-10517,34	158,00
-10492,51	141,00
-10467,72	194,00
-10443,00	222,00
-10418,32	195,00
-10393,70	232,00
-10369,14	200,00
-10344,63	242,00
-10320,17	270,00
-10295,77	153,00
-10271,42	230,00
-10247,12	79,00
-10222,88	357,00
-10198,68	306,00
-10174,54	186,00
-10150,46	380,00
-10126,42	238,00
-10102,44	379,00
-10078,51	398,00
-10054,63	523,00
-10030,80	415,00
-10007,03	252,00
-9983,30	343,00
-9959,63	429,00
-9936,01	506,00
-9912,44	532,00
-9888,92	498,00
-9865,44	615,00
-9842,02	679,00
-9818,65	570,00
-9795,33	567,00
-9772,06	586,00
-9748,84	640,00
-9725,67	715,00
-9702,55	898,00
-9679,47	977,00
-9656,45	1093,00
-9633,47	1257,00
-9610,55	1086,00
-9587,67	1262,00
-9564,84	1286,00
-9542,06	1354,00
-9519,32	1538,00
-9496,64	1869,00
-9474,00	1873,00
-9451,41	1921,00
-9428,87	2071,00
-9406,37	2035,00
-9383,92	1788,00
-9361,52	1577,00
-9339,17	1745,00
-9316,86	2000,00
-9294,60	2321,00
-9272,38	2462,00
-9250,21	2507,00
-9228,09	2667,00
-9206,01	2667,00
-9183,98	2252,00
-9162,00	1976,00
-9140,06	2061,00
-9118,16	1921,00
-9096,31	2066,00
-9074,51	2057,00
-9052,75	2035,00
-9031,04	1974,00
-9009,37	1843,00
-8987,74	1643,00
-8966,16	1354,00
-8944,63	1210,00
-8923,14	1001,00
-8901,69	1303,00
-8880,29	1432,00
-8858,93	1704,00
-8837,61	1687,00
-8816,34	1955,00
-8795,11	1851,00
-8773,92	1917,00
-8752,78	1559,00
-8731,68	1419,00
-8710,62	1397,00
-8689,61	1512,00
-8668,63	1607,00
-8647,70	1602,00
-8626,82	1868,00
-8605,97	1687,00
-8585,17	1637,00
-8564,41	1331,00
-8543,69	1386,00
-8523,01	1239,00
-8502,37	1299,00
-8481,78	1324,00
-8461,23	1465,00
-8440,71	1559,00
-8420,24	1616,00
-8399,81	1651,00
-8379,42	1938,00
-8359,08	1477,00
-8338,77	1293,00
-8318,50	1299,00
-8298,27	1247,00
-8278,09	1434,00
-8257,94	1247,00
-8237,83	1548,00
-8217,76	1705,00
-8197,74	1611,00
-8177,75	1499,00
-8157,80	1311,00
-8137,89	1298,00
-8118,02	1378,00
-8098,19	1016,00
-8078,40	1239,00
-8058,65	1344,00
-8038,93	1370,00
-8019,26	1279,00
-7999,62	1319,00
-7980,02	1285,00
-7960,46	1281,00
-7940,94	1183,00
-7921,46	1194,00
-7902,01	1130,00
-7882,60	1077,00
-7863,23	1030,00
-7843,90	1196,00
-7824,61	1298,00
-7805,35	1159,00
-7786,13	1332,00
-7766,95	1356,00
-7747,80	1241,00
-7728,69	1268,00
-7709,62	1150,00
-7690,59	1299,00
-7671,59	1347,00
-7652,63	1345,00
-7633,70	1422,00
-7614,81	1369,00
-7595,96	1176,00
-7577,15	1106,00
-7558,37	991,00
-7539,62	1194,00
-7520,91	1352,00
-7502,24	1239,00
-7483,60	1394,00
-7465,00	1167,00
-7446,44	1156,00
-7427,91	1060,00
-7409,41	920,00
-7390,95	724,00
-7372,53	878,00
-7354,14	889,00
-7335,78	836,00
-7317,46	968,00
-7299,18	1056,00
-7280,92	1215,00
-7262,71	1155,00
-7244,52	1336,00
-7226,38	1250,00
-7208,26	1199,00
-7190,18	1213,00
-7172,14	1148,00
-7154,12	1205,00
-7136,15	1280,00
-7118,20	1173,00
-7100,29	1261,00
-7082,41	1326,00
-7064,57	1162,00
-7046,76	1125,00
-7028,98	954,00
-7011,24	923,00
-6993,53	736,00
-6975,85	730,00
-6958,20	654,00
-6940,59	608,00
-6923,01	693,00
-6905,46	877,00
-6887,94	844,00
-6870,46	-1913,00
-6853,01	1150,00
-6835,59	1088,00
-6818,21	1084,00
-6800,85	868,00
-6783,53	656,00
-6766,24	644,00
-6748,98	520,00
-6731,76	552,00
-6714,56	517,00
-6697,40	462,00
-6680,26	553,00
-6663,16	741,00
-6646,09	692,00
-6629,05	825,00
-6612,05	902,00
-6595,07	872,00
-6578,13	826,00
-6561,21	783,00
-6544,33	580,00
-6527,47	421,00
-6510,65	318,00
-6493,86	388,00
-6477,10	459,00
-6460,36	432,00
-6443,66	419,00
-6426,99	321,00
-6410,35	420,00
-6393,74	534,00
-6377,16	416,00
-6360,61	573,00
-6344,09	600,00
-6327,59	822,00
-6311,13	608,00
-6294,70	792,00
-6278,29	793,00
-6261,92	790,00
-6245,58	973,00
-6229,26	933,00
-6212,97	838,00
-6196,72	604,00
-6180,49	514,00
-6164,29	282,00
-6148,12	264,00
-6131,98	220,00
-6115,86	192,00
-6099,78	388,00
-6083,72	22,00
-6067,69	308,00
-6051,69	256,00
-6035,72	243,00
-6019,78	384,00
-6003,87	355,00
-5987,98	569,00
-5972,12	576,00
-5956,29	648,00
-5940,49	430,00
-5924,71	369,00
-5908,96	272,00
-5893,24	170,00
-5877,55	286,00
-5861,89	209,00
-5846,25	346,00
-5830,64	333,00
-5815,05	292,00
-5799,50	202,00
-5783,97	218,00
-5768,47	355,00
-5752,99	400,00
-5737,55	734,00
-5722,12	651,00
-5706,73	614,00
-5691,36	504,00
-5676,02	289,00
-5660,71	195,00
-5645,42	270,00
-5630,16	395,00
-5614,92	198,00
-5599,71	397,00
-5584,53	362,00
-5569,37	411,00
-5554,24	301,00
-5539,14	390,00
-5524,06	240,00
-5509,01	363,00
-5493,98	391,00
-5478,98	313,00
-5464,00	445,00
-5449,05	383,00
-5434,13	292,00
-5419,23	263,00
-5404,36	200,00
-5389,51	396,00
-5374,69	529,00
-5359,89	623,00
-5345,12	742,00
-5330,37	620,00
-5315,65	432,00
-5300,95	438,00
-5286,28	333,00
-5271,63	401,00
-5257,01	394,00
-5242,41	508,00
-5227,84	434,00
-5213,29	298,00
-5198,76	75,00
-5184,26	297,00
-5169,79	247,00
-5155,33	323,00
-5140,91	264,00
-5126,51	432,00
-5112,13	502,00
-5097,77	371,00
-5083,44	300,00
-5069,13	70,00
-5054,85	260,00
-5040,59	284,00
-5026,36	341,00
-5012,15	481,00
-4997,96	318,00
-4983,80	252,00
-4969,66	198,00
-4955,54	198,00
-4941,44	220,00
-4927,37	434,00
-4913,33	515,00
-4899,30	488,00
-4885,30	572,00
-4871,33	382,00
-4857,37	244,00
-4843,44	73,00
-4829,53	251,00
-4815,65	409,00
-4801,79	230,00
-4787,95	261,00
-4774,13	210,00
-4760,34	276,00
-4746,56	-9,00
-4732,82	202,00
-4719,09	254,00
-4705,38	408,00
-4691,70	587,00
-4678,04	595,00
-4664,41	311,00
-4650,79	414,00
-4637,20	313,00
-4623,63	110,00
-4610,08	321,00
-4596,56	323,00
-4583,05	345,00
-4569,57	216,00
-4556,11	-16,00
-4542,67	138,00
-4529,25	153,00
-4515,86	293,00
-4502,49	536,00
-4489,13	457,00
-4475,80	387,00
-4462,49	232,00
-4449,21	121,00
-4435,94	90,00
-4422,70	234,00
-4409,47	273,00
-4396,27	258,00
-4383,09	192,00
-4369,93	168,00
-4356,79	133,00
-4343,67	87,00
-4330,58	229,00
-4317,50	265,00
-4304,45	321,00
-4291,41	164,00
-4278,40	144,00
-4265,41	13,00
-4252,44	243,00
-4239,49	324,00
-4226,55	179,00
-4213,65	145,00
-4200,76	157,00
-4187,89	65,00
-4175,04	83,00
-4162,21	114,00
-4149,40	34,00
-4136,61	-53,00
-4123,85	125,00
-4111,10	119,00
-4098,37	65,00
-4085,66	73,00
-4072,98	84,00
-4060,31	76,00
-4047,66	91,00
-4035,04	29,00
-4022,43	27,00
-4009,84	-76,00
-3997,27	-59,00
-3984,72	53,00
-3972,19	114,00
-3959,69	40,00
-3947,20	-114,00
-3934,73	-28,00
-3922,27	44,00
-3909,84	-34,00
-3897,43	-83,00
-3885,04	48,00
-3872,67	9,00
-3860,31	21,00
-3847,98	-25,00
-3835,66	22,00
-3823,36	156,00
-3811,09	51,00
-3798,83	-65,00
-3786,59	-30,00
-3774,37	-46,00
-3762,17	-111,00
-3749,98	-108,00
-3737,82	30,00
-3725,67	97,00
-3713,55	13,00
-3701,44	65,00
-3689,35	76,00
-3677,28	-66,00
-3665,22	97,00
-3653,19	-1,00
-3641,17	-22,00
-3629,18	28,00
-3617,20	36,00
-3605,24	-8,00
-3593,30	-34,00
-3581,37	87,00
-3569,47	142,00
-3557,58	-59,00
-3545,71	76,00
-3533,86	-26,00
-3522,02	153,00
-3510,21	-79,00
-3498,41	16,00
-3486,63	76,00
-3474,87	76,00
-3463,12	98,00
-3451,40	42,00
-3439,69	30,00
-3428,00	71,00
-3416,33	-38,00
-3404,67	-72,00
-3393,03	-21,00
-3381,41	-3,00
-3369,81	20,00
-3358,22	17,00
-3346,66	64,00
-3335,10	-74,00
-3323,57	120,00
-3312,06	18,00
-3300,56	6,00
-3289,08	-70,00
-3277,61	-17,00
-3266,16	46,00
-3254,73	79,00
-3243,32	84,00
-3231,92	-27,00
-3220,55	-19,00
-3209,18	-36,00
-3197,84	27,00
-3186,51	-72,00
-3175,20	-19,00
-3163,90	108,00
-3152,63	47,00
-3141,36	-96,00
-3130,12	7,00
-3118,89	-31,00
-3107,68	-62,00
-3096,49	-40,00
-3085,31	-9,00
-3074,15	117,00
-3063,00	-50,00
-3051,87	-23,00
-3040,76	-6,00
-3029,67	77,00
-3018,59	-1,00
-3007,52	101,00
-2996,48	108,00
-2985,44	96,00
-2974,43	145,00
-2963,43	122,00
-2952,45	109,00
-2941,48	119,00
-2930,53	93,00
-2919,60	-39,00
-2908,68	70,00
-2897,78	14,00
-2886,89	73,00
-2876,02	-45,00
-2865,17	-89,00
-2854,33	-11,00
-2843,50	34,00
-2832,70	20,00
-2821,90	-170,00
-2811,13	-132,00
-2800,37	113,00
-2789,62	-16,00
-2778,89	39,00
-2768,18	-1,00
-2757,48	139,00
-2746,80	-76,00
-2736,13	-94,00
-2725,48	-3,00
-2714,84	-15,00
-2704,22	43,00
-2693,61	61,00
-2683,02	41,00
-2672,45	-63,00
-2661,89	151,00
-2651,34	22,00
-2640,81	104,00
-2630,30	18,00
-2619,80	89,00
-2609,31	-71,00
-2598,84	15,00
-2588,39	107,00
-2577,95	-73,00
-2567,52	79,00
-2557,11	74,00
-2546,71	-35,00
-2536,33	33,00
-2525,97	24,00
-2515,62	29,00
-2505,28	-149,00
-2494,96	39,00
-2484,65	-111,00
-2474,36	1,00
-2464,08	89,00
-2453,82	56,00
-2443,57	-13,00
-2433,33	21,00
-2423,11	45,00
-2412,91	-38,00
-2402,72	2,00
-2392,54	-13,00
-2382,38	2,00
-2372,23	64,00
-2362,09	-5306,00
-2351,97	169,00
-2341,87	-69,00
-2331,78	-45,00
-2321,70	150,00
-2311,64	45,00
-2301,59	-119,00
-2291,55	9,00
-2281,53	-11,00
-2271,53	151,00
-2261,53	6,00
-2251,55	-114,00
-2241,59	-25,00
-2231,64	43,00
-2221,70	65,00
-2211,78	9,00
-2201,87	5,00
-2191,97	-53,00
-2182,09	107,00
-2172,22	144,00
-2162,37	49,00
-2152,53	19,00
-2142,70	61,00
-2132,89	-4,00
-2123,09	64,00
-2113,30	93,00
-2103,53	69,00
-2093,77	-88,00
-2084,02	-50,00
-2074,29	94,00
-2064,57	-13,00
-2054,86	27,00
-2045,17	42,00
-2035,49	26,00
-2025,82	28,00
-2016,17	-61,00
-2006,53	145,00
-1996,91	67,00
-1987,29	-10,00
-1977,69	53,00
-1968,11	144,00
-1958,53	117,00
-1948,97	-26,00
-1939,42	31,00
-1929,89	-68,00
-1920,37	151,00
-1910,86	1,00
-1901,36	31,00
-1891,88	-78,00
-1882,41	-20,00
-1872,95	77,00
-1863,51	-43,00
-1854,08	61,00
-1844,66	-16,00
-1835,26	-36,00
-1825,86	-10,00
-1816,48	49,00
-1807,11	-8,00
-1797,76	-13,00
-1788,42	-13,00
-1779,09	4,00
-1769,77	26,00
-1760,47	-37,00
-1751,17	-31,00
-1741,89	-9,00
-1732,63	46,00
-1723,37	-192,00
-1714,13	0,00
-1704,90	-85,00
-1695,68	55,00
-1686,48	39,00
-1677,29	104,00
-1668,11	88,00
-1658,94	29,00
-1649,78	14,00
-1640,64	45,00
-1631,51	-19,00
-1622,39	32,00
-1613,28	65,00
-1604,19	58,00
-1595,10	35,00
-1586,03	61,00
-1576,97	12,00
-1567,93	112,00
-1558,89	-81,00
-1549,87	40,00
-1540,86	96,00
-1531,86	-81,00
-1522,87	-84,00
-1513,90	58,00
-1504,93	24,00
-1495,98	-56,00
-1487,04	145,00
-1478,12	115,00
-1469,20	32,00
-1460,30	100,00
-1451,40	112,00
-1442,52	-38,00
-1433,65	-25,00
-1424,80	72,00
-1415,95	71,00
-1407,12	102,00
-1398,30	35,00
-1389,48	16,00
-1380,69	-8,00
-1371,90	42,00
-1363,12	-8,00
-1354,36	81,00
-1345,60	52,00
-1336,86	-84,00
-1328,13	11,00
-1319,41	-93,00
-1310,70	55,00
-1302,01	-19,00
-1293,32	103,00
-1284,65	53,00
-1275,99	47,00
-1267,33	-37,00
-1258,69	76,00
-1250,06	164,00
-1241,45	73,00
-1232,84	58,00
-1224,25	-45,00
-1215,66	71,00
-1207,09	-73,00
-1198,53	-98,00
-1189,97	-22,00
-1181,43	136,00
-1172,91	47,00
-1164,39	36,00
-1155,88	125,00
-1147,38	6,00
-1138,90	52,00
-1130,43	-27,00
-1121,96	-5,00
-1113,51	83,00
-1105,07	20,00
-1096,64	-24,00
-1088,22	45,00
-1079,81	95,00
-1071,41	75,00
-1063,02	-70,00
-1054,65	70,00
-1046,28	35,00
-1037,92	-31,00
-1029,58	69,00
-1021,24	-55,00
-1012,92	122,00
-1004,61	-14,00
-996,30	8,00
-988,01	-55,00
-979,73	95,00
-971,46	12,00
-963,20	57,00
-954,95	85,00
-946,71	-64,00
-938,48	21,00
-930,26	-22,00
-922,06	37,00
-913,86	71,00
-905,67	140,00
-897,49	-66,00
-889,33	112,00
-881,17	83,00
-873,02	148,00
-864,89	-135,00
-856,76	-91,00
-848,65	-33,00
-840,54	4,00
-832,45	94,00
-824,36	28,00
-816,29	47,00
-808,22	12,00
-800,17	-3,00
-792,12	3,00
-784,09	98,00
-776,06	27,00
-768,05	-136,00
-760,04	22,00
-752,05	33,00
-744,07	22,00
-736,09	51,00
-728,13	19,00
-720,17	46,00
-712,23	58,00
-704,29	-90,00
-696,37	81,00
-688,45	123,00
-680,55	-46,00
-672,65	140,00
-664,77	-24,00
-656,89	29,00
-649,03	1,00
-641,17	51,00
-633,32	99,00
-625,49	-51,00
-617,66	67,00
-609,84	-18,00
-602,03	18,00
-594,23	-7,00
-586,45	-3,00
-578,67	110,00
-570,90	5,00
-563,14	23,00
-555,39	38,00
-547,65	-17,00
-539,91	40,00
-532,19	-27,00
-524,48	58,00
-516,78	-18,00
-509,08	92,00
-501,40	25,00
-493,72	-54,00
-486,06	-80,00
-478,40	-36,00
-470,76	9,00
-463,12	-90,00
-455,49	161,00
-447,87	-16,00
-440,26	8,00
-432,66	33,00
-425,07	0,00
-417,49	47,00
-409,92	28,00
-402,35	-93,00
-394,80	103,00
-387,25	-97,00
-379,72	-1,00
-372,19	141,00
-364,67	125,00
-357,17	-73,00
-349,67	-32,00
-342,18	174,00
-334,69	70,00
-327,22	-17,00
-319,76	-50,00
-312,30	104,00
-304,86	70,00
-297,42	155,00
-290,00	120,00
-282,58	-23,00
-275,17	87,00
-267,77	47,00
-260,37	24,00
-252,99	-2,00
-245,62	16,00
-238,25	69,00
-230,90	-39,00
-223,55	208,00
-216,21	46,00
-208,88	208,00
-201,56	180,00
-194,25	168,00
-186,94	145,00
-179,65	148,00
-172,36	198,00
-165,08	155,00
-157,81	221,00
-150,55	164,00
-143,30	236,00
-136,06	316,00
-128,82	234,00
-121,60	432,00
-114,38	224,00
-107,17	192,00
-99,97	455,00
-92,78	492,00
-85,60	423,00
-78,42	646,00
-71,25	804,00
-64,10	984,00
-56,95	1228,00
-49,81	1267,00
-42,67	1622,00
-35,55	1970,00
-28,43	2743,00
-21,33	4912,00
-14,23	16463,00
-7,14	47266,00
-0,05	38051,00
7,02	42597,00
14,09	43195,00
21,14	11573,00
28,19	5213,00
35,23	3280,00
42,27	2480,00
49,29	2122,00
56,31	1683,00
63,32	1240,00
70,32	1217,00
77,31	1023,00
84,29	857,00
91,27	660,00
98,23	590,00
105,19	681,00
112,14	701,00
119,09	900,00
126,02	1272,00
132,95	1391,00
139,87	1325,00
146,78	1367,00
153,68	1327,00
160,58	1338,00
167,46	1268,00
174,34	1311,00
181,21	1185,00
188,08	1333,00
194,93	1388,00
201,78	1226,00
208,62	1279,00
215,45	1191,00
222,27	1404,00
229,09	1160,00
235,90	1270,00
242,70	1157,00
249,49	1212,00
256,27	1314,00
263,05	1088,00
269,82	1061,00
276,58	1202,00
283,33	1175,00
290,08	1332,00
296,82	1161,00
303,55	991,00
310,27	1182,00
316,98	1074,00
323,69	1171,00
330,39	1176,00
337,08	975,00
343,76	1017,00
350,44	1001,00
357,11	875,00
363,77	1033,00
370,42	1028,00
377,07	1089,00
383,71	1060,00
390,34	948,00
396,96	1049,00
403,58	891,00
410,19	949,00
416,79	972,00
423,38	1104,00
429,97	991,00
436,55	1051,00
443,12	1017,00
449,68	894,00
456,24	952,00
462,79	944,00
469,33	851,00
475,86	936,00
482,39	828,00
488,91	904,00
495,42	808,00
501,93	961,00
508,42	969,00
514,91	897,00
521,40	858,00
527,87	954,00
534,34	792,00
540,80	943,00
547,25	916,00
553,70	895,00
560,14	888,00
566,57	805,00
573,00	977,00
579,41	699,00
585,83	844,00
592,23	879,00
598,62	834,00
605,01	773,00
611,40	853,00
617,77	857,00
624,14	745,00
630,50	832,00
636,85	777,00
643,20	717,00
649,54	905,00
655,87	776,00
662,20	794,00
668,52	696,00
674,83	780,00
681,13	898,00
687,43	730,00
693,72	713,00
700,00	752,00
706,28	813,00
712,55	681,00
718,81	791,00
725,07	857,00
731,32	784,00
737,56	827,00
743,79	839,00
750,02	931,00
756,24	824,00
762,46	835,00
768,67	982,00
774,87	728,00
781,06	768,00
787,25	905,00
793,43	810,00
799,60	725,00
805,77	784,00
811,93	787,00
818,08	878,00
824,23	810,00
830,37	785,00
836,50	818,00
842,63	760,00
848,75	821,00
854,87	934,00
860,97	890,00
867,07	962,00
873,17	1025,00
879,25	710,00
885,33	862,00
891,41	729,00
897,47	746,00
903,53	770,00
909,59	856,00
915,63	912,00
921,67	784,00
927,71	672,00
933,74	832,00
939,76	757,00
945,77	793,00
951,78	821,00
957,78	737,00
963,78	757,00
969,77	711,00
975,75	698,00
981,72	777,00
987,69	830,00
993,66	838,00
999,61	723,00
1005,56	849,00
1011,51	755,00
1017,44	749,00
1023,37	804,00
1029,30	733,00
1035,22	602,00
1041,13	873,00
1047,03	911,00
1052,93	1081,00
1058,83	1203,00
1064,71	1381,00
1070,59	1121,00
1076,47	959,00
1082,33	931,00
1088,20	808,00
1094,05	900,00
1099,90	759,00
1105,74	816,00
1111,58	778,00
1117,41	895,00
1123,23	1108,00
1129,05	1351,00
1134,86	1275,00
1140,67	921,00
1146,47	928,00
1152,26	879,00
1158,05	861,00
1163,83	825,00
1169,60	880,00
1175,37	894,00
1181,13	732,00
1186,89	718,00
1192,64	780,00
1198,38	791,00
1204,12	740,00
1209,85	861,00
1215,58	687,00
1221,30	833,00
1227,02	812,00
1232,72	746,00
1238,43	797,00
1244,12	822,00
1249,81	930,00
1255,50	824,00
1261,17	912,00
1266,85	961,00
1272,51	916,00
1278,17	1028,00
1283,83	972,00
1289,47	1414,00
1295,12	1638,00
1300,75	1483,00
1306,38	1253,00
1312,01	1084,00
1317,63	983,00
1323,24	1028,00
1328,85	924,00
1334,45	992,00
1340,04	843,00
1345,63	1032,00
1351,22	1000,00
1356,80	1003,00
1362,37	973,00
1367,93	1188,00
1373,49	984,00
1379,05	1036,00
1384,60	1002,00
1390,14	1002,00
1395,68	975,00
1401,21	1008,00
1406,74	1012,00
1412,26	1307,00
1417,77	1269,00
1423,28	1290,00
1428,78	1424,00
1434,28	1328,00
1439,77	1767,00
1445,26	1662,00
1450,74	1645,00
1456,22	1429,00
1461,68	1524,00
1467,15	1340,00
1472,61	1281,00
1478,06	1140,00
1483,51	1005,00
1488,95	1116,00
1494,38	905,00
1499,81	859,00
1505,24	880,00
1510,65	836,00
1516,07	822,00
1521,48	822,00
1526,88	828,00
1532,27	818,00
1537,67	853,00
1543,05	815,00
1548,43	751,00
1553,81	819,00
1559,18	951,00
1564,54	786,00
1569,90	741,00
1575,25	724,00
1580,60	916,00
1585,94	664,00
1591,28	720,00
1596,61	825,00
1601,93	766,00
1607,25	710,00
1612,57	770,00
1617,88	880,00
1623,18	890,00
1628,48	751,00
1633,77	730,00
1639,06	803,00
1644,34	855,00
1649,62	696,00
1654,89	673,00
1660,16	721,00
1665,42	746,00
1670,67	742,00
1675,92	716,00
1681,17	708,00
1686,41	697,00
1691,64	742,00
1696,87	712,00
1702,10	694,00
1707,32	575,00
1712,53	732,00
1717,74	725,00
1722,94	578,00
1728,14	760,00
1733,33	672,00
1738,52	686,00
1743,70	818,00
1748,88	663,00
1754,05	783,00
1759,22	748,00
1764,38	489,00
1769,53	652,00
1774,69	743,00
1779,83	661,00
1784,97	712,00
1790,11	635,00
1795,24	601,00
1800,36	666,00
1805,48	765,00
1810,60	754,00
1815,71	550,00
1820,82	772,00
1825,92	696,00
1831,01	710,00
1836,10	733,00
1841,19	746,00
1846,26	643,00
1851,34	623,00
1856,41	531,00
1861,47	706,00
1866,53	622,00
1871,59	593,00
1876,64	788,00
1881,68	702,00
1886,72	593,00
1891,76	584,00
1896,79	728,00
1901,81	728,00
1906,83	565,00
1911,85	685,00
1916,86	744,00
1921,86	596,00
1926,86	621,00
1931,86	704,00
1936,85	675,00
1941,83	568,00
1946,81	670,00
1951,79	629,00
1956,76	518,00
1961,72	656,00
1966,68	532,00
1971,64	619,00
1976,59	578,00
1981,54	589,00
1986,48	472,00
1991,42	554,00
1996,35	618,00
2001,27	477,00
2006,20	739,00
2011,11	616,00
2016,03	500,00
2020,93	641,00
2025,84	563,00
2030,73	578,00
2035,63	576,00
2040,52	619,00
2045,40	510,00
2050,28	521,00
2055,15	568,00
2060,02	613,00
2064,89	574,00
2069,75	575,00
2074,60	545,00
2079,46	535,00
2084,30	637,00
2089,14	590,00
2093,98	589,00
2098,81	623,00
2103,64	559,00
2108,46	546,00
2113,28	674,00
2118,09	493,00
2122,90	685,00
2127,70	719,00
2132,50	463,00
2137,30	532,00
2142,09	575,00
2146,87	605,00
2151,66	675,00
2156,43	633,00
2161,20	534,00
2165,97	587,00
2170,73	539,00
2175,49	544,00
2180,24	601,00
2184,99	503,00
2189,74	587,00
2194,48	546,00
2199,21	582,00
2203,94	549,00
2208,67	643,00
2213,39	467,00
2218,11	455,00
2222,82	551,00
2227,53	530,00
2232,23	516,00
2236,93	541,00
2241,63	522,00
2246,32	534,00
2251,00	471,00
2255,68	548,00
2260,36	502,00
2265,03	471,00
2269,70	560,00
2274,36	525,00
2279,02	460,00
2283,68	413,00
2288,33	414,00
2292,97	517,00
2297,61	501,00
2302,25	504,00
2306,88	581,00
2311,51	568,00
2316,14	532,00
2320,75	582,00
2325,37	443,00
2329,98	448,00
2334,59	526,00
2339,19	546,00
2343,79	369,00
2348,38	546,00
2352,97	463,00
2357,55	515,00
2362,13	579,00
2366,71	488,00
2371,28	444,00
2375,85	562,00
2380,41	568,00
2384,97	520,00
2389,52	328,00
2394,07	496,00
2398,62	416,00
2403,16	479,00
2407,70	460,00
2412,23	527,00
2416,76	348,00
2421,29	525,00
2425,81	575,00
2430,32	466,00
2434,84	327,00
2439,34	536,00
2443,85	390,00
2448,35	580,00
2452,84	493,00
2457,33	474,00
2461,82	420,00
2466,30	446,00
2470,78	567,00
2475,25	305,00
2479,72	329,00
2484,19	614,00
2488,65	399,00
2493,11	442,00
2497,56	396,00
2502,01	419,00
2506,46	448,00
2510,90	515,00
2515,34	358,00
2519,77	354,00
2524,20	489,00
2528,62	342,00
2533,04	415,00
2537,46	468,00
2541,87	371,00
2546,28	357,00
2550,68	336,00
2555,08	435,00
2559,48	478,00
2563,87	428,00
2568,26	338,00
2572,64	390,00
2577,02	390,00
2581,40	468,00
2585,77	477,00
2590,14	362,00
2594,50	384,00
2598,86	471,00
2603,22	424,00
2607,57	329,00
2611,92	508,00
2616,26	422,00
2620,60	374,00
2624,94	372,00
2629,27	354,00
2633,60	479,00
2637,92	310,00
2642,24	286,00
2646,56	387,00
2650,87	430,00
2655,18	343,00
2659,48	260,00
2663,78	408,00
2668,08	515,00
2672,37	421,00
2676,66	417,00
2680,95	428,00
2685,23	362,00
2689,50	545,00
2693,78	372,00
2698,05	335,00
2702,31	424,00
2706,57	377,00
2710,83	358,00
2715,08	393,00
2719,33	535,00
2723,58	454,00
2727,82	401,00
2732,06	392,00
2736,29	451,00
2740,53	476,00
2744,75	438,00
2748,97	455,00
2753,19	536,00
2757,41	298,00
2761,62	322,00
2765,83	429,00
2770,03	369,00
2774,23	470,00
2778,43	473,00
2782,62	593,00
2786,81	332,00
2791,00	475,00
2795,18	538,00
2799,35	360,00
2803,53	433,00
2807,70	567,00
2811,86	474,00
2816,03	481,00
2820,19	445,00
2824,34	519,00
2828,49	530,00
2832,64	743,00
2836,78	739,00
2840,92	1040,00
2845,06	1002,00
2849,19	1179,00
2853,32	1288,00
2857,45	1278,00
2861,57	1236,00
2865,69	1081,00
2869,80	1149,00
2873,91	1195,00
2878,02	1210,00
2882,12	1372,00
2886,22	1508,00
2890,32	1182,00
2894,41	1030,00
2898,50	1112,00
2902,58	1003,00
2906,67	804,00
2910,74	885,00
2914,82	782,00
2918,89	836,00
2922,96	648,00
2927,02	726,00
2931,08	690,00
2935,13	589,00
2939,19	715,00
2943,24	480,00
2947,28	478,00
2951,32	448,00
2955,36	507,00
2959,40	293,00
2963,43	349,00
2967,46	280,00
2971,48	342,00
2975,50	324,00
2979,52	366,00
2983,53	343,00
2987,54	266,00
2991,55	270,00
2995,55	334,00
2999,55	328,00
3003,54	329,00
3007,54	252,00
3011,53	252,00
3015,51	261,00
3019,49	70,00
3023,47	206,00
3027,45	342,00
3031,42	299,00
3035,39	259,00
3039,35	197,00
3043,31	357,00
3047,27	248,00
3051,22	246,00
3055,17	202,00
3059,12	153,00
3063,06	269,00
3067,00	166,00
3070,94	291,00
3074,87	228,00
3078,80	268,00
3082,73	230,00
3086,65	136,00
3090,57	285,00
3094,49	82,00
3098,40	174,00
3102,31	194,00
3106,22	236,00
3110,12	239,00
3114,02	84,00
3117,92	138,00
3121,81	181,00
3125,70	67,00
3129,58	120,00
3133,47	59,00
3137,34	105,00
3141,22	272,00
3145,09	202,00
3148,96	114,00
3152,83	195,00
3156,69	147,00
3160,55	221,00
3164,40	216,00
3168,26	171,00
3172,10	112,00
3175,95	222,00
3179,79	55,00
3183,63	7,00
3187,47	217,00
3191,30	145,00
3195,13	157,00
3198,95	47,00
3202,78	144,00
3206,60	190,00
3210,41	116,00
3214,23	117,00
3218,03	277,00
3221,84	10,00
3225,64	147,00
3229,44	218,00
3233,24	123,00
3237,03	114,00
3240,82	166,00
3244,61	213,00
3248,39	121,00
3252,17	210,00
3255,95	99,00
3259,72	150,00
3263,49	169,00
3267,26	137,00
3271,03	286,00
3274,79	10,00
3278,54	126,00
3282,30	133,00
3286,05	11,00
3289,80	45,00
3293,54	82,00
3297,29	99,00
3301,02	120,00
3304,76	82,00
3308,49	126,00
3312,22	33,00
3315,95	113,00
3319,67	146,00
3323,39	158,00
3327,10	66,00
3330,82	159,00
3334,53	166,00
3338,24	128,00
3341,94	171,00
3345,64	145,00
3349,34	77,00
3353,03	73,00
3356,72	128,00
3360,41	127,00
3364,10	181,00
3367,78	19,00
3371,46	129,00
3375,13	148,00
3378,81	52,00
3382,48	109,00
3386,14	50,00
3389,81	134,00
3393,47	159,00
3397,12	28,00
3400,78	18,00
3404,43	162,00
3408,08	103,00
3411,72	91,00
3415,36	104,00
3419,00	142,00
3422,64	148,00
3426,27	122,00
3429,90	83,00
3433,53	166,00
3437,15	130,00
3440,77	210,00
3444,39	240,00
3448,00	-15,00
3451,62	115,00
3455,22	120,00
3458,83	62,00
3462,43	85,00
3466,03	-121,00
3469,63	34,00
3473,22	76,00
3476,81	150,00
3480,40	-40,00
3483,99	-16,00
3487,57	46,00
3491,15	19,00
3494,72	74,00
3498,29	-23,00
3501,86	143,00
3505,43	-34,00
3508,99	61,00
3512,56	101,00
3516,11	97,00
3519,67	96,00
3523,22	102,00
3526,77	28,00
3530,32	118,00
3533,86	56,00
3537,40	96,00
3540,94	78,00
3544,47	56,00
3548,00	161,00
3551,53	55,00
3555,06	-33,00
3558,58	154,00
3562,10	53,00
3565,62	228,00
3569,13	-77,00
3572,64	-47,00
3576,15	145,00
3579,66	-5,00
3583,16	35,00
3586,66	-50,00
3590,16	40,00
3593,65	20,00
3597,14	-41,00
3600,63	54,00
3604,11	113,00
3607,60	66,00
3611,08	77,00
3614,55	-30,00
3618,03	27,00
3621,50	135,00
3624,97	40,00
3628,43	-52,00
3631,90	108,00
3635,36	102,00
3638,81	70,00
3642,27	-44,00
3645,72	59,00
3649,17	70,00
3652,61	-74,00
3656,06	152,00
3659,50	-38,00
3662,93	-15,00
3666,37	58,00
3669,80	9,00
3673,23	124,00
3676,65	107,00
3680,08	-14,00
3683,50	13,00
3686,92	135,00
3690,33	-18,00
3693,74	31,00
3697,15	56,00
3700,56	57,00
3703,96	-13,00
3707,36	-55,00
3710,76	-73,00
3714,16	63,00
3717,55	-31,00
3720,94	40,00
3724,33	8,00
3727,71	36,00
3731,10	101,00
3734,48	103,00
3737,85	45,00
3741,23	-37,00
3744,60	103,00
3747,97	32,00
3751,33	117,00
3754,69	43,00
3758,05	155,00
3761,41	-41,00
3764,77	-1,00
3768,12	51,00
3771,47	33,00
3774,82	8,00
3778,16	1,00
3781,50	-5,00
3784,84	5,00
3788,18	12,00
>>>>>End Processed Spectral Data<<<<<
