SpectraSuite Data File
++++++++++++++++++++++++++++++++++++
Date: Tue Mar 03 12:45:25 ICT 2026
User: user
Dark Spectrum Present: Yes
Reference Spectrum Present: No
Number of Sampled Component Spectra: 1
Spectrometers: MAYP113682
Integration Time (usec): 3000000 (MAYP113682)
Spectra Averaged: 1 (MAYP113682)
Boxcar Smoothing: 0 (MAYP113682)
Correct for Electrical Dark: No (MAYP113682)
Strobe/Lamp Enabled: No (MAYP113682)
Correct for Detector Non-linearity: No (MAYP113682)
Correct for Stray Light: No (MAYP113682)
Number of Pixels in Processed Spectrum: 2068
>>>>>Begin Processed Spectral Data<<<<<
-37534,58	5,00
-37414,56	4,00
-37295,11	-1,00
-37176,24	-2,00
-37057,95	104,00
-36940,22	35,00
-36823,05	102,00
-36706,45	226,00
-36590,40	120,00
-36474,90	131,00
-36359,95	145,00
-36245,55	320,00
-36131,68	115,00
-36018,35	194,00
-35905,55	125,00
-35793,29	151,00
-35681,54	183,00
-35570,32	98,00
-35459,62	55,00
-35349,43	182,00
-35239,75	139,00
-35130,58	160,00
-35021,91	181,00
-34913,74	242,00
-34806,07	108,00
-34698,89	201,00
-34592,20	40,00
-34486,00	111,00
-34380,28	39,00
-34275,04	47,00
-34170,27	112,00
-34065,98	119,00
-33962,16	53,00
-33858,81	97,00
-33755,92	134,00
-33653,49	154,00
-33551,52	94,00
-33450,01	160,00
-33348,94	238,00
-33248,33	116,00
-33148,16	143,00
-33048,43	147,00
-32949,14	105,00
-32850,29	168,00
-32751,87	146,00
-32653,89	273,00
-32556,33	128,00
-32459,20	167,00
-32362,49	116,00
-32266,19	111,00
-32170,32	110,00
-32074,86	69,00
-31979,82	48,00
-31885,18	32,00
-31790,95	144,00
-31697,12	113,00
-31603,69	99,00
-31510,67	150,00
-31418,04	93,00
-31325,80	154,00
-31233,95	335,00
-31142,49	184,00
-31051,42	65,00
-30960,73	178,00
-30870,43	176,00
-30780,50	176,00
-30690,95	31,00
-30601,77	69,00
-30512,97	35,00
-30424,53	178,00
-30336,46	241,00
-30248,76	135,00
-30161,42	173,00
-30074,44	186,00
-29987,81	218,00
-29901,55	115,00
-29815,63	116,00
-29730,07	48,00
-29644,86	143,00
-29560,00	244,00
-29475,48	86,00
-29391,30	125,00
-29307,47	148,00
-29223,97	192,00
-29140,81	1,00
-29057,99	33,00
-28975,50	189,00
-28893,34	152,00
-28811,51	94,00
-28730,00	217,00
-28648,82	137,00
-28567,97	99,00
-28487,43	115,00
-28407,21	142,00
-28327,32	14,00
-28247,73	16,00
-28168,46	160,00
-28089,50	174,00
-28010,85	66,00
-27932,51	209,00
-27854,48	12,00
-27776,75	184,00
-27699,32	74,00
-27622,19	276,00
-27545,37	129,00
-27468,84	109,00
-27392,60	146,00
-27316,66	85,00
-27241,01	20,00
-27165,66	167,00
-27090,59	91,00
-27015,81	171,00
-26941,31	185,00
-26867,10	181,00
-26793,17	152,00
-26719,52	65,00
-26646,15	80,00
-26573,06	148,00
-26500,24	179,00
-26427,70	77,00
-26355,43	237,00
-26283,43	128,00
-26211,71	172,00
-26140,25	108,00
-26069,06	213,00
-25998,13	130,00
-25927,46	131,00
-25857,06	162,00
-25786,92	137,00
-25717,04	66,00
-25647,42	92,00
-25578,05	119,00
-25508,94	28,00
-25440,09	210,00
-25371,48	177,00
-25303,13	95,00
-25235,02	216,00
-25167,17	146,00
-25099,56	197,00
-25032,19	184,00
-24965,07	95,00
-24898,20	148,00
-24831,56	50,00
-24765,17	118,00
-24699,01	253,00
-24633,10	105,00
-24567,41	-2,00
-24501,97	126,00
-24436,75	31,00
-24371,77	143,00
-24307,03	47,00
-24242,51	152,00
-24178,22	155,00
-24114,16	22,00
-24050,32	102,00
-23986,71	84,00
-23923,32	56,00
-23860,16	120,00
-23797,22	172,00
-23734,50	82,00
-23672,00	56,00
-23609,71	317,00
-23547,65	58,00
-23485,80	67,00
-23424,16	180,00
-23362,74	187,00
-23301,53	119,00
-23240,54	75,00
-23179,75	99,00
-23119,17	72,00
-23058,80	303,00
-22998,64	179,00
-22938,68	159,00
-22878,93	52,00
-22819,39	98,00
-22760,04	-18,00
-22700,90	75,00
-22641,96	137,00
-22583,22	100,00
-22524,68	170,00
-22466,33	55,00
-22408,19	156,00
-22350,23	138,00
-22292,48	150,00
-22234,92	117,00
-22177,55	188,00
-22120,37	161,00
-22063,38	150,00
-22006,58	239,00
-21949,98	171,00
-21893,56	211,00
-21837,33	63,00
-21781,28	145,00
-21725,42	141,00
-21669,74	100,00
-21614,25	129,00
-21558,94	113,00
-21503,81	185,00
-21448,86	27,00
-21394,10	163,00
-21339,51	245,00
-21285,10	-5,00
-21230,86	84,00
-21176,81	175,00
-21122,93	210,00
-21069,22	235,00
-21015,69	170,00
-20962,33	193,00
-20909,14	109,00
-20856,13	207,00
-20803,28	23,00
-20750,61	181,00
-20698,10	174,00
-20645,76	256,00
-20593,59	154,00
-20541,59	140,00
-20489,75	19,00
-20438,07	76,00
-20386,56	104,00
-20335,22	179,00
-20284,03	176,00
-20233,01	48,00
-20182,15	69,00
-20131,45	106,00
-20080,91	91,00
-20030,52	213,00
-19980,30	107,00
-19930,23	-31,00
-19880,32	79,00
-19830,56	261,00
-19780,96	131,00
-19731,52	167,00
-19682,23	70,00
-19633,09	75,00
-19584,10	221,00
-19535,26	214,00
-19486,58	137,00
-19438,04	30,00
-19389,66	120,00
-19341,42	39,00
-19293,33	112,00
-19245,39	122,00
-19197,60	167,00
-19149,95	240,00
-19102,45	139,00
-19055,09	184,00
-19007,87	228,00
-18960,80	170,00
-18913,87	235,00
-18867,09	-15,00
-18820,44	264,00
-18773,94	90,00
-18727,57	119,00
-18681,35	27,00
-18635,26	159,00
-18589,31	154,00
-18543,50	61,00
-18497,83	121,00
-18452,29	44,00
-18406,89	145,00
-18361,63	178,00
-18316,50	49,00
-18271,50	75,00
-18226,63	191,00
-18181,90	136,00
-18137,30	290,00
-18092,84	126,00
-18048,50	107,00
-18004,29	363,00
-17960,22	176,00
-17916,27	126,00
-17872,45	87,00
-17828,76	87,00
-17785,20	155,00
-17741,77	79,00
-17698,46	160,00
-17655,28	155,00
-17612,22	-43,00
-17569,29	134,00
-17526,48	170,00
-17483,79	126,00
-17441,23	103,00
-17398,79	79,00
-17356,48	261,00
-17314,28	183,00
-17272,21	85,00
-17230,26	150,00
-17188,42	164,00
-17146,71	147,00
-17105,12	165,00
-17063,64	120,00
-17022,28	134,00
-16981,04	97,00
-16939,92	205,00
-16898,91	136,00
-16858,02	15,00
-16817,25	121,00
-16776,59	298,00
-16736,04	168,00
-16695,61	190,00
-16655,29	98,00
-16615,09	74,00
-16574,99	199,00
-16535,01	177,00
-16495,15	105,00
-16455,39	88,00
-16415,74	134,00
-16376,21	114,00
-16336,78	79,00
-16297,46	188,00
-16258,26	273,00
-16219,16	70,00
-16180,17	206,00
-16141,28	301,00
-16102,51	73,00
-16063,84	87,00
-16025,27	205,00
-15986,82	146,00
-15948,46	5,00
-15910,22	226,00
-15872,07	184,00
-15834,04	163,00
-15796,10	126,00
-15758,27	89,00
-15720,54	144,00
-15682,91	52,00
-15645,39	77,00
-15607,97	180,00
-15570,64	139,00
-15533,42	62,00
-15496,30	188,00
-15459,28	118,00
-15422,36	84,00
-15385,54	160,00
-15348,82	128,00
-15312,19	105,00
-15275,66	48,00
-15239,23	116,00
-15202,90	171,00
-15166,67	174,00
-15130,53	140,00
-15094,48	101,00
-15058,54	252,00
-15022,68	116,00
-14986,93	181,00
-14951,26	49,00
-14915,69	11,00
-14880,22	210,00
-14844,84	42,00
-14809,55	83,00
-14774,35	125,00
-14739,25	207,00
-14704,24	3,00
-14669,32	77,00
-14634,49	272,00
-14599,75	149,00
-14565,10	159,00
-14530,55	147,00
-14496,08	242,00
-14461,70	227,00
-14427,41	17,00
-14393,21	133,00
-14359,10	17,00
-14325,07	239,00
-14291,14	231,00
-14257,29	106,00
-14223,52	144,00
-14189,85	79,00
-14156,26	53,00
-14122,76	40,00
-14089,34	122,00
-14056,01	182,00
-14022,76	46,00
-13989,60	172,00
-13956,52	70,00
-13923,53	242,00
-13890,62	122,00
-13857,79	208,00
-13825,05	190,00
-13792,39	164,00
-13759,81	208,00
-13727,31	71,00
-13694,90	22,00
-13662,57	215,00
-13630,31	87,00
-13598,14	169,00
-13566,05	131,00
-13534,05	37,00
-13502,12	85,00
-13470,27	183,00
-13438,50	103,00
-13406,80	188,00
-13375,19	100,00
-13343,66	9,00
-13312,20	106,00
-13280,83	61,00
-13249,53	120,00
-13218,30	124,00
-13187,16	109,00
-13156,09	81,00
-13125,10	267,00
-13094,18	205,00
-13063,34	-26,00
-13032,58	126,00
-13001,89	-12,00
-12971,28	41,00
-12940,74	80,00
-12910,27	198,00
-12879,88	70,00
-12849,57	161,00
-12819,33	88,00
-12789,16	177,00
-12759,06	221,00
-12729,04	83,00
-12699,09	132,00
-12669,21	109,00
-12639,41	49,00
-12609,68	111,00
-12580,02	53,00
-12550,43	163,00
-12520,91	56,00
-12491,46	84,00
-12462,08	251,00
-12432,77	145,00
-12403,54	35,00
-12374,37	116,00
-12345,27	2,00
-12316,24	120,00
-12287,29	123,00
-12258,40	202,00
-12229,57	243,00
-12200,82	85,00
-12172,14	2,00
-12143,52	133,00
-12114,97	123,00
-12086,49	149,00
-12058,07	84,00
-12029,73	-16,00
-12001,44	88,00
-11973,23	191,00
-11945,08	47,00
-11917,00	-3,00
-11888,98	198,00
-11861,03	96,00
-11833,15	159,00
-11805,32	126,00
-11777,57	146,00
-11749,88	153,00
-11722,25	251,00
-11694,69	101,00
-11667,19	190,00
-11639,75	61,00
-11612,38	139,00
-11585,07	139,00
-11557,83	50,00
-11530,65	118,00
-11503,53	166,00
-11476,47	136,00
-11449,48	174,00
-11422,54	192,00
-11395,67	112,00
-11368,86	141,00
-11342,11	58,00
-11315,43	108,00
-11288,80	211,00
-11262,23	210,00
-11235,73	240,00
-11209,28	90,00
-11182,90	152,00
-11156,57	112,00
-11130,31	216,00
-11104,10	177,00
-11077,96	85,00
-11051,87	357,00
-11025,84	108,00
-10999,87	145,00
-10973,96	88,00
-10948,11	164,00
-10922,31	148,00
-10896,58	216,00
-10870,90	219,00
-10845,28	199,00
-10819,71	183,00
-10794,20	59,00
-10768,75	246,00
-10743,36	181,00
-10718,02	177,00
-10692,74	104,00
-10667,52	135,00
-10642,35	121,00
-10617,24	317,00
-10592,18	323,00
-10567,18	263,00
-10542,23	214,00
-10517,34	286,00
-10492,51	257,00
-10467,72	332,00
-10443,00	328,00
-10418,32	248,00
-10393,70	224,00
-10369,14	233,00
-10344,63	412,00
-10320,17	395,00
-10295,77	355,00
-10271,42	285,00
-10247,12	221,00
-10222,88	289,00
-10198,68	386,00
-10174,54	392,00
-10150,46	600,00
-10126,42	356,00
-10102,44	407,00
-10078,51	608,00
-10054,63	489,00
-10030,80	519,00
-10007,03	491,00
-9983,30	525,00
-9959,63	605,00
-9936,01	669,00
-9912,44	735,00
-9888,92	678,00
-9865,44	791,00
-9842,02	735,00
-9818,65	671,00
-9795,33	666,00
-9772,06	901,00
-9748,84	808,00
-9725,67	907,00
-9702,55	1148,00
-9679,47	1256,00
-9656,45	1299,00
-9633,47	1327,00
-9610,55	1392,00
-9587,67	1418,00
-9564,84	1630,00
-9542,06	1640,00
-9519,32	1883,00
-9496,64	2035,00
-9474,00	2303,00
-9451,41	2287,00
-9428,87	2194,00
-9406,37	2284,00
-9383,92	1954,00
-9361,52	1928,00
-9339,17	1908,00
-9316,86	2243,00
-9294,60	2455,00
-9272,38	2779,00
-9250,21	2844,00
-9228,09	2926,00
-9206,01	2894,00
-9183,98	2562,00
-9162,00	2149,00
-9140,06	2203,00
-9118,16	2113,00
-9096,31	2244,00
-9074,51	2376,00
-9052,75	2162,00
-9031,04	2246,00
-9009,37	2064,00
-8987,74	1766,00
-8966,16	1618,00
-8944,63	1458,00
-8923,14	1284,00
-8901,69	1465,00
-8880,29	1617,00
-8858,93	1883,00
-8837,61	1939,00
-8816,34	2192,00
-8795,11	2172,00
-8773,92	2157,00
-8752,78	1685,00
-8731,68	1664,00
-8710,62	1728,00
-8689,61	1791,00
-8668,63	1879,00
-8647,70	2012,00
-8626,82	2014,00
-8605,97	1903,00
-8585,17	1941,00
-8564,41	1599,00
-8543,69	1616,00
-8523,01	1263,00
-8502,37	1528,00
-8481,78	1524,00
-8461,23	1594,00
-8440,71	1798,00
-8420,24	1937,00
-8399,81	1947,00
-8379,42	2035,00
-8359,08	1689,00
-8338,77	1615,00
-8318,50	1577,00
-8298,27	1357,00
-8278,09	1708,00
-8257,94	1539,00
-8237,83	1747,00
-8217,76	1793,00
-8197,74	1884,00
-8177,75	1772,00
-8157,80	1514,00
-8137,89	1564,00
-8118,02	1595,00
-8098,19	1324,00
-8078,40	1346,00
-8058,65	1508,00
-8038,93	1673,00
-8019,26	1612,00
-7999,62	1540,00
-7980,02	1512,00
-7960,46	1446,00
-7940,94	1387,00
-7921,46	1458,00
-7902,01	1332,00
-7882,60	1255,00
-7863,23	1250,00
-7843,90	1404,00
-7824,61	1566,00
-7805,35	1475,00
-7786,13	1521,00
-7766,95	1563,00
-7747,80	1295,00
-7728,69	1404,00
-7709,62	1241,00
-7690,59	1425,00
-7671,59	1526,00
-7652,63	1676,00
-7633,70	1449,00
-7614,81	1568,00
-7595,96	1433,00
-7577,15	1256,00
-7558,37	1241,00
-7539,62	1246,00
-7520,91	1521,00
-7502,24	1495,00
-7483,60	1475,00
-7465,00	1370,00
-7446,44	1207,00
-7427,91	1185,00
-7409,41	988,00
-7390,95	969,00
-7372,53	1011,00
-7354,14	1016,00
-7335,78	965,00
-7317,46	1142,00
-7299,18	1177,00
-7280,92	1391,00
-7262,71	1350,00
-7244,52	1528,00
-7226,38	1491,00
-7208,26	1333,00
-7190,18	1394,00
-7172,14	1190,00
-7154,12	1329,00
-7136,15	1452,00
-7118,20	1436,00
-7100,29	1532,00
-7082,41	1495,00
-7064,57	1386,00
-7046,76	1431,00
-7028,98	1269,00
-7011,24	1129,00
-6993,53	875,00
-6975,85	933,00
-6958,20	760,00
-6940,59	855,00
-6923,01	774,00
-6905,46	996,00
-6887,94	976,00
-6870,46	1063,00
-6853,01	1291,00
-6835,59	1291,00
-6818,21	1149,00
-6800,85	962,00
-6783,53	889,00
-6766,24	693,00
-6748,98	680,00
-6731,76	620,00
-6714,56	612,00
-6697,40	711,00
-6680,26	723,00
-6663,16	754,00
-6646,09	913,00
-6629,05	1067,00
-6612,05	1049,00
-6595,07	1057,00
-6578,13	993,00
-6561,21	1006,00
-6544,33	727,00
-6527,47	522,00
-6510,65	547,00
-6493,86	520,00
-6477,10	574,00
-6460,36	616,00
-6443,66	519,00
-6426,99	421,00
-6410,35	544,00
-6393,74	648,00
-6377,16	666,00
-6360,61	733,00
-6344,09	750,00
-6327,59	895,00
-6311,13	819,00
-6294,70	955,00
-6278,29	948,00
-6261,92	912,00
-6245,58	1148,00
-6229,26	1098,00
-6212,97	1053,00
-6196,72	664,00
-6180,49	620,00
-6164,29	410,00
-6148,12	502,00
-6131,98	381,00
-6115,86	303,00
-6099,78	437,00
-6083,72	203,00
-6067,69	332,00
-6051,69	324,00
-6035,72	329,00
-6019,78	460,00
-6003,87	504,00
-5987,98	808,00
-5972,12	784,00
-5956,29	766,00
-5940,49	642,00
-5924,71	488,00
-5908,96	404,00
-5893,24	330,00
-5877,55	423,00
-5861,89	375,00
-5846,25	413,00
-5830,64	401,00
-5815,05	489,00
-5799,50	347,00
-5783,97	442,00
-5768,47	578,00
-5752,99	539,00
-5737,55	746,00
-5722,12	797,00
-5706,73	778,00
-5691,36	573,00
-5676,02	448,00
-5660,71	480,00
-5645,42	346,00
-5630,16	461,00
-5614,92	321,00
-5599,71	602,00
-5584,53	456,00
-5569,37	538,00
-5554,24	639,00
-5539,14	512,00
-5524,06	321,00
-5509,01	565,00
-5493,98	579,00
-5478,98	464,00
-5464,00	448,00
-5449,05	516,00
-5434,13	380,00
-5419,23	382,00
-5404,36	338,00
-5389,51	586,00
-5374,69	598,00
-5359,89	879,00
-5345,12	879,00
-5330,37	857,00
-5315,65	499,00
-5300,95	642,00
-5286,28	422,00
-5271,63	408,00
-5257,01	436,00
-5242,41	567,00
-5227,84	484,00
-5213,29	492,00
-5198,76	278,00
-5184,26	316,00
-5169,79	333,00
-5155,33	405,00
-5140,91	427,00
-5126,51	568,00
-5112,13	532,00
-5097,77	595,00
-5083,44	373,00
-5069,13	320,00
-5054,85	391,00
-5040,59	498,00
-5026,36	405,00
-5012,15	581,00
-4997,96	481,00
-4983,80	444,00
-4969,66	247,00
-4955,54	370,00
-4941,44	461,00
-4927,37	594,00
-4913,33	760,00
-4899,30	761,00
-4885,30	659,00
-4871,33	507,00
-4857,37	444,00
-4843,44	200,00
-4829,53	330,00
-4815,65	560,00
-4801,79	339,00
-4787,95	436,00
-4774,13	297,00
-4760,34	464,00
-4746,56	146,00
-4732,82	369,00
-4719,09	342,00
-4705,38	532,00
-4691,70	771,00
-4678,04	727,00
-4664,41	473,00
-4650,79	376,00
-4637,20	349,00
-4623,63	281,00
-4610,08	414,00
-4596,56	510,00
-4583,05	393,00
-4569,57	473,00
-4556,11	85,00
-4542,67	217,00
-4529,25	283,00
-4515,86	344,00
-4502,49	672,00
-4489,13	551,00
-4475,80	467,00
-4462,49	374,00
-4449,21	395,00
-4435,94	268,00
-4422,70	254,00
-4409,47	422,00
-4396,27	495,00
-4383,09	384,00
-4369,93	159,00
-4356,79	181,00
-4343,67	253,00
-4330,58	370,00
-4317,50	384,00
-4304,45	351,00
-4291,41	193,00
-4278,40	288,00
-4265,41	130,00
-4252,44	312,00
-4239,49	417,00
-4226,55	369,00
-4213,65	310,00
-4200,76	278,00
-4187,89	240,00
-4175,04	147,00
-4162,21	296,00
-4149,40	69,00
-4136,61	78,00
-4123,85	189,00
-4111,10	180,00
-4098,37	132,00
-4085,66	240,00
-4072,98	245,00
-4060,31	92,00
-4047,66	307,00
-4035,04	200,00
-4022,43	105,00
-4009,84	-23,00
-3997,27	175,00
-3984,72	107,00
-3972,19	218,00
-3959,69	129,00
-3947,20	63,00
-3934,73	64,00
-3922,27	205,00
-3909,84	-43,00
-3897,43	104,00
-3885,04	135,00
-3872,67	206,00
-3860,31	175,00
-3847,98	159,00
-3835,66	163,00
-3823,36	133,00
-3811,09	228,00
-3798,83	113,00
-3786,59	31,00
-3774,37	175,00
-3762,17	67,00
-3749,98	55,00
-3737,82	202,00
-3725,67	229,00
-3713,55	165,00
-3701,44	264,00
-3689,35	187,00
-3677,28	80,00
-3665,22	203,00
-3653,19	116,00
-3641,17	92,00
-3629,18	113,00
-3617,20	92,00
-3605,24	80,00
-3593,30	91,00
-3581,37	176,00
-3569,47	93,00
-3557,58	162,00
-3545,71	134,00
-3533,86	90,00
-3522,02	172,00
-3510,21	150,00
-3498,41	231,00
-3486,63	118,00
-3474,87	155,00
-3463,12	102,00
-3451,40	57,00
-3439,69	312,00
-3428,00	167,00
-3416,33	123,00
-3404,67	75,00
-3393,03	164,00
-3381,41	192,00
-3369,81	101,00
-3358,22	126,00
-3346,66	184,00
-3335,10	34,00
-3323,57	267,00
-3312,06	157,00
-3300,56	94,00
-3289,08	76,00
-3277,61	147,00
-3266,16	39,00
-3254,73	92,00
-3243,32	146,00
-3231,92	52,00
-3220,55	98,00
-3209,18	178,00
-3197,84	112,00
-3186,51	68,00
-3175,20	186,00
-3163,90	215,00
-3152,63	146,00
-3141,36	20,00
-3130,12	53,00
-3118,89	202,00
-3107,68	83,00
-3096,49	114,00
-3085,31	164,00
-3074,15	186,00
-3063,00	166,00
-3051,87	146,00
-3040,76	67,00
-3029,67	176,00
-3018,59	198,00
-3007,52	260,00
-2996,48	89,00
-2985,44	211,00
-2974,43	265,00
-2963,43	201,00
-2952,45	189,00
-2941,48	141,00
-2930,53	98,00
-2919,60	-18,00
-2908,68	263,00
-2897,78	116,00
-2886,89	169,00
-2876,02	56,00
-2865,17	87,00
-2854,33	110,00
-2843,50	76,00
-2832,70	244,00
-2821,90	51,00
-2811,13	-4,00
-2800,37	64,00
-2789,62	168,00
-2778,89	160,00
-2768,18	220,00
-2757,48	193,00
-2746,80	141,00
-2736,13	48,00
-2725,48	32,00
-2714,84	92,00
-2704,22	135,00
-2693,61	140,00
-2683,02	243,00
-2672,45	79,00
-2661,89	276,00
-2651,34	104,00
-2640,81	84,00
-2630,30	204,00
-2619,80	107,00
-2609,31	120,00
-2598,84	82,00
-2588,39	191,00
-2577,95	87,00
-2567,52	132,00
-2557,11	168,00
-2546,71	138,00
-2536,33	71,00
-2525,97	119,00
-2515,62	148,00
-2505,28	22,00
-2494,96	176,00
-2484,65	83,00
-2474,36	168,00
-2464,08	210,00
-2453,82	133,00
-2443,57	18,00
-2433,33	105,00
-2423,11	68,00
-2412,91	180,00
-2402,72	88,00
-2392,54	158,00
-2382,38	182,00
-2372,23	164,00
-2362,09	107,00
-2351,97	192,00
-2341,87	76,00
-2331,78	176,00
-2321,70	216,00
-2311,64	116,00
-2301,59	56,00
-2291,55	151,00
-2281,53	161,00
-2271,53	196,00
-2261,53	150,00
-2251,55	-15,00
-2241,59	143,00
-2231,64	50,00
-2221,70	123,00
-2211,78	70,00
-2201,87	225,00
-2191,97	153,00
-2182,09	30,00
-2172,22	305,00
-2162,37	197,00
-2152,53	171,00
-2142,70	173,00
-2132,89	179,00
-2123,09	116,00
-2113,30	132,00
-2103,53	104,00
-2093,77	111,00
-2084,02	112,00
-2074,29	192,00
-2064,57	189,00
-2054,86	171,00
-2045,17	173,00
-2035,49	140,00
-2025,82	128,00
-2016,17	107,00
-2006,53	173,00
-1996,91	129,00
-1987,29	-1,00
-1977,69	132,00
-1968,11	222,00
-1958,53	274,00
-1948,97	57,00
-1939,42	185,00
-1929,89	79,00
-1920,37	286,00
-1910,86	122,00
-1901,36	234,00
-1891,88	74,00
-1882,41	117,00
-1872,95	130,00
-1863,51	10,00
-1854,08	168,00
-1844,66	105,00
-1835,26	137,00
-1825,86	176,00
-1816,48	139,00
-1807,11	45,00
-1797,76	68,00
-1788,42	208,00
-1779,09	84,00
-1769,77	190,00
-1760,47	80,00
-1751,17	6,00
-1741,89	74,00
-1732,63	78,00
-1723,37	-31,00
-1714,13	175,00
-1704,90	80,00
-1695,68	192,00
-1686,48	215,00
-1677,29	245,00
-1668,11	280,00
-1658,94	51,00
-1649,78	190,00
-1640,64	170,00
-1631,51	223,00
-1622,39	207,00
-1613,28	64,00
-1604,19	99,00
-1595,10	70,00
-1586,03	188,00
-1576,97	228,00
-1567,93	225,00
-1558,89	110,00
-1549,87	93,00
-1540,86	183,00
-1531,86	158,00
-1522,87	166,00
-1513,90	166,00
-1504,93	173,00
-1495,98	51,00
-1487,04	185,00
-1478,12	184,00
-1469,20	117,00
-1460,30	279,00
-1451,40	154,00
-1442,52	177,00
-1433,65	98,00
-1424,80	148,00
-1415,95	182,00
-1407,12	249,00
-1398,30	88,00
-1389,48	255,00
-1380,69	154,00
-1371,90	152,00
-1363,12	147,00
-1354,36	158,00
-1345,60	193,00
-1336,86	197,00
-1328,13	248,00
-1319,41	27,00
-1310,70	116,00
-1302,01	93,00
-1293,32	266,00
-1284,65	165,00
-1275,99	82,00
-1267,33	46,00
-1258,69	157,00
-1250,06	288,00
-1241,45	188,00
-1232,84	229,00
-1224,25	34,00
-1215,66	121,00
-1207,09	93,00
-1198,53	-10,00
-1189,97	138,00
-1181,43	238,00
-1172,91	86,00
-1164,39	139,00
-1155,88	220,00
-1147,38	91,00
-1138,90	180,00
-1130,43	133,00
-1121,96	93,00
-1113,51	87,00
-1105,07	128,00
-1096,64	106,00
-1088,22	171,00
-1079,81	196,00
-1071,41	216,00
-1063,02	46,00
-1054,65	110,00
-1046,28	224,00
-1037,92	208,00
-1029,58	127,00
-1021,24	161,00
-1012,92	204,00
-1004,61	196,00
-996,30	143,00
-988,01	90,00
-979,73	253,00
-971,46	97,00
-963,20	166,00
-954,95	98,00
-946,71	11,00
-938,48	143,00
-930,26	51,00
-922,06	88,00
-913,86	247,00
-905,67	183,00
-897,49	156,00
-889,33	169,00
-881,17	245,00
-873,02	95,00
-864,89	49,00
-856,76	63,00
-848,65	198,00
-840,54	49,00
-832,45	265,00
-824,36	64,00
-816,29	143,00
-808,22	74,00
-800,17	216,00
-792,12	63,00
-784,09	224,00
-776,06	43,00
-768,05	90,00
-760,04	187,00
-752,05	129,00
-744,07	236,00
-736,09	76,00
-728,13	156,00
-720,17	175,00
-712,23	167,00
-704,29	84,00
-696,37	84,00
-688,45	118,00
-680,55	53,00
-672,65	273,00
-664,77	151,00
-656,89	152,00
-649,03	121,00
-641,17	8,00
-633,32	184,00
-625,49	157,00
-617,66	102,00
-609,84	165,00
-602,03	71,00
-594,23	236,00
-586,45	140,00
-578,67	223,00
-570,90	141,00
-563,14	131,00
-555,39	245,00
-547,65	112,00
-539,91	135,00
-532,19	265,00
-524,48	119,00
-516,78	114,00
-509,08	122,00
-501,40	71,00
-493,72	70,00
-486,06	72,00
-478,40	158,00
-470,76	109,00
-463,12	80,00
-455,49	187,00
-447,87	134,00
-440,26	181,00
-432,66	121,00
-425,07	124,00
-417,49	100,00
-409,92	251,00
-402,35	35,00
-394,80	215,00
-387,25	64,00
-379,72	197,00
-372,19	336,00
-364,67	285,00
-357,17	34,00
-349,67	115,00
-342,18	268,00
-334,69	260,00
-327,22	74,00
-319,76	111,00
-312,30	158,00
-304,86	186,00
-297,42	211,00
-290,00	228,00
-282,58	138,00
-275,17	109,00
-267,77	185,00
-260,37	138,00
-252,99	233,00
-245,62	86,00
-238,25	272,00
-230,90	125,00
-223,55	355,00
-216,21	305,00
-208,88	194,00
-201,56	331,00
-194,25	275,00
-186,94	171,00
-179,65	306,00
-172,36	418,00
-165,08	243,00
-157,81	367,00
-150,55	210,00
-143,30	355,00
-136,06	420,00
-128,82	328,00
-121,60	520,00
-114,38	377,00
-107,17	380,00
-99,97	439,00
-92,78	625,00
-85,60	593,00
-78,42	782,00
-71,25	834,00
-64,10	1019,00
-56,95	1123,00
-49,81	1292,00
-42,67	1515,00
-35,55	2004,00
-28,43	2488,00
-21,33	4574,00
-14,23	15438,00
-7,14	47266,00
-0,05	38051,00
7,02	42597,00
14,09	40322,00
21,14	10806,00
28,19	4811,00
35,23	3256,00
42,27	2357,00
49,29	2171,00
56,31	1653,00
63,32	1390,00
70,32	1272,00
77,31	1004,00
84,29	997,00
91,27	703,00
98,23	712,00
105,19	776,00
112,14	761,00
119,09	1104,00
126,02	1438,00
132,95	1564,00
139,87	1589,00
146,78	1521,00
153,68	1386,00
160,58	1478,00
167,46	1480,00
174,34	1497,00
181,21	1373,00
188,08	1389,00
194,93	1480,00
201,78	1477,00
208,62	1412,00
215,45	1448,00
222,27	1395,00
229,09	1414,00
235,90	1494,00
242,70	1304,00
249,49	1288,00
256,27	1350,00
263,05	1193,00
269,82	1246,00
276,58	1311,00
283,33	1107,00
290,08	1374,00
296,82	1179,00
303,55	1118,00
310,27	1272,00
316,98	1149,00
323,69	1288,00
330,39	1190,00
337,08	1148,00
343,76	1067,00
350,44	1082,00
357,11	1122,00
363,77	1163,00
370,42	1107,00
377,07	1068,00
383,71	1113,00
390,34	1071,00
396,96	1147,00
403,58	1045,00
410,19	1102,00
416,79	1037,00
423,38	1123,00
429,97	1185,00
436,55	1034,00
443,12	1047,00
449,68	1064,00
456,24	1059,00
462,79	949,00
469,33	864,00
475,86	957,00
482,39	985,00
488,91	1012,00
495,42	824,00
501,93	1001,00
508,42	1028,00
514,91	989,00
521,40	1029,00
527,87	920,00
534,34	897,00
540,80	952,00
547,25	881,00
553,70	846,00
560,14	927,00
566,57	869,00
573,00	853,00
579,41	882,00
585,83	903,00
592,23	949,00
598,62	859,00
605,01	786,00
611,40	894,00
617,77	870,00
624,14	883,00
630,50	992,00
636,85	810,00
643,20	844,00
649,54	811,00
655,87	934,00
662,20	924,00
668,52	855,00
674,83	790,00
681,13	930,00
687,43	929,00
693,72	853,00
700,00	841,00
706,28	912,00
712,55	935,00
718,81	796,00
725,07	800,00
731,32	765,00
737,56	948,00
743,79	896,00
750,02	867,00
756,24	874,00
762,46	820,00
768,67	1003,00
774,87	824,00
781,06	949,00
787,25	900,00
793,43	819,00
799,60	881,00
805,77	835,00
811,93	851,00
818,08	867,00
824,23	828,00
830,37	870,00
836,50	832,00
842,63	799,00
848,75	826,00
854,87	856,00
860,97	825,00
867,07	1041,00
873,17	976,00
879,25	837,00
885,33	795,00
891,41	828,00
897,47	847,00
903,53	789,00
909,59	791,00
915,63	928,00
921,67	870,00
927,71	696,00
933,74	942,00
939,76	896,00
945,77	851,00
951,78	932,00
957,78	752,00
963,78	761,00
969,77	703,00
975,75	872,00
981,72	846,00
987,69	1008,00
993,66	761,00
999,61	834,00
1005,56	959,00
1011,51	731,00
1017,44	794,00
1023,37	836,00
1029,30	880,00
1035,22	810,00
1041,13	879,00
1047,03	879,00
1052,93	1100,00
1058,83	1555,00
1064,71	1645,00
1070,59	1382,00
1076,47	1032,00
1082,33	1039,00
1088,20	968,00
1094,05	1017,00
1099,90	803,00
1105,74	944,00
1111,58	907,00
1117,41	1078,00
1123,23	1377,00
1129,05	1788,00
1134,86	1562,00
1140,67	1182,00
1146,47	1075,00
1152,26	887,00
1158,05	792,00
1163,83	876,00
1169,60	974,00
1175,37	965,00
1181,13	783,00
1186,89	806,00
1192,64	838,00
1198,38	847,00
1204,12	782,00
1209,85	843,00
1215,58	786,00
1221,30	827,00
1227,02	869,00
1232,72	712,00
1238,43	845,00
1244,12	904,00
1249,81	806,00
1255,50	798,00
1261,17	947,00
1266,85	818,00
1272,51	968,00
1278,17	1016,00
1283,83	1149,00
1289,47	1705,00
1295,12	2035,00
1300,75	1879,00
1306,38	1440,00
1312,01	1164,00
1317,63	1028,00
1323,24	1079,00
1328,85	1059,00
1334,45	882,00
1340,04	832,00
1345,63	946,00
1351,22	943,00
1356,80	944,00
1362,37	1037,00
1367,93	1164,00
1373,49	962,00
1379,05	1027,00
1384,60	1019,00
1390,14	1036,00
1395,68	967,00
1401,21	869,00
1406,74	1078,00
1412,26	1449,00
1417,77	1429,00
1423,28	1490,00
1428,78	1492,00
1434,28	1783,00
1439,77	2208,00
1445,26	1958,00
1450,74	1971,00
1456,22	1686,00
1461,68	1711,00
1467,15	1494,00
1472,61	1367,00
1478,06	1269,00
1483,51	1069,00
1488,95	991,00
1494,38	847,00
1499,81	857,00
1505,24	676,00
1510,65	818,00
1516,07	905,00
1521,48	704,00
1526,88	784,00
1532,27	773,00
1537,67	835,00
1543,05	818,00
1548,43	692,00
1553,81	763,00
1559,18	791,00
1564,54	733,00
1569,90	841,00
1575,25	726,00
1580,60	875,00
1585,94	759,00
1591,28	680,00
1596,61	713,00
1601,93	678,00
1607,25	645,00
1612,57	727,00
1617,88	781,00
1623,18	817,00
1628,48	775,00
1633,77	786,00
1639,06	816,00
1644,34	870,00
1649,62	600,00
1654,89	706,00
1660,16	601,00
1665,42	640,00
1670,67	791,00
1675,92	649,00
1681,17	739,00
1686,41	651,00
1691,64	709,00
1696,87	628,00
1702,10	667,00
1707,32	607,00
1712,53	752,00
1717,74	745,00
1722,94	629,00
1728,14	684,00
1733,33	639,00
1738,52	755,00
1743,70	615,00
1748,88	660,00
1754,05	696,00
1759,22	663,00
1764,38	-1112,00
1769,53	653,00
1774,69	641,00
1779,83	660,00
1784,97	596,00
1790,11	637,00
1795,24	487,00
1800,36	741,00
1805,48	595,00
1810,60	639,00
1815,71	624,00
1820,82	807,00
1825,92	605,00
1831,01	715,00
1836,10	654,00
1841,19	726,00
1846,26	562,00
1851,34	572,00
1856,41	585,00
1861,47	564,00
1866,53	613,00
1871,59	561,00
1876,64	640,00
1881,68	509,00
1886,72	621,00
1891,76	481,00
1896,79	650,00
1901,81	592,00
1906,83	528,00
1911,85	548,00
1916,86	582,00
1921,86	617,00
1926,86	545,00
1931,86	638,00
1936,85	572,00
1941,83	469,00
1946,81	668,00
1951,79	675,00
1956,76	430,00
1961,72	651,00
1966,68	507,00
1971,64	582,00
1976,59	654,00
1981,54	510,00
1986,48	568,00
1991,42	515,00
1996,35	612,00
2001,27	411,00
2006,20	662,00
2011,11	633,00
2016,03	434,00
2020,93	664,00
2025,84	436,00
2030,73	442,00
2035,63	533,00
2040,52	559,00
2045,40	456,00
2050,28	426,00
2055,15	450,00
2060,02	526,00
2064,89	493,00
2069,75	522,00
2074,60	574,00
2079,46	480,00
2084,30	557,00
2089,14	543,00
2093,98	523,00
2098,81	515,00
2103,64	526,00
2108,46	484,00
2113,28	504,00
2118,09	499,00
2122,90	447,00
2127,70	535,00
2132,50	530,00
2137,30	550,00
2142,09	559,00
2146,87	485,00
2151,66	529,00
2156,43	570,00
2161,20	593,00
2165,97	497,00
2170,73	488,00
2175,49	617,00
2180,24	492,00
2184,99	489,00
2189,74	515,00
2194,48	574,00
2199,21	572,00
2203,94	442,00
2208,67	445,00
2213,39	413,00
2218,11	355,00
2222,82	505,00
2227,53	469,00
2232,23	582,00
2236,93	463,00
2241,63	599,00
2246,32	580,00
2251,00	365,00
2255,68	510,00
2260,36	524,00
2265,03	548,00
2269,70	485,00
2274,36	566,00
2279,02	427,00
2283,68	476,00
2288,33	475,00
2292,97	450,00
2297,61	459,00
2302,25	469,00
2306,88	408,00
2311,51	520,00
2316,14	436,00
2320,75	542,00
2325,37	368,00
2329,98	468,00
2334,59	446,00
2339,19	456,00
2343,79	299,00
2348,38	528,00
2352,97	394,00
2357,55	587,00
2362,13	515,00
2366,71	425,00
2371,28	410,00
2375,85	383,00
2380,41	584,00
2384,97	459,00
2389,52	440,00
2394,07	395,00
2398,62	367,00
2403,16	450,00
2407,70	392,00
2412,23	453,00
2416,76	415,00
2421,29	352,00
2425,81	481,00
2430,32	447,00
2434,84	348,00
2439,34	495,00
2443,85	456,00
2448,35	484,00
2452,84	356,00
2457,33	425,00
2461,82	413,00
2466,30	411,00
2470,78	532,00
2475,25	416,00
2479,72	407,00
2484,19	427,00
2488,65	460,00
2493,11	347,00
2497,56	396,00
2502,01	447,00
2506,46	410,00
2510,90	419,00
2515,34	296,00
2519,77	484,00
2524,20	427,00
2528,62	545,00
2533,04	505,00
2537,46	448,00
2541,87	395,00
2546,28	343,00
2550,68	337,00
2555,08	369,00
2559,48	350,00
2563,87	428,00
2568,26	285,00
2572,64	302,00
2577,02	384,00
2581,40	404,00
2585,77	534,00
2590,14	409,00
2594,50	443,00
2598,86	486,00
2603,22	379,00
2607,57	409,00
2611,92	427,00
2616,26	430,00
2620,60	396,00
2624,94	397,00
2629,27	498,00
2633,60	361,00
2637,92	372,00
2642,24	494,00
2646,56	484,00
2650,87	372,00
2655,18	396,00
2659,48	283,00
2663,78	380,00
2668,08	421,00
2672,37	496,00
2676,66	448,00
2680,95	447,00
2685,23	403,00
2689,50	453,00
2693,78	320,00
2698,05	512,00
2702,31	474,00
2706,57	405,00
2710,83	382,00
2715,08	421,00
2719,33	574,00
2723,58	470,00
2727,82	368,00
2732,06	587,00
2736,29	573,00
2740,53	684,00
2744,75	485,00
2748,97	472,00
2753,19	516,00
2757,41	465,00
2761,62	399,00
2765,83	413,00
2770,03	511,00
2774,23	489,00
2778,43	559,00
2782,62	585,00
2786,81	470,00
2791,00	536,00
2795,18	628,00
2799,35	545,00
2803,53	659,00
2807,70	678,00
2811,86	548,00
2816,03	536,00
2820,19	633,00
2824,34	679,00
2828,49	625,00
2832,64	964,00
2836,78	1066,00
2840,92	1406,00
2845,06	1677,00
2849,19	1799,00
2853,32	1954,00
2857,45	1945,00
2861,57	1821,00
2865,69	1744,00
2869,80	1684,00
2873,91	1742,00
2878,02	1833,00
2882,12	2036,00
2886,22	2117,00
2890,32	1811,00
2894,41	1676,00
2898,50	1504,00
2902,58	1405,00
2906,67	1447,00
2910,74	1287,00
2914,82	1257,00
2918,89	1066,00
2922,96	1134,00
2927,02	1002,00
2931,08	1001,00
2935,13	890,00
2939,19	908,00
2943,24	718,00
2947,28	699,00
2951,32	690,00
2955,36	555,00
2959,40	489,00
2963,43	455,00
2967,46	540,00
2971,48	353,00
2975,50	531,00
2979,52	369,00
2983,53	431,00
2987,54	429,00
2991,55	415,00
2995,55	352,00
2999,55	316,00
3003,54	392,00
3007,54	295,00
3011,53	312,00
3015,51	336,00
3019,49	277,00
3023,47	231,00
3027,45	336,00
3031,42	361,00
3035,39	261,00
3039,35	251,00
3043,31	383,00
3047,27	304,00
3051,22	356,00
3055,17	280,00
3059,12	269,00
3063,06	346,00
3067,00	251,00
3070,94	328,00
3074,87	266,00
3078,80	264,00
3082,73	358,00
3086,65	116,00
3090,57	213,00
3094,49	219,00
3098,40	337,00
3102,31	313,00
3106,22	278,00
3110,12	384,00
3114,02	274,00
3117,92	265,00
3121,81	348,00
3125,70	191,00
3129,58	264,00
3133,47	153,00
3137,34	272,00
3141,22	243,00
3145,09	256,00
3148,96	213,00
3152,83	381,00
3156,69	256,00
3160,55	341,00
3164,40	256,00
3168,26	263,00
3172,10	280,00
3175,95	220,00
3179,79	163,00
3183,63	161,00
3187,47	310,00
3191,30	277,00
3195,13	229,00
3198,95	171,00
3202,78	256,00
3206,60	246,00
3210,41	288,00
3214,23	202,00
3218,03	305,00
3221,84	144,00
3225,64	245,00
3229,44	276,00
3233,24	110,00
3237,03	232,00
3240,82	239,00
3244,61	95,00
3248,39	157,00
3252,17	233,00
3255,95	208,00
3259,72	311,00
3263,49	178,00
3267,26	265,00
3271,03	233,00
3274,79	162,00
3278,54	107,00
3282,30	251,00
3286,05	163,00
3289,80	107,00
3293,54	118,00
3297,29	334,00
3301,02	204,00
3304,76	146,00
3308,49	80,00
3312,22	208,00
3315,95	130,00
3319,67	291,00
3323,39	297,00
3327,10	225,00
3330,82	260,00
3334,53	122,00
3338,24	255,00
3341,94	275,00
3345,64	100,00
3349,34	104,00
3353,03	261,00
3356,72	251,00
3360,41	215,00
3364,10	213,00
3367,78	144,00
3371,46	226,00
3375,13	249,00
3378,81	197,00
3382,48	94,00
3386,14	85,00
3389,81	270,00
3393,47	249,00
3397,12	112,00
3400,78	158,00
3404,43	273,00
3408,08	198,00
3411,72	196,00
3415,36	152,00
3419,00	252,00
3422,64	263,00
3426,27	164,00
3429,90	155,00
3433,53	170,00
3437,15	127,00
3440,77	208,00
3444,39	209,00
3448,00	24,00
3451,62	174,00
3455,22	183,00
3458,83	164,00
3462,43	151,00
3466,03	77,00
3469,63	237,00
3473,22	183,00
3476,81	178,00
3480,40	150,00
3483,99	92,00
3487,57	126,00
3491,15	202,00
3494,72	133,00
3498,29	167,00
3501,86	195,00
3505,43	72,00
3508,99	111,00
3512,56	208,00
3516,11	216,00
3519,67	143,00
3523,22	87,00
3526,77	45,00
3530,32	198,00
3533,86	198,00
3537,40	116,00
3540,94	151,00
3544,47	156,00
3548,00	247,00
3551,53	163,00
3555,06	49,00
3558,58	140,00
3562,10	116,00
3565,62	367,00
3569,13	99,00
3572,64	174,00
3576,15	119,00
3579,66	149,00
3583,16	60,00
3586,66	85,00
3590,16	118,00
3593,65	174,00
3597,14	42,00
3600,63	175,00
3604,11	269,00
3607,60	128,00
3611,08	269,00
3614,55	63,00
3618,03	155,00
3621,50	165,00
3624,97	197,00
3628,43	92,00
3631,90	138,00
3635,36	142,00
3638,81	95,00
3642,27	168,00
3645,72	228,00
3649,17	78,00
3652,61	122,00
3656,06	160,00
3659,50	114,00
3662,93	167,00
3666,37	60,00
3669,80	91,00
3673,23	303,00
3676,65	217,00
3680,08	94,00
3683,50	76,00
3686,92	150,00
3690,33	61,00
3693,74	211,00
3697,15	194,00
3700,56	144,00
3703,96	51,00
3707,36	141,00
3710,76	26,00
3714,16	160,00
3717,55	76,00
3720,94	159,00
3724,33	138,00
3727,71	26,00
3731,10	114,00
3734,48	78,00
3737,85	121,00
3741,23	60,00
3744,60	125,00
3747,97	149,00
3751,33	148,00
3754,69	93,00
3758,05	155,00
3761,41	80,00
3764,77	160,00
3768,12	156,00
3771,47	93,00
3774,82	98,00
3778,16	-6,00
3781,50	-4,00
3784,84	3,00
3788,18	7,00
>>>>>End Processed Spectral Data<<<<<
