SpectraSuite Data File
++++++++++++++++++++++++++++++++++++
Date: Tue Mar 03 12:31:19 ICT 2026
User: user
Dark Spectrum Present: Yes
Reference Spectrum Present: No
Number of Sampled Component Spectra: 1
Spectrometers: MAYP113682
Integration Time (usec): 3000000 (MAYP113682)
Spectra Averaged: 1 (MAYP113682)
Boxcar Smoothing: 0 (MAYP113682)
Correct for Electrical Dark: No (MAYP113682)
Strobe/Lamp Enabled: No (MAYP113682)
Correct for Detector Non-linearity: No (MAYP113682)
Correct for Stray Light: No (MAYP113682)
Number of Pixels in Processed Spectrum: 2068
>>>>>Begin Processed Spectral Data<<<<<
-37534,58	1,00
-37414,56	2,00
-37295,11	2,00
-37176,24	-4,00
-37057,95	-10,00
-36940,22	13,00
-36823,05	85,00
-36706,45	18,00
-36590,40	98,00
-36474,90	114,00
-36359,95	4,00
-36245,55	157,00
-36131,68	79,00
-36018,35	72,00
-35905,55	131,00
-35793,29	93,00
-35681,54	26,00
-35570,32	-72,00
-35459,62	-24,00
-35349,43	28,00
-35239,75	219,00
-35130,58	84,00
-35021,91	84,00
-34913,74	194,00
-34806,07	111,00
-34698,89	29,00
-34592,20	-52,00
-34486,00	132,00
-34380,28	40,00
-34275,04	32,00
-34170,27	51,00
-34065,98	1,00
-33962,16	7,00
-33858,81	147,00
-33755,92	74,00
-33653,49	25,00
-33551,52	66,00
-33450,01	-25,00
-33348,94	107,00
-33248,33	-25,00
-33148,16	75,00
-33048,43	89,00
-32949,14	-14,00
-32850,29	98,00
-32751,87	5,00
-32653,89	204,00
-32556,33	69,00
-32459,20	69,00
-32362,49	8,00
-32266,19	7,00
-32170,32	138,00
-32074,86	64,00
-31979,82	8,00
-31885,18	-114,00
-31790,95	-24,00
-31697,12	100,00
-31603,69	-18,00
-31510,67	52,00
-31418,04	93,00
-31325,80	85,00
-31233,95	112,00
-31142,49	176,00
-31051,42	38,00
-30960,73	-47,00
-30870,43	84,00
-30780,50	136,00
-30690,95	100,00
-30601,77	38,00
-30512,97	46,00
-30424,53	99,00
-30336,46	-7,00
-30248,76	93,00
-30161,42	98,00
-30074,44	123,00
-29987,81	79,00
-29901,55	46,00
-29815,63	76,00
-29730,07	-22,00
-29644,86	159,00
-29560,00	198,00
-29475,48	9,00
-29391,30	6,00
-29307,47	136,00
-29223,97	-32,00
-29140,81	-151,00
-29057,99	45,00
-28975,50	125,00
-28893,34	44,00
-28811,51	73,00
-28730,00	171,00
-28648,82	12,00
-28567,97	-64,00
-28487,43	-13,00
-28407,21	18,00
-28327,32	-79,00
-28247,73	-7,00
-28168,46	54,00
-28089,50	102,00
-28010,85	-116,00
-27932,51	68,00
-27854,48	-23,00
-27776,75	-42,00
-27699,32	40,00
-27622,19	208,00
-27545,37	138,00
-27468,84	-44,00
-27392,60	-6,00
-27316,66	-81,00
-27241,01	1,00
-27165,66	19,00
-27090,59	28,00
-27015,81	171,00
-26941,31	86,00
-26867,10	56,00
-26793,17	92,00
-26719,52	-78,00
-26646,15	61,00
-26573,06	141,00
-26500,24	97,00
-26427,70	130,00
-26355,43	123,00
-26283,43	45,00
-26211,71	145,00
-26140,25	47,00
-26069,06	128,00
-25998,13	-86,00
-25927,46	-74,00
-25857,06	32,00
-25786,92	142,00
-25717,04	-49,00
-25647,42	-16,00
-25578,05	-23,00
-25508,94	-22,00
-25440,09	35,00
-25371,48	60,00
-25303,13	91,00
-25235,02	33,00
-25167,17	-38,00
-25099,56	58,00
-25032,19	62,00
-24965,07	-26,00
-24898,20	-3,00
-24831,56	70,00
-24765,17	106,00
-24699,01	162,00
-24633,10	40,00
-24567,41	-63,00
-24501,97	75,00
-24436,75	-30,00
-24371,77	147,00
-24307,03	-77,00
-24242,51	31,00
-24178,22	74,00
-24114,16	75,00
-24050,32	-57,00
-23986,71	74,00
-23923,32	144,00
-23860,16	-18,00
-23797,22	91,00
-23734,50	10,00
-23672,00	12,00
-23609,71	242,00
-23547,65	46,00
-23485,80	62,00
-23424,16	52,00
-23362,74	135,00
-23301,53	-10,00
-23240,54	-35,00
-23179,75	61,00
-23119,17	8,00
-23058,80	214,00
-22998,64	29,00
-22938,68	82,00
-22878,93	-20,00
-22819,39	-6,00
-22760,04	-76,00
-22700,90	19,00
-22641,96	52,00
-22583,22	63,00
-22524,68	106,00
-22466,33	-22,00
-22408,19	2,00
-22350,23	72,00
-22292,48	78,00
-22234,92	44,00
-22177,55	114,00
-22120,37	42,00
-22063,38	22,00
-22006,58	129,00
-21949,98	46,00
-21893,56	147,00
-21837,33	66,00
-21781,28	76,00
-21725,42	5,00
-21669,74	35,00
-21614,25	214,00
-21558,94	0,00
-21503,81	137,00
-21448,86	-23,00
-21394,10	21,00
-21339,51	194,00
-21285,10	-49,00
-21230,86	-8,00
-21176,81	54,00
-21122,93	109,00
-21069,22	173,00
-21015,69	19,00
-20962,33	143,00
-20909,14	13,00
-20856,13	88,00
-20803,28	21,00
-20750,61	75,00
-20698,10	83,00
-20645,76	46,00
-20593,59	196,00
-20541,59	108,00
-20489,75	-21,00
-20438,07	96,00
-20386,56	45,00
-20335,22	133,00
-20284,03	101,00
-20233,01	-13,00
-20182,15	-18,00
-20131,45	112,00
-20080,91	-50,00
-20030,52	105,00
-19980,30	-11,00
-19930,23	15,00
-19880,32	-122,00
-19830,56	155,00
-19780,96	91,00
-19731,52	-2,00
-19682,23	-126,00
-19633,09	27,00
-19584,10	159,00
-19535,26	179,00
-19486,58	57,00
-19438,04	-14,00
-19389,66	15,00
-19341,42	-25,00
-19293,33	-77,00
-19245,39	12,00
-19197,60	69,00
-19149,95	158,00
-19102,45	63,00
-19055,09	29,00
-19007,87	47,00
-18960,80	60,00
-18913,87	-3,00
-18867,09	7,00
-18820,44	95,00
-18773,94	112,00
-18727,57	-18,00
-18681,35	33,00
-18635,26	32,00
-18589,31	27,00
-18543,50	119,00
-18497,83	-88,00
-18452,29	61,00
-18406,89	64,00
-18361,63	9,00
-18316,50	0,00
-18271,50	16,00
-18226,63	117,00
-18181,90	140,00
-18137,30	52,00
-18092,84	8,00
-18048,50	147,00
-18004,29	36,00
-17960,22	158,00
-17916,27	-9,00
-17872,45	86,00
-17828,76	12,00
-17785,20	-48,00
-17741,77	75,00
-17698,46	57,00
-17655,28	91,00
-17612,22	-46,00
-17569,29	71,00
-17526,48	75,00
-17483,79	-81,00
-17441,23	-80,00
-17398,79	129,00
-17356,48	73,00
-17314,28	115,00
-17272,21	52,00
-17230,26	4,00
-17188,42	164,00
-17146,71	256,00
-17105,12	59,00
-17063,64	75,00
-17022,28	13,00
-16981,04	33,00
-16939,92	83,00
-16898,91	-10,00
-16858,02	39,00
-16817,25	107,00
-16776,59	126,00
-16736,04	50,00
-16695,61	44,00
-16655,29	107,00
-16615,09	-28,00
-16574,99	13,00
-16535,01	64,00
-16495,15	49,00
-16455,39	38,00
-16415,74	49,00
-16376,21	-18,00
-16336,78	-2,00
-16297,46	-5,00
-16258,26	85,00
-16219,16	9,00
-16180,17	115,00
-16141,28	26,00
-16102,51	-29,00
-16063,84	-1,00
-16025,27	77,00
-15986,82	59,00
-15948,46	-93,00
-15910,22	75,00
-15872,07	45,00
-15834,04	59,00
-15796,10	24,00
-15758,27	149,00
-15720,54	-6,00
-15682,91	183,00
-15645,39	22,00
-15607,97	49,00
-15570,64	-34,00
-15533,42	40,00
-15496,30	64,00
-15459,28	72,00
-15422,36	41,00
-15385,54	37,00
-15348,82	183,00
-15312,19	-94,00
-15275,66	41,00
-15239,23	-43,00
-15202,90	85,00
-15166,67	67,00
-15130,53	-91,00
-15094,48	53,00
-15058,54	121,00
-15022,68	29,00
-14986,93	89,00
-14951,26	129,00
-14915,69	-67,00
-14880,22	11,00
-14844,84	-99,00
-14809,55	-55,00
-14774,35	-72,00
-14739,25	196,00
-14704,24	77,00
-14669,32	41,00
-14634,49	152,00
-14599,75	-5,00
-14565,10	171,00
-14530,55	42,00
-14496,08	143,00
-14461,70	95,00
-14427,41	66,00
-14393,21	65,00
-14359,10	-51,00
-14325,07	143,00
-14291,14	65,00
-14257,29	90,00
-14223,52	188,00
-14189,85	11,00
-14156,26	-26,00
-14122,76	-23,00
-14089,34	-2,00
-14056,01	16,00
-14022,76	38,00
-13989,60	8,00
-13956,52	43,00
-13923,53	45,00
-13890,62	0,00
-13857,79	130,00
-13825,05	72,00
-13792,39	59,00
-13759,81	144,00
-13727,31	-51,00
-13694,90	-26,00
-13662,57	159,00
-13630,31	26,00
-13598,14	62,00
-13566,05	54,00
-13534,05	9,00
-13502,12	156,00
-13470,27	14,00
-13438,50	-59,00
-13406,80	126,00
-13375,19	-77,00
-13343,66	61,00
-13312,20	-2,00
-13280,83	134,00
-13249,53	33,00
-13218,30	32,00
-13187,16	-24,00
-13156,09	-55,00
-13125,10	96,00
-13094,18	209,00
-13063,34	-155,00
-13032,58	40,00
-13001,89	-60,00
-12971,28	-23,00
-12940,74	51,00
-12910,27	16,00
-12879,88	-50,00
-12849,57	-23,00
-12819,33	65,00
-12789,16	-24,00
-12759,06	83,00
-12729,04	14,00
-12699,09	80,00
-12669,21	125,00
-12639,41	-85,00
-12609,68	52,00
-12580,02	-71,00
-12550,43	21,00
-12520,91	26,00
-12491,46	-20,00
-12462,08	44,00
-12432,77	-24,00
-12403,54	3,00
-12374,37	59,00
-12345,27	-76,00
-12316,24	53,00
-12287,29	99,00
-12258,40	57,00
-12229,57	158,00
-12200,82	17,00
-12172,14	32,00
-12143,52	6,00
-12114,97	20,00
-12086,49	-44,00
-12058,07	22,00
-12029,73	-95,00
-12001,44	27,00
-11973,23	4,00
-11945,08	47,00
-11917,00	7,00
-11888,98	147,00
-11861,03	72,00
-11833,15	85,00
-11805,32	-28,00
-11777,57	19,00
-11749,88	117,00
-11722,25	-33,00
-11694,69	84,00
-11667,19	-22,00
-11639,75	-68,00
-11612,38	93,00
-11585,07	110,00
-11557,83	22,00
-11530,65	11,00
-11503,53	189,00
-11476,47	27,00
-11449,48	26,00
-11422,54	141,00
-11395,67	-16,00
-11368,86	28,00
-11342,11	-64,00
-11315,43	62,00
-11288,80	108,00
-11262,23	115,00
-11235,73	105,00
-11209,28	89,00
-11182,90	-5,00
-11156,57	-149,00
-11130,31	108,00
-11104,10	113,00
-11077,96	89,00
-11051,87	92,00
-11025,84	57,00
-10999,87	141,00
-10973,96	69,00
-10948,11	52,00
-10922,31	41,00
-10896,58	147,00
-10870,90	0,00
-10845,28	62,00
-10819,71	-69,00
-10794,20	103,00
-10768,75	148,00
-10743,36	84,00
-10718,02	148,00
-10692,74	-77,00
-10667,52	70,00
-10642,35	84,00
-10617,24	152,00
-10592,18	190,00
-10567,18	226,00
-10542,23	135,00
-10517,34	164,00
-10492,51	136,00
-10467,72	229,00
-10443,00	161,00
-10418,32	176,00
-10393,70	128,00
-10369,14	213,00
-10344,63	285,00
-10320,17	249,00
-10295,77	148,00
-10271,42	210,00
-10247,12	250,00
-10222,88	344,00
-10198,68	418,00
-10174,54	368,00
-10150,46	431,00
-10126,42	352,00
-10102,44	445,00
-10078,51	442,00
-10054,63	568,00
-10030,80	416,00
-10007,03	392,00
-9983,30	512,00
-9959,63	574,00
-9936,01	477,00
-9912,44	614,00
-9888,92	586,00
-9865,44	566,00
-9842,02	609,00
-9818,65	643,00
-9795,33	656,00
-9772,06	686,00
-9748,84	682,00
-9725,67	723,00
-9702,55	1000,00
-9679,47	1260,00
-9656,45	1141,00
-9633,47	1270,00
-9610,55	1231,00
-9587,67	1385,00
-9564,84	1390,00
-9542,06	1436,00
-9519,32	1728,00
-9496,64	1855,00
-9474,00	2197,00
-9451,41	2057,00
-9428,87	2221,00
-9406,37	2049,00
-9383,92	1875,00
-9361,52	1773,00
-9339,17	1694,00
-9316,86	2093,00
-9294,60	2306,00
-9272,38	2478,00
-9250,21	2695,00
-9228,09	2923,00
-9206,01	2822,00
-9183,98	2395,00
-9162,00	2113,00
-9140,06	2008,00
-9118,16	1999,00
-9096,31	2224,00
-9074,51	2181,00
-9052,75	2027,00
-9031,04	2054,00
-9009,37	1737,00
-8987,74	1627,00
-8966,16	1403,00
-8944,63	1328,00
-8923,14	1077,00
-8901,69	1359,00
-8880,29	1405,00
-8858,93	1689,00
-8837,61	1744,00
-8816,34	2044,00
-8795,11	2052,00
-8773,92	2030,00
-8752,78	1625,00
-8731,68	1485,00
-8710,62	1597,00
-8689,61	1644,00
-8668,63	1776,00
-8647,70	1932,00
-8626,82	1932,00
-8605,97	1764,00
-8585,17	1718,00
-8564,41	1503,00
-8543,69	1429,00
-8523,01	1278,00
-8502,37	1417,00
-8481,78	1300,00
-8461,23	1462,00
-8440,71	1603,00
-8420,24	1707,00
-8399,81	1755,00
-8379,42	1881,00
-8359,08	1560,00
-8338,77	1358,00
-8318,50	1347,00
-8298,27	1260,00
-8278,09	1443,00
-8257,94	1359,00
-8237,83	1627,00
-8217,76	1621,00
-8197,74	1620,00
-8177,75	1690,00
-8157,80	1438,00
-8137,89	1322,00
-8118,02	1451,00
-8098,19	1224,00
-8078,40	1410,00
-8058,65	1425,00
-8038,93	1515,00
-8019,26	1396,00
-7999,62	1347,00
-7980,02	1434,00
-7960,46	1276,00
-7940,94	1330,00
-7921,46	1243,00
-7902,01	1201,00
-7882,60	1153,00
-7863,23	1199,00
-7843,90	1225,00
-7824,61	1334,00
-7805,35	1366,00
-7786,13	1389,00
-7766,95	1422,00
-7747,80	1143,00
-7728,69	1399,00
-7709,62	1318,00
-7690,59	1326,00
-7671,59	1445,00
-7652,63	1394,00
-7633,70	1517,00
-7614,81	1404,00
-7595,96	1230,00
-7577,15	1173,00
-7558,37	1107,00
-7539,62	1334,00
-7520,91	1435,00
-7502,24	1340,00
-7483,60	1400,00
-7465,00	1146,00
-7446,44	1061,00
-7427,91	1116,00
-7409,41	895,00
-7390,95	738,00
-7372,53	862,00
-7354,14	921,00
-7335,78	889,00
-7317,46	943,00
-7299,18	1154,00
-7280,92	1288,00
-7262,71	1233,00
-7244,52	1364,00
-7226,38	1309,00
-7208,26	1334,00
-7190,18	1236,00
-7172,14	1192,00
-7154,12	1223,00
-7136,15	1283,00
-7118,20	1370,00
-7100,29	1442,00
-7082,41	1442,00
-7064,57	1210,00
-7046,76	1221,00
-7028,98	1048,00
-7011,24	873,00
-6993,53	824,00
-6975,85	779,00
-6958,20	678,00
-6940,59	632,00
-6923,01	684,00
-6905,46	836,00
-6887,94	910,00
-6870,46	1048,00
-6853,01	1156,00
-6835,59	1270,00
-6818,21	1104,00
-6800,85	837,00
-6783,53	808,00
-6766,24	612,00
-6748,98	600,00
-6731,76	490,00
-6714,56	483,00
-6697,40	551,00
-6680,26	483,00
-6663,16	730,00
-6646,09	882,00
-6629,05	896,00
-6612,05	858,00
-6595,07	990,00
-6578,13	852,00
-6561,21	795,00
-6544,33	511,00
-6527,47	448,00
-6510,65	323,00
-6493,86	300,00
-6477,10	416,00
-6460,36	410,00
-6443,66	345,00
-6426,99	334,00
-6410,35	575,00
-6393,74	419,00
-6377,16	575,00
-6360,61	670,00
-6344,09	670,00
-6327,59	830,00
-6311,13	686,00
-6294,70	716,00
-6278,29	860,00
-6261,92	788,00
-6245,58	997,00
-6229,26	965,00
-6212,97	861,00
-6196,72	608,00
-6180,49	540,00
-6164,29	203,00
-6148,12	291,00
-6131,98	148,00
-6115,86	179,00
-6099,78	353,00
-6083,72	102,00
-6067,69	260,00
-6051,69	281,00
-6035,72	289,00
-6019,78	306,00
-6003,87	419,00
-5987,98	721,00
-5972,12	589,00
-5956,29	635,00
-5940,49	477,00
-5924,71	341,00
-5908,96	299,00
-5893,24	212,00
-5877,55	267,00
-5861,89	253,00
-5846,25	368,00
-5830,64	295,00
-5815,05	284,00
-5799,50	202,00
-5783,97	259,00
-5768,47	416,00
-5752,99	476,00
-5737,55	722,00
-5722,12	663,00
-5706,73	535,00
-5691,36	551,00
-5676,02	264,00
-5660,71	287,00
-5645,42	198,00
-5630,16	317,00
-5614,92	258,00
-5599,71	374,00
-5584,53	407,00
-5569,37	441,00
-5554,24	1376,00
-5539,14	405,00
-5524,06	340,00
-5509,01	330,00
-5493,98	415,00
-5478,98	311,00
-5464,00	326,00
-5449,05	412,00
-5434,13	238,00
-5419,23	175,00
-5404,36	285,00
-5389,51	396,00
-5374,69	577,00
-5359,89	777,00
-5345,12	749,00
-5330,37	738,00
-5315,65	419,00
-5300,95	494,00
-5286,28	304,00
-5271,63	284,00
-5257,01	489,00
-5242,41	441,00
-5227,84	428,00
-5213,29	309,00
-5198,76	13,00
-5184,26	196,00
-5169,79	214,00
-5155,33	321,00
-5140,91	350,00
-5126,51	523,00
-5112,13	468,00
-5097,77	357,00
-5083,44	290,00
-5069,13	180,00
-5054,85	268,00
-5040,59	322,00
-5026,36	278,00
-5012,15	497,00
-4997,96	445,00
-4983,80	278,00
-4969,66	185,00
-4955,54	311,00
-4941,44	284,00
-4927,37	506,00
-4913,33	656,00
-4899,30	702,00
-4885,30	598,00
-4871,33	411,00
-4857,37	233,00
-4843,44	95,00
-4829,53	258,00
-4815,65	329,00
-4801,79	269,00
-4787,95	284,00
-4774,13	251,00
-4760,34	260,00
-4746,56	85,00
-4732,82	181,00
-4719,09	241,00
-4705,38	460,00
-4691,70	669,00
-4678,04	578,00
-4664,41	333,00
-4650,79	328,00
-4637,20	227,00
-4623,63	229,00
-4610,08	333,00
-4596,56	379,00
-4583,05	289,00
-4569,57	369,00
-4556,11	1,00
-4542,67	164,00
-4529,25	162,00
-4515,86	392,00
-4502,49	457,00
-4489,13	398,00
-4475,80	411,00
-4462,49	243,00
-4449,21	241,00
-4435,94	217,00
-4422,70	222,00
-4409,47	315,00
-4396,27	339,00
-4383,09	229,00
-4369,93	72,00
-4356,79	205,00
-4343,67	187,00
-4330,58	311,00
-4317,50	243,00
-4304,45	435,00
-4291,41	97,00
-4278,40	152,00
-4265,41	68,00
-4252,44	238,00
-4239,49	290,00
-4226,55	289,00
-4213,65	154,00
-4200,76	172,00
-4187,89	24,00
-4175,04	165,00
-4162,21	158,00
-4149,40	99,00
-4136,61	-134,00
-4123,85	74,00
-4111,10	55,00
-4098,37	118,00
-4085,66	160,00
-4072,98	71,00
-4060,31	37,00
-4047,66	128,00
-4035,04	104,00
-4022,43	42,00
-4009,84	2,00
-3997,27	145,00
-3984,72	62,00
-3972,19	44,00
-3959,69	87,00
-3947,20	12,00
-3934,73	-38,00
-3922,27	80,00
-3909,84	37,00
-3897,43	-32,00
-3885,04	-44,00
-3872,67	193,00
-3860,31	67,00
-3847,98	16,00
-3835,66	-34,00
-3823,36	62,00
-3811,09	103,00
-3798,83	45,00
-3786,59	-5,00
-3774,37	-24,00
-3762,17	30,00
-3749,98	-50,00
-3737,82	145,00
-3725,67	162,00
-3713,55	29,00
-3701,44	178,00
-3689,35	208,00
-3677,28	-120,00
-3665,22	-16,00
-3653,19	70,00
-3641,17	42,00
-3629,18	109,00
-3617,20	24,00
-3605,24	-27,00
-3593,30	-76,00
-3581,37	142,00
-3569,47	123,00
-3557,58	72,00
-3545,71	68,00
-3533,86	-48,00
-3522,02	28,00
-3510,21	99,00
-3498,41	122,00
-3486,63	99,00
-3474,87	53,00
-3463,12	131,00
-3451,40	42,00
-3439,69	23,00
-3428,00	144,00
-3416,33	-30,00
-3404,67	31,00
-3393,03	105,00
-3381,41	69,00
-3369,81	0,00
-3358,22	5,00
-3346,66	13,00
-3335,10	-46,00
-3323,57	135,00
-3312,06	106,00
-3300,56	14,00
-3289,08	8,00
-3277,61	-30,00
-3266,16	0,00
-3254,73	-106,00
-3243,32	111,00
-3231,92	-8,00
-3220,55	51,00
-3209,18	92,00
-3197,84	88,00
-3186,51	1,00
-3175,20	-7,00
-3163,90	138,00
-3152,63	43,00
-3141,36	-16,00
-3130,12	-7,00
-3118,89	7,00
-3107,68	-54,00
-3096,49	108,00
-3085,31	5,00
-3074,15	106,00
-3063,00	14,00
-3051,87	46,00
-3040,76	-54,00
-3029,67	82,00
-3018,59	15,00
-3007,52	128,00
-2996,48	81,00
-2985,44	84,00
-2974,43	224,00
-2963,43	123,00
-2952,45	28,00
-2941,48	53,00
-2930,53	-11,00
-2919,60	14,00
-2908,68	140,00
-2897,78	57,00
-2886,89	64,00
-2876,02	-92,00
-2865,17	8,00
-2854,33	-31,00
-2843,50	-6,00
-2832,70	48,00
-2821,90	-5,00
-2811,13	-76,00
-2800,37	1,00
-2789,62	50,00
-2778,89	72,00
-2768,18	159,00
-2757,48	121,00
-2746,80	120,00
-2736,13	28,00
-2725,48	35,00
-2714,84	-94,00
-2704,22	97,00
-2693,61	65,00
-2683,02	72,00
-2672,45	-61,00
-2661,89	82,00
-2651,34	2,00
-2640,81	83,00
-2630,30	59,00
-2619,80	-35,00
-2609,31	0,00
-2598,84	86,00
-2588,39	66,00
-2577,95	-64,00
-2567,52	62,00
-2557,11	35,00
-2546,71	29,00
-2536,33	-10,00
-2525,97	9,00
-2515,62	55,00
-2505,28	-71,00
-2494,96	34,00
-2484,65	-109,00
-2474,36	-15,00
-2464,08	74,00
-2453,82	106,00
-2443,57	-48,00
-2433,33	37,00
-2423,11	21,00
-2412,91	45,00
-2402,72	96,00
-2392,54	51,00
-2382,38	60,00
-2372,23	72,00
-2362,09	16,00
-2351,97	75,00
-2341,87	8,00
-2331,78	-35,00
-2321,70	42,00
-2311,64	193,00
-2301,59	16,00
-2291,55	84,00
-2281,53	-12,00
-2271,53	86,00
-2261,53	9,00
-2251,55	-50,00
-2241,59	86,00
-2231,64	13,00
-2221,70	157,00
-2211,78	50,00
-2201,87	132,00
-2191,97	61,00
-2182,09	54,00
-2172,22	176,00
-2162,37	146,00
-2152,53	117,00
-2142,70	133,00
-2132,89	74,00
-2123,09	17,00
-2113,30	65,00
-2103,53	24,00
-2093,77	97,00
-2084,02	18,00
-2074,29	82,00
-2064,57	68,00
-2054,86	164,00
-2045,17	62,00
-2035,49	-19,00
-2025,82	107,00
-2016,17	23,00
-2006,53	-12,00
-1996,91	96,00
-1987,29	-37,00
-1977,69	165,00
-1968,11	42,00
-1958,53	25,00
-1948,97	-79,00
-1939,42	198,00
-1929,89	-7,00
-1920,37	73,00
-1910,86	-12,00
-1901,36	41,00
-1891,88	33,00
-1882,41	-8,00
-1872,95	133,00
-1863,51	-45,00
-1854,08	18,00
-1844,66	62,00
-1835,26	73,00
-1825,86	24,00
-1816,48	100,00
-1807,11	70,00
-1797,76	26,00
-1788,42	48,00
-1779,09	-4,00
-1769,77	94,00
-1760,47	105,00
-1751,17	-38,00
-1741,89	25,00
-1732,63	50,00
-1723,37	-137,00
-1714,13	-10,00
-1704,90	-28,00
-1695,68	173,00
-1686,48	57,00
-1677,29	81,00
-1668,11	104,00
-1658,94	-27,00
-1649,78	54,00
-1640,64	103,00
-1631,51	142,00
-1622,39	75,00
-1613,28	132,00
-1604,19	85,00
-1595,10	77,00
-1586,03	52,00
-1576,97	89,00
-1567,93	-4,00
-1558,89	24,00
-1549,87	98,00
-1540,86	91,00
-1531,86	30,00
-1522,87	-78,00
-1513,90	74,00
-1504,93	137,00
-1495,98	-116,00
-1487,04	63,00
-1478,12	106,00
-1469,20	75,00
-1460,30	185,00
-1451,40	92,00
-1442,52	-34,00
-1433,65	-88,00
-1424,80	154,00
-1415,95	164,00
-1407,12	148,00
-1398,30	-8,00
-1389,48	42,00
-1380,69	4,00
-1371,90	58,00
-1363,12	12,00
-1354,36	90,00
-1345,60	86,00
-1336,86	-63,00
-1328,13	58,00
-1319,41	35,00
-1310,70	32,00
-1302,01	6,00
-1293,32	121,00
-1284,65	129,00
-1275,99	68,00
-1267,33	47,00
-1258,69	-4,00
-1250,06	160,00
-1241,45	112,00
-1232,84	193,00
-1224,25	-41,00
-1215,66	73,00
-1207,09	-25,00
-1198,53	-12,00
-1189,97	48,00
-1181,43	22,00
-1172,91	8,00
-1164,39	-102,00
-1155,88	113,00
-1147,38	59,00
-1138,90	97,00
-1130,43	4,00
-1121,96	-3,00
-1113,51	104,00
-1105,07	-85,00
-1096,64	20,00
-1088,22	93,00
-1079,81	73,00
-1071,41	119,00
-1063,02	-2,00
-1054,65	151,00
-1046,28	38,00
-1037,92	39,00
-1029,58	22,00
-1021,24	70,00
-1012,92	237,00
-1004,61	149,00
-996,30	-9,00
-988,01	-10,00
-979,73	179,00
-971,46	-33,00
-963,20	137,00
-954,95	92,00
-946,71	-52,00
-938,48	31,00
-930,26	-150,00
-922,06	27,00
-913,86	175,00
-905,67	66,00
-897,49	74,00
-889,33	83,00
-881,17	85,00
-873,02	92,00
-864,89	-43,00
-856,76	25,00
-848,65	14,00
-840,54	61,00
-832,45	-19,00
-824,36	-56,00
-816,29	71,00
-808,22	19,00
-800,17	56,00
-792,12	-21,00
-784,09	117,00
-776,06	6,00
-768,05	20,00
-760,04	5,00
-752,05	44,00
-744,07	145,00
-736,09	130,00
-728,13	74,00
-720,17	83,00
-712,23	118,00
-704,29	-134,00
-696,37	-15,00
-688,45	27,00
-680,55	-52,00
-672,65	140,00
-664,77	40,00
-656,89	11,00
-649,03	117,00
-641,17	6,00
-633,32	32,00
-625,49	-1,00
-617,66	51,00
-609,84	-41,00
-602,03	35,00
-594,23	111,00
-586,45	22,00
-578,67	171,00
-570,90	-4,00
-563,14	78,00
-555,39	38,00
-547,65	-36,00
-539,91	54,00
-532,19	8,00
-524,48	92,00
-516,78	116,00
-509,08	72,00
-501,40	-1,00
-493,72	42,00
-486,06	76,00
-478,40	36,00
-470,76	82,00
-463,12	37,00
-455,49	77,00
-447,87	-42,00
-440,26	29,00
-432,66	-10,00
-425,07	74,00
-417,49	39,00
-409,92	-8,00
-402,35	62,00
-394,80	46,00
-387,25	92,00
-379,72	99,00
-372,19	109,00
-364,67	264,00
-357,17	-17,00
-349,67	54,00
-342,18	172,00
-334,69	183,00
-327,22	22,00
-319,76	51,00
-312,30	108,00
-304,86	5,00
-297,42	143,00
-290,00	110,00
-282,58	40,00
-275,17	193,00
-267,77	45,00
-260,37	141,00
-252,99	118,00
-245,62	12,00
-238,25	96,00
-230,90	100,00
-223,55	288,00
-216,21	202,00
-208,88	179,00
-201,56	211,00
-194,25	101,00
-186,94	207,00
-179,65	127,00
-172,36	278,00
-165,08	208,00
-157,81	161,00
-150,55	168,00
-143,30	283,00
-136,06	301,00
-128,82	241,00
-121,60	400,00
-114,38	307,00
-107,17	278,00
-99,97	353,00
-92,78	505,00
-85,60	563,00
-78,42	676,00
-71,25	678,00
-64,10	1010,00
-56,95	1137,00
-49,81	1135,00
-42,67	1475,00
-35,55	1909,00
-28,43	2519,00
-21,33	4683,00
-14,23	15546,00
-7,14	47266,00
-0,05	38051,00
7,02	42597,00
14,09	41262,00
21,14	10907,00
28,19	4817,00
35,23	3168,00
42,27	2356,00
49,29	2036,00
56,31	1591,00
63,32	1353,00
70,32	1187,00
77,31	957,00
84,29	813,00
91,27	702,00
98,23	648,00
105,19	648,00
112,14	736,00
119,09	1015,00
126,02	1540,00
132,95	1648,00
139,87	1628,00
146,78	1632,00
153,68	1560,00
160,58	1573,00
167,46	1600,00
174,34	1606,00
181,21	1533,00
188,08	1541,00
194,93	1472,00
201,78	1487,00
208,62	1534,00
215,45	1445,00
222,27	1460,00
229,09	1415,00
235,90	1533,00
242,70	1345,00
249,49	1402,00
256,27	1449,00
263,05	1287,00
269,82	1248,00
276,58	1374,00
283,33	1237,00
290,08	1403,00
296,82	1306,00
303,55	1198,00
310,27	1320,00
316,98	1185,00
323,69	1384,00
330,39	1269,00
337,08	1061,00
343,76	1290,00
350,44	1296,00
357,11	1086,00
363,77	1233,00
370,42	1180,00
377,07	1214,00
383,71	1251,00
390,34	1082,00
396,96	1157,00
403,58	1126,00
410,19	1198,00
416,79	1070,00
423,38	1146,00
429,97	1017,00
436,55	1146,00
443,12	1090,00
449,68	1102,00
456,24	1092,00
462,79	1006,00
469,33	897,00
475,86	1054,00
482,39	991,00
488,91	920,00
495,42	923,00
501,93	1084,00
508,42	1064,00
514,91	971,00
521,40	957,00
527,87	994,00
534,34	907,00
540,80	1038,00
547,25	852,00
553,70	977,00
560,14	860,00
566,57	845,00
573,00	914,00
579,41	934,00
585,83	951,00
592,23	964,00
598,62	866,00
605,01	832,00
611,40	927,00
617,77	903,00
624,14	879,00
630,50	929,00
636,85	748,00
643,20	844,00
649,54	912,00
655,87	918,00
662,20	896,00
668,52	881,00
674,83	784,00
681,13	921,00
687,43	923,00
693,72	840,00
700,00	898,00
706,28	915,00
712,55	883,00
718,81	948,00
725,07	933,00
731,32	839,00
737,56	980,00
743,79	899,00
750,02	1000,00
756,24	905,00
762,46	836,00
768,67	928,00
774,87	953,00
781,06	859,00
787,25	893,00
793,43	900,00
799,60	903,00
805,77	875,00
811,93	827,00
818,08	1002,00
824,23	937,00
830,37	779,00
836,50	830,00
842,63	898,00
848,75	911,00
854,87	923,00
860,97	904,00
867,07	1096,00
873,17	1018,00
879,25	834,00
885,33	967,00
891,41	811,00
897,47	816,00
903,53	843,00
909,59	883,00
915,63	968,00
921,67	827,00
927,71	766,00
933,74	755,00
939,76	849,00
945,77	733,00
951,78	955,00
957,78	750,00
963,78	800,00
969,77	759,00
975,75	832,00
981,72	793,00
987,69	970,00
993,66	921,00
999,61	763,00
1005,56	885,00
1011,51	832,00
1017,44	838,00
1023,37	838,00
1029,30	754,00
1035,22	916,00
1041,13	1101,00
1047,03	903,00
1052,93	1375,00
1058,83	1681,00
1064,71	1893,00
1070,59	1550,00
1076,47	1134,00
1082,33	1239,00
1088,20	1105,00
1094,05	964,00
1099,90	891,00
1105,74	881,00
1111,58	967,00
1117,41	1017,00
1123,23	1506,00
1129,05	1905,00
1134,86	1781,00
1140,67	1342,00
1146,47	1084,00
1152,26	929,00
1158,05	932,00
1163,83	827,00
1169,60	1006,00
1175,37	1012,00
1181,13	867,00
1186,89	822,00
1192,64	891,00
1198,38	775,00
1204,12	782,00
1209,85	698,00
1215,58	755,00
1221,30	784,00
1227,02	788,00
1232,72	739,00
1238,43	846,00
1244,12	835,00
1249,81	888,00
1255,50	860,00
1261,17	880,00
1266,85	977,00
1272,51	928,00
1278,17	1194,00
1283,83	1208,00
1289,47	1808,00
1295,12	2314,00
1300,75	2039,00
1306,38	1560,00
1312,01	1341,00
1317,63	1019,00
1323,24	1045,00
1328,85	1048,00
1334,45	984,00
1340,04	840,00
1345,63	1024,00
1351,22	959,00
1356,80	857,00
1362,37	1060,00
1367,93	1155,00
1373,49	1105,00
1379,05	1143,00
1384,60	986,00
1390,14	1129,00
1395,68	997,00
1401,21	973,00
1406,74	988,00
1412,26	1428,00
1417,77	1370,00
1423,28	1634,00
1428,78	1669,00
1434,28	2041,00
1439,77	2464,00
1445,26	2353,00
1450,74	2247,00
1456,22	1864,00
1461,68	1869,00
1467,15	1638,00
1472,61	1453,00
1478,06	1415,00
1483,51	1060,00
1488,95	1086,00
1494,38	878,00
1499,81	912,00
1505,24	792,00
1510,65	844,00
1516,07	904,00
1521,48	762,00
1526,88	833,00
1532,27	860,00
1537,67	897,00
1543,05	831,00
1548,43	828,00
1553,81	740,00
1559,18	879,00
1564,54	755,00
1569,90	786,00
1575,25	739,00
1580,60	845,00
1585,94	800,00
1591,28	664,00
1596,61	760,00
1601,93	683,00
1607,25	712,00
1612,57	663,00
1617,88	829,00
1623,18	670,00
1628,48	819,00
1633,77	724,00
1639,06	863,00
1644,34	811,00
1649,62	735,00
1654,89	681,00
1660,16	704,00
1665,42	680,00
1670,67	720,00
1675,92	690,00
1681,17	744,00
1686,41	639,00
1691,64	769,00
1696,87	678,00
1702,10	582,00
1707,32	462,00
1712,53	697,00
1717,74	644,00
1722,94	599,00
1728,14	695,00
1733,33	617,00
1738,52	763,00
1743,70	616,00
1748,88	657,00
1754,05	631,00
1759,22	578,00
1764,38	526,00
1769,53	572,00
1774,69	579,00
1779,83	620,00
1784,97	681,00
1790,11	564,00
1795,24	542,00
1800,36	679,00
1805,48	571,00
1810,60	679,00
1815,71	441,00
1820,82	632,00
1825,92	659,00
1831,01	649,00
1836,10	670,00
1841,19	628,00
1846,26	552,00
1851,34	656,00
1856,41	551,00
1861,47	560,00
1866,53	478,00
1871,59	487,00
1876,64	693,00
1881,68	516,00
1886,72	556,00
1891,76	545,00
1896,79	570,00
1901,81	537,00
1906,83	507,00
1911,85	553,00
1916,86	593,00
1921,86	608,00
1926,86	492,00
1931,86	682,00
1936,85	613,00
1941,83	510,00
1946,81	585,00
1951,79	663,00
1956,76	459,00
1961,72	602,00
1966,68	505,00
1971,64	646,00
1976,59	525,00
1981,54	454,00
1986,48	520,00
1991,42	499,00
1996,35	592,00
2001,27	292,00
2006,20	568,00
2011,11	615,00
2016,03	439,00
2020,93	568,00
2025,84	458,00
2030,73	400,00
2035,63	464,00
2040,52	554,00
2045,40	446,00
2050,28	330,00
2055,15	472,00
2060,02	550,00
2064,89	488,00
2069,75	438,00
2074,60	483,00
2079,46	459,00
2084,30	497,00
2089,14	595,00
2093,98	434,00
2098,81	550,00
2103,64	490,00
2108,46	496,00
2113,28	484,00
2118,09	412,00
2122,90	451,00
2127,70	546,00
2132,50	496,00
2137,30	435,00
2142,09	570,00
2146,87	540,00
2151,66	501,00
2156,43	408,00
2161,20	463,00
2165,97	458,00
2170,73	560,00
2175,49	459,00
2180,24	461,00
2184,99	351,00
2189,74	488,00
2194,48	477,00
2199,21	412,00
2203,94	484,00
2208,67	400,00
2213,39	408,00
2218,11	315,00
2222,82	527,00
2227,53	464,00
2232,23	454,00
2236,93	469,00
2241,63	487,00
2246,32	374,00
2251,00	499,00
2255,68	415,00
2260,36	415,00
2265,03	525,00
2269,70	340,00
2274,36	507,00
2279,02	344,00
2283,68	340,00
2288,33	423,00
2292,97	418,00
2297,61	449,00
2302,25	322,00
2306,88	456,00
2311,51	479,00
2316,14	465,00
2320,75	505,00
2325,37	391,00
2329,98	396,00
2334,59	357,00
2339,19	511,00
2343,79	265,00
2348,38	456,00
2352,97	302,00
2357,55	396,00
2362,13	508,00
2366,71	381,00
2371,28	294,00
2375,85	492,00
2380,41	507,00
2384,97	459,00
2389,52	352,00
2394,07	366,00
2398,62	310,00
2403,16	360,00
2407,70	408,00
2412,23	495,00
2416,76	341,00
2421,29	341,00
2425,81	497,00
2430,32	359,00
2434,84	277,00
2439,34	440,00
2443,85	291,00
2448,35	443,00
2452,84	407,00
2457,33	334,00
2461,82	387,00
2466,30	371,00
2470,78	575,00
2475,25	327,00
2479,72	381,00
2484,19	339,00
2488,65	490,00
2493,11	301,00
2497,56	334,00
2502,01	414,00
2506,46	343,00
2510,90	323,00
2515,34	290,00
2519,77	403,00
2524,20	341,00
2528,62	400,00
2533,04	465,00
2537,46	400,00
2541,87	375,00
2546,28	325,00
2550,68	347,00
2555,08	339,00
2559,48	376,00
2563,87	378,00
2568,26	263,00
2572,64	192,00
2577,02	453,00
2581,40	437,00
2585,77	474,00
2590,14	308,00
2594,50	302,00
2598,86	351,00
2603,22	258,00
2607,57	366,00
2611,92	353,00
2616,26	460,00
2620,60	496,00
2624,94	319,00
2629,27	461,00
2633,60	384,00
2637,92	283,00
2642,24	445,00
2646,56	419,00
2650,87	352,00
2655,18	415,00
2659,48	293,00
2663,78	358,00
2668,08	371,00
2672,37	389,00
2676,66	459,00
2680,95	462,00
2685,23	340,00
2689,50	528,00
2693,78	368,00
2698,05	499,00
2702,31	317,00
2706,57	371,00
2710,83	411,00
2715,08	395,00
2719,33	454,00
2723,58	599,00
2727,82	430,00
2732,06	500,00
2736,29	530,00
2740,53	548,00
2744,75	500,00
2748,97	492,00
2753,19	537,00
2757,41	436,00
2761,62	388,00
2765,83	487,00
2770,03	438,00
2774,23	440,00
2778,43	488,00
2782,62	495,00
2786,81	420,00
2791,00	480,00
2795,18	650,00
2799,35	551,00
2803,53	550,00
2807,70	631,00
2811,86	626,00
2816,03	698,00
2820,19	712,00
2824,34	680,00
2828,49	832,00
2832,64	1091,00
2836,78	1226,00
2840,92	1597,00
2845,06	1808,00
2849,19	2107,00
2853,32	2288,00
2857,45	2219,00
2861,57	2116,00
2865,69	1888,00
2869,80	2051,00
2873,91	1906,00
2878,02	2112,00
2882,12	2415,00
2886,22	2316,00
2890,32	2224,00
2894,41	1988,00
2898,50	1827,00
2902,58	1779,00
2906,67	1631,00
2910,74	1431,00
2914,82	1446,00
2918,89	1269,00
2922,96	1131,00
2927,02	1050,00
2931,08	1087,00
2935,13	966,00
2939,19	971,00
2943,24	840,00
2947,28	598,00
2951,32	791,00
2955,36	748,00
2959,40	492,00
2963,43	548,00
2967,46	526,00
2971,48	405,00
2975,50	460,00
2979,52	467,00
2983,53	399,00
2987,54	333,00
2991,55	305,00
2995,55	162,00
2999,55	414,00
3003,54	434,00
3007,54	271,00
3011,53	270,00
3015,51	244,00
3019,49	104,00
3023,47	272,00
3027,45	329,00
3031,42	256,00
3035,39	251,00
3039,35	253,00
3043,31	336,00
3047,27	148,00
3051,22	246,00
3055,17	331,00
3059,12	237,00
3063,06	331,00
3067,00	234,00
3070,94	233,00
3074,87	321,00
3078,80	192,00
3082,73	316,00
3086,65	62,00
3090,57	137,00
3094,49	39,00
3098,40	255,00
3102,31	227,00
3106,22	173,00
3110,12	224,00
3114,02	165,00
3117,92	289,00
3121,81	203,00
3125,70	61,00
3129,58	133,00
3133,47	121,00
3137,34	143,00
3141,22	211,00
3145,09	210,00
3148,96	102,00
3152,83	200,00
3156,69	184,00
3160,55	68,00
3164,40	216,00
3168,26	73,00
3172,10	179,00
3175,95	106,00
3179,79	91,00
3183,63	51,00
3187,47	197,00
3191,30	172,00
3195,13	168,00
3198,95	40,00
3202,78	144,00
3206,60	151,00
3210,41	151,00
3214,23	129,00
3218,03	195,00
3221,84	38,00
3225,64	82,00
3229,44	104,00
3233,24	125,00
3237,03	247,00
3240,82	71,00
3244,61	34,00
3248,39	133,00
3252,17	194,00
3255,95	45,00
3259,72	134,00
3263,49	-22,00
3267,26	182,00
3271,03	128,00
3274,79	66,00
3278,54	88,00
3282,30	196,00
3286,05	51,00
3289,80	-12,00
3293,54	35,00
3297,29	195,00
3301,02	177,00
3304,76	89,00
3308,49	133,00
3312,22	112,00
3315,95	105,00
3319,67	222,00
3323,39	228,00
3327,10	134,00
3330,82	111,00
3334,53	170,00
3338,24	177,00
3341,94	83,00
3345,64	156,00
3349,34	164,00
3353,03	171,00
3356,72	189,00
3360,41	185,00
3364,10	240,00
3367,78	49,00
3371,46	135,00
3375,13	98,00
3378,81	128,00
3382,48	74,00
3386,14	-70,00
3389,81	170,00
3393,47	207,00
3397,12	77,00
3400,78	-8,00
3404,43	329,00
3408,08	153,00
3411,72	108,00
3415,36	19,00
3419,00	165,00
3422,64	132,00
3426,27	131,00
3429,90	106,00
3433,53	42,00
3437,15	119,00
3440,77	174,00
3444,39	160,00
3448,00	-33,00
3451,62	117,00
3455,22	226,00
3458,83	85,00
3462,43	88,00
3466,03	-23,00
3469,63	33,00
3473,22	25,00
3476,81	31,00
3480,40	20,00
3483,99	72,00
3487,57	4,00
3491,15	57,00
3494,72	94,00
3498,29	37,00
3501,86	142,00
3505,43	-18,00
3508,99	66,00
3512,56	208,00
3516,11	161,00
3519,67	80,00
3523,22	43,00
3526,77	25,00
3530,32	170,00
3533,86	112,00
3537,40	190,00
3540,94	187,00
3544,47	66,00
3548,00	-47,00
3551,53	103,00
3555,06	48,00
3558,58	9,00
3562,10	119,00
3565,62	263,00
3569,13	83,00
3572,64	-48,00
3576,15	103,00
3579,66	18,00
3583,16	87,00
3586,66	24,00
3590,16	10,00
3593,65	24,00
3597,14	-21,00
3600,63	70,00
3604,11	45,00
3607,60	64,00
3611,08	102,00
3614,55	-38,00
3618,03	50,00
3621,50	132,00
3624,97	65,00
3628,43	2,00
3631,90	132,00
3635,36	72,00
3638,81	11,00
3642,27	-19,00
3645,72	179,00
3649,17	39,00
3652,61	11,00
3656,06	159,00
3659,50	-14,00
3662,93	48,00
3666,37	69,00
3669,80	15,00
3673,23	108,00
3676,65	99,00
3680,08	27,00
3683,50	-19,00
3686,92	103,00
3690,33	118,00
3693,74	71,00
3697,15	108,00
3700,56	-23,00
3703,96	11,00
3707,36	0,00
3710,76	-32,00
3714,16	94,00
3717,55	-3,00
3720,94	44,00
3724,33	-10,00
3727,71	34,00
3731,10	109,00
3734,48	-4,00
3737,85	54,00
3741,23	10,00
3744,60	74,00
3747,97	94,00
3751,33	117,00
3754,69	29,00
3758,05	143,00
3761,41	-52,00
3764,77	97,00
3768,12	31,00
3771,47	116,00
3774,82	47,00
3778,16	5,00
3781,50	2,00
3784,84	1,00
3788,18	5,00
>>>>>End Processed Spectral Data<<<<<
