SpectraSuite Data File
++++++++++++++++++++++++++++++++++++
Date: Tue Mar 03 12:35:43 ICT 2026
User: user
Dark Spectrum Present: Yes
Reference Spectrum Present: No
Number of Sampled Component Spectra: 1
Spectrometers: MAYP113682
Integration Time (usec): 3000000 (MAYP113682)
Spectra Averaged: 1 (MAYP113682)
Boxcar Smoothing: 0 (MAYP113682)
Correct for Electrical Dark: No (MAYP113682)
Strobe/Lamp Enabled: No (MAYP113682)
Correct for Detector Non-linearity: No (MAYP113682)
Correct for Stray Light: No (MAYP113682)
Number of Pixels in Processed Spectrum: 2068
>>>>>Begin Processed Spectral Data<<<<<
-37534,58	5,00
-37414,56	2,00
-37295,11	3,00
-37176,24	-3,00
-37057,95	-1,00
-36940,22	2,00
-36823,05	18,00
-36706,45	-9,00
-36590,40	173,00
-36474,90	-42,00
-36359,95	130,00
-36245,55	134,00
-36131,68	-10,00
-36018,35	88,00
-35905,55	89,00
-35793,29	17,00
-35681,54	65,00
-35570,32	10,00
-35459,62	51,00
-35349,43	1,00
-35239,75	188,00
-35130,58	125,00
-35021,91	77,00
-34913,74	81,00
-34806,07	107,00
-34698,89	82,00
-34592,20	17,00
-34486,00	152,00
-34380,28	-2,00
-34275,04	-90,00
-34170,27	40,00
-34065,98	22,00
-33962,16	-17,00
-33858,81	107,00
-33755,92	82,00
-33653,49	-1,00
-33551,52	84,00
-33450,01	63,00
-33348,94	102,00
-33248,33	62,00
-33148,16	64,00
-33048,43	44,00
-32949,14	65,00
-32850,29	122,00
-32751,87	56,00
-32653,89	143,00
-32556,33	49,00
-32459,20	-9,00
-32362,49	112,00
-32266,19	56,00
-32170,32	95,00
-32074,86	-60,00
-31979,82	56,00
-31885,18	-90,00
-31790,95	40,00
-31697,12	97,00
-31603,69	125,00
-31510,67	112,00
-31418,04	17,00
-31325,80	175,00
-31233,95	216,00
-31142,49	120,00
-31051,42	30,00
-30960,73	108,00
-30870,43	286,00
-30780,50	67,00
-30690,95	89,00
-30601,77	119,00
-30512,97	48,00
-30424,53	168,00
-30336,46	106,00
-30248,76	144,00
-30161,42	33,00
-30074,44	156,00
-29987,81	163,00
-29901,55	13,00
-29815,63	2,00
-29730,07	88,00
-29644,86	2,00
-29560,00	152,00
-29475,48	31,00
-29391,30	36,00
-29307,47	56,00
-29223,97	134,00
-29140,81	6,00
-29057,99	72,00
-28975,50	96,00
-28893,34	168,00
-28811,51	34,00
-28730,00	168,00
-28648,82	1,00
-28567,97	80,00
-28487,43	29,00
-28407,21	27,00
-28327,32	-18,00
-28247,73	-87,00
-28168,46	77,00
-28089,50	118,00
-28010,85	9,00
-27932,51	136,00
-27854,48	30,00
-27776,75	36,00
-27699,32	110,00
-27622,19	199,00
-27545,37	75,00
-27468,84	-63,00
-27392,60	78,00
-27316,66	111,00
-27241,01	100,00
-27165,66	164,00
-27090,59	-74,00
-27015,81	168,00
-26941,31	27,00
-26867,10	48,00
-26793,17	96,00
-26719,52	-46,00
-26646,15	149,00
-26573,06	217,00
-26500,24	104,00
-26427,70	9,00
-26355,43	140,00
-26283,43	-22,00
-26211,71	123,00
-26140,25	44,00
-26069,06	190,00
-25998,13	-5,00
-25927,46	27,00
-25857,06	27,00
-25786,92	39,00
-25717,04	10,00
-25647,42	77,00
-25578,05	118,00
-25508,94	20,00
-25440,09	41,00
-25371,48	82,00
-25303,13	31,00
-25235,02	8,00
-25167,17	-1,00
-25099,56	109,00
-25032,19	205,00
-24965,07	0,00
-24898,20	0,00
-24831,56	59,00
-24765,17	18,00
-24699,01	78,00
-24633,10	88,00
-24567,41	-73,00
-24501,97	49,00
-24436,75	-1,00
-24371,77	59,00
-24307,03	-28,00
-24242,51	-1,00
-24178,22	49,00
-24114,16	59,00
-24050,32	-18,00
-23986,71	80,00
-23923,32	103,00
-23860,16	4,00
-23797,22	48,00
-23734,50	-6,00
-23672,00	116,00
-23609,71	266,00
-23547,65	25,00
-23485,80	100,00
-23424,16	-18,00
-23362,74	121,00
-23301,53	14,00
-23240,54	-45,00
-23179,75	58,00
-23119,17	40,00
-23058,80	248,00
-22998,64	84,00
-22938,68	116,00
-22878,93	16,00
-22819,39	102,00
-22760,04	-31,00
-22700,90	20,00
-22641,96	-21,00
-22583,22	105,00
-22524,68	22,00
-22466,33	121,00
-22408,19	136,00
-22350,23	81,00
-22292,48	49,00
-22234,92	-12,00
-22177,55	95,00
-22120,37	-11,00
-22063,38	19,00
-22006,58	67,00
-21949,98	-69,00
-21893,56	95,00
-21837,33	107,00
-21781,28	182,00
-21725,42	37,00
-21669,74	11,00
-21614,25	104,00
-21558,94	72,00
-21503,81	143,00
-21448,86	34,00
-21394,10	99,00
-21339,51	209,00
-21285,10	23,00
-21230,86	-13,00
-21176,81	94,00
-21122,93	248,00
-21069,22	88,00
-21015,69	79,00
-20962,33	16,00
-20909,14	59,00
-20856,13	250,00
-20803,28	5,00
-20750,61	62,00
-20698,10	101,00
-20645,76	166,00
-20593,59	92,00
-20541,59	169,00
-20489,75	-4,00
-20438,07	70,00
-20386,56	97,00
-20335,22	115,00
-20284,03	221,00
-20233,01	-108,00
-20182,15	-28,00
-20131,45	117,00
-20080,91	-97,00
-20030,52	20,00
-19980,30	120,00
-19930,23	-44,00
-19880,32	-5,00
-19830,56	120,00
-19780,96	-40,00
-19731,52	93,00
-19682,23	-54,00
-19633,09	56,00
-19584,10	191,00
-19535,26	154,00
-19486,58	-129,00
-19438,04	-142,00
-19389,66	-64,00
-19341,42	50,00
-19293,33	1,00
-19245,39	47,00
-19197,60	62,00
-19149,95	38,00
-19102,45	49,00
-19055,09	30,00
-19007,87	118,00
-18960,80	94,00
-18913,87	108,00
-18867,09	-27,00
-18820,44	23,00
-18773,94	96,00
-18727,57	55,00
-18681,35	72,00
-18635,26	50,00
-18589,31	215,00
-18543,50	107,00
-18497,83	-19,00
-18452,29	37,00
-18406,89	91,00
-18361,63	49,00
-18316,50	61,00
-18271,50	-64,00
-18226,63	55,00
-18181,90	104,00
-18137,30	126,00
-18092,84	63,00
-18048,50	62,00
-18004,29	86,00
-17960,22	135,00
-17916,27	36,00
-17872,45	100,00
-17828,76	72,00
-17785,20	33,00
-17741,77	67,00
-17698,46	114,00
-17655,28	50,00
-17612,22	-99,00
-17569,29	69,00
-17526,48	-25,00
-17483,79	51,00
-17441,23	-10,00
-17398,79	102,00
-17356,48	123,00
-17314,28	126,00
-17272,21	21,00
-17230,26	29,00
-17188,42	152,00
-17146,71	115,00
-17105,12	67,00
-17063,64	-13,00
-17022,28	152,00
-16981,04	-35,00
-16939,92	80,00
-16898,91	68,00
-16858,02	-2,00
-16817,25	-45,00
-16776,59	98,00
-16736,04	37,00
-16695,61	99,00
-16655,29	62,00
-16615,09	25,00
-16574,99	37,00
-16535,01	93,00
-16495,15	93,00
-16455,39	-2,00
-16415,74	41,00
-16376,21	174,00
-16336,78	-28,00
-16297,46	-25,00
-16258,26	55,00
-16219,16	-15,00
-16180,17	77,00
-16141,28	60,00
-16102,51	-96,00
-16063,84	157,00
-16025,27	140,00
-15986,82	72,00
-15948,46	-127,00
-15910,22	86,00
-15872,07	46,00
-15834,04	29,00
-15796,10	78,00
-15758,27	159,00
-15720,54	22,00
-15682,91	79,00
-15645,39	54,00
-15607,97	25,00
-15570,64	-17,00
-15533,42	12,00
-15496,30	116,00
-15459,28	48,00
-15422,36	37,00
-15385,54	124,00
-15348,82	65,00
-15312,19	12,00
-15275,66	45,00
-15239,23	-111,00
-15202,90	35,00
-15166,67	43,00
-15130,53	-17,00
-15094,48	78,00
-15058,54	94,00
-15022,68	-36,00
-14986,93	169,00
-14951,26	56,00
-14915,69	-23,00
-14880,22	96,00
-14844,84	-21,00
-14809,55	44,00
-14774,35	87,00
-14739,25	140,00
-14704,24	-111,00
-14669,32	-11,00
-14634,49	157,00
-14599,75	86,00
-14565,10	193,00
-14530,55	126,00
-14496,08	170,00
-14461,70	64,00
-14427,41	15,00
-14393,21	69,00
-14359,10	67,00
-14325,07	154,00
-14291,14	105,00
-14257,29	9,00
-14223,52	61,00
-14189,85	62,00
-14156,26	24,00
-14122,76	38,00
-14089,34	8,00
-14056,01	68,00
-14022,76	53,00
-13989,60	61,00
-13956,52	72,00
-13923,53	46,00
-13890,62	42,00
-13857,79	77,00
-13825,05	233,00
-13792,39	147,00
-13759,81	104,00
-13727,31	-59,00
-13694,90	-10,00
-13662,57	172,00
-13630,31	114,00
-13598,14	63,00
-13566,05	108,00
-13534,05	-8,00
-13502,12	74,00
-13470,27	63,00
-13438,50	-4,00
-13406,80	130,00
-13375,19	3,00
-13343,66	10,00
-13312,20	108,00
-13280,83	-2,00
-13249,53	50,00
-13218,30	97,00
-13187,16	-40,00
-13156,09	50,00
-13125,10	115,00
-13094,18	220,00
-13063,34	69,00
-13032,58	54,00
-13001,89	4,00
-12971,28	106,00
-12940,74	21,00
-12910,27	61,00
-12879,88	-51,00
-12849,57	42,00
-12819,33	-8,00
-12789,16	41,00
-12759,06	84,00
-12729,04	-53,00
-12699,09	30,00
-12669,21	155,00
-12639,41	-24,00
-12609,68	60,00
-12580,02	0,00
-12550,43	78,00
-12520,91	149,00
-12491,46	-8,00
-12462,08	137,00
-12432,77	75,00
-12403,54	73,00
-12374,37	91,00
-12345,27	-44,00
-12316,24	96,00
-12287,29	23,00
-12258,40	44,00
-12229,57	120,00
-12200,82	140,00
-12172,14	-15,00
-12143,52	35,00
-12114,97	88,00
-12086,49	104,00
-12058,07	52,00
-12029,73	-22,00
-12001,44	64,00
-11973,23	48,00
-11945,08	-14,00
-11917,00	29,00
-11888,98	88,00
-11861,03	6,00
-11833,15	208,00
-11805,32	52,00
-11777,57	10,00
-11749,88	91,00
-11722,25	129,00
-11694,69	179,00
-11667,19	0,00
-11639,75	11,00
-11612,38	98,00
-11585,07	81,00
-11557,83	4,00
-11530,65	35,00
-11503,53	67,00
-11476,47	44,00
-11449,48	135,00
-11422,54	154,00
-11395,67	88,00
-11368,86	16,00
-11342,11	-9,00
-11315,43	40,00
-11288,80	165,00
-11262,23	232,00
-11235,73	104,00
-11209,28	-5,00
-11182,90	33,00
-11156,57	10,00
-11130,31	49,00
-11104,10	100,00
-11077,96	62,00
-11051,87	104,00
-11025,84	101,00
-10999,87	159,00
-10973,96	78,00
-10948,11	122,00
-10922,31	16,00
-10896,58	122,00
-10870,90	74,00
-10845,28	127,00
-10819,71	73,00
-10794,20	79,00
-10768,75	123,00
-10743,36	160,00
-10718,02	91,00
-10692,74	80,00
-10667,52	123,00
-10642,35	152,00
-10617,24	211,00
-10592,18	248,00
-10567,18	159,00
-10542,23	214,00
-10517,34	267,00
-10492,51	184,00
-10467,72	165,00
-10443,00	299,00
-10418,32	264,00
-10393,70	192,00
-10369,14	285,00
-10344,63	333,00
-10320,17	306,00
-10295,77	332,00
-10271,42	312,00
-10247,12	313,00
-10222,88	368,00
-10198,68	450,00
-10174,54	381,00
-10150,46	519,00
-10126,42	391,00
-10102,44	508,00
-10078,51	489,00
-10054,63	638,00
-10030,80	572,00
-10007,03	608,00
-9983,30	608,00
-9959,63	648,00
-9936,01	756,00
-9912,44	860,00
-9888,92	702,00
-9865,44	809,00
-9842,02	827,00
-9818,65	847,00
-9795,33	771,00
-9772,06	863,00
-9748,84	993,00
-9725,67	1067,00
-9702,55	1191,00
-9679,47	1480,00
-9656,45	1589,00
-9633,47	1659,00
-9610,55	1530,00
-9587,67	1641,00
-9564,84	1954,00
-9542,06	1912,00
-9519,32	2308,00
-9496,64	2491,00
-9474,00	2671,00
-9451,41	2725,00
-9428,87	2789,00
-9406,37	2706,00
-9383,92	2229,00
-9361,52	2267,00
-9339,17	2286,00
-9316,86	2720,00
-9294,60	3024,00
-9272,38	3289,00
-9250,21	3489,00
-9228,09	3596,00
-9206,01	3289,00
-9183,98	3089,00
-9162,00	2599,00
-9140,06	2471,00
-9118,16	2532,00
-9096,31	2730,00
-9074,51	2804,00
-9052,75	2677,00
-9031,04	2659,00
-9009,37	2203,00
-8987,74	2065,00
-8966,16	1879,00
-8944,63	1720,00
-8923,14	1512,00
-8901,69	1733,00
-8880,29	1875,00
-8858,93	2179,00
-8837,61	2397,00
-8816,34	2493,00
-8795,11	2399,00
-8773,92	2464,00
-8752,78	2087,00
-8731,68	1849,00
-8710,62	1955,00
-8689,61	1968,00
-8668,63	2159,00
-8647,70	2276,00
-8626,82	2341,00
-8605,97	2272,00
-8585,17	2170,00
-8564,41	1787,00
-8543,69	1860,00
-8523,01	1569,00
-8502,37	1736,00
-8481,78	1758,00
-8461,23	1878,00
-8440,71	2067,00
-8420,24	2185,00
-8399,81	2244,00
-8379,42	2249,00
-8359,08	1952,00
-8338,77	1853,00
-8318,50	1747,00
-8298,27	1563,00
-8278,09	1800,00
-8257,94	1830,00
-8237,83	2019,00
-8217,76	2088,00
-8197,74	2076,00
-8177,75	2114,00
-8157,80	1806,00
-8137,89	1717,00
-8118,02	1780,00
-8098,19	1549,00
-8078,40	1675,00
-8058,65	1820,00
-8038,93	1935,00
-8019,26	1789,00
-7999,62	1759,00
-7980,02	1667,00
-7960,46	1686,00
-7940,94	1534,00
-7921,46	1597,00
-7902,01	1412,00
-7882,60	1466,00
-7863,23	1398,00
-7843,90	1672,00
-7824,61	1630,00
-7805,35	1691,00
-7786,13	1797,00
-7766,95	1744,00
-7747,80	1549,00
-7728,69	1541,00
-7709,62	1504,00
-7690,59	1622,00
-7671,59	1743,00
-7652,63	1799,00
-7633,70	1845,00
-7614,81	1666,00
-7595,96	1574,00
-7577,15	1509,00
-7558,37	1429,00
-7539,62	1494,00
-7520,91	1683,00
-7502,24	1604,00
-7483,60	1853,00
-7465,00	1632,00
-7446,44	1467,00
-7427,91	1505,00
-7409,41	1265,00
-7390,95	1163,00
-7372,53	1183,00
-7354,14	1118,00
-7335,78	1173,00
-7317,46	1131,00
-7299,18	1321,00
-7280,92	1519,00
-7262,71	1656,00
-7244,52	1776,00
-7226,38	1710,00
-7208,26	1660,00
-7190,18	1653,00
-7172,14	1410,00
-7154,12	1606,00
-7136,15	1663,00
-7118,20	1674,00
-7100,29	1770,00
-7082,41	1733,00
-7064,57	1665,00
-7046,76	1651,00
-7028,98	1273,00
-7011,24	1255,00
-6993,53	1009,00
-6975,85	939,00
-6958,20	854,00
-6940,59	893,00
-6923,01	823,00
-6905,46	1069,00
-6887,94	1149,00
-6870,46	-1466,00
-6853,01	1528,00
-6835,59	1566,00
-6818,21	1334,00
-6800,85	1150,00
-6783,53	966,00
-6766,24	832,00
-6748,98	807,00
-6731,76	661,00
-6714,56	799,00
-6697,40	698,00
-6680,26	767,00
-6663,16	911,00
-6646,09	1032,00
-6629,05	1091,00
-6612,05	1179,00
-6595,07	1316,00
-6578,13	1113,00
-6561,21	894,00
-6544,33	759,00
-6527,47	551,00
-6510,65	558,00
-6493,86	541,00
-6477,10	584,00
-6460,36	662,00
-6443,66	478,00
-6426,99	523,00
-6410,35	503,00
-6393,74	696,00
-6377,16	727,00
-6360,61	781,00
-6344,09	834,00
-6327,59	934,00
-6311,13	875,00
-6294,70	1005,00
-6278,29	942,00
-6261,92	1055,00
-6245,58	1296,00
-6229,26	1301,00
-6212,97	1093,00
-6196,72	747,00
-6180,49	632,00
-6164,29	532,00
-6148,12	400,00
-6131,98	264,00
-6115,86	277,00
-6099,78	410,00
-6083,72	190,00
-6067,69	207,00
-6051,69	253,00
-6035,72	347,00
-6019,78	551,00
-6003,87	642,00
-5987,98	873,00
-5972,12	792,00
-5956,29	835,00
-5940,49	634,00
-5924,71	552,00
-5908,96	509,00
-5893,24	292,00
-5877,55	309,00
-5861,89	451,00
-5846,25	499,00
-5830,64	394,00
-5815,05	383,00
-5799,50	271,00
-5783,97	394,00
-5768,47	499,00
-5752,99	574,00
-5737,55	918,00
-5722,12	922,00
-5706,73	806,00
-5691,36	679,00
-5676,02	488,00
-5660,71	391,00
-5645,42	333,00
-5630,16	468,00
-5614,92	399,00
-5599,71	571,00
-5584,53	594,00
-5569,37	477,00
-5554,24	479,00
-5539,14	490,00
-5524,06	392,00
-5509,01	636,00
-5493,98	631,00
-5478,98	486,00
-5464,00	576,00
-5449,05	512,00
-5434,13	320,00
-5419,23	365,00
-5404,36	363,00
-5389,51	511,00
-5374,69	645,00
-5359,89	849,00
-5345,12	947,00
-5330,37	877,00
-5315,65	734,00
-5300,95	593,00
-5286,28	472,00
-5271,63	501,00
-5257,01	574,00
-5242,41	614,00
-5227,84	533,00
-5213,29	372,00
-5198,76	200,00
-5184,26	222,00
-5169,79	338,00
-5155,33	437,00
-5140,91	563,00
-5126,51	586,00
-5112,13	641,00
-5097,77	486,00
-5083,44	486,00
-5069,13	308,00
-5054,85	430,00
-5040,59	455,00
-5026,36	493,00
-5012,15	628,00
-4997,96	394,00
-4983,80	451,00
-4969,66	193,00
-4955,54	354,00
-4941,44	283,00
-4927,37	693,00
-4913,33	862,00
-4899,30	816,00
-4885,30	789,00
-4871,33	501,00
-4857,37	327,00
-4843,44	181,00
-4829,53	250,00
-4815,65	613,00
-4801,79	319,00
-4787,95	319,00
-4774,13	424,00
-4760,34	418,00
-4746,56	120,00
-4732,82	233,00
-4719,09	421,00
-4705,38	676,00
-4691,70	761,00
-4678,04	903,00
-4664,41	494,00
-4650,79	390,00
-4637,20	277,00
-4623,63	212,00
-4610,08	300,00
-4596,56	538,00
-4583,05	438,00
-4569,57	457,00
-4556,11	122,00
-4542,67	206,00
-4529,25	174,00
-4515,86	369,00
-4502,49	698,00
-4489,13	587,00
-4475,80	503,00
-4462,49	280,00
-4449,21	285,00
-4435,94	143,00
-4422,70	309,00
-4409,47	444,00
-4396,27	411,00
-4383,09	222,00
-4369,93	131,00
-4356,79	81,00
-4343,67	333,00
-4330,58	255,00
-4317,50	261,00
-4304,45	331,00
-4291,41	180,00
-4278,40	202,00
-4265,41	76,00
-4252,44	203,00
-4239,49	377,00
-4226,55	413,00
-4213,65	237,00
-4200,76	256,00
-4187,89	204,00
-4175,04	80,00
-4162,21	131,00
-4149,40	132,00
-4136,61	-27,00
-4123,85	123,00
-4111,10	149,00
-4098,37	62,00
-4085,66	255,00
-4072,98	125,00
-4060,31	88,00
-4047,66	203,00
-4035,04	154,00
-4022,43	68,00
-4009,84	65,00
-3997,27	110,00
-3984,72	31,00
-3972,19	103,00
-3959,69	121,00
-3947,20	-85,00
-3934,73	113,00
-3922,27	62,00
-3909,84	-16,00
-3897,43	-1,00
-3885,04	44,00
-3872,67	147,00
-3860,31	28,00
-3847,98	-15,00
-3835,66	139,00
-3823,36	8,00
-3811,09	194,00
-3798,83	70,00
-3786,59	19,00
-3774,37	80,00
-3762,17	120,00
-3749,98	17,00
-3737,82	44,00
-3725,67	4,00
-3713,55	35,00
-3701,44	150,00
-3689,35	216,00
-3677,28	-51,00
-3665,22	120,00
-3653,19	73,00
-3641,17	51,00
-3629,18	107,00
-3617,20	94,00
-3605,24	3,00
-3593,30	41,00
-3581,37	94,00
-3569,47	181,00
-3557,58	38,00
-3545,71	145,00
-3533,86	-47,00
-3522,02	92,00
-3510,21	64,00
-3498,41	143,00
-3486,63	16,00
-3474,87	6,00
-3463,12	18,00
-3451,40	18,00
-3439,69	63,00
-3428,00	129,00
-3416,33	30,00
-3404,67	11,00
-3393,03	111,00
-3381,41	69,00
-3369,81	1,00
-3358,22	121,00
-3346,66	85,00
-3335,10	-39,00
-3323,57	170,00
-3312,06	22,00
-3300,56	63,00
-3289,08	43,00
-3277,61	18,00
-3266,16	17,00
-3254,73	140,00
-3243,32	20,00
-3231,92	34,00
-3220,55	-29,00
-3209,18	117,00
-3197,84	146,00
-3186,51	-29,00
-3175,20	92,00
-3163,90	144,00
-3152,63	95,00
-3141,36	48,00
-3130,12	26,00
-3118,89	108,00
-3107,68	-57,00
-3096,49	-7,00
-3085,31	-35,00
-3074,15	207,00
-3063,00	86,00
-3051,87	45,00
-3040,76	66,00
-3029,67	147,00
-3018,59	96,00
-3007,52	208,00
-2996,48	85,00
-2985,44	110,00
-2974,43	141,00
-2963,43	90,00
-2952,45	129,00
-2941,48	-78,00
-2930,53	106,00
-2919,60	-27,00
-2908,68	144,00
-2897,78	33,00
-2886,89	78,00
-2876,02	109,00
-2865,17	-29,00
-2854,33	-7,00
-2843,50	86,00
-2832,70	19,00
-2821,90	-26,00
-2811,13	-27,00
-2800,37	76,00
-2789,62	-13,00
-2778,89	83,00
-2768,18	143,00
-2757,48	98,00
-2746,80	14,00
-2736,13	-44,00
-2725,48	42,00
-2714,84	-114,00
-2704,22	74,00
-2693,61	124,00
-2683,02	5,00
-2672,45	36,00
-2661,89	199,00
-2651,34	50,00
-2640,81	3,00
-2630,30	53,00
-2619,80	65,00
-2609,31	-16,00
-2598,84	144,00
-2588,39	143,00
-2577,95	93,00
-2567,52	162,00
-2557,11	109,00
-2546,71	140,00
-2536,33	-10,00
-2525,97	6,00
-2515,62	137,00
-2505,28	-65,00
-2494,96	87,00
-2484,65	-56,00
-2474,36	140,00
-2464,08	120,00
-2453,82	59,00
-2443,57	58,00
-2433,33	32,00
-2423,11	15,00
-2412,91	94,00
-2402,72	84,00
-2392,54	44,00
-2382,38	81,00
-2372,23	137,00
-2362,09	-5304,00
-2351,97	158,00
-2341,87	30,00
-2331,78	95,00
-2321,70	65,00
-2311,64	38,00
-2301,59	-16,00
-2291,55	134,00
-2281,53	72,00
-2271,53	211,00
-2261,53	2,00
-2251,55	86,00
-2241,59	80,00
-2231,64	65,00
-2221,70	131,00
-2211,78	40,00
-2201,87	124,00
-2191,97	26,00
-2182,09	-53,00
-2172,22	147,00
-2162,37	218,00
-2152,53	45,00
-2142,70	116,00
-2132,89	37,00
-2123,09	67,00
-2113,30	66,00
-2103,53	-83,00
-2093,77	-57,00
-2084,02	46,00
-2074,29	142,00
-2064,57	153,00
-2054,86	168,00
-2045,17	73,00
-2035,49	179,00
-2025,82	128,00
-2016,17	-81,00
-2006,53	4,00
-1996,91	83,00
-1987,29	-29,00
-1977,69	60,00
-1968,11	120,00
-1958,53	158,00
-1948,97	37,00
-1939,42	64,00
-1929,89	4,00
-1920,37	143,00
-1910,86	179,00
-1901,36	37,00
-1891,88	-12,00
-1882,41	51,00
-1872,95	31,00
-1863,51	-68,00
-1854,08	62,00
-1844,66	35,00
-1835,26	123,00
-1825,86	59,00
-1816,48	55,00
-1807,11	-54,00
-1797,76	75,00
-1788,42	232,00
-1779,09	-44,00
-1769,77	63,00
-1760,47	-5,00
-1751,17	105,00
-1741,89	24,00
-1732,63	55,00
-1723,37	-15,00
-1714,13	55,00
-1704,90	-24,00
-1695,68	167,00
-1686,48	106,00
-1677,29	-11,00
-1668,11	149,00
-1658,94	8,00
-1649,78	48,00
-1640,64	101,00
-1631,51	-12,00
-1622,39	7,00
-1613,28	70,00
-1604,19	99,00
-1595,10	27,00
-1586,03	95,00
-1576,97	111,00
-1567,93	32,00
-1558,89	-63,00
-1549,87	138,00
-1540,86	90,00
-1531,86	42,00
-1522,87	-82,00
-1513,90	131,00
-1504,93	121,00
-1495,98	-57,00
-1487,04	125,00
-1478,12	162,00
-1469,20	93,00
-1460,30	150,00
-1451,40	86,00
-1442,52	75,00
-1433,65	86,00
-1424,80	114,00
-1415,95	178,00
-1407,12	129,00
-1398,30	-13,00
-1389,48	110,00
-1380,69	-31,00
-1371,90	25,00
-1363,12	64,00
-1354,36	56,00
-1345,60	57,00
-1336,86	37,00
-1328,13	109,00
-1319,41	76,00
-1310,70	63,00
-1302,01	159,00
-1293,32	128,00
-1284,65	48,00
-1275,99	79,00
-1267,33	47,00
-1258,69	88,00
-1250,06	144,00
-1241,45	102,00
-1232,84	244,00
-1224,25	40,00
-1215,66	13,00
-1207,09	-8,00
-1198,53	-58,00
-1189,97	37,00
-1181,43	117,00
-1172,91	72,00
-1164,39	6,00
-1155,88	29,00
-1147,38	26,00
-1138,90	66,00
-1130,43	60,00
-1121,96	63,00
-1113,51	48,00
-1105,07	33,00
-1096,64	152,00
-1088,22	116,00
-1079,81	223,00
-1071,41	37,00
-1063,02	-50,00
-1054,65	50,00
-1046,28	90,00
-1037,92	17,00
-1029,58	113,00
-1021,24	10,00
-1012,92	81,00
-1004,61	109,00
-996,30	173,00
-988,01	4,00
-979,73	160,00
-971,46	71,00
-963,20	139,00
-954,95	31,00
-946,71	-77,00
-938,48	115,00
-930,26	-32,00
-922,06	89,00
-913,86	155,00
-905,67	111,00
-897,49	82,00
-889,33	123,00
-881,17	189,00
-873,02	77,00
-864,89	18,00
-856,76	-8,00
-848,65	115,00
-840,54	-46,00
-832,45	30,00
-824,36	48,00
-816,29	42,00
-808,22	52,00
-800,17	139,00
-792,12	43,00
-784,09	146,00
-776,06	61,00
-768,05	25,00
-760,04	-20,00
-752,05	52,00
-744,07	52,00
-736,09	-10,00
-728,13	105,00
-720,17	127,00
-712,23	121,00
-704,29	-34,00
-696,37	-70,00
-688,45	83,00
-680,55	-31,00
-672,65	185,00
-664,77	126,00
-656,89	16,00
-649,03	130,00
-641,17	69,00
-633,32	190,00
-625,49	35,00
-617,66	158,00
-609,84	16,00
-602,03	-20,00
-594,23	130,00
-586,45	54,00
-578,67	77,00
-570,90	80,00
-563,14	67,00
-555,39	104,00
-547,65	-4,00
-539,91	66,00
-532,19	159,00
-524,48	69,00
-516,78	112,00
-509,08	86,00
-501,40	74,00
-493,72	16,00
-486,06	13,00
-478,40	130,00
-470,76	18,00
-463,12	122,00
-455,49	34,00
-447,87	18,00
-440,26	77,00
-432,66	83,00
-425,07	10,00
-417,49	41,00
-409,92	130,00
-402,35	-28,00
-394,80	143,00
-387,25	96,00
-379,72	67,00
-372,19	128,00
-364,67	197,00
-357,17	35,00
-349,67	83,00
-342,18	170,00
-334,69	164,00
-327,22	-32,00
-319,76	150,00
-312,30	17,00
-304,86	97,00
-297,42	169,00
-290,00	104,00
-282,58	59,00
-275,17	126,00
-267,77	90,00
-260,37	50,00
-252,99	80,00
-245,62	109,00
-238,25	112,00
-230,90	76,00
-223,55	256,00
-216,21	148,00
-208,88	209,00
-201,56	155,00
-194,25	248,00
-186,94	130,00
-179,65	192,00
-172,36	302,00
-165,08	280,00
-157,81	200,00
-150,55	231,00
-143,30	259,00
-136,06	339,00
-128,82	340,00
-121,60	454,00
-114,38	268,00
-107,17	242,00
-99,97	377,00
-92,78	452,00
-85,60	481,00
-78,42	670,00
-71,25	643,00
-64,10	883,00
-56,95	1182,00
-49,81	1150,00
-42,67	1446,00
-35,55	1904,00
-28,43	2412,00
-21,33	4415,00
-14,23	14638,00
-7,14	47266,00
-0,05	38051,00
7,02	42597,00
14,09	38934,00
21,14	10326,00
28,19	4656,00
35,23	3041,00
42,27	2225,00
49,29	1983,00
56,31	1505,00
63,32	1361,00
70,32	1111,00
77,31	1001,00
84,29	882,00
91,27	670,00
98,23	755,00
105,19	640,00
112,14	808,00
119,09	926,00
126,02	1538,00
132,95	1626,00
139,87	1536,00
146,78	1689,00
153,68	1563,00
160,58	1498,00
167,46	1524,00
174,34	1593,00
181,21	1421,00
188,08	1477,00
194,93	1557,00
201,78	1496,00
208,62	1433,00
215,45	1420,00
222,27	1499,00
229,09	1384,00
235,90	1353,00
242,70	1307,00
249,49	1397,00
256,27	1330,00
263,05	1303,00
269,82	1208,00
276,58	1413,00
283,33	1255,00
290,08	1339,00
296,82	1277,00
303,55	1212,00
310,27	1230,00
316,98	1132,00
323,69	1273,00
330,39	1149,00
337,08	1259,00
343,76	1089,00
350,44	1210,00
357,11	1051,00
363,77	1210,00
370,42	1153,00
377,07	1244,00
383,71	1101,00
390,34	1057,00
396,96	1127,00
403,58	1022,00
410,19	1214,00
416,79	1029,00
423,38	1184,00
429,97	1066,00
436,55	1058,00
443,12	1035,00
449,68	996,00
456,24	1120,00
462,79	962,00
469,33	925,00
475,86	1099,00
482,39	1026,00
488,91	1059,00
495,42	861,00
501,93	990,00
508,42	1050,00
514,91	976,00
521,40	950,00
527,87	906,00
534,34	857,00
540,80	1081,00
547,25	961,00
553,70	935,00
560,14	847,00
566,57	985,00
573,00	793,00
579,41	826,00
585,83	881,00
592,23	894,00
598,62	955,00
605,01	832,00
611,40	963,00
617,77	1042,00
624,14	899,00
630,50	896,00
636,85	800,00
643,20	846,00
649,54	879,00
655,87	908,00
662,20	875,00
668,52	790,00
674,83	728,00
681,13	888,00
687,43	833,00
693,72	859,00
700,00	811,00
706,28	802,00
712,55	799,00
718,81	876,00
725,07	915,00
731,32	808,00
737,56	967,00
743,79	832,00
750,02	942,00
756,24	888,00
762,46	885,00
768,67	977,00
774,87	761,00
781,06	862,00
787,25	851,00
793,43	788,00
799,60	914,00
805,77	894,00
811,93	779,00
818,08	904,00
824,23	945,00
830,37	862,00
836,50	900,00
842,63	845,00
848,75	831,00
854,87	885,00
860,97	1000,00
867,07	1033,00
873,17	961,00
879,25	765,00
885,33	852,00
891,41	819,00
897,47	792,00
903,53	846,00
909,59	867,00
915,63	923,00
921,67	888,00
927,71	729,00
933,74	794,00
939,76	816,00
945,77	857,00
951,78	801,00
957,78	738,00
963,78	652,00
969,77	733,00
975,75	759,00
981,72	838,00
987,69	1058,00
993,66	970,00
999,61	772,00
1005,56	915,00
1011,51	826,00
1017,44	822,00
1023,37	793,00
1029,30	838,00
1035,22	724,00
1041,13	972,00
1047,03	951,00
1052,93	1255,00
1058,83	1624,00
1064,71	1824,00
1070,59	1372,00
1076,47	1054,00
1082,33	1008,00
1088,20	1030,00
1094,05	1009,00
1099,90	902,00
1105,74	774,00
1111,58	873,00
1117,41	1072,00
1123,23	1407,00
1129,05	1882,00
1134,86	1646,00
1140,67	1275,00
1146,47	992,00
1152,26	1011,00
1158,05	924,00
1163,83	980,00
1169,60	1017,00
1175,37	932,00
1181,13	831,00
1186,89	783,00
1192,64	786,00
1198,38	928,00
1204,12	880,00
1209,85	691,00
1215,58	858,00
1221,30	804,00
1227,02	781,00
1232,72	819,00
1238,43	857,00
1244,12	859,00
1249,81	791,00
1255,50	827,00
1261,17	916,00
1266,85	1010,00
1272,51	999,00
1278,17	1006,00
1283,83	1093,00
1289,47	1797,00
1295,12	2139,00
1300,75	2076,00
1306,38	1523,00
1312,01	1222,00
1317,63	1116,00
1323,24	1020,00
1328,85	1060,00
1334,45	1019,00
1340,04	840,00
1345,63	904,00
1351,22	1045,00
1356,80	943,00
1362,37	1138,00
1367,93	1148,00
1373,49	967,00
1379,05	1007,00
1384,60	1014,00
1390,14	999,00
1395,68	1061,00
1401,21	1091,00
1406,74	1040,00
1412,26	1414,00
1417,77	1415,00
1423,28	1457,00
1428,78	1688,00
1434,28	1925,00
1439,77	2317,00
1445,26	2160,00
1450,74	2264,00
1456,22	1791,00
1461,68	1805,00
1467,15	1590,00
1472,61	1429,00
1478,06	1281,00
1483,51	1104,00
1488,95	1167,00
1494,38	918,00
1499,81	888,00
1505,24	749,00
1510,65	812,00
1516,07	823,00
1521,48	861,00
1526,88	802,00
1532,27	897,00
1537,67	906,00
1543,05	801,00
1548,43	641,00
1553,81	680,00
1559,18	825,00
1564,54	760,00
1569,90	772,00
1575,25	791,00
1580,60	826,00
1585,94	743,00
1591,28	755,00
1596,61	737,00
1601,93	706,00
1607,25	702,00
1612,57	706,00
1617,88	804,00
1623,18	774,00
1628,48	823,00
1633,77	778,00
1639,06	718,00
1644,34	808,00
1649,62	692,00
1654,89	653,00
1660,16	610,00
1665,42	644,00
1670,67	676,00
1675,92	833,00
1681,17	645,00
1686,41	695,00
1691,64	764,00
1696,87	627,00
1702,10	638,00
1707,32	610,00
1712,53	650,00
1717,74	689,00
1722,94	617,00
1728,14	610,00
1733,33	675,00
1738,52	819,00
1743,70	727,00
1748,88	680,00
1754,05	710,00
1759,22	636,00
1764,38	507,00
1769,53	496,00
1774,69	593,00
1779,83	613,00
1784,97	596,00
1790,11	593,00
1795,24	554,00
1800,36	695,00
1805,48	578,00
1810,60	796,00
1815,71	528,00
1820,82	680,00
1825,92	668,00
1831,01	595,00
1836,10	627,00
1841,19	687,00
1846,26	558,00
1851,34	551,00
1856,41	536,00
1861,47	706,00
1866,53	532,00
1871,59	517,00
1876,64	695,00
1881,68	745,00
1886,72	508,00
1891,76	513,00
1896,79	669,00
1901,81	554,00
1906,83	572,00
1911,85	533,00
1916,86	545,00
1921,86	531,00
1926,86	506,00
1931,86	603,00
1936,85	528,00
1941,83	457,00
1946,81	607,00
1951,79	624,00
1956,76	475,00
1961,72	548,00
1966,68	533,00
1971,64	526,00
1976,59	559,00
1981,54	571,00
1986,48	538,00
1991,42	407,00
1996,35	537,00
2001,27	306,00
2006,20	696,00
2011,11	674,00
2016,03	423,00
2020,93	601,00
2025,84	461,00
2030,73	549,00
2035,63	470,00
2040,52	515,00
2045,40	458,00
2050,28	422,00
2055,15	569,00
2060,02	571,00
2064,89	483,00
2069,75	552,00
2074,60	546,00
2079,46	368,00
2084,30	584,00
2089,14	569,00
2093,98	520,00
2098,81	543,00
2103,64	496,00
2108,46	516,00
2113,28	543,00
2118,09	499,00
2122,90	494,00
2127,70	659,00
2132,50	421,00
2137,30	367,00
2142,09	530,00
2146,87	501,00
2151,66	541,00
2156,43	577,00
2161,20	485,00
2165,97	410,00
2170,73	461,00
2175,49	516,00
2180,24	449,00
2184,99	488,00
2189,74	433,00
2194,48	516,00
2199,21	446,00
2203,94	508,00
2208,67	493,00
2213,39	466,00
2218,11	402,00
2222,82	415,00
2227,53	480,00
2232,23	484,00
2236,93	351,00
2241,63	385,00
2246,32	555,00
2251,00	424,00
2255,68	456,00
2260,36	450,00
2265,03	506,00
2269,70	437,00
2274,36	518,00
2279,02	368,00
2283,68	436,00
2288,33	503,00
2292,97	337,00
2297,61	459,00
2302,25	445,00
2306,88	401,00
2311,51	455,00
2316,14	520,00
2320,75	450,00
2325,37	339,00
2329,98	548,00
2334,59	393,00
2339,19	532,00
2343,79	333,00
2348,38	515,00
2352,97	366,00
2357,55	475,00
2362,13	459,00
2366,71	422,00
2371,28	340,00
2375,85	511,00
2380,41	581,00
2384,97	396,00
2389,52	272,00
2394,07	400,00
2398,62	400,00
2403,16	450,00
2407,70	328,00
2412,23	471,00
2416,76	461,00
2421,29	258,00
2425,81	490,00
2430,32	419,00
2434,84	300,00
2439,34	418,00
2443,85	403,00
2448,35	483,00
2452,84	326,00
2457,33	422,00
2461,82	358,00
2466,30	377,00
2470,78	491,00
2475,25	311,00
2479,72	467,00
2484,19	358,00
2488,65	453,00
2493,11	380,00
2497,56	312,00
2502,01	358,00
2506,46	399,00
2510,90	474,00
2515,34	394,00
2519,77	301,00
2524,20	419,00
2528,62	381,00
2533,04	448,00
2537,46	471,00
2541,87	358,00
2546,28	309,00
2550,68	394,00
2555,08	349,00
2559,48	379,00
2563,87	379,00
2568,26	320,00
2572,64	333,00
2577,02	427,00
2581,40	526,00
2585,77	420,00
2590,14	387,00
2594,50	460,00
2598,86	463,00
2603,22	244,00
2607,57	371,00
2611,92	335,00
2616,26	406,00
2620,60	427,00
2624,94	335,00
2629,27	374,00
2633,60	373,00
2637,92	195,00
2642,24	286,00
2646,56	349,00
2650,87	436,00
2655,18	471,00
2659,48	258,00
2663,78	369,00
2668,08	445,00
2672,37	582,00
2676,66	408,00
2680,95	398,00
2685,23	399,00
2689,50	466,00
2693,78	284,00
2698,05	485,00
2702,31	400,00
2706,57	420,00
2710,83	442,00
2715,08	335,00
2719,33	638,00
2723,58	507,00
2727,82	505,00
2732,06	360,00
2736,29	615,00
2740,53	437,00
2744,75	391,00
2748,97	429,00
2753,19	568,00
2757,41	316,00
2761,62	464,00
2765,83	393,00
2770,03	484,00
2774,23	437,00
2778,43	441,00
2782,62	573,00
2786,81	438,00
2791,00	550,00
2795,18	600,00
2799,35	563,00
2803,53	542,00
2807,70	524,00
2811,86	663,00
2816,03	628,00
2820,19	589,00
2824,34	647,00
2828,49	830,00
2832,64	1009,00
2836,78	1165,00
2840,92	1619,00
2845,06	1886,00
2849,19	1984,00
2853,32	2057,00
2857,45	2079,00
2861,57	1965,00
2865,69	1806,00
2869,80	1871,00
2873,91	1864,00
2878,02	2099,00
2882,12	2202,00
2886,22	2276,00
2890,32	1954,00
2894,41	1863,00
2898,50	1840,00
2902,58	1697,00
2906,67	1465,00
2910,74	1352,00
2914,82	1291,00
2918,89	1264,00
2922,96	1174,00
2927,02	1037,00
2931,08	983,00
2935,13	875,00
2939,19	895,00
2943,24	762,00
2947,28	609,00
2951,32	722,00
2955,36	588,00
2959,40	427,00
2963,43	446,00
2967,46	528,00
2971,48	363,00
2975,50	376,00
2979,52	411,00
2983,53	348,00
2987,54	471,00
2991,55	247,00
2995,55	341,00
2999,55	376,00
3003,54	374,00
3007,54	210,00
3011,53	312,00
3015,51	322,00
3019,49	-24,00
3023,47	257,00
3027,45	388,00
3031,42	213,00
3035,39	195,00
3039,35	210,00
3043,31	271,00
3047,27	328,00
3051,22	301,00
3055,17	182,00
3059,12	156,00
3063,06	255,00
3067,00	211,00
3070,94	216,00
3074,87	212,00
3078,80	328,00
3082,73	260,00
3086,65	46,00
3090,57	198,00
3094,49	223,00
3098,40	119,00
3102,31	168,00
3106,22	256,00
3110,12	248,00
3114,02	199,00
3117,92	327,00
3121,81	218,00
3125,70	162,00
3129,58	206,00
3133,47	94,00
3137,34	199,00
3141,22	288,00
3145,09	235,00
3148,96	113,00
3152,83	201,00
3156,69	235,00
3160,55	102,00
3164,40	121,00
3168,26	-29,00
3172,10	269,00
3175,95	121,00
3179,79	144,00
3183,63	134,00
3187,47	193,00
3191,30	174,00
3195,13	245,00
3198,95	70,00
3202,78	201,00
3206,60	178,00
3210,41	184,00
3214,23	164,00
3218,03	200,00
3221,84	140,00
3225,64	178,00
3229,44	170,00
3233,24	178,00
3237,03	261,00
3240,82	87,00
3244,61	138,00
3248,39	47,00
3252,17	214,00
3255,95	130,00
3259,72	182,00
3263,49	125,00
3267,26	113,00
3271,03	168,00
3274,79	74,00
3278,54	75,00
3282,30	135,00
3286,05	47,00
3289,80	-40,00
3293,54	93,00
3297,29	122,00
3301,02	133,00
3304,76	73,00
3308,49	74,00
3312,22	180,00
3315,95	89,00
3319,67	255,00
3323,39	196,00
3327,10	219,00
3330,82	201,00
3334,53	154,00
3338,24	161,00
3341,94	196,00
3345,64	126,00
3349,34	109,00
3353,03	97,00
3356,72	280,00
3360,41	176,00
3364,10	278,00
3367,78	82,00
3371,46	59,00
3375,13	188,00
3378,81	19,00
3382,48	116,00
3386,14	-12,00
3389,81	170,00
3393,47	241,00
3397,12	78,00
3400,78	90,00
3404,43	181,00
3408,08	246,00
3411,72	89,00
3415,36	118,00
3419,00	199,00
3422,64	176,00
3426,27	128,00
3429,90	72,00
3433,53	58,00
3437,15	160,00
3440,77	174,00
3444,39	133,00
3448,00	4,00
3451,62	124,00
3455,22	164,00
3458,83	131,00
3462,43	4,00
3466,03	-44,00
3469,63	63,00
3473,22	72,00
3476,81	156,00
3480,40	24,00
3483,99	35,00
3487,57	202,00
3491,15	222,00
3494,72	126,00
3498,29	117,00
3501,86	29,00
3505,43	25,00
3508,99	91,00
3512,56	106,00
3516,11	181,00
3519,67	61,00
3523,22	105,00
3526,77	158,00
3530,32	208,00
3533,86	138,00
3537,40	122,00
3540,94	90,00
3544,47	97,00
3548,00	108,00
3551,53	94,00
3555,06	94,00
3558,58	109,00
3562,10	105,00
3565,62	190,00
3569,13	-22,00
3572,64	-8,00
3576,15	123,00
3579,66	68,00
3583,16	54,00
3586,66	-30,00
3590,16	84,00
3593,65	64,00
3597,14	50,00
3600,63	70,00
3604,11	179,00
3607,60	149,00
3611,08	171,00
3614,55	-6,00
3618,03	72,00
3621,50	92,00
3624,97	144,00
3628,43	81,00
3631,90	97,00
3635,36	120,00
3638,81	102,00
3642,27	56,00
3645,72	191,00
3649,17	86,00
3652,61	-62,00
3656,06	185,00
3659,50	129,00
3662,93	59,00
3666,37	122,00
3669,80	119,00
3673,23	126,00
3676,65	165,00
3680,08	-17,00
3683,50	-3,00
3686,92	62,00
3690,33	61,00
3693,74	99,00
3697,15	202,00
3700,56	-12,00
3703,96	-33,00
3707,36	42,00
3710,76	-54,00
3714,16	40,00
3717,55	2,00
3720,94	76,00
3724,33	86,00
3727,71	2,00
3731,10	13,00
3734,48	93,00
3737,85	124,00
3741,23	33,00
3744,60	127,00
3747,97	86,00
3751,33	95,00
3754,69	43,00
3758,05	236,00
3761,41	44,00
3764,77	72,00
3768,12	30,00
3771,47	111,00
3774,82	-8,00
3778,16	0,00
3781,50	3,00
3784,84	3,00
3788,18	6,00
>>>>>End Processed Spectral Data<<<<<
