SpectraSuite Data File
++++++++++++++++++++++++++++++++++++
Date: Tue Mar 03 12:40:55 ICT 2026
User: user
Dark Spectrum Present: Yes
Reference Spectrum Present: No
Number of Sampled Component Spectra: 1
Spectrometers: MAYP113682
Integration Time (usec): 3000000 (MAYP113682)
Spectra Averaged: 1 (MAYP113682)
Boxcar Smoothing: 0 (MAYP113682)
Correct for Electrical Dark: No (MAYP113682)
Strobe/Lamp Enabled: No (MAYP113682)
Correct for Detector Non-linearity: No (MAYP113682)
Correct for Stray Light: No (MAYP113682)
Number of Pixels in Processed Spectrum: 2068
>>>>>Begin Processed Spectral Data<<<<<
-37534,58	6,00
-37414,56	0,00
-37295,11	-2,00
-37176,24	-3,00
-37057,95	0,00
-36940,22	39,00
-36823,05	99,00
-36706,45	22,00
-36590,40	188,00
-36474,90	126,00
-36359,95	106,00
-36245,55	218,00
-36131,68	42,00
-36018,35	45,00
-35905,55	201,00
-35793,29	135,00
-35681,54	71,00
-35570,32	33,00
-35459,62	-16,00
-35349,43	54,00
-35239,75	260,00
-35130,58	136,00
-35021,91	152,00
-34913,74	181,00
-34806,07	122,00
-34698,89	120,00
-34592,20	6,00
-34486,00	178,00
-34380,28	60,00
-34275,04	50,00
-34170,27	53,00
-34065,98	27,00
-33962,16	70,00
-33858,81	116,00
-33755,92	118,00
-33653,49	156,00
-33551,52	136,00
-33450,01	54,00
-33348,94	105,00
-33248,33	60,00
-33148,16	66,00
-33048,43	2,00
-32949,14	30,00
-32850,29	208,00
-32751,87	30,00
-32653,89	158,00
-32556,33	139,00
-32459,20	94,00
-32362,49	171,00
-32266,19	140,00
-32170,32	68,00
-32074,86	122,00
-31979,82	150,00
-31885,18	-36,00
-31790,95	117,00
-31697,12	101,00
-31603,69	32,00
-31510,67	1,00
-31418,04	95,00
-31325,80	184,00
-31233,95	137,00
-31142,49	138,00
-31051,42	109,00
-30960,73	97,00
-30870,43	117,00
-30780,50	93,00
-30690,95	154,00
-30601,77	161,00
-30512,97	104,00
-30424,53	117,00
-30336,46	69,00
-30248,76	68,00
-30161,42	111,00
-30074,44	178,00
-29987,81	113,00
-29901,55	80,00
-29815,63	125,00
-29730,07	26,00
-29644,86	103,00
-29560,00	179,00
-29475,48	123,00
-29391,30	54,00
-29307,47	82,00
-29223,97	64,00
-29140,81	-1,00
-29057,99	-38,00
-28975,50	137,00
-28893,34	75,00
-28811,51	72,00
-28730,00	145,00
-28648,82	15,00
-28567,97	48,00
-28487,43	80,00
-28407,21	102,00
-28327,32	-26,00
-28247,73	22,00
-28168,46	84,00
-28089,50	130,00
-28010,85	-40,00
-27932,51	172,00
-27854,48	9,00
-27776,75	44,00
-27699,32	144,00
-27622,19	194,00
-27545,37	160,00
-27468,84	62,00
-27392,60	135,00
-27316,66	41,00
-27241,01	28,00
-27165,66	131,00
-27090,59	33,00
-27015,81	151,00
-26941,31	99,00
-26867,10	140,00
-26793,17	107,00
-26719,52	149,00
-26646,15	60,00
-26573,06	180,00
-26500,24	33,00
-26427,70	48,00
-26355,43	153,00
-26283,43	111,00
-26211,71	107,00
-26140,25	91,00
-26069,06	210,00
-25998,13	-20,00
-25927,46	132,00
-25857,06	82,00
-25786,92	118,00
-25717,04	42,00
-25647,42	130,00
-25578,05	158,00
-25508,94	-28,00
-25440,09	201,00
-25371,48	138,00
-25303,13	105,00
-25235,02	272,00
-25167,17	63,00
-25099,56	205,00
-25032,19	208,00
-24965,07	89,00
-24898,20	9,00
-24831,56	150,00
-24765,17	29,00
-24699,01	265,00
-24633,10	32,00
-24567,41	-18,00
-24501,97	216,00
-24436,75	-44,00
-24371,77	112,00
-24307,03	108,00
-24242,51	138,00
-24178,22	115,00
-24114,16	120,00
-24050,32	131,00
-23986,71	57,00
-23923,32	141,00
-23860,16	125,00
-23797,22	116,00
-23734,50	83,00
-23672,00	98,00
-23609,71	267,00
-23547,65	75,00
-23485,80	104,00
-23424,16	90,00
-23362,74	164,00
-23301,53	23,00
-23240,54	77,00
-23179,75	33,00
-23119,17	160,00
-23058,80	203,00
-22998,64	27,00
-22938,68	130,00
-22878,93	59,00
-22819,39	88,00
-22760,04	-18,00
-22700,90	18,00
-22641,96	-21,00
-22583,22	78,00
-22524,68	71,00
-22466,33	183,00
-22408,19	133,00
-22350,23	147,00
-22292,48	158,00
-22234,92	106,00
-22177,55	35,00
-22120,37	64,00
-22063,38	104,00
-22006,58	159,00
-21949,98	36,00
-21893,56	67,00
-21837,33	130,00
-21781,28	97,00
-21725,42	149,00
-21669,74	124,00
-21614,25	236,00
-21558,94	133,00
-21503,81	197,00
-21448,86	60,00
-21394,10	117,00
-21339,51	214,00
-21285,10	40,00
-21230,86	112,00
-21176,81	120,00
-21122,93	170,00
-21069,22	144,00
-21015,69	114,00
-20962,33	105,00
-20909,14	93,00
-20856,13	170,00
-20803,28	-35,00
-20750,61	69,00
-20698,10	92,00
-20645,76	72,00
-20593,59	222,00
-20541,59	208,00
-20489,75	131,00
-20438,07	73,00
-20386,56	100,00
-20335,22	191,00
-20284,03	141,00
-20233,01	6,00
-20182,15	17,00
-20131,45	30,00
-20080,91	135,00
-20030,52	122,00
-19980,30	43,00
-19930,23	30,00
-19880,32	-4,00
-19830,56	149,00
-19780,96	67,00
-19731,52	156,00
-19682,23	53,00
-19633,09	-31,00
-19584,10	107,00
-19535,26	124,00
-19486,58	72,00
-19438,04	-51,00
-19389,66	69,00
-19341,42	72,00
-19293,33	-71,00
-19245,39	135,00
-19197,60	125,00
-19149,95	234,00
-19102,45	58,00
-19055,09	177,00
-19007,87	172,00
-18960,80	83,00
-18913,87	110,00
-18867,09	92,00
-18820,44	140,00
-18773,94	10,00
-18727,57	154,00
-18681,35	137,00
-18635,26	72,00
-18589,31	200,00
-18543,50	170,00
-18497,83	-78,00
-18452,29	71,00
-18406,89	100,00
-18361,63	85,00
-18316,50	35,00
-18271,50	104,00
-18226,63	158,00
-18181,90	142,00
-18137,30	128,00
-18092,84	6,00
-18048,50	106,00
-18004,29	96,00
-17960,22	135,00
-17916,27	-22,00
-17872,45	44,00
-17828,76	-9,00
-17785,20	-12,00
-17741,77	55,00
-17698,46	120,00
-17655,28	84,00
-17612,22	50,00
-17569,29	179,00
-17526,48	21,00
-17483,79	51,00
-17441,23	12,00
-17398,79	44,00
-17356,48	160,00
-17314,28	234,00
-17272,21	16,00
-17230,26	159,00
-17188,42	100,00
-17146,71	217,00
-17105,12	29,00
-17063,64	59,00
-17022,28	99,00
-16981,04	35,00
-16939,92	119,00
-16898,91	86,00
-16858,02	51,00
-16817,25	151,00
-16776,59	242,00
-16736,04	180,00
-16695,61	288,00
-16655,29	116,00
-16615,09	-9,00
-16574,99	77,00
-16535,01	96,00
-16495,15	-5,00
-16455,39	77,00
-16415,74	-2,00
-16376,21	106,00
-16336,78	-12,00
-16297,46	152,00
-16258,26	223,00
-16219,16	142,00
-16180,17	227,00
-16141,28	228,00
-16102,51	8,00
-16063,84	118,00
-16025,27	188,00
-15986,82	-37,00
-15948,46	48,00
-15910,22	125,00
-15872,07	137,00
-15834,04	104,00
-15796,10	62,00
-15758,27	82,00
-15720,54	93,00
-15682,91	102,00
-15645,39	67,00
-15607,97	140,00
-15570,64	-20,00
-15533,42	182,00
-15496,30	114,00
-15459,28	154,00
-15422,36	-42,00
-15385,54	61,00
-15348,82	202,00
-15312,19	17,00
-15275,66	-29,00
-15239,23	66,00
-15202,90	86,00
-15166,67	39,00
-15130,53	-39,00
-15094,48	174,00
-15058,54	156,00
-15022,68	22,00
-14986,93	72,00
-14951,26	46,00
-14915,69	44,00
-14880,22	11,00
-14844,84	58,00
-14809,55	-53,00
-14774,35	27,00
-14739,25	115,00
-14704,24	48,00
-14669,32	7,00
-14634,49	260,00
-14599,75	155,00
-14565,10	263,00
-14530,55	93,00
-14496,08	190,00
-14461,70	180,00
-14427,41	15,00
-14393,21	17,00
-14359,10	45,00
-14325,07	135,00
-14291,14	109,00
-14257,29	46,00
-14223,52	122,00
-14189,85	116,00
-14156,26	74,00
-14122,76	-3,00
-14089,34	123,00
-14056,01	84,00
-14022,76	28,00
-13989,60	0,00
-13956,52	88,00
-13923,53	176,00
-13890,62	96,00
-13857,79	182,00
-13825,05	134,00
-13792,39	133,00
-13759,81	101,00
-13727,31	16,00
-13694,90	108,00
-13662,57	221,00
-13630,31	133,00
-13598,14	127,00
-13566,05	46,00
-13534,05	30,00
-13502,12	181,00
-13470,27	99,00
-13438,50	80,00
-13406,80	112,00
-13375,19	37,00
-13343,66	40,00
-13312,20	75,00
-13280,83	69,00
-13249,53	180,00
-13218,30	104,00
-13187,16	-96,00
-13156,09	-34,00
-13125,10	238,00
-13094,18	151,00
-13063,34	-6,00
-13032,58	206,00
-13001,89	-44,00
-12971,28	164,00
-12940,74	112,00
-12910,27	36,00
-12879,88	90,00
-12849,57	64,00
-12819,33	152,00
-12789,16	-4,00
-12759,06	108,00
-12729,04	58,00
-12699,09	110,00
-12669,21	151,00
-12639,41	50,00
-12609,68	48,00
-12580,02	38,00
-12550,43	78,00
-12520,91	74,00
-12491,46	108,00
-12462,08	116,00
-12432,77	131,00
-12403,54	119,00
-12374,37	45,00
-12345,27	-78,00
-12316,24	168,00
-12287,29	171,00
-12258,40	8,00
-12229,57	117,00
-12200,82	160,00
-12172,14	-32,00
-12143,52	100,00
-12114,97	34,00
-12086,49	42,00
-12058,07	20,00
-12029,73	-15,00
-12001,44	103,00
-11973,23	40,00
-11945,08	97,00
-11917,00	75,00
-11888,98	134,00
-11861,03	66,00
-11833,15	49,00
-11805,32	103,00
-11777,57	170,00
-11749,88	80,00
-11722,25	116,00
-11694,69	198,00
-11667,19	49,00
-11639,75	47,00
-11612,38	86,00
-11585,07	227,00
-11557,83	-15,00
-11530,65	84,00
-11503,53	239,00
-11476,47	125,00
-11449,48	128,00
-11422,54	164,00
-11395,67	104,00
-11368,86	48,00
-11342,11	130,00
-11315,43	-34,00
-11288,80	67,00
-11262,23	174,00
-11235,73	192,00
-11209,28	22,00
-11182,90	184,00
-11156,57	87,00
-11130,31	70,00
-11104,10	118,00
-11077,96	117,00
-11051,87	175,00
-11025,84	86,00
-10999,87	161,00
-10973,96	33,00
-10948,11	161,00
-10922,31	-3,00
-10896,58	176,00
-10870,90	170,00
-10845,28	7,00
-10819,71	136,00
-10794,20	115,00
-10768,75	185,00
-10743,36	208,00
-10718,02	179,00
-10692,74	103,00
-10667,52	58,00
-10642,35	163,00
-10617,24	152,00
-10592,18	241,00
-10567,18	237,00
-10542,23	203,00
-10517,34	160,00
-10492,51	192,00
-10467,72	280,00
-10443,00	274,00
-10418,32	284,00
-10393,70	188,00
-10369,14	226,00
-10344,63	344,00
-10320,17	276,00
-10295,77	293,00
-10271,42	245,00
-10247,12	200,00
-10222,88	320,00
-10198,68	458,00
-10174,54	388,00
-10150,46	573,00
-10126,42	300,00
-10102,44	435,00
-10078,51	537,00
-10054,63	623,00
-10030,80	495,00
-10007,03	519,00
-9983,30	584,00
-9959,63	579,00
-9936,01	614,00
-9912,44	649,00
-9888,92	710,00
-9865,44	743,00
-9842,02	693,00
-9818,65	766,00
-9795,33	692,00
-9772,06	804,00
-9748,84	787,00
-9725,67	877,00
-9702,55	1059,00
-9679,47	1315,00
-9656,45	1268,00
-9633,47	1329,00
-9610,55	1483,00
-9587,67	1440,00
-9564,84	1559,00
-9542,06	1635,00
-9519,32	1837,00
-9496,64	2078,00
-9474,00	2148,00
-9451,41	2293,00
-9428,87	2313,00
-9406,37	2287,00
-9383,92	2050,00
-9361,52	1950,00
-9339,17	1891,00
-9316,86	2232,00
-9294,60	2570,00
-9272,38	2737,00
-9250,21	2902,00
-9228,09	3024,00
-9206,01	2777,00
-9183,98	2635,00
-9162,00	2311,00
-9140,06	2192,00
-9118,16	2103,00
-9096,31	2224,00
-9074,51	2381,00
-9052,75	2275,00
-9031,04	2266,00
-9009,37	1995,00
-8987,74	1799,00
-8966,16	1593,00
-8944,63	1472,00
-8923,14	1270,00
-8901,69	1407,00
-8880,29	1592,00
-8858,93	1906,00
-8837,61	1935,00
-8816,34	2105,00
-8795,11	2211,00
-8773,92	2017,00
-8752,78	1673,00
-8731,68	1649,00
-8710,62	1581,00
-8689,61	1670,00
-8668,63	1899,00
-8647,70	2036,00
-8626,82	1970,00
-8605,97	1881,00
-8585,17	1845,00
-8564,41	1544,00
-8543,69	1573,00
-8523,01	1360,00
-8502,37	1496,00
-8481,78	1508,00
-8461,23	1588,00
-8440,71	1627,00
-8420,24	1875,00
-8399,81	1813,00
-8379,42	1987,00
-8359,08	1658,00
-8338,77	1574,00
-8318,50	1512,00
-8298,27	1339,00
-8278,09	1519,00
-8257,94	1585,00
-8237,83	1735,00
-8217,76	1732,00
-8197,74	1862,00
-8177,75	1756,00
-8157,80	1478,00
-8137,89	1475,00
-8118,02	1560,00
-8098,19	1406,00
-8078,40	1551,00
-8058,65	1494,00
-8038,93	1658,00
-8019,26	1475,00
-7999,62	1468,00
-7980,02	1500,00
-7960,46	1401,00
-7940,94	1304,00
-7921,46	1295,00
-7902,01	1296,00
-7882,60	1169,00
-7863,23	1274,00
-7843,90	1348,00
-7824,61	1324,00
-7805,35	1484,00
-7786,13	1536,00
-7766,95	1489,00
-7747,80	1296,00
-7728,69	1363,00
-7709,62	1369,00
-7690,59	1382,00
-7671,59	1483,00
-7652,63	1535,00
-7633,70	1559,00
-7614,81	1483,00
-7595,96	1313,00
-7577,15	1260,00
-7558,37	1251,00
-7539,62	1323,00
-7520,91	1408,00
-7502,24	1503,00
-7483,60	1417,00
-7465,00	1333,00
-7446,44	1192,00
-7427,91	1196,00
-7409,41	1008,00
-7390,95	956,00
-7372,53	990,00
-7354,14	1010,00
-7335,78	1032,00
-7317,46	1081,00
-7299,18	1064,00
-7280,92	1259,00
-7262,71	1374,00
-7244,52	1488,00
-7226,38	1456,00
-7208,26	1412,00
-7190,18	1348,00
-7172,14	1322,00
-7154,12	1275,00
-7136,15	1342,00
-7118,20	1318,00
-7100,29	1488,00
-7082,41	1391,00
-7064,57	1368,00
-7046,76	1274,00
-7028,98	1114,00
-7011,24	1012,00
-6993,53	905,00
-6975,85	801,00
-6958,20	779,00
-6940,59	675,00
-6923,01	751,00
-6905,46	844,00
-6887,94	976,00
-6870,46	-1671,00
-6853,01	1351,00
-6835,59	1235,00
-6818,21	1208,00
-6800,85	914,00
-6783,53	827,00
-6766,24	675,00
-6748,98	625,00
-6731,76	687,00
-6714,56	591,00
-6697,40	526,00
-6680,26	643,00
-6663,16	873,00
-6646,09	859,00
-6629,05	1003,00
-6612,05	1035,00
-6595,07	1063,00
-6578,13	917,00
-6561,21	799,00
-6544,33	500,00
-6527,47	562,00
-6510,65	430,00
-6493,86	445,00
-6477,10	597,00
-6460,36	564,00
-6443,66	459,00
-6426,99	397,00
-6410,35	568,00
-6393,74	556,00
-6377,16	545,00
-6360,61	630,00
-6344,09	750,00
-6327,59	864,00
-6311,13	766,00
-6294,70	856,00
-6278,29	927,00
-6261,92	846,00
-6245,58	1062,00
-6229,26	1029,00
-6212,97	939,00
-6196,72	688,00
-6180,49	632,00
-6164,29	438,00
-6148,12	403,00
-6131,98	246,00
-6115,86	300,00
-6099,78	364,00
-6083,72	238,00
-6067,69	336,00
-6051,69	342,00
-6035,72	250,00
-6019,78	420,00
-6003,87	497,00
-5987,98	761,00
-5972,12	675,00
-5956,29	748,00
-5940,49	583,00
-5924,71	552,00
-5908,96	495,00
-5893,24	318,00
-5877,55	334,00
-5861,89	376,00
-5846,25	447,00
-5830,64	388,00
-5815,05	393,00
-5799,50	346,00
-5783,97	358,00
-5768,47	460,00
-5752,99	544,00
-5737,55	802,00
-5722,12	790,00
-5706,73	690,00
-5691,36	604,00
-5676,02	377,00
-5660,71	345,00
-5645,42	201,00
-5630,16	343,00
-5614,92	292,00
-5599,71	537,00
-5584,53	536,00
-5569,37	457,00
-5554,24	1391,00
-5539,14	469,00
-5524,06	259,00
-5509,01	481,00
-5493,98	625,00
-5478,98	370,00
-5464,00	461,00
-5449,05	413,00
-5434,13	401,00
-5419,23	325,00
-5404,36	388,00
-5389,51	407,00
-5374,69	570,00
-5359,89	821,00
-5345,12	813,00
-5330,37	785,00
-5315,65	478,00
-5300,95	486,00
-5286,28	376,00
-5271,63	358,00
-5257,01	414,00
-5242,41	497,00
-5227,84	551,00
-5213,29	387,00
-5198,76	181,00
-5184,26	304,00
-5169,79	397,00
-5155,33	403,00
-5140,91	486,00
-5126,51	565,00
-5112,13	493,00
-5097,77	383,00
-5083,44	378,00
-5069,13	268,00
-5054,85	392,00
-5040,59	394,00
-5026,36	333,00
-5012,15	548,00
-4997,96	398,00
-4983,80	437,00
-4969,66	173,00
-4955,54	294,00
-4941,44	334,00
-4927,37	590,00
-4913,33	643,00
-4899,30	693,00
-4885,30	697,00
-4871,33	475,00
-4857,37	249,00
-4843,44	200,00
-4829,53	217,00
-4815,65	548,00
-4801,79	256,00
-4787,95	233,00
-4774,13	344,00
-4760,34	352,00
-4746,56	100,00
-4732,82	273,00
-4719,09	289,00
-4705,38	538,00
-4691,70	713,00
-4678,04	624,00
-4664,41	524,00
-4650,79	466,00
-4637,20	272,00
-4623,63	200,00
-4610,08	256,00
-4596,56	403,00
-4583,05	446,00
-4569,57	365,00
-4556,11	93,00
-4542,67	217,00
-4529,25	158,00
-4515,86	297,00
-4502,49	668,00
-4489,13	596,00
-4475,80	397,00
-4462,49	413,00
-4449,21	206,00
-4435,94	176,00
-4422,70	298,00
-4409,47	353,00
-4396,27	327,00
-4383,09	215,00
-4369,93	118,00
-4356,79	137,00
-4343,67	253,00
-4330,58	328,00
-4317,50	225,00
-4304,45	408,00
-4291,41	194,00
-4278,40	217,00
-4265,41	105,00
-4252,44	263,00
-4239,49	330,00
-4226,55	388,00
-4213,65	262,00
-4200,76	230,00
-4187,89	150,00
-4175,04	167,00
-4162,21	239,00
-4149,40	140,00
-4136,61	65,00
-4123,85	206,00
-4111,10	203,00
-4098,37	92,00
-4085,66	267,00
-4072,98	122,00
-4060,31	167,00
-4047,66	287,00
-4035,04	115,00
-4022,43	38,00
-4009,84	124,00
-3997,27	93,00
-3984,72	82,00
-3972,19	66,00
-3959,69	117,00
-3947,20	126,00
-3934,73	16,00
-3922,27	96,00
-3909,84	-5,00
-3897,43	36,00
-3885,04	-45,00
-3872,67	205,00
-3860,31	93,00
-3847,98	173,00
-3835,66	117,00
-3823,36	94,00
-3811,09	224,00
-3798,83	63,00
-3786,59	19,00
-3774,37	98,00
-3762,17	3,00
-3749,98	22,00
-3737,82	81,00
-3725,67	193,00
-3713,55	116,00
-3701,44	170,00
-3689,35	212,00
-3677,28	64,00
-3665,22	198,00
-3653,19	92,00
-3641,17	52,00
-3629,18	201,00
-3617,20	-7,00
-3605,24	40,00
-3593,30	96,00
-3581,37	113,00
-3569,47	92,00
-3557,58	87,00
-3545,71	44,00
-3533,86	57,00
-3522,02	122,00
-3510,21	73,00
-3498,41	213,00
-3486,63	146,00
-3474,87	80,00
-3463,12	149,00
-3451,40	118,00
-3439,69	160,00
-3428,00	-9,00
-3416,33	57,00
-3404,67	11,00
-3393,03	169,00
-3381,41	135,00
-3369,81	-19,00
-3358,22	59,00
-3346,66	22,00
-3335,10	-26,00
-3323,57	149,00
-3312,06	74,00
-3300,56	234,00
-3289,08	41,00
-3277,61	-53,00
-3266,16	124,00
-3254,73	124,00
-3243,32	79,00
-3231,92	76,00
-3220,55	46,00
-3209,18	126,00
-3197,84	120,00
-3186,51	33,00
-3175,20	42,00
-3163,90	217,00
-3152,63	-9,00
-3141,36	109,00
-3130,12	-7,00
-3118,89	-42,00
-3107,68	86,00
-3096,49	91,00
-3085,31	146,00
-3074,15	183,00
-3063,00	110,00
-3051,87	38,00
-3040,76	21,00
-3029,67	202,00
-3018,59	124,00
-3007,52	106,00
-2996,48	94,00
-2985,44	135,00
-2974,43	275,00
-2963,43	108,00
-2952,45	214,00
-2941,48	159,00
-2930,53	77,00
-2919,60	96,00
-2908,68	118,00
-2897,78	57,00
-2886,89	87,00
-2876,02	94,00
-2865,17	-30,00
-2854,33	84,00
-2843,50	65,00
-2832,70	169,00
-2821,90	-34,00
-2811,13	18,00
-2800,37	75,00
-2789,62	164,00
-2778,89	119,00
-2768,18	188,00
-2757,48	182,00
-2746,80	120,00
-2736,13	13,00
-2725,48	-46,00
-2714,84	91,00
-2704,22	32,00
-2693,61	207,00
-2683,02	187,00
-2672,45	84,00
-2661,89	125,00
-2651,34	30,00
-2640,81	22,00
-2630,30	118,00
-2619,80	101,00
-2609,31	-25,00
-2598,84	104,00
-2588,39	179,00
-2577,95	49,00
-2567,52	117,00
-2557,11	165,00
-2546,71	110,00
-2536,33	89,00
-2525,97	109,00
-2515,62	107,00
-2505,28	23,00
-2494,96	158,00
-2484,65	-14,00
-2474,36	71,00
-2464,08	20,00
-2453,82	133,00
-2443,57	63,00
-2433,33	97,00
-2423,11	69,00
-2412,91	65,00
-2402,72	186,00
-2392,54	97,00
-2382,38	148,00
-2372,23	128,00
-2362,09	-216,00
-2351,97	155,00
-2341,87	54,00
-2331,78	89,00
-2321,70	167,00
-2311,64	95,00
-2301,59	96,00
-2291,55	186,00
-2281,53	101,00
-2271,53	207,00
-2261,53	86,00
-2251,55	17,00
-2241,59	69,00
-2231,64	94,00
-2221,70	123,00
-2211,78	68,00
-2201,87	140,00
-2191,97	189,00
-2182,09	-25,00
-2172,22	239,00
-2162,37	111,00
-2152,53	30,00
-2142,70	191,00
-2132,89	80,00
-2123,09	32,00
-2113,30	208,00
-2103,53	37,00
-2093,77	18,00
-2084,02	90,00
-2074,29	99,00
-2064,57	139,00
-2054,86	86,00
-2045,17	72,00
-2035,49	78,00
-2025,82	8,00
-2016,17	119,00
-2006,53	161,00
-1996,91	151,00
-1987,29	29,00
-1977,69	138,00
-1968,11	180,00
-1958,53	239,00
-1948,97	81,00
-1939,42	154,00
-1929,89	-4,00
-1920,37	199,00
-1910,86	85,00
-1901,36	173,00
-1891,88	13,00
-1882,41	-29,00
-1872,95	133,00
-1863,51	-40,00
-1854,08	42,00
-1844,66	122,00
-1835,26	53,00
-1825,86	95,00
-1816,48	81,00
-1807,11	67,00
-1797,76	89,00
-1788,42	152,00
-1779,09	157,00
-1769,77	134,00
-1760,47	32,00
-1751,17	148,00
-1741,89	13,00
-1732,63	-19,00
-1723,37	-8,00
-1714,13	160,00
-1704,90	37,00
-1695,68	90,00
-1686,48	120,00
-1677,29	128,00
-1668,11	121,00
-1658,94	66,00
-1649,78	158,00
-1640,64	142,00
-1631,51	175,00
-1622,39	0,00
-1613,28	100,00
-1604,19	50,00
-1595,10	83,00
-1586,03	111,00
-1576,97	212,00
-1567,93	173,00
-1558,89	87,00
-1549,87	195,00
-1540,86	96,00
-1531,86	150,00
-1522,87	-42,00
-1513,90	128,00
-1504,93	143,00
-1495,98	-47,00
-1487,04	87,00
-1478,12	90,00
-1469,20	231,00
-1460,30	156,00
-1451,40	109,00
-1442,52	44,00
-1433,65	30,00
-1424,80	107,00
-1415,95	251,00
-1407,12	178,00
-1398,30	90,00
-1389,48	143,00
-1380,69	189,00
-1371,90	183,00
-1363,12	48,00
-1354,36	55,00
-1345,60	143,00
-1336,86	185,00
-1328,13	133,00
-1319,41	54,00
-1310,70	75,00
-1302,01	165,00
-1293,32	121,00
-1284,65	86,00
-1275,99	184,00
-1267,33	120,00
-1258,69	63,00
-1250,06	168,00
-1241,45	132,00
-1232,84	143,00
-1224,25	-113,00
-1215,66	218,00
-1207,09	71,00
-1198,53	-2,00
-1189,97	184,00
-1181,43	222,00
-1172,91	134,00
-1164,39	8,00
-1155,88	222,00
-1147,38	87,00
-1138,90	192,00
-1130,43	20,00
-1121,96	111,00
-1113,51	78,00
-1105,07	80,00
-1096,64	170,00
-1088,22	180,00
-1079,81	130,00
-1071,41	4,00
-1063,02	42,00
-1054,65	154,00
-1046,28	194,00
-1037,92	143,00
-1029,58	47,00
-1021,24	77,00
-1012,92	149,00
-1004,61	177,00
-996,30	126,00
-988,01	62,00
-979,73	157,00
-971,46	118,00
-963,20	140,00
-954,95	87,00
-946,71	45,00
-938,48	74,00
-930,26	51,00
-922,06	47,00
-913,86	225,00
-905,67	134,00
-897,49	55,00
-889,33	193,00
-881,17	119,00
-873,02	111,00
-864,89	32,00
-856,76	115,00
-848,65	119,00
-840,54	117,00
-832,45	127,00
-824,36	59,00
-816,29	44,00
-808,22	111,00
-800,17	88,00
-792,12	101,00
-784,09	130,00
-776,06	39,00
-768,05	79,00
-760,04	183,00
-752,05	124,00
-744,07	101,00
-736,09	120,00
-728,13	130,00
-720,17	196,00
-712,23	184,00
-704,29	32,00
-696,37	156,00
-688,45	132,00
-680,55	114,00
-672,65	263,00
-664,77	126,00
-656,89	49,00
-649,03	83,00
-641,17	25,00
-633,32	179,00
-625,49	-16,00
-617,66	95,00
-609,84	44,00
-602,03	144,00
-594,23	97,00
-586,45	89,00
-578,67	137,00
-570,90	50,00
-563,14	198,00
-555,39	154,00
-547,65	99,00
-539,91	136,00
-532,19	68,00
-524,48	173,00
-516,78	211,00
-509,08	173,00
-501,40	130,00
-493,72	34,00
-486,06	80,00
-478,40	149,00
-470,76	17,00
-463,12	75,00
-455,49	180,00
-447,87	124,00
-440,26	69,00
-432,66	54,00
-425,07	65,00
-417,49	91,00
-409,92	170,00
-402,35	48,00
-394,80	81,00
-387,25	159,00
-379,72	141,00
-372,19	223,00
-364,67	201,00
-357,17	89,00
-349,67	139,00
-342,18	180,00
-334,69	210,00
-327,22	108,00
-319,76	5,00
-312,30	230,00
-304,86	158,00
-297,42	214,00
-290,00	170,00
-282,58	47,00
-275,17	112,00
-267,77	197,00
-260,37	77,00
-252,99	153,00
-245,62	77,00
-238,25	174,00
-230,90	157,00
-223,55	136,00
-216,21	234,00
-208,88	210,00
-201,56	322,00
-194,25	231,00
-186,94	226,00
-179,65	313,00
-172,36	218,00
-165,08	242,00
-157,81	287,00
-150,55	309,00
-143,30	421,00
-136,06	405,00
-128,82	276,00
-121,60	556,00
-114,38	350,00
-107,17	275,00
-99,97	369,00
-92,78	542,00
-85,60	431,00
-78,42	654,00
-71,25	696,00
-64,10	872,00
-56,95	1117,00
-49,81	1111,00
-42,67	1463,00
-35,55	1781,00
-28,43	2423,00
-21,33	4242,00
-14,23	14004,00
-7,14	47266,00
-0,05	38051,00
7,02	42597,00
14,09	37432,00
21,14	9974,00
28,19	4448,00
35,23	2968,00
42,27	2220,00
49,29	1940,00
56,31	1467,00
63,32	1277,00
70,32	1065,00
77,31	977,00
84,29	877,00
91,27	660,00
98,23	635,00
105,19	675,00
112,14	887,00
119,09	875,00
126,02	1407,00
132,95	1690,00
139,87	1546,00
146,78	1610,00
153,68	1567,00
160,58	1557,00
167,46	1464,00
174,34	1603,00
181,21	1344,00
188,08	1369,00
194,93	1464,00
201,78	1555,00
208,62	1519,00
215,45	1388,00
222,27	1528,00
229,09	1412,00
235,90	1412,00
242,70	1313,00
249,49	1412,00
256,27	1379,00
263,05	1282,00
269,82	1176,00
276,58	1395,00
283,33	1164,00
290,08	1431,00
296,82	1311,00
303,55	1122,00
310,27	1238,00
316,98	1158,00
323,69	1281,00
330,39	1252,00
337,08	1187,00
343,76	1096,00
350,44	1134,00
357,11	1094,00
363,77	1181,00
370,42	1158,00
377,07	1088,00
383,71	1208,00
390,34	1077,00
396,96	1219,00
403,58	1037,00
410,19	1116,00
416,79	1073,00
423,38	1112,00
429,97	1047,00
436,55	1070,00
443,12	1089,00
449,68	1083,00
456,24	942,00
462,79	1083,00
469,33	960,00
475,86	976,00
482,39	1102,00
488,91	998,00
495,42	953,00
501,93	1058,00
508,42	1101,00
514,91	1040,00
521,40	907,00
527,87	1087,00
534,34	867,00
540,80	1010,00
547,25	868,00
553,70	976,00
560,14	899,00
566,57	970,00
573,00	907,00
579,41	818,00
585,83	993,00
592,23	965,00
598,62	861,00
605,01	837,00
611,40	880,00
617,77	909,00
624,14	832,00
630,50	946,00
636,85	785,00
643,20	823,00
649,54	1001,00
655,87	871,00
662,20	931,00
668,52	943,00
674,83	847,00
681,13	888,00
687,43	857,00
693,72	763,00
700,00	889,00
706,28	878,00
712,55	936,00
718,81	973,00
725,07	956,00
731,32	778,00
737,56	1000,00
743,79	952,00
750,02	1119,00
756,24	842,00
762,46	817,00
768,67	1123,00
774,87	945,00
781,06	842,00
787,25	1024,00
793,43	928,00
799,60	832,00
805,77	944,00
811,93	899,00
818,08	856,00
824,23	973,00
830,37	904,00
836,50	926,00
842,63	942,00
848,75	1023,00
854,87	942,00
860,97	960,00
867,07	996,00
873,17	1000,00
879,25	926,00
885,33	1011,00
891,41	882,00
897,47	784,00
903,53	970,00
909,59	903,00
915,63	928,00
921,67	927,00
927,71	858,00
933,74	884,00
939,76	857,00
945,77	887,00
951,78	845,00
957,78	716,00
963,78	754,00
969,77	711,00
975,75	752,00
981,72	832,00
987,69	1205,00
993,66	883,00
999,61	795,00
1005,56	893,00
1011,51	915,00
1017,44	809,00
1023,37	903,00
1029,30	888,00
1035,22	819,00
1041,13	917,00
1047,03	1047,00
1052,93	1411,00
1058,83	1702,00
1064,71	1973,00
1070,59	1592,00
1076,47	1264,00
1082,33	1109,00
1088,20	1183,00
1094,05	994,00
1099,90	1042,00
1105,74	1001,00
1111,58	1015,00
1117,41	1219,00
1123,23	1599,00
1129,05	1980,00
1134,86	1783,00
1140,67	1347,00
1146,47	1090,00
1152,26	946,00
1158,05	984,00
1163,83	1027,00
1169,60	1020,00
1175,37	1054,00
1181,13	863,00
1186,89	906,00
1192,64	862,00
1198,38	892,00
1204,12	891,00
1209,85	833,00
1215,58	874,00
1221,30	778,00
1227,02	916,00
1232,72	819,00
1238,43	816,00
1244,12	981,00
1249,81	907,00
1255,50	955,00
1261,17	932,00
1266,85	1067,00
1272,51	1100,00
1278,17	1259,00
1283,83	1228,00
1289,47	1928,00
1295,12	2421,00
1300,75	2123,00
1306,38	1643,00
1312,01	1299,00
1317,63	1086,00
1323,24	1281,00
1328,85	1072,00
1334,45	1170,00
1340,04	989,00
1345,63	1063,00
1351,22	1107,00
1356,80	1082,00
1362,37	1108,00
1367,93	1225,00
1373,49	1132,00
1379,05	1139,00
1384,60	1098,00
1390,14	1111,00
1395,68	1080,00
1401,21	1132,00
1406,74	1107,00
1412,26	1529,00
1417,77	1666,00
1423,28	1606,00
1428,78	1862,00
1434,28	1977,00
1439,77	2516,00
1445,26	2376,00
1450,74	2316,00
1456,22	1932,00
1461,68	1964,00
1467,15	1694,00
1472,61	1609,00
1478,06	1381,00
1483,51	1208,00
1488,95	1253,00
1494,38	1075,00
1499,81	905,00
1505,24	891,00
1510,65	851,00
1516,07	1015,00
1521,48	816,00
1526,88	883,00
1532,27	866,00
1537,67	1002,00
1543,05	912,00
1548,43	802,00
1553,81	960,00
1559,18	941,00
1564,54	820,00
1569,90	825,00
1575,25	808,00
1580,60	896,00
1585,94	867,00
1591,28	840,00
1596,61	860,00
1601,93	785,00
1607,25	683,00
1612,57	784,00
1617,88	879,00
1623,18	873,00
1628,48	708,00
1633,77	822,00
1639,06	851,00
1644,34	887,00
1649,62	735,00
1654,89	773,00
1660,16	784,00
1665,42	821,00
1670,67	835,00
1675,92	780,00
1681,17	719,00
1686,41	736,00
1691,64	734,00
1696,87	868,00
1702,10	678,00
1707,32	683,00
1712,53	757,00
1717,74	860,00
1722,94	695,00
1728,14	730,00
1733,33	719,00
1738,52	876,00
1743,70	780,00
1748,88	711,00
1754,05	758,00
1759,22	632,00
1764,38	-1076,00
1769,53	697,00
1774,69	716,00
1779,83	682,00
1784,97	619,00
1790,11	655,00
1795,24	719,00
1800,36	761,00
1805,48	746,00
1810,60	751,00
1815,71	648,00
1820,82	722,00
1825,92	740,00
1831,01	654,00
1836,10	641,00
1841,19	737,00
1846,26	717,00
1851,34	681,00
1856,41	538,00
1861,47	661,00
1866,53	649,00
1871,59	649,00
1876,64	725,00
1881,68	650,00
1886,72	772,00
1891,76	609,00
1896,79	712,00
1901,81	650,00
1906,83	664,00
1911,85	674,00
1916,86	587,00
1921,86	602,00
1926,86	607,00
1931,86	842,00
1936,85	713,00
1941,83	591,00
1946,81	591,00
1951,79	731,00
1956,76	461,00
1961,72	728,00
1966,68	612,00
1971,64	593,00
1976,59	727,00
1981,54	553,00
1986,48	629,00
1991,42	576,00
1996,35	609,00
2001,27	519,00
2006,20	727,00
2011,11	786,00
2016,03	639,00
2020,93	650,00
2025,84	553,00
2030,73	632,00
2035,63	513,00
2040,52	637,00
2045,40	532,00
2050,28	564,00
2055,15	581,00
2060,02	613,00
2064,89	477,00
2069,75	592,00
2074,60	534,00
2079,46	494,00
2084,30	676,00
2089,14	620,00
2093,98	564,00
2098,81	666,00
2103,64	548,00
2108,46	612,00
2113,28	656,00
2118,09	595,00
2122,90	668,00
2127,70	538,00
2132,50	541,00
2137,30	623,00
2142,09	614,00
2146,87	630,00
2151,66	641,00
2156,43	630,00
2161,20	711,00
2165,97	586,00
2170,73	618,00
2175,49	518,00
2180,24	544,00
2184,99	513,00
2189,74	631,00
2194,48	458,00
2199,21	556,00
2203,94	550,00
2208,67	500,00
2213,39	574,00
2218,11	534,00
2222,82	660,00
2227,53	492,00
2232,23	508,00
2236,93	591,00
2241,63	588,00
2246,32	545,00
2251,00	563,00
2255,68	552,00
2260,36	542,00
2265,03	485,00
2269,70	619,00
2274,36	597,00
2279,02	446,00
2283,68	488,00
2288,33	456,00
2292,97	453,00
2297,61	563,00
2302,25	561,00
2306,88	556,00
2311,51	605,00
2316,14	524,00
2320,75	607,00
2325,37	499,00
2329,98	525,00
2334,59	555,00
2339,19	455,00
2343,79	417,00
2348,38	588,00
2352,97	521,00
2357,55	596,00
2362,13	510,00
2366,71	573,00
2371,28	394,00
2375,85	591,00
2380,41	617,00
2384,97	492,00
2389,52	430,00
2394,07	535,00
2398,62	457,00
2403,16	496,00
2407,70	539,00
2412,23	468,00
2416,76	428,00
2421,29	463,00
2425,81	561,00
2430,32	561,00
2434,84	394,00
2439,34	560,00
2443,85	438,00
2448,35	524,00
2452,84	373,00
2457,33	566,00
2461,82	478,00
2466,30	392,00
2470,78	630,00
2475,25	441,00
2479,72	473,00
2484,19	403,00
2488,65	489,00
2493,11	376,00
2497,56	405,00
2502,01	354,00
2506,46	427,00
2510,90	530,00
2515,34	366,00
2519,77	531,00
2524,20	475,00
2528,62	527,00
2533,04	550,00
2537,46	612,00
2541,87	382,00
2546,28	405,00
2550,68	371,00
2555,08	405,00
2559,48	491,00
2563,87	416,00
2568,26	454,00
2572,64	411,00
2577,02	500,00
2581,40	512,00
2585,77	466,00
2590,14	418,00
2594,50	387,00
2598,86	496,00
2603,22	381,00
2607,57	536,00
2611,92	471,00
2616,26	523,00
2620,60	561,00
2624,94	463,00
2629,27	575,00
2633,60	498,00
2637,92	493,00
2642,24	499,00
2646,56	447,00
2650,87	476,00
2655,18	457,00
2659,48	473,00
2663,78	500,00
2668,08	621,00
2672,37	507,00
2676,66	424,00
2680,95	536,00
2685,23	349,00
2689,50	539,00
2693,78	429,00
2698,05	598,00
2702,31	515,00
2706,57	415,00
2710,83	433,00
2715,08	543,00
2719,33	598,00
2723,58	643,00
2727,82	514,00
2732,06	574,00
2736,29	706,00
2740,53	623,00
2744,75	564,00
2748,97	523,00
2753,19	575,00
2757,41	428,00
2761,62	526,00
2765,83	493,00
2770,03	492,00
2774,23	580,00
2778,43	603,00
2782,62	634,00
2786,81	543,00
2791,00	530,00
2795,18	642,00
2799,35	503,00
2803,53	571,00
2807,70	672,00
2811,86	696,00
2816,03	760,00
2820,19	731,00
2824,34	915,00
2828,49	888,00
2832,64	1035,00
2836,78	1290,00
2840,92	1762,00
2845,06	1986,00
2849,19	2135,00
2853,32	2301,00
2857,45	2214,00
2861,57	2140,00
2865,69	2001,00
2869,80	2047,00
2873,91	2130,00
2878,02	2161,00
2882,12	2409,00
2886,22	2449,00
2890,32	2197,00
2894,41	2055,00
2898,50	1984,00
2902,58	1856,00
2906,67	1650,00
2910,74	1475,00
2914,82	1345,00
2918,89	1375,00
2922,96	1184,00
2927,02	1146,00
2931,08	1223,00
2935,13	1072,00
2939,19	1104,00
2943,24	880,00
2947,28	745,00
2951,32	737,00
2955,36	643,00
2959,40	584,00
2963,43	466,00
2967,46	595,00
2971,48	423,00
2975,50	577,00
2979,52	444,00
2983,53	463,00
2987,54	334,00
2991,55	407,00
2995,55	351,00
2999,55	561,00
3003,54	396,00
3007,54	308,00
3011,53	400,00
3015,51	378,00
3019,49	145,00
3023,47	234,00
3027,45	434,00
3031,42	406,00
3035,39	323,00
3039,35	373,00
3043,31	312,00
3047,27	432,00
3051,22	329,00
3055,17	291,00
3059,12	210,00
3063,06	272,00
3067,00	268,00
3070,94	344,00
3074,87	315,00
3078,80	332,00
3082,73	322,00
3086,65	160,00
3090,57	262,00
3094,49	202,00
3098,40	324,00
3102,31	320,00
3106,22	264,00
3110,12	323,00
3114,02	241,00
3117,92	327,00
3121,81	296,00
3125,70	242,00
3129,58	192,00
3133,47	183,00
3137,34	211,00
3141,22	319,00
3145,09	214,00
3148,96	274,00
3152,83	321,00
3156,69	282,00
3160,55	282,00
3164,40	233,00
3168,26	164,00
3172,10	265,00
3175,95	204,00
3179,79	126,00
3183,63	251,00
3187,47	285,00
3191,30	245,00
3195,13	349,00
3198,95	135,00
3202,78	199,00
3206,60	298,00
3210,41	240,00
3214,23	219,00
3218,03	244,00
3221,84	54,00
3225,64	280,00
3229,44	164,00
3233,24	106,00
3237,03	234,00
3240,82	177,00
3244,61	212,00
3248,39	172,00
3252,17	319,00
3255,95	158,00
3259,72	295,00
3263,49	87,00
3267,26	266,00
3271,03	96,00
3274,79	143,00
3278,54	174,00
3282,30	217,00
3286,05	125,00
3289,80	79,00
3293,54	215,00
3297,29	194,00
3301,02	235,00
3304,76	99,00
3308,49	195,00
3312,22	169,00
3315,95	8,00
3319,67	230,00
3323,39	261,00
3327,10	208,00
3330,82	147,00
3334,53	214,00
3338,24	216,00
3341,94	282,00
3345,64	291,00
3349,34	204,00
3353,03	220,00
3356,72	267,00
3360,41	119,00
3364,10	276,00
3367,78	45,00
3371,46	128,00
3375,13	188,00
3378,81	72,00
3382,48	141,00
3386,14	97,00
3389,81	225,00
3393,47	241,00
3397,12	65,00
3400,78	197,00
3404,43	369,00
3408,08	203,00
3411,72	196,00
3415,36	128,00
3419,00	221,00
3422,64	265,00
3426,27	162,00
3429,90	138,00
3433,53	211,00
3437,15	183,00
3440,77	144,00
3444,39	208,00
3448,00	29,00
3451,62	164,00
3455,22	232,00
3458,83	154,00
3462,43	159,00
3466,03	105,00
3469,63	159,00
3473,22	78,00
3476,81	245,00
3480,40	106,00
3483,99	44,00
3487,57	34,00
3491,15	16,00
3494,72	42,00
3498,29	157,00
3501,86	102,00
3505,43	-16,00
3508,99	214,00
3512,56	195,00
3516,11	170,00
3519,67	129,00
3523,22	168,00
3526,77	115,00
3530,32	204,00
3533,86	196,00
3537,40	61,00
3540,94	183,00
3544,47	177,00
3548,00	112,00
3551,53	81,00
3555,06	122,00
3558,58	80,00
3562,10	196,00
3565,62	252,00
3569,13	138,00
3572,64	49,00
3576,15	96,00
3579,66	77,00
3583,16	3,00
3586,66	112,00
3590,16	174,00
3593,65	37,00
3597,14	44,00
3600,63	158,00
3604,11	96,00
3607,60	174,00
3611,08	154,00
3614,55	74,00
3618,03	173,00
3621,50	129,00
3624,97	83,00
3628,43	171,00
3631,90	147,00
3635,36	138,00
3638,81	83,00
3642,27	66,00
3645,72	278,00
3649,17	118,00
3652,61	-21,00
3656,06	152,00
3659,50	106,00
3662,93	56,00
3666,37	88,00
3669,80	141,00
3673,23	257,00
3676,65	145,00
3680,08	82,00
3683,50	61,00
3686,92	119,00
3690,33	89,00
3693,74	41,00
3697,15	141,00
3700,56	61,00
3703,96	118,00
3707,36	78,00
3710,76	-72,00
3714,16	100,00
3717,55	118,00
3720,94	111,00
3724,33	36,00
3727,71	-26,00
3731,10	134,00
3734,48	95,00
3737,85	126,00
3741,23	124,00
3744,60	147,00
3747,97	41,00
3751,33	90,00
3754,69	35,00
3758,05	173,00
3761,41	70,00
3764,77	224,00
3768,12	164,00
3771,47	102,00
3774,82	61,00
3778,16	2,00
3781,50	-1,00
3784,84	2,00
3788,18	12,00
>>>>>End Processed Spectral Data<<<<<
