SpectraSuite Data File
++++++++++++++++++++++++++++++++++++
Date: Tue Mar 03 12:38:22 ICT 2026
User: user
Dark Spectrum Present: Yes
Reference Spectrum Present: No
Number of Sampled Component Spectra: 1
Spectrometers: MAYP113682
Integration Time (usec): 3000000 (MAYP113682)
Spectra Averaged: 1 (MAYP113682)
Boxcar Smoothing: 0 (MAYP113682)
Correct for Electrical Dark: No (MAYP113682)
Strobe/Lamp Enabled: No (MAYP113682)
Correct for Detector Non-linearity: No (MAYP113682)
Correct for Stray Light: No (MAYP113682)
Number of Pixels in Processed Spectrum: 2068
>>>>>Begin Processed Spectral Data<<<<<
-37534,58	1,00
-37414,56	-2,00
-37295,11	-3,00
-37176,24	-3,00
-37057,95	49,00
-36940,22	-14,00
-36823,05	47,00
-36706,45	125,00
-36590,40	177,00
-36474,90	80,00
-36359,95	41,00
-36245,55	283,00
-36131,68	37,00
-36018,35	32,00
-35905,55	130,00
-35793,29	49,00
-35681,54	130,00
-35570,32	10,00
-35459,62	45,00
-35349,43	43,00
-35239,75	144,00
-35130,58	91,00
-35021,91	83,00
-34913,74	64,00
-34806,07	148,00
-34698,89	154,00
-34592,20	117,00
-34486,00	123,00
-34380,28	-1,00
-34275,04	-29,00
-34170,27	-24,00
-34065,98	41,00
-33962,16	92,00
-33858,81	171,00
-33755,92	57,00
-33653,49	148,00
-33551,52	134,00
-33450,01	41,00
-33348,94	48,00
-33248,33	-25,00
-33148,16	139,00
-33048,43	14,00
-32949,14	45,00
-32850,29	171,00
-32751,87	122,00
-32653,89	163,00
-32556,33	70,00
-32459,20	56,00
-32362,49	75,00
-32266,19	113,00
-32170,32	124,00
-32074,86	-22,00
-31979,82	144,00
-31885,18	-9,00
-31790,95	8,00
-31697,12	155,00
-31603,69	74,00
-31510,67	90,00
-31418,04	11,00
-31325,80	90,00
-31233,95	107,00
-31142,49	110,00
-31051,42	117,00
-30960,73	79,00
-30870,43	266,00
-30780,50	192,00
-30690,95	142,00
-30601,77	158,00
-30512,97	48,00
-30424,53	126,00
-30336,46	107,00
-30248,76	64,00
-30161,42	20,00
-30074,44	122,00
-29987,81	170,00
-29901,55	73,00
-29815,63	84,00
-29730,07	-10,00
-29644,86	34,00
-29560,00	170,00
-29475,48	9,00
-29391,30	71,00
-29307,47	2,00
-29223,97	16,00
-29140,81	77,00
-29057,99	21,00
-28975,50	127,00
-28893,34	145,00
-28811,51	47,00
-28730,00	149,00
-28648,82	-20,00
-28567,97	74,00
-28487,43	123,00
-28407,21	99,00
-28327,32	-70,00
-28247,73	11,00
-28168,46	159,00
-28089,50	104,00
-28010,85	-31,00
-27932,51	104,00
-27854,48	-12,00
-27776,75	103,00
-27699,32	188,00
-27622,19	161,00
-27545,37	103,00
-27468,84	104,00
-27392,60	40,00
-27316,66	56,00
-27241,01	48,00
-27165,66	40,00
-27090,59	72,00
-27015,81	165,00
-26941,31	50,00
-26867,10	144,00
-26793,17	129,00
-26719,52	16,00
-26646,15	77,00
-26573,06	122,00
-26500,24	147,00
-26427,70	64,00
-26355,43	177,00
-26283,43	52,00
-26211,71	79,00
-26140,25	41,00
-26069,06	188,00
-25998,13	-79,00
-25927,46	71,00
-25857,06	89,00
-25786,92	132,00
-25717,04	-5,00
-25647,42	25,00
-25578,05	80,00
-25508,94	-10,00
-25440,09	210,00
-25371,48	105,00
-25303,13	108,00
-25235,02	163,00
-25167,17	136,00
-25099,56	98,00
-25032,19	69,00
-24965,07	86,00
-24898,20	10,00
-24831,56	80,00
-24765,17	24,00
-24699,01	157,00
-24633,10	81,00
-24567,41	-31,00
-24501,97	47,00
-24436,75	-85,00
-24371,77	205,00
-24307,03	24,00
-24242,51	168,00
-24178,22	156,00
-24114,16	22,00
-24050,32	29,00
-23986,71	50,00
-23923,32	135,00
-23860,16	-4,00
-23797,22	127,00
-23734,50	56,00
-23672,00	78,00
-23609,71	372,00
-23547,65	162,00
-23485,80	141,00
-23424,16	30,00
-23362,74	39,00
-23301,53	78,00
-23240,54	70,00
-23179,75	82,00
-23119,17	102,00
-23058,80	181,00
-22998,64	108,00
-22938,68	99,00
-22878,93	57,00
-22819,39	92,00
-22760,04	-58,00
-22700,90	59,00
-22641,96	-15,00
-22583,22	56,00
-22524,68	75,00
-22466,33	29,00
-22408,19	141,00
-22350,23	153,00
-22292,48	122,00
-22234,92	94,00
-22177,55	160,00
-22120,37	75,00
-22063,38	16,00
-22006,58	164,00
-21949,98	62,00
-21893,56	127,00
-21837,33	154,00
-21781,28	89,00
-21725,42	127,00
-21669,74	99,00
-21614,25	116,00
-21558,94	-8,00
-21503,81	180,00
-21448,86	60,00
-21394,10	24,00
-21339,51	203,00
-21285,10	31,00
-21230,86	60,00
-21176,81	142,00
-21122,93	128,00
-21069,22	290,00
-21015,69	90,00
-20962,33	80,00
-20909,14	-46,00
-20856,13	210,00
-20803,28	-83,00
-20750,61	92,00
-20698,10	64,00
-20645,76	-5,00
-20593,59	188,00
-20541,59	60,00
-20489,75	111,00
-20438,07	172,00
-20386,56	216,00
-20335,22	135,00
-20284,03	110,00
-20233,01	-46,00
-20182,15	-55,00
-20131,45	60,00
-20080,91	50,00
-20030,52	129,00
-19980,30	81,00
-19930,23	-32,00
-19880,32	49,00
-19830,56	179,00
-19780,96	83,00
-19731,52	68,00
-19682,23	-24,00
-19633,09	17,00
-19584,10	76,00
-19535,26	222,00
-19486,58	45,00
-19438,04	-67,00
-19389,66	132,00
-19341,42	10,00
-19293,33	56,00
-19245,39	84,00
-19197,60	130,00
-19149,95	146,00
-19102,45	-9,00
-19055,09	156,00
-19007,87	69,00
-18960,80	63,00
-18913,87	112,00
-18867,09	4,00
-18820,44	96,00
-18773,94	112,00
-18727,57	40,00
-18681,35	45,00
-18635,26	166,00
-18589,31	156,00
-18543,50	45,00
-18497,83	23,00
-18452,29	-9,00
-18406,89	92,00
-18361,63	49,00
-18316,50	-103,00
-18271,50	105,00
-18226,63	142,00
-18181,90	157,00
-18137,30	107,00
-18092,84	-1,00
-18048,50	-32,00
-18004,29	93,00
-17960,22	223,00
-17916,27	61,00
-17872,45	40,00
-17828,76	-5,00
-17785,20	-21,00
-17741,77	36,00
-17698,46	128,00
-17655,28	195,00
-17612,22	-33,00
-17569,29	119,00
-17526,48	55,00
-17483,79	27,00
-17441,23	-21,00
-17398,79	164,00
-17356,48	119,00
-17314,28	88,00
-17272,21	100,00
-17230,26	111,00
-17188,42	24,00
-17146,71	136,00
-17105,12	77,00
-17063,64	69,00
-17022,28	48,00
-16981,04	-45,00
-16939,92	270,00
-16898,91	-12,00
-16858,02	65,00
-16817,25	3,00
-16776,59	162,00
-16736,04	83,00
-16695,61	191,00
-16655,29	102,00
-16615,09	31,00
-16574,99	79,00
-16535,01	114,00
-16495,15	105,00
-16455,39	57,00
-16415,74	50,00
-16376,21	58,00
-16336,78	22,00
-16297,46	26,00
-16258,26	136,00
-16219,16	47,00
-16180,17	165,00
-16141,28	143,00
-16102,51	-80,00
-16063,84	1,00
-16025,27	80,00
-15986,82	91,00
-15948,46	60,00
-15910,22	88,00
-15872,07	185,00
-15834,04	136,00
-15796,10	92,00
-15758,27	182,00
-15720,54	-15,00
-15682,91	25,00
-15645,39	-69,00
-15607,97	132,00
-15570,64	78,00
-15533,42	98,00
-15496,30	168,00
-15459,28	27,00
-15422,36	194,00
-15385,54	64,00
-15348,82	160,00
-15312,19	50,00
-15275,66	-3,00
-15239,23	14,00
-15202,90	106,00
-15166,67	53,00
-15130,53	77,00
-15094,48	98,00
-15058,54	98,00
-15022,68	74,00
-14986,93	67,00
-14951,26	89,00
-14915,69	24,00
-14880,22	124,00
-14844,84	24,00
-14809,55	-48,00
-14774,35	-14,00
-14739,25	164,00
-14704,24	11,00
-14669,32	81,00
-14634,49	260,00
-14599,75	42,00
-14565,10	184,00
-14530,55	-6,00
-14496,08	96,00
-14461,70	111,00
-14427,41	-3,00
-14393,21	-11,00
-14359,10	43,00
-14325,07	93,00
-14291,14	174,00
-14257,29	110,00
-14223,52	78,00
-14189,85	-35,00
-14156,26	162,00
-14122,76	44,00
-14089,34	-19,00
-14056,01	48,00
-14022,76	62,00
-13989,60	83,00
-13956,52	39,00
-13923,53	93,00
-13890,62	104,00
-13857,79	132,00
-13825,05	67,00
-13792,39	139,00
-13759,81	137,00
-13727,31	34,00
-13694,90	58,00
-13662,57	195,00
-13630,31	110,00
-13598,14	52,00
-13566,05	43,00
-13534,05	8,00
-13502,12	193,00
-13470,27	71,00
-13438,50	-3,00
-13406,80	120,00
-13375,19	28,00
-13343,66	-4,00
-13312,20	33,00
-13280,83	38,00
-13249,53	154,00
-13218,30	95,00
-13187,16	-54,00
-13156,09	-47,00
-13125,10	151,00
-13094,18	88,00
-13063,34	-61,00
-13032,58	115,00
-13001,89	67,00
-12971,28	17,00
-12940,74	-40,00
-12910,27	138,00
-12879,88	70,00
-12849,57	152,00
-12819,33	97,00
-12789,16	16,00
-12759,06	90,00
-12729,04	24,00
-12699,09	-1484,00
-12669,21	141,00
-12639,41	40,00
-12609,68	103,00
-12580,02	21,00
-12550,43	62,00
-12520,91	25,00
-12491,46	17,00
-12462,08	119,00
-12432,77	96,00
-12403,54	-21,00
-12374,37	125,00
-12345,27	-16,00
-12316,24	109,00
-12287,29	91,00
-12258,40	15,00
-12229,57	221,00
-12200,82	139,00
-12172,14	-47,00
-12143,52	73,00
-12114,97	85,00
-12086,49	-7,00
-12058,07	108,00
-12029,73	-27,00
-12001,44	63,00
-11973,23	61,00
-11945,08	57,00
-11917,00	114,00
-11888,98	152,00
-11861,03	32,00
-11833,15	142,00
-11805,32	91,00
-11777,57	66,00
-11749,88	64,00
-11722,25	119,00
-11694,69	55,00
-11667,19	-42,00
-11639,75	6,00
-11612,38	72,00
-11585,07	83,00
-11557,83	-69,00
-11530,65	106,00
-11503,53	76,00
-11476,47	123,00
-11449,48	101,00
-11422,54	-22,00
-11395,67	65,00
-11368,86	101,00
-11342,11	45,00
-11315,43	106,00
-11288,80	188,00
-11262,23	233,00
-11235,73	152,00
-11209,28	72,00
-11182,90	68,00
-11156,57	68,00
-11130,31	142,00
-11104,10	116,00
-11077,96	61,00
-11051,87	105,00
-11025,84	52,00
-10999,87	88,00
-10973,96	41,00
-10948,11	110,00
-10922,31	0,00
-10896,58	181,00
-10870,90	178,00
-10845,28	159,00
-10819,71	69,00
-10794,20	139,00
-10768,75	209,00
-10743,36	122,00
-10718,02	86,00
-10692,74	90,00
-10667,52	84,00
-10642,35	177,00
-10617,24	254,00
-10592,18	235,00
-10567,18	137,00
-10542,23	174,00
-10517,34	209,00
-10492,51	230,00
-10467,72	325,00
-10443,00	193,00
-10418,32	224,00
-10393,70	244,00
-10369,14	238,00
-10344,63	331,00
-10320,17	339,00
-10295,77	335,00
-10271,42	229,00
-10247,12	316,00
-10222,88	384,00
-10198,68	427,00
-10174,54	356,00
-10150,46	447,00
-10126,42	413,00
-10102,44	460,00
-10078,51	502,00
-10054,63	569,00
-10030,80	608,00
-10007,03	490,00
-9983,30	593,00
-9959,63	584,00
-9936,01	747,00
-9912,44	726,00
-9888,92	708,00
-9865,44	740,00
-9842,02	717,00
-9818,65	774,00
-9795,33	706,00
-9772,06	812,00
-9748,84	853,00
-9725,67	856,00
-9702,55	1106,00
-9679,47	1333,00
-9656,45	1394,00
-9633,47	1482,00
-9610,55	1453,00
-9587,67	1423,00
-9564,84	1715,00
-9542,06	1798,00
-9519,32	2062,00
-9496,64	2211,00
-9474,00	2333,00
-9451,41	2446,00
-9428,87	2458,00
-9406,37	2404,00
-9383,92	2147,00
-9361,52	2102,00
-9339,17	2015,00
-9316,86	2308,00
-9294,60	2767,00
-9272,38	2869,00
-9250,21	2971,00
-9228,09	3272,00
-9206,01	3046,00
-9183,98	2734,00
-9162,00	2303,00
-9140,06	2317,00
-9118,16	2290,00
-9096,31	2469,00
-9074,51	2485,00
-9052,75	2356,00
-9031,04	2451,00
-9009,37	2095,00
-8987,74	1818,00
-8966,16	1480,00
-8944,63	1576,00
-8923,14	1368,00
-8901,69	1508,00
-8880,29	1742,00
-8858,93	1917,00
-8837,61	2035,00
-8816,34	2360,00
-8795,11	2296,00
-8773,92	2236,00
-8752,78	1819,00
-8731,68	1752,00
-8710,62	1785,00
-8689,61	1810,00
-8668,63	2012,00
-8647,70	2172,00
-8626,82	2048,00
-8605,97	2000,00
-8585,17	1916,00
-8564,41	1730,00
-8543,69	1631,00
-8523,01	1525,00
-8502,37	1560,00
-8481,78	1624,00
-8461,23	1694,00
-8440,71	1903,00
-8420,24	1947,00
-8399,81	2027,00
-8379,42	2075,00
-8359,08	1719,00
-8338,77	1629,00
-8318,50	1564,00
-8298,27	1543,00
-8278,09	1647,00
-8257,94	1619,00
-8237,83	1767,00
-8217,76	1864,00
-8197,74	1837,00
-8177,75	1772,00
-8157,80	1696,00
-8137,89	1477,00
-8118,02	1656,00
-8098,19	1488,00
-8078,40	1415,00
-8058,65	1582,00
-8038,93	1644,00
-8019,26	1627,00
-7999,62	1532,00
-7980,02	1605,00
-7960,46	1423,00
-7940,94	1468,00
-7921,46	1438,00
-7902,01	1342,00
-7882,60	1331,00
-7863,23	1383,00
-7843,90	1607,00
-7824,61	1537,00
-7805,35	1599,00
-7786,13	1707,00
-7766,95	1593,00
-7747,80	1455,00
-7728,69	1486,00
-7709,62	1497,00
-7690,59	1527,00
-7671,59	1635,00
-7652,63	1597,00
-7633,70	1693,00
-7614,81	1655,00
-7595,96	1450,00
-7577,15	1407,00
-7558,37	1322,00
-7539,62	1452,00
-7520,91	1529,00
-7502,24	1621,00
-7483,60	1554,00
-7465,00	1391,00
-7446,44	1250,00
-7427,91	1233,00
-7409,41	1105,00
-7390,95	881,00
-7372,53	1044,00
-7354,14	1117,00
-7335,78	913,00
-7317,46	1070,00
-7299,18	1324,00
-7280,92	1399,00
-7262,71	1387,00
-7244,52	1587,00
-7226,38	1506,00
-7208,26	1469,00
-7190,18	1455,00
-7172,14	1284,00
-7154,12	1380,00
-7136,15	1581,00
-7118,20	1604,00
-7100,29	1594,00
-7082,41	1493,00
-7064,57	1416,00
-7046,76	1402,00
-7028,98	1192,00
-7011,24	1116,00
-6993,53	856,00
-6975,85	886,00
-6958,20	836,00
-6940,59	854,00
-6923,01	834,00
-6905,46	938,00
-6887,94	986,00
-6870,46	1181,00
-6853,01	1383,00
-6835,59	1420,00
-6818,21	1317,00
-6800,85	1021,00
-6783,53	880,00
-6766,24	714,00
-6748,98	643,00
-6731,76	598,00
-6714,56	688,00
-6697,40	596,00
-6680,26	629,00
-6663,16	861,00
-6646,09	976,00
-6629,05	1004,00
-6612,05	1132,00
-6595,07	1156,00
-6578,13	1025,00
-6561,21	870,00
-6544,33	666,00
-6527,47	586,00
-6510,65	562,00
-6493,86	496,00
-6477,10	541,00
-6460,36	600,00
-6443,66	466,00
-6426,99	447,00
-6410,35	476,00
-6393,74	564,00
-6377,16	656,00
-6360,61	786,00
-6344,09	690,00
-6327,59	895,00
-6311,13	715,00
-6294,70	833,00
-6278,29	970,00
-6261,92	1031,00
-6245,58	1174,00
-6229,26	1156,00
-6212,97	986,00
-6196,72	800,00
-6180,49	632,00
-6164,29	455,00
-6148,12	424,00
-6131,98	231,00
-6115,86	297,00
-6099,78	377,00
-6083,72	244,00
-6067,69	295,00
-6051,69	226,00
-6035,72	236,00
-6019,78	421,00
-6003,87	582,00
-5987,98	733,00
-5972,12	704,00
-5956,29	757,00
-5940,49	610,00
-5924,71	544,00
-5908,96	390,00
-5893,24	364,00
-5877,55	491,00
-5861,89	352,00
-5846,25	339,00
-5830,64	515,00
-5815,05	457,00
-5799,50	382,00
-5783,97	430,00
-5768,47	392,00
-5752,99	535,00
-5737,55	845,00
-5722,12	717,00
-5706,73	646,00
-5691,36	618,00
-5676,02	451,00
-5660,71	388,00
-5645,42	288,00
-5630,16	371,00
-5614,92	402,00
-5599,71	549,00
-5584,53	483,00
-5569,37	542,00
-5554,24	467,00
-5539,14	510,00
-5524,06	280,00
-5509,01	499,00
-5493,98	492,00
-5478,98	342,00
-5464,00	512,00
-5449,05	461,00
-5434,13	363,00
-5419,23	239,00
-5404,36	331,00
-5389,51	430,00
-5374,69	729,00
-5359,89	869,00
-5345,12	897,00
-5330,37	753,00
-5315,65	703,00
-5300,95	510,00
-5286,28	417,00
-5271,63	339,00
-5257,01	487,00
-5242,41	528,00
-5227,84	452,00
-5213,29	343,00
-5198,76	152,00
-5184,26	328,00
-5169,79	399,00
-5155,33	450,00
-5140,91	398,00
-5126,51	532,00
-5112,13	573,00
-5097,77	416,00
-5083,44	400,00
-5069,13	363,00
-5054,85	370,00
-5040,59	390,00
-5026,36	381,00
-5012,15	532,00
-4997,96	371,00
-4983,80	305,00
-4969,66	149,00
-4955,54	367,00
-4941,44	328,00
-4927,37	602,00
-4913,33	762,00
-4899,30	728,00
-4885,30	703,00
-4871,33	479,00
-4857,37	372,00
-4843,44	123,00
-4829,53	269,00
-4815,65	412,00
-4801,79	299,00
-4787,95	314,00
-4774,13	440,00
-4760,34	367,00
-4746,56	155,00
-4732,82	241,00
-4719,09	293,00
-4705,38	583,00
-4691,70	776,00
-4678,04	775,00
-4664,41	423,00
-4650,79	359,00
-4637,20	187,00
-4623,63	248,00
-4610,08	368,00
-4596,56	504,00
-4583,05	438,00
-4569,57	465,00
-4556,11	57,00
-4542,67	168,00
-4529,25	216,00
-4515,86	421,00
-4502,49	576,00
-4489,13	592,00
-4475,80	524,00
-4462,49	412,00
-4449,21	299,00
-4435,94	336,00
-4422,70	302,00
-4409,47	395,00
-4396,27	385,00
-4383,09	192,00
-4369,93	209,00
-4356,79	188,00
-4343,67	247,00
-4330,58	184,00
-4317,50	283,00
-4304,45	337,00
-4291,41	288,00
-4278,40	178,00
-4265,41	117,00
-4252,44	242,00
-4239,49	386,00
-4226,55	399,00
-4213,65	178,00
-4200,76	251,00
-4187,89	142,00
-4175,04	199,00
-4162,21	238,00
-4149,40	160,00
-4136,61	-39,00
-4123,85	164,00
-4111,10	188,00
-4098,37	135,00
-4085,66	229,00
-4072,98	210,00
-4060,31	76,00
-4047,66	299,00
-4035,04	193,00
-4022,43	153,00
-4009,84	115,00
-3997,27	129,00
-3984,72	73,00
-3972,19	109,00
-3959,69	182,00
-3947,20	29,00
-3934,73	160,00
-3922,27	25,00
-3909,84	59,00
-3897,43	29,00
-3885,04	91,00
-3872,67	205,00
-3860,31	130,00
-3847,98	2,00
-3835,66	75,00
-3823,36	195,00
-3811,09	153,00
-3798,83	72,00
-3786,59	25,00
-3774,37	126,00
-3762,17	-35,00
-3749,98	22,00
-3737,82	100,00
-3725,67	112,00
-3713,55	112,00
-3701,44	168,00
-3689,35	113,00
-3677,28	16,00
-3665,22	151,00
-3653,19	-35,00
-3641,17	-68,00
-3629,18	136,00
-3617,20	92,00
-3605,24	-13,00
-3593,30	51,00
-3581,37	173,00
-3569,47	192,00
-3557,58	52,00
-3545,71	162,00
-3533,86	1,00
-3522,02	237,00
-3510,21	-5,00
-3498,41	109,00
-3486,63	117,00
-3474,87	133,00
-3463,12	20,00
-3451,40	46,00
-3439,69	111,00
-3428,00	121,00
-3416,33	25,00
-3404,67	92,00
-3393,03	144,00
-3381,41	91,00
-3369,81	9,00
-3358,22	69,00
-3346,66	74,00
-3335,10	28,00
-3323,57	77,00
-3312,06	131,00
-3300,56	41,00
-3289,08	73,00
-3277,61	6,00
-3266,16	-52,00
-3254,73	57,00
-3243,32	67,00
-3231,92	64,00
-3220,55	-14,00
-3209,18	66,00
-3197,84	181,00
-3186,51	-6,00
-3175,20	51,00
-3163,90	226,00
-3152,63	11,00
-3141,36	107,00
-3130,12	5,00
-3118,89	-18,00
-3107,68	-18,00
-3096,49	157,00
-3085,31	108,00
-3074,15	62,00
-3063,00	196,00
-3051,87	94,00
-3040,76	21,00
-3029,67	84,00
-3018,59	58,00
-3007,52	205,00
-2996,48	54,00
-2985,44	152,00
-2974,43	162,00
-2963,43	140,00
-2952,45	191,00
-2941,48	4,00
-2930,53	190,00
-2919,60	-36,00
-2908,68	123,00
-2897,78	88,00
-2886,89	169,00
-2876,02	1,00
-2865,17	-47,00
-2854,33	23,00
-2843,50	-12,00
-2832,70	156,00
-2821,90	-14,00
-2811,13	-41,00
-2800,37	16,00
-2789,62	216,00
-2778,89	87,00
-2768,18	79,00
-2757,48	217,00
-2746,80	131,00
-2736,13	18,00
-2725,48	-28,00
-2714,84	-10,00
-2704,22	118,00
-2693,61	190,00
-2683,02	56,00
-2672,45	-33,00
-2661,89	175,00
-2651,34	74,00
-2640,81	116,00
-2630,30	187,00
-2619,80	56,00
-2609,31	101,00
-2598,84	132,00
-2588,39	120,00
-2577,95	33,00
-2567,52	113,00
-2557,11	154,00
-2546,71	110,00
-2536,33	19,00
-2525,97	144,00
-2515,62	120,00
-2505,28	-36,00
-2494,96	103,00
-2484,65	-72,00
-2474,36	113,00
-2464,08	82,00
-2453,82	73,00
-2443,57	11,00
-2433,33	-47,00
-2423,11	78,00
-2412,91	70,00
-2402,72	120,00
-2392,54	88,00
-2382,38	-13,00
-2372,23	59,00
-2362,09	33,00
-2351,97	96,00
-2341,87	8,00
-2331,78	114,00
-2321,70	150,00
-2311,64	25,00
-2301,59	132,00
-2291,55	96,00
-2281,53	-40,00
-2271,53	179,00
-2261,53	55,00
-2251,55	86,00
-2241,59	165,00
-2231,64	71,00
-2221,70	86,00
-2211,78	-26,00
-2201,87	156,00
-2191,97	-30,00
-2182,09	31,00
-2172,22	207,00
-2162,37	135,00
-2152,53	111,00
-2142,70	112,00
-2132,89	128,00
-2123,09	41,00
-2113,30	171,00
-2103,53	13,00
-2093,77	-30,00
-2084,02	39,00
-2074,29	163,00
-2064,57	109,00
-2054,86	110,00
-2045,17	78,00
-2035,49	90,00
-2025,82	214,00
-2016,17	149,00
-2006,53	120,00
-1996,91	86,00
-1987,29	-29,00
-1977,69	194,00
-1968,11	89,00
-1958,53	151,00
-1948,97	68,00
-1939,42	97,00
-1929,89	-21,00
-1920,37	138,00
-1910,86	76,00
-1901,36	106,00
-1891,88	-65,00
-1882,41	-6,00
-1872,95	226,00
-1863,51	-28,00
-1854,08	154,00
-1844,66	198,00
-1835,26	37,00
-1825,86	185,00
-1816,48	73,00
-1807,11	46,00
-1797,76	91,00
-1788,42	165,00
-1779,09	-23,00
-1769,77	-56,00
-1760,47	-10,00
-1751,17	1,00
-1741,89	34,00
-1732,63	85,00
-1723,37	-40,00
-1714,13	-1,00
-1704,90	-87,00
-1695,68	37,00
-1686,48	44,00
-1677,29	11,00
-1668,11	196,00
-1658,94	-30,00
-1649,78	55,00
-1640,64	-15,00
-1631,51	99,00
-1622,39	93,00
-1613,28	168,00
-1604,19	105,00
-1595,10	28,00
-1586,03	151,00
-1576,97	103,00
-1567,93	36,00
-1558,89	-40,00
-1549,87	115,00
-1540,86	31,00
-1531,86	81,00
-1522,87	-37,00
-1513,90	163,00
-1504,93	169,00
-1495,98	-176,00
-1487,04	-32,00
-1478,12	74,00
-1469,20	188,00
-1460,30	18,00
-1451,40	217,00
-1442,52	57,00
-1433,65	-34,00
-1424,80	233,00
-1415,95	90,00
-1407,12	185,00
-1398,30	48,00
-1389,48	144,00
-1380,69	17,00
-1371,90	148,00
-1363,12	100,00
-1354,36	137,00
-1345,60	165,00
-1336,86	70,00
-1328,13	69,00
-1319,41	8,00
-1310,70	183,00
-1302,01	66,00
-1293,32	135,00
-1284,65	18,00
-1275,99	140,00
-1267,33	-40,00
-1258,69	44,00
-1250,06	202,00
-1241,45	109,00
-1232,84	107,00
-1224,25	32,00
-1215,66	71,00
-1207,09	7,00
-1198,53	-12,00
-1189,97	64,00
-1181,43	191,00
-1172,91	-34,00
-1164,39	9,00
-1155,88	113,00
-1147,38	-15,00
-1138,90	42,00
-1130,43	37,00
-1121,96	34,00
-1113,51	19,00
-1105,07	65,00
-1096,64	184,00
-1088,22	173,00
-1079,81	161,00
-1071,41	160,00
-1063,02	-9,00
-1054,65	182,00
-1046,28	69,00
-1037,92	55,00
-1029,58	40,00
-1021,24	76,00
-1012,92	135,00
-1004,61	156,00
-996,30	-5,00
-988,01	52,00
-979,73	209,00
-971,46	20,00
-963,20	157,00
-954,95	126,00
-946,71	144,00
-938,48	149,00
-930,26	-57,00
-922,06	156,00
-913,86	192,00
-905,67	83,00
-897,49	64,00
-889,33	157,00
-881,17	176,00
-873,02	116,00
-864,89	10,00
-856,76	83,00
-848,65	74,00
-840,54	74,00
-832,45	152,00
-824,36	95,00
-816,29	7,00
-808,22	71,00
-800,17	167,00
-792,12	6,00
-784,09	92,00
-776,06	90,00
-768,05	90,00
-760,04	106,00
-752,05	44,00
-744,07	79,00
-736,09	64,00
-728,13	142,00
-720,17	111,00
-712,23	90,00
-704,29	5,00
-696,37	18,00
-688,45	80,00
-680,55	20,00
-672,65	161,00
-664,77	137,00
-656,89	74,00
-649,03	64,00
-641,17	-27,00
-633,32	97,00
-625,49	45,00
-617,66	87,00
-609,84	-10,00
-602,03	122,00
-594,23	105,00
-586,45	67,00
-578,67	77,00
-570,90	64,00
-563,14	89,00
-555,39	46,00
-547,65	7,00
-539,91	74,00
-532,19	180,00
-524,48	121,00
-516,78	88,00
-509,08	145,00
-501,40	95,00
-493,72	28,00
-486,06	36,00
-478,40	64,00
-470,76	32,00
-463,12	-8,00
-455,49	5,00
-447,87	51,00
-440,26	71,00
-432,66	126,00
-425,07	20,00
-417,49	63,00
-409,92	43,00
-402,35	49,00
-394,80	66,00
-387,25	-8,00
-379,72	118,00
-372,19	144,00
-364,67	176,00
-357,17	58,00
-349,67	70,00
-342,18	113,00
-334,69	201,00
-327,22	54,00
-319,76	110,00
-312,30	106,00
-304,86	120,00
-297,42	155,00
-290,00	150,00
-282,58	11,00
-275,17	116,00
-267,77	214,00
-260,37	137,00
-252,99	56,00
-245,62	51,00
-238,25	125,00
-230,90	80,00
-223,55	305,00
-216,21	163,00
-208,88	263,00
-201,56	238,00
-194,25	170,00
-186,94	272,00
-179,65	255,00
-172,36	314,00
-165,08	262,00
-157,81	279,00
-150,55	165,00
-143,30	330,00
-136,06	315,00
-128,82	393,00
-121,60	381,00
-114,38	382,00
-107,17	388,00
-99,97	490,00
-92,78	542,00
-85,60	530,00
-78,42	710,00
-71,25	707,00
-64,10	1008,00
-56,95	1192,00
-49,81	1283,00
-42,67	1582,00
-35,55	2060,00
-28,43	2712,00
-21,33	4786,00
-14,23	15940,00
-7,14	47266,00
-0,05	38051,00
7,02	42597,00
14,09	41839,00
21,14	11422,00
28,19	5150,00
35,23	3357,00
42,27	2477,00
49,29	2120,00
56,31	1754,00
63,32	1432,00
70,32	1266,00
77,31	1060,00
84,29	879,00
91,27	843,00
98,23	659,00
105,19	681,00
112,14	838,00
119,09	1055,00
126,02	1685,00
132,95	1719,00
139,87	1802,00
146,78	1805,00
153,68	1623,00
160,58	1678,00
167,46	1715,00
174,34	1735,00
181,21	1627,00
188,08	1749,00
194,93	1576,00
201,78	1615,00
208,62	1593,00
215,45	1531,00
222,27	1633,00
229,09	1554,00
235,90	1619,00
242,70	1396,00
249,49	1548,00
256,27	1510,00
263,05	1407,00
269,82	1291,00
276,58	1565,00
283,33	1364,00
290,08	1564,00
296,82	1554,00
303,55	1283,00
310,27	1390,00
316,98	1212,00
323,69	1461,00
330,39	1329,00
337,08	1315,00
343,76	1245,00
350,44	1293,00
357,11	1226,00
363,77	1398,00
370,42	1274,00
377,07	1334,00
383,71	1229,00
390,34	1235,00
396,96	1303,00
403,58	1139,00
410,19	1180,00
416,79	1257,00
423,38	1304,00
429,97	1239,00
436,55	1199,00
443,12	1267,00
449,68	1187,00
456,24	1144,00
462,79	1181,00
469,33	987,00
475,86	1158,00
482,39	1129,00
488,91	1148,00
495,42	1115,00
501,93	1140,00
508,42	1138,00
514,91	1071,00
521,40	1120,00
527,87	1179,00
534,34	891,00
540,80	1065,00
547,25	1076,00
553,70	1007,00
560,14	1071,00
566,57	978,00
573,00	1015,00
579,41	1010,00
585,83	1040,00
592,23	1049,00
598,62	954,00
605,01	1044,00
611,40	977,00
617,77	934,00
624,14	1013,00
630,50	1015,00
636,85	861,00
643,20	952,00
649,54	1072,00
655,87	998,00
662,20	1044,00
668,52	980,00
674,83	948,00
681,13	977,00
687,43	956,00
693,72	868,00
700,00	1023,00
706,28	1021,00
712,55	976,00
718,81	1112,00
725,07	1003,00
731,32	973,00
737,56	1128,00
743,79	947,00
750,02	966,00
756,24	1032,00
762,46	963,00
768,67	1043,00
774,87	1093,00
781,06	1006,00
787,25	1054,00
793,43	1131,00
799,60	996,00
805,77	1069,00
811,93	965,00
818,08	1093,00
824,23	1000,00
830,37	1038,00
836,50	930,00
842,63	954,00
848,75	988,00
854,87	855,00
860,97	1078,00
867,07	1121,00
873,17	1018,00
879,25	923,00
885,33	1070,00
891,41	941,00
897,47	898,00
903,53	970,00
909,59	935,00
915,63	1024,00
921,67	1019,00
927,71	900,00
933,74	912,00
939,76	981,00
945,77	861,00
951,78	1165,00
957,78	939,00
963,78	921,00
969,77	905,00
975,75	927,00
981,72	985,00
987,69	898,00
993,66	990,00
999,61	861,00
1005,56	1077,00
1011,51	836,00
1017,44	943,00
1023,37	958,00
1029,30	929,00
1035,22	1020,00
1041,13	1080,00
1047,03	1058,00
1052,93	1460,00
1058,83	1779,00
1064,71	2026,00
1070,59	1691,00
1076,47	1346,00
1082,33	1189,00
1088,20	1257,00
1094,05	1134,00
1099,90	1049,00
1105,74	1092,00
1111,58	990,00
1117,41	1301,00
1123,23	1685,00
1129,05	2161,00
1134,86	1963,00
1140,67	1358,00
1146,47	1257,00
1152,26	1040,00
1158,05	1009,00
1163,83	1123,00
1169,60	1158,00
1175,37	1096,00
1181,13	891,00
1186,89	1041,00
1192,64	1012,00
1198,38	1001,00
1204,12	942,00
1209,85	929,00
1215,58	1011,00
1221,30	872,00
1227,02	918,00
1232,72	846,00
1238,43	871,00
1244,12	1067,00
1249,81	985,00
1255,50	1051,00
1261,17	1086,00
1266,85	1159,00
1272,51	1172,00
1278,17	1288,00
1283,83	1347,00
1289,47	2060,00
1295,12	2567,00
1300,75	2321,00
1306,38	1736,00
1312,01	1428,00
1317,63	1201,00
1323,24	1239,00
1328,85	1088,00
1334,45	1093,00
1340,04	986,00
1345,63	1147,00
1351,22	1092,00
1356,80	1112,00
1362,37	1149,00
1367,93	1288,00
1373,49	1253,00
1379,05	1233,00
1384,60	1142,00
1390,14	1097,00
1395,68	1107,00
1401,21	1251,00
1406,74	1107,00
1412,26	1592,00
1417,77	1678,00
1423,28	1693,00
1428,78	1924,00
1434,28	2200,00
1439,77	2668,00
1445,26	2543,00
1450,74	2343,00
1456,22	2018,00
1461,68	2135,00
1467,15	1795,00
1472,61	1760,00
1478,06	1545,00
1483,51	1248,00
1488,95	1288,00
1494,38	1061,00
1499,81	1024,00
1505,24	1009,00
1510,65	992,00
1516,07	975,00
1521,48	964,00
1526,88	939,00
1532,27	972,00
1537,67	1081,00
1543,05	945,00
1548,43	822,00
1553,81	864,00
1559,18	955,00
1564,54	912,00
1569,90	931,00
1575,25	752,00
1580,60	982,00
1585,94	829,00
1591,28	796,00
1596,61	959,00
1601,93	856,00
1607,25	829,00
1612,57	871,00
1617,88	935,00
1623,18	912,00
1628,48	917,00
1633,77	890,00
1639,06	966,00
1644,34	879,00
1649,62	800,00
1654,89	750,00
1660,16	843,00
1665,42	718,00
1670,67	877,00
1675,92	845,00
1681,17	822,00
1686,41	674,00
1691,64	883,00
1696,87	819,00
1702,10	763,00
1707,32	596,00
1712,53	788,00
1717,74	862,00
1722,94	683,00
1728,14	745,00
1733,33	726,00
1738,52	811,00
1743,70	826,00
1748,88	808,00
1754,05	820,00
1759,22	664,00
1764,38	667,00
1769,53	773,00
1774,69	754,00
1779,83	742,00
1784,97	722,00
1790,11	687,00
1795,24	689,00
1800,36	786,00
1805,48	804,00
1810,60	768,00
1815,71	644,00
1820,82	764,00
1825,92	737,00
1831,01	803,00
1836,10	766,00
1841,19	745,00
1846,26	689,00
1851,34	753,00
1856,41	714,00
1861,47	685,00
1866,53	674,00
1871,59	692,00
1876,64	742,00
1881,68	693,00
1886,72	714,00
1891,76	561,00
1896,79	736,00
1901,81	663,00
1906,83	699,00
1911,85	704,00
1916,86	662,00
1921,86	514,00
1926,86	663,00
1931,86	731,00
1936,85	569,00
1941,83	588,00
1946,81	695,00
1951,79	742,00
1956,76	536,00
1961,72	736,00
1966,68	640,00
1971,64	609,00
1976,59	656,00
1981,54	555,00
1986,48	626,00
1991,42	534,00
1996,35	740,00
2001,27	475,00
2006,20	690,00
2011,11	718,00
2016,03	573,00
2020,93	680,00
2025,84	536,00
2030,73	584,00
2035,63	637,00
2040,52	646,00
2045,40	506,00
2050,28	527,00
2055,15	649,00
2060,02	728,00
2064,89	588,00
2069,75	530,00
2074,60	647,00
2079,46	592,00
2084,30	628,00
2089,14	582,00
2093,98	538,00
2098,81	605,00
2103,64	610,00
2108,46	599,00
2113,28	652,00
2118,09	611,00
2122,90	686,00
2127,70	707,00
2132,50	564,00
2137,30	561,00
2142,09	637,00
2146,87	586,00
2151,66	620,00
2156,43	637,00
2161,20	595,00
2165,97	655,00
2170,73	622,00
2175,49	579,00
2180,24	609,00
2184,99	668,00
2189,74	558,00
2194,48	639,00
2199,21	567,00
2203,94	532,00
2208,67	593,00
2213,39	505,00
2218,11	542,00
2222,82	642,00
2227,53	539,00
2232,23	549,00
2236,93	635,00
2241,63	604,00
2246,32	542,00
2251,00	556,00
2255,68	584,00
2260,36	572,00
2265,03	477,00
2269,70	484,00
2274,36	618,00
2279,02	481,00
2283,68	584,00
2288,33	486,00
2292,97	587,00
2297,61	550,00
2302,25	578,00
2306,88	592,00
2311,51	572,00
2316,14	415,00
2320,75	598,00
2325,37	611,00
2329,98	471,00
2334,59	588,00
2339,19	536,00
2343,79	445,00
2348,38	553,00
2352,97	562,00
2357,55	572,00
2362,13	576,00
2366,71	535,00
2371,28	449,00
2375,85	569,00
2380,41	609,00
2384,97	465,00
2389,52	387,00
2394,07	466,00
2398,62	312,00
2403,16	528,00
2407,70	440,00
2412,23	547,00
2416,76	521,00
2421,29	539,00
2425,81	501,00
2430,32	482,00
2434,84	384,00
2439,34	520,00
2443,85	390,00
2448,35	518,00
2452,84	449,00
2457,33	438,00
2461,82	439,00
2466,30	456,00
2470,78	654,00
2475,25	481,00
2479,72	413,00
2484,19	479,00
2488,65	467,00
2493,11	395,00
2497,56	549,00
2502,01	449,00
2506,46	507,00
2510,90	463,00
2515,34	338,00
2519,77	509,00
2524,20	544,00
2528,62	449,00
2533,04	679,00
2537,46	506,00
2541,87	494,00
2546,28	431,00
2550,68	323,00
2555,08	485,00
2559,48	443,00
2563,87	486,00
2568,26	317,00
2572,64	465,00
2577,02	381,00
2581,40	482,00
2585,77	504,00
2590,14	525,00
2594,50	376,00
2598,86	499,00
2603,22	276,00
2607,57	494,00
2611,92	396,00
2616,26	548,00
2620,60	428,00
2624,94	455,00
2629,27	587,00
2633,60	532,00
2637,92	398,00
2642,24	415,00
2646,56	529,00
2650,87	520,00
2655,18	594,00
2659,48	443,00
2663,78	510,00
2668,08	538,00
2672,37	612,00
2676,66	486,00
2680,95	505,00
2685,23	383,00
2689,50	557,00
2693,78	471,00
2698,05	619,00
2702,31	450,00
2706,57	447,00
2710,83	549,00
2715,08	541,00
2719,33	690,00
2723,58	560,00
2727,82	568,00
2732,06	629,00
2736,29	600,00
2740,53	532,00
2744,75	559,00
2748,97	531,00
2753,19	569,00
2757,41	473,00
2761,62	548,00
2765,83	493,00
2770,03	527,00
2774,23	549,00
2778,43	573,00
2782,62	650,00
2786,81	507,00
2791,00	700,00
2795,18	706,00
2799,35	643,00
2803,53	695,00
2807,70	838,00
2811,86	647,00
2816,03	698,00
2820,19	755,00
2824,34	880,00
2828,49	890,00
2832,64	1112,00
2836,78	1403,00
2840,92	1861,00
2845,06	2047,00
2849,19	2338,00
2853,32	2437,00
2857,45	2438,00
2861,57	2366,00
2865,69	2080,00
2869,80	2223,00
2873,91	2148,00
2878,02	2348,00
2882,12	2575,00
2886,22	2673,00
2890,32	2332,00
2894,41	2227,00
2898,50	2016,00
2902,58	1995,00
2906,67	1687,00
2910,74	1563,00
2914,82	1510,00
2918,89	1406,00
2922,96	1227,00
2927,02	1278,00
2931,08	1150,00
2935,13	1043,00
2939,19	919,00
2943,24	888,00
2947,28	696,00
2951,32	723,00
2955,36	731,00
2959,40	601,00
2963,43	573,00
2967,46	672,00
2971,48	432,00
2975,50	584,00
2979,52	425,00
2983,53	369,00
2987,54	376,00
2991,55	423,00
2995,55	329,00
2999,55	473,00
3003,54	343,00
3007,54	371,00
3011,53	348,00
3015,51	340,00
3019,49	194,00
3023,47	230,00
3027,45	403,00
3031,42	356,00
3035,39	302,00
3039,35	262,00
3043,31	340,00
3047,27	368,00
3051,22	365,00
3055,17	348,00
3059,12	286,00
3063,06	325,00
3067,00	296,00
3070,94	290,00
3074,87	330,00
3078,80	279,00
3082,73	269,00
3086,65	136,00
3090,57	310,00
3094,49	260,00
3098,40	275,00
3102,31	280,00
3106,22	385,00
3110,12	302,00
3114,02	213,00
3117,92	254,00
3121,81	272,00
3125,70	191,00
3129,58	224,00
3133,47	201,00
3137,34	205,00
3141,22	228,00
3145,09	318,00
3148,96	178,00
3152,83	290,00
3156,69	277,00
3160,55	186,00
3164,40	218,00
3168,26	206,00
3172,10	245,00
3175,95	250,00
3179,79	105,00
3183,63	155,00
3187,47	285,00
3191,30	155,00
3195,13	143,00
3198,95	99,00
3202,78	196,00
3206,60	245,00
3210,41	158,00
3214,23	144,00
3218,03	200,00
3221,84	54,00
3225,64	154,00
3229,44	168,00
3233,24	129,00
3237,03	156,00
3240,82	109,00
3244,61	173,00
3248,39	10,00
3252,17	233,00
3255,95	129,00
3259,72	151,00
3263,49	122,00
3267,26	206,00
3271,03	180,00
3274,79	166,00
3278,54	185,00
3282,30	159,00
3286,05	145,00
3289,80	81,00
3293,54	63,00
3297,29	203,00
3301,02	188,00
3304,76	141,00
3308,49	113,00
3312,22	272,00
3315,95	74,00
3319,67	340,00
3323,39	236,00
3327,10	156,00
3330,82	217,00
3334,53	187,00
3338,24	312,00
3341,94	240,00
3345,64	218,00
3349,34	194,00
3353,03	127,00
3356,72	294,00
3360,41	255,00
3364,10	302,00
3367,78	-5,00
3371,46	151,00
3375,13	212,00
3378,81	54,00
3382,48	135,00
3386,14	114,00
3389,81	209,00
3393,47	202,00
3397,12	111,00
3400,78	42,00
3404,43	329,00
3408,08	203,00
3411,72	153,00
3415,36	168,00
3419,00	149,00
3422,64	222,00
3426,27	142,00
3429,90	115,00
3433,53	67,00
3437,15	89,00
3440,77	171,00
3444,39	221,00
3448,00	-45,00
3451,62	178,00
3455,22	160,00
3458,83	148,00
3462,43	207,00
3466,03	-8,00
3469,63	204,00
3473,22	76,00
3476,81	172,00
3480,40	27,00
3483,99	64,00
3487,57	54,00
3491,15	22,00
3494,72	59,00
3498,29	151,00
3501,86	105,00
3505,43	51,00
3508,99	146,00
3512,56	136,00
3516,11	153,00
3519,67	96,00
3523,22	167,00
3526,77	65,00
3530,32	137,00
3533,86	59,00
3537,40	145,00
3540,94	59,00
3544,47	177,00
3548,00	140,00
3551,53	92,00
3555,06	29,00
3558,58	120,00
3562,10	54,00
3565,62	194,00
3569,13	6,00
3572,64	48,00
3576,15	139,00
3579,66	119,00
3583,16	91,00
3586,66	-37,00
3590,16	55,00
3593,65	94,00
3597,14	54,00
3600,63	73,00
3604,11	90,00
3607,60	53,00
3611,08	171,00
3614,55	13,00
3618,03	94,00
3621,50	148,00
3624,97	51,00
3628,43	80,00
3631,90	125,00
3635,36	39,00
3638,81	120,00
3642,27	18,00
3645,72	187,00
3649,17	-43,00
3652,61	80,00
3656,06	198,00
3659,50	73,00
3662,93	106,00
3666,37	6,00
3669,80	202,00
3673,23	159,00
3676,65	137,00
3680,08	-14,00
3683,50	23,00
3686,92	158,00
3690,33	47,00
3693,74	93,00
3697,15	116,00
3700,56	-68,00
3703,96	61,00
3707,36	38,00
3710,76	9,00
3714,16	152,00
3717,55	4,00
3720,94	41,00
3724,33	-4,00
3727,71	-11,00
3731,10	141,00
3734,48	152,00
3737,85	88,00
3741,23	23,00
3744,60	207,00
3747,97	41,00
3751,33	-14,00
3754,69	119,00
3758,05	273,00
3761,41	-12,00
3764,77	138,00
3768,12	133,00
3771,47	140,00
3774,82	28,00
3778,16	3,00
3781,50	1,00
3784,84	2,00
3788,18	12,00
>>>>>End Processed Spectral Data<<<<<
