SpectraSuite Data File
++++++++++++++++++++++++++++++++++++
Date: Tue Mar 03 12:40:16 ICT 2026
User: user
Dark Spectrum Present: Yes
Reference Spectrum Present: No
Number of Sampled Component Spectra: 1
Spectrometers: MAYP113682
Integration Time (usec): 3000000 (MAYP113682)
Spectra Averaged: 1 (MAYP113682)
Boxcar Smoothing: 0 (MAYP113682)
Correct for Electrical Dark: No (MAYP113682)
Strobe/Lamp Enabled: No (MAYP113682)
Correct for Detector Non-linearity: No (MAYP113682)
Correct for Stray Light: No (MAYP113682)
Number of Pixels in Processed Spectrum: 2068
>>>>>Begin Processed Spectral Data<<<<<
-37534,58	3,00
-37414,56	2,00
-37295,11	-3,00
-37176,24	-9,00
-37057,95	-56,00
-36940,22	18,00
-36823,05	57,00
-36706,45	82,00
-36590,40	70,00
-36474,90	74,00
-36359,95	84,00
-36245,55	232,00
-36131,68	71,00
-36018,35	32,00
-35905,55	48,00
-35793,29	95,00
-35681,54	172,00
-35570,32	-24,00
-35459,62	-6,00
-35349,43	89,00
-35239,75	283,00
-35130,58	149,00
-35021,91	115,00
-34913,74	190,00
-34806,07	95,00
-34698,89	75,00
-34592,20	96,00
-34486,00	87,00
-34380,28	2,00
-34275,04	-6,00
-34170,27	75,00
-34065,98	60,00
-33962,16	69,00
-33858,81	59,00
-33755,92	103,00
-33653,49	102,00
-33551,52	190,00
-33450,01	199,00
-33348,94	46,00
-33248,33	18,00
-33148,16	70,00
-33048,43	151,00
-32949,14	-25,00
-32850,29	146,00
-32751,87	136,00
-32653,89	100,00
-32556,33	98,00
-32459,20	159,00
-32362,49	73,00
-32266,19	43,00
-32170,32	128,00
-32074,86	54,00
-31979,82	152,00
-31885,18	-80,00
-31790,95	-8,00
-31697,12	48,00
-31603,69	62,00
-31510,67	49,00
-31418,04	108,00
-31325,80	52,00
-31233,95	207,00
-31142,49	90,00
-31051,42	93,00
-30960,73	216,00
-30870,43	172,00
-30780,50	157,00
-30690,95	169,00
-30601,77	150,00
-30512,97	96,00
-30424,53	159,00
-30336,46	69,00
-30248,76	113,00
-30161,42	102,00
-30074,44	167,00
-29987,81	207,00
-29901,55	83,00
-29815,63	-16,00
-29730,07	-15,00
-29644,86	57,00
-29560,00	174,00
-29475,48	13,00
-29391,30	118,00
-29307,47	87,00
-29223,97	11,00
-29140,81	91,00
-29057,99	138,00
-28975,50	187,00
-28893,34	145,00
-28811,51	66,00
-28730,00	109,00
-28648,82	125,00
-28567,97	63,00
-28487,43	39,00
-28407,21	76,00
-28327,32	-13,00
-28247,73	108,00
-28168,46	72,00
-28089,50	112,00
-28010,85	-57,00
-27932,51	189,00
-27854,48	-47,00
-27776,75	-26,00
-27699,32	129,00
-27622,19	150,00
-27545,37	107,00
-27468,84	86,00
-27392,60	74,00
-27316,66	48,00
-27241,01	17,00
-27165,66	149,00
-27090,59	32,00
-27015,81	154,00
-26941,31	120,00
-26867,10	176,00
-26793,17	41,00
-26719,52	49,00
-26646,15	143,00
-26573,06	224,00
-26500,24	21,00
-26427,70	82,00
-26355,43	212,00
-26283,43	91,00
-26211,71	124,00
-26140,25	84,00
-26069,06	120,00
-25998,13	3,00
-25927,46	97,00
-25857,06	135,00
-25786,92	76,00
-25717,04	22,00
-25647,42	53,00
-25578,05	80,00
-25508,94	64,00
-25440,09	34,00
-25371,48	108,00
-25303,13	33,00
-25235,02	88,00
-25167,17	54,00
-25099,56	114,00
-25032,19	168,00
-24965,07	24,00
-24898,20	-9,00
-24831,56	77,00
-24765,17	88,00
-24699,01	243,00
-24633,10	138,00
-24567,41	38,00
-24501,97	72,00
-24436,75	-17,00
-24371,77	126,00
-24307,03	94,00
-24242,51	89,00
-24178,22	200,00
-24114,16	75,00
-24050,32	93,00
-23986,71	112,00
-23923,32	178,00
-23860,16	62,00
-23797,22	120,00
-23734,50	56,00
-23672,00	78,00
-23609,71	322,00
-23547,65	40,00
-23485,80	49,00
-23424,16	82,00
-23362,74	138,00
-23301,53	80,00
-23240,54	41,00
-23179,75	139,00
-23119,17	88,00
-23058,80	167,00
-22998,64	84,00
-22938,68	104,00
-22878,93	104,00
-22819,39	107,00
-22760,04	6,00
-22700,90	85,00
-22641,96	-54,00
-22583,22	57,00
-22524,68	69,00
-22466,33	34,00
-22408,19	145,00
-22350,23	110,00
-22292,48	71,00
-22234,92	90,00
-22177,55	101,00
-22120,37	-21,00
-22063,38	156,00
-22006,58	151,00
-21949,98	113,00
-21893,56	191,00
-21837,33	37,00
-21781,28	105,00
-21725,42	104,00
-21669,74	204,00
-21614,25	48,00
-21558,94	162,00
-21503,81	157,00
-21448,86	-15,00
-21394,10	41,00
-21339,51	153,00
-21285,10	-45,00
-21230,86	14,00
-21176,81	124,00
-21122,93	214,00
-21069,22	224,00
-21015,69	131,00
-20962,33	154,00
-20909,14	-51,00
-20856,13	32,00
-20803,28	7,00
-20750,61	103,00
-20698,10	85,00
-20645,76	119,00
-20593,59	96,00
-20541,59	149,00
-20489,75	73,00
-20438,07	127,00
-20386,56	93,00
-20335,22	124,00
-20284,03	46,00
-20233,01	60,00
-20182,15	18,00
-20131,45	115,00
-20080,91	57,00
-20030,52	37,00
-19980,30	39,00
-19930,23	31,00
-19880,32	-6,00
-19830,56	46,00
-19780,96	-1,00
-19731,52	103,00
-19682,23	-13,00
-19633,09	58,00
-19584,10	232,00
-19535,26	140,00
-19486,58	54,00
-19438,04	-75,00
-19389,66	52,00
-19341,42	47,00
-19293,33	-16,00
-19245,39	161,00
-19197,60	125,00
-19149,95	154,00
-19102,45	-48,00
-19055,09	71,00
-19007,87	187,00
-18960,80	66,00
-18913,87	136,00
-18867,09	-20,00
-18820,44	84,00
-18773,94	137,00
-18727,57	127,00
-18681,35	85,00
-18635,26	170,00
-18589,31	120,00
-18543,50	100,00
-18497,83	-28,00
-18452,29	20,00
-18406,89	-2,00
-18361,63	116,00
-18316,50	-72,00
-18271,50	5,00
-18226,63	158,00
-18181,90	75,00
-18137,30	235,00
-18092,84	85,00
-18048,50	129,00
-18004,29	52,00
-17960,22	208,00
-17916,27	64,00
-17872,45	184,00
-17828,76	35,00
-17785,20	-31,00
-17741,77	59,00
-17698,46	168,00
-17655,28	160,00
-17612,22	35,00
-17569,29	144,00
-17526,48	42,00
-17483,79	67,00
-17441,23	-37,00
-17398,79	125,00
-17356,48	176,00
-17314,28	173,00
-17272,21	104,00
-17230,26	130,00
-17188,42	180,00
-17146,71	235,00
-17105,12	7,00
-17063,64	96,00
-17022,28	177,00
-16981,04	53,00
-16939,92	152,00
-16898,91	49,00
-16858,02	14,00
-16817,25	93,00
-16776,59	140,00
-16736,04	104,00
-16695,61	140,00
-16655,29	57,00
-16615,09	-33,00
-16574,99	47,00
-16535,01	39,00
-16495,15	177,00
-16455,39	100,00
-16415,74	39,00
-16376,21	46,00
-16336,78	-43,00
-16297,46	94,00
-16258,26	239,00
-16219,16	106,00
-16180,17	160,00
-16141,28	196,00
-16102,51	-12,00
-16063,84	115,00
-16025,27	88,00
-15986,82	143,00
-15948,46	-47,00
-15910,22	187,00
-15872,07	109,00
-15834,04	54,00
-15796,10	72,00
-15758,27	159,00
-15720,54	61,00
-15682,91	70,00
-15645,39	35,00
-15607,97	138,00
-15570,64	62,00
-15533,42	51,00
-15496,30	73,00
-15459,28	91,00
-15422,36	82,00
-15385,54	-11,00
-15348,82	82,00
-15312,19	115,00
-15275,66	96,00
-15239,23	58,00
-15202,90	30,00
-15166,67	150,00
-15130,53	7,00
-15094,48	102,00
-15058,54	106,00
-15022,68	92,00
-14986,93	128,00
-14951,26	121,00
-14915,69	10,00
-14880,22	126,00
-14844,84	-52,00
-14809,55	27,00
-14774,35	68,00
-14739,25	157,00
-14704,24	-1,00
-14669,32	65,00
-14634,49	153,00
-14599,75	119,00
-14565,10	131,00
-14530,55	79,00
-14496,08	274,00
-14461,70	86,00
-14427,41	146,00
-14393,21	62,00
-14359,10	120,00
-14325,07	176,00
-14291,14	260,00
-14257,29	96,00
-14223,52	24,00
-14189,85	72,00
-14156,26	100,00
-14122,76	49,00
-14089,34	57,00
-14056,01	108,00
-14022,76	138,00
-13989,60	41,00
-13956,52	78,00
-13923,53	88,00
-13890,62	154,00
-13857,79	-24,00
-13825,05	232,00
-13792,39	55,00
-13759,81	174,00
-13727,31	54,00
-13694,90	-7,00
-13662,57	206,00
-13630,31	23,00
-13598,14	128,00
-13566,05	95,00
-13534,05	17,00
-13502,12	98,00
-13470,27	39,00
-13438,50	-92,00
-13406,80	190,00
-13375,19	60,00
-13343,66	16,00
-13312,20	171,00
-13280,83	44,00
-13249,53	172,00
-13218,30	112,00
-13187,16	52,00
-13156,09	9,00
-13125,10	150,00
-13094,18	136,00
-13063,34	-2,00
-13032,58	120,00
-13001,89	84,00
-12971,28	176,00
-12940,74	108,00
-12910,27	144,00
-12879,88	113,00
-12849,57	140,00
-12819,33	121,00
-12789,16	166,00
-12759,06	29,00
-12729,04	42,00
-12699,09	160,00
-12669,21	122,00
-12639,41	-40,00
-12609,68	66,00
-12580,02	72,00
-12550,43	57,00
-12520,91	119,00
-12491,46	35,00
-12462,08	54,00
-12432,77	58,00
-12403,54	43,00
-12374,37	80,00
-12345,27	-33,00
-12316,24	57,00
-12287,29	99,00
-12258,40	10,00
-12229,57	106,00
-12200,82	114,00
-12172,14	17,00
-12143,52	75,00
-12114,97	32,00
-12086,49	165,00
-12058,07	60,00
-12029,73	-26,00
-12001,44	98,00
-11973,23	-47,00
-11945,08	148,00
-11917,00	39,00
-11888,98	243,00
-11861,03	159,00
-11833,15	146,00
-11805,32	125,00
-11777,57	148,00
-11749,88	180,00
-11722,25	163,00
-11694,69	93,00
-11667,19	-10,00
-11639,75	64,00
-11612,38	176,00
-11585,07	51,00
-11557,83	151,00
-11530,65	74,00
-11503,53	201,00
-11476,47	13,00
-11449,48	127,00
-11422,54	152,00
-11395,67	83,00
-11368,86	143,00
-11342,11	-8,00
-11315,43	68,00
-11288,80	102,00
-11262,23	246,00
-11235,73	95,00
-11209,28	77,00
-11182,90	85,00
-11156,57	83,00
-11130,31	174,00
-11104,10	193,00
-11077,96	149,00
-11051,87	240,00
-11025,84	138,00
-10999,87	119,00
-10973,96	52,00
-10948,11	173,00
-10922,31	19,00
-10896,58	244,00
-10870,90	138,00
-10845,28	66,00
-10819,71	118,00
-10794,20	156,00
-10768,75	135,00
-10743,36	230,00
-10718,02	143,00
-10692,74	138,00
-10667,52	203,00
-10642,35	120,00
-10617,24	245,00
-10592,18	266,00
-10567,18	226,00
-10542,23	216,00
-10517,34	269,00
-10492,51	236,00
-10467,72	309,00
-10443,00	371,00
-10418,32	280,00
-10393,70	344,00
-10369,14	293,00
-10344,63	309,00
-10320,17	321,00
-10295,77	329,00
-10271,42	317,00
-10247,12	273,00
-10222,88	378,00
-10198,68	515,00
-10174,54	405,00
-10150,46	595,00
-10126,42	423,00
-10102,44	435,00
-10078,51	584,00
-10054,63	587,00
-10030,80	672,00
-10007,03	603,00
-9983,30	615,00
-9959,63	676,00
-9936,01	809,00
-9912,44	727,00
-9888,92	714,00
-9865,44	725,00
-9842,02	832,00
-9818,65	1015,00
-9795,33	801,00
-9772,06	925,00
-9748,84	938,00
-9725,67	993,00
-9702,55	1182,00
-9679,47	1400,00
-9656,45	1591,00
-9633,47	1615,00
-9610,55	1634,00
-9587,67	1602,00
-9564,84	1742,00
-9542,06	1906,00
-9519,32	2120,00
-9496,64	2466,00
-9474,00	2493,00
-9451,41	2594,00
-9428,87	2599,00
-9406,37	2424,00
-9383,92	2165,00
-9361,52	2120,00
-9339,17	2110,00
-9316,86	2615,00
-9294,60	2879,00
-9272,38	3261,00
-9250,21	3275,00
-9228,09	3456,00
-9206,01	3269,00
-9183,98	2999,00
-9162,00	2504,00
-9140,06	2472,00
-9118,16	2321,00
-9096,31	2553,00
-9074,51	2612,00
-9052,75	2564,00
-9031,04	2472,00
-9009,37	2318,00
-8987,74	2014,00
-8966,16	1883,00
-8944,63	1600,00
-8923,14	1346,00
-8901,69	1617,00
-8880,29	1808,00
-8858,93	1986,00
-8837,61	2242,00
-8816,34	2481,00
-8795,11	2376,00
-8773,92	2272,00
-8752,78	1921,00
-8731,68	1878,00
-8710,62	1814,00
-8689,61	1963,00
-8668,63	2106,00
-8647,70	2182,00
-8626,82	2320,00
-8605,97	2197,00
-8585,17	2121,00
-8564,41	1863,00
-8543,69	1638,00
-8523,01	1637,00
-8502,37	1776,00
-8481,78	1740,00
-8461,23	1746,00
-8440,71	2100,00
-8420,24	2111,00
-8399,81	2054,00
-8379,42	2281,00
-8359,08	1935,00
-8338,77	1710,00
-8318,50	1615,00
-8298,27	1634,00
-8278,09	1746,00
-8257,94	1713,00
-8237,83	1859,00
-8217,76	1980,00
-8197,74	2034,00
-8177,75	1980,00
-8157,80	1726,00
-8137,89	1714,00
-8118,02	1696,00
-8098,19	1579,00
-8078,40	1622,00
-8058,65	1705,00
-8038,93	1791,00
-8019,26	1682,00
-7999,62	1724,00
-7980,02	1600,00
-7960,46	1575,00
-7940,94	1486,00
-7921,46	1482,00
-7902,01	1419,00
-7882,60	1459,00
-7863,23	1402,00
-7843,90	1561,00
-7824,61	1608,00
-7805,35	1634,00
-7786,13	1856,00
-7766,95	1660,00
-7747,80	1418,00
-7728,69	1659,00
-7709,62	1440,00
-7690,59	1575,00
-7671,59	1584,00
-7652,63	1754,00
-7633,70	1681,00
-7614,81	1847,00
-7595,96	1528,00
-7577,15	1394,00
-7558,37	1272,00
-7539,62	1527,00
-7520,91	1638,00
-7502,24	1657,00
-7483,60	1704,00
-7465,00	1551,00
-7446,44	1465,00
-7427,91	1396,00
-7409,41	1233,00
-7390,95	1057,00
-7372,53	1166,00
-7354,14	1121,00
-7335,78	1056,00
-7317,46	1177,00
-7299,18	1313,00
-7280,92	1482,00
-7262,71	1535,00
-7244,52	1685,00
-7226,38	1637,00
-7208,26	1520,00
-7190,18	1629,00
-7172,14	1434,00
-7154,12	1506,00
-7136,15	1605,00
-7118,20	1616,00
-7100,29	1669,00
-7082,41	1604,00
-7064,57	1574,00
-7046,76	1498,00
-7028,98	1243,00
-7011,24	1175,00
-6993,53	936,00
-6975,85	931,00
-6958,20	775,00
-6940,59	862,00
-6923,01	834,00
-6905,46	1097,00
-6887,94	1148,00
-6870,46	-1506,00
-6853,01	1540,00
-6835,59	1581,00
-6818,21	1327,00
-6800,85	1152,00
-6783,53	995,00
-6766,24	783,00
-6748,98	793,00
-6731,76	668,00
-6714,56	736,00
-6697,40	738,00
-6680,26	663,00
-6663,16	838,00
-6646,09	1037,00
-6629,05	1088,00
-6612,05	1161,00
-6595,07	1183,00
-6578,13	1088,00
-6561,21	991,00
-6544,33	713,00
-6527,47	607,00
-6510,65	499,00
-6493,86	493,00
-6477,10	584,00
-6460,36	604,00
-6443,66	586,00
-6426,99	493,00
-6410,35	605,00
-6393,74	611,00
-6377,16	629,00
-6360,61	879,00
-6344,09	870,00
-6327,59	950,00
-6311,13	814,00
-6294,70	961,00
-6278,29	940,00
-6261,92	976,00
-6245,58	1171,00
-6229,26	1259,00
-6212,97	1020,00
-6196,72	840,00
-6180,49	680,00
-6164,29	456,00
-6148,12	425,00
-6131,98	241,00
-6115,86	411,00
-6099,78	410,00
-6083,72	166,00
-6067,69	289,00
-6051,69	288,00
-6035,72	293,00
-6019,78	392,00
-6003,87	528,00
-5987,98	894,00
-5972,12	706,00
-5956,29	764,00
-5940,49	671,00
-5924,71	638,00
-5908,96	484,00
-5893,24	303,00
-5877,55	475,00
-5861,89	317,00
-5846,25	441,00
-5830,64	438,00
-5815,05	449,00
-5799,50	311,00
-5783,97	406,00
-5768,47	571,00
-5752,99	599,00
-5737,55	923,00
-5722,12	786,00
-5706,73	843,00
-5691,36	617,00
-5676,02	336,00
-5660,71	393,00
-5645,42	313,00
-5630,16	411,00
-5614,92	318,00
-5599,71	550,00
-5584,53	601,00
-5569,37	551,00
-5554,24	1682,00
-5539,14	519,00
-5524,06	412,00
-5509,01	582,00
-5493,98	623,00
-5478,98	492,00
-5464,00	508,00
-5449,05	381,00
-5434,13	362,00
-5419,23	375,00
-5404,36	298,00
-5389,51	510,00
-5374,69	818,00
-5359,89	953,00
-5345,12	933,00
-5330,37	919,00
-5315,65	685,00
-5300,95	619,00
-5286,28	465,00
-5271,63	467,00
-5257,01	441,00
-5242,41	557,00
-5227,84	562,00
-5213,29	465,00
-5198,76	194,00
-5184,26	334,00
-5169,79	347,00
-5155,33	484,00
-5140,91	444,00
-5126,51	641,00
-5112,13	655,00
-5097,77	557,00
-5083,44	550,00
-5069,13	242,00
-5054,85	388,00
-5040,59	430,00
-5026,36	495,00
-5012,15	624,00
-4997,96	510,00
-4983,80	399,00
-4969,66	280,00
-4955,54	382,00
-4941,44	400,00
-4927,37	555,00
-4913,33	765,00
-4899,30	737,00
-4885,30	885,00
-4871,33	543,00
-4857,37	305,00
-4843,44	234,00
-4829,53	338,00
-4815,65	424,00
-4801,79	368,00
-4787,95	410,00
-4774,13	371,00
-4760,34	314,00
-4746,56	147,00
-4732,82	216,00
-4719,09	252,00
-4705,38	590,00
-4691,70	784,00
-4678,04	709,00
-4664,41	557,00
-4650,79	503,00
-4637,20	318,00
-4623,63	267,00
-4610,08	349,00
-4596,56	462,00
-4583,05	502,00
-4569,57	555,00
-4556,11	159,00
-4542,67	261,00
-4529,25	168,00
-4515,86	470,00
-4502,49	676,00
-4489,13	555,00
-4475,80	556,00
-4462,49	378,00
-4449,21	291,00
-4435,94	216,00
-4422,70	329,00
-4409,47	403,00
-4396,27	450,00
-4383,09	337,00
-4369,93	204,00
-4356,79	141,00
-4343,67	251,00
-4330,58	329,00
-4317,50	265,00
-4304,45	401,00
-4291,41	285,00
-4278,40	214,00
-4265,41	102,00
-4252,44	306,00
-4239,49	349,00
-4226,55	317,00
-4213,65	305,00
-4200,76	295,00
-4187,89	118,00
-4175,04	69,00
-4162,21	182,00
-4149,40	195,00
-4136,61	77,00
-4123,85	153,00
-4111,10	231,00
-4098,37	140,00
-4085,66	240,00
-4072,98	98,00
-4060,31	112,00
-4047,66	200,00
-4035,04	218,00
-4022,43	146,00
-4009,84	133,00
-3997,27	85,00
-3984,72	149,00
-3972,19	141,00
-3959,69	132,00
-3947,20	62,00
-3934,73	137,00
-3922,27	198,00
-3909,84	23,00
-3897,43	63,00
-3885,04	-59,00
-3872,67	156,00
-3860,31	82,00
-3847,98	166,00
-3835,66	171,00
-3823,36	115,00
-3811,09	227,00
-3798,83	83,00
-3786,59	164,00
-3774,37	205,00
-3762,17	-20,00
-3749,98	32,00
-3737,82	102,00
-3725,67	133,00
-3713,55	37,00
-3701,44	106,00
-3689,35	180,00
-3677,28	18,00
-3665,22	156,00
-3653,19	144,00
-3641,17	75,00
-3629,18	114,00
-3617,20	9,00
-3605,24	-40,00
-3593,30	99,00
-3581,37	75,00
-3569,47	119,00
-3557,58	-10,00
-3545,71	105,00
-3533,86	-3,00
-3522,02	148,00
-3510,21	100,00
-3498,41	107,00
-3486,63	184,00
-3474,87	73,00
-3463,12	43,00
-3451,40	72,00
-3439,69	183,00
-3428,00	40,00
-3416,33	104,00
-3404,67	97,00
-3393,03	250,00
-3381,41	96,00
-3369,81	-4,00
-3358,22	157,00
-3346,66	72,00
-3335,10	51,00
-3323,57	196,00
-3312,06	190,00
-3300,56	44,00
-3289,08	-29,00
-3277,61	122,00
-3266,16	-80,00
-3254,73	137,00
-3243,32	69,00
-3231,92	30,00
-3220,55	-24,00
-3209,18	184,00
-3197,84	146,00
-3186,51	22,00
-3175,20	91,00
-3163,90	284,00
-3152,63	12,00
-3141,36	41,00
-3130,12	-28,00
-3118,89	62,00
-3107,68	99,00
-3096,49	-7,00
-3085,31	10,00
-3074,15	212,00
-3063,00	46,00
-3051,87	128,00
-3040,76	174,00
-3029,67	90,00
-3018,59	53,00
-3007,52	169,00
-2996,48	131,00
-2985,44	99,00
-2974,43	226,00
-2963,43	169,00
-2952,45	109,00
-2941,48	149,00
-2930,53	129,00
-2919,60	112,00
-2908,68	254,00
-2897,78	139,00
-2886,89	85,00
-2876,02	39,00
-2865,17	-23,00
-2854,33	-19,00
-2843,50	102,00
-2832,70	116,00
-2821,90	71,00
-2811,13	-70,00
-2800,37	-43,00
-2789,62	187,00
-2778,89	76,00
-2768,18	131,00
-2757,48	146,00
-2746,80	155,00
-2736,13	6,00
-2725,48	79,00
-2714,84	77,00
-2704,22	67,00
-2693,61	127,00
-2683,02	83,00
-2672,45	-7,00
-2661,89	132,00
-2651,34	130,00
-2640,81	95,00
-2630,30	122,00
-2619,80	80,00
-2609,31	-10,00
-2598,84	153,00
-2588,39	54,00
-2577,95	184,00
-2567,52	65,00
-2557,11	125,00
-2546,71	49,00
-2536,33	4,00
-2525,97	69,00
-2515,62	5,00
-2505,28	3,00
-2494,96	47,00
-2484,65	5,00
-2474,36	34,00
-2464,08	202,00
-2453,82	112,00
-2443,57	31,00
-2433,33	-16,00
-2423,11	59,00
-2412,91	72,00
-2402,72	86,00
-2392,54	137,00
-2382,38	84,00
-2372,23	165,00
-2362,09	-132,00
-2351,97	176,00
-2341,87	45,00
-2331,78	77,00
-2321,70	147,00
-2311,64	77,00
-2301,59	90,00
-2291,55	162,00
-2281,53	68,00
-2271,53	163,00
-2261,53	-38,00
-2251,55	11,00
-2241,59	113,00
-2231,64	70,00
-2221,70	59,00
-2211,78	143,00
-2201,87	126,00
-2191,97	25,00
-2182,09	40,00
-2172,22	189,00
-2162,37	148,00
-2152,53	149,00
-2142,70	66,00
-2132,89	176,00
-2123,09	90,00
-2113,30	116,00
-2103,53	69,00
-2093,77	-77,00
-2084,02	35,00
-2074,29	134,00
-2064,57	159,00
-2054,86	153,00
-2045,17	42,00
-2035,49	210,00
-2025,82	190,00
-2016,17	71,00
-2006,53	118,00
-1996,91	33,00
-1987,29	5,00
-1977,69	122,00
-1968,11	109,00
-1958,53	226,00
-1948,97	98,00
-1939,42	60,00
-1929,89	52,00
-1920,37	214,00
-1910,86	37,00
-1901,36	79,00
-1891,88	111,00
-1882,41	39,00
-1872,95	207,00
-1863,51	13,00
-1854,08	116,00
-1844,66	117,00
-1835,26	96,00
-1825,86	40,00
-1816,48	131,00
-1807,11	-19,00
-1797,76	152,00
-1788,42	189,00
-1779,09	103,00
-1769,77	131,00
-1760,47	55,00
-1751,17	92,00
-1741,89	81,00
-1732,63	89,00
-1723,37	-24,00
-1714,13	63,00
-1704,90	77,00
-1695,68	178,00
-1686,48	46,00
-1677,29	81,00
-1668,11	144,00
-1658,94	97,00
-1649,78	41,00
-1640,64	142,00
-1631,51	62,00
-1622,39	131,00
-1613,28	122,00
-1604,19	83,00
-1595,10	-19,00
-1586,03	160,00
-1576,97	113,00
-1567,93	70,00
-1558,89	-22,00
-1549,87	184,00
-1540,86	182,00
-1531,86	126,00
-1522,87	-106,00
-1513,90	182,00
-1504,93	128,00
-1495,98	0,00
-1487,04	172,00
-1478,12	144,00
-1469,20	134,00
-1460,30	144,00
-1451,40	200,00
-1442,52	3,00
-1433,65	62,00
-1424,80	250,00
-1415,95	100,00
-1407,12	193,00
-1398,30	128,00
-1389,48	75,00
-1380,69	46,00
-1371,90	177,00
-1363,12	125,00
-1354,36	127,00
-1345,60	55,00
-1336,86	56,00
-1328,13	49,00
-1319,41	44,00
-1310,70	194,00
-1302,01	0,00
-1293,32	184,00
-1284,65	144,00
-1275,99	192,00
-1267,33	80,00
-1258,69	36,00
-1250,06	48,00
-1241,45	152,00
-1232,84	184,00
-1224,25	6,00
-1215,66	193,00
-1207,09	1,00
-1198,53	63,00
-1189,97	38,00
-1181,43	224,00
-1172,91	20,00
-1164,39	93,00
-1155,88	127,00
-1147,38	35,00
-1138,90	244,00
-1130,43	68,00
-1121,96	-33,00
-1113,51	60,00
-1105,07	92,00
-1096,64	187,00
-1088,22	133,00
-1079,81	161,00
-1071,41	120,00
-1063,02	-35,00
-1054,65	187,00
-1046,28	100,00
-1037,92	46,00
-1029,58	194,00
-1021,24	87,00
-1012,92	123,00
-1004,61	27,00
-996,30	147,00
-988,01	65,00
-979,73	286,00
-971,46	92,00
-963,20	105,00
-954,95	73,00
-946,71	15,00
-938,48	93,00
-930,26	-64,00
-922,06	39,00
-913,86	159,00
-905,67	152,00
-897,49	75,00
-889,33	288,00
-881,17	125,00
-873,02	121,00
-864,89	48,00
-856,76	32,00
-848,65	232,00
-840,54	79,00
-832,45	119,00
-824,36	117,00
-816,29	129,00
-808,22	119,00
-800,17	196,00
-792,12	59,00
-784,09	148,00
-776,06	135,00
-768,05	58,00
-760,04	111,00
-752,05	48,00
-744,07	173,00
-736,09	75,00
-728,13	118,00
-720,17	112,00
-712,23	131,00
-704,29	0,00
-696,37	175,00
-688,45	55,00
-680,55	76,00
-672,65	278,00
-664,77	151,00
-656,89	104,00
-649,03	133,00
-641,17	47,00
-633,32	149,00
-625,49	79,00
-617,66	189,00
-609,84	-26,00
-602,03	3,00
-594,23	75,00
-586,45	141,00
-578,67	207,00
-570,90	68,00
-563,14	154,00
-555,39	211,00
-547,65	19,00
-539,91	174,00
-532,19	125,00
-524,48	85,00
-516,78	136,00
-509,08	120,00
-501,40	177,00
-493,72	169,00
-486,06	128,00
-478,40	204,00
-470,76	41,00
-463,12	62,00
-455,49	170,00
-447,87	97,00
-440,26	-3,00
-432,66	86,00
-425,07	38,00
-417,49	116,00
-409,92	154,00
-402,35	24,00
-394,80	161,00
-387,25	98,00
-379,72	92,00
-372,19	213,00
-364,67	282,00
-357,17	13,00
-349,67	144,00
-342,18	184,00
-334,69	176,00
-327,22	68,00
-319,76	59,00
-312,30	143,00
-304,86	81,00
-297,42	132,00
-290,00	165,00
-282,58	92,00
-275,17	250,00
-267,77	197,00
-260,37	232,00
-252,99	133,00
-245,62	49,00
-238,25	200,00
-230,90	136,00
-223,55	296,00
-216,21	152,00
-208,88	254,00
-201,56	188,00
-194,25	138,00
-186,94	171,00
-179,65	328,00
-172,36	186,00
-165,08	227,00
-157,81	279,00
-150,55	297,00
-143,30	349,00
-136,06	390,00
-128,82	344,00
-121,60	443,00
-114,38	292,00
-107,17	399,00
-99,97	481,00
-92,78	472,00
-85,60	488,00
-78,42	719,00
-71,25	742,00
-64,10	1038,00
-56,95	1139,00
-49,81	1216,00
-42,67	1513,00
-35,55	1821,00
-28,43	2680,00
-21,33	4515,00
-14,23	15286,00
-7,14	47266,00
-0,05	38051,00
7,02	42597,00
14,09	39846,00
21,14	10843,00
28,19	4769,00
35,23	3030,00
42,27	2218,00
49,29	2076,00
56,31	1594,00
63,32	1264,00
70,32	1290,00
77,31	1024,00
84,29	875,00
91,27	706,00
98,23	668,00
105,19	634,00
112,14	775,00
119,09	958,00
126,02	1373,00
132,95	1463,00
139,87	1538,00
146,78	1461,00
153,68	1265,00
160,58	1437,00
167,46	1397,00
174,34	1521,00
181,21	1389,00
188,08	1394,00
194,93	1254,00
201,78	1303,00
208,62	1353,00
215,45	1265,00
222,27	1387,00
229,09	1203,00
235,90	1301,00
242,70	1128,00
249,49	1274,00
256,27	1192,00
263,05	1155,00
269,82	1027,00
276,58	1224,00
283,33	1071,00
290,08	1332,00
296,82	1087,00
303,55	1035,00
310,27	1142,00
316,98	991,00
323,69	1135,00
330,39	1142,00
337,08	1031,00
343,76	1028,00
350,44	1039,00
357,11	938,00
363,77	1023,00
370,42	1067,00
377,07	1056,00
383,71	980,00
390,34	983,00
396,96	1043,00
403,58	997,00
410,19	975,00
416,79	977,00
423,38	1073,00
429,97	923,00
436,55	1051,00
443,12	992,00
449,68	931,00
456,24	875,00
462,79	928,00
469,33	826,00
475,86	928,00
482,39	889,00
488,91	976,00
495,42	787,00
501,93	964,00
508,42	925,00
514,91	958,00
521,40	837,00
527,87	905,00
534,34	808,00
540,80	802,00
547,25	829,00
553,70	878,00
560,14	843,00
566,57	804,00
573,00	794,00
579,41	830,00
585,83	860,00
592,23	876,00
598,62	836,00
605,01	673,00
611,40	882,00
617,77	868,00
624,14	766,00
630,50	913,00
636,85	639,00
643,20	744,00
649,54	820,00
655,87	907,00
662,20	833,00
668,52	787,00
674,83	650,00
681,13	855,00
687,43	758,00
693,72	831,00
700,00	686,00
706,28	876,00
712,55	756,00
718,81	817,00
725,07	881,00
731,32	695,00
737,56	773,00
743,79	828,00
750,02	935,00
756,24	831,00
762,46	807,00
768,67	934,00
774,87	746,00
781,06	848,00
787,25	777,00
793,43	750,00
799,60	886,00
805,77	860,00
811,93	728,00
818,08	790,00
824,23	824,00
830,37	722,00
836,50	804,00
842,63	788,00
848,75	836,00
854,87	862,00
860,97	972,00
867,07	1016,00
873,17	1043,00
879,25	768,00
885,33	798,00
891,41	805,00
897,47	728,00
903,53	738,00
909,59	781,00
915,63	880,00
921,67	854,00
927,71	693,00
933,74	688,00
939,76	766,00
945,77	673,00
951,78	868,00
957,78	706,00
963,78	696,00
969,77	677,00
975,75	751,00
981,72	757,00
987,69	740,00
993,66	792,00
999,61	755,00
1005,56	956,00
1011,51	658,00
1017,44	766,00
1023,37	753,00
1029,30	812,00
1035,22	790,00
1041,13	868,00
1047,03	975,00
1052,93	1231,00
1058,83	1604,00
1064,71	1663,00
1070,59	1451,00
1076,47	1066,00
1082,33	1070,00
1088,20	878,00
1094,05	974,00
1099,90	826,00
1105,74	806,00
1111,58	789,00
1117,41	1008,00
1123,23	1423,00
1129,05	1892,00
1134,86	1589,00
1140,67	1152,00
1146,47	1040,00
1152,26	807,00
1158,05	889,00
1163,83	812,00
1169,60	914,00
1175,37	980,00
1181,13	723,00
1186,89	757,00
1192,64	816,00
1198,38	901,00
1204,12	778,00
1209,85	673,00
1215,58	756,00
1221,30	681,00
1227,02	804,00
1232,72	772,00
1238,43	710,00
1244,12	838,00
1249,81	856,00
1255,50	860,00
1261,17	911,00
1266,85	917,00
1272,51	862,00
1278,17	977,00
1283,83	1038,00
1289,47	1797,00
1295,12	2163,00
1300,75	1994,00
1306,38	1538,00
1312,01	1212,00
1317,63	957,00
1323,24	1097,00
1328,85	955,00
1334,45	884,00
1340,04	798,00
1345,63	1006,00
1351,22	927,00
1356,80	984,00
1362,37	951,00
1367,93	1093,00
1373,49	1003,00
1379,05	984,00
1384,60	924,00
1390,14	957,00
1395,68	990,00
1401,21	910,00
1406,74	984,00
1412,26	1298,00
1417,77	1374,00
1423,28	1409,00
1428,78	1606,00
1434,28	1803,00
1439,77	2271,00
1445,26	2171,00
1450,74	1981,00
1456,22	1810,00
1461,68	1769,00
1467,15	1492,00
1472,61	1453,00
1478,06	1303,00
1483,51	1116,00
1488,95	1080,00
1494,38	955,00
1499,81	809,00
1505,24	808,00
1510,65	810,00
1516,07	851,00
1521,48	747,00
1526,88	831,00
1532,27	804,00
1537,67	897,00
1543,05	662,00
1548,43	773,00
1553,81	797,00
1559,18	829,00
1564,54	781,00
1569,90	815,00
1575,25	678,00
1580,60	852,00
1585,94	748,00
1591,28	726,00
1596,61	764,00
1601,93	736,00
1607,25	663,00
1612,57	689,00
1617,88	718,00
1623,18	725,00
1628,48	799,00
1633,77	699,00
1639,06	724,00
1644,34	671,00
1649,62	663,00
1654,89	580,00
1660,16	738,00
1665,42	606,00
1670,67	660,00
1675,92	644,00
1681,17	758,00
1686,41	576,00
1691,64	796,00
1696,87	645,00
1702,10	714,00
1707,32	575,00
1712,53	604,00
1717,74	703,00
1722,94	601,00
1728,14	684,00
1733,33	623,00
1738,52	656,00
1743,70	656,00
1748,88	588,00
1754,05	658,00
1759,22	511,00
1764,38	-1250,00
1769,53	630,00
1774,69	563,00
1779,83	613,00
1784,97	584,00
1790,11	543,00
1795,24	559,00
1800,36	615,00
1805,48	643,00
1810,60	631,00
1815,71	491,00
1820,82	706,00
1825,92	670,00
1831,01	595,00
1836,10	585,00
1841,19	697,00
1846,26	544,00
1851,34	534,00
1856,41	544,00
1861,47	610,00
1866,53	426,00
1871,59	562,00
1876,64	739,00
1881,68	565,00
1886,72	611,00
1891,76	408,00
1896,79	621,00
1901,81	537,00
1906,83	551,00
1911,85	646,00
1916,86	578,00
1921,86	533,00
1926,86	596,00
1931,86	683,00
1936,85	545,00
1941,83	483,00
1946,81	622,00
1951,79	587,00
1956,76	592,00
1961,72	648,00
1966,68	516,00
1971,64	494,00
1976,59	538,00
1981,54	513,00
1986,48	594,00
1991,42	501,00
1996,35	539,00
2001,27	402,00
2006,20	616,00
2011,11	720,00
2016,03	519,00
2020,93	658,00
2025,84	520,00
2030,73	461,00
2035,63	420,00
2040,52	552,00
2045,40	454,00
2050,28	421,00
2055,15	483,00
2060,02	547,00
2064,89	480,00
2069,75	590,00
2074,60	506,00
2079,46	444,00
2084,30	534,00
2089,14	526,00
2093,98	487,00
2098,81	489,00
2103,64	494,00
2108,46	498,00
2113,28	585,00
2118,09	501,00
2122,90	651,00
2127,70	566,00
2132,50	524,00
2137,30	495,00
2142,09	564,00
2146,87	521,00
2151,66	544,00
2156,43	460,00
2161,20	436,00
2165,97	580,00
2170,73	557,00
2175,49	543,00
2180,24	472,00
2184,99	497,00
2189,74	640,00
2194,48	628,00
2199,21	511,00
2203,94	444,00
2208,67	480,00
2213,39	358,00
2218,11	424,00
2222,82	491,00
2227,53	438,00
2232,23	527,00
2236,93	457,00
2241,63	471,00
2246,32	477,00
2251,00	551,00
2255,68	500,00
2260,36	507,00
2265,03	471,00
2269,70	572,00
2274,36	469,00
2279,02	424,00
2283,68	460,00
2288,33	459,00
2292,97	480,00
2297,61	339,00
2302,25	406,00
2306,88	453,00
2311,51	450,00
2316,14	440,00
2320,75	448,00
2325,37	383,00
2329,98	400,00
2334,59	411,00
2339,19	460,00
2343,79	385,00
2348,38	486,00
2352,97	487,00
2357,55	508,00
2362,13	503,00
2366,71	555,00
2371,28	366,00
2375,85	448,00
2380,41	572,00
2384,97	475,00
2389,52	309,00
2394,07	386,00
2398,62	370,00
2403,16	599,00
2407,70	372,00
2412,23	385,00
2416,76	377,00
2421,29	326,00
2425,81	500,00
2430,32	460,00
2434,84	286,00
2439,34	456,00
2443,85	362,00
2448,35	446,00
2452,84	446,00
2457,33	511,00
2461,82	438,00
2466,30	397,00
2470,78	407,00
2475,25	378,00
2479,72	349,00
2484,19	475,00
2488,65	473,00
2493,11	309,00
2497,56	398,00
2502,01	367,00
2506,46	357,00
2510,90	373,00
2515,34	363,00
2519,77	534,00
2524,20	448,00
2528,62	429,00
2533,04	474,00
2537,46	417,00
2541,87	429,00
2546,28	359,00
2550,68	412,00
2555,08	429,00
2559,48	435,00
2563,87	429,00
2568,26	235,00
2572,64	346,00
2577,02	408,00
2581,40	386,00
2585,77	384,00
2590,14	450,00
2594,50	429,00
2598,86	404,00
2603,22	391,00
2607,57	350,00
2611,92	431,00
2616,26	402,00
2620,60	418,00
2624,94	401,00
2629,27	422,00
2633,60	358,00
2637,92	338,00
2642,24	406,00
2646,56	452,00
2650,87	359,00
2655,18	423,00
2659,48	418,00
2663,78	423,00
2668,08	491,00
2672,37	525,00
2676,66	358,00
2680,95	425,00
2685,23	415,00
2689,50	512,00
2693,78	316,00
2698,05	525,00
2702,31	368,00
2706,57	528,00
2710,83	497,00
2715,08	492,00
2719,33	630,00
2723,58	518,00
2727,82	520,00
2732,06	515,00
2736,29	503,00
2740,53	565,00
2744,75	506,00
2748,97	507,00
2753,19	471,00
2757,41	276,00
2761,62	426,00
2765,83	521,00
2770,03	402,00
2774,23	449,00
2778,43	557,00
2782,62	595,00
2786,81	425,00
2791,00	488,00
2795,18	598,00
2799,35	602,00
2803,53	539,00
2807,70	684,00
2811,86	642,00
2816,03	632,00
2820,19	691,00
2824,34	801,00
2828,49	740,00
2832,64	959,00
2836,78	1133,00
2840,92	1560,00
2845,06	1751,00
2849,19	1973,00
2853,32	2119,00
2857,45	2138,00
2861,57	2015,00
2865,69	1798,00
2869,80	1868,00
2873,91	1982,00
2878,02	1973,00
2882,12	2131,00
2886,22	2222,00
2890,32	2065,00
2894,41	1880,00
2898,50	1688,00
2902,58	1596,00
2906,67	1535,00
2910,74	1261,00
2914,82	1383,00
2918,89	1220,00
2922,96	1070,00
2927,02	1064,00
2931,08	984,00
2935,13	911,00
2939,19	985,00
2943,24	738,00
2947,28	590,00
2951,32	733,00
2955,36	635,00
2959,40	581,00
2963,43	493,00
2967,46	458,00
2971,48	518,00
2975,50	582,00
2979,52	403,00
2983,53	375,00
2987,54	373,00
2991,55	300,00
2995,55	376,00
2999,55	408,00
3003,54	313,00
3007,54	319,00
3011,53	375,00
3015,51	315,00
3019,49	172,00
3023,47	321,00
3027,45	338,00
3031,42	219,00
3035,39	199,00
3039,35	294,00
3043,31	244,00
3047,27	228,00
3051,22	128,00
3055,17	371,00
3059,12	225,00
3063,06	317,00
3067,00	306,00
3070,94	249,00
3074,87	313,00
3078,80	312,00
3082,73	296,00
3086,65	97,00
3090,57	252,00
3094,49	184,00
3098,40	217,00
3102,31	273,00
3106,22	248,00
3110,12	374,00
3114,02	172,00
3117,92	367,00
3121,81	273,00
3125,70	80,00
3129,58	147,00
3133,47	139,00
3137,34	210,00
3141,22	311,00
3145,09	315,00
3148,96	214,00
3152,83	289,00
3156,69	242,00
3160,55	154,00
3164,40	185,00
3168,26	176,00
3172,10	297,00
3175,95	157,00
3179,79	141,00
3183,63	183,00
3187,47	157,00
3191,30	265,00
3195,13	234,00
3198,95	-28,00
3202,78	220,00
3206,60	176,00
3210,41	188,00
3214,23	98,00
3218,03	232,00
3221,84	152,00
3225,64	237,00
3229,44	236,00
3233,24	149,00
3237,03	151,00
3240,82	165,00
3244,61	149,00
3248,39	90,00
3252,17	295,00
3255,95	187,00
3259,72	156,00
3263,49	11,00
3267,26	265,00
3271,03	280,00
3274,79	5,00
3278,54	125,00
3282,30	188,00
3286,05	187,00
3289,80	-69,00
3293,54	133,00
3297,29	178,00
3301,02	276,00
3304,76	177,00
3308,49	118,00
3312,22	141,00
3315,95	-1,00
3319,67	310,00
3323,39	217,00
3327,10	179,00
3330,82	272,00
3334,53	162,00
3338,24	172,00
3341,94	165,00
3345,64	164,00
3349,34	181,00
3353,03	187,00
3356,72	195,00
3360,41	227,00
3364,10	262,00
3367,78	151,00
3371,46	234,00
3375,13	254,00
3378,81	192,00
3382,48	203,00
3386,14	-26,00
3389,81	169,00
3393,47	196,00
3397,12	138,00
3400,78	95,00
3404,43	325,00
3408,08	166,00
3411,72	195,00
3415,36	80,00
3419,00	273,00
3422,64	252,00
3426,27	97,00
3429,90	204,00
3433,53	215,00
3437,15	146,00
3440,77	193,00
3444,39	250,00
3448,00	-1,00
3451,62	238,00
3455,22	178,00
3458,83	132,00
3462,43	107,00
3466,03	52,00
3469,63	218,00
3473,22	183,00
3476,81	171,00
3480,40	67,00
3483,99	83,00
3487,57	94,00
3491,15	150,00
3494,72	83,00
3498,29	97,00
3501,86	146,00
3505,43	-32,00
3508,99	122,00
3512,56	107,00
3516,11	153,00
3519,67	108,00
3523,22	73,00
3526,77	106,00
3530,32	288,00
3533,86	192,00
3537,40	124,00
3540,94	80,00
3544,47	142,00
3548,00	193,00
3551,53	24,00
3555,06	40,00
3558,58	76,00
3562,10	196,00
3565,62	312,00
3569,13	38,00
3572,64	64,00
3576,15	168,00
3579,66	42,00
3583,16	168,00
3586,66	14,00
3590,16	34,00
3593,65	90,00
3597,14	23,00
3600,63	143,00
3604,11	148,00
3607,60	140,00
3611,08	111,00
3614,55	-19,00
3618,03	208,00
3621,50	106,00
3624,97	167,00
3628,43	72,00
3631,90	145,00
3635,36	192,00
3638,81	68,00
3642,27	92,00
3645,72	163,00
3649,17	95,00
3652,61	78,00
3656,06	159,00
3659,50	31,00
3662,93	99,00
3666,37	48,00
3669,80	102,00
3673,23	255,00
3676,65	169,00
3680,08	17,00
3683,50	74,00
3686,92	53,00
3690,33	101,00
3693,74	-5,00
3697,15	191,00
3700,56	48,00
3703,96	144,00
3707,36	69,00
3710,76	50,00
3714,16	144,00
3717,55	93,00
3720,94	91,00
3724,33	87,00
3727,71	37,00
3731,10	122,00
3734,48	94,00
3737,85	75,00
3741,23	87,00
3744,60	47,00
3747,97	78,00
3751,33	56,00
3754,69	19,00
3758,05	187,00
3761,41	12,00
3764,77	169,00
3768,12	84,00
3771,47	120,00
3774,82	68,00
3778,16	-6,00
3781,50	5,00
3784,84	4,00
3788,18	7,00
>>>>>End Processed Spectral Data<<<<<
