SpectraSuite Data File
++++++++++++++++++++++++++++++++++++
Date: Tue Mar 03 12:29:37 ICT 2026
User: user
Dark Spectrum Present: Yes
Reference Spectrum Present: No
Number of Sampled Component Spectra: 1
Spectrometers: MAYP113682
Integration Time (usec): 3000000 (MAYP113682)
Spectra Averaged: 1 (MAYP113682)
Boxcar Smoothing: 0 (MAYP113682)
Correct for Electrical Dark: No (MAYP113682)
Strobe/Lamp Enabled: No (MAYP113682)
Correct for Detector Non-linearity: No (MAYP113682)
Correct for Stray Light: No (MAYP113682)
Number of Pixels in Processed Spectrum: 2068
>>>>>Begin Processed Spectral Data<<<<<
-37534,58	5,00
-37414,56	1,00
-37295,11	-2,00
-37176,24	0,00
-37057,95	5,00
-36940,22	-42,00
-36823,05	0,00
-36706,45	-12,00
-36590,40	147,00
-36474,90	-11,00
-36359,95	114,00
-36245,55	162,00
-36131,68	35,00
-36018,35	61,00
-35905,55	10,00
-35793,29	159,00
-35681,54	62,00
-35570,32	-56,00
-35459,62	-29,00
-35349,43	99,00
-35239,75	239,00
-35130,58	123,00
-35021,91	102,00
-34913,74	41,00
-34806,07	119,00
-34698,89	172,00
-34592,20	-7,00
-34486,00	140,00
-34380,28	19,00
-34275,04	82,00
-34170,27	96,00
-34065,98	-89,00
-33962,16	53,00
-33858,81	46,00
-33755,92	149,00
-33653,49	150,00
-33551,52	165,00
-33450,01	56,00
-33348,94	8,00
-33248,33	28,00
-33148,16	91,00
-33048,43	50,00
-32949,14	23,00
-32850,29	-29,00
-32751,87	106,00
-32653,89	174,00
-32556,33	35,00
-32459,20	97,00
-32362,49	39,00
-32266,19	-13,00
-32170,32	-14,00
-32074,86	14,00
-31979,82	93,00
-31885,18	-23,00
-31790,95	-78,00
-31697,12	51,00
-31603,69	34,00
-31510,67	-65,00
-31418,04	147,00
-31325,80	74,00
-31233,95	71,00
-31142,49	74,00
-31051,42	48,00
-30960,73	49,00
-30870,43	72,00
-30780,50	108,00
-30690,95	116,00
-30601,77	29,00
-30512,97	58,00
-30424,53	40,00
-30336,46	29,00
-30248,76	65,00
-30161,42	68,00
-30074,44	109,00
-29987,81	100,00
-29901,55	-8,00
-29815,63	20,00
-29730,07	72,00
-29644,86	112,00
-29560,00	129,00
-29475,48	-57,00
-29391,30	142,00
-29307,47	63,00
-29223,97	43,00
-29140,81	24,00
-29057,99	96,00
-28975,50	137,00
-28893,34	53,00
-28811,51	21,00
-28730,00	-2,00
-28648,82	23,00
-28567,97	-25,00
-28487,43	-3,00
-28407,21	86,00
-28327,32	-100,00
-28247,73	-18,00
-28168,46	80,00
-28089,50	62,00
-28010,85	20,00
-27932,51	69,00
-27854,48	-111,00
-27776,75	27,00
-27699,32	15,00
-27622,19	156,00
-27545,37	99,00
-27468,84	4,00
-27392,60	25,00
-27316,66	98,00
-27241,01	-67,00
-27165,66	11,00
-27090,59	-23,00
-27015,81	228,00
-26941,31	46,00
-26867,10	136,00
-26793,17	-16,00
-26719,52	19,00
-26646,15	-11,00
-26573,06	124,00
-26500,24	16,00
-26427,70	-3,00
-26355,43	44,00
-26283,43	91,00
-26211,71	146,00
-26140,25	-11,00
-26069,06	180,00
-25998,13	-65,00
-25927,46	0,00
-25857,06	14,00
-25786,92	44,00
-25717,04	-84,00
-25647,42	106,00
-25578,05	98,00
-25508,94	-31,00
-25440,09	-31,00
-25371,48	98,00
-25303,13	-23,00
-25235,02	8,00
-25167,17	-42,00
-25099,56	58,00
-25032,19	22,00
-24965,07	-169,00
-24898,20	-24,00
-24831,56	74,00
-24765,17	4,00
-24699,01	172,00
-24633,10	0,00
-24567,41	-87,00
-24501,97	129,00
-24436,75	-116,00
-24371,77	38,00
-24307,03	31,00
-24242,51	91,00
-24178,22	18,00
-24114,16	9,00
-24050,32	-49,00
-23986,71	-16,00
-23923,32	141,00
-23860,16	-16,00
-23797,22	63,00
-23734,50	17,00
-23672,00	71,00
-23609,71	298,00
-23547,65	-24,00
-23485,80	19,00
-23424,16	-13,00
-23362,74	99,00
-23301,53	-20,00
-23240,54	20,00
-23179,75	75,00
-23119,17	25,00
-23058,80	229,00
-22998,64	68,00
-22938,68	-54,00
-22878,93	34,00
-22819,39	48,00
-22760,04	-63,00
-22700,90	-10,00
-22641,96	26,00
-22583,22	177,00
-22524,68	0,00
-22466,33	24,00
-22408,19	62,00
-22350,23	72,00
-22292,48	51,00
-22234,92	-10,00
-22177,55	79,00
-22120,37	-27,00
-22063,38	-24,00
-22006,58	69,00
-21949,98	63,00
-21893,56	76,00
-21837,33	143,00
-21781,28	-33,00
-21725,42	-34,00
-21669,74	107,00
-21614,25	52,00
-21558,94	5,00
-21503,81	131,00
-21448,86	-7,00
-21394,10	52,00
-21339,51	112,00
-21285,10	1,00
-21230,86	37,00
-21176,81	76,00
-21122,93	174,00
-21069,22	46,00
-21015,69	78,00
-20962,33	64,00
-20909,14	1,00
-20856,13	60,00
-20803,28	3,00
-20750,61	120,00
-20698,10	36,00
-20645,76	51,00
-20593,59	155,00
-20541,59	35,00
-20489,75	-5,00
-20438,07	144,00
-20386,56	123,00
-20335,22	47,00
-20284,03	55,00
-20233,01	9,00
-20182,15	-8,00
-20131,45	67,00
-20080,91	40,00
-20030,52	34,00
-19980,30	-84,00
-19930,23	-33,00
-19880,32	-106,00
-19830,56	162,00
-19780,96	-7,00
-19731,52	-58,00
-19682,23	-103,00
-19633,09	7,00
-19584,10	106,00
-19535,26	110,00
-19486,58	-104,00
-19438,04	-27,00
-19389,66	-53,00
-19341,42	35,00
-19293,33	8,00
-19245,39	47,00
-19197,60	100,00
-19149,95	213,00
-19102,45	83,00
-19055,09	66,00
-19007,87	101,00
-18960,80	58,00
-18913,87	126,00
-18867,09	28,00
-18820,44	55,00
-18773,94	32,00
-18727,57	15,00
-18681,35	41,00
-18635,26	39,00
-18589,31	68,00
-18543,50	1,00
-18497,83	24,00
-18452,29	-16,00
-18406,89	0,00
-18361,63	46,00
-18316,50	-58,00
-18271,50	1,00
-18226,63	58,00
-18181,90	-21,00
-18137,30	121,00
-18092,84	71,00
-18048,50	62,00
-18004,29	116,00
-17960,22	179,00
-17916,27	67,00
-17872,45	-51,00
-17828,76	27,00
-17785,20	11,00
-17741,77	75,00
-17698,46	29,00
-17655,28	20,00
-17612,22	-99,00
-17569,29	10,00
-17526,48	74,00
-17483,79	28,00
-17441,23	30,00
-17398,79	32,00
-17356,48	112,00
-17314,28	101,00
-17272,21	16,00
-17230,26	-14,00
-17188,42	72,00
-17146,71	83,00
-17105,12	1,00
-17063,64	71,00
-17022,28	-8,00
-16981,04	-19,00
-16939,92	31,00
-16898,91	-2,00
-16858,02	-90,00
-16817,25	60,00
-16776,59	122,00
-16736,04	44,00
-16695,61	183,00
-16655,29	159,00
-16615,09	21,00
-16574,99	100,00
-16535,01	31,00
-16495,15	54,00
-16455,39	15,00
-16415,74	30,00
-16376,21	34,00
-16336,78	-84,00
-16297,46	22,00
-16258,26	141,00
-16219,16	35,00
-16180,17	69,00
-16141,28	43,00
-16102,51	-77,00
-16063,84	27,00
-16025,27	66,00
-15986,82	-5,00
-15948,46	-102,00
-15910,22	11,00
-15872,07	88,00
-15834,04	0,00
-15796,10	-46,00
-15758,27	-16,00
-15720,54	48,00
-15682,91	68,00
-15645,39	23,00
-15607,97	69,00
-15570,64	80,00
-15533,42	5,00
-15496,30	99,00
-15459,28	54,00
-15422,36	12,00
-15385,54	-72,00
-15348,82	118,00
-15312,19	14,00
-15275,66	-68,00
-15239,23	-24,00
-15202,90	3,00
-15166,67	127,00
-15130,53	-6,00
-15094,48	-24,00
-15058,54	76,00
-15022,68	-38,00
-14986,93	29,00
-14951,26	26,00
-14915,69	-99,00
-14880,22	54,00
-14844,84	7,00
-14809,55	-35,00
-14774,35	67,00
-14739,25	121,00
-14704,24	-76,00
-14669,32	-13,00
-14634,49	200,00
-14599,75	80,00
-14565,10	95,00
-14530,55	2,00
-14496,08	186,00
-14461,70	163,00
-14427,41	-100,00
-14393,21	43,00
-14359,10	46,00
-14325,07	109,00
-14291,14	113,00
-14257,29	-82,00
-14223,52	77,00
-14189,85	31,00
-14156,26	51,00
-14122,76	-46,00
-14089,34	37,00
-14056,01	134,00
-14022,76	48,00
-13989,60	96,00
-13956,52	12,00
-13923,53	108,00
-13890,62	30,00
-13857,79	128,00
-13825,05	-29,00
-13792,39	76,00
-13759,81	163,00
-13727,31	66,00
-13694,90	16,00
-13662,57	206,00
-13630,31	133,00
-13598,14	5,00
-13566,05	123,00
-13534,05	128,00
-13502,12	134,00
-13470,27	31,00
-13438,50	44,00
-13406,80	31,00
-13375,19	-21,00
-13343,66	61,00
-13312,20	-107,00
-13280,83	46,00
-13249,53	53,00
-13218,30	8,00
-13187,16	-85,00
-13156,09	-54,00
-13125,10	46,00
-13094,18	129,00
-13063,34	-36,00
-13032,58	94,00
-13001,89	-4,00
-12971,28	88,00
-12940,74	83,00
-12910,27	-31,00
-12879,88	48,00
-12849,57	54,00
-12819,33	26,00
-12789,16	0,00
-12759,06	56,00
-12729,04	57,00
-12699,09	-1559,00
-12669,21	102,00
-12639,41	-110,00
-12609,68	2,00
-12580,02	92,00
-12550,43	24,00
-12520,91	79,00
-12491,46	-86,00
-12462,08	187,00
-12432,77	-30,00
-12403,54	-61,00
-12374,37	52,00
-12345,27	-36,00
-12316,24	24,00
-12287,29	21,00
-12258,40	24,00
-12229,57	177,00
-12200,82	-28,00
-12172,14	-24,00
-12143,52	26,00
-12114,97	10,00
-12086,49	12,00
-12058,07	74,00
-12029,73	-97,00
-12001,44	11,00
-11973,23	7,00
-11945,08	24,00
-11917,00	-42,00
-11888,98	145,00
-11861,03	11,00
-11833,15	106,00
-11805,32	145,00
-11777,57	63,00
-11749,88	121,00
-11722,25	35,00
-11694,69	10,00
-11667,19	-16,00
-11639,75	-132,00
-11612,38	142,00
-11585,07	-5,00
-11557,83	73,00
-11530,65	55,00
-11503,53	97,00
-11476,47	-50,00
-11449,48	66,00
-11422,54	55,00
-11395,67	56,00
-11368,86	65,00
-11342,11	16,00
-11315,43	-36,00
-11288,80	196,00
-11262,23	221,00
-11235,73	61,00
-11209,28	-15,00
-11182,90	131,00
-11156,57	3,00
-11130,31	92,00
-11104,10	167,00
-11077,96	34,00
-11051,87	122,00
-11025,84	65,00
-10999,87	108,00
-10973,96	33,00
-10948,11	79,00
-10922,31	-18,00
-10896,58	32,00
-10870,90	64,00
-10845,28	51,00
-10819,71	42,00
-10794,20	35,00
-10768,75	160,00
-10743,36	123,00
-10718,02	76,00
-10692,74	27,00
-10667,52	83,00
-10642,35	69,00
-10617,24	103,00
-10592,18	185,00
-10567,18	210,00
-10542,23	222,00
-10517,34	205,00
-10492,51	68,00
-10467,72	212,00
-10443,00	268,00
-10418,32	297,00
-10393,70	145,00
-10369,14	130,00
-10344,63	257,00
-10320,17	288,00
-10295,77	229,00
-10271,42	199,00
-10247,12	228,00
-10222,88	453,00
-10198,68	372,00
-10174,54	382,00
-10150,46	520,00
-10126,42	365,00
-10102,44	491,00
-10078,51	557,00
-10054,63	540,00
-10030,80	513,00
-10007,03	425,00
-9983,30	493,00
-9959,63	531,00
-9936,01	609,00
-9912,44	653,00
-9888,92	575,00
-9865,44	683,00
-9842,02	771,00
-9818,65	803,00
-9795,33	719,00
-9772,06	881,00
-9748,84	858,00
-9725,67	903,00
-9702,55	994,00
-9679,47	1219,00
-9656,45	1266,00
-9633,47	1458,00
-9610,55	1389,00
-9587,67	1460,00
-9564,84	1670,00
-9542,06	1834,00
-9519,32	1979,00
-9496,64	2160,00
-9474,00	2416,00
-9451,41	2417,00
-9428,87	2504,00
-9406,37	2381,00
-9383,92	2094,00
-9361,52	1936,00
-9339,17	1947,00
-9316,86	2408,00
-9294,60	2735,00
-9272,38	2918,00
-9250,21	3011,00
-9228,09	3260,00
-9206,01	3079,00
-9183,98	2785,00
-9162,00	2432,00
-9140,06	2317,00
-9118,16	2393,00
-9096,31	2379,00
-9074,51	2399,00
-9052,75	2405,00
-9031,04	2324,00
-9009,37	2081,00
-8987,74	1867,00
-8966,16	1628,00
-8944,63	1510,00
-8923,14	1212,00
-8901,69	1553,00
-8880,29	1752,00
-8858,93	1947,00
-8837,61	2114,00
-8816,34	2265,00
-8795,11	2314,00
-8773,92	2212,00
-8752,78	1889,00
-8731,68	1833,00
-8710,62	1747,00
-8689,61	1782,00
-8668,63	1987,00
-8647,70	2188,00
-8626,82	2154,00
-8605,97	1952,00
-8585,17	1950,00
-8564,41	1511,00
-8543,69	1691,00
-8523,01	1518,00
-8502,37	1553,00
-8481,78	1572,00
-8461,23	1722,00
-8440,71	1855,00
-8420,24	2074,00
-8399,81	1990,00
-8379,42	2101,00
-8359,08	1836,00
-8338,77	1584,00
-8318,50	1616,00
-8298,27	1534,00
-8278,09	1686,00
-8257,94	1570,00
-8237,83	1779,00
-8217,76	1877,00
-8197,74	1904,00
-8177,75	1783,00
-8157,80	1590,00
-8137,89	1633,00
-8118,02	1600,00
-8098,19	1368,00
-8078,40	1594,00
-8058,65	1590,00
-8038,93	1652,00
-8019,26	1615,00
-7999,62	1665,00
-7980,02	1510,00
-7960,46	1507,00
-7940,94	1347,00
-7921,46	1447,00
-7902,01	1404,00
-7882,60	1244,00
-7863,23	1245,00
-7843,90	1535,00
-7824,61	1454,00
-7805,35	1521,00
-7786,13	1721,00
-7766,95	1707,00
-7747,80	1400,00
-7728,69	1438,00
-7709,62	1527,00
-7690,59	1496,00
-7671,59	1639,00
-7652,63	1564,00
-7633,70	1676,00
-7614,81	1489,00
-7595,96	1485,00
-7577,15	1411,00
-7558,37	1383,00
-7539,62	1374,00
-7520,91	1620,00
-7502,24	1567,00
-7483,60	1594,00
-7465,00	1463,00
-7446,44	1304,00
-7427,91	1284,00
-7409,41	1050,00
-7390,95	941,00
-7372,53	1107,00
-7354,14	1068,00
-7335,78	1067,00
-7317,46	1154,00
-7299,18	1240,00
-7280,92	1306,00
-7262,71	1470,00
-7244,52	1615,00
-7226,38	1506,00
-7208,26	1485,00
-7190,18	1488,00
-7172,14	1360,00
-7154,12	1430,00
-7136,15	1504,00
-7118,20	1638,00
-7100,29	1544,00
-7082,41	1600,00
-7064,57	1562,00
-7046,76	1335,00
-7028,98	1176,00
-7011,24	1234,00
-6993,53	947,00
-6975,85	839,00
-6958,20	856,00
-6940,59	830,00
-6923,01	793,00
-6905,46	933,00
-6887,94	1025,00
-6870,46	-1147,00
-6853,01	1392,00
-6835,59	1449,00
-6818,21	1381,00
-6800,85	986,00
-6783,53	829,00
-6766,24	761,00
-6748,98	660,00
-6731,76	532,00
-6714,56	589,00
-6697,40	583,00
-6680,26	683,00
-6663,16	826,00
-6646,09	976,00
-6629,05	1058,00
-6612,05	1061,00
-6595,07	1167,00
-6578,13	980,00
-6561,21	808,00
-6544,33	671,00
-6527,47	544,00
-6510,65	415,00
-6493,86	479,00
-6477,10	468,00
-6460,36	514,00
-6443,66	428,00
-6426,99	343,00
-6410,35	511,00
-6393,74	529,00
-6377,16	656,00
-6360,61	719,00
-6344,09	667,00
-6327,59	947,00
-6311,13	790,00
-6294,70	825,00
-6278,29	933,00
-6261,92	875,00
-6245,58	1107,00
-6229,26	1117,00
-6212,97	952,00
-6196,72	772,00
-6180,49	630,00
-6164,29	370,00
-6148,12	381,00
-6131,98	279,00
-6115,86	291,00
-6099,78	444,00
-6083,72	128,00
-6067,69	203,00
-6051,69	325,00
-6035,72	276,00
-6019,78	398,00
-6003,87	501,00
-5987,98	723,00
-5972,12	659,00
-5956,29	724,00
-5940,49	610,00
-5924,71	560,00
-5908,96	529,00
-5893,24	284,00
-5877,55	327,00
-5861,89	292,00
-5846,25	431,00
-5830,64	321,00
-5815,05	367,00
-5799,50	234,00
-5783,97	301,00
-5768,47	491,00
-5752,99	547,00
-5737,55	901,00
-5722,12	876,00
-5706,73	790,00
-5691,36	437,00
-5676,02	396,00
-5660,71	311,00
-5645,42	229,00
-5630,16	350,00
-5614,92	295,00
-5599,71	497,00
-5584,53	453,00
-5569,37	563,00
-5554,24	1525,00
-5539,14	429,00
-5524,06	296,00
-5509,01	529,00
-5493,98	505,00
-5478,98	466,00
-5464,00	474,00
-5449,05	439,00
-5434,13	363,00
-5419,23	241,00
-5404,36	419,00
-5389,51	482,00
-5374,69	685,00
-5359,89	865,00
-5345,12	923,00
-5330,37	754,00
-5315,65	656,00
-5300,95	467,00
-5286,28	414,00
-5271,63	387,00
-5257,01	451,00
-5242,41	527,00
-5227,84	530,00
-5213,29	358,00
-5198,76	112,00
-5184,26	180,00
-5169,79	303,00
-5155,33	403,00
-5140,91	409,00
-5126,51	544,00
-5112,13	646,00
-5097,77	450,00
-5083,44	292,00
-5069,13	239,00
-5054,85	291,00
-5040,59	386,00
-5026,36	293,00
-5012,15	478,00
-4997,96	359,00
-4983,80	341,00
-4969,66	221,00
-4955,54	266,00
-4941,44	293,00
-4927,37	603,00
-4913,33	716,00
-4899,30	794,00
-4885,30	715,00
-4871,33	555,00
-4857,37	178,00
-4843,44	143,00
-4829,53	197,00
-4815,65	597,00
-4801,79	318,00
-4787,95	266,00
-4774,13	326,00
-4760,34	279,00
-4746,56	-78,00
-4732,82	251,00
-4719,09	213,00
-4705,38	418,00
-4691,70	650,00
-4678,04	759,00
-4664,41	441,00
-4650,79	298,00
-4637,20	253,00
-4623,63	185,00
-4610,08	328,00
-4596,56	423,00
-4583,05	418,00
-4569,57	448,00
-4556,11	7,00
-4542,67	117,00
-4529,25	216,00
-4515,86	392,00
-4502,49	510,00
-4489,13	570,00
-4475,80	503,00
-4462,49	291,00
-4449,21	283,00
-4435,94	190,00
-4422,70	230,00
-4409,47	252,00
-4396,27	386,00
-4383,09	268,00
-4369,93	173,00
-4356,79	185,00
-4343,67	275,00
-4330,58	278,00
-4317,50	161,00
-4304,45	376,00
-4291,41	254,00
-4278,40	199,00
-4265,41	52,00
-4252,44	134,00
-4239,49	430,00
-4226,55	249,00
-4213,65	256,00
-4200,76	207,00
-4187,89	69,00
-4175,04	84,00
-4162,21	158,00
-4149,40	36,00
-4136,61	-43,00
-4123,85	-27,00
-4111,10	102,00
-4098,37	100,00
-4085,66	62,00
-4072,98	74,00
-4060,31	20,00
-4047,66	103,00
-4035,04	93,00
-4022,43	-7,00
-4009,84	-28,00
-3997,27	93,00
-3984,72	-26,00
-3972,19	42,00
-3959,69	52,00
-3947,20	-51,00
-3934,73	6,00
-3922,27	132,00
-3909,84	0,00
-3897,43	60,00
-3885,04	3,00
-3872,67	70,00
-3860,31	108,00
-3847,98	59,00
-3835,66	50,00
-3823,36	-56,00
-3811,09	60,00
-3798,83	181,00
-3786,59	56,00
-3774,37	154,00
-3762,17	5,00
-3749,98	30,00
-3737,82	87,00
-3725,67	68,00
-3713,55	73,00
-3701,44	113,00
-3689,35	142,00
-3677,28	0,00
-3665,22	112,00
-3653,19	-23,00
-3641,17	38,00
-3629,18	93,00
-3617,20	23,00
-3605,24	-44,00
-3593,30	-6,00
-3581,37	24,00
-3569,47	47,00
-3557,58	7,00
-3545,71	-24,00
-3533,86	-55,00
-3522,02	50,00
-3510,21	-1,00
-3498,41	159,00
-3486,63	58,00
-3474,87	28,00
-3463,12	-38,00
-3451,40	-98,00
-3439,69	106,00
-3428,00	18,00
-3416,33	-30,00
-3404,67	8,00
-3393,03	96,00
-3381,41	-19,00
-3369,81	-2,00
-3358,22	-11,00
-3346,66	88,00
-3335,10	22,00
-3323,57	96,00
-3312,06	86,00
-3300,56	-1,00
-3289,08	-44,00
-3277,61	1,00
-3266,16	-35,00
-3254,73	28,00
-3243,32	1,00
-3231,92	-63,00
-3220,55	46,00
-3209,18	74,00
-3197,84	88,00
-3186,51	31,00
-3175,20	26,00
-3163,90	114,00
-3152,63	72,00
-3141,36	8,00
-3130,12	-9,00
-3118,89	40,00
-3107,68	-54,00
-3096,49	48,00
-3085,31	27,00
-3074,15	202,00
-3063,00	110,00
-3051,87	70,00
-3040,76	-6,00
-3029,67	80,00
-3018,59	99,00
-3007,52	65,00
-2996,48	46,00
-2985,44	90,00
-2974,43	188,00
-2963,43	7,00
-2952,45	146,00
-2941,48	35,00
-2930,53	-29,00
-2919,60	-5,00
-2908,68	190,00
-2897,78	56,00
-2886,89	101,00
-2876,02	1,00
-2865,17	-28,00
-2854,33	113,00
-2843,50	101,00
-2832,70	116,00
-2821,90	-66,00
-2811,13	-36,00
-2800,37	-62,00
-2789,62	96,00
-2778,89	66,00
-2768,18	10,00
-2757,48	81,00
-2746,80	115,00
-2736,13	54,00
-2725,48	26,00
-2714,84	-61,00
-2704,22	-33,00
-2693,61	174,00
-2683,02	176,00
-2672,45	23,00
-2661,89	85,00
-2651,34	-6,00
-2640,81	81,00
-2630,30	109,00
-2619,80	2,00
-2609,31	-77,00
-2598,84	37,00
-2588,39	141,00
-2577,95	-18,00
-2567,52	61,00
-2557,11	-22,00
-2546,71	29,00
-2536,33	22,00
-2525,97	-1,00
-2515,62	59,00
-2505,28	-85,00
-2494,96	44,00
-2484,65	-11,00
-2474,36	52,00
-2464,08	27,00
-2453,82	73,00
-2443,57	-84,00
-2433,33	-18,00
-2423,11	161,00
-2412,91	-3,00
-2402,72	61,00
-2392,54	127,00
-2382,38	24,00
-2372,23	65,00
-2362,09	-5222,00
-2351,97	107,00
-2341,87	-46,00
-2331,78	-2,00
-2321,70	38,00
-2311,64	-14,00
-2301,59	12,00
-2291,55	104,00
-2281,53	-37,00
-2271,53	66,00
-2261,53	43,00
-2251,55	17,00
-2241,59	41,00
-2231,64	65,00
-2221,70	5,00
-2211,78	-42,00
-2201,87	196,00
-2191,97	13,00
-2182,09	-71,00
-2172,22	49,00
-2162,37	79,00
-2152,53	49,00
-2142,70	60,00
-2132,89	114,00
-2123,09	130,00
-2113,30	94,00
-2103,53	-16,00
-2093,77	86,00
-2084,02	39,00
-2074,29	-65,00
-2064,57	138,00
-2054,86	107,00
-2045,17	-16,00
-2035,49	41,00
-2025,82	118,00
-2016,17	-20,00
-2006,53	17,00
-1996,91	2,00
-1987,29	-182,00
-1977,69	74,00
-1968,11	177,00
-1958,53	196,00
-1948,97	-9,00
-1939,42	94,00
-1929,89	-21,00
-1920,37	148,00
-1910,86	20,00
-1901,36	22,00
-1891,88	-17,00
-1882,41	-38,00
-1872,95	125,00
-1863,51	-54,00
-1854,08	-7,00
-1844,66	70,00
-1835,26	59,00
-1825,86	21,00
-1816,48	15,00
-1807,11	13,00
-1797,76	37,00
-1788,42	64,00
-1779,09	22,00
-1769,77	6,00
-1760,47	-17,00
-1751,17	17,00
-1741,89	34,00
-1732,63	44,00
-1723,37	-104,00
-1714,13	-17,00
-1704,90	22,00
-1695,68	9,00
-1686,48	59,00
-1677,29	3,00
-1668,11	184,00
-1658,94	20,00
-1649,78	16,00
-1640,64	50,00
-1631,51	68,00
-1622,39	131,00
-1613,28	70,00
-1604,19	94,00
-1595,10	-8,00
-1586,03	72,00
-1576,97	-20,00
-1567,93	95,00
-1558,89	-129,00
-1549,87	205,00
-1540,86	81,00
-1531,86	-40,00
-1522,87	-79,00
-1513,90	35,00
-1504,93	158,00
-1495,98	-100,00
-1487,04	-25,00
-1478,12	133,00
-1469,20	90,00
-1460,30	98,00
-1451,40	156,00
-1442,52	35,00
-1433,65	2,00
-1424,80	216,00
-1415,95	94,00
-1407,12	145,00
-1398,30	-7,00
-1389,48	47,00
-1380,69	-47,00
-1371,90	60,00
-1363,12	62,00
-1354,36	-11,00
-1345,60	110,00
-1336,86	89,00
-1328,13	134,00
-1319,41	-10,00
-1310,70	33,00
-1302,01	85,00
-1293,32	200,00
-1284,65	121,00
-1275,99	64,00
-1267,33	17,00
-1258,69	-28,00
-1250,06	118,00
-1241,45	181,00
-1232,84	108,00
-1224,25	121,00
-1215,66	24,00
-1207,09	5,00
-1198,53	-12,00
-1189,97	16,00
-1181,43	59,00
-1172,91	9,00
-1164,39	-74,00
-1155,88	75,00
-1147,38	-114,00
-1138,90	194,00
-1130,43	-3,00
-1121,96	15,00
-1113,51	88,00
-1105,07	112,00
-1096,64	92,00
-1088,22	169,00
-1079,81	116,00
-1071,41	63,00
-1063,02	-49,00
-1054,65	81,00
-1046,28	35,00
-1037,92	-9,00
-1029,58	-18,00
-1021,24	60,00
-1012,92	165,00
-1004,61	-37,00
-996,30	-65,00
-988,01	102,00
-979,73	145,00
-971,46	-68,00
-963,20	29,00
-954,95	68,00
-946,71	-14,00
-938,48	0,00
-930,26	-133,00
-922,06	-76,00
-913,86	115,00
-905,67	59,00
-897,49	2,00
-889,33	125,00
-881,17	35,00
-873,02	39,00
-864,89	-57,00
-856,76	-4,00
-848,65	109,00
-840,54	24,00
-832,45	47,00
-824,36	78,00
-816,29	129,00
-808,22	14,00
-800,17	-32,00
-792,12	-40,00
-784,09	95,00
-776,06	40,00
-768,05	126,00
-760,04	21,00
-752,05	60,00
-744,07	54,00
-736,09	15,00
-728,13	96,00
-720,17	88,00
-712,23	111,00
-704,29	-134,00
-696,37	-12,00
-688,45	-5,00
-680,55	25,00
-672,65	184,00
-664,77	-10,00
-656,89	10,00
-649,03	82,00
-641,17	-28,00
-633,32	-29,00
-625,49	109,00
-617,66	4,00
-609,84	41,00
-602,03	-21,00
-594,23	95,00
-586,45	101,00
-578,67	133,00
-570,90	-24,00
-563,14	136,00
-555,39	98,00
-547,65	63,00
-539,91	-42,00
-532,19	260,00
-524,48	64,00
-516,78	92,00
-509,08	64,00
-501,40	42,00
-493,72	105,00
-486,06	96,00
-478,40	-12,00
-470,76	98,00
-463,12	-19,00
-455,49	137,00
-447,87	-38,00
-440,26	1,00
-432,66	59,00
-425,07	-51,00
-417,49	92,00
-409,92	76,00
-402,35	-26,00
-394,80	59,00
-387,25	-25,00
-379,72	157,00
-372,19	125,00
-364,67	233,00
-357,17	4,00
-349,67	-28,00
-342,18	-45,00
-334,69	112,00
-327,22	38,00
-319,76	-67,00
-312,30	74,00
-304,86	-14,00
-297,42	127,00
-290,00	59,00
-282,58	-68,00
-275,17	83,00
-267,77	23,00
-260,37	180,00
-252,99	109,00
-245,62	103,00
-238,25	153,00
-230,90	20,00
-223,55	244,00
-216,21	144,00
-208,88	128,00
-201,56	148,00
-194,25	215,00
-186,94	78,00
-179,65	298,00
-172,36	282,00
-165,08	125,00
-157,81	354,00
-150,55	201,00
-143,30	407,00
-136,06	307,00
-128,82	280,00
-121,60	449,00
-114,38	354,00
-107,17	240,00
-99,97	376,00
-92,78	460,00
-85,60	561,00
-78,42	703,00
-71,25	720,00
-64,10	957,00
-56,95	1176,00
-49,81	1243,00
-42,67	1569,00
-35,55	1940,00
-28,43	2616,00
-21,33	4738,00
-14,23	15866,00
-7,14	47266,00
-0,05	38051,00
7,02	42597,00
14,09	42104,00
21,14	11314,00
28,19	4979,00
35,23	3177,00
42,27	2373,00
49,29	2100,00
56,31	1597,00
63,32	1276,00
70,32	1272,00
77,31	998,00
84,29	959,00
91,27	736,00
98,23	747,00
105,19	632,00
112,14	714,00
119,09	1010,00
126,02	1567,00
132,95	1671,00
139,87	1721,00
146,78	1645,00
153,68	1616,00
160,58	1585,00
167,46	1556,00
174,34	1533,00
181,21	1511,00
188,08	1554,00
194,93	1401,00
201,78	1571,00
208,62	1483,00
215,45	1495,00
222,27	1627,00
229,09	1381,00
235,90	1613,00
242,70	1396,00
249,49	1351,00
256,27	1409,00
263,05	1426,00
269,82	1324,00
276,58	1366,00
283,33	1371,00
290,08	1405,00
296,82	1319,00
303,55	1164,00
310,27	1239,00
316,98	1065,00
323,69	1379,00
330,39	1229,00
337,08	1172,00
343,76	1208,00
350,44	1157,00
357,11	1197,00
363,77	1218,00
370,42	1099,00
377,07	1208,00
383,71	1176,00
390,34	1082,00
396,96	1187,00
403,58	1034,00
410,19	1180,00
416,79	1098,00
423,38	1201,00
429,97	1025,00
436,55	1081,00
443,12	1015,00
449,68	1123,00
456,24	1079,00
462,79	1081,00
469,33	937,00
475,86	1000,00
482,39	991,00
488,91	973,00
495,42	941,00
501,93	1140,00
508,42	1040,00
514,91	1027,00
521,40	953,00
527,87	1038,00
534,34	866,00
540,80	982,00
547,25	796,00
553,70	1028,00
560,14	919,00
566,57	986,00
573,00	1003,00
579,41	882,00
585,83	959,00
592,23	878,00
598,62	802,00
605,01	831,00
611,40	845,00
617,77	937,00
624,14	914,00
630,50	940,00
636,85	769,00
643,20	744,00
649,54	927,00
655,87	987,00
662,20	870,00
668,52	886,00
674,83	788,00
681,13	968,00
687,43	874,00
693,72	840,00
700,00	832,00
706,28	893,00
712,55	863,00
718,81	965,00
725,07	954,00
731,32	837,00
737,56	973,00
743,79	849,00
750,02	906,00
756,24	912,00
762,46	822,00
768,67	992,00
774,87	853,00
781,06	944,00
787,25	825,00
793,43	803,00
799,60	921,00
805,77	783,00
811,93	853,00
818,08	812,00
824,23	953,00
830,37	884,00
836,50	916,00
842,63	897,00
848,75	969,00
854,87	895,00
860,97	938,00
867,07	1003,00
873,17	1067,00
879,25	857,00
885,33	921,00
891,41	876,00
897,47	736,00
903,53	759,00
909,59	871,00
915,63	915,00
921,67	808,00
927,71	693,00
933,74	800,00
939,76	802,00
945,77	819,00
951,78	917,00
957,78	744,00
963,78	668,00
969,77	727,00
975,75	803,00
981,72	762,00
987,69	1086,00
993,66	869,00
999,61	783,00
1005,56	901,00
1011,51	752,00
1017,44	822,00
1023,37	823,00
1029,30	791,00
1035,22	788,00
1041,13	928,00
1047,03	999,00
1052,93	1268,00
1058,83	1787,00
1064,71	1837,00
1070,59	1613,00
1076,47	1222,00
1082,33	1218,00
1088,20	1109,00
1094,05	1063,00
1099,90	874,00
1105,74	1008,00
1111,58	834,00
1117,41	1170,00
1123,23	1655,00
1129,05	1961,00
1134,86	1904,00
1140,67	1340,00
1146,47	1055,00
1152,26	1021,00
1158,05	828,00
1163,83	942,00
1169,60	902,00
1175,37	993,00
1181,13	761,00
1186,89	800,00
1192,64	870,00
1198,38	815,00
1204,12	802,00
1209,85	715,00
1215,58	763,00
1221,30	750,00
1227,02	829,00
1232,72	943,00
1238,43	853,00
1244,12	888,00
1249,81	909,00
1255,50	939,00
1261,17	891,00
1266,85	1015,00
1272,51	1001,00
1278,17	1058,00
1283,83	1223,00
1289,47	1922,00
1295,12	2443,00
1300,75	2242,00
1306,38	1626,00
1312,01	1268,00
1317,63	1096,00
1323,24	1127,00
1328,85	989,00
1334,45	928,00
1340,04	880,00
1345,63	980,00
1351,22	954,00
1356,80	926,00
1362,37	999,00
1367,93	1148,00
1373,49	1040,00
1379,05	1099,00
1384,60	1066,00
1390,14	1031,00
1395,68	917,00
1401,21	974,00
1406,74	1018,00
1412,26	1478,00
1417,77	1475,00
1423,28	1607,00
1428,78	1696,00
1434,28	2081,00
1439,77	2506,00
1445,26	2254,00
1450,74	2148,00
1456,22	1931,00
1461,68	1958,00
1467,15	1620,00
1472,61	1670,00
1478,06	1324,00
1483,51	1153,00
1488,95	1136,00
1494,38	949,00
1499,81	859,00
1505,24	840,00
1510,65	815,00
1516,07	919,00
1521,48	728,00
1526,88	810,00
1532,27	783,00
1537,67	918,00
1543,05	821,00
1548,43	735,00
1553,81	729,00
1559,18	912,00
1564,54	714,00
1569,90	752,00
1575,25	724,00
1580,60	771,00
1585,94	771,00
1591,28	682,00
1596,61	749,00
1601,93	696,00
1607,25	707,00
1612,57	691,00
1617,88	741,00
1623,18	684,00
1628,48	727,00
1633,77	791,00
1639,06	758,00
1644,34	707,00
1649,62	609,00
1654,89	646,00
1660,16	653,00
1665,42	791,00
1670,67	668,00
1675,92	656,00
1681,17	667,00
1686,41	619,00
1691,64	747,00
1696,87	685,00
1702,10	638,00
1707,32	524,00
1712,53	581,00
1717,74	644,00
1722,94	656,00
1728,14	742,00
1733,33	635,00
1738,52	740,00
1743,70	616,00
1748,88	591,00
1754,05	668,00
1759,22	510,00
1764,38	644,00
1769,53	588,00
1774,69	610,00
1779,83	548,00
1784,97	517,00
1790,11	635,00
1795,24	542,00
1800,36	659,00
1805,48	623,00
1810,60	686,00
1815,71	468,00
1820,82	695,00
1825,92	541,00
1831,01	563,00
1836,10	576,00
1841,19	668,00
1846,26	576,00
1851,34	659,00
1856,41	527,00
1861,47	619,00
1866,53	524,00
1871,59	506,00
1876,64	637,00
1881,68	622,00
1886,72	501,00
1891,76	499,00
1896,79	546,00
1901,81	594,00
1906,83	453,00
1911,85	529,00
1916,86	610,00
1921,86	570,00
1926,86	566,00
1931,86	671,00
1936,85	528,00
1941,83	520,00
1946,81	486,00
1951,79	608,00
1956,76	448,00
1961,72	630,00
1966,68	517,00
1971,64	493,00
1976,59	609,00
1981,54	441,00
1986,48	480,00
1991,42	569,00
1996,35	535,00
2001,27	362,00
2006,20	631,00
2011,11	536,00
2016,03	511,00
2020,93	616,00
2025,84	410,00
2030,73	445,00
2035,63	500,00
2040,52	477,00
2045,40	369,00
2050,28	435,00
2055,15	340,00
2060,02	527,00
2064,89	431,00
2069,75	462,00
2074,60	460,00
2079,46	415,00
2084,30	597,00
2089,14	442,00
2093,98	448,00
2098,81	533,00
2103,64	430,00
2108,46	353,00
2113,28	508,00
2118,09	419,00
2122,90	597,00
2127,70	553,00
2132,50	492,00
2137,30	425,00
2142,09	434,00
2146,87	456,00
2151,66	557,00
2156,43	519,00
2161,20	483,00
2165,97	405,00
2170,73	570,00
2175,49	367,00
2180,24	546,00
2184,99	503,00
2189,74	542,00
2194,48	488,00
2199,21	506,00
2203,94	448,00
2208,67	432,00
2213,39	336,00
2218,11	301,00
2222,82	428,00
2227,53	448,00
2232,23	408,00
2236,93	461,00
2241,63	439,00
2246,32	453,00
2251,00	428,00
2255,68	454,00
2260,36	419,00
2265,03	423,00
2269,70	457,00
2274,36	491,00
2279,02	329,00
2283,68	407,00
2288,33	484,00
2292,97	332,00
2297,61	451,00
2302,25	435,00
2306,88	345,00
2311,51	413,00
2316,14	399,00
2320,75	534,00
2325,37	400,00
2329,98	420,00
2334,59	323,00
2339,19	440,00
2343,79	314,00
2348,38	438,00
2352,97	354,00
2357,55	475,00
2362,13	500,00
2366,71	310,00
2371,28	300,00
2375,85	459,00
2380,41	384,00
2384,97	332,00
2389,52	276,00
2394,07	419,00
2398,62	346,00
2403,16	462,00
2407,70	314,00
2412,23	379,00
2416,76	453,00
2421,29	323,00
2425,81	484,00
2430,32	372,00
2434,84	329,00
2439,34	466,00
2443,85	395,00
2448,35	435,00
2452,84	375,00
2457,33	435,00
2461,82	467,00
2466,30	331,00
2470,78	429,00
2475,25	314,00
2479,72	359,00
2484,19	355,00
2488,65	332,00
2493,11	264,00
2497,56	322,00
2502,01	231,00
2506,46	347,00
2510,90	347,00
2515,34	252,00
2519,77	340,00
2524,20	347,00
2528,62	378,00
2533,04	415,00
2537,46	474,00
2541,87	275,00
2546,28	329,00
2550,68	298,00
2555,08	361,00
2559,48	381,00
2563,87	435,00
2568,26	322,00
2572,64	349,00
2577,02	356,00
2581,40	367,00
2585,77	468,00
2590,14	397,00
2594,50	280,00
2598,86	463,00
2603,22	249,00
2607,57	261,00
2611,92	384,00
2616,26	287,00
2620,60	448,00
2624,94	327,00
2629,27	411,00
2633,60	337,00
2637,92	387,00
2642,24	296,00
2646,56	411,00
2650,87	429,00
2655,18	389,00
2659,48	374,00
2663,78	378,00
2668,08	466,00
2672,37	504,00
2676,66	394,00
2680,95	370,00
2685,23	351,00
2689,50	500,00
2693,78	254,00
2698,05	448,00
2702,31	446,00
2706,57	263,00
2710,83	509,00
2715,08	436,00
2719,33	555,00
2723,58	566,00
2727,82	428,00
2732,06	490,00
2736,29	530,00
2740,53	541,00
2744,75	388,00
2748,97	433,00
2753,19	460,00
2757,41	335,00
2761,62	375,00
2765,83	513,00
2770,03	386,00
2774,23	425,00
2778,43	463,00
2782,62	598,00
2786,81	395,00
2791,00	392,00
2795,18	645,00
2799,35	521,00
2803,53	447,00
2807,70	612,00
2811,86	626,00
2816,03	794,00
2820,19	631,00
2824,34	731,00
2828,49	859,00
2832,64	1103,00
2836,78	1216,00
2840,92	1641,00
2845,06	1986,00
2849,19	2172,00
2853,32	2467,00
2857,45	2261,00
2861,57	2147,00
2865,69	1987,00
2869,80	1987,00
2873,91	2162,00
2878,02	2322,00
2882,12	2464,00
2886,22	2504,00
2890,32	2178,00
2894,41	2127,00
2898,50	1896,00
2902,58	1727,00
2906,67	1692,00
2910,74	1522,00
2914,82	1399,00
2918,89	1292,00
2922,96	1184,00
2927,02	1161,00
2931,08	1132,00
2935,13	993,00
2939,19	925,00
2943,24	863,00
2947,28	691,00
2951,32	743,00
2955,36	589,00
2959,40	524,00
2963,43	538,00
2967,46	492,00
2971,48	417,00
2975,50	522,00
2979,52	396,00
2983,53	446,00
2987,54	365,00
2991,55	343,00
2995,55	378,00
2999,55	402,00
3003,54	379,00
3007,54	171,00
3011,53	218,00
3015,51	231,00
3019,49	140,00
3023,47	248,00
3027,45	293,00
3031,42	269,00
3035,39	256,00
3039,35	186,00
3043,31	389,00
3047,27	144,00
3051,22	210,00
3055,17	244,00
3059,12	160,00
3063,06	189,00
3067,00	203,00
3070,94	210,00
3074,87	136,00
3078,80	201,00
3082,73	154,00
3086,65	74,00
3090,57	221,00
3094,49	69,00
3098,40	203,00
3102,31	179,00
3106,22	145,00
3110,12	286,00
3114,02	145,00
3117,92	203,00
3121,81	229,00
3125,70	143,00
3129,58	89,00
3133,47	53,00
3137,34	149,00
3141,22	193,00
3145,09	134,00
3148,96	162,00
3152,83	221,00
3156,69	170,00
3160,55	194,00
3164,40	251,00
3168,26	48,00
3172,10	168,00
3175,95	171,00
3179,79	132,00
3183,63	78,00
3187,47	215,00
3191,30	132,00
3195,13	269,00
3198,95	-51,00
3202,78	211,00
3206,60	251,00
3210,41	169,00
3214,23	101,00
3218,03	209,00
3221,84	-67,00
3225,64	143,00
3229,44	171,00
3233,24	194,00
3237,03	135,00
3240,82	100,00
3244,61	69,00
3248,39	120,00
3252,17	209,00
3255,95	43,00
3259,72	216,00
3263,49	104,00
3267,26	126,00
3271,03	186,00
3274,79	66,00
3278,54	91,00
3282,30	152,00
3286,05	35,00
3289,80	26,00
3293,54	94,00
3297,29	175,00
3301,02	189,00
3304,76	105,00
3308,49	73,00
3312,22	86,00
3315,95	-1,00
3319,67	255,00
3323,39	177,00
3327,10	108,00
3330,82	149,00
3334,53	158,00
3338,24	152,00
3341,94	143,00
3345,64	85,00
3349,34	72,00
3353,03	33,00
3356,72	157,00
3360,41	135,00
3364,10	282,00
3367,78	18,00
3371,46	145,00
3375,13	40,00
3378,81	85,00
3382,48	154,00
3386,14	-117,00
3389,81	161,00
3393,47	234,00
3397,12	-29,00
3400,78	49,00
3404,43	193,00
3408,08	134,00
3411,72	52,00
3415,36	78,00
3419,00	90,00
3422,64	81,00
3426,27	177,00
3429,90	76,00
3433,53	139,00
3437,15	111,00
3440,77	188,00
3444,39	114,00
3448,00	15,00
3451,62	58,00
3455,22	201,00
3458,83	156,00
3462,43	47,00
3466,03	-70,00
3469,63	54,00
3473,22	161,00
3476,81	83,00
3480,40	-2,00
3483,99	38,00
3487,57	95,00
3491,15	118,00
3494,72	27,00
3498,29	168,00
3501,86	118,00
3505,43	-36,00
3508,99	139,00
3512,56	118,00
3516,11	176,00
3519,67	58,00
3523,22	80,00
3526,77	11,00
3530,32	106,00
3533,86	210,00
3537,40	119,00
3540,94	74,00
3544,47	134,00
3548,00	119,00
3551,53	74,00
3555,06	122,00
3558,58	122,00
3562,10	104,00
3565,62	118,00
3569,13	39,00
3572,64	32,00
3576,15	171,00
3579,66	31,00
3583,16	-27,00
3586,66	41,00
3590,16	24,00
3593,65	57,00
3597,14	-19,00
3600,63	129,00
3604,11	102,00
3607,60	92,00
3611,08	181,00
3614,55	-93,00
3618,03	40,00
3621,50	96,00
3624,97	15,00
3628,43	117,00
3631,90	35,00
3635,36	71,00
3638,81	97,00
3642,27	26,00
3645,72	124,00
3649,17	183,00
3652,61	8,00
3656,06	127,00
3659,50	42,00
3662,93	-14,00
3666,37	-131,00
3669,80	87,00
3673,23	89,00
3676,65	89,00
3680,08	104,00
3683,50	24,00
3686,92	-6,00
3690,33	16,00
3693,74	20,00
3697,15	74,00
3700,56	-24,00
3703,96	19,00
3707,36	-62,00
3710,76	-72,00
3714,16	61,00
3717,55	-6,00
3720,94	40,00
3724,33	94,00
3727,71	-3,00
3731,10	64,00
3734,48	46,00
3737,85	59,00
3741,23	-33,00
3744,60	-7,00
3747,97	78,00
3751,33	36,00
3754,69	-59,00
3758,05	97,00
3761,41	20,00
3764,77	127,00
3768,12	145,00
3771,47	125,00
3774,82	-38,00
3778,16	0,00
3781,50	1,00
3784,84	5,00
3788,18	7,00
>>>>>End Processed Spectral Data<<<<<
