SpectraSuite Data File
++++++++++++++++++++++++++++++++++++
Date: Tue Mar 03 12:21:37 ICT 2026
User: user
Dark Spectrum Present: Yes
Reference Spectrum Present: No
Number of Sampled Component Spectra: 1
Spectrometers: MAYP113682
Integration Time (usec): 3000000 (MAYP113682)
Spectra Averaged: 1 (MAYP113682)
Boxcar Smoothing: 0 (MAYP113682)
Correct for Electrical Dark: No (MAYP113682)
Strobe/Lamp Enabled: No (MAYP113682)
Correct for Detector Non-linearity: No (MAYP113682)
Correct for Stray Light: No (MAYP113682)
Number of Pixels in Processed Spectrum: 2068
>>>>>Begin Processed Spectral Data<<<<<
-37534,58	6,00
-37414,56	1,00
-37295,11	4,00
-37176,24	-2,00
-37057,95	-102,00
-36940,22	-73,00
-36823,05	53,00
-36706,45	-54,00
-36590,40	61,00
-36474,90	-34,00
-36359,95	103,00
-36245,55	160,00
-36131,68	32,00
-36018,35	74,00
-35905,55	3,00
-35793,29	-31,00
-35681,54	47,00
-35570,32	-128,00
-35459,62	-33,00
-35349,43	51,00
-35239,75	167,00
-35130,58	-64,00
-35021,91	57,00
-34913,74	37,00
-34806,07	148,00
-34698,89	130,00
-34592,20	-99,00
-34486,00	28,00
-34380,28	-44,00
-34275,04	-122,00
-34170,27	-125,00
-34065,98	-37,00
-33962,16	-42,00
-33858,81	7,00
-33755,92	-9,00
-33653,49	4,00
-33551,52	92,00
-33450,01	74,00
-33348,94	-18,00
-33248,33	22,00
-33148,16	99,00
-33048,43	54,00
-32949,14	-39,00
-32850,29	86,00
-32751,87	76,00
-32653,89	126,00
-32556,33	83,00
-32459,20	39,00
-32362,49	-36,00
-32266,19	34,00
-32170,32	-30,00
-32074,86	-100,00
-31979,82	-21,00
-31885,18	-100,00
-31790,95	24,00
-31697,12	65,00
-31603,69	62,00
-31510,67	2,00
-31418,04	-25,00
-31325,80	105,00
-31233,95	-25,00
-31142,49	70,00
-31051,42	149,00
-30960,73	32,00
-30870,43	120,00
-30780,50	13,00
-30690,95	96,00
-30601,77	56,00
-30512,97	-70,00
-30424,53	80,00
-30336,46	57,00
-30248,76	1,00
-30161,42	-76,00
-30074,44	122,00
-29987,81	63,00
-29901,55	-76,00
-29815,63	64,00
-29730,07	13,00
-29644,86	95,00
-29560,00	79,00
-29475,48	-21,00
-29391,30	84,00
-29307,47	129,00
-29223,97	3,00
-29140,81	-92,00
-29057,99	-88,00
-28975,50	128,00
-28893,34	-43,00
-28811,51	1,00
-28730,00	80,00
-28648,82	-8,00
-28567,97	-6,00
-28487,43	11,00
-28407,21	-37,00
-28327,32	-66,00
-28247,73	-11,00
-28168,46	1,00
-28089,50	15,00
-28010,85	8,00
-27932,51	20,00
-27854,48	-69,00
-27776,75	9,00
-27699,32	-43,00
-27622,19	136,00
-27545,37	3,00
-27468,84	13,00
-27392,60	55,00
-27316,66	24,00
-27241,01	-36,00
-27165,66	56,00
-27090,59	-104,00
-27015,81	104,00
-26941,31	50,00
-26867,10	77,00
-26793,17	16,00
-26719,52	-70,00
-26646,15	24,00
-26573,06	201,00
-26500,24	-77,00
-26427,70	-18,00
-26355,43	74,00
-26283,43	87,00
-26211,71	148,00
-26140,25	12,00
-26069,06	116,00
-25998,13	-33,00
-25927,46	6,00
-25857,06	98,00
-25786,92	-7,00
-25717,04	-98,00
-25647,42	7,00
-25578,05	-33,00
-25508,94	-11,00
-25440,09	111,00
-25371,48	126,00
-25303,13	50,00
-25235,02	-4,00
-25167,17	77,00
-25099,56	44,00
-25032,19	29,00
-24965,07	-145,00
-24898,20	34,00
-24831,56	-64,00
-24765,17	11,00
-24699,01	98,00
-24633,10	69,00
-24567,41	-83,00
-24501,97	33,00
-24436,75	-153,00
-24371,77	12,00
-24307,03	-91,00
-24242,51	-30,00
-24178,22	-30,00
-24114,16	-24,00
-24050,32	-24,00
-23986,71	-56,00
-23923,32	-11,00
-23860,16	-56,00
-23797,22	22,00
-23734,50	27,00
-23672,00	30,00
-23609,71	175,00
-23547,65	-18,00
-23485,80	-9,00
-23424,16	-18,00
-23362,74	-64,00
-23301,53	-3,00
-23240,54	38,00
-23179,75	88,00
-23119,17	37,00
-23058,80	100,00
-22998,64	8,00
-22938,68	34,00
-22878,93	13,00
-22819,39	96,00
-22760,04	-90,00
-22700,90	-2,00
-22641,96	-61,00
-22583,22	4,00
-22524,68	57,00
-22466,33	89,00
-22408,19	145,00
-22350,23	67,00
-22292,48	34,00
-22234,92	93,00
-22177,55	23,00
-22120,37	-18,00
-22063,38	-97,00
-22006,58	24,00
-21949,98	36,00
-21893,56	88,00
-21837,33	51,00
-21781,28	78,00
-21725,42	0,00
-21669,74	23,00
-21614,25	65,00
-21558,94	116,00
-21503,81	48,00
-21448,86	-59,00
-21394,10	91,00
-21339,51	138,00
-21285,10	-53,00
-21230,86	-92,00
-21176,81	118,00
-21122,93	130,00
-21069,22	114,00
-21015,69	-6,00
-20962,33	53,00
-20909,14	-46,00
-20856,13	76,00
-20803,28	-11,00
-20750,61	30,00
-20698,10	-40,00
-20645,76	141,00
-20593,59	88,00
-20541,59	67,00
-20489,75	34,00
-20438,07	57,00
-20386,56	103,00
-20335,22	-13,00
-20284,03	-6,00
-20233,01	-27,00
-20182,15	-52,00
-20131,45	24,00
-20080,91	16,00
-20030,52	59,00
-19980,30	-10,00
-19930,23	-15,00
-19880,32	-68,00
-19830,56	126,00
-19780,96	43,00
-19731,52	97,00
-19682,23	-181,00
-19633,09	-10,00
-19584,10	111,00
-19535,26	-13,00
-19486,58	-95,00
-19438,04	-39,00
-19389,66	40,00
-19341,42	-17,00
-19293,33	17,00
-19245,39	15,00
-19197,60	87,00
-19149,95	93,00
-19102,45	11,00
-19055,09	-24,00
-19007,87	103,00
-18960,80	48,00
-18913,87	63,00
-18867,09	26,00
-18820,44	65,00
-18773,94	-40,00
-18727,57	-94,00
-18681,35	-2,00
-18635,26	-50,00
-18589,31	44,00
-18543,50	28,00
-18497,83	-31,00
-18452,29	-81,00
-18406,89	84,00
-18361,63	-28,00
-18316,50	-27,00
-18271,50	-79,00
-18226,63	34,00
-18181,90	104,00
-18137,30	69,00
-18092,84	-18,00
-18048,50	45,00
-18004,29	57,00
-17960,22	67,00
-17916,27	-64,00
-17872,45	17,00
-17828,76	-117,00
-17785,20	-56,00
-17741,77	-48,00
-17698,46	-58,00
-17655,28	35,00
-17612,22	-88,00
-17569,29	65,00
-17526,48	29,00
-17483,79	-19,00
-17441,23	-71,00
-17398,79	33,00
-17356,48	24,00
-17314,28	-6,00
-17272,21	-51,00
-17230,26	77,00
-17188,42	72,00
-17146,71	57,00
-17105,12	-35,00
-17063,64	123,00
-17022,28	69,00
-16981,04	-42,00
-16939,92	-36,00
-16898,91	-122,00
-16858,02	9,00
-16817,25	31,00
-16776,59	115,00
-16736,04	88,00
-16695,61	91,00
-16655,29	68,00
-16615,09	-25,00
-16574,99	-70,00
-16535,01	-60,00
-16495,15	54,00
-16455,39	67,00
-16415,74	127,00
-16376,21	26,00
-16336,78	-73,00
-16297,46	-10,00
-16258,26	72,00
-16219,16	13,00
-16180,17	68,00
-16141,28	-78,00
-16102,51	-36,00
-16063,84	-46,00
-16025,27	121,00
-15986,82	-26,00
-15948,46	-152,00
-15910,22	13,00
-15872,07	147,00
-15834,04	3,00
-15796,10	1,00
-15758,27	37,00
-15720,54	26,00
-15682,91	-21,00
-15645,39	-74,00
-15607,97	148,00
-15570,64	-26,00
-15533,42	-153,00
-15496,30	-41,00
-15459,28	142,00
-15422,36	-47,00
-15385,54	0,00
-15348,82	108,00
-15312,19	-32,00
-15275,66	-107,00
-15239,23	-98,00
-15202,90	-4,00
-15166,67	47,00
-15130,53	-140,00
-15094,48	8,00
-15058,54	-8,00
-15022,68	5,00
-14986,93	83,00
-14951,26	-37,00
-14915,69	-16,00
-14880,22	18,00
-14844,84	12,00
-14809,55	-102,00
-14774,35	3,00
-14739,25	79,00
-14704,24	-50,00
-14669,32	-69,00
-14634,49	158,00
-14599,75	46,00
-14565,10	-26,00
-14530,55	46,00
-14496,08	114,00
-14461,70	97,00
-14427,41	-133,00
-14393,21	-35,00
-14359,10	-63,00
-14325,07	50,00
-14291,14	-4,00
-14257,29	-8,00
-14223,52	-19,00
-14189,85	-108,00
-14156,26	-18,00
-14122,76	-27,00
-14089,34	-93,00
-14056,01	39,00
-14022,76	105,00
-13989,60	99,00
-13956,52	34,00
-13923,53	-37,00
-13890,62	75,00
-13857,79	33,00
-13825,05	3,00
-13792,39	23,00
-13759,81	128,00
-13727,31	-71,00
-13694,90	-119,00
-13662,57	200,00
-13630,31	74,00
-13598,14	-27,00
-13566,05	-54,00
-13534,05	-92,00
-13502,12	87,00
-13470,27	47,00
-13438,50	-139,00
-13406,80	88,00
-13375,19	-69,00
-13343,66	-11,00
-13312,20	-31,00
-13280,83	-12,00
-13249,53	7,00
-13218,30	61,00
-13187,16	-63,00
-13156,09	-138,00
-13125,10	87,00
-13094,18	53,00
-13063,34	13,00
-13032,58	2,00
-13001,89	-108,00
-12971,28	117,00
-12940,74	-6,00
-12910,27	65,00
-12879,88	-80,00
-12849,57	14,00
-12819,33	-3,00
-12789,16	32,00
-12759,06	10,00
-12729,04	-112,00
-12699,09	-137,00
-12669,21	68,00
-12639,41	-15,00
-12609,68	17,00
-12580,02	-115,00
-12550,43	14,00
-12520,91	64,00
-12491,46	48,00
-12462,08	83,00
-12432,77	-30,00
-12403,54	24,00
-12374,37	28,00
-12345,27	-48,00
-12316,24	0,00
-12287,29	-21,00
-12258,40	77,00
-12229,57	42,00
-12200,82	41,00
-12172,14	-56,00
-12143,52	-83,00
-12114,97	112,00
-12086,49	59,00
-12058,07	70,00
-12029,73	-82,00
-12001,44	71,00
-11973,23	-55,00
-11945,08	0,00
-11917,00	46,00
-11888,98	57,00
-11861,03	54,00
-11833,15	-58,00
-11805,32	-62,00
-11777,57	64,00
-11749,88	32,00
-11722,25	48,00
-11694,69	82,00
-11667,19	-34,00
-11639,75	-69,00
-11612,38	105,00
-11585,07	-13,00
-11557,83	11,00
-11530,65	-30,00
-11503,53	165,00
-11476,47	0,00
-11449,48	80,00
-11422,54	70,00
-11395,67	-6,00
-11368,86	78,00
-11342,11	57,00
-11315,43	-41,00
-11288,80	165,00
-11262,23	9,00
-11235,73	8,00
-11209,28	-56,00
-11182,90	-5,00
-11156,57	16,00
-11130,31	-2,00
-11104,10	-3,00
-11077,96	-66,00
-11051,87	86,00
-11025,84	-53,00
-10999,87	-25,00
-10973,96	-23,00
-10948,11	-27,00
-10922,31	-56,00
-10896,58	44,00
-10870,90	-9,00
-10845,28	69,00
-10819,71	-88,00
-10794,20	6,00
-10768,75	68,00
-10743,36	104,00
-10718,02	116,00
-10692,74	49,00
-10667,52	117,00
-10642,35	79,00
-10617,24	85,00
-10592,18	208,00
-10567,18	103,00
-10542,23	102,00
-10517,34	222,00
-10492,51	55,00
-10467,72	128,00
-10443,00	188,00
-10418,32	166,00
-10393,70	76,00
-10369,14	92,00
-10344,63	291,00
-10320,17	208,00
-10295,77	190,00
-10271,42	168,00
-10247,12	250,00
-10222,88	378,00
-10198,68	356,00
-10174,54	200,00
-10150,46	419,00
-10126,42	175,00
-10102,44	355,00
-10078,51	398,00
-10054,63	467,00
-10030,80	384,00
-10007,03	403,00
-9983,30	398,00
-9959,63	502,00
-9936,01	474,00
-9912,44	597,00
-9888,92	487,00
-9865,44	525,00
-9842,02	604,00
-9818,65	557,00
-9795,33	597,00
-9772,06	605,00
-9748,84	646,00
-9725,67	669,00
-9702,55	938,00
-9679,47	1007,00
-9656,45	1092,00
-9633,47	1087,00
-9610,55	1143,00
-9587,67	1156,00
-9564,84	1410,00
-9542,06	1396,00
-9519,32	1603,00
-9496,64	1724,00
-9474,00	1870,00
-9451,41	2051,00
-9428,87	2036,00
-9406,37	1937,00
-9383,92	1708,00
-9361,52	1632,00
-9339,17	1663,00
-9316,86	2025,00
-9294,60	2202,00
-9272,38	2326,00
-9250,21	2534,00
-9228,09	2700,00
-9206,01	2542,00
-9183,98	2351,00
-9162,00	2018,00
-9140,06	1919,00
-9118,16	1868,00
-9096,31	2110,00
-9074,51	2087,00
-9052,75	1992,00
-9031,04	1948,00
-9009,37	1715,00
-8987,74	1475,00
-8966,16	1309,00
-8944,63	1250,00
-8923,14	1124,00
-8901,69	1141,00
-8880,29	1486,00
-8858,93	1653,00
-8837,61	1722,00
-8816,34	1916,00
-8795,11	1879,00
-8773,92	1805,00
-8752,78	1559,00
-8731,68	1334,00
-8710,62	1403,00
-8689,61	1582,00
-8668,63	1707,00
-8647,70	1745,00
-8626,82	1744,00
-8605,97	1628,00
-8585,17	1549,00
-8564,41	1367,00
-8543,69	1328,00
-8523,01	1294,00
-8502,37	1294,00
-8481,78	1277,00
-8461,23	1398,00
-8440,71	1600,00
-8420,24	1562,00
-8399,81	1691,00
-8379,42	1723,00
-8359,08	1514,00
-8338,77	1319,00
-8318,50	1308,00
-8298,27	1110,00
-8278,09	1454,00
-8257,94	1247,00
-8237,83	1579,00
-8217,76	1589,00
-8197,74	1578,00
-8177,75	1551,00
-8157,80	1317,00
-8137,89	1267,00
-8118,02	1331,00
-8098,19	1248,00
-8078,40	1238,00
-8058,65	1287,00
-8038,93	1412,00
-8019,26	1336,00
-7999,62	1249,00
-7980,02	1231,00
-7960,46	1294,00
-7940,94	1103,00
-7921,46	1166,00
-7902,01	1111,00
-7882,60	1103,00
-7863,23	1189,00
-7843,90	1232,00
-7824,61	1278,00
-7805,35	1290,00
-7786,13	1346,00
-7766,95	1380,00
-7747,80	1137,00
-7728,69	1291,00
-7709,62	1145,00
-7690,59	1152,00
-7671,59	1235,00
-7652,63	1354,00
-7633,70	1426,00
-7614,81	1351,00
-7595,96	1227,00
-7577,15	1151,00
-7558,37	930,00
-7539,62	1138,00
-7520,91	1237,00
-7502,24	1231,00
-7483,60	1312,00
-7465,00	1191,00
-7446,44	1012,00
-7427,91	956,00
-7409,41	820,00
-7390,95	673,00
-7372,53	906,00
-7354,14	943,00
-7335,78	812,00
-7317,46	915,00
-7299,18	992,00
-7280,92	1149,00
-7262,71	1263,00
-7244,52	1296,00
-7226,38	1236,00
-7208,26	1174,00
-7190,18	1285,00
-7172,14	1065,00
-7154,12	1126,00
-7136,15	1363,00
-7118,20	1404,00
-7100,29	1304,00
-7082,41	1325,00
-7064,57	1179,00
-7046,76	1139,00
-7028,98	928,00
-7011,24	863,00
-6993,53	704,00
-6975,85	813,00
-6958,20	618,00
-6940,59	563,00
-6923,01	586,00
-6905,46	835,00
-6887,94	911,00
-6870,46	-1943,00
-6853,01	1175,00
-6835,59	1169,00
-6818,21	1052,00
-6800,85	782,00
-6783,53	696,00
-6766,24	539,00
-6748,98	565,00
-6731,76	503,00
-6714,56	533,00
-6697,40	487,00
-6680,26	574,00
-6663,16	712,00
-6646,09	700,00
-6629,05	805,00
-6612,05	893,00
-6595,07	925,00
-6578,13	785,00
-6561,21	778,00
-6544,33	465,00
-6527,47	502,00
-6510,65	331,00
-6493,86	352,00
-6477,10	373,00
-6460,36	376,00
-6443,66	369,00
-6426,99	294,00
-6410,35	364,00
-6393,74	384,00
-6377,16	477,00
-6360,61	504,00
-6344,09	590,00
-6327,59	747,00
-6311,13	672,00
-6294,70	809,00
-6278,29	781,00
-6261,92	694,00
-6245,58	936,00
-6229,26	906,00
-6212,97	826,00
-6196,72	522,00
-6180,49	457,00
-6164,29	287,00
-6148,12	372,00
-6131,98	158,00
-6115,86	168,00
-6099,78	318,00
-6083,72	130,00
-6067,69	229,00
-6051,69	79,00
-6035,72	195,00
-6019,78	272,00
-6003,87	388,00
-5987,98	621,00
-5972,12	580,00
-5956,29	688,00
-5940,49	576,00
-5924,71	425,00
-5908,96	329,00
-5893,24	234,00
-5877,55	251,00
-5861,89	236,00
-5846,25	350,00
-5830,64	298,00
-5815,05	325,00
-5799,50	192,00
-5783,97	288,00
-5768,47	369,00
-5752,99	364,00
-5737,55	591,00
-5722,12	599,00
-5706,73	629,00
-5691,36	446,00
-5676,02	297,00
-5660,71	247,00
-5645,42	213,00
-5630,16	306,00
-5614,92	260,00
-5599,71	512,00
-5584,53	402,00
-5569,37	417,00
-5554,24	415,00
-5539,14	443,00
-5524,06	213,00
-5509,01	395,00
-5493,98	441,00
-5478,98	295,00
-5464,00	402,00
-5449,05	357,00
-5434,13	147,00
-5419,23	299,00
-5404,36	250,00
-5389,51	222,00
-5374,69	553,00
-5359,89	771,00
-5345,12	603,00
-5330,37	599,00
-5315,65	443,00
-5300,95	519,00
-5286,28	330,00
-5271,63	360,00
-5257,01	382,00
-5242,41	337,00
-5227,84	365,00
-5213,29	307,00
-5198,76	-2,00
-5184,26	258,00
-5169,79	165,00
-5155,33	305,00
-5140,91	297,00
-5126,51	467,00
-5112,13	448,00
-5097,77	365,00
-5083,44	345,00
-5069,13	258,00
-5054,85	298,00
-5040,59	250,00
-5026,36	330,00
-5012,15	490,00
-4997,96	361,00
-4983,80	276,00
-4969,66	187,00
-4955,54	248,00
-4941,44	291,00
-4927,37	554,00
-4913,33	480,00
-4899,30	643,00
-4885,30	555,00
-4871,33	379,00
-4857,37	155,00
-4843,44	88,00
-4829,53	52,00
-4815,65	394,00
-4801,79	228,00
-4787,95	333,00
-4774,13	236,00
-4760,34	274,00
-4746,56	-39,00
-4732,82	296,00
-4719,09	240,00
-4705,38	406,00
-4691,70	627,00
-4678,04	670,00
-4664,41	334,00
-4650,79	359,00
-4637,20	267,00
-4623,63	160,00
-4610,08	208,00
-4596,56	381,00
-4583,05	300,00
-4569,57	365,00
-4556,11	37,00
-4542,67	-18,00
-4529,25	118,00
-4515,86	232,00
-4502,49	483,00
-4489,13	508,00
-4475,80	431,00
-4462,49	295,00
-4449,21	252,00
-4435,94	183,00
-4422,70	217,00
-4409,47	291,00
-4396,27	263,00
-4383,09	190,00
-4369,93	159,00
-4356,79	36,00
-4343,67	189,00
-4330,58	198,00
-4317,50	229,00
-4304,45	266,00
-4291,41	225,00
-4278,40	114,00
-4265,41	16,00
-4252,44	191,00
-4239,49	258,00
-4226,55	282,00
-4213,65	121,00
-4200,76	185,00
-4187,89	44,00
-4175,04	96,00
-4162,21	151,00
-4149,40	26,00
-4136,61	-87,00
-4123,85	20,00
-4111,10	88,00
-4098,37	117,00
-4085,66	135,00
-4072,98	110,00
-4060,31	-73,00
-4047,66	211,00
-4035,04	37,00
-4022,43	-63,00
-4009,84	48,00
-3997,27	87,00
-3984,72	-24,00
-3972,19	89,00
-3959,69	56,00
-3947,20	-46,00
-3934,73	-32,00
-3922,27	-23,00
-3909,84	-88,00
-3897,43	-71,00
-3885,04	19,00
-3872,67	90,00
-3860,31	93,00
-3847,98	95,00
-3835,66	-36,00
-3823,36	25,00
-3811,09	35,00
-3798,83	-42,00
-3786,59	-124,00
-3774,37	51,00
-3762,17	-34,00
-3749,98	1,00
-3737,82	95,00
-3725,67	29,00
-3713,55	86,00
-3701,44	65,00
-3689,35	81,00
-3677,28	-82,00
-3665,22	73,00
-3653,19	6,00
-3641,17	11,00
-3629,18	54,00
-3617,20	-51,00
-3605,24	-40,00
-3593,30	8,00
-3581,37	64,00
-3569,47	51,00
-3557,58	39,00
-3545,71	-68,00
-3533,86	-67,00
-3522,02	141,00
-3510,21	38,00
-3498,41	85,00
-3486,63	-63,00
-3474,87	40,00
-3463,12	-12,00
-3451,40	-34,00
-3439,69	77,00
-3428,00	-32,00
-3416,33	-8,00
-3404,67	-82,00
-3393,03	-25,00
-3381,41	23,00
-3369,81	-41,00
-3358,22	2,00
-3346,66	25,00
-3335,10	4,00
-3323,57	27,00
-3312,06	27,00
-3300,56	22,00
-3289,08	-81,00
-3277,61	-50,00
-3266,16	-35,00
-3254,73	65,00
-3243,32	39,00
-3231,92	-64,00
-3220,55	-1,00
-3209,18	60,00
-3197,84	40,00
-3186,51	44,00
-3175,20	3,00
-3163,90	178,00
-3152,63	-78,00
-3141,36	-76,00
-3130,12	-69,00
-3118,89	-95,00
-3107,68	-168,00
-3096,49	-6,00
-3085,31	26,00
-3074,15	78,00
-3063,00	62,00
-3051,87	-3,00
-3040,76	-21,00
-3029,67	56,00
-3018,59	2,00
-3007,52	61,00
-2996,48	-10,00
-2985,44	80,00
-2974,43	168,00
-2963,43	105,00
-2952,45	-74,00
-2941,48	30,00
-2930,53	68,00
-2919,60	-29,00
-2908,68	33,00
-2897,78	72,00
-2886,89	51,00
-2876,02	-26,00
-2865,17	-40,00
-2854,33	54,00
-2843,50	-100,00
-2832,70	71,00
-2821,90	9,00
-2811,13	-151,00
-2800,37	2,00
-2789,62	1,00
-2778,89	33,00
-2768,18	71,00
-2757,48	83,00
-2746,80	-7,00
-2736,13	-117,00
-2725,48	-82,00
-2714,84	53,00
-2704,22	-42,00
-2693,61	37,00
-2683,02	-2,00
-2672,45	-120,00
-2661,89	52,00
-2651,34	-49,00
-2640,81	-56,00
-2630,30	93,00
-2619,80	-32,00
-2609,31	-43,00
-2598,84	40,00
-2588,39	177,00
-2577,95	-116,00
-2567,52	76,00
-2557,11	26,00
-2546,71	74,00
-2536,33	-3,00
-2525,97	1,00
-2515,62	35,00
-2505,28	-51,00
-2494,96	43,00
-2484,65	56,00
-2474,36	-51,00
-2464,08	80,00
-2453,82	1,00
-2443,57	-1,00
-2433,33	-43,00
-2423,11	13,00
-2412,91	83,00
-2402,72	-12,00
-2392,54	-1,00
-2382,38	-16,00
-2372,23	96,00
-2362,09	-4893,00
-2351,97	35,00
-2341,87	-90,00
-2331,78	96,00
-2321,70	11,00
-2311,64	24,00
-2301,59	16,00
-2291,55	136,00
-2281,53	-13,00
-2271,53	92,00
-2261,53	-71,00
-2251,55	7,00
-2241,59	78,00
-2231,64	-75,00
-2221,70	59,00
-2211,78	59,00
-2201,87	169,00
-2191,97	70,00
-2182,09	-108,00
-2172,22	57,00
-2162,37	119,00
-2152,53	-19,00
-2142,70	44,00
-2132,89	89,00
-2123,09	-6,00
-2113,30	150,00
-2103,53	58,00
-2093,77	-22,00
-2084,02	3,00
-2074,29	32,00
-2064,57	44,00
-2054,86	-24,00
-2045,17	-44,00
-2035,49	34,00
-2025,82	2,00
-2016,17	23,00
-2006,53	-46,00
-1996,91	15,00
-1987,29	-50,00
-1977,69	3,00
-1968,11	131,00
-1958,53	113,00
-1948,97	-30,00
-1939,42	69,00
-1929,89	-89,00
-1920,37	134,00
-1910,86	-12,00
-1901,36	110,00
-1891,88	5,00
-1882,41	-41,00
-1872,95	46,00
-1863,51	-99,00
-1854,08	-70,00
-1844,66	65,00
-1835,26	-4,00
-1825,86	-21,00
-1816,48	-12,00
-1807,11	-90,00
-1797,76	-5,00
-1788,42	-29,00
-1779,09	-58,00
-1769,77	-62,00
-1760,47	-45,00
-1751,17	34,00
-1741,89	-4,00
-1732,63	-2,00
-1723,37	-109,00
-1714,13	69,00
-1704,90	-17,00
-1695,68	54,00
-1686,48	135,00
-1677,29	48,00
-1668,11	172,00
-1658,94	-33,00
-1649,78	-18,00
-1640,64	-7,00
-1631,51	75,00
-1622,39	27,00
-1613,28	66,00
-1604,19	19,00
-1595,10	-51,00
-1586,03	85,00
-1576,97	-52,00
-1567,93	-1,00
-1558,89	-60,00
-1549,87	41,00
-1540,86	72,00
-1531,86	70,00
-1522,87	-90,00
-1513,90	78,00
-1504,93	112,00
-1495,98	-118,00
-1487,04	-96,00
-1478,12	41,00
-1469,20	12,00
-1460,30	38,00
-1451,40	84,00
-1442,52	0,00
-1433,65	-1,00
-1424,80	45,00
-1415,95	184,00
-1407,12	53,00
-1398,30	-24,00
-1389,48	42,00
-1380,69	-36,00
-1371,90	97,00
-1363,12	26,00
-1354,36	47,00
-1345,60	38,00
-1336,86	29,00
-1328,13	39,00
-1319,41	-22,00
-1310,70	66,00
-1302,01	3,00
-1293,32	76,00
-1284,65	9,00
-1275,99	104,00
-1267,33	-4,00
-1258,69	-11,00
-1250,06	57,00
-1241,45	145,00
-1232,84	124,00
-1224,25	-59,00
-1215,66	-40,00
-1207,09	-96,00
-1198,53	22,00
-1189,97	-68,00
-1181,43	53,00
-1172,91	-36,00
-1164,39	59,00
-1155,88	17,00
-1147,38	9,00
-1138,90	174,00
-1130,43	-44,00
-1121,96	56,00
-1113,51	24,00
-1105,07	-30,00
-1096,64	130,00
-1088,22	28,00
-1079,81	65,00
-1071,41	-8,00
-1063,02	-44,00
-1054,65	46,00
-1046,28	-24,00
-1037,92	17,00
-1029,58	-17,00
-1021,24	18,00
-1012,92	112,00
-1004,61	10,00
-996,30	77,00
-988,01	-24,00
-979,73	51,00
-971,46	-25,00
-963,20	44,00
-954,95	50,00
-946,71	-107,00
-938,48	24,00
-930,26	-89,00
-922,06	-76,00
-913,86	103,00
-905,67	91,00
-897,49	-64,00
-889,33	154,00
-881,17	84,00
-873,02	79,00
-864,89	-33,00
-856,76	-21,00
-848,65	75,00
-840,54	-136,00
-832,45	-30,00
-824,36	-77,00
-816,29	115,00
-808,22	-66,00
-800,17	34,00
-792,12	14,00
-784,09	53,00
-776,06	4,00
-768,05	-13,00
-760,04	89,00
-752,05	85,00
-744,07	135,00
-736,09	55,00
-728,13	93,00
-720,17	144,00
-712,23	17,00
-704,29	0,00
-696,37	67,00
-688,45	36,00
-680,55	-48,00
-672,65	119,00
-664,77	-50,00
-656,89	4,00
-649,03	48,00
-641,17	-33,00
-633,32	124,00
-625,49	-12,00
-617,66	43,00
-609,84	4,00
-602,03	15,00
-594,23	78,00
-586,45	-33,00
-578,67	98,00
-570,90	59,00
-563,14	12,00
-555,39	38,00
-547,65	-55,00
-539,91	41,00
-532,19	26,00
-524,48	28,00
-516,78	-29,00
-509,08	-20,00
-501,40	-16,00
-493,72	81,00
-486,06	-61,00
-478,40	55,00
-470,76	54,00
-463,12	5,00
-455,49	109,00
-447,87	94,00
-440,26	-17,00
-432,66	-30,00
-425,07	24,00
-417,49	-24,00
-409,92	92,00
-402,35	-14,00
-394,80	7,00
-387,25	25,00
-379,72	51,00
-372,19	133,00
-364,67	195,00
-357,17	-31,00
-349,67	17,00
-342,18	77,00
-334,69	130,00
-327,22	-7,00
-319,76	-13,00
-312,30	95,00
-304,86	54,00
-297,42	77,00
-290,00	44,00
-282,58	-101,00
-275,17	-8,00
-267,77	5,00
-260,37	107,00
-252,99	16,00
-245,62	35,00
-238,25	97,00
-230,90	20,00
-223,55	121,00
-216,21	144,00
-208,88	61,00
-201,56	159,00
-194,25	137,00
-186,94	47,00
-179,65	271,00
-172,36	223,00
-165,08	179,00
-157,81	177,00
-150,55	163,00
-143,30	266,00
-136,06	292,00
-128,82	269,00
-121,60	323,00
-114,38	234,00
-107,17	256,00
-99,97	459,00
-92,78	550,00
-85,60	538,00
-78,42	586,00
-71,25	747,00
-64,10	979,00
-56,95	1091,00
-49,81	1276,00
-42,67	1513,00
-35,55	1909,00
-28,43	2704,00
-21,33	4842,00
-14,23	16340,00
-7,14	47266,00
-0,05	38051,00
7,02	42597,00
14,09	42483,00
21,14	11612,00
28,19	4922,00
35,23	3314,00
42,27	2461,00
49,29	2057,00
56,31	1648,00
63,32	1343,00
70,32	1233,00
77,31	900,00
84,29	959,00
91,27	701,00
98,23	678,00
105,19	623,00
112,14	617,00
119,09	937,00
126,02	1298,00
132,95	1599,00
139,87	1642,00
146,78	1563,00
153,68	1351,00
160,58	1429,00
167,46	1512,00
174,34	1444,00
181,21	1280,00
188,08	1377,00
194,93	1385,00
201,78	1421,00
208,62	1449,00
215,45	1332,00
222,27	1341,00
229,09	1256,00
235,90	1418,00
242,70	1213,00
249,49	1299,00
256,27	1214,00
263,05	1218,00
269,82	1208,00
276,58	1316,00
283,33	1191,00
290,08	1363,00
296,82	1186,00
303,55	1122,00
310,27	1207,00
316,98	1189,00
323,69	1279,00
330,39	1245,00
337,08	1111,00
343,76	1138,00
350,44	1173,00
357,11	1082,00
363,77	1175,00
370,42	1240,00
377,07	1282,00
383,71	1124,00
390,34	1037,00
396,96	1153,00
403,58	1066,00
410,19	1128,00
416,79	1081,00
423,38	1014,00
429,97	1090,00
436,55	1122,00
443,12	1073,00
449,68	1085,00
456,24	1104,00
462,79	1064,00
469,33	920,00
475,86	1010,00
482,39	1046,00
488,91	925,00
495,42	877,00
501,93	1135,00
508,42	1035,00
514,91	1127,00
521,40	1032,00
527,87	1070,00
534,34	896,00
540,80	1030,00
547,25	910,00
553,70	978,00
560,14	936,00
566,57	954,00
573,00	931,00
579,41	847,00
585,83	1027,00
592,23	1040,00
598,62	956,00
605,01	898,00
611,40	957,00
617,77	1025,00
624,14	892,00
630,50	929,00
636,85	811,00
643,20	876,00
649,54	965,00
655,87	999,00
662,20	939,00
668,52	822,00
674,83	884,00
681,13	899,00
687,43	1051,00
693,72	870,00
700,00	812,00
706,28	894,00
712,55	1007,00
718,81	899,00
725,07	934,00
731,32	830,00
737,56	1000,00
743,79	948,00
750,02	1071,00
756,24	971,00
762,46	886,00
768,67	958,00
774,87	943,00
781,06	838,00
787,25	873,00
793,43	934,00
799,60	950,00
805,77	873,00
811,93	859,00
818,08	868,00
824,23	970,00
830,37	934,00
836,50	940,00
842,63	901,00
848,75	902,00
854,87	1002,00
860,97	890,00
867,07	1007,00
873,17	961,00
879,25	850,00
885,33	911,00
891,41	756,00
897,47	930,00
903,53	851,00
909,59	951,00
915,63	1088,00
921,67	955,00
927,71	753,00
933,74	856,00
939,76	853,00
945,77	989,00
951,78	942,00
957,78	856,00
963,78	754,00
969,77	816,00
975,75	898,00
981,72	787,00
987,69	903,00
993,66	878,00
999,61	895,00
1005,56	957,00
1011,51	945,00
1017,44	776,00
1023,37	914,00
1029,30	768,00
1035,22	790,00
1041,13	1076,00
1047,03	996,00
1052,93	1280,00
1058,83	1417,00
1064,71	1621,00
1070,59	1355,00
1076,47	1078,00
1082,33	1077,00
1088,20	1024,00
1094,05	1113,00
1099,90	1003,00
1105,74	913,00
1111,58	931,00
1117,41	1056,00
1123,23	1343,00
1129,05	1678,00
1134,86	1504,00
1140,67	1275,00
1146,47	1008,00
1152,26	906,00
1158,05	926,00
1163,83	941,00
1169,60	954,00
1175,37	1100,00
1181,13	867,00
1186,89	947,00
1192,64	955,00
1198,38	1001,00
1204,12	935,00
1209,85	830,00
1215,58	1010,00
1221,30	1000,00
1227,02	902,00
1232,72	810,00
1238,43	866,00
1244,12	980,00
1249,81	928,00
1255,50	1005,00
1261,17	1028,00
1266,85	1063,00
1272,51	1041,00
1278,17	1134,00
1283,83	1083,00
1289,47	1749,00
1295,12	1993,00
1300,75	1946,00
1306,38	1544,00
1312,01	1309,00
1317,63	1122,00
1323,24	1127,00
1328,85	1122,00
1334,45	1070,00
1340,04	954,00
1345,63	1096,00
1351,22	1047,00
1356,80	1080,00
1362,37	1225,00
1367,93	1338,00
1373,49	1178,00
1379,05	1127,00
1384,60	1135,00
1390,14	1055,00
1395,68	1157,00
1401,21	1259,00
1406,74	1086,00
1412,26	1494,00
1417,77	1413,00
1423,28	1569,00
1428,78	1716,00
1434,28	1824,00
1439,77	2013,00
1445,26	2051,00
1450,74	2002,00
1456,22	1631,00
1461,68	1640,00
1467,15	1464,00
1472,61	1557,00
1478,06	1382,00
1483,51	1198,00
1488,95	1181,00
1494,38	1004,00
1499,81	913,00
1505,24	925,00
1510,65	958,00
1516,07	994,00
1521,48	953,00
1526,88	940,00
1532,27	959,00
1537,67	1085,00
1543,05	1006,00
1548,43	864,00
1553,81	1002,00
1559,18	1035,00
1564,54	1033,00
1569,90	938,00
1575,25	918,00
1580,60	1012,00
1585,94	844,00
1591,28	939,00
1596,61	917,00
1601,93	808,00
1607,25	854,00
1612,57	817,00
1617,88	988,00
1623,18	964,00
1628,48	943,00
1633,77	970,00
1639,06	993,00
1644,34	923,00
1649,62	813,00
1654,89	920,00
1660,16	822,00
1665,42	877,00
1670,67	872,00
1675,92	828,00
1681,17	776,00
1686,41	870,00
1691,64	831,00
1696,87	881,00
1702,10	791,00
1707,32	737,00
1712,53	824,00
1717,74	810,00
1722,94	764,00
1728,14	798,00
1733,33	766,00
1738,52	859,00
1743,70	796,00
1748,88	870,00
1754,05	900,00
1759,22	799,00
1764,38	-364,00
1769,53	766,00
1774,69	829,00
1779,83	797,00
1784,97	716,00
1790,11	783,00
1795,24	648,00
1800,36	799,00
1805,48	855,00
1810,60	815,00
1815,71	755,00
1820,82	896,00
1825,92	825,00
1831,01	876,00
1836,10	775,00
1841,19	841,00
1846,26	722,00
1851,34	685,00
1856,41	710,00
1861,47	814,00
1866,53	786,00
1871,59	681,00
1876,64	877,00
1881,68	800,00
1886,72	733,00
1891,76	712,00
1896,79	869,00
1901,81	735,00
1906,83	722,00
1911,85	676,00
1916,86	725,00
1921,86	712,00
1926,86	768,00
1931,86	928,00
1936,85	725,00
1941,83	695,00
1946,81	792,00
1951,79	774,00
1956,76	619,00
1961,72	850,00
1966,68	686,00
1971,64	707,00
1976,59	749,00
1981,54	721,00
1986,48	700,00
1991,42	682,00
1996,35	712,00
2001,27	525,00
2006,20	747,00
2011,11	757,00
2016,03	667,00
2020,93	833,00
2025,84	544,00
2030,73	776,00
2035,63	626,00
2040,52	717,00
2045,40	599,00
2050,28	680,00
2055,15	647,00
2060,02	687,00
2064,89	685,00
2069,75	606,00
2074,60	578,00
2079,46	571,00
2084,30	787,00
2089,14	719,00
2093,98	641,00
2098,81	773,00
2103,64	702,00
2108,46	702,00
2113,28	676,00
2118,09	697,00
2122,90	806,00
2127,70	728,00
2132,50	674,00
2137,30	644,00
2142,09	753,00
2146,87	717,00
2151,66	675,00
2156,43	602,00
2161,20	629,00
2165,97	651,00
2170,73	817,00
2175,49	582,00
2180,24	576,00
2184,99	668,00
2189,74	686,00
2194,48	843,00
2199,21	568,00
2203,94	701,00
2208,67	686,00
2213,39	577,00
2218,11	561,00
2222,82	686,00
2227,53	616,00
2232,23	673,00
2236,93	627,00
2241,63	663,00
2246,32	650,00
2251,00	619,00
2255,68	696,00
2260,36	581,00
2265,03	536,00
2269,70	585,00
2274,36	693,00
2279,02	560,00
2283,68	592,00
2288,33	647,00
2292,97	520,00
2297,61	616,00
2302,25	614,00
2306,88	626,00
2311,51	657,00
2316,14	692,00
2320,75	636,00
2325,37	639,00
2329,98	617,00
2334,59	613,00
2339,19	600,00
2343,79	508,00
2348,38	658,00
2352,97	613,00
2357,55	766,00
2362,13	679,00
2366,71	629,00
2371,28	482,00
2375,85	604,00
2380,41	595,00
2384,97	533,00
2389,52	419,00
2394,07	484,00
2398,62	450,00
2403,16	649,00
2407,70	561,00
2412,23	655,00
2416,76	581,00
2421,29	482,00
2425,81	715,00
2430,32	516,00
2434,84	535,00
2439,34	584,00
2443,85	574,00
2448,35	613,00
2452,84	548,00
2457,33	608,00
2461,82	585,00
2466,30	493,00
2470,78	639,00
2475,25	450,00
2479,72	517,00
2484,19	560,00
2488,65	604,00
2493,11	480,00
2497,56	453,00
2502,01	479,00
2506,46	503,00
2510,90	470,00
2515,34	408,00
2519,77	464,00
2524,20	538,00
2528,62	648,00
2533,04	502,00
2537,46	511,00
2541,87	566,00
2546,28	418,00
2550,68	545,00
2555,08	557,00
2559,48	471,00
2563,87	456,00
2568,26	406,00
2572,64	461,00
2577,02	483,00
2581,40	498,00
2585,77	476,00
2590,14	445,00
2594,50	475,00
2598,86	553,00
2603,22	368,00
2607,57	465,00
2611,92	516,00
2616,26	546,00
2620,60	510,00
2624,94	441,00
2629,27	462,00
2633,60	493,00
2637,92	409,00
2642,24	458,00
2646,56	491,00
2650,87	438,00
2655,18	555,00
2659,48	398,00
2663,78	495,00
2668,08	526,00
2672,37	608,00
2676,66	423,00
2680,95	462,00
2685,23	413,00
2689,50	566,00
2693,78	470,00
2698,05	428,00
2702,31	507,00
2706,57	515,00
2710,83	495,00
2715,08	394,00
2719,33	418,00
2723,58	607,00
2727,82	444,00
2732,06	592,00
2736,29	624,00
2740,53	516,00
2744,75	485,00
2748,97	448,00
2753,19	543,00
2757,41	440,00
2761,62	372,00
2765,83	481,00
2770,03	463,00
2774,23	451,00
2778,43	583,00
2782,62	597,00
2786,81	563,00
2791,00	578,00
2795,18	577,00
2799,35	490,00
2803,53	587,00
2807,70	625,00
2811,86	695,00
2816,03	634,00
2820,19	712,00
2824,34	721,00
2828,49	744,00
2832,64	867,00
2836,78	996,00
2840,92	1251,00
2845,06	1419,00
2849,19	1623,00
2853,32	1791,00
2857,45	1649,00
2861,57	1631,00
2865,69	1404,00
2869,80	1527,00
2873,91	1486,00
2878,02	1546,00
2882,12	1757,00
2886,22	1799,00
2890,32	1602,00
2894,41	1501,00
2898,50	1416,00
2902,58	1363,00
2906,67	1156,00
2910,74	1103,00
2914,82	1049,00
2918,89	1134,00
2922,96	893,00
2927,02	949,00
2931,08	916,00
2935,13	796,00
2939,19	824,00
2943,24	657,00
2947,28	581,00
2951,32	557,00
2955,36	539,00
2959,40	403,00
2963,43	423,00
2967,46	525,00
2971,48	448,00
2975,50	484,00
2979,52	347,00
2983,53	382,00
2987,54	386,00
2991,55	261,00
2995,55	326,00
2999,55	413,00
3003,54	353,00
3007,54	338,00
3011,53	334,00
3015,51	313,00
3019,49	170,00
3023,47	252,00
3027,45	307,00
3031,42	344,00
3035,39	293,00
3039,35	265,00
3043,31	264,00
3047,27	299,00
3051,22	361,00
3055,17	307,00
3059,12	184,00
3063,06	354,00
3067,00	235,00
3070,94	346,00
3074,87	234,00
3078,80	305,00
3082,73	268,00
3086,65	136,00
3090,57	236,00
3094,49	229,00
3098,40	287,00
3102,31	123,00
3106,22	295,00
3110,12	361,00
3114,02	205,00
3117,92	273,00
3121,81	245,00
3125,70	224,00
3129,58	144,00
3133,47	208,00
3137,34	165,00
3141,22	372,00
3145,09	294,00
3148,96	158,00
3152,83	355,00
3156,69	232,00
3160,55	253,00
3164,40	212,00
3168,26	236,00
3172,10	195,00
3175,95	231,00
3179,79	115,00
3183,63	78,00
3187,47	252,00
3191,30	147,00
3195,13	176,00
3198,95	155,00
3202,78	311,00
3206,60	222,00
3210,41	168,00
3214,23	135,00
3218,03	280,00
3221,84	64,00
3225,64	217,00
3229,44	183,00
3233,24	83,00
3237,03	226,00
3240,82	129,00
3244,61	107,00
3248,39	177,00
3252,17	229,00
3255,95	166,00
3259,72	218,00
3263,49	51,00
3267,26	277,00
3271,03	242,00
3274,79	108,00
3278,54	54,00
3282,30	151,00
3286,05	47,00
3289,80	31,00
3293,54	113,00
3297,29	186,00
3301,02	164,00
3304,76	41,00
3308,49	70,00
3312,22	98,00
3315,95	-31,00
3319,67	296,00
3323,39	171,00
3327,10	94,00
3330,82	135,00
3334,53	178,00
3338,24	179,00
3341,94	85,00
3345,64	196,00
3349,34	82,00
3353,03	107,00
3356,72	250,00
3360,41	131,00
3364,10	198,00
3367,78	81,00
3371,46	87,00
3375,13	188,00
3378,81	136,00
3382,48	130,00
3386,14	-50,00
3389,81	105,00
3393,47	199,00
3397,12	74,00
3400,78	67,00
3404,43	141,00
3408,08	80,00
3411,72	103,00
3415,36	105,00
3419,00	62,00
3422,64	110,00
3426,27	119,00
3429,90	80,00
3433,53	70,00
3437,15	137,00
3440,77	136,00
3444,39	160,00
3448,00	-16,00
3451,62	158,00
3455,22	90,00
3458,83	196,00
3462,43	-6,00
3466,03	-44,00
3469,63	50,00
3473,22	118,00
3476,81	187,00
3480,40	41,00
3483,99	24,00
3487,57	28,00
3491,15	14,00
3494,72	34,00
3498,29	101,00
3501,86	6,00
3505,43	-22,00
3508,99	136,00
3512,56	77,00
3516,11	33,00
3519,67	51,00
3523,22	5,00
3526,77	-48,00
3530,32	100,00
3533,86	4,00
3537,40	41,00
3540,94	78,00
3544,47	51,00
3548,00	79,00
3551,53	44,00
3555,06	-9,00
3558,58	45,00
3562,10	103,00
3565,62	157,00
3569,13	0,00
3572,64	57,00
3576,15	79,00
3579,66	-24,00
3583,16	43,00
3586,66	65,00
3590,16	-20,00
3593,65	28,00
3597,14	8,00
3600,63	104,00
3604,11	58,00
3607,60	120,00
3611,08	85,00
3614,55	-95,00
3618,03	-26,00
3621,50	83,00
3624,97	86,00
3628,43	60,00
3631,90	90,00
3635,36	42,00
3638,81	132,00
3642,27	25,00
3645,72	115,00
3649,17	8,00
3652,61	-31,00
3656,06	61,00
3659,50	104,00
3662,93	57,00
3666,37	-22,00
3669,80	17,00
3673,23	110,00
3676,65	94,00
3680,08	21,00
3683,50	-43,00
3686,92	67,00
3690,33	-3,00
3693,74	55,00
3697,15	124,00
3700,56	-4,00
3703,96	-84,00
3707,36	4,00
3710,76	-106,00
3714,16	23,00
3717,55	-23,00
3720,94	93,00
3724,33	31,00
3727,71	87,00
3731,10	45,00
3734,48	80,00
3737,85	117,00
3741,23	40,00
3744,60	34,00
3747,97	6,00
3751,33	12,00
3754,69	-17,00
3758,05	14,00
3761,41	24,00
3764,77	162,00
3768,12	61,00
3771,47	27,00
3774,82	30,00
3778,16	-3,00
3781,50	5,00
3784,84	6,00
3788,18	12,00
>>>>>End Processed Spectral Data<<<<<
