SpectraSuite Data File
++++++++++++++++++++++++++++++++++++
Date: Tue Mar 03 12:45:52 ICT 2026
User: user
Dark Spectrum Present: Yes
Reference Spectrum Present: No
Number of Sampled Component Spectra: 1
Spectrometers: MAYP113682
Integration Time (usec): 3000000 (MAYP113682)
Spectra Averaged: 1 (MAYP113682)
Boxcar Smoothing: 0 (MAYP113682)
Correct for Electrical Dark: No (MAYP113682)
Strobe/Lamp Enabled: No (MAYP113682)
Correct for Detector Non-linearity: No (MAYP113682)
Correct for Stray Light: No (MAYP113682)
Number of Pixels in Processed Spectrum: 2068
>>>>>Begin Processed Spectral Data<<<<<
-37534,58	7,00
-37414,56	-3,00
-37295,11	-1,00
-37176,24	-4,00
-37057,95	103,00
-36940,22	-17,00
-36823,05	121,00
-36706,45	36,00
-36590,40	84,00
-36474,90	183,00
-36359,95	70,00
-36245,55	335,00
-36131,68	106,00
-36018,35	168,00
-35905,55	90,00
-35793,29	149,00
-35681,54	93,00
-35570,32	58,00
-35459,62	92,00
-35349,43	126,00
-35239,75	223,00
-35130,58	168,00
-35021,91	104,00
-34913,74	226,00
-34806,07	202,00
-34698,89	170,00
-34592,20	13,00
-34486,00	88,00
-34380,28	90,00
-34275,04	98,00
-34170,27	173,00
-34065,98	132,00
-33962,16	109,00
-33858,81	220,00
-33755,92	269,00
-33653,49	217,00
-33551,52	157,00
-33450,01	106,00
-33348,94	207,00
-33248,33	50,00
-33148,16	214,00
-33048,43	51,00
-32949,14	167,00
-32850,29	142,00
-32751,87	115,00
-32653,89	240,00
-32556,33	131,00
-32459,20	141,00
-32362,49	135,00
-32266,19	155,00
-32170,32	146,00
-32074,86	54,00
-31979,82	192,00
-31885,18	30,00
-31790,95	172,00
-31697,12	211,00
-31603,69	171,00
-31510,67	143,00
-31418,04	143,00
-31325,80	194,00
-31233,95	231,00
-31142,49	160,00
-31051,42	155,00
-30960,73	188,00
-30870,43	193,00
-30780,50	189,00
-30690,95	83,00
-30601,77	100,00
-30512,97	61,00
-30424,53	108,00
-30336,46	150,00
-30248,76	104,00
-30161,42	219,00
-30074,44	194,00
-29987,81	233,00
-29901,55	170,00
-29815,63	101,00
-29730,07	51,00
-29644,86	140,00
-29560,00	273,00
-29475,48	29,00
-29391,30	207,00
-29307,47	208,00
-29223,97	142,00
-29140,81	41,00
-29057,99	17,00
-28975,50	158,00
-28893,34	224,00
-28811,51	197,00
-28730,00	176,00
-28648,82	116,00
-28567,97	22,00
-28487,43	124,00
-28407,21	108,00
-28327,32	137,00
-28247,73	4,00
-28168,46	173,00
-28089,50	42,00
-28010,85	48,00
-27932,51	112,00
-27854,48	69,00
-27776,75	155,00
-27699,32	132,00
-27622,19	255,00
-27545,37	175,00
-27468,84	62,00
-27392,60	110,00
-27316,66	98,00
-27241,01	184,00
-27165,66	165,00
-27090,59	-15,00
-27015,81	239,00
-26941,31	232,00
-26867,10	222,00
-26793,17	149,00
-26719,52	80,00
-26646,15	126,00
-26573,06	156,00
-26500,24	155,00
-26427,70	128,00
-26355,43	170,00
-26283,43	78,00
-26211,71	179,00
-26140,25	137,00
-26069,06	214,00
-25998,13	55,00
-25927,46	167,00
-25857,06	199,00
-25786,92	143,00
-25717,04	-27,00
-25647,42	103,00
-25578,05	130,00
-25508,94	48,00
-25440,09	176,00
-25371,48	188,00
-25303,13	195,00
-25235,02	65,00
-25167,17	163,00
-25099,56	110,00
-25032,19	138,00
-24965,07	70,00
-24898,20	133,00
-24831,56	158,00
-24765,17	34,00
-24699,01	52,00
-24633,10	168,00
-24567,41	62,00
-24501,97	95,00
-24436,75	37,00
-24371,77	179,00
-24307,03	64,00
-24242,51	207,00
-24178,22	162,00
-24114,16	200,00
-24050,32	-7,00
-23986,71	144,00
-23923,32	118,00
-23860,16	34,00
-23797,22	222,00
-23734,50	48,00
-23672,00	146,00
-23609,71	280,00
-23547,65	167,00
-23485,80	96,00
-23424,16	114,00
-23362,74	218,00
-23301,53	46,00
-23240,54	65,00
-23179,75	154,00
-23119,17	124,00
-23058,80	241,00
-22998,64	170,00
-22938,68	194,00
-22878,93	108,00
-22819,39	195,00
-22760,04	7,00
-22700,90	67,00
-22641,96	157,00
-22583,22	74,00
-22524,68	94,00
-22466,33	104,00
-22408,19	125,00
-22350,23	198,00
-22292,48	126,00
-22234,92	103,00
-22177,55	181,00
-22120,37	194,00
-22063,38	20,00
-22006,58	228,00
-21949,98	149,00
-21893,56	256,00
-21837,33	136,00
-21781,28	161,00
-21725,42	115,00
-21669,74	117,00
-21614,25	147,00
-21558,94	162,00
-21503,81	221,00
-21448,86	61,00
-21394,10	95,00
-21339,51	238,00
-21285,10	115,00
-21230,86	175,00
-21176,81	185,00
-21122,93	222,00
-21069,22	187,00
-21015,69	146,00
-20962,33	169,00
-20909,14	101,00
-20856,13	152,00
-20803,28	42,00
-20750,61	211,00
-20698,10	179,00
-20645,76	225,00
-20593,59	134,00
-20541,59	117,00
-20489,75	164,00
-20438,07	201,00
-20386,56	106,00
-20335,22	97,00
-20284,03	141,00
-20233,01	121,00
-20182,15	168,00
-20131,45	117,00
-20080,91	139,00
-20030,52	180,00
-19980,30	68,00
-19930,23	138,00
-19880,32	93,00
-19830,56	262,00
-19780,96	167,00
-19731,52	120,00
-19682,23	3,00
-19633,09	119,00
-19584,10	163,00
-19535,26	267,00
-19486,58	169,00
-19438,04	112,00
-19389,66	81,00
-19341,42	39,00
-19293,33	88,00
-19245,39	210,00
-19197,60	161,00
-19149,95	270,00
-19102,45	78,00
-19055,09	153,00
-19007,87	256,00
-18960,80	180,00
-18913,87	158,00
-18867,09	113,00
-18820,44	212,00
-18773,94	153,00
-18727,57	182,00
-18681,35	118,00
-18635,26	213,00
-18589,31	208,00
-18543,50	162,00
-18497,83	112,00
-18452,29	120,00
-18406,89	135,00
-18361,63	105,00
-18316,50	16,00
-18271,50	101,00
-18226,63	146,00
-18181,90	228,00
-18137,30	100,00
-18092,84	190,00
-18048,50	135,00
-18004,29	208,00
-17960,22	251,00
-17916,27	70,00
-17872,45	29,00
-17828,76	171,00
-17785,20	63,00
-17741,77	171,00
-17698,46	223,00
-17655,28	180,00
-17612,22	82,00
-17569,29	177,00
-17526,48	71,00
-17483,79	68,00
-17441,23	86,00
-17398,79	63,00
-17356,48	210,00
-17314,28	194,00
-17272,21	72,00
-17230,26	105,00
-17188,42	200,00
-17146,71	285,00
-17105,12	110,00
-17063,64	153,00
-17022,28	250,00
-16981,04	42,00
-16939,92	87,00
-16898,91	94,00
-16858,02	112,00
-16817,25	151,00
-16776,59	130,00
-16736,04	165,00
-16695,61	240,00
-16655,29	164,00
-16615,09	45,00
-16574,99	174,00
-16535,01	169,00
-16495,15	118,00
-16455,39	188,00
-16415,74	174,00
-16376,21	126,00
-16336,78	36,00
-16297,46	78,00
-16258,26	213,00
-16219,16	111,00
-16180,17	206,00
-16141,28	127,00
-16102,51	144,00
-16063,84	96,00
-16025,27	211,00
-15986,82	189,00
-15948,46	97,00
-15910,22	216,00
-15872,07	192,00
-15834,04	208,00
-15796,10	62,00
-15758,27	149,00
-15720,54	219,00
-15682,91	210,00
-15645,39	108,00
-15607,97	192,00
-15570,64	144,00
-15533,42	75,00
-15496,30	187,00
-15459,28	221,00
-15422,36	169,00
-15385,54	127,00
-15348,82	172,00
-15312,19	62,00
-15275,66	75,00
-15239,23	160,00
-15202,90	179,00
-15166,67	133,00
-15130,53	114,00
-15094,48	148,00
-15058,54	164,00
-15022,68	109,00
-14986,93	231,00
-14951,26	150,00
-14915,69	7,00
-14880,22	127,00
-14844,84	122,00
-14809,55	66,00
-14774,35	203,00
-14739,25	258,00
-14704,24	63,00
-14669,32	175,00
-14634,49	265,00
-14599,75	184,00
-14565,10	133,00
-14530,55	85,00
-14496,08	230,00
-14461,70	167,00
-14427,41	124,00
-14393,21	111,00
-14359,10	107,00
-14325,07	115,00
-14291,14	157,00
-14257,29	153,00
-14223,52	110,00
-14189,85	134,00
-14156,26	154,00
-14122,76	37,00
-14089,34	-29,00
-14056,01	86,00
-14022,76	112,00
-13989,60	64,00
-13956,52	87,00
-13923,53	228,00
-13890,62	180,00
-13857,79	245,00
-13825,05	131,00
-13792,39	133,00
-13759,81	284,00
-13727,31	120,00
-13694,90	68,00
-13662,57	212,00
-13630,31	240,00
-13598,14	178,00
-13566,05	20,00
-13534,05	107,00
-13502,12	199,00
-13470,27	116,00
-13438,50	80,00
-13406,80	129,00
-13375,19	92,00
-13343,66	79,00
-13312,20	119,00
-13280,83	164,00
-13249,53	112,00
-13218,30	88,00
-13187,16	136,00
-13156,09	95,00
-13125,10	176,00
-13094,18	191,00
-13063,34	71,00
-13032,58	235,00
-13001,89	-2,00
-12971,28	51,00
-12940,74	217,00
-12910,27	186,00
-12879,88	156,00
-12849,57	131,00
-12819,33	73,00
-12789,16	99,00
-12759,06	177,00
-12729,04	50,00
-12699,09	180,00
-12669,21	176,00
-12639,41	156,00
-12609,68	92,00
-12580,02	40,00
-12550,43	108,00
-12520,91	174,00
-12491,46	73,00
-12462,08	155,00
-12432,77	32,00
-12403,54	145,00
-12374,37	100,00
-12345,27	38,00
-12316,24	156,00
-12287,29	103,00
-12258,40	49,00
-12229,57	268,00
-12200,82	221,00
-12172,14	50,00
-12143,52	98,00
-12114,97	144,00
-12086,49	54,00
-12058,07	173,00
-12029,73	-46,00
-12001,44	23,00
-11973,23	97,00
-11945,08	108,00
-11917,00	83,00
-11888,98	206,00
-11861,03	134,00
-11833,15	214,00
-11805,32	56,00
-11777,57	196,00
-11749,88	96,00
-11722,25	179,00
-11694,69	66,00
-11667,19	107,00
-11639,75	-38,00
-11612,38	198,00
-11585,07	147,00
-11557,83	118,00
-11530,65	223,00
-11503,53	209,00
-11476,47	141,00
-11449,48	198,00
-11422,54	216,00
-11395,67	166,00
-11368,86	174,00
-11342,11	50,00
-11315,43	-18,00
-11288,80	299,00
-11262,23	233,00
-11235,73	172,00
-11209,28	112,00
-11182,90	107,00
-11156,57	111,00
-11130,31	266,00
-11104,10	217,00
-11077,96	122,00
-11051,87	180,00
-11025,84	156,00
-10999,87	177,00
-10973,96	66,00
-10948,11	189,00
-10922,31	99,00
-10896,58	142,00
-10870,90	210,00
-10845,28	212,00
-10819,71	93,00
-10794,20	241,00
-10768,75	355,00
-10743,36	248,00
-10718,02	181,00
-10692,74	226,00
-10667,52	158,00
-10642,35	110,00
-10617,24	336,00
-10592,18	263,00
-10567,18	213,00
-10542,23	194,00
-10517,34	312,00
-10492,51	143,00
-10467,72	304,00
-10443,00	299,00
-10418,32	252,00
-10393,70	264,00
-10369,14	187,00
-10344,63	293,00
-10320,17	339,00
-10295,77	306,00
-10271,42	354,00
-10247,12	298,00
-10222,88	445,00
-10198,68	386,00
-10174,54	389,00
-10150,46	557,00
-10126,42	445,00
-10102,44	472,00
-10078,51	585,00
-10054,63	563,00
-10030,80	579,00
-10007,03	552,00
-9983,30	512,00
-9959,63	496,00
-9936,01	654,00
-9912,44	640,00
-9888,92	658,00
-9865,44	796,00
-9842,02	807,00
-9818,65	674,00
-9795,33	648,00
-9772,06	880,00
-9748,84	936,00
-9725,67	821,00
-9702,55	1072,00
-9679,47	1225,00
-9656,45	1344,00
-9633,47	1387,00
-9610,55	1282,00
-9587,67	1344,00
-9564,84	1596,00
-9542,06	1617,00
-9519,32	1875,00
-9496,64	2066,00
-9474,00	2227,00
-9451,41	2301,00
-9428,87	2263,00
-9406,37	2162,00
-9383,92	2008,00
-9361,52	1828,00
-9339,17	1746,00
-9316,86	2250,00
-9294,60	2428,00
-9272,38	2656,00
-9250,21	2767,00
-9228,09	2896,00
-9206,01	2750,00
-9183,98	2512,00
-9162,00	2183,00
-9140,06	2309,00
-9118,16	2105,00
-9096,31	2248,00
-9074,51	2298,00
-9052,75	2239,00
-9031,04	2190,00
-9009,37	1998,00
-8987,74	1728,00
-8966,16	1608,00
-8944,63	1437,00
-8923,14	1273,00
-8901,69	1422,00
-8880,29	1609,00
-8858,93	1796,00
-8837,61	1912,00
-8816,34	2040,00
-8795,11	2048,00
-8773,92	2036,00
-8752,78	1653,00
-8731,68	1589,00
-8710,62	1683,00
-8689,61	1662,00
-8668,63	1919,00
-8647,70	2014,00
-8626,82	1875,00
-8605,97	1972,00
-8585,17	1824,00
-8564,41	1496,00
-8543,69	1511,00
-8523,01	1413,00
-8502,37	1478,00
-8481,78	1511,00
-8461,23	1591,00
-8440,71	1739,00
-8420,24	1862,00
-8399,81	1907,00
-8379,42	1983,00
-8359,08	1642,00
-8338,77	1457,00
-8318,50	1515,00
-8298,27	1392,00
-8278,09	1538,00
-8257,94	1414,00
-8237,83	1607,00
-8217,76	1801,00
-8197,74	1732,00
-8177,75	1704,00
-8157,80	1505,00
-8137,89	1477,00
-8118,02	1496,00
-8098,19	1349,00
-8078,40	1408,00
-8058,65	1439,00
-8038,93	1611,00
-8019,26	1365,00
-7999,62	1432,00
-7980,02	1383,00
-7960,46	1390,00
-7940,94	1318,00
-7921,46	1401,00
-7902,01	1280,00
-7882,60	1192,00
-7863,23	1293,00
-7843,90	1295,00
-7824,61	1465,00
-7805,35	1470,00
-7786,13	1488,00
-7766,95	1504,00
-7747,80	1380,00
-7728,69	1427,00
-7709,62	1341,00
-7690,59	1340,00
-7671,59	1467,00
-7652,63	1483,00
-7633,70	1578,00
-7614,81	1568,00
-7595,96	1341,00
-7577,15	1277,00
-7558,37	1139,00
-7539,62	1321,00
-7520,91	1428,00
-7502,24	1385,00
-7483,60	1426,00
-7465,00	1293,00
-7446,44	1147,00
-7427,91	1151,00
-7409,41	977,00
-7390,95	850,00
-7372,53	995,00
-7354,14	1010,00
-7335,78	1017,00
-7317,46	977,00
-7299,18	1225,00
-7280,92	1349,00
-7262,71	1307,00
-7244,52	1485,00
-7226,38	1376,00
-7208,26	1340,00
-7190,18	1428,00
-7172,14	1248,00
-7154,12	1329,00
-7136,15	1425,00
-7118,20	1476,00
-7100,29	1509,00
-7082,41	1367,00
-7064,57	1277,00
-7046,76	1291,00
-7028,98	1179,00
-7011,24	1074,00
-6993,53	872,00
-6975,85	897,00
-6958,20	670,00
-6940,59	821,00
-6923,01	771,00
-6905,46	889,00
-6887,94	968,00
-6870,46	1058,00
-6853,01	1202,00
-6835,59	1261,00
-6818,21	1153,00
-6800,85	962,00
-6783,53	755,00
-6766,24	707,00
-6748,98	672,00
-6731,76	609,00
-6714,56	518,00
-6697,40	634,00
-6680,26	705,00
-6663,16	803,00
-6646,09	946,00
-6629,05	976,00
-6612,05	1048,00
-6595,07	1052,00
-6578,13	1021,00
-6561,21	798,00
-6544,33	703,00
-6527,47	538,00
-6510,65	506,00
-6493,86	463,00
-6477,10	566,00
-6460,36	579,00
-6443,66	605,00
-6426,99	414,00
-6410,35	527,00
-6393,74	568,00
-6377,16	629,00
-6360,61	791,00
-6344,09	671,00
-6327,59	918,00
-6311,13	630,00
-6294,70	917,00
-6278,29	904,00
-6261,92	931,00
-6245,58	1078,00
-6229,26	1044,00
-6212,97	965,00
-6196,72	749,00
-6180,49	644,00
-6164,29	452,00
-6148,12	375,00
-6131,98	286,00
-6115,86	333,00
-6099,78	448,00
-6083,72	211,00
-6067,69	393,00
-6051,69	253,00
-6035,72	342,00
-6019,78	322,00
-6003,87	626,00
-5987,98	784,00
-5972,12	698,00
-5956,29	772,00
-5940,49	542,00
-5924,71	500,00
-5908,96	491,00
-5893,24	202,00
-5877,55	356,00
-5861,89	442,00
-5846,25	342,00
-5830,64	476,00
-5815,05	352,00
-5799,50	415,00
-5783,97	418,00
-5768,47	480,00
-5752,99	480,00
-5737,55	821,00
-5722,12	752,00
-5706,73	697,00
-5691,36	567,00
-5676,02	416,00
-5660,71	399,00
-5645,42	269,00
-5630,16	462,00
-5614,92	374,00
-5599,71	517,00
-5584,53	499,00
-5569,37	467,00
-5554,24	1501,00
-5539,14	459,00
-5524,06	277,00
-5509,01	427,00
-5493,98	639,00
-5478,98	510,00
-5464,00	528,00
-5449,05	408,00
-5434,13	363,00
-5419,23	373,00
-5404,36	419,00
-5389,51	419,00
-5374,69	559,00
-5359,89	820,00
-5345,12	908,00
-5330,37	812,00
-5315,65	443,00
-5300,95	571,00
-5286,28	459,00
-5271,63	423,00
-5257,01	450,00
-5242,41	605,00
-5227,84	435,00
-5213,29	420,00
-5198,76	219,00
-5184,26	410,00
-5169,79	376,00
-5155,33	423,00
-5140,91	430,00
-5126,51	651,00
-5112,13	589,00
-5097,77	514,00
-5083,44	457,00
-5069,13	234,00
-5054,85	380,00
-5040,59	446,00
-5026,36	389,00
-5012,15	601,00
-4997,96	465,00
-4983,80	341,00
-4969,66	224,00
-4955,54	394,00
-4941,44	390,00
-4927,37	555,00
-4913,33	660,00
-4899,30	674,00
-4885,30	614,00
-4871,33	524,00
-4857,37	347,00
-4843,44	172,00
-4829,53	336,00
-4815,65	537,00
-4801,79	309,00
-4787,95	332,00
-4774,13	265,00
-4760,34	400,00
-4746,56	176,00
-4732,82	437,00
-4719,09	364,00
-4705,38	467,00
-4691,70	736,00
-4678,04	650,00
-4664,41	529,00
-4650,79	419,00
-4637,20	322,00
-4623,63	244,00
-4610,08	305,00
-4596,56	449,00
-4583,05	447,00
-4569,57	471,00
-4556,11	176,00
-4542,67	148,00
-4529,25	171,00
-4515,86	440,00
-4502,49	602,00
-4489,13	547,00
-4475,80	533,00
-4462,49	282,00
-4449,21	320,00
-4435,94	245,00
-4422,70	270,00
-4409,47	363,00
-4396,27	343,00
-4383,09	363,00
-4369,93	155,00
-4356,79	213,00
-4343,67	291,00
-4330,58	367,00
-4317,50	248,00
-4304,45	390,00
-4291,41	300,00
-4278,40	230,00
-4265,41	154,00
-4252,44	350,00
-4239,49	436,00
-4226,55	273,00
-4213,65	265,00
-4200,76	307,00
-4187,89	223,00
-4175,04	192,00
-4162,21	234,00
-4149,40	154,00
-4136,61	120,00
-4123,85	183,00
-4111,10	186,00
-4098,37	159,00
-4085,66	365,00
-4072,98	156,00
-4060,31	164,00
-4047,66	184,00
-4035,04	269,00
-4022,43	36,00
-4009,84	134,00
-3997,27	106,00
-3984,72	133,00
-3972,19	178,00
-3959,69	75,00
-3947,20	6,00
-3934,73	157,00
-3922,27	115,00
-3909,84	91,00
-3897,43	103,00
-3885,04	37,00
-3872,67	219,00
-3860,31	210,00
-3847,98	175,00
-3835,66	29,00
-3823,36	76,00
-3811,09	143,00
-3798,83	107,00
-3786,59	148,00
-3774,37	224,00
-3762,17	-50,00
-3749,98	2,00
-3737,82	135,00
-3725,67	138,00
-3713,55	93,00
-3701,44	241,00
-3689,35	223,00
-3677,28	52,00
-3665,22	168,00
-3653,19	134,00
-3641,17	154,00
-3629,18	272,00
-3617,20	76,00
-3605,24	127,00
-3593,30	137,00
-3581,37	127,00
-3569,47	189,00
-3557,58	203,00
-3545,71	160,00
-3533,86	81,00
-3522,02	180,00
-3510,21	143,00
-3498,41	282,00
-3486,63	162,00
-3474,87	208,00
-3463,12	186,00
-3451,40	152,00
-3439,69	192,00
-3428,00	88,00
-3416,33	160,00
-3404,67	64,00
-3393,03	196,00
-3381,41	117,00
-3369,81	137,00
-3358,22	214,00
-3346,66	182,00
-3335,10	75,00
-3323,57	159,00
-3312,06	164,00
-3300,56	112,00
-3289,08	163,00
-3277,61	178,00
-3266,16	7,00
-3254,73	135,00
-3243,32	88,00
-3231,92	70,00
-3220,55	84,00
-3209,18	133,00
-3197,84	139,00
-3186,51	68,00
-3175,20	59,00
-3163,90	297,00
-3152,63	119,00
-3141,36	33,00
-3130,12	55,00
-3118,89	165,00
-3107,68	89,00
-3096,49	192,00
-3085,31	191,00
-3074,15	175,00
-3063,00	168,00
-3051,87	170,00
-3040,76	154,00
-3029,67	240,00
-3018,59	46,00
-3007,52	296,00
-2996,48	48,00
-2985,44	176,00
-2974,43	328,00
-2963,43	238,00
-2952,45	33,00
-2941,48	179,00
-2930,53	136,00
-2919,60	200,00
-2908,68	68,00
-2897,78	144,00
-2886,89	257,00
-2876,02	-26,00
-2865,17	64,00
-2854,33	176,00
-2843,50	84,00
-2832,70	248,00
-2821,90	33,00
-2811,13	53,00
-2800,37	97,00
-2789,62	97,00
-2778,89	140,00
-2768,18	216,00
-2757,48	277,00
-2746,80	100,00
-2736,13	115,00
-2725,48	43,00
-2714,84	145,00
-2704,22	115,00
-2693,61	133,00
-2683,02	128,00
-2672,45	14,00
-2661,89	242,00
-2651,34	52,00
-2640,81	55,00
-2630,30	98,00
-2619,80	84,00
-2609,31	87,00
-2598,84	191,00
-2588,39	183,00
-2577,95	29,00
-2567,52	147,00
-2557,11	173,00
-2546,71	88,00
-2536,33	198,00
-2525,97	75,00
-2515,62	219,00
-2505,28	60,00
-2494,96	189,00
-2484,65	88,00
-2474,36	133,00
-2464,08	118,00
-2453,82	64,00
-2443,57	-5,00
-2433,33	169,00
-2423,11	117,00
-2412,91	195,00
-2402,72	189,00
-2392,54	95,00
-2382,38	138,00
-2372,23	92,00
-2362,09	104,00
-2351,97	187,00
-2341,87	200,00
-2331,78	288,00
-2321,70	198,00
-2311,64	256,00
-2301,59	136,00
-2291,55	264,00
-2281,53	104,00
-2271,53	218,00
-2261,53	138,00
-2251,55	39,00
-2241,59	113,00
-2231,64	81,00
-2221,70	181,00
-2211,78	106,00
-2201,87	204,00
-2191,97	99,00
-2182,09	91,00
-2172,22	230,00
-2162,37	163,00
-2152,53	6,00
-2142,70	126,00
-2132,89	233,00
-2123,09	-7,00
-2113,30	141,00
-2103,53	27,00
-2093,77	106,00
-2084,02	57,00
-2074,29	182,00
-2064,57	195,00
-2054,86	229,00
-2045,17	89,00
-2035,49	229,00
-2025,82	239,00
-2016,17	65,00
-2006,53	176,00
-1996,91	144,00
-1987,29	46,00
-1977,69	164,00
-1968,11	139,00
-1958,53	217,00
-1948,97	194,00
-1939,42	163,00
-1929,89	58,00
-1920,37	243,00
-1910,86	119,00
-1901,36	61,00
-1891,88	152,00
-1882,41	80,00
-1872,95	255,00
-1863,51	-32,00
-1854,08	-1,00
-1844,66	170,00
-1835,26	69,00
-1825,86	236,00
-1816,48	239,00
-1807,11	145,00
-1797,76	96,00
-1788,42	91,00
-1779,09	140,00
-1769,77	143,00
-1760,47	59,00
-1751,17	99,00
-1741,89	109,00
-1732,63	155,00
-1723,37	17,00
-1714,13	39,00
-1704,90	104,00
-1695,68	141,00
-1686,48	60,00
-1677,29	190,00
-1668,11	283,00
-1658,94	77,00
-1649,78	128,00
-1640,64	151,00
-1631,51	120,00
-1622,39	147,00
-1613,28	100,00
-1604,19	184,00
-1595,10	160,00
-1586,03	215,00
-1576,97	204,00
-1567,93	135,00
-1558,89	162,00
-1549,87	178,00
-1540,86	109,00
-1531,86	81,00
-1522,87	28,00
-1513,90	107,00
-1504,93	224,00
-1495,98	36,00
-1487,04	59,00
-1478,12	208,00
-1469,20	182,00
-1460,30	176,00
-1451,40	155,00
-1442,52	52,00
-1433,65	46,00
-1424,80	234,00
-1415,95	201,00
-1407,12	300,00
-1398,30	22,00
-1389,48	170,00
-1380,69	90,00
-1371,90	203,00
-1363,12	132,00
-1354,36	191,00
-1345,60	214,00
-1336,86	132,00
-1328,13	186,00
-1319,41	176,00
-1310,70	208,00
-1302,01	70,00
-1293,32	137,00
-1284,65	226,00
-1275,99	229,00
-1267,33	208,00
-1258,69	127,00
-1250,06	256,00
-1241,45	224,00
-1232,84	277,00
-1224,25	81,00
-1215,66	126,00
-1207,09	95,00
-1198,53	19,00
-1189,97	133,00
-1181,43	269,00
-1172,91	164,00
-1164,39	200,00
-1155,88	184,00
-1147,38	6,00
-1138,90	214,00
-1130,43	162,00
-1121,96	89,00
-1113,51	146,00
-1105,07	48,00
-1096,64	236,00
-1088,22	206,00
-1079,81	177,00
-1071,41	113,00
-1063,02	78,00
-1054,65	214,00
-1046,28	135,00
-1037,92	86,00
-1029,58	111,00
-1021,24	119,00
-1012,92	290,00
-1004,61	171,00
-996,30	222,00
-988,01	142,00
-979,73	197,00
-971,46	149,00
-963,20	180,00
-954,95	200,00
-946,71	111,00
-938,48	136,00
-930,26	34,00
-922,06	125,00
-913,86	121,00
-905,67	206,00
-897,49	214,00
-889,33	171,00
-881,17	244,00
-873,02	170,00
-864,89	95,00
-856,76	120,00
-848,65	142,00
-840,54	92,00
-832,45	14,00
-824,36	66,00
-816,29	154,00
-808,22	155,00
-800,17	188,00
-792,12	103,00
-784,09	189,00
-776,06	147,00
-768,05	89,00
-760,04	177,00
-752,05	124,00
-744,07	204,00
-736,09	120,00
-728,13	254,00
-720,17	157,00
-712,23	70,00
-704,29	71,00
-696,37	159,00
-688,45	142,00
-680,55	110,00
-672,65	223,00
-664,77	38,00
-656,89	72,00
-649,03	150,00
-641,17	88,00
-633,32	125,00
-625,49	83,00
-617,66	155,00
-609,84	118,00
-602,03	177,00
-594,23	217,00
-586,45	48,00
-578,67	136,00
-570,90	40,00
-563,14	155,00
-555,39	110,00
-547,65	132,00
-539,91	136,00
-532,19	92,00
-524,48	188,00
-516,78	88,00
-509,08	138,00
-501,40	123,00
-493,72	122,00
-486,06	102,00
-478,40	125,00
-470,76	75,00
-463,12	87,00
-455,49	128,00
-447,87	144,00
-440,26	148,00
-432,66	132,00
-425,07	147,00
-417,49	8,00
-409,92	172,00
-402,35	94,00
-394,80	179,00
-387,25	131,00
-379,72	143,00
-372,19	172,00
-364,67	404,00
-357,17	71,00
-349,67	81,00
-342,18	287,00
-334,69	116,00
-327,22	63,00
-319,76	136,00
-312,30	251,00
-304,86	96,00
-297,42	251,00
-290,00	272,00
-282,58	111,00
-275,17	176,00
-267,77	231,00
-260,37	132,00
-252,99	163,00
-245,62	146,00
-238,25	131,00
-230,90	169,00
-223,55	268,00
-216,21	216,00
-208,88	158,00
-201,56	227,00
-194,25	291,00
-186,94	267,00
-179,65	263,00
-172,36	406,00
-165,08	250,00
-157,81	275,00
-150,55	272,00
-143,30	370,00
-136,06	387,00
-128,82	300,00
-121,60	374,00
-114,38	300,00
-107,17	355,00
-99,97	488,00
-92,78	479,00
-85,60	607,00
-78,42	635,00
-71,25	670,00
-64,10	980,00
-56,95	1062,00
-49,81	1128,00
-42,67	1456,00
-35,55	1772,00
-28,43	2379,00
-21,33	4298,00
-14,23	14070,00
-7,14	47266,00
-0,05	38051,00
7,02	42597,00
14,09	37510,00
21,14	9851,00
28,19	4422,00
35,23	3013,00
42,27	2178,00
49,29	1876,00
56,31	1464,00
63,32	1269,00
70,32	1144,00
77,31	968,00
84,29	838,00
91,27	813,00
98,23	638,00
105,19	653,00
112,14	866,00
119,09	962,00
126,02	1490,00
132,95	1605,00
139,87	1644,00
146,78	1639,00
153,68	1523,00
160,58	1685,00
167,46	1591,00
174,34	1543,00
181,21	1531,00
188,08	1509,00
194,93	1550,00
201,78	1566,00
208,62	1661,00
215,45	1468,00
222,27	1570,00
229,09	1554,00
235,90	1577,00
242,70	1360,00
249,49	1460,00
256,27	1446,00
263,05	1355,00
269,82	1236,00
276,58	1450,00
283,33	1271,00
290,08	1411,00
296,82	1293,00
303,55	1270,00
310,27	1383,00
316,98	1254,00
323,69	1431,00
330,39	1354,00
337,08	1190,00
343,76	1220,00
350,44	1293,00
357,11	1087,00
363,77	1274,00
370,42	1246,00
377,07	1209,00
383,71	1248,00
390,34	1193,00
396,96	1251,00
403,58	1126,00
410,19	1182,00
416,79	1185,00
423,38	1128,00
429,97	1140,00
436,55	1186,00
443,12	1204,00
449,68	1181,00
456,24	1067,00
462,79	1148,00
469,33	1106,00
475,86	1124,00
482,39	1086,00
488,91	1130,00
495,42	992,00
501,93	994,00
508,42	1117,00
514,91	1140,00
521,40	1113,00
527,87	1131,00
534,34	1000,00
540,80	1083,00
547,25	940,00
553,70	924,00
560,14	1031,00
566,57	1029,00
573,00	996,00
579,41	994,00
585,83	1005,00
592,23	1117,00
598,62	974,00
605,01	789,00
611,40	945,00
617,77	955,00
624,14	927,00
630,50	972,00
636,85	929,00
643,20	971,00
649,54	892,00
655,87	1007,00
662,20	960,00
668,52	872,00
674,83	885,00
681,13	982,00
687,43	985,00
693,72	833,00
700,00	901,00
706,28	876,00
712,55	921,00
718,81	961,00
725,07	1010,00
731,32	916,00
737,56	1039,00
743,79	944,00
750,02	999,00
756,24	857,00
762,46	950,00
768,67	1131,00
774,87	941,00
781,06	854,00
787,25	958,00
793,43	963,00
799,60	945,00
805,77	1054,00
811,93	910,00
818,08	907,00
824,23	1040,00
830,37	1032,00
836,50	1044,00
842,63	866,00
848,75	977,00
854,87	979,00
860,97	1011,00
867,07	1220,00
873,17	1068,00
879,25	936,00
885,33	1014,00
891,41	967,00
897,47	943,00
903,53	915,00
909,59	887,00
915,63	1112,00
921,67	925,00
927,71	840,00
933,74	945,00
939,76	927,00
945,77	955,00
951,78	957,00
957,78	872,00
963,78	781,00
969,77	867,00
975,75	911,00
981,72	926,00
987,69	1377,00
993,66	945,00
999,61	993,00
1005,56	1034,00
1011,51	974,00
1017,44	819,00
1023,37	980,00
1029,30	896,00
1035,22	962,00
1041,13	1029,00
1047,03	1130,00
1052,93	1307,00
1058,83	1859,00
1064,71	1933,00
1070,59	1714,00
1076,47	1190,00
1082,33	1229,00
1088,20	1200,00
1094,05	1045,00
1099,90	1114,00
1105,74	1056,00
1111,58	1039,00
1117,41	1166,00
1123,23	1724,00
1129,05	2029,00
1134,86	1826,00
1140,67	1338,00
1146,47	1086,00
1152,26	1008,00
1158,05	1057,00
1163,83	966,00
1169,60	1086,00
1175,37	1092,00
1181,13	881,00
1186,89	898,00
1192,64	1004,00
1198,38	913,00
1204,12	940,00
1209,85	867,00
1215,58	924,00
1221,30	890,00
1227,02	1064,00
1232,72	868,00
1238,43	989,00
1244,12	1069,00
1249,81	861,00
1255,50	992,00
1261,17	1000,00
1266,85	1036,00
1272,51	1163,00
1278,17	1117,00
1283,83	1291,00
1289,47	1889,00
1295,12	2466,00
1300,75	2148,00
1306,38	1660,00
1312,01	1339,00
1317,63	1132,00
1323,24	1242,00
1328,85	1187,00
1334,45	999,00
1340,04	1028,00
1345,63	1051,00
1351,22	1125,00
1356,80	1120,00
1362,37	1162,00
1367,93	1312,00
1373,49	1087,00
1379,05	1171,00
1384,60	1091,00
1390,14	1182,00
1395,68	1130,00
1401,21	1208,00
1406,74	1147,00
1412,26	1537,00
1417,77	1694,00
1423,28	1673,00
1428,78	1806,00
1434,28	2162,00
1439,77	2509,00
1445,26	2382,00
1450,74	2309,00
1456,22	2018,00
1461,68	2063,00
1467,15	1749,00
1472,61	1578,00
1478,06	1402,00
1483,51	1239,00
1488,95	1252,00
1494,38	1087,00
1499,81	1013,00
1505,24	1017,00
1510,65	948,00
1516,07	1008,00
1521,48	979,00
1526,88	895,00
1532,27	951,00
1537,67	957,00
1543,05	968,00
1548,43	860,00
1553,81	811,00
1559,18	991,00
1564,54	906,00
1569,90	895,00
1575,25	787,00
1580,60	970,00
1585,94	907,00
1591,28	852,00
1596,61	872,00
1601,93	850,00
1607,25	803,00
1612,57	903,00
1617,88	978,00
1623,18	958,00
1628,48	920,00
1633,77	914,00
1639,06	904,00
1644,34	854,00
1649,62	810,00
1654,89	909,00
1660,16	774,00
1665,42	882,00
1670,67	825,00
1675,92	873,00
1681,17	739,00
1686,41	754,00
1691,64	901,00
1696,87	787,00
1702,10	790,00
1707,32	629,00
1712,53	811,00
1717,74	782,00
1722,94	695,00
1728,14	834,00
1733,33	693,00
1738,52	909,00
1743,70	861,00
1748,88	742,00
1754,05	878,00
1759,22	687,00
1764,38	-955,00
1769,53	748,00
1774,69	763,00
1779,83	738,00
1784,97	714,00
1790,11	716,00
1795,24	718,00
1800,36	839,00
1805,48	818,00
1810,60	863,00
1815,71	752,00
1820,82	784,00
1825,92	763,00
1831,01	693,00
1836,10	816,00
1841,19	729,00
1846,26	737,00
1851,34	619,00
1856,41	610,00
1861,47	680,00
1866,53	690,00
1871,59	648,00
1876,64	936,00
1881,68	757,00
1886,72	816,00
1891,76	605,00
1896,79	789,00
1901,81	689,00
1906,83	632,00
1911,85	701,00
1916,86	800,00
1921,86	692,00
1926,86	698,00
1931,86	750,00
1936,85	654,00
1941,83	708,00
1946,81	688,00
1951,79	752,00
1956,76	547,00
1961,72	699,00
1966,68	719,00
1971,64	791,00
1976,59	648,00
1981,54	647,00
1986,48	616,00
1991,42	503,00
1996,35	733,00
2001,27	529,00
2006,20	704,00
2011,11	701,00
2016,03	665,00
2020,93	721,00
2025,84	588,00
2030,73	578,00
2035,63	578,00
2040,52	703,00
2045,40	553,00
2050,28	519,00
2055,15	658,00
2060,02	628,00
2064,89	733,00
2069,75	632,00
2074,60	622,00
2079,46	495,00
2084,30	711,00
2089,14	638,00
2093,98	616,00
2098,81	681,00
2103,64	607,00
2108,46	550,00
2113,28	615,00
2118,09	525,00
2122,90	709,00
2127,70	582,00
2132,50	553,00
2137,30	568,00
2142,09	701,00
2146,87	674,00
2151,66	672,00
2156,43	623,00
2161,20	685,00
2165,97	591,00
2170,73	582,00
2175,49	524,00
2180,24	755,00
2184,99	546,00
2189,74	710,00
2194,48	718,00
2199,21	570,00
2203,94	527,00
2208,67	574,00
2213,39	424,00
2218,11	475,00
2222,82	644,00
2227,53	585,00
2232,23	556,00
2236,93	561,00
2241,63	583,00
2246,32	650,00
2251,00	657,00
2255,68	631,00
2260,36	584,00
2265,03	586,00
2269,70	561,00
2274,36	717,00
2279,02	556,00
2283,68	549,00
2288,33	604,00
2292,97	560,00
2297,61	566,00
2302,25	536,00
2306,88	571,00
2311,51	615,00
2316,14	621,00
2320,75	646,00
2325,37	511,00
2329,98	542,00
2334,59	555,00
2339,19	696,00
2343,79	458,00
2348,38	620,00
2352,97	574,00
2357,55	610,00
2362,13	605,00
2366,71	520,00
2371,28	564,00
2375,85	589,00
2380,41	638,00
2384,97	424,00
2389,52	454,00
2394,07	538,00
2398,62	408,00
2403,16	541,00
2407,70	536,00
2412,23	589,00
2416,76	622,00
2421,29	469,00
2425,81	641,00
2430,32	502,00
2434,84	396,00
2439,34	541,00
2443,85	559,00
2448,35	531,00
2452,84	540,00
2457,33	672,00
2461,82	548,00
2466,30	427,00
2470,78	579,00
2475,25	543,00
2479,72	561,00
2484,19	655,00
2488,65	579,00
2493,11	483,00
2497,56	474,00
2502,01	464,00
2506,46	515,00
2510,90	553,00
2515,34	375,00
2519,77	487,00
2524,20	618,00
2528,62	463,00
2533,04	649,00
2537,46	476,00
2541,87	553,00
2546,28	423,00
2550,68	477,00
2555,08	559,00
2559,48	427,00
2563,87	560,00
2568,26	383,00
2572,64	448,00
2577,02	556,00
2581,40	572,00
2585,77	429,00
2590,14	488,00
2594,50	459,00
2598,86	527,00
2603,22	475,00
2607,57	462,00
2611,92	452,00
2616,26	571,00
2620,60	627,00
2624,94	440,00
2629,27	605,00
2633,60	540,00
2637,92	544,00
2642,24	410,00
2646,56	485,00
2650,87	493,00
2655,18	624,00
2659,48	470,00
2663,78	528,00
2668,08	531,00
2672,37	534,00
2676,66	508,00
2680,95	541,00
2685,23	442,00
2689,50	606,00
2693,78	446,00
2698,05	644,00
2702,31	507,00
2706,57	543,00
2710,83	574,00
2715,08	559,00
2719,33	646,00
2723,58	659,00
2727,82	614,00
2732,06	600,00
2736,29	687,00
2740,53	573,00
2744,75	577,00
2748,97	526,00
2753,19	667,00
2757,41	517,00
2761,62	567,00
2765,83	613,00
2770,03	560,00
2774,23	632,00
2778,43	588,00
2782,62	790,00
2786,81	605,00
2791,00	628,00
2795,18	578,00
2799,35	602,00
2803,53	755,00
2807,70	780,00
2811,86	749,00
2816,03	753,00
2820,19	702,00
2824,34	931,00
2828,49	760,00
2832,64	1101,00
2836,78	1284,00
2840,92	1597,00
2845,06	1891,00
2849,19	2112,00
2853,32	2298,00
2857,45	2197,00
2861,57	2213,00
2865,69	1874,00
2869,80	2125,00
2873,91	1997,00
2878,02	2224,00
2882,12	2377,00
2886,22	2454,00
2890,32	2114,00
2894,41	1996,00
2898,50	1920,00
2902,58	1720,00
2906,67	1720,00
2910,74	1517,00
2914,82	1537,00
2918,89	1290,00
2922,96	1250,00
2927,02	1179,00
2931,08	1083,00
2935,13	1115,00
2939,19	928,00
2943,24	940,00
2947,28	738,00
2951,32	767,00
2955,36	754,00
2959,40	590,00
2963,43	672,00
2967,46	610,00
2971,48	507,00
2975,50	668,00
2979,52	577,00
2983,53	502,00
2987,54	477,00
2991,55	434,00
2995,55	421,00
2999,55	443,00
3003,54	508,00
3007,54	311,00
3011,53	356,00
3015,51	330,00
3019,49	303,00
3023,47	414,00
3027,45	441,00
3031,42	362,00
3035,39	326,00
3039,35	313,00
3043,31	330,00
3047,27	400,00
3051,22	294,00
3055,17	346,00
3059,12	229,00
3063,06	358,00
3067,00	334,00
3070,94	232,00
3074,87	308,00
3078,80	506,00
3082,73	338,00
3086,65	227,00
3090,57	351,00
3094,49	388,00
3098,40	364,00
3102,31	420,00
3106,22	212,00
3110,12	414,00
3114,02	297,00
3117,92	265,00
3121,81	277,00
3125,70	252,00
3129,58	221,00
3133,47	193,00
3137,34	158,00
3141,22	370,00
3145,09	309,00
3148,96	234,00
3152,83	352,00
3156,69	350,00
3160,55	231,00
3164,40	329,00
3168,26	246,00
3172,10	327,00
3175,95	278,00
3179,79	179,00
3183,63	139,00
3187,47	306,00
3191,30	299,00
3195,13	349,00
3198,95	155,00
3202,78	328,00
3206,60	287,00
3210,41	224,00
3214,23	234,00
3218,03	318,00
3221,84	56,00
3225,64	186,00
3229,44	241,00
3233,24	130,00
3237,03	313,00
3240,82	205,00
3244,61	167,00
3248,39	129,00
3252,17	361,00
3255,95	201,00
3259,72	319,00
3263,49	191,00
3267,26	298,00
3271,03	260,00
3274,79	262,00
3278,54	170,00
3282,30	247,00
3286,05	79,00
3289,80	116,00
3293,54	212,00
3297,29	163,00
3301,02	284,00
3304,76	154,00
3308,49	239,00
3312,22	160,00
3315,95	186,00
3319,67	439,00
3323,39	252,00
3327,10	224,00
3330,82	205,00
3334,53	145,00
3338,24	264,00
3341,94	228,00
3345,64	158,00
3349,34	232,00
3353,03	259,00
3356,72	324,00
3360,41	274,00
3364,10	341,00
3367,78	154,00
3371,46	208,00
3375,13	186,00
3378,81	178,00
3382,48	291,00
3386,14	46,00
3389,81	289,00
3393,47	186,00
3397,12	160,00
3400,78	198,00
3404,43	247,00
3408,08	182,00
3411,72	260,00
3415,36	248,00
3419,00	184,00
3422,64	271,00
3426,27	137,00
3429,90	145,00
3433,53	234,00
3437,15	181,00
3440,77	261,00
3444,39	295,00
3448,00	51,00
3451,62	219,00
3455,22	227,00
3458,83	195,00
3462,43	265,00
3466,03	12,00
3469,63	137,00
3473,22	183,00
3476,81	234,00
3480,40	104,00
3483,99	116,00
3487,57	102,00
3491,15	101,00
3494,72	90,00
3498,29	125,00
3501,86	172,00
3505,43	80,00
3508,99	177,00
3512,56	176,00
3516,11	218,00
3519,67	162,00
3523,22	191,00
3526,77	166,00
3530,32	234,00
3533,86	224,00
3537,40	189,00
3540,94	197,00
3544,47	164,00
3548,00	147,00
3551,53	9,00
3555,06	93,00
3558,58	168,00
3562,10	162,00
3565,62	369,00
3569,13	110,00
3572,64	160,00
3576,15	133,00
3579,66	40,00
3583,16	107,00
3586,66	95,00
3590,16	194,00
3593,65	82,00
3597,14	154,00
3600,63	111,00
3604,11	189,00
3607,60	203,00
3611,08	163,00
3614,55	2,00
3618,03	161,00
3621,50	197,00
3624,97	180,00
3628,43	169,00
3631,90	207,00
3635,36	126,00
3638,81	184,00
3642,27	0,00
3645,72	228,00
3649,17	75,00
3652,61	96,00
3656,06	207,00
3659,50	146,00
3662,93	109,00
3666,37	201,00
3669,80	143,00
3673,23	156,00
3676,65	228,00
3680,08	117,00
3683,50	133,00
3686,92	174,00
3690,33	118,00
3693,74	151,00
3697,15	242,00
3700,56	48,00
3703,96	99,00
3707,36	80,00
3710,76	42,00
3714,16	117,00
3717,55	71,00
3720,94	130,00
3724,33	95,00
3727,71	84,00
3731,10	146,00
3734,48	73,00
3737,85	173,00
3741,23	93,00
3744,60	141,00
3747,97	103,00
3751,33	25,00
3754,69	100,00
3758,05	77,00
3761,41	115,00
3764,77	41,00
3768,12	176,00
3771,47	174,00
3774,82	192,00
3778,16	4,00
3781,50	0,00
3784,84	1,00
3788,18	7,00
>>>>>End Processed Spectral Data<<<<<
