SpectraSuite Data File
++++++++++++++++++++++++++++++++++++
Date: Wed Feb 04 16:06:18 ICT 2026
User: Administrator
Dark Spectrum Present: Yes
Reference Spectrum Present: No
Number of Sampled Component Spectra: 1
Spectrometers: MAYP113682
Integration Time (usec): 3000000 (MAYP113682)
Spectra Averaged: 1 (MAYP113682)
Boxcar Smoothing: 0 (MAYP113682)
Correct for Electrical Dark: No (MAYP113682)
Strobe/Lamp Enabled: No (MAYP113682)
Correct for Detector Non-linearity: No (MAYP113682)
Correct for Stray Light: No (MAYP113682)
Number of Pixels in Processed Spectrum: 2068
>>>>>Begin Processed Spectral Data<<<<<
-37534,58	5,00
-37414,56	-8,00
-37295,11	9,00
-37176,24	3,00
-37057,95	269,00
-36940,22	361,00
-36823,05	306,00
-36706,45	381,00
-36590,40	387,00
-36474,90	348,00
-36359,95	418,00
-36245,55	454,00
-36131,68	395,00
-36018,35	353,00
-35905,55	452,00
-35793,29	306,00
-35681,54	429,00
-35570,32	412,00
-35459,62	353,00
-35349,43	413,00
-35239,75	381,00
-35130,58	373,00
-35021,91	338,00
-34913,74	363,00
-34806,07	389,00
-34698,89	454,00
-34592,20	356,00
-34486,00	470,00
-34380,28	466,00
-34275,04	326,00
-34170,27	458,00
-34065,98	377,00
-33962,16	500,00
-33858,81	387,00
-33755,92	470,00
-33653,49	431,00
-33551,52	389,00
-33450,01	527,00
-33348,94	450,00
-33248,33	411,00
-33148,16	534,00
-33048,43	476,00
-32949,14	473,00
-32850,29	511,00
-32751,87	331,00
-32653,89	435,00
-32556,33	469,00
-32459,20	348,00
-32362,49	329,00
-32266,19	349,00
-32170,32	404,00
-32074,86	512,00
-31979,82	293,00
-31885,18	506,00
-31790,95	428,00
-31697,12	424,00
-31603,69	504,00
-31510,67	409,00
-31418,04	307,00
-31325,80	392,00
-31233,95	479,00
-31142,49	406,00
-31051,42	362,00
-30960,73	396,00
-30870,43	489,00
-30780,50	340,00
-30690,95	482,00
-30601,77	486,00
-30512,97	459,00
-30424,53	531,00
-30336,46	466,00
-30248,76	461,00
-30161,42	422,00
-30074,44	489,00
-29987,81	387,00
-29901,55	434,00
-29815,63	433,00
-29730,07	336,00
-29644,86	512,00
-29560,00	421,00
-29475,48	369,00
-29391,30	379,00
-29307,47	487,00
-29223,97	353,00
-29140,81	371,00
-29057,99	441,00
-28975,50	347,00
-28893,34	498,00
-28811,51	407,00
-28730,00	400,00
-28648,82	491,00
-28567,97	422,00
-28487,43	451,00
-28407,21	428,00
-28327,32	443,00
-28247,73	449,00
-28168,46	342,00
-28089,50	456,00
-28010,85	382,00
-27932,51	393,00
-27854,48	492,00
-27776,75	384,00
-27699,32	464,00
-27622,19	419,00
-27545,37	356,00
-27468,84	399,00
-27392,60	490,00
-27316,66	365,00
-27241,01	484,00
-27165,66	492,00
-27090,59	389,00
-27015,81	525,00
-26941,31	492,00
-26867,10	439,00
-26793,17	433,00
-26719,52	420,00
-26646,15	362,00
-26573,06	373,00
-26500,24	385,00
-26427,70	412,00
-26355,43	481,00
-26283,43	451,00
-26211,71	481,00
-26140,25	393,00
-26069,06	508,00
-25998,13	420,00
-25927,46	383,00
-25857,06	332,00
-25786,92	325,00
-25717,04	414,00
-25647,42	590,00
-25578,05	372,00
-25508,94	400,00
-25440,09	427,00
-25371,48	426,00
-25303,13	512,00
-25235,02	492,00
-25167,17	346,00
-25099,56	426,00
-25032,19	393,00
-24965,07	344,00
-24898,20	402,00
-24831,56	458,00
-24765,17	325,00
-24699,01	390,00
-24633,10	469,00
-24567,41	458,00
-24501,97	566,00
-24436,75	417,00
-24371,77	399,00
-24307,03	465,00
-24242,51	347,00
-24178,22	433,00
-24114,16	443,00
-24050,32	422,00
-23986,71	425,00
-23923,32	390,00
-23860,16	298,00
-23797,22	475,00
-23734,50	405,00
-23672,00	309,00
-23609,71	475,00
-23547,65	430,00
-23485,80	486,00
-23424,16	276,00
-23362,74	595,00
-23301,53	374,00
-23240,54	388,00
-23179,75	252,00
-23119,17	396,00
-23058,80	468,00
-22998,64	424,00
-22938,68	319,00
-22878,93	442,00
-22819,39	418,00
-22760,04	290,00
-22700,90	282,00
-22641,96	475,00
-22583,22	346,00
-22524,68	371,00
-22466,33	470,00
-22408,19	442,00
-22350,23	425,00
-22292,48	370,00
-22234,92	368,00
-22177,55	469,00
-22120,37	430,00
-22063,38	413,00
-22006,58	320,00
-21949,98	361,00
-21893,56	328,00
-21837,33	474,00
-21781,28	356,00
-21725,42	352,00
-21669,74	440,00
-21614,25	355,00
-21558,94	455,00
-21503,81	497,00
-21448,86	476,00
-21394,10	398,00
-21339,51	382,00
-21285,10	410,00
-21230,86	406,00
-21176,81	372,00
-21122,93	351,00
-21069,22	399,00
-21015,69	318,00
-20962,33	473,00
-20909,14	331,00
-20856,13	430,00
-20803,28	366,00
-20750,61	411,00
-20698,10	396,00
-20645,76	401,00
-20593,59	390,00
-20541,59	521,00
-20489,75	411,00
-20438,07	437,00
-20386,56	512,00
-20335,22	350,00
-20284,03	321,00
-20233,01	424,00
-20182,15	509,00
-20131,45	505,00
-20080,91	418,00
-20030,52	437,00
-19980,30	465,00
-19930,23	234,00
-19880,32	507,00
-19830,56	352,00
-19780,96	439,00
-19731,52	507,00
-19682,23	408,00
-19633,09	491,00
-19584,10	488,00
-19535,26	338,00
-19486,58	494,00
-19438,04	387,00
-19389,66	486,00
-19341,42	280,00
-19293,33	351,00
-19245,39	470,00
-19197,60	312,00
-19149,95	469,00
-19102,45	486,00
-19055,09	377,00
-19007,87	412,00
-18960,80	425,00
-18913,87	439,00
-18867,09	400,00
-18820,44	364,00
-18773,94	417,00
-18727,57	404,00
-18681,35	456,00
-18635,26	468,00
-18589,31	355,00
-18543,50	366,00
-18497,83	437,00
-18452,29	460,00
-18406,89	450,00
-18361,63	443,00
-18316,50	395,00
-18271,50	304,00
-18226,63	482,00
-18181,90	541,00
-18137,30	463,00
-18092,84	375,00
-18048,50	403,00
-18004,29	409,00
-17960,22	318,00
-17916,27	376,00
-17872,45	371,00
-17828,76	494,00
-17785,20	340,00
-17741,77	408,00
-17698,46	429,00
-17655,28	414,00
-17612,22	309,00
-17569,29	433,00
-17526,48	368,00
-17483,79	434,00
-17441,23	446,00
-17398,79	380,00
-17356,48	379,00
-17314,28	429,00
-17272,21	380,00
-17230,26	379,00
-17188,42	454,00
-17146,71	527,00
-17105,12	450,00
-17063,64	427,00
-17022,28	402,00
-16981,04	412,00
-16939,92	411,00
-16898,91	443,00
-16858,02	424,00
-16817,25	407,00
-16776,59	382,00
-16736,04	459,00
-16695,61	429,00
-16655,29	411,00
-16615,09	375,00
-16574,99	397,00
-16535,01	319,00
-16495,15	412,00
-16455,39	357,00
-16415,74	323,00
-16376,21	387,00
-16336,78	354,00
-16297,46	311,00
-16258,26	296,00
-16219,16	459,00
-16180,17	438,00
-16141,28	402,00
-16102,51	333,00
-16063,84	376,00
-16025,27	440,00
-15986,82	411,00
-15948,46	387,00
-15910,22	433,00
-15872,07	390,00
-15834,04	479,00
-15796,10	430,00
-15758,27	413,00
-15720,54	463,00
-15682,91	349,00
-15645,39	428,00
-15607,97	391,00
-15570,64	461,00
-15533,42	566,00
-15496,30	477,00
-15459,28	323,00
-15422,36	376,00
-15385,54	426,00
-15348,82	423,00
-15312,19	435,00
-15275,66	390,00
-15239,23	407,00
-15202,90	476,00
-15166,67	406,00
-15130,53	475,00
-15094,48	379,00
-15058,54	457,00
-15022,68	356,00
-14986,93	417,00
-14951,26	371,00
-14915,69	463,00
-14880,22	431,00
-14844,84	512,00
-14809,55	457,00
-14774,35	473,00
-14739,25	398,00
-14704,24	384,00
-14669,32	328,00
-14634,49	315,00
-14599,75	372,00
-14565,10	385,00
-14530,55	470,00
-14496,08	379,00
-14461,70	459,00
-14427,41	362,00
-14393,21	428,00
-14359,10	345,00
-14325,07	293,00
-14291,14	461,00
-14257,29	502,00
-14223,52	461,00
-14189,85	476,00
-14156,26	429,00
-14122,76	375,00
-14089,34	328,00
-14056,01	459,00
-14022,76	386,00
-13989,60	420,00
-13956,52	415,00
-13923,53	397,00
-13890,62	399,00
-13857,79	399,00
-13825,05	377,00
-13792,39	308,00
-13759,81	333,00
-13727,31	530,00
-13694,90	496,00
-13662,57	374,00
-13630,31	396,00
-13598,14	350,00
-13566,05	373,00
-13534,05	357,00
-13502,12	456,00
-13470,27	473,00
-13438,50	481,00
-13406,80	363,00
-13375,19	326,00
-13343,66	320,00
-13312,20	381,00
-13280,83	428,00
-13249,53	444,00
-13218,30	411,00
-13187,16	376,00
-13156,09	483,00
-13125,10	352,00
-13094,18	466,00
-13063,34	437,00
-13032,58	274,00
-13001,89	393,00
-12971,28	244,00
-12940,74	423,00
-12910,27	366,00
-12879,88	310,00
-12849,57	419,00
-12819,33	439,00
-12789,16	349,00
-12759,06	498,00
-12729,04	401,00
-12699,09	1727,00
-12669,21	466,00
-12639,41	396,00
-12609,68	372,00
-12580,02	436,00
-12550,43	426,00
-12520,91	365,00
-12491,46	333,00
-12462,08	342,00
-12432,77	441,00
-12403,54	458,00
-12374,37	453,00
-12345,27	444,00
-12316,24	398,00
-12287,29	387,00
-12258,40	427,00
-12229,57	488,00
-12200,82	327,00
-12172,14	449,00
-12143,52	328,00
-12114,97	293,00
-12086,49	454,00
-12058,07	431,00
-12029,73	445,00
-12001,44	483,00
-11973,23	530,00
-11945,08	500,00
-11917,00	371,00
-11888,98	446,00
-11861,03	477,00
-11833,15	449,00
-11805,32	531,00
-11777,57	426,00
-11749,88	455,00
-11722,25	449,00
-11694,69	329,00
-11667,19	356,00
-11639,75	352,00
-11612,38	434,00
-11585,07	421,00
-11557,83	438,00
-11530,65	380,00
-11503,53	424,00
-11476,47	524,00
-11449,48	349,00
-11422,54	521,00
-11395,67	368,00
-11368,86	421,00
-11342,11	362,00
-11315,43	509,00
-11288,80	346,00
-11262,23	449,00
-11235,73	315,00
-11209,28	329,00
-11182,90	326,00
-11156,57	415,00
-11130,31	515,00
-11104,10	397,00
-11077,96	415,00
-11051,87	421,00
-11025,84	480,00
-10999,87	452,00
-10973,96	399,00
-10948,11	374,00
-10922,31	433,00
-10896,58	474,00
-10870,90	407,00
-10845,28	410,00
-10819,71	364,00
-10794,20	478,00
-10768,75	410,00
-10743,36	429,00
-10718,02	399,00
-10692,74	339,00
-10667,52	359,00
-10642,35	547,00
-10617,24	433,00
-10592,18	387,00
-10567,18	427,00
-10542,23	361,00
-10517,34	366,00
-10492,51	352,00
-10467,72	375,00
-10443,00	584,00
-10418,32	543,00
-10393,70	431,00
-10369,14	528,00
-10344,63	512,00
-10320,17	403,00
-10295,77	384,00
-10271,42	446,00
-10247,12	533,00
-10222,88	387,00
-10198,68	430,00
-10174,54	515,00
-10150,46	481,00
-10126,42	585,00
-10102,44	546,00
-10078,51	562,00
-10054,63	544,00
-10030,80	548,00
-10007,03	631,00
-9983,30	598,00
-9959,63	540,00
-9936,01	640,00
-9912,44	536,00
-9888,92	502,00
-9865,44	540,00
-9842,02	657,00
-9818,65	617,00
-9795,33	579,00
-9772,06	535,00
-9748,84	706,00
-9725,67	679,00
-9702,55	716,00
-9679,47	818,00
-9656,45	931,00
-9633,47	779,00
-9610,55	834,00
-9587,67	1006,00
-9564,84	952,00
-9542,06	1067,00
-9519,32	1160,00
-9496,64	1184,00
-9474,00	1196,00
-9451,41	1333,00
-9428,87	1216,00
-9406,37	1188,00
-9383,92	1180,00
-9361,52	1165,00
-9339,17	1248,00
-9316,86	1353,00
-9294,60	1298,00
-9272,38	1652,00
-9250,21	1764,00
-9228,09	1827,00
-9206,01	1850,00
-9183,98	1731,00
-9162,00	1432,00
-9140,06	1334,00
-9118,16	1544,00
-9096,31	1531,00
-9074,51	1557,00
-9052,75	1639,00
-9031,04	1659,00
-9009,37	1436,00
-8987,74	1354,00
-8966,16	1101,00
-8944,63	1130,00
-8923,14	1185,00
-8901,69	1165,00
-8880,29	1103,00
-8858,93	1394,00
-8837,61	1450,00
-8816,34	1422,00
-8795,11	1437,00
-8773,92	1436,00
-8752,78	1349,00
-8731,68	1199,00
-8710,62	1166,00
-8689,61	1367,00
-8668,63	1242,00
-8647,70	1454,00
-8626,82	1474,00
-8605,97	1345,00
-8585,17	1327,00
-8564,41	1189,00
-8543,69	1202,00
-8523,01	1124,00
-8502,37	1235,00
-8481,78	1063,00
-8461,23	1224,00
-8440,71	1343,00
-8420,24	1314,00
-8399,81	1480,00
-8379,42	1409,00
-8359,08	1389,00
-8338,77	1286,00
-8318,50	1134,00
-8298,27	1152,00
-8278,09	1180,00
-8257,94	1232,00
-8237,83	1404,00
-8217,76	1332,00
-8197,74	1318,00
-8177,75	1335,00
-8157,80	1161,00
-8137,89	1099,00
-8118,02	1118,00
-8098,19	1180,00
-8078,40	1201,00
-8058,65	1120,00
-8038,93	1141,00
-8019,26	1030,00
-7999,62	1119,00
-7980,02	1024,00
-7960,46	903,00
-7940,94	972,00
-7921,46	1017,00
-7902,01	1001,00
-7882,60	1064,00
-7863,23	923,00
-7843,90	927,00
-7824,61	1019,00
-7805,35	1236,00
-7786,13	1099,00
-7766,95	1168,00
-7747,80	1048,00
-7728,69	1084,00
-7709,62	1041,00
-7690,59	1005,00
-7671,59	1121,00
-7652,63	961,00
-7633,70	1118,00
-7614,81	972,00
-7595,96	878,00
-7577,15	894,00
-7558,37	949,00
-7539,62	1032,00
-7520,91	1039,00
-7502,24	1021,00
-7483,60	997,00
-7465,00	790,00
-7446,44	978,00
-7427,91	763,00
-7409,41	872,00
-7390,95	787,00
-7372,53	920,00
-7354,14	787,00
-7335,78	710,00
-7317,46	719,00
-7299,18	843,00
-7280,92	843,00
-7262,71	1075,00
-7244,52	1037,00
-7226,38	868,00
-7208,26	954,00
-7190,18	955,00
-7172,14	898,00
-7154,12	918,00
-7136,15	925,00
-7118,20	1078,00
-7100,29	981,00
-7082,41	937,00
-7064,57	908,00
-7046,76	927,00
-7028,98	762,00
-7011,24	839,00
-6993,53	738,00
-6975,85	612,00
-6958,20	715,00
-6940,59	478,00
-6923,01	558,00
-6905,46	720,00
-6887,94	687,00
-6870,46	3326,00
-6853,01	869,00
-6835,59	823,00
-6818,21	676,00
-6800,85	664,00
-6783,53	613,00
-6766,24	693,00
-6748,98	519,00
-6731,76	594,00
-6714,56	523,00
-6697,40	515,00
-6680,26	484,00
-6663,16	596,00
-6646,09	711,00
-6629,05	712,00
-6612,05	752,00
-6595,07	851,00
-6578,13	702,00
-6561,21	679,00
-6544,33	739,00
-6527,47	550,00
-6510,65	496,00
-6493,86	568,00
-6477,10	567,00
-6460,36	470,00
-6443,66	560,00
-6426,99	426,00
-6410,35	633,00
-6393,74	624,00
-6377,16	601,00
-6360,61	596,00
-6344,09	648,00
-6327,59	616,00
-6311,13	555,00
-6294,70	618,00
-6278,29	668,00
-6261,92	750,00
-6245,58	597,00
-6229,26	570,00
-6212,97	603,00
-6196,72	635,00
-6180,49	490,00
-6164,29	403,00
-6148,12	598,00
-6131,98	507,00
-6115,86	447,00
-6099,78	457,00
-6083,72	406,00
-6067,69	468,00
-6051,69	500,00
-6035,72	409,00
-6019,78	453,00
-6003,87	538,00
-5987,98	578,00
-5972,12	670,00
-5956,29	646,00
-5940,49	493,00
-5924,71	625,00
-5908,96	457,00
-5893,24	567,00
-5877,55	633,00
-5861,89	553,00
-5846,25	550,00
-5830,64	491,00
-5815,05	588,00
-5799,50	463,00
-5783,97	499,00
-5768,47	463,00
-5752,99	575,00
-5737,55	585,00
-5722,12	550,00
-5706,73	575,00
-5691,36	603,00
-5676,02	546,00
-5660,71	612,00
-5645,42	445,00
-5630,16	586,00
-5614,92	457,00
-5599,71	560,00
-5584,53	558,00
-5569,37	439,00
-5554,24	1604,00
-5539,14	472,00
-5524,06	419,00
-5509,01	455,00
-5493,98	609,00
-5478,98	574,00
-5464,00	498,00
-5449,05	477,00
-5434,13	361,00
-5419,23	472,00
-5404,36	445,00
-5389,51	546,00
-5374,69	597,00
-5359,89	567,00
-5345,12	619,00
-5330,37	727,00
-5315,65	429,00
-5300,95	592,00
-5286,28	494,00
-5271,63	371,00
-5257,01	439,00
-5242,41	547,00
-5227,84	402,00
-5213,29	533,00
-5198,76	465,00
-5184,26	470,00
-5169,79	531,00
-5155,33	506,00
-5140,91	507,00
-5126,51	490,00
-5112,13	449,00
-5097,77	527,00
-5083,44	546,00
-5069,13	473,00
-5054,85	372,00
-5040,59	421,00
-5026,36	395,00
-5012,15	510,00
-4997,96	554,00
-4983,80	531,00
-4969,66	447,00
-4955,54	500,00
-4941,44	534,00
-4927,37	576,00
-4913,33	632,00
-4899,30	555,00
-4885,30	560,00
-4871,33	586,00
-4857,37	457,00
-4843,44	511,00
-4829,53	544,00
-4815,65	505,00
-4801,79	550,00
-4787,95	448,00
-4774,13	422,00
-4760,34	387,00
-4746,56	403,00
-4732,82	426,00
-4719,09	467,00
-4705,38	565,00
-4691,70	717,00
-4678,04	677,00
-4664,41	589,00
-4650,79	525,00
-4637,20	568,00
-4623,63	430,00
-4610,08	517,00
-4596,56	514,00
-4583,05	571,00
-4569,57	401,00
-4556,11	574,00
-4542,67	444,00
-4529,25	495,00
-4515,86	483,00
-4502,49	521,00
-4489,13	629,00
-4475,80	666,00
-4462,49	521,00
-4449,21	497,00
-4435,94	458,00
-4422,70	416,00
-4409,47	510,00
-4396,27	496,00
-4383,09	556,00
-4369,93	442,00
-4356,79	423,00
-4343,67	482,00
-4330,58	457,00
-4317,50	524,00
-4304,45	405,00
-4291,41	475,00
-4278,40	353,00
-4265,41	436,00
-4252,44	443,00
-4239,49	428,00
-4226,55	445,00
-4213,65	530,00
-4200,76	415,00
-4187,89	357,00
-4175,04	417,00
-4162,21	413,00
-4149,40	456,00
-4136,61	471,00
-4123,85	502,00
-4111,10	362,00
-4098,37	298,00
-4085,66	428,00
-4072,98	448,00
-4060,31	400,00
-4047,66	428,00
-4035,04	488,00
-4022,43	525,00
-4009,84	418,00
-3997,27	364,00
-3984,72	332,00
-3972,19	340,00
-3959,69	411,00
-3947,20	351,00
-3934,73	431,00
-3922,27	315,00
-3909,84	426,00
-3897,43	313,00
-3885,04	551,00
-3872,67	359,00
-3860,31	499,00
-3847,98	407,00
-3835,66	331,00
-3823,36	401,00
-3811,09	422,00
-3798,83	426,00
-3786,59	483,00
-3774,37	575,00
-3762,17	534,00
-3749,98	443,00
-3737,82	476,00
-3725,67	445,00
-3713,55	367,00
-3701,44	399,00
-3689,35	318,00
-3677,28	471,00
-3665,22	411,00
-3653,19	439,00
-3641,17	534,00
-3629,18	510,00
-3617,20	484,00
-3605,24	410,00
-3593,30	315,00
-3581,37	428,00
-3569,47	448,00
-3557,58	385,00
-3545,71	459,00
-3533,86	571,00
-3522,02	461,00
-3510,21	452,00
-3498,41	448,00
-3486,63	475,00
-3474,87	405,00
-3463,12	402,00
-3451,40	463,00
-3439,69	481,00
-3428,00	412,00
-3416,33	444,00
-3404,67	371,00
-3393,03	403,00
-3381,41	429,00
-3369,81	493,00
-3358,22	381,00
-3346,66	483,00
-3335,10	422,00
-3323,57	401,00
-3312,06	338,00
-3300,56	454,00
-3289,08	436,00
-3277,61	386,00
-3266,16	343,00
-3254,73	457,00
-3243,32	460,00
-3231,92	401,00
-3220,55	438,00
-3209,18	391,00
-3197,84	380,00
-3186,51	306,00
-3175,20	300,00
-3163,90	555,00
-3152,63	400,00
-3141,36	510,00
-3130,12	442,00
-3118,89	460,00
-3107,68	485,00
-3096,49	439,00
-3085,31	447,00
-3074,15	396,00
-3063,00	400,00
-3051,87	533,00
-3040,76	455,00
-3029,67	398,00
-3018,59	455,00
-3007,52	490,00
-2996,48	348,00
-2985,44	394,00
-2974,43	341,00
-2963,43	431,00
-2952,45	230,00
-2941,48	426,00
-2930,53	456,00
-2919,60	469,00
-2908,68	384,00
-2897,78	304,00
-2886,89	497,00
-2876,02	445,00
-2865,17	458,00
-2854,33	397,00
-2843,50	389,00
-2832,70	487,00
-2821,90	415,00
-2811,13	502,00
-2800,37	405,00
-2789,62	423,00
-2778,89	462,00
-2768,18	374,00
-2757,48	396,00
-2746,80	506,00
-2736,13	445,00
-2725,48	477,00
-2714,84	371,00
-2704,22	403,00
-2693,61	403,00
-2683,02	431,00
-2672,45	451,00
-2661,89	368,00
-2651,34	442,00
-2640,81	376,00
-2630,30	449,00
-2619,80	416,00
-2609,31	337,00
-2598,84	352,00
-2588,39	445,00
-2577,95	448,00
-2567,52	373,00
-2557,11	405,00
-2546,71	492,00
-2536,33	511,00
-2525,97	491,00
-2515,62	317,00
-2505,28	431,00
-2494,96	483,00
-2484,65	514,00
-2474,36	551,00
-2464,08	447,00
-2453,82	583,00
-2443,57	406,00
-2433,33	355,00
-2423,11	310,00
-2412,91	548,00
-2402,72	397,00
-2392,54	391,00
-2382,38	298,00
-2372,23	441,00
-2362,09	4968,00
-2351,97	377,00
-2341,87	490,00
-2331,78	410,00
-2321,70	476,00
-2311,64	448,00
-2301,59	291,00
-2291,55	309,00
-2281,53	373,00
-2271,53	304,00
-2261,53	506,00
-2251,55	436,00
-2241,59	304,00
-2231,64	319,00
-2221,70	496,00
-2211,78	362,00
-2201,87	517,00
-2191,97	491,00
-2182,09	484,00
-2172,22	418,00
-2162,37	365,00
-2152,53	388,00
-2142,70	422,00
-2132,89	425,00
-2123,09	510,00
-2113,30	395,00
-2103,53	427,00
-2093,77	432,00
-2084,02	296,00
-2074,29	514,00
-2064,57	406,00
-2054,86	435,00
-2045,17	444,00
-2035,49	484,00
-2025,82	248,00
-2016,17	432,00
-2006,53	385,00
-1996,91	342,00
-1987,29	401,00
-1977,69	512,00
-1968,11	385,00
-1958,53	344,00
-1948,97	473,00
-1939,42	393,00
-1929,89	364,00
-1920,37	433,00
-1910,86	378,00
-1901,36	443,00
-1891,88	454,00
-1882,41	302,00
-1872,95	372,00
-1863,51	372,00
-1854,08	471,00
-1844,66	423,00
-1835,26	380,00
-1825,86	398,00
-1816,48	207,00
-1807,11	453,00
-1797,76	475,00
-1788,42	537,00
-1779,09	486,00
-1769,77	462,00
-1760,47	638,00
-1751,17	384,00
-1741,89	400,00
-1732,63	473,00
-1723,37	490,00
-1714,13	465,00
-1704,90	383,00
-1695,68	481,00
-1686,48	373,00
-1677,29	450,00
-1668,11	567,00
-1658,94	543,00
-1649,78	368,00
-1640,64	494,00
-1631,51	351,00
-1622,39	444,00
-1613,28	419,00
-1604,19	477,00
-1595,10	462,00
-1586,03	378,00
-1576,97	368,00
-1567,93	412,00
-1558,89	525,00
-1549,87	442,00
-1540,86	413,00
-1531,86	474,00
-1522,87	397,00
-1513,90	390,00
-1504,93	382,00
-1495,98	345,00
-1487,04	466,00
-1478,12	389,00
-1469,20	343,00
-1460,30	482,00
-1451,40	359,00
-1442,52	476,00
-1433,65	470,00
-1424,80	505,00
-1415,95	354,00
-1407,12	461,00
-1398,30	456,00
-1389,48	473,00
-1380,69	486,00
-1371,90	463,00
-1363,12	533,00
-1354,36	446,00
-1345,60	406,00
-1336,86	420,00
-1328,13	499,00
-1319,41	432,00
-1310,70	420,00
-1302,01	402,00
-1293,32	409,00
-1284,65	460,00
-1275,99	454,00
-1267,33	509,00
-1258,69	388,00
-1250,06	494,00
-1241,45	417,00
-1232,84	542,00
-1224,25	460,00
-1215,66	482,00
-1207,09	426,00
-1198,53	534,00
-1189,97	468,00
-1181,43	380,00
-1172,91	480,00
-1164,39	508,00
-1155,88	337,00
-1147,38	337,00
-1138,90	386,00
-1130,43	326,00
-1121,96	410,00
-1113,51	410,00
-1105,07	329,00
-1096,64	510,00
-1088,22	428,00
-1079,81	422,00
-1071,41	412,00
-1063,02	439,00
-1054,65	433,00
-1046,28	441,00
-1037,92	413,00
-1029,58	506,00
-1021,24	507,00
-1012,92	628,00
-1004,61	409,00
-996,30	457,00
-988,01	359,00
-979,73	433,00
-971,46	303,00
-963,20	452,00
-954,95	412,00
-946,71	497,00
-938,48	334,00
-930,26	558,00
-922,06	453,00
-913,86	544,00
-905,67	445,00
-897,49	443,00
-889,33	318,00
-881,17	468,00
-873,02	529,00
-864,89	396,00
-856,76	301,00
-848,65	393,00
-840,54	392,00
-832,45	438,00
-824,36	323,00
-816,29	477,00
-808,22	401,00
-800,17	444,00
-792,12	490,00
-784,09	463,00
-776,06	322,00
-768,05	399,00
-760,04	493,00
-752,05	279,00
-744,07	455,00
-736,09	509,00
-728,13	285,00
-720,17	343,00
-712,23	489,00
-704,29	404,00
-696,37	317,00
-688,45	450,00
-680,55	353,00
-672,65	484,00
-664,77	390,00
-656,89	408,00
-649,03	271,00
-641,17	373,00
-633,32	456,00
-625,49	413,00
-617,66	495,00
-609,84	404,00
-602,03	500,00
-594,23	415,00
-586,45	517,00
-578,67	469,00
-570,90	314,00
-563,14	485,00
-555,39	476,00
-547,65	492,00
-539,91	442,00
-532,19	409,00
-524,48	445,00
-516,78	429,00
-509,08	368,00
-501,40	354,00
-493,72	495,00
-486,06	362,00
-478,40	539,00
-470,76	433,00
-463,12	456,00
-455,49	379,00
-447,87	420,00
-440,26	439,00
-432,66	508,00
-425,07	466,00
-417,49	530,00
-409,92	568,00
-402,35	378,00
-394,80	364,00
-387,25	353,00
-379,72	574,00
-372,19	432,00
-364,67	470,00
-357,17	529,00
-349,67	461,00
-342,18	490,00
-334,69	495,00
-327,22	504,00
-319,76	395,00
-312,30	441,00
-304,86	481,00
-297,42	365,00
-290,00	469,00
-282,58	544,00
-275,17	488,00
-267,77	443,00
-260,37	464,00
-252,99	403,00
-245,62	491,00
-238,25	516,00
-230,90	500,00
-223,55	527,00
-216,21	581,00
-208,88	489,00
-201,56	464,00
-194,25	560,00
-186,94	511,00
-179,65	517,00
-172,36	518,00
-165,08	590,00
-157,81	729,00
-150,55	571,00
-143,30	571,00
-136,06	762,00
-128,82	698,00
-121,60	667,00
-114,38	844,00
-107,17	932,00
-99,97	973,00
-92,78	1062,00
-85,60	1038,00
-78,42	1252,00
-71,25	1393,00
-64,10	1419,00
-56,95	1733,00
-49,81	1975,00
-42,67	2229,00
-35,55	2774,00
-28,43	3675,00
-21,33	5610,00
-14,23	16906,00
-7,14	55841,00
-0,05	55551,00
7,02	55287,00
14,09	55623,00
21,14	17880,00
28,19	7417,00
35,23	4670,00
42,27	3677,00
49,29	3089,00
56,31	2529,00
63,32	2225,00
70,32	1937,00
77,31	1701,00
84,29	1595,00
91,27	1345,00
98,23	1335,00
105,19	1209,00
112,14	1333,00
119,09	1760,00
126,02	2552,00
132,95	2975,00
139,87	2959,00
146,78	3101,00
153,68	2992,00
160,58	3002,00
167,46	2909,00
174,34	2875,00
181,21	2874,00
188,08	2819,00
194,93	2898,00
201,78	2925,00
208,62	2842,00
215,45	2808,00
222,27	2839,00
229,09	2835,00
235,90	2844,00
242,70	2759,00
249,49	2918,00
256,27	2677,00
263,05	2686,00
269,82	2650,00
276,58	2642,00
283,33	2591,00
290,08	2681,00
296,82	2693,00
303,55	2546,00
310,27	2519,00
316,98	2622,00
323,69	2539,00
330,39	2560,00
337,08	2664,00
343,76	2488,00
350,44	2556,00
357,11	2377,00
363,77	2541,00
370,42	2380,00
377,07	2419,00
383,71	2397,00
390,34	2588,00
396,96	2504,00
403,58	2430,00
410,19	2548,00
416,79	2576,00
423,38	2504,00
429,97	2477,00
436,55	2194,00
443,12	2487,00
449,68	2235,00
456,24	2312,00
462,79	2365,00
469,33	2214,00
475,86	2224,00
482,39	2326,00
488,91	2300,00
495,42	2130,00
501,93	2123,00
508,42	2208,00
514,91	2276,00
521,40	2070,00
527,87	2074,00
534,34	2318,00
540,80	2219,00
547,25	2171,00
553,70	2081,00
560,14	2214,00
566,57	2286,00
573,00	2086,00
579,41	2094,00
585,83	1973,00
592,23	2121,00
598,62	2212,00
605,01	2101,00
611,40	1979,00
617,77	1991,00
624,14	2053,00
630,50	2047,00
636,85	2016,00
643,20	2078,00
649,54	1907,00
655,87	2022,00
662,20	1998,00
668,52	2167,00
674,83	2101,00
681,13	2116,00
687,43	2015,00
693,72	1874,00
700,00	2037,00
706,28	1972,00
712,55	1895,00
718,81	1984,00
725,07	2009,00
731,32	1908,00
737,56	2098,00
743,79	1984,00
750,02	1986,00
756,24	1947,00
762,46	1944,00
768,67	1933,00
774,87	1975,00
781,06	1973,00
787,25	2023,00
793,43	1876,00
799,60	1816,00
805,77	2119,00
811,93	1924,00
818,08	1926,00
824,23	1858,00
830,37	1851,00
836,50	1909,00
842,63	1933,00
848,75	1938,00
854,87	1947,00
860,97	1947,00
867,07	1950,00
873,17	1944,00
879,25	2020,00
885,33	1923,00
891,41	1966,00
897,47	1987,00
903,53	1853,00
909,59	1884,00
915,63	1819,00
921,67	1900,00
927,71	1771,00
933,74	1859,00
939,76	1802,00
945,77	1835,00
951,78	1894,00
957,78	1876,00
963,78	1719,00
969,77	1848,00
975,75	1743,00
981,72	1824,00
987,69	2221,00
993,66	1823,00
999,61	1766,00
1005,56	1880,00
1011,51	1867,00
1017,44	1915,00
1023,37	1963,00
1029,30	1844,00
1035,22	1811,00
1041,13	1863,00
1047,03	1942,00
1052,93	2007,00
1058,83	2536,00
1064,71	2773,00
1070,59	2457,00
1076,47	2181,00
1082,33	2042,00
1088,20	1846,00
1094,05	1850,00
1099,90	1891,00
1105,74	1889,00
1111,58	1836,00
1117,41	1916,00
1123,23	2476,00
1129,05	2860,00
1134,86	2625,00
1140,67	2134,00
1146,47	1863,00
1152,26	1726,00
1158,05	1588,00
1163,83	1626,00
1169,60	1878,00
1175,37	1696,00
1181,13	1816,00
1186,89	1633,00
1192,64	1792,00
1198,38	1913,00
1204,12	1735,00
1209,85	1646,00
1215,58	1788,00
1221,30	1571,00
1227,02	1687,00
1232,72	1592,00
1238,43	1612,00
1244,12	1665,00
1249,81	1686,00
1255,50	1840,00
1261,17	1680,00
1266,85	1766,00
1272,51	1700,00
1278,17	1993,00
1283,83	1966,00
1289,47	2382,00
1295,12	3027,00
1300,75	2934,00
1306,38	2430,00
1312,01	1996,00
1317,63	1909,00
1323,24	1749,00
1328,85	1761,00
1334,45	1813,00
1340,04	1496,00
1345,63	1705,00
1351,22	1908,00
1356,80	1754,00
1362,37	1800,00
1367,93	1789,00
1373,49	1860,00
1379,05	1832,00
1384,60	1864,00
1390,14	1691,00
1395,68	1736,00
1401,21	1865,00
1406,74	1782,00
1412,26	2137,00
1417,77	2410,00
1423,28	2279,00
1428,78	2340,00
1434,28	2800,00
1439,77	3013,00
1445,26	3044,00
1450,74	2865,00
1456,22	2683,00
1461,68	2549,00
1467,15	2414,00
1472,61	2168,00
1478,06	2006,00
1483,51	1944,00
1488,95	1722,00
1494,38	1668,00
1499,81	1548,00
1505,24	1621,00
1510,65	1626,00
1516,07	1582,00
1521,48	1542,00
1526,88	1531,00
1532,27	1628,00
1537,67	1432,00
1543,05	1439,00
1548,43	1420,00
1553,81	1564,00
1559,18	1410,00
1564,54	1408,00
1569,90	1483,00
1575,25	1370,00
1580,60	1391,00
1585,94	1415,00
1591,28	1361,00
1596,61	1451,00
1601,93	1340,00
1607,25	1402,00
1612,57	1374,00
1617,88	1486,00
1623,18	1447,00
1628,48	1434,00
1633,77	1412,00
1639,06	1386,00
1644,34	1293,00
1649,62	1351,00
1654,89	1346,00
1660,16	1280,00
1665,42	1297,00
1670,67	1333,00
1675,92	1462,00
1681,17	1324,00
1686,41	1271,00
1691,64	1323,00
1696,87	1369,00
1702,10	1278,00
1707,32	1208,00
1712,53	1238,00
1717,74	1244,00
1722,94	1325,00
1728,14	1210,00
1733,33	1135,00
1738,52	1116,00
1743,70	1189,00
1748,88	1189,00
1754,05	1182,00
1759,22	1089,00
1764,38	1261,00
1769,53	1256,00
1774,69	1309,00
1779,83	1146,00
1784,97	1116,00
1790,11	1141,00
1795,24	1175,00
1800,36	1062,00
1805,48	1156,00
1810,60	1239,00
1815,71	1071,00
1820,82	1093,00
1825,92	1080,00
1831,01	1112,00
1836,10	1214,00
1841,19	965,00
1846,26	1094,00
1851,34	1214,00
1856,41	1016,00
1861,47	978,00
1866,53	1228,00
1871,59	1076,00
1876,64	1067,00
1881,68	1104,00
1886,72	1091,00
1891,76	1008,00
1896,79	964,00
1901,81	993,00
1906,83	1063,00
1911,85	1053,00
1916,86	1020,00
1921,86	1073,00
1926,86	967,00
1931,86	946,00
1936,85	932,00
1941,83	905,00
1946,81	1085,00
1951,79	909,00
1956,76	978,00
1961,72	848,00
1966,68	921,00
1971,64	843,00
1976,59	896,00
1981,54	948,00
1986,48	1032,00
1991,42	805,00
1996,35	1015,00
2001,27	993,00
2006,20	875,00
2011,11	998,00
2016,03	860,00
2020,93	872,00
2025,84	914,00
2030,73	865,00
2035,63	719,00
2040,52	995,00
2045,40	858,00
2050,28	880,00
2055,15	848,00
2060,02	834,00
2064,89	899,00
2069,75	896,00
2074,60	949,00
2079,46	812,00
2084,30	845,00
2089,14	902,00
2093,98	889,00
2098,81	879,00
2103,64	816,00
2108,46	923,00
2113,28	842,00
2118,09	844,00
2122,90	730,00
2127,70	731,00
2132,50	736,00
2137,30	918,00
2142,09	838,00
2146,87	841,00
2151,66	787,00
2156,43	1046,00
2161,20	836,00
2165,97	800,00
2170,73	710,00
2175,49	884,00
2180,24	829,00
2184,99	848,00
2189,74	731,00
2194,48	852,00
2199,21	895,00
2203,94	780,00
2208,67	822,00
2213,39	746,00
2218,11	794,00
2222,82	741,00
2227,53	778,00
2232,23	815,00
2236,93	798,00
2241,63	979,00
2246,32	731,00
2251,00	802,00
2255,68	877,00
2260,36	785,00
2265,03	840,00
2269,70	800,00
2274,36	761,00
2279,02	731,00
2283,68	792,00
2288,33	639,00
2292,97	708,00
2297,61	782,00
2302,25	759,00
2306,88	802,00
2311,51	718,00
2316,14	682,00
2320,75	786,00
2325,37	588,00
2329,98	662,00
2334,59	680,00
2339,19	703,00
2343,79	696,00
2348,38	771,00
2352,97	673,00
2357,55	900,00
2362,13	729,00
2366,71	692,00
2371,28	650,00
2375,85	670,00
2380,41	722,00
2384,97	713,00
2389,52	799,00
2394,07	600,00
2398,62	753,00
2403,16	735,00
2407,70	696,00
2412,23	660,00
2416,76	631,00
2421,29	706,00
2425,81	722,00
2430,32	837,00
2434,84	637,00
2439,34	696,00
2443,85	827,00
2448,35	779,00
2452,84	692,00
2457,33	596,00
2461,82	625,00
2466,30	645,00
2470,78	770,00
2475,25	607,00
2479,72	641,00
2484,19	562,00
2488,65	684,00
2493,11	627,00
2497,56	637,00
2502,01	611,00
2506,46	761,00
2510,90	625,00
2515,34	702,00
2519,77	759,00
2524,20	602,00
2528,62	628,00
2533,04	618,00
2537,46	669,00
2541,87	643,00
2546,28	612,00
2550,68	697,00
2555,08	744,00
2559,48	647,00
2563,87	634,00
2568,26	679,00
2572,64	657,00
2577,02	645,00
2581,40	584,00
2585,77	663,00
2590,14	714,00
2594,50	573,00
2598,86	819,00
2603,22	664,00
2607,57	606,00
2611,92	660,00
2616,26	768,00
2620,60	565,00
2624,94	624,00
2629,27	748,00
2633,60	570,00
2637,92	617,00
2642,24	858,00
2646,56	619,00
2650,87	684,00
2655,18	762,00
2659,48	557,00
2663,78	709,00
2668,08	646,00
2672,37	556,00
2676,66	720,00
2680,95	649,00
2685,23	675,00
2689,50	769,00
2693,78	679,00
2698,05	694,00
2702,31	771,00
2706,57	733,00
2710,83	746,00
2715,08	699,00
2719,33	914,00
2723,58	696,00
2727,82	872,00
2732,06	730,00
2736,29	821,00
2740,53	692,00
2744,75	755,00
2748,97	683,00
2753,19	750,00
2757,41	758,00
2761,62	765,00
2765,83	802,00
2770,03	669,00
2774,23	756,00
2778,43	745,00
2782,62	644,00
2786,81	691,00
2791,00	899,00
2795,18	718,00
2799,35	799,00
2803,53	795,00
2807,70	865,00
2811,86	811,00
2816,03	832,00
2820,19	960,00
2824,34	860,00
2828,49	955,00
2832,64	1170,00
2836,78	1289,00
2840,92	1654,00
2845,06	1763,00
2849,19	2043,00
2853,32	2239,00
2857,45	2305,00
2861,57	2075,00
2865,69	2157,00
2869,80	1922,00
2873,91	2103,00
2878,02	2270,00
2882,12	2452,00
2886,22	2382,00
2890,32	2334,00
2894,41	2070,00
2898,50	1880,00
2902,58	1978,00
2906,67	1656,00
2910,74	1741,00
2914,82	1529,00
2918,89	1616,00
2922,96	1325,00
2927,02	1433,00
2931,08	1378,00
2935,13	1219,00
2939,19	1183,00
2943,24	1114,00
2947,28	878,00
2951,32	880,00
2955,36	814,00
2959,40	959,00
2963,43	779,00
2967,46	805,00
2971,48	778,00
2975,50	671,00
2979,52	755,00
2983,53	730,00
2987,54	703,00
2991,55	742,00
2995,55	675,00
2999,55	542,00
3003,54	644,00
3007,54	657,00
3011,53	625,00
3015,51	574,00
3019,49	750,00
3023,47	602,00
3027,45	516,00
3031,42	543,00
3035,39	400,00
3039,35	612,00
3043,31	509,00
3047,27	560,00
3051,22	620,00
3055,17	566,00
3059,12	384,00
3063,06	597,00
3067,00	524,00
3070,94	532,00
3074,87	476,00
3078,80	562,00
3082,73	376,00
3086,65	524,00
3090,57	492,00
3094,49	515,00
3098,40	527,00
3102,31	454,00
3106,22	487,00
3110,12	437,00
3114,02	519,00
3117,92	495,00
3121,81	401,00
3125,70	541,00
3129,58	489,00
3133,47	440,00
3137,34	587,00
3141,22	430,00
3145,09	556,00
3148,96	356,00
3152,83	438,00
3156,69	418,00
3160,55	438,00
3164,40	555,00
3168,26	395,00
3172,10	622,00
3175,95	477,00
3179,79	468,00
3183,63	412,00
3187,47	484,00
3191,30	422,00
3195,13	518,00
3198,95	439,00
3202,78	466,00
3206,60	397,00
3210,41	352,00
3214,23	548,00
3218,03	411,00
3221,84	556,00
3225,64	567,00
3229,44	528,00
3233,24	496,00
3237,03	533,00
3240,82	524,00
3244,61	476,00
3248,39	503,00
3252,17	517,00
3255,95	517,00
3259,72	448,00
3263,49	532,00
3267,26	455,00
3271,03	476,00
3274,79	521,00
3278,54	490,00
3282,30	409,00
3286,05	408,00
3289,80	564,00
3293,54	489,00
3297,29	525,00
3301,02	650,00
3304,76	572,00
3308,49	551,00
3312,22	519,00
3315,95	395,00
3319,67	419,00
3323,39	528,00
3327,10	603,00
3330,82	468,00
3334,53	453,00
3338,24	459,00
3341,94	377,00
3345,64	564,00
3349,34	532,00
3353,03	522,00
3356,72	508,00
3360,41	579,00
3364,10	500,00
3367,78	426,00
3371,46	447,00
3375,13	451,00
3378,81	448,00
3382,48	535,00
3386,14	449,00
3389,81	576,00
3393,47	431,00
3397,12	326,00
3400,78	523,00
3404,43	466,00
3408,08	485,00
3411,72	585,00
3415,36	461,00
3419,00	420,00
3422,64	435,00
3426,27	393,00
3429,90	405,00
3433,53	417,00
3437,15	503,00
3440,77	441,00
3444,39	490,00
3448,00	569,00
3451,62	387,00
3455,22	510,00
3458,83	410,00
3462,43	348,00
3466,03	489,00
3469,63	497,00
3473,22	378,00
3476,81	530,00
3480,40	458,00
3483,99	346,00
3487,57	532,00
3491,15	398,00
3494,72	395,00
3498,29	411,00
3501,86	441,00
3505,43	444,00
3508,99	458,00
3512,56	475,00
3516,11	488,00
3519,67	432,00
3523,22	542,00
3526,77	478,00
3530,32	387,00
3533,86	330,00
3537,40	430,00
3540,94	449,00
3544,47	317,00
3548,00	415,00
3551,53	394,00
3555,06	311,00
3558,58	430,00
3562,10	398,00
3565,62	441,00
3569,13	352,00
3572,64	383,00
3576,15	409,00
3579,66	433,00
3583,16	394,00
3586,66	423,00
3590,16	502,00
3593,65	304,00
3597,14	337,00
3600,63	430,00
3604,11	499,00
3607,60	470,00
3611,08	559,00
3614,55	348,00
3618,03	308,00
3621,50	365,00
3624,97	408,00
3628,43	409,00
3631,90	373,00
3635,36	326,00
3638,81	407,00
3642,27	437,00
3645,72	329,00
3649,17	295,00
3652,61	427,00
3656,06	317,00
3659,50	326,00
3662,93	452,00
3666,37	343,00
3669,80	441,00
3673,23	354,00
3676,65	538,00
3680,08	380,00
3683,50	340,00
3686,92	421,00
3690,33	278,00
3693,74	333,00
3697,15	409,00
3700,56	405,00
3703,96	469,00
3707,36	363,00
3710,76	385,00
3714,16	334,00
3717,55	372,00
3720,94	426,00
3724,33	477,00
3727,71	342,00
3731,10	354,00
3734,48	433,00
3737,85	365,00
3741,23	396,00
3744,60	353,00
3747,97	272,00
3751,33	402,00
3754,69	400,00
3758,05	373,00
3761,41	404,00
3764,77	356,00
3768,12	255,00
3771,47	189,00
3774,82	304,00
3778,16	-6,00
3781,50	3,00
3784,84	10,00
3788,18	7,00
>>>>>End Processed Spectral Data<<<<<
