SpectraSuite Data File
++++++++++++++++++++++++++++++++++++
Date: Wed Feb 04 16:08:09 ICT 2026
User: Administrator
Dark Spectrum Present: Yes
Reference Spectrum Present: No
Number of Sampled Component Spectra: 1
Spectrometers: MAYP113682
Integration Time (usec): 3000000 (MAYP113682)
Spectra Averaged: 1 (MAYP113682)
Boxcar Smoothing: 0 (MAYP113682)
Correct for Electrical Dark: No (MAYP113682)
Strobe/Lamp Enabled: No (MAYP113682)
Correct for Detector Non-linearity: No (MAYP113682)
Correct for Stray Light: No (MAYP113682)
Number of Pixels in Processed Spectrum: 2068
>>>>>Begin Processed Spectral Data<<<<<
-37534,58	8,00
-37414,56	-1,00
-37295,11	5,00
-37176,24	-3,00
-37057,95	317,00
-36940,22	385,00
-36823,05	425,00
-36706,45	360,00
-36590,40	394,00
-36474,90	319,00
-36359,95	447,00
-36245,55	471,00
-36131,68	419,00
-36018,35	431,00
-35905,55	504,00
-35793,29	366,00
-35681,54	474,00
-35570,32	404,00
-35459,62	260,00
-35349,43	383,00
-35239,75	461,00
-35130,58	402,00
-35021,91	254,00
-34913,74	395,00
-34806,07	492,00
-34698,89	459,00
-34592,20	393,00
-34486,00	471,00
-34380,28	399,00
-34275,04	324,00
-34170,27	449,00
-34065,98	399,00
-33962,16	384,00
-33858,81	403,00
-33755,92	525,00
-33653,49	443,00
-33551,52	483,00
-33450,01	524,00
-33348,94	420,00
-33248,33	383,00
-33148,16	452,00
-33048,43	544,00
-32949,14	553,00
-32850,29	508,00
-32751,87	478,00
-32653,89	414,00
-32556,33	480,00
-32459,20	357,00
-32362,49	377,00
-32266,19	420,00
-32170,32	397,00
-32074,86	413,00
-31979,82	457,00
-31885,18	449,00
-31790,95	477,00
-31697,12	455,00
-31603,69	584,00
-31510,67	432,00
-31418,04	407,00
-31325,80	368,00
-31233,95	513,00
-31142,49	389,00
-31051,42	501,00
-30960,73	546,00
-30870,43	574,00
-30780,50	365,00
-30690,95	511,00
-30601,77	409,00
-30512,97	477,00
-30424,53	519,00
-30336,46	396,00
-30248,76	467,00
-30161,42	514,00
-30074,44	464,00
-29987,81	557,00
-29901,55	379,00
-29815,63	482,00
-29730,07	487,00
-29644,86	498,00
-29560,00	295,00
-29475,48	398,00
-29391,30	444,00
-29307,47	456,00
-29223,97	436,00
-29140,81	376,00
-29057,99	470,00
-28975,50	451,00
-28893,34	453,00
-28811,51	471,00
-28730,00	478,00
-28648,82	523,00
-28567,97	483,00
-28487,43	416,00
-28407,21	393,00
-28327,32	466,00
-28247,73	558,00
-28168,46	329,00
-28089,50	343,00
-28010,85	490,00
-27932,51	450,00
-27854,48	520,00
-27776,75	457,00
-27699,32	475,00
-27622,19	471,00
-27545,37	408,00
-27468,84	390,00
-27392,60	513,00
-27316,66	366,00
-27241,01	536,00
-27165,66	534,00
-27090,59	476,00
-27015,81	609,00
-26941,31	538,00
-26867,10	458,00
-26793,17	514,00
-26719,52	402,00
-26646,15	374,00
-26573,06	367,00
-26500,24	530,00
-26427,70	468,00
-26355,43	479,00
-26283,43	385,00
-26211,71	508,00
-26140,25	623,00
-26069,06	546,00
-25998,13	415,00
-25927,46	476,00
-25857,06	392,00
-25786,92	383,00
-25717,04	373,00
-25647,42	553,00
-25578,05	437,00
-25508,94	500,00
-25440,09	469,00
-25371,48	356,00
-25303,13	442,00
-25235,02	489,00
-25167,17	444,00
-25099,56	466,00
-25032,19	421,00
-24965,07	480,00
-24898,20	438,00
-24831,56	534,00
-24765,17	503,00
-24699,01	421,00
-24633,10	459,00
-24567,41	486,00
-24501,97	560,00
-24436,75	484,00
-24371,77	472,00
-24307,03	494,00
-24242,51	494,00
-24178,22	553,00
-24114,16	411,00
-24050,32	530,00
-23986,71	428,00
-23923,32	423,00
-23860,16	331,00
-23797,22	501,00
-23734,50	451,00
-23672,00	307,00
-23609,71	505,00
-23547,65	376,00
-23485,80	457,00
-23424,16	296,00
-23362,74	593,00
-23301,53	424,00
-23240,54	372,00
-23179,75	431,00
-23119,17	415,00
-23058,80	444,00
-22998,64	352,00
-22938,68	374,00
-22878,93	440,00
-22819,39	406,00
-22760,04	370,00
-22700,90	345,00
-22641,96	511,00
-22583,22	445,00
-22524,68	423,00
-22466,33	505,00
-22408,19	507,00
-22350,23	437,00
-22292,48	442,00
-22234,92	420,00
-22177,55	492,00
-22120,37	439,00
-22063,38	353,00
-22006,58	397,00
-21949,98	419,00
-21893,56	387,00
-21837,33	415,00
-21781,28	388,00
-21725,42	400,00
-21669,74	382,00
-21614,25	518,00
-21558,94	485,00
-21503,81	520,00
-21448,86	428,00
-21394,10	431,00
-21339,51	427,00
-21285,10	449,00
-21230,86	494,00
-21176,81	366,00
-21122,93	386,00
-21069,22	382,00
-21015,69	298,00
-20962,33	377,00
-20909,14	364,00
-20856,13	417,00
-20803,28	386,00
-20750,61	437,00
-20698,10	352,00
-20645,76	370,00
-20593,59	492,00
-20541,59	575,00
-20489,75	496,00
-20438,07	480,00
-20386,56	551,00
-20335,22	410,00
-20284,03	449,00
-20233,01	494,00
-20182,15	462,00
-20131,45	484,00
-20080,91	378,00
-20030,52	455,00
-19980,30	441,00
-19930,23	366,00
-19880,32	424,00
-19830,56	396,00
-19780,96	386,00
-19731,52	604,00
-19682,23	419,00
-19633,09	435,00
-19584,10	530,00
-19535,26	406,00
-19486,58	353,00
-19438,04	433,00
-19389,66	420,00
-19341,42	364,00
-19293,33	378,00
-19245,39	461,00
-19197,60	321,00
-19149,95	482,00
-19102,45	481,00
-19055,09	432,00
-19007,87	538,00
-18960,80	461,00
-18913,87	391,00
-18867,09	430,00
-18820,44	397,00
-18773,94	446,00
-18727,57	497,00
-18681,35	443,00
-18635,26	414,00
-18589,31	442,00
-18543,50	457,00
-18497,83	588,00
-18452,29	436,00
-18406,89	468,00
-18361,63	454,00
-18316,50	511,00
-18271,50	292,00
-18226,63	440,00
-18181,90	588,00
-18137,30	514,00
-18092,84	396,00
-18048,50	474,00
-18004,29	499,00
-17960,22	326,00
-17916,27	454,00
-17872,45	388,00
-17828,76	400,00
-17785,20	422,00
-17741,77	446,00
-17698,46	454,00
-17655,28	314,00
-17612,22	481,00
-17569,29	396,00
-17526,48	462,00
-17483,79	391,00
-17441,23	479,00
-17398,79	388,00
-17356,48	411,00
-17314,28	465,00
-17272,21	352,00
-17230,26	421,00
-17188,42	430,00
-17146,71	528,00
-17105,12	376,00
-17063,64	370,00
-17022,28	435,00
-16981,04	433,00
-16939,92	434,00
-16898,91	483,00
-16858,02	459,00
-16817,25	420,00
-16776,59	499,00
-16736,04	508,00
-16695,61	443,00
-16655,29	513,00
-16615,09	426,00
-16574,99	449,00
-16535,01	424,00
-16495,15	452,00
-16455,39	359,00
-16415,74	414,00
-16376,21	448,00
-16336,78	387,00
-16297,46	380,00
-16258,26	421,00
-16219,16	469,00
-16180,17	462,00
-16141,28	337,00
-16102,51	429,00
-16063,84	550,00
-16025,27	534,00
-15986,82	516,00
-15948,46	478,00
-15910,22	484,00
-15872,07	482,00
-15834,04	466,00
-15796,10	431,00
-15758,27	458,00
-15720,54	400,00
-15682,91	476,00
-15645,39	490,00
-15607,97	492,00
-15570,64	461,00
-15533,42	546,00
-15496,30	509,00
-15459,28	397,00
-15422,36	373,00
-15385,54	388,00
-15348,82	422,00
-15312,19	456,00
-15275,66	415,00
-15239,23	520,00
-15202,90	417,00
-15166,67	372,00
-15130,53	550,00
-15094,48	382,00
-15058,54	482,00
-15022,68	420,00
-14986,93	412,00
-14951,26	453,00
-14915,69	596,00
-14880,22	422,00
-14844,84	502,00
-14809,55	525,00
-14774,35	406,00
-14739,25	533,00
-14704,24	397,00
-14669,32	341,00
-14634,49	329,00
-14599,75	378,00
-14565,10	486,00
-14530,55	538,00
-14496,08	372,00
-14461,70	461,00
-14427,41	343,00
-14393,21	401,00
-14359,10	394,00
-14325,07	356,00
-14291,14	519,00
-14257,29	514,00
-14223,52	380,00
-14189,85	598,00
-14156,26	534,00
-14122,76	459,00
-14089,34	442,00
-14056,01	386,00
-14022,76	490,00
-13989,60	451,00
-13956,52	419,00
-13923,53	359,00
-13890,62	421,00
-13857,79	375,00
-13825,05	430,00
-13792,39	386,00
-13759,81	418,00
-13727,31	438,00
-13694,90	527,00
-13662,57	369,00
-13630,31	463,00
-13598,14	425,00
-13566,05	446,00
-13534,05	451,00
-13502,12	468,00
-13470,27	547,00
-13438,50	501,00
-13406,80	406,00
-13375,19	339,00
-13343,66	391,00
-13312,20	446,00
-13280,83	436,00
-13249,53	452,00
-13218,30	390,00
-13187,16	383,00
-13156,09	391,00
-13125,10	407,00
-13094,18	480,00
-13063,34	455,00
-13032,58	382,00
-13001,89	476,00
-12971,28	353,00
-12940,74	456,00
-12910,27	460,00
-12879,88	460,00
-12849,57	421,00
-12819,33	515,00
-12789,16	351,00
-12759,06	390,00
-12729,04	495,00
-12699,09	1044,00
-12669,21	441,00
-12639,41	408,00
-12609,68	387,00
-12580,02	439,00
-12550,43	422,00
-12520,91	430,00
-12491,46	345,00
-12462,08	356,00
-12432,77	592,00
-12403,54	504,00
-12374,37	453,00
-12345,27	534,00
-12316,24	421,00
-12287,29	487,00
-12258,40	419,00
-12229,57	539,00
-12200,82	338,00
-12172,14	388,00
-12143,52	313,00
-12114,97	286,00
-12086,49	534,00
-12058,07	451,00
-12029,73	439,00
-12001,44	522,00
-11973,23	455,00
-11945,08	452,00
-11917,00	447,00
-11888,98	445,00
-11861,03	481,00
-11833,15	472,00
-11805,32	501,00
-11777,57	522,00
-11749,88	392,00
-11722,25	450,00
-11694,69	364,00
-11667,19	505,00
-11639,75	343,00
-11612,38	470,00
-11585,07	385,00
-11557,83	368,00
-11530,65	480,00
-11503,53	477,00
-11476,47	457,00
-11449,48	456,00
-11422,54	563,00
-11395,67	453,00
-11368,86	437,00
-11342,11	386,00
-11315,43	600,00
-11288,80	328,00
-11262,23	451,00
-11235,73	361,00
-11209,28	413,00
-11182,90	543,00
-11156,57	411,00
-11130,31	535,00
-11104,10	455,00
-11077,96	377,00
-11051,87	362,00
-11025,84	556,00
-10999,87	443,00
-10973,96	543,00
-10948,11	501,00
-10922,31	480,00
-10896,58	454,00
-10870,90	451,00
-10845,28	472,00
-10819,71	496,00
-10794,20	606,00
-10768,75	408,00
-10743,36	335,00
-10718,02	503,00
-10692,74	469,00
-10667,52	405,00
-10642,35	462,00
-10617,24	464,00
-10592,18	314,00
-10567,18	368,00
-10542,23	477,00
-10517,34	430,00
-10492,51	506,00
-10467,72	450,00
-10443,00	566,00
-10418,32	644,00
-10393,70	448,00
-10369,14	471,00
-10344,63	543,00
-10320,17	425,00
-10295,77	463,00
-10271,42	484,00
-10247,12	522,00
-10222,88	472,00
-10198,68	414,00
-10174,54	544,00
-10150,46	467,00
-10126,42	490,00
-10102,44	423,00
-10078,51	508,00
-10054,63	596,00
-10030,80	585,00
-10007,03	704,00
-9983,30	591,00
-9959,63	517,00
-9936,01	728,00
-9912,44	605,00
-9888,92	567,00
-9865,44	422,00
-9842,02	666,00
-9818,65	715,00
-9795,33	593,00
-9772,06	665,00
-9748,84	688,00
-9725,67	588,00
-9702,55	718,00
-9679,47	755,00
-9656,45	818,00
-9633,47	667,00
-9610,55	809,00
-9587,67	888,00
-9564,84	957,00
-9542,06	1036,00
-9519,32	1006,00
-9496,64	1193,00
-9474,00	1157,00
-9451,41	1191,00
-9428,87	1180,00
-9406,37	1171,00
-9383,92	1128,00
-9361,52	1032,00
-9339,17	1185,00
-9316,86	1395,00
-9294,60	1248,00
-9272,38	1579,00
-9250,21	1627,00
-9228,09	1782,00
-9206,01	1625,00
-9183,98	1632,00
-9162,00	1308,00
-9140,06	1393,00
-9118,16	1466,00
-9096,31	1395,00
-9074,51	1345,00
-9052,75	1429,00
-9031,04	1567,00
-9009,37	1377,00
-8987,74	1276,00
-8966,16	1261,00
-8944,63	1255,00
-8923,14	1194,00
-8901,69	1055,00
-8880,29	1021,00
-8858,93	1293,00
-8837,61	1242,00
-8816,34	1276,00
-8795,11	1276,00
-8773,92	1260,00
-8752,78	1217,00
-8731,68	1137,00
-8710,62	1216,00
-8689,61	1308,00
-8668,63	1227,00
-8647,70	1232,00
-8626,82	1379,00
-8605,97	1253,00
-8585,17	1129,00
-8564,41	1093,00
-8543,69	1095,00
-8523,01	867,00
-8502,37	1113,00
-8481,78	1013,00
-8461,23	1206,00
-8440,71	1094,00
-8420,24	1054,00
-8399,81	1283,00
-8379,42	1202,00
-8359,08	1251,00
-8338,77	1176,00
-8318,50	977,00
-8298,27	907,00
-8278,09	1030,00
-8257,94	1193,00
-8237,83	1155,00
-8217,76	1277,00
-8197,74	1235,00
-8177,75	1206,00
-8157,80	1123,00
-8137,89	1064,00
-8118,02	1046,00
-8098,19	1051,00
-8078,40	939,00
-8058,65	1020,00
-8038,93	1032,00
-8019,26	928,00
-7999,62	997,00
-7980,02	919,00
-7960,46	843,00
-7940,94	775,00
-7921,46	914,00
-7902,01	819,00
-7882,60	937,00
-7863,23	930,00
-7843,90	880,00
-7824,61	848,00
-7805,35	1004,00
-7786,13	940,00
-7766,95	1086,00
-7747,80	969,00
-7728,69	883,00
-7709,62	1073,00
-7690,59	809,00
-7671,59	1013,00
-7652,63	865,00
-7633,70	1061,00
-7614,81	972,00
-7595,96	911,00
-7577,15	778,00
-7558,37	759,00
-7539,62	1009,00
-7520,91	936,00
-7502,24	965,00
-7483,60	939,00
-7465,00	876,00
-7446,44	767,00
-7427,91	711,00
-7409,41	780,00
-7390,95	734,00
-7372,53	840,00
-7354,14	617,00
-7335,78	514,00
-7317,46	789,00
-7299,18	690,00
-7280,92	696,00
-7262,71	1048,00
-7244,52	883,00
-7226,38	688,00
-7208,26	701,00
-7190,18	869,00
-7172,14	803,00
-7154,12	749,00
-7136,15	924,00
-7118,20	789,00
-7100,29	793,00
-7082,41	834,00
-7064,57	817,00
-7046,76	864,00
-7028,98	696,00
-7011,24	823,00
-6993,53	671,00
-6975,85	532,00
-6958,20	604,00
-6940,59	362,00
-6923,01	561,00
-6905,46	647,00
-6887,94	667,00
-6870,46	3334,00
-6853,01	796,00
-6835,59	714,00
-6818,21	659,00
-6800,85	704,00
-6783,53	610,00
-6766,24	622,00
-6748,98	474,00
-6731,76	482,00
-6714,56	494,00
-6697,40	563,00
-6680,26	477,00
-6663,16	600,00
-6646,09	692,00
-6629,05	530,00
-6612,05	706,00
-6595,07	670,00
-6578,13	676,00
-6561,21	585,00
-6544,33	662,00
-6527,47	598,00
-6510,65	520,00
-6493,86	504,00
-6477,10	560,00
-6460,36	447,00
-6443,66	615,00
-6426,99	480,00
-6410,35	526,00
-6393,74	623,00
-6377,16	677,00
-6360,61	575,00
-6344,09	599,00
-6327,59	525,00
-6311,13	511,00
-6294,70	524,00
-6278,29	686,00
-6261,92	566,00
-6245,58	585,00
-6229,26	541,00
-6212,97	510,00
-6196,72	578,00
-6180,49	553,00
-6164,29	484,00
-6148,12	553,00
-6131,98	537,00
-6115,86	599,00
-6099,78	386,00
-6083,72	379,00
-6067,69	493,00
-6051,69	515,00
-6035,72	530,00
-6019,78	448,00
-6003,87	463,00
-5987,98	593,00
-5972,12	631,00
-5956,29	447,00
-5940,49	436,00
-5924,71	565,00
-5908,96	459,00
-5893,24	402,00
-5877,55	586,00
-5861,89	532,00
-5846,25	610,00
-5830,64	558,00
-5815,05	546,00
-5799,50	422,00
-5783,97	482,00
-5768,47	605,00
-5752,99	627,00
-5737,55	509,00
-5722,12	564,00
-5706,73	494,00
-5691,36	472,00
-5676,02	434,00
-5660,71	666,00
-5645,42	391,00
-5630,16	520,00
-5614,92	500,00
-5599,71	546,00
-5584,53	560,00
-5569,37	564,00
-5554,24	619,00
-5539,14	471,00
-5524,06	482,00
-5509,01	477,00
-5493,98	591,00
-5478,98	533,00
-5464,00	588,00
-5449,05	542,00
-5434,13	331,00
-5419,23	505,00
-5404,36	370,00
-5389,51	410,00
-5374,69	635,00
-5359,89	421,00
-5345,12	560,00
-5330,37	647,00
-5315,65	498,00
-5300,95	557,00
-5286,28	388,00
-5271,63	385,00
-5257,01	377,00
-5242,41	587,00
-5227,84	416,00
-5213,29	444,00
-5198,76	491,00
-5184,26	489,00
-5169,79	498,00
-5155,33	515,00
-5140,91	570,00
-5126,51	448,00
-5112,13	390,00
-5097,77	453,00
-5083,44	598,00
-5069,13	439,00
-5054,85	410,00
-5040,59	441,00
-5026,36	490,00
-5012,15	550,00
-4997,96	597,00
-4983,80	410,00
-4969,66	465,00
-4955,54	450,00
-4941,44	486,00
-4927,37	453,00
-4913,33	620,00
-4899,30	507,00
-4885,30	594,00
-4871,33	617,00
-4857,37	548,00
-4843,44	508,00
-4829,53	590,00
-4815,65	571,00
-4801,79	507,00
-4787,95	457,00
-4774,13	431,00
-4760,34	368,00
-4746,56	438,00
-4732,82	369,00
-4719,09	460,00
-4705,38	550,00
-4691,70	569,00
-4678,04	594,00
-4664,41	496,00
-4650,79	543,00
-4637,20	582,00
-4623,63	407,00
-4610,08	574,00
-4596,56	511,00
-4583,05	402,00
-4569,57	394,00
-4556,11	481,00
-4542,67	448,00
-4529,25	487,00
-4515,86	498,00
-4502,49	554,00
-4489,13	596,00
-4475,80	628,00
-4462,49	490,00
-4449,21	480,00
-4435,94	376,00
-4422,70	427,00
-4409,47	465,00
-4396,27	474,00
-4383,09	499,00
-4369,93	513,00
-4356,79	486,00
-4343,67	528,00
-4330,58	440,00
-4317,50	458,00
-4304,45	513,00
-4291,41	465,00
-4278,40	332,00
-4265,41	419,00
-4252,44	448,00
-4239,49	390,00
-4226,55	523,00
-4213,65	532,00
-4200,76	542,00
-4187,89	374,00
-4175,04	431,00
-4162,21	349,00
-4149,40	472,00
-4136,61	488,00
-4123,85	512,00
-4111,10	338,00
-4098,37	411,00
-4085,66	417,00
-4072,98	521,00
-4060,31	474,00
-4047,66	458,00
-4035,04	668,00
-4022,43	528,00
-4009,84	513,00
-3997,27	355,00
-3984,72	519,00
-3972,19	367,00
-3959,69	491,00
-3947,20	365,00
-3934,73	496,00
-3922,27	302,00
-3909,84	335,00
-3897,43	450,00
-3885,04	509,00
-3872,67	458,00
-3860,31	481,00
-3847,98	408,00
-3835,66	394,00
-3823,36	423,00
-3811,09	477,00
-3798,83	477,00
-3786,59	471,00
-3774,37	513,00
-3762,17	463,00
-3749,98	431,00
-3737,82	424,00
-3725,67	593,00
-3713,55	427,00
-3701,44	414,00
-3689,35	381,00
-3677,28	510,00
-3665,22	433,00
-3653,19	463,00
-3641,17	433,00
-3629,18	509,00
-3617,20	603,00
-3605,24	423,00
-3593,30	430,00
-3581,37	520,00
-3569,47	423,00
-3557,58	391,00
-3545,71	401,00
-3533,86	516,00
-3522,02	357,00
-3510,21	451,00
-3498,41	518,00
-3486,63	427,00
-3474,87	388,00
-3463,12	528,00
-3451,40	476,00
-3439,69	515,00
-3428,00	484,00
-3416,33	489,00
-3404,67	353,00
-3393,03	443,00
-3381,41	540,00
-3369,81	451,00
-3358,22	463,00
-3346,66	624,00
-3335,10	463,00
-3323,57	323,00
-3312,06	443,00
-3300,56	449,00
-3289,08	392,00
-3277,61	431,00
-3266,16	364,00
-3254,73	505,00
-3243,32	543,00
-3231,92	538,00
-3220,55	451,00
-3209,18	501,00
-3197,84	399,00
-3186,51	423,00
-3175,20	422,00
-3163,90	371,00
-3152,63	457,00
-3141,36	467,00
-3130,12	439,00
-3118,89	523,00
-3107,68	440,00
-3096,49	419,00
-3085,31	499,00
-3074,15	426,00
-3063,00	399,00
-3051,87	442,00
-3040,76	377,00
-3029,67	507,00
-3018,59	427,00
-3007,52	454,00
-2996,48	429,00
-2985,44	476,00
-2974,43	434,00
-2963,43	393,00
-2952,45	329,00
-2941,48	532,00
-2930,53	425,00
-2919,60	466,00
-2908,68	445,00
-2897,78	408,00
-2886,89	517,00
-2876,02	442,00
-2865,17	525,00
-2854,33	426,00
-2843,50	398,00
-2832,70	519,00
-2821,90	426,00
-2811,13	461,00
-2800,37	413,00
-2789,62	502,00
-2778,89	574,00
-2768,18	427,00
-2757,48	462,00
-2746,80	525,00
-2736,13	400,00
-2725,48	455,00
-2714,84	332,00
-2704,22	515,00
-2693,61	466,00
-2683,02	555,00
-2672,45	427,00
-2661,89	400,00
-2651,34	604,00
-2640,81	436,00
-2630,30	508,00
-2619,80	449,00
-2609,31	395,00
-2598,84	348,00
-2588,39	418,00
-2577,95	425,00
-2567,52	364,00
-2557,11	489,00
-2546,71	604,00
-2536,33	489,00
-2525,97	458,00
-2515,62	427,00
-2505,28	537,00
-2494,96	495,00
-2484,65	544,00
-2474,36	585,00
-2464,08	400,00
-2453,82	573,00
-2443,57	413,00
-2433,33	385,00
-2423,11	417,00
-2412,91	529,00
-2402,72	444,00
-2392,54	388,00
-2382,38	423,00
-2372,23	391,00
-2362,09	5046,00
-2351,97	295,00
-2341,87	443,00
-2331,78	494,00
-2321,70	404,00
-2311,64	493,00
-2301,59	418,00
-2291,55	420,00
-2281,53	428,00
-2271,53	302,00
-2261,53	555,00
-2251,55	540,00
-2241,59	395,00
-2231,64	348,00
-2221,70	611,00
-2211,78	407,00
-2201,87	488,00
-2191,97	576,00
-2182,09	504,00
-2172,22	400,00
-2162,37	371,00
-2152,53	406,00
-2142,70	452,00
-2132,89	439,00
-2123,09	553,00
-2113,30	433,00
-2103,53	445,00
-2093,77	483,00
-2084,02	439,00
-2074,29	574,00
-2064,57	528,00
-2054,86	565,00
-2045,17	507,00
-2035,49	550,00
-2025,82	358,00
-2016,17	418,00
-2006,53	485,00
-1996,91	407,00
-1987,29	384,00
-1977,69	527,00
-1968,11	405,00
-1958,53	355,00
-1948,97	500,00
-1939,42	490,00
-1929,89	260,00
-1920,37	479,00
-1910,86	466,00
-1901,36	523,00
-1891,88	523,00
-1882,41	243,00
-1872,95	462,00
-1863,51	381,00
-1854,08	440,00
-1844,66	407,00
-1835,26	513,00
-1825,86	433,00
-1816,48	390,00
-1807,11	368,00
-1797,76	480,00
-1788,42	585,00
-1779,09	431,00
-1769,77	453,00
-1760,47	555,00
-1751,17	398,00
-1741,89	406,00
-1732,63	503,00
-1723,37	445,00
-1714,13	569,00
-1704,90	444,00
-1695,68	510,00
-1686,48	463,00
-1677,29	384,00
-1668,11	642,00
-1658,94	609,00
-1649,78	445,00
-1640,64	485,00
-1631,51	498,00
-1622,39	445,00
-1613,28	314,00
-1604,19	482,00
-1595,10	469,00
-1586,03	419,00
-1576,97	357,00
-1567,93	485,00
-1558,89	446,00
-1549,87	466,00
-1540,86	440,00
-1531,86	462,00
-1522,87	416,00
-1513,90	478,00
-1504,93	451,00
-1495,98	415,00
-1487,04	552,00
-1478,12	390,00
-1469,20	431,00
-1460,30	465,00
-1451,40	337,00
-1442,52	400,00
-1433,65	461,00
-1424,80	468,00
-1415,95	459,00
-1407,12	489,00
-1398,30	609,00
-1389,48	474,00
-1380,69	575,00
-1371,90	532,00
-1363,12	475,00
-1354,36	451,00
-1345,60	390,00
-1336,86	454,00
-1328,13	487,00
-1319,41	548,00
-1310,70	414,00
-1302,01	435,00
-1293,32	397,00
-1284,65	452,00
-1275,99	418,00
-1267,33	511,00
-1258,69	381,00
-1250,06	438,00
-1241,45	481,00
-1232,84	510,00
-1224,25	491,00
-1215,66	547,00
-1207,09	472,00
-1198,53	470,00
-1189,97	534,00
-1181,43	417,00
-1172,91	477,00
-1164,39	512,00
-1155,88	341,00
-1147,38	465,00
-1138,90	376,00
-1130,43	409,00
-1121,96	357,00
-1113,51	497,00
-1105,07	379,00
-1096,64	557,00
-1088,22	395,00
-1079,81	436,00
-1071,41	536,00
-1063,02	434,00
-1054,65	510,00
-1046,28	456,00
-1037,92	432,00
-1029,58	546,00
-1021,24	456,00
-1012,92	642,00
-1004,61	436,00
-996,30	542,00
-988,01	393,00
-979,73	415,00
-971,46	440,00
-963,20	501,00
-954,95	384,00
-946,71	485,00
-938,48	417,00
-930,26	559,00
-922,06	396,00
-913,86	497,00
-905,67	416,00
-897,49	390,00
-889,33	357,00
-881,17	536,00
-873,02	494,00
-864,89	483,00
-856,76	346,00
-848,65	548,00
-840,54	415,00
-832,45	586,00
-824,36	292,00
-816,29	599,00
-808,22	444,00
-800,17	357,00
-792,12	477,00
-784,09	477,00
-776,06	437,00
-768,05	307,00
-760,04	460,00
-752,05	345,00
-744,07	370,00
-736,09	544,00
-728,13	422,00
-720,17	379,00
-712,23	461,00
-704,29	361,00
-696,37	435,00
-688,45	458,00
-680,55	484,00
-672,65	472,00
-664,77	383,00
-656,89	446,00
-649,03	321,00
-641,17	426,00
-633,32	407,00
-625,49	393,00
-617,66	463,00
-609,84	536,00
-602,03	474,00
-594,23	462,00
-586,45	542,00
-578,67	508,00
-570,90	439,00
-563,14	493,00
-555,39	547,00
-547,65	486,00
-539,91	384,00
-532,19	410,00
-524,48	517,00
-516,78	417,00
-509,08	474,00
-501,40	406,00
-493,72	484,00
-486,06	414,00
-478,40	517,00
-470,76	468,00
-463,12	482,00
-455,49	551,00
-447,87	328,00
-440,26	405,00
-432,66	459,00
-425,07	624,00
-417,49	471,00
-409,92	446,00
-402,35	492,00
-394,80	449,00
-387,25	398,00
-379,72	561,00
-372,19	476,00
-364,67	545,00
-357,17	541,00
-349,67	475,00
-342,18	485,00
-334,69	492,00
-327,22	538,00
-319,76	413,00
-312,30	528,00
-304,86	445,00
-297,42	506,00
-290,00	484,00
-282,58	607,00
-275,17	427,00
-267,77	461,00
-260,37	582,00
-252,99	438,00
-245,62	449,00
-238,25	406,00
-230,90	494,00
-223,55	619,00
-216,21	578,00
-208,88	722,00
-201,56	586,00
-194,25	640,00
-186,94	611,00
-179,65	602,00
-172,36	570,00
-165,08	536,00
-157,81	721,00
-150,55	653,00
-143,30	617,00
-136,06	748,00
-128,82	852,00
-121,60	683,00
-114,38	909,00
-107,17	935,00
-99,97	965,00
-92,78	982,00
-85,60	1121,00
-78,42	1148,00
-71,25	1449,00
-64,10	1497,00
-56,95	1794,00
-49,81	2073,00
-42,67	2476,00
-35,55	2850,00
-28,43	3738,00
-21,33	5780,00
-14,23	17584,00
-7,14	55841,00
-0,05	55551,00
7,02	55287,00
14,09	55623,00
21,14	18346,00
28,19	7506,00
35,23	4845,00
42,27	3800,00
49,29	3063,00
56,31	2672,00
63,32	2378,00
70,32	2074,00
77,31	1781,00
84,29	1588,00
91,27	1421,00
98,23	1332,00
105,19	1230,00
112,14	1350,00
119,09	1657,00
126,02	2303,00
132,95	2622,00
139,87	2475,00
146,78	2587,00
153,68	2379,00
160,58	2373,00
167,46	2344,00
174,34	2281,00
181,21	2271,00
188,08	2245,00
194,93	2207,00
201,78	2217,00
208,62	2329,00
215,45	2154,00
222,27	2235,00
229,09	2179,00
235,90	2154,00
242,70	2153,00
249,49	2248,00
256,27	1990,00
263,05	2076,00
269,82	2056,00
276,58	2074,00
283,33	2077,00
290,08	1984,00
296,82	1931,00
303,55	1920,00
310,27	1849,00
316,98	1832,00
323,69	1934,00
330,39	1830,00
337,08	1893,00
343,76	1884,00
350,44	1849,00
357,11	1770,00
363,77	1730,00
370,42	1795,00
377,07	1872,00
383,71	1800,00
390,34	1791,00
396,96	1770,00
403,58	1870,00
410,19	1841,00
416,79	1969,00
423,38	1917,00
429,97	1772,00
436,55	1629,00
443,12	1623,00
449,68	1574,00
456,24	1675,00
462,79	1602,00
469,33	1656,00
475,86	1578,00
482,39	1564,00
488,91	1696,00
495,42	1549,00
501,93	1580,00
508,42	1581,00
514,91	1576,00
521,40	1418,00
527,87	1472,00
534,34	1522,00
540,80	1512,00
547,25	1609,00
553,70	1533,00
560,14	1595,00
566,57	1528,00
573,00	1340,00
579,41	1535,00
585,83	1412,00
592,23	1571,00
598,62	1607,00
605,01	1286,00
611,40	1541,00
617,77	1427,00
624,14	1516,00
630,50	1379,00
636,85	1502,00
643,20	1560,00
649,54	1345,00
655,87	1436,00
662,20	1443,00
668,52	1539,00
674,83	1543,00
681,13	1433,00
687,43	1464,00
693,72	1400,00
700,00	1356,00
706,28	1305,00
712,55	1390,00
718,81	1438,00
725,07	1421,00
731,32	1310,00
737,56	1488,00
743,79	1356,00
750,02	1382,00
756,24	1394,00
762,46	1397,00
768,67	1436,00
774,87	1420,00
781,06	1403,00
787,25	1440,00
793,43	1354,00
799,60	1189,00
805,77	1491,00
811,93	1383,00
818,08	1336,00
824,23	1333,00
830,37	1273,00
836,50	1260,00
842,63	1275,00
848,75	1364,00
854,87	1364,00
860,97	1441,00
867,07	1413,00
873,17	1310,00
879,25	1504,00
885,33	1385,00
891,41	1524,00
897,47	1457,00
903,53	1343,00
909,59	1332,00
915,63	1419,00
921,67	1293,00
927,71	1256,00
933,74	1324,00
939,76	1337,00
945,77	1264,00
951,78	1343,00
957,78	1307,00
963,78	1228,00
969,77	1344,00
975,75	1351,00
981,72	1347,00
987,69	1520,00
993,66	1169,00
999,61	1281,00
1005,56	1428,00
1011,51	1353,00
1017,44	1395,00
1023,37	1394,00
1029,30	1249,00
1035,22	1275,00
1041,13	1341,00
1047,03	1519,00
1052,93	1582,00
1058,83	2024,00
1064,71	2411,00
1070,59	2081,00
1076,47	1720,00
1082,33	1594,00
1088,20	1417,00
1094,05	1470,00
1099,90	1384,00
1105,74	1379,00
1111,58	1316,00
1117,41	1412,00
1123,23	1989,00
1129,05	2465,00
1134,86	2403,00
1140,67	1816,00
1146,47	1387,00
1152,26	1236,00
1158,05	1205,00
1163,83	1390,00
1169,60	1325,00
1175,37	1302,00
1181,13	1240,00
1186,89	1274,00
1192,64	1299,00
1198,38	1348,00
1204,12	1288,00
1209,85	1188,00
1215,58	1288,00
1221,30	1230,00
1227,02	1099,00
1232,72	1259,00
1238,43	1198,00
1244,12	1259,00
1249,81	1191,00
1255,50	1307,00
1261,17	1238,00
1266,85	1433,00
1272,51	1300,00
1278,17	1461,00
1283,83	1583,00
1289,47	2075,00
1295,12	2717,00
1300,75	2519,00
1306,38	2124,00
1312,01	1657,00
1317,63	1560,00
1323,24	1245,00
1328,85	1345,00
1334,45	1403,00
1340,04	1286,00
1345,63	1370,00
1351,22	1512,00
1356,80	1311,00
1362,37	1415,00
1367,93	1414,00
1373,49	1578,00
1379,05	1504,00
1384,60	1470,00
1390,14	1323,00
1395,68	1428,00
1401,21	1419,00
1406,74	1576,00
1412,26	1729,00
1417,77	2053,00
1423,28	1895,00
1428,78	2104,00
1434,28	2483,00
1439,77	2928,00
1445,26	2726,00
1450,74	2637,00
1456,22	2474,00
1461,68	2346,00
1467,15	2253,00
1472,61	1949,00
1478,06	1767,00
1483,51	1539,00
1488,95	1439,00
1494,38	1399,00
1499,81	1236,00
1505,24	1253,00
1510,65	1230,00
1516,07	1221,00
1521,48	1235,00
1526,88	1147,00
1532,27	1213,00
1537,67	1105,00
1543,05	1169,00
1548,43	1171,00
1553,81	1191,00
1559,18	1023,00
1564,54	1154,00
1569,90	1109,00
1575,25	1120,00
1580,60	1051,00
1585,94	1201,00
1591,28	1061,00
1596,61	1060,00
1601,93	1104,00
1607,25	1098,00
1612,57	1101,00
1617,88	1084,00
1623,18	1188,00
1628,48	1139,00
1633,77	1118,00
1639,06	1117,00
1644,34	986,00
1649,62	1001,00
1654,89	1045,00
1660,16	1037,00
1665,42	965,00
1670,67	1060,00
1675,92	1129,00
1681,17	923,00
1686,41	1045,00
1691,64	1055,00
1696,87	1093,00
1702,10	988,00
1707,32	925,00
1712,53	936,00
1717,74	969,00
1722,94	1072,00
1728,14	1045,00
1733,33	962,00
1738,52	914,00
1743,70	1054,00
1748,88	987,00
1754,05	931,00
1759,22	937,00
1764,38	1061,00
1769,53	996,00
1774,69	1027,00
1779,83	898,00
1784,97	920,00
1790,11	898,00
1795,24	984,00
1800,36	856,00
1805,48	879,00
1810,60	963,00
1815,71	870,00
1820,82	780,00
1825,92	931,00
1831,01	887,00
1836,10	766,00
1841,19	820,00
1846,26	843,00
1851,34	966,00
1856,41	911,00
1861,47	805,00
1866,53	879,00
1871,59	913,00
1876,64	888,00
1881,68	904,00
1886,72	921,00
1891,76	798,00
1896,79	881,00
1901,81	733,00
1906,83	814,00
1911,85	817,00
1916,86	907,00
1921,86	863,00
1926,86	889,00
1931,86	791,00
1936,85	758,00
1941,83	772,00
1946,81	807,00
1951,79	739,00
1956,76	785,00
1961,72	644,00
1966,68	780,00
1971,64	622,00
1976,59	725,00
1981,54	672,00
1986,48	808,00
1991,42	662,00
1996,35	827,00
2001,27	662,00
2006,20	746,00
2011,11	739,00
2016,03	784,00
2020,93	728,00
2025,84	729,00
2030,73	758,00
2035,63	551,00
2040,52	826,00
2045,40	670,00
2050,28	808,00
2055,15	611,00
2060,02	656,00
2064,89	689,00
2069,75	719,00
2074,60	642,00
2079,46	680,00
2084,30	767,00
2089,14	682,00
2093,98	779,00
2098,81	707,00
2103,64	725,00
2108,46	833,00
2113,28	658,00
2118,09	690,00
2122,90	675,00
2127,70	541,00
2132,50	717,00
2137,30	721,00
2142,09	775,00
2146,87	618,00
2151,66	732,00
2156,43	754,00
2161,20	743,00
2165,97	763,00
2170,73	586,00
2175,49	697,00
2180,24	658,00
2184,99	828,00
2189,74	668,00
2194,48	737,00
2199,21	892,00
2203,94	731,00
2208,67	716,00
2213,39	606,00
2218,11	723,00
2222,82	721,00
2227,53	766,00
2232,23	678,00
2236,93	731,00
2241,63	883,00
2246,32	628,00
2251,00	660,00
2255,68	784,00
2260,36	657,00
2265,03	748,00
2269,70	694,00
2274,36	588,00
2279,02	726,00
2283,68	623,00
2288,33	669,00
2292,97	533,00
2297,61	663,00
2302,25	650,00
2306,88	636,00
2311,51	573,00
2316,14	666,00
2320,75	697,00
2325,37	665,00
2329,98	680,00
2334,59	580,00
2339,19	605,00
2343,79	623,00
2348,38	641,00
2352,97	603,00
2357,55	777,00
2362,13	598,00
2366,71	699,00
2371,28	699,00
2375,85	657,00
2380,41	690,00
2384,97	640,00
2389,52	684,00
2394,07	654,00
2398,62	626,00
2403,16	600,00
2407,70	591,00
2412,23	689,00
2416,76	562,00
2421,29	655,00
2425,81	623,00
2430,32	732,00
2434,84	536,00
2439,34	631,00
2443,85	579,00
2448,35	723,00
2452,84	616,00
2457,33	602,00
2461,82	540,00
2466,30	633,00
2470,78	605,00
2475,25	552,00
2479,72	623,00
2484,19	583,00
2488,65	707,00
2493,11	572,00
2497,56	699,00
2502,01	573,00
2506,46	645,00
2510,90	555,00
2515,34	636,00
2519,77	700,00
2524,20	589,00
2528,62	604,00
2533,04	616,00
2537,46	663,00
2541,87	624,00
2546,28	529,00
2550,68	653,00
2555,08	604,00
2559,48	679,00
2563,87	659,00
2568,26	570,00
2572,64	610,00
2577,02	703,00
2581,40	556,00
2585,77	640,00
2590,14	661,00
2594,50	503,00
2598,86	653,00
2603,22	538,00
2607,57	583,00
2611,92	695,00
2616,26	689,00
2620,60	620,00
2624,94	526,00
2629,27	633,00
2633,60	531,00
2637,92	662,00
2642,24	699,00
2646,56	709,00
2650,87	723,00
2655,18	725,00
2659,48	514,00
2663,78	634,00
2668,08	665,00
2672,37	609,00
2676,66	704,00
2680,95	742,00
2685,23	682,00
2689,50	738,00
2693,78	694,00
2698,05	578,00
2702,31	673,00
2706,57	700,00
2710,83	691,00
2715,08	770,00
2719,33	973,00
2723,58	810,00
2727,82	835,00
2732,06	738,00
2736,29	824,00
2740,53	829,00
2744,75	737,00
2748,97	662,00
2753,19	646,00
2757,41	672,00
2761,62	701,00
2765,83	845,00
2770,03	606,00
2774,23	824,00
2778,43	684,00
2782,62	619,00
2786,81	821,00
2791,00	818,00
2795,18	846,00
2799,35	787,00
2803,53	809,00
2807,70	918,00
2811,86	868,00
2816,03	906,00
2820,19	999,00
2824,34	1019,00
2828,49	1190,00
2832,64	1272,00
2836,78	1516,00
2840,92	1902,00
2845,06	2041,00
2849,19	2416,00
2853,32	2547,00
2857,45	2601,00
2861,57	2384,00
2865,69	2394,00
2869,80	2269,00
2873,91	2373,00
2878,02	2550,00
2882,12	2845,00
2886,22	2782,00
2890,32	2656,00
2894,41	2360,00
2898,50	2230,00
2902,58	2262,00
2906,67	1828,00
2910,74	1934,00
2914,82	1755,00
2918,89	1804,00
2922,96	1509,00
2927,02	1524,00
2931,08	1407,00
2935,13	1302,00
2939,19	1261,00
2943,24	1134,00
2947,28	1082,00
2951,32	1037,00
2955,36	876,00
2959,40	972,00
2963,43	703,00
2967,46	798,00
2971,48	799,00
2975,50	672,00
2979,52	835,00
2983,53	743,00
2987,54	725,00
2991,55	743,00
2995,55	636,00
2999,55	669,00
3003,54	660,00
3007,54	565,00
3011,53	631,00
3015,51	451,00
3019,49	695,00
3023,47	624,00
3027,45	594,00
3031,42	565,00
3035,39	571,00
3039,35	536,00
3043,31	607,00
3047,27	541,00
3051,22	570,00
3055,17	503,00
3059,12	446,00
3063,06	538,00
3067,00	455,00
3070,94	535,00
3074,87	529,00
3078,80	564,00
3082,73	484,00
3086,65	522,00
3090,57	545,00
3094,49	570,00
3098,40	594,00
3102,31	419,00
3106,22	590,00
3110,12	456,00
3114,02	527,00
3117,92	530,00
3121,81	402,00
3125,70	556,00
3129,58	545,00
3133,47	426,00
3137,34	608,00
3141,22	468,00
3145,09	576,00
3148,96	454,00
3152,83	535,00
3156,69	391,00
3160,55	421,00
3164,40	550,00
3168,26	502,00
3172,10	593,00
3175,95	524,00
3179,79	522,00
3183,63	412,00
3187,47	495,00
3191,30	521,00
3195,13	607,00
3198,95	513,00
3202,78	511,00
3206,60	470,00
3210,41	289,00
3214,23	497,00
3218,03	511,00
3221,84	544,00
3225,64	569,00
3229,44	503,00
3233,24	555,00
3237,03	608,00
3240,82	444,00
3244,61	499,00
3248,39	404,00
3252,17	467,00
3255,95	617,00
3259,72	573,00
3263,49	622,00
3267,26	508,00
3271,03	454,00
3274,79	484,00
3278,54	381,00
3282,30	481,00
3286,05	545,00
3289,80	489,00
3293,54	578,00
3297,29	575,00
3301,02	544,00
3304,76	565,00
3308,49	484,00
3312,22	498,00
3315,95	532,00
3319,67	509,00
3323,39	442,00
3327,10	486,00
3330,82	533,00
3334,53	522,00
3338,24	512,00
3341,94	465,00
3345,64	686,00
3349,34	542,00
3353,03	502,00
3356,72	566,00
3360,41	529,00
3364,10	528,00
3367,78	376,00
3371,46	518,00
3375,13	393,00
3378,81	561,00
3382,48	497,00
3386,14	487,00
3389,81	450,00
3393,47	533,00
3397,12	536,00
3400,78	467,00
3404,43	420,00
3408,08	483,00
3411,72	514,00
3415,36	539,00
3419,00	341,00
3422,64	459,00
3426,27	385,00
3429,90	375,00
3433,53	434,00
3437,15	540,00
3440,77	430,00
3444,39	410,00
3448,00	568,00
3451,62	494,00
3455,22	507,00
3458,83	331,00
3462,43	467,00
3466,03	390,00
3469,63	519,00
3473,22	439,00
3476,81	540,00
3480,40	455,00
3483,99	410,00
3487,57	495,00
3491,15	543,00
3494,72	442,00
3498,29	453,00
3501,86	399,00
3505,43	481,00
3508,99	488,00
3512,56	584,00
3516,11	561,00
3519,67	450,00
3523,22	656,00
3526,77	421,00
3530,32	413,00
3533,86	331,00
3537,40	491,00
3540,94	516,00
3544,47	467,00
3548,00	454,00
3551,53	422,00
3555,06	454,00
3558,58	466,00
3562,10	505,00
3565,62	525,00
3569,13	286,00
3572,64	465,00
3576,15	284,00
3579,66	416,00
3583,16	504,00
3586,66	516,00
3590,16	577,00
3593,65	360,00
3597,14	363,00
3600,63	536,00
3604,11	465,00
3607,60	440,00
3611,08	438,00
3614,55	328,00
3618,03	376,00
3621,50	381,00
3624,97	439,00
3628,43	489,00
3631,90	402,00
3635,36	362,00
3638,81	481,00
3642,27	480,00
3645,72	346,00
3649,17	398,00
3652,61	450,00
3656,06	391,00
3659,50	355,00
3662,93	402,00
3666,37	383,00
3669,80	482,00
3673,23	433,00
3676,65	495,00
3680,08	394,00
3683,50	398,00
3686,92	395,00
3690,33	429,00
3693,74	370,00
3697,15	366,00
3700,56	474,00
3703,96	380,00
3707,36	442,00
3710,76	289,00
3714,16	389,00
3717,55	332,00
3720,94	404,00
3724,33	474,00
3727,71	334,00
3731,10	376,00
3734,48	368,00
3737,85	396,00
3741,23	433,00
3744,60	323,00
3747,97	359,00
3751,33	452,00
3754,69	403,00
3758,05	426,00
3761,41	398,00
3764,77	373,00
3768,12	270,00
3771,47	232,00
3774,82	361,00
3778,16	-4,00
3781,50	6,00
3784,84	12,00
3788,18	2,00
>>>>>End Processed Spectral Data<<<<<
