SpectraSuite Data File
++++++++++++++++++++++++++++++++++++
Date: Wed Feb 04 16:05:30 ICT 2026
User: Administrator
Dark Spectrum Present: Yes
Reference Spectrum Present: No
Number of Sampled Component Spectra: 1
Spectrometers: MAYP113682
Integration Time (usec): 3000000 (MAYP113682)
Spectra Averaged: 1 (MAYP113682)
Boxcar Smoothing: 0 (MAYP113682)
Correct for Electrical Dark: No (MAYP113682)
Strobe/Lamp Enabled: No (MAYP113682)
Correct for Detector Non-linearity: No (MAYP113682)
Correct for Stray Light: No (MAYP113682)
Number of Pixels in Processed Spectrum: 2068
>>>>>Begin Processed Spectral Data<<<<<
-37534,58	5,00
-37414,56	0,00
-37295,11	5,00
-37176,24	5,00
-37057,95	228,00
-36940,22	406,00
-36823,05	324,00
-36706,45	350,00
-36590,40	342,00
-36474,90	223,00
-36359,95	468,00
-36245,55	387,00
-36131,68	352,00
-36018,35	411,00
-35905,55	542,00
-35793,29	298,00
-35681,54	431,00
-35570,32	316,00
-35459,62	381,00
-35349,43	386,00
-35239,75	395,00
-35130,58	368,00
-35021,91	293,00
-34913,74	380,00
-34806,07	407,00
-34698,89	330,00
-34592,20	298,00
-34486,00	290,00
-34380,28	448,00
-34275,04	353,00
-34170,27	378,00
-34065,98	351,00
-33962,16	424,00
-33858,81	397,00
-33755,92	453,00
-33653,49	425,00
-33551,52	377,00
-33450,01	515,00
-33348,94	403,00
-33248,33	362,00
-33148,16	390,00
-33048,43	391,00
-32949,14	472,00
-32850,29	464,00
-32751,87	396,00
-32653,89	397,00
-32556,33	400,00
-32459,20	395,00
-32362,49	334,00
-32266,19	393,00
-32170,32	308,00
-32074,86	388,00
-31979,82	300,00
-31885,18	361,00
-31790,95	358,00
-31697,12	378,00
-31603,69	523,00
-31510,67	373,00
-31418,04	361,00
-31325,80	369,00
-31233,95	509,00
-31142,49	401,00
-31051,42	479,00
-30960,73	435,00
-30870,43	486,00
-30780,50	404,00
-30690,95	431,00
-30601,77	381,00
-30512,97	441,00
-30424,53	457,00
-30336,46	424,00
-30248,76	347,00
-30161,42	511,00
-30074,44	435,00
-29987,81	398,00
-29901,55	323,00
-29815,63	443,00
-29730,07	394,00
-29644,86	466,00
-29560,00	365,00
-29475,48	356,00
-29391,30	358,00
-29307,47	390,00
-29223,97	267,00
-29140,81	355,00
-29057,99	286,00
-28975,50	442,00
-28893,34	363,00
-28811,51	445,00
-28730,00	404,00
-28648,82	450,00
-28567,97	416,00
-28487,43	347,00
-28407,21	375,00
-28327,32	506,00
-28247,73	439,00
-28168,46	410,00
-28089,50	364,00
-28010,85	342,00
-27932,51	394,00
-27854,48	462,00
-27776,75	386,00
-27699,32	477,00
-27622,19	384,00
-27545,37	381,00
-27468,84	380,00
-27392,60	446,00
-27316,66	250,00
-27241,01	458,00
-27165,66	500,00
-27090,59	329,00
-27015,81	505,00
-26941,31	435,00
-26867,10	406,00
-26793,17	479,00
-26719,52	392,00
-26646,15	404,00
-26573,06	322,00
-26500,24	436,00
-26427,70	345,00
-26355,43	339,00
-26283,43	354,00
-26211,71	438,00
-26140,25	460,00
-26069,06	465,00
-25998,13	347,00
-25927,46	404,00
-25857,06	345,00
-25786,92	409,00
-25717,04	362,00
-25647,42	558,00
-25578,05	367,00
-25508,94	464,00
-25440,09	487,00
-25371,48	371,00
-25303,13	411,00
-25235,02	467,00
-25167,17	340,00
-25099,56	388,00
-25032,19	375,00
-24965,07	445,00
-24898,20	470,00
-24831,56	502,00
-24765,17	411,00
-24699,01	418,00
-24633,10	532,00
-24567,41	464,00
-24501,97	579,00
-24436,75	448,00
-24371,77	327,00
-24307,03	382,00
-24242,51	330,00
-24178,22	546,00
-24114,16	399,00
-24050,32	501,00
-23986,71	409,00
-23923,32	421,00
-23860,16	322,00
-23797,22	524,00
-23734,50	461,00
-23672,00	311,00
-23609,71	388,00
-23547,65	423,00
-23485,80	457,00
-23424,16	344,00
-23362,74	510,00
-23301,53	444,00
-23240,54	274,00
-23179,75	328,00
-23119,17	348,00
-23058,80	451,00
-22998,64	367,00
-22938,68	335,00
-22878,93	391,00
-22819,39	514,00
-22760,04	181,00
-22700,90	228,00
-22641,96	399,00
-22583,22	518,00
-22524,68	322,00
-22466,33	394,00
-22408,19	486,00
-22350,23	454,00
-22292,48	465,00
-22234,92	379,00
-22177,55	459,00
-22120,37	419,00
-22063,38	322,00
-22006,58	419,00
-21949,98	295,00
-21893,56	327,00
-21837,33	348,00
-21781,28	342,00
-21725,42	388,00
-21669,74	383,00
-21614,25	389,00
-21558,94	376,00
-21503,81	445,00
-21448,86	393,00
-21394,10	328,00
-21339,51	325,00
-21285,10	339,00
-21230,86	493,00
-21176,81	381,00
-21122,93	365,00
-21069,22	306,00
-21015,69	217,00
-20962,33	358,00
-20909,14	255,00
-20856,13	338,00
-20803,28	367,00
-20750,61	435,00
-20698,10	372,00
-20645,76	425,00
-20593,59	434,00
-20541,59	537,00
-20489,75	410,00
-20438,07	418,00
-20386,56	501,00
-20335,22	351,00
-20284,03	368,00
-20233,01	368,00
-20182,15	399,00
-20131,45	423,00
-20080,91	358,00
-20030,52	435,00
-19980,30	383,00
-19930,23	304,00
-19880,32	459,00
-19830,56	397,00
-19780,96	327,00
-19731,52	520,00
-19682,23	425,00
-19633,09	412,00
-19584,10	365,00
-19535,26	383,00
-19486,58	426,00
-19438,04	407,00
-19389,66	344,00
-19341,42	264,00
-19293,33	348,00
-19245,39	437,00
-19197,60	361,00
-19149,95	328,00
-19102,45	454,00
-19055,09	312,00
-19007,87	391,00
-18960,80	472,00
-18913,87	359,00
-18867,09	337,00
-18820,44	424,00
-18773,94	457,00
-18727,57	429,00
-18681,35	359,00
-18635,26	456,00
-18589,31	354,00
-18543,50	425,00
-18497,83	412,00
-18452,29	420,00
-18406,89	414,00
-18361,63	311,00
-18316,50	373,00
-18271,50	233,00
-18226,63	426,00
-18181,90	427,00
-18137,30	491,00
-18092,84	362,00
-18048,50	346,00
-18004,29	440,00
-17960,22	345,00
-17916,27	379,00
-17872,45	350,00
-17828,76	483,00
-17785,20	316,00
-17741,77	344,00
-17698,46	455,00
-17655,28	346,00
-17612,22	367,00
-17569,29	360,00
-17526,48	374,00
-17483,79	418,00
-17441,23	446,00
-17398,79	324,00
-17356,48	389,00
-17314,28	443,00
-17272,21	355,00
-17230,26	365,00
-17188,42	406,00
-17146,71	397,00
-17105,12	292,00
-17063,64	434,00
-17022,28	329,00
-16981,04	464,00
-16939,92	335,00
-16898,91	396,00
-16858,02	471,00
-16817,25	379,00
-16776,59	383,00
-16736,04	355,00
-16695,61	332,00
-16655,29	380,00
-16615,09	438,00
-16574,99	415,00
-16535,01	367,00
-16495,15	338,00
-16455,39	441,00
-16415,74	400,00
-16376,21	337,00
-16336,78	324,00
-16297,46	240,00
-16258,26	275,00
-16219,16	494,00
-16180,17	416,00
-16141,28	190,00
-16102,51	365,00
-16063,84	364,00
-16025,27	462,00
-15986,82	460,00
-15948,46	361,00
-15910,22	383,00
-15872,07	436,00
-15834,04	474,00
-15796,10	336,00
-15758,27	470,00
-15720,54	442,00
-15682,91	384,00
-15645,39	424,00
-15607,97	399,00
-15570,64	432,00
-15533,42	487,00
-15496,30	484,00
-15459,28	394,00
-15422,36	380,00
-15385,54	341,00
-15348,82	391,00
-15312,19	390,00
-15275,66	325,00
-15239,23	420,00
-15202,90	367,00
-15166,67	375,00
-15130,53	491,00
-15094,48	380,00
-15058,54	385,00
-15022,68	383,00
-14986,93	337,00
-14951,26	341,00
-14915,69	445,00
-14880,22	419,00
-14844,84	503,00
-14809,55	509,00
-14774,35	370,00
-14739,25	449,00
-14704,24	383,00
-14669,32	402,00
-14634,49	301,00
-14599,75	378,00
-14565,10	378,00
-14530,55	354,00
-14496,08	311,00
-14461,70	403,00
-14427,41	361,00
-14393,21	324,00
-14359,10	348,00
-14325,07	343,00
-14291,14	469,00
-14257,29	451,00
-14223,52	434,00
-14189,85	393,00
-14156,26	527,00
-14122,76	425,00
-14089,34	275,00
-14056,01	391,00
-14022,76	431,00
-13989,60	427,00
-13956,52	338,00
-13923,53	390,00
-13890,62	382,00
-13857,79	376,00
-13825,05	374,00
-13792,39	335,00
-13759,81	243,00
-13727,31	453,00
-13694,90	421,00
-13662,57	377,00
-13630,31	397,00
-13598,14	385,00
-13566,05	498,00
-13534,05	332,00
-13502,12	362,00
-13470,27	410,00
-13438,50	466,00
-13406,80	313,00
-13375,19	379,00
-13343,66	407,00
-13312,20	444,00
-13280,83	348,00
-13249,53	393,00
-13218,30	260,00
-13187,16	391,00
-13156,09	324,00
-13125,10	309,00
-13094,18	400,00
-13063,34	478,00
-13032,58	344,00
-13001,89	412,00
-12971,28	369,00
-12940,74	262,00
-12910,27	384,00
-12879,88	431,00
-12849,57	480,00
-12819,33	538,00
-12789,16	291,00
-12759,06	438,00
-12729,04	475,00
-12699,09	1816,00
-12669,21	491,00
-12639,41	431,00
-12609,68	356,00
-12580,02	368,00
-12550,43	361,00
-12520,91	373,00
-12491,46	353,00
-12462,08	306,00
-12432,77	504,00
-12403,54	411,00
-12374,37	405,00
-12345,27	561,00
-12316,24	333,00
-12287,29	392,00
-12258,40	435,00
-12229,57	492,00
-12200,82	299,00
-12172,14	327,00
-12143,52	323,00
-12114,97	284,00
-12086,49	405,00
-12058,07	425,00
-12029,73	391,00
-12001,44	432,00
-11973,23	548,00
-11945,08	363,00
-11917,00	321,00
-11888,98	479,00
-11861,03	412,00
-11833,15	342,00
-11805,32	432,00
-11777,57	402,00
-11749,88	447,00
-11722,25	416,00
-11694,69	343,00
-11667,19	413,00
-11639,75	327,00
-11612,38	406,00
-11585,07	286,00
-11557,83	318,00
-11530,65	340,00
-11503,53	468,00
-11476,47	464,00
-11449,48	386,00
-11422,54	493,00
-11395,67	333,00
-11368,86	387,00
-11342,11	392,00
-11315,43	398,00
-11288,80	328,00
-11262,23	401,00
-11235,73	376,00
-11209,28	459,00
-11182,90	414,00
-11156,57	401,00
-11130,31	509,00
-11104,10	386,00
-11077,96	385,00
-11051,87	350,00
-11025,84	427,00
-10999,87	270,00
-10973,96	413,00
-10948,11	369,00
-10922,31	396,00
-10896,58	361,00
-10870,90	378,00
-10845,28	417,00
-10819,71	397,00
-10794,20	452,00
-10768,75	435,00
-10743,36	279,00
-10718,02	417,00
-10692,74	381,00
-10667,52	338,00
-10642,35	438,00
-10617,24	465,00
-10592,18	356,00
-10567,18	304,00
-10542,23	420,00
-10517,34	370,00
-10492,51	380,00
-10467,72	428,00
-10443,00	480,00
-10418,32	494,00
-10393,70	361,00
-10369,14	463,00
-10344,63	418,00
-10320,17	354,00
-10295,77	285,00
-10271,42	330,00
-10247,12	458,00
-10222,88	247,00
-10198,68	331,00
-10174,54	439,00
-10150,46	431,00
-10126,42	330,00
-10102,44	232,00
-10078,51	411,00
-10054,63	455,00
-10030,80	429,00
-10007,03	443,00
-9983,30	417,00
-9959,63	298,00
-9936,01	483,00
-9912,44	379,00
-9888,92	381,00
-9865,44	387,00
-9842,02	418,00
-9818,65	288,00
-9795,33	307,00
-9772,06	296,00
-9748,84	353,00
-9725,67	248,00
-9702,55	392,00
-9679,47	339,00
-9656,45	484,00
-9633,47	275,00
-9610,55	435,00
-9587,67	307,00
-9564,84	402,00
-9542,06	379,00
-9519,32	255,00
-9496,64	384,00
-9474,00	474,00
-9451,41	302,00
-9428,87	329,00
-9406,37	343,00
-9383,92	227,00
-9361,52	256,00
-9339,17	239,00
-9316,86	336,00
-9294,60	143,00
-9272,38	443,00
-9250,21	334,00
-9228,09	295,00
-9206,01	415,00
-9183,98	323,00
-9162,00	58,00
-9140,06	181,00
-9118,16	305,00
-9096,31	136,00
-9074,51	189,00
-9052,75	375,00
-9031,04	413,00
-9009,37	298,00
-8987,74	322,00
-8966,16	177,00
-8944,63	314,00
-8923,14	269,00
-8901,69	281,00
-8880,29	230,00
-8858,93	275,00
-8837,61	348,00
-8816,34	322,00
-8795,11	294,00
-8773,92	456,00
-8752,78	276,00
-8731,68	313,00
-8710,62	352,00
-8689,61	415,00
-8668,63	281,00
-8647,70	328,00
-8626,82	418,00
-8605,97	351,00
-8585,17	401,00
-8564,41	266,00
-8543,69	320,00
-8523,01	194,00
-8502,37	348,00
-8481,78	232,00
-8461,23	300,00
-8440,71	264,00
-8420,24	353,00
-8399,81	447,00
-8379,42	418,00
-8359,08	353,00
-8338,77	406,00
-8318,50	324,00
-8298,27	272,00
-8278,09	373,00
-8257,94	458,00
-8237,83	501,00
-8217,76	490,00
-8197,74	432,00
-8177,75	439,00
-8157,80	355,00
-8137,89	335,00
-8118,02	352,00
-8098,19	501,00
-8078,40	322,00
-8058,65	361,00
-8038,93	447,00
-8019,26	332,00
-7999,62	439,00
-7980,02	464,00
-7960,46	334,00
-7940,94	391,00
-7921,46	441,00
-7902,01	387,00
-7882,60	543,00
-7863,23	448,00
-7843,90	275,00
-7824,61	403,00
-7805,35	460,00
-7786,13	423,00
-7766,95	558,00
-7747,80	477,00
-7728,69	467,00
-7709,62	420,00
-7690,59	297,00
-7671,59	377,00
-7652,63	297,00
-7633,70	476,00
-7614,81	352,00
-7595,96	430,00
-7577,15	367,00
-7558,37	368,00
-7539,62	483,00
-7520,91	473,00
-7502,24	362,00
-7483,60	451,00
-7465,00	349,00
-7446,44	351,00
-7427,91	285,00
-7409,41	459,00
-7390,95	374,00
-7372,53	326,00
-7354,14	245,00
-7335,78	83,00
-7317,46	385,00
-7299,18	236,00
-7280,92	383,00
-7262,71	566,00
-7244,52	438,00
-7226,38	374,00
-7208,26	300,00
-7190,18	449,00
-7172,14	355,00
-7154,12	341,00
-7136,15	368,00
-7118,20	430,00
-7100,29	369,00
-7082,41	356,00
-7064,57	463,00
-7046,76	230,00
-7028,98	251,00
-7011,24	447,00
-6993,53	258,00
-6975,85	145,00
-6958,20	286,00
-6940,59	142,00
-6923,01	188,00
-6905,46	243,00
-6887,94	310,00
-6870,46	2955,00
-6853,01	247,00
-6835,59	307,00
-6818,21	283,00
-6800,85	359,00
-6783,53	254,00
-6766,24	310,00
-6748,98	123,00
-6731,76	233,00
-6714,56	171,00
-6697,40	218,00
-6680,26	143,00
-6663,16	259,00
-6646,09	260,00
-6629,05	197,00
-6612,05	272,00
-6595,07	341,00
-6578,13	381,00
-6561,21	368,00
-6544,33	329,00
-6527,47	213,00
-6510,65	254,00
-6493,86	192,00
-6477,10	199,00
-6460,36	164,00
-6443,66	275,00
-6426,99	108,00
-6410,35	212,00
-6393,74	376,00
-6377,16	230,00
-6360,61	238,00
-6344,09	251,00
-6327,59	163,00
-6311,13	242,00
-6294,70	199,00
-6278,29	352,00
-6261,92	321,00
-6245,58	246,00
-6229,26	252,00
-6212,97	224,00
-6196,72	337,00
-6180,49	257,00
-6164,29	257,00
-6148,12	323,00
-6131,98	371,00
-6115,86	314,00
-6099,78	213,00
-6083,72	219,00
-6067,69	223,00
-6051,69	298,00
-6035,72	150,00
-6019,78	240,00
-6003,87	209,00
-5987,98	273,00
-5972,12	334,00
-5956,29	257,00
-5940,49	144,00
-5924,71	297,00
-5908,96	416,00
-5893,24	302,00
-5877,55	376,00
-5861,89	173,00
-5846,25	265,00
-5830,64	305,00
-5815,05	291,00
-5799,50	223,00
-5783,97	281,00
-5768,47	369,00
-5752,99	360,00
-5737,55	375,00
-5722,12	245,00
-5706,73	189,00
-5691,36	245,00
-5676,02	245,00
-5660,71	427,00
-5645,42	236,00
-5630,16	301,00
-5614,92	225,00
-5599,71	252,00
-5584,53	309,00
-5569,37	248,00
-5554,24	1314,00
-5539,14	185,00
-5524,06	209,00
-5509,01	229,00
-5493,98	352,00
-5478,98	262,00
-5464,00	233,00
-5449,05	255,00
-5434,13	148,00
-5419,23	330,00
-5404,36	240,00
-5389,51	220,00
-5374,69	279,00
-5359,89	261,00
-5345,12	304,00
-5330,37	402,00
-5315,65	218,00
-5300,95	410,00
-5286,28	297,00
-5271,63	215,00
-5257,01	168,00
-5242,41	403,00
-5227,84	276,00
-5213,29	319,00
-5198,76	326,00
-5184,26	419,00
-5169,79	323,00
-5155,33	323,00
-5140,91	251,00
-5126,51	147,00
-5112,13	103,00
-5097,77	234,00
-5083,44	355,00
-5069,13	257,00
-5054,85	204,00
-5040,59	218,00
-5026,36	230,00
-5012,15	203,00
-4997,96	373,00
-4983,80	264,00
-4969,66	293,00
-4955,54	393,00
-4941,44	283,00
-4927,37	309,00
-4913,33	386,00
-4899,30	302,00
-4885,30	320,00
-4871,33	347,00
-4857,37	295,00
-4843,44	425,00
-4829,53	333,00
-4815,65	393,00
-4801,79	276,00
-4787,95	171,00
-4774,13	286,00
-4760,34	149,00
-4746,56	406,00
-4732,82	293,00
-4719,09	311,00
-4705,38	300,00
-4691,70	339,00
-4678,04	328,00
-4664,41	307,00
-4650,79	478,00
-4637,20	383,00
-4623,63	328,00
-4610,08	363,00
-4596,56	323,00
-4583,05	227,00
-4569,57	194,00
-4556,11	412,00
-4542,67	314,00
-4529,25	415,00
-4515,86	256,00
-4502,49	329,00
-4489,13	384,00
-4475,80	546,00
-4462,49	443,00
-4449,21	442,00
-4435,94	358,00
-4422,70	189,00
-4409,47	228,00
-4396,27	367,00
-4383,09	370,00
-4369,93	417,00
-4356,79	261,00
-4343,67	434,00
-4330,58	303,00
-4317,50	354,00
-4304,45	205,00
-4291,41	448,00
-4278,40	381,00
-4265,41	413,00
-4252,44	344,00
-4239,49	300,00
-4226,55	391,00
-4213,65	465,00
-4200,76	405,00
-4187,89	289,00
-4175,04	392,00
-4162,21	407,00
-4149,40	396,00
-4136,61	474,00
-4123,85	392,00
-4111,10	309,00
-4098,37	376,00
-4085,66	323,00
-4072,98	369,00
-4060,31	420,00
-4047,66	365,00
-4035,04	562,00
-4022,43	390,00
-4009,84	427,00
-3997,27	353,00
-3984,72	392,00
-3972,19	438,00
-3959,69	372,00
-3947,20	361,00
-3934,73	488,00
-3922,27	286,00
-3909,84	387,00
-3897,43	414,00
-3885,04	385,00
-3872,67	351,00
-3860,31	481,00
-3847,98	406,00
-3835,66	350,00
-3823,36	349,00
-3811,09	402,00
-3798,83	438,00
-3786,59	536,00
-3774,37	602,00
-3762,17	450,00
-3749,98	425,00
-3737,82	379,00
-3725,67	474,00
-3713,55	357,00
-3701,44	318,00
-3689,35	415,00
-3677,28	420,00
-3665,22	356,00
-3653,19	334,00
-3641,17	447,00
-3629,18	527,00
-3617,20	444,00
-3605,24	400,00
-3593,30	329,00
-3581,37	330,00
-3569,47	427,00
-3557,58	390,00
-3545,71	398,00
-3533,86	437,00
-3522,02	314,00
-3510,21	355,00
-3498,41	383,00
-3486,63	554,00
-3474,87	404,00
-3463,12	392,00
-3451,40	414,00
-3439,69	479,00
-3428,00	471,00
-3416,33	435,00
-3404,67	230,00
-3393,03	506,00
-3381,41	517,00
-3369,81	517,00
-3358,22	488,00
-3346,66	633,00
-3335,10	407,00
-3323,57	409,00
-3312,06	457,00
-3300,56	409,00
-3289,08	432,00
-3277,61	460,00
-3266,16	482,00
-3254,73	446,00
-3243,32	423,00
-3231,92	560,00
-3220,55	464,00
-3209,18	399,00
-3197,84	301,00
-3186,51	345,00
-3175,20	395,00
-3163,90	342,00
-3152,63	396,00
-3141,36	401,00
-3130,12	410,00
-3118,89	386,00
-3107,68	442,00
-3096,49	406,00
-3085,31	399,00
-3074,15	351,00
-3063,00	401,00
-3051,87	478,00
-3040,76	323,00
-3029,67	486,00
-3018,59	500,00
-3007,52	411,00
-2996,48	304,00
-2985,44	423,00
-2974,43	225,00
-2963,43	369,00
-2952,45	212,00
-2941,48	450,00
-2930,53	420,00
-2919,60	317,00
-2908,68	460,00
-2897,78	316,00
-2886,89	566,00
-2876,02	363,00
-2865,17	449,00
-2854,33	419,00
-2843,50	375,00
-2832,70	428,00
-2821,90	438,00
-2811,13	513,00
-2800,37	341,00
-2789,62	443,00
-2778,89	638,00
-2768,18	377,00
-2757,48	417,00
-2746,80	501,00
-2736,13	384,00
-2725,48	412,00
-2714,84	371,00
-2704,22	346,00
-2693,61	438,00
-2683,02	494,00
-2672,45	417,00
-2661,89	427,00
-2651,34	503,00
-2640,81	434,00
-2630,30	433,00
-2619,80	504,00
-2609,31	557,00
-2598,84	364,00
-2588,39	336,00
-2577,95	344,00
-2567,52	299,00
-2557,11	382,00
-2546,71	578,00
-2536,33	522,00
-2525,97	521,00
-2515,62	489,00
-2505,28	339,00
-2494,96	369,00
-2484,65	481,00
-2474,36	530,00
-2464,08	415,00
-2453,82	449,00
-2443,57	406,00
-2433,33	297,00
-2423,11	277,00
-2412,91	488,00
-2402,72	408,00
-2392,54	389,00
-2382,38	400,00
-2372,23	335,00
-2362,09	3286,00
-2351,97	358,00
-2341,87	441,00
-2331,78	497,00
-2321,70	417,00
-2311,64	477,00
-2301,59	380,00
-2291,55	411,00
-2281,53	414,00
-2271,53	210,00
-2261,53	484,00
-2251,55	382,00
-2241,59	419,00
-2231,64	340,00
-2221,70	605,00
-2211,78	444,00
-2201,87	459,00
-2191,97	484,00
-2182,09	447,00
-2172,22	369,00
-2162,37	375,00
-2152,53	394,00
-2142,70	339,00
-2132,89	463,00
-2123,09	555,00
-2113,30	320,00
-2103,53	520,00
-2093,77	479,00
-2084,02	301,00
-2074,29	529,00
-2064,57	380,00
-2054,86	379,00
-2045,17	445,00
-2035,49	458,00
-2025,82	388,00
-2016,17	367,00
-2006,53	490,00
-1996,91	383,00
-1987,29	412,00
-1977,69	430,00
-1968,11	427,00
-1958,53	381,00
-1948,97	389,00
-1939,42	416,00
-1929,89	388,00
-1920,37	360,00
-1910,86	342,00
-1901,36	447,00
-1891,88	514,00
-1882,41	259,00
-1872,95	434,00
-1863,51	411,00
-1854,08	457,00
-1844,66	463,00
-1835,26	294,00
-1825,86	352,00
-1816,48	325,00
-1807,11	324,00
-1797,76	464,00
-1788,42	486,00
-1779,09	548,00
-1769,77	412,00
-1760,47	584,00
-1751,17	349,00
-1741,89	450,00
-1732,63	484,00
-1723,37	480,00
-1714,13	529,00
-1704,90	436,00
-1695,68	458,00
-1686,48	355,00
-1677,29	327,00
-1668,11	522,00
-1658,94	387,00
-1649,78	344,00
-1640,64	486,00
-1631,51	458,00
-1622,39	362,00
-1613,28	344,00
-1604,19	472,00
-1595,10	388,00
-1586,03	355,00
-1576,97	343,00
-1567,93	347,00
-1558,89	442,00
-1549,87	453,00
-1540,86	314,00
-1531,86	419,00
-1522,87	400,00
-1513,90	487,00
-1504,93	366,00
-1495,98	477,00
-1487,04	606,00
-1478,12	285,00
-1469,20	404,00
-1460,30	440,00
-1451,40	345,00
-1442,52	302,00
-1433,65	422,00
-1424,80	357,00
-1415,95	375,00
-1407,12	563,00
-1398,30	360,00
-1389,48	409,00
-1380,69	428,00
-1371,90	442,00
-1363,12	423,00
-1354,36	453,00
-1345,60	382,00
-1336,86	515,00
-1328,13	476,00
-1319,41	505,00
-1310,70	334,00
-1302,01	449,00
-1293,32	382,00
-1284,65	417,00
-1275,99	355,00
-1267,33	457,00
-1258,69	399,00
-1250,06	428,00
-1241,45	412,00
-1232,84	429,00
-1224,25	452,00
-1215,66	416,00
-1207,09	463,00
-1198,53	419,00
-1189,97	436,00
-1181,43	361,00
-1172,91	413,00
-1164,39	411,00
-1155,88	211,00
-1147,38	390,00
-1138,90	351,00
-1130,43	488,00
-1121,96	325,00
-1113,51	385,00
-1105,07	416,00
-1096,64	478,00
-1088,22	399,00
-1079,81	413,00
-1071,41	483,00
-1063,02	357,00
-1054,65	500,00
-1046,28	445,00
-1037,92	458,00
-1029,58	467,00
-1021,24	447,00
-1012,92	486,00
-1004,61	397,00
-996,30	452,00
-988,01	350,00
-979,73	430,00
-971,46	358,00
-963,20	370,00
-954,95	293,00
-946,71	405,00
-938,48	322,00
-930,26	474,00
-922,06	444,00
-913,86	506,00
-905,67	381,00
-897,49	424,00
-889,33	356,00
-881,17	420,00
-873,02	461,00
-864,89	352,00
-856,76	350,00
-848,65	545,00
-840,54	428,00
-832,45	344,00
-824,36	246,00
-816,29	523,00
-808,22	337,00
-800,17	385,00
-792,12	506,00
-784,09	487,00
-776,06	420,00
-768,05	312,00
-760,04	382,00
-752,05	272,00
-744,07	506,00
-736,09	482,00
-728,13	384,00
-720,17	336,00
-712,23	384,00
-704,29	336,00
-696,37	413,00
-688,45	433,00
-680,55	395,00
-672,65	525,00
-664,77	315,00
-656,89	431,00
-649,03	257,00
-641,17	440,00
-633,32	411,00
-625,49	305,00
-617,66	540,00
-609,84	392,00
-602,03	440,00
-594,23	377,00
-586,45	492,00
-578,67	496,00
-570,90	341,00
-563,14	462,00
-555,39	525,00
-547,65	391,00
-539,91	341,00
-532,19	366,00
-524,48	424,00
-516,78	357,00
-509,08	368,00
-501,40	374,00
-493,72	385,00
-486,06	349,00
-478,40	462,00
-470,76	363,00
-463,12	471,00
-455,49	450,00
-447,87	349,00
-440,26	349,00
-432,66	401,00
-425,07	492,00
-417,49	400,00
-409,92	427,00
-402,35	385,00
-394,80	266,00
-387,25	387,00
-379,72	469,00
-372,19	423,00
-364,67	446,00
-357,17	551,00
-349,67	412,00
-342,18	506,00
-334,69	447,00
-327,22	495,00
-319,76	370,00
-312,30	547,00
-304,86	345,00
-297,42	316,00
-290,00	505,00
-282,58	455,00
-275,17	510,00
-267,77	374,00
-260,37	494,00
-252,99	483,00
-245,62	426,00
-238,25	343,00
-230,90	437,00
-223,55	603,00
-216,21	533,00
-208,88	624,00
-201,56	537,00
-194,25	537,00
-186,94	494,00
-179,65	480,00
-172,36	407,00
-165,08	576,00
-157,81	670,00
-150,55	662,00
-143,30	632,00
-136,06	643,00
-128,82	665,00
-121,60	679,00
-114,38	794,00
-107,17	916,00
-99,97	1048,00
-92,78	1032,00
-85,60	1153,00
-78,42	1258,00
-71,25	1455,00
-64,10	1529,00
-56,95	1741,00
-49,81	2133,00
-42,67	2311,00
-35,55	2808,00
-28,43	3734,00
-21,33	5732,00
-14,23	17608,00
-7,14	55841,00
-0,05	55551,00
7,02	55287,00
14,09	55623,00
21,14	18749,00
28,19	7548,00
35,23	4730,00
42,27	3802,00
49,29	3203,00
56,31	2602,00
63,32	2286,00
70,32	1964,00
77,31	1716,00
84,29	1563,00
91,27	1421,00
98,23	1318,00
105,19	1355,00
112,14	1247,00
119,09	1508,00
126,02	2211,00
132,95	2412,00
139,87	2292,00
146,78	2498,00
153,68	2122,00
160,58	2117,00
167,46	2314,00
174,34	2177,00
181,21	2104,00
188,08	2151,00
194,93	2066,00
201,78	2012,00
208,62	2224,00
215,45	2006,00
222,27	2059,00
229,09	2072,00
235,90	2015,00
242,70	1957,00
249,49	1941,00
256,27	1902,00
263,05	1902,00
269,82	1922,00
276,58	1918,00
283,33	1787,00
290,08	1869,00
296,82	1766,00
303,55	1739,00
310,27	1698,00
316,98	1677,00
323,69	1840,00
330,39	1827,00
337,08	1779,00
343,76	1653,00
350,44	1608,00
357,11	1557,00
363,77	1632,00
370,42	1669,00
377,07	1583,00
383,71	1569,00
390,34	1614,00
396,96	1595,00
403,58	1556,00
410,19	1644,00
416,79	1767,00
423,38	1594,00
429,97	1602,00
436,55	1443,00
443,12	1558,00
449,68	1482,00
456,24	1482,00
462,79	1531,00
469,33	1501,00
475,86	1440,00
482,39	1486,00
488,91	1536,00
495,42	1279,00
501,93	1414,00
508,42	1384,00
514,91	1376,00
521,40	1336,00
527,87	1292,00
534,34	1484,00
540,80	1393,00
547,25	1417,00
553,70	1301,00
560,14	1249,00
566,57	1448,00
573,00	1233,00
579,41	1319,00
585,83	1243,00
592,23	1359,00
598,62	1418,00
605,01	1286,00
611,40	1292,00
617,77	1259,00
624,14	1309,00
630,50	1232,00
636,85	1327,00
643,20	1435,00
649,54	1198,00
655,87	1229,00
662,20	1259,00
668,52	1374,00
674,83	1375,00
681,13	1280,00
687,43	1350,00
693,72	1238,00
700,00	1286,00
706,28	1169,00
712,55	1235,00
718,81	1213,00
725,07	1251,00
731,32	1119,00
737,56	1294,00
743,79	1208,00
750,02	1209,00
756,24	1164,00
762,46	1255,00
768,67	1286,00
774,87	1250,00
781,06	1187,00
787,25	1431,00
793,43	1173,00
799,60	1160,00
805,77	1418,00
811,93	1208,00
818,08	1144,00
824,23	1203,00
830,37	1219,00
836,50	1090,00
842,63	1369,00
848,75	1354,00
854,87	1274,00
860,97	1264,00
867,07	1307,00
873,17	1385,00
879,25	1312,00
885,33	1319,00
891,41	1382,00
897,47	1259,00
903,53	1224,00
909,59	1221,00
915,63	1127,00
921,67	1265,00
927,71	1290,00
933,74	1328,00
939,76	1252,00
945,77	1205,00
951,78	1254,00
957,78	1147,00
963,78	1106,00
969,77	1142,00
975,75	1182,00
981,72	1205,00
987,69	1633,00
993,66	1176,00
999,61	1185,00
1005,56	1215,00
1011,51	1308,00
1017,44	1242,00
1023,37	1325,00
1029,30	1239,00
1035,22	1200,00
1041,13	1303,00
1047,03	1397,00
1052,93	1464,00
1058,83	2228,00
1064,71	2487,00
1070,59	2116,00
1076,47	1685,00
1082,33	1540,00
1088,20	1305,00
1094,05	1406,00
1099,90	1382,00
1105,74	1353,00
1111,58	1302,00
1117,41	1406,00
1123,23	2010,00
1129,05	2556,00
1134,86	2419,00
1140,67	1737,00
1146,47	1317,00
1152,26	1145,00
1158,05	1101,00
1163,83	1293,00
1169,60	1318,00
1175,37	1228,00
1181,13	1197,00
1186,89	1116,00
1192,64	1069,00
1198,38	1268,00
1204,12	1206,00
1209,85	1191,00
1215,58	1105,00
1221,30	1042,00
1227,02	1036,00
1232,72	1087,00
1238,43	1003,00
1244,12	1192,00
1249,81	1184,00
1255,50	1302,00
1261,17	1125,00
1266,85	1289,00
1272,51	1136,00
1278,17	1462,00
1283,83	1564,00
1289,47	2161,00
1295,12	2973,00
1300,75	2653,00
1306,38	2057,00
1312,01	1629,00
1317,63	1528,00
1323,24	1359,00
1328,85	1300,00
1334,45	1333,00
1340,04	1175,00
1345,63	1241,00
1351,22	1427,00
1356,80	1349,00
1362,37	1353,00
1367,93	1314,00
1373,49	1516,00
1379,05	1491,00
1384,60	1429,00
1390,14	1158,00
1395,68	1234,00
1401,21	1445,00
1406,74	1399,00
1412,26	1748,00
1417,77	2014,00
1423,28	2003,00
1428,78	2240,00
1434,28	2658,00
1439,77	3111,00
1445,26	3018,00
1450,74	2701,00
1456,22	2522,00
1461,68	2308,00
1467,15	2405,00
1472,61	1958,00
1478,06	1761,00
1483,51	1536,00
1488,95	1463,00
1494,38	1337,00
1499,81	1219,00
1505,24	1215,00
1510,65	1241,00
1516,07	1181,00
1521,48	1194,00
1526,88	1080,00
1532,27	1156,00
1537,67	1024,00
1543,05	1163,00
1548,43	1078,00
1553,81	1160,00
1559,18	982,00
1564,54	1074,00
1569,90	1150,00
1575,25	1049,00
1580,60	1013,00
1585,94	981,00
1591,28	982,00
1596,61	1005,00
1601,93	952,00
1607,25	976,00
1612,57	949,00
1617,88	1011,00
1623,18	1073,00
1628,48	1032,00
1633,77	1068,00
1639,06	1024,00
1644,34	955,00
1649,62	893,00
1654,89	996,00
1660,16	975,00
1665,42	930,00
1670,67	1031,00
1675,92	1051,00
1681,17	973,00
1686,41	942,00
1691,64	967,00
1696,87	1087,00
1702,10	979,00
1707,32	818,00
1712,53	913,00
1717,74	896,00
1722,94	996,00
1728,14	918,00
1733,33	741,00
1738,52	856,00
1743,70	798,00
1748,88	870,00
1754,05	881,00
1759,22	842,00
1764,38	832,00
1769,53	881,00
1774,69	1012,00
1779,83	814,00
1784,97	804,00
1790,11	757,00
1795,24	840,00
1800,36	698,00
1805,48	885,00
1810,60	894,00
1815,71	851,00
1820,82	847,00
1825,92	732,00
1831,01	932,00
1836,10	747,00
1841,19	783,00
1846,26	773,00
1851,34	835,00
1856,41	777,00
1861,47	799,00
1866,53	744,00
1871,59	768,00
1876,64	893,00
1881,68	782,00
1886,72	783,00
1891,76	771,00
1896,79	848,00
1901,81	668,00
1906,83	788,00
1911,85	889,00
1916,86	905,00
1921,86	671,00
1926,86	696,00
1931,86	690,00
1936,85	706,00
1941,83	645,00
1946,81	770,00
1951,79	604,00
1956,76	724,00
1961,72	649,00
1966,68	611,00
1971,64	600,00
1976,59	717,00
1981,54	614,00
1986,48	709,00
1991,42	553,00
1996,35	779,00
2001,27	663,00
2006,20	662,00
2011,11	763,00
2016,03	615,00
2020,93	614,00
2025,84	659,00
2030,73	653,00
2035,63	560,00
2040,52	747,00
2045,40	655,00
2050,28	697,00
2055,15	614,00
2060,02	612,00
2064,89	707,00
2069,75	686,00
2074,60	651,00
2079,46	601,00
2084,30	661,00
2089,14	670,00
2093,98	633,00
2098,81	544,00
2103,64	703,00
2108,46	740,00
2113,28	622,00
2118,09	625,00
2122,90	541,00
2127,70	516,00
2132,50	641,00
2137,30	717,00
2142,09	605,00
2146,87	658,00
2151,66	679,00
2156,43	784,00
2161,20	609,00
2165,97	724,00
2170,73	650,00
2175,49	666,00
2180,24	524,00
2184,99	703,00
2189,74	656,00
2194,48	728,00
2199,21	796,00
2203,94	649,00
2208,67	589,00
2213,39	590,00
2218,11	602,00
2222,82	672,00
2227,53	680,00
2232,23	607,00
2236,93	707,00
2241,63	664,00
2246,32	626,00
2251,00	579,00
2255,68	638,00
2260,36	578,00
2265,03	660,00
2269,70	533,00
2274,36	670,00
2279,02	639,00
2283,68	523,00
2288,33	442,00
2292,97	606,00
2297,61	612,00
2302,25	644,00
2306,88	608,00
2311,51	570,00
2316,14	570,00
2320,75	696,00
2325,37	621,00
2329,98	568,00
2334,59	648,00
2339,19	597,00
2343,79	510,00
2348,38	545,00
2352,97	583,00
2357,55	701,00
2362,13	605,00
2366,71	596,00
2371,28	615,00
2375,85	646,00
2380,41	630,00
2384,97	547,00
2389,52	657,00
2394,07	579,00
2398,62	558,00
2403,16	550,00
2407,70	564,00
2412,23	594,00
2416,76	471,00
2421,29	512,00
2425,81	619,00
2430,32	680,00
2434,84	471,00
2439,34	649,00
2443,85	643,00
2448,35	588,00
2452,84	716,00
2457,33	486,00
2461,82	528,00
2466,30	518,00
2470,78	527,00
2475,25	456,00
2479,72	478,00
2484,19	491,00
2488,65	601,00
2493,11	559,00
2497,56	559,00
2502,01	545,00
2506,46	608,00
2510,90	500,00
2515,34	564,00
2519,77	629,00
2524,20	528,00
2528,62	547,00
2533,04	557,00
2537,46	556,00
2541,87	535,00
2546,28	523,00
2550,68	629,00
2555,08	598,00
2559,48	506,00
2563,87	533,00
2568,26	622,00
2572,64	633,00
2577,02	695,00
2581,40	589,00
2585,77	596,00
2590,14	619,00
2594,50	476,00
2598,86	658,00
2603,22	572,00
2607,57	562,00
2611,92	635,00
2616,26	715,00
2620,60	621,00
2624,94	513,00
2629,27	630,00
2633,60	564,00
2637,92	586,00
2642,24	694,00
2646,56	595,00
2650,87	659,00
2655,18	645,00
2659,48	584,00
2663,78	610,00
2668,08	661,00
2672,37	543,00
2676,66	671,00
2680,95	653,00
2685,23	639,00
2689,50	642,00
2693,78	721,00
2698,05	627,00
2702,31	763,00
2706,57	767,00
2710,83	775,00
2715,08	757,00
2719,33	919,00
2723,58	709,00
2727,82	822,00
2732,06	717,00
2736,29	882,00
2740,53	735,00
2744,75	802,00
2748,97	805,00
2753,19	771,00
2757,41	763,00
2761,62	860,00
2765,83	732,00
2770,03	645,00
2774,23	746,00
2778,43	770,00
2782,62	678,00
2786,81	844,00
2791,00	762,00
2795,18	915,00
2799,35	903,00
2803,53	937,00
2807,70	940,00
2811,86	945,00
2816,03	968,00
2820,19	1027,00
2824,34	1008,00
2828,49	1113,00
2832,64	1312,00
2836,78	1542,00
2840,92	1914,00
2845,06	2311,00
2849,19	2556,00
2853,32	2780,00
2857,45	2847,00
2861,57	2600,00
2865,69	2501,00
2869,80	2545,00
2873,91	2672,00
2878,02	2778,00
2882,12	3139,00
2886,22	3114,00
2890,32	3033,00
2894,41	2685,00
2898,50	2436,00
2902,58	2429,00
2906,67	2107,00
2910,74	2078,00
2914,82	1892,00
2918,89	1882,00
2922,96	1505,00
2927,02	1588,00
2931,08	1554,00
2935,13	1374,00
2939,19	1276,00
2943,24	1239,00
2947,28	1106,00
2951,32	957,00
2955,36	885,00
2959,40	893,00
2963,43	770,00
2967,46	893,00
2971,48	892,00
2975,50	743,00
2979,52	718,00
2983,53	727,00
2987,54	636,00
2991,55	717,00
2995,55	718,00
2999,55	524,00
3003,54	570,00
3007,54	596,00
3011,53	615,00
3015,51	486,00
3019,49	683,00
3023,47	652,00
3027,45	504,00
3031,42	522,00
3035,39	400,00
3039,35	537,00
3043,31	596,00
3047,27	501,00
3051,22	532,00
3055,17	419,00
3059,12	366,00
3063,06	587,00
3067,00	463,00
3070,94	479,00
3074,87	495,00
3078,80	508,00
3082,73	418,00
3086,65	483,00
3090,57	533,00
3094,49	433,00
3098,40	493,00
3102,31	396,00
3106,22	570,00
3110,12	379,00
3114,02	424,00
3117,92	466,00
3121,81	359,00
3125,70	470,00
3129,58	548,00
3133,47	372,00
3137,34	519,00
3141,22	441,00
3145,09	495,00
3148,96	378,00
3152,83	415,00
3156,69	385,00
3160,55	349,00
3164,40	498,00
3168,26	436,00
3172,10	518,00
3175,95	501,00
3179,79	505,00
3183,63	388,00
3187,47	514,00
3191,30	423,00
3195,13	513,00
3198,95	491,00
3202,78	510,00
3206,60	441,00
3210,41	334,00
3214,23	473,00
3218,03	416,00
3221,84	426,00
3225,64	538,00
3229,44	448,00
3233,24	512,00
3237,03	442,00
3240,82	407,00
3244,61	560,00
3248,39	395,00
3252,17	409,00
3255,95	472,00
3259,72	409,00
3263,49	552,00
3267,26	449,00
3271,03	418,00
3274,79	431,00
3278,54	400,00
3282,30	474,00
3286,05	537,00
3289,80	424,00
3293,54	473,00
3297,29	499,00
3301,02	484,00
3304,76	566,00
3308,49	460,00
3312,22	496,00
3315,95	427,00
3319,67	447,00
3323,39	510,00
3327,10	414,00
3330,82	461,00
3334,53	429,00
3338,24	407,00
3341,94	444,00
3345,64	588,00
3349,34	504,00
3353,03	511,00
3356,72	517,00
3360,41	393,00
3364,10	406,00
3367,78	339,00
3371,46	511,00
3375,13	442,00
3378,81	435,00
3382,48	478,00
3386,14	417,00
3389,81	441,00
3393,47	400,00
3397,12	375,00
3400,78	465,00
3404,43	416,00
3408,08	477,00
3411,72	601,00
3415,36	401,00
3419,00	413,00
3422,64	428,00
3426,27	374,00
3429,90	470,00
3433,53	391,00
3437,15	503,00
3440,77	416,00
3444,39	317,00
3448,00	520,00
3451,62	400,00
3455,22	451,00
3458,83	337,00
3462,43	314,00
3466,03	419,00
3469,63	485,00
3473,22	357,00
3476,81	493,00
3480,40	490,00
3483,99	349,00
3487,57	479,00
3491,15	344,00
3494,72	536,00
3498,29	388,00
3501,86	349,00
3505,43	452,00
3508,99	355,00
3512,56	501,00
3516,11	400,00
3519,67	326,00
3523,22	461,00
3526,77	388,00
3530,32	354,00
3533,86	327,00
3537,40	446,00
3540,94	475,00
3544,47	347,00
3548,00	411,00
3551,53	463,00
3555,06	289,00
3558,58	452,00
3562,10	421,00
3565,62	485,00
3569,13	251,00
3572,64	409,00
3576,15	380,00
3579,66	402,00
3583,16	413,00
3586,66	507,00
3590,16	468,00
3593,65	318,00
3597,14	293,00
3600,63	392,00
3604,11	486,00
3607,60	373,00
3611,08	416,00
3614,55	326,00
3618,03	298,00
3621,50	399,00
3624,97	451,00
3628,43	325,00
3631,90	330,00
3635,36	453,00
3638,81	388,00
3642,27	407,00
3645,72	425,00
3649,17	353,00
3652,61	363,00
3656,06	396,00
3659,50	322,00
3662,93	370,00
3666,37	377,00
3669,80	442,00
3673,23	355,00
3676,65	510,00
3680,08	309,00
3683,50	322,00
3686,92	282,00
3690,33	373,00
3693,74	305,00
3697,15	379,00
3700,56	338,00
3703,96	475,00
3707,36	310,00
3710,76	333,00
3714,16	363,00
3717,55	331,00
3720,94	374,00
3724,33	410,00
3727,71	363,00
3731,10	416,00
3734,48	358,00
3737,85	357,00
3741,23	334,00
3744,60	315,00
3747,97	230,00
3751,33	271,00
3754,69	376,00
3758,05	373,00
3761,41	384,00
3764,77	369,00
3768,12	274,00
3771,47	219,00
3774,82	295,00
3778,16	-10,00
3781,50	5,00
3784,84	8,00
3788,18	4,00
>>>>>End Processed Spectral Data<<<<<
