SpectraSuite Data File
++++++++++++++++++++++++++++++++++++
Date: Wed Feb 04 16:07:09 ICT 2026
User: Administrator
Dark Spectrum Present: Yes
Reference Spectrum Present: No
Number of Sampled Component Spectra: 1
Spectrometers: MAYP113682
Integration Time (usec): 3000000 (MAYP113682)
Spectra Averaged: 1 (MAYP113682)
Boxcar Smoothing: 0 (MAYP113682)
Correct for Electrical Dark: No (MAYP113682)
Strobe/Lamp Enabled: No (MAYP113682)
Correct for Detector Non-linearity: No (MAYP113682)
Correct for Stray Light: No (MAYP113682)
Number of Pixels in Processed Spectrum: 2068
>>>>>Begin Processed Spectral Data<<<<<
-37534,58	10,00
-37414,56	-4,00
-37295,11	2,00
-37176,24	3,00
-37057,95	244,00
-36940,22	322,00
-36823,05	365,00
-36706,45	366,00
-36590,40	341,00
-36474,90	323,00
-36359,95	504,00
-36245,55	444,00
-36131,68	409,00
-36018,35	443,00
-35905,55	501,00
-35793,29	351,00
-35681,54	490,00
-35570,32	336,00
-35459,62	314,00
-35349,43	484,00
-35239,75	465,00
-35130,58	453,00
-35021,91	380,00
-34913,74	403,00
-34806,07	430,00
-34698,89	415,00
-34592,20	338,00
-34486,00	412,00
-34380,28	404,00
-34275,04	300,00
-34170,27	454,00
-34065,98	324,00
-33962,16	426,00
-33858,81	419,00
-33755,92	433,00
-33653,49	454,00
-33551,52	347,00
-33450,01	491,00
-33348,94	453,00
-33248,33	423,00
-33148,16	360,00
-33048,43	570,00
-32949,14	571,00
-32850,29	500,00
-32751,87	366,00
-32653,89	443,00
-32556,33	518,00
-32459,20	404,00
-32362,49	408,00
-32266,19	447,00
-32170,32	423,00
-32074,86	436,00
-31979,82	437,00
-31885,18	436,00
-31790,95	387,00
-31697,12	468,00
-31603,69	417,00
-31510,67	447,00
-31418,04	337,00
-31325,80	449,00
-31233,95	468,00
-31142,49	399,00
-31051,42	384,00
-30960,73	486,00
-30870,43	638,00
-30780,50	425,00
-30690,95	492,00
-30601,77	494,00
-30512,97	519,00
-30424,53	502,00
-30336,46	500,00
-30248,76	438,00
-30161,42	462,00
-30074,44	502,00
-29987,81	532,00
-29901,55	421,00
-29815,63	452,00
-29730,07	509,00
-29644,86	452,00
-29560,00	406,00
-29475,48	391,00
-29391,30	471,00
-29307,47	500,00
-29223,97	417,00
-29140,81	392,00
-29057,99	491,00
-28975,50	423,00
-28893,34	415,00
-28811,51	408,00
-28730,00	433,00
-28648,82	462,00
-28567,97	399,00
-28487,43	474,00
-28407,21	362,00
-28327,32	466,00
-28247,73	455,00
-28168,46	371,00
-28089,50	477,00
-28010,85	337,00
-27932,51	338,00
-27854,48	599,00
-27776,75	374,00
-27699,32	422,00
-27622,19	450,00
-27545,37	477,00
-27468,84	347,00
-27392,60	488,00
-27316,66	355,00
-27241,01	553,00
-27165,66	550,00
-27090,59	453,00
-27015,81	523,00
-26941,31	494,00
-26867,10	459,00
-26793,17	547,00
-26719,52	470,00
-26646,15	298,00
-26573,06	300,00
-26500,24	472,00
-26427,70	404,00
-26355,43	457,00
-26283,43	452,00
-26211,71	523,00
-26140,25	447,00
-26069,06	542,00
-25998,13	352,00
-25927,46	485,00
-25857,06	453,00
-25786,92	381,00
-25717,04	379,00
-25647,42	479,00
-25578,05	422,00
-25508,94	488,00
-25440,09	405,00
-25371,48	398,00
-25303,13	503,00
-25235,02	470,00
-25167,17	452,00
-25099,56	497,00
-25032,19	387,00
-24965,07	419,00
-24898,20	495,00
-24831,56	448,00
-24765,17	479,00
-24699,01	443,00
-24633,10	451,00
-24567,41	530,00
-24501,97	495,00
-24436,75	530,00
-24371,77	354,00
-24307,03	559,00
-24242,51	350,00
-24178,22	510,00
-24114,16	438,00
-24050,32	477,00
-23986,71	395,00
-23923,32	362,00
-23860,16	371,00
-23797,22	497,00
-23734,50	370,00
-23672,00	352,00
-23609,71	468,00
-23547,65	385,00
-23485,80	424,00
-23424,16	276,00
-23362,74	536,00
-23301,53	384,00
-23240,54	282,00
-23179,75	402,00
-23119,17	422,00
-23058,80	553,00
-22998,64	394,00
-22938,68	406,00
-22878,93	399,00
-22819,39	446,00
-22760,04	308,00
-22700,90	367,00
-22641,96	486,00
-22583,22	452,00
-22524,68	392,00
-22466,33	454,00
-22408,19	395,00
-22350,23	474,00
-22292,48	436,00
-22234,92	387,00
-22177,55	517,00
-22120,37	463,00
-22063,38	423,00
-22006,58	399,00
-21949,98	298,00
-21893,56	217,00
-21837,33	385,00
-21781,28	393,00
-21725,42	427,00
-21669,74	461,00
-21614,25	383,00
-21558,94	369,00
-21503,81	541,00
-21448,86	434,00
-21394,10	413,00
-21339,51	369,00
-21285,10	317,00
-21230,86	393,00
-21176,81	300,00
-21122,93	325,00
-21069,22	374,00
-21015,69	284,00
-20962,33	452,00
-20909,14	391,00
-20856,13	502,00
-20803,28	380,00
-20750,61	409,00
-20698,10	416,00
-20645,76	437,00
-20593,59	404,00
-20541,59	443,00
-20489,75	478,00
-20438,07	393,00
-20386,56	524,00
-20335,22	358,00
-20284,03	396,00
-20233,01	449,00
-20182,15	439,00
-20131,45	486,00
-20080,91	440,00
-20030,52	361,00
-19980,30	463,00
-19930,23	297,00
-19880,32	452,00
-19830,56	406,00
-19780,96	363,00
-19731,52	501,00
-19682,23	480,00
-19633,09	442,00
-19584,10	408,00
-19535,26	303,00
-19486,58	433,00
-19438,04	391,00
-19389,66	387,00
-19341,42	306,00
-19293,33	378,00
-19245,39	403,00
-19197,60	422,00
-19149,95	433,00
-19102,45	445,00
-19055,09	401,00
-19007,87	534,00
-18960,80	383,00
-18913,87	399,00
-18867,09	378,00
-18820,44	372,00
-18773,94	445,00
-18727,57	453,00
-18681,35	410,00
-18635,26	370,00
-18589,31	340,00
-18543,50	426,00
-18497,83	541,00
-18452,29	398,00
-18406,89	487,00
-18361,63	392,00
-18316,50	415,00
-18271,50	276,00
-18226,63	487,00
-18181,90	457,00
-18137,30	426,00
-18092,84	289,00
-18048,50	504,00
-18004,29	419,00
-17960,22	425,00
-17916,27	413,00
-17872,45	357,00
-17828,76	516,00
-17785,20	309,00
-17741,77	449,00
-17698,46	541,00
-17655,28	396,00
-17612,22	372,00
-17569,29	458,00
-17526,48	477,00
-17483,79	441,00
-17441,23	470,00
-17398,79	341,00
-17356,48	444,00
-17314,28	447,00
-17272,21	390,00
-17230,26	401,00
-17188,42	483,00
-17146,71	453,00
-17105,12	504,00
-17063,64	482,00
-17022,28	333,00
-16981,04	433,00
-16939,92	473,00
-16898,91	449,00
-16858,02	490,00
-16817,25	409,00
-16776,59	408,00
-16736,04	446,00
-16695,61	331,00
-16655,29	474,00
-16615,09	353,00
-16574,99	403,00
-16535,01	355,00
-16495,15	447,00
-16455,39	377,00
-16415,74	381,00
-16376,21	363,00
-16336,78	355,00
-16297,46	335,00
-16258,26	297,00
-16219,16	504,00
-16180,17	401,00
-16141,28	296,00
-16102,51	362,00
-16063,84	442,00
-16025,27	366,00
-15986,82	461,00
-15948,46	413,00
-15910,22	467,00
-15872,07	447,00
-15834,04	400,00
-15796,10	354,00
-15758,27	425,00
-15720,54	408,00
-15682,91	398,00
-15645,39	529,00
-15607,97	465,00
-15570,64	439,00
-15533,42	474,00
-15496,30	483,00
-15459,28	451,00
-15422,36	412,00
-15385,54	326,00
-15348,82	412,00
-15312,19	488,00
-15275,66	342,00
-15239,23	358,00
-15202,90	412,00
-15166,67	439,00
-15130,53	517,00
-15094,48	387,00
-15058,54	459,00
-15022,68	436,00
-14986,93	365,00
-14951,26	373,00
-14915,69	525,00
-14880,22	476,00
-14844,84	574,00
-14809,55	567,00
-14774,35	454,00
-14739,25	447,00
-14704,24	440,00
-14669,32	354,00
-14634,49	346,00
-14599,75	474,00
-14565,10	332,00
-14530,55	458,00
-14496,08	315,00
-14461,70	508,00
-14427,41	375,00
-14393,21	472,00
-14359,10	245,00
-14325,07	437,00
-14291,14	462,00
-14257,29	509,00
-14223,52	456,00
-14189,85	428,00
-14156,26	540,00
-14122,76	435,00
-14089,34	423,00
-14056,01	465,00
-14022,76	390,00
-13989,60	403,00
-13956,52	422,00
-13923,53	443,00
-13890,62	410,00
-13857,79	412,00
-13825,05	366,00
-13792,39	340,00
-13759,81	383,00
-13727,31	370,00
-13694,90	510,00
-13662,57	423,00
-13630,31	443,00
-13598,14	412,00
-13566,05	458,00
-13534,05	431,00
-13502,12	450,00
-13470,27	527,00
-13438,50	448,00
-13406,80	368,00
-13375,19	384,00
-13343,66	361,00
-13312,20	439,00
-13280,83	342,00
-13249,53	422,00
-13218,30	294,00
-13187,16	418,00
-13156,09	456,00
-13125,10	420,00
-13094,18	473,00
-13063,34	454,00
-13032,58	364,00
-13001,89	374,00
-12971,28	355,00
-12940,74	307,00
-12910,27	398,00
-12879,88	362,00
-12849,57	460,00
-12819,33	526,00
-12789,16	347,00
-12759,06	436,00
-12729,04	518,00
-12699,09	861,00
-12669,21	479,00
-12639,41	385,00
-12609,68	346,00
-12580,02	412,00
-12550,43	414,00
-12520,91	389,00
-12491,46	343,00
-12462,08	329,00
-12432,77	483,00
-12403,54	496,00
-12374,37	405,00
-12345,27	448,00
-12316,24	436,00
-12287,29	399,00
-12258,40	447,00
-12229,57	594,00
-12200,82	350,00
-12172,14	390,00
-12143,52	306,00
-12114,97	311,00
-12086,49	455,00
-12058,07	466,00
-12029,73	457,00
-12001,44	538,00
-11973,23	464,00
-11945,08	495,00
-11917,00	406,00
-11888,98	460,00
-11861,03	425,00
-11833,15	435,00
-11805,32	516,00
-11777,57	480,00
-11749,88	450,00
-11722,25	400,00
-11694,69	336,00
-11667,19	412,00
-11639,75	437,00
-11612,38	445,00
-11585,07	402,00
-11557,83	396,00
-11530,65	376,00
-11503,53	495,00
-11476,47	456,00
-11449,48	440,00
-11422,54	531,00
-11395,67	467,00
-11368,86	400,00
-11342,11	359,00
-11315,43	453,00
-11288,80	320,00
-11262,23	304,00
-11235,73	437,00
-11209,28	393,00
-11182,90	475,00
-11156,57	370,00
-11130,31	518,00
-11104,10	348,00
-11077,96	410,00
-11051,87	467,00
-11025,84	517,00
-10999,87	385,00
-10973,96	442,00
-10948,11	394,00
-10922,31	378,00
-10896,58	551,00
-10870,90	326,00
-10845,28	467,00
-10819,71	392,00
-10794,20	471,00
-10768,75	446,00
-10743,36	412,00
-10718,02	532,00
-10692,74	457,00
-10667,52	409,00
-10642,35	564,00
-10617,24	466,00
-10592,18	323,00
-10567,18	351,00
-10542,23	395,00
-10517,34	416,00
-10492,51	398,00
-10467,72	473,00
-10443,00	546,00
-10418,32	609,00
-10393,70	460,00
-10369,14	402,00
-10344,63	486,00
-10320,17	419,00
-10295,77	415,00
-10271,42	417,00
-10247,12	508,00
-10222,88	398,00
-10198,68	340,00
-10174,54	461,00
-10150,46	433,00
-10126,42	554,00
-10102,44	504,00
-10078,51	489,00
-10054,63	546,00
-10030,80	440,00
-10007,03	561,00
-9983,30	482,00
-9959,63	513,00
-9936,01	695,00
-9912,44	576,00
-9888,92	529,00
-9865,44	513,00
-9842,02	573,00
-9818,65	607,00
-9795,33	425,00
-9772,06	482,00
-9748,84	663,00
-9725,67	488,00
-9702,55	651,00
-9679,47	727,00
-9656,45	769,00
-9633,47	585,00
-9610,55	793,00
-9587,67	747,00
-9564,84	923,00
-9542,06	793,00
-9519,32	905,00
-9496,64	963,00
-9474,00	1047,00
-9451,41	1074,00
-9428,87	1030,00
-9406,37	943,00
-9383,92	889,00
-9361,52	878,00
-9339,17	956,00
-9316,86	1160,00
-9294,60	1172,00
-9272,38	1352,00
-9250,21	1302,00
-9228,09	1540,00
-9206,01	1403,00
-9183,98	1367,00
-9162,00	1106,00
-9140,06	1084,00
-9118,16	1114,00
-9096,31	1237,00
-9074,51	1222,00
-9052,75	1336,00
-9031,04	1281,00
-9009,37	1185,00
-8987,74	1101,00
-8966,16	931,00
-8944,63	827,00
-8923,14	979,00
-8901,69	920,00
-8880,29	894,00
-8858,93	1003,00
-8837,61	1129,00
-8816,34	1154,00
-8795,11	1049,00
-8773,92	1207,00
-8752,78	995,00
-8731,68	932,00
-8710,62	966,00
-8689,61	1124,00
-8668,63	1120,00
-8647,70	1112,00
-8626,82	1233,00
-8605,97	1055,00
-8585,17	1032,00
-8564,41	935,00
-8543,69	917,00
-8523,01	926,00
-8502,37	865,00
-8481,78	973,00
-8461,23	943,00
-8440,71	934,00
-8420,24	1035,00
-8399,81	1145,00
-8379,42	1072,00
-8359,08	1162,00
-8338,77	1065,00
-8318,50	916,00
-8298,27	884,00
-8278,09	1028,00
-8257,94	1016,00
-8237,83	1006,00
-8217,76	1106,00
-8197,74	1018,00
-8177,75	1014,00
-8157,80	895,00
-8137,89	809,00
-8118,02	916,00
-8098,19	908,00
-8078,40	859,00
-8058,65	832,00
-8038,93	929,00
-8019,26	880,00
-7999,62	923,00
-7980,02	1032,00
-7960,46	785,00
-7940,94	704,00
-7921,46	787,00
-7902,01	869,00
-7882,60	956,00
-7863,23	890,00
-7843,90	788,00
-7824,61	761,00
-7805,35	908,00
-7786,13	849,00
-7766,95	985,00
-7747,80	775,00
-7728,69	905,00
-7709,62	894,00
-7690,59	774,00
-7671,59	846,00
-7652,63	818,00
-7633,70	912,00
-7614,81	917,00
-7595,96	759,00
-7577,15	703,00
-7558,37	798,00
-7539,62	905,00
-7520,91	846,00
-7502,24	836,00
-7483,60	841,00
-7465,00	738,00
-7446,44	750,00
-7427,91	669,00
-7409,41	761,00
-7390,95	701,00
-7372,53	751,00
-7354,14	608,00
-7335,78	490,00
-7317,46	764,00
-7299,18	602,00
-7280,92	671,00
-7262,71	781,00
-7244,52	845,00
-7226,38	785,00
-7208,26	661,00
-7190,18	802,00
-7172,14	656,00
-7154,12	695,00
-7136,15	725,00
-7118,20	771,00
-7100,29	739,00
-7082,41	751,00
-7064,57	665,00
-7046,76	660,00
-7028,98	634,00
-7011,24	780,00
-6993,53	597,00
-6975,85	464,00
-6958,20	609,00
-6940,59	403,00
-6923,01	505,00
-6905,46	685,00
-6887,94	587,00
-6870,46	682,00
-6853,01	719,00
-6835,59	646,00
-6818,21	582,00
-6800,85	616,00
-6783,53	575,00
-6766,24	556,00
-6748,98	465,00
-6731,76	551,00
-6714,56	508,00
-6697,40	462,00
-6680,26	320,00
-6663,16	532,00
-6646,09	520,00
-6629,05	609,00
-6612,05	569,00
-6595,07	645,00
-6578,13	614,00
-6561,21	616,00
-6544,33	554,00
-6527,47	499,00
-6510,65	500,00
-6493,86	338,00
-6477,10	501,00
-6460,36	342,00
-6443,66	579,00
-6426,99	358,00
-6410,35	518,00
-6393,74	519,00
-6377,16	584,00
-6360,61	323,00
-6344,09	574,00
-6327,59	464,00
-6311,13	477,00
-6294,70	585,00
-6278,29	633,00
-6261,92	457,00
-6245,58	469,00
-6229,26	566,00
-6212,97	488,00
-6196,72	502,00
-6180,49	429,00
-6164,29	372,00
-6148,12	560,00
-6131,98	352,00
-6115,86	426,00
-6099,78	343,00
-6083,72	359,00
-6067,69	444,00
-6051,69	457,00
-6035,72	398,00
-6019,78	499,00
-6003,87	458,00
-5987,98	544,00
-5972,12	587,00
-5956,29	436,00
-5940,49	403,00
-5924,71	499,00
-5908,96	484,00
-5893,24	372,00
-5877,55	566,00
-5861,89	463,00
-5846,25	534,00
-5830,64	450,00
-5815,05	440,00
-5799,50	424,00
-5783,97	429,00
-5768,47	504,00
-5752,99	636,00
-5737,55	572,00
-5722,12	329,00
-5706,73	520,00
-5691,36	531,00
-5676,02	400,00
-5660,71	564,00
-5645,42	420,00
-5630,16	502,00
-5614,92	455,00
-5599,71	491,00
-5584,53	543,00
-5569,37	396,00
-5554,24	583,00
-5539,14	312,00
-5524,06	541,00
-5509,01	387,00
-5493,98	488,00
-5478,98	520,00
-5464,00	493,00
-5449,05	458,00
-5434,13	271,00
-5419,23	548,00
-5404,36	355,00
-5389,51	354,00
-5374,69	467,00
-5359,89	496,00
-5345,12	476,00
-5330,37	702,00
-5315,65	405,00
-5300,95	558,00
-5286,28	395,00
-5271,63	329,00
-5257,01	391,00
-5242,41	519,00
-5227,84	450,00
-5213,29	593,00
-5198,76	456,00
-5184,26	381,00
-5169,79	491,00
-5155,33	380,00
-5140,91	521,00
-5126,51	417,00
-5112,13	300,00
-5097,77	492,00
-5083,44	513,00
-5069,13	414,00
-5054,85	360,00
-5040,59	282,00
-5026,36	457,00
-5012,15	464,00
-4997,96	625,00
-4983,80	374,00
-4969,66	409,00
-4955,54	483,00
-4941,44	380,00
-4927,37	423,00
-4913,33	568,00
-4899,30	525,00
-4885,30	377,00
-4871,33	461,00
-4857,37	412,00
-4843,44	515,00
-4829,53	434,00
-4815,65	521,00
-4801,79	488,00
-4787,95	315,00
-4774,13	405,00
-4760,34	302,00
-4746,56	427,00
-4732,82	384,00
-4719,09	422,00
-4705,38	587,00
-4691,70	548,00
-4678,04	589,00
-4664,41	555,00
-4650,79	540,00
-4637,20	500,00
-4623,63	425,00
-4610,08	407,00
-4596,56	442,00
-4583,05	376,00
-4569,57	376,00
-4556,11	500,00
-4542,67	443,00
-4529,25	445,00
-4515,86	369,00
-4502,49	489,00
-4489,13	532,00
-4475,80	614,00
-4462,49	452,00
-4449,21	462,00
-4435,94	431,00
-4422,70	326,00
-4409,47	407,00
-4396,27	501,00
-4383,09	437,00
-4369,93	461,00
-4356,79	457,00
-4343,67	422,00
-4330,58	436,00
-4317,50	413,00
-4304,45	423,00
-4291,41	422,00
-4278,40	398,00
-4265,41	452,00
-4252,44	359,00
-4239,49	447,00
-4226,55	449,00
-4213,65	586,00
-4200,76	424,00
-4187,89	313,00
-4175,04	397,00
-4162,21	415,00
-4149,40	483,00
-4136,61	453,00
-4123,85	435,00
-4111,10	362,00
-4098,37	353,00
-4085,66	364,00
-4072,98	398,00
-4060,31	424,00
-4047,66	483,00
-4035,04	636,00
-4022,43	403,00
-4009,84	466,00
-3997,27	404,00
-3984,72	383,00
-3972,19	401,00
-3959,69	361,00
-3947,20	413,00
-3934,73	422,00
-3922,27	345,00
-3909,84	408,00
-3897,43	467,00
-3885,04	383,00
-3872,67	423,00
-3860,31	416,00
-3847,98	332,00
-3835,66	431,00
-3823,36	402,00
-3811,09	448,00
-3798,83	493,00
-3786,59	550,00
-3774,37	538,00
-3762,17	504,00
-3749,98	369,00
-3737,82	430,00
-3725,67	503,00
-3713,55	368,00
-3701,44	377,00
-3689,35	549,00
-3677,28	443,00
-3665,22	445,00
-3653,19	418,00
-3641,17	474,00
-3629,18	580,00
-3617,20	514,00
-3605,24	373,00
-3593,30	478,00
-3581,37	413,00
-3569,47	456,00
-3557,58	432,00
-3545,71	314,00
-3533,86	491,00
-3522,02	374,00
-3510,21	467,00
-3498,41	459,00
-3486,63	537,00
-3474,87	397,00
-3463,12	397,00
-3451,40	425,00
-3439,69	488,00
-3428,00	490,00
-3416,33	464,00
-3404,67	286,00
-3393,03	422,00
-3381,41	463,00
-3369,81	452,00
-3358,22	428,00
-3346,66	511,00
-3335,10	368,00
-3323,57	456,00
-3312,06	423,00
-3300,56	417,00
-3289,08	398,00
-3277,61	370,00
-3266,16	400,00
-3254,73	499,00
-3243,32	469,00
-3231,92	433,00
-3220,55	407,00
-3209,18	467,00
-3197,84	462,00
-3186,51	267,00
-3175,20	244,00
-3163,90	360,00
-3152,63	491,00
-3141,36	487,00
-3130,12	435,00
-3118,89	429,00
-3107,68	549,00
-3096,49	440,00
-3085,31	440,00
-3074,15	443,00
-3063,00	341,00
-3051,87	555,00
-3040,76	372,00
-3029,67	482,00
-3018,59	557,00
-3007,52	521,00
-2996,48	402,00
-2985,44	485,00
-2974,43	349,00
-2963,43	433,00
-2952,45	230,00
-2941,48	478,00
-2930,53	427,00
-2919,60	466,00
-2908,68	358,00
-2897,78	385,00
-2886,89	472,00
-2876,02	418,00
-2865,17	477,00
-2854,33	455,00
-2843,50	380,00
-2832,70	542,00
-2821,90	328,00
-2811,13	469,00
-2800,37	378,00
-2789,62	430,00
-2778,89	505,00
-2768,18	460,00
-2757,48	393,00
-2746,80	517,00
-2736,13	355,00
-2725,48	430,00
-2714,84	364,00
-2704,22	395,00
-2693,61	402,00
-2683,02	539,00
-2672,45	495,00
-2661,89	329,00
-2651,34	458,00
-2640,81	457,00
-2630,30	422,00
-2619,80	464,00
-2609,31	374,00
-2598,84	288,00
-2588,39	443,00
-2577,95	421,00
-2567,52	397,00
-2557,11	401,00
-2546,71	609,00
-2536,33	476,00
-2525,97	477,00
-2515,62	336,00
-2505,28	454,00
-2494,96	347,00
-2484,65	533,00
-2474,36	570,00
-2464,08	474,00
-2453,82	535,00
-2443,57	407,00
-2433,33	313,00
-2423,11	328,00
-2412,91	422,00
-2402,72	525,00
-2392,54	458,00
-2382,38	466,00
-2372,23	399,00
-2362,09	4989,00
-2351,97	349,00
-2341,87	438,00
-2331,78	460,00
-2321,70	342,00
-2311,64	454,00
-2301,59	373,00
-2291,55	392,00
-2281,53	429,00
-2271,53	350,00
-2261,53	379,00
-2251,55	515,00
-2241,59	382,00
-2231,64	391,00
-2221,70	574,00
-2211,78	447,00
-2201,87	439,00
-2191,97	496,00
-2182,09	474,00
-2172,22	434,00
-2162,37	373,00
-2152,53	460,00
-2142,70	450,00
-2132,89	425,00
-2123,09	490,00
-2113,30	434,00
-2103,53	462,00
-2093,77	360,00
-2084,02	347,00
-2074,29	541,00
-2064,57	406,00
-2054,86	488,00
-2045,17	509,00
-2035,49	404,00
-2025,82	411,00
-2016,17	464,00
-2006,53	380,00
-1996,91	440,00
-1987,29	478,00
-1977,69	465,00
-1968,11	402,00
-1958,53	413,00
-1948,97	445,00
-1939,42	438,00
-1929,89	274,00
-1920,37	416,00
-1910,86	446,00
-1901,36	509,00
-1891,88	561,00
-1882,41	344,00
-1872,95	519,00
-1863,51	426,00
-1854,08	421,00
-1844,66	331,00
-1835,26	586,00
-1825,86	390,00
-1816,48	356,00
-1807,11	281,00
-1797,76	460,00
-1788,42	539,00
-1779,09	452,00
-1769,77	437,00
-1760,47	648,00
-1751,17	376,00
-1741,89	369,00
-1732,63	499,00
-1723,37	521,00
-1714,13	477,00
-1704,90	363,00
-1695,68	456,00
-1686,48	416,00
-1677,29	452,00
-1668,11	452,00
-1658,94	495,00
-1649,78	429,00
-1640,64	476,00
-1631,51	582,00
-1622,39	363,00
-1613,28	431,00
-1604,19	401,00
-1595,10	414,00
-1586,03	377,00
-1576,97	461,00
-1567,93	386,00
-1558,89	542,00
-1549,87	375,00
-1540,86	327,00
-1531,86	445,00
-1522,87	421,00
-1513,90	521,00
-1504,93	418,00
-1495,98	355,00
-1487,04	613,00
-1478,12	358,00
-1469,20	414,00
-1460,30	429,00
-1451,40	366,00
-1442,52	313,00
-1433,65	401,00
-1424,80	469,00
-1415,95	395,00
-1407,12	555,00
-1398,30	518,00
-1389,48	453,00
-1380,69	466,00
-1371,90	410,00
-1363,12	500,00
-1354,36	430,00
-1345,60	417,00
-1336,86	486,00
-1328,13	555,00
-1319,41	549,00
-1310,70	428,00
-1302,01	406,00
-1293,32	420,00
-1284,65	514,00
-1275,99	414,00
-1267,33	546,00
-1258,69	426,00
-1250,06	427,00
-1241,45	435,00
-1232,84	464,00
-1224,25	549,00
-1215,66	477,00
-1207,09	420,00
-1198,53	513,00
-1189,97	542,00
-1181,43	355,00
-1172,91	495,00
-1164,39	490,00
-1155,88	352,00
-1147,38	411,00
-1138,90	439,00
-1130,43	582,00
-1121,96	485,00
-1113,51	417,00
-1105,07	309,00
-1096,64	473,00
-1088,22	494,00
-1079,81	464,00
-1071,41	490,00
-1063,02	338,00
-1054,65	445,00
-1046,28	486,00
-1037,92	483,00
-1029,58	511,00
-1021,24	392,00
-1012,92	531,00
-1004,61	365,00
-996,30	452,00
-988,01	411,00
-979,73	469,00
-971,46	413,00
-963,20	434,00
-954,95	296,00
-946,71	440,00
-938,48	373,00
-930,26	474,00
-922,06	435,00
-913,86	499,00
-905,67	458,00
-897,49	372,00
-889,33	402,00
-881,17	546,00
-873,02	528,00
-864,89	365,00
-856,76	437,00
-848,65	372,00
-840,54	458,00
-832,45	435,00
-824,36	256,00
-816,29	517,00
-808,22	466,00
-800,17	431,00
-792,12	460,00
-784,09	524,00
-776,06	442,00
-768,05	367,00
-760,04	326,00
-752,05	359,00
-744,07	496,00
-736,09	521,00
-728,13	389,00
-720,17	348,00
-712,23	511,00
-704,29	430,00
-696,37	424,00
-688,45	385,00
-680,55	441,00
-672,65	367,00
-664,77	388,00
-656,89	423,00
-649,03	286,00
-641,17	455,00
-633,32	465,00
-625,49	331,00
-617,66	400,00
-609,84	377,00
-602,03	512,00
-594,23	402,00
-586,45	526,00
-578,67	380,00
-570,90	432,00
-563,14	605,00
-555,39	480,00
-547,65	521,00
-539,91	480,00
-532,19	418,00
-524,48	591,00
-516,78	408,00
-509,08	404,00
-501,40	361,00
-493,72	547,00
-486,06	433,00
-478,40	464,00
-470,76	370,00
-463,12	487,00
-455,49	385,00
-447,87	428,00
-440,26	422,00
-432,66	454,00
-425,07	407,00
-417,49	428,00
-409,92	428,00
-402,35	400,00
-394,80	338,00
-387,25	420,00
-379,72	492,00
-372,19	443,00
-364,67	497,00
-357,17	534,00
-349,67	415,00
-342,18	480,00
-334,69	531,00
-327,22	477,00
-319,76	485,00
-312,30	528,00
-304,86	493,00
-297,42	469,00
-290,00	483,00
-282,58	564,00
-275,17	448,00
-267,77	475,00
-260,37	535,00
-252,99	491,00
-245,62	504,00
-238,25	407,00
-230,90	453,00
-223,55	518,00
-216,21	555,00
-208,88	611,00
-201,56	565,00
-194,25	692,00
-186,94	528,00
-179,65	442,00
-172,36	510,00
-165,08	583,00
-157,81	720,00
-150,55	633,00
-143,30	560,00
-136,06	775,00
-128,82	823,00
-121,60	719,00
-114,38	846,00
-107,17	1004,00
-99,97	981,00
-92,78	997,00
-85,60	1156,00
-78,42	1278,00
-71,25	1423,00
-64,10	1464,00
-56,95	1773,00
-49,81	2018,00
-42,67	2338,00
-35,55	2754,00
-28,43	3771,00
-21,33	5869,00
-14,23	17865,00
-7,14	55841,00
-0,05	55551,00
7,02	55287,00
14,09	55623,00
21,14	18666,00
28,19	7574,00
35,23	4806,00
42,27	3839,00
49,29	3059,00
56,31	2639,00
63,32	2331,00
70,32	2057,00
77,31	1747,00
84,29	1653,00
91,27	1389,00
98,23	1383,00
105,19	1299,00
112,14	1308,00
119,09	1603,00
126,02	2302,00
132,95	2566,00
139,87	2384,00
146,78	2639,00
153,68	2298,00
160,58	2289,00
167,46	2261,00
174,34	2286,00
181,21	2309,00
188,08	2306,00
194,93	2197,00
201,78	2186,00
208,62	2271,00
215,45	2190,00
222,27	2178,00
229,09	2119,00
235,90	2159,00
242,70	2072,00
249,49	2185,00
256,27	2016,00
263,05	2016,00
269,82	1946,00
276,58	2065,00
283,33	2011,00
290,08	1989,00
296,82	1926,00
303,55	1769,00
310,27	1743,00
316,98	1921,00
323,69	1868,00
330,39	1822,00
337,08	1905,00
343,76	1685,00
350,44	1875,00
357,11	1698,00
363,77	1714,00
370,42	1697,00
377,07	1700,00
383,71	1690,00
390,34	1784,00
396,96	1691,00
403,58	1687,00
410,19	1818,00
416,79	1890,00
423,38	1719,00
429,97	1817,00
436,55	1582,00
443,12	1723,00
449,68	1563,00
456,24	1569,00
462,79	1687,00
469,33	1583,00
475,86	1434,00
482,39	1560,00
488,91	1584,00
495,42	1457,00
501,93	1425,00
508,42	1505,00
514,91	1455,00
521,40	1481,00
527,87	1410,00
534,34	1551,00
540,80	1442,00
547,25	1548,00
553,70	1436,00
560,14	1458,00
566,57	1540,00
573,00	1417,00
579,41	1572,00
585,83	1349,00
592,23	1488,00
598,62	1425,00
605,01	1425,00
611,40	1416,00
617,77	1277,00
624,14	1468,00
630,50	1363,00
636,85	1468,00
643,20	1386,00
649,54	1357,00
655,87	1388,00
662,20	1416,00
668,52	1446,00
674,83	1501,00
681,13	1430,00
687,43	1506,00
693,72	1362,00
700,00	1399,00
706,28	1404,00
712,55	1276,00
718,81	1320,00
725,07	1443,00
731,32	1308,00
737,56	1397,00
743,79	1385,00
750,02	1297,00
756,24	1379,00
762,46	1379,00
768,67	1437,00
774,87	1334,00
781,06	1379,00
787,25	1354,00
793,43	1220,00
799,60	1319,00
805,77	1460,00
811,93	1311,00
818,08	1429,00
824,23	1301,00
830,37	1312,00
836,50	1216,00
842,63	1395,00
848,75	1342,00
854,87	1367,00
860,97	1364,00
867,07	1410,00
873,17	1393,00
879,25	1480,00
885,33	1319,00
891,41	1478,00
897,47	1451,00
903,53	1303,00
909,59	1310,00
915,63	1253,00
921,67	1355,00
927,71	1311,00
933,74	1326,00
939,76	1367,00
945,77	1274,00
951,78	1416,00
957,78	1294,00
963,78	1293,00
969,77	1300,00
975,75	1223,00
981,72	1345,00
987,69	1446,00
993,66	1284,00
999,61	1303,00
1005,56	1436,00
1011,51	1351,00
1017,44	1339,00
1023,37	1375,00
1029,30	1306,00
1035,22	1239,00
1041,13	1265,00
1047,03	1369,00
1052,93	1547,00
1058,83	2106,00
1064,71	2327,00
1070,59	2023,00
1076,47	1727,00
1082,33	1614,00
1088,20	1354,00
1094,05	1451,00
1099,90	1409,00
1105,74	1390,00
1111,58	1352,00
1117,41	1401,00
1123,23	2056,00
1129,05	2457,00
1134,86	2296,00
1140,67	1750,00
1146,47	1264,00
1152,26	1206,00
1158,05	1113,00
1163,83	1301,00
1169,60	1371,00
1175,37	1252,00
1181,13	1346,00
1186,89	1217,00
1192,64	1221,00
1198,38	1377,00
1204,12	1317,00
1209,85	1225,00
1215,58	1136,00
1221,30	1179,00
1227,02	1194,00
1232,72	1250,00
1238,43	1151,00
1244,12	1286,00
1249,81	1193,00
1255,50	1203,00
1261,17	1280,00
1266,85	1325,00
1272,51	1281,00
1278,17	1497,00
1283,83	1486,00
1289,47	2071,00
1295,12	2746,00
1300,75	2539,00
1306,38	2079,00
1312,01	1647,00
1317,63	1531,00
1323,24	1261,00
1328,85	1295,00
1334,45	1396,00
1340,04	1199,00
1345,63	1386,00
1351,22	1440,00
1356,80	1410,00
1362,37	1340,00
1367,93	1390,00
1373,49	1535,00
1379,05	1529,00
1384,60	1371,00
1390,14	1244,00
1395,68	1323,00
1401,21	1394,00
1406,74	1382,00
1412,26	1739,00
1417,77	2010,00
1423,28	1938,00
1428,78	2224,00
1434,28	2517,00
1439,77	2896,00
1445,26	2815,00
1450,74	2661,00
1456,22	2428,00
1461,68	2296,00
1467,15	2325,00
1472,61	1934,00
1478,06	1756,00
1483,51	1571,00
1488,95	1469,00
1494,38	1318,00
1499,81	1228,00
1505,24	1106,00
1510,65	1187,00
1516,07	1224,00
1521,48	1199,00
1526,88	1147,00
1532,27	1222,00
1537,67	1087,00
1543,05	1144,00
1548,43	1096,00
1553,81	1165,00
1559,18	1063,00
1564,54	1057,00
1569,90	1143,00
1575,25	1096,00
1580,60	1052,00
1585,94	1070,00
1591,28	1118,00
1596,61	997,00
1601,93	988,00
1607,25	1094,00
1612,57	1074,00
1617,88	1110,00
1623,18	1179,00
1628,48	1125,00
1633,77	1127,00
1639,06	1021,00
1644,34	972,00
1649,62	1013,00
1654,89	1010,00
1660,16	1000,00
1665,42	948,00
1670,67	1071,00
1675,92	1016,00
1681,17	959,00
1686,41	1049,00
1691,64	992,00
1696,87	1101,00
1702,10	938,00
1707,32	818,00
1712,53	1074,00
1717,74	819,00
1722,94	978,00
1728,14	941,00
1733,33	913,00
1738,52	932,00
1743,70	885,00
1748,88	834,00
1754,05	923,00
1759,22	864,00
1764,38	2466,00
1769,53	884,00
1774,69	1041,00
1779,83	862,00
1784,97	908,00
1790,11	772,00
1795,24	940,00
1800,36	819,00
1805,48	933,00
1810,60	909,00
1815,71	920,00
1820,82	822,00
1825,92	769,00
1831,01	890,00
1836,10	793,00
1841,19	784,00
1846,26	882,00
1851,34	846,00
1856,41	748,00
1861,47	769,00
1866,53	922,00
1871,59	818,00
1876,64	836,00
1881,68	814,00
1886,72	756,00
1891,76	793,00
1896,79	864,00
1901,81	813,00
1906,83	769,00
1911,85	851,00
1916,86	940,00
1921,86	817,00
1926,86	716,00
1931,86	778,00
1936,85	704,00
1941,83	789,00
1946,81	818,00
1951,79	649,00
1956,76	775,00
1961,72	589,00
1966,68	758,00
1971,64	617,00
1976,59	690,00
1981,54	637,00
1986,48	888,00
1991,42	661,00
1996,35	817,00
2001,27	854,00
2006,20	565,00
2011,11	725,00
2016,03	675,00
2020,93	688,00
2025,84	616,00
2030,73	700,00
2035,63	660,00
2040,52	837,00
2045,40	719,00
2050,28	777,00
2055,15	725,00
2060,02	610,00
2064,89	770,00
2069,75	803,00
2074,60	653,00
2079,46	620,00
2084,30	766,00
2089,14	644,00
2093,98	793,00
2098,81	635,00
2103,64	707,00
2108,46	801,00
2113,28	660,00
2118,09	658,00
2122,90	627,00
2127,70	569,00
2132,50	647,00
2137,30	752,00
2142,09	662,00
2146,87	663,00
2151,66	671,00
2156,43	744,00
2161,20	658,00
2165,97	807,00
2170,73	662,00
2175,49	700,00
2180,24	711,00
2184,99	701,00
2189,74	679,00
2194,48	682,00
2199,21	803,00
2203,94	767,00
2208,67	612,00
2213,39	625,00
2218,11	682,00
2222,82	713,00
2227,53	770,00
2232,23	726,00
2236,93	725,00
2241,63	748,00
2246,32	726,00
2251,00	668,00
2255,68	767,00
2260,36	633,00
2265,03	737,00
2269,70	578,00
2274,36	619,00
2279,02	670,00
2283,68	619,00
2288,33	543,00
2292,97	609,00
2297,61	617,00
2302,25	622,00
2306,88	642,00
2311,51	492,00
2316,14	637,00
2320,75	749,00
2325,37	563,00
2329,98	593,00
2334,59	613,00
2339,19	589,00
2343,79	657,00
2348,38	598,00
2352,97	530,00
2357,55	759,00
2362,13	611,00
2366,71	565,00
2371,28	621,00
2375,85	618,00
2380,41	630,00
2384,97	565,00
2389,52	669,00
2394,07	498,00
2398,62	664,00
2403,16	555,00
2407,70	522,00
2412,23	623,00
2416,76	567,00
2421,29	584,00
2425,81	626,00
2430,32	709,00
2434,84	488,00
2439,34	566,00
2443,85	652,00
2448,35	686,00
2452,84	593,00
2457,33	565,00
2461,82	514,00
2466,30	622,00
2470,78	624,00
2475,25	555,00
2479,72	516,00
2484,19	592,00
2488,65	609,00
2493,11	624,00
2497,56	600,00
2502,01	578,00
2506,46	584,00
2510,90	653,00
2515,34	595,00
2519,77	655,00
2524,20	568,00
2528,62	506,00
2533,04	615,00
2537,46	628,00
2541,87	617,00
2546,28	563,00
2550,68	607,00
2555,08	641,00
2559,48	641,00
2563,87	607,00
2568,26	555,00
2572,64	673,00
2577,02	680,00
2581,40	592,00
2585,77	627,00
2590,14	696,00
2594,50	545,00
2598,86	658,00
2603,22	592,00
2607,57	536,00
2611,92	715,00
2616,26	658,00
2620,60	549,00
2624,94	537,00
2629,27	606,00
2633,60	470,00
2637,92	650,00
2642,24	775,00
2646,56	661,00
2650,87	633,00
2655,18	765,00
2659,48	598,00
2663,78	600,00
2668,08	580,00
2672,37	505,00
2676,66	673,00
2680,95	648,00
2685,23	671,00
2689,50	672,00
2693,78	691,00
2698,05	607,00
2702,31	774,00
2706,57	727,00
2710,83	800,00
2715,08	700,00
2719,33	917,00
2723,58	819,00
2727,82	896,00
2732,06	745,00
2736,29	915,00
2740,53	775,00
2744,75	789,00
2748,97	749,00
2753,19	750,00
2757,41	691,00
2761,62	833,00
2765,83	824,00
2770,03	646,00
2774,23	760,00
2778,43	797,00
2782,62	674,00
2786,81	800,00
2791,00	794,00
2795,18	798,00
2799,35	872,00
2803,53	768,00
2807,70	916,00
2811,86	872,00
2816,03	884,00
2820,19	963,00
2824,34	1036,00
2828,49	1061,00
2832,64	1301,00
2836,78	1527,00
2840,92	1795,00
2845,06	2049,00
2849,19	2448,00
2853,32	2538,00
2857,45	2603,00
2861,57	2460,00
2865,69	2303,00
2869,80	2286,00
2873,91	2398,00
2878,02	2477,00
2882,12	2830,00
2886,22	2803,00
2890,32	2754,00
2894,41	2421,00
2898,50	2221,00
2902,58	2259,00
2906,67	1973,00
2910,74	1872,00
2914,82	1632,00
2918,89	1794,00
2922,96	1522,00
2927,02	1577,00
2931,08	1477,00
2935,13	1312,00
2939,19	1306,00
2943,24	1185,00
2947,28	1037,00
2951,32	999,00
2955,36	903,00
2959,40	957,00
2963,43	805,00
2967,46	765,00
2971,48	814,00
2975,50	712,00
2979,52	702,00
2983,53	728,00
2987,54	660,00
2991,55	691,00
2995,55	668,00
2999,55	668,00
3003,54	611,00
3007,54	671,00
3011,53	694,00
3015,51	531,00
3019,49	655,00
3023,47	614,00
3027,45	480,00
3031,42	586,00
3035,39	522,00
3039,35	563,00
3043,31	632,00
3047,27	442,00
3051,22	599,00
3055,17	481,00
3059,12	453,00
3063,06	591,00
3067,00	448,00
3070,94	516,00
3074,87	495,00
3078,80	547,00
3082,73	509,00
3086,65	516,00
3090,57	585,00
3094,49	553,00
3098,40	502,00
3102,31	421,00
3106,22	581,00
3110,12	533,00
3114,02	405,00
3117,92	556,00
3121,81	455,00
3125,70	468,00
3129,58	469,00
3133,47	471,00
3137,34	549,00
3141,22	539,00
3145,09	558,00
3148,96	436,00
3152,83	444,00
3156,69	370,00
3160,55	460,00
3164,40	499,00
3168,26	511,00
3172,10	634,00
3175,95	400,00
3179,79	473,00
3183,63	413,00
3187,47	460,00
3191,30	460,00
3195,13	576,00
3198,95	471,00
3202,78	454,00
3206,60	408,00
3210,41	360,00
3214,23	502,00
3218,03	423,00
3221,84	512,00
3225,64	636,00
3229,44	461,00
3233,24	566,00
3237,03	512,00
3240,82	527,00
3244,61	471,00
3248,39	473,00
3252,17	406,00
3255,95	512,00
3259,72	496,00
3263,49	557,00
3267,26	565,00
3271,03	474,00
3274,79	461,00
3278,54	416,00
3282,30	516,00
3286,05	469,00
3289,80	521,00
3293,54	394,00
3297,29	574,00
3301,02	515,00
3304,76	597,00
3308,49	506,00
3312,22	515,00
3315,95	401,00
3319,67	486,00
3323,39	624,00
3327,10	532,00
3330,82	499,00
3334,53	446,00
3338,24	426,00
3341,94	458,00
3345,64	490,00
3349,34	506,00
3353,03	584,00
3356,72	494,00
3360,41	456,00
3364,10	604,00
3367,78	431,00
3371,46	414,00
3375,13	451,00
3378,81	467,00
3382,48	479,00
3386,14	397,00
3389,81	491,00
3393,47	465,00
3397,12	411,00
3400,78	485,00
3404,43	500,00
3408,08	477,00
3411,72	499,00
3415,36	450,00
3419,00	431,00
3422,64	421,00
3426,27	439,00
3429,90	481,00
3433,53	430,00
3437,15	553,00
3440,77	421,00
3444,39	364,00
3448,00	521,00
3451,62	420,00
3455,22	508,00
3458,83	463,00
3462,43	393,00
3466,03	453,00
3469,63	512,00
3473,22	427,00
3476,81	442,00
3480,40	438,00
3483,99	450,00
3487,57	437,00
3491,15	443,00
3494,72	486,00
3498,29	391,00
3501,86	431,00
3505,43	478,00
3508,99	392,00
3512,56	545,00
3516,11	436,00
3519,67	364,00
3523,22	539,00
3526,77	411,00
3530,32	424,00
3533,86	333,00
3537,40	483,00
3540,94	558,00
3544,47	360,00
3548,00	441,00
3551,53	378,00
3555,06	380,00
3558,58	532,00
3562,10	367,00
3565,62	487,00
3569,13	272,00
3572,64	511,00
3576,15	357,00
3579,66	433,00
3583,16	416,00
3586,66	525,00
3590,16	479,00
3593,65	476,00
3597,14	391,00
3600,63	464,00
3604,11	473,00
3607,60	429,00
3611,08	479,00
3614,55	345,00
3618,03	320,00
3621,50	395,00
3624,97	431,00
3628,43	421,00
3631,90	363,00
3635,36	419,00
3638,81	481,00
3642,27	403,00
3645,72	292,00
3649,17	397,00
3652,61	364,00
3656,06	293,00
3659,50	302,00
3662,93	398,00
3666,37	377,00
3669,80	482,00
3673,23	351,00
3676,65	514,00
3680,08	383,00
3683,50	366,00
3686,92	401,00
3690,33	412,00
3693,74	399,00
3697,15	336,00
3700,56	373,00
3703,96	440,00
3707,36	373,00
3710,76	346,00
3714,16	408,00
3717,55	357,00
3720,94	422,00
3724,33	432,00
3727,71	408,00
3731,10	415,00
3734,48	415,00
3737,85	434,00
3741,23	346,00
3744,60	417,00
3747,97	257,00
3751,33	403,00
3754,69	329,00
3758,05	373,00
3761,41	273,00
3764,77	362,00
3768,12	259,00
3771,47	256,00
3774,82	307,00
3778,16	-1,00
3781,50	6,00
3784,84	10,00
3788,18	3,00
>>>>>End Processed Spectral Data<<<<<
