SpectraSuite Data File
++++++++++++++++++++++++++++++++++++
Date: Wed Feb 04 16:07:42 ICT 2026
User: Administrator
Dark Spectrum Present: Yes
Reference Spectrum Present: No
Number of Sampled Component Spectra: 1
Spectrometers: MAYP113682
Integration Time (usec): 3000000 (MAYP113682)
Spectra Averaged: 1 (MAYP113682)
Boxcar Smoothing: 0 (MAYP113682)
Correct for Electrical Dark: No (MAYP113682)
Strobe/Lamp Enabled: No (MAYP113682)
Correct for Detector Non-linearity: No (MAYP113682)
Correct for Stray Light: No (MAYP113682)
Number of Pixels in Processed Spectrum: 2068
>>>>>Begin Processed Spectral Data<<<<<
-37534,58	6,00
-37414,56	-1,00
-37295,11	10,00
-37176,24	1,00
-37057,95	310,00
-36940,22	390,00
-36823,05	397,00
-36706,45	423,00
-36590,40	399,00
-36474,90	273,00
-36359,95	432,00
-36245,55	353,00
-36131,68	338,00
-36018,35	390,00
-35905,55	507,00
-35793,29	342,00
-35681,54	439,00
-35570,32	434,00
-35459,62	329,00
-35349,43	460,00
-35239,75	450,00
-35130,58	456,00
-35021,91	391,00
-34913,74	408,00
-34806,07	375,00
-34698,89	480,00
-34592,20	346,00
-34486,00	400,00
-34380,28	470,00
-34275,04	387,00
-34170,27	452,00
-34065,98	384,00
-33962,16	415,00
-33858,81	365,00
-33755,92	491,00
-33653,49	435,00
-33551,52	369,00
-33450,01	550,00
-33348,94	389,00
-33248,33	400,00
-33148,16	457,00
-33048,43	419,00
-32949,14	541,00
-32850,29	505,00
-32751,87	404,00
-32653,89	483,00
-32556,33	512,00
-32459,20	397,00
-32362,49	397,00
-32266,19	454,00
-32170,32	365,00
-32074,86	420,00
-31979,82	438,00
-31885,18	439,00
-31790,95	438,00
-31697,12	476,00
-31603,69	528,00
-31510,67	459,00
-31418,04	386,00
-31325,80	449,00
-31233,95	478,00
-31142,49	401,00
-31051,42	463,00
-30960,73	485,00
-30870,43	494,00
-30780,50	429,00
-30690,95	514,00
-30601,77	430,00
-30512,97	458,00
-30424,53	417,00
-30336,46	547,00
-30248,76	452,00
-30161,42	463,00
-30074,44	499,00
-29987,81	400,00
-29901,55	503,00
-29815,63	430,00
-29730,07	448,00
-29644,86	508,00
-29560,00	442,00
-29475,48	407,00
-29391,30	496,00
-29307,47	401,00
-29223,97	409,00
-29140,81	417,00
-29057,99	480,00
-28975,50	407,00
-28893,34	427,00
-28811,51	488,00
-28730,00	522,00
-28648,82	481,00
-28567,97	492,00
-28487,43	408,00
-28407,21	439,00
-28327,32	427,00
-28247,73	542,00
-28168,46	368,00
-28089,50	512,00
-28010,85	540,00
-27932,51	356,00
-27854,48	555,00
-27776,75	444,00
-27699,32	464,00
-27622,19	527,00
-27545,37	448,00
-27468,84	333,00
-27392,60	477,00
-27316,66	348,00
-27241,01	482,00
-27165,66	484,00
-27090,59	534,00
-27015,81	441,00
-26941,31	392,00
-26867,10	489,00
-26793,17	479,00
-26719,52	480,00
-26646,15	405,00
-26573,06	331,00
-26500,24	459,00
-26427,70	384,00
-26355,43	518,00
-26283,43	452,00
-26211,71	441,00
-26140,25	354,00
-26069,06	522,00
-25998,13	434,00
-25927,46	405,00
-25857,06	383,00
-25786,92	395,00
-25717,04	388,00
-25647,42	573,00
-25578,05	387,00
-25508,94	525,00
-25440,09	435,00
-25371,48	455,00
-25303,13	480,00
-25235,02	516,00
-25167,17	518,00
-25099,56	556,00
-25032,19	380,00
-24965,07	460,00
-24898,20	458,00
-24831,56	407,00
-24765,17	473,00
-24699,01	389,00
-24633,10	531,00
-24567,41	497,00
-24501,97	561,00
-24436,75	442,00
-24371,77	395,00
-24307,03	409,00
-24242,51	406,00
-24178,22	540,00
-24114,16	399,00
-24050,32	523,00
-23986,71	339,00
-23923,32	407,00
-23860,16	395,00
-23797,22	495,00
-23734,50	426,00
-23672,00	388,00
-23609,71	467,00
-23547,65	351,00
-23485,80	500,00
-23424,16	255,00
-23362,74	556,00
-23301,53	474,00
-23240,54	347,00
-23179,75	324,00
-23119,17	466,00
-23058,80	534,00
-22998,64	400,00
-22938,68	320,00
-22878,93	465,00
-22819,39	398,00
-22760,04	326,00
-22700,90	484,00
-22641,96	433,00
-22583,22	450,00
-22524,68	464,00
-22466,33	544,00
-22408,19	517,00
-22350,23	438,00
-22292,48	401,00
-22234,92	362,00
-22177,55	469,00
-22120,37	481,00
-22063,38	500,00
-22006,58	427,00
-21949,98	355,00
-21893,56	334,00
-21837,33	412,00
-21781,28	510,00
-21725,42	436,00
-21669,74	557,00
-21614,25	401,00
-21558,94	540,00
-21503,81	537,00
-21448,86	450,00
-21394,10	411,00
-21339,51	442,00
-21285,10	335,00
-21230,86	388,00
-21176,81	274,00
-21122,93	383,00
-21069,22	394,00
-21015,69	390,00
-20962,33	471,00
-20909,14	335,00
-20856,13	497,00
-20803,28	313,00
-20750,61	424,00
-20698,10	463,00
-20645,76	360,00
-20593,59	434,00
-20541,59	504,00
-20489,75	487,00
-20438,07	402,00
-20386,56	482,00
-20335,22	369,00
-20284,03	406,00
-20233,01	412,00
-20182,15	449,00
-20131,45	421,00
-20080,91	476,00
-20030,52	438,00
-19980,30	397,00
-19930,23	337,00
-19880,32	402,00
-19830,56	490,00
-19780,96	426,00
-19731,52	490,00
-19682,23	442,00
-19633,09	434,00
-19584,10	376,00
-19535,26	412,00
-19486,58	421,00
-19438,04	481,00
-19389,66	410,00
-19341,42	353,00
-19293,33	415,00
-19245,39	352,00
-19197,60	453,00
-19149,95	468,00
-19102,45	477,00
-19055,09	419,00
-19007,87	426,00
-18960,80	488,00
-18913,87	477,00
-18867,09	431,00
-18820,44	371,00
-18773,94	521,00
-18727,57	480,00
-18681,35	476,00
-18635,26	477,00
-18589,31	441,00
-18543,50	386,00
-18497,83	433,00
-18452,29	416,00
-18406,89	500,00
-18361,63	401,00
-18316,50	408,00
-18271,50	311,00
-18226,63	465,00
-18181,90	459,00
-18137,30	455,00
-18092,84	317,00
-18048,50	455,00
-18004,29	493,00
-17960,22	383,00
-17916,27	404,00
-17872,45	396,00
-17828,76	465,00
-17785,20	327,00
-17741,77	398,00
-17698,46	534,00
-17655,28	355,00
-17612,22	425,00
-17569,29	351,00
-17526,48	363,00
-17483,79	498,00
-17441,23	503,00
-17398,79	395,00
-17356,48	504,00
-17314,28	475,00
-17272,21	409,00
-17230,26	390,00
-17188,42	468,00
-17146,71	448,00
-17105,12	306,00
-17063,64	521,00
-17022,28	328,00
-16981,04	492,00
-16939,92	413,00
-16898,91	442,00
-16858,02	451,00
-16817,25	421,00
-16776,59	415,00
-16736,04	415,00
-16695,61	393,00
-16655,29	488,00
-16615,09	478,00
-16574,99	348,00
-16535,01	361,00
-16495,15	508,00
-16455,39	378,00
-16415,74	423,00
-16376,21	335,00
-16336,78	271,00
-16297,46	302,00
-16258,26	399,00
-16219,16	470,00
-16180,17	377,00
-16141,28	408,00
-16102,51	428,00
-16063,84	404,00
-16025,27	441,00
-15986,82	481,00
-15948,46	451,00
-15910,22	448,00
-15872,07	446,00
-15834,04	395,00
-15796,10	445,00
-15758,27	371,00
-15720,54	346,00
-15682,91	412,00
-15645,39	483,00
-15607,97	520,00
-15570,64	440,00
-15533,42	458,00
-15496,30	482,00
-15459,28	378,00
-15422,36	372,00
-15385,54	457,00
-15348,82	475,00
-15312,19	469,00
-15275,66	365,00
-15239,23	459,00
-15202,90	393,00
-15166,67	370,00
-15130,53	508,00
-15094,48	393,00
-15058,54	450,00
-15022,68	445,00
-14986,93	394,00
-14951,26	406,00
-14915,69	449,00
-14880,22	446,00
-14844,84	506,00
-14809,55	593,00
-14774,35	449,00
-14739,25	500,00
-14704,24	411,00
-14669,32	393,00
-14634,49	376,00
-14599,75	443,00
-14565,10	389,00
-14530,55	343,00
-14496,08	362,00
-14461,70	469,00
-14427,41	368,00
-14393,21	517,00
-14359,10	331,00
-14325,07	454,00
-14291,14	524,00
-14257,29	517,00
-14223,52	429,00
-14189,85	480,00
-14156,26	554,00
-14122,76	496,00
-14089,34	388,00
-14056,01	510,00
-14022,76	402,00
-13989,60	497,00
-13956,52	468,00
-13923,53	336,00
-13890,62	344,00
-13857,79	408,00
-13825,05	392,00
-13792,39	309,00
-13759,81	447,00
-13727,31	473,00
-13694,90	493,00
-13662,57	397,00
-13630,31	467,00
-13598,14	375,00
-13566,05	440,00
-13534,05	424,00
-13502,12	434,00
-13470,27	557,00
-13438,50	378,00
-13406,80	335,00
-13375,19	374,00
-13343,66	347,00
-13312,20	403,00
-13280,83	409,00
-13249,53	412,00
-13218,30	356,00
-13187,16	346,00
-13156,09	415,00
-13125,10	455,00
-13094,18	426,00
-13063,34	401,00
-13032,58	344,00
-13001,89	446,00
-12971,28	323,00
-12940,74	393,00
-12910,27	470,00
-12879,88	447,00
-12849,57	445,00
-12819,33	497,00
-12789,16	406,00
-12759,06	448,00
-12729,04	441,00
-12699,09	984,00
-12669,21	515,00
-12639,41	428,00
-12609,68	388,00
-12580,02	385,00
-12550,43	362,00
-12520,91	358,00
-12491,46	338,00
-12462,08	371,00
-12432,77	529,00
-12403,54	530,00
-12374,37	417,00
-12345,27	523,00
-12316,24	421,00
-12287,29	389,00
-12258,40	442,00
-12229,57	571,00
-12200,82	365,00
-12172,14	463,00
-12143,52	229,00
-12114,97	315,00
-12086,49	539,00
-12058,07	527,00
-12029,73	456,00
-12001,44	519,00
-11973,23	493,00
-11945,08	385,00
-11917,00	585,00
-11888,98	492,00
-11861,03	506,00
-11833,15	484,00
-11805,32	534,00
-11777,57	451,00
-11749,88	443,00
-11722,25	397,00
-11694,69	351,00
-11667,19	435,00
-11639,75	347,00
-11612,38	564,00
-11585,07	344,00
-11557,83	345,00
-11530,65	417,00
-11503,53	508,00
-11476,47	507,00
-11449,48	451,00
-11422,54	506,00
-11395,67	429,00
-11368,86	533,00
-11342,11	350,00
-11315,43	494,00
-11288,80	403,00
-11262,23	428,00
-11235,73	407,00
-11209,28	519,00
-11182,90	431,00
-11156,57	426,00
-11130,31	545,00
-11104,10	441,00
-11077,96	406,00
-11051,87	363,00
-11025,84	452,00
-10999,87	432,00
-10973,96	531,00
-10948,11	360,00
-10922,31	448,00
-10896,58	398,00
-10870,90	447,00
-10845,28	467,00
-10819,71	388,00
-10794,20	517,00
-10768,75	466,00
-10743,36	394,00
-10718,02	399,00
-10692,74	455,00
-10667,52	424,00
-10642,35	419,00
-10617,24	496,00
-10592,18	362,00
-10567,18	270,00
-10542,23	370,00
-10517,34	481,00
-10492,51	435,00
-10467,72	396,00
-10443,00	506,00
-10418,32	483,00
-10393,70	441,00
-10369,14	530,00
-10344,63	518,00
-10320,17	440,00
-10295,77	433,00
-10271,42	324,00
-10247,12	427,00
-10222,88	430,00
-10198,68	469,00
-10174,54	477,00
-10150,46	536,00
-10126,42	511,00
-10102,44	460,00
-10078,51	445,00
-10054,63	568,00
-10030,80	575,00
-10007,03	565,00
-9983,30	454,00
-9959,63	470,00
-9936,01	517,00
-9912,44	553,00
-9888,92	524,00
-9865,44	445,00
-9842,02	515,00
-9818,65	520,00
-9795,33	447,00
-9772,06	424,00
-9748,84	479,00
-9725,67	377,00
-9702,55	576,00
-9679,47	679,00
-9656,45	640,00
-9633,47	568,00
-9610,55	589,00
-9587,67	636,00
-9564,84	617,00
-9542,06	743,00
-9519,32	650,00
-9496,64	784,00
-9474,00	726,00
-9451,41	890,00
-9428,87	569,00
-9406,37	746,00
-9383,92	782,00
-9361,52	750,00
-9339,17	733,00
-9316,86	827,00
-9294,60	815,00
-9272,38	983,00
-9250,21	947,00
-9228,09	1001,00
-9206,01	968,00
-9183,98	1009,00
-9162,00	796,00
-9140,06	842,00
-9118,16	859,00
-9096,31	835,00
-9074,51	795,00
-9052,75	914,00
-9031,04	927,00
-9009,37	879,00
-8987,74	836,00
-8966,16	799,00
-8944,63	740,00
-8923,14	884,00
-8901,69	715,00
-8880,29	696,00
-8858,93	831,00
-8837,61	828,00
-8816,34	822,00
-8795,11	749,00
-8773,92	877,00
-8752,78	851,00
-8731,68	703,00
-8710,62	849,00
-8689,61	796,00
-8668,63	722,00
-8647,70	848,00
-8626,82	941,00
-8605,97	752,00
-8585,17	768,00
-8564,41	578,00
-8543,69	673,00
-8523,01	603,00
-8502,37	780,00
-8481,78	673,00
-8461,23	703,00
-8440,71	695,00
-8420,24	743,00
-8399,81	817,00
-8379,42	840,00
-8359,08	783,00
-8338,77	844,00
-8318,50	650,00
-8298,27	647,00
-8278,09	744,00
-8257,94	692,00
-8237,83	863,00
-8217,76	828,00
-8197,74	798,00
-8177,75	753,00
-8157,80	659,00
-8137,89	632,00
-8118,02	575,00
-8098,19	710,00
-8078,40	617,00
-8058,65	706,00
-8038,93	688,00
-8019,26	668,00
-7999,62	605,00
-7980,02	621,00
-7960,46	618,00
-7940,94	511,00
-7921,46	552,00
-7902,01	638,00
-7882,60	724,00
-7863,23	667,00
-7843,90	586,00
-7824,61	646,00
-7805,35	721,00
-7786,13	547,00
-7766,95	755,00
-7747,80	666,00
-7728,69	600,00
-7709,62	566,00
-7690,59	538,00
-7671,59	587,00
-7652,63	574,00
-7633,70	736,00
-7614,81	639,00
-7595,96	539,00
-7577,15	472,00
-7558,37	504,00
-7539,62	731,00
-7520,91	679,00
-7502,24	663,00
-7483,60	667,00
-7465,00	472,00
-7446,44	590,00
-7427,91	569,00
-7409,41	641,00
-7390,95	588,00
-7372,53	636,00
-7354,14	447,00
-7335,78	364,00
-7317,46	617,00
-7299,18	380,00
-7280,92	543,00
-7262,71	807,00
-7244,52	649,00
-7226,38	509,00
-7208,26	587,00
-7190,18	533,00
-7172,14	567,00
-7154,12	568,00
-7136,15	626,00
-7118,20	634,00
-7100,29	547,00
-7082,41	556,00
-7064,57	600,00
-7046,76	558,00
-7028,98	478,00
-7011,24	657,00
-6993,53	479,00
-6975,85	504,00
-6958,20	358,00
-6940,59	276,00
-6923,01	452,00
-6905,46	616,00
-6887,94	502,00
-6870,46	578,00
-6853,01	576,00
-6835,59	476,00
-6818,21	465,00
-6800,85	528,00
-6783,53	408,00
-6766,24	460,00
-6748,98	325,00
-6731,76	490,00
-6714,56	401,00
-6697,40	461,00
-6680,26	389,00
-6663,16	505,00
-6646,09	511,00
-6629,05	438,00
-6612,05	542,00
-6595,07	476,00
-6578,13	508,00
-6561,21	528,00
-6544,33	562,00
-6527,47	520,00
-6510,65	433,00
-6493,86	374,00
-6477,10	506,00
-6460,36	293,00
-6443,66	428,00
-6426,99	335,00
-6410,35	511,00
-6393,74	495,00
-6377,16	457,00
-6360,61	319,00
-6344,09	538,00
-6327,59	262,00
-6311,13	438,00
-6294,70	521,00
-6278,29	513,00
-6261,92	421,00
-6245,58	402,00
-6229,26	395,00
-6212,97	400,00
-6196,72	522,00
-6180,49	394,00
-6164,29	385,00
-6148,12	628,00
-6131,98	496,00
-6115,86	462,00
-6099,78	334,00
-6083,72	413,00
-6067,69	433,00
-6051,69	427,00
-6035,72	375,00
-6019,78	409,00
-6003,87	447,00
-5987,98	442,00
-5972,12	541,00
-5956,29	542,00
-5940,49	408,00
-5924,71	473,00
-5908,96	424,00
-5893,24	469,00
-5877,55	470,00
-5861,89	403,00
-5846,25	453,00
-5830,64	611,00
-5815,05	485,00
-5799,50	376,00
-5783,97	361,00
-5768,47	470,00
-5752,99	439,00
-5737,55	468,00
-5722,12	270,00
-5706,73	358,00
-5691,36	476,00
-5676,02	430,00
-5660,71	531,00
-5645,42	381,00
-5630,16	393,00
-5614,92	370,00
-5599,71	445,00
-5584,53	522,00
-5569,37	316,00
-5554,24	581,00
-5539,14	364,00
-5524,06	445,00
-5509,01	388,00
-5493,98	575,00
-5478,98	464,00
-5464,00	471,00
-5449,05	483,00
-5434,13	239,00
-5419,23	473,00
-5404,36	346,00
-5389,51	393,00
-5374,69	465,00
-5359,89	330,00
-5345,12	324,00
-5330,37	617,00
-5315,65	389,00
-5300,95	482,00
-5286,28	349,00
-5271,63	421,00
-5257,01	366,00
-5242,41	426,00
-5227,84	364,00
-5213,29	519,00
-5198,76	437,00
-5184,26	458,00
-5169,79	476,00
-5155,33	480,00
-5140,91	534,00
-5126,51	354,00
-5112,13	301,00
-5097,77	426,00
-5083,44	511,00
-5069,13	408,00
-5054,85	322,00
-5040,59	384,00
-5026,36	374,00
-5012,15	491,00
-4997,96	507,00
-4983,80	380,00
-4969,66	416,00
-4955,54	491,00
-4941,44	386,00
-4927,37	384,00
-4913,33	402,00
-4899,30	268,00
-4885,30	374,00
-4871,33	436,00
-4857,37	469,00
-4843,44	406,00
-4829,53	536,00
-4815,65	543,00
-4801,79	467,00
-4787,95	361,00
-4774,13	361,00
-4760,34	300,00
-4746,56	292,00
-4732,82	342,00
-4719,09	288,00
-4705,38	444,00
-4691,70	468,00
-4678,04	480,00
-4664,41	482,00
-4650,79	490,00
-4637,20	471,00
-4623,63	370,00
-4610,08	492,00
-4596,56	354,00
-4583,05	396,00
-4569,57	351,00
-4556,11	477,00
-4542,67	375,00
-4529,25	491,00
-4515,86	377,00
-4502,49	434,00
-4489,13	523,00
-4475,80	628,00
-4462,49	462,00
-4449,21	525,00
-4435,94	390,00
-4422,70	310,00
-4409,47	322,00
-4396,27	437,00
-4383,09	444,00
-4369,93	466,00
-4356,79	378,00
-4343,67	412,00
-4330,58	372,00
-4317,50	405,00
-4304,45	416,00
-4291,41	545,00
-4278,40	395,00
-4265,41	462,00
-4252,44	398,00
-4239,49	440,00
-4226,55	472,00
-4213,65	460,00
-4200,76	562,00
-4187,89	484,00
-4175,04	427,00
-4162,21	384,00
-4149,40	400,00
-4136,61	473,00
-4123,85	469,00
-4111,10	295,00
-4098,37	484,00
-4085,66	420,00
-4072,98	462,00
-4060,31	501,00
-4047,66	451,00
-4035,04	646,00
-4022,43	417,00
-4009,84	429,00
-3997,27	419,00
-3984,72	409,00
-3972,19	407,00
-3959,69	379,00
-3947,20	394,00
-3934,73	484,00
-3922,27	352,00
-3909,84	360,00
-3897,43	450,00
-3885,04	440,00
-3872,67	390,00
-3860,31	383,00
-3847,98	440,00
-3835,66	430,00
-3823,36	398,00
-3811,09	447,00
-3798,83	506,00
-3786,59	625,00
-3774,37	527,00
-3762,17	417,00
-3749,98	479,00
-3737,82	460,00
-3725,67	505,00
-3713,55	461,00
-3701,44	406,00
-3689,35	479,00
-3677,28	443,00
-3665,22	452,00
-3653,19	410,00
-3641,17	458,00
-3629,18	490,00
-3617,20	548,00
-3605,24	485,00
-3593,30	489,00
-3581,37	411,00
-3569,47	585,00
-3557,58	447,00
-3545,71	438,00
-3533,86	475,00
-3522,02	350,00
-3510,21	486,00
-3498,41	444,00
-3486,63	539,00
-3474,87	445,00
-3463,12	443,00
-3451,40	477,00
-3439,69	421,00
-3428,00	553,00
-3416,33	407,00
-3404,67	246,00
-3393,03	468,00
-3381,41	464,00
-3369,81	426,00
-3358,22	363,00
-3346,66	578,00
-3335,10	536,00
-3323,57	389,00
-3312,06	411,00
-3300,56	475,00
-3289,08	406,00
-3277,61	395,00
-3266,16	300,00
-3254,73	491,00
-3243,32	499,00
-3231,92	570,00
-3220,55	489,00
-3209,18	482,00
-3197,84	392,00
-3186,51	305,00
-3175,20	376,00
-3163,90	393,00
-3152,63	425,00
-3141,36	518,00
-3130,12	468,00
-3118,89	515,00
-3107,68	504,00
-3096,49	396,00
-3085,31	460,00
-3074,15	390,00
-3063,00	388,00
-3051,87	518,00
-3040,76	400,00
-3029,67	540,00
-3018,59	533,00
-3007,52	554,00
-2996,48	355,00
-2985,44	484,00
-2974,43	379,00
-2963,43	337,00
-2952,45	272,00
-2941,48	531,00
-2930,53	539,00
-2919,60	440,00
-2908,68	520,00
-2897,78	387,00
-2886,89	530,00
-2876,02	454,00
-2865,17	436,00
-2854,33	449,00
-2843,50	345,00
-2832,70	428,00
-2821,90	404,00
-2811,13	376,00
-2800,37	390,00
-2789,62	500,00
-2778,89	444,00
-2768,18	376,00
-2757,48	341,00
-2746,80	531,00
-2736,13	511,00
-2725,48	456,00
-2714,84	375,00
-2704,22	460,00
-2693,61	481,00
-2683,02	437,00
-2672,45	470,00
-2661,89	488,00
-2651,34	430,00
-2640,81	499,00
-2630,30	527,00
-2619,80	436,00
-2609,31	415,00
-2598,84	330,00
-2588,39	397,00
-2577,95	407,00
-2567,52	367,00
-2557,11	444,00
-2546,71	557,00
-2536,33	488,00
-2525,97	493,00
-2515,62	375,00
-2505,28	533,00
-2494,96	466,00
-2484,65	449,00
-2474,36	534,00
-2464,08	409,00
-2453,82	583,00
-2443,57	435,00
-2433,33	294,00
-2423,11	405,00
-2412,91	532,00
-2402,72	407,00
-2392,54	431,00
-2382,38	420,00
-2372,23	436,00
-2362,09	5098,00
-2351,97	390,00
-2341,87	401,00
-2331,78	507,00
-2321,70	418,00
-2311,64	453,00
-2301,59	353,00
-2291,55	409,00
-2281,53	485,00
-2271,53	442,00
-2261,53	396,00
-2251,55	452,00
-2241,59	362,00
-2231,64	336,00
-2221,70	562,00
-2211,78	468,00
-2201,87	443,00
-2191,97	590,00
-2182,09	481,00
-2172,22	519,00
-2162,37	415,00
-2152,53	392,00
-2142,70	398,00
-2132,89	485,00
-2123,09	474,00
-2113,30	479,00
-2103,53	491,00
-2093,77	536,00
-2084,02	396,00
-2074,29	579,00
-2064,57	486,00
-2054,86	462,00
-2045,17	495,00
-2035,49	453,00
-2025,82	336,00
-2016,17	428,00
-2006,53	409,00
-1996,91	469,00
-1987,29	401,00
-1977,69	488,00
-1968,11	439,00
-1958,53	487,00
-1948,97	433,00
-1939,42	512,00
-1929,89	294,00
-1920,37	457,00
-1910,86	384,00
-1901,36	542,00
-1891,88	510,00
-1882,41	357,00
-1872,95	407,00
-1863,51	366,00
-1854,08	430,00
-1844,66	384,00
-1835,26	466,00
-1825,86	383,00
-1816,48	308,00
-1807,11	445,00
-1797,76	555,00
-1788,42	565,00
-1779,09	460,00
-1769,77	535,00
-1760,47	718,00
-1751,17	454,00
-1741,89	393,00
-1732,63	524,00
-1723,37	586,00
-1714,13	464,00
-1704,90	336,00
-1695,68	518,00
-1686,48	373,00
-1677,29	411,00
-1668,11	543,00
-1658,94	521,00
-1649,78	367,00
-1640,64	534,00
-1631,51	468,00
-1622,39	408,00
-1613,28	451,00
-1604,19	499,00
-1595,10	407,00
-1586,03	412,00
-1576,97	340,00
-1567,93	453,00
-1558,89	371,00
-1549,87	457,00
-1540,86	469,00
-1531,86	433,00
-1522,87	417,00
-1513,90	430,00
-1504,93	466,00
-1495,98	411,00
-1487,04	522,00
-1478,12	441,00
-1469,20	387,00
-1460,30	491,00
-1451,40	407,00
-1442,52	417,00
-1433,65	447,00
-1424,80	526,00
-1415,95	370,00
-1407,12	522,00
-1398,30	475,00
-1389,48	453,00
-1380,69	392,00
-1371,90	473,00
-1363,12	487,00
-1354,36	431,00
-1345,60	386,00
-1336,86	468,00
-1328,13	538,00
-1319,41	430,00
-1310,70	409,00
-1302,01	341,00
-1293,32	338,00
-1284,65	527,00
-1275,99	508,00
-1267,33	527,00
-1258,69	460,00
-1250,06	498,00
-1241,45	463,00
-1232,84	451,00
-1224,25	504,00
-1215,66	569,00
-1207,09	468,00
-1198,53	491,00
-1189,97	568,00
-1181,43	335,00
-1172,91	520,00
-1164,39	379,00
-1155,88	383,00
-1147,38	386,00
-1138,90	384,00
-1130,43	507,00
-1121,96	427,00
-1113,51	485,00
-1105,07	365,00
-1096,64	462,00
-1088,22	499,00
-1079,81	474,00
-1071,41	466,00
-1063,02	482,00
-1054,65	520,00
-1046,28	525,00
-1037,92	464,00
-1029,58	479,00
-1021,24	462,00
-1012,92	653,00
-1004,61	389,00
-996,30	584,00
-988,01	335,00
-979,73	398,00
-971,46	469,00
-963,20	487,00
-954,95	336,00
-946,71	544,00
-938,48	399,00
-930,26	558,00
-922,06	463,00
-913,86	411,00
-905,67	450,00
-897,49	389,00
-889,33	393,00
-881,17	486,00
-873,02	510,00
-864,89	412,00
-856,76	291,00
-848,65	404,00
-840,54	457,00
-832,45	474,00
-824,36	271,00
-816,29	452,00
-808,22	475,00
-800,17	419,00
-792,12	567,00
-784,09	505,00
-776,06	362,00
-768,05	431,00
-760,04	520,00
-752,05	308,00
-744,07	414,00
-736,09	600,00
-728,13	372,00
-720,17	374,00
-712,23	548,00
-704,29	401,00
-696,37	412,00
-688,45	529,00
-680,55	470,00
-672,65	459,00
-664,77	486,00
-656,89	491,00
-649,03	388,00
-641,17	472,00
-633,32	455,00
-625,49	353,00
-617,66	592,00
-609,84	499,00
-602,03	485,00
-594,23	414,00
-586,45	564,00
-578,67	517,00
-570,90	401,00
-563,14	488,00
-555,39	500,00
-547,65	420,00
-539,91	518,00
-532,19	480,00
-524,48	620,00
-516,78	399,00
-509,08	405,00
-501,40	411,00
-493,72	413,00
-486,06	398,00
-478,40	494,00
-470,76	489,00
-463,12	331,00
-455,49	487,00
-447,87	331,00
-440,26	375,00
-432,66	451,00
-425,07	557,00
-417,49	440,00
-409,92	487,00
-402,35	428,00
-394,80	423,00
-387,25	451,00
-379,72	603,00
-372,19	423,00
-364,67	500,00
-357,17	467,00
-349,67	502,00
-342,18	538,00
-334,69	494,00
-327,22	537,00
-319,76	466,00
-312,30	515,00
-304,86	608,00
-297,42	435,00
-290,00	574,00
-282,58	459,00
-275,17	467,00
-267,77	489,00
-260,37	523,00
-252,99	512,00
-245,62	432,00
-238,25	508,00
-230,90	450,00
-223,55	655,00
-216,21	639,00
-208,88	667,00
-201,56	624,00
-194,25	610,00
-186,94	500,00
-179,65	526,00
-172,36	489,00
-165,08	580,00
-157,81	654,00
-150,55	686,00
-143,30	615,00
-136,06	733,00
-128,82	806,00
-121,60	709,00
-114,38	902,00
-107,17	938,00
-99,97	942,00
-92,78	1050,00
-85,60	1218,00
-78,42	1260,00
-71,25	1393,00
-64,10	1500,00
-56,95	1790,00
-49,81	2128,00
-42,67	2286,00
-35,55	2845,00
-28,43	3729,00
-21,33	5782,00
-14,23	17706,00
-7,14	55841,00
-0,05	55551,00
7,02	55287,00
14,09	55623,00
21,14	18392,00
28,19	7604,00
35,23	4795,00
42,27	3751,00
49,29	3119,00
56,31	2694,00
63,32	2445,00
70,32	2074,00
77,31	1748,00
84,29	1505,00
91,27	1396,00
98,23	1521,00
105,19	1308,00
112,14	1353,00
119,09	1668,00
126,02	2324,00
132,95	2605,00
139,87	2429,00
146,78	2570,00
153,68	2421,00
160,58	2366,00
167,46	2326,00
174,34	2278,00
181,21	2334,00
188,08	2314,00
194,93	2304,00
201,78	2254,00
208,62	2353,00
215,45	2179,00
222,27	2279,00
229,09	2234,00
235,90	2260,00
242,70	2209,00
249,49	2173,00
256,27	2073,00
263,05	2035,00
269,82	2065,00
276,58	2052,00
283,33	2019,00
290,08	2035,00
296,82	1905,00
303,55	1907,00
310,27	1799,00
316,98	1904,00
323,69	1898,00
330,39	1927,00
337,08	1937,00
343,76	1879,00
350,44	1954,00
357,11	1771,00
363,77	1848,00
370,42	1803,00
377,07	1804,00
383,71	1807,00
390,34	1839,00
396,96	1726,00
403,58	1823,00
410,19	1847,00
416,79	1900,00
423,38	1888,00
429,97	1883,00
436,55	1611,00
443,12	1787,00
449,68	1691,00
456,24	1623,00
462,79	1581,00
469,33	1643,00
475,86	1615,00
482,39	1543,00
488,91	1709,00
495,42	1504,00
501,93	1602,00
508,42	1520,00
514,91	1604,00
521,40	1431,00
527,87	1571,00
534,34	1553,00
540,80	1614,00
547,25	1625,00
553,70	1539,00
560,14	1603,00
566,57	1463,00
573,00	1412,00
579,41	1648,00
585,83	1312,00
592,23	1502,00
598,62	1501,00
605,01	1461,00
611,40	1541,00
617,77	1321,00
624,14	1380,00
630,50	1482,00
636,85	1415,00
643,20	1490,00
649,54	1284,00
655,87	1526,00
662,20	1400,00
668,52	1510,00
674,83	1517,00
681,13	1404,00
687,43	1478,00
693,72	1347,00
700,00	1385,00
706,28	1269,00
712,55	1419,00
718,81	1472,00
725,07	1388,00
731,32	1355,00
737,56	1499,00
743,79	1444,00
750,02	1432,00
756,24	1299,00
762,46	1483,00
768,67	1438,00
774,87	1405,00
781,06	1371,00
787,25	1440,00
793,43	1292,00
799,60	1300,00
805,77	1425,00
811,93	1356,00
818,08	1363,00
824,23	1371,00
830,37	1299,00
836,50	1257,00
842,63	1366,00
848,75	1396,00
854,87	1379,00
860,97	1418,00
867,07	1532,00
873,17	1400,00
879,25	1401,00
885,33	1414,00
891,41	1416,00
897,47	1334,00
903,53	1331,00
909,59	1384,00
915,63	1353,00
921,67	1332,00
927,71	1400,00
933,74	1419,00
939,76	1339,00
945,77	1371,00
951,78	1325,00
957,78	1294,00
963,78	1333,00
969,77	1298,00
975,75	1255,00
981,72	1388,00
987,69	1550,00
993,66	1303,00
999,61	1411,00
1005,56	1427,00
1011,51	1426,00
1017,44	1387,00
1023,37	1363,00
1029,30	1224,00
1035,22	1258,00
1041,13	1466,00
1047,03	1387,00
1052,93	1531,00
1058,83	2123,00
1064,71	2434,00
1070,59	2153,00
1076,47	1783,00
1082,33	1580,00
1088,20	1363,00
1094,05	1512,00
1099,90	1431,00
1105,74	1281,00
1111,58	1382,00
1117,41	1404,00
1123,23	2006,00
1129,05	2511,00
1134,86	2387,00
1140,67	1796,00
1146,47	1356,00
1152,26	1274,00
1158,05	1190,00
1163,83	1296,00
1169,60	1378,00
1175,37	1298,00
1181,13	1353,00
1186,89	1279,00
1192,64	1237,00
1198,38	1342,00
1204,12	1227,00
1209,85	1225,00
1215,58	1238,00
1221,30	1140,00
1227,02	1229,00
1232,72	1272,00
1238,43	1137,00
1244,12	1248,00
1249,81	1277,00
1255,50	1412,00
1261,17	1244,00
1266,85	1375,00
1272,51	1315,00
1278,17	1517,00
1283,83	1598,00
1289,47	2120,00
1295,12	2915,00
1300,75	2534,00
1306,38	2099,00
1312,01	1731,00
1317,63	1662,00
1323,24	1368,00
1328,85	1365,00
1334,45	1401,00
1340,04	1325,00
1345,63	1343,00
1351,22	1511,00
1356,80	1353,00
1362,37	1378,00
1367,93	1440,00
1373,49	1493,00
1379,05	1492,00
1384,60	1440,00
1390,14	1275,00
1395,68	1501,00
1401,21	1438,00
1406,74	1493,00
1412,26	1738,00
1417,77	2079,00
1423,28	1982,00
1428,78	2218,00
1434,28	2627,00
1439,77	2960,00
1445,26	2870,00
1450,74	2712,00
1456,22	2388,00
1461,68	2438,00
1467,15	2341,00
1472,61	1893,00
1478,06	1786,00
1483,51	1539,00
1488,95	1548,00
1494,38	1336,00
1499,81	1308,00
1505,24	1211,00
1510,65	1203,00
1516,07	1250,00
1521,48	1271,00
1526,88	1226,00
1532,27	1204,00
1537,67	1190,00
1543,05	1215,00
1548,43	1155,00
1553,81	1197,00
1559,18	1044,00
1564,54	1102,00
1569,90	1160,00
1575,25	1086,00
1580,60	1070,00
1585,94	1183,00
1591,28	1106,00
1596,61	1105,00
1601,93	1005,00
1607,25	1132,00
1612,57	1168,00
1617,88	1184,00
1623,18	1190,00
1628,48	1218,00
1633,77	1162,00
1639,06	1034,00
1644,34	1043,00
1649,62	984,00
1654,89	1065,00
1660,16	955,00
1665,42	870,00
1670,67	1123,00
1675,92	1122,00
1681,17	1021,00
1686,41	1058,00
1691,64	998,00
1696,87	1049,00
1702,10	966,00
1707,32	909,00
1712,53	984,00
1717,74	914,00
1722,94	1044,00
1728,14	1005,00
1733,33	945,00
1738,52	881,00
1743,70	978,00
1748,88	1012,00
1754,05	893,00
1759,22	856,00
1764,38	971,00
1769,53	1005,00
1774,69	1048,00
1779,83	968,00
1784,97	869,00
1790,11	876,00
1795,24	931,00
1800,36	876,00
1805,48	874,00
1810,60	948,00
1815,71	827,00
1820,82	904,00
1825,92	843,00
1831,01	878,00
1836,10	836,00
1841,19	825,00
1846,26	827,00
1851,34	944,00
1856,41	849,00
1861,47	879,00
1866,53	892,00
1871,59	800,00
1876,64	873,00
1881,68	863,00
1886,72	863,00
1891,76	842,00
1896,79	842,00
1901,81	706,00
1906,83	821,00
1911,85	936,00
1916,86	889,00
1921,86	723,00
1926,86	741,00
1931,86	769,00
1936,85	765,00
1941,83	703,00
1946,81	802,00
1951,79	654,00
1956,76	776,00
1961,72	634,00
1966,68	810,00
1971,64	613,00
1976,59	706,00
1981,54	685,00
1986,48	902,00
1991,42	643,00
1996,35	842,00
2001,27	736,00
2006,20	765,00
2011,11	728,00
2016,03	729,00
2020,93	743,00
2025,84	702,00
2030,73	693,00
2035,63	673,00
2040,52	702,00
2045,40	652,00
2050,28	772,00
2055,15	581,00
2060,02	642,00
2064,89	727,00
2069,75	738,00
2074,60	779,00
2079,46	692,00
2084,30	734,00
2089,14	713,00
2093,98	753,00
2098,81	746,00
2103,64	662,00
2108,46	800,00
2113,28	628,00
2118,09	647,00
2122,90	643,00
2127,70	582,00
2132,50	601,00
2137,30	647,00
2142,09	629,00
2146,87	700,00
2151,66	687,00
2156,43	798,00
2161,20	704,00
2165,97	813,00
2170,73	627,00
2175,49	821,00
2180,24	731,00
2184,99	709,00
2189,74	647,00
2194,48	781,00
2199,21	857,00
2203,94	719,00
2208,67	649,00
2213,39	634,00
2218,11	622,00
2222,82	612,00
2227,53	760,00
2232,23	760,00
2236,93	607,00
2241,63	830,00
2246,32	765,00
2251,00	653,00
2255,68	688,00
2260,36	591,00
2265,03	652,00
2269,70	615,00
2274,36	682,00
2279,02	681,00
2283,68	685,00
2288,33	426,00
2292,97	686,00
2297,61	658,00
2302,25	689,00
2306,88	646,00
2311,51	527,00
2316,14	664,00
2320,75	656,00
2325,37	641,00
2329,98	696,00
2334,59	633,00
2339,19	521,00
2343,79	678,00
2348,38	595,00
2352,97	594,00
2357,55	708,00
2362,13	549,00
2366,71	590,00
2371,28	656,00
2375,85	721,00
2380,41	609,00
2384,97	574,00
2389,52	632,00
2394,07	598,00
2398,62	629,00
2403,16	584,00
2407,70	534,00
2412,23	513,00
2416,76	586,00
2421,29	650,00
2425,81	629,00
2430,32	785,00
2434,84	549,00
2439,34	615,00
2443,85	631,00
2448,35	752,00
2452,84	661,00
2457,33	606,00
2461,82	589,00
2466,30	585,00
2470,78	531,00
2475,25	522,00
2479,72	580,00
2484,19	556,00
2488,65	644,00
2493,11	559,00
2497,56	677,00
2502,01	602,00
2506,46	691,00
2510,90	546,00
2515,34	610,00
2519,77	691,00
2524,20	597,00
2528,62	585,00
2533,04	615,00
2537,46	699,00
2541,87	633,00
2546,28	514,00
2550,68	647,00
2555,08	703,00
2559,48	607,00
2563,87	652,00
2568,26	725,00
2572,64	621,00
2577,02	623,00
2581,40	576,00
2585,77	625,00
2590,14	654,00
2594,50	494,00
2598,86	762,00
2603,22	543,00
2607,57	601,00
2611,92	693,00
2616,26	670,00
2620,60	544,00
2624,94	596,00
2629,27	667,00
2633,60	576,00
2637,92	621,00
2642,24	721,00
2646,56	673,00
2650,87	695,00
2655,18	688,00
2659,48	585,00
2663,78	655,00
2668,08	632,00
2672,37	520,00
2676,66	723,00
2680,95	671,00
2685,23	649,00
2689,50	735,00
2693,78	803,00
2698,05	581,00
2702,31	769,00
2706,57	792,00
2710,83	680,00
2715,08	761,00
2719,33	983,00
2723,58	802,00
2727,82	896,00
2732,06	663,00
2736,29	755,00
2740,53	769,00
2744,75	783,00
2748,97	736,00
2753,19	719,00
2757,41	771,00
2761,62	770,00
2765,83	801,00
2770,03	623,00
2774,23	794,00
2778,43	773,00
2782,62	721,00
2786,81	757,00
2791,00	777,00
2795,18	913,00
2799,35	847,00
2803,53	843,00
2807,70	959,00
2811,86	949,00
2816,03	869,00
2820,19	997,00
2824,34	1007,00
2828,49	1184,00
2832,64	1291,00
2836,78	1491,00
2840,92	1824,00
2845,06	2162,00
2849,19	2386,00
2853,32	2648,00
2857,45	2602,00
2861,57	2468,00
2865,69	2347,00
2869,80	2345,00
2873,91	2496,00
2878,02	2513,00
2882,12	2815,00
2886,22	2862,00
2890,32	2714,00
2894,41	2461,00
2898,50	2267,00
2902,58	2290,00
2906,67	2002,00
2910,74	1946,00
2914,82	1747,00
2918,89	1768,00
2922,96	1463,00
2927,02	1540,00
2931,08	1479,00
2935,13	1355,00
2939,19	1312,00
2943,24	1187,00
2947,28	963,00
2951,32	1015,00
2955,36	880,00
2959,40	891,00
2963,43	805,00
2967,46	818,00
2971,48	843,00
2975,50	733,00
2979,52	884,00
2983,53	714,00
2987,54	704,00
2991,55	695,00
2995,55	669,00
2999,55	645,00
3003,54	621,00
3007,54	584,00
3011,53	689,00
3015,51	553,00
3019,49	713,00
3023,47	636,00
3027,45	552,00
3031,42	574,00
3035,39	585,00
3039,35	570,00
3043,31	637,00
3047,27	547,00
3051,22	569,00
3055,17	597,00
3059,12	426,00
3063,06	551,00
3067,00	468,00
3070,94	553,00
3074,87	517,00
3078,80	558,00
3082,73	427,00
3086,65	547,00
3090,57	570,00
3094,49	466,00
3098,40	496,00
3102,31	521,00
3106,22	517,00
3110,12	500,00
3114,02	497,00
3117,92	535,00
3121,81	541,00
3125,70	501,00
3129,58	496,00
3133,47	483,00
3137,34	571,00
3141,22	451,00
3145,09	501,00
3148,96	407,00
3152,83	505,00
3156,69	368,00
3160,55	424,00
3164,40	586,00
3168,26	444,00
3172,10	584,00
3175,95	471,00
3179,79	632,00
3183,63	429,00
3187,47	545,00
3191,30	477,00
3195,13	496,00
3198,95	472,00
3202,78	493,00
3206,60	471,00
3210,41	343,00
3214,23	435,00
3218,03	518,00
3221,84	608,00
3225,64	598,00
3229,44	532,00
3233,24	583,00
3237,03	554,00
3240,82	417,00
3244,61	454,00
3248,39	499,00
3252,17	488,00
3255,95	482,00
3259,72	504,00
3263,49	611,00
3267,26	499,00
3271,03	509,00
3274,79	420,00
3278,54	472,00
3282,30	495,00
3286,05	467,00
3289,80	628,00
3293,54	476,00
3297,29	574,00
3301,02	503,00
3304,76	543,00
3308,49	482,00
3312,22	563,00
3315,95	389,00
3319,67	502,00
3323,39	512,00
3327,10	591,00
3330,82	472,00
3334,53	455,00
3338,24	538,00
3341,94	510,00
3345,64	626,00
3349,34	539,00
3353,03	585,00
3356,72	503,00
3360,41	584,00
3364,10	515,00
3367,78	391,00
3371,46	479,00
3375,13	500,00
3378,81	487,00
3382,48	503,00
3386,14	470,00
3389,81	496,00
3393,47	482,00
3397,12	509,00
3400,78	472,00
3404,43	489,00
3408,08	527,00
3411,72	504,00
3415,36	462,00
3419,00	484,00
3422,64	507,00
3426,27	466,00
3429,90	467,00
3433,53	463,00
3437,15	582,00
3440,77	503,00
3444,39	412,00
3448,00	598,00
3451,62	414,00
3455,22	476,00
3458,83	458,00
3462,43	334,00
3466,03	481,00
3469,63	520,00
3473,22	446,00
3476,81	470,00
3480,40	467,00
3483,99	481,00
3487,57	538,00
3491,15	390,00
3494,72	465,00
3498,29	403,00
3501,86	372,00
3505,43	493,00
3508,99	422,00
3512,56	533,00
3516,11	486,00
3519,67	356,00
3523,22	487,00
3526,77	349,00
3530,32	418,00
3533,86	317,00
3537,40	466,00
3540,94	462,00
3544,47	374,00
3548,00	424,00
3551,53	460,00
3555,06	363,00
3558,58	409,00
3562,10	524,00
3565,62	459,00
3569,13	288,00
3572,64	469,00
3576,15	406,00
3579,66	503,00
3583,16	491,00
3586,66	547,00
3590,16	541,00
3593,65	410,00
3597,14	408,00
3600,63	396,00
3604,11	526,00
3607,60	482,00
3611,08	595,00
3614,55	372,00
3618,03	377,00
3621,50	469,00
3624,97	318,00
3628,43	519,00
3631,90	466,00
3635,36	327,00
3638,81	402,00
3642,27	378,00
3645,72	355,00
3649,17	412,00
3652,61	429,00
3656,06	407,00
3659,50	320,00
3662,93	471,00
3666,37	417,00
3669,80	444,00
3673,23	395,00
3676,65	550,00
3680,08	426,00
3683,50	339,00
3686,92	415,00
3690,33	316,00
3693,74	382,00
3697,15	361,00
3700,56	485,00
3703,96	412,00
3707,36	416,00
3710,76	347,00
3714,16	428,00
3717,55	383,00
3720,94	435,00
3724,33	434,00
3727,71	424,00
3731,10	342,00
3734,48	455,00
3737,85	374,00
3741,23	408,00
3744,60	275,00
3747,97	336,00
3751,33	394,00
3754,69	474,00
3758,05	437,00
3761,41	355,00
3764,77	425,00
3768,12	252,00
3771,47	242,00
3774,82	298,00
3778,16	-12,00
3781,50	8,00
3784,84	7,00
3788,18	-1,00
>>>>>End Processed Spectral Data<<<<<
