SpectraSuite Data File
++++++++++++++++++++++++++++++++++++
Date: Wed Feb 04 16:07:27 ICT 2026
User: Administrator
Dark Spectrum Present: Yes
Reference Spectrum Present: No
Number of Sampled Component Spectra: 1
Spectrometers: MAYP113682
Integration Time (usec): 3000000 (MAYP113682)
Spectra Averaged: 1 (MAYP113682)
Boxcar Smoothing: 0 (MAYP113682)
Correct for Electrical Dark: No (MAYP113682)
Strobe/Lamp Enabled: No (MAYP113682)
Correct for Detector Non-linearity: No (MAYP113682)
Correct for Stray Light: No (MAYP113682)
Number of Pixels in Processed Spectrum: 2068
>>>>>Begin Processed Spectral Data<<<<<
-37534,58	9,00
-37414,56	4,00
-37295,11	3,00
-37176,24	4,00
-37057,95	249,00
-36940,22	336,00
-36823,05	375,00
-36706,45	369,00
-36590,40	361,00
-36474,90	242,00
-36359,95	440,00
-36245,55	393,00
-36131,68	439,00
-36018,35	351,00
-35905,55	459,00
-35793,29	327,00
-35681,54	452,00
-35570,32	409,00
-35459,62	353,00
-35349,43	416,00
-35239,75	451,00
-35130,58	448,00
-35021,91	302,00
-34913,74	459,00
-34806,07	422,00
-34698,89	426,00
-34592,20	353,00
-34486,00	438,00
-34380,28	443,00
-34275,04	346,00
-34170,27	349,00
-34065,98	326,00
-33962,16	432,00
-33858,81	362,00
-33755,92	513,00
-33653,49	443,00
-33551,52	366,00
-33450,01	561,00
-33348,94	386,00
-33248,33	461,00
-33148,16	484,00
-33048,43	388,00
-32949,14	521,00
-32850,29	401,00
-32751,87	389,00
-32653,89	544,00
-32556,33	550,00
-32459,20	402,00
-32362,49	336,00
-32266,19	480,00
-32170,32	414,00
-32074,86	518,00
-31979,82	399,00
-31885,18	477,00
-31790,95	453,00
-31697,12	470,00
-31603,69	552,00
-31510,67	397,00
-31418,04	387,00
-31325,80	373,00
-31233,95	479,00
-31142,49	435,00
-31051,42	468,00
-30960,73	503,00
-30870,43	532,00
-30780,50	403,00
-30690,95	581,00
-30601,77	407,00
-30512,97	476,00
-30424,53	552,00
-30336,46	440,00
-30248,76	479,00
-30161,42	459,00
-30074,44	398,00
-29987,81	505,00
-29901,55	393,00
-29815,63	438,00
-29730,07	428,00
-29644,86	351,00
-29560,00	419,00
-29475,48	395,00
-29391,30	428,00
-29307,47	484,00
-29223,97	291,00
-29140,81	503,00
-29057,99	376,00
-28975,50	353,00
-28893,34	463,00
-28811,51	413,00
-28730,00	542,00
-28648,82	416,00
-28567,97	468,00
-28487,43	520,00
-28407,21	471,00
-28327,32	416,00
-28247,73	561,00
-28168,46	371,00
-28089,50	421,00
-28010,85	427,00
-27932,51	274,00
-27854,48	574,00
-27776,75	332,00
-27699,32	432,00
-27622,19	455,00
-27545,37	368,00
-27468,84	388,00
-27392,60	520,00
-27316,66	271,00
-27241,01	542,00
-27165,66	429,00
-27090,59	457,00
-27015,81	465,00
-26941,31	419,00
-26867,10	523,00
-26793,17	582,00
-26719,52	470,00
-26646,15	292,00
-26573,06	481,00
-26500,24	448,00
-26427,70	529,00
-26355,43	398,00
-26283,43	408,00
-26211,71	493,00
-26140,25	447,00
-26069,06	604,00
-25998,13	443,00
-25927,46	484,00
-25857,06	348,00
-25786,92	374,00
-25717,04	291,00
-25647,42	569,00
-25578,05	464,00
-25508,94	530,00
-25440,09	488,00
-25371,48	458,00
-25303,13	515,00
-25235,02	539,00
-25167,17	455,00
-25099,56	378,00
-25032,19	373,00
-24965,07	502,00
-24898,20	443,00
-24831,56	449,00
-24765,17	457,00
-24699,01	514,00
-24633,10	327,00
-24567,41	529,00
-24501,97	617,00
-24436,75	484,00
-24371,77	402,00
-24307,03	471,00
-24242,51	399,00
-24178,22	566,00
-24114,16	526,00
-24050,32	498,00
-23986,71	405,00
-23923,32	456,00
-23860,16	249,00
-23797,22	547,00
-23734,50	477,00
-23672,00	370,00
-23609,71	563,00
-23547,65	370,00
-23485,80	521,00
-23424,16	327,00
-23362,74	542,00
-23301,53	431,00
-23240,54	365,00
-23179,75	383,00
-23119,17	442,00
-23058,80	527,00
-22998,64	406,00
-22938,68	357,00
-22878,93	321,00
-22819,39	429,00
-22760,04	309,00
-22700,90	336,00
-22641,96	438,00
-22583,22	413,00
-22524,68	385,00
-22466,33	527,00
-22408,19	418,00
-22350,23	361,00
-22292,48	409,00
-22234,92	399,00
-22177,55	512,00
-22120,37	483,00
-22063,38	383,00
-22006,58	355,00
-21949,98	387,00
-21893,56	291,00
-21837,33	374,00
-21781,28	360,00
-21725,42	424,00
-21669,74	535,00
-21614,25	539,00
-21558,94	371,00
-21503,81	448,00
-21448,86	401,00
-21394,10	505,00
-21339,51	419,00
-21285,10	426,00
-21230,86	415,00
-21176,81	398,00
-21122,93	348,00
-21069,22	436,00
-21015,69	265,00
-20962,33	450,00
-20909,14	367,00
-20856,13	431,00
-20803,28	448,00
-20750,61	415,00
-20698,10	355,00
-20645,76	386,00
-20593,59	409,00
-20541,59	563,00
-20489,75	395,00
-20438,07	411,00
-20386,56	437,00
-20335,22	372,00
-20284,03	362,00
-20233,01	482,00
-20182,15	428,00
-20131,45	563,00
-20080,91	425,00
-20030,52	482,00
-19980,30	387,00
-19930,23	358,00
-19880,32	491,00
-19830,56	426,00
-19780,96	480,00
-19731,52	527,00
-19682,23	454,00
-19633,09	393,00
-19584,10	457,00
-19535,26	458,00
-19486,58	409,00
-19438,04	527,00
-19389,66	368,00
-19341,42	381,00
-19293,33	339,00
-19245,39	439,00
-19197,60	471,00
-19149,95	437,00
-19102,45	504,00
-19055,09	382,00
-19007,87	449,00
-18960,80	555,00
-18913,87	515,00
-18867,09	366,00
-18820,44	451,00
-18773,94	502,00
-18727,57	448,00
-18681,35	582,00
-18635,26	403,00
-18589,31	455,00
-18543,50	464,00
-18497,83	472,00
-18452,29	451,00
-18406,89	543,00
-18361,63	456,00
-18316,50	443,00
-18271,50	313,00
-18226,63	521,00
-18181,90	438,00
-18137,30	454,00
-18092,84	444,00
-18048,50	481,00
-18004,29	347,00
-17960,22	380,00
-17916,27	324,00
-17872,45	418,00
-17828,76	564,00
-17785,20	398,00
-17741,77	465,00
-17698,46	408,00
-17655,28	379,00
-17612,22	423,00
-17569,29	485,00
-17526,48	429,00
-17483,79	451,00
-17441,23	424,00
-17398,79	360,00
-17356,48	480,00
-17314,28	586,00
-17272,21	452,00
-17230,26	456,00
-17188,42	476,00
-17146,71	440,00
-17105,12	354,00
-17063,64	367,00
-17022,28	388,00
-16981,04	465,00
-16939,92	357,00
-16898,91	387,00
-16858,02	501,00
-16817,25	390,00
-16776,59	461,00
-16736,04	374,00
-16695,61	464,00
-16655,29	467,00
-16615,09	371,00
-16574,99	419,00
-16535,01	336,00
-16495,15	476,00
-16455,39	316,00
-16415,74	391,00
-16376,21	462,00
-16336,78	302,00
-16297,46	286,00
-16258,26	328,00
-16219,16	566,00
-16180,17	394,00
-16141,28	375,00
-16102,51	336,00
-16063,84	457,00
-16025,27	461,00
-15986,82	444,00
-15948,46	380,00
-15910,22	487,00
-15872,07	421,00
-15834,04	439,00
-15796,10	315,00
-15758,27	458,00
-15720,54	501,00
-15682,91	446,00
-15645,39	542,00
-15607,97	449,00
-15570,64	387,00
-15533,42	537,00
-15496,30	475,00
-15459,28	380,00
-15422,36	299,00
-15385,54	390,00
-15348,82	469,00
-15312,19	476,00
-15275,66	329,00
-15239,23	481,00
-15202,90	490,00
-15166,67	407,00
-15130,53	486,00
-15094,48	351,00
-15058,54	392,00
-15022,68	361,00
-14986,93	437,00
-14951,26	415,00
-14915,69	425,00
-14880,22	434,00
-14844,84	470,00
-14809,55	525,00
-14774,35	412,00
-14739,25	493,00
-14704,24	372,00
-14669,32	400,00
-14634,49	390,00
-14599,75	540,00
-14565,10	455,00
-14530,55	396,00
-14496,08	291,00
-14461,70	423,00
-14427,41	370,00
-14393,21	512,00
-14359,10	323,00
-14325,07	506,00
-14291,14	459,00
-14257,29	571,00
-14223,52	411,00
-14189,85	545,00
-14156,26	549,00
-14122,76	404,00
-14089,34	363,00
-14056,01	497,00
-14022,76	421,00
-13989,60	435,00
-13956,52	486,00
-13923,53	341,00
-13890,62	398,00
-13857,79	410,00
-13825,05	403,00
-13792,39	381,00
-13759,81	401,00
-13727,31	319,00
-13694,90	454,00
-13662,57	403,00
-13630,31	376,00
-13598,14	365,00
-13566,05	411,00
-13534,05	361,00
-13502,12	439,00
-13470,27	448,00
-13438,50	533,00
-13406,80	384,00
-13375,19	345,00
-13343,66	362,00
-13312,20	454,00
-13280,83	348,00
-13249,53	399,00
-13218,30	341,00
-13187,16	404,00
-13156,09	466,00
-13125,10	369,00
-13094,18	518,00
-13063,34	447,00
-13032,58	312,00
-13001,89	380,00
-12971,28	333,00
-12940,74	300,00
-12910,27	401,00
-12879,88	404,00
-12849,57	531,00
-12819,33	563,00
-12789,16	317,00
-12759,06	482,00
-12729,04	500,00
-12699,09	818,00
-12669,21	552,00
-12639,41	423,00
-12609,68	381,00
-12580,02	516,00
-12550,43	380,00
-12520,91	387,00
-12491,46	318,00
-12462,08	346,00
-12432,77	507,00
-12403,54	444,00
-12374,37	493,00
-12345,27	449,00
-12316,24	436,00
-12287,29	392,00
-12258,40	374,00
-12229,57	459,00
-12200,82	344,00
-12172,14	431,00
-12143,52	336,00
-12114,97	335,00
-12086,49	446,00
-12058,07	388,00
-12029,73	412,00
-12001,44	482,00
-11973,23	507,00
-11945,08	442,00
-11917,00	397,00
-11888,98	487,00
-11861,03	377,00
-11833,15	511,00
-11805,32	467,00
-11777,57	447,00
-11749,88	426,00
-11722,25	472,00
-11694,69	374,00
-11667,19	446,00
-11639,75	322,00
-11612,38	443,00
-11585,07	359,00
-11557,83	435,00
-11530,65	421,00
-11503,53	475,00
-11476,47	498,00
-11449,48	412,00
-11422,54	449,00
-11395,67	424,00
-11368,86	495,00
-11342,11	451,00
-11315,43	493,00
-11288,80	364,00
-11262,23	447,00
-11235,73	393,00
-11209,28	412,00
-11182,90	427,00
-11156,57	445,00
-11130,31	500,00
-11104,10	483,00
-11077,96	410,00
-11051,87	382,00
-11025,84	493,00
-10999,87	444,00
-10973,96	498,00
-10948,11	378,00
-10922,31	427,00
-10896,58	403,00
-10870,90	477,00
-10845,28	458,00
-10819,71	499,00
-10794,20	513,00
-10768,75	404,00
-10743,36	330,00
-10718,02	484,00
-10692,74	427,00
-10667,52	457,00
-10642,35	501,00
-10617,24	490,00
-10592,18	339,00
-10567,18	303,00
-10542,23	440,00
-10517,34	466,00
-10492,51	456,00
-10467,72	450,00
-10443,00	522,00
-10418,32	568,00
-10393,70	509,00
-10369,14	462,00
-10344,63	548,00
-10320,17	350,00
-10295,77	400,00
-10271,42	450,00
-10247,12	518,00
-10222,88	380,00
-10198,68	302,00
-10174,54	428,00
-10150,46	537,00
-10126,42	444,00
-10102,44	413,00
-10078,51	531,00
-10054,63	584,00
-10030,80	540,00
-10007,03	583,00
-9983,30	511,00
-9959,63	395,00
-9936,01	611,00
-9912,44	587,00
-9888,92	518,00
-9865,44	396,00
-9842,02	590,00
-9818,65	504,00
-9795,33	488,00
-9772,06	435,00
-9748,84	576,00
-9725,67	464,00
-9702,55	657,00
-9679,47	533,00
-9656,45	739,00
-9633,47	532,00
-9610,55	681,00
-9587,67	725,00
-9564,84	858,00
-9542,06	828,00
-9519,32	797,00
-9496,64	816,00
-9474,00	839,00
-9451,41	844,00
-9428,87	797,00
-9406,37	751,00
-9383,92	745,00
-9361,52	707,00
-9339,17	808,00
-9316,86	953,00
-9294,60	821,00
-9272,38	1085,00
-9250,21	1166,00
-9228,09	1243,00
-9206,01	1074,00
-9183,98	1155,00
-9162,00	796,00
-9140,06	853,00
-9118,16	981,00
-9096,31	925,00
-9074,51	977,00
-9052,75	1008,00
-9031,04	1096,00
-9009,37	955,00
-8987,74	917,00
-8966,16	794,00
-8944,63	836,00
-8923,14	921,00
-8901,69	747,00
-8880,29	773,00
-8858,93	874,00
-8837,61	982,00
-8816,34	887,00
-8795,11	973,00
-8773,92	950,00
-8752,78	869,00
-8731,68	898,00
-8710,62	958,00
-8689,61	989,00
-8668,63	844,00
-8647,70	821,00
-8626,82	1079,00
-8605,97	802,00
-8585,17	813,00
-8564,41	734,00
-8543,69	839,00
-8523,01	637,00
-8502,37	783,00
-8481,78	796,00
-8461,23	801,00
-8440,71	854,00
-8420,24	836,00
-8399,81	907,00
-8379,42	926,00
-8359,08	943,00
-8338,77	847,00
-8318,50	777,00
-8298,27	782,00
-8278,09	750,00
-8257,94	824,00
-8237,83	970,00
-8217,76	828,00
-8197,74	790,00
-8177,75	884,00
-8157,80	788,00
-8137,89	706,00
-8118,02	789,00
-8098,19	852,00
-8078,40	699,00
-8058,65	775,00
-8038,93	681,00
-8019,26	584,00
-7999,62	803,00
-7980,02	635,00
-7960,46	687,00
-7940,94	632,00
-7921,46	808,00
-7902,01	681,00
-7882,60	804,00
-7863,23	728,00
-7843,90	547,00
-7824,61	620,00
-7805,35	857,00
-7786,13	699,00
-7766,95	813,00
-7747,80	759,00
-7728,69	708,00
-7709,62	777,00
-7690,59	696,00
-7671,59	710,00
-7652,63	628,00
-7633,70	785,00
-7614,81	775,00
-7595,96	629,00
-7577,15	614,00
-7558,37	500,00
-7539,62	796,00
-7520,91	592,00
-7502,24	729,00
-7483,60	676,00
-7465,00	559,00
-7446,44	623,00
-7427,91	534,00
-7409,41	646,00
-7390,95	587,00
-7372,53	650,00
-7354,14	560,00
-7335,78	456,00
-7317,46	606,00
-7299,18	482,00
-7280,92	521,00
-7262,71	729,00
-7244,52	708,00
-7226,38	585,00
-7208,26	553,00
-7190,18	822,00
-7172,14	641,00
-7154,12	615,00
-7136,15	658,00
-7118,20	585,00
-7100,29	716,00
-7082,41	641,00
-7064,57	655,00
-7046,76	554,00
-7028,98	545,00
-7011,24	626,00
-6993,53	426,00
-6975,85	449,00
-6958,20	445,00
-6940,59	244,00
-6923,01	510,00
-6905,46	493,00
-6887,94	594,00
-6870,46	700,00
-6853,01	599,00
-6835,59	572,00
-6818,21	515,00
-6800,85	449,00
-6783,53	401,00
-6766,24	546,00
-6748,98	376,00
-6731,76	350,00
-6714,56	454,00
-6697,40	557,00
-6680,26	399,00
-6663,16	452,00
-6646,09	543,00
-6629,05	440,00
-6612,05	397,00
-6595,07	529,00
-6578,13	636,00
-6561,21	531,00
-6544,33	564,00
-6527,47	493,00
-6510,65	469,00
-6493,86	444,00
-6477,10	439,00
-6460,36	482,00
-6443,66	482,00
-6426,99	370,00
-6410,35	519,00
-6393,74	550,00
-6377,16	569,00
-6360,61	495,00
-6344,09	586,00
-6327,59	338,00
-6311,13	426,00
-6294,70	496,00
-6278,29	532,00
-6261,92	404,00
-6245,58	394,00
-6229,26	389,00
-6212,97	481,00
-6196,72	515,00
-6180,49	508,00
-6164,29	330,00
-6148,12	565,00
-6131,98	460,00
-6115,86	423,00
-6099,78	315,00
-6083,72	384,00
-6067,69	466,00
-6051,69	455,00
-6035,72	401,00
-6019,78	363,00
-6003,87	456,00
-5987,98	392,00
-5972,12	582,00
-5956,29	429,00
-5940,49	347,00
-5924,71	514,00
-5908,96	391,00
-5893,24	405,00
-5877,55	456,00
-5861,89	410,00
-5846,25	428,00
-5830,64	485,00
-5815,05	430,00
-5799,50	508,00
-5783,97	457,00
-5768,47	485,00
-5752,99	508,00
-5737,55	458,00
-5722,12	309,00
-5706,73	357,00
-5691,36	488,00
-5676,02	412,00
-5660,71	478,00
-5645,42	470,00
-5630,16	473,00
-5614,92	366,00
-5599,71	503,00
-5584,53	419,00
-5569,37	393,00
-5554,24	505,00
-5539,14	401,00
-5524,06	403,00
-5509,01	411,00
-5493,98	500,00
-5478,98	579,00
-5464,00	538,00
-5449,05	414,00
-5434,13	341,00
-5419,23	492,00
-5404,36	361,00
-5389,51	321,00
-5374,69	540,00
-5359,89	410,00
-5345,12	461,00
-5330,37	515,00
-5315,65	348,00
-5300,95	499,00
-5286,28	420,00
-5271,63	376,00
-5257,01	398,00
-5242,41	400,00
-5227,84	377,00
-5213,29	442,00
-5198,76	408,00
-5184,26	337,00
-5169,79	423,00
-5155,33	415,00
-5140,91	557,00
-5126,51	378,00
-5112,13	312,00
-5097,77	438,00
-5083,44	496,00
-5069,13	409,00
-5054,85	326,00
-5040,59	409,00
-5026,36	428,00
-5012,15	420,00
-4997,96	557,00
-4983,80	329,00
-4969,66	358,00
-4955,54	441,00
-4941,44	438,00
-4927,37	396,00
-4913,33	467,00
-4899,30	309,00
-4885,30	471,00
-4871,33	515,00
-4857,37	426,00
-4843,44	507,00
-4829,53	490,00
-4815,65	461,00
-4801,79	419,00
-4787,95	431,00
-4774,13	309,00
-4760,34	308,00
-4746,56	387,00
-4732,82	399,00
-4719,09	356,00
-4705,38	524,00
-4691,70	429,00
-4678,04	468,00
-4664,41	511,00
-4650,79	494,00
-4637,20	534,00
-4623,63	333,00
-4610,08	421,00
-4596,56	449,00
-4583,05	387,00
-4569,57	362,00
-4556,11	536,00
-4542,67	430,00
-4529,25	439,00
-4515,86	376,00
-4502,49	521,00
-4489,13	477,00
-4475,80	482,00
-4462,49	390,00
-4449,21	500,00
-4435,94	395,00
-4422,70	366,00
-4409,47	403,00
-4396,27	460,00
-4383,09	516,00
-4369,93	549,00
-4356,79	421,00
-4343,67	419,00
-4330,58	475,00
-4317,50	323,00
-4304,45	493,00
-4291,41	415,00
-4278,40	399,00
-4265,41	450,00
-4252,44	363,00
-4239,49	369,00
-4226,55	437,00
-4213,65	495,00
-4200,76	453,00
-4187,89	274,00
-4175,04	405,00
-4162,21	439,00
-4149,40	378,00
-4136,61	542,00
-4123,85	546,00
-4111,10	367,00
-4098,37	487,00
-4085,66	450,00
-4072,98	396,00
-4060,31	423,00
-4047,66	472,00
-4035,04	668,00
-4022,43	371,00
-4009,84	442,00
-3997,27	378,00
-3984,72	374,00
-3972,19	409,00
-3959,69	351,00
-3947,20	334,00
-3934,73	420,00
-3922,27	408,00
-3909,84	350,00
-3897,43	435,00
-3885,04	461,00
-3872,67	417,00
-3860,31	437,00
-3847,98	364,00
-3835,66	438,00
-3823,36	393,00
-3811,09	372,00
-3798,83	474,00
-3786,59	536,00
-3774,37	517,00
-3762,17	503,00
-3749,98	380,00
-3737,82	432,00
-3725,67	526,00
-3713,55	452,00
-3701,44	448,00
-3689,35	303,00
-3677,28	378,00
-3665,22	392,00
-3653,19	418,00
-3641,17	469,00
-3629,18	576,00
-3617,20	619,00
-3605,24	388,00
-3593,30	465,00
-3581,37	400,00
-3569,47	423,00
-3557,58	425,00
-3545,71	446,00
-3533,86	540,00
-3522,02	337,00
-3510,21	518,00
-3498,41	436,00
-3486,63	488,00
-3474,87	520,00
-3463,12	412,00
-3451,40	423,00
-3439,69	477,00
-3428,00	437,00
-3416,33	538,00
-3404,67	363,00
-3393,03	439,00
-3381,41	399,00
-3369,81	481,00
-3358,22	399,00
-3346,66	565,00
-3335,10	385,00
-3323,57	380,00
-3312,06	386,00
-3300,56	419,00
-3289,08	444,00
-3277,61	373,00
-3266,16	400,00
-3254,73	516,00
-3243,32	523,00
-3231,92	565,00
-3220,55	463,00
-3209,18	423,00
-3197,84	481,00
-3186,51	283,00
-3175,20	396,00
-3163,90	370,00
-3152,63	450,00
-3141,36	496,00
-3130,12	422,00
-3118,89	502,00
-3107,68	522,00
-3096,49	408,00
-3085,31	480,00
-3074,15	471,00
-3063,00	305,00
-3051,87	578,00
-3040,76	521,00
-3029,67	457,00
-3018,59	554,00
-3007,52	477,00
-2996,48	443,00
-2985,44	491,00
-2974,43	301,00
-2963,43	458,00
-2952,45	255,00
-2941,48	471,00
-2930,53	494,00
-2919,60	509,00
-2908,68	536,00
-2897,78	409,00
-2886,89	547,00
-2876,02	356,00
-2865,17	485,00
-2854,33	445,00
-2843,50	468,00
-2832,70	524,00
-2821,90	355,00
-2811,13	560,00
-2800,37	356,00
-2789,62	564,00
-2778,89	540,00
-2768,18	463,00
-2757,48	453,00
-2746,80	565,00
-2736,13	427,00
-2725,48	339,00
-2714,84	385,00
-2704,22	535,00
-2693,61	401,00
-2683,02	456,00
-2672,45	445,00
-2661,89	307,00
-2651,34	493,00
-2640,81	413,00
-2630,30	503,00
-2619,80	485,00
-2609,31	408,00
-2598,84	430,00
-2588,39	430,00
-2577,95	474,00
-2567,52	382,00
-2557,11	517,00
-2546,71	520,00
-2536,33	434,00
-2525,97	434,00
-2515,62	432,00
-2505,28	386,00
-2494,96	494,00
-2484,65	481,00
-2474,36	588,00
-2464,08	413,00
-2453,82	552,00
-2443,57	501,00
-2433,33	381,00
-2423,11	364,00
-2412,91	492,00
-2402,72	443,00
-2392,54	397,00
-2382,38	459,00
-2372,23	456,00
-2362,09	5041,00
-2351,97	288,00
-2341,87	467,00
-2331,78	395,00
-2321,70	358,00
-2311,64	454,00
-2301,59	384,00
-2291,55	357,00
-2281,53	413,00
-2271,53	259,00
-2261,53	459,00
-2251,55	556,00
-2241,59	409,00
-2231,64	369,00
-2221,70	540,00
-2211,78	477,00
-2201,87	454,00
-2191,97	560,00
-2182,09	444,00
-2172,22	405,00
-2162,37	456,00
-2152,53	373,00
-2142,70	399,00
-2132,89	468,00
-2123,09	529,00
-2113,30	395,00
-2103,53	492,00
-2093,77	499,00
-2084,02	355,00
-2074,29	514,00
-2064,57	462,00
-2054,86	503,00
-2045,17	448,00
-2035,49	579,00
-2025,82	399,00
-2016,17	445,00
-2006,53	535,00
-1996,91	398,00
-1987,29	406,00
-1977,69	495,00
-1968,11	442,00
-1958,53	382,00
-1948,97	364,00
-1939,42	431,00
-1929,89	386,00
-1920,37	487,00
-1910,86	399,00
-1901,36	413,00
-1891,88	490,00
-1882,41	254,00
-1872,95	436,00
-1863,51	337,00
-1854,08	404,00
-1844,66	514,00
-1835,26	579,00
-1825,86	472,00
-1816,48	383,00
-1807,11	340,00
-1797,76	438,00
-1788,42	540,00
-1779,09	532,00
-1769,77	481,00
-1760,47	695,00
-1751,17	357,00
-1741,89	480,00
-1732,63	522,00
-1723,37	473,00
-1714,13	536,00
-1704,90	379,00
-1695,68	487,00
-1686,48	405,00
-1677,29	417,00
-1668,11	649,00
-1658,94	454,00
-1649,78	402,00
-1640,64	423,00
-1631,51	545,00
-1622,39	422,00
-1613,28	377,00
-1604,19	548,00
-1595,10	461,00
-1586,03	403,00
-1576,97	425,00
-1567,93	420,00
-1558,89	495,00
-1549,87	496,00
-1540,86	423,00
-1531,86	434,00
-1522,87	389,00
-1513,90	475,00
-1504,93	400,00
-1495,98	453,00
-1487,04	536,00
-1478,12	362,00
-1469,20	398,00
-1460,30	414,00
-1451,40	358,00
-1442,52	367,00
-1433,65	437,00
-1424,80	467,00
-1415,95	393,00
-1407,12	485,00
-1398,30	574,00
-1389,48	475,00
-1380,69	362,00
-1371,90	458,00
-1363,12	525,00
-1354,36	468,00
-1345,60	351,00
-1336,86	532,00
-1328,13	410,00
-1319,41	471,00
-1310,70	373,00
-1302,01	398,00
-1293,32	376,00
-1284,65	426,00
-1275,99	419,00
-1267,33	443,00
-1258,69	362,00
-1250,06	468,00
-1241,45	461,00
-1232,84	527,00
-1224,25	431,00
-1215,66	516,00
-1207,09	492,00
-1198,53	452,00
-1189,97	577,00
-1181,43	371,00
-1172,91	479,00
-1164,39	417,00
-1155,88	393,00
-1147,38	443,00
-1138,90	366,00
-1130,43	448,00
-1121,96	328,00
-1113,51	418,00
-1105,07	386,00
-1096,64	485,00
-1088,22	505,00
-1079,81	403,00
-1071,41	427,00
-1063,02	386,00
-1054,65	404,00
-1046,28	444,00
-1037,92	462,00
-1029,58	557,00
-1021,24	439,00
-1012,92	629,00
-1004,61	373,00
-996,30	513,00
-988,01	348,00
-979,73	545,00
-971,46	463,00
-963,20	447,00
-954,95	334,00
-946,71	523,00
-938,48	354,00
-930,26	538,00
-922,06	472,00
-913,86	567,00
-905,67	444,00
-897,49	447,00
-889,33	421,00
-881,17	576,00
-873,02	477,00
-864,89	418,00
-856,76	392,00
-848,65	559,00
-840,54	337,00
-832,45	462,00
-824,36	290,00
-816,29	582,00
-808,22	496,00
-800,17	471,00
-792,12	501,00
-784,09	490,00
-776,06	478,00
-768,05	349,00
-760,04	346,00
-752,05	298,00
-744,07	360,00
-736,09	507,00
-728,13	306,00
-720,17	389,00
-712,23	528,00
-704,29	393,00
-696,37	489,00
-688,45	488,00
-680,55	531,00
-672,65	436,00
-664,77	390,00
-656,89	402,00
-649,03	323,00
-641,17	434,00
-633,32	415,00
-625,49	416,00
-617,66	573,00
-609,84	467,00
-602,03	431,00
-594,23	526,00
-586,45	586,00
-578,67	501,00
-570,90	327,00
-563,14	461,00
-555,39	487,00
-547,65	485,00
-539,91	497,00
-532,19	432,00
-524,48	461,00
-516,78	454,00
-509,08	481,00
-501,40	387,00
-493,72	548,00
-486,06	424,00
-478,40	404,00
-470,76	457,00
-463,12	370,00
-455,49	528,00
-447,87	348,00
-440,26	410,00
-432,66	481,00
-425,07	579,00
-417,49	428,00
-409,92	466,00
-402,35	425,00
-394,80	410,00
-387,25	359,00
-379,72	563,00
-372,19	432,00
-364,67	494,00
-357,17	529,00
-349,67	481,00
-342,18	477,00
-334,69	513,00
-327,22	529,00
-319,76	474,00
-312,30	621,00
-304,86	497,00
-297,42	424,00
-290,00	513,00
-282,58	562,00
-275,17	495,00
-267,77	464,00
-260,37	483,00
-252,99	395,00
-245,62	464,00
-238,25	435,00
-230,90	392,00
-223,55	568,00
-216,21	607,00
-208,88	639,00
-201,56	607,00
-194,25	685,00
-186,94	532,00
-179,65	537,00
-172,36	499,00
-165,08	507,00
-157,81	669,00
-150,55	738,00
-143,30	595,00
-136,06	688,00
-128,82	806,00
-121,60	717,00
-114,38	898,00
-107,17	923,00
-99,97	930,00
-92,78	1065,00
-85,60	1208,00
-78,42	1213,00
-71,25	1443,00
-64,10	1449,00
-56,95	1788,00
-49,81	2083,00
-42,67	2382,00
-35,55	2899,00
-28,43	3713,00
-21,33	5837,00
-14,23	17533,00
-7,14	55841,00
-0,05	55551,00
7,02	55287,00
14,09	55623,00
21,14	18518,00
28,19	7592,00
35,23	4755,00
42,27	3804,00
49,29	3118,00
56,31	2647,00
63,32	2414,00
70,32	2095,00
77,31	1660,00
84,29	1578,00
91,27	1428,00
98,23	1360,00
105,19	1285,00
112,14	1329,00
119,09	1693,00
126,02	2400,00
132,95	2582,00
139,87	2497,00
146,78	2640,00
153,68	2403,00
160,58	2362,00
167,46	2340,00
174,34	2361,00
181,21	2449,00
188,08	2243,00
194,93	2269,00
201,78	2293,00
208,62	2385,00
215,45	2246,00
222,27	2210,00
229,09	2264,00
235,90	2201,00
242,70	2272,00
249,49	2255,00
256,27	2087,00
263,05	2089,00
269,82	2164,00
276,58	1984,00
283,33	2020,00
290,08	2054,00
296,82	1916,00
303,55	1853,00
310,27	1910,00
316,98	1976,00
323,69	1949,00
330,39	1830,00
337,08	1981,00
343,76	1836,00
350,44	1867,00
357,11	1759,00
363,77	1871,00
370,42	1785,00
377,07	1702,00
383,71	1728,00
390,34	1837,00
396,96	1743,00
403,58	1885,00
410,19	1979,00
416,79	1899,00
423,38	1896,00
429,97	1867,00
436,55	1544,00
443,12	1775,00
449,68	1638,00
456,24	1646,00
462,79	1639,00
469,33	1601,00
475,86	1599,00
482,39	1612,00
488,91	1738,00
495,42	1577,00
501,93	1578,00
508,42	1514,00
514,91	1581,00
521,40	1475,00
527,87	1503,00
534,34	1530,00
540,80	1618,00
547,25	1638,00
553,70	1468,00
560,14	1531,00
566,57	1501,00
573,00	1523,00
579,41	1477,00
585,83	1416,00
592,23	1531,00
598,62	1517,00
605,01	1363,00
611,40	1552,00
617,77	1307,00
624,14	1461,00
630,50	1355,00
636,85	1474,00
643,20	1599,00
649,54	1419,00
655,87	1503,00
662,20	1346,00
668,52	1566,00
674,83	1556,00
681,13	1478,00
687,43	1515,00
693,72	1321,00
700,00	1319,00
706,28	1366,00
712,55	1346,00
718,81	1449,00
725,07	1372,00
731,32	1332,00
737,56	1479,00
743,79	1363,00
750,02	1453,00
756,24	1333,00
762,46	1429,00
768,67	1383,00
774,87	1382,00
781,06	1418,00
787,25	1462,00
793,43	1335,00
799,60	1241,00
805,77	1507,00
811,93	1314,00
818,08	1306,00
824,23	1299,00
830,37	1387,00
836,50	1405,00
842,63	1348,00
848,75	1525,00
854,87	1420,00
860,97	1441,00
867,07	1381,00
873,17	1374,00
879,25	1422,00
885,33	1364,00
891,41	1544,00
897,47	1411,00
903,53	1372,00
909,59	1318,00
915,63	1343,00
921,67	1342,00
927,71	1333,00
933,74	1367,00
939,76	1266,00
945,77	1312,00
951,78	1347,00
957,78	1237,00
963,78	1239,00
969,77	1346,00
975,75	1335,00
981,72	1320,00
987,69	1568,00
993,66	1283,00
999,61	1323,00
1005,56	1417,00
1011,51	1406,00
1017,44	1382,00
1023,37	1352,00
1029,30	1305,00
1035,22	1335,00
1041,13	1389,00
1047,03	1466,00
1052,93	1661,00
1058,83	2297,00
1064,71	2507,00
1070,59	2066,00
1076,47	1763,00
1082,33	1631,00
1088,20	1433,00
1094,05	1476,00
1099,90	1501,00
1105,74	1346,00
1111,58	1385,00
1117,41	1525,00
1123,23	2106,00
1129,05	2510,00
1134,86	2387,00
1140,67	1811,00
1146,47	1340,00
1152,26	1331,00
1158,05	1181,00
1163,83	1340,00
1169,60	1385,00
1175,37	1322,00
1181,13	1291,00
1186,89	1265,00
1192,64	1252,00
1198,38	1411,00
1204,12	1234,00
1209,85	1297,00
1215,58	1345,00
1221,30	1183,00
1227,02	1180,00
1232,72	1237,00
1238,43	1192,00
1244,12	1206,00
1249,81	1325,00
1255,50	1296,00
1261,17	1204,00
1266,85	1359,00
1272,51	1325,00
1278,17	1490,00
1283,83	1571,00
1289,47	2098,00
1295,12	2852,00
1300,75	2714,00
1306,38	2141,00
1312,01	1702,00
1317,63	1598,00
1323,24	1382,00
1328,85	1365,00
1334,45	1319,00
1340,04	1257,00
1345,63	1392,00
1351,22	1516,00
1356,80	1393,00
1362,37	1404,00
1367,93	1403,00
1373,49	1509,00
1379,05	1486,00
1384,60	1501,00
1390,14	1306,00
1395,68	1483,00
1401,21	1478,00
1406,74	1479,00
1412,26	1851,00
1417,77	2077,00
1423,28	2042,00
1428,78	2278,00
1434,28	2639,00
1439,77	3036,00
1445,26	2909,00
1450,74	2631,00
1456,22	2532,00
1461,68	2487,00
1467,15	2313,00
1472,61	1953,00
1478,06	1767,00
1483,51	1580,00
1488,95	1443,00
1494,38	1363,00
1499,81	1210,00
1505,24	1226,00
1510,65	1240,00
1516,07	1235,00
1521,48	1157,00
1526,88	1188,00
1532,27	1297,00
1537,67	1054,00
1543,05	1190,00
1548,43	1134,00
1553,81	1176,00
1559,18	994,00
1564,54	1115,00
1569,90	1201,00
1575,25	1183,00
1580,60	1110,00
1585,94	1095,00
1591,28	1120,00
1596,61	1017,00
1601,93	1096,00
1607,25	1119,00
1612,57	1177,00
1617,88	1085,00
1623,18	1220,00
1628,48	1164,00
1633,77	1135,00
1639,06	1127,00
1644,34	1005,00
1649,62	956,00
1654,89	1062,00
1660,16	1102,00
1665,42	1019,00
1670,67	1065,00
1675,92	1096,00
1681,17	1046,00
1686,41	999,00
1691,64	1048,00
1696,87	1072,00
1702,10	1000,00
1707,32	930,00
1712,53	1083,00
1717,74	976,00
1722,94	1072,00
1728,14	989,00
1733,33	843,00
1738,52	943,00
1743,70	915,00
1748,88	946,00
1754,05	973,00
1759,22	877,00
1764,38	2430,00
1769,53	886,00
1774,69	1001,00
1779,83	919,00
1784,97	925,00
1790,11	862,00
1795,24	915,00
1800,36	880,00
1805,48	987,00
1810,60	966,00
1815,71	808,00
1820,82	838,00
1825,92	957,00
1831,01	908,00
1836,10	882,00
1841,19	866,00
1846,26	831,00
1851,34	922,00
1856,41	889,00
1861,47	882,00
1866,53	816,00
1871,59	821,00
1876,64	872,00
1881,68	780,00
1886,72	874,00
1891,76	795,00
1896,79	866,00
1901,81	753,00
1906,83	779,00
1911,85	774,00
1916,86	956,00
1921,86	829,00
1926,86	770,00
1931,86	751,00
1936,85	747,00
1941,83	680,00
1946,81	721,00
1951,79	706,00
1956,76	753,00
1961,72	669,00
1966,68	763,00
1971,64	645,00
1976,59	683,00
1981,54	744,00
1986,48	753,00
1991,42	763,00
1996,35	868,00
2001,27	786,00
2006,20	722,00
2011,11	726,00
2016,03	738,00
2020,93	708,00
2025,84	768,00
2030,73	773,00
2035,63	678,00
2040,52	810,00
2045,40	717,00
2050,28	752,00
2055,15	646,00
2060,02	708,00
2064,89	773,00
2069,75	771,00
2074,60	742,00
2079,46	740,00
2084,30	645,00
2089,14	738,00
2093,98	683,00
2098,81	673,00
2103,64	636,00
2108,46	809,00
2113,28	788,00
2118,09	655,00
2122,90	786,00
2127,70	611,00
2132,50	688,00
2137,30	740,00
2142,09	608,00
2146,87	685,00
2151,66	719,00
2156,43	838,00
2161,20	751,00
2165,97	738,00
2170,73	583,00
2175,49	802,00
2180,24	703,00
2184,99	718,00
2189,74	643,00
2194,48	749,00
2199,21	788,00
2203,94	617,00
2208,67	688,00
2213,39	624,00
2218,11	718,00
2222,82	726,00
2227,53	751,00
2232,23	695,00
2236,93	685,00
2241,63	779,00
2246,32	753,00
2251,00	640,00
2255,68	733,00
2260,36	693,00
2265,03	690,00
2269,70	702,00
2274,36	609,00
2279,02	679,00
2283,68	584,00
2288,33	628,00
2292,97	625,00
2297,61	697,00
2302,25	690,00
2306,88	653,00
2311,51	544,00
2316,14	574,00
2320,75	695,00
2325,37	549,00
2329,98	690,00
2334,59	556,00
2339,19	590,00
2343,79	579,00
2348,38	666,00
2352,97	524,00
2357,55	707,00
2362,13	640,00
2366,71	594,00
2371,28	636,00
2375,85	666,00
2380,41	585,00
2384,97	597,00
2389,52	627,00
2394,07	647,00
2398,62	728,00
2403,16	638,00
2407,70	630,00
2412,23	615,00
2416,76	572,00
2421,29	674,00
2425,81	630,00
2430,32	688,00
2434,84	564,00
2439,34	603,00
2443,85	626,00
2448,35	725,00
2452,84	661,00
2457,33	543,00
2461,82	609,00
2466,30	622,00
2470,78	603,00
2475,25	484,00
2479,72	597,00
2484,19	541,00
2488,65	543,00
2493,11	649,00
2497,56	604,00
2502,01	612,00
2506,46	642,00
2510,90	560,00
2515,34	524,00
2519,77	581,00
2524,20	525,00
2528,62	647,00
2533,04	592,00
2537,46	684,00
2541,87	513,00
2546,28	506,00
2550,68	653,00
2555,08	635,00
2559,48	609,00
2563,87	536,00
2568,26	658,00
2572,64	651,00
2577,02	724,00
2581,40	601,00
2585,77	655,00
2590,14	717,00
2594,50	480,00
2598,86	675,00
2603,22	700,00
2607,57	602,00
2611,92	624,00
2616,26	700,00
2620,60	592,00
2624,94	584,00
2629,27	688,00
2633,60	550,00
2637,92	684,00
2642,24	769,00
2646,56	708,00
2650,87	735,00
2655,18	763,00
2659,48	606,00
2663,78	626,00
2668,08	687,00
2672,37	549,00
2676,66	658,00
2680,95	564,00
2685,23	754,00
2689,50	721,00
2693,78	668,00
2698,05	649,00
2702,31	704,00
2706,57	707,00
2710,83	794,00
2715,08	723,00
2719,33	989,00
2723,58	777,00
2727,82	923,00
2732,06	731,00
2736,29	776,00
2740,53	706,00
2744,75	810,00
2748,97	767,00
2753,19	685,00
2757,41	746,00
2761,62	742,00
2765,83	858,00
2770,03	690,00
2774,23	729,00
2778,43	784,00
2782,62	704,00
2786,81	868,00
2791,00	795,00
2795,18	920,00
2799,35	871,00
2803,53	831,00
2807,70	955,00
2811,86	889,00
2816,03	950,00
2820,19	943,00
2824,34	1028,00
2828,49	1187,00
2832,64	1357,00
2836,78	1487,00
2840,92	1882,00
2845,06	2163,00
2849,19	2561,00
2853,32	2689,00
2857,45	2718,00
2861,57	2572,00
2865,69	2508,00
2869,80	2399,00
2873,91	2508,00
2878,02	2726,00
2882,12	2944,00
2886,22	2921,00
2890,32	2757,00
2894,41	2526,00
2898,50	2452,00
2902,58	2250,00
2906,67	2077,00
2910,74	1943,00
2914,82	1817,00
2918,89	1823,00
2922,96	1498,00
2927,02	1621,00
2931,08	1491,00
2935,13	1432,00
2939,19	1331,00
2943,24	1099,00
2947,28	1080,00
2951,32	1020,00
2955,36	925,00
2959,40	1008,00
2963,43	689,00
2967,46	829,00
2971,48	827,00
2975,50	760,00
2979,52	854,00
2983,53	782,00
2987,54	707,00
2991,55	731,00
2995,55	667,00
2999,55	670,00
3003,54	601,00
3007,54	582,00
3011,53	614,00
3015,51	480,00
3019,49	690,00
3023,47	661,00
3027,45	574,00
3031,42	559,00
3035,39	536,00
3039,35	641,00
3043,31	570,00
3047,27	458,00
3051,22	569,00
3055,17	605,00
3059,12	442,00
3063,06	560,00
3067,00	424,00
3070,94	502,00
3074,87	523,00
3078,80	526,00
3082,73	399,00
3086,65	613,00
3090,57	597,00
3094,49	599,00
3098,40	568,00
3102,31	458,00
3106,22	514,00
3110,12	429,00
3114,02	438,00
3117,92	550,00
3121,81	477,00
3125,70	483,00
3129,58	444,00
3133,47	454,00
3137,34	607,00
3141,22	496,00
3145,09	513,00
3148,96	425,00
3152,83	434,00
3156,69	344,00
3160,55	345,00
3164,40	555,00
3168,26	456,00
3172,10	688,00
3175,95	528,00
3179,79	478,00
3183,63	438,00
3187,47	568,00
3191,30	474,00
3195,13	621,00
3198,95	373,00
3202,78	509,00
3206,60	408,00
3210,41	355,00
3214,23	519,00
3218,03	439,00
3221,84	525,00
3225,64	511,00
3229,44	550,00
3233,24	463,00
3237,03	507,00
3240,82	535,00
3244,61	549,00
3248,39	509,00
3252,17	473,00
3255,95	536,00
3259,72	433,00
3263,49	567,00
3267,26	593,00
3271,03	464,00
3274,79	468,00
3278,54	394,00
3282,30	524,00
3286,05	486,00
3289,80	541,00
3293,54	383,00
3297,29	611,00
3301,02	548,00
3304,76	527,00
3308,49	517,00
3312,22	411,00
3315,95	466,00
3319,67	422,00
3323,39	534,00
3327,10	488,00
3330,82	521,00
3334,53	418,00
3338,24	486,00
3341,94	473,00
3345,64	529,00
3349,34	604,00
3353,03	506,00
3356,72	562,00
3360,41	521,00
3364,10	543,00
3367,78	399,00
3371,46	491,00
3375,13	423,00
3378,81	540,00
3382,48	607,00
3386,14	519,00
3389,81	513,00
3393,47	449,00
3397,12	445,00
3400,78	449,00
3404,43	482,00
3408,08	538,00
3411,72	517,00
3415,36	521,00
3419,00	413,00
3422,64	420,00
3426,27	385,00
3429,90	441,00
3433,53	391,00
3437,15	520,00
3440,77	430,00
3444,39	355,00
3448,00	588,00
3451,62	414,00
3455,22	501,00
3458,83	400,00
3462,43	409,00
3466,03	437,00
3469,63	554,00
3473,22	350,00
3476,81	520,00
3480,40	459,00
3483,99	487,00
3487,57	606,00
3491,15	417,00
3494,72	417,00
3498,29	393,00
3501,86	355,00
3505,43	537,00
3508,99	360,00
3512,56	501,00
3516,11	433,00
3519,67	462,00
3523,22	578,00
3526,77	515,00
3530,32	312,00
3533,86	346,00
3537,40	486,00
3540,94	559,00
3544,47	347,00
3548,00	439,00
3551,53	442,00
3555,06	400,00
3558,58	437,00
3562,10	445,00
3565,62	442,00
3569,13	288,00
3572,64	572,00
3576,15	404,00
3579,66	434,00
3583,16	493,00
3586,66	456,00
3590,16	486,00
3593,65	379,00
3597,14	348,00
3600,63	499,00
3604,11	553,00
3607,60	440,00
3611,08	487,00
3614,55	413,00
3618,03	337,00
3621,50	403,00
3624,97	418,00
3628,43	467,00
3631,90	334,00
3635,36	443,00
3638,81	494,00
3642,27	421,00
3645,72	348,00
3649,17	364,00
3652,61	447,00
3656,06	302,00
3659,50	332,00
3662,93	423,00
3666,37	370,00
3669,80	420,00
3673,23	369,00
3676,65	449,00
3680,08	360,00
3683,50	404,00
3686,92	441,00
3690,33	393,00
3693,74	444,00
3697,15	400,00
3700,56	533,00
3703,96	381,00
3707,36	465,00
3710,76	248,00
3714,16	363,00
3717,55	377,00
3720,94	350,00
3724,33	469,00
3727,71	323,00
3731,10	430,00
3734,48	419,00
3737,85	431,00
3741,23	331,00
3744,60	328,00
3747,97	355,00
3751,33	366,00
3754,69	386,00
3758,05	419,00
3761,41	372,00
3764,77	428,00
3768,12	270,00
3771,47	273,00
3774,82	298,00
3778,16	-12,00
3781,50	7,00
3784,84	6,00
3788,18	2,00
>>>>>End Processed Spectral Data<<<<<
