SpectraSuite Data File
++++++++++++++++++++++++++++++++++++
Date: Wed Feb 04 15:33:09 ICT 2026
User: Administrator
Dark Spectrum Present: Yes
Reference Spectrum Present: No
Number of Sampled Component Spectra: 1
Spectrometers: MAYP113682
Integration Time (usec): 3000000 (MAYP113682)
Spectra Averaged: 1 (MAYP113682)
Boxcar Smoothing: 0 (MAYP113682)
Correct for Electrical Dark: No (MAYP113682)
Strobe/Lamp Enabled: No (MAYP113682)
Correct for Detector Non-linearity: No (MAYP113682)
Correct for Stray Light: No (MAYP113682)
Number of Pixels in Processed Spectrum: 2068
>>>>>Begin Processed Spectral Data<<<<<
-37534,58	3,00
-37414,56	-6,00
-37295,11	5,00
-37176,24	7,00
-37057,95	44,00
-36940,22	84,00
-36823,05	-5,00
-36706,45	14,00
-36590,40	75,00
-36474,90	154,00
-36359,95	105,00
-36245,55	50,00
-36131,68	128,00
-36018,35	68,00
-35905,55	113,00
-35793,29	48,00
-35681,54	104,00
-35570,32	72,00
-35459,62	39,00
-35349,43	128,00
-35239,75	40,00
-35130,58	97,00
-35021,91	38,00
-34913,74	43,00
-34806,07	65,00
-34698,89	19,00
-34592,20	8,00
-34486,00	86,00
-34380,28	81,00
-34275,04	28,00
-34170,27	-18,00
-34065,98	112,00
-33962,16	66,00
-33858,81	-13,00
-33755,92	85,00
-33653,49	-31,00
-33551,52	21,00
-33450,01	144,00
-33348,94	55,00
-33248,33	59,00
-33148,16	104,00
-33048,43	73,00
-32949,14	105,00
-32850,29	63,00
-32751,87	28,00
-32653,89	-18,00
-32556,33	57,00
-32459,20	26,00
-32362,49	59,00
-32266,19	-64,00
-32170,32	60,00
-32074,86	140,00
-31979,82	74,00
-31885,18	83,00
-31790,95	40,00
-31697,12	33,00
-31603,69	23,00
-31510,67	28,00
-31418,04	-32,00
-31325,80	30,00
-31233,95	151,00
-31142,49	112,00
-31051,42	123,00
-30960,73	40,00
-30870,43	67,00
-30780,50	39,00
-30690,95	128,00
-30601,77	-8,00
-30512,97	88,00
-30424,53	105,00
-30336,46	56,00
-30248,76	115,00
-30161,42	77,00
-30074,44	95,00
-29987,81	77,00
-29901,55	44,00
-29815,63	137,00
-29730,07	131,00
-29644,86	5,00
-29560,00	3,00
-29475,48	16,00
-29391,30	101,00
-29307,47	65,00
-29223,97	-14,00
-29140,81	22,00
-29057,99	111,00
-28975,50	7,00
-28893,34	1,00
-28811,51	57,00
-28730,00	10,00
-28648,82	6,00
-28567,97	151,00
-28487,43	-53,00
-28407,21	138,00
-28327,32	87,00
-28247,73	65,00
-28168,46	105,00
-28089,50	45,00
-28010,85	88,00
-27932,51	68,00
-27854,48	62,00
-27776,75	49,00
-27699,32	71,00
-27622,19	34,00
-27545,37	-2,00
-27468,84	-9,00
-27392,60	129,00
-27316,66	30,00
-27241,01	104,00
-27165,66	82,00
-27090,59	-68,00
-27015,81	143,00
-26941,31	109,00
-26867,10	16,00
-26793,17	109,00
-26719,52	35,00
-26646,15	6,00
-26573,06	103,00
-26500,24	39,00
-26427,70	32,00
-26355,43	29,00
-26283,43	43,00
-26211,71	58,00
-26140,25	62,00
-26069,06	220,00
-25998,13	12,00
-25927,46	68,00
-25857,06	-7,00
-25786,92	-12,00
-25717,04	97,00
-25647,42	61,00
-25578,05	-59,00
-25508,94	109,00
-25440,09	109,00
-25371,48	41,00
-25303,13	119,00
-25235,02	20,00
-25167,17	87,00
-25099,56	47,00
-25032,19	-6,00
-24965,07	82,00
-24898,20	19,00
-24831,56	122,00
-24765,17	-8,00
-24699,01	66,00
-24633,10	2,00
-24567,41	128,00
-24501,97	112,00
-24436,75	60,00
-24371,77	42,00
-24307,03	76,00
-24242,51	125,00
-24178,22	29,00
-24114,16	20,00
-24050,32	135,00
-23986,71	79,00
-23923,32	17,00
-23860,16	144,00
-23797,22	-31,00
-23734,50	70,00
-23672,00	111,00
-23609,71	113,00
-23547,65	-13,00
-23485,80	116,00
-23424,16	107,00
-23362,74	16,00
-23301,53	-23,00
-23240,54	-19,00
-23179,75	-4,00
-23119,17	56,00
-23058,80	53,00
-22998,64	-5,00
-22938,68	135,00
-22878,93	116,00
-22819,39	44,00
-22760,04	-18,00
-22700,90	-14,00
-22641,96	59,00
-22583,22	68,00
-22524,68	4,00
-22466,33	75,00
-22408,19	68,00
-22350,23	16,00
-22292,48	70,00
-22234,92	127,00
-22177,55	148,00
-22120,37	-10,00
-22063,38	80,00
-22006,58	56,00
-21949,98	0,00
-21893,56	156,00
-21837,33	31,00
-21781,28	98,00
-21725,42	23,00
-21669,74	-22,00
-21614,25	76,00
-21558,94	75,00
-21503,81	26,00
-21448,86	-4,00
-21394,10	-16,00
-21339,51	86,00
-21285,10	-16,00
-21230,86	84,00
-21176,81	72,00
-21122,93	54,00
-21069,22	16,00
-21015,69	10,00
-20962,33	27,00
-20909,14	117,00
-20856,13	71,00
-20803,28	121,00
-20750,61	36,00
-20698,10	41,00
-20645,76	46,00
-20593,59	62,00
-20541,59	3,00
-20489,75	119,00
-20438,07	5,00
-20386,56	36,00
-20335,22	-48,00
-20284,03	117,00
-20233,01	140,00
-20182,15	63,00
-20131,45	40,00
-20080,91	45,00
-20030,52	139,00
-19980,30	55,00
-19930,23	69,00
-19880,32	87,00
-19830,56	83,00
-19780,96	47,00
-19731,52	54,00
-19682,23	48,00
-19633,09	101,00
-19584,10	5,00
-19535,26	76,00
-19486,58	14,00
-19438,04	-1,00
-19389,66	-36,00
-19341,42	70,00
-19293,33	151,00
-19245,39	70,00
-19197,60	-80,00
-19149,95	93,00
-19102,45	55,00
-19055,09	-54,00
-19007,87	3,00
-18960,80	152,00
-18913,87	120,00
-18867,09	-2,00
-18820,44	26,00
-18773,94	54,00
-18727,57	-45,00
-18681,35	-36,00
-18635,26	8,00
-18589,31	42,00
-18543,50	-13,00
-18497,83	41,00
-18452,29	112,00
-18406,89	68,00
-18361,63	180,00
-18316,50	27,00
-18271,50	40,00
-18226,63	116,00
-18181,90	94,00
-18137,30	-22,00
-18092,84	-8,00
-18048,50	-83,00
-18004,29	4,00
-17960,22	72,00
-17916,27	26,00
-17872,45	64,00
-17828,76	84,00
-17785,20	133,00
-17741,77	-16,00
-17698,46	47,00
-17655,28	-37,00
-17612,22	68,00
-17569,29	77,00
-17526,48	50,00
-17483,79	78,00
-17441,23	103,00
-17398,79	105,00
-17356,48	58,00
-17314,28	-27,00
-17272,21	-55,00
-17230,26	129,00
-17188,42	86,00
-17146,71	-19,00
-17105,12	85,00
-17063,64	-19,00
-17022,28	117,00
-16981,04	76,00
-16939,92	24,00
-16898,91	104,00
-16858,02	-15,00
-16817,25	89,00
-16776,59	13,00
-16736,04	25,00
-16695,61	-23,00
-16655,29	55,00
-16615,09	-52,00
-16574,99	69,00
-16535,01	162,00
-16495,15	-1,00
-16455,39	-9,00
-16415,74	-1,00
-16376,21	76,00
-16336,78	-24,00
-16297,46	93,00
-16258,26	75,00
-16219,16	123,00
-16180,17	212,00
-16141,28	98,00
-16102,51	24,00
-16063,84	149,00
-16025,27	97,00
-15986,82	106,00
-15948,46	-56,00
-15910,22	97,00
-15872,07	14,00
-15834,04	-41,00
-15796,10	42,00
-15758,27	15,00
-15720,54	16,00
-15682,91	124,00
-15645,39	76,00
-15607,97	135,00
-15570,64	96,00
-15533,42	93,00
-15496,30	-35,00
-15459,28	24,00
-15422,36	117,00
-15385,54	5,00
-15348,82	63,00
-15312,19	40,00
-15275,66	-45,00
-15239,23	71,00
-15202,90	186,00
-15166,67	42,00
-15130,53	-9,00
-15094,48	-7,00
-15058,54	-59,00
-15022,68	73,00
-14986,93	101,00
-14951,26	53,00
-14915,69	79,00
-14880,22	22,00
-14844,84	26,00
-14809,55	68,00
-14774,35	59,00
-14739,25	131,00
-14704,24	-7,00
-14669,32	6,00
-14634,49	81,00
-14599,75	38,00
-14565,10	-33,00
-14530,55	43,00
-14496,08	182,00
-14461,70	48,00
-14427,41	-9,00
-14393,21	106,00
-14359,10	-1,00
-14325,07	95,00
-14291,14	32,00
-14257,29	48,00
-14223,52	-3,00
-14189,85	77,00
-14156,26	56,00
-14122,76	29,00
-14089,34	70,00
-14056,01	37,00
-14022,76	100,00
-13989,60	15,00
-13956,52	81,00
-13923,53	88,00
-13890,62	11,00
-13857,79	161,00
-13825,05	15,00
-13792,39	48,00
-13759,81	34,00
-13727,31	41,00
-13694,90	96,00
-13662,57	-27,00
-13630,31	19,00
-13598,14	126,00
-13566,05	7,00
-13534,05	110,00
-13502,12	124,00
-13470,27	30,00
-13438,50	-31,00
-13406,80	-3,00
-13375,19	45,00
-13343,66	89,00
-13312,20	31,00
-13280,83	53,00
-13249,53	63,00
-13218,30	-1,00
-13187,16	61,00
-13156,09	56,00
-13125,10	166,00
-13094,18	22,00
-13063,34	34,00
-13032,58	-21,00
-13001,89	5,00
-12971,28	88,00
-12940,74	68,00
-12910,27	-27,00
-12879,88	-49,00
-12849,57	-23,00
-12819,33	-54,00
-12789,16	61,00
-12759,06	15,00
-12729,04	117,00
-12699,09	9,00
-12669,21	65,00
-12639,41	21,00
-12609,68	-42,00
-12580,02	-76,00
-12550,43	47,00
-12520,91	-21,00
-12491,46	34,00
-12462,08	48,00
-12432,77	-47,00
-12403,54	28,00
-12374,37	149,00
-12345,27	2,00
-12316,24	5,00
-12287,29	99,00
-12258,40	96,00
-12229,57	1,00
-12200,82	-48,00
-12172,14	117,00
-12143,52	-2,00
-12114,97	32,00
-12086,49	141,00
-12058,07	41,00
-12029,73	97,00
-12001,44	69,00
-11973,23	54,00
-11945,08	132,00
-11917,00	122,00
-11888,98	-5,00
-11861,03	66,00
-11833,15	88,00
-11805,32	37,00
-11777,57	136,00
-11749,88	41,00
-11722,25	39,00
-11694,69	104,00
-11667,19	18,00
-11639,75	53,00
-11612,38	22,00
-11585,07	42,00
-11557,83	52,00
-11530,65	13,00
-11503,53	56,00
-11476,47	134,00
-11449,48	34,00
-11422,54	34,00
-11395,67	-43,00
-11368,86	89,00
-11342,11	21,00
-11315,43	151,00
-11288,80	63,00
-11262,23	77,00
-11235,73	-15,00
-11209,28	81,00
-11182,90	59,00
-11156,57	127,00
-11130,31	87,00
-11104,10	49,00
-11077,96	-57,00
-11051,87	-8,00
-11025,84	32,00
-10999,87	97,00
-10973,96	55,00
-10948,11	-18,00
-10922,31	36,00
-10896,58	43,00
-10870,90	-7,00
-10845,28	118,00
-10819,71	31,00
-10794,20	-56,00
-10768,75	58,00
-10743,36	32,00
-10718,02	42,00
-10692,74	156,00
-10667,52	0,00
-10642,35	10,00
-10617,24	18,00
-10592,18	51,00
-10567,18	-11,00
-10542,23	114,00
-10517,34	5,00
-10492,51	34,00
-10467,72	96,00
-10443,00	-147,00
-10418,32	-88,00
-10393,70	14,00
-10369,14	17,00
-10344,63	-3,00
-10320,17	41,00
-10295,77	-25,00
-10271,42	-78,00
-10247,12	-86,00
-10222,88	-139,00
-10198,68	-3,00
-10174,54	-19,00
-10150,46	-57,00
-10126,42	-25,00
-10102,44	18,00
-10078,51	42,00
-10054,63	-44,00
-10030,80	-4,00
-10007,03	-98,00
-9983,30	-70,00
-9959,63	-133,00
-9936,01	-143,00
-9912,44	-199,00
-9888,92	-247,00
-9865,44	-144,00
-9842,02	-134,00
-9818,65	-228,00
-9795,33	-130,00
-9772,06	-222,00
-9748,84	-157,00
-9725,67	-267,00
-9702,55	-218,00
-9679,47	-305,00
-9656,45	-395,00
-9633,47	-529,00
-9610,55	-435,00
-9587,67	-414,00
-9564,84	-562,00
-9542,06	-606,00
-9519,32	-627,00
-9496,64	-726,00
-9474,00	-785,00
-9451,41	-766,00
-9428,87	-675,00
-9406,37	-778,00
-9383,92	-664,00
-9361,52	-669,00
-9339,17	-753,00
-9316,86	-732,00
-9294,60	-957,00
-9272,38	-1159,00
-9250,21	-978,00
-9228,09	-1259,00
-9206,01	-1063,00
-9183,98	-1116,00
-9162,00	-1070,00
-9140,06	-955,00
-9118,16	-955,00
-9096,31	-1127,00
-9074,51	-1142,00
-9052,75	-1158,00
-9031,04	-994,00
-9009,37	-918,00
-8987,74	-820,00
-8966,16	-865,00
-8944,63	-872,00
-8923,14	-732,00
-8901,69	-788,00
-8880,29	-774,00
-8858,93	-786,00
-8837,61	-730,00
-8816,34	-869,00
-8795,11	-898,00
-8773,92	-828,00
-8752,78	-762,00
-8731,68	-835,00
-8710,62	-761,00
-8689,61	-808,00
-8668,63	-789,00
-8647,70	-797,00
-8626,82	-762,00
-8605,97	-774,00
-8585,17	-700,00
-8564,41	-678,00
-8543,69	-677,00
-8523,01	-734,00
-8502,37	-589,00
-8481,78	-693,00
-8461,23	-796,00
-8440,71	-766,00
-8420,24	-801,00
-8399,81	-886,00
-8379,42	-701,00
-8359,08	-632,00
-8338,77	-616,00
-8318,50	-723,00
-8298,27	-662,00
-8278,09	-779,00
-8257,94	-748,00
-8237,83	-753,00
-8217,76	-776,00
-8197,74	-790,00
-8177,75	-688,00
-8157,80	-600,00
-8137,89	-536,00
-8118,02	-702,00
-8098,19	-555,00
-8078,40	-535,00
-8058,65	-560,00
-8038,93	-602,00
-8019,26	-694,00
-7999,62	-595,00
-7980,02	-586,00
-7960,46	-630,00
-7940,94	-533,00
-7921,46	-473,00
-7902,01	-525,00
-7882,60	-529,00
-7863,23	-558,00
-7843,90	-509,00
-7824,61	-711,00
-7805,35	-514,00
-7786,13	-595,00
-7766,95	-543,00
-7747,80	-497,00
-7728,69	-407,00
-7709,62	-422,00
-7690,59	-604,00
-7671,59	-553,00
-7652,63	-640,00
-7633,70	-573,00
-7614,81	-588,00
-7595,96	-521,00
-7577,15	-379,00
-7558,37	-464,00
-7539,62	-417,00
-7520,91	-498,00
-7502,24	-420,00
-7483,60	-592,00
-7465,00	-581,00
-7446,44	-461,00
-7427,91	-284,00
-7409,41	-317,00
-7390,95	-365,00
-7372,53	-386,00
-7354,14	-381,00
-7335,78	-243,00
-7317,46	-286,00
-7299,18	-370,00
-7280,92	-423,00
-7262,71	-617,00
-7244,52	-554,00
-7226,38	-548,00
-7208,26	-527,00
-7190,18	-546,00
-7172,14	-421,00
-7154,12	-391,00
-7136,15	-334,00
-7118,20	-389,00
-7100,29	-443,00
-7082,41	-456,00
-7064,57	-539,00
-7046,76	-528,00
-7028,98	-371,00
-7011,24	-368,00
-6993,53	-283,00
-6975,85	-408,00
-6958,20	-326,00
-6940,59	-154,00
-6923,01	-302,00
-6905,46	-357,00
-6887,94	-372,00
-6870,46	-514,00
-6853,01	-414,00
-6835,59	-473,00
-6818,21	-366,00
-6800,85	-375,00
-6783,53	-293,00
-6766,24	-253,00
-6748,98	-235,00
-6731,76	-276,00
-6714,56	-216,00
-6697,40	-209,00
-6680,26	-130,00
-6663,16	-227,00
-6646,09	-280,00
-6629,05	-301,00
-6612,05	-386,00
-6595,07	-297,00
-6578,13	-295,00
-6561,21	-210,00
-6544,33	-255,00
-6527,47	-232,00
-6510,65	-136,00
-6493,86	-161,00
-6477,10	-131,00
-6460,36	-270,00
-6443,66	-227,00
-6426,99	-131,00
-6410,35	-232,00
-6393,74	-154,00
-6377,16	-309,00
-6360,61	-217,00
-6344,09	-189,00
-6327,59	-246,00
-6311,13	-209,00
-6294,70	-259,00
-6278,29	-298,00
-6261,92	-310,00
-6245,58	-414,00
-6229,26	-286,00
-6212,97	-201,00
-6196,72	-183,00
-6180,49	-245,00
-6164,29	-145,00
-6148,12	-131,00
-6131,98	-222,00
-6115,86	44,00
-6099,78	-158,00
-6083,72	-27,00
-6067,69	-140,00
-6051,69	-82,00
-6035,72	-112,00
-6019,78	-65,00
-6003,87	-162,00
-5987,98	-358,00
-5972,12	-281,00
-5956,29	-267,00
-5940,49	-220,00
-5924,71	-174,00
-5908,96	-160,00
-5893,24	-51,00
-5877,55	-80,00
-5861,89	-114,00
-5846,25	-221,00
-5830,64	-82,00
-5815,05	-60,00
-5799,50	-71,00
-5783,97	-79,00
-5768,47	-214,00
-5752,99	-163,00
-5737,55	-183,00
-5722,12	-377,00
-5706,73	-242,00
-5691,36	-128,00
-5676,02	-44,00
-5660,71	-41,00
-5645,42	-141,00
-5630,16	-131,00
-5614,92	-202,00
-5599,71	-194,00
-5584,53	-37,00
-5569,37	-187,00
-5554,24	-80,00
-5539,14	-71,00
-5524,06	-155,00
-5509,01	-98,00
-5493,98	-141,00
-5478,98	-124,00
-5464,00	-84,00
-5449,05	-298,00
-5434,13	-88,00
-5419,23	-118,00
-5404,36	-174,00
-5389,51	-178,00
-5374,69	-232,00
-5359,89	-288,00
-5345,12	-285,00
-5330,37	-246,00
-5315,65	-158,00
-5300,95	-112,00
-5286,28	-125,00
-5271,63	-126,00
-5257,01	-176,00
-5242,41	-181,00
-5227,84	-102,00
-5213,29	-108,00
-5198,76	-66,00
-5184,26	-60,00
-5169,79	-100,00
-5155,33	-152,00
-5140,91	-56,00
-5126,51	-186,00
-5112,13	-230,00
-5097,77	-138,00
-5083,44	-77,00
-5069,13	-37,00
-5054,85	-164,00
-5040,59	-195,00
-5026,36	-140,00
-5012,15	-93,00
-4997,96	-114,00
-4983,80	-91,00
-4969,66	-152,00
-4955,54	51,00
-4941,44	-119,00
-4927,37	-214,00
-4913,33	-244,00
-4899,30	-280,00
-4885,30	-210,00
-4871,33	-165,00
-4857,37	-134,00
-4843,44	-113,00
-4829,53	-39,00
-4815,65	-105,00
-4801,79	-75,00
-4787,95	-184,00
-4774,13	-139,00
-4760,34	61,00
-4746,56	-29,00
-4732,82	-8,00
-4719,09	-103,00
-4705,38	-292,00
-4691,70	-271,00
-4678,04	-290,00
-4664,41	-168,00
-4650,79	-106,00
-4637,20	30,00
-4623,63	-93,00
-4610,08	-118,00
-4596,56	-119,00
-4583,05	-118,00
-4569,57	-115,00
-4556,11	3,00
-4542,67	-58,00
-4529,25	-43,00
-4515,86	-93,00
-4502,49	-187,00
-4489,13	-231,00
-4475,80	-181,00
-4462,49	-102,00
-4449,21	60,00
-4435,94	-104,00
-4422,70	54,00
-4409,47	-141,00
-4396,27	-149,00
-4383,09	-40,00
-4369,93	149,00
-4356,79	-10,00
-4343,67	18,00
-4330,58	41,00
-4317,50	-146,00
-4304,45	-112,00
-4291,41	36,00
-4278,40	49,00
-4265,41	-52,00
-4252,44	61,00
-4239,49	-104,00
-4226,55	-24,00
-4213,65	-48,00
-4200,76	-116,00
-4187,89	-61,00
-4175,04	-39,00
-4162,21	-33,00
-4149,40	21,00
-4136,61	-126,00
-4123,85	87,00
-4111,10	2,00
-4098,37	38,00
-4085,66	-76,00
-4072,98	77,00
-4060,31	111,00
-4047,66	101,00
-4035,04	60,00
-4022,43	46,00
-4009,84	88,00
-3997,27	150,00
-3984,72	-42,00
-3972,19	-29,00
-3959,69	-11,00
-3947,20	65,00
-3934,73	101,00
-3922,27	37,00
-3909,84	64,00
-3897,43	-6,00
-3885,04	77,00
-3872,67	76,00
-3860,31	-74,00
-3847,98	52,00
-3835,66	79,00
-3823,36	151,00
-3811,09	66,00
-3798,83	7,00
-3786,59	177,00
-3774,37	112,00
-3762,17	95,00
-3749,98	-60,00
-3737,82	84,00
-3725,67	15,00
-3713,55	28,00
-3701,44	52,00
-3689,35	20,00
-3677,28	17,00
-3665,22	31,00
-3653,19	32,00
-3641,17	-24,00
-3629,18	6,00
-3617,20	178,00
-3605,24	59,00
-3593,30	58,00
-3581,37	104,00
-3569,47	1,00
-3557,58	182,00
-3545,71	91,00
-3533,86	24,00
-3522,02	100,00
-3510,21	86,00
-3498,41	64,00
-3486,63	83,00
-3474,87	25,00
-3463,12	70,00
-3451,40	79,00
-3439,69	50,00
-3428,00	23,00
-3416,33	58,00
-3404,67	-84,00
-3393,03	89,00
-3381,41	35,00
-3369,81	52,00
-3358,22	-74,00
-3346,66	47,00
-3335,10	171,00
-3323,57	82,00
-3312,06	54,00
-3300,56	-13,00
-3289,08	141,00
-3277,61	86,00
-3266,16	31,00
-3254,73	-34,00
-3243,32	-2,00
-3231,92	64,00
-3220,55	-21,00
-3209,18	-18,00
-3197,84	6,00
-3186,51	77,00
-3175,20	47,00
-3163,90	-22,00
-3152,63	85,00
-3141,36	83,00
-3130,12	16,00
-3118,89	-35,00
-3107,68	-10,00
-3096,49	-13,00
-3085,31	35,00
-3074,15	59,00
-3063,00	81,00
-3051,87	0,00
-3040,76	-78,00
-3029,67	121,00
-3018,59	94,00
-3007,52	52,00
-2996,48	36,00
-2985,44	-8,00
-2974,43	155,00
-2963,43	101,00
-2952,45	71,00
-2941,48	105,00
-2930,53	14,00
-2919,60	64,00
-2908,68	25,00
-2897,78	60,00
-2886,89	17,00
-2876,02	-43,00
-2865,17	45,00
-2854,33	-36,00
-2843,50	14,00
-2832,70	153,00
-2821,90	71,00
-2811,13	66,00
-2800,37	-16,00
-2789,62	105,00
-2778,89	-25,00
-2768,18	20,00
-2757,48	149,00
-2746,80	54,00
-2736,13	56,00
-2725,48	50,00
-2714,84	64,00
-2704,22	120,00
-2693,61	50,00
-2683,02	21,00
-2672,45	25,00
-2661,89	-75,00
-2651,34	30,00
-2640,81	15,00
-2630,30	91,00
-2619,80	-41,00
-2609,31	108,00
-2598,84	61,00
-2588,39	25,00
-2577,95	37,00
-2567,52	79,00
-2557,11	97,00
-2546,71	75,00
-2536,33	81,00
-2525,97	34,00
-2515,62	54,00
-2505,28	-7,00
-2494,96	50,00
-2484,65	-2,00
-2474,36	56,00
-2464,08	-31,00
-2453,82	9,00
-2443,57	71,00
-2433,33	30,00
-2423,11	97,00
-2412,91	62,00
-2402,72	3,00
-2392,54	67,00
-2382,38	58,00
-2372,23	21,00
-2362,09	3863,00
-2351,97	14,00
-2341,87	68,00
-2331,78	14,00
-2321,70	24,00
-2311,64	-39,00
-2301,59	61,00
-2291,55	41,00
-2281,53	13,00
-2271,53	92,00
-2261,53	101,00
-2251,55	135,00
-2241,59	125,00
-2231,64	22,00
-2221,70	43,00
-2211,78	21,00
-2201,87	110,00
-2191,97	80,00
-2182,09	69,00
-2172,22	14,00
-2162,37	102,00
-2152,53	-52,00
-2142,70	41,00
-2132,89	65,00
-2123,09	112,00
-2113,30	-47,00
-2103,53	66,00
-2093,77	-45,00
-2084,02	-4,00
-2074,29	132,00
-2064,57	29,00
-2054,86	117,00
-2045,17	0,00
-2035,49	-99,00
-2025,82	78,00
-2016,17	80,00
-2006,53	92,00
-1996,91	-21,00
-1987,29	140,00
-1977,69	-26,00
-1968,11	33,00
-1958,53	51,00
-1948,97	31,00
-1939,42	91,00
-1929,89	4,00
-1920,37	135,00
-1910,86	137,00
-1901,36	134,00
-1891,88	25,00
-1882,41	5,00
-1872,95	-48,00
-1863,51	5,00
-1854,08	-21,00
-1844,66	161,00
-1835,26	132,00
-1825,86	62,00
-1816,48	101,00
-1807,11	97,00
-1797,76	58,00
-1788,42	14,00
-1779,09	78,00
-1769,77	69,00
-1760,47	119,00
-1751,17	125,00
-1741,89	-15,00
-1732,63	18,00
-1723,37	24,00
-1714,13	-22,00
-1704,90	-13,00
-1695,68	128,00
-1686,48	-76,00
-1677,29	70,00
-1668,11	91,00
-1658,94	109,00
-1649,78	13,00
-1640,64	25,00
-1631,51	53,00
-1622,39	75,00
-1613,28	-60,00
-1604,19	56,00
-1595,10	38,00
-1586,03	71,00
-1576,97	-12,00
-1567,93	2,00
-1558,89	-19,00
-1549,87	50,00
-1540,86	8,00
-1531,86	81,00
-1522,87	90,00
-1513,90	48,00
-1504,93	66,00
-1495,98	57,00
-1487,04	49,00
-1478,12	-71,00
-1469,20	12,00
-1460,30	9,00
-1451,40	25,00
-1442,52	55,00
-1433,65	4,00
-1424,80	-50,00
-1415,95	55,00
-1407,12	38,00
-1398,30	180,00
-1389,48	60,00
-1380,69	93,00
-1371,90	26,00
-1363,12	67,00
-1354,36	19,00
-1345,60	11,00
-1336,86	61,00
-1328,13	132,00
-1319,41	16,00
-1310,70	73,00
-1302,01	119,00
-1293,32	127,00
-1284,65	81,00
-1275,99	29,00
-1267,33	25,00
-1258,69	33,00
-1250,06	64,00
-1241,45	17,00
-1232,84	-13,00
-1224,25	89,00
-1215,66	124,00
-1207,09	24,00
-1198,53	72,00
-1189,97	61,00
-1181,43	15,00
-1172,91	21,00
-1164,39	78,00
-1155,88	4,00
-1147,38	57,00
-1138,90	128,00
-1130,43	29,00
-1121,96	228,00
-1113,51	46,00
-1105,07	14,00
-1096,64	96,00
-1088,22	28,00
-1079,81	72,00
-1071,41	-1,00
-1063,02	118,00
-1054,65	84,00
-1046,28	136,00
-1037,92	100,00
-1029,58	49,00
-1021,24	87,00
-1012,92	55,00
-1004,61	44,00
-996,30	137,00
-988,01	-19,00
-979,73	11,00
-971,46	93,00
-963,20	34,00
-954,95	162,00
-946,71	-41,00
-938,48	65,00
-930,26	87,00
-922,06	62,00
-913,86	71,00
-905,67	99,00
-897,49	88,00
-889,33	34,00
-881,17	48,00
-873,02	52,00
-864,89	102,00
-856,76	-12,00
-848,65	-75,00
-840,54	126,00
-832,45	144,00
-824,36	78,00
-816,29	59,00
-808,22	88,00
-800,17	188,00
-792,12	108,00
-784,09	19,00
-776,06	50,00
-768,05	105,00
-760,04	38,00
-752,05	15,00
-744,07	-6,00
-736,09	52,00
-728,13	107,00
-720,17	31,00
-712,23	29,00
-704,29	105,00
-696,37	77,00
-688,45	50,00
-680,55	158,00
-672,65	-48,00
-664,77	47,00
-656,89	50,00
-649,03	194,00
-641,17	22,00
-633,32	10,00
-625,49	53,00
-617,66	-8,00
-609,84	94,00
-602,03	104,00
-594,23	-24,00
-586,45	-8,00
-578,67	44,00
-570,90	74,00
-563,14	135,00
-555,39	5,00
-547,65	-46,00
-539,91	190,00
-532,19	60,00
-524,48	40,00
-516,78	66,00
-509,08	27,00
-501,40	69,00
-493,72	50,00
-486,06	107,00
-478,40	62,00
-470,76	-4,00
-463,12	-55,00
-455,49	50,00
-447,87	10,00
-440,26	99,00
-432,66	92,00
-425,07	56,00
-417,49	123,00
-409,92	35,00
-402,35	102,00
-394,80	112,00
-387,25	-71,00
-379,72	-32,00
-372,19	49,00
-364,67	187,00
-357,17	105,00
-349,67	35,00
-342,18	3,00
-334,69	54,00
-327,22	56,00
-319,76	142,00
-312,30	158,00
-304,86	118,00
-297,42	93,00
-290,00	134,00
-282,58	133,00
-275,17	246,00
-267,77	17,00
-260,37	76,00
-252,99	147,00
-245,62	87,00
-238,25	165,00
-230,90	160,00
-223,55	83,00
-216,21	226,00
-208,88	225,00
-201,56	129,00
-194,25	251,00
-186,94	343,00
-179,65	322,00
-172,36	209,00
-165,08	263,00
-157,81	296,00
-150,55	269,00
-143,30	375,00
-136,06	313,00
-128,82	453,00
-121,60	476,00
-114,38	499,00
-107,17	624,00
-99,97	621,00
-92,78	658,00
-85,60	813,00
-78,42	1082,00
-71,25	1125,00
-64,10	1301,00
-56,95	1585,00
-49,81	1757,00
-42,67	2263,00
-35,55	2693,00
-28,43	3665,00
-21,33	5757,00
-14,23	17423,00
-7,14	56670,00
-0,05	56467,00
7,02	56225,00
14,09	56403,00
21,14	20802,00
28,19	8071,00
35,23	4917,00
42,27	3783,00
49,29	3114,00
56,31	2565,00
63,32	2074,00
70,32	1906,00
77,31	1565,00
84,29	1491,00
91,27	1227,00
98,23	1266,00
105,19	1131,00
112,14	1445,00
119,09	2913,00
126,02	5415,00
132,95	7146,00
139,87	7699,00
146,78	7737,00
153,68	7861,00
160,58	7715,00
167,46	7708,00
174,34	7732,00
181,21	7742,00
188,08	7796,00
194,93	7772,00
201,78	7907,00
208,62	7904,00
215,45	8009,00
222,27	8153,00
229,09	7922,00
235,90	7968,00
242,70	8043,00
249,49	8052,00
256,27	7909,00
263,05	7840,00
269,82	8005,00
276,58	8068,00
283,33	8000,00
290,08	7991,00
296,82	8049,00
303,55	7907,00
310,27	7840,00
316,98	7960,00
323,69	7706,00
330,39	7823,00
337,08	7898,00
343,76	8075,00
350,44	7908,00
357,11	8136,00
363,77	7965,00
370,42	8008,00
377,07	8013,00
383,71	8141,00
390,34	8042,00
396,96	8043,00
403,58	8280,00
410,19	8316,00
416,79	8332,00
423,38	8298,00
429,97	8331,00
436,55	8127,00
443,12	8168,00
449,68	7947,00
456,24	8213,00
462,79	8140,00
469,33	8165,00
475,86	8187,00
482,39	8374,00
488,91	8382,00
495,42	8436,00
501,93	8235,00
508,42	8335,00
514,91	8161,00
521,40	8190,00
527,87	8214,00
534,34	8179,00
540,80	8269,00
547,25	8261,00
553,70	8273,00
560,14	8335,00
566,57	8307,00
573,00	8268,00
579,41	8302,00
585,83	8368,00
592,23	8451,00
598,62	8440,00
605,01	8239,00
611,40	8357,00
617,77	8313,00
624,14	8304,00
630,50	8425,00
636,85	8441,00
643,20	8527,00
649,54	8485,00
655,87	8454,00
662,20	8351,00
668,52	8401,00
674,83	8383,00
681,13	8446,00
687,43	8156,00
693,72	8306,00
700,00	8278,00
706,28	8177,00
712,55	8416,00
718,81	8330,00
725,07	8460,00
731,32	8406,00
737,56	8413,00
743,79	8452,00
750,02	8526,00
756,24	8562,00
762,46	8709,00
768,67	8673,00
774,87	8726,00
781,06	8743,00
787,25	8639,00
793,43	8853,00
799,60	8869,00
805,77	8621,00
811,93	8844,00
818,08	8823,00
824,23	8830,00
830,37	8772,00
836,50	8910,00
842,63	8986,00
848,75	8952,00
854,87	8793,00
860,97	8758,00
867,07	8744,00
873,17	8896,00
879,25	8727,00
885,33	8725,00
891,41	8791,00
897,47	8774,00
903,53	8667,00
909,59	8910,00
915,63	8827,00
921,67	8771,00
927,71	8901,00
933,74	8862,00
939,76	8769,00
945,77	8904,00
951,78	8770,00
957,78	8829,00
963,78	8928,00
969,77	8906,00
975,75	8917,00
981,72	9078,00
987,69	8715,00
993,66	9163,00
999,61	9109,00
1005,56	9160,00
1011,51	9239,00
1017,44	9336,00
1023,37	9289,00
1029,30	9244,00
1035,22	9405,00
1041,13	9416,00
1047,03	9494,00
1052,93	9952,00
1058,83	10285,00
1064,71	10728,00
1070,59	10164,00
1076,47	9945,00
1082,33	9733,00
1088,20	9731,00
1094,05	9773,00
1099,90	9614,00
1105,74	9663,00
1111,58	9772,00
1117,41	9637,00
1123,23	10325,00
1129,05	10784,00
1134,86	10617,00
1140,67	10325,00
1146,47	10120,00
1152,26	9884,00
1158,05	9728,00
1163,83	9634,00
1169,60	9989,00
1175,37	9893,00
1181,13	9711,00
1186,89	9712,00
1192,64	9710,00
1198,38	9597,00
1204,12	9654,00
1209,85	9731,00
1215,58	9732,00
1221,30	9855,00
1227,02	9932,00
1232,72	10071,00
1238,43	10099,00
1244,12	9962,00
1249,81	9981,00
1255,50	9993,00
1261,17	10086,00
1266,85	10110,00
1272,51	10149,00
1278,17	10251,00
1283,83	10533,00
1289,47	10960,00
1295,12	11847,00
1300,75	11697,00
1306,38	11004,00
1312,01	10356,00
1317,63	10312,00
1323,24	10353,00
1328,85	10298,00
1334,45	10349,00
1340,04	10207,00
1345,63	10356,00
1351,22	10256,00
1356,80	10330,00
1362,37	10266,00
1367,93	10453,00
1373,49	10388,00
1379,05	10343,00
1384,60	10381,00
1390,14	10427,00
1395,68	10380,00
1401,21	10550,00
1406,74	10666,00
1412,26	10634,00
1417,77	11029,00
1423,28	11167,00
1428,78	10916,00
1434,28	11541,00
1439,77	11911,00
1445,26	11929,00
1450,74	11443,00
1456,22	11320,00
1461,68	11249,00
1467,15	11163,00
1472,61	10927,00
1478,06	10526,00
1483,51	10430,00
1488,95	10213,00
1494,38	10142,00
1499,81	10130,00
1505,24	10104,00
1510,65	9896,00
1516,07	10036,00
1521,48	10019,00
1526,88	9862,00
1532,27	9799,00
1537,67	9707,00
1543,05	9826,00
1548,43	9822,00
1553,81	9911,00
1559,18	9758,00
1564,54	9833,00
1569,90	9704,00
1575,25	9728,00
1580,60	9730,00
1585,94	9760,00
1591,28	9815,00
1596,61	9833,00
1601,93	9742,00
1607,25	9688,00
1612,57	9702,00
1617,88	9357,00
1623,18	9557,00
1628,48	9455,00
1633,77	9520,00
1639,06	9409,00
1644,34	9511,00
1649,62	9389,00
1654,89	9224,00
1660,16	9192,00
1665,42	9158,00
1670,67	9161,00
1675,92	9085,00
1681,17	9198,00
1686,41	9178,00
1691,64	9052,00
1696,87	8991,00
1702,10	9138,00
1707,32	9041,00
1712,53	8910,00
1717,74	9063,00
1722,94	9001,00
1728,14	8936,00
1733,33	8948,00
1738,52	8745,00
1743,70	8752,00
1748,88	8857,00
1754,05	8691,00
1759,22	8754,00
1764,38	8520,00
1769,53	8654,00
1774,69	8579,00
1779,83	8591,00
1784,97	8589,00
1790,11	8425,00
1795,24	8360,00
1800,36	8448,00
1805,48	8426,00
1810,60	8400,00
1815,71	8471,00
1820,82	8414,00
1825,92	8428,00
1831,01	8494,00
1836,10	8482,00
1841,19	8443,00
1846,26	8329,00
1851,34	8461,00
1856,41	8339,00
1861,47	8281,00
1866,53	8384,00
1871,59	8279,00
1876,64	8237,00
1881,68	8223,00
1886,72	8240,00
1891,76	8028,00
1896,79	8216,00
1901,81	7944,00
1906,83	8033,00
1911,85	7984,00
1916,86	7854,00
1921,86	7716,00
1926,86	7869,00
1931,86	7633,00
1936,85	7729,00
1941,83	7668,00
1946,81	7536,00
1951,79	7575,00
1956,76	7589,00
1961,72	7426,00
1966,68	7459,00
1971,64	7413,00
1976,59	7410,00
1981,54	7309,00
1986,48	7306,00
1991,42	7285,00
1996,35	7240,00
2001,27	7376,00
2006,20	7284,00
2011,11	7211,00
2016,03	7157,00
2020,93	7035,00
2025,84	7299,00
2030,73	7258,00
2035,63	7062,00
2040,52	7122,00
2045,40	7094,00
2050,28	6928,00
2055,15	7062,00
2060,02	6975,00
2064,89	6892,00
2069,75	6974,00
2074,60	6803,00
2079,46	6864,00
2084,30	6937,00
2089,14	6911,00
2093,98	6892,00
2098,81	6939,00
2103,64	6854,00
2108,46	6878,00
2113,28	6872,00
2118,09	6721,00
2122,90	6900,00
2127,70	6757,00
2132,50	6767,00
2137,30	6694,00
2142,09	6763,00
2146,87	6679,00
2151,66	6717,00
2156,43	6556,00
2161,20	6667,00
2165,97	6465,00
2170,73	6484,00
2175,49	6493,00
2180,24	6516,00
2184,99	6516,00
2189,74	6266,00
2194,48	6365,00
2199,21	6384,00
2203,94	6297,00
2208,67	6356,00
2213,39	6338,00
2218,11	6178,00
2222,82	6294,00
2227,53	6181,00
2232,23	6134,00
2236,93	6048,00
2241,63	6101,00
2246,32	6167,00
2251,00	5968,00
2255,68	6076,00
2260,36	5939,00
2265,03	5877,00
2269,70	6054,00
2274,36	5987,00
2279,02	5948,00
2283,68	5831,00
2288,33	5870,00
2292,97	5876,00
2297,61	5775,00
2302,25	5780,00
2306,88	5860,00
2311,51	5915,00
2316,14	5664,00
2320,75	5826,00
2325,37	5644,00
2329,98	5798,00
2334,59	5542,00
2339,19	5681,00
2343,79	5484,00
2348,38	5293,00
2352,97	5515,00
2357,55	5326,00
2362,13	5407,00
2366,71	5263,00
2371,28	5392,00
2375,85	5291,00
2380,41	5195,00
2384,97	5283,00
2389,52	5172,00
2394,07	5292,00
2398,62	5024,00
2403,16	5159,00
2407,70	4898,00
2412,23	5140,00
2416,76	5046,00
2421,29	4891,00
2425,81	4976,00
2430,32	4847,00
2434,84	4926,00
2439,34	4909,00
2443,85	4656,00
2448,35	4690,00
2452,84	4769,00
2457,33	4722,00
2461,82	4666,00
2466,30	4745,00
2470,78	4518,00
2475,25	4556,00
2479,72	4495,00
2484,19	4536,00
2488,65	4542,00
2493,11	4373,00
2497,56	4326,00
2502,01	4372,00
2506,46	4355,00
2510,90	4350,00
2515,34	4348,00
2519,77	4377,00
2524,20	4359,00
2528,62	4322,00
2533,04	4325,00
2537,46	4233,00
2541,87	4014,00
2546,28	4178,00
2550,68	4022,00
2555,08	4131,00
2559,48	4120,00
2563,87	4064,00
2568,26	4012,00
2572,64	4010,00
2577,02	3964,00
2581,40	3923,00
2585,77	3813,00
2590,14	3858,00
2594,50	3711,00
2598,86	3674,00
2603,22	3697,00
2607,57	3675,00
2611,92	3633,00
2616,26	3580,00
2620,60	3742,00
2624,94	3580,00
2629,27	3669,00
2633,60	3617,00
2637,92	3456,00
2642,24	3574,00
2646,56	3477,00
2650,87	3543,00
2655,18	3599,00
2659,48	3457,00
2663,78	3485,00
2668,08	3535,00
2672,37	3436,00
2676,66	3480,00
2680,95	3430,00
2685,23	3425,00
2689,50	3537,00
2693,78	3328,00
2698,05	3462,00
2702,31	3374,00
2706,57	3506,00
2710,83	3337,00
2715,08	3525,00
2719,33	3419,00
2723,58	3523,00
2727,82	3421,00
2732,06	3470,00
2736,29	3399,00
2740,53	3410,00
2744,75	3228,00
2748,97	3291,00
2753,19	3163,00
2757,41	3236,00
2761,62	3235,00
2765,83	3185,00
2770,03	3200,00
2774,23	3284,00
2778,43	3070,00
2782,62	3143,00
2786,81	3169,00
2791,00	3070,00
2795,18	3113,00
2799,35	3000,00
2803,53	3055,00
2807,70	3138,00
2811,86	3109,00
2816,03	3141,00
2820,19	3084,00
2824,34	3254,00
2828,49	3355,00
2832,64	3566,00
2836,78	3706,00
2840,92	4069,00
2845,06	4389,00
2849,19	4715,00
2853,32	4896,00
2857,45	4940,00
2861,57	4626,00
2865,69	4661,00
2869,80	4580,00
2873,91	4542,00
2878,02	4826,00
2882,12	5016,00
2886,22	4950,00
2890,32	4847,00
2894,41	4542,00
2898,50	4227,00
2902,58	3967,00
2906,67	3868,00
2910,74	3722,00
2914,82	3611,00
2918,89	3374,00
2922,96	3417,00
2927,02	3280,00
2931,08	3183,00
2935,13	3084,00
2939,19	2983,00
2943,24	2780,00
2947,28	2693,00
2951,32	2537,00
2955,36	2483,00
2959,40	2440,00
2963,43	2442,00
2967,46	2191,00
2971,48	2201,00
2975,50	2197,00
2979,52	2207,00
2983,53	2064,00
2987,54	2044,00
2991,55	2017,00
2995,55	1983,00
2999,55	1808,00
3003,54	1807,00
3007,54	1838,00
3011,53	1745,00
3015,51	1886,00
3019,49	1764,00
3023,47	1820,00
3027,45	1748,00
3031,42	1642,00
3035,39	1765,00
3039,35	1746,00
3043,31	1656,00
3047,27	1647,00
3051,22	1591,00
3055,17	1719,00
3059,12	1528,00
3063,06	1553,00
3067,00	1571,00
3070,94	1495,00
3074,87	1450,00
3078,80	1536,00
3082,73	1457,00
3086,65	1368,00
3090,57	1460,00
3094,49	1450,00
3098,40	1543,00
3102,31	1407,00
3106,22	1282,00
3110,12	1371,00
3114,02	1390,00
3117,92	1280,00
3121,81	1334,00
3125,70	1221,00
3129,58	1271,00
3133,47	1263,00
3137,34	1217,00
3141,22	1150,00
3145,09	1287,00
3148,96	1136,00
3152,83	1200,00
3156,69	1281,00
3160,55	1213,00
3164,40	1203,00
3168,26	1171,00
3172,10	1063,00
3175,95	1160,00
3179,79	1190,00
3183,63	1146,00
3187,47	1052,00
3191,30	1178,00
3195,13	1096,00
3198,95	1034,00
3202,78	960,00
3206,60	1042,00
3210,41	1093,00
3214,23	967,00
3218,03	908,00
3221,84	947,00
3225,64	1001,00
3229,44	875,00
3233,24	842,00
3237,03	924,00
3240,82	893,00
3244,61	863,00
3248,39	794,00
3252,17	877,00
3255,95	954,00
3259,72	762,00
3263,49	790,00
3267,26	823,00
3271,03	827,00
3274,79	738,00
3278,54	756,00
3282,30	789,00
3286,05	823,00
3289,80	734,00
3293,54	730,00
3297,29	719,00
3301,02	622,00
3304,76	733,00
3308,49	708,00
3312,22	635,00
3315,95	780,00
3319,67	720,00
3323,39	626,00
3327,10	526,00
3330,82	741,00
3334,53	682,00
3338,24	577,00
3341,94	595,00
3345,64	584,00
3349,34	644,00
3353,03	623,00
3356,72	553,00
3360,41	588,00
3364,10	521,00
3367,78	514,00
3371,46	618,00
3375,13	535,00
3378,81	535,00
3382,48	508,00
3386,14	496,00
3389,81	424,00
3393,47	536,00
3397,12	424,00
3400,78	574,00
3404,43	472,00
3408,08	578,00
3411,72	485,00
3415,36	453,00
3419,00	510,00
3422,64	480,00
3426,27	357,00
3429,90	418,00
3433,53	476,00
3437,15	475,00
3440,77	406,00
3444,39	495,00
3448,00	506,00
3451,62	382,00
3455,22	346,00
3458,83	480,00
3462,43	323,00
3466,03	369,00
3469,63	340,00
3473,22	363,00
3476,81	378,00
3480,40	313,00
3483,99	370,00
3487,57	440,00
3491,15	419,00
3494,72	341,00
3498,29	188,00
3501,86	377,00
3505,43	408,00
3508,99	255,00
3512,56	319,00
3516,11	345,00
3519,67	325,00
3523,22	345,00
3526,77	250,00
3530,32	193,00
3533,86	247,00
3537,40	179,00
3540,94	172,00
3544,47	239,00
3548,00	285,00
3551,53	235,00
3555,06	252,00
3558,58	321,00
3562,10	256,00
3565,62	254,00
3569,13	336,00
3572,64	102,00
3576,15	216,00
3579,66	363,00
3583,16	127,00
3586,66	217,00
3590,16	181,00
3593,65	155,00
3597,14	171,00
3600,63	16,00
3604,11	249,00
3607,60	137,00
3611,08	144,00
3614,55	184,00
3618,03	104,00
3621,50	122,00
3624,97	106,00
3628,43	293,00
3631,90	128,00
3635,36	168,00
3638,81	103,00
3642,27	182,00
3645,72	167,00
3649,17	190,00
3652,61	144,00
3656,06	104,00
3659,50	192,00
3662,93	60,00
3666,37	236,00
3669,80	76,00
3673,23	199,00
3676,65	224,00
3680,08	90,00
3683,50	110,00
3686,92	100,00
3690,33	71,00
3693,74	116,00
3697,15	98,00
3700,56	125,00
3703,96	55,00
3707,36	92,00
3710,76	8,00
3714,16	148,00
3717,55	71,00
3720,94	41,00
3724,33	59,00
3727,71	158,00
3731,10	107,00
3734,48	26,00
3737,85	136,00
3741,23	94,00
3744,60	95,00
3747,97	173,00
3751,33	87,00
3754,69	22,00
3758,05	167,00
3761,41	-10,00
3764,77	106,00
3768,12	22,00
3771,47	114,00
3774,82	80,00
3778,16	2,00
3781,50	6,00
3784,84	8,00
3788,18	0,00
>>>>>End Processed Spectral Data<<<<<
