SpectraSuite Data File
++++++++++++++++++++++++++++++++++++
Date: Wed Feb 04 15:38:54 ICT 2026
User: Administrator
Dark Spectrum Present: Yes
Reference Spectrum Present: No
Number of Sampled Component Spectra: 1
Spectrometers: MAYP113682
Integration Time (usec): 3000000 (MAYP113682)
Spectra Averaged: 1 (MAYP113682)
Boxcar Smoothing: 0 (MAYP113682)
Correct for Electrical Dark: No (MAYP113682)
Strobe/Lamp Enabled: No (MAYP113682)
Correct for Detector Non-linearity: No (MAYP113682)
Correct for Stray Light: No (MAYP113682)
Number of Pixels in Processed Spectrum: 2068
>>>>>Begin Processed Spectral Data<<<<<
-37534,58	18,00
-37414,56	1,00
-37295,11	12,00
-37176,24	10,00
-37057,95	226,00
-36940,22	391,00
-36823,05	280,00
-36706,45	369,00
-36590,40	458,00
-36474,90	381,00
-36359,95	400,00
-36245,55	394,00
-36131,68	406,00
-36018,35	264,00
-35905,55	387,00
-35793,29	465,00
-35681,54	376,00
-35570,32	345,00
-35459,62	360,00
-35349,43	458,00
-35239,75	387,00
-35130,58	431,00
-35021,91	393,00
-34913,74	401,00
-34806,07	392,00
-34698,89	493,00
-34592,20	392,00
-34486,00	339,00
-34380,28	391,00
-34275,04	336,00
-34170,27	284,00
-34065,98	436,00
-33962,16	343,00
-33858,81	405,00
-33755,92	303,00
-33653,49	415,00
-33551,52	392,00
-33450,01	516,00
-33348,94	439,00
-33248,33	427,00
-33148,16	408,00
-33048,43	511,00
-32949,14	563,00
-32850,29	419,00
-32751,87	434,00
-32653,89	416,00
-32556,33	407,00
-32459,20	316,00
-32362,49	420,00
-32266,19	340,00
-32170,32	436,00
-32074,86	440,00
-31979,82	424,00
-31885,18	472,00
-31790,95	487,00
-31697,12	432,00
-31603,69	368,00
-31510,67	416,00
-31418,04	316,00
-31325,80	429,00
-31233,95	392,00
-31142,49	429,00
-31051,42	416,00
-30960,73	484,00
-30870,43	595,00
-30780,50	293,00
-30690,95	447,00
-30601,77	385,00
-30512,97	415,00
-30424,53	507,00
-30336,46	512,00
-30248,76	435,00
-30161,42	477,00
-30074,44	501,00
-29987,81	418,00
-29901,55	401,00
-29815,63	438,00
-29730,07	572,00
-29644,86	322,00
-29560,00	466,00
-29475,48	408,00
-29391,30	443,00
-29307,47	344,00
-29223,97	479,00
-29140,81	436,00
-29057,99	484,00
-28975,50	405,00
-28893,34	423,00
-28811,51	456,00
-28730,00	421,00
-28648,82	423,00
-28567,97	551,00
-28487,43	397,00
-28407,21	442,00
-28327,32	468,00
-28247,73	475,00
-28168,46	382,00
-28089,50	347,00
-28010,85	414,00
-27932,51	419,00
-27854,48	473,00
-27776,75	393,00
-27699,32	380,00
-27622,19	440,00
-27545,37	378,00
-27468,84	321,00
-27392,60	622,00
-27316,66	408,00
-27241,01	447,00
-27165,66	486,00
-27090,59	293,00
-27015,81	368,00
-26941,31	463,00
-26867,10	378,00
-26793,17	399,00
-26719,52	425,00
-26646,15	338,00
-26573,06	453,00
-26500,24	429,00
-26427,70	371,00
-26355,43	487,00
-26283,43	398,00
-26211,71	514,00
-26140,25	453,00
-26069,06	621,00
-25998,13	385,00
-25927,46	420,00
-25857,06	369,00
-25786,92	422,00
-25717,04	540,00
-25647,42	407,00
-25578,05	311,00
-25508,94	443,00
-25440,09	462,00
-25371,48	392,00
-25303,13	462,00
-25235,02	364,00
-25167,17	392,00
-25099,56	397,00
-25032,19	373,00
-24965,07	435,00
-24898,20	327,00
-24831,56	469,00
-24765,17	450,00
-24699,01	394,00
-24633,10	366,00
-24567,41	487,00
-24501,97	553,00
-24436,75	363,00
-24371,77	351,00
-24307,03	406,00
-24242,51	355,00
-24178,22	329,00
-24114,16	352,00
-24050,32	493,00
-23986,71	389,00
-23923,32	437,00
-23860,16	371,00
-23797,22	339,00
-23734,50	472,00
-23672,00	539,00
-23609,71	406,00
-23547,65	333,00
-23485,80	397,00
-23424,16	506,00
-23362,74	442,00
-23301,53	332,00
-23240,54	248,00
-23179,75	332,00
-23119,17	484,00
-23058,80	469,00
-22998,64	342,00
-22938,68	503,00
-22878,93	500,00
-22819,39	423,00
-22760,04	379,00
-22700,90	358,00
-22641,96	439,00
-22583,22	380,00
-22524,68	320,00
-22466,33	511,00
-22408,19	443,00
-22350,23	328,00
-22292,48	433,00
-22234,92	354,00
-22177,55	487,00
-22120,37	450,00
-22063,38	296,00
-22006,58	356,00
-21949,98	351,00
-21893,56	409,00
-21837,33	308,00
-21781,28	417,00
-21725,42	363,00
-21669,74	350,00
-21614,25	416,00
-21558,94	438,00
-21503,81	456,00
-21448,86	343,00
-21394,10	286,00
-21339,51	456,00
-21285,10	365,00
-21230,86	423,00
-21176,81	411,00
-21122,93	395,00
-21069,22	396,00
-21015,69	408,00
-20962,33	413,00
-20909,14	440,00
-20856,13	367,00
-20803,28	449,00
-20750,61	423,00
-20698,10	401,00
-20645,76	379,00
-20593,59	359,00
-20541,59	429,00
-20489,75	406,00
-20438,07	313,00
-20386,56	460,00
-20335,22	278,00
-20284,03	375,00
-20233,01	377,00
-20182,15	386,00
-20131,45	370,00
-20080,91	344,00
-20030,52	406,00
-19980,30	380,00
-19930,23	247,00
-19880,32	544,00
-19830,56	401,00
-19780,96	400,00
-19731,52	373,00
-19682,23	355,00
-19633,09	369,00
-19584,10	325,00
-19535,26	452,00
-19486,58	444,00
-19438,04	349,00
-19389,66	313,00
-19341,42	420,00
-19293,33	492,00
-19245,39	487,00
-19197,60	326,00
-19149,95	407,00
-19102,45	360,00
-19055,09	340,00
-19007,87	498,00
-18960,80	483,00
-18913,87	528,00
-18867,09	293,00
-18820,44	429,00
-18773,94	435,00
-18727,57	340,00
-18681,35	354,00
-18635,26	481,00
-18589,31	420,00
-18543,50	444,00
-18497,83	346,00
-18452,29	522,00
-18406,89	258,00
-18361,63	577,00
-18316,50	372,00
-18271,50	397,00
-18226,63	493,00
-18181,90	425,00
-18137,30	425,00
-18092,84	359,00
-18048,50	427,00
-18004,29	322,00
-17960,22	366,00
-17916,27	399,00
-17872,45	359,00
-17828,76	442,00
-17785,20	381,00
-17741,77	454,00
-17698,46	403,00
-17655,28	349,00
-17612,22	354,00
-17569,29	432,00
-17526,48	288,00
-17483,79	470,00
-17441,23	380,00
-17398,79	438,00
-17356,48	484,00
-17314,28	329,00
-17272,21	335,00
-17230,26	367,00
-17188,42	449,00
-17146,71	391,00
-17105,12	391,00
-17063,64	310,00
-17022,28	378,00
-16981,04	325,00
-16939,92	364,00
-16898,91	413,00
-16858,02	308,00
-16817,25	443,00
-16776,59	367,00
-16736,04	419,00
-16695,61	372,00
-16655,29	419,00
-16615,09	436,00
-16574,99	441,00
-16535,01	383,00
-16495,15	390,00
-16455,39	402,00
-16415,74	293,00
-16376,21	396,00
-16336,78	356,00
-16297,46	374,00
-16258,26	353,00
-16219,16	406,00
-16180,17	524,00
-16141,28	500,00
-16102,51	305,00
-16063,84	492,00
-16025,27	426,00
-15986,82	396,00
-15948,46	347,00
-15910,22	373,00
-15872,07	352,00
-15834,04	415,00
-15796,10	443,00
-15758,27	340,00
-15720,54	301,00
-15682,91	387,00
-15645,39	414,00
-15607,97	411,00
-15570,64	449,00
-15533,42	421,00
-15496,30	329,00
-15459,28	415,00
-15422,36	363,00
-15385,54	387,00
-15348,82	412,00
-15312,19	520,00
-15275,66	334,00
-15239,23	318,00
-15202,90	433,00
-15166,67	276,00
-15130,53	324,00
-15094,48	385,00
-15058,54	248,00
-15022,68	404,00
-14986,93	434,00
-14951,26	430,00
-14915,69	383,00
-14880,22	363,00
-14844,84	365,00
-14809,55	477,00
-14774,35	400,00
-14739,25	449,00
-14704,24	380,00
-14669,32	406,00
-14634,49	377,00
-14599,75	322,00
-14565,10	331,00
-14530,55	417,00
-14496,08	306,00
-14461,70	450,00
-14427,41	336,00
-14393,21	461,00
-14359,10	382,00
-14325,07	451,00
-14291,14	373,00
-14257,29	348,00
-14223,52	336,00
-14189,85	467,00
-14156,26	329,00
-14122,76	406,00
-14089,34	381,00
-14056,01	357,00
-14022,76	412,00
-13989,60	353,00
-13956,52	452,00
-13923,53	382,00
-13890,62	278,00
-13857,79	374,00
-13825,05	391,00
-13792,39	324,00
-13759,81	453,00
-13727,31	303,00
-13694,90	402,00
-13662,57	421,00
-13630,31	446,00
-13598,14	484,00
-13566,05	334,00
-13534,05	419,00
-13502,12	515,00
-13470,27	343,00
-13438,50	346,00
-13406,80	374,00
-13375,19	433,00
-13343,66	428,00
-13312,20	405,00
-13280,83	360,00
-13249,53	366,00
-13218,30	299,00
-13187,16	486,00
-13156,09	436,00
-13125,10	396,00
-13094,18	523,00
-13063,34	391,00
-13032,58	359,00
-13001,89	370,00
-12971,28	318,00
-12940,74	517,00
-12910,27	359,00
-12879,88	377,00
-12849,57	484,00
-12819,33	311,00
-12789,16	456,00
-12759,06	444,00
-12729,04	449,00
-12699,09	-24,00
-12669,21	431,00
-12639,41	295,00
-12609,68	410,00
-12580,02	311,00
-12550,43	407,00
-12520,91	358,00
-12491,46	420,00
-12462,08	465,00
-12432,77	358,00
-12403,54	379,00
-12374,37	464,00
-12345,27	426,00
-12316,24	331,00
-12287,29	390,00
-12258,40	482,00
-12229,57	408,00
-12200,82	367,00
-12172,14	431,00
-12143,52	358,00
-12114,97	399,00
-12086,49	401,00
-12058,07	431,00
-12029,73	360,00
-12001,44	385,00
-11973,23	458,00
-11945,08	434,00
-11917,00	546,00
-11888,98	405,00
-11861,03	407,00
-11833,15	489,00
-11805,32	401,00
-11777,57	453,00
-11749,88	361,00
-11722,25	359,00
-11694,69	389,00
-11667,19	374,00
-11639,75	449,00
-11612,38	363,00
-11585,07	347,00
-11557,83	377,00
-11530,65	436,00
-11503,53	390,00
-11476,47	431,00
-11449,48	295,00
-11422,54	453,00
-11395,67	248,00
-11368,86	488,00
-11342,11	396,00
-11315,43	388,00
-11288,80	384,00
-11262,23	389,00
-11235,73	433,00
-11209,28	508,00
-11182,90	456,00
-11156,57	341,00
-11130,31	573,00
-11104,10	375,00
-11077,96	301,00
-11051,87	429,00
-11025,84	433,00
-10999,87	351,00
-10973,96	391,00
-10948,11	395,00
-10922,31	274,00
-10896,58	328,00
-10870,90	416,00
-10845,28	563,00
-10819,71	358,00
-10794,20	351,00
-10768,75	380,00
-10743,36	408,00
-10718,02	309,00
-10692,74	453,00
-10667,52	282,00
-10642,35	429,00
-10617,24	395,00
-10592,18	381,00
-10567,18	307,00
-10542,23	470,00
-10517,34	308,00
-10492,51	523,00
-10467,72	365,00
-10443,00	190,00
-10418,32	290,00
-10393,70	343,00
-10369,14	392,00
-10344,63	330,00
-10320,17	363,00
-10295,77	321,00
-10271,42	255,00
-10247,12	517,00
-10222,88	366,00
-10198,68	312,00
-10174,54	309,00
-10150,46	342,00
-10126,42	414,00
-10102,44	390,00
-10078,51	419,00
-10054,63	264,00
-10030,80	373,00
-10007,03	398,00
-9983,30	376,00
-9959,63	281,00
-9936,01	340,00
-9912,44	246,00
-9888,92	319,00
-9865,44	208,00
-9842,02	310,00
-9818,65	241,00
-9795,33	246,00
-9772,06	248,00
-9748,84	226,00
-9725,67	158,00
-9702,55	266,00
-9679,47	233,00
-9656,45	228,00
-9633,47	114,00
-9610,55	168,00
-9587,67	157,00
-9564,84	217,00
-9542,06	55,00
-9519,32	186,00
-9496,64	1,00
-9474,00	-140,00
-9451,41	-51,00
-9428,87	131,00
-9406,37	9,00
-9383,92	-76,00
-9361,52	-57,00
-9339,17	-37,00
-9316,86	-120,00
-9294,60	-85,00
-9272,38	-191,00
-9250,21	-107,00
-9228,09	-327,00
-9206,01	-202,00
-9183,98	-282,00
-9162,00	-288,00
-9140,06	-191,00
-9118,16	-179,00
-9096,31	-133,00
-9074,51	-140,00
-9052,75	-177,00
-9031,04	-18,00
-9009,37	-74,00
-8987,74	-35,00
-8966,16	-31,00
-8944,63	-138,00
-8923,14	-87,00
-8901,69	13,00
-8880,29	-88,00
-8858,93	-36,00
-8837,61	28,00
-8816,34	25,00
-8795,11	6,00
-8773,92	22,00
-8752,78	-143,00
-8731,68	-86,00
-8710,62	-97,00
-8689,61	-43,00
-8668,63	-120,00
-8647,70	98,00
-8626,82	-76,00
-8605,97	127,00
-8585,17	-16,00
-8564,41	-96,00
-8543,69	122,00
-8523,01	-123,00
-8502,37	184,00
-8481,78	6,00
-8461,23	-40,00
-8440,71	-2,00
-8420,24	86,00
-8399,81	26,00
-8379,42	91,00
-8359,08	128,00
-8338,77	55,00
-8318,50	11,00
-8298,27	-13,00
-8278,09	18,00
-8257,94	-35,00
-8237,83	-30,00
-8217,76	-79,00
-8197,74	51,00
-8177,75	167,00
-8157,80	137,00
-8137,89	121,00
-8118,02	-48,00
-8098,19	73,00
-8078,40	23,00
-8058,65	31,00
-8038,93	42,00
-8019,26	-20,00
-7999,62	93,00
-7980,02	-6,00
-7960,46	-39,00
-7940,94	116,00
-7921,46	120,00
-7902,01	58,00
-7882,60	144,00
-7863,23	31,00
-7843,90	33,00
-7824,61	-75,00
-7805,35	110,00
-7786,13	72,00
-7766,95	115,00
-7747,80	248,00
-7728,69	150,00
-7709,62	130,00
-7690,59	59,00
-7671,59	111,00
-7652,63	-26,00
-7633,70	46,00
-7614,81	58,00
-7595,96	113,00
-7577,15	121,00
-7558,37	80,00
-7539,62	233,00
-7520,91	151,00
-7502,24	180,00
-7483,60	38,00
-7465,00	24,00
-7446,44	101,00
-7427,91	182,00
-7409,41	195,00
-7390,95	164,00
-7372,53	146,00
-7354,14	135,00
-7335,78	197,00
-7317,46	213,00
-7299,18	86,00
-7280,92	210,00
-7262,71	96,00
-7244,52	134,00
-7226,38	17,00
-7208,26	2,00
-7190,18	83,00
-7172,14	234,00
-7154,12	97,00
-7136,15	180,00
-7118,20	160,00
-7100,29	62,00
-7082,41	164,00
-7064,57	9,00
-7046,76	62,00
-7028,98	142,00
-7011,24	202,00
-6993,53	85,00
-6975,85	56,00
-6958,20	234,00
-6940,59	261,00
-6923,01	134,00
-6905,46	273,00
-6887,94	107,00
-6870,46	2598,00
-6853,01	151,00
-6835,59	132,00
-6818,21	141,00
-6800,85	166,00
-6783,53	278,00
-6766,24	139,00
-6748,98	21,00
-6731,76	183,00
-6714,56	117,00
-6697,40	202,00
-6680,26	290,00
-6663,16	253,00
-6646,09	171,00
-6629,05	241,00
-6612,05	149,00
-6595,07	229,00
-6578,13	258,00
-6561,21	310,00
-6544,33	299,00
-6527,47	155,00
-6510,65	246,00
-6493,86	269,00
-6477,10	307,00
-6460,36	242,00
-6443,66	134,00
-6426,99	343,00
-6410,35	266,00
-6393,74	218,00
-6377,16	113,00
-6360,61	179,00
-6344,09	281,00
-6327,59	219,00
-6311,13	206,00
-6294,70	114,00
-6278,29	167,00
-6261,92	141,00
-6245,58	202,00
-6229,26	269,00
-6212,97	274,00
-6196,72	92,00
-6180,49	300,00
-6164,29	160,00
-6148,12	378,00
-6131,98	223,00
-6115,86	332,00
-6099,78	199,00
-6083,72	312,00
-6067,69	250,00
-6051,69	309,00
-6035,72	267,00
-6019,78	339,00
-6003,87	243,00
-5987,98	179,00
-5972,12	139,00
-5956,29	153,00
-5940,49	220,00
-5924,71	319,00
-5908,96	210,00
-5893,24	278,00
-5877,55	306,00
-5861,89	337,00
-5846,25	273,00
-5830,64	355,00
-5815,05	259,00
-5799,50	427,00
-5783,97	313,00
-5768,47	266,00
-5752,99	333,00
-5737,55	282,00
-5722,12	182,00
-5706,73	231,00
-5691,36	233,00
-5676,02	287,00
-5660,71	331,00
-5645,42	295,00
-5630,16	256,00
-5614,92	390,00
-5599,71	303,00
-5584,53	272,00
-5569,37	262,00
-5554,24	571,00
-5539,14	261,00
-5524,06	325,00
-5509,01	270,00
-5493,98	298,00
-5478,98	285,00
-5464,00	345,00
-5449,05	156,00
-5434,13	330,00
-5419,23	308,00
-5404,36	249,00
-5389,51	212,00
-5374,69	350,00
-5359,89	117,00
-5345,12	209,00
-5330,37	301,00
-5315,65	221,00
-5300,95	368,00
-5286,28	300,00
-5271,63	234,00
-5257,01	150,00
-5242,41	304,00
-5227,84	303,00
-5213,29	266,00
-5198,76	388,00
-5184,26	384,00
-5169,79	360,00
-5155,33	190,00
-5140,91	362,00
-5126,51	180,00
-5112,13	173,00
-5097,77	289,00
-5083,44	307,00
-5069,13	305,00
-5054,85	307,00
-5040,59	213,00
-5026,36	274,00
-5012,15	276,00
-4997,96	229,00
-4983,80	355,00
-4969,66	315,00
-4955,54	427,00
-4941,44	217,00
-4927,37	155,00
-4913,33	141,00
-4899,30	268,00
-4885,30	143,00
-4871,33	135,00
-4857,37	289,00
-4843,44	303,00
-4829,53	369,00
-4815,65	275,00
-4801,79	282,00
-4787,95	313,00
-4774,13	282,00
-4760,34	389,00
-4746,56	291,00
-4732,82	485,00
-4719,09	447,00
-4705,38	190,00
-4691,70	223,00
-4678,04	259,00
-4664,41	175,00
-4650,79	296,00
-4637,20	319,00
-4623,63	278,00
-4610,08	319,00
-4596,56	294,00
-4583,05	214,00
-4569,57	317,00
-4556,11	387,00
-4542,67	216,00
-4529,25	375,00
-4515,86	243,00
-4502,49	135,00
-4489,13	189,00
-4475,80	303,00
-4462,49	328,00
-4449,21	429,00
-4435,94	308,00
-4422,70	394,00
-4409,47	329,00
-4396,27	242,00
-4383,09	299,00
-4369,93	333,00
-4356,79	279,00
-4343,67	385,00
-4330,58	368,00
-4317,50	323,00
-4304,45	161,00
-4291,41	315,00
-4278,40	348,00
-4265,41	315,00
-4252,44	399,00
-4239,49	269,00
-4226,55	371,00
-4213,65	401,00
-4200,76	308,00
-4187,89	354,00
-4175,04	261,00
-4162,21	328,00
-4149,40	421,00
-4136,61	287,00
-4123,85	444,00
-4111,10	344,00
-4098,37	355,00
-4085,66	335,00
-4072,98	408,00
-4060,31	420,00
-4047,66	431,00
-4035,04	531,00
-4022,43	459,00
-4009,84	400,00
-3997,27	464,00
-3984,72	372,00
-3972,19	352,00
-3959,69	308,00
-3947,20	448,00
-3934,73	502,00
-3922,27	466,00
-3909,84	355,00
-3897,43	301,00
-3885,04	438,00
-3872,67	380,00
-3860,31	318,00
-3847,98	453,00
-3835,66	467,00
-3823,36	431,00
-3811,09	314,00
-3798,83	354,00
-3786,59	448,00
-3774,37	609,00
-3762,17	347,00
-3749,98	406,00
-3737,82	402,00
-3725,67	521,00
-3713,55	407,00
-3701,44	404,00
-3689,35	448,00
-3677,28	481,00
-3665,22	313,00
-3653,19	404,00
-3641,17	281,00
-3629,18	371,00
-3617,20	564,00
-3605,24	477,00
-3593,30	443,00
-3581,37	440,00
-3569,47	363,00
-3557,58	483,00
-3545,71	460,00
-3533,86	346,00
-3522,02	416,00
-3510,21	517,00
-3498,41	403,00
-3486,63	414,00
-3474,87	426,00
-3463,12	355,00
-3451,40	466,00
-3439,69	308,00
-3428,00	361,00
-3416,33	438,00
-3404,67	301,00
-3393,03	490,00
-3381,41	464,00
-3369,81	382,00
-3358,22	368,00
-3346,66	432,00
-3335,10	515,00
-3323,57	342,00
-3312,06	430,00
-3300,56	489,00
-3289,08	459,00
-3277,61	405,00
-3266,16	395,00
-3254,73	374,00
-3243,32	349,00
-3231,92	401,00
-3220,55	364,00
-3209,18	445,00
-3197,84	385,00
-3186,51	418,00
-3175,20	462,00
-3163,90	320,00
-3152,63	386,00
-3141,36	405,00
-3130,12	415,00
-3118,89	288,00
-3107,68	425,00
-3096,49	439,00
-3085,31	453,00
-3074,15	412,00
-3063,00	434,00
-3051,87	429,00
-3040,76	261,00
-3029,67	471,00
-3018,59	617,00
-3007,52	374,00
-2996,48	382,00
-2985,44	326,00
-2974,43	547,00
-2963,43	376,00
-2952,45	350,00
-2941,48	492,00
-2930,53	419,00
-2919,60	441,00
-2908,68	413,00
-2897,78	416,00
-2886,89	443,00
-2876,02	313,00
-2865,17	366,00
-2854,33	338,00
-2843,50	424,00
-2832,70	444,00
-2821,90	408,00
-2811,13	467,00
-2800,37	392,00
-2789,62	537,00
-2778,89	309,00
-2768,18	435,00
-2757,48	474,00
-2746,80	466,00
-2736,13	417,00
-2725,48	424,00
-2714,84	407,00
-2704,22	493,00
-2693,61	382,00
-2683,02	361,00
-2672,45	349,00
-2661,89	400,00
-2651,34	389,00
-2640,81	342,00
-2630,30	427,00
-2619,80	383,00
-2609,31	423,00
-2598,84	304,00
-2588,39	390,00
-2577,95	420,00
-2567,52	390,00
-2557,11	405,00
-2546,71	455,00
-2536,33	424,00
-2525,97	432,00
-2515,62	426,00
-2505,28	413,00
-2494,96	448,00
-2484,65	455,00
-2474,36	513,00
-2464,08	355,00
-2453,82	418,00
-2443,57	397,00
-2433,33	307,00
-2423,11	441,00
-2412,91	453,00
-2402,72	319,00
-2392,54	451,00
-2382,38	443,00
-2372,23	440,00
-2362,09	4806,00
-2351,97	330,00
-2341,87	420,00
-2331,78	464,00
-2321,70	437,00
-2311,64	413,00
-2301,59	379,00
-2291,55	414,00
-2281,53	389,00
-2271,53	405,00
-2261,53	439,00
-2251,55	487,00
-2241,59	466,00
-2231,64	405,00
-2221,70	327,00
-2211,78	398,00
-2201,87	508,00
-2191,97	410,00
-2182,09	511,00
-2172,22	386,00
-2162,37	483,00
-2152,53	292,00
-2142,70	410,00
-2132,89	388,00
-2123,09	389,00
-2113,30	495,00
-2103,53	356,00
-2093,77	431,00
-2084,02	391,00
-2074,29	527,00
-2064,57	423,00
-2054,86	478,00
-2045,17	394,00
-2035,49	386,00
-2025,82	417,00
-2016,17	367,00
-2006,53	442,00
-1996,91	357,00
-1987,29	464,00
-1977,69	436,00
-1968,11	410,00
-1958,53	318,00
-1948,97	487,00
-1939,42	430,00
-1929,89	367,00
-1920,37	478,00
-1910,86	444,00
-1901,36	474,00
-1891,88	376,00
-1882,41	442,00
-1872,95	483,00
-1863,51	435,00
-1854,08	404,00
-1844,66	489,00
-1835,26	444,00
-1825,86	382,00
-1816,48	481,00
-1807,11	380,00
-1797,76	365,00
-1788,42	352,00
-1779,09	445,00
-1769,77	437,00
-1760,47	467,00
-1751,17	387,00
-1741,89	343,00
-1732,63	380,00
-1723,37	434,00
-1714,13	412,00
-1704,90	385,00
-1695,68	544,00
-1686,48	295,00
-1677,29	450,00
-1668,11	494,00
-1658,94	460,00
-1649,78	435,00
-1640,64	346,00
-1631,51	471,00
-1622,39	407,00
-1613,28	402,00
-1604,19	397,00
-1595,10	374,00
-1586,03	443,00
-1576,97	311,00
-1567,93	440,00
-1558,89	347,00
-1549,87	374,00
-1540,86	350,00
-1531,86	326,00
-1522,87	356,00
-1513,90	552,00
-1504,93	417,00
-1495,98	334,00
-1487,04	429,00
-1478,12	282,00
-1469,20	350,00
-1460,30	460,00
-1451,40	449,00
-1442,52	485,00
-1433,65	327,00
-1424,80	347,00
-1415,95	413,00
-1407,12	492,00
-1398,30	357,00
-1389,48	354,00
-1380,69	446,00
-1371,90	421,00
-1363,12	387,00
-1354,36	547,00
-1345,60	414,00
-1336,86	394,00
-1328,13	440,00
-1319,41	455,00
-1310,70	317,00
-1302,01	499,00
-1293,32	426,00
-1284,65	450,00
-1275,99	350,00
-1267,33	429,00
-1258,69	334,00
-1250,06	486,00
-1241,45	411,00
-1232,84	426,00
-1224,25	374,00
-1215,66	543,00
-1207,09	400,00
-1198,53	408,00
-1189,97	429,00
-1181,43	307,00
-1172,91	439,00
-1164,39	535,00
-1155,88	357,00
-1147,38	407,00
-1138,90	444,00
-1130,43	375,00
-1121,96	542,00
-1113,51	441,00
-1105,07	466,00
-1096,64	426,00
-1088,22	412,00
-1079,81	458,00
-1071,41	386,00
-1063,02	473,00
-1054,65	399,00
-1046,28	448,00
-1037,92	494,00
-1029,58	492,00
-1021,24	372,00
-1012,92	533,00
-1004,61	412,00
-996,30	404,00
-988,01	343,00
-979,73	352,00
-971,46	443,00
-963,20	384,00
-954,95	473,00
-946,71	405,00
-938,48	403,00
-930,26	408,00
-922,06	492,00
-913,86	392,00
-905,67	413,00
-897,49	422,00
-889,33	420,00
-881,17	474,00
-873,02	398,00
-864,89	404,00
-856,76	449,00
-848,65	432,00
-840,54	470,00
-832,45	546,00
-824,36	420,00
-816,29	450,00
-808,22	502,00
-800,17	553,00
-792,12	459,00
-784,09	397,00
-776,06	460,00
-768,05	415,00
-760,04	366,00
-752,05	350,00
-744,07	336,00
-736,09	408,00
-728,13	280,00
-720,17	394,00
-712,23	329,00
-704,29	396,00
-696,37	428,00
-688,45	410,00
-680,55	461,00
-672,65	297,00
-664,77	450,00
-656,89	426,00
-649,03	406,00
-641,17	452,00
-633,32	437,00
-625,49	375,00
-617,66	334,00
-609,84	456,00
-602,03	444,00
-594,23	333,00
-586,45	434,00
-578,67	401,00
-570,90	370,00
-563,14	405,00
-555,39	355,00
-547,65	459,00
-539,91	474,00
-532,19	387,00
-524,48	445,00
-516,78	402,00
-509,08	460,00
-501,40	438,00
-493,72	458,00
-486,06	474,00
-478,40	518,00
-470,76	336,00
-463,12	315,00
-455,49	389,00
-447,87	339,00
-440,26	372,00
-432,66	364,00
-425,07	465,00
-417,49	505,00
-409,92	332,00
-402,35	415,00
-394,80	383,00
-387,25	279,00
-379,72	357,00
-372,19	466,00
-364,67	534,00
-357,17	458,00
-349,67	429,00
-342,18	435,00
-334,69	466,00
-327,22	445,00
-319,76	441,00
-312,30	475,00
-304,86	459,00
-297,42	384,00
-290,00	404,00
-282,58	547,00
-275,17	629,00
-267,77	445,00
-260,37	451,00
-252,99	442,00
-245,62	384,00
-238,25	532,00
-230,90	424,00
-223,55	450,00
-216,21	515,00
-208,88	572,00
-201,56	466,00
-194,25	531,00
-186,94	571,00
-179,65	631,00
-172,36	627,00
-165,08	658,00
-157,81	706,00
-150,55	709,00
-143,30	687,00
-136,06	654,00
-128,82	901,00
-121,60	822,00
-114,38	982,00
-107,17	975,00
-99,97	1079,00
-92,78	1079,00
-85,60	1361,00
-78,42	1356,00
-71,25	1550,00
-64,10	1706,00
-56,95	1850,00
-49,81	2081,00
-42,67	2628,00
-35,55	3055,00
-28,43	4005,00
-21,33	6126,00
-14,23	18450,00
-7,14	56670,00
-0,05	56467,00
7,02	56225,00
14,09	56403,00
21,14	21198,00
28,19	8375,00
35,23	5408,00
42,27	4266,00
49,29	3497,00
56,31	2941,00
63,32	2350,00
70,32	2269,00
77,31	1850,00
84,29	1701,00
91,27	1628,00
98,23	1607,00
105,19	1465,00
112,14	1606,00
119,09	2808,00
126,02	4738,00
132,95	5820,00
139,87	6260,00
146,78	6312,00
153,68	6327,00
160,58	6228,00
167,46	6154,00
174,34	6222,00
181,21	6200,00
188,08	6157,00
194,93	6204,00
201,78	6272,00
208,62	6335,00
215,45	6334,00
222,27	6423,00
229,09	6284,00
235,90	6169,00
242,70	6214,00
249,49	6340,00
256,27	6162,00
263,05	6163,00
269,82	6183,00
276,58	6293,00
283,33	6142,00
290,08	6133,00
296,82	6260,00
303,55	6125,00
310,27	6024,00
316,98	6087,00
323,69	6004,00
330,39	6087,00
337,08	6204,00
343,76	6014,00
350,44	6104,00
357,11	6153,00
363,77	6043,00
370,42	5993,00
377,07	6175,00
383,71	6134,00
390,34	6107,00
396,96	6083,00
403,58	6239,00
410,19	6260,00
416,79	6430,00
423,38	6308,00
429,97	6402,00
436,55	5993,00
443,12	6304,00
449,68	6022,00
456,24	6192,00
462,79	6019,00
469,33	6199,00
475,86	5981,00
482,39	6096,00
488,91	6192,00
495,42	6060,00
501,93	6125,00
508,42	5991,00
514,91	6048,00
521,40	5884,00
527,87	6034,00
534,34	5898,00
540,80	6148,00
547,25	6155,00
553,70	6038,00
560,14	6113,00
566,57	6104,00
573,00	6039,00
579,41	6036,00
585,83	6083,00
592,23	6129,00
598,62	6094,00
605,01	5970,00
611,40	5965,00
617,77	6021,00
624,14	6064,00
630,50	6199,00
636,85	6063,00
643,20	6036,00
649,54	6095,00
655,87	5993,00
662,20	6059,00
668,52	6033,00
674,83	5959,00
681,13	6089,00
687,43	5920,00
693,72	6046,00
700,00	6053,00
706,28	5972,00
712,55	5934,00
718,81	6072,00
725,07	6088,00
731,32	5905,00
737,56	6096,00
743,79	6080,00
750,02	6075,00
756,24	6070,00
762,46	6119,00
768,67	6245,00
774,87	6172,00
781,06	6166,00
787,25	6264,00
793,43	6162,00
799,60	6309,00
805,77	6151,00
811,93	6314,00
818,08	6211,00
824,23	6189,00
830,37	6256,00
836,50	6344,00
842,63	6253,00
848,75	6149,00
854,87	6172,00
860,97	6122,00
867,07	6235,00
873,17	6216,00
879,25	6222,00
885,33	6162,00
891,41	6182,00
897,47	6163,00
903,53	6127,00
909,59	6274,00
915,63	6273,00
921,67	6210,00
927,71	6094,00
933,74	6282,00
939,76	6160,00
945,77	6181,00
951,78	6257,00
957,78	6236,00
963,78	6296,00
969,77	6200,00
975,75	6212,00
981,72	6332,00
987,69	6712,00
993,66	6391,00
999,61	6413,00
1005,56	6427,00
1011,51	6389,00
1017,44	6372,00
1023,37	6392,00
1029,30	6434,00
1035,22	6568,00
1041,13	6598,00
1047,03	6523,00
1052,93	6982,00
1058,83	7484,00
1064,71	7913,00
1070,59	7513,00
1076,47	7031,00
1082,33	6869,00
1088,20	6732,00
1094,05	6765,00
1099,90	6635,00
1105,74	6666,00
1111,58	6880,00
1117,41	6794,00
1123,23	7452,00
1129,05	8085,00
1134,86	7928,00
1140,67	7361,00
1146,47	7033,00
1152,26	6795,00
1158,05	6549,00
1163,83	6753,00
1169,60	6753,00
1175,37	6977,00
1181,13	6738,00
1186,89	6580,00
1192,64	6743,00
1198,38	6638,00
1204,12	6698,00
1209,85	6615,00
1215,58	6724,00
1221,30	6735,00
1227,02	6723,00
1232,72	6904,00
1238,43	6825,00
1244,12	6783,00
1249,81	6814,00
1255,50	6902,00
1261,17	6924,00
1266,85	6772,00
1272,51	6919,00
1278,17	7061,00
1283,83	7291,00
1289,47	7881,00
1295,12	8719,00
1300,75	8600,00
1306,38	7791,00
1312,01	7299,00
1317,63	7167,00
1323,24	7061,00
1328,85	7028,00
1334,45	7001,00
1340,04	6917,00
1345,63	7014,00
1351,22	6970,00
1356,80	6949,00
1362,37	7154,00
1367,93	7170,00
1373,49	7111,00
1379,05	7008,00
1384,60	7018,00
1390,14	7085,00
1395,68	7055,00
1401,21	7154,00
1406,74	7313,00
1412,26	7551,00
1417,77	7984,00
1423,28	7911,00
1428,78	7936,00
1434,28	8502,00
1439,77	8965,00
1445,26	8883,00
1450,74	8511,00
1456,22	8326,00
1461,68	8333,00
1467,15	8154,00
1472,61	7699,00
1478,06	7449,00
1483,51	7229,00
1488,95	7003,00
1494,38	6818,00
1499,81	6838,00
1505,24	6891,00
1510,65	6799,00
1516,07	6665,00
1521,48	6643,00
1526,88	6640,00
1532,27	6542,00
1537,67	6549,00
1543,05	6585,00
1548,43	6647,00
1553,81	6531,00
1559,18	6502,00
1564,54	6388,00
1569,90	6630,00
1575,25	6453,00
1580,60	6444,00
1585,94	6494,00
1591,28	6512,00
1596,61	6412,00
1601,93	6498,00
1607,25	6489,00
1612,57	6477,00
1617,88	6322,00
1623,18	6348,00
1628,48	6391,00
1633,77	6398,00
1639,06	6365,00
1644,34	6244,00
1649,62	6129,00
1654,89	6253,00
1660,16	6138,00
1665,42	6294,00
1670,67	6165,00
1675,92	6063,00
1681,17	6112,00
1686,41	6033,00
1691,64	6019,00
1696,87	6064,00
1702,10	6115,00
1707,32	5959,00
1712,53	5968,00
1717,74	5923,00
1722,94	5985,00
1728,14	5901,00
1733,33	6002,00
1738,52	5746,00
1743,70	5936,00
1748,88	5920,00
1754,05	5900,00
1759,22	5846,00
1764,38	4473,00
1769,53	5664,00
1774,69	5715,00
1779,83	5784,00
1784,97	5759,00
1790,11	5631,00
1795,24	5488,00
1800,36	5594,00
1805,48	5569,00
1810,60	5510,00
1815,71	5522,00
1820,82	5505,00
1825,92	5631,00
1831,01	5582,00
1836,10	5659,00
1841,19	5623,00
1846,26	5509,00
1851,34	5548,00
1856,41	5539,00
1861,47	5539,00
1866,53	5552,00
1871,59	5472,00
1876,64	5440,00
1881,68	5404,00
1886,72	5405,00
1891,76	5275,00
1896,79	5335,00
1901,81	5287,00
1906,83	5360,00
1911,85	5200,00
1916,86	5277,00
1921,86	5170,00
1926,86	5171,00
1931,86	5184,00
1936,85	5009,00
1941,83	5065,00
1946,81	4917,00
1951,79	5045,00
1956,76	4918,00
1961,72	4909,00
1966,68	4888,00
1971,64	4915,00
1976,59	4922,00
1981,54	4887,00
1986,48	4784,00
1991,42	4786,00
1996,35	4840,00
2001,27	4810,00
2006,20	4775,00
2011,11	4762,00
2016,03	4771,00
2020,93	4674,00
2025,84	4819,00
2030,73	4749,00
2035,63	4696,00
2040,52	4657,00
2045,40	4590,00
2050,28	4611,00
2055,15	4597,00
2060,02	4549,00
2064,89	4618,00
2069,75	4580,00
2074,60	4514,00
2079,46	4580,00
2084,30	4616,00
2089,14	4577,00
2093,98	4575,00
2098,81	4582,00
2103,64	4527,00
2108,46	4570,00
2113,28	4614,00
2118,09	4522,00
2122,90	4536,00
2127,70	4476,00
2132,50	4627,00
2137,30	4369,00
2142,09	4347,00
2146,87	4398,00
2151,66	4375,00
2156,43	4380,00
2161,20	4481,00
2165,97	4427,00
2170,73	4281,00
2175,49	4295,00
2180,24	4275,00
2184,99	4399,00
2189,74	4281,00
2194,48	4319,00
2199,21	4354,00
2203,94	4095,00
2208,67	4270,00
2213,39	4105,00
2218,11	4030,00
2222,82	4052,00
2227,53	4005,00
2232,23	4079,00
2236,93	4110,00
2241,63	4074,00
2246,32	4018,00
2251,00	4040,00
2255,68	3997,00
2260,36	3998,00
2265,03	3821,00
2269,70	4013,00
2274,36	3959,00
2279,02	3960,00
2283,68	3953,00
2288,33	3873,00
2292,97	3923,00
2297,61	3861,00
2302,25	4025,00
2306,88	3786,00
2311,51	4033,00
2316,14	3782,00
2320,75	3872,00
2325,37	3840,00
2329,98	3873,00
2334,59	3646,00
2339,19	3731,00
2343,79	3676,00
2348,38	3616,00
2352,97	3593,00
2357,55	3673,00
2362,13	3655,00
2366,71	3521,00
2371,28	3642,00
2375,85	3541,00
2380,41	3538,00
2384,97	3504,00
2389,52	3442,00
2394,07	3479,00
2398,62	3358,00
2403,16	3402,00
2407,70	3294,00
2412,23	3478,00
2416,76	3436,00
2421,29	3372,00
2425,81	3388,00
2430,32	3302,00
2434,84	3167,00
2439,34	3249,00
2443,85	3218,00
2448,35	3215,00
2452,84	3286,00
2457,33	3244,00
2461,82	3173,00
2466,30	3198,00
2470,78	3036,00
2475,25	3143,00
2479,72	3117,00
2484,19	3011,00
2488,65	3117,00
2493,11	2958,00
2497,56	2913,00
2502,01	2913,00
2506,46	3032,00
2510,90	2971,00
2515,34	3082,00
2519,77	2946,00
2524,20	3049,00
2528,62	2978,00
2533,04	2904,00
2537,46	2764,00
2541,87	2794,00
2546,28	2880,00
2550,68	2834,00
2555,08	2881,00
2559,48	2810,00
2563,87	2756,00
2568,26	2791,00
2572,64	2681,00
2577,02	2828,00
2581,40	2697,00
2585,77	2637,00
2590,14	2655,00
2594,50	2577,00
2598,86	2572,00
2603,22	2679,00
2607,57	2576,00
2611,92	2654,00
2616,26	2526,00
2620,60	2580,00
2624,94	2550,00
2629,27	2579,00
2633,60	2518,00
2637,92	2618,00
2642,24	2610,00
2646,56	2544,00
2650,87	2448,00
2655,18	2566,00
2659,48	2472,00
2663,78	2425,00
2668,08	2413,00
2672,37	2365,00
2676,66	2536,00
2680,95	2553,00
2685,23	2443,00
2689,50	2546,00
2693,78	2458,00
2698,05	2475,00
2702,31	2434,00
2706,57	2543,00
2710,83	2655,00
2715,08	2610,00
2719,33	2702,00
2723,58	2683,00
2727,82	2655,00
2732,06	2483,00
2736,29	2644,00
2740,53	2472,00
2744,75	2471,00
2748,97	2515,00
2753,19	2365,00
2757,41	2447,00
2761,62	2291,00
2765,83	2358,00
2770,03	2311,00
2774,23	2450,00
2778,43	2219,00
2782,62	2418,00
2786,81	2315,00
2791,00	2441,00
2795,18	2418,00
2799,35	2380,00
2803,53	2452,00
2807,70	2435,00
2811,86	2483,00
2816,03	2568,00
2820,19	2505,00
2824,34	2555,00
2828,49	2692,00
2832,64	3103,00
2836,78	3269,00
2840,92	3638,00
2845,06	4064,00
2849,19	4414,00
2853,32	4533,00
2857,45	4569,00
2861,57	4548,00
2865,69	4301,00
2869,80	4223,00
2873,91	4302,00
2878,02	4585,00
2882,12	4777,00
2886,22	4615,00
2890,32	4589,00
2894,41	4220,00
2898,50	4040,00
2902,58	3716,00
2906,67	3533,00
2910,74	3351,00
2914,82	3265,00
2918,89	3101,00
2922,96	3021,00
2927,02	2945,00
2931,08	2800,00
2935,13	2667,00
2939,19	2534,00
2943,24	2551,00
2947,28	2312,00
2951,32	2248,00
2955,36	2119,00
2959,40	2048,00
2963,43	2036,00
2967,46	1854,00
2971,48	1897,00
2975,50	1826,00
2979,52	1793,00
2983,53	1765,00
2987,54	1643,00
2991,55	1636,00
2995,55	1663,00
2999,55	1491,00
3003,54	1576,00
3007,54	1548,00
3011,53	1380,00
3015,51	1483,00
3019,49	1482,00
3023,47	1511,00
3027,45	1473,00
3031,42	1363,00
3035,39	1476,00
3039,35	1297,00
3043,31	1348,00
3047,27	1302,00
3051,22	1478,00
3055,17	1426,00
3059,12	1247,00
3063,06	1285,00
3067,00	1299,00
3070,94	1294,00
3074,87	1193,00
3078,80	1350,00
3082,73	1119,00
3086,65	1232,00
3090,57	1250,00
3094,49	1285,00
3098,40	1355,00
3102,31	1138,00
3106,22	1112,00
3110,12	1223,00
3114,02	1224,00
3117,92	1161,00
3121,81	1127,00
3125,70	1045,00
3129,58	1049,00
3133,47	983,00
3137,34	1024,00
3141,22	1074,00
3145,09	1095,00
3148,96	1040,00
3152,83	1032,00
3156,69	1208,00
3160,55	1022,00
3164,40	1034,00
3168,26	958,00
3172,10	1099,00
3175,95	1160,00
3179,79	1036,00
3183,63	1081,00
3187,47	1021,00
3191,30	1058,00
3195,13	1083,00
3198,95	956,00
3202,78	879,00
3206,60	1044,00
3210,41	921,00
3214,23	1037,00
3218,03	840,00
3221,84	858,00
3225,64	951,00
3229,44	931,00
3233,24	815,00
3237,03	891,00
3240,82	919,00
3244,61	848,00
3248,39	853,00
3252,17	937,00
3255,95	969,00
3259,72	930,00
3263,49	913,00
3267,26	811,00
3271,03	834,00
3274,79	843,00
3278,54	880,00
3282,30	824,00
3286,05	853,00
3289,80	909,00
3293,54	755,00
3297,29	824,00
3301,02	716,00
3304,76	869,00
3308,49	867,00
3312,22	709,00
3315,95	816,00
3319,67	773,00
3323,39	819,00
3327,10	842,00
3330,82	779,00
3334,53	797,00
3338,24	757,00
3341,94	753,00
3345,64	727,00
3349,34	750,00
3353,03	785,00
3356,72	751,00
3360,41	719,00
3364,10	691,00
3367,78	623,00
3371,46	729,00
3375,13	665,00
3378,81	605,00
3382,48	694,00
3386,14	723,00
3389,81	642,00
3393,47	731,00
3397,12	750,00
3400,78	703,00
3404,43	645,00
3408,08	767,00
3411,72	636,00
3415,36	658,00
3419,00	663,00
3422,64	637,00
3426,27	641,00
3429,90	583,00
3433,53	601,00
3437,15	697,00
3440,77	650,00
3444,39	660,00
3448,00	604,00
3451,62	613,00
3455,22	572,00
3458,83	726,00
3462,43	564,00
3466,03	621,00
3469,63	591,00
3473,22	617,00
3476,81	545,00
3480,40	542,00
3483,99	561,00
3487,57	623,00
3491,15	588,00
3494,72	488,00
3498,29	463,00
3501,86	522,00
3505,43	598,00
3508,99	550,00
3512,56	419,00
3516,11	595,00
3519,67	580,00
3523,22	578,00
3526,77	442,00
3530,32	565,00
3533,86	533,00
3537,40	547,00
3540,94	459,00
3544,47	499,00
3548,00	555,00
3551,53	672,00
3555,06	503,00
3558,58	595,00
3562,10	500,00
3565,62	614,00
3569,13	447,00
3572,64	530,00
3576,15	415,00
3579,66	554,00
3583,16	546,00
3586,66	457,00
3590,16	504,00
3593,65	310,00
3597,14	475,00
3600,63	405,00
3604,11	459,00
3607,60	449,00
3611,08	495,00
3614,55	390,00
3618,03	336,00
3621,50	470,00
3624,97	436,00
3628,43	505,00
3631,90	469,00
3635,36	450,00
3638,81	418,00
3642,27	540,00
3645,72	449,00
3649,17	535,00
3652,61	434,00
3656,06	390,00
3659,50	455,00
3662,93	460,00
3666,37	428,00
3669,80	364,00
3673,23	447,00
3676,65	455,00
3680,08	466,00
3683,50	368,00
3686,92	448,00
3690,33	355,00
3693,74	337,00
3697,15	374,00
3700,56	396,00
3703,96	433,00
3707,36	457,00
3710,76	350,00
3714,16	313,00
3717,55	351,00
3720,94	433,00
3724,33	398,00
3727,71	443,00
3731,10	356,00
3734,48	367,00
3737,85	314,00
3741,23	360,00
3744,60	425,00
3747,97	394,00
3751,33	323,00
3754,69	324,00
3758,05	434,00
3761,41	325,00
3764,77	322,00
3768,12	343,00
3771,47	296,00
3774,82	296,00
3778,16	3,00
3781,50	11,00
3784,84	4,00
3788,18	6,00
>>>>>End Processed Spectral Data<<<<<
