SpectraSuite Data File
++++++++++++++++++++++++++++++++++++
Date: Wed Feb 04 15:39:18 ICT 2026
User: Administrator
Dark Spectrum Present: Yes
Reference Spectrum Present: No
Number of Sampled Component Spectra: 1
Spectrometers: MAYP113682
Integration Time (usec): 3000000 (MAYP113682)
Spectra Averaged: 1 (MAYP113682)
Boxcar Smoothing: 0 (MAYP113682)
Correct for Electrical Dark: No (MAYP113682)
Strobe/Lamp Enabled: No (MAYP113682)
Correct for Detector Non-linearity: No (MAYP113682)
Correct for Stray Light: No (MAYP113682)
Number of Pixels in Processed Spectrum: 2068
>>>>>Begin Processed Spectral Data<<<<<
-37534,58	18,00
-37414,56	3,00
-37295,11	9,00
-37176,24	6,00
-37057,95	295,00
-36940,22	450,00
-36823,05	394,00
-36706,45	343,00
-36590,40	445,00
-36474,90	415,00
-36359,95	437,00
-36245,55	365,00
-36131,68	390,00
-36018,35	359,00
-35905,55	442,00
-35793,29	456,00
-35681,54	457,00
-35570,32	414,00
-35459,62	411,00
-35349,43	449,00
-35239,75	430,00
-35130,58	477,00
-35021,91	347,00
-34913,74	448,00
-34806,07	435,00
-34698,89	493,00
-34592,20	383,00
-34486,00	420,00
-34380,28	370,00
-34275,04	342,00
-34170,27	429,00
-34065,98	472,00
-33962,16	429,00
-33858,81	434,00
-33755,92	354,00
-33653,49	428,00
-33551,52	445,00
-33450,01	498,00
-33348,94	438,00
-33248,33	470,00
-33148,16	396,00
-33048,43	465,00
-32949,14	574,00
-32850,29	452,00
-32751,87	429,00
-32653,89	448,00
-32556,33	429,00
-32459,20	414,00
-32362,49	342,00
-32266,19	405,00
-32170,32	518,00
-32074,86	429,00
-31979,82	370,00
-31885,18	516,00
-31790,95	397,00
-31697,12	513,00
-31603,69	384,00
-31510,67	456,00
-31418,04	362,00
-31325,80	481,00
-31233,95	414,00
-31142,49	524,00
-31051,42	478,00
-30960,73	576,00
-30870,43	547,00
-30780,50	460,00
-30690,95	485,00
-30601,77	409,00
-30512,97	413,00
-30424,53	577,00
-30336,46	518,00
-30248,76	522,00
-30161,42	485,00
-30074,44	446,00
-29987,81	431,00
-29901,55	530,00
-29815,63	400,00
-29730,07	545,00
-29644,86	284,00
-29560,00	416,00
-29475,48	481,00
-29391,30	409,00
-29307,47	329,00
-29223,97	433,00
-29140,81	511,00
-29057,99	481,00
-28975,50	419,00
-28893,34	370,00
-28811,51	516,00
-28730,00	481,00
-28648,82	431,00
-28567,97	580,00
-28487,43	441,00
-28407,21	426,00
-28327,32	457,00
-28247,73	407,00
-28168,46	486,00
-28089,50	417,00
-28010,85	441,00
-27932,51	446,00
-27854,48	498,00
-27776,75	460,00
-27699,32	500,00
-27622,19	504,00
-27545,37	431,00
-27468,84	413,00
-27392,60	584,00
-27316,66	364,00
-27241,01	472,00
-27165,66	501,00
-27090,59	330,00
-27015,81	413,00
-26941,31	547,00
-26867,10	313,00
-26793,17	551,00
-26719,52	486,00
-26646,15	318,00
-26573,06	380,00
-26500,24	476,00
-26427,70	363,00
-26355,43	522,00
-26283,43	430,00
-26211,71	432,00
-26140,25	505,00
-26069,06	611,00
-25998,13	380,00
-25927,46	431,00
-25857,06	466,00
-25786,92	382,00
-25717,04	501,00
-25647,42	445,00
-25578,05	329,00
-25508,94	466,00
-25440,09	468,00
-25371,48	443,00
-25303,13	451,00
-25235,02	362,00
-25167,17	511,00
-25099,56	383,00
-25032,19	276,00
-24965,07	455,00
-24898,20	443,00
-24831,56	515,00
-24765,17	424,00
-24699,01	388,00
-24633,10	508,00
-24567,41	632,00
-24501,97	641,00
-24436,75	404,00
-24371,77	456,00
-24307,03	384,00
-24242,51	408,00
-24178,22	460,00
-24114,16	456,00
-24050,32	466,00
-23986,71	474,00
-23923,32	326,00
-23860,16	546,00
-23797,22	429,00
-23734,50	382,00
-23672,00	400,00
-23609,71	505,00
-23547,65	415,00
-23485,80	415,00
-23424,16	465,00
-23362,74	465,00
-23301,53	372,00
-23240,54	348,00
-23179,75	348,00
-23119,17	502,00
-23058,80	429,00
-22998,64	453,00
-22938,68	589,00
-22878,93	527,00
-22819,39	484,00
-22760,04	369,00
-22700,90	390,00
-22641,96	421,00
-22583,22	403,00
-22524,68	413,00
-22466,33	463,00
-22408,19	482,00
-22350,23	415,00
-22292,48	423,00
-22234,92	553,00
-22177,55	603,00
-22120,37	514,00
-22063,38	385,00
-22006,58	333,00
-21949,98	388,00
-21893,56	447,00
-21837,33	385,00
-21781,28	507,00
-21725,42	460,00
-21669,74	462,00
-21614,25	486,00
-21558,94	441,00
-21503,81	464,00
-21448,86	333,00
-21394,10	340,00
-21339,51	467,00
-21285,10	393,00
-21230,86	381,00
-21176,81	441,00
-21122,93	408,00
-21069,22	417,00
-21015,69	408,00
-20962,33	440,00
-20909,14	470,00
-20856,13	456,00
-20803,28	431,00
-20750,61	312,00
-20698,10	367,00
-20645,76	399,00
-20593,59	475,00
-20541,59	491,00
-20489,75	475,00
-20438,07	361,00
-20386,56	424,00
-20335,22	326,00
-20284,03	361,00
-20233,01	481,00
-20182,15	378,00
-20131,45	440,00
-20080,91	338,00
-20030,52	493,00
-19980,30	419,00
-19930,23	345,00
-19880,32	437,00
-19830,56	370,00
-19780,96	425,00
-19731,52	427,00
-19682,23	351,00
-19633,09	454,00
-19584,10	323,00
-19535,26	504,00
-19486,58	478,00
-19438,04	349,00
-19389,66	336,00
-19341,42	451,00
-19293,33	534,00
-19245,39	414,00
-19197,60	438,00
-19149,95	461,00
-19102,45	504,00
-19055,09	369,00
-19007,87	485,00
-18960,80	474,00
-18913,87	515,00
-18867,09	380,00
-18820,44	432,00
-18773,94	391,00
-18727,57	391,00
-18681,35	303,00
-18635,26	386,00
-18589,31	417,00
-18543,50	301,00
-18497,83	363,00
-18452,29	547,00
-18406,89	356,00
-18361,63	547,00
-18316,50	406,00
-18271,50	431,00
-18226,63	512,00
-18181,90	532,00
-18137,30	383,00
-18092,84	345,00
-18048,50	417,00
-18004,29	404,00
-17960,22	456,00
-17916,27	440,00
-17872,45	494,00
-17828,76	393,00
-17785,20	450,00
-17741,77	392,00
-17698,46	397,00
-17655,28	346,00
-17612,22	413,00
-17569,29	463,00
-17526,48	395,00
-17483,79	420,00
-17441,23	370,00
-17398,79	449,00
-17356,48	402,00
-17314,28	392,00
-17272,21	408,00
-17230,26	459,00
-17188,42	439,00
-17146,71	323,00
-17105,12	387,00
-17063,64	426,00
-17022,28	475,00
-16981,04	385,00
-16939,92	457,00
-16898,91	559,00
-16858,02	412,00
-16817,25	441,00
-16776,59	357,00
-16736,04	423,00
-16695,61	403,00
-16655,29	418,00
-16615,09	444,00
-16574,99	431,00
-16535,01	492,00
-16495,15	427,00
-16455,39	436,00
-16415,74	345,00
-16376,21	405,00
-16336,78	291,00
-16297,46	405,00
-16258,26	424,00
-16219,16	525,00
-16180,17	496,00
-16141,28	512,00
-16102,51	410,00
-16063,84	402,00
-16025,27	506,00
-15986,82	430,00
-15948,46	385,00
-15910,22	433,00
-15872,07	334,00
-15834,04	412,00
-15796,10	455,00
-15758,27	453,00
-15720,54	318,00
-15682,91	429,00
-15645,39	438,00
-15607,97	401,00
-15570,64	413,00
-15533,42	515,00
-15496,30	366,00
-15459,28	394,00
-15422,36	524,00
-15385,54	392,00
-15348,82	464,00
-15312,19	461,00
-15275,66	397,00
-15239,23	320,00
-15202,90	543,00
-15166,67	328,00
-15130,53	357,00
-15094,48	447,00
-15058,54	304,00
-15022,68	393,00
-14986,93	488,00
-14951,26	440,00
-14915,69	437,00
-14880,22	424,00
-14844,84	341,00
-14809,55	496,00
-14774,35	400,00
-14739,25	486,00
-14704,24	363,00
-14669,32	354,00
-14634,49	361,00
-14599,75	543,00
-14565,10	379,00
-14530,55	413,00
-14496,08	450,00
-14461,70	445,00
-14427,41	494,00
-14393,21	496,00
-14359,10	377,00
-14325,07	557,00
-14291,14	412,00
-14257,29	416,00
-14223,52	400,00
-14189,85	476,00
-14156,26	368,00
-14122,76	414,00
-14089,34	425,00
-14056,01	459,00
-14022,76	486,00
-13989,60	367,00
-13956,52	416,00
-13923,53	488,00
-13890,62	339,00
-13857,79	520,00
-13825,05	389,00
-13792,39	350,00
-13759,81	416,00
-13727,31	353,00
-13694,90	447,00
-13662,57	432,00
-13630,31	496,00
-13598,14	491,00
-13566,05	430,00
-13534,05	375,00
-13502,12	498,00
-13470,27	368,00
-13438,50	425,00
-13406,80	383,00
-13375,19	406,00
-13343,66	390,00
-13312,20	407,00
-13280,83	435,00
-13249,53	357,00
-13218,30	312,00
-13187,16	426,00
-13156,09	455,00
-13125,10	452,00
-13094,18	387,00
-13063,34	300,00
-13032,58	316,00
-13001,89	323,00
-12971,28	450,00
-12940,74	357,00
-12910,27	343,00
-12879,88	336,00
-12849,57	406,00
-12819,33	333,00
-12789,16	454,00
-12759,06	373,00
-12729,04	433,00
-12699,09	44,00
-12669,21	491,00
-12639,41	400,00
-12609,68	324,00
-12580,02	373,00
-12550,43	469,00
-12520,91	398,00
-12491,46	413,00
-12462,08	414,00
-12432,77	348,00
-12403,54	358,00
-12374,37	571,00
-12345,27	478,00
-12316,24	449,00
-12287,29	418,00
-12258,40	419,00
-12229,57	526,00
-12200,82	475,00
-12172,14	448,00
-12143,52	288,00
-12114,97	419,00
-12086,49	396,00
-12058,07	417,00
-12029,73	412,00
-12001,44	450,00
-11973,23	459,00
-11945,08	461,00
-11917,00	512,00
-11888,98	436,00
-11861,03	468,00
-11833,15	437,00
-11805,32	445,00
-11777,57	430,00
-11749,88	429,00
-11722,25	353,00
-11694,69	469,00
-11667,19	400,00
-11639,75	501,00
-11612,38	329,00
-11585,07	458,00
-11557,83	419,00
-11530,65	446,00
-11503,53	532,00
-11476,47	428,00
-11449,48	357,00
-11422,54	484,00
-11395,67	392,00
-11368,86	513,00
-11342,11	320,00
-11315,43	595,00
-11288,80	394,00
-11262,23	419,00
-11235,73	462,00
-11209,28	468,00
-11182,90	478,00
-11156,57	461,00
-11130,31	586,00
-11104,10	417,00
-11077,96	363,00
-11051,87	497,00
-11025,84	478,00
-10999,87	428,00
-10973,96	361,00
-10948,11	384,00
-10922,31	310,00
-10896,58	453,00
-10870,90	485,00
-10845,28	521,00
-10819,71	427,00
-10794,20	421,00
-10768,75	425,00
-10743,36	441,00
-10718,02	323,00
-10692,74	446,00
-10667,52	356,00
-10642,35	343,00
-10617,24	418,00
-10592,18	418,00
-10567,18	383,00
-10542,23	431,00
-10517,34	347,00
-10492,51	477,00
-10467,72	387,00
-10443,00	244,00
-10418,32	300,00
-10393,70	432,00
-10369,14	417,00
-10344,63	313,00
-10320,17	478,00
-10295,77	345,00
-10271,42	226,00
-10247,12	389,00
-10222,88	366,00
-10198,68	363,00
-10174,54	426,00
-10150,46	355,00
-10126,42	429,00
-10102,44	448,00
-10078,51	310,00
-10054,63	277,00
-10030,80	381,00
-10007,03	460,00
-9983,30	364,00
-9959,63	273,00
-9936,01	357,00
-9912,44	242,00
-9888,92	268,00
-9865,44	201,00
-9842,02	410,00
-9818,65	264,00
-9795,33	325,00
-9772,06	234,00
-9748,84	223,00
-9725,67	186,00
-9702,55	236,00
-9679,47	182,00
-9656,45	160,00
-9633,47	67,00
-9610,55	189,00
-9587,67	124,00
-9564,84	215,00
-9542,06	63,00
-9519,32	33,00
-9496,64	31,00
-9474,00	-136,00
-9451,41	-90,00
-9428,87	87,00
-9406,37	-62,00
-9383,92	33,00
-9361,52	38,00
-9339,17	60,00
-9316,86	-9,00
-9294,60	-229,00
-9272,38	-76,00
-9250,21	-120,00
-9228,09	-230,00
-9206,01	-155,00
-9183,98	-323,00
-9162,00	-254,00
-9140,06	-131,00
-9118,16	-161,00
-9096,31	-247,00
-9074,51	-171,00
-9052,75	-99,00
-9031,04	-98,00
-9009,37	-110,00
-8987,74	-56,00
-8966,16	10,00
-8944,63	-44,00
-8923,14	-42,00
-8901,69	-115,00
-8880,29	-56,00
-8858,93	31,00
-8837,61	-48,00
-8816,34	15,00
-8795,11	-7,00
-8773,92	34,00
-8752,78	-53,00
-8731,68	-83,00
-8710,62	65,00
-8689,61	-126,00
-8668,63	23,00
-8647,70	138,00
-8626,82	-28,00
-8605,97	92,00
-8585,17	60,00
-8564,41	57,00
-8543,69	58,00
-8523,01	-58,00
-8502,37	124,00
-8481,78	33,00
-8461,23	-176,00
-8440,71	-27,00
-8420,24	48,00
-8399,81	-21,00
-8379,42	74,00
-8359,08	46,00
-8338,77	116,00
-8318,50	-32,00
-8298,27	-65,00
-8278,09	-35,00
-8257,94	-35,00
-8237,83	50,00
-8217,76	-1,00
-8197,74	27,00
-8177,75	207,00
-8157,80	196,00
-8137,89	143,00
-8118,02	-9,00
-8098,19	155,00
-8078,40	95,00
-8058,65	39,00
-8038,93	22,00
-8019,26	-57,00
-7999,62	85,00
-7980,02	92,00
-7960,46	-38,00
-7940,94	116,00
-7921,46	165,00
-7902,01	-3,00
-7882,60	220,00
-7863,23	114,00
-7843,90	102,00
-7824,61	-62,00
-7805,35	197,00
-7786,13	-4,00
-7766,95	124,00
-7747,80	189,00
-7728,69	159,00
-7709,62	123,00
-7690,59	63,00
-7671,59	157,00
-7652,63	37,00
-7633,70	45,00
-7614,81	88,00
-7595,96	141,00
-7577,15	154,00
-7558,37	33,00
-7539,62	301,00
-7520,91	167,00
-7502,24	180,00
-7483,60	-9,00
-7465,00	-12,00
-7446,44	167,00
-7427,91	143,00
-7409,41	157,00
-7390,95	227,00
-7372,53	126,00
-7354,14	111,00
-7335,78	270,00
-7317,46	227,00
-7299,18	132,00
-7280,92	188,00
-7262,71	69,00
-7244,52	94,00
-7226,38	103,00
-7208,26	148,00
-7190,18	89,00
-7172,14	163,00
-7154,12	53,00
-7136,15	166,00
-7118,20	113,00
-7100,29	113,00
-7082,41	183,00
-7064,57	105,00
-7046,76	180,00
-7028,98	126,00
-7011,24	251,00
-6993,53	191,00
-6975,85	114,00
-6958,20	185,00
-6940,59	263,00
-6923,01	187,00
-6905,46	302,00
-6887,94	130,00
-6870,46	2582,00
-6853,01	109,00
-6835,59	104,00
-6818,21	108,00
-6800,85	189,00
-6783,53	222,00
-6766,24	216,00
-6748,98	87,00
-6731,76	222,00
-6714,56	256,00
-6697,40	91,00
-6680,26	225,00
-6663,16	254,00
-6646,09	248,00
-6629,05	261,00
-6612,05	143,00
-6595,07	267,00
-6578,13	289,00
-6561,21	247,00
-6544,33	355,00
-6527,47	185,00
-6510,65	139,00
-6493,86	303,00
-6477,10	250,00
-6460,36	276,00
-6443,66	118,00
-6426,99	258,00
-6410,35	263,00
-6393,74	230,00
-6377,16	172,00
-6360,61	156,00
-6344,09	306,00
-6327,59	239,00
-6311,13	332,00
-6294,70	144,00
-6278,29	158,00
-6261,92	169,00
-6245,58	141,00
-6229,26	176,00
-6212,97	273,00
-6196,72	262,00
-6180,49	181,00
-6164,29	213,00
-6148,12	324,00
-6131,98	207,00
-6115,86	252,00
-6099,78	312,00
-6083,72	266,00
-6067,69	247,00
-6051,69	321,00
-6035,72	279,00
-6019,78	269,00
-6003,87	285,00
-5987,98	199,00
-5972,12	179,00
-5956,29	94,00
-5940,49	180,00
-5924,71	294,00
-5908,96	245,00
-5893,24	350,00
-5877,55	313,00
-5861,89	291,00
-5846,25	225,00
-5830,64	335,00
-5815,05	252,00
-5799,50	386,00
-5783,97	351,00
-5768,47	278,00
-5752,99	332,00
-5737,55	224,00
-5722,12	108,00
-5706,73	152,00
-5691,36	359,00
-5676,02	363,00
-5660,71	448,00
-5645,42	343,00
-5630,16	301,00
-5614,92	253,00
-5599,71	264,00
-5584,53	307,00
-5569,37	315,00
-5554,24	471,00
-5539,14	378,00
-5524,06	208,00
-5509,01	242,00
-5493,98	354,00
-5478,98	233,00
-5464,00	289,00
-5449,05	162,00
-5434,13	349,00
-5419,23	344,00
-5404,36	231,00
-5389,51	247,00
-5374,69	226,00
-5359,89	91,00
-5345,12	256,00
-5330,37	300,00
-5315,65	335,00
-5300,95	240,00
-5286,28	210,00
-5271,63	265,00
-5257,01	234,00
-5242,41	282,00
-5227,84	352,00
-5213,29	251,00
-5198,76	253,00
-5184,26	390,00
-5169,79	385,00
-5155,33	213,00
-5140,91	342,00
-5126,51	258,00
-5112,13	185,00
-5097,77	326,00
-5083,44	429,00
-5069,13	189,00
-5054,85	271,00
-5040,59	233,00
-5026,36	218,00
-5012,15	297,00
-4997,96	281,00
-4983,80	438,00
-4969,66	229,00
-4955,54	399,00
-4941,44	231,00
-4927,37	216,00
-4913,33	140,00
-4899,30	53,00
-4885,30	155,00
-4871,33	147,00
-4857,37	226,00
-4843,44	364,00
-4829,53	276,00
-4815,65	311,00
-4801,79	310,00
-4787,95	151,00
-4774,13	255,00
-4760,34	449,00
-4746,56	287,00
-4732,82	412,00
-4719,09	265,00
-4705,38	213,00
-4691,70	186,00
-4678,04	191,00
-4664,41	240,00
-4650,79	411,00
-4637,20	373,00
-4623,63	359,00
-4610,08	295,00
-4596,56	255,00
-4583,05	295,00
-4569,57	345,00
-4556,11	429,00
-4542,67	271,00
-4529,25	439,00
-4515,86	308,00
-4502,49	201,00
-4489,13	182,00
-4475,80	240,00
-4462,49	277,00
-4449,21	508,00
-4435,94	269,00
-4422,70	350,00
-4409,47	237,00
-4396,27	256,00
-4383,09	447,00
-4369,93	471,00
-4356,79	328,00
-4343,67	395,00
-4330,58	377,00
-4317,50	362,00
-4304,45	317,00
-4291,41	416,00
-4278,40	310,00
-4265,41	373,00
-4252,44	409,00
-4239,49	294,00
-4226,55	390,00
-4213,65	348,00
-4200,76	352,00
-4187,89	346,00
-4175,04	298,00
-4162,21	392,00
-4149,40	433,00
-4136,61	411,00
-4123,85	479,00
-4111,10	489,00
-4098,37	442,00
-4085,66	357,00
-4072,98	441,00
-4060,31	402,00
-4047,66	487,00
-4035,04	475,00
-4022,43	490,00
-4009,84	455,00
-3997,27	418,00
-3984,72	358,00
-3972,19	349,00
-3959,69	288,00
-3947,20	444,00
-3934,73	474,00
-3922,27	433,00
-3909,84	435,00
-3897,43	380,00
-3885,04	440,00
-3872,67	428,00
-3860,31	326,00
-3847,98	469,00
-3835,66	385,00
-3823,36	426,00
-3811,09	401,00
-3798,83	400,00
-3786,59	571,00
-3774,37	537,00
-3762,17	391,00
-3749,98	375,00
-3737,82	410,00
-3725,67	476,00
-3713,55	381,00
-3701,44	376,00
-3689,35	411,00
-3677,28	519,00
-3665,22	371,00
-3653,19	392,00
-3641,17	278,00
-3629,18	421,00
-3617,20	586,00
-3605,24	469,00
-3593,30	479,00
-3581,37	526,00
-3569,47	403,00
-3557,58	487,00
-3545,71	556,00
-3533,86	382,00
-3522,02	505,00
-3510,21	474,00
-3498,41	361,00
-3486,63	433,00
-3474,87	507,00
-3463,12	427,00
-3451,40	460,00
-3439,69	455,00
-3428,00	485,00
-3416,33	425,00
-3404,67	304,00
-3393,03	418,00
-3381,41	526,00
-3369,81	474,00
-3358,22	300,00
-3346,66	533,00
-3335,10	484,00
-3323,57	432,00
-3312,06	462,00
-3300,56	360,00
-3289,08	491,00
-3277,61	494,00
-3266,16	479,00
-3254,73	366,00
-3243,32	423,00
-3231,92	441,00
-3220,55	417,00
-3209,18	492,00
-3197,84	226,00
-3186,51	456,00
-3175,20	486,00
-3163,90	401,00
-3152,63	471,00
-3141,36	464,00
-3130,12	402,00
-3118,89	333,00
-3107,68	435,00
-3096,49	416,00
-3085,31	476,00
-3074,15	352,00
-3063,00	504,00
-3051,87	473,00
-3040,76	286,00
-3029,67	526,00
-3018,59	577,00
-3007,52	469,00
-2996,48	493,00
-2985,44	367,00
-2974,43	513,00
-2963,43	426,00
-2952,45	400,00
-2941,48	467,00
-2930,53	479,00
-2919,60	467,00
-2908,68	409,00
-2897,78	466,00
-2886,89	407,00
-2876,02	477,00
-2865,17	414,00
-2854,33	342,00
-2843,50	352,00
-2832,70	433,00
-2821,90	476,00
-2811,13	504,00
-2800,37	410,00
-2789,62	521,00
-2778,89	332,00
-2768,18	391,00
-2757,48	560,00
-2746,80	480,00
-2736,13	439,00
-2725,48	448,00
-2714,84	377,00
-2704,22	535,00
-2693,61	483,00
-2683,02	450,00
-2672,45	424,00
-2661,89	411,00
-2651,34	430,00
-2640,81	359,00
-2630,30	431,00
-2619,80	403,00
-2609,31	527,00
-2598,84	293,00
-2588,39	357,00
-2577,95	475,00
-2567,52	335,00
-2557,11	425,00
-2546,71	460,00
-2536,33	519,00
-2525,97	351,00
-2515,62	590,00
-2505,28	397,00
-2494,96	448,00
-2484,65	532,00
-2474,36	540,00
-2464,08	434,00
-2453,82	462,00
-2443,57	423,00
-2433,33	393,00
-2423,11	522,00
-2412,91	371,00
-2402,72	407,00
-2392,54	442,00
-2382,38	465,00
-2372,23	404,00
-2362,09	4765,00
-2351,97	377,00
-2341,87	425,00
-2331,78	502,00
-2321,70	545,00
-2311,64	380,00
-2301,59	355,00
-2291,55	360,00
-2281,53	386,00
-2271,53	421,00
-2261,53	422,00
-2251,55	543,00
-2241,59	453,00
-2231,64	469,00
-2221,70	463,00
-2211,78	482,00
-2201,87	454,00
-2191,97	528,00
-2182,09	447,00
-2172,22	395,00
-2162,37	457,00
-2152,53	317,00
-2142,70	397,00
-2132,89	357,00
-2123,09	511,00
-2113,30	374,00
-2103,53	346,00
-2093,77	402,00
-2084,02	383,00
-2074,29	539,00
-2064,57	470,00
-2054,86	508,00
-2045,17	451,00
-2035,49	457,00
-2025,82	502,00
-2016,17	346,00
-2006,53	528,00
-1996,91	395,00
-1987,29	467,00
-1977,69	457,00
-1968,11	501,00
-1958,53	467,00
-1948,97	403,00
-1939,42	456,00
-1929,89	350,00
-1920,37	416,00
-1910,86	551,00
-1901,36	495,00
-1891,88	371,00
-1882,41	421,00
-1872,95	495,00
-1863,51	379,00
-1854,08	389,00
-1844,66	577,00
-1835,26	505,00
-1825,86	497,00
-1816,48	505,00
-1807,11	404,00
-1797,76	478,00
-1788,42	439,00
-1779,09	524,00
-1769,77	406,00
-1760,47	461,00
-1751,17	481,00
-1741,89	368,00
-1732,63	467,00
-1723,37	446,00
-1714,13	509,00
-1704,90	314,00
-1695,68	465,00
-1686,48	369,00
-1677,29	473,00
-1668,11	577,00
-1658,94	507,00
-1649,78	440,00
-1640,64	456,00
-1631,51	459,00
-1622,39	430,00
-1613,28	346,00
-1604,19	445,00
-1595,10	405,00
-1586,03	399,00
-1576,97	416,00
-1567,93	418,00
-1558,89	461,00
-1549,87	461,00
-1540,86	344,00
-1531,86	408,00
-1522,87	428,00
-1513,90	559,00
-1504,93	426,00
-1495,98	439,00
-1487,04	432,00
-1478,12	380,00
-1469,20	375,00
-1460,30	401,00
-1451,40	501,00
-1442,52	382,00
-1433,65	424,00
-1424,80	289,00
-1415,95	465,00
-1407,12	564,00
-1398,30	480,00
-1389,48	459,00
-1380,69	519,00
-1371,90	432,00
-1363,12	312,00
-1354,36	538,00
-1345,60	412,00
-1336,86	440,00
-1328,13	541,00
-1319,41	459,00
-1310,70	394,00
-1302,01	503,00
-1293,32	402,00
-1284,65	428,00
-1275,99	438,00
-1267,33	452,00
-1258,69	439,00
-1250,06	499,00
-1241,45	418,00
-1232,84	405,00
-1224,25	533,00
-1215,66	527,00
-1207,09	435,00
-1198,53	399,00
-1189,97	538,00
-1181,43	276,00
-1172,91	434,00
-1164,39	559,00
-1155,88	320,00
-1147,38	435,00
-1138,90	511,00
-1130,43	473,00
-1121,96	480,00
-1113,51	440,00
-1105,07	424,00
-1096,64	503,00
-1088,22	401,00
-1079,81	443,00
-1071,41	510,00
-1063,02	424,00
-1054,65	574,00
-1046,28	408,00
-1037,92	522,00
-1029,58	418,00
-1021,24	368,00
-1012,92	588,00
-1004,61	385,00
-996,30	537,00
-988,01	432,00
-979,73	468,00
-971,46	394,00
-963,20	423,00
-954,95	516,00
-946,71	428,00
-938,48	396,00
-930,26	574,00
-922,06	464,00
-913,86	506,00
-905,67	400,00
-897,49	457,00
-889,33	386,00
-881,17	471,00
-873,02	405,00
-864,89	469,00
-856,76	434,00
-848,65	352,00
-840,54	554,00
-832,45	590,00
-824,36	453,00
-816,29	358,00
-808,22	491,00
-800,17	530,00
-792,12	456,00
-784,09	388,00
-776,06	484,00
-768,05	512,00
-760,04	380,00
-752,05	411,00
-744,07	512,00
-736,09	426,00
-728,13	386,00
-720,17	373,00
-712,23	289,00
-704,29	456,00
-696,37	353,00
-688,45	345,00
-680,55	479,00
-672,65	428,00
-664,77	487,00
-656,89	321,00
-649,03	476,00
-641,17	422,00
-633,32	528,00
-625,49	485,00
-617,66	357,00
-609,84	454,00
-602,03	385,00
-594,23	380,00
-586,45	446,00
-578,67	457,00
-570,90	395,00
-563,14	484,00
-555,39	393,00
-547,65	403,00
-539,91	469,00
-532,19	501,00
-524,48	503,00
-516,78	417,00
-509,08	464,00
-501,40	377,00
-493,72	453,00
-486,06	445,00
-478,40	531,00
-470,76	357,00
-463,12	400,00
-455,49	454,00
-447,87	449,00
-440,26	485,00
-432,66	455,00
-425,07	470,00
-417,49	547,00
-409,92	387,00
-402,35	401,00
-394,80	414,00
-387,25	361,00
-379,72	419,00
-372,19	435,00
-364,67	529,00
-357,17	458,00
-349,67	374,00
-342,18	420,00
-334,69	449,00
-327,22	418,00
-319,76	549,00
-312,30	515,00
-304,86	542,00
-297,42	512,00
-290,00	421,00
-282,58	484,00
-275,17	630,00
-267,77	480,00
-260,37	516,00
-252,99	443,00
-245,62	520,00
-238,25	551,00
-230,90	507,00
-223,55	521,00
-216,21	510,00
-208,88	641,00
-201,56	553,00
-194,25	614,00
-186,94	662,00
-179,65	626,00
-172,36	619,00
-165,08	601,00
-157,81	710,00
-150,55	795,00
-143,30	794,00
-136,06	767,00
-128,82	828,00
-121,60	996,00
-114,38	984,00
-107,17	984,00
-99,97	1115,00
-92,78	1240,00
-85,60	1383,00
-78,42	1484,00
-71,25	1667,00
-64,10	1829,00
-56,95	2092,00
-49,81	2315,00
-42,67	2782,00
-35,55	3369,00
-28,43	4240,00
-21,33	6796,00
-14,23	20174,00
-7,14	56670,00
-0,05	56467,00
7,02	56225,00
14,09	56403,00
21,14	22806,00
28,19	9284,00
35,23	5754,00
42,27	4520,00
49,29	3724,00
56,31	3132,00
63,32	2622,00
70,32	2460,00
77,31	2016,00
84,29	1961,00
91,27	1820,00
98,23	1769,00
105,19	1561,00
112,14	1914,00
119,09	3392,00
126,02	5920,00
132,95	7501,00
139,87	7965,00
146,78	7966,00
153,68	8126,00
160,58	8061,00
167,46	7943,00
174,34	7869,00
181,21	7980,00
188,08	7929,00
194,93	8162,00
201,78	8048,00
208,62	8202,00
215,45	7958,00
222,27	8328,00
229,09	8129,00
235,90	8120,00
242,70	8242,00
249,49	8062,00
256,27	8046,00
263,05	8016,00
269,82	7907,00
276,58	8044,00
283,33	8059,00
290,08	8157,00
296,82	7971,00
303,55	7805,00
310,27	7982,00
316,98	7972,00
323,69	7873,00
330,39	7814,00
337,08	7997,00
343,76	7968,00
350,44	7843,00
357,11	8136,00
363,77	7803,00
370,42	7836,00
377,07	7927,00
383,71	7897,00
390,34	7963,00
396,96	8115,00
403,58	8159,00
410,19	8066,00
416,79	8358,00
423,38	8240,00
429,97	8287,00
436,55	7968,00
443,12	8149,00
449,68	7861,00
456,24	8075,00
462,79	8036,00
469,33	8019,00
475,86	7929,00
482,39	8202,00
488,91	8098,00
495,42	8232,00
501,93	7999,00
508,42	7966,00
514,91	7910,00
521,40	7970,00
527,87	8031,00
534,34	7825,00
540,80	8167,00
547,25	8147,00
553,70	8035,00
560,14	8139,00
566,57	8008,00
573,00	8173,00
579,41	8059,00
585,83	8195,00
592,23	8180,00
598,62	8153,00
605,01	7901,00
611,40	7887,00
617,77	8029,00
624,14	8066,00
630,50	8033,00
636,85	8072,00
643,20	7974,00
649,54	8027,00
655,87	7988,00
662,20	8087,00
668,52	8119,00
674,83	8083,00
681,13	8009,00
687,43	7908,00
693,72	7970,00
700,00	8002,00
706,28	7983,00
712,55	7878,00
718,81	8043,00
725,07	8086,00
731,32	8017,00
737,56	8126,00
743,79	8124,00
750,02	8059,00
756,24	8147,00
762,46	8217,00
768,67	8330,00
774,87	8274,00
781,06	8118,00
787,25	8317,00
793,43	8160,00
799,60	8205,00
805,77	8362,00
811,93	8305,00
818,08	8156,00
824,23	8340,00
830,37	8429,00
836,50	8407,00
842,63	8433,00
848,75	8321,00
854,87	8230,00
860,97	8254,00
867,07	8293,00
873,17	8241,00
879,25	8172,00
885,33	8131,00
891,41	8272,00
897,47	8192,00
903,53	8250,00
909,59	8310,00
915,63	8368,00
921,67	8204,00
927,71	8197,00
933,74	8285,00
939,76	8064,00
945,77	8253,00
951,78	8232,00
957,78	8201,00
963,78	8240,00
969,77	8317,00
975,75	8365,00
981,72	8579,00
987,69	8798,00
993,66	8616,00
999,61	8493,00
1005,56	8600,00
1011,51	8561,00
1017,44	8570,00
1023,37	8465,00
1029,30	8710,00
1035,22	8756,00
1041,13	8708,00
1047,03	8745,00
1052,93	9271,00
1058,83	9937,00
1064,71	10340,00
1070,59	9729,00
1076,47	9361,00
1082,33	9116,00
1088,20	9053,00
1094,05	9006,00
1099,90	9005,00
1105,74	8948,00
1111,58	9011,00
1117,41	9044,00
1123,23	9944,00
1129,05	10606,00
1134,86	10418,00
1140,67	9734,00
1146,47	9214,00
1152,26	9182,00
1158,05	9143,00
1163,83	8997,00
1169,60	9135,00
1175,37	9204,00
1181,13	9028,00
1186,89	8996,00
1192,64	8993,00
1198,38	9000,00
1204,12	9035,00
1209,85	8943,00
1215,58	9051,00
1221,30	8979,00
1227,02	9023,00
1232,72	9314,00
1238,43	9042,00
1244,12	9117,00
1249,81	8968,00
1255,50	9205,00
1261,17	9355,00
1266,85	9223,00
1272,51	9325,00
1278,17	9612,00
1283,83	9730,00
1289,47	10464,00
1295,12	11574,00
1300,75	11436,00
1306,38	10331,00
1312,01	9766,00
1317,63	9517,00
1323,24	9505,00
1328,85	9450,00
1334,45	9474,00
1340,04	9293,00
1345,63	9482,00
1351,22	9374,00
1356,80	9507,00
1362,37	9421,00
1367,93	9590,00
1373,49	9635,00
1379,05	9450,00
1384,60	9496,00
1390,14	9352,00
1395,68	9470,00
1401,21	9538,00
1406,74	9746,00
1412,26	10031,00
1417,77	10390,00
1423,28	10378,00
1428,78	10352,00
1434,28	11107,00
1439,77	11689,00
1445,26	11584,00
1450,74	11296,00
1456,22	10928,00
1461,68	10937,00
1467,15	10732,00
1472,61	10340,00
1478,06	9910,00
1483,51	9615,00
1488,95	9390,00
1494,38	9286,00
1499,81	9150,00
1505,24	9245,00
1510,65	8984,00
1516,07	8935,00
1521,48	8861,00
1526,88	8977,00
1532,27	8801,00
1537,67	8899,00
1543,05	8931,00
1548,43	8816,00
1553,81	8736,00
1559,18	8734,00
1564,54	8801,00
1569,90	8826,00
1575,25	8818,00
1580,60	8668,00
1585,94	8764,00
1591,28	8829,00
1596,61	8616,00
1601,93	8723,00
1607,25	8746,00
1612,57	8849,00
1617,88	8568,00
1623,18	8510,00
1628,48	8609,00
1633,77	8582,00
1639,06	8531,00
1644,34	8339,00
1649,62	8499,00
1654,89	8430,00
1660,16	8301,00
1665,42	8265,00
1670,67	8362,00
1675,92	8363,00
1681,17	8364,00
1686,41	8253,00
1691,64	8181,00
1696,87	8117,00
1702,10	8166,00
1707,32	8048,00
1712,53	8238,00
1717,74	8104,00
1722,94	8142,00
1728,14	7892,00
1733,33	8036,00
1738,52	7935,00
1743,70	7959,00
1748,88	7989,00
1754,05	7876,00
1759,22	7831,00
1764,38	7839,00
1769,53	7776,00
1774,69	7726,00
1779,83	7703,00
1784,97	7648,00
1790,11	7597,00
1795,24	7543,00
1800,36	7575,00
1805,48	7520,00
1810,60	7460,00
1815,71	7718,00
1820,82	7427,00
1825,92	7590,00
1831,01	7519,00
1836,10	7585,00
1841,19	7570,00
1846,26	7618,00
1851,34	7635,00
1856,41	7542,00
1861,47	7641,00
1866,53	7494,00
1871,59	7417,00
1876,64	7357,00
1881,68	7448,00
1886,72	7238,00
1891,76	7371,00
1896,79	7218,00
1901,81	7167,00
1906,83	7261,00
1911,85	7103,00
1916,86	7098,00
1921,86	6968,00
1926,86	6985,00
1931,86	6829,00
1936,85	6905,00
1941,83	6905,00
1946,81	6726,00
1951,79	6796,00
1956,76	6698,00
1961,72	6655,00
1966,68	6701,00
1971,64	6698,00
1976,59	6638,00
1981,54	6651,00
1986,48	6479,00
1991,42	6656,00
1996,35	6611,00
2001,27	6564,00
2006,20	6635,00
2011,11	6402,00
2016,03	6301,00
2020,93	6289,00
2025,84	6368,00
2030,73	6460,00
2035,63	6465,00
2040,52	6400,00
2045,40	6258,00
2050,28	6338,00
2055,15	6263,00
2060,02	6285,00
2064,89	6254,00
2069,75	6283,00
2074,60	6232,00
2079,46	6153,00
2084,30	6188,00
2089,14	6199,00
2093,98	6162,00
2098,81	6228,00
2103,64	6103,00
2108,46	6231,00
2113,28	6195,00
2118,09	6086,00
2122,90	6093,00
2127,70	6115,00
2132,50	6092,00
2137,30	6103,00
2142,09	6040,00
2146,87	5954,00
2151,66	5973,00
2156,43	5970,00
2161,20	5969,00
2165,97	5890,00
2170,73	5844,00
2175,49	5933,00
2180,24	5830,00
2184,99	6003,00
2189,74	5842,00
2194,48	5775,00
2199,21	5746,00
2203,94	5557,00
2208,67	5663,00
2213,39	5581,00
2218,11	5470,00
2222,82	5541,00
2227,53	5417,00
2232,23	5541,00
2236,93	5474,00
2241,63	5401,00
2246,32	5413,00
2251,00	5369,00
2255,68	5469,00
2260,36	5387,00
2265,03	5311,00
2269,70	5364,00
2274,36	5242,00
2279,02	5221,00
2283,68	5274,00
2288,33	5267,00
2292,97	5181,00
2297,61	5259,00
2302,25	5313,00
2306,88	5234,00
2311,51	5182,00
2316,14	5183,00
2320,75	5235,00
2325,37	4984,00
2329,98	5168,00
2334,59	4950,00
2339,19	5002,00
2343,79	4998,00
2348,38	4804,00
2352,97	4853,00
2357,55	4840,00
2362,13	4890,00
2366,71	4888,00
2371,28	4825,00
2375,85	4894,00
2380,41	4703,00
2384,97	4704,00
2389,52	4577,00
2394,07	4732,00
2398,62	4667,00
2403,16	4600,00
2407,70	4557,00
2412,23	4661,00
2416,76	4566,00
2421,29	4502,00
2425,81	4579,00
2430,32	4439,00
2434,84	4374,00
2439,34	4472,00
2443,85	4378,00
2448,35	4407,00
2452,84	4354,00
2457,33	4324,00
2461,82	4227,00
2466,30	4191,00
2470,78	4247,00
2475,25	4127,00
2479,72	4078,00
2484,19	4056,00
2488,65	4122,00
2493,11	4108,00
2497,56	4024,00
2502,01	3802,00
2506,46	4124,00
2510,90	3940,00
2515,34	3952,00
2519,77	3921,00
2524,20	3997,00
2528,62	3964,00
2533,04	3970,00
2537,46	3760,00
2541,87	3741,00
2546,28	3792,00
2550,68	3756,00
2555,08	3817,00
2559,48	3793,00
2563,87	3828,00
2568,26	3770,00
2572,64	3656,00
2577,02	3609,00
2581,40	3534,00
2585,77	3466,00
2590,14	3541,00
2594,50	3419,00
2598,86	3421,00
2603,22	3433,00
2607,57	3420,00
2611,92	3389,00
2616,26	3306,00
2620,60	3449,00
2624,94	3360,00
2629,27	3419,00
2633,60	3339,00
2637,92	3346,00
2642,24	3427,00
2646,56	3310,00
2650,87	3336,00
2655,18	3458,00
2659,48	3344,00
2663,78	3249,00
2668,08	3326,00
2672,37	3275,00
2676,66	3370,00
2680,95	3225,00
2685,23	3230,00
2689,50	3390,00
2693,78	3180,00
2698,05	3299,00
2702,31	3203,00
2706,57	3358,00
2710,83	3250,00
2715,08	3388,00
2719,33	3523,00
2723,58	3514,00
2727,82	3310,00
2732,06	3301,00
2736,29	3331,00
2740,53	3254,00
2744,75	3156,00
2748,97	3190,00
2753,19	3105,00
2757,41	2942,00
2761,62	3040,00
2765,83	3099,00
2770,03	3044,00
2774,23	3138,00
2778,43	3086,00
2782,62	3068,00
2786,81	3090,00
2791,00	3003,00
2795,18	3169,00
2799,35	3096,00
2803,53	3103,00
2807,70	3203,00
2811,86	3254,00
2816,03	3125,00
2820,19	3389,00
2824,34	3272,00
2828,49	3511,00
2832,64	3811,00
2836,78	4010,00
2840,92	4573,00
2845,06	4956,00
2849,19	5393,00
2853,32	5646,00
2857,45	5604,00
2861,57	5393,00
2865,69	5250,00
2869,80	5207,00
2873,91	5369,00
2878,02	5581,00
2882,12	5964,00
2886,22	5785,00
2890,32	5637,00
2894,41	5417,00
2898,50	4848,00
2902,58	4677,00
2906,67	4405,00
2910,74	4288,00
2914,82	3955,00
2918,89	3795,00
2922,96	3732,00
2927,02	3609,00
2931,08	3409,00
2935,13	3359,00
2939,19	3143,00
2943,24	3103,00
2947,28	2929,00
2951,32	2844,00
2955,36	2710,00
2959,40	2565,00
2963,43	2524,00
2967,46	2382,00
2971,48	2432,00
2975,50	2453,00
2979,52	2214,00
2983,53	2179,00
2987,54	2117,00
2991,55	2154,00
2995,55	2176,00
2999,55	1902,00
3003,54	2013,00
3007,54	2006,00
3011,53	1929,00
3015,51	1949,00
3019,49	1810,00
3023,47	1908,00
3027,45	1857,00
3031,42	1842,00
3035,39	1860,00
3039,35	1847,00
3043,31	1764,00
3047,27	1703,00
3051,22	1746,00
3055,17	1765,00
3059,12	1630,00
3063,06	1678,00
3067,00	1637,00
3070,94	1578,00
3074,87	1499,00
3078,80	1633,00
3082,73	1519,00
3086,65	1553,00
3090,57	1549,00
3094,49	1583,00
3098,40	1526,00
3102,31	1520,00
3106,22	1445,00
3110,12	1522,00
3114,02	1576,00
3117,92	1468,00
3121,81	1439,00
3125,70	1452,00
3129,58	1350,00
3133,47	1333,00
3137,34	1353,00
3141,22	1322,00
3145,09	1491,00
3148,96	1377,00
3152,83	1332,00
3156,69	1465,00
3160,55	1369,00
3164,40	1333,00
3168,26	1351,00
3172,10	1390,00
3175,95	1418,00
3179,79	1378,00
3183,63	1365,00
3187,47	1241,00
3191,30	1386,00
3195,13	1270,00
3198,95	1166,00
3202,78	1233,00
3206,60	1224,00
3210,41	1109,00
3214,23	1232,00
3218,03	1120,00
3221,84	1140,00
3225,64	1200,00
3229,44	1119,00
3233,24	1038,00
3237,03	1194,00
3240,82	1122,00
3244,61	1140,00
3248,39	981,00
3252,17	1037,00
3255,95	1230,00
3259,72	1098,00
3263,49	1146,00
3267,26	1062,00
3271,03	1025,00
3274,79	979,00
3278,54	980,00
3282,30	961,00
3286,05	1140,00
3289,80	1064,00
3293,54	912,00
3297,29	990,00
3301,02	888,00
3304,76	986,00
3308,49	985,00
3312,22	939,00
3315,95	976,00
3319,67	944,00
3323,39	996,00
3327,10	934,00
3330,82	968,00
3334,53	902,00
3338,24	878,00
3341,94	897,00
3345,64	930,00
3349,34	864,00
3353,03	896,00
3356,72	948,00
3360,41	813,00
3364,10	876,00
3367,78	843,00
3371,46	764,00
3375,13	850,00
3378,81	855,00
3382,48	823,00
3386,14	881,00
3389,81	828,00
3393,47	833,00
3397,12	816,00
3400,78	889,00
3404,43	812,00
3408,08	1003,00
3411,72	732,00
3415,36	749,00
3419,00	812,00
3422,64	746,00
3426,27	847,00
3429,90	672,00
3433,53	713,00
3437,15	761,00
3440,77	683,00
3444,39	760,00
3448,00	751,00
3451,62	640,00
3455,22	655,00
3458,83	819,00
3462,43	659,00
3466,03	675,00
3469,63	642,00
3473,22	699,00
3476,81	652,00
3480,40	634,00
3483,99	620,00
3487,57	808,00
3491,15	702,00
3494,72	562,00
3498,29	565,00
3501,86	641,00
3505,43	709,00
3508,99	592,00
3512,56	593,00
3516,11	696,00
3519,67	577,00
3523,22	717,00
3526,77	564,00
3530,32	605,00
3533,86	616,00
3537,40	564,00
3540,94	470,00
3544,47	605,00
3548,00	562,00
3551,53	633,00
3555,06	517,00
3558,58	596,00
3562,10	638,00
3565,62	550,00
3569,13	685,00
3572,64	625,00
3576,15	522,00
3579,66	671,00
3583,16	534,00
3586,66	434,00
3590,16	593,00
3593,65	439,00
3597,14	559,00
3600,63	529,00
3604,11	422,00
3607,60	542,00
3611,08	478,00
3614,55	557,00
3618,03	529,00
3621,50	515,00
3624,97	531,00
3628,43	539,00
3631,90	484,00
3635,36	444,00
3638,81	399,00
3642,27	526,00
3645,72	463,00
3649,17	462,00
3652,61	397,00
3656,06	408,00
3659,50	389,00
3662,93	549,00
3666,37	500,00
3669,80	440,00
3673,23	363,00
3676,65	577,00
3680,08	492,00
3683,50	407,00
3686,92	473,00
3690,33	416,00
3693,74	392,00
3697,15	435,00
3700,56	431,00
3703,96	429,00
3707,36	385,00
3710,76	325,00
3714,16	387,00
3717,55	349,00
3720,94	428,00
3724,33	354,00
3727,71	518,00
3731,10	487,00
3734,48	395,00
3737,85	362,00
3741,23	355,00
3744,60	429,00
3747,97	407,00
3751,33	398,00
3754,69	280,00
3758,05	499,00
3761,41	382,00
3764,77	405,00
3768,12	362,00
3771,47	270,00
3774,82	438,00
3778,16	-6,00
3781,50	13,00
3784,84	7,00
3788,18	6,00
>>>>>End Processed Spectral Data<<<<<
