SpectraSuite Data File
++++++++++++++++++++++++++++++++++++
Date: Wed Feb 04 16:06:51 ICT 2026
User: Administrator
Dark Spectrum Present: Yes
Reference Spectrum Present: No
Number of Sampled Component Spectra: 1
Spectrometers: MAYP113682
Integration Time (usec): 3000000 (MAYP113682)
Spectra Averaged: 1 (MAYP113682)
Boxcar Smoothing: 0 (MAYP113682)
Correct for Electrical Dark: No (MAYP113682)
Strobe/Lamp Enabled: No (MAYP113682)
Correct for Detector Non-linearity: No (MAYP113682)
Correct for Stray Light: No (MAYP113682)
Number of Pixels in Processed Spectrum: 2068
>>>>>Begin Processed Spectral Data<<<<<
-37534,58	5,00
-37414,56	-3,00
-37295,11	10,00
-37176,24	8,00
-37057,95	297,00
-36940,22	324,00
-36823,05	303,00
-36706,45	311,00
-36590,40	399,00
-36474,90	179,00
-36359,95	403,00
-36245,55	322,00
-36131,68	351,00
-36018,35	402,00
-35905,55	443,00
-35793,29	327,00
-35681,54	430,00
-35570,32	439,00
-35459,62	291,00
-35349,43	414,00
-35239,75	450,00
-35130,58	411,00
-35021,91	277,00
-34913,74	420,00
-34806,07	451,00
-34698,89	487,00
-34592,20	380,00
-34486,00	445,00
-34380,28	406,00
-34275,04	289,00
-34170,27	427,00
-34065,98	315,00
-33962,16	381,00
-33858,81	402,00
-33755,92	430,00
-33653,49	432,00
-33551,52	395,00
-33450,01	428,00
-33348,94	402,00
-33248,33	323,00
-33148,16	470,00
-33048,43	445,00
-32949,14	519,00
-32850,29	420,00
-32751,87	452,00
-32653,89	406,00
-32556,33	477,00
-32459,20	295,00
-32362,49	308,00
-32266,19	386,00
-32170,32	393,00
-32074,86	363,00
-31979,82	379,00
-31885,18	431,00
-31790,95	402,00
-31697,12	433,00
-31603,69	498,00
-31510,67	385,00
-31418,04	432,00
-31325,80	422,00
-31233,95	475,00
-31142,49	397,00
-31051,42	477,00
-30960,73	532,00
-30870,43	540,00
-30780,50	350,00
-30690,95	513,00
-30601,77	467,00
-30512,97	410,00
-30424,53	439,00
-30336,46	501,00
-30248,76	474,00
-30161,42	438,00
-30074,44	561,00
-29987,81	502,00
-29901,55	343,00
-29815,63	443,00
-29730,07	494,00
-29644,86	436,00
-29560,00	316,00
-29475,48	388,00
-29391,30	431,00
-29307,47	448,00
-29223,97	319,00
-29140,81	359,00
-29057,99	430,00
-28975,50	405,00
-28893,34	498,00
-28811,51	434,00
-28730,00	416,00
-28648,82	414,00
-28567,97	622,00
-28487,43	414,00
-28407,21	385,00
-28327,32	527,00
-28247,73	465,00
-28168,46	374,00
-28089,50	460,00
-28010,85	427,00
-27932,51	370,00
-27854,48	523,00
-27776,75	404,00
-27699,32	397,00
-27622,19	389,00
-27545,37	427,00
-27468,84	392,00
-27392,60	390,00
-27316,66	319,00
-27241,01	436,00
-27165,66	499,00
-27090,59	372,00
-27015,81	560,00
-26941,31	430,00
-26867,10	464,00
-26793,17	550,00
-26719,52	412,00
-26646,15	372,00
-26573,06	381,00
-26500,24	464,00
-26427,70	398,00
-26355,43	465,00
-26283,43	426,00
-26211,71	393,00
-26140,25	427,00
-26069,06	582,00
-25998,13	397,00
-25927,46	353,00
-25857,06	368,00
-25786,92	339,00
-25717,04	370,00
-25647,42	460,00
-25578,05	402,00
-25508,94	408,00
-25440,09	463,00
-25371,48	420,00
-25303,13	413,00
-25235,02	399,00
-25167,17	511,00
-25099,56	453,00
-25032,19	415,00
-24965,07	417,00
-24898,20	405,00
-24831,56	414,00
-24765,17	391,00
-24699,01	443,00
-24633,10	405,00
-24567,41	523,00
-24501,97	635,00
-24436,75	409,00
-24371,77	427,00
-24307,03	373,00
-24242,51	401,00
-24178,22	506,00
-24114,16	466,00
-24050,32	439,00
-23986,71	506,00
-23923,32	345,00
-23860,16	333,00
-23797,22	523,00
-23734,50	421,00
-23672,00	226,00
-23609,71	586,00
-23547,65	413,00
-23485,80	443,00
-23424,16	338,00
-23362,74	504,00
-23301,53	365,00
-23240,54	327,00
-23179,75	392,00
-23119,17	375,00
-23058,80	562,00
-22998,64	443,00
-22938,68	334,00
-22878,93	416,00
-22819,39	455,00
-22760,04	310,00
-22700,90	398,00
-22641,96	498,00
-22583,22	558,00
-22524,68	392,00
-22466,33	439,00
-22408,19	406,00
-22350,23	416,00
-22292,48	365,00
-22234,92	373,00
-22177,55	548,00
-22120,37	449,00
-22063,38	416,00
-22006,58	427,00
-21949,98	276,00
-21893,56	318,00
-21837,33	374,00
-21781,28	436,00
-21725,42	438,00
-21669,74	469,00
-21614,25	372,00
-21558,94	415,00
-21503,81	494,00
-21448,86	453,00
-21394,10	430,00
-21339,51	370,00
-21285,10	348,00
-21230,86	411,00
-21176,81	328,00
-21122,93	389,00
-21069,22	387,00
-21015,69	236,00
-20962,33	419,00
-20909,14	359,00
-20856,13	363,00
-20803,28	412,00
-20750,61	345,00
-20698,10	449,00
-20645,76	423,00
-20593,59	468,00
-20541,59	524,00
-20489,75	485,00
-20438,07	425,00
-20386,56	594,00
-20335,22	380,00
-20284,03	355,00
-20233,01	389,00
-20182,15	420,00
-20131,45	422,00
-20080,91	464,00
-20030,52	508,00
-19980,30	453,00
-19930,23	297,00
-19880,32	401,00
-19830,56	464,00
-19780,96	448,00
-19731,52	565,00
-19682,23	449,00
-19633,09	446,00
-19584,10	427,00
-19535,26	373,00
-19486,58	417,00
-19438,04	423,00
-19389,66	496,00
-19341,42	353,00
-19293,33	416,00
-19245,39	421,00
-19197,60	391,00
-19149,95	425,00
-19102,45	475,00
-19055,09	278,00
-19007,87	438,00
-18960,80	421,00
-18913,87	498,00
-18867,09	412,00
-18820,44	524,00
-18773,94	453,00
-18727,57	427,00
-18681,35	492,00
-18635,26	501,00
-18589,31	337,00
-18543,50	297,00
-18497,83	418,00
-18452,29	479,00
-18406,89	518,00
-18361,63	414,00
-18316,50	444,00
-18271,50	322,00
-18226,63	452,00
-18181,90	505,00
-18137,30	541,00
-18092,84	348,00
-18048,50	423,00
-18004,29	348,00
-17960,22	409,00
-17916,27	415,00
-17872,45	462,00
-17828,76	540,00
-17785,20	466,00
-17741,77	367,00
-17698,46	443,00
-17655,28	358,00
-17612,22	397,00
-17569,29	385,00
-17526,48	376,00
-17483,79	406,00
-17441,23	516,00
-17398,79	279,00
-17356,48	337,00
-17314,28	456,00
-17272,21	426,00
-17230,26	481,00
-17188,42	482,00
-17146,71	462,00
-17105,12	363,00
-17063,64	374,00
-17022,28	442,00
-16981,04	482,00
-16939,92	386,00
-16898,91	443,00
-16858,02	464,00
-16817,25	472,00
-16776,59	443,00
-16736,04	406,00
-16695,61	402,00
-16655,29	331,00
-16615,09	490,00
-16574,99	450,00
-16535,01	336,00
-16495,15	384,00
-16455,39	367,00
-16415,74	360,00
-16376,21	397,00
-16336,78	350,00
-16297,46	310,00
-16258,26	299,00
-16219,16	493,00
-16180,17	438,00
-16141,28	425,00
-16102,51	398,00
-16063,84	476,00
-16025,27	536,00
-15986,82	383,00
-15948,46	448,00
-15910,22	505,00
-15872,07	425,00
-15834,04	448,00
-15796,10	366,00
-15758,27	391,00
-15720,54	380,00
-15682,91	370,00
-15645,39	465,00
-15607,97	441,00
-15570,64	425,00
-15533,42	554,00
-15496,30	505,00
-15459,28	393,00
-15422,36	372,00
-15385,54	367,00
-15348,82	463,00
-15312,19	462,00
-15275,66	390,00
-15239,23	539,00
-15202,90	419,00
-15166,67	309,00
-15130,53	554,00
-15094,48	410,00
-15058,54	502,00
-15022,68	333,00
-14986,93	396,00
-14951,26	408,00
-14915,69	499,00
-14880,22	410,00
-14844,84	540,00
-14809,55	528,00
-14774,35	479,00
-14739,25	403,00
-14704,24	327,00
-14669,32	282,00
-14634,49	310,00
-14599,75	527,00
-14565,10	373,00
-14530,55	471,00
-14496,08	295,00
-14461,70	476,00
-14427,41	386,00
-14393,21	373,00
-14359,10	348,00
-14325,07	412,00
-14291,14	419,00
-14257,29	565,00
-14223,52	358,00
-14189,85	523,00
-14156,26	442,00
-14122,76	394,00
-14089,34	407,00
-14056,01	538,00
-14022,76	389,00
-13989,60	440,00
-13956,52	361,00
-13923,53	404,00
-13890,62	406,00
-13857,79	353,00
-13825,05	462,00
-13792,39	354,00
-13759,81	380,00
-13727,31	380,00
-13694,90	526,00
-13662,57	441,00
-13630,31	431,00
-13598,14	269,00
-13566,05	425,00
-13534,05	469,00
-13502,12	424,00
-13470,27	475,00
-13438,50	421,00
-13406,80	376,00
-13375,19	276,00
-13343,66	298,00
-13312,20	496,00
-13280,83	359,00
-13249,53	423,00
-13218,30	318,00
-13187,16	326,00
-13156,09	405,00
-13125,10	460,00
-13094,18	456,00
-13063,34	482,00
-13032,58	292,00
-13001,89	400,00
-12971,28	391,00
-12940,74	518,00
-12910,27	368,00
-12879,88	391,00
-12849,57	456,00
-12819,33	494,00
-12789,16	378,00
-12759,06	463,00
-12729,04	392,00
-12699,09	1803,00
-12669,21	446,00
-12639,41	349,00
-12609,68	408,00
-12580,02	385,00
-12550,43	453,00
-12520,91	400,00
-12491,46	272,00
-12462,08	468,00
-12432,77	519,00
-12403,54	472,00
-12374,37	487,00
-12345,27	418,00
-12316,24	451,00
-12287,29	387,00
-12258,40	447,00
-12229,57	531,00
-12200,82	396,00
-12172,14	389,00
-12143,52	304,00
-12114,97	350,00
-12086,49	399,00
-12058,07	471,00
-12029,73	481,00
-12001,44	495,00
-11973,23	440,00
-11945,08	433,00
-11917,00	443,00
-11888,98	363,00
-11861,03	444,00
-11833,15	433,00
-11805,32	477,00
-11777,57	417,00
-11749,88	433,00
-11722,25	418,00
-11694,69	333,00
-11667,19	491,00
-11639,75	281,00
-11612,38	527,00
-11585,07	347,00
-11557,83	354,00
-11530,65	419,00
-11503,53	440,00
-11476,47	476,00
-11449,48	368,00
-11422,54	458,00
-11395,67	405,00
-11368,86	441,00
-11342,11	355,00
-11315,43	599,00
-11288,80	404,00
-11262,23	452,00
-11235,73	418,00
-11209,28	412,00
-11182,90	451,00
-11156,57	382,00
-11130,31	544,00
-11104,10	366,00
-11077,96	466,00
-11051,87	372,00
-11025,84	538,00
-10999,87	336,00
-10973,96	418,00
-10948,11	332,00
-10922,31	380,00
-10896,58	428,00
-10870,90	375,00
-10845,28	504,00
-10819,71	380,00
-10794,20	426,00
-10768,75	505,00
-10743,36	402,00
-10718,02	405,00
-10692,74	414,00
-10667,52	453,00
-10642,35	433,00
-10617,24	448,00
-10592,18	307,00
-10567,18	350,00
-10542,23	444,00
-10517,34	419,00
-10492,51	438,00
-10467,72	366,00
-10443,00	590,00
-10418,32	484,00
-10393,70	522,00
-10369,14	556,00
-10344,63	486,00
-10320,17	359,00
-10295,77	423,00
-10271,42	442,00
-10247,12	481,00
-10222,88	449,00
-10198,68	505,00
-10174,54	436,00
-10150,46	500,00
-10126,42	511,00
-10102,44	514,00
-10078,51	501,00
-10054,63	568,00
-10030,80	575,00
-10007,03	595,00
-9983,30	613,00
-9959,63	483,00
-9936,01	616,00
-9912,44	628,00
-9888,92	561,00
-9865,44	585,00
-9842,02	606,00
-9818,65	569,00
-9795,33	551,00
-9772,06	616,00
-9748,84	633,00
-9725,67	571,00
-9702,55	731,00
-9679,47	682,00
-9656,45	916,00
-9633,47	783,00
-9610,55	898,00
-9587,67	855,00
-9564,84	1012,00
-9542,06	987,00
-9519,32	988,00
-9496,64	1085,00
-9474,00	1129,00
-9451,41	1178,00
-9428,87	1112,00
-9406,37	1062,00
-9383,92	1050,00
-9361,52	1163,00
-9339,17	1095,00
-9316,86	1363,00
-9294,60	1322,00
-9272,38	1713,00
-9250,21	1557,00
-9228,09	1802,00
-9206,01	1610,00
-9183,98	1548,00
-9162,00	1245,00
-9140,06	1406,00
-9118,16	1411,00
-9096,31	1406,00
-9074,51	1323,00
-9052,75	1651,00
-9031,04	1590,00
-9009,37	1354,00
-8987,74	1229,00
-8966,16	1052,00
-8944,63	1047,00
-8923,14	1058,00
-8901,69	1118,00
-8880,29	1036,00
-8858,93	1189,00
-8837,61	1293,00
-8816,34	1232,00
-8795,11	1267,00
-8773,92	1309,00
-8752,78	1256,00
-8731,68	1111,00
-8710,62	1144,00
-8689,61	1237,00
-8668,63	1237,00
-8647,70	1189,00
-8626,82	1424,00
-8605,97	1224,00
-8585,17	1138,00
-8564,41	1114,00
-8543,69	1047,00
-8523,01	1009,00
-8502,37	1039,00
-8481,78	1053,00
-8461,23	1175,00
-8440,71	1164,00
-8420,24	1206,00
-8399,81	1338,00
-8379,42	1281,00
-8359,08	1215,00
-8338,77	1200,00
-8318,50	1189,00
-8298,27	1141,00
-8278,09	1115,00
-8257,94	1111,00
-8237,83	1246,00
-8217,76	1233,00
-8197,74	1251,00
-8177,75	1279,00
-8157,80	1171,00
-8137,89	961,00
-8118,02	1078,00
-8098,19	1091,00
-8078,40	1116,00
-8058,65	969,00
-8038,93	1004,00
-8019,26	1010,00
-7999,62	1018,00
-7980,02	1061,00
-7960,46	955,00
-7940,94	832,00
-7921,46	958,00
-7902,01	961,00
-7882,60	1078,00
-7863,23	1024,00
-7843,90	863,00
-7824,61	941,00
-7805,35	1126,00
-7786,13	883,00
-7766,95	1103,00
-7747,80	1119,00
-7728,69	937,00
-7709,62	998,00
-7690,59	942,00
-7671,59	900,00
-7652,63	908,00
-7633,70	1166,00
-7614,81	901,00
-7595,96	1008,00
-7577,15	885,00
-7558,37	720,00
-7539,62	996,00
-7520,91	860,00
-7502,24	1002,00
-7483,60	884,00
-7465,00	959,00
-7446,44	759,00
-7427,91	781,00
-7409,41	807,00
-7390,95	825,00
-7372,53	868,00
-7354,14	752,00
-7335,78	580,00
-7317,46	833,00
-7299,18	675,00
-7280,92	804,00
-7262,71	994,00
-7244,52	901,00
-7226,38	872,00
-7208,26	867,00
-7190,18	892,00
-7172,14	980,00
-7154,12	911,00
-7136,15	775,00
-7118,20	954,00
-7100,29	923,00
-7082,41	927,00
-7064,57	914,00
-7046,76	817,00
-7028,98	783,00
-7011,24	693,00
-6993,53	717,00
-6975,85	495,00
-6958,20	639,00
-6940,59	456,00
-6923,01	618,00
-6905,46	650,00
-6887,94	656,00
-6870,46	3325,00
-6853,01	873,00
-6835,59	760,00
-6818,21	687,00
-6800,85	700,00
-6783,53	620,00
-6766,24	654,00
-6748,98	523,00
-6731,76	563,00
-6714,56	487,00
-6697,40	436,00
-6680,26	439,00
-6663,16	596,00
-6646,09	732,00
-6629,05	608,00
-6612,05	635,00
-6595,07	713,00
-6578,13	714,00
-6561,21	658,00
-6544,33	706,00
-6527,47	554,00
-6510,65	565,00
-6493,86	507,00
-6477,10	564,00
-6460,36	520,00
-6443,66	518,00
-6426,99	346,00
-6410,35	559,00
-6393,74	545,00
-6377,16	576,00
-6360,61	469,00
-6344,09	715,00
-6327,59	484,00
-6311,13	496,00
-6294,70	618,00
-6278,29	651,00
-6261,92	626,00
-6245,58	676,00
-6229,26	576,00
-6212,97	688,00
-6196,72	561,00
-6180,49	513,00
-6164,29	453,00
-6148,12	569,00
-6131,98	519,00
-6115,86	528,00
-6099,78	380,00
-6083,72	317,00
-6067,69	428,00
-6051,69	535,00
-6035,72	497,00
-6019,78	354,00
-6003,87	436,00
-5987,98	518,00
-5972,12	670,00
-5956,29	574,00
-5940,49	418,00
-5924,71	643,00
-5908,96	493,00
-5893,24	443,00
-5877,55	533,00
-5861,89	395,00
-5846,25	500,00
-5830,64	452,00
-5815,05	605,00
-5799,50	437,00
-5783,97	495,00
-5768,47	357,00
-5752,99	582,00
-5737,55	617,00
-5722,12	453,00
-5706,73	529,00
-5691,36	586,00
-5676,02	472,00
-5660,71	528,00
-5645,42	443,00
-5630,16	502,00
-5614,92	385,00
-5599,71	582,00
-5584,53	541,00
-5569,37	447,00
-5554,24	630,00
-5539,14	445,00
-5524,06	460,00
-5509,01	543,00
-5493,98	656,00
-5478,98	570,00
-5464,00	580,00
-5449,05	446,00
-5434,13	276,00
-5419,23	525,00
-5404,36	388,00
-5389,51	405,00
-5374,69	543,00
-5359,89	590,00
-5345,12	527,00
-5330,37	726,00
-5315,65	432,00
-5300,95	605,00
-5286,28	465,00
-5271,63	358,00
-5257,01	417,00
-5242,41	484,00
-5227,84	449,00
-5213,29	448,00
-5198,76	462,00
-5184,26	501,00
-5169,79	472,00
-5155,33	506,00
-5140,91	601,00
-5126,51	428,00
-5112,13	419,00
-5097,77	474,00
-5083,44	516,00
-5069,13	418,00
-5054,85	382,00
-5040,59	363,00
-5026,36	436,00
-5012,15	494,00
-4997,96	594,00
-4983,80	446,00
-4969,66	449,00
-4955,54	464,00
-4941,44	481,00
-4927,37	514,00
-4913,33	702,00
-4899,30	471,00
-4885,30	509,00
-4871,33	502,00
-4857,37	506,00
-4843,44	458,00
-4829,53	541,00
-4815,65	492,00
-4801,79	451,00
-4787,95	460,00
-4774,13	377,00
-4760,34	361,00
-4746,56	468,00
-4732,82	459,00
-4719,09	496,00
-4705,38	565,00
-4691,70	593,00
-4678,04	648,00
-4664,41	615,00
-4650,79	592,00
-4637,20	441,00
-4623,63	443,00
-4610,08	439,00
-4596,56	473,00
-4583,05	523,00
-4569,57	367,00
-4556,11	519,00
-4542,67	471,00
-4529,25	479,00
-4515,86	421,00
-4502,49	518,00
-4489,13	573,00
-4475,80	647,00
-4462,49	537,00
-4449,21	540,00
-4435,94	487,00
-4422,70	306,00
-4409,47	418,00
-4396,27	536,00
-4383,09	555,00
-4369,93	476,00
-4356,79	410,00
-4343,67	554,00
-4330,58	422,00
-4317,50	399,00
-4304,45	458,00
-4291,41	445,00
-4278,40	447,00
-4265,41	442,00
-4252,44	452,00
-4239,49	436,00
-4226,55	485,00
-4213,65	539,00
-4200,76	440,00
-4187,89	362,00
-4175,04	434,00
-4162,21	401,00
-4149,40	555,00
-4136,61	509,00
-4123,85	482,00
-4111,10	308,00
-4098,37	397,00
-4085,66	431,00
-4072,98	501,00
-4060,31	406,00
-4047,66	429,00
-4035,04	600,00
-4022,43	484,00
-4009,84	456,00
-3997,27	392,00
-3984,72	377,00
-3972,19	395,00
-3959,69	406,00
-3947,20	377,00
-3934,73	358,00
-3922,27	328,00
-3909,84	386,00
-3897,43	459,00
-3885,04	460,00
-3872,67	367,00
-3860,31	363,00
-3847,98	425,00
-3835,66	421,00
-3823,36	433,00
-3811,09	383,00
-3798,83	496,00
-3786,59	540,00
-3774,37	457,00
-3762,17	375,00
-3749,98	451,00
-3737,82	396,00
-3725,67	498,00
-3713,55	395,00
-3701,44	386,00
-3689,35	523,00
-3677,28	409,00
-3665,22	387,00
-3653,19	423,00
-3641,17	499,00
-3629,18	444,00
-3617,20	658,00
-3605,24	455,00
-3593,30	448,00
-3581,37	451,00
-3569,47	519,00
-3557,58	440,00
-3545,71	408,00
-3533,86	479,00
-3522,02	373,00
-3510,21	437,00
-3498,41	440,00
-3486,63	546,00
-3474,87	388,00
-3463,12	417,00
-3451,40	498,00
-3439,69	462,00
-3428,00	469,00
-3416,33	497,00
-3404,67	291,00
-3393,03	489,00
-3381,41	491,00
-3369,81	382,00
-3358,22	457,00
-3346,66	549,00
-3335,10	474,00
-3323,57	378,00
-3312,06	344,00
-3300,56	408,00
-3289,08	400,00
-3277,61	398,00
-3266,16	412,00
-3254,73	506,00
-3243,32	370,00
-3231,92	474,00
-3220,55	465,00
-3209,18	512,00
-3197,84	404,00
-3186,51	297,00
-3175,20	303,00
-3163,90	394,00
-3152,63	424,00
-3141,36	535,00
-3130,12	434,00
-3118,89	377,00
-3107,68	520,00
-3096,49	467,00
-3085,31	516,00
-3074,15	392,00
-3063,00	400,00
-3051,87	502,00
-3040,76	461,00
-3029,67	435,00
-3018,59	503,00
-3007,52	442,00
-2996,48	316,00
-2985,44	418,00
-2974,43	332,00
-2963,43	445,00
-2952,45	156,00
-2941,48	448,00
-2930,53	427,00
-2919,60	478,00
-2908,68	436,00
-2897,78	302,00
-2886,89	509,00
-2876,02	403,00
-2865,17	560,00
-2854,33	403,00
-2843,50	378,00
-2832,70	420,00
-2821,90	361,00
-2811,13	487,00
-2800,37	372,00
-2789,62	360,00
-2778,89	475,00
-2768,18	442,00
-2757,48	376,00
-2746,80	464,00
-2736,13	360,00
-2725,48	457,00
-2714,84	302,00
-2704,22	445,00
-2693,61	433,00
-2683,02	518,00
-2672,45	516,00
-2661,89	487,00
-2651,34	457,00
-2640,81	505,00
-2630,30	568,00
-2619,80	408,00
-2609,31	427,00
-2598,84	305,00
-2588,39	434,00
-2577,95	392,00
-2567,52	354,00
-2557,11	483,00
-2546,71	500,00
-2536,33	463,00
-2525,97	541,00
-2515,62	429,00
-2505,28	503,00
-2494,96	401,00
-2484,65	516,00
-2474,36	607,00
-2464,08	427,00
-2453,82	595,00
-2443,57	428,00
-2433,33	315,00
-2423,11	407,00
-2412,91	435,00
-2402,72	378,00
-2392,54	315,00
-2382,38	407,00
-2372,23	367,00
-2362,09	5040,00
-2351,97	391,00
-2341,87	485,00
-2331,78	434,00
-2321,70	331,00
-2311,64	421,00
-2301,59	329,00
-2291,55	433,00
-2281,53	484,00
-2271,53	384,00
-2261,53	436,00
-2251,55	495,00
-2241,59	449,00
-2231,64	403,00
-2221,70	574,00
-2211,78	494,00
-2201,87	482,00
-2191,97	536,00
-2182,09	523,00
-2172,22	455,00
-2162,37	385,00
-2152,53	454,00
-2142,70	420,00
-2132,89	442,00
-2123,09	459,00
-2113,30	373,00
-2103,53	443,00
-2093,77	469,00
-2084,02	369,00
-2074,29	482,00
-2064,57	464,00
-2054,86	441,00
-2045,17	423,00
-2035,49	546,00
-2025,82	369,00
-2016,17	442,00
-2006,53	459,00
-1996,91	434,00
-1987,29	454,00
-1977,69	509,00
-1968,11	423,00
-1958,53	307,00
-1948,97	370,00
-1939,42	330,00
-1929,89	241,00
-1920,37	488,00
-1910,86	341,00
-1901,36	498,00
-1891,88	464,00
-1882,41	292,00
-1872,95	488,00
-1863,51	396,00
-1854,08	409,00
-1844,66	438,00
-1835,26	400,00
-1825,86	401,00
-1816,48	286,00
-1807,11	385,00
-1797,76	461,00
-1788,42	532,00
-1779,09	435,00
-1769,77	490,00
-1760,47	570,00
-1751,17	336,00
-1741,89	440,00
-1732,63	510,00
-1723,37	579,00
-1714,13	486,00
-1704,90	419,00
-1695,68	516,00
-1686,48	388,00
-1677,29	338,00
-1668,11	595,00
-1658,94	430,00
-1649,78	388,00
-1640,64	461,00
-1631,51	505,00
-1622,39	489,00
-1613,28	454,00
-1604,19	428,00
-1595,10	492,00
-1586,03	320,00
-1576,97	397,00
-1567,93	335,00
-1558,89	485,00
-1549,87	371,00
-1540,86	440,00
-1531,86	443,00
-1522,87	390,00
-1513,90	575,00
-1504,93	488,00
-1495,98	329,00
-1487,04	626,00
-1478,12	421,00
-1469,20	321,00
-1460,30	453,00
-1451,40	341,00
-1442,52	395,00
-1433,65	472,00
-1424,80	481,00
-1415,95	434,00
-1407,12	487,00
-1398,30	481,00
-1389,48	460,00
-1380,69	442,00
-1371,90	444,00
-1363,12	478,00
-1354,36	546,00
-1345,60	398,00
-1336,86	459,00
-1328,13	446,00
-1319,41	506,00
-1310,70	381,00
-1302,01	368,00
-1293,32	365,00
-1284,65	422,00
-1275,99	323,00
-1267,33	392,00
-1258,69	419,00
-1250,06	469,00
-1241,45	413,00
-1232,84	492,00
-1224,25	432,00
-1215,66	617,00
-1207,09	494,00
-1198,53	504,00
-1189,97	455,00
-1181,43	396,00
-1172,91	563,00
-1164,39	463,00
-1155,88	373,00
-1147,38	391,00
-1138,90	352,00
-1130,43	442,00
-1121,96	405,00
-1113,51	491,00
-1105,07	495,00
-1096,64	406,00
-1088,22	407,00
-1079,81	428,00
-1071,41	565,00
-1063,02	417,00
-1054,65	478,00
-1046,28	357,00
-1037,92	430,00
-1029,58	525,00
-1021,24	388,00
-1012,92	528,00
-1004,61	424,00
-996,30	522,00
-988,01	362,00
-979,73	431,00
-971,46	419,00
-963,20	501,00
-954,95	371,00
-946,71	471,00
-938,48	441,00
-930,26	466,00
-922,06	449,00
-913,86	437,00
-905,67	469,00
-897,49	471,00
-889,33	366,00
-881,17	462,00
-873,02	467,00
-864,89	421,00
-856,76	307,00
-848,65	461,00
-840,54	397,00
-832,45	427,00
-824,36	264,00
-816,29	484,00
-808,22	418,00
-800,17	394,00
-792,12	429,00
-784,09	476,00
-776,06	445,00
-768,05	412,00
-760,04	476,00
-752,05	374,00
-744,07	487,00
-736,09	576,00
-728,13	429,00
-720,17	290,00
-712,23	435,00
-704,29	385,00
-696,37	413,00
-688,45	396,00
-680,55	404,00
-672,65	498,00
-664,77	390,00
-656,89	535,00
-649,03	300,00
-641,17	452,00
-633,32	488,00
-625,49	440,00
-617,66	536,00
-609,84	448,00
-602,03	407,00
-594,23	441,00
-586,45	499,00
-578,67	381,00
-570,90	409,00
-563,14	472,00
-555,39	478,00
-547,65	497,00
-539,91	349,00
-532,19	454,00
-524,48	493,00
-516,78	411,00
-509,08	333,00
-501,40	427,00
-493,72	443,00
-486,06	329,00
-478,40	468,00
-470,76	449,00
-463,12	495,00
-455,49	385,00
-447,87	367,00
-440,26	423,00
-432,66	457,00
-425,07	517,00
-417,49	438,00
-409,92	536,00
-402,35	440,00
-394,80	459,00
-387,25	359,00
-379,72	560,00
-372,19	458,00
-364,67	463,00
-357,17	550,00
-349,67	442,00
-342,18	520,00
-334,69	445,00
-327,22	550,00
-319,76	411,00
-312,30	488,00
-304,86	431,00
-297,42	356,00
-290,00	586,00
-282,58	487,00
-275,17	522,00
-267,77	353,00
-260,37	524,00
-252,99	485,00
-245,62	484,00
-238,25	402,00
-230,90	456,00
-223,55	562,00
-216,21	602,00
-208,88	563,00
-201,56	578,00
-194,25	580,00
-186,94	509,00
-179,65	449,00
-172,36	520,00
-165,08	524,00
-157,81	737,00
-150,55	580,00
-143,30	643,00
-136,06	716,00
-128,82	746,00
-121,60	667,00
-114,38	899,00
-107,17	992,00
-99,97	967,00
-92,78	1031,00
-85,60	1149,00
-78,42	1262,00
-71,25	1485,00
-64,10	1421,00
-56,95	1792,00
-49,81	2007,00
-42,67	2228,00
-35,55	2811,00
-28,43	3718,00
-21,33	5776,00
-14,23	17772,00
-7,14	55841,00
-0,05	55551,00
7,02	55287,00
14,09	55623,00
21,14	18403,00
28,19	7470,00
35,23	4824,00
42,27	3789,00
49,29	3053,00
56,31	2679,00
63,32	2209,00
70,32	2005,00
77,31	1722,00
84,29	1571,00
91,27	1485,00
98,23	1329,00
105,19	1238,00
112,14	1267,00
119,09	1558,00
126,02	2185,00
132,95	2349,00
139,87	2332,00
146,78	2433,00
153,68	2327,00
160,58	2155,00
167,46	2234,00
174,34	2218,00
181,21	2103,00
188,08	2141,00
194,93	2078,00
201,78	2135,00
208,62	2240,00
215,45	2084,00
222,27	2078,00
229,09	2084,00
235,90	2026,00
242,70	1980,00
249,49	2118,00
256,27	1889,00
263,05	1956,00
269,82	1818,00
276,58	1955,00
283,33	1843,00
290,08	1890,00
296,82	1791,00
303,55	1741,00
310,27	1720,00
316,98	1738,00
323,69	1739,00
330,39	1650,00
337,08	1734,00
343,76	1756,00
350,44	1795,00
357,11	1558,00
363,77	1675,00
370,42	1627,00
377,07	1693,00
383,71	1632,00
390,34	1596,00
396,96	1630,00
403,58	1594,00
410,19	1776,00
416,79	1777,00
423,38	1835,00
429,97	1664,00
436,55	1464,00
443,12	1612,00
449,68	1406,00
456,24	1441,00
462,79	1627,00
469,33	1493,00
475,86	1480,00
482,39	1520,00
488,91	1609,00
495,42	1442,00
501,93	1552,00
508,42	1498,00
514,91	1509,00
521,40	1349,00
527,87	1422,00
534,34	1494,00
540,80	1444,00
547,25	1439,00
553,70	1350,00
560,14	1432,00
566,57	1424,00
573,00	1279,00
579,41	1480,00
585,83	1296,00
592,23	1321,00
598,62	1393,00
605,01	1302,00
611,40	1381,00
617,77	1209,00
624,14	1392,00
630,50	1331,00
636,85	1335,00
643,20	1424,00
649,54	1318,00
655,87	1261,00
662,20	1360,00
668,52	1338,00
674,83	1495,00
681,13	1418,00
687,43	1431,00
693,72	1225,00
700,00	1285,00
706,28	1341,00
712,55	1189,00
718,81	1335,00
725,07	1353,00
731,32	1238,00
737,56	1393,00
743,79	1294,00
750,02	1395,00
756,24	1293,00
762,46	1372,00
768,67	1347,00
774,87	1311,00
781,06	1196,00
787,25	1415,00
793,43	1353,00
799,60	1204,00
805,77	1367,00
811,93	1204,00
818,08	1248,00
824,23	1206,00
830,37	1235,00
836,50	1255,00
842,63	1298,00
848,75	1346,00
854,87	1338,00
860,97	1326,00
867,07	1373,00
873,17	1319,00
879,25	1438,00
885,33	1305,00
891,41	1451,00
897,47	1376,00
903,53	1301,00
909,59	1228,00
915,63	1167,00
921,67	1297,00
927,71	1328,00
933,74	1193,00
939,76	1290,00
945,77	1242,00
951,78	1337,00
957,78	1106,00
963,78	1149,00
969,77	1243,00
975,75	1247,00
981,72	1310,00
987,69	1547,00
993,66	1318,00
999,61	1204,00
1005,56	1378,00
1011,51	1292,00
1017,44	1357,00
1023,37	1246,00
1029,30	1339,00
1035,22	1193,00
1041,13	1328,00
1047,03	1318,00
1052,93	1474,00
1058,83	2008,00
1064,71	2380,00
1070,59	1931,00
1076,47	1660,00
1082,33	1556,00
1088,20	1324,00
1094,05	1386,00
1099,90	1344,00
1105,74	1309,00
1111,58	1301,00
1117,41	1332,00
1123,23	1883,00
1129,05	2266,00
1134,86	2240,00
1140,67	1623,00
1146,47	1245,00
1152,26	1244,00
1158,05	1029,00
1163,83	1319,00
1169,60	1277,00
1175,37	1239,00
1181,13	1194,00
1186,89	1135,00
1192,64	1203,00
1198,38	1236,00
1204,12	1145,00
1209,85	1099,00
1215,58	1172,00
1221,30	1146,00
1227,02	1204,00
1232,72	1163,00
1238,43	1051,00
1244,12	1137,00
1249,81	1133,00
1255,50	1163,00
1261,17	1141,00
1266,85	1283,00
1272,51	1218,00
1278,17	1406,00
1283,83	1426,00
1289,47	1948,00
1295,12	2765,00
1300,75	2458,00
1306,38	1946,00
1312,01	1487,00
1317,63	1414,00
1323,24	1294,00
1328,85	1175,00
1334,45	1362,00
1340,04	1139,00
1345,63	1261,00
1351,22	1415,00
1356,80	1255,00
1362,37	1358,00
1367,93	1362,00
1373,49	1384,00
1379,05	1443,00
1384,60	1441,00
1390,14	1253,00
1395,68	1298,00
1401,21	1345,00
1406,74	1475,00
1412,26	1634,00
1417,77	1955,00
1423,28	1947,00
1428,78	2006,00
1434,28	2366,00
1439,77	2685,00
1445,26	2657,00
1450,74	2453,00
1456,22	2447,00
1461,68	2226,00
1467,15	2202,00
1472,61	1805,00
1478,06	1705,00
1483,51	1505,00
1488,95	1373,00
1494,38	1304,00
1499,81	1156,00
1505,24	1125,00
1510,65	1197,00
1516,07	1172,00
1521,48	1130,00
1526,88	1133,00
1532,27	1129,00
1537,67	1054,00
1543,05	1162,00
1548,43	1058,00
1553,81	1116,00
1559,18	944,00
1564,54	1050,00
1569,90	1113,00
1575,25	1073,00
1580,60	1018,00
1585,94	1020,00
1591,28	1027,00
1596,61	970,00
1601,93	972,00
1607,25	974,00
1612,57	1126,00
1617,88	1106,00
1623,18	1137,00
1628,48	1052,00
1633,77	1125,00
1639,06	926,00
1644,34	980,00
1649,62	914,00
1654,89	991,00
1660,16	916,00
1665,42	956,00
1670,67	989,00
1675,92	1074,00
1681,17	952,00
1686,41	912,00
1691,64	1061,00
1696,87	1042,00
1702,10	931,00
1707,32	889,00
1712,53	999,00
1717,74	853,00
1722,94	902,00
1728,14	919,00
1733,33	804,00
1738,52	839,00
1743,70	916,00
1748,88	850,00
1754,05	945,00
1759,22	784,00
1764,38	890,00
1769,53	857,00
1774,69	1076,00
1779,83	898,00
1784,97	888,00
1790,11	715,00
1795,24	928,00
1800,36	837,00
1805,48	895,00
1810,60	912,00
1815,71	838,00
1820,82	787,00
1825,92	876,00
1831,01	868,00
1836,10	844,00
1841,19	746,00
1846,26	793,00
1851,34	916,00
1856,41	778,00
1861,47	751,00
1866,53	847,00
1871,59	772,00
1876,64	939,00
1881,68	873,00
1886,72	876,00
1891,76	686,00
1896,79	881,00
1901,81	695,00
1906,83	795,00
1911,85	815,00
1916,86	859,00
1921,86	763,00
1926,86	719,00
1931,86	816,00
1936,85	643,00
1941,83	663,00
1946,81	810,00
1951,79	590,00
1956,76	730,00
1961,72	650,00
1966,68	713,00
1971,64	590,00
1976,59	668,00
1981,54	632,00
1986,48	792,00
1991,42	602,00
1996,35	869,00
2001,27	646,00
2006,20	657,00
2011,11	802,00
2016,03	707,00
2020,93	706,00
2025,84	857,00
2030,73	697,00
2035,63	577,00
2040,52	742,00
2045,40	637,00
2050,28	663,00
2055,15	634,00
2060,02	678,00
2064,89	815,00
2069,75	673,00
2074,60	800,00
2079,46	693,00
2084,30	663,00
2089,14	722,00
2093,98	672,00
2098,81	733,00
2103,64	699,00
2108,46	815,00
2113,28	629,00
2118,09	582,00
2122,90	622,00
2127,70	471,00
2132,50	628,00
2137,30	660,00
2142,09	638,00
2146,87	612,00
2151,66	676,00
2156,43	756,00
2161,20	648,00
2165,97	710,00
2170,73	641,00
2175,49	711,00
2180,24	597,00
2184,99	691,00
2189,74	613,00
2194,48	712,00
2199,21	774,00
2203,94	720,00
2208,67	616,00
2213,39	558,00
2218,11	623,00
2222,82	664,00
2227,53	579,00
2232,23	733,00
2236,93	679,00
2241,63	769,00
2246,32	585,00
2251,00	681,00
2255,68	676,00
2260,36	653,00
2265,03	684,00
2269,70	662,00
2274,36	679,00
2279,02	673,00
2283,68	598,00
2288,33	477,00
2292,97	643,00
2297,61	630,00
2302,25	655,00
2306,88	581,00
2311,51	550,00
2316,14	613,00
2320,75	614,00
2325,37	498,00
2329,98	655,00
2334,59	631,00
2339,19	506,00
2343,79	650,00
2348,38	586,00
2352,97	558,00
2357,55	756,00
2362,13	527,00
2366,71	604,00
2371,28	547,00
2375,85	679,00
2380,41	598,00
2384,97	662,00
2389,52	670,00
2394,07	532,00
2398,62	558,00
2403,16	545,00
2407,70	585,00
2412,23	536,00
2416,76	574,00
2421,29	624,00
2425,81	631,00
2430,32	642,00
2434,84	545,00
2439,34	556,00
2443,85	686,00
2448,35	708,00
2452,84	630,00
2457,33	565,00
2461,82	589,00
2466,30	555,00
2470,78	606,00
2475,25	475,00
2479,72	581,00
2484,19	464,00
2488,65	584,00
2493,11	566,00
2497,56	663,00
2502,01	634,00
2506,46	624,00
2510,90	552,00
2515,34	603,00
2519,77	652,00
2524,20	560,00
2528,62	660,00
2533,04	604,00
2537,46	659,00
2541,87	516,00
2546,28	600,00
2550,68	578,00
2555,08	615,00
2559,48	588,00
2563,87	625,00
2568,26	590,00
2572,64	597,00
2577,02	608,00
2581,40	560,00
2585,77	665,00
2590,14	641,00
2594,50	449,00
2598,86	745,00
2603,22	598,00
2607,57	588,00
2611,92	557,00
2616,26	622,00
2620,60	541,00
2624,94	552,00
2629,27	655,00
2633,60	569,00
2637,92	607,00
2642,24	687,00
2646,56	657,00
2650,87	589,00
2655,18	698,00
2659,48	628,00
2663,78	614,00
2668,08	593,00
2672,37	525,00
2676,66	630,00
2680,95	599,00
2685,23	692,00
2689,50	660,00
2693,78	672,00
2698,05	571,00
2702,31	643,00
2706,57	648,00
2710,83	715,00
2715,08	679,00
2719,33	829,00
2723,58	695,00
2727,82	877,00
2732,06	727,00
2736,29	794,00
2740,53	717,00
2744,75	676,00
2748,97	697,00
2753,19	767,00
2757,41	792,00
2761,62	759,00
2765,83	874,00
2770,03	640,00
2774,23	694,00
2778,43	701,00
2782,62	629,00
2786,81	771,00
2791,00	763,00
2795,18	876,00
2799,35	838,00
2803,53	698,00
2807,70	924,00
2811,86	802,00
2816,03	870,00
2820,19	941,00
2824,34	981,00
2828,49	1090,00
2832,64	1153,00
2836,78	1424,00
2840,92	1767,00
2845,06	1910,00
2849,19	2394,00
2853,32	2503,00
2857,45	2484,00
2861,57	2299,00
2865,69	2309,00
2869,80	2153,00
2873,91	2216,00
2878,02	2449,00
2882,12	2677,00
2886,22	2520,00
2890,32	2630,00
2894,41	2332,00
2898,50	2157,00
2902,58	2145,00
2906,67	1834,00
2910,74	1758,00
2914,82	1641,00
2918,89	1672,00
2922,96	1419,00
2927,02	1360,00
2931,08	1406,00
2935,13	1297,00
2939,19	1293,00
2943,24	1025,00
2947,28	962,00
2951,32	921,00
2955,36	726,00
2959,40	941,00
2963,43	643,00
2967,46	777,00
2971,48	871,00
2975,50	619,00
2979,52	784,00
2983,53	629,00
2987,54	721,00
2991,55	663,00
2995,55	600,00
2999,55	613,00
3003,54	517,00
3007,54	570,00
3011,53	620,00
3015,51	485,00
3019,49	757,00
3023,47	672,00
3027,45	473,00
3031,42	622,00
3035,39	475,00
3039,35	491,00
3043,31	612,00
3047,27	508,00
3051,22	535,00
3055,17	450,00
3059,12	388,00
3063,06	535,00
3067,00	499,00
3070,94	490,00
3074,87	446,00
3078,80	549,00
3082,73	554,00
3086,65	445,00
3090,57	532,00
3094,49	446,00
3098,40	385,00
3102,31	412,00
3106,22	477,00
3110,12	450,00
3114,02	433,00
3117,92	446,00
3121,81	445,00
3125,70	482,00
3129,58	571,00
3133,47	352,00
3137,34	498,00
3141,22	489,00
3145,09	467,00
3148,96	412,00
3152,83	455,00
3156,69	463,00
3160,55	437,00
3164,40	513,00
3168,26	363,00
3172,10	487,00
3175,95	475,00
3179,79	473,00
3183,63	445,00
3187,47	450,00
3191,30	493,00
3195,13	509,00
3198,95	535,00
3202,78	469,00
3206,60	345,00
3210,41	402,00
3214,23	492,00
3218,03	447,00
3221,84	548,00
3225,64	542,00
3229,44	465,00
3233,24	536,00
3237,03	455,00
3240,82	513,00
3244,61	457,00
3248,39	472,00
3252,17	505,00
3255,95	483,00
3259,72	460,00
3263,49	580,00
3267,26	509,00
3271,03	475,00
3274,79	470,00
3278,54	413,00
3282,30	436,00
3286,05	497,00
3289,80	569,00
3293,54	431,00
3297,29	488,00
3301,02	522,00
3304,76	578,00
3308,49	508,00
3312,22	486,00
3315,95	379,00
3319,67	502,00
3323,39	440,00
3327,10	534,00
3330,82	464,00
3334,53	515,00
3338,24	441,00
3341,94	556,00
3345,64	594,00
3349,34	543,00
3353,03	500,00
3356,72	582,00
3360,41	502,00
3364,10	519,00
3367,78	372,00
3371,46	520,00
3375,13	439,00
3378,81	495,00
3382,48	506,00
3386,14	417,00
3389,81	498,00
3393,47	413,00
3397,12	441,00
3400,78	460,00
3404,43	491,00
3408,08	484,00
3411,72	538,00
3415,36	472,00
3419,00	447,00
3422,64	395,00
3426,27	399,00
3429,90	373,00
3433,53	497,00
3437,15	525,00
3440,77	405,00
3444,39	323,00
3448,00	533,00
3451,62	446,00
3455,22	559,00
3458,83	383,00
3462,43	360,00
3466,03	423,00
3469,63	504,00
3473,22	433,00
3476,81	437,00
3480,40	494,00
3483,99	442,00
3487,57	490,00
3491,15	497,00
3494,72	449,00
3498,29	305,00
3501,86	431,00
3505,43	560,00
3508,99	425,00
3512,56	433,00
3516,11	414,00
3519,67	382,00
3523,22	455,00
3526,77	472,00
3530,32	402,00
3533,86	265,00
3537,40	433,00
3540,94	460,00
3544,47	454,00
3548,00	502,00
3551,53	405,00
3555,06	307,00
3558,58	492,00
3562,10	499,00
3565,62	419,00
3569,13	379,00
3572,64	484,00
3576,15	392,00
3579,66	414,00
3583,16	484,00
3586,66	491,00
3590,16	450,00
3593,65	468,00
3597,14	466,00
3600,63	423,00
3604,11	480,00
3607,60	454,00
3611,08	464,00
3614,55	404,00
3618,03	386,00
3621,50	410,00
3624,97	429,00
3628,43	410,00
3631,90	400,00
3635,36	380,00
3638,81	509,00
3642,27	420,00
3645,72	398,00
3649,17	350,00
3652,61	429,00
3656,06	362,00
3659,50	323,00
3662,93	448,00
3666,37	380,00
3669,80	458,00
3673,23	322,00
3676,65	548,00
3680,08	417,00
3683,50	377,00
3686,92	432,00
3690,33	407,00
3693,74	342,00
3697,15	353,00
3700,56	400,00
3703,96	389,00
3707,36	355,00
3710,76	326,00
3714,16	415,00
3717,55	362,00
3720,94	359,00
3724,33	322,00
3727,71	295,00
3731,10	411,00
3734,48	460,00
3737,85	370,00
3741,23	402,00
3744,60	334,00
3747,97	302,00
3751,33	360,00
3754,69	413,00
3758,05	311,00
3761,41	389,00
3764,77	400,00
3768,12	323,00
3771,47	200,00
3774,82	349,00
3778,16	-7,00
3781,50	7,00
3784,84	6,00
3788,18	-3,00
>>>>>End Processed Spectral Data<<<<<
