SpectraSuite Data File
++++++++++++++++++++++++++++++++++++
Date: Wed Feb 04 16:07:57 ICT 2026
User: Administrator
Dark Spectrum Present: Yes
Reference Spectrum Present: No
Number of Sampled Component Spectra: 1
Spectrometers: MAYP113682
Integration Time (usec): 3000000 (MAYP113682)
Spectra Averaged: 1 (MAYP113682)
Boxcar Smoothing: 0 (MAYP113682)
Correct for Electrical Dark: No (MAYP113682)
Strobe/Lamp Enabled: No (MAYP113682)
Correct for Detector Non-linearity: No (MAYP113682)
Correct for Stray Light: No (MAYP113682)
Number of Pixels in Processed Spectrum: 2068
>>>>>Begin Processed Spectral Data<<<<<
-37534,58	8,00
-37414,56	-3,00
-37295,11	6,00
-37176,24	6,00
-37057,95	316,00
-36940,22	294,00
-36823,05	331,00
-36706,45	400,00
-36590,40	380,00
-36474,90	313,00
-36359,95	448,00
-36245,55	478,00
-36131,68	448,00
-36018,35	410,00
-35905,55	433,00
-35793,29	311,00
-35681,54	461,00
-35570,32	432,00
-35459,62	394,00
-35349,43	506,00
-35239,75	420,00
-35130,58	417,00
-35021,91	355,00
-34913,74	410,00
-34806,07	376,00
-34698,89	459,00
-34592,20	337,00
-34486,00	452,00
-34380,28	519,00
-34275,04	437,00
-34170,27	334,00
-34065,98	322,00
-33962,16	352,00
-33858,81	501,00
-33755,92	485,00
-33653,49	495,00
-33551,52	427,00
-33450,01	482,00
-33348,94	391,00
-33248,33	409,00
-33148,16	463,00
-33048,43	433,00
-32949,14	510,00
-32850,29	475,00
-32751,87	378,00
-32653,89	461,00
-32556,33	477,00
-32459,20	354,00
-32362,49	467,00
-32266,19	379,00
-32170,32	392,00
-32074,86	441,00
-31979,82	385,00
-31885,18	456,00
-31790,95	414,00
-31697,12	421,00
-31603,69	503,00
-31510,67	418,00
-31418,04	493,00
-31325,80	411,00
-31233,95	497,00
-31142,49	378,00
-31051,42	404,00
-30960,73	511,00
-30870,43	562,00
-30780,50	354,00
-30690,95	450,00
-30601,77	473,00
-30512,97	432,00
-30424,53	398,00
-30336,46	512,00
-30248,76	479,00
-30161,42	401,00
-30074,44	495,00
-29987,81	523,00
-29901,55	351,00
-29815,63	499,00
-29730,07	471,00
-29644,86	501,00
-29560,00	402,00
-29475,48	433,00
-29391,30	463,00
-29307,47	435,00
-29223,97	298,00
-29140,81	386,00
-29057,99	405,00
-28975,50	431,00
-28893,34	382,00
-28811,51	462,00
-28730,00	465,00
-28648,82	414,00
-28567,97	500,00
-28487,43	477,00
-28407,21	466,00
-28327,32	514,00
-28247,73	472,00
-28168,46	381,00
-28089,50	463,00
-28010,85	490,00
-27932,51	447,00
-27854,48	657,00
-27776,75	385,00
-27699,32	489,00
-27622,19	512,00
-27545,37	431,00
-27468,84	356,00
-27392,60	411,00
-27316,66	348,00
-27241,01	532,00
-27165,66	536,00
-27090,59	427,00
-27015,81	544,00
-26941,31	450,00
-26867,10	462,00
-26793,17	447,00
-26719,52	432,00
-26646,15	362,00
-26573,06	363,00
-26500,24	445,00
-26427,70	438,00
-26355,43	482,00
-26283,43	373,00
-26211,71	550,00
-26140,25	542,00
-26069,06	582,00
-25998,13	363,00
-25927,46	443,00
-25857,06	409,00
-25786,92	477,00
-25717,04	376,00
-25647,42	485,00
-25578,05	494,00
-25508,94	518,00
-25440,09	426,00
-25371,48	289,00
-25303,13	463,00
-25235,02	455,00
-25167,17	449,00
-25099,56	495,00
-25032,19	419,00
-24965,07	512,00
-24898,20	493,00
-24831,56	570,00
-24765,17	449,00
-24699,01	426,00
-24633,10	428,00
-24567,41	583,00
-24501,97	555,00
-24436,75	481,00
-24371,77	425,00
-24307,03	450,00
-24242,51	311,00
-24178,22	628,00
-24114,16	371,00
-24050,32	565,00
-23986,71	437,00
-23923,32	416,00
-23860,16	373,00
-23797,22	520,00
-23734,50	432,00
-23672,00	348,00
-23609,71	594,00
-23547,65	464,00
-23485,80	496,00
-23424,16	354,00
-23362,74	525,00
-23301,53	402,00
-23240,54	390,00
-23179,75	378,00
-23119,17	452,00
-23058,80	538,00
-22998,64	435,00
-22938,68	447,00
-22878,93	430,00
-22819,39	540,00
-22760,04	357,00
-22700,90	321,00
-22641,96	483,00
-22583,22	464,00
-22524,68	415,00
-22466,33	484,00
-22408,19	463,00
-22350,23	396,00
-22292,48	416,00
-22234,92	383,00
-22177,55	452,00
-22120,37	489,00
-22063,38	470,00
-22006,58	366,00
-21949,98	320,00
-21893,56	330,00
-21837,33	415,00
-21781,28	380,00
-21725,42	505,00
-21669,74	393,00
-21614,25	375,00
-21558,94	372,00
-21503,81	530,00
-21448,86	444,00
-21394,10	458,00
-21339,51	456,00
-21285,10	392,00
-21230,86	466,00
-21176,81	303,00
-21122,93	392,00
-21069,22	413,00
-21015,69	363,00
-20962,33	458,00
-20909,14	328,00
-20856,13	398,00
-20803,28	381,00
-20750,61	375,00
-20698,10	342,00
-20645,76	468,00
-20593,59	385,00
-20541,59	577,00
-20489,75	312,00
-20438,07	400,00
-20386,56	568,00
-20335,22	303,00
-20284,03	366,00
-20233,01	472,00
-20182,15	498,00
-20131,45	442,00
-20080,91	454,00
-20030,52	514,00
-19980,30	400,00
-19930,23	265,00
-19880,32	394,00
-19830,56	354,00
-19780,96	447,00
-19731,52	523,00
-19682,23	402,00
-19633,09	375,00
-19584,10	462,00
-19535,26	457,00
-19486,58	417,00
-19438,04	513,00
-19389,66	464,00
-19341,42	367,00
-19293,33	393,00
-19245,39	481,00
-19197,60	357,00
-19149,95	478,00
-19102,45	452,00
-19055,09	351,00
-19007,87	427,00
-18960,80	504,00
-18913,87	532,00
-18867,09	348,00
-18820,44	395,00
-18773,94	504,00
-18727,57	451,00
-18681,35	417,00
-18635,26	437,00
-18589,31	373,00
-18543,50	371,00
-18497,83	487,00
-18452,29	437,00
-18406,89	510,00
-18361,63	460,00
-18316,50	381,00
-18271,50	305,00
-18226,63	446,00
-18181,90	502,00
-18137,30	477,00
-18092,84	375,00
-18048,50	464,00
-18004,29	522,00
-17960,22	430,00
-17916,27	453,00
-17872,45	429,00
-17828,76	522,00
-17785,20	398,00
-17741,77	442,00
-17698,46	456,00
-17655,28	453,00
-17612,22	355,00
-17569,29	480,00
-17526,48	433,00
-17483,79	451,00
-17441,23	388,00
-17398,79	408,00
-17356,48	515,00
-17314,28	422,00
-17272,21	410,00
-17230,26	420,00
-17188,42	406,00
-17146,71	416,00
-17105,12	458,00
-17063,64	393,00
-17022,28	380,00
-16981,04	363,00
-16939,92	489,00
-16898,91	506,00
-16858,02	519,00
-16817,25	493,00
-16776,59	458,00
-16736,04	457,00
-16695,61	420,00
-16655,29	415,00
-16615,09	495,00
-16574,99	488,00
-16535,01	357,00
-16495,15	474,00
-16455,39	304,00
-16415,74	396,00
-16376,21	444,00
-16336,78	373,00
-16297,46	371,00
-16258,26	328,00
-16219,16	533,00
-16180,17	473,00
-16141,28	414,00
-16102,51	487,00
-16063,84	476,00
-16025,27	442,00
-15986,82	470,00
-15948,46	453,00
-15910,22	535,00
-15872,07	437,00
-15834,04	316,00
-15796,10	434,00
-15758,27	396,00
-15720,54	509,00
-15682,91	386,00
-15645,39	464,00
-15607,97	509,00
-15570,64	522,00
-15533,42	462,00
-15496,30	516,00
-15459,28	394,00
-15422,36	490,00
-15385,54	290,00
-15348,82	440,00
-15312,19	507,00
-15275,66	479,00
-15239,23	498,00
-15202,90	524,00
-15166,67	392,00
-15130,53	458,00
-15094,48	408,00
-15058,54	416,00
-15022,68	344,00
-14986,93	392,00
-14951,26	398,00
-14915,69	484,00
-14880,22	439,00
-14844,84	577,00
-14809,55	605,00
-14774,35	403,00
-14739,25	456,00
-14704,24	391,00
-14669,32	423,00
-14634,49	420,00
-14599,75	432,00
-14565,10	404,00
-14530,55	411,00
-14496,08	340,00
-14461,70	451,00
-14427,41	494,00
-14393,21	486,00
-14359,10	424,00
-14325,07	403,00
-14291,14	453,00
-14257,29	611,00
-14223,52	476,00
-14189,85	518,00
-14156,26	494,00
-14122,76	397,00
-14089,34	355,00
-14056,01	420,00
-14022,76	428,00
-13989,60	452,00
-13956,52	464,00
-13923,53	426,00
-13890,62	433,00
-13857,79	455,00
-13825,05	417,00
-13792,39	427,00
-13759,81	378,00
-13727,31	437,00
-13694,90	471,00
-13662,57	410,00
-13630,31	514,00
-13598,14	405,00
-13566,05	417,00
-13534,05	405,00
-13502,12	372,00
-13470,27	497,00
-13438,50	509,00
-13406,80	397,00
-13375,19	383,00
-13343,66	379,00
-13312,20	476,00
-13280,83	332,00
-13249,53	433,00
-13218,30	267,00
-13187,16	441,00
-13156,09	504,00
-13125,10	339,00
-13094,18	517,00
-13063,34	464,00
-13032,58	292,00
-13001,89	487,00
-12971,28	341,00
-12940,74	411,00
-12910,27	404,00
-12879,88	427,00
-12849,57	519,00
-12819,33	410,00
-12789,16	406,00
-12759,06	461,00
-12729,04	396,00
-12699,09	1850,00
-12669,21	428,00
-12639,41	409,00
-12609,68	382,00
-12580,02	377,00
-12550,43	421,00
-12520,91	394,00
-12491,46	300,00
-12462,08	316,00
-12432,77	495,00
-12403,54	518,00
-12374,37	421,00
-12345,27	493,00
-12316,24	380,00
-12287,29	425,00
-12258,40	534,00
-12229,57	496,00
-12200,82	425,00
-12172,14	453,00
-12143,52	367,00
-12114,97	408,00
-12086,49	404,00
-12058,07	479,00
-12029,73	450,00
-12001,44	558,00
-11973,23	562,00
-11945,08	425,00
-11917,00	407,00
-11888,98	478,00
-11861,03	446,00
-11833,15	468,00
-11805,32	448,00
-11777,57	411,00
-11749,88	392,00
-11722,25	451,00
-11694,69	365,00
-11667,19	445,00
-11639,75	441,00
-11612,38	497,00
-11585,07	354,00
-11557,83	374,00
-11530,65	390,00
-11503,53	360,00
-11476,47	448,00
-11449,48	448,00
-11422,54	527,00
-11395,67	385,00
-11368,86	413,00
-11342,11	438,00
-11315,43	479,00
-11288,80	366,00
-11262,23	446,00
-11235,73	429,00
-11209,28	426,00
-11182,90	509,00
-11156,57	404,00
-11130,31	575,00
-11104,10	436,00
-11077,96	449,00
-11051,87	376,00
-11025,84	515,00
-10999,87	452,00
-10973,96	465,00
-10948,11	358,00
-10922,31	420,00
-10896,58	527,00
-10870,90	423,00
-10845,28	469,00
-10819,71	302,00
-10794,20	541,00
-10768,75	450,00
-10743,36	462,00
-10718,02	532,00
-10692,74	408,00
-10667,52	368,00
-10642,35	491,00
-10617,24	462,00
-10592,18	452,00
-10567,18	332,00
-10542,23	381,00
-10517,34	423,00
-10492,51	401,00
-10467,72	474,00
-10443,00	432,00
-10418,32	480,00
-10393,70	426,00
-10369,14	413,00
-10344,63	465,00
-10320,17	322,00
-10295,77	429,00
-10271,42	461,00
-10247,12	473,00
-10222,88	446,00
-10198,68	396,00
-10174,54	523,00
-10150,46	522,00
-10126,42	509,00
-10102,44	449,00
-10078,51	465,00
-10054,63	571,00
-10030,80	538,00
-10007,03	637,00
-9983,30	573,00
-9959,63	429,00
-9936,01	598,00
-9912,44	552,00
-9888,92	526,00
-9865,44	421,00
-9842,02	569,00
-9818,65	542,00
-9795,33	438,00
-9772,06	505,00
-9748,84	516,00
-9725,67	465,00
-9702,55	620,00
-9679,47	544,00
-9656,45	769,00
-9633,47	554,00
-9610,55	689,00
-9587,67	806,00
-9564,84	738,00
-9542,06	861,00
-9519,32	808,00
-9496,64	864,00
-9474,00	895,00
-9451,41	997,00
-9428,87	924,00
-9406,37	927,00
-9383,92	799,00
-9361,52	868,00
-9339,17	903,00
-9316,86	1113,00
-9294,60	950,00
-9272,38	1266,00
-9250,21	1196,00
-9228,09	1287,00
-9206,01	1303,00
-9183,98	1205,00
-9162,00	900,00
-9140,06	969,00
-9118,16	1102,00
-9096,31	1090,00
-9074,51	987,00
-9052,75	1219,00
-9031,04	1112,00
-9009,37	1052,00
-8987,74	991,00
-8966,16	967,00
-8944,63	970,00
-8923,14	1074,00
-8901,69	775,00
-8880,29	809,00
-8858,93	929,00
-8837,61	933,00
-8816,34	937,00
-8795,11	935,00
-8773,92	996,00
-8752,78	967,00
-8731,68	877,00
-8710,62	978,00
-8689,61	1041,00
-8668,63	868,00
-8647,70	860,00
-8626,82	921,00
-8605,97	843,00
-8585,17	904,00
-8564,41	795,00
-8543,69	995,00
-8523,01	754,00
-8502,37	828,00
-8481,78	815,00
-8461,23	877,00
-8440,71	871,00
-8420,24	829,00
-8399,81	997,00
-8379,42	836,00
-8359,08	981,00
-8338,77	951,00
-8318,50	826,00
-8298,27	788,00
-8278,09	810,00
-8257,94	911,00
-8237,83	1054,00
-8217,76	869,00
-8197,74	857,00
-8177,75	1006,00
-8157,80	825,00
-8137,89	669,00
-8118,02	795,00
-8098,19	876,00
-8078,40	768,00
-8058,65	794,00
-8038,93	712,00
-8019,26	728,00
-7999,62	792,00
-7980,02	706,00
-7960,46	761,00
-7940,94	647,00
-7921,46	732,00
-7902,01	717,00
-7882,60	838,00
-7863,23	756,00
-7843,90	626,00
-7824,61	624,00
-7805,35	878,00
-7786,13	686,00
-7766,95	876,00
-7747,80	713,00
-7728,69	755,00
-7709,62	687,00
-7690,59	755,00
-7671,59	728,00
-7652,63	712,00
-7633,70	692,00
-7614,81	690,00
-7595,96	713,00
-7577,15	674,00
-7558,37	671,00
-7539,62	770,00
-7520,91	748,00
-7502,24	739,00
-7483,60	675,00
-7465,00	683,00
-7446,44	649,00
-7427,91	597,00
-7409,41	712,00
-7390,95	619,00
-7372,53	736,00
-7354,14	613,00
-7335,78	517,00
-7317,46	736,00
-7299,18	460,00
-7280,92	508,00
-7262,71	742,00
-7244,52	703,00
-7226,38	581,00
-7208,26	645,00
-7190,18	745,00
-7172,14	684,00
-7154,12	658,00
-7136,15	645,00
-7118,20	627,00
-7100,29	615,00
-7082,41	706,00
-7064,57	722,00
-7046,76	617,00
-7028,98	674,00
-7011,24	654,00
-6993,53	473,00
-6975,85	477,00
-6958,20	539,00
-6940,59	451,00
-6923,01	633,00
-6905,46	533,00
-6887,94	631,00
-6870,46	3126,00
-6853,01	566,00
-6835,59	649,00
-6818,21	465,00
-6800,85	559,00
-6783,53	552,00
-6766,24	524,00
-6748,98	418,00
-6731,76	472,00
-6714,56	363,00
-6697,40	369,00
-6680,26	380,00
-6663,16	599,00
-6646,09	610,00
-6629,05	481,00
-6612,05	640,00
-6595,07	545,00
-6578,13	572,00
-6561,21	550,00
-6544,33	563,00
-6527,47	587,00
-6510,65	434,00
-6493,86	435,00
-6477,10	552,00
-6460,36	466,00
-6443,66	526,00
-6426,99	391,00
-6410,35	526,00
-6393,74	473,00
-6377,16	484,00
-6360,61	381,00
-6344,09	473,00
-6327,59	443,00
-6311,13	470,00
-6294,70	566,00
-6278,29	582,00
-6261,92	508,00
-6245,58	445,00
-6229,26	414,00
-6212,97	453,00
-6196,72	548,00
-6180,49	493,00
-6164,29	424,00
-6148,12	571,00
-6131,98	524,00
-6115,86	496,00
-6099,78	442,00
-6083,72	498,00
-6067,69	403,00
-6051,69	540,00
-6035,72	406,00
-6019,78	405,00
-6003,87	363,00
-5987,98	441,00
-5972,12	552,00
-5956,29	446,00
-5940,49	286,00
-5924,71	568,00
-5908,96	508,00
-5893,24	559,00
-5877,55	557,00
-5861,89	511,00
-5846,25	488,00
-5830,64	522,00
-5815,05	584,00
-5799,50	515,00
-5783,97	346,00
-5768,47	494,00
-5752,99	607,00
-5737,55	566,00
-5722,12	410,00
-5706,73	397,00
-5691,36	398,00
-5676,02	480,00
-5660,71	560,00
-5645,42	341,00
-5630,16	509,00
-5614,92	455,00
-5599,71	503,00
-5584,53	483,00
-5569,37	453,00
-5554,24	590,00
-5539,14	420,00
-5524,06	419,00
-5509,01	503,00
-5493,98	549,00
-5478,98	514,00
-5464,00	576,00
-5449,05	424,00
-5434,13	335,00
-5419,23	538,00
-5404,36	374,00
-5389,51	366,00
-5374,69	558,00
-5359,89	399,00
-5345,12	506,00
-5330,37	435,00
-5315,65	378,00
-5300,95	546,00
-5286,28	442,00
-5271,63	397,00
-5257,01	446,00
-5242,41	474,00
-5227,84	446,00
-5213,29	548,00
-5198,76	439,00
-5184,26	463,00
-5169,79	502,00
-5155,33	465,00
-5140,91	550,00
-5126,51	410,00
-5112,13	330,00
-5097,77	514,00
-5083,44	525,00
-5069,13	399,00
-5054,85	367,00
-5040,59	431,00
-5026,36	355,00
-5012,15	488,00
-4997,96	569,00
-4983,80	434,00
-4969,66	438,00
-4955,54	334,00
-4941,44	461,00
-4927,37	423,00
-4913,33	511,00
-4899,30	375,00
-4885,30	453,00
-4871,33	478,00
-4857,37	436,00
-4843,44	587,00
-4829,53	524,00
-4815,65	468,00
-4801,79	496,00
-4787,95	448,00
-4774,13	371,00
-4760,34	291,00
-4746,56	379,00
-4732,82	321,00
-4719,09	375,00
-4705,38	448,00
-4691,70	568,00
-4678,04	459,00
-4664,41	429,00
-4650,79	590,00
-4637,20	603,00
-4623,63	403,00
-4610,08	515,00
-4596,56	558,00
-4583,05	454,00
-4569,57	356,00
-4556,11	518,00
-4542,67	381,00
-4529,25	488,00
-4515,86	417,00
-4502,49	462,00
-4489,13	652,00
-4475,80	470,00
-4462,49	432,00
-4449,21	513,00
-4435,94	342,00
-4422,70	280,00
-4409,47	368,00
-4396,27	471,00
-4383,09	523,00
-4369,93	469,00
-4356,79	457,00
-4343,67	432,00
-4330,58	463,00
-4317,50	432,00
-4304,45	387,00
-4291,41	460,00
-4278,40	438,00
-4265,41	393,00
-4252,44	372,00
-4239,49	480,00
-4226,55	379,00
-4213,65	447,00
-4200,76	485,00
-4187,89	358,00
-4175,04	482,00
-4162,21	482,00
-4149,40	432,00
-4136,61	493,00
-4123,85	529,00
-4111,10	339,00
-4098,37	408,00
-4085,66	392,00
-4072,98	452,00
-4060,31	429,00
-4047,66	498,00
-4035,04	623,00
-4022,43	532,00
-4009,84	454,00
-3997,27	378,00
-3984,72	440,00
-3972,19	455,00
-3959,69	423,00
-3947,20	371,00
-3934,73	396,00
-3922,27	404,00
-3909,84	405,00
-3897,43	431,00
-3885,04	428,00
-3872,67	407,00
-3860,31	449,00
-3847,98	454,00
-3835,66	437,00
-3823,36	470,00
-3811,09	447,00
-3798,83	487,00
-3786,59	625,00
-3774,37	417,00
-3762,17	480,00
-3749,98	482,00
-3737,82	485,00
-3725,67	545,00
-3713,55	367,00
-3701,44	441,00
-3689,35	414,00
-3677,28	412,00
-3665,22	486,00
-3653,19	358,00
-3641,17	504,00
-3629,18	515,00
-3617,20	532,00
-3605,24	272,00
-3593,30	548,00
-3581,37	445,00
-3569,47	464,00
-3557,58	444,00
-3545,71	388,00
-3533,86	538,00
-3522,02	354,00
-3510,21	440,00
-3498,41	424,00
-3486,63	527,00
-3474,87	540,00
-3463,12	470,00
-3451,40	448,00
-3439,69	550,00
-3428,00	426,00
-3416,33	417,00
-3404,67	364,00
-3393,03	498,00
-3381,41	487,00
-3369,81	427,00
-3358,22	425,00
-3346,66	579,00
-3335,10	527,00
-3323,57	359,00
-3312,06	476,00
-3300,56	549,00
-3289,08	442,00
-3277,61	388,00
-3266,16	518,00
-3254,73	593,00
-3243,32	534,00
-3231,92	455,00
-3220,55	414,00
-3209,18	457,00
-3197,84	436,00
-3186,51	292,00
-3175,20	366,00
-3163,90	401,00
-3152,63	454,00
-3141,36	493,00
-3130,12	434,00
-3118,89	459,00
-3107,68	521,00
-3096,49	475,00
-3085,31	448,00
-3074,15	489,00
-3063,00	354,00
-3051,87	501,00
-3040,76	353,00
-3029,67	459,00
-3018,59	485,00
-3007,52	532,00
-2996,48	417,00
-2985,44	440,00
-2974,43	393,00
-2963,43	477,00
-2952,45	290,00
-2941,48	520,00
-2930,53	502,00
-2919,60	495,00
-2908,68	447,00
-2897,78	345,00
-2886,89	372,00
-2876,02	328,00
-2865,17	479,00
-2854,33	371,00
-2843,50	462,00
-2832,70	403,00
-2821,90	419,00
-2811,13	526,00
-2800,37	372,00
-2789,62	441,00
-2778,89	534,00
-2768,18	429,00
-2757,48	391,00
-2746,80	505,00
-2736,13	460,00
-2725,48	498,00
-2714,84	410,00
-2704,22	499,00
-2693,61	366,00
-2683,02	471,00
-2672,45	430,00
-2661,89	309,00
-2651,34	469,00
-2640,81	391,00
-2630,30	471,00
-2619,80	440,00
-2609,31	410,00
-2598,84	415,00
-2588,39	465,00
-2577,95	453,00
-2567,52	341,00
-2557,11	550,00
-2546,71	460,00
-2536,33	499,00
-2525,97	495,00
-2515,62	402,00
-2505,28	390,00
-2494,96	447,00
-2484,65	616,00
-2474,36	579,00
-2464,08	462,00
-2453,82	546,00
-2443,57	459,00
-2433,33	422,00
-2423,11	405,00
-2412,91	531,00
-2402,72	449,00
-2392,54	471,00
-2382,38	378,00
-2372,23	417,00
-2362,09	5019,00
-2351,97	288,00
-2341,87	542,00
-2331,78	465,00
-2321,70	398,00
-2311,64	493,00
-2301,59	280,00
-2291,55	354,00
-2281,53	474,00
-2271,53	333,00
-2261,53	390,00
-2251,55	523,00
-2241,59	438,00
-2231,64	430,00
-2221,70	513,00
-2211,78	449,00
-2201,87	524,00
-2191,97	546,00
-2182,09	517,00
-2172,22	511,00
-2162,37	430,00
-2152,53	414,00
-2142,70	334,00
-2132,89	474,00
-2123,09	486,00
-2113,30	383,00
-2103,53	602,00
-2093,77	373,00
-2084,02	301,00
-2074,29	573,00
-2064,57	385,00
-2054,86	431,00
-2045,17	522,00
-2035,49	441,00
-2025,82	330,00
-2016,17	469,00
-2006,53	479,00
-1996,91	360,00
-1987,29	488,00
-1977,69	497,00
-1968,11	441,00
-1958,53	397,00
-1948,97	514,00
-1939,42	467,00
-1929,89	421,00
-1920,37	469,00
-1910,86	457,00
-1901,36	437,00
-1891,88	550,00
-1882,41	329,00
-1872,95	507,00
-1863,51	412,00
-1854,08	529,00
-1844,66	525,00
-1835,26	535,00
-1825,86	412,00
-1816,48	339,00
-1807,11	429,00
-1797,76	501,00
-1788,42	530,00
-1779,09	475,00
-1769,77	453,00
-1760,47	661,00
-1751,17	419,00
-1741,89	466,00
-1732,63	602,00
-1723,37	555,00
-1714,13	618,00
-1704,90	414,00
-1695,68	522,00
-1686,48	431,00
-1677,29	479,00
-1668,11	607,00
-1658,94	578,00
-1649,78	431,00
-1640,64	397,00
-1631,51	432,00
-1622,39	439,00
-1613,28	412,00
-1604,19	487,00
-1595,10	403,00
-1586,03	418,00
-1576,97	439,00
-1567,93	386,00
-1558,89	565,00
-1549,87	354,00
-1540,86	449,00
-1531,86	539,00
-1522,87	333,00
-1513,90	539,00
-1504,93	428,00
-1495,98	465,00
-1487,04	527,00
-1478,12	435,00
-1469,20	351,00
-1460,30	579,00
-1451,40	365,00
-1442,52	274,00
-1433,65	453,00
-1424,80	415,00
-1415,95	465,00
-1407,12	504,00
-1398,30	445,00
-1389,48	474,00
-1380,69	486,00
-1371,90	472,00
-1363,12	497,00
-1354,36	476,00
-1345,60	454,00
-1336,86	472,00
-1328,13	403,00
-1319,41	512,00
-1310,70	518,00
-1302,01	393,00
-1293,32	408,00
-1284,65	502,00
-1275,99	366,00
-1267,33	464,00
-1258,69	564,00
-1250,06	410,00
-1241,45	389,00
-1232,84	538,00
-1224,25	441,00
-1215,66	423,00
-1207,09	506,00
-1198,53	595,00
-1189,97	609,00
-1181,43	426,00
-1172,91	396,00
-1164,39	459,00
-1155,88	390,00
-1147,38	496,00
-1138,90	390,00
-1130,43	451,00
-1121,96	416,00
-1113,51	522,00
-1105,07	376,00
-1096,64	515,00
-1088,22	591,00
-1079,81	388,00
-1071,41	486,00
-1063,02	442,00
-1054,65	467,00
-1046,28	461,00
-1037,92	457,00
-1029,58	504,00
-1021,24	470,00
-1012,92	470,00
-1004,61	400,00
-996,30	579,00
-988,01	436,00
-979,73	446,00
-971,46	428,00
-963,20	411,00
-954,95	314,00
-946,71	435,00
-938,48	424,00
-930,26	530,00
-922,06	463,00
-913,86	480,00
-905,67	469,00
-897,49	390,00
-889,33	508,00
-881,17	467,00
-873,02	468,00
-864,89	425,00
-856,76	345,00
-848,65	431,00
-840,54	450,00
-832,45	503,00
-824,36	267,00
-816,29	531,00
-808,22	523,00
-800,17	375,00
-792,12	496,00
-784,09	413,00
-776,06	403,00
-768,05	343,00
-760,04	471,00
-752,05	294,00
-744,07	405,00
-736,09	670,00
-728,13	349,00
-720,17	334,00
-712,23	531,00
-704,29	397,00
-696,37	405,00
-688,45	526,00
-680,55	437,00
-672,65	541,00
-664,77	418,00
-656,89	450,00
-649,03	344,00
-641,17	453,00
-633,32	470,00
-625,49	435,00
-617,66	487,00
-609,84	421,00
-602,03	474,00
-594,23	450,00
-586,45	589,00
-578,67	439,00
-570,90	425,00
-563,14	492,00
-555,39	486,00
-547,65	420,00
-539,91	413,00
-532,19	437,00
-524,48	427,00
-516,78	384,00
-509,08	321,00
-501,40	483,00
-493,72	469,00
-486,06	418,00
-478,40	515,00
-470,76	429,00
-463,12	450,00
-455,49	501,00
-447,87	344,00
-440,26	449,00
-432,66	460,00
-425,07	573,00
-417,49	499,00
-409,92	515,00
-402,35	419,00
-394,80	491,00
-387,25	406,00
-379,72	499,00
-372,19	497,00
-364,67	398,00
-357,17	543,00
-349,67	511,00
-342,18	516,00
-334,69	538,00
-327,22	493,00
-319,76	419,00
-312,30	428,00
-304,86	555,00
-297,42	509,00
-290,00	439,00
-282,58	527,00
-275,17	546,00
-267,77	493,00
-260,37	543,00
-252,99	461,00
-245,62	517,00
-238,25	397,00
-230,90	466,00
-223,55	585,00
-216,21	555,00
-208,88	592,00
-201,56	493,00
-194,25	510,00
-186,94	507,00
-179,65	587,00
-172,36	591,00
-165,08	514,00
-157,81	655,00
-150,55	666,00
-143,30	632,00
-136,06	844,00
-128,82	799,00
-121,60	676,00
-114,38	922,00
-107,17	974,00
-99,97	1054,00
-92,78	1035,00
-85,60	1175,00
-78,42	1222,00
-71,25	1488,00
-64,10	1459,00
-56,95	1803,00
-49,81	2059,00
-42,67	2478,00
-35,55	2749,00
-28,43	3846,00
-21,33	5894,00
-14,23	17532,00
-7,14	55841,00
-0,05	55551,00
7,02	55287,00
14,09	55623,00
21,14	18411,00
28,19	7521,00
35,23	4860,00
42,27	3745,00
49,29	3190,00
56,31	2589,00
63,32	2328,00
70,32	2043,00
77,31	1786,00
84,29	1594,00
91,27	1408,00
98,23	1468,00
105,19	1208,00
112,14	1334,00
119,09	1647,00
126,02	2359,00
132,95	2520,00
139,87	2401,00
146,78	2618,00
153,68	2377,00
160,58	2370,00
167,46	2412,00
174,34	2299,00
181,21	2349,00
188,08	2315,00
194,93	2121,00
201,78	2231,00
208,62	2341,00
215,45	2211,00
222,27	2173,00
229,09	2241,00
235,90	2181,00
242,70	2146,00
249,49	2281,00
256,27	2071,00
263,05	2102,00
269,82	2057,00
276,58	2158,00
283,33	1940,00
290,08	2054,00
296,82	1913,00
303,55	1903,00
310,27	1810,00
316,98	1954,00
323,69	1940,00
330,39	1827,00
337,08	1922,00
343,76	1830,00
350,44	1848,00
357,11	1726,00
363,77	1864,00
370,42	1741,00
377,07	1788,00
383,71	1723,00
390,34	1748,00
396,96	1791,00
403,58	1765,00
410,19	1920,00
416,79	1839,00
423,38	1789,00
429,97	1848,00
436,55	1627,00
443,12	1754,00
449,68	1647,00
456,24	1530,00
462,79	1624,00
469,33	1585,00
475,86	1520,00
482,39	1648,00
488,91	1731,00
495,42	1530,00
501,93	1610,00
508,42	1521,00
514,91	1559,00
521,40	1514,00
527,87	1525,00
534,34	1582,00
540,80	1644,00
547,25	1458,00
553,70	1522,00
560,14	1624,00
566,57	1564,00
573,00	1427,00
579,41	1548,00
585,83	1377,00
592,23	1522,00
598,62	1512,00
605,01	1379,00
611,40	1425,00
617,77	1422,00
624,14	1475,00
630,50	1433,00
636,85	1453,00
643,20	1387,00
649,54	1361,00
655,87	1388,00
662,20	1375,00
668,52	1463,00
674,83	1559,00
681,13	1391,00
687,43	1449,00
693,72	1396,00
700,00	1381,00
706,28	1443,00
712,55	1283,00
718,81	1351,00
725,07	1303,00
731,32	1350,00
737,56	1440,00
743,79	1348,00
750,02	1347,00
756,24	1355,00
762,46	1465,00
768,67	1406,00
774,87	1367,00
781,06	1251,00
787,25	1434,00
793,43	1298,00
799,60	1292,00
805,77	1440,00
811,93	1288,00
818,08	1368,00
824,23	1322,00
830,37	1299,00
836,50	1304,00
842,63	1374,00
848,75	1433,00
854,87	1341,00
860,97	1493,00
867,07	1440,00
873,17	1403,00
879,25	1486,00
885,33	1304,00
891,41	1554,00
897,47	1493,00
903,53	1319,00
909,59	1328,00
915,63	1326,00
921,67	1366,00
927,71	1230,00
933,74	1380,00
939,76	1346,00
945,77	1289,00
951,78	1379,00
957,78	1257,00
963,78	1331,00
969,77	1297,00
975,75	1301,00
981,72	1365,00
987,69	1392,00
993,66	1387,00
999,61	1316,00
1005,56	1364,00
1011,51	1359,00
1017,44	1363,00
1023,37	1414,00
1029,30	1389,00
1035,22	1204,00
1041,13	1336,00
1047,03	1331,00
1052,93	1542,00
1058,83	2184,00
1064,71	2417,00
1070,59	2101,00
1076,47	1772,00
1082,33	1593,00
1088,20	1436,00
1094,05	1417,00
1099,90	1394,00
1105,74	1374,00
1111,58	1380,00
1117,41	1443,00
1123,23	2029,00
1129,05	2451,00
1134,86	2424,00
1140,67	1724,00
1146,47	1405,00
1152,26	1224,00
1158,05	1229,00
1163,83	1332,00
1169,60	1317,00
1175,37	1251,00
1181,13	1320,00
1186,89	1172,00
1192,64	1310,00
1198,38	1349,00
1204,12	1298,00
1209,85	1196,00
1215,58	1274,00
1221,30	1160,00
1227,02	1174,00
1232,72	1236,00
1238,43	1145,00
1244,12	1201,00
1249,81	1267,00
1255,50	1399,00
1261,17	1212,00
1266,85	1443,00
1272,51	1197,00
1278,17	1433,00
1283,83	1502,00
1289,47	2023,00
1295,12	2784,00
1300,75	2564,00
1306,38	2129,00
1312,01	1706,00
1317,63	1585,00
1323,24	1456,00
1328,85	1262,00
1334,45	1416,00
1340,04	1327,00
1345,63	1254,00
1351,22	1517,00
1356,80	1318,00
1362,37	1366,00
1367,93	1466,00
1373,49	1533,00
1379,05	1481,00
1384,60	1408,00
1390,14	1217,00
1395,68	1442,00
1401,21	1430,00
1406,74	1460,00
1412,26	1709,00
1417,77	2027,00
1423,28	1910,00
1428,78	2175,00
1434,28	2493,00
1439,77	3015,00
1445,26	2927,00
1450,74	2713,00
1456,22	2346,00
1461,68	2380,00
1467,15	2248,00
1472,61	1793,00
1478,06	1751,00
1483,51	1530,00
1488,95	1494,00
1494,38	1343,00
1499,81	1299,00
1505,24	1198,00
1510,65	1238,00
1516,07	1257,00
1521,48	1235,00
1526,88	1178,00
1532,27	1170,00
1537,67	1097,00
1543,05	1150,00
1548,43	1187,00
1553,81	1282,00
1559,18	982,00
1564,54	1093,00
1569,90	1169,00
1575,25	1143,00
1580,60	1083,00
1585,94	1105,00
1591,28	1111,00
1596,61	1042,00
1601,93	1043,00
1607,25	1095,00
1612,57	1108,00
1617,88	1173,00
1623,18	1115,00
1628,48	1223,00
1633,77	1128,00
1639,06	1095,00
1644,34	964,00
1649,62	997,00
1654,89	1105,00
1660,16	1104,00
1665,42	979,00
1670,67	1154,00
1675,92	1204,00
1681,17	934,00
1686,41	999,00
1691,64	989,00
1696,87	1110,00
1702,10	946,00
1707,32	859,00
1712,53	962,00
1717,74	877,00
1722,94	1017,00
1728,14	1113,00
1733,33	939,00
1738,52	941,00
1743,70	967,00
1748,88	927,00
1754,05	925,00
1759,22	947,00
1764,38	914,00
1769,53	909,00
1774,69	1058,00
1779,83	885,00
1784,97	942,00
1790,11	954,00
1795,24	948,00
1800,36	796,00
1805,48	893,00
1810,60	952,00
1815,71	894,00
1820,82	832,00
1825,92	865,00
1831,01	853,00
1836,10	843,00
1841,19	861,00
1846,26	885,00
1851,34	930,00
1856,41	890,00
1861,47	862,00
1866,53	923,00
1871,59	906,00
1876,64	872,00
1881,68	917,00
1886,72	844,00
1891,76	792,00
1896,79	845,00
1901,81	723,00
1906,83	770,00
1911,85	926,00
1916,86	874,00
1921,86	803,00
1926,86	707,00
1931,86	807,00
1936,85	785,00
1941,83	791,00
1946,81	826,00
1951,79	694,00
1956,76	749,00
1961,72	695,00
1966,68	794,00
1971,64	616,00
1976,59	631,00
1981,54	697,00
1986,48	890,00
1991,42	657,00
1996,35	819,00
2001,27	775,00
2006,20	730,00
2011,11	793,00
2016,03	746,00
2020,93	742,00
2025,84	744,00
2030,73	755,00
2035,63	671,00
2040,52	860,00
2045,40	800,00
2050,28	645,00
2055,15	636,00
2060,02	596,00
2064,89	769,00
2069,75	787,00
2074,60	793,00
2079,46	687,00
2084,30	698,00
2089,14	698,00
2093,98	676,00
2098,81	654,00
2103,64	728,00
2108,46	757,00
2113,28	621,00
2118,09	724,00
2122,90	724,00
2127,70	564,00
2132,50	730,00
2137,30	657,00
2142,09	680,00
2146,87	717,00
2151,66	784,00
2156,43	865,00
2161,20	674,00
2165,97	722,00
2170,73	572,00
2175,49	705,00
2180,24	688,00
2184,99	815,00
2189,74	649,00
2194,48	741,00
2199,21	801,00
2203,94	681,00
2208,67	726,00
2213,39	734,00
2218,11	749,00
2222,82	655,00
2227,53	644,00
2232,23	734,00
2236,93	780,00
2241,63	814,00
2246,32	610,00
2251,00	636,00
2255,68	682,00
2260,36	601,00
2265,03	675,00
2269,70	615,00
2274,36	678,00
2279,02	697,00
2283,68	746,00
2288,33	546,00
2292,97	683,00
2297,61	684,00
2302,25	704,00
2306,88	720,00
2311,51	636,00
2316,14	593,00
2320,75	668,00
2325,37	507,00
2329,98	659,00
2334,59	614,00
2339,19	565,00
2343,79	718,00
2348,38	618,00
2352,97	681,00
2357,55	784,00
2362,13	649,00
2366,71	496,00
2371,28	512,00
2375,85	678,00
2380,41	613,00
2384,97	610,00
2389,52	664,00
2394,07	732,00
2398,62	617,00
2403,16	556,00
2407,70	616,00
2412,23	592,00
2416,76	594,00
2421,29	686,00
2425,81	655,00
2430,32	743,00
2434,84	559,00
2439,34	619,00
2443,85	615,00
2448,35	742,00
2452,84	548,00
2457,33	573,00
2461,82	583,00
2466,30	609,00
2470,78	663,00
2475,25	521,00
2479,72	558,00
2484,19	549,00
2488,65	675,00
2493,11	585,00
2497,56	635,00
2502,01	559,00
2506,46	757,00
2510,90	582,00
2515,34	597,00
2519,77	652,00
2524,20	534,00
2528,62	617,00
2533,04	591,00
2537,46	626,00
2541,87	571,00
2546,28	561,00
2550,68	682,00
2555,08	640,00
2559,48	583,00
2563,87	607,00
2568,26	663,00
2572,64	632,00
2577,02	734,00
2581,40	638,00
2585,77	633,00
2590,14	724,00
2594,50	555,00
2598,86	670,00
2603,22	618,00
2607,57	687,00
2611,92	604,00
2616,26	709,00
2620,60	573,00
2624,94	621,00
2629,27	618,00
2633,60	547,00
2637,92	621,00
2642,24	683,00
2646,56	685,00
2650,87	652,00
2655,18	700,00
2659,48	550,00
2663,78	746,00
2668,08	651,00
2672,37	585,00
2676,66	617,00
2680,95	708,00
2685,23	751,00
2689,50	660,00
2693,78	759,00
2698,05	658,00
2702,31	762,00
2706,57	692,00
2710,83	748,00
2715,08	748,00
2719,33	886,00
2723,58	797,00
2727,82	886,00
2732,06	733,00
2736,29	781,00
2740,53	795,00
2744,75	738,00
2748,97	706,00
2753,19	755,00
2757,41	730,00
2761,62	763,00
2765,83	828,00
2770,03	622,00
2774,23	824,00
2778,43	796,00
2782,62	694,00
2786,81	765,00
2791,00	835,00
2795,18	855,00
2799,35	816,00
2803,53	820,00
2807,70	836,00
2811,86	935,00
2816,03	972,00
2820,19	976,00
2824,34	962,00
2828,49	1072,00
2832,64	1204,00
2836,78	1492,00
2840,92	1905,00
2845,06	2036,00
2849,19	2374,00
2853,32	2492,00
2857,45	2617,00
2861,57	2479,00
2865,69	2430,00
2869,80	2376,00
2873,91	2348,00
2878,02	2562,00
2882,12	2744,00
2886,22	2719,00
2890,32	2598,00
2894,41	2441,00
2898,50	2220,00
2902,58	2269,00
2906,67	1971,00
2910,74	1958,00
2914,82	1664,00
2918,89	1742,00
2922,96	1510,00
2927,02	1482,00
2931,08	1465,00
2935,13	1421,00
2939,19	1206,00
2943,24	1145,00
2947,28	1002,00
2951,32	997,00
2955,36	924,00
2959,40	883,00
2963,43	742,00
2967,46	827,00
2971,48	887,00
2975,50	697,00
2979,52	634,00
2983,53	816,00
2987,54	750,00
2991,55	683,00
2995,55	649,00
2999,55	636,00
3003,54	633,00
3007,54	663,00
3011,53	630,00
3015,51	476,00
3019,49	684,00
3023,47	630,00
3027,45	540,00
3031,42	581,00
3035,39	500,00
3039,35	599,00
3043,31	557,00
3047,27	534,00
3051,22	576,00
3055,17	607,00
3059,12	470,00
3063,06	599,00
3067,00	483,00
3070,94	538,00
3074,87	508,00
3078,80	521,00
3082,73	468,00
3086,65	462,00
3090,57	528,00
3094,49	454,00
3098,40	455,00
3102,31	542,00
3106,22	500,00
3110,12	467,00
3114,02	525,00
3117,92	500,00
3121,81	483,00
3125,70	452,00
3129,58	537,00
3133,47	459,00
3137,34	593,00
3141,22	396,00
3145,09	573,00
3148,96	395,00
3152,83	509,00
3156,69	378,00
3160,55	447,00
3164,40	534,00
3168,26	427,00
3172,10	575,00
3175,95	519,00
3179,79	526,00
3183,63	406,00
3187,47	521,00
3191,30	489,00
3195,13	550,00
3198,95	579,00
3202,78	487,00
3206,60	441,00
3210,41	463,00
3214,23	496,00
3218,03	475,00
3221,84	638,00
3225,64	573,00
3229,44	451,00
3233,24	599,00
3237,03	585,00
3240,82	500,00
3244,61	569,00
3248,39	504,00
3252,17	483,00
3255,95	546,00
3259,72	448,00
3263,49	609,00
3267,26	560,00
3271,03	433,00
3274,79	410,00
3278,54	429,00
3282,30	458,00
3286,05	437,00
3289,80	509,00
3293,54	396,00
3297,29	549,00
3301,02	583,00
3304,76	491,00
3308,49	530,00
3312,22	455,00
3315,95	391,00
3319,67	479,00
3323,39	519,00
3327,10	611,00
3330,82	544,00
3334,53	436,00
3338,24	513,00
3341,94	469,00
3345,64	574,00
3349,34	468,00
3353,03	598,00
3356,72	451,00
3360,41	461,00
3364,10	521,00
3367,78	416,00
3371,46	415,00
3375,13	418,00
3378,81	509,00
3382,48	518,00
3386,14	485,00
3389,81	504,00
3393,47	467,00
3397,12	500,00
3400,78	483,00
3404,43	462,00
3408,08	520,00
3411,72	492,00
3415,36	530,00
3419,00	422,00
3422,64	398,00
3426,27	435,00
3429,90	452,00
3433,53	420,00
3437,15	488,00
3440,77	468,00
3444,39	482,00
3448,00	505,00
3451,62	509,00
3455,22	479,00
3458,83	457,00
3462,43	381,00
3466,03	392,00
3469,63	545,00
3473,22	409,00
3476,81	485,00
3480,40	463,00
3483,99	454,00
3487,57	481,00
3491,15	477,00
3494,72	555,00
3498,29	436,00
3501,86	426,00
3505,43	515,00
3508,99	515,00
3512,56	537,00
3516,11	459,00
3519,67	437,00
3523,22	558,00
3526,77	400,00
3530,32	383,00
3533,86	305,00
3537,40	514,00
3540,94	532,00
3544,47	351,00
3548,00	508,00
3551,53	451,00
3555,06	436,00
3558,58	461,00
3562,10	492,00
3565,62	521,00
3569,13	343,00
3572,64	468,00
3576,15	356,00
3579,66	462,00
3583,16	433,00
3586,66	435,00
3590,16	461,00
3593,65	396,00
3597,14	328,00
3600,63	479,00
3604,11	460,00
3607,60	469,00
3611,08	468,00
3614,55	388,00
3618,03	363,00
3621,50	403,00
3624,97	476,00
3628,43	468,00
3631,90	299,00
3635,36	396,00
3638,81	441,00
3642,27	451,00
3645,72	514,00
3649,17	406,00
3652,61	452,00
3656,06	408,00
3659,50	373,00
3662,93	483,00
3666,37	401,00
3669,80	409,00
3673,23	454,00
3676,65	587,00
3680,08	394,00
3683,50	350,00
3686,92	355,00
3690,33	307,00
3693,74	352,00
3697,15	434,00
3700,56	346,00
3703,96	377,00
3707,36	366,00
3710,76	346,00
3714,16	377,00
3717,55	396,00
3720,94	412,00
3724,33	490,00
3727,71	371,00
3731,10	468,00
3734,48	392,00
3737,85	446,00
3741,23	406,00
3744,60	375,00
3747,97	226,00
3751,33	418,00
3754,69	395,00
3758,05	446,00
3761,41	316,00
3764,77	388,00
3768,12	328,00
3771,47	245,00
3774,82	303,00
3778,16	-5,00
3781,50	5,00
3784,84	1,00
3788,18	3,00
>>>>>End Processed Spectral Data<<<<<
