SpectraSuite Data File
++++++++++++++++++++++++++++++++++++
Date: Wed Feb 04 15:34:54 ICT 2026
User: Administrator
Dark Spectrum Present: Yes
Reference Spectrum Present: No
Number of Sampled Component Spectra: 1
Spectrometers: MAYP113682
Integration Time (usec): 3000000 (MAYP113682)
Spectra Averaged: 1 (MAYP113682)
Boxcar Smoothing: 0 (MAYP113682)
Correct for Electrical Dark: No (MAYP113682)
Strobe/Lamp Enabled: No (MAYP113682)
Correct for Detector Non-linearity: No (MAYP113682)
Correct for Stray Light: No (MAYP113682)
Number of Pixels in Processed Spectrum: 2068
>>>>>Begin Processed Spectral Data<<<<<
-37534,58	10,00
-37414,56	2,00
-37295,11	9,00
-37176,24	4,00
-37057,95	169,00
-36940,22	159,00
-36823,05	139,00
-36706,45	100,00
-36590,40	232,00
-36474,90	253,00
-36359,95	271,00
-36245,55	142,00
-36131,68	219,00
-36018,35	174,00
-35905,55	181,00
-35793,29	176,00
-35681,54	151,00
-35570,32	104,00
-35459,62	184,00
-35349,43	198,00
-35239,75	154,00
-35130,58	161,00
-35021,91	200,00
-34913,74	171,00
-34806,07	171,00
-34698,89	166,00
-34592,20	106,00
-34486,00	131,00
-34380,28	183,00
-34275,04	160,00
-34170,27	152,00
-34065,98	140,00
-33962,16	127,00
-33858,81	221,00
-33755,92	70,00
-33653,49	177,00
-33551,52	123,00
-33450,01	276,00
-33348,94	171,00
-33248,33	271,00
-33148,16	243,00
-33048,43	238,00
-32949,14	269,00
-32850,29	139,00
-32751,87	227,00
-32653,89	204,00
-32556,33	157,00
-32459,20	155,00
-32362,49	178,00
-32266,19	116,00
-32170,32	218,00
-32074,86	226,00
-31979,82	95,00
-31885,18	232,00
-31790,95	220,00
-31697,12	202,00
-31603,69	145,00
-31510,67	153,00
-31418,04	126,00
-31325,80	277,00
-31233,95	110,00
-31142,49	272,00
-31051,42	165,00
-30960,73	252,00
-30870,43	364,00
-30780,50	188,00
-30690,95	227,00
-30601,77	121,00
-30512,97	141,00
-30424,53	189,00
-30336,46	203,00
-30248,76	176,00
-30161,42	172,00
-30074,44	159,00
-29987,81	162,00
-29901,55	216,00
-29815,63	207,00
-29730,07	242,00
-29644,86	7,00
-29560,00	182,00
-29475,48	130,00
-29391,30	128,00
-29307,47	123,00
-29223,97	139,00
-29140,81	219,00
-29057,99	240,00
-28975,50	204,00
-28893,34	168,00
-28811,51	231,00
-28730,00	78,00
-28648,82	239,00
-28567,97	288,00
-28487,43	170,00
-28407,21	158,00
-28327,32	236,00
-28247,73	208,00
-28168,46	163,00
-28089,50	140,00
-28010,85	169,00
-27932,51	287,00
-27854,48	170,00
-27776,75	219,00
-27699,32	166,00
-27622,19	258,00
-27545,37	117,00
-27468,84	112,00
-27392,60	253,00
-27316,66	118,00
-27241,01	241,00
-27165,66	213,00
-27090,59	127,00
-27015,81	208,00
-26941,31	196,00
-26867,10	144,00
-26793,17	248,00
-26719,52	244,00
-26646,15	168,00
-26573,06	151,00
-26500,24	188,00
-26427,70	220,00
-26355,43	202,00
-26283,43	168,00
-26211,71	190,00
-26140,25	157,00
-26069,06	341,00
-25998,13	141,00
-25927,46	176,00
-25857,06	204,00
-25786,92	167,00
-25717,04	208,00
-25647,42	175,00
-25578,05	67,00
-25508,94	135,00
-25440,09	212,00
-25371,48	261,00
-25303,13	270,00
-25235,02	218,00
-25167,17	187,00
-25099,56	124,00
-25032,19	99,00
-24965,07	171,00
-24898,20	32,00
-24831,56	216,00
-24765,17	133,00
-24699,01	179,00
-24633,10	227,00
-24567,41	326,00
-24501,97	234,00
-24436,75	153,00
-24371,77	173,00
-24307,03	216,00
-24242,51	213,00
-24178,22	104,00
-24114,16	86,00
-24050,32	141,00
-23986,71	194,00
-23923,32	151,00
-23860,16	228,00
-23797,22	111,00
-23734,50	214,00
-23672,00	183,00
-23609,71	195,00
-23547,65	192,00
-23485,80	118,00
-23424,16	224,00
-23362,74	247,00
-23301,53	82,00
-23240,54	67,00
-23179,75	111,00
-23119,17	275,00
-23058,80	136,00
-22998,64	133,00
-22938,68	255,00
-22878,93	229,00
-22819,39	222,00
-22760,04	57,00
-22700,90	92,00
-22641,96	175,00
-22583,22	170,00
-22524,68	100,00
-22466,33	205,00
-22408,19	208,00
-22350,23	174,00
-22292,48	225,00
-22234,92	270,00
-22177,55	353,00
-22120,37	143,00
-22063,38	122,00
-22006,58	130,00
-21949,98	180,00
-21893,56	209,00
-21837,33	80,00
-21781,28	87,00
-21725,42	109,00
-21669,74	156,00
-21614,25	201,00
-21558,94	181,00
-21503,81	214,00
-21448,86	85,00
-21394,10	97,00
-21339,51	305,00
-21285,10	206,00
-21230,86	150,00
-21176,81	214,00
-21122,93	175,00
-21069,22	55,00
-21015,69	217,00
-20962,33	107,00
-20909,14	189,00
-20856,13	201,00
-20803,28	135,00
-20750,61	277,00
-20698,10	109,00
-20645,76	132,00
-20593,59	170,00
-20541,59	123,00
-20489,75	184,00
-20438,07	-1,00
-20386,56	90,00
-20335,22	28,00
-20284,03	129,00
-20233,01	260,00
-20182,15	148,00
-20131,45	173,00
-20080,91	202,00
-20030,52	156,00
-19980,30	139,00
-19930,23	50,00
-19880,32	217,00
-19830,56	127,00
-19780,96	217,00
-19731,52	197,00
-19682,23	128,00
-19633,09	179,00
-19584,10	81,00
-19535,26	264,00
-19486,58	172,00
-19438,04	125,00
-19389,66	106,00
-19341,42	239,00
-19293,33	212,00
-19245,39	135,00
-19197,60	21,00
-19149,95	178,00
-19102,45	196,00
-19055,09	228,00
-19007,87	184,00
-18960,80	206,00
-18913,87	236,00
-18867,09	190,00
-18820,44	199,00
-18773,94	141,00
-18727,57	101,00
-18681,35	110,00
-18635,26	126,00
-18589,31	128,00
-18543,50	160,00
-18497,83	171,00
-18452,29	281,00
-18406,89	95,00
-18361,63	336,00
-18316,50	135,00
-18271,50	151,00
-18226,63	279,00
-18181,90	309,00
-18137,30	153,00
-18092,84	119,00
-18048,50	142,00
-18004,29	103,00
-17960,22	167,00
-17916,27	184,00
-17872,45	201,00
-17828,76	211,00
-17785,20	219,00
-17741,77	196,00
-17698,46	57,00
-17655,28	77,00
-17612,22	111,00
-17569,29	247,00
-17526,48	161,00
-17483,79	169,00
-17441,23	106,00
-17398,79	140,00
-17356,48	194,00
-17314,28	69,00
-17272,21	124,00
-17230,26	191,00
-17188,42	161,00
-17146,71	22,00
-17105,12	158,00
-17063,64	110,00
-17022,28	190,00
-16981,04	183,00
-16939,92	120,00
-16898,91	202,00
-16858,02	117,00
-16817,25	214,00
-16776,59	80,00
-16736,04	157,00
-16695,61	105,00
-16655,29	125,00
-16615,09	152,00
-16574,99	126,00
-16535,01	182,00
-16495,15	89,00
-16455,39	258,00
-16415,74	141,00
-16376,21	159,00
-16336,78	97,00
-16297,46	210,00
-16258,26	114,00
-16219,16	218,00
-16180,17	224,00
-16141,28	205,00
-16102,51	233,00
-16063,84	246,00
-16025,27	164,00
-15986,82	132,00
-15948,46	166,00
-15910,22	219,00
-15872,07	141,00
-15834,04	185,00
-15796,10	212,00
-15758,27	87,00
-15720,54	95,00
-15682,91	162,00
-15645,39	152,00
-15607,97	207,00
-15570,64	177,00
-15533,42	223,00
-15496,30	74,00
-15459,28	127,00
-15422,36	137,00
-15385,54	111,00
-15348,82	130,00
-15312,19	194,00
-15275,66	139,00
-15239,23	84,00
-15202,90	202,00
-15166,67	40,00
-15130,53	142,00
-15094,48	139,00
-15058,54	117,00
-15022,68	171,00
-14986,93	181,00
-14951,26	164,00
-14915,69	189,00
-14880,22	120,00
-14844,84	86,00
-14809,55	238,00
-14774,35	147,00
-14739,25	181,00
-14704,24	186,00
-14669,32	120,00
-14634,49	209,00
-14599,75	204,00
-14565,10	119,00
-14530,55	181,00
-14496,08	263,00
-14461,70	135,00
-14427,41	213,00
-14393,21	181,00
-14359,10	143,00
-14325,07	214,00
-14291,14	139,00
-14257,29	166,00
-14223,52	235,00
-14189,85	114,00
-14156,26	79,00
-14122,76	187,00
-14089,34	218,00
-14056,01	227,00
-14022,76	141,00
-13989,60	148,00
-13956,52	152,00
-13923,53	146,00
-13890,62	137,00
-13857,79	187,00
-13825,05	68,00
-13792,39	119,00
-13759,81	126,00
-13727,31	85,00
-13694,90	173,00
-13662,57	206,00
-13630,31	158,00
-13598,14	272,00
-13566,05	138,00
-13534,05	212,00
-13502,12	203,00
-13470,27	116,00
-13438,50	141,00
-13406,80	178,00
-13375,19	130,00
-13343,66	192,00
-13312,20	122,00
-13280,83	233,00
-13249,53	174,00
-13218,30	93,00
-13187,16	162,00
-13156,09	172,00
-13125,10	203,00
-13094,18	244,00
-13063,34	174,00
-13032,58	85,00
-13001,89	143,00
-12971,28	161,00
-12940,74	205,00
-12910,27	159,00
-12879,88	58,00
-12849,57	174,00
-12819,33	98,00
-12789,16	225,00
-12759,06	139,00
-12729,04	141,00
-12699,09	-511,00
-12669,21	189,00
-12639,41	158,00
-12609,68	127,00
-12580,02	21,00
-12550,43	185,00
-12520,91	133,00
-12491,46	203,00
-12462,08	183,00
-12432,77	122,00
-12403,54	115,00
-12374,37	190,00
-12345,27	164,00
-12316,24	177,00
-12287,29	248,00
-12258,40	153,00
-12229,57	145,00
-12200,82	148,00
-12172,14	196,00
-12143,52	65,00
-12114,97	151,00
-12086,49	168,00
-12058,07	26,00
-12029,73	45,00
-12001,44	125,00
-11973,23	192,00
-11945,08	156,00
-11917,00	300,00
-11888,98	142,00
-11861,03	187,00
-11833,15	108,00
-11805,32	134,00
-11777,57	98,00
-11749,88	63,00
-11722,25	72,00
-11694,69	224,00
-11667,19	144,00
-11639,75	128,00
-11612,38	168,00
-11585,07	228,00
-11557,83	173,00
-11530,65	200,00
-11503,53	181,00
-11476,47	178,00
-11449,48	175,00
-11422,54	123,00
-11395,67	123,00
-11368,86	238,00
-11342,11	132,00
-11315,43	233,00
-11288,80	207,00
-11262,23	98,00
-11235,73	185,00
-11209,28	191,00
-11182,90	132,00
-11156,57	182,00
-11130,31	369,00
-11104,10	98,00
-11077,96	111,00
-11051,87	157,00
-11025,84	196,00
-10999,87	230,00
-10973,96	153,00
-10948,11	97,00
-10922,31	100,00
-10896,58	174,00
-10870,90	206,00
-10845,28	207,00
-10819,71	170,00
-10794,20	141,00
-10768,75	173,00
-10743,36	153,00
-10718,02	107,00
-10692,74	195,00
-10667,52	107,00
-10642,35	120,00
-10617,24	167,00
-10592,18	183,00
-10567,18	167,00
-10542,23	103,00
-10517,34	186,00
-10492,51	217,00
-10467,72	179,00
-10443,00	16,00
-10418,32	83,00
-10393,70	74,00
-10369,14	166,00
-10344,63	76,00
-10320,17	150,00
-10295,77	-17,00
-10271,42	36,00
-10247,12	227,00
-10222,88	132,00
-10198,68	124,00
-10174,54	126,00
-10150,46	123,00
-10126,42	107,00
-10102,44	107,00
-10078,51	171,00
-10054,63	22,00
-10030,80	76,00
-10007,03	109,00
-9983,30	183,00
-9959,63	43,00
-9936,01	150,00
-9912,44	55,00
-9888,92	-52,00
-9865,44	-71,00
-9842,02	80,00
-9818,65	-14,00
-9795,33	22,00
-9772,06	-7,00
-9748,84	-27,00
-9725,67	-40,00
-9702,55	-24,00
-9679,47	-51,00
-9656,45	-101,00
-9633,47	-167,00
-9610,55	0,00
-9587,67	-182,00
-9564,84	-43,00
-9542,06	-156,00
-9519,32	-29,00
-9496,64	-249,00
-9474,00	-388,00
-9451,41	-369,00
-9428,87	-210,00
-9406,37	-431,00
-9383,92	-331,00
-9361,52	-251,00
-9339,17	-245,00
-9316,86	-278,00
-9294,60	-402,00
-9272,38	-397,00
-9250,21	-338,00
-9228,09	-488,00
-9206,01	-383,00
-9183,98	-572,00
-9162,00	-500,00
-9140,06	-510,00
-9118,16	-417,00
-9096,31	-575,00
-9074,51	-492,00
-9052,75	-508,00
-9031,04	-438,00
-9009,37	-370,00
-8987,74	-329,00
-8966,16	-356,00
-8944,63	-380,00
-8923,14	-304,00
-8901,69	-332,00
-8880,29	-426,00
-8858,93	-249,00
-8837,61	-307,00
-8816,34	-215,00
-8795,11	-258,00
-8773,92	-248,00
-8752,78	-305,00
-8731,68	-436,00
-8710,62	-239,00
-8689,61	-245,00
-8668,63	-309,00
-8647,70	-89,00
-8626,82	-393,00
-8605,97	-303,00
-8585,17	-159,00
-8564,41	-181,00
-8543,69	-228,00
-8523,01	-342,00
-8502,37	-126,00
-8481,78	-294,00
-8461,23	-441,00
-8440,71	-326,00
-8420,24	-207,00
-8399,81	-256,00
-8379,42	-142,00
-8359,08	-196,00
-8338,77	-121,00
-8318,50	-160,00
-8298,27	-235,00
-8278,09	-320,00
-8257,94	-183,00
-8237,83	-201,00
-8217,76	-217,00
-8197,74	-255,00
-8177,75	-101,00
-8157,80	-171,00
-8137,89	-200,00
-8118,02	-312,00
-8098,19	-207,00
-8078,40	-230,00
-8058,65	-189,00
-8038,93	-191,00
-8019,26	-226,00
-7999,62	-147,00
-7980,02	-158,00
-7960,46	-272,00
-7940,94	-128,00
-7921,46	-106,00
-7902,01	-129,00
-7882,60	-7,00
-7863,23	-246,00
-7843,90	-211,00
-7824,61	-302,00
-7805,35	-27,00
-7786,13	-157,00
-7766,95	-152,00
-7747,80	-135,00
-7728,69	-70,00
-7709,62	-205,00
-7690,59	-206,00
-7671,59	-67,00
-7652,63	-296,00
-7633,70	-190,00
-7614,81	-206,00
-7595,96	-75,00
-7577,15	-131,00
-7558,37	-52,00
-7539,62	-45,00
-7520,91	-178,00
-7502,24	68,00
-7483,60	-246,00
-7465,00	-247,00
-7446,44	-155,00
-7427,91	-24,00
-7409,41	-31,00
-7390,95	-9,00
-7372,53	-146,00
-7354,14	-103,00
-7335,78	19,00
-7317,46	-98,00
-7299,18	-44,00
-7280,92	-116,00
-7262,71	-202,00
-7244,52	-149,00
-7226,38	-180,00
-7208,26	-147,00
-7190,18	-100,00
-7172,14	-128,00
-7154,12	-134,00
-7136,15	-60,00
-7118,20	-95,00
-7100,29	-152,00
-7082,41	-94,00
-7064,57	-260,00
-7046,76	-105,00
-7028,98	-125,00
-7011,24	-112,00
-6993,53	-22,00
-6975,85	-137,00
-6958,20	-85,00
-6940,59	-21,00
-6923,01	-124,00
-6905,46	-5,00
-6887,94	-102,00
-6870,46	-109,00
-6853,01	-75,00
-6835,59	-161,00
-6818,21	-95,00
-6800,85	-99,00
-6783,53	-46,00
-6766,24	18,00
-6748,98	-99,00
-6731,76	-75,00
-6714,56	-20,00
-6697,40	-34,00
-6680,26	143,00
-6663,16	17,00
-6646,09	-7,00
-6629,05	-54,00
-6612,05	-102,00
-6595,07	28,00
-6578,13	-69,00
-6561,21	15,00
-6544,33	120,00
-6527,47	-8,00
-6510,65	-121,00
-6493,86	-48,00
-6477,10	52,00
-6460,36	-74,00
-6443,66	16,00
-6426,99	31,00
-6410,35	-63,00
-6393,74	25,00
-6377,16	-101,00
-6360,61	-125,00
-6344,09	36,00
-6327,59	-30,00
-6311,13	-19,00
-6294,70	-42,00
-6278,29	-140,00
-6261,92	-44,00
-6245,58	-151,00
-6229,26	35,00
-6212,97	66,00
-6196,72	3,00
-6180,49	-69,00
-6164,29	-75,00
-6148,12	83,00
-6131,98	-32,00
-6115,86	107,00
-6099,78	20,00
-6083,72	26,00
-6067,69	30,00
-6051,69	9,00
-6035,72	17,00
-6019,78	1,00
-6003,87	-30,00
-5987,98	-85,00
-5972,12	13,00
-5956,29	-98,00
-5940,49	-24,00
-5924,71	9,00
-5908,96	-15,00
-5893,24	21,00
-5877,55	86,00
-5861,89	55,00
-5846,25	-129,00
-5830,64	49,00
-5815,05	9,00
-5799,50	136,00
-5783,97	75,00
-5768,47	-8,00
-5752,99	-47,00
-5737,55	-81,00
-5722,12	-135,00
-5706,73	-86,00
-5691,36	49,00
-5676,02	112,00
-5660,71	148,00
-5645,42	80,00
-5630,16	55,00
-5614,92	67,00
-5599,71	-19,00
-5584,53	148,00
-5569,37	8,00
-5554,24	-717,00
-5539,14	116,00
-5524,06	-31,00
-5509,01	-30,00
-5493,98	79,00
-5478,98	30,00
-5464,00	68,00
-5449,05	-122,00
-5434,13	36,00
-5419,23	157,00
-5404,36	-45,00
-5389,51	55,00
-5374,69	39,00
-5359,89	-79,00
-5345,12	-53,00
-5330,37	1,00
-5315,65	-4,00
-5300,95	-59,00
-5286,28	123,00
-5271,63	14,00
-5257,01	-52,00
-5242,41	20,00
-5227,84	95,00
-5213,29	-56,00
-5198,76	52,00
-5184,26	129,00
-5169,79	88,00
-5155,33	-1,00
-5140,91	155,00
-5126,51	-42,00
-5112,13	-34,00
-5097,77	42,00
-5083,44	78,00
-5069,13	26,00
-5054,85	73,00
-5040,59	-38,00
-5026,36	-29,00
-5012,15	8,00
-4997,96	56,00
-4983,80	40,00
-4969,66	66,00
-4955,54	148,00
-4941,44	-65,00
-4927,37	-87,00
-4913,33	9,00
-4899,30	-148,00
-4885,30	-73,00
-4871,33	69,00
-4857,37	-35,00
-4843,44	53,00
-4829,53	82,00
-4815,65	144,00
-4801,79	134,00
-4787,95	-44,00
-4774,13	-61,00
-4760,34	248,00
-4746,56	31,00
-4732,82	221,00
-4719,09	73,00
-4705,38	-95,00
-4691,70	-3,00
-4678,04	21,00
-4664,41	74,00
-4650,79	49,00
-4637,20	123,00
-4623,63	33,00
-4610,08	40,00
-4596,56	17,00
-4583,05	-44,00
-4569,57	72,00
-4556,11	174,00
-4542,67	8,00
-4529,25	47,00
-4515,86	12,00
-4502,49	-16,00
-4489,13	-49,00
-4475,80	36,00
-4462,49	143,00
-4449,21	182,00
-4435,94	152,00
-4422,70	86,00
-4409,47	50,00
-4396,27	-17,00
-4383,09	78,00
-4369,93	163,00
-4356,79	40,00
-4343,67	162,00
-4330,58	48,00
-4317,50	92,00
-4304,45	87,00
-4291,41	157,00
-4278,40	113,00
-4265,41	94,00
-4252,44	140,00
-4239,49	60,00
-4226,55	42,00
-4213,65	112,00
-4200,76	86,00
-4187,89	111,00
-4175,04	-2,00
-4162,21	78,00
-4149,40	131,00
-4136,61	45,00
-4123,85	174,00
-4111,10	168,00
-4098,37	222,00
-4085,66	157,00
-4072,98	208,00
-4060,31	176,00
-4047,66	147,00
-4035,04	260,00
-4022,43	137,00
-4009,84	129,00
-3997,27	241,00
-3984,72	52,00
-3972,19	94,00
-3959,69	54,00
-3947,20	167,00
-3934,73	178,00
-3922,27	207,00
-3909,84	163,00
-3897,43	19,00
-3885,04	257,00
-3872,67	127,00
-3860,31	95,00
-3847,98	189,00
-3835,66	213,00
-3823,36	275,00
-3811,09	194,00
-3798,83	108,00
-3786,59	242,00
-3774,37	283,00
-3762,17	227,00
-3749,98	102,00
-3737,82	183,00
-3725,67	159,00
-3713,55	145,00
-3701,44	150,00
-3689,35	265,00
-3677,28	256,00
-3665,22	184,00
-3653,19	159,00
-3641,17	166,00
-3629,18	79,00
-3617,20	242,00
-3605,24	231,00
-3593,30	161,00
-3581,37	264,00
-3569,47	151,00
-3557,58	152,00
-3545,71	71,00
-3533,86	205,00
-3522,02	181,00
-3510,21	259,00
-3498,41	141,00
-3486,63	157,00
-3474,87	133,00
-3463,12	181,00
-3451,40	196,00
-3439,69	221,00
-3428,00	214,00
-3416,33	223,00
-3404,67	96,00
-3393,03	160,00
-3381,41	188,00
-3369,81	175,00
-3358,22	116,00
-3346,66	182,00
-3335,10	280,00
-3323,57	97,00
-3312,06	195,00
-3300,56	188,00
-3289,08	199,00
-3277,61	266,00
-3266,16	153,00
-3254,73	139,00
-3243,32	179,00
-3231,92	192,00
-3220,55	141,00
-3209,18	198,00
-3197,84	98,00
-3186,51	169,00
-3175,20	178,00
-3163,90	59,00
-3152,63	289,00
-3141,36	95,00
-3130,12	173,00
-3118,89	83,00
-3107,68	186,00
-3096,49	200,00
-3085,31	178,00
-3074,15	152,00
-3063,00	177,00
-3051,87	139,00
-3040,76	160,00
-3029,67	184,00
-3018,59	296,00
-3007,52	140,00
-2996,48	218,00
-2985,44	94,00
-2974,43	255,00
-2963,43	221,00
-2952,45	150,00
-2941,48	253,00
-2930,53	168,00
-2919,60	137,00
-2908,68	157,00
-2897,78	183,00
-2886,89	205,00
-2876,02	153,00
-2865,17	164,00
-2854,33	107,00
-2843,50	123,00
-2832,70	188,00
-2821,90	130,00
-2811,13	208,00
-2800,37	205,00
-2789,62	193,00
-2778,89	154,00
-2768,18	209,00
-2757,48	252,00
-2746,80	237,00
-2736,13	199,00
-2725,48	204,00
-2714,84	117,00
-2704,22	236,00
-2693,61	221,00
-2683,02	120,00
-2672,45	163,00
-2661,89	163,00
-2651,34	135,00
-2640,81	70,00
-2630,30	160,00
-2619,80	185,00
-2609,31	303,00
-2598,84	125,00
-2588,39	132,00
-2577,95	153,00
-2567,52	171,00
-2557,11	159,00
-2546,71	179,00
-2536,33	167,00
-2525,97	114,00
-2515,62	286,00
-2505,28	142,00
-2494,96	237,00
-2484,65	250,00
-2474,36	276,00
-2464,08	165,00
-2453,82	183,00
-2443,57	160,00
-2433,33	124,00
-2423,11	248,00
-2412,91	214,00
-2402,72	148,00
-2392,54	224,00
-2382,38	90,00
-2372,23	97,00
-2362,09	4218,00
-2351,97	101,00
-2341,87	152,00
-2331,78	204,00
-2321,70	140,00
-2311,64	191,00
-2301,59	101,00
-2291,55	117,00
-2281,53	105,00
-2271,53	146,00
-2261,53	147,00
-2251,55	323,00
-2241,59	161,00
-2231,64	121,00
-2221,70	142,00
-2211,78	240,00
-2201,87	212,00
-2191,97	190,00
-2182,09	226,00
-2172,22	164,00
-2162,37	203,00
-2152,53	77,00
-2142,70	215,00
-2132,89	171,00
-2123,09	249,00
-2113,30	142,00
-2103,53	148,00
-2093,77	195,00
-2084,02	144,00
-2074,29	175,00
-2064,57	147,00
-2054,86	275,00
-2045,17	173,00
-2035,49	26,00
-2025,82	163,00
-2016,17	178,00
-2006,53	143,00
-1996,91	128,00
-1987,29	203,00
-1977,69	96,00
-1968,11	129,00
-1958,53	207,00
-1948,97	53,00
-1939,42	185,00
-1929,89	162,00
-1920,37	138,00
-1910,86	305,00
-1901,36	196,00
-1891,88	144,00
-1882,41	107,00
-1872,95	148,00
-1863,51	166,00
-1854,08	197,00
-1844,66	207,00
-1835,26	155,00
-1825,86	254,00
-1816,48	240,00
-1807,11	169,00
-1797,76	163,00
-1788,42	243,00
-1779,09	196,00
-1769,77	173,00
-1760,47	145,00
-1751,17	166,00
-1741,89	106,00
-1732,63	175,00
-1723,37	162,00
-1714,13	186,00
-1704,90	135,00
-1695,68	273,00
-1686,48	88,00
-1677,29	241,00
-1668,11	237,00
-1658,94	275,00
-1649,78	138,00
-1640,64	160,00
-1631,51	159,00
-1622,39	175,00
-1613,28	43,00
-1604,19	147,00
-1595,10	200,00
-1586,03	141,00
-1576,97	218,00
-1567,93	194,00
-1558,89	105,00
-1549,87	173,00
-1540,86	106,00
-1531,86	109,00
-1522,87	201,00
-1513,90	225,00
-1504,93	181,00
-1495,98	126,00
-1487,04	154,00
-1478,12	96,00
-1469,20	73,00
-1460,30	124,00
-1451,40	200,00
-1442,52	269,00
-1433,65	132,00
-1424,80	126,00
-1415,95	161,00
-1407,12	121,00
-1398,30	253,00
-1389,48	100,00
-1380,69	155,00
-1371,90	118,00
-1363,12	233,00
-1354,36	230,00
-1345,60	173,00
-1336,86	172,00
-1328,13	267,00
-1319,41	202,00
-1310,70	185,00
-1302,01	206,00
-1293,32	213,00
-1284,65	169,00
-1275,99	158,00
-1267,33	162,00
-1258,69	112,00
-1250,06	88,00
-1241,45	67,00
-1232,84	154,00
-1224,25	243,00
-1215,66	295,00
-1207,09	137,00
-1198,53	170,00
-1189,97	218,00
-1181,43	134,00
-1172,91	181,00
-1164,39	276,00
-1155,88	147,00
-1147,38	204,00
-1138,90	233,00
-1130,43	152,00
-1121,96	270,00
-1113,51	190,00
-1105,07	200,00
-1096,64	186,00
-1088,22	194,00
-1079,81	172,00
-1071,41	111,00
-1063,02	205,00
-1054,65	184,00
-1046,28	244,00
-1037,92	307,00
-1029,58	184,00
-1021,24	168,00
-1012,92	245,00
-1004,61	113,00
-996,30	145,00
-988,01	91,00
-979,73	191,00
-971,46	134,00
-963,20	169,00
-954,95	220,00
-946,71	126,00
-938,48	146,00
-930,26	255,00
-922,06	121,00
-913,86	126,00
-905,67	216,00
-897,49	185,00
-889,33	147,00
-881,17	204,00
-873,02	91,00
-864,89	219,00
-856,76	153,00
-848,65	122,00
-840,54	163,00
-832,45	240,00
-824,36	236,00
-816,29	169,00
-808,22	264,00
-800,17	246,00
-792,12	234,00
-784,09	101,00
-776,06	212,00
-768,05	232,00
-760,04	132,00
-752,05	157,00
-744,07	89,00
-736,09	74,00
-728,13	123,00
-720,17	160,00
-712,23	99,00
-704,29	241,00
-696,37	137,00
-688,45	104,00
-680,55	227,00
-672,65	155,00
-664,77	214,00
-656,89	191,00
-649,03	218,00
-641,17	172,00
-633,32	89,00
-625,49	156,00
-617,66	129,00
-609,84	252,00
-602,03	234,00
-594,23	84,00
-586,45	137,00
-578,67	158,00
-570,90	167,00
-563,14	193,00
-555,39	141,00
-547,65	169,00
-539,91	246,00
-532,19	130,00
-524,48	195,00
-516,78	173,00
-509,08	143,00
-501,40	82,00
-493,72	238,00
-486,06	220,00
-478,40	200,00
-470,76	146,00
-463,12	96,00
-455,49	159,00
-447,87	121,00
-440,26	215,00
-432,66	121,00
-425,07	188,00
-417,49	198,00
-409,92	210,00
-402,35	263,00
-394,80	163,00
-387,25	71,00
-379,72	147,00
-372,19	153,00
-364,67	254,00
-357,17	152,00
-349,67	156,00
-342,18	231,00
-334,69	82,00
-327,22	151,00
-319,76	256,00
-312,30	244,00
-304,86	229,00
-297,42	214,00
-290,00	169,00
-282,58	274,00
-275,17	383,00
-267,77	101,00
-260,37	241,00
-252,99	230,00
-245,62	269,00
-238,25	255,00
-230,90	239,00
-223,55	143,00
-216,21	281,00
-208,88	277,00
-201,56	267,00
-194,25	239,00
-186,94	455,00
-179,65	550,00
-172,36	332,00
-165,08	347,00
-157,81	490,00
-150,55	516,00
-143,30	521,00
-136,06	470,00
-128,82	654,00
-121,60	693,00
-114,38	748,00
-107,17	770,00
-99,97	798,00
-92,78	893,00
-85,60	1063,00
-78,42	1170,00
-71,25	1400,00
-64,10	1544,00
-56,95	1815,00
-49,81	2083,00
-42,67	2554,00
-35,55	3092,00
-28,43	4096,00
-21,33	6462,00
-14,23	19735,00
-7,14	56670,00
-0,05	56467,00
7,02	56225,00
14,09	56403,00
21,14	22998,00
28,19	9033,00
35,23	5716,00
42,27	4324,00
49,29	3600,00
56,31	2869,00
63,32	2465,00
70,32	2111,00
77,31	1748,00
84,29	1703,00
91,27	1580,00
98,23	1488,00
105,19	1430,00
112,14	1781,00
119,09	3292,00
126,02	5978,00
132,95	7737,00
139,87	8245,00
146,78	8406,00
153,68	8382,00
160,58	8317,00
167,46	8270,00
174,34	8317,00
181,21	8365,00
188,08	8260,00
194,93	8498,00
201,78	8476,00
208,62	8605,00
215,45	8666,00
222,27	8589,00
229,09	8635,00
235,90	8389,00
242,70	8606,00
249,49	8418,00
256,27	8557,00
263,05	8521,00
269,82	8421,00
276,58	8461,00
283,33	8465,00
290,08	8533,00
296,82	8467,00
303,55	8354,00
310,27	8305,00
316,98	8426,00
323,69	8357,00
330,39	8389,00
337,08	8439,00
343,76	8472,00
350,44	8369,00
357,11	8368,00
363,77	8316,00
370,42	8337,00
377,07	8478,00
383,71	8553,00
390,34	8409,00
396,96	8568,00
403,58	8679,00
410,19	8819,00
416,79	8725,00
423,38	8667,00
429,97	8736,00
436,55	8545,00
443,12	8587,00
449,68	8437,00
456,24	8581,00
462,79	8610,00
469,33	8594,00
475,86	8622,00
482,39	8756,00
488,91	8636,00
495,42	8580,00
501,93	8480,00
508,42	8576,00
514,91	8693,00
521,40	8534,00
527,87	8400,00
534,34	8382,00
540,80	8655,00
547,25	8570,00
553,70	8726,00
560,14	8629,00
566,57	8680,00
573,00	8648,00
579,41	8480,00
585,83	8571,00
592,23	8590,00
598,62	8488,00
605,01	8544,00
611,40	8708,00
617,77	8539,00
624,14	8597,00
630,50	8591,00
636,85	8578,00
643,20	8569,00
649,54	8503,00
655,87	8432,00
662,20	8604,00
668,52	8542,00
674,83	8543,00
681,13	8553,00
687,43	8344,00
693,72	8516,00
700,00	8519,00
706,28	8427,00
712,55	8489,00
718,81	8524,00
725,07	8561,00
731,32	8575,00
737,56	8562,00
743,79	8674,00
750,02	8567,00
756,24	8717,00
762,46	8666,00
768,67	8791,00
774,87	8775,00
781,06	8774,00
787,25	8791,00
793,43	8641,00
799,60	8985,00
805,77	8795,00
811,93	8888,00
818,08	8761,00
824,23	8939,00
830,37	8842,00
836,50	8939,00
842,63	8781,00
848,75	8889,00
854,87	8710,00
860,97	8743,00
867,07	8806,00
873,17	8653,00
879,25	8706,00
885,33	8646,00
891,41	8764,00
897,47	8613,00
903,53	8803,00
909,59	8703,00
915,63	8909,00
921,67	8765,00
927,71	8635,00
933,74	8790,00
939,76	8764,00
945,77	8821,00
951,78	8786,00
957,78	8793,00
963,78	8828,00
969,77	8762,00
975,75	8768,00
981,72	9030,00
987,69	8808,00
993,66	9155,00
999,61	8918,00
1005,56	9100,00
1011,51	9165,00
1017,44	9165,00
1023,37	9089,00
1029,30	9222,00
1035,22	9232,00
1041,13	9236,00
1047,03	9356,00
1052,93	9813,00
1058,83	10648,00
1064,71	11024,00
1070,59	10384,00
1076,47	9904,00
1082,33	9668,00
1088,20	9605,00
1094,05	9527,00
1099,90	9488,00
1105,74	9262,00
1111,58	9594,00
1117,41	9703,00
1123,23	10343,00
1129,05	11078,00
1134,86	10987,00
1140,67	10163,00
1146,47	9794,00
1152,26	9771,00
1158,05	9545,00
1163,83	9621,00
1169,60	9778,00
1175,37	9619,00
1181,13	9455,00
1186,89	9477,00
1192,64	9483,00
1198,38	9400,00
1204,12	9418,00
1209,85	9400,00
1215,58	9512,00
1221,30	9551,00
1227,02	9612,00
1232,72	9850,00
1238,43	9841,00
1244,12	9692,00
1249,81	9716,00
1255,50	9784,00
1261,17	9782,00
1266,85	9742,00
1272,51	10070,00
1278,17	10104,00
1283,83	10403,00
1289,47	11070,00
1295,12	12336,00
1300,75	12153,00
1306,38	11067,00
1312,01	10290,00
1317,63	10146,00
1323,24	9869,00
1328,85	10062,00
1334,45	9986,00
1340,04	9910,00
1345,63	9996,00
1351,22	9951,00
1356,80	9988,00
1362,37	10024,00
1367,93	10043,00
1373,49	10045,00
1379,05	9939,00
1384,60	9913,00
1390,14	9882,00
1395,68	10084,00
1401,21	10214,00
1406,74	10313,00
1412,26	10599,00
1417,77	10918,00
1423,28	10912,00
1428,78	10906,00
1434,28	11574,00
1439,77	12339,00
1445,26	12241,00
1450,74	11882,00
1456,22	11633,00
1461,68	11431,00
1467,15	11275,00
1472,61	10856,00
1478,06	10479,00
1483,51	10333,00
1488,95	9933,00
1494,38	9693,00
1499,81	9803,00
1505,24	9608,00
1510,65	9594,00
1516,07	9476,00
1521,48	9593,00
1526,88	9543,00
1532,27	9340,00
1537,67	9461,00
1543,05	9469,00
1548,43	9428,00
1553,81	9372,00
1559,18	9315,00
1564,54	9374,00
1569,90	9241,00
1575,25	9240,00
1580,60	9267,00
1585,94	9337,00
1591,28	9429,00
1596,61	9242,00
1601,93	9315,00
1607,25	9188,00
1612,57	9141,00
1617,88	9004,00
1623,18	9143,00
1628,48	8969,00
1633,77	8955,00
1639,06	9018,00
1644,34	8917,00
1649,62	8933,00
1654,89	8917,00
1660,16	8798,00
1665,42	8810,00
1670,67	8781,00
1675,92	8717,00
1681,17	8784,00
1686,41	8731,00
1691,64	8629,00
1696,87	8688,00
1702,10	8713,00
1707,32	8606,00
1712,53	8634,00
1717,74	8562,00
1722,94	8471,00
1728,14	8551,00
1733,33	8499,00
1738,52	8362,00
1743,70	8341,00
1748,88	8547,00
1754,05	8267,00
1759,22	8278,00
1764,38	6953,00
1769,53	8268,00
1774,69	8233,00
1779,83	8156,00
1784,97	8065,00
1790,11	8099,00
1795,24	7951,00
1800,36	8058,00
1805,48	8186,00
1810,60	8014,00
1815,71	7998,00
1820,82	8038,00
1825,92	7954,00
1831,01	8108,00
1836,10	7935,00
1841,19	7996,00
1846,26	7928,00
1851,34	7982,00
1856,41	7817,00
1861,47	7911,00
1866,53	7961,00
1871,59	7884,00
1876,64	7757,00
1881,68	7742,00
1886,72	7699,00
1891,76	7665,00
1896,79	7685,00
1901,81	7576,00
1906,83	7621,00
1911,85	7611,00
1916,86	7458,00
1921,86	7330,00
1926,86	7519,00
1931,86	7184,00
1936,85	7226,00
1941,83	7199,00
1946,81	7213,00
1951,79	7162,00
1956,76	7092,00
1961,72	7071,00
1966,68	7021,00
1971,64	6976,00
1976,59	6899,00
1981,54	7026,00
1986,48	6915,00
1991,42	6904,00
1996,35	6843,00
2001,27	6894,00
2006,20	7053,00
2011,11	6790,00
2016,03	6752,00
2020,93	6740,00
2025,84	6662,00
2030,73	6914,00
2035,63	6680,00
2040,52	6662,00
2045,40	6671,00
2050,28	6673,00
2055,15	6729,00
2060,02	6558,00
2064,89	6520,00
2069,75	6561,00
2074,60	6433,00
2079,46	6448,00
2084,30	6566,00
2089,14	6468,00
2093,98	6449,00
2098,81	6553,00
2103,64	6380,00
2108,46	6531,00
2113,28	6475,00
2118,09	6393,00
2122,90	6379,00
2127,70	6326,00
2132,50	6311,00
2137,30	6473,00
2142,09	6298,00
2146,87	6219,00
2151,66	6353,00
2156,43	6187,00
2161,20	6276,00
2165,97	5995,00
2170,73	6076,00
2175,49	6136,00
2180,24	6138,00
2184,99	6103,00
2189,74	6096,00
2194,48	5939,00
2199,21	6038,00
2203,94	5872,00
2208,67	5989,00
2213,39	5785,00
2218,11	5852,00
2222,82	5736,00
2227,53	5759,00
2232,23	5749,00
2236,93	5789,00
2241,63	5751,00
2246,32	5730,00
2251,00	5597,00
2255,68	5643,00
2260,36	5658,00
2265,03	5587,00
2269,70	5586,00
2274,36	5567,00
2279,02	5468,00
2283,68	5505,00
2288,33	5478,00
2292,97	5467,00
2297,61	5360,00
2302,25	5502,00
2306,88	5426,00
2311,51	5422,00
2316,14	5320,00
2320,75	5538,00
2325,37	5343,00
2329,98	5245,00
2334,59	5167,00
2339,19	5240,00
2343,79	5094,00
2348,38	5051,00
2352,97	4988,00
2357,55	5019,00
2362,13	5014,00
2366,71	5031,00
2371,28	5041,00
2375,85	4988,00
2380,41	4834,00
2384,97	4812,00
2389,52	4769,00
2394,07	4839,00
2398,62	4718,00
2403,16	4664,00
2407,70	4596,00
2412,23	4699,00
2416,76	4765,00
2421,29	4649,00
2425,81	4732,00
2430,32	4579,00
2434,84	4645,00
2439,34	4516,00
2443,85	4413,00
2448,35	4554,00
2452,84	4458,00
2457,33	4316,00
2461,82	4453,00
2466,30	4336,00
2470,78	4251,00
2475,25	4372,00
2479,72	4223,00
2484,19	4225,00
2488,65	4244,00
2493,11	4154,00
2497,56	4094,00
2502,01	4058,00
2506,46	4141,00
2510,90	4083,00
2515,34	4174,00
2519,77	4044,00
2524,20	4125,00
2528,62	4181,00
2533,04	4047,00
2537,46	3920,00
2541,87	3958,00
2546,28	3946,00
2550,68	3834,00
2555,08	3922,00
2559,48	3788,00
2563,87	3798,00
2568,26	3833,00
2572,64	3709,00
2577,02	3693,00
2581,40	3665,00
2585,77	3617,00
2590,14	3560,00
2594,50	3485,00
2598,86	3521,00
2603,22	3456,00
2607,57	3396,00
2611,92	3453,00
2616,26	3388,00
2620,60	3444,00
2624,94	3426,00
2629,27	3572,00
2633,60	3340,00
2637,92	3344,00
2642,24	3446,00
2646,56	3320,00
2650,87	3319,00
2655,18	3438,00
2659,48	3362,00
2663,78	3261,00
2668,08	3294,00
2672,37	3241,00
2676,66	3386,00
2680,95	3256,00
2685,23	3187,00
2689,50	3276,00
2693,78	3226,00
2698,05	3247,00
2702,31	3195,00
2706,57	3322,00
2710,83	3405,00
2715,08	3385,00
2719,33	3519,00
2723,58	3459,00
2727,82	3305,00
2732,06	3358,00
2736,29	3331,00
2740,53	3302,00
2744,75	3157,00
2748,97	3191,00
2753,19	3154,00
2757,41	3134,00
2761,62	3070,00
2765,83	3007,00
2770,03	3088,00
2774,23	3160,00
2778,43	3096,00
2782,62	3025,00
2786,81	3060,00
2791,00	3044,00
2795,18	3100,00
2799,35	3055,00
2803,53	3066,00
2807,70	3114,00
2811,86	3106,00
2816,03	3165,00
2820,19	3366,00
2824,34	3260,00
2828,49	3471,00
2832,64	3747,00
2836,78	4062,00
2840,92	4371,00
2845,06	4975,00
2849,19	5446,00
2853,32	5585,00
2857,45	5677,00
2861,57	5515,00
2865,69	5358,00
2869,80	5214,00
2873,91	5342,00
2878,02	5640,00
2882,12	5881,00
2886,22	5894,00
2890,32	5595,00
2894,41	5334,00
2898,50	4988,00
2902,58	4668,00
2906,67	4428,00
2910,74	4266,00
2914,82	3963,00
2918,89	3764,00
2922,96	3695,00
2927,02	3547,00
2931,08	3470,00
2935,13	3240,00
2939,19	3103,00
2943,24	3072,00
2947,28	2838,00
2951,32	2795,00
2955,36	2623,00
2959,40	2502,00
2963,43	2478,00
2967,46	2331,00
2971,48	2262,00
2975,50	2291,00
2979,52	2192,00
2983,53	2180,00
2987,54	2034,00
2991,55	2065,00
2995,55	1998,00
2999,55	1944,00
3003,54	1902,00
3007,54	1883,00
3011,53	1873,00
3015,51	1699,00
3019,49	1700,00
3023,47	1830,00
3027,45	1774,00
3031,42	1736,00
3035,39	1647,00
3039,35	1711,00
3043,31	1626,00
3047,27	1631,00
3051,22	1646,00
3055,17	1722,00
3059,12	1556,00
3063,06	1603,00
3067,00	1577,00
3070,94	1509,00
3074,87	1457,00
3078,80	1654,00
3082,73	1403,00
3086,65	1425,00
3090,57	1414,00
3094,49	1462,00
3098,40	1511,00
3102,31	1341,00
3106,22	1355,00
3110,12	1308,00
3114,02	1342,00
3117,92	1335,00
3121,81	1274,00
3125,70	1277,00
3129,58	1179,00
3133,47	1305,00
3137,34	1204,00
3141,22	1202,00
3145,09	1293,00
3148,96	1106,00
3152,83	1236,00
3156,69	1226,00
3160,55	1177,00
3164,40	1248,00
3168,26	1187,00
3172,10	1113,00
3175,95	1176,00
3179,79	1181,00
3183,63	1121,00
3187,47	1051,00
3191,30	1264,00
3195,13	1081,00
3198,95	1112,00
3202,78	1063,00
3206,60	1026,00
3210,41	996,00
3214,23	1071,00
3218,03	986,00
3221,84	952,00
3225,64	1034,00
3229,44	938,00
3233,24	949,00
3237,03	889,00
3240,82	949,00
3244,61	819,00
3248,39	844,00
3252,17	859,00
3255,95	1039,00
3259,72	865,00
3263,49	966,00
3267,26	880,00
3271,03	927,00
3274,79	836,00
3278,54	836,00
3282,30	768,00
3286,05	904,00
3289,80	804,00
3293,54	756,00
3297,29	759,00
3301,02	803,00
3304,76	803,00
3308,49	851,00
3312,22	794,00
3315,95	780,00
3319,67	796,00
3323,39	750,00
3327,10	567,00
3330,82	725,00
3334,53	656,00
3338,24	665,00
3341,94	731,00
3345,64	657,00
3349,34	686,00
3353,03	705,00
3356,72	641,00
3360,41	567,00
3364,10	703,00
3367,78	621,00
3371,46	612,00
3375,13	552,00
3378,81	634,00
3382,48	527,00
3386,14	656,00
3389,81	458,00
3393,47	649,00
3397,12	675,00
3400,78	562,00
3404,43	532,00
3408,08	734,00
3411,72	552,00
3415,36	514,00
3419,00	461,00
3422,64	491,00
3426,27	573,00
3429,90	488,00
3433,53	483,00
3437,15	473,00
3440,77	484,00
3444,39	499,00
3448,00	493,00
3451,62	459,00
3455,22	471,00
3458,83	596,00
3462,43	472,00
3466,03	452,00
3469,63	443,00
3473,22	460,00
3476,81	445,00
3480,40	355,00
3483,99	462,00
3487,57	507,00
3491,15	452,00
3494,72	337,00
3498,29	351,00
3501,86	441,00
3505,43	511,00
3508,99	379,00
3512,56	440,00
3516,11	415,00
3519,67	416,00
3523,22	387,00
3526,77	317,00
3530,32	289,00
3533,86	371,00
3537,40	341,00
3540,94	240,00
3544,47	259,00
3548,00	343,00
3551,53	317,00
3555,06	391,00
3558,58	378,00
3562,10	408,00
3565,62	297,00
3569,13	438,00
3572,64	369,00
3576,15	341,00
3579,66	359,00
3583,16	260,00
3586,66	344,00
3590,16	296,00
3593,65	267,00
3597,14	279,00
3600,63	244,00
3604,11	303,00
3607,60	299,00
3611,08	335,00
3614,55	310,00
3618,03	217,00
3621,50	214,00
3624,97	339,00
3628,43	281,00
3631,90	318,00
3635,36	251,00
3638,81	136,00
3642,27	303,00
3645,72	276,00
3649,17	229,00
3652,61	220,00
3656,06	213,00
3659,50	248,00
3662,93	237,00
3666,37	199,00
3669,80	132,00
3673,23	331,00
3676,65	208,00
3680,08	303,00
3683,50	195,00
3686,92	251,00
3690,33	161,00
3693,74	208,00
3697,15	288,00
3700,56	227,00
3703,96	221,00
3707,36	213,00
3710,76	163,00
3714,16	158,00
3717,55	185,00
3720,94	216,00
3724,33	239,00
3727,71	248,00
3731,10	142,00
3734,48	198,00
3737,85	205,00
3741,23	200,00
3744,60	213,00
3747,97	195,00
3751,33	196,00
3754,69	143,00
3758,05	279,00
3761,41	125,00
3764,77	226,00
3768,12	252,00
3771,47	146,00
3774,82	183,00
3778,16	4,00
3781,50	0,00
3784,84	9,00
3788,18	2,00
>>>>>End Processed Spectral Data<<<<<
