SpectraSuite Data File
++++++++++++++++++++++++++++++++++++
Date: Wed Feb 04 15:38:12 ICT 2026
User: Administrator
Dark Spectrum Present: Yes
Reference Spectrum Present: No
Number of Sampled Component Spectra: 1
Spectrometers: MAYP113682
Integration Time (usec): 3000000 (MAYP113682)
Spectra Averaged: 1 (MAYP113682)
Boxcar Smoothing: 0 (MAYP113682)
Correct for Electrical Dark: No (MAYP113682)
Strobe/Lamp Enabled: No (MAYP113682)
Correct for Detector Non-linearity: No (MAYP113682)
Correct for Stray Light: No (MAYP113682)
Number of Pixels in Processed Spectrum: 2068
>>>>>Begin Processed Spectral Data<<<<<
-37534,58	15,00
-37414,56	-4,00
-37295,11	13,00
-37176,24	7,00
-37057,95	286,00
-36940,22	292,00
-36823,05	217,00
-36706,45	315,00
-36590,40	347,00
-36474,90	326,00
-36359,95	401,00
-36245,55	352,00
-36131,68	291,00
-36018,35	295,00
-35905,55	367,00
-35793,29	379,00
-35681,54	374,00
-35570,32	345,00
-35459,62	276,00
-35349,43	463,00
-35239,75	309,00
-35130,58	321,00
-35021,91	324,00
-34913,74	396,00
-34806,07	361,00
-34698,89	382,00
-34592,20	343,00
-34486,00	328,00
-34380,28	377,00
-34275,04	365,00
-34170,27	280,00
-34065,98	344,00
-33962,16	287,00
-33858,81	374,00
-33755,92	396,00
-33653,49	415,00
-33551,52	408,00
-33450,01	422,00
-33348,94	380,00
-33248,33	466,00
-33148,16	329,00
-33048,43	401,00
-32949,14	556,00
-32850,29	333,00
-32751,87	388,00
-32653,89	420,00
-32556,33	403,00
-32459,20	330,00
-32362,49	343,00
-32266,19	309,00
-32170,32	466,00
-32074,86	428,00
-31979,82	373,00
-31885,18	451,00
-31790,95	421,00
-31697,12	373,00
-31603,69	381,00
-31510,67	393,00
-31418,04	381,00
-31325,80	449,00
-31233,95	353,00
-31142,49	523,00
-31051,42	352,00
-30960,73	484,00
-30870,43	558,00
-30780,50	325,00
-30690,95	440,00
-30601,77	276,00
-30512,97	355,00
-30424,53	481,00
-30336,46	511,00
-30248,76	371,00
-30161,42	383,00
-30074,44	407,00
-29987,81	425,00
-29901,55	307,00
-29815,63	437,00
-29730,07	479,00
-29644,86	320,00
-29560,00	305,00
-29475,48	392,00
-29391,30	401,00
-29307,47	317,00
-29223,97	395,00
-29140,81	485,00
-29057,99	416,00
-28975,50	353,00
-28893,34	362,00
-28811,51	412,00
-28730,00	314,00
-28648,82	435,00
-28567,97	417,00
-28487,43	309,00
-28407,21	398,00
-28327,32	359,00
-28247,73	432,00
-28168,46	408,00
-28089,50	285,00
-28010,85	322,00
-27932,51	458,00
-27854,48	467,00
-27776,75	399,00
-27699,32	437,00
-27622,19	438,00
-27545,37	305,00
-27468,84	337,00
-27392,60	471,00
-27316,66	304,00
-27241,01	427,00
-27165,66	438,00
-27090,59	321,00
-27015,81	414,00
-26941,31	410,00
-26867,10	379,00
-26793,17	505,00
-26719,52	347,00
-26646,15	400,00
-26573,06	361,00
-26500,24	407,00
-26427,70	321,00
-26355,43	433,00
-26283,43	379,00
-26211,71	420,00
-26140,25	376,00
-26069,06	564,00
-25998,13	365,00
-25927,46	397,00
-25857,06	417,00
-25786,92	353,00
-25717,04	374,00
-25647,42	418,00
-25578,05	259,00
-25508,94	417,00
-25440,09	453,00
-25371,48	328,00
-25303,13	437,00
-25235,02	288,00
-25167,17	333,00
-25099,56	281,00
-25032,19	336,00
-24965,07	391,00
-24898,20	330,00
-24831,56	450,00
-24765,17	356,00
-24699,01	355,00
-24633,10	322,00
-24567,41	442,00
-24501,97	488,00
-24436,75	293,00
-24371,77	343,00
-24307,03	412,00
-24242,51	365,00
-24178,22	429,00
-24114,16	270,00
-24050,32	500,00
-23986,71	319,00
-23923,32	340,00
-23860,16	404,00
-23797,22	305,00
-23734,50	350,00
-23672,00	419,00
-23609,71	423,00
-23547,65	387,00
-23485,80	418,00
-23424,16	333,00
-23362,74	411,00
-23301,53	288,00
-23240,54	270,00
-23179,75	237,00
-23119,17	479,00
-23058,80	386,00
-22998,64	268,00
-22938,68	454,00
-22878,93	493,00
-22819,39	401,00
-22760,04	298,00
-22700,90	338,00
-22641,96	411,00
-22583,22	264,00
-22524,68	300,00
-22466,33	410,00
-22408,19	365,00
-22350,23	393,00
-22292,48	481,00
-22234,92	405,00
-22177,55	395,00
-22120,37	405,00
-22063,38	249,00
-22006,58	367,00
-21949,98	357,00
-21893,56	332,00
-21837,33	281,00
-21781,28	472,00
-21725,42	373,00
-21669,74	440,00
-21614,25	391,00
-21558,94	391,00
-21503,81	446,00
-21448,86	336,00
-21394,10	299,00
-21339,51	375,00
-21285,10	278,00
-21230,86	276,00
-21176,81	389,00
-21122,93	352,00
-21069,22	369,00
-21015,69	358,00
-20962,33	412,00
-20909,14	355,00
-20856,13	392,00
-20803,28	356,00
-20750,61	348,00
-20698,10	333,00
-20645,76	335,00
-20593,59	437,00
-20541,59	360,00
-20489,75	355,00
-20438,07	262,00
-20386,56	385,00
-20335,22	235,00
-20284,03	316,00
-20233,01	456,00
-20182,15	295,00
-20131,45	338,00
-20080,91	285,00
-20030,52	435,00
-19980,30	439,00
-19930,23	275,00
-19880,32	479,00
-19830,56	365,00
-19780,96	345,00
-19731,52	394,00
-19682,23	396,00
-19633,09	357,00
-19584,10	270,00
-19535,26	401,00
-19486,58	402,00
-19438,04	392,00
-19389,66	323,00
-19341,42	364,00
-19293,33	501,00
-19245,39	367,00
-19197,60	274,00
-19149,95	339,00
-19102,45	409,00
-19055,09	474,00
-19007,87	394,00
-18960,80	389,00
-18913,87	413,00
-18867,09	304,00
-18820,44	401,00
-18773,94	381,00
-18727,57	321,00
-18681,35	272,00
-18635,26	307,00
-18589,31	412,00
-18543,50	305,00
-18497,83	343,00
-18452,29	513,00
-18406,89	328,00
-18361,63	587,00
-18316,50	254,00
-18271,50	421,00
-18226,63	394,00
-18181,90	529,00
-18137,30	310,00
-18092,84	347,00
-18048,50	284,00
-18004,29	299,00
-17960,22	393,00
-17916,27	351,00
-17872,45	464,00
-17828,76	344,00
-17785,20	363,00
-17741,77	329,00
-17698,46	352,00
-17655,28	336,00
-17612,22	311,00
-17569,29	413,00
-17526,48	325,00
-17483,79	330,00
-17441,23	288,00
-17398,79	414,00
-17356,48	472,00
-17314,28	321,00
-17272,21	304,00
-17230,26	477,00
-17188,42	371,00
-17146,71	310,00
-17105,12	409,00
-17063,64	388,00
-17022,28	322,00
-16981,04	294,00
-16939,92	371,00
-16898,91	449,00
-16858,02	385,00
-16817,25	437,00
-16776,59	342,00
-16736,04	385,00
-16695,61	349,00
-16655,29	383,00
-16615,09	356,00
-16574,99	278,00
-16535,01	409,00
-16495,15	320,00
-16455,39	342,00
-16415,74	251,00
-16376,21	371,00
-16336,78	214,00
-16297,46	262,00
-16258,26	405,00
-16219,16	349,00
-16180,17	489,00
-16141,28	474,00
-16102,51	253,00
-16063,84	444,00
-16025,27	426,00
-15986,82	312,00
-15948,46	362,00
-15910,22	382,00
-15872,07	278,00
-15834,04	337,00
-15796,10	344,00
-15758,27	346,00
-15720,54	280,00
-15682,91	338,00
-15645,39	371,00
-15607,97	320,00
-15570,64	412,00
-15533,42	434,00
-15496,30	306,00
-15459,28	333,00
-15422,36	418,00
-15385,54	315,00
-15348,82	484,00
-15312,19	445,00
-15275,66	220,00
-15239,23	303,00
-15202,90	378,00
-15166,67	296,00
-15130,53	360,00
-15094,48	365,00
-15058,54	270,00
-15022,68	456,00
-14986,93	458,00
-14951,26	331,00
-14915,69	345,00
-14880,22	316,00
-14844,84	311,00
-14809,55	432,00
-14774,35	362,00
-14739,25	442,00
-14704,24	269,00
-14669,32	337,00
-14634,49	378,00
-14599,75	281,00
-14565,10	352,00
-14530,55	422,00
-14496,08	404,00
-14461,70	466,00
-14427,41	360,00
-14393,21	343,00
-14359,10	303,00
-14325,07	387,00
-14291,14	394,00
-14257,29	346,00
-14223,52	353,00
-14189,85	322,00
-14156,26	300,00
-14122,76	392,00
-14089,34	393,00
-14056,01	325,00
-14022,76	377,00
-13989,60	285,00
-13956,52	311,00
-13923,53	294,00
-13890,62	269,00
-13857,79	315,00
-13825,05	377,00
-13792,39	351,00
-13759,81	370,00
-13727,31	313,00
-13694,90	414,00
-13662,57	409,00
-13630,31	473,00
-13598,14	423,00
-13566,05	294,00
-13534,05	332,00
-13502,12	401,00
-13470,27	378,00
-13438,50	310,00
-13406,80	302,00
-13375,19	359,00
-13343,66	368,00
-13312,20	287,00
-13280,83	370,00
-13249,53	388,00
-13218,30	354,00
-13187,16	341,00
-13156,09	457,00
-13125,10	380,00
-13094,18	263,00
-13063,34	323,00
-13032,58	317,00
-13001,89	295,00
-12971,28	303,00
-12940,74	350,00
-12910,27	331,00
-12879,88	231,00
-12849,57	381,00
-12819,33	279,00
-12789,16	335,00
-12759,06	365,00
-12729,04	330,00
-12699,09	-44,00
-12669,21	477,00
-12639,41	395,00
-12609,68	282,00
-12580,02	196,00
-12550,43	358,00
-12520,91	247,00
-12491,46	356,00
-12462,08	424,00
-12432,77	234,00
-12403,54	345,00
-12374,37	483,00
-12345,27	440,00
-12316,24	309,00
-12287,29	344,00
-12258,40	443,00
-12229,57	435,00
-12200,82	327,00
-12172,14	394,00
-12143,52	306,00
-12114,97	322,00
-12086,49	400,00
-12058,07	336,00
-12029,73	313,00
-12001,44	368,00
-11973,23	340,00
-11945,08	372,00
-11917,00	462,00
-11888,98	318,00
-11861,03	364,00
-11833,15	427,00
-11805,32	302,00
-11777,57	311,00
-11749,88	385,00
-11722,25	340,00
-11694,69	332,00
-11667,19	327,00
-11639,75	380,00
-11612,38	365,00
-11585,07	348,00
-11557,83	341,00
-11530,65	456,00
-11503,53	387,00
-11476,47	418,00
-11449,48	271,00
-11422,54	404,00
-11395,67	270,00
-11368,86	462,00
-11342,11	336,00
-11315,43	482,00
-11288,80	338,00
-11262,23	376,00
-11235,73	300,00
-11209,28	341,00
-11182,90	433,00
-11156,57	410,00
-11130,31	524,00
-11104,10	333,00
-11077,96	333,00
-11051,87	396,00
-11025,84	365,00
-10999,87	423,00
-10973,96	349,00
-10948,11	309,00
-10922,31	270,00
-10896,58	367,00
-10870,90	402,00
-10845,28	474,00
-10819,71	336,00
-10794,20	360,00
-10768,75	309,00
-10743,36	404,00
-10718,02	335,00
-10692,74	419,00
-10667,52	274,00
-10642,35	265,00
-10617,24	296,00
-10592,18	391,00
-10567,18	233,00
-10542,23	396,00
-10517,34	354,00
-10492,51	398,00
-10467,72	406,00
-10443,00	186,00
-10418,32	177,00
-10393,70	278,00
-10369,14	392,00
-10344,63	256,00
-10320,17	381,00
-10295,77	343,00
-10271,42	249,00
-10247,12	362,00
-10222,88	285,00
-10198,68	285,00
-10174,54	247,00
-10150,46	302,00
-10126,42	333,00
-10102,44	280,00
-10078,51	221,00
-10054,63	154,00
-10030,80	413,00
-10007,03	307,00
-9983,30	355,00
-9959,63	221,00
-9936,01	245,00
-9912,44	195,00
-9888,92	171,00
-9865,44	172,00
-9842,02	197,00
-9818,65	162,00
-9795,33	170,00
-9772,06	203,00
-9748,84	184,00
-9725,67	62,00
-9702,55	172,00
-9679,47	117,00
-9656,45	104,00
-9633,47	25,00
-9610,55	114,00
-9587,67	11,00
-9564,84	9,00
-9542,06	-17,00
-9519,32	104,00
-9496,64	-58,00
-9474,00	-183,00
-9451,41	-245,00
-9428,87	-89,00
-9406,37	-240,00
-9383,92	-170,00
-9361,52	-67,00
-9339,17	-150,00
-9316,86	-183,00
-9294,60	-364,00
-9272,38	-362,00
-9250,21	-279,00
-9228,09	-611,00
-9206,01	-430,00
-9183,98	-431,00
-9162,00	-447,00
-9140,06	-220,00
-9118,16	-343,00
-9096,31	-463,00
-9074,51	-441,00
-9052,75	-272,00
-9031,04	-226,00
-9009,37	-328,00
-8987,74	-186,00
-8966,16	-208,00
-8944,63	-278,00
-8923,14	-166,00
-8901,69	-174,00
-8880,29	-177,00
-8858,93	-238,00
-8837,61	-48,00
-8816,34	-227,00
-8795,11	-246,00
-8773,92	-194,00
-8752,78	-176,00
-8731,68	-227,00
-8710,62	-135,00
-8689,61	-183,00
-8668,63	-168,00
-8647,70	-42,00
-8626,82	-285,00
-8605,97	-143,00
-8585,17	-72,00
-8564,41	-110,00
-8543,69	-56,00
-8523,01	-304,00
-8502,37	-17,00
-8481,78	-56,00
-8461,23	-232,00
-8440,71	-139,00
-8420,24	-256,00
-8399,81	-131,00
-8379,42	-117,00
-8359,08	-79,00
-8338,77	-43,00
-8318,50	-50,00
-8298,27	-173,00
-8278,09	-244,00
-8257,94	-126,00
-8237,83	-163,00
-8217,76	-222,00
-8197,74	-51,00
-8177,75	-6,00
-8157,80	-4,00
-8137,89	32,00
-8118,02	-78,00
-8098,19	90,00
-8078,40	-15,00
-8058,65	-124,00
-8038,93	-89,00
-8019,26	-166,00
-7999,62	-15,00
-7980,02	-86,00
-7960,46	-206,00
-7940,94	-16,00
-7921,46	68,00
-7902,01	-10,00
-7882,60	81,00
-7863,23	-72,00
-7843,90	-71,00
-7824,61	-68,00
-7805,35	94,00
-7786,13	-32,00
-7766,95	19,00
-7747,80	163,00
-7728,69	-3,00
-7709,62	5,00
-7690,59	-136,00
-7671,59	-61,00
-7652,63	-111,00
-7633,70	-119,00
-7614,81	-45,00
-7595,96	16,00
-7577,15	14,00
-7558,37	0,00
-7539,62	167,00
-7520,91	1,00
-7502,24	50,00
-7483,60	-59,00
-7465,00	-17,00
-7446,44	-8,00
-7427,91	96,00
-7409,41	112,00
-7390,95	160,00
-7372,53	55,00
-7354,14	11,00
-7335,78	101,00
-7317,46	17,00
-7299,18	89,00
-7280,92	-100,00
-7262,71	-87,00
-7244,52	-101,00
-7226,38	-33,00
-7208,26	76,00
-7190,18	-110,00
-7172,14	69,00
-7154,12	8,00
-7136,15	-62,00
-7118,20	136,00
-7100,29	23,00
-7082,41	119,00
-7064,57	-5,00
-7046,76	10,00
-7028,98	25,00
-7011,24	105,00
-6993,53	64,00
-6975,85	71,00
-6958,20	88,00
-6940,59	275,00
-6923,01	104,00
-6905,46	86,00
-6887,94	114,00
-6870,46	2622,00
-6853,01	19,00
-6835,59	76,00
-6818,21	-15,00
-6800,85	39,00
-6783,53	96,00
-6766,24	179,00
-6748,98	29,00
-6731,76	186,00
-6714,56	137,00
-6697,40	111,00
-6680,26	190,00
-6663,16	240,00
-6646,09	213,00
-6629,05	119,00
-6612,05	124,00
-6595,07	268,00
-6578,13	116,00
-6561,21	235,00
-6544,33	285,00
-6527,47	201,00
-6510,65	142,00
-6493,86	152,00
-6477,10	214,00
-6460,36	108,00
-6443,66	150,00
-6426,99	275,00
-6410,35	124,00
-6393,74	168,00
-6377,16	114,00
-6360,61	19,00
-6344,09	143,00
-6327,59	201,00
-6311,13	193,00
-6294,70	134,00
-6278,29	85,00
-6261,92	103,00
-6245,58	136,00
-6229,26	225,00
-6212,97	151,00
-6196,72	139,00
-6180,49	137,00
-6164,29	205,00
-6148,12	324,00
-6131,98	258,00
-6115,86	263,00
-6099,78	225,00
-6083,72	149,00
-6067,69	173,00
-6051,69	205,00
-6035,72	179,00
-6019,78	190,00
-6003,87	189,00
-5987,98	118,00
-5972,12	204,00
-5956,29	48,00
-5940,49	94,00
-5924,71	180,00
-5908,96	189,00
-5893,24	265,00
-5877,55	239,00
-5861,89	227,00
-5846,25	154,00
-5830,64	204,00
-5815,05	211,00
-5799,50	279,00
-5783,97	241,00
-5768,47	242,00
-5752,99	237,00
-5737,55	157,00
-5722,12	-50,00
-5706,73	185,00
-5691,36	218,00
-5676,02	315,00
-5660,71	313,00
-5645,42	259,00
-5630,16	236,00
-5614,92	256,00
-5599,71	93,00
-5584,53	277,00
-5569,37	209,00
-5554,24	518,00
-5539,14	225,00
-5524,06	185,00
-5509,01	100,00
-5493,98	254,00
-5478,98	211,00
-5464,00	317,00
-5449,05	162,00
-5434,13	313,00
-5419,23	274,00
-5404,36	166,00
-5389,51	259,00
-5374,69	106,00
-5359,89	154,00
-5345,12	72,00
-5330,37	172,00
-5315,65	199,00
-5300,95	146,00
-5286,28	186,00
-5271,63	161,00
-5257,01	208,00
-5242,41	262,00
-5227,84	245,00
-5213,29	220,00
-5198,76	382,00
-5184,26	290,00
-5169,79	303,00
-5155,33	113,00
-5140,91	276,00
-5126,51	140,00
-5112,13	172,00
-5097,77	202,00
-5083,44	254,00
-5069,13	303,00
-5054,85	309,00
-5040,59	201,00
-5026,36	182,00
-5012,15	201,00
-4997,96	260,00
-4983,80	323,00
-4969,66	212,00
-4955,54	340,00
-4941,44	217,00
-4927,37	132,00
-4913,33	197,00
-4899,30	115,00
-4885,30	104,00
-4871,33	165,00
-4857,37	228,00
-4843,44	326,00
-4829,53	320,00
-4815,65	366,00
-4801,79	288,00
-4787,95	183,00
-4774,13	194,00
-4760,34	308,00
-4746,56	232,00
-4732,82	450,00
-4719,09	352,00
-4705,38	114,00
-4691,70	208,00
-4678,04	113,00
-4664,41	234,00
-4650,79	278,00
-4637,20	241,00
-4623,63	270,00
-4610,08	275,00
-4596,56	280,00
-4583,05	243,00
-4569,57	243,00
-4556,11	329,00
-4542,67	237,00
-4529,25	302,00
-4515,86	276,00
-4502,49	143,00
-4489,13	125,00
-4475,80	217,00
-4462,49	229,00
-4449,21	404,00
-4435,94	293,00
-4422,70	261,00
-4409,47	206,00
-4396,27	193,00
-4383,09	263,00
-4369,93	358,00
-4356,79	315,00
-4343,67	295,00
-4330,58	322,00
-4317,50	255,00
-4304,45	223,00
-4291,41	216,00
-4278,40	267,00
-4265,41	236,00
-4252,44	399,00
-4239,49	265,00
-4226,55	356,00
-4213,65	319,00
-4200,76	288,00
-4187,89	275,00
-4175,04	185,00
-4162,21	320,00
-4149,40	306,00
-4136,61	309,00
-4123,85	420,00
-4111,10	315,00
-4098,37	329,00
-4085,66	352,00
-4072,98	311,00
-4060,31	373,00
-4047,66	485,00
-4035,04	429,00
-4022,43	305,00
-4009,84	377,00
-3997,27	368,00
-3984,72	285,00
-3972,19	250,00
-3959,69	270,00
-3947,20	348,00
-3934,73	320,00
-3922,27	442,00
-3909,84	308,00
-3897,43	292,00
-3885,04	472,00
-3872,67	412,00
-3860,31	233,00
-3847,98	353,00
-3835,66	354,00
-3823,36	555,00
-3811,09	343,00
-3798,83	339,00
-3786,59	477,00
-3774,37	432,00
-3762,17	369,00
-3749,98	351,00
-3737,82	358,00
-3725,67	330,00
-3713,55	308,00
-3701,44	398,00
-3689,35	411,00
-3677,28	415,00
-3665,22	320,00
-3653,19	362,00
-3641,17	279,00
-3629,18	332,00
-3617,20	517,00
-3605,24	393,00
-3593,30	351,00
-3581,37	444,00
-3569,47	290,00
-3557,58	358,00
-3545,71	349,00
-3533,86	389,00
-3522,02	382,00
-3510,21	496,00
-3498,41	398,00
-3486,63	382,00
-3474,87	397,00
-3463,12	397,00
-3451,40	404,00
-3439,69	319,00
-3428,00	419,00
-3416,33	398,00
-3404,67	154,00
-3393,03	358,00
-3381,41	455,00
-3369,81	382,00
-3358,22	363,00
-3346,66	357,00
-3335,10	416,00
-3323,57	392,00
-3312,06	477,00
-3300,56	315,00
-3289,08	362,00
-3277,61	398,00
-3266,16	360,00
-3254,73	348,00
-3243,32	289,00
-3231,92	369,00
-3220,55	274,00
-3209,18	405,00
-3197,84	316,00
-3186,51	356,00
-3175,20	377,00
-3163,90	373,00
-3152,63	465,00
-3141,36	375,00
-3130,12	345,00
-3118,89	331,00
-3107,68	457,00
-3096,49	436,00
-3085,31	439,00
-3074,15	386,00
-3063,00	379,00
-3051,87	420,00
-3040,76	237,00
-3029,67	414,00
-3018,59	513,00
-3007,52	356,00
-2996,48	430,00
-2985,44	274,00
-2974,43	486,00
-2963,43	366,00
-2952,45	370,00
-2941,48	457,00
-2930,53	365,00
-2919,60	410,00
-2908,68	354,00
-2897,78	428,00
-2886,89	466,00
-2876,02	332,00
-2865,17	309,00
-2854,33	361,00
-2843,50	361,00
-2832,70	460,00
-2821,90	359,00
-2811,13	379,00
-2800,37	406,00
-2789,62	472,00
-2778,89	284,00
-2768,18	366,00
-2757,48	473,00
-2746,80	424,00
-2736,13	388,00
-2725,48	372,00
-2714,84	289,00
-2704,22	437,00
-2693,61	382,00
-2683,02	393,00
-2672,45	352,00
-2661,89	255,00
-2651,34	366,00
-2640,81	413,00
-2630,30	390,00
-2619,80	267,00
-2609,31	434,00
-2598,84	321,00
-2588,39	394,00
-2577,95	302,00
-2567,52	407,00
-2557,11	398,00
-2546,71	395,00
-2536,33	389,00
-2525,97	361,00
-2515,62	468,00
-2505,28	352,00
-2494,96	411,00
-2484,65	360,00
-2474,36	467,00
-2464,08	366,00
-2453,82	347,00
-2443,57	463,00
-2433,33	440,00
-2423,11	448,00
-2412,91	406,00
-2402,72	326,00
-2392,54	429,00
-2382,38	291,00
-2372,23	385,00
-2362,09	4525,00
-2351,97	309,00
-2341,87	377,00
-2331,78	440,00
-2321,70	420,00
-2311,64	410,00
-2301,59	419,00
-2291,55	312,00
-2281,53	397,00
-2271,53	337,00
-2261,53	424,00
-2251,55	449,00
-2241,59	388,00
-2231,64	331,00
-2221,70	306,00
-2211,78	307,00
-2201,87	553,00
-2191,97	369,00
-2182,09	386,00
-2172,22	357,00
-2162,37	314,00
-2152,53	271,00
-2142,70	375,00
-2132,89	355,00
-2123,09	391,00
-2113,30	320,00
-2103,53	388,00
-2093,77	345,00
-2084,02	327,00
-2074,29	415,00
-2064,57	409,00
-2054,86	437,00
-2045,17	424,00
-2035,49	319,00
-2025,82	358,00
-2016,17	349,00
-2006,53	396,00
-1996,91	337,00
-1987,29	385,00
-1977,69	366,00
-1968,11	317,00
-1958,53	383,00
-1948,97	413,00
-1939,42	485,00
-1929,89	317,00
-1920,37	404,00
-1910,86	445,00
-1901,36	445,00
-1891,88	410,00
-1882,41	428,00
-1872,95	381,00
-1863,51	400,00
-1854,08	408,00
-1844,66	437,00
-1835,26	392,00
-1825,86	408,00
-1816,48	382,00
-1807,11	438,00
-1797,76	356,00
-1788,42	373,00
-1779,09	472,00
-1769,77	370,00
-1760,47	427,00
-1751,17	459,00
-1741,89	329,00
-1732,63	440,00
-1723,37	468,00
-1714,13	372,00
-1704,90	347,00
-1695,68	473,00
-1686,48	283,00
-1677,29	365,00
-1668,11	521,00
-1658,94	497,00
-1649,78	405,00
-1640,64	403,00
-1631,51	392,00
-1622,39	388,00
-1613,28	267,00
-1604,19	432,00
-1595,10	319,00
-1586,03	324,00
-1576,97	386,00
-1567,93	408,00
-1558,89	386,00
-1549,87	345,00
-1540,86	330,00
-1531,86	321,00
-1522,87	403,00
-1513,90	413,00
-1504,93	424,00
-1495,98	343,00
-1487,04	330,00
-1478,12	280,00
-1469,20	288,00
-1460,30	379,00
-1451,40	397,00
-1442,52	341,00
-1433,65	372,00
-1424,80	381,00
-1415,95	379,00
-1407,12	368,00
-1398,30	426,00
-1389,48	360,00
-1380,69	428,00
-1371,90	322,00
-1363,12	382,00
-1354,36	421,00
-1345,60	402,00
-1336,86	329,00
-1328,13	447,00
-1319,41	374,00
-1310,70	396,00
-1302,01	377,00
-1293,32	382,00
-1284,65	423,00
-1275,99	227,00
-1267,33	425,00
-1258,69	313,00
-1250,06	375,00
-1241,45	318,00
-1232,84	407,00
-1224,25	406,00
-1215,66	501,00
-1207,09	347,00
-1198,53	503,00
-1189,97	379,00
-1181,43	319,00
-1172,91	384,00
-1164,39	392,00
-1155,88	279,00
-1147,38	362,00
-1138,90	426,00
-1130,43	372,00
-1121,96	479,00
-1113,51	376,00
-1105,07	358,00
-1096,64	353,00
-1088,22	363,00
-1079,81	475,00
-1071,41	374,00
-1063,02	389,00
-1054,65	368,00
-1046,28	416,00
-1037,92	368,00
-1029,58	411,00
-1021,24	400,00
-1012,92	461,00
-1004,61	370,00
-996,30	499,00
-988,01	371,00
-979,73	361,00
-971,46	385,00
-963,20	348,00
-954,95	459,00
-946,71	309,00
-938,48	320,00
-930,26	471,00
-922,06	419,00
-913,86	410,00
-905,67	359,00
-897,49	440,00
-889,33	346,00
-881,17	503,00
-873,02	349,00
-864,89	442,00
-856,76	301,00
-848,65	243,00
-840,54	377,00
-832,45	519,00
-824,36	383,00
-816,29	408,00
-808,22	425,00
-800,17	452,00
-792,12	479,00
-784,09	381,00
-776,06	339,00
-768,05	401,00
-760,04	361,00
-752,05	325,00
-744,07	435,00
-736,09	338,00
-728,13	277,00
-720,17	267,00
-712,23	285,00
-704,29	458,00
-696,37	387,00
-688,45	396,00
-680,55	411,00
-672,65	310,00
-664,77	349,00
-656,89	461,00
-649,03	486,00
-641,17	424,00
-633,32	435,00
-625,49	483,00
-617,66	310,00
-609,84	475,00
-602,03	348,00
-594,23	315,00
-586,45	360,00
-578,67	303,00
-570,90	417,00
-563,14	394,00
-555,39	402,00
-547,65	407,00
-539,91	402,00
-532,19	395,00
-524,48	450,00
-516,78	368,00
-509,08	375,00
-501,40	303,00
-493,72	369,00
-486,06	342,00
-478,40	477,00
-470,76	291,00
-463,12	190,00
-455,49	380,00
-447,87	250,00
-440,26	375,00
-432,66	398,00
-425,07	346,00
-417,49	418,00
-409,92	295,00
-402,35	419,00
-394,80	382,00
-387,25	338,00
-379,72	356,00
-372,19	350,00
-364,67	512,00
-357,17	442,00
-349,67	351,00
-342,18	420,00
-334,69	403,00
-327,22	408,00
-319,76	448,00
-312,30	493,00
-304,86	407,00
-297,42	437,00
-290,00	349,00
-282,58	465,00
-275,17	520,00
-267,77	373,00
-260,37	425,00
-252,99	448,00
-245,62	409,00
-238,25	482,00
-230,90	474,00
-223,55	404,00
-216,21	415,00
-208,88	532,00
-201,56	517,00
-194,25	492,00
-186,94	567,00
-179,65	673,00
-172,36	518,00
-165,08	475,00
-157,81	680,00
-150,55	674,00
-143,30	665,00
-136,06	588,00
-128,82	828,00
-121,60	731,00
-114,38	843,00
-107,17	944,00
-99,97	1016,00
-92,78	1089,00
-85,60	1135,00
-78,42	1275,00
-71,25	1450,00
-64,10	1634,00
-56,95	1880,00
-49,81	2044,00
-42,67	2506,00
-35,55	3051,00
-28,43	3894,00
-21,33	6081,00
-14,23	18261,00
-7,14	56670,00
-0,05	56467,00
7,02	56225,00
14,09	56403,00
21,14	20620,00
28,19	8313,00
35,23	5192,00
42,27	4065,00
49,29	3450,00
56,31	2871,00
63,32	2460,00
70,32	2132,00
77,31	1827,00
84,29	1720,00
91,27	1537,00
98,23	1560,00
105,19	1431,00
112,14	1690,00
119,09	3079,00
126,02	5329,00
132,95	6826,00
139,87	7356,00
146,78	7445,00
153,68	7392,00
160,58	7439,00
167,46	7293,00
174,34	7332,00
181,21	7352,00
188,08	7393,00
194,93	7469,00
201,78	7494,00
208,62	7525,00
215,45	7530,00
222,27	7629,00
229,09	7479,00
235,90	7354,00
242,70	7551,00
249,49	7366,00
256,27	7372,00
263,05	7410,00
269,82	7402,00
276,58	7494,00
283,33	7428,00
290,08	7448,00
296,82	7361,00
303,55	7261,00
310,27	7108,00
316,98	7334,00
323,69	7253,00
330,39	7217,00
337,08	7313,00
343,76	7380,00
350,44	7332,00
357,11	7384,00
363,77	7356,00
370,42	7359,00
377,07	7436,00
383,71	7420,00
390,34	7355,00
396,96	7338,00
403,58	7621,00
410,19	7478,00
416,79	7672,00
423,38	7531,00
429,97	7538,00
436,55	7341,00
443,12	7394,00
449,68	7305,00
456,24	7408,00
462,79	7503,00
469,33	7284,00
475,86	7445,00
482,39	7525,00
488,91	7445,00
495,42	7518,00
501,93	7371,00
508,42	7303,00
514,91	7374,00
521,40	7399,00
527,87	7376,00
534,34	7285,00
540,80	7471,00
547,25	7538,00
553,70	7321,00
560,14	7428,00
566,57	7384,00
573,00	7420,00
579,41	7411,00
585,83	7428,00
592,23	7512,00
598,62	7390,00
605,01	7419,00
611,40	7403,00
617,77	7528,00
624,14	7452,00
630,50	7546,00
636,85	7415,00
643,20	7461,00
649,54	7550,00
655,87	7444,00
662,20	7466,00
668,52	7599,00
674,83	7333,00
681,13	7370,00
687,43	7281,00
693,72	7430,00
700,00	7332,00
706,28	7269,00
712,55	7319,00
718,81	7520,00
725,07	7490,00
731,32	7494,00
737,56	7430,00
743,79	7421,00
750,02	7556,00
756,24	7401,00
762,46	7445,00
768,67	7698,00
774,87	7682,00
781,06	7633,00
787,25	7673,00
793,43	7708,00
799,60	7585,00
805,77	7638,00
811,93	7728,00
818,08	7656,00
824,23	7730,00
830,37	7808,00
836,50	7815,00
842,63	7824,00
848,75	7808,00
854,87	7598,00
860,97	7614,00
867,07	7779,00
873,17	7823,00
879,25	7687,00
885,33	7618,00
891,41	7729,00
897,47	7547,00
903,53	7746,00
909,59	7694,00
915,63	7861,00
921,67	7724,00
927,71	7667,00
933,74	7770,00
939,76	7620,00
945,77	7677,00
951,78	7686,00
957,78	7683,00
963,78	7608,00
969,77	7745,00
975,75	7693,00
981,72	7822,00
987,69	8101,00
993,66	7982,00
999,61	7950,00
1005,56	8000,00
1011,51	7937,00
1017,44	8184,00
1023,37	8070,00
1029,30	7971,00
1035,22	8238,00
1041,13	8190,00
1047,03	8083,00
1052,93	8624,00
1058,83	9321,00
1064,71	9737,00
1070,59	9219,00
1076,47	8811,00
1082,33	8554,00
1088,20	8539,00
1094,05	8460,00
1099,90	8377,00
1105,74	8419,00
1111,58	8556,00
1117,41	8555,00
1123,23	9400,00
1129,05	10162,00
1134,86	9964,00
1140,67	9196,00
1146,47	8598,00
1152,26	8538,00
1158,05	8439,00
1163,83	8548,00
1169,60	8514,00
1175,37	8466,00
1181,13	8414,00
1186,89	8172,00
1192,64	8292,00
1198,38	8393,00
1204,12	8329,00
1209,85	8424,00
1215,58	8594,00
1221,30	8530,00
1227,02	8549,00
1232,72	8681,00
1238,43	8524,00
1244,12	8543,00
1249,81	8395,00
1255,50	8588,00
1261,17	8602,00
1266,85	8620,00
1272,51	8703,00
1278,17	8878,00
1283,83	9056,00
1289,47	9929,00
1295,12	11074,00
1300,75	10794,00
1306,38	9741,00
1312,01	9209,00
1317,63	9010,00
1323,24	8835,00
1328,85	8776,00
1334,45	8845,00
1340,04	8684,00
1345,63	8691,00
1351,22	8894,00
1356,80	8747,00
1362,37	8816,00
1367,93	8917,00
1373,49	8895,00
1379,05	8872,00
1384,60	8924,00
1390,14	8903,00
1395,68	8932,00
1401,21	8961,00
1406,74	9115,00
1412,26	9475,00
1417,77	9960,00
1423,28	9794,00
1428,78	9876,00
1434,28	10662,00
1439,77	11072,00
1445,26	11102,00
1450,74	10645,00
1456,22	10414,00
1461,68	10251,00
1467,15	10172,00
1472,61	9552,00
1478,06	9325,00
1483,51	9109,00
1488,95	8595,00
1494,38	8606,00
1499,81	8453,00
1505,24	8539,00
1510,65	8467,00
1516,07	8387,00
1521,48	8320,00
1526,88	8262,00
1532,27	8231,00
1537,67	8202,00
1543,05	8392,00
1548,43	8271,00
1553,81	8188,00
1559,18	8186,00
1564,54	8210,00
1569,90	8324,00
1575,25	8107,00
1580,60	8324,00
1585,94	8216,00
1591,28	8284,00
1596,61	8190,00
1601,93	8065,00
1607,25	8160,00
1612,57	8296,00
1617,88	7929,00
1623,18	8108,00
1628,48	7984,00
1633,77	7982,00
1639,06	8023,00
1644,34	7742,00
1649,62	7853,00
1654,89	7967,00
1660,16	7731,00
1665,42	7910,00
1670,67	7796,00
1675,92	7780,00
1681,17	7765,00
1686,41	7714,00
1691,64	7692,00
1696,87	7441,00
1702,10	7650,00
1707,32	7650,00
1712,53	7490,00
1717,74	7436,00
1722,94	7501,00
1728,14	7537,00
1733,33	7310,00
1738,52	7208,00
1743,70	7375,00
1748,88	7245,00
1754,05	7352,00
1759,22	7141,00
1764,38	7312,00
1769,53	7126,00
1774,69	7255,00
1779,83	7083,00
1784,97	7029,00
1790,11	7117,00
1795,24	6977,00
1800,36	6979,00
1805,48	7019,00
1810,60	6922,00
1815,71	7097,00
1820,82	6946,00
1825,92	7073,00
1831,01	7145,00
1836,10	7022,00
1841,19	7083,00
1846,26	6991,00
1851,34	7107,00
1856,41	7035,00
1861,47	7105,00
1866,53	7146,00
1871,59	6972,00
1876,64	6837,00
1881,68	7064,00
1886,72	6870,00
1891,76	6771,00
1896,79	6823,00
1901,81	6640,00
1906,83	6692,00
1911,85	6713,00
1916,86	6600,00
1921,86	6477,00
1926,86	6527,00
1931,86	6414,00
1936,85	6375,00
1941,83	6364,00
1946,81	6229,00
1951,79	6332,00
1956,76	6183,00
1961,72	6151,00
1966,68	6115,00
1971,64	6193,00
1976,59	6177,00
1981,54	5988,00
1986,48	5975,00
1991,42	6053,00
1996,35	6144,00
2001,27	6037,00
2006,20	6033,00
2011,11	6079,00
2016,03	5840,00
2020,93	5971,00
2025,84	6027,00
2030,73	5873,00
2035,63	5851,00
2040,52	5945,00
2045,40	5808,00
2050,28	5775,00
2055,15	5884,00
2060,02	5753,00
2064,89	5736,00
2069,75	5940,00
2074,60	5848,00
2079,46	5737,00
2084,30	5701,00
2089,14	5739,00
2093,98	5810,00
2098,81	5935,00
2103,64	5849,00
2108,46	5871,00
2113,28	5815,00
2118,09	5801,00
2122,90	5852,00
2127,70	5592,00
2132,50	5706,00
2137,30	5678,00
2142,09	5641,00
2146,87	5447,00
2151,66	5562,00
2156,43	5471,00
2161,20	5506,00
2165,97	5487,00
2170,73	5360,00
2175,49	5395,00
2180,24	5512,00
2184,99	5420,00
2189,74	5383,00
2194,48	5416,00
2199,21	5313,00
2203,94	5159,00
2208,67	5347,00
2213,39	5129,00
2218,11	5096,00
2222,82	5143,00
2227,53	5095,00
2232,23	5049,00
2236,93	5077,00
2241,63	5109,00
2246,32	4996,00
2251,00	5022,00
2255,68	5078,00
2260,36	5062,00
2265,03	5103,00
2269,70	4968,00
2274,36	5009,00
2279,02	4959,00
2283,68	4905,00
2288,33	4845,00
2292,97	4840,00
2297,61	4881,00
2302,25	4946,00
2306,88	4734,00
2311,51	4808,00
2316,14	4720,00
2320,75	4679,00
2325,37	4686,00
2329,98	4830,00
2334,59	4627,00
2339,19	4650,00
2343,79	4612,00
2348,38	4528,00
2352,97	4473,00
2357,55	4548,00
2362,13	4657,00
2366,71	4467,00
2371,28	4541,00
2375,85	4464,00
2380,41	4435,00
2384,97	4388,00
2389,52	4303,00
2394,07	4358,00
2398,62	4323,00
2403,16	4269,00
2407,70	4170,00
2412,23	4186,00
2416,76	4290,00
2421,29	4100,00
2425,81	4124,00
2430,32	4137,00
2434,84	4102,00
2439,34	4141,00
2443,85	4072,00
2448,35	4081,00
2452,84	3945,00
2457,33	4022,00
2461,82	3888,00
2466,30	3880,00
2470,78	3870,00
2475,25	3920,00
2479,72	3811,00
2484,19	3784,00
2488,65	3812,00
2493,11	3696,00
2497,56	3723,00
2502,01	3686,00
2506,46	3731,00
2510,90	3737,00
2515,34	3741,00
2519,77	3700,00
2524,20	3754,00
2528,62	3724,00
2533,04	3648,00
2537,46	3622,00
2541,87	3502,00
2546,28	3597,00
2550,68	3487,00
2555,08	3540,00
2559,48	3503,00
2563,87	3463,00
2568,26	3517,00
2572,64	3440,00
2577,02	3561,00
2581,40	3330,00
2585,77	3365,00
2590,14	3314,00
2594,50	3285,00
2598,86	3281,00
2603,22	3226,00
2607,57	3315,00
2611,92	3087,00
2616,26	3205,00
2620,60	3241,00
2624,94	3190,00
2629,27	3273,00
2633,60	3198,00
2637,92	3166,00
2642,24	3217,00
2646,56	3043,00
2650,87	3144,00
2655,18	3201,00
2659,48	3075,00
2663,78	3067,00
2668,08	3031,00
2672,37	3082,00
2676,66	3141,00
2680,95	3122,00
2685,23	3018,00
2689,50	3094,00
2693,78	2948,00
2698,05	3071,00
2702,31	2903,00
2706,57	3128,00
2710,83	3128,00
2715,08	3135,00
2719,33	3284,00
2723,58	3180,00
2727,82	3194,00
2732,06	3101,00
2736,29	3148,00
2740,53	3102,00
2744,75	2987,00
2748,97	3049,00
2753,19	2898,00
2757,41	2888,00
2761,62	2892,00
2765,83	2867,00
2770,03	2891,00
2774,23	3007,00
2778,43	2823,00
2782,62	2804,00
2786,81	2991,00
2791,00	2825,00
2795,18	2969,00
2799,35	2961,00
2803,53	3039,00
2807,70	3003,00
2811,86	3038,00
2816,03	3113,00
2820,19	3100,00
2824,34	3178,00
2828,49	3384,00
2832,64	3760,00
2836,78	3982,00
2840,92	4464,00
2845,06	5027,00
2849,19	5516,00
2853,32	5730,00
2857,45	5568,00
2861,57	5486,00
2865,69	5326,00
2869,80	5150,00
2873,91	5294,00
2878,02	5585,00
2882,12	5871,00
2886,22	5782,00
2890,32	5680,00
2894,41	5299,00
2898,50	4889,00
2902,58	4568,00
2906,67	4425,00
2910,74	4089,00
2914,82	4029,00
2918,89	3833,00
2922,96	3588,00
2927,02	3485,00
2931,08	3478,00
2935,13	3227,00
2939,19	3143,00
2943,24	2974,00
2947,28	2818,00
2951,32	2609,00
2955,36	2528,00
2959,40	2517,00
2963,43	2482,00
2967,46	2207,00
2971,48	2238,00
2975,50	2155,00
2979,52	2128,00
2983,53	2101,00
2987,54	1954,00
2991,55	1975,00
2995,55	1960,00
2999,55	1909,00
3003,54	1899,00
3007,54	1925,00
3011,53	1766,00
3015,51	1721,00
3019,49	1743,00
3023,47	1796,00
3027,45	1727,00
3031,42	1753,00
3035,39	1678,00
3039,35	1742,00
3043,31	1680,00
3047,27	1514,00
3051,22	1705,00
3055,17	1630,00
3059,12	1558,00
3063,06	1602,00
3067,00	1542,00
3070,94	1479,00
3074,87	1476,00
3078,80	1614,00
3082,73	1474,00
3086,65	1388,00
3090,57	1515,00
3094,49	1579,00
3098,40	1528,00
3102,31	1417,00
3106,22	1363,00
3110,12	1472,00
3114,02	1384,00
3117,92	1405,00
3121,81	1281,00
3125,70	1275,00
3129,58	1286,00
3133,47	1279,00
3137,34	1246,00
3141,22	1275,00
3145,09	1323,00
3148,96	1261,00
3152,83	1245,00
3156,69	1297,00
3160,55	1262,00
3164,40	1219,00
3168,26	1265,00
3172,10	1203,00
3175,95	1320,00
3179,79	1234,00
3183,63	1219,00
3187,47	1204,00
3191,30	1263,00
3195,13	1242,00
3198,95	1076,00
3202,78	1098,00
3206,60	1174,00
3210,41	1044,00
3214,23	1166,00
3218,03	975,00
3221,84	916,00
3225,64	1085,00
3229,44	1007,00
3233,24	1025,00
3237,03	1105,00
3240,82	1061,00
3244,61	1000,00
3248,39	955,00
3252,17	955,00
3255,95	1075,00
3259,72	1030,00
3263,49	980,00
3267,26	961,00
3271,03	1049,00
3274,79	860,00
3278,54	892,00
3282,30	868,00
3286,05	1013,00
3289,80	999,00
3293,54	848,00
3297,29	893,00
3301,02	889,00
3304,76	896,00
3308,49	953,00
3312,22	805,00
3315,95	891,00
3319,67	879,00
3323,39	1030,00
3327,10	821,00
3330,82	942,00
3334,53	878,00
3338,24	775,00
3341,94	816,00
3345,64	716,00
3349,34	879,00
3353,03	780,00
3356,72	852,00
3360,41	797,00
3364,10	791,00
3367,78	723,00
3371,46	790,00
3375,13	696,00
3378,81	739,00
3382,48	774,00
3386,14	820,00
3389,81	757,00
3393,47	737,00
3397,12	710,00
3400,78	750,00
3404,43	652,00
3408,08	840,00
3411,72	691,00
3415,36	650,00
3419,00	708,00
3422,64	670,00
3426,27	698,00
3429,90	663,00
3433,53	689,00
3437,15	667,00
3440,77	623,00
3444,39	734,00
3448,00	680,00
3451,62	579,00
3455,22	636,00
3458,83	655,00
3462,43	600,00
3466,03	698,00
3469,63	534,00
3473,22	582,00
3476,81	592,00
3480,40	558,00
3483,99	570,00
3487,57	695,00
3491,15	576,00
3494,72	564,00
3498,29	448,00
3501,86	559,00
3505,43	605,00
3508,99	577,00
3512,56	557,00
3516,11	616,00
3519,67	545,00
3523,22	627,00
3526,77	422,00
3530,32	479,00
3533,86	551,00
3537,40	511,00
3540,94	441,00
3544,47	432,00
3548,00	546,00
3551,53	640,00
3555,06	536,00
3558,58	659,00
3562,10	512,00
3565,62	482,00
3569,13	611,00
3572,64	456,00
3576,15	492,00
3579,66	570,00
3583,16	412,00
3586,66	416,00
3590,16	497,00
3593,65	390,00
3597,14	342,00
3600,63	416,00
3604,11	534,00
3607,60	393,00
3611,08	531,00
3614,55	357,00
3618,03	402,00
3621,50	406,00
3624,97	423,00
3628,43	470,00
3631,90	392,00
3635,36	445,00
3638,81	423,00
3642,27	509,00
3645,72	453,00
3649,17	488,00
3652,61	406,00
3656,06	393,00
3659,50	347,00
3662,93	377,00
3666,37	494,00
3669,80	338,00
3673,23	346,00
3676,65	404,00
3680,08	467,00
3683,50	410,00
3686,92	468,00
3690,33	269,00
3693,74	358,00
3697,15	406,00
3700,56	364,00
3703,96	488,00
3707,36	397,00
3710,76	320,00
3714,16	316,00
3717,55	363,00
3720,94	409,00
3724,33	344,00
3727,71	450,00
3731,10	379,00
3734,48	324,00
3737,85	380,00
3741,23	455,00
3744,60	285,00
3747,97	401,00
3751,33	373,00
3754,69	307,00
3758,05	431,00
3761,41	286,00
3764,77	285,00
3768,12	290,00
3771,47	237,00
3774,82	285,00
3778,16	-7,00
3781,50	8,00
3784,84	12,00
3788,18	4,00
>>>>>End Processed Spectral Data<<<<<
