SpectraSuite Data File
++++++++++++++++++++++++++++++++++++
Date: Mon Mar 09 14:38:20 ICT 2026
User: Administrator
Dark Spectrum Present: Yes
Reference Spectrum Present: No
Number of Sampled Component Spectra: 1
Spectrometers: MAYP113682
Integration Time (usec): 3000000 (MAYP113682)
Spectra Averaged: 1 (MAYP113682)
Boxcar Smoothing: 0 (MAYP113682)
Correct for Electrical Dark: No (MAYP113682)
Strobe/Lamp Enabled: No (MAYP113682)
Correct for Detector Non-linearity: No (MAYP113682)
Correct for Stray Light: No (MAYP113682)
Number of Pixels in Processed Spectrum: 2068
>>>>>Begin Processed Spectral Data<<<<<
-37534,58	14,00
-37414,56	-7,00
-37295,11	-3,00
-37176,24	3,00
-37057,95	136,00
-36940,22	118,00
-36823,05	213,00
-36706,45	282,00
-36590,40	128,00
-36474,90	266,00
-36359,95	249,00
-36245,55	257,00
-36131,68	249,00
-36018,35	193,00
-35905,55	218,00
-35793,29	197,00
-35681,54	271,00
-35570,32	172,00
-35459,62	183,00
-35349,43	238,00
-35239,75	176,00
-35130,58	192,00
-35021,91	175,00
-34913,74	259,00
-34806,07	264,00
-34698,89	235,00
-34592,20	205,00
-34486,00	297,00
-34380,28	148,00
-34275,04	257,00
-34170,27	226,00
-34065,98	258,00
-33962,16	233,00
-33858,81	181,00
-33755,92	247,00
-33653,49	341,00
-33551,52	309,00
-33450,01	188,00
-33348,94	192,00
-33248,33	272,00
-33148,16	170,00
-33048,43	155,00
-32949,14	311,00
-32850,29	196,00
-32751,87	249,00
-32653,89	258,00
-32556,33	282,00
-32459,20	360,00
-32362,49	167,00
-32266,19	229,00
-32170,32	188,00
-32074,86	234,00
-31979,82	349,00
-31885,18	425,00
-31790,95	393,00
-31697,12	187,00
-31603,69	256,00
-31510,67	281,00
-31418,04	182,00
-31325,80	281,00
-31233,95	257,00
-31142,49	159,00
-31051,42	248,00
-30960,73	200,00
-30870,43	208,00
-30780,50	221,00
-30690,95	207,00
-30601,77	325,00
-30512,97	190,00
-30424,53	198,00
-30336,46	260,00
-30248,76	272,00
-30161,42	296,00
-30074,44	257,00
-29987,81	260,00
-29901,55	353,00
-29815,63	182,00
-29730,07	218,00
-29644,86	261,00
-29560,00	222,00
-29475,48	200,00
-29391,30	380,00
-29307,47	264,00
-29223,97	268,00
-29140,81	221,00
-29057,99	295,00
-28975,50	215,00
-28893,34	311,00
-28811,51	244,00
-28730,00	261,00
-28648,82	194,00
-28567,97	235,00
-28487,43	260,00
-28407,21	194,00
-28327,32	201,00
-28247,73	208,00
-28168,46	218,00
-28089,50	315,00
-28010,85	172,00
-27932,51	191,00
-27854,48	334,00
-27776,75	251,00
-27699,32	270,00
-27622,19	280,00
-27545,37	255,00
-27468,84	250,00
-27392,60	220,00
-27316,66	219,00
-27241,01	128,00
-27165,66	311,00
-27090,59	323,00
-27015,81	182,00
-26941,31	329,00
-26867,10	284,00
-26793,17	224,00
-26719,52	249,00
-26646,15	292,00
-26573,06	257,00
-26500,24	244,00
-26427,70	256,00
-26355,43	282,00
-26283,43	317,00
-26211,71	266,00
-26140,25	290,00
-26069,06	336,00
-25998,13	59,00
-25927,46	221,00
-25857,06	282,00
-25786,92	194,00
-25717,04	251,00
-25647,42	142,00
-25578,05	239,00
-25508,94	236,00
-25440,09	248,00
-25371,48	236,00
-25303,13	157,00
-25235,02	253,00
-25167,17	275,00
-25099,56	274,00
-25032,19	211,00
-24965,07	217,00
-24898,20	216,00
-24831,56	274,00
-24765,17	237,00
-24699,01	198,00
-24633,10	198,00
-24567,41	215,00
-24501,97	214,00
-24436,75	192,00
-24371,77	196,00
-24307,03	205,00
-24242,51	134,00
-24178,22	256,00
-24114,16	157,00
-24050,32	225,00
-23986,71	230,00
-23923,32	234,00
-23860,16	217,00
-23797,22	216,00
-23734,50	272,00
-23672,00	226,00
-23609,71	197,00
-23547,65	238,00
-23485,80	227,00
-23424,16	225,00
-23362,74	300,00
-23301,53	216,00
-23240,54	179,00
-23179,75	265,00
-23119,17	332,00
-23058,80	230,00
-22998,64	215,00
-22938,68	201,00
-22878,93	228,00
-22819,39	329,00
-22760,04	287,00
-22700,90	144,00
-22641,96	270,00
-22583,22	236,00
-22524,68	278,00
-22466,33	120,00
-22408,19	258,00
-22350,23	234,00
-22292,48	296,00
-22234,92	197,00
-22177,55	316,00
-22120,37	275,00
-22063,38	191,00
-22006,58	148,00
-21949,98	230,00
-21893,56	128,00
-21837,33	183,00
-21781,28	226,00
-21725,42	220,00
-21669,74	278,00
-21614,25	269,00
-21558,94	176,00
-21503,81	240,00
-21448,86	243,00
-21394,10	177,00
-21339,51	219,00
-21285,10	200,00
-21230,86	212,00
-21176,81	244,00
-21122,93	192,00
-21069,22	284,00
-21015,69	277,00
-20962,33	194,00
-20909,14	261,00
-20856,13	224,00
-20803,28	197,00
-20750,61	210,00
-20698,10	229,00
-20645,76	293,00
-20593,59	347,00
-20541,59	148,00
-20489,75	268,00
-20438,07	265,00
-20386,56	263,00
-20335,22	278,00
-20284,03	233,00
-20233,01	322,00
-20182,15	127,00
-20131,45	141,00
-20080,91	210,00
-20030,52	182,00
-19980,30	188,00
-19930,23	186,00
-19880,32	178,00
-19830,56	282,00
-19780,96	189,00
-19731,52	195,00
-19682,23	209,00
-19633,09	192,00
-19584,10	164,00
-19535,26	227,00
-19486,58	190,00
-19438,04	216,00
-19389,66	158,00
-19341,42	280,00
-19293,33	203,00
-19245,39	168,00
-19197,60	162,00
-19149,95	238,00
-19102,45	284,00
-19055,09	212,00
-19007,87	207,00
-18960,80	270,00
-18913,87	231,00
-18867,09	255,00
-18820,44	251,00
-18773,94	255,00
-18727,57	275,00
-18681,35	222,00
-18635,26	179,00
-18589,31	179,00
-18543,50	121,00
-18497,83	272,00
-18452,29	328,00
-18406,89	245,00
-18361,63	341,00
-18316,50	238,00
-18271,50	250,00
-18226,63	183,00
-18181,90	249,00
-18137,30	272,00
-18092,84	165,00
-18048,50	297,00
-18004,29	143,00
-17960,22	180,00
-17916,27	193,00
-17872,45	200,00
-17828,76	292,00
-17785,20	207,00
-17741,77	292,00
-17698,46	245,00
-17655,28	220,00
-17612,22	280,00
-17569,29	212,00
-17526,48	221,00
-17483,79	184,00
-17441,23	243,00
-17398,79	286,00
-17356,48	227,00
-17314,28	284,00
-17272,21	216,00
-17230,26	184,00
-17188,42	228,00
-17146,71	184,00
-17105,12	261,00
-17063,64	175,00
-17022,28	244,00
-16981,04	213,00
-16939,92	210,00
-16898,91	297,00
-16858,02	336,00
-16817,25	174,00
-16776,59	177,00
-16736,04	253,00
-16695,61	205,00
-16655,29	241,00
-16615,09	253,00
-16574,99	261,00
-16535,01	178,00
-16495,15	192,00
-16455,39	279,00
-16415,74	253,00
-16376,21	196,00
-16336,78	185,00
-16297,46	353,00
-16258,26	280,00
-16219,16	282,00
-16180,17	204,00
-16141,28	252,00
-16102,51	205,00
-16063,84	277,00
-16025,27	333,00
-15986,82	131,00
-15948,46	190,00
-15910,22	296,00
-15872,07	189,00
-15834,04	229,00
-15796,10	201,00
-15758,27	214,00
-15720,54	252,00
-15682,91	263,00
-15645,39	230,00
-15607,97	226,00
-15570,64	167,00
-15533,42	194,00
-15496,30	235,00
-15459,28	282,00
-15422,36	201,00
-15385,54	239,00
-15348,82	324,00
-15312,19	222,00
-15275,66	206,00
-15239,23	177,00
-15202,90	158,00
-15166,67	216,00
-15130,53	199,00
-15094,48	252,00
-15058,54	278,00
-15022,68	180,00
-14986,93	277,00
-14951,26	234,00
-14915,69	152,00
-14880,22	235,00
-14844,84	326,00
-14809,55	248,00
-14774,35	219,00
-14739,25	332,00
-14704,24	233,00
-14669,32	289,00
-14634,49	206,00
-14599,75	268,00
-14565,10	188,00
-14530,55	228,00
-14496,08	270,00
-14461,70	243,00
-14427,41	259,00
-14393,21	170,00
-14359,10	183,00
-14325,07	306,00
-14291,14	204,00
-14257,29	246,00
-14223,52	290,00
-14189,85	258,00
-14156,26	319,00
-14122,76	298,00
-14089,34	139,00
-14056,01	226,00
-14022,76	224,00
-13989,60	388,00
-13956,52	267,00
-13923,53	200,00
-13890,62	275,00
-13857,79	227,00
-13825,05	224,00
-13792,39	176,00
-13759,81	226,00
-13727,31	270,00
-13694,90	258,00
-13662,57	200,00
-13630,31	245,00
-13598,14	128,00
-13566,05	272,00
-13534,05	322,00
-13502,12	153,00
-13470,27	269,00
-13438,50	281,00
-13406,80	203,00
-13375,19	211,00
-13343,66	219,00
-13312,20	214,00
-13280,83	151,00
-13249,53	232,00
-13218,30	165,00
-13187,16	142,00
-13156,09	241,00
-13125,10	248,00
-13094,18	257,00
-13063,34	235,00
-13032,58	179,00
-13001,89	304,00
-12971,28	191,00
-12940,74	248,00
-12910,27	261,00
-12879,88	183,00
-12849,57	254,00
-12819,33	167,00
-12789,16	219,00
-12759,06	170,00
-12729,04	246,00
-12699,09	553,00
-12669,21	312,00
-12639,41	152,00
-12609,68	216,00
-12580,02	224,00
-12550,43	269,00
-12520,91	181,00
-12491,46	245,00
-12462,08	253,00
-12432,77	178,00
-12403,54	221,00
-12374,37	251,00
-12345,27	217,00
-12316,24	263,00
-12287,29	326,00
-12258,40	223,00
-12229,57	331,00
-12200,82	254,00
-12172,14	205,00
-12143,52	209,00
-12114,97	189,00
-12086,49	179,00
-12058,07	222,00
-12029,73	258,00
-12001,44	286,00
-11973,23	204,00
-11945,08	218,00
-11917,00	238,00
-11888,98	252,00
-11861,03	238,00
-11833,15	295,00
-11805,32	247,00
-11777,57	255,00
-11749,88	267,00
-11722,25	200,00
-11694,69	228,00
-11667,19	233,00
-11639,75	123,00
-11612,38	231,00
-11585,07	264,00
-11557,83	248,00
-11530,65	317,00
-11503,53	339,00
-11476,47	300,00
-11449,48	183,00
-11422,54	153,00
-11395,67	218,00
-11368,86	153,00
-11342,11	283,00
-11315,43	211,00
-11288,80	132,00
-11262,23	333,00
-11235,73	161,00
-11209,28	203,00
-11182,90	208,00
-11156,57	300,00
-11130,31	276,00
-11104,10	260,00
-11077,96	287,00
-11051,87	216,00
-11025,84	238,00
-10999,87	216,00
-10973,96	286,00
-10948,11	221,00
-10922,31	169,00
-10896,58	223,00
-10870,90	175,00
-10845,28	227,00
-10819,71	206,00
-10794,20	135,00
-10768,75	285,00
-10743,36	129,00
-10718,02	240,00
-10692,74	265,00
-10667,52	153,00
-10642,35	245,00
-10617,24	246,00
-10592,18	264,00
-10567,18	218,00
-10542,23	205,00
-10517,34	220,00
-10492,51	225,00
-10467,72	360,00
-10443,00	228,00
-10418,32	255,00
-10393,70	230,00
-10369,14	152,00
-10344,63	228,00
-10320,17	195,00
-10295,77	215,00
-10271,42	248,00
-10247,12	204,00
-10222,88	288,00
-10198,68	225,00
-10174,54	146,00
-10150,46	290,00
-10126,42	234,00
-10102,44	331,00
-10078,51	216,00
-10054,63	176,00
-10030,80	160,00
-10007,03	240,00
-9983,30	299,00
-9959,63	242,00
-9936,01	257,00
-9912,44	306,00
-9888,92	281,00
-9865,44	215,00
-9842,02	341,00
-9818,65	271,00
-9795,33	300,00
-9772,06	352,00
-9748,84	216,00
-9725,67	275,00
-9702,55	266,00
-9679,47	340,00
-9656,45	281,00
-9633,47	252,00
-9610,55	288,00
-9587,67	336,00
-9564,84	359,00
-9542,06	305,00
-9519,32	333,00
-9496,64	376,00
-9474,00	230,00
-9451,41	303,00
-9428,87	387,00
-9406,37	360,00
-9383,92	368,00
-9361,52	333,00
-9339,17	329,00
-9316,86	266,00
-9294,60	300,00
-9272,38	468,00
-9250,21	294,00
-9228,09	381,00
-9206,01	486,00
-9183,98	367,00
-9162,00	299,00
-9140,06	299,00
-9118,16	264,00
-9096,31	477,00
-9074,51	423,00
-9052,75	480,00
-9031,04	485,00
-9009,37	329,00
-8987,74	353,00
-8966,16	383,00
-8944,63	278,00
-8923,14	274,00
-8901,69	300,00
-8880,29	342,00
-8858,93	358,00
-8837,61	419,00
-8816,34	463,00
-8795,11	408,00
-8773,92	392,00
-8752,78	454,00
-8731,68	324,00
-8710,62	338,00
-8689,61	232,00
-8668,63	319,00
-8647,70	539,00
-8626,82	370,00
-8605,97	450,00
-8585,17	329,00
-8564,41	213,00
-8543,69	328,00
-8523,01	324,00
-8502,37	419,00
-8481,78	358,00
-8461,23	273,00
-8440,71	272,00
-8420,24	302,00
-8399,81	338,00
-8379,42	353,00
-8359,08	317,00
-8338,77	310,00
-8318,50	385,00
-8298,27	313,00
-8278,09	330,00
-8257,94	275,00
-8237,83	419,00
-8217,76	391,00
-8197,74	378,00
-8177,75	401,00
-8157,80	379,00
-8137,89	417,00
-8118,02	296,00
-8098,19	444,00
-8078,40	419,00
-8058,65	306,00
-8038,93	406,00
-8019,26	451,00
-7999,62	340,00
-7980,02	340,00
-7960,46	336,00
-7940,94	388,00
-7921,46	366,00
-7902,01	269,00
-7882,60	415,00
-7863,23	388,00
-7843,90	324,00
-7824,61	292,00
-7805,35	268,00
-7786,13	388,00
-7766,95	344,00
-7747,80	302,00
-7728,69	311,00
-7709,62	330,00
-7690,59	385,00
-7671,59	375,00
-7652,63	411,00
-7633,70	246,00
-7614,81	311,00
-7595,96	306,00
-7577,15	288,00
-7558,37	297,00
-7539,62	325,00
-7520,91	323,00
-7502,24	296,00
-7483,60	323,00
-7465,00	384,00
-7446,44	324,00
-7427,91	327,00
-7409,41	332,00
-7390,95	245,00
-7372,53	200,00
-7354,14	297,00
-7335,78	288,00
-7317,46	315,00
-7299,18	353,00
-7280,92	346,00
-7262,71	341,00
-7244,52	341,00
-7226,38	369,00
-7208,26	412,00
-7190,18	417,00
-7172,14	353,00
-7154,12	319,00
-7136,15	289,00
-7118,20	354,00
-7100,29	331,00
-7082,41	386,00
-7064,57	275,00
-7046,76	287,00
-7028,98	268,00
-7011,24	375,00
-6993,53	226,00
-6975,85	287,00
-6958,20	197,00
-6940,59	173,00
-6923,01	206,00
-6905,46	406,00
-6887,94	243,00
-6870,46	428,00
-6853,01	318,00
-6835,59	310,00
-6818,21	306,00
-6800,85	320,00
-6783,53	311,00
-6766,24	215,00
-6748,98	262,00
-6731,76	217,00
-6714,56	86,00
-6697,40	163,00
-6680,26	199,00
-6663,16	212,00
-6646,09	211,00
-6629,05	228,00
-6612,05	376,00
-6595,07	258,00
-6578,13	264,00
-6561,21	290,00
-6544,33	221,00
-6527,47	165,00
-6510,65	276,00
-6493,86	223,00
-6477,10	139,00
-6460,36	158,00
-6443,66	132,00
-6426,99	265,00
-6410,35	101,00
-6393,74	238,00
-6377,16	177,00
-6360,61	196,00
-6344,09	202,00
-6327,59	226,00
-6311,13	90,00
-6294,70	325,00
-6278,29	290,00
-6261,92	298,00
-6245,58	220,00
-6229,26	370,00
-6212,97	266,00
-6196,72	226,00
-6180,49	330,00
-6164,29	114,00
-6148,12	256,00
-6131,98	179,00
-6115,86	274,00
-6099,78	72,00
-6083,72	224,00
-6067,69	189,00
-6051,69	234,00
-6035,72	250,00
-6019,78	280,00
-6003,87	323,00
-5987,98	234,00
-5972,12	379,00
-5956,29	298,00
-5940,49	203,00
-5924,71	217,00
-5908,96	172,00
-5893,24	248,00
-5877,55	158,00
-5861,89	286,00
-5846,25	170,00
-5830,64	251,00
-5815,05	135,00
-5799,50	243,00
-5783,97	229,00
-5768,47	284,00
-5752,99	199,00
-5737,55	295,00
-5722,12	212,00
-5706,73	238,00
-5691,36	262,00
-5676,02	156,00
-5660,71	255,00
-5645,42	249,00
-5630,16	182,00
-5614,92	165,00
-5599,71	180,00
-5584,53	227,00
-5569,37	152,00
-5554,24	953,00
-5539,14	213,00
-5524,06	218,00
-5509,01	187,00
-5493,98	212,00
-5478,98	276,00
-5464,00	202,00
-5449,05	99,00
-5434,13	232,00
-5419,23	256,00
-5404,36	167,00
-5389,51	334,00
-5374,69	215,00
-5359,89	219,00
-5345,12	251,00
-5330,37	224,00
-5315,65	387,00
-5300,95	262,00
-5286,28	236,00
-5271,63	170,00
-5257,01	305,00
-5242,41	240,00
-5227,84	226,00
-5213,29	292,00
-5198,76	257,00
-5184,26	121,00
-5169,79	248,00
-5155,33	365,00
-5140,91	212,00
-5126,51	238,00
-5112,13	284,00
-5097,77	317,00
-5083,44	296,00
-5069,13	157,00
-5054,85	252,00
-5040,59	223,00
-5026,36	270,00
-5012,15	308,00
-4997,96	231,00
-4983,80	223,00
-4969,66	264,00
-4955,54	284,00
-4941,44	217,00
-4927,37	301,00
-4913,33	250,00
-4899,30	170,00
-4885,30	239,00
-4871,33	202,00
-4857,37	237,00
-4843,44	280,00
-4829,53	258,00
-4815,65	272,00
-4801,79	177,00
-4787,95	178,00
-4774,13	232,00
-4760,34	235,00
-4746,56	221,00
-4732,82	205,00
-4719,09	219,00
-4705,38	334,00
-4691,70	252,00
-4678,04	171,00
-4664,41	204,00
-4650,79	304,00
-4637,20	215,00
-4623,63	177,00
-4610,08	252,00
-4596,56	244,00
-4583,05	190,00
-4569,57	198,00
-4556,11	263,00
-4542,67	217,00
-4529,25	184,00
-4515,86	342,00
-4502,49	280,00
-4489,13	231,00
-4475,80	262,00
-4462,49	153,00
-4449,21	277,00
-4435,94	241,00
-4422,70	248,00
-4409,47	219,00
-4396,27	287,00
-4383,09	258,00
-4369,93	201,00
-4356,79	245,00
-4343,67	222,00
-4330,58	204,00
-4317,50	164,00
-4304,45	242,00
-4291,41	246,00
-4278,40	199,00
-4265,41	233,00
-4252,44	274,00
-4239,49	245,00
-4226,55	217,00
-4213,65	312,00
-4200,76	303,00
-4187,89	219,00
-4175,04	233,00
-4162,21	286,00
-4149,40	234,00
-4136,61	172,00
-4123,85	179,00
-4111,10	265,00
-4098,37	276,00
-4085,66	296,00
-4072,98	301,00
-4060,31	145,00
-4047,66	299,00
-4035,04	203,00
-4022,43	263,00
-4009,84	388,00
-3997,27	240,00
-3984,72	279,00
-3972,19	241,00
-3959,69	201,00
-3947,20	194,00
-3934,73	318,00
-3922,27	177,00
-3909,84	261,00
-3897,43	160,00
-3885,04	205,00
-3872,67	168,00
-3860,31	227,00
-3847,98	254,00
-3835,66	237,00
-3823,36	272,00
-3811,09	96,00
-3798,83	256,00
-3786,59	229,00
-3774,37	236,00
-3762,17	200,00
-3749,98	249,00
-3737,82	170,00
-3725,67	236,00
-3713,55	168,00
-3701,44	271,00
-3689,35	258,00
-3677,28	257,00
-3665,22	199,00
-3653,19	148,00
-3641,17	209,00
-3629,18	200,00
-3617,20	223,00
-3605,24	167,00
-3593,30	296,00
-3581,37	282,00
-3569,47	252,00
-3557,58	327,00
-3545,71	234,00
-3533,86	272,00
-3522,02	290,00
-3510,21	220,00
-3498,41	175,00
-3486,63	180,00
-3474,87	208,00
-3463,12	187,00
-3451,40	121,00
-3439,69	267,00
-3428,00	261,00
-3416,33	234,00
-3404,67	293,00
-3393,03	221,00
-3381,41	239,00
-3369,81	268,00
-3358,22	218,00
-3346,66	182,00
-3335,10	199,00
-3323,57	208,00
-3312,06	174,00
-3300,56	201,00
-3289,08	142,00
-3277,61	299,00
-3266,16	219,00
-3254,73	242,00
-3243,32	229,00
-3231,92	256,00
-3220,55	262,00
-3209,18	220,00
-3197,84	218,00
-3186,51	220,00
-3175,20	200,00
-3163,90	234,00
-3152,63	250,00
-3141,36	146,00
-3130,12	190,00
-3118,89	279,00
-3107,68	310,00
-3096,49	233,00
-3085,31	251,00
-3074,15	218,00
-3063,00	196,00
-3051,87	285,00
-3040,76	241,00
-3029,67	187,00
-3018,59	266,00
-3007,52	239,00
-2996,48	248,00
-2985,44	77,00
-2974,43	137,00
-2963,43	224,00
-2952,45	266,00
-2941,48	272,00
-2930,53	296,00
-2919,60	168,00
-2908,68	226,00
-2897,78	170,00
-2886,89	219,00
-2876,02	205,00
-2865,17	164,00
-2854,33	208,00
-2843,50	108,00
-2832,70	119,00
-2821,90	291,00
-2811,13	246,00
-2800,37	242,00
-2789,62	221,00
-2778,89	319,00
-2768,18	267,00
-2757,48	307,00
-2746,80	264,00
-2736,13	291,00
-2725,48	179,00
-2714,84	277,00
-2704,22	183,00
-2693,61	213,00
-2683,02	248,00
-2672,45	188,00
-2661,89	296,00
-2651,34	206,00
-2640,81	152,00
-2630,30	229,00
-2619,80	289,00
-2609,31	260,00
-2598,84	280,00
-2588,39	299,00
-2577,95	204,00
-2567,52	186,00
-2557,11	268,00
-2546,71	233,00
-2536,33	243,00
-2525,97	239,00
-2515,62	238,00
-2505,28	225,00
-2494,96	252,00
-2484,65	154,00
-2474,36	232,00
-2464,08	228,00
-2453,82	300,00
-2443,57	242,00
-2433,33	136,00
-2423,11	261,00
-2412,91	155,00
-2402,72	217,00
-2392,54	311,00
-2382,38	269,00
-2372,23	280,00
-2362,09	372,00
-2351,97	208,00
-2341,87	176,00
-2331,78	232,00
-2321,70	207,00
-2311,64	270,00
-2301,59	261,00
-2291,55	219,00
-2281,53	221,00
-2271,53	194,00
-2261,53	309,00
-2251,55	204,00
-2241,59	228,00
-2231,64	277,00
-2221,70	168,00
-2211,78	247,00
-2201,87	236,00
-2191,97	208,00
-2182,09	249,00
-2172,22	314,00
-2162,37	183,00
-2152,53	218,00
-2142,70	180,00
-2132,89	167,00
-2123,09	270,00
-2113,30	228,00
-2103,53	218,00
-2093,77	149,00
-2084,02	161,00
-2074,29	241,00
-2064,57	179,00
-2054,86	278,00
-2045,17	261,00
-2035,49	299,00
-2025,82	233,00
-2016,17	249,00
-2006,53	231,00
-1996,91	178,00
-1987,29	110,00
-1977,69	212,00
-1968,11	256,00
-1958,53	186,00
-1948,97	289,00
-1939,42	218,00
-1929,89	206,00
-1920,37	304,00
-1910,86	205,00
-1901,36	225,00
-1891,88	202,00
-1882,41	233,00
-1872,95	250,00
-1863,51	229,00
-1854,08	208,00
-1844,66	290,00
-1835,26	119,00
-1825,86	288,00
-1816,48	189,00
-1807,11	321,00
-1797,76	331,00
-1788,42	270,00
-1779,09	256,00
-1769,77	212,00
-1760,47	308,00
-1751,17	285,00
-1741,89	238,00
-1732,63	359,00
-1723,37	349,00
-1714,13	360,00
-1704,90	244,00
-1695,68	333,00
-1686,48	182,00
-1677,29	205,00
-1668,11	277,00
-1658,94	255,00
-1649,78	285,00
-1640,64	236,00
-1631,51	264,00
-1622,39	195,00
-1613,28	307,00
-1604,19	341,00
-1595,10	302,00
-1586,03	160,00
-1576,97	332,00
-1567,93	200,00
-1558,89	370,00
-1549,87	273,00
-1540,86	199,00
-1531,86	232,00
-1522,87	233,00
-1513,90	289,00
-1504,93	227,00
-1495,98	265,00
-1487,04	337,00
-1478,12	258,00
-1469,20	176,00
-1460,30	280,00
-1451,40	297,00
-1442,52	245,00
-1433,65	231,00
-1424,80	251,00
-1415,95	269,00
-1407,12	311,00
-1398,30	233,00
-1389,48	235,00
-1380,69	206,00
-1371,90	280,00
-1363,12	219,00
-1354,36	346,00
-1345,60	228,00
-1336,86	138,00
-1328,13	327,00
-1319,41	234,00
-1310,70	273,00
-1302,01	268,00
-1293,32	176,00
-1284,65	238,00
-1275,99	228,00
-1267,33	273,00
-1258,69	242,00
-1250,06	211,00
-1241,45	222,00
-1232,84	296,00
-1224,25	244,00
-1215,66	257,00
-1207,09	278,00
-1198,53	153,00
-1189,97	196,00
-1181,43	267,00
-1172,91	328,00
-1164,39	243,00
-1155,88	265,00
-1147,38	140,00
-1138,90	264,00
-1130,43	224,00
-1121,96	225,00
-1113,51	245,00
-1105,07	196,00
-1096,64	128,00
-1088,22	196,00
-1079,81	305,00
-1071,41	302,00
-1063,02	325,00
-1054,65	216,00
-1046,28	158,00
-1037,92	283,00
-1029,58	234,00
-1021,24	294,00
-1012,92	385,00
-1004,61	276,00
-996,30	381,00
-988,01	218,00
-979,73	221,00
-971,46	289,00
-963,20	259,00
-954,95	214,00
-946,71	286,00
-938,48	164,00
-930,26	269,00
-922,06	245,00
-913,86	243,00
-905,67	246,00
-897,49	155,00
-889,33	232,00
-881,17	257,00
-873,02	267,00
-864,89	99,00
-856,76	245,00
-848,65	186,00
-840,54	289,00
-832,45	242,00
-824,36	165,00
-816,29	205,00
-808,22	219,00
-800,17	249,00
-792,12	276,00
-784,09	321,00
-776,06	217,00
-768,05	296,00
-760,04	166,00
-752,05	259,00
-744,07	300,00
-736,09	291,00
-728,13	154,00
-720,17	312,00
-712,23	274,00
-704,29	299,00
-696,37	212,00
-688,45	269,00
-680,55	207,00
-672,65	192,00
-664,77	147,00
-656,89	240,00
-649,03	198,00
-641,17	283,00
-633,32	331,00
-625,49	213,00
-617,66	227,00
-609,84	321,00
-602,03	221,00
-594,23	241,00
-586,45	189,00
-578,67	221,00
-570,90	219,00
-563,14	232,00
-555,39	289,00
-547,65	250,00
-539,91	269,00
-532,19	194,00
-524,48	186,00
-516,78	246,00
-509,08	336,00
-501,40	265,00
-493,72	181,00
-486,06	216,00
-478,40	362,00
-470,76	240,00
-463,12	224,00
-455,49	176,00
-447,87	285,00
-440,26	219,00
-432,66	260,00
-425,07	216,00
-417,49	178,00
-409,92	252,00
-402,35	193,00
-394,80	192,00
-387,25	319,00
-379,72	201,00
-372,19	200,00
-364,67	200,00
-357,17	274,00
-349,67	253,00
-342,18	205,00
-334,69	172,00
-327,22	263,00
-319,76	267,00
-312,30	338,00
-304,86	327,00
-297,42	314,00
-290,00	186,00
-282,58	275,00
-275,17	278,00
-267,77	282,00
-260,37	215,00
-252,99	252,00
-245,62	276,00
-238,25	245,00
-230,90	308,00
-223,55	286,00
-216,21	273,00
-208,88	409,00
-201,56	268,00
-194,25	369,00
-186,94	258,00
-179,65	400,00
-172,36	333,00
-165,08	298,00
-157,81	530,00
-150,55	404,00
-143,30	451,00
-136,06	415,00
-128,82	479,00
-121,60	412,00
-114,38	530,00
-107,17	578,00
-99,97	616,00
-92,78	653,00
-85,60	693,00
-78,42	863,00
-71,25	935,00
-64,10	1072,00
-56,95	1073,00
-49,81	1210,00
-42,67	1580,00
-35,55	1820,00
-28,43	2391,00
-21,33	3876,00
-14,23	11919,00
-7,14	57775,00
-0,05	57564,00
7,02	57281,00
14,09	43263,00
21,14	11391,00
28,19	4693,00
35,23	3155,00
42,27	2337,00
49,29	1994,00
56,31	1787,00
63,32	1542,00
70,32	1177,00
77,31	1023,00
84,29	875,00
91,27	947,00
98,23	941,00
105,19	715,00
112,14	863,00
119,09	1167,00
126,02	1636,00
132,95	2043,00
139,87	2068,00
146,78	2128,00
153,68	2031,00
160,58	2016,00
167,46	1919,00
174,34	1888,00
181,21	2049,00
188,08	1958,00
194,93	2025,00
201,78	1954,00
208,62	1878,00
215,45	1987,00
222,27	1944,00
229,09	2009,00
235,90	2001,00
242,70	1971,00
249,49	1969,00
256,27	1842,00
263,05	1919,00
269,82	1878,00
276,58	1896,00
283,33	1862,00
290,08	1876,00
296,82	1851,00
303,55	1877,00
310,27	1839,00
316,98	1876,00
323,69	1849,00
330,39	1859,00
337,08	1873,00
343,76	1899,00
350,44	1842,00
357,11	1845,00
363,77	1817,00
370,42	1764,00
377,07	1858,00
383,71	1841,00
390,34	1798,00
396,96	1807,00
403,58	1820,00
410,19	1902,00
416,79	1926,00
423,38	1902,00
429,97	1953,00
436,55	1751,00
443,12	1769,00
449,68	1747,00
456,24	1815,00
462,79	1886,00
469,33	1792,00
475,86	1795,00
482,39	1769,00
488,91	1780,00
495,42	1635,00
501,93	1928,00
508,42	1676,00
514,91	1800,00
521,40	1677,00
527,87	1686,00
534,34	1674,00
540,80	1849,00
547,25	1779,00
553,70	1835,00
560,14	1765,00
566,57	1747,00
573,00	1804,00
579,41	1797,00
585,83	1848,00
592,23	1761,00
598,62	1729,00
605,01	1707,00
611,40	1823,00
617,77	1777,00
624,14	1773,00
630,50	1801,00
636,85	1734,00
643,20	1763,00
649,54	1793,00
655,87	1852,00
662,20	1811,00
668,52	1706,00
674,83	1900,00
681,13	1716,00
687,43	1742,00
693,72	1686,00
700,00	1682,00
706,28	1733,00
712,55	1749,00
718,81	1666,00
725,07	1737,00
731,32	1732,00
737,56	1707,00
743,79	1816,00
750,02	1743,00
756,24	1743,00
762,46	1815,00
768,67	1902,00
774,87	1847,00
781,06	1820,00
787,25	1724,00
793,43	1951,00
799,60	1695,00
805,77	1881,00
811,93	1773,00
818,08	1755,00
824,23	1793,00
830,37	1960,00
836,50	1884,00
842,63	1759,00
848,75	1737,00
854,87	1954,00
860,97	1713,00
867,07	1859,00
873,17	1884,00
879,25	1768,00
885,33	1880,00
891,41	1800,00
897,47	1731,00
903,53	1762,00
909,59	1917,00
915,63	1835,00
921,67	1797,00
927,71	1760,00
933,74	1761,00
939,76	1802,00
945,77	1681,00
951,78	1704,00
957,78	1876,00
963,78	1821,00
969,77	1810,00
975,75	1918,00
981,72	1761,00
987,69	2124,00
993,66	1854,00
999,61	1846,00
1005,56	1867,00
1011,51	1799,00
1017,44	1931,00
1023,37	1957,00
1029,30	1875,00
1035,22	1960,00
1041,13	1946,00
1047,03	1903,00
1052,93	2087,00
1058,83	2350,00
1064,71	2464,00
1070,59	2259,00
1076,47	2118,00
1082,33	2093,00
1088,20	2013,00
1094,05	2088,00
1099,90	1900,00
1105,74	1955,00
1111,58	2022,00
1117,41	2066,00
1123,23	2349,00
1129,05	2623,00
1134,86	2379,00
1140,67	2262,00
1146,47	2010,00
1152,26	1986,00
1158,05	1869,00
1163,83	1955,00
1169,60	2047,00
1175,37	2037,00
1181,13	1874,00
1186,89	2020,00
1192,64	1959,00
1198,38	1941,00
1204,12	1859,00
1209,85	1961,00
1215,58	1916,00
1221,30	1967,00
1227,02	1934,00
1232,72	1966,00
1238,43	1875,00
1244,12	1982,00
1249,81	2000,00
1255,50	1963,00
1261,17	1966,00
1266,85	2012,00
1272,51	2018,00
1278,17	2182,00
1283,83	2175,00
1289,47	2502,00
1295,12	2829,00
1300,75	2897,00
1306,38	2388,00
1312,01	2206,00
1317,63	2153,00
1323,24	2033,00
1328,85	2140,00
1334,45	2095,00
1340,04	2096,00
1345,63	2008,00
1351,22	2087,00
1356,80	2029,00
1362,37	2050,00
1367,93	2087,00
1373,49	2088,00
1379,05	2011,00
1384,60	2035,00
1390,14	2030,00
1395,68	2131,00
1401,21	2067,00
1406,74	2063,00
1412,26	2318,00
1417,77	2393,00
1423,28	2353,00
1428,78	2440,00
1434,28	2760,00
1439,77	2842,00
1445,26	2844,00
1450,74	2791,00
1456,22	2713,00
1461,68	2712,00
1467,15	2492,00
1472,61	2330,00
1478,06	2292,00
1483,51	2180,00
1488,95	2070,00
1494,38	2068,00
1499,81	1998,00
1505,24	1968,00
1510,65	1995,00
1516,07	2028,00
1521,48	2039,00
1526,88	1873,00
1532,27	2004,00
1537,67	1873,00
1543,05	1984,00
1548,43	1813,00
1553,81	1974,00
1559,18	1856,00
1564,54	1972,00
1569,90	1840,00
1575,25	1793,00
1580,60	1771,00
1585,94	1876,00
1591,28	1895,00
1596,61	1965,00
1601,93	1868,00
1607,25	1934,00
1612,57	1875,00
1617,88	1814,00
1623,18	1761,00
1628,48	1832,00
1633,77	1652,00
1639,06	1805,00
1644,34	1776,00
1649,62	1826,00
1654,89	1889,00
1660,16	1775,00
1665,42	1781,00
1670,67	1735,00
1675,92	1841,00
1681,17	1778,00
1686,41	1881,00
1691,64	1888,00
1696,87	1722,00
1702,10	1747,00
1707,32	1894,00
1712,53	1742,00
1717,74	1746,00
1722,94	1702,00
1728,14	1709,00
1733,33	1624,00
1738,52	1696,00
1743,70	1684,00
1748,88	1691,00
1754,05	1731,00
1759,22	1594,00
1764,38	2817,00
1769,53	1562,00
1774,69	1615,00
1779,83	1667,00
1784,97	1570,00
1790,11	1648,00
1795,24	1628,00
1800,36	1774,00
1805,48	1637,00
1810,60	1568,00
1815,71	1686,00
1820,82	1656,00
1825,92	1643,00
1831,01	1625,00
1836,10	1623,00
1841,19	1674,00
1846,26	1523,00
1851,34	1642,00
1856,41	1670,00
1861,47	1631,00
1866,53	1662,00
1871,59	1555,00
1876,64	1596,00
1881,68	1631,00
1886,72	1628,00
1891,76	1608,00
1896,79	1641,00
1901,81	1483,00
1906,83	1565,00
1911,85	1513,00
1916,86	1554,00
1921,86	1604,00
1926,86	1532,00
1931,86	1587,00
1936,85	1496,00
1941,83	1499,00
1946,81	1508,00
1951,79	1514,00
1956,76	1436,00
1961,72	1370,00
1966,68	1455,00
1971,64	1506,00
1976,59	1376,00
1981,54	1434,00
1986,48	1499,00
1991,42	1402,00
1996,35	1519,00
2001,27	1456,00
2006,20	1462,00
2011,11	1482,00
2016,03	1456,00
2020,93	1465,00
2025,84	1386,00
2030,73	1349,00
2035,63	1296,00
2040,52	1417,00
2045,40	1441,00
2050,28	1388,00
2055,15	1446,00
2060,02	1334,00
2064,89	1428,00
2069,75	1417,00
2074,60	1373,00
2079,46	1402,00
2084,30	1300,00
2089,14	1346,00
2093,98	1389,00
2098,81	1397,00
2103,64	1337,00
2108,46	1356,00
2113,28	1294,00
2118,09	1390,00
2122,90	1366,00
2127,70	1383,00
2132,50	1409,00
2137,30	1343,00
2142,09	1325,00
2146,87	1285,00
2151,66	1401,00
2156,43	1411,00
2161,20	1389,00
2165,97	1410,00
2170,73	1240,00
2175,49	1388,00
2180,24	1287,00
2184,99	1408,00
2189,74	1265,00
2194,48	1324,00
2199,21	1354,00
2203,94	1232,00
2208,67	1199,00
2213,39	1202,00
2218,11	1343,00
2222,82	1244,00
2227,53	1254,00
2232,23	1335,00
2236,93	1243,00
2241,63	1277,00
2246,32	1162,00
2251,00	1184,00
2255,68	1104,00
2260,36	1259,00
2265,03	1268,00
2269,70	1221,00
2274,36	1207,00
2279,02	1273,00
2283,68	1168,00
2288,33	1159,00
2292,97	1205,00
2297,61	1253,00
2302,25	1121,00
2306,88	1136,00
2311,51	1065,00
2316,14	1212,00
2320,75	1191,00
2325,37	1077,00
2329,98	1214,00
2334,59	1186,00
2339,19	1147,00
2343,79	1084,00
2348,38	1135,00
2352,97	1219,00
2357,55	1211,00
2362,13	1182,00
2366,71	1033,00
2371,28	1140,00
2375,85	1112,00
2380,41	1070,00
2384,97	1064,00
2389,52	1106,00
2394,07	1018,00
2398,62	1125,00
2403,16	1115,00
2407,70	1056,00
2412,23	1086,00
2416,76	1143,00
2421,29	1031,00
2425,81	1054,00
2430,32	966,00
2434,84	994,00
2439,34	1074,00
2443,85	1175,00
2448,35	1025,00
2452,84	1008,00
2457,33	1026,00
2461,82	1062,00
2466,30	973,00
2470,78	1054,00
2475,25	938,00
2479,72	1014,00
2484,19	1022,00
2488,65	1033,00
2493,11	946,00
2497,56	996,00
2502,01	918,00
2506,46	1076,00
2510,90	967,00
2515,34	973,00
2519,77	1030,00
2524,20	954,00
2528,62	976,00
2533,04	973,00
2537,46	822,00
2541,87	938,00
2546,28	899,00
2550,68	909,00
2555,08	864,00
2559,48	1004,00
2563,87	814,00
2568,26	924,00
2572,64	887,00
2577,02	956,00
2581,40	853,00
2585,77	898,00
2590,14	884,00
2594,50	787,00
2598,86	816,00
2603,22	847,00
2607,57	865,00
2611,92	894,00
2616,26	782,00
2620,60	907,00
2624,94	843,00
2629,27	1042,00
2633,60	829,00
2637,92	918,00
2642,24	842,00
2646,56	834,00
2650,87	939,00
2655,18	821,00
2659,48	845,00
2663,78	856,00
2668,08	803,00
2672,37	881,00
2676,66	895,00
2680,95	818,00
2685,23	841,00
2689,50	866,00
2693,78	821,00
2698,05	857,00
2702,31	888,00
2706,57	874,00
2710,83	957,00
2715,08	924,00
2719,33	1020,00
2723,58	999,00
2727,82	908,00
2732,06	933,00
2736,29	837,00
2740,53	912,00
2744,75	811,00
2748,97	901,00
2753,19	941,00
2757,41	840,00
2761,62	922,00
2765,83	914,00
2770,03	875,00
2774,23	734,00
2778,43	813,00
2782,62	843,00
2786,81	810,00
2791,00	858,00
2795,18	927,00
2799,35	875,00
2803,53	989,00
2807,70	927,00
2811,86	844,00
2816,03	1013,00
2820,19	912,00
2824,34	921,00
2828,49	1035,00
2832,64	1121,00
2836,78	1312,00
2840,92	1458,00
2845,06	1754,00
2849,19	1828,00
2853,32	1901,00
2857,45	1874,00
2861,57	1834,00
2865,69	1796,00
2869,80	1613,00
2873,91	1813,00
2878,02	1911,00
2882,12	1991,00
2886,22	2035,00
2890,32	1834,00
2894,41	1748,00
2898,50	1615,00
2902,58	1523,00
2906,67	1529,00
2910,74	1346,00
2914,82	1343,00
2918,89	1273,00
2922,96	1155,00
2927,02	1284,00
2931,08	1073,00
2935,13	969,00
2939,19	1123,00
2943,24	1004,00
2947,28	875,00
2951,32	879,00
2955,36	790,00
2959,40	826,00
2963,43	811,00
2967,46	629,00
2971,48	635,00
2975,50	755,00
2979,52	645,00
2983,53	665,00
2987,54	641,00
2991,55	697,00
2995,55	686,00
2999,55	495,00
3003,54	607,00
3007,54	626,00
3011,53	578,00
3015,51	616,00
3019,49	629,00
3023,47	468,00
3027,45	539,00
3031,42	529,00
3035,39	573,00
3039,35	530,00
3043,31	584,00
3047,27	573,00
3051,22	566,00
3055,17	525,00
3059,12	450,00
3063,06	507,00
3067,00	356,00
3070,94	499,00
3074,87	553,00
3078,80	466,00
3082,73	545,00
3086,65	428,00
3090,57	517,00
3094,49	487,00
3098,40	523,00
3102,31	339,00
3106,22	571,00
3110,12	509,00
3114,02	472,00
3117,92	458,00
3121,81	314,00
3125,70	363,00
3129,58	408,00
3133,47	415,00
3137,34	501,00
3141,22	455,00
3145,09	498,00
3148,96	398,00
3152,83	367,00
3156,69	454,00
3160,55	410,00
3164,40	440,00
3168,26	420,00
3172,10	524,00
3175,95	386,00
3179,79	375,00
3183,63	367,00
3187,47	392,00
3191,30	333,00
3195,13	504,00
3198,95	397,00
3202,78	445,00
3206,60	295,00
3210,41	409,00
3214,23	368,00
3218,03	387,00
3221,84	403,00
3225,64	458,00
3229,44	330,00
3233,24	389,00
3237,03	316,00
3240,82	380,00
3244,61	334,00
3248,39	366,00
3252,17	381,00
3255,95	398,00
3259,72	370,00
3263,49	420,00
3267,26	333,00
3271,03	302,00
3274,79	380,00
3278,54	376,00
3282,30	285,00
3286,05	346,00
3289,80	354,00
3293,54	357,00
3297,29	303,00
3301,02	347,00
3304,76	352,00
3308,49	407,00
3312,22	332,00
3315,95	304,00
3319,67	277,00
3323,39	400,00
3327,10	321,00
3330,82	294,00
3334,53	280,00
3338,24	331,00
3341,94	322,00
3345,64	263,00
3349,34	307,00
3353,03	289,00
3356,72	333,00
3360,41	364,00
3364,10	353,00
3367,78	393,00
3371,46	345,00
3375,13	391,00
3378,81	275,00
3382,48	316,00
3386,14	281,00
3389,81	360,00
3393,47	270,00
3397,12	331,00
3400,78	412,00
3404,43	256,00
3408,08	308,00
3411,72	287,00
3415,36	280,00
3419,00	224,00
3422,64	328,00
3426,27	322,00
3429,90	233,00
3433,53	268,00
3437,15	289,00
3440,77	166,00
3444,39	259,00
3448,00	364,00
3451,62	269,00
3455,22	239,00
3458,83	347,00
3462,43	258,00
3466,03	374,00
3469,63	311,00
3473,22	320,00
3476,81	220,00
3480,40	336,00
3483,99	308,00
3487,57	312,00
3491,15	280,00
3494,72	321,00
3498,29	211,00
3501,86	284,00
3505,43	288,00
3508,99	271,00
3512,56	305,00
3516,11	284,00
3519,67	244,00
3523,22	317,00
3526,77	287,00
3530,32	253,00
3533,86	277,00
3537,40	251,00
3540,94	311,00
3544,47	288,00
3548,00	239,00
3551,53	244,00
3555,06	304,00
3558,58	306,00
3562,10	316,00
3565,62	312,00
3569,13	262,00
3572,64	213,00
3576,15	194,00
3579,66	208,00
3583,16	332,00
3586,66	214,00
3590,16	213,00
3593,65	273,00
3597,14	225,00
3600,63	209,00
3604,11	339,00
3607,60	266,00
3611,08	181,00
3614,55	266,00
3618,03	148,00
3621,50	161,00
3624,97	225,00
3628,43	289,00
3631,90	319,00
3635,36	222,00
3638,81	231,00
3642,27	288,00
3645,72	296,00
3649,17	316,00
3652,61	209,00
3656,06	175,00
3659,50	220,00
3662,93	184,00
3666,37	245,00
3669,80	306,00
3673,23	231,00
3676,65	266,00
3680,08	202,00
3683,50	250,00
3686,92	258,00
3690,33	190,00
3693,74	221,00
3697,15	196,00
3700,56	210,00
3703,96	163,00
3707,36	165,00
3710,76	184,00
3714,16	200,00
3717,55	140,00
3720,94	293,00
3724,33	281,00
3727,71	274,00
3731,10	143,00
3734,48	111,00
3737,85	132,00
3741,23	126,00
3744,60	246,00
3747,97	274,00
3751,33	166,00
3754,69	205,00
3758,05	198,00
3761,41	191,00
3764,77	169,00
3768,12	93,00
3771,47	236,00
3774,82	165,00
3778,16	-4,00
3781,50	-1,00
3784,84	3,00
3788,18	7,00
>>>>>End Processed Spectral Data<<<<<
