SpectraSuite Data File
++++++++++++++++++++++++++++++++++++
Date: Mon Mar 09 14:52:59 ICT 2026
User: Administrator
Dark Spectrum Present: Yes
Reference Spectrum Present: No
Number of Sampled Component Spectra: 1
Spectrometers: MAYP113682
Integration Time (usec): 3000000 (MAYP113682)
Spectra Averaged: 1 (MAYP113682)
Boxcar Smoothing: 0 (MAYP113682)
Correct for Electrical Dark: No (MAYP113682)
Strobe/Lamp Enabled: No (MAYP113682)
Correct for Detector Non-linearity: No (MAYP113682)
Correct for Stray Light: No (MAYP113682)
Number of Pixels in Processed Spectrum: 2068
>>>>>Begin Processed Spectral Data<<<<<
-37534,58	44,00
-37414,56	4,00
-37295,11	6,00
-37176,24	12,00
-37057,95	913,00
-36940,22	953,00
-36823,05	944,00
-36706,45	1202,00
-36590,40	971,00
-36474,90	1011,00
-36359,95	1119,00
-36245,55	1031,00
-36131,68	1062,00
-36018,35	1069,00
-35905,55	1107,00
-35793,29	1073,00
-35681,54	1084,00
-35570,32	1002,00
-35459,62	1102,00
-35349,43	1062,00
-35239,75	1139,00
-35130,58	978,00
-35021,91	1042,00
-34913,74	1084,00
-34806,07	1068,00
-34698,89	1200,00
-34592,20	1158,00
-34486,00	1320,00
-34380,28	1060,00
-34275,04	1064,00
-34170,27	1164,00
-34065,98	1216,00
-33962,16	1127,00
-33858,81	1131,00
-33755,92	1168,00
-33653,49	1258,00
-33551,52	1262,00
-33450,01	1173,00
-33348,94	1192,00
-33248,33	1170,00
-33148,16	1107,00
-33048,43	1196,00
-32949,14	1310,00
-32850,29	1262,00
-32751,87	1075,00
-32653,89	1208,00
-32556,33	1297,00
-32459,20	1210,00
-32362,49	1167,00
-32266,19	1128,00
-32170,32	1239,00
-32074,86	1202,00
-31979,82	1244,00
-31885,18	1424,00
-31790,95	1354,00
-31697,12	1239,00
-31603,69	1309,00
-31510,67	1183,00
-31418,04	1088,00
-31325,80	1195,00
-31233,95	1244,00
-31142,49	1182,00
-31051,42	1252,00
-30960,73	1353,00
-30870,43	1358,00
-30780,50	1224,00
-30690,95	1167,00
-30601,77	1267,00
-30512,97	1110,00
-30424,53	1248,00
-30336,46	1178,00
-30248,76	1262,00
-30161,42	1201,00
-30074,44	1177,00
-29987,81	1301,00
-29901,55	1327,00
-29815,63	1119,00
-29730,07	1235,00
-29644,86	1227,00
-29560,00	1273,00
-29475,48	1134,00
-29391,30	1214,00
-29307,47	1089,00
-29223,97	1274,00
-29140,81	1274,00
-29057,99	1313,00
-28975,50	1097,00
-28893,34	1315,00
-28811,51	1164,00
-28730,00	1163,00
-28648,82	1126,00
-28567,97	1367,00
-28487,43	1126,00
-28407,21	1175,00
-28327,32	1092,00
-28247,73	1352,00
-28168,46	1112,00
-28089,50	1245,00
-28010,85	1066,00
-27932,51	1104,00
-27854,48	1286,00
-27776,75	1076,00
-27699,32	1117,00
-27622,19	1271,00
-27545,37	1161,00
-27468,84	1177,00
-27392,60	1292,00
-27316,66	1178,00
-27241,01	1136,00
-27165,66	1238,00
-27090,59	1221,00
-27015,81	1262,00
-26941,31	1329,00
-26867,10	1231,00
-26793,17	1216,00
-26719,52	1257,00
-26646,15	1146,00
-26573,06	1230,00
-26500,24	1245,00
-26427,70	1216,00
-26355,43	1277,00
-26283,43	1158,00
-26211,71	1298,00
-26140,25	1203,00
-26069,06	1571,00
-25998,13	1013,00
-25927,46	1146,00
-25857,06	1274,00
-25786,92	1183,00
-25717,04	1091,00
-25647,42	1261,00
-25578,05	1158,00
-25508,94	1323,00
-25440,09	1230,00
-25371,48	1108,00
-25303,13	1131,00
-25235,02	1198,00
-25167,17	1293,00
-25099,56	1276,00
-25032,19	1143,00
-24965,07	1136,00
-24898,20	1160,00
-24831,56	1364,00
-24765,17	1161,00
-24699,01	1207,00
-24633,10	1146,00
-24567,41	1126,00
-24501,97	1322,00
-24436,75	1192,00
-24371,77	1217,00
-24307,03	1086,00
-24242,51	1044,00
-24178,22	1309,00
-24114,16	1115,00
-24050,32	1209,00
-23986,71	1133,00
-23923,32	1300,00
-23860,16	1110,00
-23797,22	1129,00
-23734,50	1196,00
-23672,00	1067,00
-23609,71	1149,00
-23547,65	1076,00
-23485,80	1154,00
-23424,16	1126,00
-23362,74	1322,00
-23301,53	1095,00
-23240,54	1128,00
-23179,75	1166,00
-23119,17	1175,00
-23058,80	1193,00
-22998,64	1221,00
-22938,68	1125,00
-22878,93	1184,00
-22819,39	1217,00
-22760,04	1142,00
-22700,90	1185,00
-22641,96	1224,00
-22583,22	1168,00
-22524,68	1208,00
-22466,33	1132,00
-22408,19	1169,00
-22350,23	1233,00
-22292,48	1269,00
-22234,92	1183,00
-22177,55	1274,00
-22120,37	1357,00
-22063,38	1140,00
-22006,58	1134,00
-21949,98	1207,00
-21893,56	929,00
-21837,33	1130,00
-21781,28	1164,00
-21725,42	1094,00
-21669,74	1164,00
-21614,25	1216,00
-21558,94	1128,00
-21503,81	1195,00
-21448,86	1161,00
-21394,10	1113,00
-21339,51	1109,00
-21285,10	1108,00
-21230,86	1062,00
-21176,81	1068,00
-21122,93	1139,00
-21069,22	1153,00
-21015,69	1182,00
-20962,33	1226,00
-20909,14	1099,00
-20856,13	1109,00
-20803,28	1177,00
-20750,61	1107,00
-20698,10	1135,00
-20645,76	1204,00
-20593,59	1297,00
-20541,59	1236,00
-20489,75	1278,00
-20438,07	1168,00
-20386,56	1282,00
-20335,22	1166,00
-20284,03	1069,00
-20233,01	1089,00
-20182,15	1077,00
-20131,45	1161,00
-20080,91	1159,00
-20030,52	1096,00
-19980,30	1063,00
-19930,23	1049,00
-19880,32	1364,00
-19830,56	1297,00
-19780,96	1135,00
-19731,52	1185,00
-19682,23	1242,00
-19633,09	1128,00
-19584,10	1099,00
-19535,26	1112,00
-19486,58	1340,00
-19438,04	1198,00
-19389,66	1119,00
-19341,42	1189,00
-19293,33	1090,00
-19245,39	1126,00
-19197,60	1097,00
-19149,95	1220,00
-19102,45	1280,00
-19055,09	1165,00
-19007,87	1252,00
-18960,80	1164,00
-18913,87	1202,00
-18867,09	1237,00
-18820,44	1283,00
-18773,94	1138,00
-18727,57	1106,00
-18681,35	1107,00
-18635,26	1161,00
-18589,31	1066,00
-18543,50	1023,00
-18497,83	1182,00
-18452,29	1236,00
-18406,89	1165,00
-18361,63	1250,00
-18316,50	1168,00
-18271,50	1093,00
-18226,63	1156,00
-18181,90	1230,00
-18137,30	1181,00
-18092,84	1062,00
-18048,50	1250,00
-18004,29	1049,00
-17960,22	1138,00
-17916,27	1077,00
-17872,45	1129,00
-17828,76	1198,00
-17785,20	1273,00
-17741,77	1202,00
-17698,46	1180,00
-17655,28	1060,00
-17612,22	1165,00
-17569,29	1108,00
-17526,48	1140,00
-17483,79	1059,00
-17441,23	1188,00
-17398,79	1053,00
-17356,48	1152,00
-17314,28	1428,00
-17272,21	1139,00
-17230,26	1030,00
-17188,42	1232,00
-17146,71	1142,00
-17105,12	1263,00
-17063,64	1114,00
-17022,28	1136,00
-16981,04	1126,00
-16939,92	1180,00
-16898,91	1396,00
-16858,02	1172,00
-16817,25	1183,00
-16776,59	1104,00
-16736,04	1127,00
-16695,61	1078,00
-16655,29	1085,00
-16615,09	1163,00
-16574,99	1238,00
-16535,01	1122,00
-16495,15	1207,00
-16455,39	1265,00
-16415,74	1118,00
-16376,21	1127,00
-16336,78	1073,00
-16297,46	1098,00
-16258,26	1183,00
-16219,16	1238,00
-16180,17	1126,00
-16141,28	1240,00
-16102,51	1144,00
-16063,84	1209,00
-16025,27	1202,00
-15986,82	1047,00
-15948,46	1083,00
-15910,22	1186,00
-15872,07	1146,00
-15834,04	1113,00
-15796,10	1108,00
-15758,27	1335,00
-15720,54	1161,00
-15682,91	1088,00
-15645,39	1225,00
-15607,97	1137,00
-15570,64	1071,00
-15533,42	1221,00
-15496,30	1087,00
-15459,28	1151,00
-15422,36	1153,00
-15385,54	1128,00
-15348,82	1058,00
-15312,19	1209,00
-15275,66	1188,00
-15239,23	1034,00
-15202,90	1231,00
-15166,67	1047,00
-15130,53	1221,00
-15094,48	1205,00
-15058,54	1224,00
-15022,68	1104,00
-14986,93	1063,00
-14951,26	1149,00
-14915,69	1030,00
-14880,22	1032,00
-14844,84	1077,00
-14809,55	1184,00
-14774,35	1121,00
-14739,25	1434,00
-14704,24	1140,00
-14669,32	1158,00
-14634,49	1161,00
-14599,75	1226,00
-14565,10	1096,00
-14530,55	1252,00
-14496,08	1135,00
-14461,70	1141,00
-14427,41	1061,00
-14393,21	1173,00
-14359,10	1105,00
-14325,07	1236,00
-14291,14	1198,00
-14257,29	1202,00
-14223,52	1170,00
-14189,85	1323,00
-14156,26	1138,00
-14122,76	1137,00
-14089,34	1127,00
-14056,01	1232,00
-14022,76	1152,00
-13989,60	1265,00
-13956,52	1242,00
-13923,53	1241,00
-13890,62	1206,00
-13857,79	1032,00
-13825,05	1113,00
-13792,39	1004,00
-13759,81	1169,00
-13727,31	1073,00
-13694,90	1068,00
-13662,57	1169,00
-13630,31	1168,00
-13598,14	1164,00
-13566,05	1108,00
-13534,05	1204,00
-13502,12	1116,00
-13470,27	1175,00
-13438,50	1275,00
-13406,80	1068,00
-13375,19	1150,00
-13343,66	1199,00
-13312,20	1233,00
-13280,83	1079,00
-13249,53	1069,00
-13218,30	1024,00
-13187,16	1069,00
-13156,09	1292,00
-13125,10	1283,00
-13094,18	1160,00
-13063,34	1241,00
-13032,58	970,00
-13001,89	1282,00
-12971,28	1192,00
-12940,74	1176,00
-12910,27	1194,00
-12879,88	1146,00
-12849,57	1296,00
-12819,33	1180,00
-12789,16	1163,00
-12759,06	1055,00
-12729,04	1172,00
-12699,09	2570,00
-12669,21	1136,00
-12639,41	1129,00
-12609,68	1136,00
-12580,02	1144,00
-12550,43	1199,00
-12520,91	975,00
-12491,46	1190,00
-12462,08	1137,00
-12432,77	1106,00
-12403,54	1282,00
-12374,37	1162,00
-12345,27	1127,00
-12316,24	1128,00
-12287,29	1244,00
-12258,40	1114,00
-12229,57	1259,00
-12200,82	1212,00
-12172,14	1110,00
-12143,52	1046,00
-12114,97	1044,00
-12086,49	1149,00
-12058,07	1175,00
-12029,73	1181,00
-12001,44	1312,00
-11973,23	1056,00
-11945,08	1200,00
-11917,00	1154,00
-11888,98	1124,00
-11861,03	1167,00
-11833,15	1094,00
-11805,32	1207,00
-11777,57	1194,00
-11749,88	1168,00
-11722,25	1147,00
-11694,69	1187,00
-11667,19	1083,00
-11639,75	1136,00
-11612,38	1253,00
-11585,07	1112,00
-11557,83	1170,00
-11530,65	1329,00
-11503,53	1297,00
-11476,47	1214,00
-11449,48	1165,00
-11422,54	1262,00
-11395,67	1075,00
-11368,86	1284,00
-11342,11	1157,00
-11315,43	1223,00
-11288,80	1045,00
-11262,23	1304,00
-11235,73	1193,00
-11209,28	1237,00
-11182,90	1127,00
-11156,57	1161,00
-11130,31	1214,00
-11104,10	1225,00
-11077,96	1210,00
-11051,87	1229,00
-11025,84	1269,00
-10999,87	1140,00
-10973,96	1303,00
-10948,11	1128,00
-10922,31	1153,00
-10896,58	1276,00
-10870,90	1331,00
-10845,28	1108,00
-10819,71	1104,00
-10794,20	1195,00
-10768,75	1261,00
-10743,36	1177,00
-10718,02	1113,00
-10692,74	1189,00
-10667,52	997,00
-10642,35	1207,00
-10617,24	1273,00
-10592,18	1220,00
-10567,18	1138,00
-10542,23	1144,00
-10517,34	1218,00
-10492,51	1298,00
-10467,72	1206,00
-10443,00	1126,00
-10418,32	1292,00
-10393,70	1164,00
-10369,14	1065,00
-10344,63	1204,00
-10320,17	1285,00
-10295,77	1268,00
-10271,42	1254,00
-10247,12	1270,00
-10222,88	1304,00
-10198,68	1050,00
-10174,54	1272,00
-10150,46	1269,00
-10126,42	1241,00
-10102,44	1311,00
-10078,51	1271,00
-10054,63	1257,00
-10030,80	1220,00
-10007,03	1442,00
-9983,30	1249,00
-9959,63	1195,00
-9936,01	1345,00
-9912,44	1365,00
-9888,92	1236,00
-9865,44	1183,00
-9842,02	1393,00
-9818,65	1361,00
-9795,33	1276,00
-9772,06	1339,00
-9748,84	1346,00
-9725,67	1325,00
-9702,55	1338,00
-9679,47	1598,00
-9656,45	1476,00
-9633,47	1390,00
-9610,55	1506,00
-9587,67	1636,00
-9564,84	1861,00
-9542,06	1573,00
-9519,32	1707,00
-9496,64	1732,00
-9474,00	1656,00
-9451,41	1792,00
-9428,87	1870,00
-9406,37	1817,00
-9383,92	1692,00
-9361,52	1770,00
-9339,17	1877,00
-9316,86	1772,00
-9294,60	1852,00
-9272,38	2230,00
-9250,21	2252,00
-9228,09	2186,00
-9206,01	2141,00
-9183,98	1943,00
-9162,00	1982,00
-9140,06	1960,00
-9118,16	1948,00
-9096,31	2087,00
-9074,51	2003,00
-9052,75	2193,00
-9031,04	2132,00
-9009,37	1846,00
-8987,74	1889,00
-8966,16	1928,00
-8944,63	1738,00
-8923,14	1735,00
-8901,69	1738,00
-8880,29	1737,00
-8858,93	1876,00
-8837,61	1903,00
-8816,34	1936,00
-8795,11	1925,00
-8773,92	1987,00
-8752,78	1846,00
-8731,68	1724,00
-8710,62	1818,00
-8689,61	1635,00
-8668,63	1710,00
-8647,70	2142,00
-8626,82	1849,00
-8605,97	1932,00
-8585,17	1840,00
-8564,41	1690,00
-8543,69	1775,00
-8523,01	1665,00
-8502,37	1883,00
-8481,78	1667,00
-8461,23	1577,00
-8440,71	1743,00
-8420,24	1729,00
-8399,81	1900,00
-8379,42	1869,00
-8359,08	1766,00
-8338,77	1660,00
-8318,50	1802,00
-8298,27	1629,00
-8278,09	1682,00
-8257,94	1487,00
-8237,83	1920,00
-8217,76	1815,00
-8197,74	1733,00
-8177,75	1787,00
-8157,80	1774,00
-8137,89	1543,00
-8118,02	1688,00
-8098,19	1790,00
-8078,40	1618,00
-8058,65	1570,00
-8038,93	1772,00
-8019,26	1664,00
-7999,62	1745,00
-7980,02	1485,00
-7960,46	1594,00
-7940,94	1502,00
-7921,46	1613,00
-7902,01	1546,00
-7882,60	1628,00
-7863,23	1596,00
-7843,90	1590,00
-7824,61	1535,00
-7805,35	1722,00
-7786,13	1559,00
-7766,95	1586,00
-7747,80	1636,00
-7728,69	1630,00
-7709,62	1468,00
-7690,59	1638,00
-7671,59	1558,00
-7652,63	1564,00
-7633,70	1555,00
-7614,81	1674,00
-7595,96	1534,00
-7577,15	1594,00
-7558,37	1475,00
-7539,62	1578,00
-7520,91	1563,00
-7502,24	1745,00
-7483,60	1635,00
-7465,00	1627,00
-7446,44	1505,00
-7427,91	1431,00
-7409,41	1612,00
-7390,95	1483,00
-7372,53	1268,00
-7354,14	1517,00
-7335,78	1446,00
-7317,46	1460,00
-7299,18	1436,00
-7280,92	1584,00
-7262,71	1732,00
-7244,52	1668,00
-7226,38	1442,00
-7208,26	1604,00
-7190,18	1546,00
-7172,14	1606,00
-7154,12	1570,00
-7136,15	1485,00
-7118,20	1531,00
-7100,29	1641,00
-7082,41	1551,00
-7064,57	1544,00
-7046,76	1588,00
-7028,98	1437,00
-7011,24	1726,00
-6993,53	1232,00
-6975,85	1361,00
-6958,20	1348,00
-6940,59	1352,00
-6923,01	1301,00
-6905,46	1414,00
-6887,94	1486,00
-6870,46	1964,00
-6853,01	1510,00
-6835,59	1506,00
-6818,21	1369,00
-6800,85	1607,00
-6783,53	1386,00
-6766,24	1278,00
-6748,98	1282,00
-6731,76	1325,00
-6714,56	1298,00
-6697,40	1319,00
-6680,26	1188,00
-6663,16	1360,00
-6646,09	1548,00
-6629,05	1336,00
-6612,05	1486,00
-6595,07	1377,00
-6578,13	1504,00
-6561,21	1296,00
-6544,33	1274,00
-6527,47	1267,00
-6510,65	1326,00
-6493,86	1316,00
-6477,10	1174,00
-6460,36	1264,00
-6443,66	1220,00
-6426,99	1204,00
-6410,35	1180,00
-6393,74	1381,00
-6377,16	1232,00
-6360,61	1272,00
-6344,09	1068,00
-6327,59	1191,00
-6311,13	1167,00
-6294,70	1376,00
-6278,29	1338,00
-6261,92	1299,00
-6245,58	1322,00
-6229,26	1442,00
-6212,97	1371,00
-6196,72	1301,00
-6180,49	1435,00
-6164,29	1183,00
-6148,12	1352,00
-6131,98	1347,00
-6115,86	1264,00
-6099,78	1159,00
-6083,72	1135,00
-6067,69	1134,00
-6051,69	1310,00
-6035,72	1273,00
-6019,78	1190,00
-6003,87	1353,00
-5987,98	1278,00
-5972,12	1303,00
-5956,29	1359,00
-5940,49	1289,00
-5924,71	1388,00
-5908,96	1171,00
-5893,24	1259,00
-5877,55	1157,00
-5861,89	1296,00
-5846,25	1276,00
-5830,64	1284,00
-5815,05	1147,00
-5799,50	1206,00
-5783,97	1250,00
-5768,47	1327,00
-5752,99	1502,00
-5737,55	1269,00
-5722,12	1232,00
-5706,73	1268,00
-5691,36	1300,00
-5676,02	1187,00
-5660,71	1269,00
-5645,42	1221,00
-5630,16	1280,00
-5614,92	1303,00
-5599,71	1163,00
-5584,53	1322,00
-5569,37	1163,00
-5554,24	2235,00
-5539,14	1246,00
-5524,06	1279,00
-5509,01	1182,00
-5493,98	1233,00
-5478,98	1373,00
-5464,00	1234,00
-5449,05	1185,00
-5434,13	1244,00
-5419,23	1325,00
-5404,36	1121,00
-5389,51	1313,00
-5374,69	1206,00
-5359,89	1338,00
-5345,12	1409,00
-5330,37	1503,00
-5315,65	1377,00
-5300,95	1361,00
-5286,28	1196,00
-5271,63	1206,00
-5257,01	1234,00
-5242,41	1274,00
-5227,84	1278,00
-5213,29	1247,00
-5198,76	1283,00
-5184,26	1204,00
-5169,79	1286,00
-5155,33	1277,00
-5140,91	1371,00
-5126,51	1367,00
-5112,13	1268,00
-5097,77	1383,00
-5083,44	1336,00
-5069,13	1143,00
-5054,85	1146,00
-5040,59	1131,00
-5026,36	1313,00
-5012,15	1350,00
-4997,96	1226,00
-4983,80	1202,00
-4969,66	1266,00
-4955,54	1192,00
-4941,44	1214,00
-4927,37	1298,00
-4913,33	1357,00
-4899,30	1182,00
-4885,30	1286,00
-4871,33	1293,00
-4857,37	1223,00
-4843,44	1226,00
-4829,53	1301,00
-4815,65	1284,00
-4801,79	1092,00
-4787,95	1159,00
-4774,13	1172,00
-4760,34	1200,00
-4746,56	1287,00
-4732,82	1200,00
-4719,09	1207,00
-4705,38	1371,00
-4691,70	1375,00
-4678,04	1339,00
-4664,41	1244,00
-4650,79	1484,00
-4637,20	1229,00
-4623,63	1166,00
-4610,08	1247,00
-4596,56	1306,00
-4583,05	1277,00
-4569,57	1313,00
-4556,11	1294,00
-4542,67	1096,00
-4529,25	1101,00
-4515,86	1347,00
-4502,49	1267,00
-4489,13	1349,00
-4475,80	1290,00
-4462,49	1128,00
-4449,21	1462,00
-4435,94	1182,00
-4422,70	1284,00
-4409,47	1042,00
-4396,27	1195,00
-4383,09	1143,00
-4369,93	1089,00
-4356,79	1205,00
-4343,67	1172,00
-4330,58	1145,00
-4317,50	1157,00
-4304,45	1028,00
-4291,41	1182,00
-4278,40	1202,00
-4265,41	1093,00
-4252,44	1168,00
-4239,49	1068,00
-4226,55	1227,00
-4213,65	1272,00
-4200,76	1224,00
-4187,89	1062,00
-4175,04	1292,00
-4162,21	1220,00
-4149,40	1141,00
-4136,61	1149,00
-4123,85	1107,00
-4111,10	1163,00
-4098,37	1279,00
-4085,66	1310,00
-4072,98	1177,00
-4060,31	1087,00
-4047,66	1256,00
-4035,04	1269,00
-4022,43	1139,00
-4009,84	1332,00
-3997,27	1093,00
-3984,72	1119,00
-3972,19	1234,00
-3959,69	1053,00
-3947,20	1123,00
-3934,73	1185,00
-3922,27	1089,00
-3909,84	1234,00
-3897,43	1200,00
-3885,04	1148,00
-3872,67	1119,00
-3860,31	1109,00
-3847,98	1325,00
-3835,66	1067,00
-3823,36	1180,00
-3811,09	1104,00
-3798,83	1165,00
-3786,59	1269,00
-3774,37	1295,00
-3762,17	1146,00
-3749,98	1204,00
-3737,82	1049,00
-3725,67	1452,00
-3713,55	1081,00
-3701,44	1210,00
-3689,35	1181,00
-3677,28	1294,00
-3665,22	1130,00
-3653,19	1077,00
-3641,17	1109,00
-3629,18	1209,00
-3617,20	1138,00
-3605,24	1243,00
-3593,30	1154,00
-3581,37	1084,00
-3569,47	1287,00
-3557,58	1210,00
-3545,71	1152,00
-3533,86	1243,00
-3522,02	1112,00
-3510,21	1186,00
-3498,41	1221,00
-3486,63	1156,00
-3474,87	1164,00
-3463,12	1073,00
-3451,40	1223,00
-3439,69	1241,00
-3428,00	1236,00
-3416,33	1304,00
-3404,67	1133,00
-3393,03	1270,00
-3381,41	1203,00
-3369,81	1180,00
-3358,22	1147,00
-3346,66	1243,00
-3335,10	1180,00
-3323,57	1097,00
-3312,06	1239,00
-3300,56	1191,00
-3289,08	1083,00
-3277,61	1138,00
-3266,16	1283,00
-3254,73	1221,00
-3243,32	1209,00
-3231,92	1146,00
-3220,55	1182,00
-3209,18	1230,00
-3197,84	1114,00
-3186,51	1006,00
-3175,20	1124,00
-3163,90	1166,00
-3152,63	1144,00
-3141,36	1171,00
-3130,12	1197,00
-3118,89	1231,00
-3107,68	1150,00
-3096,49	1202,00
-3085,31	1237,00
-3074,15	1133,00
-3063,00	1214,00
-3051,87	1293,00
-3040,76	1201,00
-3029,67	1251,00
-3018,59	1470,00
-3007,52	1192,00
-2996,48	1253,00
-2985,44	1082,00
-2974,43	1270,00
-2963,43	1146,00
-2952,45	1056,00
-2941,48	1273,00
-2930,53	1324,00
-2919,60	1171,00
-2908,68	1156,00
-2897,78	1188,00
-2886,89	1283,00
-2876,02	1138,00
-2865,17	1177,00
-2854,33	1160,00
-2843,50	1046,00
-2832,70	1151,00
-2821,90	1168,00
-2811,13	1224,00
-2800,37	1115,00
-2789,62	1208,00
-2778,89	1239,00
-2768,18	1313,00
-2757,48	1246,00
-2746,80	1333,00
-2736,13	1227,00
-2725,48	1112,00
-2714,84	1220,00
-2704,22	1131,00
-2693,61	1225,00
-2683,02	1191,00
-2672,45	1163,00
-2661,89	1380,00
-2651,34	1207,00
-2640,81	1178,00
-2630,30	1389,00
-2619,80	1127,00
-2609,31	1325,00
-2598,84	1069,00
-2588,39	1152,00
-2577,95	1093,00
-2567,52	968,00
-2557,11	1256,00
-2546,71	1124,00
-2536,33	1237,00
-2525,97	1145,00
-2515,62	1107,00
-2505,28	1177,00
-2494,96	1103,00
-2484,65	1234,00
-2474,36	1376,00
-2464,08	1212,00
-2453,82	1263,00
-2443,57	1210,00
-2433,33	1061,00
-2423,11	1222,00
-2412,91	1119,00
-2402,72	1084,00
-2392,54	1170,00
-2382,38	1172,00
-2372,23	1285,00
-2362,09	1949,00
-2351,97	1184,00
-2341,87	1136,00
-2331,78	1169,00
-2321,70	1302,00
-2311,64	1230,00
-2301,59	1153,00
-2291,55	1179,00
-2281,53	1179,00
-2271,53	1163,00
-2261,53	1268,00
-2251,55	1181,00
-2241,59	1152,00
-2231,64	1250,00
-2221,70	1167,00
-2211,78	1255,00
-2201,87	1228,00
-2191,97	1228,00
-2182,09	1184,00
-2172,22	1252,00
-2162,37	1077,00
-2152,53	1060,00
-2142,70	989,00
-2132,89	1013,00
-2123,09	1345,00
-2113,30	1202,00
-2103,53	1309,00
-2093,77	1073,00
-2084,02	1098,00
-2074,29	1252,00
-2064,57	1275,00
-2054,86	1260,00
-2045,17	1222,00
-2035,49	1289,00
-2025,82	1130,00
-2016,17	1118,00
-2006,53	1216,00
-1996,91	1163,00
-1987,29	1047,00
-1977,69	1143,00
-1968,11	1180,00
-1958,53	1114,00
-1948,97	1224,00
-1939,42	1132,00
-1929,89	1034,00
-1920,37	1200,00
-1910,86	1203,00
-1901,36	1203,00
-1891,88	1174,00
-1882,41	1215,00
-1872,95	1218,00
-1863,51	1129,00
-1854,08	1206,00
-1844,66	1273,00
-1835,26	1108,00
-1825,86	1278,00
-1816,48	1130,00
-1807,11	1225,00
-1797,76	1312,00
-1788,42	1210,00
-1779,09	1257,00
-1769,77	1167,00
-1760,47	1346,00
-1751,17	1117,00
-1741,89	1208,00
-1732,63	1303,00
-1723,37	1511,00
-1714,13	1420,00
-1704,90	1099,00
-1695,68	1316,00
-1686,48	1096,00
-1677,29	1186,00
-1668,11	1457,00
-1658,94	1266,00
-1649,78	1217,00
-1640,64	1197,00
-1631,51	1187,00
-1622,39	1253,00
-1613,28	1202,00
-1604,19	1334,00
-1595,10	1104,00
-1586,03	1180,00
-1576,97	1216,00
-1567,93	1177,00
-1558,89	1370,00
-1549,87	1264,00
-1540,86	1126,00
-1531,86	1211,00
-1522,87	1134,00
-1513,90	1378,00
-1504,93	1291,00
-1495,98	1260,00
-1487,04	1288,00
-1478,12	1247,00
-1469,20	1095,00
-1460,30	1319,00
-1451,40	1416,00
-1442,52	1146,00
-1433,65	1278,00
-1424,80	1242,00
-1415,95	1147,00
-1407,12	1443,00
-1398,30	1227,00
-1389,48	1100,00
-1380,69	1259,00
-1371,90	1153,00
-1363,12	1198,00
-1354,36	1352,00
-1345,60	1156,00
-1336,86	1387,00
-1328,13	1357,00
-1319,41	1253,00
-1310,70	1072,00
-1302,01	1159,00
-1293,32	1194,00
-1284,65	1151,00
-1275,99	1296,00
-1267,33	1406,00
-1258,69	1232,00
-1250,06	1259,00
-1241,45	1173,00
-1232,84	1285,00
-1224,25	1295,00
-1215,66	1187,00
-1207,09	1317,00
-1198,53	1153,00
-1189,97	1094,00
-1181,43	1189,00
-1172,91	1242,00
-1164,39	1340,00
-1155,88	1189,00
-1147,38	1054,00
-1138,90	1171,00
-1130,43	1165,00
-1121,96	1237,00
-1113,51	1288,00
-1105,07	1113,00
-1096,64	1204,00
-1088,22	1289,00
-1079,81	1278,00
-1071,41	1319,00
-1063,02	1118,00
-1054,65	1236,00
-1046,28	1177,00
-1037,92	1330,00
-1029,58	1136,00
-1021,24	1186,00
-1012,92	1588,00
-1004,61	1268,00
-996,30	1572,00
-988,01	1039,00
-979,73	1231,00
-971,46	1206,00
-963,20	1078,00
-954,95	1066,00
-946,71	1204,00
-938,48	1113,00
-930,26	1262,00
-922,06	1286,00
-913,86	1345,00
-905,67	1162,00
-897,49	1158,00
-889,33	1081,00
-881,17	1263,00
-873,02	1293,00
-864,89	1008,00
-856,76	1098,00
-848,65	1155,00
-840,54	1149,00
-832,45	1333,00
-824,36	1049,00
-816,29	1261,00
-808,22	1245,00
-800,17	1222,00
-792,12	1294,00
-784,09	1363,00
-776,06	1140,00
-768,05	1307,00
-760,04	1132,00
-752,05	1086,00
-744,07	1452,00
-736,09	1316,00
-728,13	1023,00
-720,17	1130,00
-712,23	1142,00
-704,29	1203,00
-696,37	1184,00
-688,45	1219,00
-680,55	1119,00
-672,65	1116,00
-664,77	1087,00
-656,89	1119,00
-649,03	1114,00
-641,17	1168,00
-633,32	1310,00
-625,49	1303,00
-617,66	1132,00
-609,84	1244,00
-602,03	963,00
-594,23	1085,00
-586,45	1163,00
-578,67	1215,00
-570,90	1083,00
-563,14	1097,00
-555,39	1265,00
-547,65	1285,00
-539,91	1303,00
-532,19	1139,00
-524,48	1269,00
-516,78	1203,00
-509,08	1260,00
-501,40	1093,00
-493,72	1140,00
-486,06	1112,00
-478,40	1527,00
-470,76	1167,00
-463,12	1211,00
-455,49	1061,00
-447,87	1135,00
-440,26	1178,00
-432,66	1077,00
-425,07	1225,00
-417,49	1142,00
-409,92	1071,00
-402,35	1022,00
-394,80	1123,00
-387,25	1347,00
-379,72	1189,00
-372,19	1157,00
-364,67	1228,00
-357,17	1172,00
-349,67	1243,00
-342,18	1175,00
-334,69	1306,00
-327,22	1218,00
-319,76	1201,00
-312,30	1243,00
-304,86	1221,00
-297,42	1162,00
-290,00	1183,00
-282,58	1130,00
-275,17	1284,00
-267,77	1336,00
-260,37	1103,00
-252,99	1309,00
-245,62	1205,00
-238,25	1056,00
-230,90	1158,00
-223,55	1349,00
-216,21	1217,00
-208,88	1349,00
-201,56	1176,00
-194,25	1224,00
-186,94	1234,00
-179,65	1246,00
-172,36	1272,00
-165,08	1187,00
-157,81	1448,00
-150,55	1423,00
-143,30	1441,00
-136,06	1429,00
-128,82	1371,00
-121,60	1393,00
-114,38	1465,00
-107,17	1494,00
-99,97	1665,00
-92,78	1604,00
-85,60	1635,00
-78,42	1813,00
-71,25	1911,00
-64,10	1922,00
-56,95	1961,00
-49,81	2118,00
-42,67	2641,00
-35,55	2811,00
-28,43	3455,00
-21,33	4876,00
-14,23	13826,00
-7,14	57775,00
-0,05	57564,00
7,02	57281,00
14,09	44555,00
21,14	12329,00
28,19	5778,00
35,23	4111,00
42,27	3501,00
49,29	2953,00
56,31	2707,00
63,32	2520,00
70,32	2261,00
77,31	1990,00
84,29	1907,00
91,27	2015,00
98,23	1890,00
105,19	1706,00
112,14	1914,00
119,09	2271,00
126,02	2911,00
132,95	3365,00
139,87	3444,00
146,78	3586,00
153,68	3343,00
160,58	3373,00
167,46	3228,00
174,34	3475,00
181,21	3478,00
188,08	3362,00
194,93	3501,00
201,78	3285,00
208,62	3390,00
215,45	3413,00
222,27	3428,00
229,09	3665,00
235,90	3368,00
242,70	3413,00
249,49	3680,00
256,27	3292,00
263,05	3366,00
269,82	3303,00
276,58	3500,00
283,33	3287,00
290,08	3460,00
296,82	3324,00
303,55	3213,00
310,27	3212,00
316,98	3300,00
323,69	3270,00
330,39	3113,00
337,08	3319,00
343,76	3365,00
350,44	3278,00
357,11	3433,00
363,77	3256,00
370,42	3093,00
377,07	3410,00
383,71	3345,00
390,34	3272,00
396,96	3242,00
403,58	3220,00
410,19	3398,00
416,79	3436,00
423,38	3415,00
429,97	3372,00
436,55	3114,00
443,12	3295,00
449,68	3113,00
456,24	3231,00
462,79	3203,00
469,33	3336,00
475,86	3279,00
482,39	3151,00
488,91	3352,00
495,42	3111,00
501,93	3297,00
508,42	3046,00
514,91	3317,00
521,40	3059,00
527,87	3197,00
534,34	3093,00
540,80	3374,00
547,25	3309,00
553,70	3287,00
560,14	3209,00
566,57	3343,00
573,00	3252,00
579,41	3291,00
585,83	3201,00
592,23	3265,00
598,62	3178,00
605,01	3173,00
611,40	3234,00
617,77	3400,00
624,14	3218,00
630,50	3257,00
636,85	3278,00
643,20	3204,00
649,54	3117,00
655,87	3127,00
662,20	3364,00
668,52	3285,00
674,83	3294,00
681,13	3203,00
687,43	3255,00
693,72	3173,00
700,00	3073,00
706,28	3243,00
712,55	3191,00
718,81	3329,00
725,07	3133,00
731,32	3101,00
737,56	3305,00
743,79	3307,00
750,02	3271,00
756,24	3164,00
762,46	3201,00
768,67	3549,00
774,87	3253,00
781,06	3178,00
787,25	3324,00
793,43	3297,00
799,60	3098,00
805,77	3386,00
811,93	3221,00
818,08	3138,00
824,23	3129,00
830,37	3460,00
836,50	3271,00
842,63	3324,00
848,75	3219,00
854,87	3246,00
860,97	3299,00
867,07	3250,00
873,17	3332,00
879,25	3190,00
885,33	3223,00
891,41	3276,00
897,47	3343,00
903,53	3241,00
909,59	3352,00
915,63	3284,00
921,67	3340,00
927,71	3358,00
933,74	3225,00
939,76	3188,00
945,77	3271,00
951,78	3283,00
957,78	3225,00
963,78	3395,00
969,77	3425,00
975,75	3368,00
981,72	3161,00
987,69	4987,00
993,66	3415,00
999,61	3524,00
1005,56	3434,00
1011,51	3295,00
1017,44	3285,00
1023,37	3362,00
1029,30	3376,00
1035,22	3560,00
1041,13	3327,00
1047,03	3398,00
1052,93	3522,00
1058,83	3929,00
1064,71	3977,00
1070,59	3851,00
1076,47	3645,00
1082,33	3503,00
1088,20	3502,00
1094,05	3425,00
1099,90	3328,00
1105,74	3344,00
1111,58	3458,00
1117,41	3548,00
1123,23	3732,00
1129,05	4108,00
1134,86	4023,00
1140,67	3845,00
1146,47	3497,00
1152,26	3474,00
1158,05	3270,00
1163,83	3467,00
1169,60	3567,00
1175,37	3601,00
1181,13	3541,00
1186,89	3516,00
1192,64	3539,00
1198,38	3648,00
1204,12	3445,00
1209,85	3441,00
1215,58	3550,00
1221,30	3588,00
1227,02	3622,00
1232,72	3530,00
1238,43	3459,00
1244,12	3544,00
1249,81	3464,00
1255,50	3630,00
1261,17	3481,00
1266,85	3490,00
1272,51	3590,00
1278,17	3633,00
1283,83	3576,00
1289,47	4000,00
1295,12	4375,00
1300,75	4270,00
1306,38	3935,00
1312,01	3616,00
1317,63	3597,00
1323,24	3597,00
1328,85	3642,00
1334,45	3624,00
1340,04	3609,00
1345,63	3527,00
1351,22	3797,00
1356,80	3604,00
1362,37	3663,00
1367,93	3575,00
1373,49	3530,00
1379,05	3523,00
1384,60	3640,00
1390,14	3539,00
1395,68	3640,00
1401,21	3528,00
1406,74	3675,00
1412,26	3768,00
1417,77	4156,00
1423,28	3759,00
1428,78	3902,00
1434,28	4256,00
1439,77	4322,00
1445,26	4343,00
1450,74	4431,00
1456,22	4237,00
1461,68	4212,00
1467,15	4037,00
1472,61	3911,00
1478,06	3936,00
1483,51	3718,00
1488,95	3506,00
1494,38	3766,00
1499,81	3430,00
1505,24	3410,00
1510,65	3567,00
1516,07	3569,00
1521,48	3293,00
1526,88	3259,00
1532,27	3424,00
1537,67	3328,00
1543,05	3619,00
1548,43	3299,00
1553,81	3402,00
1559,18	3280,00
1564,54	3396,00
1569,90	3393,00
1575,25	3225,00
1580,60	3197,00
1585,94	3417,00
1591,28	3366,00
1596,61	3259,00
1601,93	3355,00
1607,25	3488,00
1612,57	3391,00
1617,88	3409,00
1623,18	3254,00
1628,48	3356,00
1633,77	3291,00
1639,06	3322,00
1644,34	3269,00
1649,62	3279,00
1654,89	3476,00
1660,16	3209,00
1665,42	3435,00
1670,67	3194,00
1675,92	3316,00
1681,17	3254,00
1686,41	3225,00
1691,64	3429,00
1696,87	3293,00
1702,10	3059,00
1707,32	3287,00
1712,53	3231,00
1717,74	3329,00
1722,94	3221,00
1728,14	3099,00
1733,33	2996,00
1738,52	3060,00
1743,70	3208,00
1748,88	3212,00
1754,05	3208,00
1759,22	3032,00
1764,38	4642,00
1769,53	3049,00
1774,69	3166,00
1779,83	3134,00
1784,97	3122,00
1790,11	3022,00
1795,24	3173,00
1800,36	3099,00
1805,48	3048,00
1810,60	3015,00
1815,71	3064,00
1820,82	2961,00
1825,92	3127,00
1831,01	2970,00
1836,10	3006,00
1841,19	2961,00
1846,26	2938,00
1851,34	3062,00
1856,41	3077,00
1861,47	3050,00
1866,53	3076,00
1871,59	3015,00
1876,64	2937,00
1881,68	2980,00
1886,72	3141,00
1891,76	3006,00
1896,79	2971,00
1901,81	3027,00
1906,83	2978,00
1911,85	2836,00
1916,86	2983,00
1921,86	3009,00
1926,86	2869,00
1931,86	2916,00
1936,85	2950,00
1941,83	2991,00
1946,81	2852,00
1951,79	2899,00
1956,76	2821,00
1961,72	2687,00
1966,68	2735,00
1971,64	2720,00
1976,59	2779,00
1981,54	2826,00
1986,48	2825,00
1991,42	2810,00
1996,35	3064,00
2001,27	2836,00
2006,20	2734,00
2011,11	2802,00
2016,03	2782,00
2020,93	2805,00
2025,84	2816,00
2030,73	2695,00
2035,63	2531,00
2040,52	2786,00
2045,40	2666,00
2050,28	2644,00
2055,15	2840,00
2060,02	2610,00
2064,89	2840,00
2069,75	2864,00
2074,60	2734,00
2079,46	2687,00
2084,30	2612,00
2089,14	2627,00
2093,98	2737,00
2098,81	2787,00
2103,64	2694,00
2108,46	2657,00
2113,28	2644,00
2118,09	2592,00
2122,90	2706,00
2127,70	2639,00
2132,50	2695,00
2137,30	2680,00
2142,09	2531,00
2146,87	2506,00
2151,66	2678,00
2156,43	2735,00
2161,20	2700,00
2165,97	2612,00
2170,73	2527,00
2175,49	2769,00
2180,24	2587,00
2184,99	2779,00
2189,74	2769,00
2194,48	2551,00
2199,21	2648,00
2203,94	2489,00
2208,67	2474,00
2213,39	2434,00
2218,11	2633,00
2222,82	2531,00
2227,53	2366,00
2232,23	2722,00
2236,93	2565,00
2241,63	2552,00
2246,32	2434,00
2251,00	2581,00
2255,68	2624,00
2260,36	2492,00
2265,03	2619,00
2269,70	2715,00
2274,36	2413,00
2279,02	2498,00
2283,68	2503,00
2288,33	2410,00
2292,97	2487,00
2297,61	2561,00
2302,25	2395,00
2306,88	2329,00
2311,51	2265,00
2316,14	2495,00
2320,75	2360,00
2325,37	2343,00
2329,98	2499,00
2334,59	2341,00
2339,19	2444,00
2343,79	2301,00
2348,38	2379,00
2352,97	2374,00
2357,55	2495,00
2362,13	2390,00
2366,71	2250,00
2371,28	2394,00
2375,85	2477,00
2380,41	2397,00
2384,97	2313,00
2389,52	2385,00
2394,07	2476,00
2398,62	2393,00
2403,16	2271,00
2407,70	2224,00
2412,23	2396,00
2416,76	2361,00
2421,29	2439,00
2425,81	2455,00
2430,32	2355,00
2434,84	2155,00
2439,34	2262,00
2443,85	2356,00
2448,35	2143,00
2452,84	2158,00
2457,33	2198,00
2461,82	2097,00
2466,30	2075,00
2470,78	2321,00
2475,25	2053,00
2479,72	2289,00
2484,19	2158,00
2488,65	2262,00
2493,11	2079,00
2497,56	2250,00
2502,01	2060,00
2506,46	2291,00
2510,90	2170,00
2515,34	2260,00
2519,77	2159,00
2524,20	2069,00
2528,62	2118,00
2533,04	2152,00
2537,46	1993,00
2541,87	2018,00
2546,28	2047,00
2550,68	2098,00
2555,08	2044,00
2559,48	2029,00
2563,87	2018,00
2568,26	2022,00
2572,64	2052,00
2577,02	2131,00
2581,40	1830,00
2585,77	2020,00
2590,14	1961,00
2594,50	1865,00
2598,86	1976,00
2603,22	2018,00
2607,57	2085,00
2611,92	2070,00
2616,26	2030,00
2620,60	2091,00
2624,94	1906,00
2629,27	2140,00
2633,60	1910,00
2637,92	2165,00
2642,24	2092,00
2646,56	2020,00
2650,87	1913,00
2655,18	2075,00
2659,48	1953,00
2663,78	1879,00
2668,08	1908,00
2672,37	1959,00
2676,66	2032,00
2680,95	2024,00
2685,23	1910,00
2689,50	2014,00
2693,78	1986,00
2698,05	1888,00
2702,31	2009,00
2706,57	1915,00
2710,83	2068,00
2715,08	2002,00
2719,33	2282,00
2723,58	2026,00
2727,82	2067,00
2732,06	1995,00
2736,29	1962,00
2740,53	2013,00
2744,75	1927,00
2748,97	2085,00
2753,19	2018,00
2757,41	2056,00
2761,62	2055,00
2765,83	2084,00
2770,03	1786,00
2774,23	1912,00
2778,43	1815,00
2782,62	1962,00
2786,81	1930,00
2791,00	2013,00
2795,18	2112,00
2799,35	1982,00
2803,53	2032,00
2807,70	2010,00
2811,86	1847,00
2816,03	2135,00
2820,19	1875,00
2824,34	1984,00
2828,49	2046,00
2832,64	2148,00
2836,78	2495,00
2840,92	2457,00
2845,06	2821,00
2849,19	2780,00
2853,32	2880,00
2857,45	2983,00
2861,57	2908,00
2865,69	2870,00
2869,80	2663,00
2873,91	2729,00
2878,02	2962,00
2882,12	3041,00
2886,22	2986,00
2890,32	3055,00
2894,41	2822,00
2898,50	2697,00
2902,58	2556,00
2906,67	2668,00
2910,74	2505,00
2914,82	2361,00
2918,89	2436,00
2922,96	2189,00
2927,02	2197,00
2931,08	2092,00
2935,13	1930,00
2939,19	2142,00
2943,24	2131,00
2947,28	1924,00
2951,32	1818,00
2955,36	1708,00
2959,40	1977,00
2963,43	2006,00
2967,46	1728,00
2971,48	1690,00
2975,50	1942,00
2979,52	1840,00
2983,53	1781,00
2987,54	1757,00
2991,55	1767,00
2995,55	1647,00
2999,55	1558,00
3003,54	1602,00
3007,54	1723,00
3011,53	1584,00
3015,51	1560,00
3019,49	1815,00
3023,47	1483,00
3027,45	1599,00
3031,42	1637,00
3035,39	1551,00
3039,35	1552,00
3043,31	1595,00
3047,27	1541,00
3051,22	1703,00
3055,17	1406,00
3059,12	1362,00
3063,06	1542,00
3067,00	1375,00
3070,94	1454,00
3074,87	1519,00
3078,80	1526,00
3082,73	1425,00
3086,65	1443,00
3090,57	1438,00
3094,49	1421,00
3098,40	1465,00
3102,31	1403,00
3106,22	1531,00
3110,12	1572,00
3114,02	1462,00
3117,92	1565,00
3121,81	1360,00
3125,70	1409,00
3129,58	1375,00
3133,47	1478,00
3137,34	1495,00
3141,22	1467,00
3145,09	1597,00
3148,96	1400,00
3152,83	1400,00
3156,69	1507,00
3160,55	1339,00
3164,40	1427,00
3168,26	1363,00
3172,10	1633,00
3175,95	1489,00
3179,79	1345,00
3183,63	1305,00
3187,47	1466,00
3191,30	1322,00
3195,13	1442,00
3198,95	1318,00
3202,78	1481,00
3206,60	1355,00
3210,41	1272,00
3214,23	1342,00
3218,03	1344,00
3221,84	1334,00
3225,64	1340,00
3229,44	1344,00
3233,24	1403,00
3237,03	1313,00
3240,82	1218,00
3244,61	1314,00
3248,39	1311,00
3252,17	1347,00
3255,95	1469,00
3259,72	1378,00
3263,49	1559,00
3267,26	1227,00
3271,03	1203,00
3274,79	1323,00
3278,54	1312,00
3282,30	1199,00
3286,05	1307,00
3289,80	1344,00
3293,54	1336,00
3297,29	1308,00
3301,02	1278,00
3304,76	1333,00
3308,49	1349,00
3312,22	1208,00
3315,95	1345,00
3319,67	1219,00
3323,39	1445,00
3327,10	1402,00
3330,82	1234,00
3334,53	1237,00
3338,24	1194,00
3341,94	1329,00
3345,64	1253,00
3349,34	1240,00
3353,03	1292,00
3356,72	1325,00
3360,41	1414,00
3364,10	1329,00
3367,78	1234,00
3371,46	1288,00
3375,13	1331,00
3378,81	1336,00
3382,48	1229,00
3386,14	1403,00
3389,81	1328,00
3393,47	1128,00
3397,12	1344,00
3400,78	1316,00
3404,43	1316,00
3408,08	1258,00
3411,72	1255,00
3415,36	1192,00
3419,00	1234,00
3422,64	1252,00
3426,27	1198,00
3429,90	1182,00
3433,53	1373,00
3437,15	1221,00
3440,77	1015,00
3444,39	1187,00
3448,00	1252,00
3451,62	1178,00
3455,22	1157,00
3458,83	1212,00
3462,43	1272,00
3466,03	1346,00
3469,63	1239,00
3473,22	1302,00
3476,81	1179,00
3480,40	1270,00
3483,99	1155,00
3487,57	1308,00
3491,15	1255,00
3494,72	1205,00
3498,29	1257,00
3501,86	1192,00
3505,43	1196,00
3508,99	1164,00
3512,56	1152,00
3516,11	1286,00
3519,67	1141,00
3523,22	1229,00
3526,77	1264,00
3530,32	1177,00
3533,86	1220,00
3537,40	1249,00
3540,94	1302,00
3544,47	1190,00
3548,00	1161,00
3551,53	1235,00
3555,06	1132,00
3558,58	1310,00
3562,10	1197,00
3565,62	1236,00
3569,13	1162,00
3572,64	1141,00
3576,15	1019,00
3579,66	1199,00
3583,16	1211,00
3586,66	1153,00
3590,16	1092,00
3593,65	1188,00
3597,14	1109,00
3600,63	1105,00
3604,11	1268,00
3607,60	1086,00
3611,08	1165,00
3614,55	1182,00
3618,03	1008,00
3621,50	1081,00
3624,97	1111,00
3628,43	1251,00
3631,90	1181,00
3635,36	1069,00
3638,81	1074,00
3642,27	1206,00
3645,72	1162,00
3649,17	1163,00
3652,61	1009,00
3656,06	1061,00
3659,50	1041,00
3662,93	1062,00
3666,37	1147,00
3669,80	1346,00
3673,23	1088,00
3676,65	1250,00
3680,08	1155,00
3683,50	1037,00
3686,92	1065,00
3690,33	1065,00
3693,74	1075,00
3697,15	969,00
3700,56	1039,00
3703,96	1131,00
3707,36	976,00
3710,76	981,00
3714,16	918,00
3717,55	1023,00
3720,94	1127,00
3724,33	1028,00
3727,71	1218,00
3731,10	968,00
3734,48	999,00
3737,85	889,00
3741,23	920,00
3744,60	1058,00
3747,97	977,00
3751,33	1003,00
3754,69	1034,00
3758,05	1007,00
3761,41	871,00
3764,77	974,00
3768,12	819,00
3771,47	905,00
3774,82	1087,00
3778,16	-20,00
3781,50	15,00
3784,84	7,00
3788,18	14,00
>>>>>End Processed Spectral Data<<<<<
