SpectraSuite Data File
++++++++++++++++++++++++++++++++++++
Date: Mon Mar 09 14:50:53 ICT 2026
User: Administrator
Dark Spectrum Present: Yes
Reference Spectrum Present: No
Number of Sampled Component Spectra: 1
Spectrometers: MAYP113682
Integration Time (usec): 3000000 (MAYP113682)
Spectra Averaged: 1 (MAYP113682)
Boxcar Smoothing: 0 (MAYP113682)
Correct for Electrical Dark: No (MAYP113682)
Strobe/Lamp Enabled: No (MAYP113682)
Correct for Detector Non-linearity: No (MAYP113682)
Correct for Stray Light: No (MAYP113682)
Number of Pixels in Processed Spectrum: 2068
>>>>>Begin Processed Spectral Data<<<<<
-37534,58	40,00
-37414,56	-1,00
-37295,11	5,00
-37176,24	9,00
-37057,95	828,00
-36940,22	767,00
-36823,05	894,00
-36706,45	959,00
-36590,40	873,00
-36474,90	911,00
-36359,95	976,00
-36245,55	928,00
-36131,68	909,00
-36018,35	863,00
-35905,55	1041,00
-35793,29	1019,00
-35681,54	979,00
-35570,32	945,00
-35459,62	917,00
-35349,43	1011,00
-35239,75	976,00
-35130,58	868,00
-35021,91	975,00
-34913,74	1030,00
-34806,07	999,00
-34698,89	1132,00
-34592,20	942,00
-34486,00	1122,00
-34380,28	928,00
-34275,04	1006,00
-34170,27	997,00
-34065,98	1009,00
-33962,16	979,00
-33858,81	981,00
-33755,92	1047,00
-33653,49	1153,00
-33551,52	1083,00
-33450,01	942,00
-33348,94	1083,00
-33248,33	1068,00
-33148,16	1105,00
-33048,43	1088,00
-32949,14	1160,00
-32850,29	1067,00
-32751,87	1015,00
-32653,89	1127,00
-32556,33	1084,00
-32459,20	1073,00
-32362,49	1005,00
-32266,19	980,00
-32170,32	1115,00
-32074,86	1073,00
-31979,82	1132,00
-31885,18	1190,00
-31790,95	1136,00
-31697,12	1024,00
-31603,69	1161,00
-31510,67	1131,00
-31418,04	1062,00
-31325,80	1098,00
-31233,95	1185,00
-31142,49	1041,00
-31051,42	1141,00
-30960,73	1168,00
-30870,43	1189,00
-30780,50	1036,00
-30690,95	1061,00
-30601,77	1150,00
-30512,97	984,00
-30424,53	1205,00
-30336,46	1111,00
-30248,76	1194,00
-30161,42	1094,00
-30074,44	970,00
-29987,81	1092,00
-29901,55	1136,00
-29815,63	976,00
-29730,07	1112,00
-29644,86	1112,00
-29560,00	1184,00
-29475,48	1135,00
-29391,30	1073,00
-29307,47	961,00
-29223,97	1112,00
-29140,81	1086,00
-29057,99	1157,00
-28975,50	1058,00
-28893,34	1228,00
-28811,51	1051,00
-28730,00	1088,00
-28648,82	999,00
-28567,97	1163,00
-28487,43	1122,00
-28407,21	1044,00
-28327,32	967,00
-28247,73	1300,00
-28168,46	984,00
-28089,50	1101,00
-28010,85	1018,00
-27932,51	902,00
-27854,48	1202,00
-27776,75	1025,00
-27699,32	1101,00
-27622,19	1128,00
-27545,37	1025,00
-27468,84	1146,00
-27392,60	1165,00
-27316,66	1059,00
-27241,01	1045,00
-27165,66	1127,00
-27090,59	1018,00
-27015,81	1181,00
-26941,31	1151,00
-26867,10	1101,00
-26793,17	1205,00
-26719,52	1063,00
-26646,15	1090,00
-26573,06	1114,00
-26500,24	1036,00
-26427,70	1006,00
-26355,43	1135,00
-26283,43	1119,00
-26211,71	1197,00
-26140,25	1137,00
-26069,06	1373,00
-25998,13	904,00
-25927,46	1016,00
-25857,06	1129,00
-25786,92	1036,00
-25717,04	933,00
-25647,42	1101,00
-25578,05	1048,00
-25508,94	1163,00
-25440,09	1028,00
-25371,48	985,00
-25303,13	959,00
-25235,02	1097,00
-25167,17	1229,00
-25099,56	1157,00
-25032,19	993,00
-24965,07	1062,00
-24898,20	1002,00
-24831,56	1096,00
-24765,17	1083,00
-24699,01	1047,00
-24633,10	1081,00
-24567,41	1093,00
-24501,97	1082,00
-24436,75	1069,00
-24371,77	1077,00
-24307,03	1064,00
-24242,51	942,00
-24178,22	1150,00
-24114,16	992,00
-24050,32	1113,00
-23986,71	1135,00
-23923,32	1059,00
-23860,16	958,00
-23797,22	1105,00
-23734,50	1102,00
-23672,00	1058,00
-23609,71	999,00
-23547,65	956,00
-23485,80	1053,00
-23424,16	1025,00
-23362,74	1222,00
-23301,53	1076,00
-23240,54	1009,00
-23179,75	1037,00
-23119,17	1064,00
-23058,80	1070,00
-22998,64	1098,00
-22938,68	1031,00
-22878,93	1081,00
-22819,39	1068,00
-22760,04	978,00
-22700,90	1075,00
-22641,96	1032,00
-22583,22	989,00
-22524,68	1087,00
-22466,33	998,00
-22408,19	1061,00
-22350,23	1039,00
-22292,48	1053,00
-22234,92	1054,00
-22177,55	1260,00
-22120,37	1104,00
-22063,38	1068,00
-22006,58	1030,00
-21949,98	1058,00
-21893,56	830,00
-21837,33	996,00
-21781,28	1051,00
-21725,42	1076,00
-21669,74	1029,00
-21614,25	1006,00
-21558,94	1022,00
-21503,81	1057,00
-21448,86	1132,00
-21394,10	974,00
-21339,51	941,00
-21285,10	1015,00
-21230,86	899,00
-21176,81	923,00
-21122,93	968,00
-21069,22	1151,00
-21015,69	1063,00
-20962,33	1078,00
-20909,14	983,00
-20856,13	1009,00
-20803,28	1070,00
-20750,61	970,00
-20698,10	1009,00
-20645,76	1096,00
-20593,59	1157,00
-20541,59	1030,00
-20489,75	1137,00
-20438,07	954,00
-20386,56	1178,00
-20335,22	978,00
-20284,03	968,00
-20233,01	957,00
-20182,15	969,00
-20131,45	975,00
-20080,91	1093,00
-20030,52	981,00
-19980,30	977,00
-19930,23	961,00
-19880,32	1133,00
-19830,56	1186,00
-19780,96	1029,00
-19731,52	1065,00
-19682,23	1095,00
-19633,09	946,00
-19584,10	997,00
-19535,26	1012,00
-19486,58	1170,00
-19438,04	1079,00
-19389,66	1007,00
-19341,42	1006,00
-19293,33	959,00
-19245,39	978,00
-19197,60	1054,00
-19149,95	1084,00
-19102,45	1136,00
-19055,09	1033,00
-19007,87	1090,00
-18960,80	1038,00
-18913,87	1045,00
-18867,09	1102,00
-18820,44	1116,00
-18773,94	1063,00
-18727,57	1025,00
-18681,35	944,00
-18635,26	1082,00
-18589,31	882,00
-18543,50	865,00
-18497,83	1116,00
-18452,29	1108,00
-18406,89	1043,00
-18361,63	1162,00
-18316,50	1045,00
-18271,50	1012,00
-18226,63	1099,00
-18181,90	1128,00
-18137,30	1151,00
-18092,84	966,00
-18048,50	1155,00
-18004,29	894,00
-17960,22	1020,00
-17916,27	937,00
-17872,45	1082,00
-17828,76	1073,00
-17785,20	1203,00
-17741,77	1013,00
-17698,46	1042,00
-17655,28	866,00
-17612,22	1024,00
-17569,29	975,00
-17526,48	1055,00
-17483,79	916,00
-17441,23	1046,00
-17398,79	910,00
-17356,48	1017,00
-17314,28	1252,00
-17272,21	1042,00
-17230,26	997,00
-17188,42	1098,00
-17146,71	1034,00
-17105,12	1053,00
-17063,64	1000,00
-17022,28	1056,00
-16981,04	1015,00
-16939,92	1004,00
-16898,91	1253,00
-16858,02	1043,00
-16817,25	1000,00
-16776,59	960,00
-16736,04	999,00
-16695,61	982,00
-16655,29	1074,00
-16615,09	1073,00
-16574,99	1083,00
-16535,01	993,00
-16495,15	1004,00
-16455,39	1108,00
-16415,74	1061,00
-16376,21	972,00
-16336,78	946,00
-16297,46	987,00
-16258,26	1031,00
-16219,16	1042,00
-16180,17	1000,00
-16141,28	1087,00
-16102,51	1013,00
-16063,84	1100,00
-16025,27	1078,00
-15986,82	900,00
-15948,46	973,00
-15910,22	999,00
-15872,07	1009,00
-15834,04	1026,00
-15796,10	1022,00
-15758,27	1136,00
-15720,54	1048,00
-15682,91	978,00
-15645,39	1096,00
-15607,97	1018,00
-15570,64	1000,00
-15533,42	1123,00
-15496,30	1047,00
-15459,28	1012,00
-15422,36	962,00
-15385,54	933,00
-15348,82	1046,00
-15312,19	1022,00
-15275,66	997,00
-15239,23	1000,00
-15202,90	1013,00
-15166,67	931,00
-15130,53	1014,00
-15094,48	1012,00
-15058,54	1075,00
-15022,68	952,00
-14986,93	989,00
-14951,26	982,00
-14915,69	914,00
-14880,22	944,00
-14844,84	983,00
-14809,55	1057,00
-14774,35	1032,00
-14739,25	1132,00
-14704,24	1015,00
-14669,32	1073,00
-14634,49	1007,00
-14599,75	1055,00
-14565,10	945,00
-14530,55	1023,00
-14496,08	1102,00
-14461,70	971,00
-14427,41	931,00
-14393,21	988,00
-14359,10	1085,00
-14325,07	1041,00
-14291,14	1059,00
-14257,29	1128,00
-14223,52	1047,00
-14189,85	1252,00
-14156,26	1038,00
-14122,76	1009,00
-14089,34	1023,00
-14056,01	1018,00
-14022,76	1047,00
-13989,60	1109,00
-13956,52	1028,00
-13923,53	1023,00
-13890,62	1011,00
-13857,79	957,00
-13825,05	1050,00
-13792,39	946,00
-13759,81	1068,00
-13727,31	1054,00
-13694,90	941,00
-13662,57	1051,00
-13630,31	1033,00
-13598,14	1022,00
-13566,05	942,00
-13534,05	1093,00
-13502,12	960,00
-13470,27	979,00
-13438,50	1130,00
-13406,80	971,00
-13375,19	983,00
-13343,66	1093,00
-13312,20	1015,00
-13280,83	985,00
-13249,53	980,00
-13218,30	901,00
-13187,16	1029,00
-13156,09	1074,00
-13125,10	1090,00
-13094,18	1064,00
-13063,34	1158,00
-13032,58	864,00
-13001,89	1073,00
-12971,28	1105,00
-12940,74	1054,00
-12910,27	1134,00
-12879,88	1004,00
-12849,57	1089,00
-12819,33	1072,00
-12789,16	1046,00
-12759,06	994,00
-12729,04	1062,00
-12699,09	2369,00
-12669,21	990,00
-12639,41	1040,00
-12609,68	1124,00
-12580,02	1023,00
-12550,43	1169,00
-12520,91	949,00
-12491,46	994,00
-12462,08	950,00
-12432,77	1012,00
-12403,54	986,00
-12374,37	1024,00
-12345,27	1048,00
-12316,24	1021,00
-12287,29	1200,00
-12258,40	946,00
-12229,57	1065,00
-12200,82	1179,00
-12172,14	987,00
-12143,52	981,00
-12114,97	874,00
-12086,49	1073,00
-12058,07	1019,00
-12029,73	1040,00
-12001,44	1138,00
-11973,23	995,00
-11945,08	1107,00
-11917,00	1038,00
-11888,98	987,00
-11861,03	999,00
-11833,15	1177,00
-11805,32	977,00
-11777,57	1002,00
-11749,88	1052,00
-11722,25	1012,00
-11694,69	1029,00
-11667,19	1057,00
-11639,75	1082,00
-11612,38	1087,00
-11585,07	1008,00
-11557,83	1028,00
-11530,65	1203,00
-11503,53	1133,00
-11476,47	1116,00
-11449,48	1035,00
-11422,54	1015,00
-11395,67	1008,00
-11368,86	1092,00
-11342,11	1066,00
-11315,43	1069,00
-11288,80	948,00
-11262,23	1188,00
-11235,73	991,00
-11209,28	1133,00
-11182,90	1047,00
-11156,57	1080,00
-11130,31	1121,00
-11104,10	1010,00
-11077,96	1046,00
-11051,87	1104,00
-11025,84	1091,00
-10999,87	984,00
-10973,96	1131,00
-10948,11	1031,00
-10922,31	1011,00
-10896,58	1120,00
-10870,90	1203,00
-10845,28	999,00
-10819,71	925,00
-10794,20	981,00
-10768,75	1213,00
-10743,36	1008,00
-10718,02	1003,00
-10692,74	1106,00
-10667,52	916,00
-10642,35	1111,00
-10617,24	1196,00
-10592,18	1079,00
-10567,18	953,00
-10542,23	1094,00
-10517,34	1095,00
-10492,51	1106,00
-10467,72	1029,00
-10443,00	1038,00
-10418,32	1108,00
-10393,70	983,00
-10369,14	942,00
-10344,63	1025,00
-10320,17	1161,00
-10295,77	1076,00
-10271,42	1070,00
-10247,12	1059,00
-10222,88	1285,00
-10198,68	927,00
-10174,54	1026,00
-10150,46	1084,00
-10126,42	1173,00
-10102,44	1103,00
-10078,51	1164,00
-10054,63	1134,00
-10030,80	1029,00
-10007,03	1250,00
-9983,30	1039,00
-9959,63	1015,00
-9936,01	1272,00
-9912,44	1139,00
-9888,92	1123,00
-9865,44	1015,00
-9842,02	1190,00
-9818,65	1205,00
-9795,33	1075,00
-9772,06	1204,00
-9748,84	1092,00
-9725,67	1117,00
-9702,55	1134,00
-9679,47	1319,00
-9656,45	1299,00
-9633,47	1092,00
-9610,55	1203,00
-9587,67	1401,00
-9564,84	1515,00
-9542,06	1255,00
-9519,32	1355,00
-9496,64	1500,00
-9474,00	1245,00
-9451,41	1365,00
-9428,87	1497,00
-9406,37	1539,00
-9383,92	1346,00
-9361,52	1450,00
-9339,17	1494,00
-9316,86	1358,00
-9294,60	1483,00
-9272,38	1660,00
-9250,21	1789,00
-9228,09	1776,00
-9206,01	1635,00
-9183,98	1637,00
-9162,00	1490,00
-9140,06	1619,00
-9118,16	1492,00
-9096,31	1671,00
-9074,51	1492,00
-9052,75	1762,00
-9031,04	1736,00
-9009,37	1446,00
-8987,74	1514,00
-8966,16	1584,00
-8944,63	1407,00
-8923,14	1376,00
-8901,69	1469,00
-8880,29	1416,00
-8858,93	1478,00
-8837,61	1561,00
-8816,34	1563,00
-8795,11	1459,00
-8773,92	1507,00
-8752,78	1554,00
-8731,68	1331,00
-8710,62	1356,00
-8689,61	1365,00
-8668,63	1412,00
-8647,70	1706,00
-8626,82	1480,00
-8605,97	1417,00
-8585,17	1451,00
-8564,41	1309,00
-8543,69	1522,00
-8523,01	1243,00
-8502,37	1527,00
-8481,78	1392,00
-8461,23	1249,00
-8440,71	1296,00
-8420,24	1356,00
-8399,81	1394,00
-8379,42	1415,00
-8359,08	1522,00
-8338,77	1460,00
-8318,50	1466,00
-8298,27	1291,00
-8278,09	1340,00
-8257,94	1300,00
-8237,83	1509,00
-8217,76	1435,00
-8197,74	1412,00
-8177,75	1393,00
-8157,80	1389,00
-8137,89	1377,00
-8118,02	1268,00
-8098,19	1471,00
-8078,40	1231,00
-8058,65	1306,00
-8038,93	1458,00
-8019,26	1404,00
-7999,62	1324,00
-7980,02	1200,00
-7960,46	1336,00
-7940,94	1184,00
-7921,46	1264,00
-7902,01	1090,00
-7882,60	1372,00
-7863,23	1263,00
-7843,90	1358,00
-7824,61	1366,00
-7805,35	1370,00
-7786,13	1293,00
-7766,95	1320,00
-7747,80	1279,00
-7728,69	1429,00
-7709,62	1253,00
-7690,59	1440,00
-7671,59	1354,00
-7652,63	1220,00
-7633,70	1258,00
-7614,81	1431,00
-7595,96	1215,00
-7577,15	1238,00
-7558,37	1229,00
-7539,62	1331,00
-7520,91	1272,00
-7502,24	1355,00
-7483,60	1381,00
-7465,00	1293,00
-7446,44	1225,00
-7427,91	1120,00
-7409,41	1353,00
-7390,95	1218,00
-7372,53	1133,00
-7354,14	1147,00
-7335,78	1098,00
-7317,46	1265,00
-7299,18	1277,00
-7280,92	1268,00
-7262,71	1401,00
-7244,52	1210,00
-7226,38	1175,00
-7208,26	1286,00
-7190,18	1249,00
-7172,14	1382,00
-7154,12	1319,00
-7136,15	1147,00
-7118,20	1317,00
-7100,29	1358,00
-7082,41	1328,00
-7064,57	1249,00
-7046,76	1280,00
-7028,98	1037,00
-7011,24	1472,00
-6993,53	1049,00
-6975,85	1221,00
-6958,20	1100,00
-6940,59	1158,00
-6923,01	1098,00
-6905,46	1324,00
-6887,94	1228,00
-6870,46	-722,00
-6853,01	1324,00
-6835,59	1305,00
-6818,21	1144,00
-6800,85	1327,00
-6783,53	1147,00
-6766,24	1186,00
-6748,98	1122,00
-6731,76	1065,00
-6714,56	1058,00
-6697,40	925,00
-6680,26	1016,00
-6663,16	1117,00
-6646,09	1259,00
-6629,05	1201,00
-6612,05	1304,00
-6595,07	1162,00
-6578,13	1309,00
-6561,21	1082,00
-6544,33	1036,00
-6527,47	1122,00
-6510,65	1172,00
-6493,86	1037,00
-6477,10	1076,00
-6460,36	1172,00
-6443,66	1088,00
-6426,99	1036,00
-6410,35	1010,00
-6393,74	1218,00
-6377,16	1083,00
-6360,61	1054,00
-6344,09	996,00
-6327,59	987,00
-6311,13	1058,00
-6294,70	1054,00
-6278,29	1176,00
-6261,92	1119,00
-6245,58	1042,00
-6229,26	1255,00
-6212,97	1126,00
-6196,72	1142,00
-6180,49	1261,00
-6164,29	980,00
-6148,12	1190,00
-6131,98	1003,00
-6115,86	1014,00
-6099,78	1041,00
-6083,72	1014,00
-6067,69	1004,00
-6051,69	1142,00
-6035,72	1081,00
-6019,78	1028,00
-6003,87	1146,00
-5987,98	986,00
-5972,12	1178,00
-5956,29	1182,00
-5940,49	1046,00
-5924,71	1215,00
-5908,96	1037,00
-5893,24	1055,00
-5877,55	1020,00
-5861,89	1124,00
-5846,25	1004,00
-5830,64	991,00
-5815,05	1030,00
-5799,50	1036,00
-5783,97	1028,00
-5768,47	1225,00
-5752,99	1253,00
-5737,55	1066,00
-5722,12	1153,00
-5706,73	1094,00
-5691,36	1142,00
-5676,02	1075,00
-5660,71	1122,00
-5645,42	976,00
-5630,16	1136,00
-5614,92	1169,00
-5599,71	1046,00
-5584,53	1155,00
-5569,37	997,00
-5554,24	2066,00
-5539,14	954,00
-5524,06	1074,00
-5509,01	960,00
-5493,98	1099,00
-5478,98	1211,00
-5464,00	1075,00
-5449,05	981,00
-5434,13	1035,00
-5419,23	1145,00
-5404,36	926,00
-5389,51	1110,00
-5374,69	1094,00
-5359,89	1055,00
-5345,12	1163,00
-5330,37	1245,00
-5315,65	1271,00
-5300,95	1089,00
-5286,28	1007,00
-5271,63	966,00
-5257,01	1095,00
-5242,41	1116,00
-5227,84	1053,00
-5213,29	1054,00
-5198,76	1164,00
-5184,26	1030,00
-5169,79	1118,00
-5155,33	1220,00
-5140,91	1076,00
-5126,51	1095,00
-5112,13	1143,00
-5097,77	1237,00
-5083,44	1041,00
-5069,13	949,00
-5054,85	1008,00
-5040,59	932,00
-5026,36	1129,00
-5012,15	1211,00
-4997,96	1039,00
-4983,80	1041,00
-4969,66	1155,00
-4955,54	1003,00
-4941,44	1037,00
-4927,37	1149,00
-4913,33	1186,00
-4899,30	1019,00
-4885,30	1119,00
-4871,33	1087,00
-4857,37	1133,00
-4843,44	1104,00
-4829,53	1134,00
-4815,65	1203,00
-4801,79	1024,00
-4787,95	1013,00
-4774,13	1061,00
-4760,34	996,00
-4746,56	1096,00
-4732,82	1047,00
-4719,09	1072,00
-4705,38	1148,00
-4691,70	1236,00
-4678,04	1122,00
-4664,41	1037,00
-4650,79	1278,00
-4637,20	1084,00
-4623,63	1029,00
-4610,08	1134,00
-4596,56	1132,00
-4583,05	1088,00
-4569,57	1104,00
-4556,11	1112,00
-4542,67	1093,00
-4529,25	932,00
-4515,86	1156,00
-4502,49	1234,00
-4489,13	1072,00
-4475,80	1147,00
-4462,49	1007,00
-4449,21	1250,00
-4435,94	1049,00
-4422,70	1133,00
-4409,47	1027,00
-4396,27	999,00
-4383,09	1125,00
-4369,93	1070,00
-4356,79	1013,00
-4343,67	1089,00
-4330,58	1071,00
-4317,50	975,00
-4304,45	1078,00
-4291,41	966,00
-4278,40	966,00
-4265,41	906,00
-4252,44	1116,00
-4239,49	936,00
-4226,55	1065,00
-4213,65	1212,00
-4200,76	1052,00
-4187,89	990,00
-4175,04	1045,00
-4162,21	1105,00
-4149,40	1010,00
-4136,61	1001,00
-4123,85	1071,00
-4111,10	1093,00
-4098,37	1117,00
-4085,66	1055,00
-4072,98	1115,00
-4060,31	1014,00
-4047,66	1135,00
-4035,04	1157,00
-4022,43	1024,00
-4009,84	1220,00
-3997,27	924,00
-3984,72	1028,00
-3972,19	1162,00
-3959,69	935,00
-3947,20	1081,00
-3934,73	1126,00
-3922,27	1017,00
-3909,84	1046,00
-3897,43	1069,00
-3885,04	1055,00
-3872,67	1019,00
-3860,31	1091,00
-3847,98	1157,00
-3835,66	994,00
-3823,36	1109,00
-3811,09	975,00
-3798,83	1072,00
-3786,59	1175,00
-3774,37	1173,00
-3762,17	956,00
-3749,98	1028,00
-3737,82	929,00
-3725,67	1281,00
-3713,55	1018,00
-3701,44	1079,00
-3689,35	1119,00
-3677,28	1155,00
-3665,22	1011,00
-3653,19	1032,00
-3641,17	1051,00
-3629,18	1096,00
-3617,20	1021,00
-3605,24	1061,00
-3593,30	1065,00
-3581,37	1069,00
-3569,47	1093,00
-3557,58	1160,00
-3545,71	1055,00
-3533,86	1145,00
-3522,02	1030,00
-3510,21	1080,00
-3498,41	1046,00
-3486,63	1016,00
-3474,87	1071,00
-3463,12	957,00
-3451,40	1123,00
-3439,69	1129,00
-3428,00	1115,00
-3416,33	1194,00
-3404,67	937,00
-3393,03	1116,00
-3381,41	1101,00
-3369,81	1056,00
-3358,22	1107,00
-3346,66	1138,00
-3335,10	1011,00
-3323,57	998,00
-3312,06	1042,00
-3300,56	1143,00
-3289,08	919,00
-3277,61	1059,00
-3266,16	1205,00
-3254,73	1001,00
-3243,32	1142,00
-3231,92	1023,00
-3220,55	1030,00
-3209,18	1176,00
-3197,84	1024,00
-3186,51	960,00
-3175,20	983,00
-3163,90	1046,00
-3152,63	1025,00
-3141,36	1042,00
-3130,12	1012,00
-3118,89	1140,00
-3107,68	1058,00
-3096,49	1097,00
-3085,31	1121,00
-3074,15	1012,00
-3063,00	1141,00
-3051,87	1230,00
-3040,76	1106,00
-3029,67	1088,00
-3018,59	1353,00
-3007,52	1132,00
-2996,48	1176,00
-2985,44	960,00
-2974,43	1090,00
-2963,43	1093,00
-2952,45	968,00
-2941,48	1106,00
-2930,53	1093,00
-2919,60	959,00
-2908,68	1023,00
-2897,78	1012,00
-2886,89	1100,00
-2876,02	1024,00
-2865,17	1059,00
-2854,33	957,00
-2843,50	967,00
-2832,70	1033,00
-2821,90	1131,00
-2811,13	1011,00
-2800,37	1013,00
-2789,62	1091,00
-2778,89	1154,00
-2768,18	1162,00
-2757,48	1135,00
-2746,80	1238,00
-2736,13	1058,00
-2725,48	1017,00
-2714,84	1033,00
-2704,22	1026,00
-2693,61	1023,00
-2683,02	1039,00
-2672,45	980,00
-2661,89	1238,00
-2651,34	1119,00
-2640,81	1003,00
-2630,30	1186,00
-2619,80	1103,00
-2609,31	1178,00
-2598,84	939,00
-2588,39	1055,00
-2577,95	938,00
-2567,52	957,00
-2557,11	1077,00
-2546,71	984,00
-2536,33	1103,00
-2525,97	1037,00
-2515,62	1024,00
-2505,28	989,00
-2494,96	991,00
-2484,65	1038,00
-2474,36	1289,00
-2464,08	1059,00
-2453,82	1109,00
-2443,57	1090,00
-2433,33	1038,00
-2423,11	948,00
-2412,91	1047,00
-2402,72	1039,00
-2392,54	1076,00
-2382,38	1051,00
-2372,23	1108,00
-2362,09	5448,00
-2351,97	944,00
-2341,87	969,00
-2331,78	1145,00
-2321,70	1109,00
-2311,64	1187,00
-2301,59	1006,00
-2291,55	977,00
-2281,53	1057,00
-2271,53	1010,00
-2261,53	1145,00
-2251,55	1074,00
-2241,59	1042,00
-2231,64	1131,00
-2221,70	978,00
-2211,78	1100,00
-2201,87	1126,00
-2191,97	1133,00
-2182,09	1093,00
-2172,22	1186,00
-2162,37	957,00
-2152,53	992,00
-2142,70	940,00
-2132,89	989,00
-2123,09	1085,00
-2113,30	1047,00
-2103,53	1064,00
-2093,77	1120,00
-2084,02	960,00
-2074,29	1174,00
-2064,57	1096,00
-2054,86	1150,00
-2045,17	1096,00
-2035,49	1207,00
-2025,82	1009,00
-2016,17	977,00
-2006,53	1029,00
-1996,91	986,00
-1987,29	987,00
-1977,69	1026,00
-1968,11	1029,00
-1958,53	1043,00
-1948,97	1159,00
-1939,42	1118,00
-1929,89	987,00
-1920,37	1099,00
-1910,86	1112,00
-1901,36	1104,00
-1891,88	1100,00
-1882,41	1058,00
-1872,95	1090,00
-1863,51	1109,00
-1854,08	1168,00
-1844,66	1158,00
-1835,26	1051,00
-1825,86	1045,00
-1816,48	977,00
-1807,11	1007,00
-1797,76	1090,00
-1788,42	1135,00
-1779,09	1092,00
-1769,77	1024,00
-1760,47	1260,00
-1751,17	1039,00
-1741,89	1062,00
-1732,63	1123,00
-1723,37	1328,00
-1714,13	1200,00
-1704,90	1030,00
-1695,68	1199,00
-1686,48	1026,00
-1677,29	1004,00
-1668,11	1303,00
-1658,94	1136,00
-1649,78	1068,00
-1640,64	1082,00
-1631,51	1112,00
-1622,39	1082,00
-1613,28	1147,00
-1604,19	1248,00
-1595,10	1175,00
-1586,03	1014,00
-1576,97	1213,00
-1567,93	1062,00
-1558,89	1228,00
-1549,87	1061,00
-1540,86	1031,00
-1531,86	1002,00
-1522,87	1092,00
-1513,90	1213,00
-1504,93	1135,00
-1495,98	1153,00
-1487,04	1186,00
-1478,12	1073,00
-1469,20	1061,00
-1460,30	1154,00
-1451,40	1189,00
-1442,52	1078,00
-1433,65	1036,00
-1424,80	1093,00
-1415,95	1038,00
-1407,12	1308,00
-1398,30	1093,00
-1389,48	1065,00
-1380,69	1041,00
-1371,90	1089,00
-1363,12	1065,00
-1354,36	1270,00
-1345,60	1032,00
-1336,86	1152,00
-1328,13	1262,00
-1319,41	1059,00
-1310,70	1049,00
-1302,01	1081,00
-1293,32	1036,00
-1284,65	1013,00
-1275,99	1064,00
-1267,33	1177,00
-1258,69	1121,00
-1250,06	1162,00
-1241,45	982,00
-1232,84	1193,00
-1224,25	1123,00
-1215,66	1177,00
-1207,09	1111,00
-1198,53	1018,00
-1189,97	1044,00
-1181,43	1031,00
-1172,91	1153,00
-1164,39	1209,00
-1155,88	984,00
-1147,38	902,00
-1138,90	976,00
-1130,43	1044,00
-1121,96	1108,00
-1113,51	1176,00
-1105,07	1077,00
-1096,64	1046,00
-1088,22	1149,00
-1079,81	1152,00
-1071,41	1215,00
-1063,02	1002,00
-1054,65	1166,00
-1046,28	948,00
-1037,92	1151,00
-1029,58	973,00
-1021,24	1059,00
-1012,92	1502,00
-1004,61	1060,00
-996,30	1412,00
-988,01	894,00
-979,73	1116,00
-971,46	1166,00
-963,20	1027,00
-954,95	888,00
-946,71	988,00
-938,48	1009,00
-930,26	1149,00
-922,06	1037,00
-913,86	1106,00
-905,67	1029,00
-897,49	1106,00
-889,33	1075,00
-881,17	1164,00
-873,02	1127,00
-864,89	889,00
-856,76	1060,00
-848,65	1142,00
-840,54	1080,00
-832,45	1152,00
-824,36	882,00
-816,29	1095,00
-808,22	1123,00
-800,17	1104,00
-792,12	1129,00
-784,09	1211,00
-776,06	924,00
-768,05	1109,00
-760,04	990,00
-752,05	1041,00
-744,07	1202,00
-736,09	1147,00
-728,13	996,00
-720,17	1028,00
-712,23	1020,00
-704,29	1138,00
-696,37	1119,00
-688,45	1143,00
-680,55	1057,00
-672,65	1016,00
-664,77	1025,00
-656,89	1082,00
-649,03	1079,00
-641,17	1005,00
-633,32	1165,00
-625,49	989,00
-617,66	1084,00
-609,84	1107,00
-602,03	928,00
-594,23	931,00
-586,45	1065,00
-578,67	1078,00
-570,90	939,00
-563,14	1039,00
-555,39	1102,00
-547,65	1173,00
-539,91	1112,00
-532,19	1056,00
-524,48	1158,00
-516,78	1072,00
-509,08	1090,00
-501,40	977,00
-493,72	1044,00
-486,06	1033,00
-478,40	1292,00
-470,76	1002,00
-463,12	1013,00
-455,49	1040,00
-447,87	968,00
-440,26	985,00
-432,66	1028,00
-425,07	1164,00
-417,49	964,00
-409,92	1057,00
-402,35	965,00
-394,80	965,00
-387,25	1193,00
-379,72	1076,00
-372,19	1060,00
-364,67	980,00
-357,17	1087,00
-349,67	1135,00
-342,18	1021,00
-334,69	1157,00
-327,22	1094,00
-319,76	1040,00
-312,30	1115,00
-304,86	1098,00
-297,42	1084,00
-290,00	1020,00
-282,58	1044,00
-275,17	1090,00
-267,77	1183,00
-260,37	1064,00
-252,99	1075,00
-245,62	1112,00
-238,25	1031,00
-230,90	1100,00
-223,55	1169,00
-216,21	1129,00
-208,88	1201,00
-201,56	1160,00
-194,25	1102,00
-186,94	1021,00
-179,65	1154,00
-172,36	1213,00
-165,08	1172,00
-157,81	1281,00
-150,55	1212,00
-143,30	1240,00
-136,06	1204,00
-128,82	1324,00
-121,60	1218,00
-114,38	1336,00
-107,17	1483,00
-99,97	1413,00
-92,78	1424,00
-85,60	1573,00
-78,42	1683,00
-71,25	1698,00
-64,10	1855,00
-56,95	1961,00
-49,81	2109,00
-42,67	2493,00
-35,55	2683,00
-28,43	3288,00
-21,33	4792,00
-14,23	13545,00
-7,14	57775,00
-0,05	57564,00
7,02	57281,00
14,09	44126,00
21,14	12232,00
28,19	5540,00
35,23	3985,00
42,27	3318,00
49,29	2911,00
56,31	2570,00
63,32	2475,00
70,32	2109,00
77,31	1921,00
84,29	1606,00
91,27	1805,00
98,23	1851,00
105,19	1650,00
112,14	1790,00
119,09	2138,00
126,02	2882,00
132,95	3222,00
139,87	3381,00
146,78	3460,00
153,68	3332,00
160,58	3339,00
167,46	3297,00
174,34	3318,00
181,21	3382,00
188,08	3291,00
194,93	3483,00
201,78	3378,00
208,62	3294,00
215,45	3365,00
222,27	3382,00
229,09	3708,00
235,90	3296,00
242,70	3350,00
249,49	3488,00
256,27	3375,00
263,05	3314,00
269,82	3288,00
276,58	3513,00
283,33	3267,00
290,08	3297,00
296,82	3298,00
303,55	3161,00
310,27	3136,00
316,98	3332,00
323,69	3220,00
330,39	3282,00
337,08	3401,00
343,76	3238,00
350,44	3248,00
357,11	3415,00
363,77	3199,00
370,42	3187,00
377,07	3344,00
383,71	3282,00
390,34	3172,00
396,96	3174,00
403,58	3140,00
410,19	3339,00
416,79	3432,00
423,38	3363,00
429,97	3316,00
436,55	3085,00
443,12	3238,00
449,68	3235,00
456,24	3226,00
462,79	3295,00
469,33	3226,00
475,86	3179,00
482,39	3253,00
488,91	3265,00
495,42	3085,00
501,93	3201,00
508,42	3102,00
514,91	3304,00
521,40	3110,00
527,87	3251,00
534,34	3082,00
540,80	3330,00
547,25	3257,00
553,70	3211,00
560,14	3207,00
566,57	3293,00
573,00	3222,00
579,41	3284,00
585,83	3162,00
592,23	3262,00
598,62	3329,00
605,01	3123,00
611,40	3221,00
617,77	3361,00
624,14	3164,00
630,50	3211,00
636,85	3298,00
643,20	3254,00
649,54	3140,00
655,87	3288,00
662,20	3268,00
668,52	3309,00
674,83	3265,00
681,13	3287,00
687,43	3179,00
693,72	3103,00
700,00	3073,00
706,28	3189,00
712,55	3163,00
718,81	3188,00
725,07	3194,00
731,32	3115,00
737,56	3228,00
743,79	3176,00
750,02	3300,00
756,24	3206,00
762,46	3150,00
768,67	3559,00
774,87	3342,00
781,06	3185,00
787,25	3312,00
793,43	3304,00
799,60	3181,00
805,77	3382,00
811,93	3247,00
818,08	3223,00
824,23	3205,00
830,37	3562,00
836,50	3282,00
842,63	3351,00
848,75	3298,00
854,87	3312,00
860,97	3179,00
867,07	3387,00
873,17	3288,00
879,25	3218,00
885,33	3287,00
891,41	3310,00
897,47	3351,00
903,53	3316,00
909,59	3433,00
915,63	3289,00
921,67	3317,00
927,71	3400,00
933,74	3387,00
939,76	3167,00
945,77	3228,00
951,78	3395,00
957,78	3148,00
963,78	3377,00
969,77	3333,00
975,75	3350,00
981,72	3283,00
987,69	4917,00
993,66	3368,00
999,61	3438,00
1005,56	3401,00
1011,51	3340,00
1017,44	3336,00
1023,37	3492,00
1029,30	3405,00
1035,22	3538,00
1041,13	3439,00
1047,03	3459,00
1052,93	3552,00
1058,83	3790,00
1064,71	3967,00
1070,59	3864,00
1076,47	3602,00
1082,33	3591,00
1088,20	3532,00
1094,05	3599,00
1099,90	3349,00
1105,74	3483,00
1111,58	3424,00
1117,41	3642,00
1123,23	3782,00
1129,05	4218,00
1134,86	4012,00
1140,67	3798,00
1146,47	3656,00
1152,26	3644,00
1158,05	3331,00
1163,83	3572,00
1169,60	3533,00
1175,37	3557,00
1181,13	3453,00
1186,89	3551,00
1192,64	3457,00
1198,38	3635,00
1204,12	3509,00
1209,85	3537,00
1215,58	3544,00
1221,30	3606,00
1227,02	3652,00
1232,72	3404,00
1238,43	3422,00
1244,12	3558,00
1249,81	3519,00
1255,50	3601,00
1261,17	3549,00
1266,85	3557,00
1272,51	3635,00
1278,17	3810,00
1283,83	3537,00
1289,47	4028,00
1295,12	4439,00
1300,75	4224,00
1306,38	4072,00
1312,01	3706,00
1317,63	3748,00
1323,24	3598,00
1328,85	3759,00
1334,45	3510,00
1340,04	3668,00
1345,63	3571,00
1351,22	3846,00
1356,80	3687,00
1362,37	3716,00
1367,93	3620,00
1373,49	3732,00
1379,05	3649,00
1384,60	3680,00
1390,14	3725,00
1395,68	3707,00
1401,21	3664,00
1406,74	3750,00
1412,26	3916,00
1417,77	4032,00
1423,28	3903,00
1428,78	4045,00
1434,28	4238,00
1439,77	4366,00
1445,26	4334,00
1450,74	4420,00
1456,22	4178,00
1461,68	4202,00
1467,15	4024,00
1472,61	3844,00
1478,06	3931,00
1483,51	3731,00
1488,95	3570,00
1494,38	3696,00
1499,81	3507,00
1505,24	3462,00
1510,65	3530,00
1516,07	3648,00
1521,48	3462,00
1526,88	3322,00
1532,27	3465,00
1537,67	3382,00
1543,05	3483,00
1548,43	3349,00
1553,81	3461,00
1559,18	3396,00
1564,54	3380,00
1569,90	3489,00
1575,25	3292,00
1580,60	3288,00
1585,94	3485,00
1591,28	3463,00
1596,61	3391,00
1601,93	3500,00
1607,25	3520,00
1612,57	3468,00
1617,88	3480,00
1623,18	3314,00
1628,48	3396,00
1633,77	3271,00
1639,06	3360,00
1644,34	3245,00
1649,62	3383,00
1654,89	3527,00
1660,16	3229,00
1665,42	3425,00
1670,67	3270,00
1675,92	3264,00
1681,17	3179,00
1686,41	3215,00
1691,64	3519,00
1696,87	3195,00
1702,10	3145,00
1707,32	3352,00
1712,53	3293,00
1717,74	3349,00
1722,94	3245,00
1728,14	3232,00
1733,33	3152,00
1738,52	3093,00
1743,70	3226,00
1748,88	3242,00
1754,05	3112,00
1759,22	3101,00
1764,38	3343,00
1769,53	3188,00
1774,69	3298,00
1779,83	3231,00
1784,97	3092,00
1790,11	3111,00
1795,24	3108,00
1800,36	3161,00
1805,48	3084,00
1810,60	3014,00
1815,71	3079,00
1820,82	3083,00
1825,92	3157,00
1831,01	3098,00
1836,10	3112,00
1841,19	3116,00
1846,26	2971,00
1851,34	3142,00
1856,41	3234,00
1861,47	3122,00
1866,53	3141,00
1871,59	3073,00
1876,64	3117,00
1881,68	3018,00
1886,72	3168,00
1891,76	3076,00
1896,79	3055,00
1901,81	2954,00
1906,83	2993,00
1911,85	2884,00
1916,86	3046,00
1921,86	3024,00
1926,86	2930,00
1931,86	2893,00
1936,85	3029,00
1941,83	2848,00
1946,81	2929,00
1951,79	2944,00
1956,76	2756,00
1961,72	2718,00
1966,68	2823,00
1971,64	2794,00
1976,59	2735,00
1981,54	2807,00
1986,48	2805,00
1991,42	2749,00
1996,35	3000,00
2001,27	2833,00
2006,20	2709,00
2011,11	2845,00
2016,03	2940,00
2020,93	2765,00
2025,84	2764,00
2030,73	2744,00
2035,63	2576,00
2040,52	2849,00
2045,40	2649,00
2050,28	2728,00
2055,15	2768,00
2060,02	2645,00
2064,89	2784,00
2069,75	2925,00
2074,60	2827,00
2079,46	2726,00
2084,30	2758,00
2089,14	2730,00
2093,98	2824,00
2098,81	2759,00
2103,64	2819,00
2108,46	2781,00
2113,28	2698,00
2118,09	2712,00
2122,90	2677,00
2127,70	2621,00
2132,50	2838,00
2137,30	2664,00
2142,09	2589,00
2146,87	2584,00
2151,66	2683,00
2156,43	2727,00
2161,20	2668,00
2165,97	2798,00
2170,73	2621,00
2175,49	2769,00
2180,24	2609,00
2184,99	2802,00
2189,74	2612,00
2194,48	2586,00
2199,21	2706,00
2203,94	2479,00
2208,67	2490,00
2213,39	2468,00
2218,11	2572,00
2222,82	2527,00
2227,53	2437,00
2232,23	2690,00
2236,93	2605,00
2241,63	2597,00
2246,32	2575,00
2251,00	2479,00
2255,68	2511,00
2260,36	2506,00
2265,03	2581,00
2269,70	2689,00
2274,36	2439,00
2279,02	2446,00
2283,68	2588,00
2288,33	2339,00
2292,97	2549,00
2297,61	2383,00
2302,25	2492,00
2306,88	2441,00
2311,51	2321,00
2316,14	2459,00
2320,75	2457,00
2325,37	2365,00
2329,98	2564,00
2334,59	2387,00
2339,19	2388,00
2343,79	2305,00
2348,38	2441,00
2352,97	2290,00
2357,55	2567,00
2362,13	2460,00
2366,71	2339,00
2371,28	2445,00
2375,85	2387,00
2380,41	2438,00
2384,97	2292,00
2389,52	2358,00
2394,07	2444,00
2398,62	2421,00
2403,16	2357,00
2407,70	2212,00
2412,23	2353,00
2416,76	2380,00
2421,29	2403,00
2425,81	2376,00
2430,32	2316,00
2434,84	2054,00
2439,34	2184,00
2443,85	2404,00
2448,35	2185,00
2452,84	2091,00
2457,33	2217,00
2461,82	2132,00
2466,30	2057,00
2470,78	2318,00
2475,25	2100,00
2479,72	2160,00
2484,19	2281,00
2488,65	2269,00
2493,11	1985,00
2497,56	2182,00
2502,01	1969,00
2506,46	2204,00
2510,90	2142,00
2515,34	2155,00
2519,77	2076,00
2524,20	2097,00
2528,62	2111,00
2533,04	2202,00
2537,46	1930,00
2541,87	1991,00
2546,28	2018,00
2550,68	2069,00
2555,08	1919,00
2559,48	2044,00
2563,87	2034,00
2568,26	1979,00
2572,64	2021,00
2577,02	2045,00
2581,40	1919,00
2585,77	1931,00
2590,14	1978,00
2594,50	1878,00
2598,86	1905,00
2603,22	1934,00
2607,57	1924,00
2611,92	1885,00
2616,26	1994,00
2620,60	2065,00
2624,94	1882,00
2629,27	2030,00
2633,60	1847,00
2637,92	2021,00
2642,24	2100,00
2646,56	1886,00
2650,87	1867,00
2655,18	2053,00
2659,48	1798,00
2663,78	1867,00
2668,08	1837,00
2672,37	1936,00
2676,66	2002,00
2680,95	1936,00
2685,23	1856,00
2689,50	1852,00
2693,78	1901,00
2698,05	1764,00
2702,31	1862,00
2706,57	2004,00
2710,83	2074,00
2715,08	1886,00
2719,33	2133,00
2723,58	1939,00
2727,82	2005,00
2732,06	1902,00
2736,29	1912,00
2740,53	1993,00
2744,75	1879,00
2748,97	2007,00
2753,19	1994,00
2757,41	1925,00
2761,62	1994,00
2765,83	1974,00
2770,03	1788,00
2774,23	1824,00
2778,43	1796,00
2782,62	1910,00
2786,81	1855,00
2791,00	1902,00
2795,18	1972,00
2799,35	1988,00
2803,53	2028,00
2807,70	1950,00
2811,86	1792,00
2816,03	1968,00
2820,19	1949,00
2824,34	1902,00
2828,49	2011,00
2832,64	2096,00
2836,78	2264,00
2840,92	2376,00
2845,06	2646,00
2849,19	2774,00
2853,32	2800,00
2857,45	2893,00
2861,57	2688,00
2865,69	2710,00
2869,80	2557,00
2873,91	2550,00
2878,02	2807,00
2882,12	2923,00
2886,22	2878,00
2890,32	2912,00
2894,41	2699,00
2898,50	2531,00
2902,58	2508,00
2906,67	2449,00
2910,74	2302,00
2914,82	2220,00
2918,89	2276,00
2922,96	2193,00
2927,02	2095,00
2931,08	1976,00
2935,13	1824,00
2939,19	1993,00
2943,24	1871,00
2947,28	1902,00
2951,32	1750,00
2955,36	1652,00
2959,40	1878,00
2963,43	1831,00
2967,46	1620,00
2971,48	1643,00
2975,50	1686,00
2979,52	1737,00
2983,53	1828,00
2987,54	1612,00
2991,55	1614,00
2995,55	1624,00
2999,55	1483,00
3003,54	1451,00
3007,54	1593,00
3011,53	1529,00
3015,51	1590,00
3019,49	1616,00
3023,47	1485,00
3027,45	1475,00
3031,42	1448,00
3035,39	1370,00
3039,35	1421,00
3043,31	1530,00
3047,27	1541,00
3051,22	1576,00
3055,17	1329,00
3059,12	1363,00
3063,06	1446,00
3067,00	1212,00
3070,94	1357,00
3074,87	1450,00
3078,80	1474,00
3082,73	1435,00
3086,65	1436,00
3090,57	1323,00
3094,49	1366,00
3098,40	1408,00
3102,31	1342,00
3106,22	1395,00
3110,12	1429,00
3114,02	1435,00
3117,92	1458,00
3121,81	1237,00
3125,70	1283,00
3129,58	1392,00
3133,47	1347,00
3137,34	1434,00
3141,22	1379,00
3145,09	1459,00
3148,96	1280,00
3152,83	1192,00
3156,69	1403,00
3160,55	1224,00
3164,40	1315,00
3168,26	1279,00
3172,10	1409,00
3175,95	1413,00
3179,79	1328,00
3183,63	1310,00
3187,47	1317,00
3191,30	1250,00
3195,13	1431,00
3198,95	1182,00
3202,78	1317,00
3206,60	1165,00
3210,41	1166,00
3214,23	1199,00
3218,03	1280,00
3221,84	1204,00
3225,64	1191,00
3229,44	1225,00
3233,24	1259,00
3237,03	1266,00
3240,82	1224,00
3244,61	1201,00
3248,39	1246,00
3252,17	1228,00
3255,95	1270,00
3259,72	1325,00
3263,49	1478,00
3267,26	1178,00
3271,03	1177,00
3274,79	1145,00
3278,54	1160,00
3282,30	1129,00
3286,05	1221,00
3289,80	1171,00
3293,54	1283,00
3297,29	1162,00
3301,02	1152,00
3304,76	1208,00
3308,49	1275,00
3312,22	1119,00
3315,95	1142,00
3319,67	1155,00
3323,39	1306,00
3327,10	1239,00
3330,82	1175,00
3334,53	1085,00
3338,24	1088,00
3341,94	1163,00
3345,64	1084,00
3349,34	1116,00
3353,03	1179,00
3356,72	1181,00
3360,41	1301,00
3364,10	1183,00
3367,78	1049,00
3371,46	1170,00
3375,13	1136,00
3378,81	1192,00
3382,48	1161,00
3386,14	1289,00
3389,81	1151,00
3393,47	1038,00
3397,12	1345,00
3400,78	1094,00
3404,43	1158,00
3408,08	1155,00
3411,72	1136,00
3415,36	1154,00
3419,00	1098,00
3422,64	1074,00
3426,27	1116,00
3429,90	1101,00
3433,53	1158,00
3437,15	1123,00
3440,77	1015,00
3444,39	1110,00
3448,00	1240,00
3451,62	1131,00
3455,22	1061,00
3458,83	1156,00
3462,43	1111,00
3466,03	1260,00
3469,63	1213,00
3473,22	1191,00
3476,81	1157,00
3480,40	1235,00
3483,99	961,00
3487,57	1168,00
3491,15	1048,00
3494,72	1068,00
3498,29	1091,00
3501,86	1080,00
3505,43	1163,00
3508,99	1060,00
3512,56	1090,00
3516,11	1163,00
3519,67	1112,00
3523,22	1114,00
3526,77	1063,00
3530,32	1060,00
3533,86	1085,00
3537,40	1160,00
3540,94	1182,00
3544,47	981,00
3548,00	1009,00
3551,53	1114,00
3555,06	1029,00
3558,58	1129,00
3562,10	1062,00
3565,62	1137,00
3569,13	1040,00
3572,64	1106,00
3576,15	922,00
3579,66	997,00
3583,16	1124,00
3586,66	959,00
3590,16	1001,00
3593,65	1019,00
3597,14	993,00
3600,63	1095,00
3604,11	1218,00
3607,60	1011,00
3611,08	1070,00
3614,55	1086,00
3618,03	860,00
3621,50	981,00
3624,97	994,00
3628,43	1181,00
3631,90	939,00
3635,36	929,00
3638,81	967,00
3642,27	1102,00
3645,72	984,00
3649,17	1065,00
3652,61	905,00
3656,06	929,00
3659,50	973,00
3662,93	991,00
3666,37	1049,00
3669,80	1184,00
3673,23	964,00
3676,65	1123,00
3680,08	1144,00
3683,50	903,00
3686,92	1060,00
3690,33	865,00
3693,74	981,00
3697,15	877,00
3700,56	1000,00
3703,96	1077,00
3707,36	813,00
3710,76	911,00
3714,16	923,00
3717,55	918,00
3720,94	1011,00
3724,33	882,00
3727,71	977,00
3731,10	897,00
3734,48	839,00
3737,85	821,00
3741,23	912,00
3744,60	906,00
3747,97	880,00
3751,33	873,00
3754,69	875,00
3758,05	916,00
3761,41	770,00
3764,77	872,00
3768,12	750,00
3771,47	826,00
3774,82	881,00
3778,16	-11,00
3781,50	14,00
3784,84	4,00
3788,18	13,00
>>>>>End Processed Spectral Data<<<<<
