SpectraSuite Data File
++++++++++++++++++++++++++++++++++++
Date: Mon Mar 09 14:42:47 ICT 2026
User: Administrator
Dark Spectrum Present: Yes
Reference Spectrum Present: No
Number of Sampled Component Spectra: 1
Spectrometers: MAYP113682
Integration Time (usec): 3000000 (MAYP113682)
Spectra Averaged: 1 (MAYP113682)
Boxcar Smoothing: 0 (MAYP113682)
Correct for Electrical Dark: No (MAYP113682)
Strobe/Lamp Enabled: No (MAYP113682)
Correct for Detector Non-linearity: No (MAYP113682)
Correct for Stray Light: No (MAYP113682)
Number of Pixels in Processed Spectrum: 2068
>>>>>Begin Processed Spectral Data<<<<<
-37534,58	23,00
-37414,56	2,00
-37295,11	5,00
-37176,24	2,00
-37057,95	418,00
-36940,22	348,00
-36823,05	469,00
-36706,45	537,00
-36590,40	366,00
-36474,90	522,00
-36359,95	544,00
-36245,55	547,00
-36131,68	555,00
-36018,35	542,00
-35905,55	536,00
-35793,29	532,00
-35681,54	481,00
-35570,32	479,00
-35459,62	422,00
-35349,43	527,00
-35239,75	524,00
-35130,58	470,00
-35021,91	484,00
-34913,74	510,00
-34806,07	428,00
-34698,89	555,00
-34592,20	536,00
-34486,00	536,00
-34380,28	399,00
-34275,04	516,00
-34170,27	477,00
-34065,98	520,00
-33962,16	486,00
-33858,81	540,00
-33755,92	564,00
-33653,49	666,00
-33551,52	562,00
-33450,01	435,00
-33348,94	518,00
-33248,33	509,00
-33148,16	512,00
-33048,43	546,00
-32949,14	572,00
-32850,29	473,00
-32751,87	539,00
-32653,89	599,00
-32556,33	636,00
-32459,20	610,00
-32362,49	537,00
-32266,19	528,00
-32170,32	592,00
-32074,86	571,00
-31979,82	582,00
-31885,18	710,00
-31790,95	615,00
-31697,12	542,00
-31603,69	609,00
-31510,67	568,00
-31418,04	487,00
-31325,80	620,00
-31233,95	629,00
-31142,49	532,00
-31051,42	556,00
-30960,73	635,00
-30870,43	622,00
-30780,50	596,00
-30690,95	580,00
-30601,77	690,00
-30512,97	509,00
-30424,53	602,00
-30336,46	487,00
-30248,76	528,00
-30161,42	607,00
-30074,44	536,00
-29987,81	522,00
-29901,55	651,00
-29815,63	469,00
-29730,07	572,00
-29644,86	606,00
-29560,00	641,00
-29475,48	497,00
-29391,30	504,00
-29307,47	453,00
-29223,97	613,00
-29140,81	556,00
-29057,99	646,00
-28975,50	557,00
-28893,34	550,00
-28811,51	525,00
-28730,00	503,00
-28648,82	521,00
-28567,97	697,00
-28487,43	630,00
-28407,21	578,00
-28327,32	503,00
-28247,73	606,00
-28168,46	511,00
-28089,50	614,00
-28010,85	406,00
-27932,51	417,00
-27854,48	578,00
-27776,75	478,00
-27699,32	414,00
-27622,19	666,00
-27545,37	531,00
-27468,84	548,00
-27392,60	530,00
-27316,66	584,00
-27241,01	583,00
-27165,66	578,00
-27090,59	545,00
-27015,81	607,00
-26941,31	610,00
-26867,10	562,00
-26793,17	500,00
-26719,52	624,00
-26646,15	573,00
-26573,06	611,00
-26500,24	484,00
-26427,70	518,00
-26355,43	580,00
-26283,43	557,00
-26211,71	586,00
-26140,25	607,00
-26069,06	756,00
-25998,13	497,00
-25927,46	504,00
-25857,06	606,00
-25786,92	505,00
-25717,04	468,00
-25647,42	528,00
-25578,05	506,00
-25508,94	563,00
-25440,09	634,00
-25371,48	545,00
-25303,13	465,00
-25235,02	543,00
-25167,17	545,00
-25099,56	645,00
-25032,19	498,00
-24965,07	534,00
-24898,20	446,00
-24831,56	526,00
-24765,17	566,00
-24699,01	540,00
-24633,10	556,00
-24567,41	507,00
-24501,97	560,00
-24436,75	549,00
-24371,77	509,00
-24307,03	601,00
-24242,51	443,00
-24178,22	665,00
-24114,16	507,00
-24050,32	550,00
-23986,71	562,00
-23923,32	593,00
-23860,16	451,00
-23797,22	502,00
-23734,50	626,00
-23672,00	529,00
-23609,71	571,00
-23547,65	460,00
-23485,80	582,00
-23424,16	544,00
-23362,74	669,00
-23301,53	527,00
-23240,54	499,00
-23179,75	477,00
-23119,17	479,00
-23058,80	558,00
-22998,64	567,00
-22938,68	524,00
-22878,93	564,00
-22819,39	548,00
-22760,04	586,00
-22700,90	527,00
-22641,96	546,00
-22583,22	522,00
-22524,68	576,00
-22466,33	451,00
-22408,19	659,00
-22350,23	562,00
-22292,48	548,00
-22234,92	583,00
-22177,55	597,00
-22120,37	571,00
-22063,38	563,00
-22006,58	517,00
-21949,98	560,00
-21893,56	415,00
-21837,33	452,00
-21781,28	526,00
-21725,42	524,00
-21669,74	540,00
-21614,25	562,00
-21558,94	544,00
-21503,81	511,00
-21448,86	626,00
-21394,10	560,00
-21339,51	563,00
-21285,10	459,00
-21230,86	484,00
-21176,81	536,00
-21122,93	560,00
-21069,22	557,00
-21015,69	514,00
-20962,33	533,00
-20909,14	429,00
-20856,13	525,00
-20803,28	479,00
-20750,61	463,00
-20698,10	523,00
-20645,76	620,00
-20593,59	608,00
-20541,59	564,00
-20489,75	593,00
-20438,07	466,00
-20386,56	528,00
-20335,22	612,00
-20284,03	461,00
-20233,01	505,00
-20182,15	396,00
-20131,45	458,00
-20080,91	541,00
-20030,52	523,00
-19980,30	481,00
-19930,23	522,00
-19880,32	568,00
-19830,56	641,00
-19780,96	509,00
-19731,52	642,00
-19682,23	540,00
-19633,09	564,00
-19584,10	512,00
-19535,26	522,00
-19486,58	542,00
-19438,04	577,00
-19389,66	446,00
-19341,42	508,00
-19293,33	496,00
-19245,39	547,00
-19197,60	570,00
-19149,95	538,00
-19102,45	593,00
-19055,09	556,00
-19007,87	556,00
-18960,80	589,00
-18913,87	540,00
-18867,09	558,00
-18820,44	558,00
-18773,94	610,00
-18727,57	519,00
-18681,35	445,00
-18635,26	546,00
-18589,31	502,00
-18543,50	437,00
-18497,83	645,00
-18452,29	601,00
-18406,89	511,00
-18361,63	611,00
-18316,50	543,00
-18271,50	464,00
-18226,63	548,00
-18181,90	539,00
-18137,30	635,00
-18092,84	495,00
-18048,50	532,00
-18004,29	492,00
-17960,22	490,00
-17916,27	469,00
-17872,45	573,00
-17828,76	552,00
-17785,20	631,00
-17741,77	590,00
-17698,46	537,00
-17655,28	421,00
-17612,22	522,00
-17569,29	472,00
-17526,48	543,00
-17483,79	501,00
-17441,23	457,00
-17398,79	548,00
-17356,48	510,00
-17314,28	640,00
-17272,21	493,00
-17230,26	563,00
-17188,42	592,00
-17146,71	437,00
-17105,12	633,00
-17063,64	550,00
-17022,28	542,00
-16981,04	563,00
-16939,92	468,00
-16898,91	604,00
-16858,02	616,00
-16817,25	580,00
-16776,59	467,00
-16736,04	603,00
-16695,61	544,00
-16655,29	490,00
-16615,09	496,00
-16574,99	556,00
-16535,01	427,00
-16495,15	548,00
-16455,39	565,00
-16415,74	536,00
-16376,21	516,00
-16336,78	419,00
-16297,46	550,00
-16258,26	513,00
-16219,16	555,00
-16180,17	443,00
-16141,28	626,00
-16102,51	567,00
-16063,84	550,00
-16025,27	619,00
-15986,82	510,00
-15948,46	474,00
-15910,22	531,00
-15872,07	487,00
-15834,04	518,00
-15796,10	453,00
-15758,27	625,00
-15720,54	533,00
-15682,91	498,00
-15645,39	529,00
-15607,97	553,00
-15570,64	515,00
-15533,42	504,00
-15496,30	562,00
-15459,28	497,00
-15422,36	487,00
-15385,54	490,00
-15348,82	538,00
-15312,19	659,00
-15275,66	561,00
-15239,23	498,00
-15202,90	469,00
-15166,67	508,00
-15130,53	615,00
-15094,48	625,00
-15058,54	635,00
-15022,68	435,00
-14986,93	544,00
-14951,26	589,00
-14915,69	420,00
-14880,22	511,00
-14844,84	458,00
-14809,55	582,00
-14774,35	481,00
-14739,25	646,00
-14704,24	541,00
-14669,32	581,00
-14634,49	557,00
-14599,75	537,00
-14565,10	422,00
-14530,55	590,00
-14496,08	561,00
-14461,70	441,00
-14427,41	482,00
-14393,21	451,00
-14359,10	510,00
-14325,07	566,00
-14291,14	483,00
-14257,29	510,00
-14223,52	503,00
-14189,85	648,00
-14156,26	561,00
-14122,76	547,00
-14089,34	487,00
-14056,01	557,00
-14022,76	539,00
-13989,60	600,00
-13956,52	546,00
-13923,53	574,00
-13890,62	528,00
-13857,79	493,00
-13825,05	460,00
-13792,39	553,00
-13759,81	587,00
-13727,31	462,00
-13694,90	486,00
-13662,57	443,00
-13630,31	559,00
-13598,14	454,00
-13566,05	447,00
-13534,05	558,00
-13502,12	465,00
-13470,27	573,00
-13438,50	565,00
-13406,80	503,00
-13375,19	517,00
-13343,66	528,00
-13312,20	445,00
-13280,83	449,00
-13249,53	481,00
-13218,30	462,00
-13187,16	417,00
-13156,09	589,00
-13125,10	662,00
-13094,18	536,00
-13063,34	575,00
-13032,58	546,00
-13001,89	622,00
-12971,28	491,00
-12940,74	522,00
-12910,27	570,00
-12879,88	490,00
-12849,57	553,00
-12819,33	452,00
-12789,16	580,00
-12759,06	456,00
-12729,04	562,00
-12699,09	1290,00
-12669,21	576,00
-12639,41	540,00
-12609,68	578,00
-12580,02	519,00
-12550,43	611,00
-12520,91	478,00
-12491,46	502,00
-12462,08	529,00
-12432,77	516,00
-12403,54	494,00
-12374,37	558,00
-12345,27	520,00
-12316,24	539,00
-12287,29	671,00
-12258,40	543,00
-12229,57	537,00
-12200,82	650,00
-12172,14	434,00
-12143,52	562,00
-12114,97	446,00
-12086,49	552,00
-12058,07	531,00
-12029,73	526,00
-12001,44	624,00
-11973,23	464,00
-11945,08	563,00
-11917,00	555,00
-11888,98	497,00
-11861,03	489,00
-11833,15	551,00
-11805,32	500,00
-11777,57	564,00
-11749,88	547,00
-11722,25	477,00
-11694,69	523,00
-11667,19	502,00
-11639,75	451,00
-11612,38	576,00
-11585,07	482,00
-11557,83	579,00
-11530,65	584,00
-11503,53	570,00
-11476,47	544,00
-11449,48	497,00
-11422,54	552,00
-11395,67	541,00
-11368,86	529,00
-11342,11	601,00
-11315,43	444,00
-11288,80	489,00
-11262,23	575,00
-11235,73	601,00
-11209,28	502,00
-11182,90	558,00
-11156,57	577,00
-11130,31	520,00
-11104,10	479,00
-11077,96	505,00
-11051,87	517,00
-11025,84	527,00
-10999,87	505,00
-10973,96	656,00
-10948,11	451,00
-10922,31	449,00
-10896,58	522,00
-10870,90	699,00
-10845,28	469,00
-10819,71	511,00
-10794,20	447,00
-10768,75	570,00
-10743,36	513,00
-10718,02	529,00
-10692,74	539,00
-10667,52	471,00
-10642,35	555,00
-10617,24	601,00
-10592,18	613,00
-10567,18	485,00
-10542,23	554,00
-10517,34	453,00
-10492,51	533,00
-10467,72	498,00
-10443,00	466,00
-10418,32	561,00
-10393,70	476,00
-10369,14	414,00
-10344,63	539,00
-10320,17	606,00
-10295,77	466,00
-10271,42	481,00
-10247,12	563,00
-10222,88	600,00
-10198,68	344,00
-10174,54	407,00
-10150,46	566,00
-10126,42	496,00
-10102,44	542,00
-10078,51	520,00
-10054,63	480,00
-10030,80	422,00
-10007,03	607,00
-9983,30	500,00
-9959,63	505,00
-9936,01	432,00
-9912,44	432,00
-9888,92	438,00
-9865,44	442,00
-9842,02	452,00
-9818,65	380,00
-9795,33	456,00
-9772,06	436,00
-9748,84	364,00
-9725,67	403,00
-9702,55	311,00
-9679,47	425,00
-9656,45	255,00
-9633,47	195,00
-9610,55	231,00
-9587,67	327,00
-9564,84	302,00
-9542,06	230,00
-9519,32	271,00
-9496,64	103,00
-9474,00	0,00
-9451,41	30,00
-9428,87	121,00
-9406,37	62,00
-9383,92	91,00
-9361,52	82,00
-9339,17	39,00
-9316,86	-40,00
-9294,60	-155,00
-9272,38	-8,00
-9250,21	-213,00
-9228,09	-142,00
-9206,01	-198,00
-9183,98	-180,00
-9162,00	-268,00
-9140,06	-201,00
-9118,16	-175,00
-9096,31	-81,00
-9074,51	-155,00
-9052,75	-28,00
-9031,04	-43,00
-9009,37	-126,00
-8987,74	-22,00
-8966,16	1,00
-8944,63	25,00
-8923,14	-33,00
-8901,69	40,00
-8880,29	11,00
-8858,93	6,00
-8837,61	100,00
-8816,34	38,00
-8795,11	30,00
-8773,92	36,00
-8752,78	151,00
-8731,68	42,00
-8710,62	147,00
-8689,61	-20,00
-8668,63	0,00
-8647,70	165,00
-8626,82	87,00
-8605,97	139,00
-8585,17	214,00
-8564,41	63,00
-8543,69	187,00
-8523,01	74,00
-8502,37	225,00
-8481,78	3,00
-8461,23	50,00
-8440,71	68,00
-8420,24	33,00
-8399,81	175,00
-8379,42	116,00
-8359,08	213,00
-8338,77	110,00
-8318,50	230,00
-8298,27	159,00
-8278,09	231,00
-8257,94	126,00
-8237,83	213,00
-8217,76	150,00
-8197,74	152,00
-8177,75	243,00
-8157,80	278,00
-8137,89	275,00
-8118,02	233,00
-8098,19	343,00
-8078,40	223,00
-8058,65	214,00
-8038,93	391,00
-8019,26	307,00
-7999,62	325,00
-7980,02	250,00
-7960,46	330,00
-7940,94	256,00
-7921,46	264,00
-7902,01	242,00
-7882,60	409,00
-7863,23	341,00
-7843,90	356,00
-7824,61	308,00
-7805,35	304,00
-7786,13	345,00
-7766,95	277,00
-7747,80	308,00
-7728,69	434,00
-7709,62	294,00
-7690,59	378,00
-7671,59	273,00
-7652,63	319,00
-7633,70	243,00
-7614,81	391,00
-7595,96	265,00
-7577,15	394,00
-7558,37	290,00
-7539,62	384,00
-7520,91	295,00
-7502,24	292,00
-7483,60	265,00
-7465,00	322,00
-7446,44	354,00
-7427,91	311,00
-7409,41	368,00
-7390,95	295,00
-7372,53	202,00
-7354,14	353,00
-7335,78	321,00
-7317,46	385,00
-7299,18	389,00
-7280,92	384,00
-7262,71	362,00
-7244,52	338,00
-7226,38	234,00
-7208,26	327,00
-7190,18	299,00
-7172,14	296,00
-7154,12	323,00
-7136,15	206,00
-7118,20	333,00
-7100,29	318,00
-7082,41	357,00
-7064,57	275,00
-7046,76	320,00
-7028,98	186,00
-7011,24	467,00
-6993,53	232,00
-6975,85	243,00
-6958,20	251,00
-6940,59	230,00
-6923,01	242,00
-6905,46	377,00
-6887,94	291,00
-6870,46	-1730,00
-6853,01	319,00
-6835,59	236,00
-6818,21	213,00
-6800,85	374,00
-6783,53	288,00
-6766,24	268,00
-6748,98	326,00
-6731,76	259,00
-6714,56	235,00
-6697,40	278,00
-6680,26	292,00
-6663,16	308,00
-6646,09	384,00
-6629,05	236,00
-6612,05	354,00
-6595,07	263,00
-6578,13	294,00
-6561,21	323,00
-6544,33	238,00
-6527,47	289,00
-6510,65	265,00
-6493,86	240,00
-6477,10	247,00
-6460,36	325,00
-6443,66	190,00
-6426,99	371,00
-6410,35	256,00
-6393,74	362,00
-6377,16	272,00
-6360,61	227,00
-6344,09	265,00
-6327,59	229,00
-6311,13	184,00
-6294,70	385,00
-6278,29	371,00
-6261,92	298,00
-6245,58	320,00
-6229,26	332,00
-6212,97	353,00
-6196,72	347,00
-6180,49	372,00
-6164,29	305,00
-6148,12	378,00
-6131,98	306,00
-6115,86	308,00
-6099,78	268,00
-6083,72	298,00
-6067,69	317,00
-6051,69	395,00
-6035,72	440,00
-6019,78	384,00
-6003,87	458,00
-5987,98	312,00
-5972,12	331,00
-5956,29	371,00
-5940,49	293,00
-5924,71	440,00
-5908,96	332,00
-5893,24	398,00
-5877,55	271,00
-5861,89	427,00
-5846,25	321,00
-5830,64	359,00
-5815,05	241,00
-5799,50	394,00
-5783,97	470,00
-5768,47	404,00
-5752,99	471,00
-5737,55	329,00
-5722,12	303,00
-5706,73	278,00
-5691,36	347,00
-5676,02	360,00
-5660,71	507,00
-5645,42	315,00
-5630,16	406,00
-5614,92	361,00
-5599,71	250,00
-5584,53	293,00
-5569,37	244,00
-5554,24	1030,00
-5539,14	411,00
-5524,06	395,00
-5509,01	319,00
-5493,98	233,00
-5478,98	328,00
-5464,00	243,00
-5449,05	187,00
-5434,13	439,00
-5419,23	381,00
-5404,36	292,00
-5389,51	420,00
-5374,69	319,00
-5359,89	238,00
-5345,12	429,00
-5330,37	451,00
-5315,65	549,00
-5300,95	498,00
-5286,28	321,00
-5271,63	303,00
-5257,01	391,00
-5242,41	271,00
-5227,84	377,00
-5213,29	336,00
-5198,76	482,00
-5184,26	369,00
-5169,79	390,00
-5155,33	419,00
-5140,91	339,00
-5126,51	278,00
-5112,13	378,00
-5097,77	442,00
-5083,44	482,00
-5069,13	411,00
-5054,85	461,00
-5040,59	311,00
-5026,36	393,00
-5012,15	381,00
-4997,96	334,00
-4983,80	436,00
-4969,66	444,00
-4955,54	466,00
-4941,44	505,00
-4927,37	422,00
-4913,33	422,00
-4899,30	350,00
-4885,30	349,00
-4871,33	426,00
-4857,37	485,00
-4843,44	489,00
-4829,53	481,00
-4815,65	383,00
-4801,79	251,00
-4787,95	356,00
-4774,13	341,00
-4760,34	433,00
-4746,56	512,00
-4732,82	425,00
-4719,09	401,00
-4705,38	413,00
-4691,70	351,00
-4678,04	341,00
-4664,41	400,00
-4650,79	534,00
-4637,20	538,00
-4623,63	473,00
-4610,08	428,00
-4596,56	452,00
-4583,05	436,00
-4569,57	389,00
-4556,11	458,00
-4542,67	437,00
-4529,25	443,00
-4515,86	531,00
-4502,49	532,00
-4489,13	457,00
-4475,80	454,00
-4462,49	449,00
-4449,21	678,00
-4435,94	522,00
-4422,70	565,00
-4409,47	437,00
-4396,27	470,00
-4383,09	396,00
-4369,93	341,00
-4356,79	563,00
-4343,67	509,00
-4330,58	497,00
-4317,50	420,00
-4304,45	410,00
-4291,41	482,00
-4278,40	539,00
-4265,41	450,00
-4252,44	542,00
-4239,49	478,00
-4226,55	526,00
-4213,65	561,00
-4200,76	574,00
-4187,89	417,00
-4175,04	545,00
-4162,21	504,00
-4149,40	468,00
-4136,61	445,00
-4123,85	479,00
-4111,10	509,00
-4098,37	599,00
-4085,66	511,00
-4072,98	654,00
-4060,31	424,00
-4047,66	540,00
-4035,04	567,00
-4022,43	547,00
-4009,84	587,00
-3997,27	516,00
-3984,72	594,00
-3972,19	554,00
-3959,69	486,00
-3947,20	564,00
-3934,73	610,00
-3922,27	540,00
-3909,84	539,00
-3897,43	480,00
-3885,04	517,00
-3872,67	443,00
-3860,31	553,00
-3847,98	557,00
-3835,66	538,00
-3823,36	544,00
-3811,09	515,00
-3798,83	555,00
-3786,59	549,00
-3774,37	593,00
-3762,17	545,00
-3749,98	586,00
-3737,82	448,00
-3725,67	640,00
-3713,55	511,00
-3701,44	557,00
-3689,35	605,00
-3677,28	537,00
-3665,22	489,00
-3653,19	540,00
-3641,17	492,00
-3629,18	614,00
-3617,20	505,00
-3605,24	539,00
-3593,30	600,00
-3581,37	520,00
-3569,47	596,00
-3557,58	578,00
-3545,71	496,00
-3533,86	557,00
-3522,02	532,00
-3510,21	566,00
-3498,41	531,00
-3486,63	477,00
-3474,87	599,00
-3463,12	502,00
-3451,40	485,00
-3439,69	609,00
-3428,00	594,00
-3416,33	604,00
-3404,67	460,00
-3393,03	547,00
-3381,41	566,00
-3369,81	610,00
-3358,22	541,00
-3346,66	506,00
-3335,10	523,00
-3323,57	510,00
-3312,06	550,00
-3300,56	513,00
-3289,08	451,00
-3277,61	449,00
-3266,16	620,00
-3254,73	512,00
-3243,32	586,00
-3231,92	571,00
-3220,55	520,00
-3209,18	568,00
-3197,84	522,00
-3186,51	476,00
-3175,20	518,00
-3163,90	541,00
-3152,63	537,00
-3141,36	570,00
-3130,12	494,00
-3118,89	572,00
-3107,68	538,00
-3096,49	592,00
-3085,31	528,00
-3074,15	571,00
-3063,00	491,00
-3051,87	578,00
-3040,76	574,00
-3029,67	492,00
-3018,59	708,00
-3007,52	565,00
-2996,48	650,00
-2985,44	406,00
-2974,43	456,00
-2963,43	579,00
-2952,45	486,00
-2941,48	495,00
-2930,53	552,00
-2919,60	453,00
-2908,68	469,00
-2897,78	541,00
-2886,89	616,00
-2876,02	548,00
-2865,17	544,00
-2854,33	500,00
-2843,50	487,00
-2832,70	420,00
-2821,90	568,00
-2811,13	528,00
-2800,37	548,00
-2789,62	558,00
-2778,89	509,00
-2768,18	567,00
-2757,48	575,00
-2746,80	635,00
-2736,13	594,00
-2725,48	526,00
-2714,84	583,00
-2704,22	442,00
-2693,61	564,00
-2683,02	559,00
-2672,45	539,00
-2661,89	572,00
-2651,34	515,00
-2640,81	484,00
-2630,30	648,00
-2619,80	545,00
-2609,31	656,00
-2598,84	526,00
-2588,39	533,00
-2577,95	413,00
-2567,52	528,00
-2557,11	571,00
-2546,71	565,00
-2536,33	577,00
-2525,97	577,00
-2515,62	523,00
-2505,28	556,00
-2494,96	503,00
-2484,65	488,00
-2474,36	623,00
-2464,08	540,00
-2453,82	665,00
-2443,57	549,00
-2433,33	460,00
-2423,11	496,00
-2412,91	485,00
-2402,72	385,00
-2392,54	609,00
-2382,38	559,00
-2372,23	670,00
-2362,09	691,00
-2351,97	559,00
-2341,87	465,00
-2331,78	572,00
-2321,70	632,00
-2311,64	631,00
-2301,59	428,00
-2291,55	526,00
-2281,53	588,00
-2271,53	524,00
-2261,53	650,00
-2251,55	548,00
-2241,59	421,00
-2231,64	665,00
-2221,70	485,00
-2211,78	621,00
-2201,87	592,00
-2191,97	644,00
-2182,09	515,00
-2172,22	668,00
-2162,37	474,00
-2152,53	563,00
-2142,70	432,00
-2132,89	449,00
-2123,09	606,00
-2113,30	481,00
-2103,53	591,00
-2093,77	506,00
-2084,02	393,00
-2074,29	603,00
-2064,57	496,00
-2054,86	607,00
-2045,17	547,00
-2035,49	636,00
-2025,82	543,00
-2016,17	527,00
-2006,53	493,00
-1996,91	491,00
-1987,29	467,00
-1977,69	528,00
-1968,11	557,00
-1958,53	495,00
-1948,97	565,00
-1939,42	438,00
-1929,89	442,00
-1920,37	534,00
-1910,86	556,00
-1901,36	538,00
-1891,88	539,00
-1882,41	524,00
-1872,95	521,00
-1863,51	562,00
-1854,08	550,00
-1844,66	559,00
-1835,26	516,00
-1825,86	526,00
-1816,48	490,00
-1807,11	546,00
-1797,76	598,00
-1788,42	464,00
-1779,09	604,00
-1769,77	592,00
-1760,47	612,00
-1751,17	520,00
-1741,89	609,00
-1732,63	626,00
-1723,37	779,00
-1714,13	659,00
-1704,90	493,00
-1695,68	540,00
-1686,48	495,00
-1677,29	524,00
-1668,11	645,00
-1658,94	577,00
-1649,78	519,00
-1640,64	504,00
-1631,51	512,00
-1622,39	589,00
-1613,28	580,00
-1604,19	642,00
-1595,10	608,00
-1586,03	532,00
-1576,97	562,00
-1567,93	527,00
-1558,89	579,00
-1549,87	645,00
-1540,86	561,00
-1531,86	543,00
-1522,87	465,00
-1513,90	625,00
-1504,93	550,00
-1495,98	523,00
-1487,04	655,00
-1478,12	576,00
-1469,20	488,00
-1460,30	647,00
-1451,40	608,00
-1442,52	549,00
-1433,65	615,00
-1424,80	587,00
-1415,95	532,00
-1407,12	704,00
-1398,30	546,00
-1389,48	511,00
-1380,69	540,00
-1371,90	592,00
-1363,12	521,00
-1354,36	641,00
-1345,60	464,00
-1336,86	577,00
-1328,13	769,00
-1319,41	605,00
-1310,70	510,00
-1302,01	517,00
-1293,32	462,00
-1284,65	534,00
-1275,99	537,00
-1267,33	626,00
-1258,69	552,00
-1250,06	583,00
-1241,45	472,00
-1232,84	651,00
-1224,25	557,00
-1215,66	585,00
-1207,09	653,00
-1198,53	551,00
-1189,97	484,00
-1181,43	555,00
-1172,91	597,00
-1164,39	567,00
-1155,88	499,00
-1147,38	383,00
-1138,90	542,00
-1130,43	458,00
-1121,96	532,00
-1113,51	624,00
-1105,07	556,00
-1096,64	550,00
-1088,22	545,00
-1079,81	560,00
-1071,41	582,00
-1063,02	573,00
-1054,65	547,00
-1046,28	571,00
-1037,92	592,00
-1029,58	536,00
-1021,24	462,00
-1012,92	855,00
-1004,61	535,00
-996,30	654,00
-988,01	450,00
-979,73	508,00
-971,46	553,00
-963,20	499,00
-954,95	460,00
-946,71	626,00
-938,48	550,00
-930,26	673,00
-922,06	569,00
-913,86	649,00
-905,67	555,00
-897,49	567,00
-889,33	469,00
-881,17	567,00
-873,02	534,00
-864,89	496,00
-856,76	627,00
-848,65	529,00
-840,54	532,00
-832,45	604,00
-824,36	494,00
-816,29	569,00
-808,22	540,00
-800,17	561,00
-792,12	608,00
-784,09	691,00
-776,06	498,00
-768,05	549,00
-760,04	430,00
-752,05	558,00
-744,07	655,00
-736,09	599,00
-728,13	499,00
-720,17	550,00
-712,23	511,00
-704,29	609,00
-696,37	524,00
-688,45	584,00
-680,55	463,00
-672,65	495,00
-664,77	507,00
-656,89	512,00
-649,03	497,00
-641,17	550,00
-633,32	678,00
-625,49	596,00
-617,66	552,00
-609,84	663,00
-602,03	459,00
-594,23	457,00
-586,45	528,00
-578,67	570,00
-570,90	525,00
-563,14	559,00
-555,39	573,00
-547,65	617,00
-539,91	594,00
-532,19	486,00
-524,48	553,00
-516,78	577,00
-509,08	584,00
-501,40	569,00
-493,72	516,00
-486,06	526,00
-478,40	680,00
-470,76	529,00
-463,12	577,00
-455,49	500,00
-447,87	550,00
-440,26	477,00
-432,66	527,00
-425,07	552,00
-417,49	586,00
-409,92	539,00
-402,35	402,00
-394,80	520,00
-387,25	561,00
-379,72	597,00
-372,19	551,00
-364,67	552,00
-357,17	592,00
-349,67	489,00
-342,18	566,00
-334,69	595,00
-327,22	626,00
-319,76	572,00
-312,30	693,00
-304,86	599,00
-297,42	618,00
-290,00	520,00
-282,58	513,00
-275,17	635,00
-267,77	657,00
-260,37	516,00
-252,99	609,00
-245,62	619,00
-238,25	538,00
-230,90	588,00
-223,55	665,00
-216,21	590,00
-208,88	642,00
-201,56	665,00
-194,25	702,00
-186,94	560,00
-179,65	692,00
-172,36	723,00
-165,08	602,00
-157,81	804,00
-150,55	767,00
-143,30	769,00
-136,06	763,00
-128,82	761,00
-121,60	750,00
-114,38	797,00
-107,17	931,00
-99,97	934,00
-92,78	929,00
-85,60	1084,00
-78,42	1036,00
-71,25	1243,00
-64,10	1357,00
-56,95	1405,00
-49,81	1581,00
-42,67	1893,00
-35,55	2088,00
-28,43	2779,00
-21,33	4122,00
-14,23	12281,00
-7,14	57775,00
-0,05	57564,00
7,02	57281,00
14,09	43727,00
21,14	11691,00
28,19	5047,00
35,23	3397,00
42,27	2661,00
49,29	2260,00
56,31	2051,00
63,32	1819,00
70,32	1602,00
77,31	1335,00
84,29	1233,00
91,27	1216,00
98,23	1217,00
105,19	1053,00
112,14	1225,00
119,09	1475,00
126,02	2003,00
132,95	2411,00
139,87	2516,00
146,78	2554,00
153,68	2383,00
160,58	2341,00
167,46	2317,00
174,34	2463,00
181,21	2438,00
188,08	2371,00
194,93	2374,00
201,78	2282,00
208,62	2285,00
215,45	2440,00
222,27	2374,00
229,09	2543,00
235,90	2302,00
242,70	2404,00
249,49	2426,00
256,27	2264,00
263,05	2290,00
269,82	2166,00
276,58	2382,00
283,33	2270,00
290,08	2299,00
296,82	2254,00
303,55	2252,00
310,27	2162,00
316,98	2411,00
323,69	2230,00
330,39	2236,00
337,08	2391,00
343,76	2330,00
350,44	2279,00
357,11	2388,00
363,77	2184,00
370,42	2183,00
377,07	2340,00
383,71	2290,00
390,34	2245,00
396,96	2175,00
403,58	2164,00
410,19	2356,00
416,79	2375,00
423,38	2273,00
429,97	2342,00
436,55	2138,00
443,12	2121,00
449,68	2135,00
456,24	2252,00
462,79	2238,00
469,33	2199,00
475,86	2186,00
482,39	2145,00
488,91	2323,00
495,42	2160,00
501,93	2200,00
508,42	2173,00
514,91	2278,00
521,40	2213,00
527,87	2192,00
534,34	2134,00
540,80	2219,00
547,25	2206,00
553,70	2193,00
560,14	2180,00
566,57	2325,00
573,00	2184,00
579,41	2261,00
585,83	2170,00
592,23	2221,00
598,62	2204,00
605,01	2103,00
611,40	2158,00
617,77	2286,00
624,14	2288,00
630,50	2136,00
636,85	2253,00
643,20	2182,00
649,54	2206,00
655,87	2101,00
662,20	2350,00
668,52	2182,00
674,83	2249,00
681,13	2167,00
687,43	2170,00
693,72	2152,00
700,00	2057,00
706,28	2095,00
712,55	2163,00
718,81	2178,00
725,07	2188,00
731,32	2155,00
737,56	2271,00
743,79	2192,00
750,02	2280,00
756,24	2164,00
762,46	2178,00
768,67	2431,00
774,87	2325,00
781,06	2232,00
787,25	2307,00
793,43	2276,00
799,60	2096,00
805,77	2241,00
811,93	2147,00
818,08	2247,00
824,23	2229,00
830,37	2391,00
836,50	2226,00
842,63	2227,00
848,75	2218,00
854,87	2248,00
860,97	2172,00
867,07	2226,00
873,17	2278,00
879,25	2253,00
885,33	2270,00
891,41	2276,00
897,47	2223,00
903,53	2253,00
909,59	2205,00
915,63	2260,00
921,67	2173,00
927,71	2266,00
933,74	2204,00
939,76	2181,00
945,77	2145,00
951,78	2240,00
957,78	2199,00
963,78	2273,00
969,77	2210,00
975,75	2322,00
981,72	2188,00
987,69	2916,00
993,66	2337,00
999,61	2312,00
1005,56	2267,00
1011,51	2340,00
1017,44	2231,00
1023,37	2336,00
1029,30	2285,00
1035,22	2378,00
1041,13	2310,00
1047,03	2369,00
1052,93	2482,00
1058,83	2767,00
1064,71	3007,00
1070,59	2683,00
1076,47	2564,00
1082,33	2484,00
1088,20	2328,00
1094,05	2446,00
1099,90	2303,00
1105,74	2324,00
1111,58	2395,00
1117,41	2506,00
1123,23	2682,00
1129,05	3061,00
1134,86	2881,00
1140,67	2624,00
1146,47	2490,00
1152,26	2390,00
1158,05	2253,00
1163,83	2455,00
1169,60	2531,00
1175,37	2465,00
1181,13	2379,00
1186,89	2324,00
1192,64	2355,00
1198,38	2364,00
1204,12	2331,00
1209,85	2417,00
1215,58	2336,00
1221,30	2459,00
1227,02	2441,00
1232,72	2408,00
1238,43	2333,00
1244,12	2435,00
1249,81	2349,00
1255,50	2474,00
1261,17	2411,00
1266,85	2399,00
1272,51	2577,00
1278,17	2576,00
1283,83	2567,00
1289,47	2836,00
1295,12	3351,00
1300,75	3152,00
1306,38	2923,00
1312,01	2640,00
1317,63	2598,00
1323,24	2509,00
1328,85	2585,00
1334,45	2523,00
1340,04	2397,00
1345,63	2424,00
1351,22	2579,00
1356,80	2529,00
1362,37	2546,00
1367,93	2482,00
1373,49	2461,00
1379,05	2461,00
1384,60	2458,00
1390,14	2469,00
1395,68	2478,00
1401,21	2502,00
1406,74	2585,00
1412,26	2696,00
1417,77	2924,00
1423,28	2690,00
1428,78	2851,00
1434,28	3184,00
1439,77	3290,00
1445,26	3202,00
1450,74	3179,00
1456,22	3087,00
1461,68	3050,00
1467,15	3011,00
1472,61	2765,00
1478,06	2780,00
1483,51	2648,00
1488,95	2529,00
1494,38	2600,00
1499,81	2436,00
1505,24	2425,00
1510,65	2527,00
1516,07	2544,00
1521,48	2385,00
1526,88	2301,00
1532,27	2392,00
1537,67	2335,00
1543,05	2403,00
1548,43	2335,00
1553,81	2345,00
1559,18	2303,00
1564,54	2333,00
1569,90	2322,00
1575,25	2254,00
1580,60	2126,00
1585,94	2376,00
1591,28	2322,00
1596,61	2272,00
1601,93	2256,00
1607,25	2348,00
1612,57	2272,00
1617,88	2277,00
1623,18	2227,00
1628,48	2325,00
1633,77	2247,00
1639,06	2313,00
1644,34	2206,00
1649,62	2180,00
1654,89	2392,00
1660,16	2177,00
1665,42	2253,00
1670,67	2200,00
1675,92	2330,00
1681,17	2141,00
1686,41	2138,00
1691,64	2320,00
1696,87	2205,00
1702,10	2130,00
1707,32	2223,00
1712,53	2255,00
1717,74	2286,00
1722,94	2127,00
1728,14	2254,00
1733,33	2119,00
1738,52	2165,00
1743,70	2182,00
1748,88	2097,00
1754,05	2167,00
1759,22	2050,00
1764,38	3354,00
1769,53	2082,00
1774,69	2127,00
1779,83	2101,00
1784,97	2016,00
1790,11	2086,00
1795,24	2069,00
1800,36	2153,00
1805,48	2011,00
1810,60	2062,00
1815,71	2093,00
1820,82	2036,00
1825,92	2085,00
1831,01	2036,00
1836,10	1993,00
1841,19	1960,00
1846,26	1986,00
1851,34	2114,00
1856,41	2062,00
1861,47	2052,00
1866,53	2120,00
1871,59	1987,00
1876,64	2027,00
1881,68	1959,00
1886,72	2189,00
1891,76	2027,00
1896,79	2033,00
1901,81	1939,00
1906,83	1955,00
1911,85	2002,00
1916,86	1987,00
1921,86	1957,00
1926,86	1916,00
1931,86	1892,00
1936,85	1912,00
1941,83	1944,00
1946,81	1953,00
1951,79	1875,00
1956,76	1830,00
1961,72	1853,00
1966,68	1858,00
1971,64	1789,00
1976,59	1815,00
1981,54	1902,00
1986,48	1848,00
1991,42	1847,00
1996,35	1998,00
2001,27	1854,00
2006,20	1835,00
2011,11	1984,00
2016,03	1870,00
2020,93	1874,00
2025,84	1900,00
2030,73	1812,00
2035,63	1748,00
2040,52	1869,00
2045,40	1854,00
2050,28	1784,00
2055,15	1818,00
2060,02	1662,00
2064,89	1807,00
2069,75	1794,00
2074,60	1748,00
2079,46	1749,00
2084,30	1789,00
2089,14	1744,00
2093,98	1867,00
2098,81	1832,00
2103,64	1866,00
2108,46	1803,00
2113,28	1773,00
2118,09	1679,00
2122,90	1786,00
2127,70	1760,00
2132,50	1804,00
2137,30	1682,00
2142,09	1675,00
2146,87	1718,00
2151,66	1769,00
2156,43	1734,00
2161,20	1740,00
2165,97	1666,00
2170,73	1612,00
2175,49	1797,00
2180,24	1738,00
2184,99	1762,00
2189,74	1773,00
2194,48	1657,00
2199,21	1878,00
2203,94	1552,00
2208,67	1540,00
2213,39	1632,00
2218,11	1722,00
2222,82	1706,00
2227,53	1650,00
2232,23	1750,00
2236,93	1747,00
2241,63	1636,00
2246,32	1691,00
2251,00	1586,00
2255,68	1517,00
2260,36	1693,00
2265,03	1756,00
2269,70	1785,00
2274,36	1604,00
2279,02	1615,00
2283,68	1714,00
2288,33	1591,00
2292,97	1620,00
2297,61	1650,00
2302,25	1491,00
2306,88	1492,00
2311,51	1490,00
2316,14	1509,00
2320,75	1542,00
2325,37	1461,00
2329,98	1691,00
2334,59	1496,00
2339,19	1581,00
2343,79	1430,00
2348,38	1448,00
2352,97	1507,00
2357,55	1602,00
2362,13	1562,00
2366,71	1395,00
2371,28	1430,00
2375,85	1519,00
2380,41	1545,00
2384,97	1476,00
2389,52	1502,00
2394,07	1506,00
2398,62	1557,00
2403,16	1479,00
2407,70	1404,00
2412,23	1456,00
2416,76	1495,00
2421,29	1488,00
2425,81	1599,00
2430,32	1387,00
2434,84	1341,00
2439,34	1433,00
2443,85	1487,00
2448,35	1435,00
2452,84	1384,00
2457,33	1343,00
2461,82	1383,00
2466,30	1328,00
2470,78	1397,00
2475,25	1268,00
2479,72	1359,00
2484,19	1324,00
2488,65	1378,00
2493,11	1349,00
2497,56	1425,00
2502,01	1246,00
2506,46	1382,00
2510,90	1380,00
2515,34	1388,00
2519,77	1373,00
2524,20	1303,00
2528,62	1273,00
2533,04	1349,00
2537,46	1187,00
2541,87	1220,00
2546,28	1219,00
2550,68	1262,00
2555,08	1194,00
2559,48	1295,00
2563,87	1219,00
2568,26	1254,00
2572,64	1219,00
2577,02	1260,00
2581,40	1196,00
2585,77	1113,00
2590,14	1199,00
2594,50	1147,00
2598,86	1211,00
2603,22	1187,00
2607,57	1189,00
2611,92	1258,00
2616,26	1201,00
2620,60	1253,00
2624,94	1100,00
2629,27	1308,00
2633,60	1113,00
2637,92	1251,00
2642,24	1253,00
2646,56	1113,00
2650,87	1176,00
2655,18	1178,00
2659,48	1175,00
2663,78	1216,00
2668,08	1169,00
2672,37	1230,00
2676,66	1278,00
2680,95	1187,00
2685,23	1183,00
2689,50	1123,00
2693,78	1133,00
2698,05	1157,00
2702,31	1211,00
2706,57	1212,00
2710,83	1339,00
2715,08	1228,00
2719,33	1362,00
2723,58	1341,00
2727,82	1286,00
2732,06	1246,00
2736,29	1133,00
2740,53	1275,00
2744,75	1171,00
2748,97	1288,00
2753,19	1268,00
2757,41	1204,00
2761,62	1303,00
2765,83	1309,00
2770,03	1148,00
2774,23	1170,00
2778,43	1158,00
2782,62	1187,00
2786,81	1199,00
2791,00	1269,00
2795,18	1275,00
2799,35	1289,00
2803,53	1326,00
2807,70	1296,00
2811,86	1134,00
2816,03	1374,00
2820,19	1248,00
2824,34	1290,00
2828,49	1356,00
2832,64	1416,00
2836,78	1608,00
2840,92	1763,00
2845,06	1930,00
2849,19	2066,00
2853,32	2184,00
2857,45	2098,00
2861,57	2013,00
2865,69	2034,00
2869,80	1872,00
2873,91	1936,00
2878,02	2186,00
2882,12	2220,00
2886,22	2228,00
2890,32	2176,00
2894,41	2045,00
2898,50	1904,00
2902,58	1795,00
2906,67	1829,00
2910,74	1633,00
2914,82	1542,00
2918,89	1569,00
2922,96	1563,00
2927,02	1566,00
2931,08	1352,00
2935,13	1236,00
2939,19	1356,00
2943,24	1315,00
2947,28	1203,00
2951,32	1110,00
2955,36	1047,00
2959,40	1141,00
2963,43	1179,00
2967,46	1017,00
2971,48	938,00
2975,50	1060,00
2979,52	1028,00
2983,53	1078,00
2987,54	983,00
2991,55	969,00
2995,55	981,00
2999,55	888,00
3003,54	936,00
3007,54	976,00
3011,53	902,00
3015,51	953,00
3019,49	923,00
3023,47	895,00
3027,45	874,00
3031,42	922,00
3035,39	874,00
3039,35	882,00
3043,31	917,00
3047,27	875,00
3051,22	960,00
3055,17	748,00
3059,12	722,00
3063,06	866,00
3067,00	795,00
3070,94	807,00
3074,87	846,00
3078,80	820,00
3082,73	777,00
3086,65	779,00
3090,57	772,00
3094,49	810,00
3098,40	840,00
3102,31	718,00
3106,22	857,00
3110,12	821,00
3114,02	712,00
3117,92	768,00
3121,81	666,00
3125,70	733,00
3129,58	729,00
3133,47	740,00
3137,34	832,00
3141,22	748,00
3145,09	902,00
3148,96	727,00
3152,83	748,00
3156,69	768,00
3160,55	640,00
3164,40	843,00
3168,26	698,00
3172,10	856,00
3175,95	771,00
3179,79	800,00
3183,63	696,00
3187,47	636,00
3191,30	676,00
3195,13	807,00
3198,95	673,00
3202,78	811,00
3206,60	674,00
3210,41	677,00
3214,23	661,00
3218,03	699,00
3221,84	706,00
3225,64	648,00
3229,44	743,00
3233,24	725,00
3237,03	719,00
3240,82	734,00
3244,61	629,00
3248,39	718,00
3252,17	711,00
3255,95	649,00
3259,72	800,00
3263,49	771,00
3267,26	647,00
3271,03	668,00
3274,79	715,00
3278,54	704,00
3282,30	573,00
3286,05	708,00
3289,80	678,00
3293,54	698,00
3297,29	727,00
3301,02	669,00
3304,76	722,00
3308,49	683,00
3312,22	607,00
3315,95	625,00
3319,67	599,00
3323,39	764,00
3327,10	678,00
3330,82	600,00
3334,53	685,00
3338,24	639,00
3341,94	695,00
3345,64	546,00
3349,34	654,00
3353,03	534,00
3356,72	627,00
3360,41	741,00
3364,10	648,00
3367,78	604,00
3371,46	654,00
3375,13	568,00
3378,81	619,00
3382,48	695,00
3386,14	702,00
3389,81	639,00
3393,47	545,00
3397,12	713,00
3400,78	573,00
3404,43	607,00
3408,08	642,00
3411,72	598,00
3415,36	592,00
3419,00	600,00
3422,64	600,00
3426,27	605,00
3429,90	624,00
3433,53	623,00
3437,15	594,00
3440,77	506,00
3444,39	542,00
3448,00	585,00
3451,62	520,00
3455,22	639,00
3458,83	571,00
3462,43	555,00
3466,03	620,00
3469,63	657,00
3473,22	625,00
3476,81	510,00
3480,40	566,00
3483,99	586,00
3487,57	656,00
3491,15	611,00
3494,72	649,00
3498,29	597,00
3501,86	538,00
3505,43	561,00
3508,99	614,00
3512,56	526,00
3516,11	634,00
3519,67	618,00
3523,22	604,00
3526,77	568,00
3530,32	484,00
3533,86	586,00
3537,40	577,00
3540,94	627,00
3544,47	469,00
3548,00	517,00
3551,53	567,00
3555,06	497,00
3558,58	536,00
3562,10	521,00
3565,62	575,00
3569,13	561,00
3572,64	480,00
3576,15	501,00
3579,66	498,00
3583,16	561,00
3586,66	532,00
3590,16	423,00
3593,65	555,00
3597,14	517,00
3600,63	502,00
3604,11	635,00
3607,60	567,00
3611,08	578,00
3614,55	515,00
3618,03	494,00
3621,50	436,00
3624,97	536,00
3628,43	538,00
3631,90	580,00
3635,36	509,00
3638,81	488,00
3642,27	610,00
3645,72	566,00
3649,17	564,00
3652,61	473,00
3656,06	453,00
3659,50	532,00
3662,93	435,00
3666,37	437,00
3669,80	669,00
3673,23	508,00
3676,65	600,00
3680,08	564,00
3683,50	537,00
3686,92	541,00
3690,33	475,00
3693,74	495,00
3697,15	410,00
3700,56	509,00
3703,96	532,00
3707,36	429,00
3710,76	413,00
3714,16	467,00
3717,55	472,00
3720,94	511,00
3724,33	531,00
3727,71	599,00
3731,10	453,00
3734,48	447,00
3737,85	369,00
3741,23	393,00
3744,60	552,00
3747,97	487,00
3751,33	389,00
3754,69	494,00
3758,05	452,00
3761,41	447,00
3764,77	434,00
3768,12	357,00
3771,47	438,00
3774,82	429,00
3778,16	-1,00
3781,50	6,00
3784,84	6,00
3788,18	11,00
>>>>>End Processed Spectral Data<<<<<
