SpectraSuite Data File
++++++++++++++++++++++++++++++++++++
Date: Mon Mar 09 14:47:05 ICT 2026
User: Administrator
Dark Spectrum Present: Yes
Reference Spectrum Present: No
Number of Sampled Component Spectra: 1
Spectrometers: MAYP113682
Integration Time (usec): 3000000 (MAYP113682)
Spectra Averaged: 1 (MAYP113682)
Boxcar Smoothing: 0 (MAYP113682)
Correct for Electrical Dark: No (MAYP113682)
Strobe/Lamp Enabled: No (MAYP113682)
Correct for Detector Non-linearity: No (MAYP113682)
Correct for Stray Light: No (MAYP113682)
Number of Pixels in Processed Spectrum: 2068
>>>>>Begin Processed Spectral Data<<<<<
-37534,58	37,00
-37414,56	2,00
-37295,11	1,00
-37176,24	7,00
-37057,95	695,00
-36940,22	620,00
-36823,05	687,00
-36706,45	782,00
-36590,40	693,00
-36474,90	726,00
-36359,95	749,00
-36245,55	759,00
-36131,68	739,00
-36018,35	712,00
-35905,55	733,00
-35793,29	796,00
-35681,54	704,00
-35570,32	698,00
-35459,62	746,00
-35349,43	815,00
-35239,75	726,00
-35130,58	717,00
-35021,91	709,00
-34913,74	807,00
-34806,07	749,00
-34698,89	865,00
-34592,20	821,00
-34486,00	909,00
-34380,28	705,00
-34275,04	827,00
-34170,27	774,00
-34065,98	770,00
-33962,16	763,00
-33858,81	788,00
-33755,92	772,00
-33653,49	904,00
-33551,52	905,00
-33450,01	812,00
-33348,94	828,00
-33248,33	776,00
-33148,16	806,00
-33048,43	910,00
-32949,14	880,00
-32850,29	830,00
-32751,87	798,00
-32653,89	753,00
-32556,33	900,00
-32459,20	860,00
-32362,49	794,00
-32266,19	765,00
-32170,32	780,00
-32074,86	907,00
-31979,82	825,00
-31885,18	976,00
-31790,95	911,00
-31697,12	846,00
-31603,69	870,00
-31510,67	879,00
-31418,04	784,00
-31325,80	893,00
-31233,95	912,00
-31142,49	840,00
-31051,42	935,00
-30960,73	945,00
-30870,43	866,00
-30780,50	843,00
-30690,95	813,00
-30601,77	1028,00
-30512,97	793,00
-30424,53	827,00
-30336,46	1013,00
-30248,76	889,00
-30161,42	938,00
-30074,44	781,00
-29987,81	874,00
-29901,55	934,00
-29815,63	796,00
-29730,07	811,00
-29644,86	878,00
-29560,00	910,00
-29475,48	910,00
-29391,30	838,00
-29307,47	690,00
-29223,97	812,00
-29140,81	788,00
-29057,99	961,00
-28975,50	752,00
-28893,34	941,00
-28811,51	802,00
-28730,00	771,00
-28648,82	874,00
-28567,97	873,00
-28487,43	851,00
-28407,21	836,00
-28327,32	814,00
-28247,73	973,00
-28168,46	811,00
-28089,50	903,00
-28010,85	777,00
-27932,51	743,00
-27854,48	944,00
-27776,75	781,00
-27699,32	869,00
-27622,19	864,00
-27545,37	858,00
-27468,84	867,00
-27392,60	897,00
-27316,66	827,00
-27241,01	807,00
-27165,66	857,00
-27090,59	838,00
-27015,81	850,00
-26941,31	864,00
-26867,10	876,00
-26793,17	876,00
-26719,52	867,00
-26646,15	749,00
-26573,06	922,00
-26500,24	832,00
-26427,70	770,00
-26355,43	937,00
-26283,43	840,00
-26211,71	978,00
-26140,25	896,00
-26069,06	1063,00
-25998,13	710,00
-25927,46	718,00
-25857,06	952,00
-25786,92	859,00
-25717,04	773,00
-25647,42	854,00
-25578,05	781,00
-25508,94	875,00
-25440,09	854,00
-25371,48	760,00
-25303,13	783,00
-25235,02	853,00
-25167,17	897,00
-25099,56	993,00
-25032,19	785,00
-24965,07	820,00
-24898,20	766,00
-24831,56	848,00
-24765,17	817,00
-24699,01	880,00
-24633,10	808,00
-24567,41	744,00
-24501,97	940,00
-24436,75	903,00
-24371,77	880,00
-24307,03	844,00
-24242,51	730,00
-24178,22	906,00
-24114,16	825,00
-24050,32	850,00
-23986,71	828,00
-23923,32	822,00
-23860,16	780,00
-23797,22	720,00
-23734,50	909,00
-23672,00	814,00
-23609,71	794,00
-23547,65	670,00
-23485,80	818,00
-23424,16	754,00
-23362,74	923,00
-23301,53	731,00
-23240,54	839,00
-23179,75	816,00
-23119,17	874,00
-23058,80	901,00
-22998,64	854,00
-22938,68	807,00
-22878,93	842,00
-22819,39	924,00
-22760,04	797,00
-22700,90	817,00
-22641,96	837,00
-22583,22	863,00
-22524,68	775,00
-22466,33	800,00
-22408,19	817,00
-22350,23	853,00
-22292,48	887,00
-22234,92	796,00
-22177,55	923,00
-22120,37	942,00
-22063,38	810,00
-22006,58	797,00
-21949,98	773,00
-21893,56	668,00
-21837,33	814,00
-21781,28	801,00
-21725,42	753,00
-21669,74	792,00
-21614,25	832,00
-21558,94	789,00
-21503,81	799,00
-21448,86	883,00
-21394,10	782,00
-21339,51	743,00
-21285,10	778,00
-21230,86	723,00
-21176,81	767,00
-21122,93	776,00
-21069,22	884,00
-21015,69	826,00
-20962,33	896,00
-20909,14	748,00
-20856,13	746,00
-20803,28	782,00
-20750,61	736,00
-20698,10	775,00
-20645,76	832,00
-20593,59	901,00
-20541,59	824,00
-20489,75	861,00
-20438,07	791,00
-20386,56	925,00
-20335,22	821,00
-20284,03	778,00
-20233,01	774,00
-20182,15	784,00
-20131,45	825,00
-20080,91	750,00
-20030,52	788,00
-19980,30	752,00
-19930,23	769,00
-19880,32	928,00
-19830,56	923,00
-19780,96	751,00
-19731,52	868,00
-19682,23	819,00
-19633,09	782,00
-19584,10	731,00
-19535,26	807,00
-19486,58	879,00
-19438,04	851,00
-19389,66	819,00
-19341,42	785,00
-19293,33	721,00
-19245,39	834,00
-19197,60	805,00
-19149,95	772,00
-19102,45	960,00
-19055,09	841,00
-19007,87	856,00
-18960,80	845,00
-18913,87	825,00
-18867,09	861,00
-18820,44	885,00
-18773,94	745,00
-18727,57	829,00
-18681,35	687,00
-18635,26	909,00
-18589,31	742,00
-18543,50	745,00
-18497,83	768,00
-18452,29	865,00
-18406,89	773,00
-18361,63	884,00
-18316,50	800,00
-18271,50	746,00
-18226,63	843,00
-18181,90	830,00
-18137,30	902,00
-18092,84	793,00
-18048,50	839,00
-18004,29	750,00
-17960,22	863,00
-17916,27	780,00
-17872,45	858,00
-17828,76	853,00
-17785,20	892,00
-17741,77	880,00
-17698,46	794,00
-17655,28	728,00
-17612,22	844,00
-17569,29	724,00
-17526,48	859,00
-17483,79	752,00
-17441,23	803,00
-17398,79	718,00
-17356,48	778,00
-17314,28	1083,00
-17272,21	760,00
-17230,26	743,00
-17188,42	884,00
-17146,71	784,00
-17105,12	891,00
-17063,64	868,00
-17022,28	870,00
-16981,04	743,00
-16939,92	858,00
-16898,91	975,00
-16858,02	927,00
-16817,25	764,00
-16776,59	722,00
-16736,04	842,00
-16695,61	761,00
-16655,29	807,00
-16615,09	794,00
-16574,99	894,00
-16535,01	740,00
-16495,15	887,00
-16455,39	866,00
-16415,74	840,00
-16376,21	838,00
-16336,78	682,00
-16297,46	832,00
-16258,26	885,00
-16219,16	821,00
-16180,17	730,00
-16141,28	865,00
-16102,51	856,00
-16063,84	815,00
-16025,27	848,00
-15986,82	664,00
-15948,46	709,00
-15910,22	810,00
-15872,07	832,00
-15834,04	751,00
-15796,10	823,00
-15758,27	957,00
-15720,54	798,00
-15682,91	775,00
-15645,39	835,00
-15607,97	784,00
-15570,64	761,00
-15533,42	821,00
-15496,30	828,00
-15459,28	764,00
-15422,36	771,00
-15385,54	767,00
-15348,82	837,00
-15312,19	920,00
-15275,66	768,00
-15239,23	753,00
-15202,90	814,00
-15166,67	643,00
-15130,53	826,00
-15094,48	896,00
-15058,54	825,00
-15022,68	800,00
-14986,93	853,00
-14951,26	757,00
-14915,69	696,00
-14880,22	788,00
-14844,84	779,00
-14809,55	892,00
-14774,35	813,00
-14739,25	897,00
-14704,24	844,00
-14669,32	904,00
-14634,49	835,00
-14599,75	877,00
-14565,10	696,00
-14530,55	858,00
-14496,08	870,00
-14461,70	761,00
-14427,41	724,00
-14393,21	776,00
-14359,10	720,00
-14325,07	852,00
-14291,14	776,00
-14257,29	831,00
-14223,52	832,00
-14189,85	882,00
-14156,26	786,00
-14122,76	796,00
-14089,34	861,00
-14056,01	838,00
-14022,76	899,00
-13989,60	809,00
-13956,52	834,00
-13923,53	834,00
-13890,62	918,00
-13857,79	657,00
-13825,05	797,00
-13792,39	738,00
-13759,81	827,00
-13727,31	812,00
-13694,90	782,00
-13662,57	747,00
-13630,31	841,00
-13598,14	776,00
-13566,05	806,00
-13534,05	786,00
-13502,12	738,00
-13470,27	849,00
-13438,50	860,00
-13406,80	778,00
-13375,19	696,00
-13343,66	878,00
-13312,20	743,00
-13280,83	785,00
-13249,53	769,00
-13218,30	698,00
-13187,16	757,00
-13156,09	895,00
-13125,10	861,00
-13094,18	819,00
-13063,34	981,00
-13032,58	694,00
-13001,89	897,00
-12971,28	798,00
-12940,74	875,00
-12910,27	829,00
-12879,88	796,00
-12849,57	767,00
-12819,33	783,00
-12789,16	747,00
-12759,06	788,00
-12729,04	909,00
-12699,09	1862,00
-12669,21	867,00
-12639,41	793,00
-12609,68	819,00
-12580,02	815,00
-12550,43	856,00
-12520,91	642,00
-12491,46	840,00
-12462,08	785,00
-12432,77	745,00
-12403,54	883,00
-12374,37	843,00
-12345,27	783,00
-12316,24	819,00
-12287,29	913,00
-12258,40	813,00
-12229,57	876,00
-12200,82	822,00
-12172,14	783,00
-12143,52	710,00
-12114,97	709,00
-12086,49	841,00
-12058,07	836,00
-12029,73	798,00
-12001,44	890,00
-11973,23	812,00
-11945,08	829,00
-11917,00	797,00
-11888,98	788,00
-11861,03	803,00
-11833,15	869,00
-11805,32	793,00
-11777,57	832,00
-11749,88	811,00
-11722,25	804,00
-11694,69	810,00
-11667,19	777,00
-11639,75	798,00
-11612,38	803,00
-11585,07	829,00
-11557,83	776,00
-11530,65	1007,00
-11503,53	854,00
-11476,47	936,00
-11449,48	821,00
-11422,54	893,00
-11395,67	778,00
-11368,86	954,00
-11342,11	866,00
-11315,43	799,00
-11288,80	715,00
-11262,23	883,00
-11235,73	761,00
-11209,28	848,00
-11182,90	745,00
-11156,57	787,00
-11130,31	912,00
-11104,10	846,00
-11077,96	846,00
-11051,87	791,00
-11025,84	793,00
-10999,87	810,00
-10973,96	903,00
-10948,11	748,00
-10922,31	743,00
-10896,58	846,00
-10870,90	957,00
-10845,28	766,00
-10819,71	712,00
-10794,20	769,00
-10768,75	833,00
-10743,36	804,00
-10718,02	826,00
-10692,74	820,00
-10667,52	707,00
-10642,35	855,00
-10617,24	863,00
-10592,18	930,00
-10567,18	737,00
-10542,23	773,00
-10517,34	903,00
-10492,51	871,00
-10467,72	797,00
-10443,00	755,00
-10418,32	894,00
-10393,70	785,00
-10369,14	696,00
-10344,63	802,00
-10320,17	829,00
-10295,77	830,00
-10271,42	850,00
-10247,12	858,00
-10222,88	846,00
-10198,68	760,00
-10174,54	832,00
-10150,46	862,00
-10126,42	891,00
-10102,44	862,00
-10078,51	849,00
-10054,63	848,00
-10030,80	753,00
-10007,03	970,00
-9983,30	840,00
-9959,63	808,00
-9936,01	891,00
-9912,44	920,00
-9888,92	919,00
-9865,44	863,00
-9842,02	975,00
-9818,65	863,00
-9795,33	858,00
-9772,06	901,00
-9748,84	890,00
-9725,67	908,00
-9702,55	811,00
-9679,47	1074,00
-9656,45	994,00
-9633,47	776,00
-9610,55	931,00
-9587,67	999,00
-9564,84	1104,00
-9542,06	984,00
-9519,32	1068,00
-9496,64	1199,00
-9474,00	1005,00
-9451,41	1002,00
-9428,87	1194,00
-9406,37	1085,00
-9383,92	1020,00
-9361,52	1063,00
-9339,17	1199,00
-9316,86	1154,00
-9294,60	1134,00
-9272,38	1331,00
-9250,21	1289,00
-9228,09	1214,00
-9206,01	1282,00
-9183,98	1187,00
-9162,00	1130,00
-9140,06	1198,00
-9118,16	1027,00
-9096,31	1284,00
-9074,51	1237,00
-9052,75	1328,00
-9031,04	1245,00
-9009,37	1112,00
-8987,74	1156,00
-8966,16	1204,00
-8944,63	1068,00
-8923,14	1081,00
-8901,69	1124,00
-8880,29	983,00
-8858,93	1058,00
-8837,61	1153,00
-8816,34	1173,00
-8795,11	1027,00
-8773,92	1253,00
-8752,78	1122,00
-8731,68	1127,00
-8710,62	1068,00
-8689,61	943,00
-8668,63	1029,00
-8647,70	1303,00
-8626,82	1119,00
-8605,97	1215,00
-8585,17	1135,00
-8564,41	961,00
-8543,69	1151,00
-8523,01	1047,00
-8502,37	1221,00
-8481,78	914,00
-8461,23	900,00
-8440,71	1016,00
-8420,24	1077,00
-8399,81	1064,00
-8379,42	1031,00
-8359,08	1152,00
-8338,77	1054,00
-8318,50	1107,00
-8298,27	1015,00
-8278,09	1094,00
-8257,94	963,00
-8237,83	1099,00
-8217,76	1084,00
-8197,74	1017,00
-8177,75	1001,00
-8157,80	1071,00
-8137,89	952,00
-8118,02	982,00
-8098,19	1039,00
-8078,40	1024,00
-8058,65	977,00
-8038,93	1036,00
-8019,26	944,00
-7999,62	1102,00
-7980,02	866,00
-7960,46	931,00
-7940,94	1029,00
-7921,46	1006,00
-7902,01	868,00
-7882,60	1069,00
-7863,23	959,00
-7843,90	1030,00
-7824,61	975,00
-7805,35	1051,00
-7786,13	993,00
-7766,95	926,00
-7747,80	1028,00
-7728,69	1130,00
-7709,62	908,00
-7690,59	1020,00
-7671,59	1041,00
-7652,63	933,00
-7633,70	961,00
-7614,81	1014,00
-7595,96	931,00
-7577,15	1003,00
-7558,37	943,00
-7539,62	964,00
-7520,91	931,00
-7502,24	1040,00
-7483,60	1039,00
-7465,00	1040,00
-7446,44	977,00
-7427,91	938,00
-7409,41	1002,00
-7390,95	980,00
-7372,53	875,00
-7354,14	980,00
-7335,78	894,00
-7317,46	965,00
-7299,18	969,00
-7280,92	968,00
-7262,71	1044,00
-7244,52	925,00
-7226,38	1016,00
-7208,26	938,00
-7190,18	993,00
-7172,14	1035,00
-7154,12	931,00
-7136,15	904,00
-7118,20	1095,00
-7100,29	1083,00
-7082,41	1063,00
-7064,57	1013,00
-7046,76	941,00
-7028,98	820,00
-7011,24	1192,00
-6993,53	768,00
-6975,85	975,00
-6958,20	885,00
-6940,59	896,00
-6923,01	835,00
-6905,46	1004,00
-6887,94	936,00
-6870,46	1259,00
-6853,01	970,00
-6835,59	979,00
-6818,21	914,00
-6800,85	1028,00
-6783,53	871,00
-6766,24	873,00
-6748,98	886,00
-6731,76	860,00
-6714,56	838,00
-6697,40	830,00
-6680,26	846,00
-6663,16	872,00
-6646,09	956,00
-6629,05	884,00
-6612,05	979,00
-6595,07	873,00
-6578,13	1004,00
-6561,21	840,00
-6544,33	865,00
-6527,47	893,00
-6510,65	869,00
-6493,86	919,00
-6477,10	818,00
-6460,36	936,00
-6443,66	813,00
-6426,99	897,00
-6410,35	795,00
-6393,74	929,00
-6377,16	836,00
-6360,61	805,00
-6344,09	800,00
-6327,59	783,00
-6311,13	824,00
-6294,70	915,00
-6278,29	907,00
-6261,92	932,00
-6245,58	859,00
-6229,26	935,00
-6212,97	898,00
-6196,72	1004,00
-6180,49	937,00
-6164,29	842,00
-6148,12	928,00
-6131,98	796,00
-6115,86	907,00
-6099,78	828,00
-6083,72	820,00
-6067,69	876,00
-6051,69	852,00
-6035,72	910,00
-6019,78	849,00
-6003,87	931,00
-5987,98	908,00
-5972,12	891,00
-5956,29	952,00
-5940,49	857,00
-5924,71	909,00
-5908,96	849,00
-5893,24	795,00
-5877,55	820,00
-5861,89	884,00
-5846,25	825,00
-5830,64	909,00
-5815,05	738,00
-5799,50	811,00
-5783,97	789,00
-5768,47	963,00
-5752,99	1035,00
-5737,55	788,00
-5722,12	824,00
-5706,73	877,00
-5691,36	962,00
-5676,02	808,00
-5660,71	912,00
-5645,42	828,00
-5630,16	803,00
-5614,92	887,00
-5599,71	774,00
-5584,53	951,00
-5569,37	797,00
-5554,24	998,00
-5539,14	824,00
-5524,06	893,00
-5509,01	829,00
-5493,98	811,00
-5478,98	1058,00
-5464,00	872,00
-5449,05	791,00
-5434,13	932,00
-5419,23	929,00
-5404,36	725,00
-5389,51	914,00
-5374,69	814,00
-5359,89	835,00
-5345,12	904,00
-5330,37	943,00
-5315,65	997,00
-5300,95	830,00
-5286,28	759,00
-5271,63	847,00
-5257,01	855,00
-5242,41	975,00
-5227,84	841,00
-5213,29	859,00
-5198,76	892,00
-5184,26	772,00
-5169,79	911,00
-5155,33	905,00
-5140,91	852,00
-5126,51	839,00
-5112,13	917,00
-5097,77	935,00
-5083,44	854,00
-5069,13	809,00
-5054,85	899,00
-5040,59	735,00
-5026,36	860,00
-5012,15	987,00
-4997,96	858,00
-4983,80	873,00
-4969,66	911,00
-4955,54	880,00
-4941,44	866,00
-4927,37	814,00
-4913,33	963,00
-4899,30	718,00
-4885,30	807,00
-4871,33	891,00
-4857,37	793,00
-4843,44	827,00
-4829,53	867,00
-4815,65	999,00
-4801,79	728,00
-4787,95	739,00
-4774,13	805,00
-4760,34	784,00
-4746,56	978,00
-4732,82	834,00
-4719,09	819,00
-4705,38	825,00
-4691,70	936,00
-4678,04	850,00
-4664,41	844,00
-4650,79	985,00
-4637,20	937,00
-4623,63	812,00
-4610,08	803,00
-4596,56	968,00
-4583,05	843,00
-4569,57	816,00
-4556,11	904,00
-4542,67	793,00
-4529,25	758,00
-4515,86	874,00
-4502,49	884,00
-4489,13	889,00
-4475,80	826,00
-4462,49	765,00
-4449,21	1017,00
-4435,94	758,00
-4422,70	959,00
-4409,47	738,00
-4396,27	768,00
-4383,09	841,00
-4369,93	778,00
-4356,79	836,00
-4343,67	765,00
-4330,58	878,00
-4317,50	753,00
-4304,45	792,00
-4291,41	808,00
-4278,40	863,00
-4265,41	725,00
-4252,44	827,00
-4239,49	740,00
-4226,55	895,00
-4213,65	928,00
-4200,76	925,00
-4187,89	799,00
-4175,04	839,00
-4162,21	880,00
-4149,40	823,00
-4136,61	784,00
-4123,85	790,00
-4111,10	729,00
-4098,37	885,00
-4085,66	860,00
-4072,98	900,00
-4060,31	712,00
-4047,66	929,00
-4035,04	821,00
-4022,43	817,00
-4009,84	980,00
-3997,27	751,00
-3984,72	830,00
-3972,19	936,00
-3959,69	844,00
-3947,20	804,00
-3934,73	889,00
-3922,27	799,00
-3909,84	888,00
-3897,43	786,00
-3885,04	789,00
-3872,67	745,00
-3860,31	799,00
-3847,98	910,00
-3835,66	757,00
-3823,36	872,00
-3811,09	743,00
-3798,83	837,00
-3786,59	849,00
-3774,37	867,00
-3762,17	704,00
-3749,98	820,00
-3737,82	772,00
-3725,67	922,00
-3713,55	716,00
-3701,44	849,00
-3689,35	982,00
-3677,28	873,00
-3665,22	790,00
-3653,19	757,00
-3641,17	786,00
-3629,18	820,00
-3617,20	876,00
-3605,24	815,00
-3593,30	812,00
-3581,37	876,00
-3569,47	923,00
-3557,58	753,00
-3545,71	882,00
-3533,86	930,00
-3522,02	800,00
-3510,21	844,00
-3498,41	860,00
-3486,63	798,00
-3474,87	825,00
-3463,12	784,00
-3451,40	829,00
-3439,69	895,00
-3428,00	842,00
-3416,33	921,00
-3404,67	769,00
-3393,03	962,00
-3381,41	883,00
-3369,81	841,00
-3358,22	761,00
-3346,66	794,00
-3335,10	867,00
-3323,57	790,00
-3312,06	866,00
-3300,56	752,00
-3289,08	753,00
-3277,61	859,00
-3266,16	876,00
-3254,73	736,00
-3243,32	853,00
-3231,92	833,00
-3220,55	827,00
-3209,18	853,00
-3197,84	874,00
-3186,51	676,00
-3175,20	764,00
-3163,90	918,00
-3152,63	956,00
-3141,36	794,00
-3130,12	831,00
-3118,89	821,00
-3107,68	829,00
-3096,49	837,00
-3085,31	889,00
-3074,15	783,00
-3063,00	856,00
-3051,87	816,00
-3040,76	840,00
-3029,67	925,00
-3018,59	1028,00
-3007,52	794,00
-2996,48	967,00
-2985,44	721,00
-2974,43	814,00
-2963,43	844,00
-2952,45	693,00
-2941,48	859,00
-2930,53	850,00
-2919,60	810,00
-2908,68	756,00
-2897,78	737,00
-2886,89	952,00
-2876,02	773,00
-2865,17	803,00
-2854,33	762,00
-2843,50	708,00
-2832,70	719,00
-2821,90	834,00
-2811,13	821,00
-2800,37	793,00
-2789,62	834,00
-2778,89	829,00
-2768,18	1004,00
-2757,48	885,00
-2746,80	911,00
-2736,13	816,00
-2725,48	821,00
-2714,84	826,00
-2704,22	860,00
-2693,61	816,00
-2683,02	805,00
-2672,45	729,00
-2661,89	922,00
-2651,34	870,00
-2640,81	766,00
-2630,30	900,00
-2619,80	867,00
-2609,31	1022,00
-2598,84	768,00
-2588,39	793,00
-2577,95	775,00
-2567,52	752,00
-2557,11	840,00
-2546,71	752,00
-2536,33	932,00
-2525,97	833,00
-2515,62	805,00
-2505,28	820,00
-2494,96	797,00
-2484,65	795,00
-2474,36	1016,00
-2464,08	855,00
-2453,82	894,00
-2443,57	922,00
-2433,33	738,00
-2423,11	787,00
-2412,91	731,00
-2402,72	633,00
-2392,54	778,00
-2382,38	829,00
-2372,23	912,00
-2362,09	5035,00
-2351,97	708,00
-2341,87	792,00
-2331,78	875,00
-2321,70	902,00
-2311,64	922,00
-2301,59	744,00
-2291,55	796,00
-2281,53	855,00
-2271,53	787,00
-2261,53	879,00
-2251,55	781,00
-2241,59	837,00
-2231,64	779,00
-2221,70	746,00
-2211,78	890,00
-2201,87	777,00
-2191,97	882,00
-2182,09	790,00
-2172,22	900,00
-2162,37	697,00
-2152,53	745,00
-2142,70	679,00
-2132,89	720,00
-2123,09	817,00
-2113,30	875,00
-2103,53	851,00
-2093,77	755,00
-2084,02	674,00
-2074,29	887,00
-2064,57	835,00
-2054,86	841,00
-2045,17	821,00
-2035,49	952,00
-2025,82	799,00
-2016,17	743,00
-2006,53	815,00
-1996,91	792,00
-1987,29	719,00
-1977,69	817,00
-1968,11	855,00
-1958,53	786,00
-1948,97	786,00
-1939,42	803,00
-1929,89	685,00
-1920,37	853,00
-1910,86	852,00
-1901,36	834,00
-1891,88	739,00
-1882,41	860,00
-1872,95	867,00
-1863,51	817,00
-1854,08	889,00
-1844,66	941,00
-1835,26	805,00
-1825,86	851,00
-1816,48	845,00
-1807,11	814,00
-1797,76	864,00
-1788,42	872,00
-1779,09	882,00
-1769,77	802,00
-1760,47	947,00
-1751,17	838,00
-1741,89	855,00
-1732,63	875,00
-1723,37	1068,00
-1714,13	917,00
-1704,90	765,00
-1695,68	957,00
-1686,48	846,00
-1677,29	753,00
-1668,11	968,00
-1658,94	925,00
-1649,78	808,00
-1640,64	856,00
-1631,51	850,00
-1622,39	853,00
-1613,28	851,00
-1604,19	989,00
-1595,10	906,00
-1586,03	766,00
-1576,97	925,00
-1567,93	810,00
-1558,89	899,00
-1549,87	867,00
-1540,86	848,00
-1531,86	814,00
-1522,87	705,00
-1513,90	905,00
-1504,93	885,00
-1495,98	864,00
-1487,04	899,00
-1478,12	996,00
-1469,20	783,00
-1460,30	975,00
-1451,40	931,00
-1442,52	769,00
-1433,65	918,00
-1424,80	888,00
-1415,95	851,00
-1407,12	1007,00
-1398,30	909,00
-1389,48	908,00
-1380,69	868,00
-1371,90	821,00
-1363,12	800,00
-1354,36	899,00
-1345,60	778,00
-1336,86	807,00
-1328,13	998,00
-1319,41	826,00
-1310,70	869,00
-1302,01	883,00
-1293,32	771,00
-1284,65	834,00
-1275,99	827,00
-1267,33	938,00
-1258,69	843,00
-1250,06	896,00
-1241,45	859,00
-1232,84	939,00
-1224,25	921,00
-1215,66	942,00
-1207,09	916,00
-1198,53	869,00
-1189,97	828,00
-1181,43	835,00
-1172,91	974,00
-1164,39	986,00
-1155,88	801,00
-1147,38	677,00
-1138,90	859,00
-1130,43	789,00
-1121,96	820,00
-1113,51	901,00
-1105,07	826,00
-1096,64	845,00
-1088,22	912,00
-1079,81	866,00
-1071,41	958,00
-1063,02	810,00
-1054,65	933,00
-1046,28	777,00
-1037,92	932,00
-1029,58	811,00
-1021,24	837,00
-1012,92	1159,00
-1004,61	872,00
-996,30	1188,00
-988,01	669,00
-979,73	884,00
-971,46	898,00
-963,20	776,00
-954,95	746,00
-946,71	776,00
-938,48	815,00
-930,26	915,00
-922,06	956,00
-913,86	891,00
-905,67	812,00
-897,49	794,00
-889,33	816,00
-881,17	905,00
-873,02	852,00
-864,89	668,00
-856,76	694,00
-848,65	820,00
-840,54	796,00
-832,45	840,00
-824,36	749,00
-816,29	874,00
-808,22	922,00
-800,17	915,00
-792,12	850,00
-784,09	914,00
-776,06	736,00
-768,05	846,00
-760,04	767,00
-752,05	842,00
-744,07	929,00
-736,09	950,00
-728,13	748,00
-720,17	817,00
-712,23	883,00
-704,29	885,00
-696,37	918,00
-688,45	874,00
-680,55	819,00
-672,65	803,00
-664,77	763,00
-656,89	840,00
-649,03	802,00
-641,17	967,00
-633,32	939,00
-625,49	872,00
-617,66	898,00
-609,84	879,00
-602,03	692,00
-594,23	744,00
-586,45	821,00
-578,67	719,00
-570,90	760,00
-563,14	803,00
-555,39	878,00
-547,65	946,00
-539,91	885,00
-532,19	764,00
-524,48	865,00
-516,78	879,00
-509,08	807,00
-501,40	766,00
-493,72	805,00
-486,06	797,00
-478,40	975,00
-470,76	802,00
-463,12	872,00
-455,49	785,00
-447,87	844,00
-440,26	826,00
-432,66	798,00
-425,07	912,00
-417,49	782,00
-409,92	835,00
-402,35	713,00
-394,80	791,00
-387,25	888,00
-379,72	851,00
-372,19	734,00
-364,67	869,00
-357,17	860,00
-349,67	913,00
-342,18	797,00
-334,69	871,00
-327,22	866,00
-319,76	823,00
-312,30	875,00
-304,86	805,00
-297,42	863,00
-290,00	842,00
-282,58	846,00
-275,17	896,00
-267,77	932,00
-260,37	782,00
-252,99	873,00
-245,62	918,00
-238,25	859,00
-230,90	861,00
-223,55	871,00
-216,21	866,00
-208,88	957,00
-201,56	884,00
-194,25	899,00
-186,94	890,00
-179,65	925,00
-172,36	1006,00
-165,08	882,00
-157,81	1086,00
-150,55	1115,00
-143,30	1051,00
-136,06	1072,00
-128,82	1026,00
-121,60	1003,00
-114,38	1139,00
-107,17	1169,00
-99,97	1182,00
-92,78	1182,00
-85,60	1333,00
-78,42	1439,00
-71,25	1507,00
-64,10	1594,00
-56,95	1699,00
-49,81	1853,00
-42,67	2211,00
-35,55	2426,00
-28,43	3032,00
-21,33	4478,00
-14,23	12887,00
-7,14	57775,00
-0,05	57564,00
7,02	57281,00
14,09	43947,00
21,14	12072,00
28,19	5380,00
35,23	3773,00
42,27	3036,00
49,29	2524,00
56,31	2441,00
63,32	2160,00
70,32	1841,00
77,31	1632,00
84,29	1413,00
91,27	1554,00
98,23	1556,00
105,19	1323,00
112,14	1506,00
119,09	1796,00
126,02	2536,00
132,95	2802,00
139,87	2874,00
146,78	2927,00
153,68	2899,00
160,58	2754,00
167,46	2730,00
174,34	2783,00
181,21	2820,00
188,08	2773,00
194,93	2907,00
201,78	2821,00
208,62	2691,00
215,45	2776,00
222,27	2771,00
229,09	2977,00
235,90	2740,00
242,70	2721,00
249,49	2889,00
256,27	2711,00
263,05	2685,00
269,82	2682,00
276,58	2832,00
283,33	2646,00
290,08	2700,00
296,82	2730,00
303,55	2689,00
310,27	2605,00
316,98	2688,00
323,69	2685,00
330,39	2655,00
337,08	2695,00
343,76	2719,00
350,44	2624,00
357,11	2790,00
363,77	2551,00
370,42	2487,00
377,07	2742,00
383,71	2595,00
390,34	2672,00
396,96	2617,00
403,58	2561,00
410,19	2728,00
416,79	2801,00
423,38	2821,00
429,97	2778,00
436,55	2539,00
443,12	2570,00
449,68	2616,00
456,24	2605,00
462,79	2577,00
469,33	2579,00
475,86	2672,00
482,39	2563,00
488,91	2766,00
495,42	2490,00
501,93	2644,00
508,42	2428,00
514,91	2732,00
521,40	2546,00
527,87	2529,00
534,34	2592,00
540,80	2686,00
547,25	2546,00
553,70	2693,00
560,14	2636,00
566,57	2697,00
573,00	2632,00
579,41	2669,00
585,83	2636,00
592,23	2561,00
598,62	2626,00
605,01	2546,00
611,40	2550,00
617,77	2663,00
624,14	2550,00
630,50	2620,00
636,85	2584,00
643,20	2658,00
649,54	2506,00
655,87	2580,00
662,20	2711,00
668,52	2643,00
674,83	2598,00
681,13	2549,00
687,43	2624,00
693,72	2621,00
700,00	2471,00
706,28	2549,00
712,55	2558,00
718,81	2629,00
725,07	2469,00
731,32	2516,00
737,56	2702,00
743,79	2645,00
750,02	2583,00
756,24	2539,00
762,46	2582,00
768,67	2939,00
774,87	2625,00
781,06	2603,00
787,25	2704,00
793,43	2654,00
799,60	2468,00
805,77	2600,00
811,93	2550,00
818,08	2586,00
824,23	2639,00
830,37	2771,00
836,50	2661,00
842,63	2671,00
848,75	2616,00
854,87	2690,00
860,97	2550,00
867,07	2663,00
873,17	2653,00
879,25	2634,00
885,33	2616,00
891,41	2619,00
897,47	2659,00
903,53	2618,00
909,59	2735,00
915,63	2680,00
921,67	2641,00
927,71	2674,00
933,74	2629,00
939,76	2566,00
945,77	2587,00
951,78	2619,00
957,78	2584,00
963,78	2667,00
969,77	2754,00
975,75	2664,00
981,72	2570,00
987,69	3716,00
993,66	2681,00
999,61	2698,00
1005,56	2659,00
1011,51	2606,00
1017,44	2649,00
1023,37	2677,00
1029,30	2763,00
1035,22	2794,00
1041,13	2668,00
1047,03	2738,00
1052,93	2857,00
1058,83	3217,00
1064,71	3287,00
1070,59	3072,00
1076,47	2989,00
1082,33	2980,00
1088,20	2856,00
1094,05	2892,00
1099,90	2692,00
1105,74	2794,00
1111,58	2887,00
1117,41	2853,00
1123,23	3187,00
1129,05	3402,00
1134,86	3455,00
1140,67	3129,00
1146,47	2890,00
1152,26	2786,00
1158,05	2659,00
1163,83	2843,00
1169,60	2909,00
1175,37	2916,00
1181,13	2763,00
1186,89	2840,00
1192,64	2803,00
1198,38	2972,00
1204,12	2701,00
1209,85	2781,00
1215,58	2878,00
1221,30	2783,00
1227,02	2795,00
1232,72	2763,00
1238,43	2646,00
1244,12	2875,00
1249,81	2826,00
1255,50	2963,00
1261,17	2754,00
1266,85	2884,00
1272,51	2958,00
1278,17	3019,00
1283,83	2855,00
1289,47	3448,00
1295,12	3867,00
1300,75	3538,00
1306,38	3221,00
1312,01	3024,00
1317,63	2974,00
1323,24	2902,00
1328,85	2991,00
1334,45	3029,00
1340,04	2854,00
1345,63	2778,00
1351,22	3077,00
1356,80	2957,00
1362,37	3006,00
1367,93	2914,00
1373,49	2952,00
1379,05	2998,00
1384,60	2977,00
1390,14	2846,00
1395,68	3009,00
1401,21	2913,00
1406,74	2999,00
1412,26	3173,00
1417,77	3422,00
1423,28	3176,00
1428,78	3217,00
1434,28	3618,00
1439,77	3802,00
1445,26	3716,00
1450,74	3702,00
1456,22	3571,00
1461,68	3571,00
1467,15	3352,00
1472,61	3145,00
1478,06	3264,00
1483,51	3072,00
1488,95	3024,00
1494,38	2971,00
1499,81	2723,00
1505,24	2782,00
1510,65	2869,00
1516,07	2845,00
1521,48	2781,00
1526,88	2635,00
1532,27	2808,00
1537,67	2758,00
1543,05	2978,00
1548,43	2649,00
1553,81	2806,00
1559,18	2662,00
1564,54	2755,00
1569,90	2752,00
1575,25	2656,00
1580,60	2589,00
1585,94	2750,00
1591,28	2795,00
1596,61	2654,00
1601,93	2700,00
1607,25	2865,00
1612,57	2768,00
1617,88	2695,00
1623,18	2655,00
1628,48	2629,00
1633,77	2669,00
1639,06	2735,00
1644,34	2570,00
1649,62	2649,00
1654,89	2821,00
1660,16	2576,00
1665,42	2755,00
1670,67	2544,00
1675,92	2652,00
1681,17	2630,00
1686,41	2558,00
1691,64	2793,00
1696,87	2522,00
1702,10	2657,00
1707,32	2688,00
1712,53	2669,00
1717,74	2664,00
1722,94	2634,00
1728,14	2619,00
1733,33	2433,00
1738,52	2523,00
1743,70	2609,00
1748,88	2519,00
1754,05	2521,00
1759,22	2412,00
1764,38	2642,00
1769,53	2485,00
1774,69	2629,00
1779,83	2526,00
1784,97	2389,00
1790,11	2517,00
1795,24	2520,00
1800,36	2555,00
1805,48	2419,00
1810,60	2467,00
1815,71	2521,00
1820,82	2432,00
1825,92	2518,00
1831,01	2459,00
1836,10	2468,00
1841,19	2401,00
1846,26	2430,00
1851,34	2433,00
1856,41	2504,00
1861,47	2435,00
1866,53	2441,00
1871,59	2395,00
1876,64	2416,00
1881,68	2422,00
1886,72	2497,00
1891,76	2378,00
1896,79	2509,00
1901,81	2215,00
1906,83	2498,00
1911,85	2234,00
1916,86	2358,00
1921,86	2291,00
1926,86	2364,00
1931,86	2280,00
1936,85	2326,00
1941,83	2327,00
1946,81	2358,00
1951,79	2384,00
1956,76	2143,00
1961,72	2124,00
1966,68	2219,00
1971,64	2152,00
1976,59	2216,00
1981,54	2339,00
1986,48	2181,00
1991,42	2166,00
1996,35	2413,00
2001,27	2225,00
2006,20	2196,00
2011,11	2280,00
2016,03	2303,00
2020,93	2149,00
2025,84	2254,00
2030,73	2205,00
2035,63	2043,00
2040,52	2181,00
2045,40	2197,00
2050,28	2286,00
2055,15	2224,00
2060,02	2040,00
2064,89	2226,00
2069,75	2226,00
2074,60	2136,00
2079,46	2162,00
2084,30	2144,00
2089,14	2063,00
2093,98	2286,00
2098,81	2217,00
2103,64	2238,00
2108,46	2154,00
2113,28	2063,00
2118,09	2121,00
2122,90	2104,00
2127,70	2109,00
2132,50	2179,00
2137,30	2086,00
2142,09	2065,00
2146,87	2028,00
2151,66	2080,00
2156,43	2191,00
2161,20	2147,00
2165,97	2188,00
2170,73	2042,00
2175,49	2140,00
2180,24	2054,00
2184,99	2204,00
2189,74	2203,00
2194,48	2009,00
2199,21	2118,00
2203,94	1920,00
2208,67	1977,00
2213,39	1900,00
2218,11	1985,00
2222,82	2061,00
2227,53	2046,00
2232,23	2061,00
2236,93	2030,00
2241,63	2004,00
2246,32	1960,00
2251,00	1999,00
2255,68	2017,00
2260,36	1986,00
2265,03	2055,00
2269,70	2154,00
2274,36	1838,00
2279,02	2025,00
2283,68	2048,00
2288,33	1890,00
2292,97	1983,00
2297,61	2060,00
2302,25	1942,00
2306,88	1953,00
2311,51	1882,00
2316,14	1880,00
2320,75	1991,00
2325,37	1851,00
2329,98	1917,00
2334,59	1864,00
2339,19	1944,00
2343,79	1786,00
2348,38	1862,00
2352,97	1886,00
2357,55	1978,00
2362,13	1922,00
2366,71	1818,00
2371,28	1931,00
2375,85	1926,00
2380,41	1913,00
2384,97	1774,00
2389,52	1852,00
2394,07	1831,00
2398,62	1926,00
2403,16	1834,00
2407,70	1705,00
2412,23	1854,00
2416,76	1866,00
2421,29	1854,00
2425,81	1779,00
2430,32	1869,00
2434,84	1731,00
2439,34	1814,00
2443,85	1879,00
2448,35	1751,00
2452,84	1763,00
2457,33	1708,00
2461,82	1727,00
2466,30	1630,00
2470,78	1806,00
2475,25	1679,00
2479,72	1680,00
2484,19	1672,00
2488,65	1773,00
2493,11	1573,00
2497,56	1712,00
2502,01	1558,00
2506,46	1779,00
2510,90	1668,00
2515,34	1727,00
2519,77	1690,00
2524,20	1620,00
2528,62	1633,00
2533,04	1776,00
2537,46	1584,00
2541,87	1536,00
2546,28	1518,00
2550,68	1600,00
2555,08	1588,00
2559,48	1579,00
2563,87	1549,00
2568,26	1566,00
2572,64	1662,00
2577,02	1623,00
2581,40	1472,00
2585,77	1626,00
2590,14	1528,00
2594,50	1441,00
2598,86	1537,00
2603,22	1554,00
2607,57	1558,00
2611,92	1573,00
2616,26	1536,00
2620,60	1710,00
2624,94	1441,00
2629,27	1678,00
2633,60	1450,00
2637,92	1586,00
2642,24	1623,00
2646,56	1462,00
2650,87	1499,00
2655,18	1582,00
2659,48	1434,00
2663,78	1517,00
2668,08	1415,00
2672,37	1512,00
2676,66	1620,00
2680,95	1416,00
2685,23	1577,00
2689,50	1498,00
2693,78	1451,00
2698,05	1457,00
2702,31	1531,00
2706,57	1565,00
2710,83	1740,00
2715,08	1645,00
2719,33	1723,00
2723,58	1573,00
2727,82	1628,00
2732,06	1592,00
2736,29	1534,00
2740,53	1574,00
2744,75	1491,00
2748,97	1578,00
2753,19	1615,00
2757,41	1622,00
2761,62	1622,00
2765,83	1610,00
2770,03	1483,00
2774,23	1462,00
2778,43	1486,00
2782,62	1485,00
2786,81	1527,00
2791,00	1608,00
2795,18	1678,00
2799,35	1574,00
2803,53	1636,00
2807,70	1582,00
2811,86	1410,00
2816,03	1720,00
2820,19	1641,00
2824,34	1702,00
2828,49	1684,00
2832,64	1737,00
2836,78	2028,00
2840,92	2121,00
2845,06	2317,00
2849,19	2375,00
2853,32	2504,00
2857,45	2478,00
2861,57	2450,00
2865,69	2419,00
2869,80	2266,00
2873,91	2252,00
2878,02	2625,00
2882,12	2680,00
2886,22	2657,00
2890,32	2606,00
2894,41	2522,00
2898,50	2303,00
2902,58	2146,00
2906,67	2215,00
2910,74	1966,00
2914,82	1883,00
2918,89	1959,00
2922,96	1694,00
2927,02	1771,00
2931,08	1718,00
2935,13	1633,00
2939,19	1701,00
2943,24	1592,00
2947,28	1532,00
2951,32	1451,00
2955,36	1325,00
2959,40	1516,00
2963,43	1544,00
2967,46	1408,00
2971,48	1329,00
2975,50	1361,00
2979,52	1352,00
2983,53	1300,00
2987,54	1279,00
2991,55	1272,00
2995,55	1209,00
2999,55	1134,00
3003,54	1239,00
3007,54	1298,00
3011,53	1186,00
3015,51	1200,00
3019,49	1367,00
3023,47	1171,00
3027,45	1168,00
3031,42	1170,00
3035,39	1081,00
3039,35	1124,00
3043,31	1221,00
3047,27	1270,00
3051,22	1250,00
3055,17	1092,00
3059,12	1047,00
3063,06	1101,00
3067,00	1041,00
3070,94	1205,00
3074,87	1171,00
3078,80	1174,00
3082,73	1096,00
3086,65	1055,00
3090,57	1041,00
3094,49	1090,00
3098,40	1087,00
3102,31	996,00
3106,22	1188,00
3110,12	1112,00
3114,02	1066,00
3117,92	1175,00
3121,81	955,00
3125,70	1047,00
3129,58	1018,00
3133,47	1074,00
3137,34	1064,00
3141,22	1064,00
3145,09	1188,00
3148,96	972,00
3152,83	935,00
3156,69	1099,00
3160,55	940,00
3164,40	1061,00
3168,26	1009,00
3172,10	1227,00
3175,95	1114,00
3179,79	1003,00
3183,63	1067,00
3187,47	1088,00
3191,30	934,00
3195,13	1092,00
3198,95	1010,00
3202,78	1134,00
3206,60	907,00
3210,41	889,00
3214,23	976,00
3218,03	1026,00
3221,84	949,00
3225,64	887,00
3229,44	983,00
3233,24	1012,00
3237,03	930,00
3240,82	903,00
3244,61	854,00
3248,39	1017,00
3252,17	1004,00
3255,95	969,00
3259,72	1040,00
3263,49	1146,00
3267,26	912,00
3271,03	948,00
3274,79	956,00
3278,54	966,00
3282,30	854,00
3286,05	941,00
3289,80	943,00
3293,54	984,00
3297,29	929,00
3301,02	949,00
3304,76	951,00
3308,49	1034,00
3312,22	892,00
3315,95	947,00
3319,67	931,00
3323,39	1044,00
3327,10	1072,00
3330,82	861,00
3334,53	902,00
3338,24	883,00
3341,94	909,00
3345,64	796,00
3349,34	884,00
3353,03	877,00
3356,72	858,00
3360,41	978,00
3364,10	936,00
3367,78	851,00
3371,46	1004,00
3375,13	991,00
3378,81	907,00
3382,48	865,00
3386,14	1051,00
3389,81	873,00
3393,47	815,00
3397,12	1039,00
3400,78	894,00
3404,43	863,00
3408,08	886,00
3411,72	834,00
3415,36	902,00
3419,00	902,00
3422,64	916,00
3426,27	913,00
3429,90	846,00
3433,53	908,00
3437,15	820,00
3440,77	750,00
3444,39	806,00
3448,00	908,00
3451,62	837,00
3455,22	864,00
3458,83	840,00
3462,43	876,00
3466,03	1054,00
3469,63	902,00
3473,22	952,00
3476,81	863,00
3480,40	903,00
3483,99	901,00
3487,57	999,00
3491,15	850,00
3494,72	786,00
3498,29	887,00
3501,86	842,00
3505,43	880,00
3508,99	789,00
3512,56	795,00
3516,11	970,00
3519,67	847,00
3523,22	919,00
3526,77	954,00
3530,32	831,00
3533,86	941,00
3537,40	987,00
3540,94	965,00
3544,47	803,00
3548,00	770,00
3551,53	889,00
3555,06	833,00
3558,58	900,00
3562,10	875,00
3565,62	774,00
3569,13	853,00
3572,64	756,00
3576,15	710,00
3579,66	770,00
3583,16	829,00
3586,66	751,00
3590,16	740,00
3593,65	826,00
3597,14	772,00
3600,63	785,00
3604,11	937,00
3607,60	770,00
3611,08	857,00
3614,55	745,00
3618,03	680,00
3621,50	776,00
3624,97	822,00
3628,43	950,00
3631,90	889,00
3635,36	745,00
3638,81	779,00
3642,27	865,00
3645,72	802,00
3649,17	822,00
3652,61	752,00
3656,06	721,00
3659,50	713,00
3662,93	736,00
3666,37	776,00
3669,80	945,00
3673,23	739,00
3676,65	892,00
3680,08	777,00
3683,50	762,00
3686,92	783,00
3690,33	695,00
3693,74	757,00
3697,15	617,00
3700,56	784,00
3703,96	697,00
3707,36	689,00
3710,76	667,00
3714,16	643,00
3717,55	602,00
3720,94	718,00
3724,33	719,00
3727,71	832,00
3731,10	722,00
3734,48	583,00
3737,85	650,00
3741,23	620,00
3744,60	734,00
3747,97	688,00
3751,33	651,00
3754,69	693,00
3758,05	673,00
3761,41	566,00
3764,77	599,00
3768,12	599,00
3771,47	687,00
3774,82	717,00
3778,16	-9,00
3781,50	15,00
3784,84	3,00
3788,18	11,00
>>>>>End Processed Spectral Data<<<<<
