SpectraSuite Data File
++++++++++++++++++++++++++++++++++++
Date: Mon Mar 09 14:48:05 ICT 2026
User: Administrator
Dark Spectrum Present: Yes
Reference Spectrum Present: No
Number of Sampled Component Spectra: 1
Spectrometers: MAYP113682
Integration Time (usec): 3000000 (MAYP113682)
Spectra Averaged: 1 (MAYP113682)
Boxcar Smoothing: 0 (MAYP113682)
Correct for Electrical Dark: No (MAYP113682)
Strobe/Lamp Enabled: No (MAYP113682)
Correct for Detector Non-linearity: No (MAYP113682)
Correct for Stray Light: No (MAYP113682)
Number of Pixels in Processed Spectrum: 2068
>>>>>Begin Processed Spectral Data<<<<<
-37534,58	39,00
-37414,56	0,00
-37295,11	3,00
-37176,24	10,00
-37057,95	693,00
-36940,22	683,00
-36823,05	755,00
-36706,45	882,00
-36590,40	700,00
-36474,90	790,00
-36359,95	841,00
-36245,55	749,00
-36131,68	849,00
-36018,35	761,00
-35905,55	777,00
-35793,29	843,00
-35681,54	848,00
-35570,32	770,00
-35459,62	767,00
-35349,43	891,00
-35239,75	791,00
-35130,58	770,00
-35021,91	838,00
-34913,74	832,00
-34806,07	908,00
-34698,89	874,00
-34592,20	838,00
-34486,00	877,00
-34380,28	784,00
-34275,04	784,00
-34170,27	858,00
-34065,98	835,00
-33962,16	881,00
-33858,81	866,00
-33755,92	846,00
-33653,49	963,00
-33551,52	921,00
-33450,01	828,00
-33348,94	832,00
-33248,33	865,00
-33148,16	844,00
-33048,43	881,00
-32949,14	965,00
-32850,29	930,00
-32751,87	833,00
-32653,89	836,00
-32556,33	1009,00
-32459,20	940,00
-32362,49	864,00
-32266,19	834,00
-32170,32	885,00
-32074,86	952,00
-31979,82	950,00
-31885,18	971,00
-31790,95	1058,00
-31697,12	928,00
-31603,69	936,00
-31510,67	954,00
-31418,04	826,00
-31325,80	923,00
-31233,95	880,00
-31142,49	908,00
-31051,42	874,00
-30960,73	1006,00
-30870,43	944,00
-30780,50	813,00
-30690,95	916,00
-30601,77	1041,00
-30512,97	824,00
-30424,53	956,00
-30336,46	946,00
-30248,76	949,00
-30161,42	1007,00
-30074,44	899,00
-29987,81	950,00
-29901,55	1074,00
-29815,63	865,00
-29730,07	866,00
-29644,86	999,00
-29560,00	962,00
-29475,48	908,00
-29391,30	905,00
-29307,47	732,00
-29223,97	882,00
-29140,81	858,00
-29057,99	974,00
-28975,50	859,00
-28893,34	1119,00
-28811,51	816,00
-28730,00	926,00
-28648,82	914,00
-28567,97	953,00
-28487,43	896,00
-28407,21	844,00
-28327,32	839,00
-28247,73	966,00
-28168,46	849,00
-28089,50	955,00
-28010,85	802,00
-27932,51	765,00
-27854,48	1006,00
-27776,75	814,00
-27699,32	862,00
-27622,19	936,00
-27545,37	931,00
-27468,84	961,00
-27392,60	1009,00
-27316,66	858,00
-27241,01	932,00
-27165,66	884,00
-27090,59	862,00
-27015,81	910,00
-26941,31	997,00
-26867,10	921,00
-26793,17	944,00
-26719,52	1051,00
-26646,15	925,00
-26573,06	919,00
-26500,24	955,00
-26427,70	816,00
-26355,43	982,00
-26283,43	871,00
-26211,71	1006,00
-26140,25	915,00
-26069,06	1184,00
-25998,13	739,00
-25927,46	882,00
-25857,06	1017,00
-25786,92	839,00
-25717,04	879,00
-25647,42	885,00
-25578,05	902,00
-25508,94	851,00
-25440,09	877,00
-25371,48	842,00
-25303,13	850,00
-25235,02	949,00
-25167,17	1042,00
-25099,56	1026,00
-25032,19	909,00
-24965,07	863,00
-24898,20	790,00
-24831,56	973,00
-24765,17	885,00
-24699,01	897,00
-24633,10	856,00
-24567,41	812,00
-24501,97	951,00
-24436,75	879,00
-24371,77	842,00
-24307,03	839,00
-24242,51	764,00
-24178,22	1011,00
-24114,16	880,00
-24050,32	898,00
-23986,71	903,00
-23923,32	955,00
-23860,16	827,00
-23797,22	958,00
-23734,50	955,00
-23672,00	836,00
-23609,71	889,00
-23547,65	717,00
-23485,80	838,00
-23424,16	825,00
-23362,74	1094,00
-23301,53	818,00
-23240,54	855,00
-23179,75	914,00
-23119,17	817,00
-23058,80	902,00
-22998,64	863,00
-22938,68	746,00
-22878,93	889,00
-22819,39	921,00
-22760,04	890,00
-22700,90	880,00
-22641,96	889,00
-22583,22	866,00
-22524,68	905,00
-22466,33	854,00
-22408,19	866,00
-22350,23	975,00
-22292,48	889,00
-22234,92	922,00
-22177,55	942,00
-22120,37	1078,00
-22063,38	891,00
-22006,58	762,00
-21949,98	875,00
-21893,56	715,00
-21837,33	844,00
-21781,28	903,00
-21725,42	870,00
-21669,74	874,00
-21614,25	905,00
-21558,94	796,00
-21503,81	820,00
-21448,86	946,00
-21394,10	861,00
-21339,51	830,00
-21285,10	761,00
-21230,86	840,00
-21176,81	810,00
-21122,93	828,00
-21069,22	896,00
-21015,69	918,00
-20962,33	988,00
-20909,14	814,00
-20856,13	827,00
-20803,28	818,00
-20750,61	790,00
-20698,10	841,00
-20645,76	939,00
-20593,59	980,00
-20541,59	914,00
-20489,75	1010,00
-20438,07	811,00
-20386,56	1007,00
-20335,22	876,00
-20284,03	808,00
-20233,01	830,00
-20182,15	785,00
-20131,45	869,00
-20080,91	745,00
-20030,52	846,00
-19980,30	818,00
-19930,23	871,00
-19880,32	949,00
-19830,56	847,00
-19780,96	813,00
-19731,52	959,00
-19682,23	913,00
-19633,09	839,00
-19584,10	815,00
-19535,26	846,00
-19486,58	993,00
-19438,04	845,00
-19389,66	896,00
-19341,42	905,00
-19293,33	828,00
-19245,39	837,00
-19197,60	774,00
-19149,95	872,00
-19102,45	924,00
-19055,09	890,00
-19007,87	946,00
-18960,80	834,00
-18913,87	932,00
-18867,09	934,00
-18820,44	973,00
-18773,94	786,00
-18727,57	862,00
-18681,35	814,00
-18635,26	914,00
-18589,31	758,00
-18543,50	716,00
-18497,83	936,00
-18452,29	937,00
-18406,89	901,00
-18361,63	1019,00
-18316,50	865,00
-18271,50	854,00
-18226,63	897,00
-18181,90	879,00
-18137,30	925,00
-18092,84	865,00
-18048,50	880,00
-18004,29	702,00
-17960,22	820,00
-17916,27	807,00
-17872,45	914,00
-17828,76	933,00
-17785,20	989,00
-17741,77	965,00
-17698,46	873,00
-17655,28	754,00
-17612,22	857,00
-17569,29	835,00
-17526,48	903,00
-17483,79	754,00
-17441,23	833,00
-17398,79	769,00
-17356,48	893,00
-17314,28	1112,00
-17272,21	929,00
-17230,26	848,00
-17188,42	903,00
-17146,71	876,00
-17105,12	885,00
-17063,64	901,00
-17022,28	790,00
-16981,04	914,00
-16939,92	812,00
-16898,91	1002,00
-16858,02	909,00
-16817,25	895,00
-16776,59	767,00
-16736,04	864,00
-16695,61	749,00
-16655,29	852,00
-16615,09	937,00
-16574,99	838,00
-16535,01	819,00
-16495,15	836,00
-16455,39	890,00
-16415,74	861,00
-16376,21	806,00
-16336,78	775,00
-16297,46	905,00
-16258,26	920,00
-16219,16	882,00
-16180,17	871,00
-16141,28	918,00
-16102,51	916,00
-16063,84	892,00
-16025,27	902,00
-15986,82	746,00
-15948,46	784,00
-15910,22	883,00
-15872,07	917,00
-15834,04	823,00
-15796,10	917,00
-15758,27	1000,00
-15720,54	836,00
-15682,91	829,00
-15645,39	885,00
-15607,97	891,00
-15570,64	786,00
-15533,42	943,00
-15496,30	877,00
-15459,28	840,00
-15422,36	826,00
-15385,54	861,00
-15348,82	882,00
-15312,19	914,00
-15275,66	833,00
-15239,23	822,00
-15202,90	872,00
-15166,67	776,00
-15130,53	953,00
-15094,48	905,00
-15058,54	846,00
-15022,68	775,00
-14986,93	864,00
-14951,26	895,00
-14915,69	803,00
-14880,22	762,00
-14844,84	815,00
-14809,55	917,00
-14774,35	886,00
-14739,25	1059,00
-14704,24	884,00
-14669,32	890,00
-14634,49	896,00
-14599,75	895,00
-14565,10	787,00
-14530,55	922,00
-14496,08	903,00
-14461,70	833,00
-14427,41	829,00
-14393,21	904,00
-14359,10	810,00
-14325,07	961,00
-14291,14	890,00
-14257,29	905,00
-14223,52	838,00
-14189,85	979,00
-14156,26	871,00
-14122,76	853,00
-14089,34	876,00
-14056,01	847,00
-14022,76	968,00
-13989,60	901,00
-13956,52	903,00
-13923,53	936,00
-13890,62	859,00
-13857,79	849,00
-13825,05	835,00
-13792,39	817,00
-13759,81	884,00
-13727,31	833,00
-13694,90	782,00
-13662,57	894,00
-13630,31	863,00
-13598,14	849,00
-13566,05	838,00
-13534,05	927,00
-13502,12	819,00
-13470,27	862,00
-13438,50	969,00
-13406,80	850,00
-13375,19	794,00
-13343,66	856,00
-13312,20	900,00
-13280,83	838,00
-13249,53	772,00
-13218,30	755,00
-13187,16	818,00
-13156,09	1022,00
-13125,10	904,00
-13094,18	896,00
-13063,34	909,00
-13032,58	794,00
-13001,89	971,00
-12971,28	886,00
-12940,74	861,00
-12910,27	905,00
-12879,88	836,00
-12849,57	949,00
-12819,33	806,00
-12789,16	845,00
-12759,06	833,00
-12729,04	848,00
-12699,09	1974,00
-12669,21	917,00
-12639,41	927,00
-12609,68	935,00
-12580,02	811,00
-12550,43	958,00
-12520,91	729,00
-12491,46	835,00
-12462,08	891,00
-12432,77	802,00
-12403,54	905,00
-12374,37	866,00
-12345,27	845,00
-12316,24	877,00
-12287,29	992,00
-12258,40	912,00
-12229,57	908,00
-12200,82	952,00
-12172,14	808,00
-12143,52	710,00
-12114,97	751,00
-12086,49	752,00
-12058,07	828,00
-12029,73	870,00
-12001,44	963,00
-11973,23	828,00
-11945,08	893,00
-11917,00	925,00
-11888,98	847,00
-11861,03	856,00
-11833,15	951,00
-11805,32	953,00
-11777,57	896,00
-11749,88	864,00
-11722,25	875,00
-11694,69	852,00
-11667,19	858,00
-11639,75	892,00
-11612,38	845,00
-11585,07	851,00
-11557,83	882,00
-11530,65	937,00
-11503,53	919,00
-11476,47	913,00
-11449,48	793,00
-11422,54	941,00
-11395,67	858,00
-11368,86	963,00
-11342,11	891,00
-11315,43	852,00
-11288,80	763,00
-11262,23	922,00
-11235,73	843,00
-11209,28	910,00
-11182,90	861,00
-11156,57	921,00
-11130,31	978,00
-11104,10	916,00
-11077,96	874,00
-11051,87	924,00
-11025,84	990,00
-10999,87	855,00
-10973,96	964,00
-10948,11	828,00
-10922,31	841,00
-10896,58	936,00
-10870,90	1012,00
-10845,28	891,00
-10819,71	726,00
-10794,20	859,00
-10768,75	946,00
-10743,36	865,00
-10718,02	906,00
-10692,74	893,00
-10667,52	752,00
-10642,35	893,00
-10617,24	989,00
-10592,18	971,00
-10567,18	903,00
-10542,23	893,00
-10517,34	913,00
-10492,51	1002,00
-10467,72	909,00
-10443,00	851,00
-10418,32	937,00
-10393,70	795,00
-10369,14	872,00
-10344,63	935,00
-10320,17	1009,00
-10295,77	915,00
-10271,42	935,00
-10247,12	957,00
-10222,88	1051,00
-10198,68	844,00
-10174,54	881,00
-10150,46	940,00
-10126,42	926,00
-10102,44	988,00
-10078,51	940,00
-10054,63	1013,00
-10030,80	911,00
-10007,03	1106,00
-9983,30	977,00
-9959,63	879,00
-9936,01	1106,00
-9912,44	1048,00
-9888,92	1034,00
-9865,44	963,00
-9842,02	1118,00
-9818,65	1046,00
-9795,33	1001,00
-9772,06	1079,00
-9748,84	937,00
-9725,67	1085,00
-9702,55	1025,00
-9679,47	1202,00
-9656,45	1188,00
-9633,47	1132,00
-9610,55	1220,00
-9587,67	1284,00
-9564,84	1530,00
-9542,06	1269,00
-9519,32	1437,00
-9496,64	1506,00
-9474,00	1418,00
-9451,41	1458,00
-9428,87	1577,00
-9406,37	1571,00
-9383,92	1514,00
-9361,52	1597,00
-9339,17	1577,00
-9316,86	1413,00
-9294,60	1630,00
-9272,38	1959,00
-9250,21	1814,00
-9228,09	1829,00
-9206,01	1851,00
-9183,98	1817,00
-9162,00	1696,00
-9140,06	1784,00
-9118,16	1642,00
-9096,31	1785,00
-9074,51	1771,00
-9052,75	1897,00
-9031,04	1862,00
-9009,37	1711,00
-8987,74	1700,00
-8966,16	1649,00
-8944,63	1481,00
-8923,14	1487,00
-8901,69	1416,00
-8880,29	1426,00
-8858,93	1605,00
-8837,61	1726,00
-8816,34	1711,00
-8795,11	1638,00
-8773,92	1725,00
-8752,78	1554,00
-8731,68	1509,00
-8710,62	1470,00
-8689,61	1428,00
-8668,63	1552,00
-8647,70	1764,00
-8626,82	1592,00
-8605,97	1628,00
-8585,17	1525,00
-8564,41	1467,00
-8543,69	1473,00
-8523,01	1324,00
-8502,37	1528,00
-8481,78	1441,00
-8461,23	1298,00
-8440,71	1457,00
-8420,24	1556,00
-8399,81	1534,00
-8379,42	1579,00
-8359,08	1686,00
-8338,77	1410,00
-8318,50	1520,00
-8298,27	1341,00
-8278,09	1408,00
-8257,94	1338,00
-8237,83	1503,00
-8217,76	1573,00
-8197,74	1431,00
-8177,75	1580,00
-8157,80	1416,00
-8137,89	1464,00
-8118,02	1346,00
-8098,19	1521,00
-8078,40	1353,00
-8058,65	1314,00
-8038,93	1483,00
-8019,26	1447,00
-7999,62	1409,00
-7980,02	1282,00
-7960,46	1301,00
-7940,94	1286,00
-7921,46	1424,00
-7902,01	1135,00
-7882,60	1324,00
-7863,23	1328,00
-7843,90	1333,00
-7824,61	1327,00
-7805,35	1331,00
-7786,13	1376,00
-7766,95	1243,00
-7747,80	1253,00
-7728,69	1330,00
-7709,62	1258,00
-7690,59	1377,00
-7671,59	1430,00
-7652,63	1273,00
-7633,70	1334,00
-7614,81	1430,00
-7595,96	1148,00
-7577,15	1275,00
-7558,37	1165,00
-7539,62	1267,00
-7520,91	1235,00
-7502,24	1358,00
-7483,60	1376,00
-7465,00	1423,00
-7446,44	1172,00
-7427,91	1225,00
-7409,41	1292,00
-7390,95	1106,00
-7372,53	1001,00
-7354,14	1189,00
-7335,78	1156,00
-7317,46	1181,00
-7299,18	1183,00
-7280,92	1296,00
-7262,71	1380,00
-7244,52	1251,00
-7226,38	1302,00
-7208,26	1294,00
-7190,18	1201,00
-7172,14	1315,00
-7154,12	1318,00
-7136,15	1208,00
-7118,20	1264,00
-7100,29	1401,00
-7082,41	1370,00
-7064,57	1315,00
-7046,76	1217,00
-7028,98	1073,00
-7011,24	1392,00
-6993,53	1053,00
-6975,85	1137,00
-6958,20	1053,00
-6940,59	1052,00
-6923,01	1045,00
-6905,46	1254,00
-6887,94	1176,00
-6870,46	1510,00
-6853,01	1310,00
-6835,59	1238,00
-6818,21	1146,00
-6800,85	1294,00
-6783,53	1111,00
-6766,24	1013,00
-6748,98	1046,00
-6731,76	944,00
-6714,56	1033,00
-6697,40	1000,00
-6680,26	973,00
-6663,16	1036,00
-6646,09	1081,00
-6629,05	1086,00
-6612,05	1142,00
-6595,07	1130,00
-6578,13	1193,00
-6561,21	1011,00
-6544,33	1023,00
-6527,47	974,00
-6510,65	1042,00
-6493,86	968,00
-6477,10	988,00
-6460,36	1076,00
-6443,66	934,00
-6426,99	934,00
-6410,35	882,00
-6393,74	1094,00
-6377,16	1015,00
-6360,61	995,00
-6344,09	940,00
-6327,59	989,00
-6311,13	892,00
-6294,70	1158,00
-6278,29	1072,00
-6261,92	1107,00
-6245,58	1095,00
-6229,26	1269,00
-6212,97	1092,00
-6196,72	1005,00
-6180,49	1129,00
-6164,29	881,00
-6148,12	962,00
-6131,98	890,00
-6115,86	986,00
-6099,78	964,00
-6083,72	857,00
-6067,69	932,00
-6051,69	980,00
-6035,72	958,00
-6019,78	867,00
-6003,87	1050,00
-5987,98	1024,00
-5972,12	1119,00
-5956,29	1054,00
-5940,49	974,00
-5924,71	1091,00
-5908,96	989,00
-5893,24	934,00
-5877,55	881,00
-5861,89	1037,00
-5846,25	943,00
-5830,64	996,00
-5815,05	851,00
-5799,50	930,00
-5783,97	973,00
-5768,47	1061,00
-5752,99	1150,00
-5737,55	1031,00
-5722,12	1048,00
-5706,73	1017,00
-5691,36	1003,00
-5676,02	895,00
-5660,71	1005,00
-5645,42	943,00
-5630,16	958,00
-5614,92	1036,00
-5599,71	878,00
-5584,53	1050,00
-5569,37	1002,00
-5554,24	1010,00
-5539,14	1026,00
-5524,06	1017,00
-5509,01	883,00
-5493,98	934,00
-5478,98	1120,00
-5464,00	933,00
-5449,05	825,00
-5434,13	929,00
-5419,23	1037,00
-5404,36	870,00
-5389,51	971,00
-5374,69	1099,00
-5359,89	989,00
-5345,12	1132,00
-5330,37	1133,00
-5315,65	1162,00
-5300,95	1034,00
-5286,28	802,00
-5271,63	913,00
-5257,01	1023,00
-5242,41	1061,00
-5227,84	970,00
-5213,29	926,00
-5198,76	980,00
-5184,26	960,00
-5169,79	983,00
-5155,33	1031,00
-5140,91	987,00
-5126,51	1080,00
-5112,13	1007,00
-5097,77	1142,00
-5083,44	1032,00
-5069,13	941,00
-5054,85	974,00
-5040,59	911,00
-5026,36	1030,00
-5012,15	1227,00
-4997,96	1006,00
-4983,80	856,00
-4969,66	1046,00
-4955,54	910,00
-4941,44	946,00
-4927,37	978,00
-4913,33	1027,00
-4899,30	946,00
-4885,30	948,00
-4871,33	1011,00
-4857,37	956,00
-4843,44	1007,00
-4829,53	1019,00
-4815,65	1087,00
-4801,79	900,00
-4787,95	902,00
-4774,13	832,00
-4760,34	915,00
-4746,56	943,00
-4732,82	881,00
-4719,09	932,00
-4705,38	1108,00
-4691,70	1130,00
-4678,04	1052,00
-4664,41	918,00
-4650,79	1144,00
-4637,20	951,00
-4623,63	909,00
-4610,08	977,00
-4596,56	1054,00
-4583,05	932,00
-4569,57	937,00
-4556,11	1030,00
-4542,67	817,00
-4529,25	809,00
-4515,86	1049,00
-4502,49	1026,00
-4489,13	1022,00
-4475,80	982,00
-4462,49	835,00
-4449,21	1073,00
-4435,94	884,00
-4422,70	1005,00
-4409,47	802,00
-4396,27	906,00
-4383,09	969,00
-4369,93	887,00
-4356,79	938,00
-4343,67	864,00
-4330,58	1039,00
-4317,50	856,00
-4304,45	843,00
-4291,41	881,00
-4278,40	894,00
-4265,41	847,00
-4252,44	876,00
-4239,49	883,00
-4226,55	987,00
-4213,65	1018,00
-4200,76	993,00
-4187,89	751,00
-4175,04	931,00
-4162,21	968,00
-4149,40	895,00
-4136,61	820,00
-4123,85	853,00
-4111,10	902,00
-4098,37	963,00
-4085,66	926,00
-4072,98	898,00
-4060,31	823,00
-4047,66	906,00
-4035,04	996,00
-4022,43	855,00
-4009,84	1038,00
-3997,27	864,00
-3984,72	917,00
-3972,19	953,00
-3959,69	768,00
-3947,20	876,00
-3934,73	955,00
-3922,27	866,00
-3909,84	871,00
-3897,43	919,00
-3885,04	907,00
-3872,67	904,00
-3860,31	962,00
-3847,98	954,00
-3835,66	865,00
-3823,36	936,00
-3811,09	865,00
-3798,83	921,00
-3786,59	985,00
-3774,37	940,00
-3762,17	812,00
-3749,98	872,00
-3737,82	803,00
-3725,67	1054,00
-3713,55	909,00
-3701,44	951,00
-3689,35	917,00
-3677,28	927,00
-3665,22	802,00
-3653,19	780,00
-3641,17	805,00
-3629,18	921,00
-3617,20	871,00
-3605,24	839,00
-3593,30	955,00
-3581,37	877,00
-3569,47	1027,00
-3557,58	930,00
-3545,71	923,00
-3533,86	868,00
-3522,02	829,00
-3510,21	901,00
-3498,41	875,00
-3486,63	877,00
-3474,87	914,00
-3463,12	828,00
-3451,40	886,00
-3439,69	953,00
-3428,00	962,00
-3416,33	977,00
-3404,67	804,00
-3393,03	944,00
-3381,41	971,00
-3369,81	852,00
-3358,22	793,00
-3346,66	958,00
-3335,10	961,00
-3323,57	839,00
-3312,06	902,00
-3300,56	895,00
-3289,08	721,00
-3277,61	822,00
-3266,16	1036,00
-3254,73	972,00
-3243,32	927,00
-3231,92	925,00
-3220,55	906,00
-3209,18	879,00
-3197,84	854,00
-3186,51	794,00
-3175,20	852,00
-3163,90	854,00
-3152,63	928,00
-3141,36	961,00
-3130,12	940,00
-3118,89	1027,00
-3107,68	919,00
-3096,49	928,00
-3085,31	977,00
-3074,15	878,00
-3063,00	939,00
-3051,87	1055,00
-3040,76	885,00
-3029,67	865,00
-3018,59	1023,00
-3007,52	926,00
-2996,48	1050,00
-2985,44	808,00
-2974,43	865,00
-2963,43	899,00
-2952,45	715,00
-2941,48	883,00
-2930,53	948,00
-2919,60	789,00
-2908,68	864,00
-2897,78	895,00
-2886,89	919,00
-2876,02	833,00
-2865,17	836,00
-2854,33	886,00
-2843,50	843,00
-2832,70	871,00
-2821,90	959,00
-2811,13	899,00
-2800,37	906,00
-2789,62	917,00
-2778,89	924,00
-2768,18	1025,00
-2757,48	953,00
-2746,80	997,00
-2736,13	854,00
-2725,48	893,00
-2714,84	928,00
-2704,22	830,00
-2693,61	847,00
-2683,02	893,00
-2672,45	864,00
-2661,89	929,00
-2651,34	886,00
-2640,81	824,00
-2630,30	1021,00
-2619,80	939,00
-2609,31	1003,00
-2598,84	830,00
-2588,39	937,00
-2577,95	822,00
-2567,52	767,00
-2557,11	922,00
-2546,71	838,00
-2536,33	878,00
-2525,97	913,00
-2515,62	840,00
-2505,28	850,00
-2494,96	834,00
-2484,65	960,00
-2474,36	1077,00
-2464,08	927,00
-2453,82	976,00
-2443,57	882,00
-2433,33	852,00
-2423,11	881,00
-2412,91	839,00
-2402,72	835,00
-2392,54	801,00
-2382,38	867,00
-2372,23	1001,00
-2362,09	1437,00
-2351,97	874,00
-2341,87	834,00
-2331,78	964,00
-2321,70	882,00
-2311,64	907,00
-2301,59	851,00
-2291,55	850,00
-2281,53	989,00
-2271,53	840,00
-2261,53	997,00
-2251,55	881,00
-2241,59	882,00
-2231,64	973,00
-2221,70	788,00
-2211,78	982,00
-2201,87	797,00
-2191,97	937,00
-2182,09	833,00
-2172,22	1011,00
-2162,37	775,00
-2152,53	841,00
-2142,70	777,00
-2132,89	763,00
-2123,09	896,00
-2113,30	946,00
-2103,53	857,00
-2093,77	842,00
-2084,02	838,00
-2074,29	956,00
-2064,57	891,00
-2054,86	912,00
-2045,17	943,00
-2035,49	1009,00
-2025,82	831,00
-2016,17	805,00
-2006,53	853,00
-1996,91	932,00
-1987,29	856,00
-1977,69	883,00
-1968,11	827,00
-1958,53	866,00
-1948,97	939,00
-1939,42	838,00
-1929,89	753,00
-1920,37	926,00
-1910,86	934,00
-1901,36	907,00
-1891,88	877,00
-1882,41	880,00
-1872,95	903,00
-1863,51	855,00
-1854,08	948,00
-1844,66	947,00
-1835,26	838,00
-1825,86	888,00
-1816,48	848,00
-1807,11	970,00
-1797,76	910,00
-1788,42	1007,00
-1779,09	937,00
-1769,77	900,00
-1760,47	1085,00
-1751,17	901,00
-1741,89	896,00
-1732,63	908,00
-1723,37	1204,00
-1714,13	1013,00
-1704,90	797,00
-1695,68	1032,00
-1686,48	775,00
-1677,29	888,00
-1668,11	1090,00
-1658,94	957,00
-1649,78	978,00
-1640,64	881,00
-1631,51	983,00
-1622,39	1014,00
-1613,28	912,00
-1604,19	1015,00
-1595,10	864,00
-1586,03	854,00
-1576,97	968,00
-1567,93	916,00
-1558,89	1015,00
-1549,87	946,00
-1540,86	797,00
-1531,86	901,00
-1522,87	765,00
-1513,90	1020,00
-1504,93	1019,00
-1495,98	921,00
-1487,04	1064,00
-1478,12	931,00
-1469,20	852,00
-1460,30	1036,00
-1451,40	1046,00
-1442,52	818,00
-1433,65	1017,00
-1424,80	909,00
-1415,95	872,00
-1407,12	1085,00
-1398,30	883,00
-1389,48	851,00
-1380,69	968,00
-1371,90	1010,00
-1363,12	907,00
-1354,36	1028,00
-1345,60	836,00
-1336,86	964,00
-1328,13	1072,00
-1319,41	931,00
-1310,70	855,00
-1302,01	944,00
-1293,32	816,00
-1284,65	831,00
-1275,99	867,00
-1267,33	1002,00
-1258,69	1006,00
-1250,06	1031,00
-1241,45	822,00
-1232,84	957,00
-1224,25	924,00
-1215,66	918,00
-1207,09	941,00
-1198,53	833,00
-1189,97	877,00
-1181,43	900,00
-1172,91	979,00
-1164,39	973,00
-1155,88	833,00
-1147,38	785,00
-1138,90	943,00
-1130,43	834,00
-1121,96	929,00
-1113,51	972,00
-1105,07	888,00
-1096,64	858,00
-1088,22	960,00
-1079,81	955,00
-1071,41	1054,00
-1063,02	869,00
-1054,65	936,00
-1046,28	886,00
-1037,92	981,00
-1029,58	944,00
-1021,24	927,00
-1012,92	1172,00
-1004,61	880,00
-996,30	1189,00
-988,01	762,00
-979,73	918,00
-971,46	1011,00
-963,20	799,00
-954,95	797,00
-946,71	860,00
-938,48	849,00
-930,26	1016,00
-922,06	930,00
-913,86	947,00
-905,67	847,00
-897,49	867,00
-889,33	782,00
-881,17	926,00
-873,02	971,00
-864,89	742,00
-856,76	910,00
-848,65	766,00
-840,54	939,00
-832,45	956,00
-824,36	744,00
-816,29	967,00
-808,22	950,00
-800,17	962,00
-792,12	985,00
-784,09	1071,00
-776,06	851,00
-768,05	937,00
-760,04	850,00
-752,05	886,00
-744,07	972,00
-736,09	990,00
-728,13	837,00
-720,17	912,00
-712,23	882,00
-704,29	902,00
-696,37	906,00
-688,45	880,00
-680,55	886,00
-672,65	865,00
-664,77	734,00
-656,89	949,00
-649,03	835,00
-641,17	958,00
-633,32	946,00
-625,49	864,00
-617,66	868,00
-609,84	926,00
-602,03	800,00
-594,23	876,00
-586,45	914,00
-578,67	825,00
-570,90	843,00
-563,14	799,00
-555,39	1029,00
-547,65	1040,00
-539,91	996,00
-532,19	820,00
-524,48	891,00
-516,78	850,00
-509,08	918,00
-501,40	851,00
-493,72	809,00
-486,06	821,00
-478,40	1130,00
-470,76	831,00
-463,12	951,00
-455,49	866,00
-447,87	892,00
-440,26	879,00
-432,66	853,00
-425,07	965,00
-417,49	843,00
-409,92	828,00
-402,35	717,00
-394,80	917,00
-387,25	934,00
-379,72	955,00
-372,19	871,00
-364,67	926,00
-357,17	906,00
-349,67	881,00
-342,18	877,00
-334,69	968,00
-327,22	835,00
-319,76	839,00
-312,30	1010,00
-304,86	914,00
-297,42	902,00
-290,00	868,00
-282,58	896,00
-275,17	1002,00
-267,77	1086,00
-260,37	862,00
-252,99	979,00
-245,62	897,00
-238,25	868,00
-230,90	838,00
-223,55	1058,00
-216,21	953,00
-208,88	1071,00
-201,56	1033,00
-194,25	942,00
-186,94	963,00
-179,65	977,00
-172,36	1033,00
-165,08	992,00
-157,81	1112,00
-150,55	1091,00
-143,30	1131,00
-136,06	1100,00
-128,82	1153,00
-121,60	1156,00
-114,38	1242,00
-107,17	1171,00
-99,97	1334,00
-92,78	1271,00
-85,60	1390,00
-78,42	1513,00
-71,25	1628,00
-64,10	1663,00
-56,95	1661,00
-49,81	1875,00
-42,67	2383,00
-35,55	2500,00
-28,43	3064,00
-21,33	4566,00
-14,23	13171,00
-7,14	57775,00
-0,05	57564,00
7,02	57281,00
14,09	44041,00
21,14	12060,00
28,19	5370,00
35,23	3782,00
42,27	3142,00
49,29	2536,00
56,31	2426,00
63,32	2191,00
70,32	1809,00
77,31	1641,00
84,29	1548,00
91,27	1645,00
98,23	1585,00
105,19	1408,00
112,14	1564,00
119,09	1762,00
126,02	2249,00
132,95	2480,00
139,87	2516,00
146,78	2680,00
153,68	2493,00
160,58	2401,00
167,46	2426,00
174,34	2533,00
181,21	2564,00
188,08	2393,00
194,93	2607,00
201,78	2443,00
208,62	2439,00
215,45	2478,00
222,27	2552,00
229,09	2716,00
235,90	2461,00
242,70	2406,00
249,49	2568,00
256,27	2416,00
263,05	2400,00
269,82	2345,00
276,58	2450,00
283,33	2331,00
290,08	2391,00
296,82	2380,00
303,55	2363,00
310,27	2196,00
316,98	2356,00
323,69	2291,00
330,39	2330,00
337,08	2484,00
343,76	2396,00
350,44	2320,00
357,11	2553,00
363,77	2317,00
370,42	2267,00
377,07	2414,00
383,71	2355,00
390,34	2355,00
396,96	2291,00
403,58	2275,00
410,19	2383,00
416,79	2388,00
423,38	2382,00
429,97	2364,00
436,55	2205,00
443,12	2328,00
449,68	2187,00
456,24	2288,00
462,79	2378,00
469,33	2266,00
475,86	2309,00
482,39	2268,00
488,91	2369,00
495,42	2156,00
501,93	2281,00
508,42	2121,00
514,91	2326,00
521,40	2248,00
527,87	2183,00
534,34	2140,00
540,80	2400,00
547,25	2297,00
553,70	2318,00
560,14	2299,00
566,57	2335,00
573,00	2242,00
579,41	2327,00
585,83	2271,00
592,23	2259,00
598,62	2297,00
605,01	2199,00
611,40	2318,00
617,77	2367,00
624,14	2347,00
630,50	2259,00
636,85	2217,00
643,20	2272,00
649,54	2243,00
655,87	2306,00
662,20	2411,00
668,52	2263,00
674,83	2369,00
681,13	2219,00
687,43	2286,00
693,72	2143,00
700,00	2094,00
706,28	2219,00
712,55	2298,00
718,81	2275,00
725,07	2301,00
731,32	2223,00
737,56	2344,00
743,79	2237,00
750,02	2244,00
756,24	2194,00
762,46	2199,00
768,67	2509,00
774,87	2256,00
781,06	2308,00
787,25	2304,00
793,43	2250,00
799,60	2155,00
805,77	2452,00
811,93	2197,00
818,08	2359,00
824,23	2264,00
830,37	2488,00
836,50	2325,00
842,63	2376,00
848,75	2310,00
854,87	2355,00
860,97	2283,00
867,07	2392,00
873,17	2303,00
879,25	2327,00
885,33	2366,00
891,41	2345,00
897,47	2349,00
903,53	2300,00
909,59	2355,00
915,63	2383,00
921,67	2355,00
927,71	2365,00
933,74	2456,00
939,76	2256,00
945,77	2227,00
951,78	2275,00
957,78	2221,00
963,78	2374,00
969,77	2435,00
975,75	2383,00
981,72	2231,00
987,69	3539,00
993,66	2399,00
999,61	2352,00
1005,56	2399,00
1011,51	2276,00
1017,44	2343,00
1023,37	2339,00
1029,30	2316,00
1035,22	2398,00
1041,13	2390,00
1047,03	2380,00
1052,93	2506,00
1058,83	2766,00
1064,71	2900,00
1070,59	2755,00
1076,47	2626,00
1082,33	2485,00
1088,20	2528,00
1094,05	2544,00
1099,90	2428,00
1105,74	2402,00
1111,58	2402,00
1117,41	2542,00
1123,23	2738,00
1129,05	2999,00
1134,86	2875,00
1140,67	2693,00
1146,47	2447,00
1152,26	2518,00
1158,05	2237,00
1163,83	2548,00
1169,60	2531,00
1175,37	2517,00
1181,13	2413,00
1186,89	2467,00
1192,64	2396,00
1198,38	2537,00
1204,12	2379,00
1209,85	2418,00
1215,58	2438,00
1221,30	2473,00
1227,02	2522,00
1232,72	2452,00
1238,43	2451,00
1244,12	2507,00
1249,81	2559,00
1255,50	2419,00
1261,17	2435,00
1266,85	2523,00
1272,51	2548,00
1278,17	2654,00
1283,83	2526,00
1289,47	2837,00
1295,12	3301,00
1300,75	3088,00
1306,38	2827,00
1312,01	2667,00
1317,63	2591,00
1323,24	2590,00
1328,85	2608,00
1334,45	2541,00
1340,04	2562,00
1345,63	2453,00
1351,22	2734,00
1356,80	2635,00
1362,37	2637,00
1367,93	2528,00
1373,49	2581,00
1379,05	2401,00
1384,60	2573,00
1390,14	2552,00
1395,68	2583,00
1401,21	2470,00
1406,74	2630,00
1412,26	2806,00
1417,77	2866,00
1423,28	2762,00
1428,78	2861,00
1434,28	3147,00
1439,77	3272,00
1445,26	3213,00
1450,74	3140,00
1456,22	3125,00
1461,68	3045,00
1467,15	2968,00
1472,61	2838,00
1478,06	2820,00
1483,51	2617,00
1488,95	2492,00
1494,38	2620,00
1499,81	2380,00
1505,24	2371,00
1510,65	2607,00
1516,07	2530,00
1521,48	2397,00
1526,88	2286,00
1532,27	2388,00
1537,67	2411,00
1543,05	2498,00
1548,43	2311,00
1553,81	2443,00
1559,18	2425,00
1564,54	2405,00
1569,90	2418,00
1575,25	2267,00
1580,60	2258,00
1585,94	2338,00
1591,28	2321,00
1596,61	2355,00
1601,93	2417,00
1607,25	2400,00
1612,57	2424,00
1617,88	2371,00
1623,18	2377,00
1628,48	2370,00
1633,77	2355,00
1639,06	2395,00
1644,34	2227,00
1649,62	2258,00
1654,89	2415,00
1660,16	2219,00
1665,42	2375,00
1670,67	2209,00
1675,92	2286,00
1681,17	2247,00
1686,41	2188,00
1691,64	2451,00
1696,87	2307,00
1702,10	2235,00
1707,32	2383,00
1712,53	2252,00
1717,74	2242,00
1722,94	2300,00
1728,14	2291,00
1733,33	2169,00
1738,52	2264,00
1743,70	2358,00
1748,88	2275,00
1754,05	2256,00
1759,22	2110,00
1764,38	3627,00
1769,53	2116,00
1774,69	2292,00
1779,83	2167,00
1784,97	2162,00
1790,11	2163,00
1795,24	2223,00
1800,36	2261,00
1805,48	2123,00
1810,60	2108,00
1815,71	2184,00
1820,82	2175,00
1825,92	2133,00
1831,01	2086,00
1836,10	2106,00
1841,19	2172,00
1846,26	2066,00
1851,34	2037,00
1856,41	2294,00
1861,47	2163,00
1866,53	2142,00
1871,59	2174,00
1876,64	2109,00
1881,68	2113,00
1886,72	2292,00
1891,76	2089,00
1896,79	2191,00
1901,81	2058,00
1906,83	2163,00
1911,85	2037,00
1916,86	2085,00
1921,86	2132,00
1926,86	2085,00
1931,86	2091,00
1936,85	2039,00
1941,83	2097,00
1946,81	2029,00
1951,79	2067,00
1956,76	1957,00
1961,72	1963,00
1966,68	2002,00
1971,64	1964,00
1976,59	2053,00
1981,54	2022,00
1986,48	2005,00
1991,42	1879,00
1996,35	2268,00
2001,27	2002,00
2006,20	1939,00
2011,11	2072,00
2016,03	2104,00
2020,93	1946,00
2025,84	2064,00
2030,73	1937,00
2035,63	1754,00
2040,52	2046,00
2045,40	1885,00
2050,28	1860,00
2055,15	2024,00
2060,02	1840,00
2064,89	1992,00
2069,75	1976,00
2074,60	2026,00
2079,46	1890,00
2084,30	1989,00
2089,14	1918,00
2093,98	2007,00
2098,81	1982,00
2103,64	1980,00
2108,46	1907,00
2113,28	1901,00
2118,09	1955,00
2122,90	1977,00
2127,70	1843,00
2132,50	1991,00
2137,30	1819,00
2142,09	1830,00
2146,87	1788,00
2151,66	1946,00
2156,43	1971,00
2161,20	1865,00
2165,97	1927,00
2170,73	1811,00
2175,49	1967,00
2180,24	1885,00
2184,99	1941,00
2189,74	1879,00
2194,48	1866,00
2199,21	1934,00
2203,94	1716,00
2208,67	1793,00
2213,39	1659,00
2218,11	1818,00
2222,82	1833,00
2227,53	1667,00
2232,23	1936,00
2236,93	1825,00
2241,63	1915,00
2246,32	1745,00
2251,00	1778,00
2255,68	1797,00
2260,36	1816,00
2265,03	1816,00
2269,70	1970,00
2274,36	1738,00
2279,02	1748,00
2283,68	1888,00
2288,33	1658,00
2292,97	1764,00
2297,61	1787,00
2302,25	1761,00
2306,88	1744,00
2311,51	1590,00
2316,14	1721,00
2320,75	1763,00
2325,37	1630,00
2329,98	1815,00
2334,59	1687,00
2339,19	1716,00
2343,79	1653,00
2348,38	1694,00
2352,97	1732,00
2357,55	1847,00
2362,13	1812,00
2366,71	1594,00
2371,28	1673,00
2375,85	1701,00
2380,41	1777,00
2384,97	1679,00
2389,52	1682,00
2394,07	1728,00
2398,62	1743,00
2403,16	1570,00
2407,70	1584,00
2412,23	1710,00
2416,76	1810,00
2421,29	1692,00
2425,81	1728,00
2430,32	1672,00
2434,84	1528,00
2439,34	1611,00
2443,85	1794,00
2448,35	1618,00
2452,84	1548,00
2457,33	1628,00
2461,82	1537,00
2466,30	1491,00
2470,78	1625,00
2475,25	1421,00
2479,72	1588,00
2484,19	1616,00
2488,65	1644,00
2493,11	1452,00
2497,56	1562,00
2502,01	1400,00
2506,46	1616,00
2510,90	1613,00
2515,34	1647,00
2519,77	1604,00
2524,20	1471,00
2528,62	1560,00
2533,04	1661,00
2537,46	1472,00
2541,87	1462,00
2546,28	1437,00
2550,68	1601,00
2555,08	1431,00
2559,48	1524,00
2563,87	1434,00
2568,26	1501,00
2572,64	1512,00
2577,02	1497,00
2581,40	1372,00
2585,77	1450,00
2590,14	1470,00
2594,50	1341,00
2598,86	1522,00
2603,22	1496,00
2607,57	1428,00
2611,92	1497,00
2616,26	1402,00
2620,60	1591,00
2624,94	1343,00
2629,27	1504,00
2633,60	1405,00
2637,92	1517,00
2642,24	1547,00
2646,56	1386,00
2650,87	1304,00
2655,18	1541,00
2659,48	1377,00
2663,78	1429,00
2668,08	1406,00
2672,37	1448,00
2676,66	1549,00
2680,95	1397,00
2685,23	1455,00
2689,50	1437,00
2693,78	1349,00
2698,05	1363,00
2702,31	1442,00
2706,57	1454,00
2710,83	1531,00
2715,08	1482,00
2719,33	1594,00
2723,58	1541,00
2727,82	1478,00
2732,06	1472,00
2736,29	1451,00
2740,53	1567,00
2744,75	1375,00
2748,97	1573,00
2753,19	1497,00
2757,41	1524,00
2761,62	1561,00
2765,83	1568,00
2770,03	1329,00
2774,23	1432,00
2778,43	1388,00
2782,62	1391,00
2786,81	1393,00
2791,00	1478,00
2795,18	1607,00
2799,35	1433,00
2803,53	1489,00
2807,70	1563,00
2811,86	1319,00
2816,03	1590,00
2820,19	1576,00
2824,34	1592,00
2828,49	1543,00
2832,64	1632,00
2836,78	1791,00
2840,92	1933,00
2845,06	2170,00
2849,19	2301,00
2853,32	2311,00
2857,45	2265,00
2861,57	2312,00
2865,69	2242,00
2869,80	2146,00
2873,91	2153,00
2878,02	2275,00
2882,12	2417,00
2886,22	2332,00
2890,32	2302,00
2894,41	2195,00
2898,50	2088,00
2902,58	2052,00
2906,67	1997,00
2910,74	1847,00
2914,82	1831,00
2918,89	1892,00
2922,96	1715,00
2927,02	1722,00
2931,08	1530,00
2935,13	1508,00
2939,19	1586,00
2943,24	1543,00
2947,28	1502,00
2951,32	1429,00
2955,36	1338,00
2959,40	1490,00
2963,43	1506,00
2967,46	1264,00
2971,48	1291,00
2975,50	1416,00
2979,52	1308,00
2983,53	1339,00
2987,54	1358,00
2991,55	1242,00
2995,55	1254,00
2999,55	1114,00
3003,54	1224,00
3007,54	1241,00
3011,53	1235,00
3015,51	1171,00
3019,49	1305,00
3023,47	1157,00
3027,45	1183,00
3031,42	1138,00
3035,39	1192,00
3039,35	1019,00
3043,31	1273,00
3047,27	1114,00
3051,22	1220,00
3055,17	1076,00
3059,12	1006,00
3063,06	1193,00
3067,00	985,00
3070,94	1082,00
3074,87	1198,00
3078,80	1133,00
3082,73	1152,00
3086,65	1078,00
3090,57	1091,00
3094,49	1050,00
3098,40	1163,00
3102,31	1039,00
3106,22	1060,00
3110,12	1130,00
3114,02	1061,00
3117,92	1168,00
3121,81	1031,00
3125,70	1048,00
3129,58	1137,00
3133,47	1021,00
3137,34	1158,00
3141,22	1156,00
3145,09	1147,00
3148,96	963,00
3152,83	988,00
3156,69	1065,00
3160,55	961,00
3164,40	1083,00
3168,26	1010,00
3172,10	1189,00
3175,95	1136,00
3179,79	1100,00
3183,63	1005,00
3187,47	1066,00
3191,30	1021,00
3195,13	1134,00
3198,95	977,00
3202,78	1063,00
3206,60	978,00
3210,41	916,00
3214,23	1035,00
3218,03	995,00
3221,84	1048,00
3225,64	945,00
3229,44	991,00
3233,24	978,00
3237,03	955,00
3240,82	912,00
3244,61	941,00
3248,39	990,00
3252,17	1012,00
3255,95	1124,00
3259,72	992,00
3263,49	1153,00
3267,26	929,00
3271,03	892,00
3274,79	955,00
3278,54	957,00
3282,30	844,00
3286,05	971,00
3289,80	972,00
3293,54	1014,00
3297,29	1050,00
3301,02	998,00
3304,76	956,00
3308,49	970,00
3312,22	900,00
3315,95	965,00
3319,67	985,00
3323,39	1101,00
3327,10	1066,00
3330,82	996,00
3334,53	937,00
3338,24	899,00
3341,94	967,00
3345,64	956,00
3349,34	977,00
3353,03	965,00
3356,72	931,00
3360,41	1036,00
3364,10	993,00
3367,78	919,00
3371,46	934,00
3375,13	1021,00
3378,81	1018,00
3382,48	929,00
3386,14	1065,00
3389,81	956,00
3393,47	861,00
3397,12	1101,00
3400,78	964,00
3404,43	971,00
3408,08	942,00
3411,72	918,00
3415,36	864,00
3419,00	882,00
3422,64	930,00
3426,27	874,00
3429,90	937,00
3433,53	960,00
3437,15	926,00
3440,77	740,00
3444,39	898,00
3448,00	937,00
3451,62	933,00
3455,22	941,00
3458,83	892,00
3462,43	895,00
3466,03	933,00
3469,63	937,00
3473,22	969,00
3476,81	848,00
3480,40	948,00
3483,99	878,00
3487,57	1007,00
3491,15	868,00
3494,72	905,00
3498,29	932,00
3501,86	898,00
3505,43	913,00
3508,99	908,00
3512,56	853,00
3516,11	976,00
3519,67	769,00
3523,22	986,00
3526,77	907,00
3530,32	875,00
3533,86	926,00
3537,40	1048,00
3540,94	989,00
3544,47	846,00
3548,00	920,00
3551,53	886,00
3555,06	888,00
3558,58	923,00
3562,10	1045,00
3565,62	880,00
3569,13	886,00
3572,64	840,00
3576,15	749,00
3579,66	792,00
3583,16	1009,00
3586,66	834,00
3590,16	828,00
3593,65	891,00
3597,14	790,00
3600,63	827,00
3604,11	941,00
3607,60	819,00
3611,08	833,00
3614,55	806,00
3618,03	809,00
3621,50	802,00
3624,97	784,00
3628,43	949,00
3631,90	860,00
3635,36	823,00
3638,81	850,00
3642,27	953,00
3645,72	921,00
3649,17	900,00
3652,61	681,00
3656,06	785,00
3659,50	768,00
3662,93	734,00
3666,37	816,00
3669,80	952,00
3673,23	900,00
3676,65	940,00
3680,08	945,00
3683,50	839,00
3686,92	894,00
3690,33	785,00
3693,74	831,00
3697,15	709,00
3700,56	793,00
3703,96	837,00
3707,36	849,00
3710,76	762,00
3714,16	740,00
3717,55	784,00
3720,94	844,00
3724,33	792,00
3727,71	881,00
3731,10	798,00
3734,48	685,00
3737,85	666,00
3741,23	641,00
3744,60	806,00
3747,97	788,00
3751,33	749,00
3754,69	778,00
3758,05	767,00
3761,41	679,00
3764,77	678,00
3768,12	608,00
3771,47	695,00
3774,82	758,00
3778,16	-14,00
3781,50	16,00
3784,84	8,00
3788,18	11,00
>>>>>End Processed Spectral Data<<<<<
