SpectraSuite Data File
++++++++++++++++++++++++++++++++++++
Date: Mon Mar 09 14:50:41 ICT 2026
User: Administrator
Dark Spectrum Present: Yes
Reference Spectrum Present: No
Number of Sampled Component Spectra: 1
Spectrometers: MAYP113682
Integration Time (usec): 3000000 (MAYP113682)
Spectra Averaged: 1 (MAYP113682)
Boxcar Smoothing: 0 (MAYP113682)
Correct for Electrical Dark: No (MAYP113682)
Strobe/Lamp Enabled: No (MAYP113682)
Correct for Detector Non-linearity: No (MAYP113682)
Correct for Stray Light: No (MAYP113682)
Number of Pixels in Processed Spectrum: 2068
>>>>>Begin Processed Spectral Data<<<<<
-37534,58	36,00
-37414,56	4,00
-37295,11	9,00
-37176,24	3,00
-37057,95	811,00
-36940,22	772,00
-36823,05	917,00
-36706,45	933,00
-36590,40	824,00
-36474,90	938,00
-36359,95	980,00
-36245,55	890,00
-36131,68	944,00
-36018,35	949,00
-35905,55	1004,00
-35793,29	1016,00
-35681,54	996,00
-35570,32	992,00
-35459,62	1020,00
-35349,43	984,00
-35239,75	966,00
-35130,58	898,00
-35021,91	992,00
-34913,74	974,00
-34806,07	990,00
-34698,89	985,00
-34592,20	935,00
-34486,00	1060,00
-34380,28	929,00
-34275,04	1009,00
-34170,27	958,00
-34065,98	1118,00
-33962,16	965,00
-33858,81	981,00
-33755,92	1052,00
-33653,49	1180,00
-33551,52	1133,00
-33450,01	956,00
-33348,94	1029,00
-33248,33	1049,00
-33148,16	1026,00
-33048,43	1096,00
-32949,14	1076,00
-32850,29	1049,00
-32751,87	956,00
-32653,89	1024,00
-32556,33	1196,00
-32459,20	1055,00
-32362,49	870,00
-32266,19	997,00
-32170,32	1024,00
-32074,86	1052,00
-31979,82	1085,00
-31885,18	1252,00
-31790,95	1126,00
-31697,12	1059,00
-31603,69	1148,00
-31510,67	1064,00
-31418,04	992,00
-31325,80	1141,00
-31233,95	1090,00
-31142,49	1068,00
-31051,42	1083,00
-30960,73	1173,00
-30870,43	1096,00
-30780,50	1075,00
-30690,95	1058,00
-30601,77	1182,00
-30512,97	994,00
-30424,53	1096,00
-30336,46	1084,00
-30248,76	1140,00
-30161,42	1136,00
-30074,44	1027,00
-29987,81	1131,00
-29901,55	1240,00
-29815,63	984,00
-29730,07	1129,00
-29644,86	1093,00
-29560,00	1117,00
-29475,48	1039,00
-29391,30	1124,00
-29307,47	985,00
-29223,97	1042,00
-29140,81	1105,00
-29057,99	1172,00
-28975,50	1078,00
-28893,34	1137,00
-28811,51	1033,00
-28730,00	1115,00
-28648,82	1005,00
-28567,97	1162,00
-28487,43	1139,00
-28407,21	1033,00
-28327,32	977,00
-28247,73	1248,00
-28168,46	1043,00
-28089,50	1123,00
-28010,85	958,00
-27932,51	950,00
-27854,48	1163,00
-27776,75	989,00
-27699,32	973,00
-27622,19	1176,00
-27545,37	1030,00
-27468,84	1110,00
-27392,60	1180,00
-27316,66	1031,00
-27241,01	1036,00
-27165,66	1120,00
-27090,59	1091,00
-27015,81	1148,00
-26941,31	1196,00
-26867,10	1060,00
-26793,17	1145,00
-26719,52	1079,00
-26646,15	1022,00
-26573,06	1080,00
-26500,24	1005,00
-26427,70	1078,00
-26355,43	1167,00
-26283,43	1075,00
-26211,71	1183,00
-26140,25	1110,00
-26069,06	1361,00
-25998,13	907,00
-25927,46	1009,00
-25857,06	1154,00
-25786,92	1039,00
-25717,04	981,00
-25647,42	1123,00
-25578,05	1088,00
-25508,94	1133,00
-25440,09	1072,00
-25371,48	957,00
-25303,13	1047,00
-25235,02	1060,00
-25167,17	1209,00
-25099,56	1197,00
-25032,19	1029,00
-24965,07	996,00
-24898,20	1054,00
-24831,56	1112,00
-24765,17	1026,00
-24699,01	1044,00
-24633,10	1029,00
-24567,41	1015,00
-24501,97	1081,00
-24436,75	1058,00
-24371,77	967,00
-24307,03	981,00
-24242,51	904,00
-24178,22	1150,00
-24114,16	994,00
-24050,32	1108,00
-23986,71	1012,00
-23923,32	1053,00
-23860,16	999,00
-23797,22	1028,00
-23734,50	1193,00
-23672,00	950,00
-23609,71	1017,00
-23547,65	926,00
-23485,80	1136,00
-23424,16	952,00
-23362,74	1168,00
-23301,53	946,00
-23240,54	951,00
-23179,75	1068,00
-23119,17	1045,00
-23058,80	1082,00
-22998,64	1106,00
-22938,68	1116,00
-22878,93	1072,00
-22819,39	1066,00
-22760,04	1054,00
-22700,90	1175,00
-22641,96	1018,00
-22583,22	1027,00
-22524,68	1050,00
-22466,33	968,00
-22408,19	1097,00
-22350,23	1106,00
-22292,48	1098,00
-22234,92	1060,00
-22177,55	1152,00
-22120,37	1210,00
-22063,38	1004,00
-22006,58	954,00
-21949,98	964,00
-21893,56	867,00
-21837,33	1001,00
-21781,28	1161,00
-21725,42	1019,00
-21669,74	1087,00
-21614,25	1067,00
-21558,94	971,00
-21503,81	995,00
-21448,86	1161,00
-21394,10	937,00
-21339,51	963,00
-21285,10	980,00
-21230,86	934,00
-21176,81	976,00
-21122,93	967,00
-21069,22	1080,00
-21015,69	994,00
-20962,33	1067,00
-20909,14	1018,00
-20856,13	975,00
-20803,28	1023,00
-20750,61	986,00
-20698,10	951,00
-20645,76	1056,00
-20593,59	1152,00
-20541,59	1036,00
-20489,75	1049,00
-20438,07	940,00
-20386,56	1106,00
-20335,22	1032,00
-20284,03	907,00
-20233,01	984,00
-20182,15	953,00
-20131,45	955,00
-20080,91	1029,00
-20030,52	1038,00
-19980,30	951,00
-19930,23	967,00
-19880,32	1116,00
-19830,56	1106,00
-19780,96	974,00
-19731,52	1125,00
-19682,23	973,00
-19633,09	923,00
-19584,10	985,00
-19535,26	947,00
-19486,58	1181,00
-19438,04	1009,00
-19389,66	943,00
-19341,42	1016,00
-19293,33	1067,00
-19245,39	1000,00
-19197,60	964,00
-19149,95	1010,00
-19102,45	1082,00
-19055,09	993,00
-19007,87	1114,00
-18960,80	1081,00
-18913,87	1098,00
-18867,09	1003,00
-18820,44	1043,00
-18773,94	1050,00
-18727,57	933,00
-18681,35	925,00
-18635,26	1048,00
-18589,31	910,00
-18543,50	900,00
-18497,83	1099,00
-18452,29	1069,00
-18406,89	994,00
-18361,63	1098,00
-18316,50	1056,00
-18271,50	1004,00
-18226,63	1159,00
-18181,90	1015,00
-18137,30	1102,00
-18092,84	970,00
-18048,50	975,00
-18004,29	945,00
-17960,22	1065,00
-17916,27	1029,00
-17872,45	1049,00
-17828,76	1010,00
-17785,20	1164,00
-17741,77	1065,00
-17698,46	981,00
-17655,28	980,00
-17612,22	1008,00
-17569,29	977,00
-17526,48	1066,00
-17483,79	985,00
-17441,23	1043,00
-17398,79	945,00
-17356,48	1001,00
-17314,28	1345,00
-17272,21	1037,00
-17230,26	947,00
-17188,42	1081,00
-17146,71	1025,00
-17105,12	1115,00
-17063,64	1042,00
-17022,28	915,00
-16981,04	1060,00
-16939,92	962,00
-16898,91	1114,00
-16858,02	1057,00
-16817,25	1033,00
-16776,59	891,00
-16736,04	1006,00
-16695,61	974,00
-16655,29	1065,00
-16615,09	1032,00
-16574,99	1046,00
-16535,01	912,00
-16495,15	1071,00
-16455,39	1006,00
-16415,74	1048,00
-16376,21	947,00
-16336,78	887,00
-16297,46	1082,00
-16258,26	1064,00
-16219,16	977,00
-16180,17	1052,00
-16141,28	1089,00
-16102,51	1018,00
-16063,84	1011,00
-16025,27	1083,00
-15986,82	946,00
-15948,46	937,00
-15910,22	1057,00
-15872,07	1016,00
-15834,04	1006,00
-15796,10	1027,00
-15758,27	1167,00
-15720,54	958,00
-15682,91	976,00
-15645,39	1130,00
-15607,97	1079,00
-15570,64	957,00
-15533,42	1093,00
-15496,30	1008,00
-15459,28	931,00
-15422,36	981,00
-15385,54	961,00
-15348,82	1038,00
-15312,19	1145,00
-15275,66	1016,00
-15239,23	980,00
-15202,90	996,00
-15166,67	954,00
-15130,53	1024,00
-15094,48	1003,00
-15058,54	1053,00
-15022,68	954,00
-14986,93	962,00
-14951,26	964,00
-14915,69	970,00
-14880,22	959,00
-14844,84	942,00
-14809,55	1066,00
-14774,35	949,00
-14739,25	1159,00
-14704,24	945,00
-14669,32	1062,00
-14634,49	1010,00
-14599,75	1074,00
-14565,10	967,00
-14530,55	1127,00
-14496,08	1057,00
-14461,70	1011,00
-14427,41	870,00
-14393,21	981,00
-14359,10	911,00
-14325,07	1073,00
-14291,14	1031,00
-14257,29	1077,00
-14223,52	1034,00
-14189,85	1159,00
-14156,26	1036,00
-14122,76	1016,00
-14089,34	996,00
-14056,01	1051,00
-14022,76	1075,00
-13989,60	1151,00
-13956,52	1068,00
-13923,53	1084,00
-13890,62	992,00
-13857,79	945,00
-13825,05	966,00
-13792,39	980,00
-13759,81	1048,00
-13727,31	1009,00
-13694,90	977,00
-13662,57	1048,00
-13630,31	1124,00
-13598,14	1024,00
-13566,05	938,00
-13534,05	1065,00
-13502,12	934,00
-13470,27	934,00
-13438,50	1081,00
-13406,80	973,00
-13375,19	961,00
-13343,66	1004,00
-13312,20	1021,00
-13280,83	950,00
-13249,53	994,00
-13218,30	937,00
-13187,16	989,00
-13156,09	1109,00
-13125,10	1090,00
-13094,18	1053,00
-13063,34	1082,00
-13032,58	883,00
-13001,89	1080,00
-12971,28	1046,00
-12940,74	1041,00
-12910,27	1025,00
-12879,88	936,00
-12849,57	1122,00
-12819,33	1042,00
-12789,16	1050,00
-12759,06	1003,00
-12729,04	1030,00
-12699,09	2322,00
-12669,21	985,00
-12639,41	1043,00
-12609,68	1009,00
-12580,02	960,00
-12550,43	1040,00
-12520,91	862,00
-12491,46	1088,00
-12462,08	955,00
-12432,77	1060,00
-12403,54	1029,00
-12374,37	1058,00
-12345,27	1037,00
-12316,24	1010,00
-12287,29	1096,00
-12258,40	940,00
-12229,57	1056,00
-12200,82	1126,00
-12172,14	1002,00
-12143,52	957,00
-12114,97	918,00
-12086,49	1057,00
-12058,07	1079,00
-12029,73	1081,00
-12001,44	1134,00
-11973,23	1018,00
-11945,08	1066,00
-11917,00	1020,00
-11888,98	1037,00
-11861,03	1015,00
-11833,15	1044,00
-11805,32	1028,00
-11777,57	1074,00
-11749,88	1045,00
-11722,25	1027,00
-11694,69	1057,00
-11667,19	966,00
-11639,75	1113,00
-11612,38	1017,00
-11585,07	1015,00
-11557,83	1096,00
-11530,65	1124,00
-11503,53	1101,00
-11476,47	1132,00
-11449,48	987,00
-11422,54	1088,00
-11395,67	1022,00
-11368,86	1037,00
-11342,11	1051,00
-11315,43	1061,00
-11288,80	949,00
-11262,23	1132,00
-11235,73	1005,00
-11209,28	1014,00
-11182,90	1042,00
-11156,57	1010,00
-11130,31	1194,00
-11104,10	1070,00
-11077,96	1065,00
-11051,87	1101,00
-11025,84	1050,00
-10999,87	1040,00
-10973,96	1170,00
-10948,11	954,00
-10922,31	1045,00
-10896,58	1158,00
-10870,90	1309,00
-10845,28	1018,00
-10819,71	928,00
-10794,20	960,00
-10768,75	1156,00
-10743,36	1009,00
-10718,02	1025,00
-10692,74	1045,00
-10667,52	833,00
-10642,35	1061,00
-10617,24	1158,00
-10592,18	1043,00
-10567,18	999,00
-10542,23	1048,00
-10517,34	1089,00
-10492,51	1194,00
-10467,72	1069,00
-10443,00	996,00
-10418,32	1082,00
-10393,70	1012,00
-10369,14	1007,00
-10344,63	1052,00
-10320,17	1179,00
-10295,77	1069,00
-10271,42	1030,00
-10247,12	1099,00
-10222,88	1171,00
-10198,68	917,00
-10174,54	1047,00
-10150,46	1096,00
-10126,42	1183,00
-10102,44	1200,00
-10078,51	1072,00
-10054,63	1089,00
-10030,80	1052,00
-10007,03	1183,00
-9983,30	993,00
-9959,63	1010,00
-9936,01	1195,00
-9912,44	1202,00
-9888,92	1180,00
-9865,44	1094,00
-9842,02	1199,00
-9818,65	1178,00
-9795,33	1070,00
-9772,06	1122,00
-9748,84	1201,00
-9725,67	1072,00
-9702,55	1107,00
-9679,47	1368,00
-9656,45	1232,00
-9633,47	1160,00
-9610,55	1187,00
-9587,67	1333,00
-9564,84	1487,00
-9542,06	1264,00
-9519,32	1483,00
-9496,64	1458,00
-9474,00	1346,00
-9451,41	1409,00
-9428,87	1528,00
-9406,37	1421,00
-9383,92	1452,00
-9361,52	1554,00
-9339,17	1583,00
-9316,86	1422,00
-9294,60	1524,00
-9272,38	1828,00
-9250,21	1801,00
-9228,09	1783,00
-9206,01	1776,00
-9183,98	1668,00
-9162,00	1672,00
-9140,06	1653,00
-9118,16	1533,00
-9096,31	1645,00
-9074,51	1594,00
-9052,75	1746,00
-9031,04	1764,00
-9009,37	1470,00
-8987,74	1582,00
-8966,16	1506,00
-8944,63	1475,00
-8923,14	1439,00
-8901,69	1374,00
-8880,29	1475,00
-8858,93	1489,00
-8837,61	1612,00
-8816,34	1635,00
-8795,11	1573,00
-8773,92	1626,00
-8752,78	1543,00
-8731,68	1437,00
-8710,62	1432,00
-8689,61	1336,00
-8668,63	1461,00
-8647,70	1716,00
-8626,82	1538,00
-8605,97	1674,00
-8585,17	1483,00
-8564,41	1475,00
-8543,69	1521,00
-8523,01	1299,00
-8502,37	1633,00
-8481,78	1370,00
-8461,23	1285,00
-8440,71	1486,00
-8420,24	1383,00
-8399,81	1578,00
-8379,42	1539,00
-8359,08	1526,00
-8338,77	1359,00
-8318,50	1424,00
-8298,27	1313,00
-8278,09	1376,00
-8257,94	1262,00
-8237,83	1474,00
-8217,76	1498,00
-8197,74	1433,00
-8177,75	1530,00
-8157,80	1404,00
-8137,89	1406,00
-8118,02	1355,00
-8098,19	1558,00
-8078,40	1280,00
-8058,65	1361,00
-8038,93	1442,00
-8019,26	1463,00
-7999,62	1521,00
-7980,02	1363,00
-7960,46	1289,00
-7940,94	1261,00
-7921,46	1325,00
-7902,01	1195,00
-7882,60	1433,00
-7863,23	1270,00
-7843,90	1274,00
-7824,61	1309,00
-7805,35	1441,00
-7786,13	1379,00
-7766,95	1229,00
-7747,80	1288,00
-7728,69	1512,00
-7709,62	1342,00
-7690,59	1381,00
-7671,59	1415,00
-7652,63	1331,00
-7633,70	1393,00
-7614,81	1433,00
-7595,96	1238,00
-7577,15	1387,00
-7558,37	1319,00
-7539,62	1253,00
-7520,91	1379,00
-7502,24	1326,00
-7483,60	1412,00
-7465,00	1385,00
-7446,44	1276,00
-7427,91	1182,00
-7409,41	1289,00
-7390,95	1302,00
-7372,53	1086,00
-7354,14	1228,00
-7335,78	1183,00
-7317,46	1283,00
-7299,18	1224,00
-7280,92	1278,00
-7262,71	1431,00
-7244,52	1308,00
-7226,38	1266,00
-7208,26	1401,00
-7190,18	1405,00
-7172,14	1260,00
-7154,12	1297,00
-7136,15	1172,00
-7118,20	1356,00
-7100,29	1357,00
-7082,41	1391,00
-7064,57	1327,00
-7046,76	1256,00
-7028,98	1125,00
-7011,24	1514,00
-6993,53	1042,00
-6975,85	1157,00
-6958,20	1128,00
-6940,59	1143,00
-6923,01	1089,00
-6905,46	1330,00
-6887,94	1177,00
-6870,46	-716,00
-6853,01	1352,00
-6835,59	1218,00
-6818,21	1144,00
-6800,85	1274,00
-6783,53	1146,00
-6766,24	1123,00
-6748,98	1170,00
-6731,76	1077,00
-6714,56	1144,00
-6697,40	1040,00
-6680,26	978,00
-6663,16	1092,00
-6646,09	1259,00
-6629,05	1189,00
-6612,05	1255,00
-6595,07	1234,00
-6578,13	1273,00
-6561,21	1036,00
-6544,33	1219,00
-6527,47	1160,00
-6510,65	1013,00
-6493,86	1142,00
-6477,10	1021,00
-6460,36	1180,00
-6443,66	1058,00
-6426,99	1199,00
-6410,35	969,00
-6393,74	1190,00
-6377,16	1030,00
-6360,61	1066,00
-6344,09	1046,00
-6327,59	1019,00
-6311,13	966,00
-6294,70	1241,00
-6278,29	1165,00
-6261,92	1151,00
-6245,58	1051,00
-6229,26	1154,00
-6212,97	1161,00
-6196,72	1096,00
-6180,49	1226,00
-6164,29	1027,00
-6148,12	1113,00
-6131,98	1045,00
-6115,86	1078,00
-6099,78	1014,00
-6083,72	1019,00
-6067,69	1014,00
-6051,69	1042,00
-6035,72	1036,00
-6019,78	1053,00
-6003,87	1154,00
-5987,98	1113,00
-5972,12	1192,00
-5956,29	1121,00
-5940,49	1028,00
-5924,71	1207,00
-5908,96	1008,00
-5893,24	1131,00
-5877,55	1099,00
-5861,89	1070,00
-5846,25	1030,00
-5830,64	1106,00
-5815,05	985,00
-5799,50	1047,00
-5783,97	1083,00
-5768,47	1164,00
-5752,99	1259,00
-5737,55	1037,00
-5722,12	1128,00
-5706,73	1126,00
-5691,36	1186,00
-5676,02	1080,00
-5660,71	1283,00
-5645,42	1085,00
-5630,16	1042,00
-5614,92	1141,00
-5599,71	930,00
-5584,53	1144,00
-5569,37	1017,00
-5554,24	2088,00
-5539,14	1068,00
-5524,06	1036,00
-5509,01	1044,00
-5493,98	1043,00
-5478,98	1155,00
-5464,00	1075,00
-5449,05	1037,00
-5434,13	1179,00
-5419,23	1202,00
-5404,36	993,00
-5389,51	1130,00
-5374,69	1105,00
-5359,89	1187,00
-5345,12	1119,00
-5330,37	1243,00
-5315,65	1296,00
-5300,95	1073,00
-5286,28	969,00
-5271,63	901,00
-5257,01	1149,00
-5242,41	1121,00
-5227,84	1099,00
-5213,29	1057,00
-5198,76	977,00
-5184,26	948,00
-5169,79	1097,00
-5155,33	1082,00
-5140,91	1108,00
-5126,51	1188,00
-5112,13	1144,00
-5097,77	1198,00
-5083,44	1094,00
-5069,13	1084,00
-5054,85	1119,00
-5040,59	1049,00
-5026,36	1187,00
-5012,15	1219,00
-4997,96	1098,00
-4983,80	1013,00
-4969,66	1175,00
-4955,54	1064,00
-4941,44	1091,00
-4927,37	1022,00
-4913,33	1119,00
-4899,30	924,00
-4885,30	1069,00
-4871,33	1042,00
-4857,37	1097,00
-4843,44	1058,00
-4829,53	1138,00
-4815,65	1206,00
-4801,79	976,00
-4787,95	967,00
-4774,13	928,00
-4760,34	1057,00
-4746,56	1110,00
-4732,82	1025,00
-4719,09	1068,00
-4705,38	1180,00
-4691,70	1179,00
-4678,04	1198,00
-4664,41	1084,00
-4650,79	1287,00
-4637,20	1082,00
-4623,63	1044,00
-4610,08	1060,00
-4596,56	1135,00
-4583,05	1101,00
-4569,57	1013,00
-4556,11	1130,00
-4542,67	959,00
-4529,25	974,00
-4515,86	1146,00
-4502,49	1140,00
-4489,13	1158,00
-4475,80	1137,00
-4462,49	982,00
-4449,21	1372,00
-4435,94	1006,00
-4422,70	1096,00
-4409,47	903,00
-4396,27	1058,00
-4383,09	1055,00
-4369,93	1036,00
-4356,79	1046,00
-4343,67	1005,00
-4330,58	1026,00
-4317,50	1059,00
-4304,45	910,00
-4291,41	993,00
-4278,40	1068,00
-4265,41	942,00
-4252,44	1075,00
-4239,49	972,00
-4226,55	1076,00
-4213,65	1167,00
-4200,76	1048,00
-4187,89	1036,00
-4175,04	1063,00
-4162,21	1104,00
-4149,40	1055,00
-4136,61	1046,00
-4123,85	1011,00
-4111,10	1015,00
-4098,37	1090,00
-4085,66	1196,00
-4072,98	1108,00
-4060,31	986,00
-4047,66	1120,00
-4035,04	1145,00
-4022,43	940,00
-4009,84	1234,00
-3997,27	985,00
-3984,72	967,00
-3972,19	1148,00
-3959,69	937,00
-3947,20	1020,00
-3934,73	1049,00
-3922,27	989,00
-3909,84	1049,00
-3897,43	1006,00
-3885,04	1090,00
-3872,67	955,00
-3860,31	1049,00
-3847,98	1136,00
-3835,66	977,00
-3823,36	1144,00
-3811,09	966,00
-3798,83	1000,00
-3786,59	1060,00
-3774,37	1087,00
-3762,17	970,00
-3749,98	946,00
-3737,82	949,00
-3725,67	1242,00
-3713,55	921,00
-3701,44	1197,00
-3689,35	978,00
-3677,28	1171,00
-3665,22	1039,00
-3653,19	925,00
-3641,17	964,00
-3629,18	1123,00
-3617,20	1013,00
-3605,24	1074,00
-3593,30	1078,00
-3581,37	1027,00
-3569,47	1113,00
-3557,58	1063,00
-3545,71	1015,00
-3533,86	1110,00
-3522,02	1090,00
-3510,21	1088,00
-3498,41	1086,00
-3486,63	980,00
-3474,87	992,00
-3463,12	1000,00
-3451,40	1076,00
-3439,69	1083,00
-3428,00	1086,00
-3416,33	1121,00
-3404,67	931,00
-3393,03	1102,00
-3381,41	1106,00
-3369,81	1067,00
-3358,22	1035,00
-3346,66	1121,00
-3335,10	1011,00
-3323,57	1015,00
-3312,06	1018,00
-3300,56	994,00
-3289,08	954,00
-3277,61	1019,00
-3266,16	1086,00
-3254,73	1070,00
-3243,32	1063,00
-3231,92	1023,00
-3220,55	1023,00
-3209,18	1061,00
-3197,84	999,00
-3186,51	917,00
-3175,20	963,00
-3163,90	1093,00
-3152,63	1124,00
-3141,36	1059,00
-3130,12	1075,00
-3118,89	1151,00
-3107,68	1128,00
-3096,49	1068,00
-3085,31	1180,00
-3074,15	985,00
-3063,00	1044,00
-3051,87	1130,00
-3040,76	1043,00
-3029,67	1015,00
-3018,59	1252,00
-3007,52	1110,00
-2996,48	1178,00
-2985,44	984,00
-2974,43	1073,00
-2963,43	1051,00
-2952,45	888,00
-2941,48	1097,00
-2930,53	1107,00
-2919,60	1043,00
-2908,68	993,00
-2897,78	1002,00
-2886,89	1115,00
-2876,02	1003,00
-2865,17	1111,00
-2854,33	1016,00
-2843,50	1001,00
-2832,70	1012,00
-2821,90	1104,00
-2811,13	1103,00
-2800,37	1008,00
-2789,62	1062,00
-2778,89	1043,00
-2768,18	1120,00
-2757,48	1071,00
-2746,80	1146,00
-2736,13	1065,00
-2725,48	1001,00
-2714,84	1096,00
-2704,22	1015,00
-2693,61	983,00
-2683,02	974,00
-2672,45	960,00
-2661,89	1176,00
-2651,34	1072,00
-2640,81	1031,00
-2630,30	1160,00
-2619,80	1058,00
-2609,31	1217,00
-2598,84	990,00
-2588,39	1000,00
-2577,95	981,00
-2567,52	935,00
-2557,11	1116,00
-2546,71	971,00
-2536,33	1184,00
-2525,97	1000,00
-2515,62	1009,00
-2505,28	1028,00
-2494,96	1003,00
-2484,65	1062,00
-2474,36	1304,00
-2464,08	1032,00
-2453,82	1102,00
-2443,57	1117,00
-2433,33	928,00
-2423,11	1013,00
-2412,91	1043,00
-2402,72	931,00
-2392,54	1055,00
-2382,38	1022,00
-2372,23	1180,00
-2362,09	5575,00
-2351,97	1045,00
-2341,87	1013,00
-2331,78	1064,00
-2321,70	1102,00
-2311,64	1091,00
-2301,59	1004,00
-2291,55	1002,00
-2281,53	1104,00
-2271,53	992,00
-2261,53	1130,00
-2251,55	1089,00
-2241,59	1064,00
-2231,64	1045,00
-2221,70	991,00
-2211,78	1076,00
-2201,87	1079,00
-2191,97	1013,00
-2182,09	1024,00
-2172,22	1164,00
-2162,37	960,00
-2152,53	988,00
-2142,70	882,00
-2132,89	944,00
-2123,09	1110,00
-2113,30	1001,00
-2103,53	1076,00
-2093,77	1028,00
-2084,02	974,00
-2074,29	1153,00
-2064,57	1019,00
-2054,86	1068,00
-2045,17	1090,00
-2035,49	1074,00
-2025,82	938,00
-2016,17	1007,00
-2006,53	1068,00
-1996,91	1017,00
-1987,29	923,00
-1977,69	1101,00
-1968,11	1066,00
-1958,53	1065,00
-1948,97	1055,00
-1939,42	973,00
-1929,89	960,00
-1920,37	1048,00
-1910,86	1088,00
-1901,36	1091,00
-1891,88	1054,00
-1882,41	1038,00
-1872,95	1175,00
-1863,51	1006,00
-1854,08	1088,00
-1844,66	1139,00
-1835,26	1008,00
-1825,86	1103,00
-1816,48	1030,00
-1807,11	1069,00
-1797,76	1124,00
-1788,42	1111,00
-1779,09	1196,00
-1769,77	1061,00
-1760,47	1258,00
-1751,17	1022,00
-1741,89	1063,00
-1732,63	1121,00
-1723,37	1370,00
-1714,13	1118,00
-1704,90	1042,00
-1695,68	1219,00
-1686,48	935,00
-1677,29	1109,00
-1668,11	1266,00
-1658,94	1143,00
-1649,78	1049,00
-1640,64	1116,00
-1631,51	984,00
-1622,39	1142,00
-1613,28	1075,00
-1604,19	1192,00
-1595,10	1077,00
-1586,03	976,00
-1576,97	1172,00
-1567,93	1023,00
-1558,89	1109,00
-1549,87	1123,00
-1540,86	1030,00
-1531,86	1079,00
-1522,87	983,00
-1513,90	1171,00
-1504,93	1040,00
-1495,98	1074,00
-1487,04	1281,00
-1478,12	1121,00
-1469,20	921,00
-1460,30	1169,00
-1451,40	1189,00
-1442,52	1072,00
-1433,65	1098,00
-1424,80	1132,00
-1415,95	1099,00
-1407,12	1245,00
-1398,30	1056,00
-1389,48	994,00
-1380,69	1099,00
-1371,90	1110,00
-1363,12	1064,00
-1354,36	1206,00
-1345,60	1043,00
-1336,86	1182,00
-1328,13	1247,00
-1319,41	1106,00
-1310,70	974,00
-1302,01	1077,00
-1293,32	1033,00
-1284,65	1057,00
-1275,99	997,00
-1267,33	1252,00
-1258,69	1131,00
-1250,06	1091,00
-1241,45	1071,00
-1232,84	1159,00
-1224,25	1074,00
-1215,66	1150,00
-1207,09	1183,00
-1198,53	1066,00
-1189,97	988,00
-1181,43	1015,00
-1172,91	1155,00
-1164,39	1211,00
-1155,88	1011,00
-1147,38	854,00
-1138,90	1087,00
-1130,43	1000,00
-1121,96	1066,00
-1113,51	1099,00
-1105,07	1035,00
-1096,64	1081,00
-1088,22	1089,00
-1079,81	1103,00
-1071,41	1140,00
-1063,02	1069,00
-1054,65	1115,00
-1046,28	1033,00
-1037,92	1099,00
-1029,58	1032,00
-1021,24	1046,00
-1012,92	1433,00
-1004,61	1081,00
-996,30	1504,00
-988,01	934,00
-979,73	1082,00
-971,46	1137,00
-963,20	953,00
-954,95	852,00
-946,71	1009,00
-938,48	992,00
-930,26	1148,00
-922,06	1120,00
-913,86	1022,00
-905,67	999,00
-897,49	1036,00
-889,33	979,00
-881,17	1143,00
-873,02	1072,00
-864,89	900,00
-856,76	989,00
-848,65	1123,00
-840,54	1071,00
-832,45	1189,00
-824,36	927,00
-816,29	1120,00
-808,22	1103,00
-800,17	1151,00
-792,12	1123,00
-784,09	1219,00
-776,06	934,00
-768,05	1085,00
-760,04	1042,00
-752,05	1112,00
-744,07	1132,00
-736,09	1142,00
-728,13	984,00
-720,17	990,00
-712,23	1043,00
-704,29	1134,00
-696,37	1085,00
-688,45	1119,00
-680,55	1015,00
-672,65	1006,00
-664,77	947,00
-656,89	1037,00
-649,03	923,00
-641,17	1014,00
-633,32	1220,00
-625,49	1042,00
-617,66	1061,00
-609,84	1127,00
-602,03	922,00
-594,23	1090,00
-586,45	1077,00
-578,67	995,00
-570,90	902,00
-563,14	962,00
-555,39	1108,00
-547,65	1137,00
-539,91	1027,00
-532,19	935,00
-524,48	1080,00
-516,78	1038,00
-509,08	1093,00
-501,40	962,00
-493,72	1016,00
-486,06	954,00
-478,40	1294,00
-470,76	963,00
-463,12	1084,00
-455,49	917,00
-447,87	944,00
-440,26	1013,00
-432,66	992,00
-425,07	1090,00
-417,49	1008,00
-409,92	984,00
-402,35	996,00
-394,80	994,00
-387,25	1152,00
-379,72	1072,00
-372,19	1020,00
-364,67	1120,00
-357,17	1051,00
-349,67	1077,00
-342,18	993,00
-334,69	1238,00
-327,22	1055,00
-319,76	999,00
-312,30	1126,00
-304,86	1105,00
-297,42	1111,00
-290,00	1136,00
-282,58	978,00
-275,17	1155,00
-267,77	1196,00
-260,37	1067,00
-252,99	1154,00
-245,62	1090,00
-238,25	1007,00
-230,90	1104,00
-223,55	1171,00
-216,21	1018,00
-208,88	1157,00
-201,56	1165,00
-194,25	1119,00
-186,94	1077,00
-179,65	1156,00
-172,36	1155,00
-165,08	1093,00
-157,81	1264,00
-150,55	1354,00
-143,30	1381,00
-136,06	1232,00
-128,82	1244,00
-121,60	1267,00
-114,38	1264,00
-107,17	1416,00
-99,97	1368,00
-92,78	1454,00
-85,60	1560,00
-78,42	1645,00
-71,25	1640,00
-64,10	1816,00
-56,95	1828,00
-49,81	2087,00
-42,67	2466,00
-35,55	2686,00
-28,43	3274,00
-21,33	4688,00
-14,23	13489,00
-7,14	57775,00
-0,05	57564,00
7,02	57281,00
14,09	43798,00
21,14	12114,00
28,19	5611,00
35,23	3954,00
42,27	3260,00
49,29	2821,00
56,31	2571,00
63,32	2412,00
70,32	2009,00
77,31	1802,00
84,29	1724,00
91,27	1823,00
98,23	1786,00
105,19	1655,00
112,14	1785,00
119,09	2133,00
126,02	2833,00
132,95	3223,00
139,87	3344,00
146,78	3505,00
153,68	3261,00
160,58	3305,00
167,46	3145,00
174,34	3285,00
181,21	3328,00
188,08	3280,00
194,93	3382,00
201,78	3300,00
208,62	3321,00
215,45	3287,00
222,27	3364,00
229,09	3518,00
235,90	3282,00
242,70	3222,00
249,49	3476,00
256,27	3343,00
263,05	3280,00
269,82	3173,00
276,58	3357,00
283,33	3261,00
290,08	3346,00
296,82	3192,00
303,55	3198,00
310,27	3098,00
316,98	3167,00
323,69	3184,00
330,39	3173,00
337,08	3132,00
343,76	3275,00
350,44	3168,00
357,11	3328,00
363,77	3240,00
370,42	3147,00
377,07	3288,00
383,71	3114,00
390,34	3249,00
396,96	3134,00
403,58	3175,00
410,19	3302,00
416,79	3424,00
423,38	3406,00
429,97	3328,00
436,55	3104,00
443,12	3197,00
449,68	3099,00
456,24	3185,00
462,79	3269,00
469,33	3181,00
475,86	3235,00
482,39	3185,00
488,91	3344,00
495,42	3104,00
501,93	3323,00
508,42	2993,00
514,91	3266,00
521,40	3126,00
527,87	3210,00
534,34	3003,00
540,80	3267,00
547,25	3276,00
553,70	3194,00
560,14	3205,00
566,57	3381,00
573,00	3110,00
579,41	3287,00
585,83	3176,00
592,23	3190,00
598,62	3179,00
605,01	3132,00
611,40	3227,00
617,77	3312,00
624,14	3172,00
630,50	3248,00
636,85	3208,00
643,20	3150,00
649,54	3086,00
655,87	3148,00
662,20	3327,00
668,52	3160,00
674,83	3304,00
681,13	3187,00
687,43	3232,00
693,72	3140,00
700,00	3053,00
706,28	3164,00
712,55	3222,00
718,81	3259,00
725,07	3139,00
731,32	3157,00
737,56	3335,00
743,79	3241,00
750,02	3212,00
756,24	3172,00
762,46	3196,00
768,67	3542,00
774,87	3323,00
781,06	3180,00
787,25	3226,00
793,43	3235,00
799,60	3115,00
805,77	3412,00
811,93	3140,00
818,08	3282,00
824,23	3232,00
830,37	3508,00
836,50	3204,00
842,63	3314,00
848,75	3210,00
854,87	3303,00
860,97	3266,00
867,07	3229,00
873,17	3269,00
879,25	3268,00
885,33	3220,00
891,41	3393,00
897,47	3274,00
903,53	3269,00
909,59	3374,00
915,63	3333,00
921,67	3344,00
927,71	3399,00
933,74	3301,00
939,76	3191,00
945,77	3190,00
951,78	3304,00
957,78	3217,00
963,78	3349,00
969,77	3323,00
975,75	3322,00
981,72	3316,00
987,69	4895,00
993,66	3393,00
999,61	3486,00
1005,56	3390,00
1011,51	3350,00
1017,44	3241,00
1023,37	3399,00
1029,30	3408,00
1035,22	3475,00
1041,13	3403,00
1047,03	3318,00
1052,93	3405,00
1058,83	3863,00
1064,71	4048,00
1070,59	3877,00
1076,47	3616,00
1082,33	3508,00
1088,20	3569,00
1094,05	3628,00
1099,90	3433,00
1105,74	3450,00
1111,58	3382,00
1117,41	3525,00
1123,23	3831,00
1129,05	4180,00
1134,86	4010,00
1140,67	3841,00
1146,47	3743,00
1152,26	3574,00
1158,05	3361,00
1163,83	3532,00
1169,60	3553,00
1175,37	3627,00
1181,13	3593,00
1186,89	3502,00
1192,64	3481,00
1198,38	3526,00
1204,12	3461,00
1209,85	3596,00
1215,58	3600,00
1221,30	3490,00
1227,02	3611,00
1232,72	3613,00
1238,43	3472,00
1244,12	3615,00
1249,81	3554,00
1255,50	3652,00
1261,17	3573,00
1266,85	3540,00
1272,51	3634,00
1278,17	3724,00
1283,83	3656,00
1289,47	3977,00
1295,12	4523,00
1300,75	4252,00
1306,38	3942,00
1312,01	3763,00
1317,63	3677,00
1323,24	3651,00
1328,85	3813,00
1334,45	3646,00
1340,04	3596,00
1345,63	3658,00
1351,22	3811,00
1356,80	3716,00
1362,37	3746,00
1367,93	3584,00
1373,49	3750,00
1379,05	3612,00
1384,60	3574,00
1390,14	3724,00
1395,68	3653,00
1401,21	3667,00
1406,74	3791,00
1412,26	3874,00
1417,77	4059,00
1423,28	3829,00
1428,78	4012,00
1434,28	4302,00
1439,77	4433,00
1445,26	4362,00
1450,74	4389,00
1456,22	4215,00
1461,68	4193,00
1467,15	4090,00
1472,61	3919,00
1478,06	3922,00
1483,51	3790,00
1488,95	3624,00
1494,38	3716,00
1499,81	3470,00
1505,24	3501,00
1510,65	3581,00
1516,07	3650,00
1521,48	3501,00
1526,88	3281,00
1532,27	3471,00
1537,67	3518,00
1543,05	3622,00
1548,43	3263,00
1553,81	3476,00
1559,18	3341,00
1564,54	3396,00
1569,90	3479,00
1575,25	3403,00
1580,60	3232,00
1585,94	3473,00
1591,28	3388,00
1596,61	3345,00
1601,93	3424,00
1607,25	3533,00
1612,57	3404,00
1617,88	3387,00
1623,18	3370,00
1628,48	3410,00
1633,77	3343,00
1639,06	3411,00
1644,34	3247,00
1649,62	3275,00
1654,89	3535,00
1660,16	3247,00
1665,42	3442,00
1670,67	3264,00
1675,92	3388,00
1681,17	3345,00
1686,41	3295,00
1691,64	3422,00
1696,87	3327,00
1702,10	3220,00
1707,32	3369,00
1712,53	3379,00
1717,74	3296,00
1722,94	3224,00
1728,14	3215,00
1733,33	3135,00
1738,52	3092,00
1743,70	3279,00
1748,88	3221,00
1754,05	3183,00
1759,22	3062,00
1764,38	3270,00
1769,53	3144,00
1774,69	3280,00
1779,83	3197,00
1784,97	3139,00
1790,11	3112,00
1795,24	3093,00
1800,36	3181,00
1805,48	3199,00
1810,60	3105,00
1815,71	3170,00
1820,82	3003,00
1825,92	3133,00
1831,01	3004,00
1836,10	3137,00
1841,19	3162,00
1846,26	2931,00
1851,34	3080,00
1856,41	3149,00
1861,47	3155,00
1866,53	3090,00
1871,59	3055,00
1876,64	3025,00
1881,68	3069,00
1886,72	3189,00
1891,76	3011,00
1896,79	3100,00
1901,81	2911,00
1906,83	3081,00
1911,85	2938,00
1916,86	2986,00
1921,86	3015,00
1926,86	2948,00
1931,86	2895,00
1936,85	2921,00
1941,83	2908,00
1946,81	2836,00
1951,79	2913,00
1956,76	2809,00
1961,72	2694,00
1966,68	2885,00
1971,64	2689,00
1976,59	2826,00
1981,54	2815,00
1986,48	2852,00
1991,42	2778,00
1996,35	3053,00
2001,27	2938,00
2006,20	2758,00
2011,11	2908,00
2016,03	2827,00
2020,93	2711,00
2025,84	2874,00
2030,73	2694,00
2035,63	2632,00
2040,52	2765,00
2045,40	2751,00
2050,28	2764,00
2055,15	2837,00
2060,02	2583,00
2064,89	2810,00
2069,75	2799,00
2074,60	2770,00
2079,46	2688,00
2084,30	2704,00
2089,14	2657,00
2093,98	2827,00
2098,81	2738,00
2103,64	2753,00
2108,46	2701,00
2113,28	2725,00
2118,09	2697,00
2122,90	2772,00
2127,70	2710,00
2132,50	2810,00
2137,30	2611,00
2142,09	2561,00
2146,87	2522,00
2151,66	2704,00
2156,43	2680,00
2161,20	2710,00
2165,97	2716,00
2170,73	2483,00
2175,49	2853,00
2180,24	2600,00
2184,99	2664,00
2189,74	2739,00
2194,48	2593,00
2199,21	2704,00
2203,94	2540,00
2208,67	2557,00
2213,39	2349,00
2218,11	2555,00
2222,82	2585,00
2227,53	2470,00
2232,23	2696,00
2236,93	2605,00
2241,63	2596,00
2246,32	2456,00
2251,00	2547,00
2255,68	2551,00
2260,36	2522,00
2265,03	2554,00
2269,70	2752,00
2274,36	2484,00
2279,02	2424,00
2283,68	2484,00
2288,33	2388,00
2292,97	2475,00
2297,61	2451,00
2302,25	2485,00
2306,88	2488,00
2311,51	2369,00
2316,14	2387,00
2320,75	2317,00
2325,37	2267,00
2329,98	2589,00
2334,59	2315,00
2339,19	2450,00
2343,79	2285,00
2348,38	2377,00
2352,97	2364,00
2357,55	2435,00
2362,13	2423,00
2366,71	2284,00
2371,28	2434,00
2375,85	2412,00
2380,41	2449,00
2384,97	2354,00
2389,52	2449,00
2394,07	2338,00
2398,62	2453,00
2403,16	2351,00
2407,70	2258,00
2412,23	2302,00
2416,76	2442,00
2421,29	2307,00
2425,81	2383,00
2430,32	2472,00
2434,84	2034,00
2439,34	2277,00
2443,85	2263,00
2448,35	2196,00
2452,84	2160,00
2457,33	2152,00
2461,82	2146,00
2466,30	2109,00
2470,78	2249,00
2475,25	2076,00
2479,72	2149,00
2484,19	2135,00
2488,65	2275,00
2493,11	2019,00
2497,56	2193,00
2502,01	1980,00
2506,46	2169,00
2510,90	2122,00
2515,34	2135,00
2519,77	2079,00
2524,20	2025,00
2528,62	2066,00
2533,04	2174,00
2537,46	1962,00
2541,87	1975,00
2546,28	2048,00
2550,68	2043,00
2555,08	1899,00
2559,48	2047,00
2563,87	1976,00
2568,26	1993,00
2572,64	1945,00
2577,02	2033,00
2581,40	1837,00
2585,77	1985,00
2590,14	1914,00
2594,50	1824,00
2598,86	2071,00
2603,22	1890,00
2607,57	1852,00
2611,92	1987,00
2616,26	1958,00
2620,60	2082,00
2624,94	1770,00
2629,27	2076,00
2633,60	1929,00
2637,92	2069,00
2642,24	1954,00
2646,56	1945,00
2650,87	1990,00
2655,18	2018,00
2659,48	1762,00
2663,78	1935,00
2668,08	1925,00
2672,37	1891,00
2676,66	1996,00
2680,95	1942,00
2685,23	1865,00
2689,50	1857,00
2693,78	1939,00
2698,05	1749,00
2702,31	1862,00
2706,57	2006,00
2710,83	2001,00
2715,08	1954,00
2719,33	2166,00
2723,58	2053,00
2727,82	2014,00
2732,06	1983,00
2736,29	1881,00
2740,53	1938,00
2744,75	1847,00
2748,97	2017,00
2753,19	1928,00
2757,41	1990,00
2761,62	1949,00
2765,83	1965,00
2770,03	1777,00
2774,23	1778,00
2778,43	1817,00
2782,62	1832,00
2786,81	1836,00
2791,00	1881,00
2795,18	1944,00
2799,35	1945,00
2803,53	2050,00
2807,70	1955,00
2811,86	1750,00
2816,03	1992,00
2820,19	1882,00
2824,34	1988,00
2828,49	1981,00
2832,64	2189,00
2836,78	2342,00
2840,92	2450,00
2845,06	2638,00
2849,19	2755,00
2853,32	2821,00
2857,45	2867,00
2861,57	2767,00
2865,69	2767,00
2869,80	2613,00
2873,91	2708,00
2878,02	2921,00
2882,12	3019,00
2886,22	2862,00
2890,32	2908,00
2894,41	2746,00
2898,50	2566,00
2902,58	2501,00
2906,67	2552,00
2910,74	2404,00
2914,82	2286,00
2918,89	2317,00
2922,96	2099,00
2927,02	2115,00
2931,08	1980,00
2935,13	1820,00
2939,19	2023,00
2943,24	1893,00
2947,28	1835,00
2951,32	1710,00
2955,36	1635,00
2959,40	1795,00
2963,43	1815,00
2967,46	1542,00
2971,48	1627,00
2975,50	1715,00
2979,52	1682,00
2983,53	1670,00
2987,54	1567,00
2991,55	1605,00
2995,55	1553,00
2999,55	1379,00
3003,54	1518,00
3007,54	1566,00
3011,53	1419,00
3015,51	1508,00
3019,49	1697,00
3023,47	1429,00
3027,45	1474,00
3031,42	1481,00
3035,39	1398,00
3039,35	1518,00
3043,31	1531,00
3047,27	1432,00
3051,22	1608,00
3055,17	1364,00
3059,12	1312,00
3063,06	1441,00
3067,00	1322,00
3070,94	1399,00
3074,87	1495,00
3078,80	1391,00
3082,73	1400,00
3086,65	1373,00
3090,57	1389,00
3094,49	1393,00
3098,40	1376,00
3102,31	1264,00
3106,22	1372,00
3110,12	1422,00
3114,02	1420,00
3117,92	1489,00
3121,81	1209,00
3125,70	1293,00
3129,58	1297,00
3133,47	1337,00
3137,34	1344,00
3141,22	1328,00
3145,09	1485,00
3148,96	1251,00
3152,83	1286,00
3156,69	1400,00
3160,55	1239,00
3164,40	1308,00
3168,26	1278,00
3172,10	1449,00
3175,95	1353,00
3179,79	1348,00
3183,63	1271,00
3187,47	1279,00
3191,30	1259,00
3195,13	1356,00
3198,95	1175,00
3202,78	1385,00
3206,60	1192,00
3210,41	1205,00
3214,23	1270,00
3218,03	1247,00
3221,84	1334,00
3225,64	1208,00
3229,44	1240,00
3233,24	1233,00
3237,03	1196,00
3240,82	1149,00
3244,61	1164,00
3248,39	1194,00
3252,17	1178,00
3255,95	1300,00
3259,72	1305,00
3263,49	1351,00
3267,26	1144,00
3271,03	1109,00
3274,79	1230,00
3278,54	1148,00
3282,30	1073,00
3286,05	1071,00
3289,80	1222,00
3293,54	1154,00
3297,29	1162,00
3301,02	1211,00
3304,76	1182,00
3308,49	1203,00
3312,22	1085,00
3315,95	1179,00
3319,67	1157,00
3323,39	1297,00
3327,10	1324,00
3330,82	1103,00
3334,53	1187,00
3338,24	1226,00
3341,94	1253,00
3345,64	1104,00
3349,34	1117,00
3353,03	1196,00
3356,72	1250,00
3360,41	1280,00
3364,10	1175,00
3367,78	1110,00
3371,46	1090,00
3375,13	1193,00
3378,81	1203,00
3382,48	1128,00
3386,14	1187,00
3389,81	1167,00
3393,47	1040,00
3397,12	1294,00
3400,78	1128,00
3404,43	1105,00
3408,08	1139,00
3411,72	1110,00
3415,36	1077,00
3419,00	1016,00
3422,64	1101,00
3426,27	1071,00
3429,90	1119,00
3433,53	1192,00
3437,15	1061,00
3440,77	928,00
3444,39	1032,00
3448,00	1110,00
3451,62	1023,00
3455,22	1032,00
3458,83	1120,00
3462,43	1070,00
3466,03	1239,00
3469,63	1046,00
3473,22	1074,00
3476,81	1051,00
3480,40	1112,00
3483,99	1070,00
3487,57	1156,00
3491,15	1051,00
3494,72	1039,00
3498,29	1132,00
3501,86	974,00
3505,43	1111,00
3508,99	1106,00
3512,56	1086,00
3516,11	1095,00
3519,67	1121,00
3523,22	1216,00
3526,77	1122,00
3530,32	1104,00
3533,86	1097,00
3537,40	1162,00
3540,94	1182,00
3544,47	1013,00
3548,00	979,00
3551,53	1064,00
3555,06	1028,00
3558,58	1099,00
3562,10	1078,00
3565,62	1017,00
3569,13	978,00
3572,64	1086,00
3576,15	880,00
3579,66	1022,00
3583,16	1063,00
3586,66	1017,00
3590,16	1022,00
3593,65	982,00
3597,14	988,00
3600,63	957,00
3604,11	1240,00
3607,60	1032,00
3611,08	998,00
3614,55	978,00
3618,03	862,00
3621,50	1028,00
3624,97	1012,00
3628,43	1132,00
3631,90	993,00
3635,36	946,00
3638,81	996,00
3642,27	1096,00
3645,72	1064,00
3649,17	1052,00
3652,61	928,00
3656,06	925,00
3659,50	1004,00
3662,93	950,00
3666,37	971,00
3669,80	1165,00
3673,23	989,00
3676,65	1097,00
3680,08	1029,00
3683,50	920,00
3686,92	1000,00
3690,33	972,00
3693,74	938,00
3697,15	814,00
3700,56	944,00
3703,96	1015,00
3707,36	821,00
3710,76	908,00
3714,16	922,00
3717,55	900,00
3720,94	1000,00
3724,33	918,00
3727,71	1061,00
3731,10	905,00
3734,48	890,00
3737,85	814,00
3741,23	802,00
3744,60	1006,00
3747,97	845,00
3751,33	856,00
3754,69	902,00
3758,05	883,00
3761,41	839,00
3764,77	880,00
3768,12	812,00
3771,47	806,00
3774,82	861,00
3778,16	-12,00
3781,50	17,00
3784,84	8,00
3788,18	9,00
>>>>>End Processed Spectral Data<<<<<
