SpectraSuite Data File
++++++++++++++++++++++++++++++++++++
Date: Mon Mar 09 15:14:20 ICT 2026
User: Administrator
Dark Spectrum Present: Yes
Reference Spectrum Present: No
Number of Sampled Component Spectra: 1
Spectrometers: MAYP113682
Integration Time (usec): 3000000 (MAYP113682)
Spectra Averaged: 1 (MAYP113682)
Boxcar Smoothing: 0 (MAYP113682)
Correct for Electrical Dark: No (MAYP113682)
Strobe/Lamp Enabled: No (MAYP113682)
Correct for Detector Non-linearity: No (MAYP113682)
Correct for Stray Light: No (MAYP113682)
Number of Pixels in Processed Spectrum: 2068
>>>>>Begin Processed Spectral Data<<<<<
-37534,58	5,00
-37414,56	3,00
-37295,11	3,00
-37176,24	1,00
-37057,95	225,00
-36940,22	228,00
-36823,05	191,00
-36706,45	220,00
-36590,40	242,00
-36474,90	114,00
-36359,95	269,00
-36245,55	320,00
-36131,68	117,00
-36018,35	248,00
-35905,55	135,00
-35793,29	253,00
-35681,54	60,00
-35570,32	186,00
-35459,62	257,00
-35349,43	241,00
-35239,75	332,00
-35130,58	149,00
-35021,91	155,00
-34913,74	121,00
-34806,07	190,00
-34698,89	198,00
-34592,20	244,00
-34486,00	244,00
-34380,28	191,00
-34275,04	320,00
-34170,27	193,00
-34065,98	328,00
-33962,16	206,00
-33858,81	243,00
-33755,92	299,00
-33653,49	232,00
-33551,52	208,00
-33450,01	162,00
-33348,94	247,00
-33248,33	288,00
-33148,16	147,00
-33048,43	308,00
-32949,14	178,00
-32850,29	231,00
-32751,87	176,00
-32653,89	211,00
-32556,33	313,00
-32459,20	258,00
-32362,49	216,00
-32266,19	263,00
-32170,32	265,00
-32074,86	334,00
-31979,82	186,00
-31885,18	276,00
-31790,95	109,00
-31697,12	209,00
-31603,69	218,00
-31510,67	380,00
-31418,04	193,00
-31325,80	323,00
-31233,95	280,00
-31142,49	203,00
-31051,42	297,00
-30960,73	253,00
-30870,43	304,00
-30780,50	188,00
-30690,95	164,00
-30601,77	239,00
-30512,97	229,00
-30424,53	270,00
-30336,46	206,00
-30248,76	210,00
-30161,42	257,00
-30074,44	107,00
-29987,81	201,00
-29901,55	190,00
-29815,63	260,00
-29730,07	267,00
-29644,86	200,00
-29560,00	259,00
-29475,48	258,00
-29391,30	293,00
-29307,47	303,00
-29223,97	172,00
-29140,81	213,00
-29057,99	252,00
-28975,50	303,00
-28893,34	268,00
-28811,51	267,00
-28730,00	378,00
-28648,82	244,00
-28567,97	200,00
-28487,43	287,00
-28407,21	309,00
-28327,32	295,00
-28247,73	314,00
-28168,46	161,00
-28089,50	190,00
-28010,85	246,00
-27932,51	247,00
-27854,48	136,00
-27776,75	280,00
-27699,32	174,00
-27622,19	209,00
-27545,37	271,00
-27468,84	211,00
-27392,60	313,00
-27316,66	173,00
-27241,01	296,00
-27165,66	160,00
-27090,59	178,00
-27015,81	210,00
-26941,31	262,00
-26867,10	156,00
-26793,17	162,00
-26719,52	261,00
-26646,15	184,00
-26573,06	232,00
-26500,24	188,00
-26427,70	347,00
-26355,43	257,00
-26283,43	239,00
-26211,71	283,00
-26140,25	362,00
-26069,06	379,00
-25998,13	296,00
-25927,46	229,00
-25857,06	187,00
-25786,92	123,00
-25717,04	232,00
-25647,42	268,00
-25578,05	188,00
-25508,94	266,00
-25440,09	327,00
-25371,48	225,00
-25303,13	220,00
-25235,02	182,00
-25167,17	348,00
-25099,56	209,00
-25032,19	252,00
-24965,07	244,00
-24898,20	202,00
-24831,56	219,00
-24765,17	316,00
-24699,01	179,00
-24633,10	224,00
-24567,41	222,00
-24501,97	316,00
-24436,75	167,00
-24371,77	149,00
-24307,03	234,00
-24242,51	214,00
-24178,22	280,00
-24114,16	147,00
-24050,32	400,00
-23986,71	163,00
-23923,32	63,00
-23860,16	315,00
-23797,22	241,00
-23734,50	203,00
-23672,00	135,00
-23609,71	344,00
-23547,65	220,00
-23485,80	228,00
-23424,16	250,00
-23362,74	208,00
-23301,53	203,00
-23240,54	237,00
-23179,75	229,00
-23119,17	270,00
-23058,80	127,00
-22998,64	385,00
-22938,68	96,00
-22878,93	210,00
-22819,39	167,00
-22760,04	263,00
-22700,90	347,00
-22641,96	252,00
-22583,22	189,00
-22524,68	241,00
-22466,33	236,00
-22408,19	246,00
-22350,23	275,00
-22292,48	192,00
-22234,92	276,00
-22177,55	253,00
-22120,37	256,00
-22063,38	145,00
-22006,58	247,00
-21949,98	233,00
-21893,56	212,00
-21837,33	225,00
-21781,28	222,00
-21725,42	240,00
-21669,74	182,00
-21614,25	257,00
-21558,94	260,00
-21503,81	261,00
-21448,86	115,00
-21394,10	208,00
-21339,51	177,00
-21285,10	224,00
-21230,86	192,00
-21176,81	248,00
-21122,93	177,00
-21069,22	295,00
-21015,69	184,00
-20962,33	261,00
-20909,14	381,00
-20856,13	170,00
-20803,28	231,00
-20750,61	162,00
-20698,10	284,00
-20645,76	252,00
-20593,59	414,00
-20541,59	238,00
-20489,75	200,00
-20438,07	190,00
-20386,56	160,00
-20335,22	121,00
-20284,03	207,00
-20233,01	306,00
-20182,15	260,00
-20131,45	258,00
-20080,91	183,00
-20030,52	184,00
-19980,30	218,00
-19930,23	209,00
-19880,32	303,00
-19830,56	199,00
-19780,96	244,00
-19731,52	275,00
-19682,23	183,00
-19633,09	156,00
-19584,10	317,00
-19535,26	259,00
-19486,58	243,00
-19438,04	315,00
-19389,66	252,00
-19341,42	247,00
-19293,33	227,00
-19245,39	183,00
-19197,60	396,00
-19149,95	231,00
-19102,45	303,00
-19055,09	242,00
-19007,87	236,00
-18960,80	137,00
-18913,87	319,00
-18867,09	247,00
-18820,44	202,00
-18773,94	236,00
-18727,57	286,00
-18681,35	264,00
-18635,26	333,00
-18589,31	305,00
-18543,50	185,00
-18497,83	126,00
-18452,29	221,00
-18406,89	223,00
-18361,63	332,00
-18316,50	293,00
-18271,50	215,00
-18226,63	213,00
-18181,90	248,00
-18137,30	191,00
-18092,84	141,00
-18048,50	242,00
-18004,29	138,00
-17960,22	129,00
-17916,27	345,00
-17872,45	193,00
-17828,76	248,00
-17785,20	239,00
-17741,77	177,00
-17698,46	227,00
-17655,28	202,00
-17612,22	210,00
-17569,29	249,00
-17526,48	197,00
-17483,79	226,00
-17441,23	261,00
-17398,79	226,00
-17356,48	285,00
-17314,28	337,00
-17272,21	256,00
-17230,26	193,00
-17188,42	229,00
-17146,71	241,00
-17105,12	224,00
-17063,64	249,00
-17022,28	254,00
-16981,04	253,00
-16939,92	300,00
-16898,91	221,00
-16858,02	206,00
-16817,25	136,00
-16776,59	260,00
-16736,04	189,00
-16695,61	260,00
-16655,29	265,00
-16615,09	369,00
-16574,99	159,00
-16535,01	278,00
-16495,15	85,00
-16455,39	223,00
-16415,74	62,00
-16376,21	234,00
-16336,78	260,00
-16297,46	134,00
-16258,26	178,00
-16219,16	208,00
-16180,17	287,00
-16141,28	131,00
-16102,51	237,00
-16063,84	196,00
-16025,27	160,00
-15986,82	240,00
-15948,46	258,00
-15910,22	186,00
-15872,07	200,00
-15834,04	219,00
-15796,10	240,00
-15758,27	316,00
-15720,54	188,00
-15682,91	201,00
-15645,39	357,00
-15607,97	263,00
-15570,64	254,00
-15533,42	254,00
-15496,30	237,00
-15459,28	243,00
-15422,36	239,00
-15385,54	251,00
-15348,82	202,00
-15312,19	258,00
-15275,66	251,00
-15239,23	209,00
-15202,90	334,00
-15166,67	282,00
-15130,53	296,00
-15094,48	80,00
-15058,54	312,00
-15022,68	158,00
-14986,93	207,00
-14951,26	224,00
-14915,69	215,00
-14880,22	186,00
-14844,84	334,00
-14809,55	191,00
-14774,35	248,00
-14739,25	327,00
-14704,24	141,00
-14669,32	152,00
-14634,49	47,00
-14599,75	244,00
-14565,10	159,00
-14530,55	326,00
-14496,08	266,00
-14461,70	337,00
-14427,41	192,00
-14393,21	359,00
-14359,10	247,00
-14325,07	181,00
-14291,14	210,00
-14257,29	231,00
-14223,52	253,00
-14189,85	448,00
-14156,26	297,00
-14122,76	236,00
-14089,34	240,00
-14056,01	261,00
-14022,76	224,00
-13989,60	297,00
-13956,52	279,00
-13923,53	209,00
-13890,62	232,00
-13857,79	146,00
-13825,05	109,00
-13792,39	173,00
-13759,81	264,00
-13727,31	204,00
-13694,90	367,00
-13662,57	210,00
-13630,31	220,00
-13598,14	112,00
-13566,05	226,00
-13534,05	292,00
-13502,12	193,00
-13470,27	323,00
-13438,50	220,00
-13406,80	194,00
-13375,19	207,00
-13343,66	206,00
-13312,20	207,00
-13280,83	182,00
-13249,53	305,00
-13218,30	251,00
-13187,16	186,00
-13156,09	299,00
-13125,10	234,00
-13094,18	201,00
-13063,34	221,00
-13032,58	334,00
-13001,89	198,00
-12971,28	182,00
-12940,74	155,00
-12910,27	220,00
-12879,88	233,00
-12849,57	185,00
-12819,33	243,00
-12789,16	185,00
-12759,06	235,00
-12729,04	197,00
-12699,09	-834,00
-12669,21	313,00
-12639,41	151,00
-12609,68	217,00
-12580,02	294,00
-12550,43	262,00
-12520,91	178,00
-12491,46	215,00
-12462,08	170,00
-12432,77	260,00
-12403,54	110,00
-12374,37	178,00
-12345,27	320,00
-12316,24	225,00
-12287,29	145,00
-12258,40	283,00
-12229,57	217,00
-12200,82	247,00
-12172,14	300,00
-12143,52	191,00
-12114,97	315,00
-12086,49	197,00
-12058,07	152,00
-12029,73	185,00
-12001,44	199,00
-11973,23	217,00
-11945,08	119,00
-11917,00	298,00
-11888,98	286,00
-11861,03	240,00
-11833,15	217,00
-11805,32	301,00
-11777,57	249,00
-11749,88	260,00
-11722,25	172,00
-11694,69	224,00
-11667,19	198,00
-11639,75	162,00
-11612,38	173,00
-11585,07	271,00
-11557,83	277,00
-11530,65	124,00
-11503,53	215,00
-11476,47	190,00
-11449,48	162,00
-11422,54	143,00
-11395,67	256,00
-11368,86	250,00
-11342,11	259,00
-11315,43	339,00
-11288,80	148,00
-11262,23	259,00
-11235,73	225,00
-11209,28	204,00
-11182,90	160,00
-11156,57	144,00
-11130,31	301,00
-11104,10	266,00
-11077,96	285,00
-11051,87	200,00
-11025,84	241,00
-10999,87	283,00
-10973,96	274,00
-10948,11	242,00
-10922,31	134,00
-10896,58	240,00
-10870,90	187,00
-10845,28	222,00
-10819,71	247,00
-10794,20	262,00
-10768,75	209,00
-10743,36	245,00
-10718,02	252,00
-10692,74	170,00
-10667,52	177,00
-10642,35	172,00
-10617,24	219,00
-10592,18	295,00
-10567,18	202,00
-10542,23	360,00
-10517,34	199,00
-10492,51	304,00
-10467,72	104,00
-10443,00	212,00
-10418,32	320,00
-10393,70	189,00
-10369,14	279,00
-10344,63	203,00
-10320,17	196,00
-10295,77	195,00
-10271,42	253,00
-10247,12	235,00
-10222,88	217,00
-10198,68	127,00
-10174,54	259,00
-10150,46	337,00
-10126,42	246,00
-10102,44	310,00
-10078,51	169,00
-10054,63	240,00
-10030,80	174,00
-10007,03	261,00
-9983,30	198,00
-9959,63	270,00
-9936,01	132,00
-9912,44	222,00
-9888,92	172,00
-9865,44	215,00
-9842,02	199,00
-9818,65	194,00
-9795,33	120,00
-9772,06	188,00
-9748,84	225,00
-9725,67	72,00
-9702,55	169,00
-9679,47	231,00
-9656,45	187,00
-9633,47	168,00
-9610,55	226,00
-9587,67	68,00
-9564,84	237,00
-9542,06	70,00
-9519,32	57,00
-9496,64	215,00
-9474,00	0,00
-9451,41	98,00
-9428,87	-35,00
-9406,37	18,00
-9383,92	-53,00
-9361,52	-217,00
-9339,17	-132,00
-9316,86	-48,00
-9294,60	-99,00
-9272,38	3,00
-9250,21	197,00
-9228,09	46,00
-9206,01	105,00
-9183,98	-80,00
-9162,00	-195,00
-9140,06	-18,00
-9118,16	-242,00
-9096,31	32,00
-9074,51	-61,00
-9052,75	-3,00
-9031,04	-24,00
-9009,37	-46,00
-8987,74	-27,00
-8966,16	-150,00
-8944,63	-62,00
-8923,14	-85,00
-8901,69	-77,00
-8880,29	35,00
-8858,93	120,00
-8837,61	77,00
-8816,34	185,00
-8795,11	176,00
-8773,92	149,00
-8752,78	146,00
-8731,68	8,00
-8710,62	183,00
-8689,61	-13,00
-8668,63	170,00
-8647,70	192,00
-8626,82	266,00
-8605,97	248,00
-8585,17	150,00
-8564,41	36,00
-8543,69	70,00
-8523,01	63,00
-8502,37	8,00
-8481,78	-26,00
-8461,23	116,00
-8440,71	176,00
-8420,24	179,00
-8399,81	336,00
-8379,42	187,00
-8359,08	133,00
-8338,77	156,00
-8318,50	184,00
-8298,27	166,00
-8278,09	219,00
-8257,94	277,00
-8237,83	277,00
-8217,76	272,00
-8197,74	251,00
-8177,75	383,00
-8157,80	233,00
-8137,89	204,00
-8118,02	298,00
-8098,19	345,00
-8078,40	263,00
-8058,65	220,00
-8038,93	192,00
-8019,26	391,00
-7999,62	314,00
-7980,02	280,00
-7960,46	305,00
-7940,94	260,00
-7921,46	185,00
-7902,01	259,00
-7882,60	223,00
-7863,23	218,00
-7843,90	245,00
-7824,61	240,00
-7805,35	414,00
-7786,13	342,00
-7766,95	272,00
-7747,80	321,00
-7728,69	409,00
-7709,62	227,00
-7690,59	446,00
-7671,59	325,00
-7652,63	300,00
-7633,70	308,00
-7614,81	301,00
-7595,96	375,00
-7577,15	177,00
-7558,37	446,00
-7539,62	296,00
-7520,91	322,00
-7502,24	219,00
-7483,60	356,00
-7465,00	246,00
-7446,44	283,00
-7427,91	167,00
-7409,41	130,00
-7390,95	177,00
-7372,53	113,00
-7354,14	53,00
-7335,78	198,00
-7317,46	314,00
-7299,18	125,00
-7280,92	271,00
-7262,71	394,00
-7244,52	290,00
-7226,38	230,00
-7208,26	264,00
-7190,18	277,00
-7172,14	189,00
-7154,12	177,00
-7136,15	184,00
-7118,20	218,00
-7100,29	234,00
-7082,41	285,00
-7064,57	328,00
-7046,76	300,00
-7028,98	199,00
-7011,24	195,00
-6993,53	45,00
-6975,85	48,00
-6958,20	2,00
-6940,59	191,00
-6923,01	109,00
-6905,46	90,00
-6887,94	96,00
-6870,46	279,00
-6853,01	182,00
-6835,59	137,00
-6818,21	245,00
-6800,85	260,00
-6783,53	29,00
-6766,24	29,00
-6748,98	100,00
-6731,76	1,00
-6714,56	-84,00
-6697,40	15,00
-6680,26	-33,00
-6663,16	173,00
-6646,09	226,00
-6629,05	104,00
-6612,05	89,00
-6595,07	137,00
-6578,13	160,00
-6561,21	35,00
-6544,33	142,00
-6527,47	33,00
-6510,65	11,00
-6493,86	-10,00
-6477,10	5,00
-6460,36	-30,00
-6443,66	127,00
-6426,99	22,00
-6410,35	93,00
-6393,74	21,00
-6377,16	124,00
-6360,61	102,00
-6344,09	52,00
-6327,59	-2,00
-6311,13	96,00
-6294,70	185,00
-6278,29	110,00
-6261,92	237,00
-6245,58	176,00
-6229,26	154,00
-6212,97	106,00
-6196,72	97,00
-6180,49	120,00
-6164,29	15,00
-6148,12	48,00
-6131,98	98,00
-6115,86	-8,00
-6099,78	61,00
-6083,72	-23,00
-6067,69	-61,00
-6051,69	147,00
-6035,72	86,00
-6019,78	88,00
-6003,87	28,00
-5987,98	104,00
-5972,12	92,00
-5956,29	140,00
-5940,49	200,00
-5924,71	130,00
-5908,96	117,00
-5893,24	65,00
-5877,55	126,00
-5861,89	-15,00
-5846,25	35,00
-5830,64	32,00
-5815,05	92,00
-5799,50	155,00
-5783,97	139,00
-5768,47	178,00
-5752,99	142,00
-5737,55	154,00
-5722,12	162,00
-5706,73	135,00
-5691,36	139,00
-5676,02	214,00
-5660,71	29,00
-5645,42	128,00
-5630,16	209,00
-5614,92	91,00
-5599,71	155,00
-5584,53	240,00
-5569,37	66,00
-5554,24	-580,00
-5539,14	67,00
-5524,06	182,00
-5509,01	86,00
-5493,98	105,00
-5478,98	8,00
-5464,00	25,00
-5449,05	49,00
-5434,13	39,00
-5419,23	158,00
-5404,36	118,00
-5389,51	206,00
-5374,69	199,00
-5359,89	193,00
-5345,12	37,00
-5330,37	144,00
-5315,65	205,00
-5300,95	235,00
-5286,28	250,00
-5271,63	26,00
-5257,01	15,00
-5242,41	116,00
-5227,84	44,00
-5213,29	120,00
-5198,76	99,00
-5184,26	143,00
-5169,79	46,00
-5155,33	143,00
-5140,91	62,00
-5126,51	160,00
-5112,13	108,00
-5097,77	263,00
-5083,44	143,00
-5069,13	133,00
-5054,85	39,00
-5040,59	90,00
-5026,36	-17,00
-5012,15	16,00
-4997,96	28,00
-4983,80	89,00
-4969,66	131,00
-4955,54	118,00
-4941,44	139,00
-4927,37	129,00
-4913,33	158,00
-4899,30	157,00
-4885,30	272,00
-4871,33	176,00
-4857,37	309,00
-4843,44	172,00
-4829,53	158,00
-4815,65	62,00
-4801,79	43,00
-4787,95	38,00
-4774,13	153,00
-4760,34	358,00
-4746,56	184,00
-4732,82	221,00
-4719,09	213,00
-4705,38	168,00
-4691,70	171,00
-4678,04	174,00
-4664,41	203,00
-4650,79	304,00
-4637,20	250,00
-4623,63	123,00
-4610,08	217,00
-4596,56	193,00
-4583,05	211,00
-4569,57	159,00
-4556,11	186,00
-4542,67	223,00
-4529,25	171,00
-4515,86	164,00
-4502,49	128,00
-4489,13	199,00
-4475,80	265,00
-4462,49	263,00
-4449,21	289,00
-4435,94	246,00
-4422,70	137,00
-4409,47	240,00
-4396,27	222,00
-4383,09	174,00
-4369,93	162,00
-4356,79	218,00
-4343,67	106,00
-4330,58	217,00
-4317,50	229,00
-4304,45	177,00
-4291,41	234,00
-4278,40	242,00
-4265,41	283,00
-4252,44	258,00
-4239,49	201,00
-4226,55	258,00
-4213,65	212,00
-4200,76	210,00
-4187,89	203,00
-4175,04	97,00
-4162,21	247,00
-4149,40	329,00
-4136,61	260,00
-4123,85	281,00
-4111,10	272,00
-4098,37	245,00
-4085,66	66,00
-4072,98	283,00
-4060,31	212,00
-4047,66	251,00
-4035,04	362,00
-4022,43	203,00
-4009,84	267,00
-3997,27	135,00
-3984,72	150,00
-3972,19	351,00
-3959,69	165,00
-3947,20	237,00
-3934,73	278,00
-3922,27	193,00
-3909,84	177,00
-3897,43	308,00
-3885,04	243,00
-3872,67	257,00
-3860,31	217,00
-3847,98	181,00
-3835,66	253,00
-3823,36	189,00
-3811,09	178,00
-3798,83	243,00
-3786,59	192,00
-3774,37	136,00
-3762,17	200,00
-3749,98	235,00
-3737,82	302,00
-3725,67	238,00
-3713,55	363,00
-3701,44	131,00
-3689,35	331,00
-3677,28	269,00
-3665,22	218,00
-3653,19	295,00
-3641,17	227,00
-3629,18	254,00
-3617,20	307,00
-3605,24	207,00
-3593,30	204,00
-3581,37	181,00
-3569,47	235,00
-3557,58	306,00
-3545,71	157,00
-3533,86	232,00
-3522,02	169,00
-3510,21	247,00
-3498,41	202,00
-3486,63	310,00
-3474,87	264,00
-3463,12	134,00
-3451,40	250,00
-3439,69	218,00
-3428,00	236,00
-3416,33	231,00
-3404,67	185,00
-3393,03	303,00
-3381,41	163,00
-3369,81	319,00
-3358,22	190,00
-3346,66	258,00
-3335,10	220,00
-3323,57	262,00
-3312,06	184,00
-3300,56	253,00
-3289,08	262,00
-3277,61	316,00
-3266,16	354,00
-3254,73	257,00
-3243,32	252,00
-3231,92	147,00
-3220,55	325,00
-3209,18	224,00
-3197,84	186,00
-3186,51	254,00
-3175,20	224,00
-3163,90	254,00
-3152,63	281,00
-3141,36	310,00
-3130,12	277,00
-3118,89	360,00
-3107,68	232,00
-3096,49	197,00
-3085,31	257,00
-3074,15	229,00
-3063,00	218,00
-3051,87	231,00
-3040,76	166,00
-3029,67	263,00
-3018,59	261,00
-3007,52	301,00
-2996,48	151,00
-2985,44	207,00
-2974,43	203,00
-2963,43	242,00
-2952,45	305,00
-2941,48	123,00
-2930,53	170,00
-2919,60	303,00
-2908,68	272,00
-2897,78	263,00
-2886,89	205,00
-2876,02	247,00
-2865,17	289,00
-2854,33	290,00
-2843,50	197,00
-2832,70	301,00
-2821,90	215,00
-2811,13	217,00
-2800,37	244,00
-2789,62	344,00
-2778,89	202,00
-2768,18	310,00
-2757,48	281,00
-2746,80	242,00
-2736,13	273,00
-2725,48	259,00
-2714,84	305,00
-2704,22	216,00
-2693,61	287,00
-2683,02	345,00
-2672,45	321,00
-2661,89	220,00
-2651,34	110,00
-2640,81	222,00
-2630,30	444,00
-2619,80	312,00
-2609,31	284,00
-2598,84	194,00
-2588,39	148,00
-2577,95	247,00
-2567,52	168,00
-2557,11	195,00
-2546,71	280,00
-2536,33	235,00
-2525,97	186,00
-2515,62	191,00
-2505,28	301,00
-2494,96	249,00
-2484,65	270,00
-2474,36	263,00
-2464,08	194,00
-2453,82	282,00
-2443,57	358,00
-2433,33	210,00
-2423,11	288,00
-2412,91	201,00
-2402,72	185,00
-2392,54	304,00
-2382,38	169,00
-2372,23	206,00
-2362,09	485,00
-2351,97	99,00
-2341,87	142,00
-2331,78	376,00
-2321,70	194,00
-2311,64	315,00
-2301,59	213,00
-2291,55	280,00
-2281,53	230,00
-2271,53	225,00
-2261,53	230,00
-2251,55	179,00
-2241,59	214,00
-2231,64	250,00
-2221,70	292,00
-2211,78	119,00
-2201,87	338,00
-2191,97	191,00
-2182,09	191,00
-2172,22	242,00
-2162,37	313,00
-2152,53	195,00
-2142,70	222,00
-2132,89	246,00
-2123,09	186,00
-2113,30	297,00
-2103,53	250,00
-2093,77	207,00
-2084,02	315,00
-2074,29	353,00
-2064,57	313,00
-2054,86	205,00
-2045,17	358,00
-2035,49	172,00
-2025,82	176,00
-2016,17	268,00
-2006,53	96,00
-1996,91	305,00
-1987,29	225,00
-1977,69	272,00
-1968,11	397,00
-1958,53	266,00
-1948,97	240,00
-1939,42	354,00
-1929,89	212,00
-1920,37	285,00
-1910,86	218,00
-1901,36	280,00
-1891,88	221,00
-1882,41	215,00
-1872,95	227,00
-1863,51	228,00
-1854,08	321,00
-1844,66	298,00
-1835,26	279,00
-1825,86	299,00
-1816,48	330,00
-1807,11	229,00
-1797,76	268,00
-1788,42	190,00
-1779,09	270,00
-1769,77	187,00
-1760,47	333,00
-1751,17	141,00
-1741,89	242,00
-1732,63	205,00
-1723,37	338,00
-1714,13	315,00
-1704,90	141,00
-1695,68	254,00
-1686,48	259,00
-1677,29	304,00
-1668,11	225,00
-1658,94	326,00
-1649,78	248,00
-1640,64	203,00
-1631,51	258,00
-1622,39	196,00
-1613,28	249,00
-1604,19	118,00
-1595,10	153,00
-1586,03	190,00
-1576,97	175,00
-1567,93	303,00
-1558,89	207,00
-1549,87	237,00
-1540,86	102,00
-1531,86	214,00
-1522,87	338,00
-1513,90	247,00
-1504,93	287,00
-1495,98	331,00
-1487,04	204,00
-1478,12	211,00
-1469,20	273,00
-1460,30	275,00
-1451,40	259,00
-1442,52	139,00
-1433,65	309,00
-1424,80	329,00
-1415,95	170,00
-1407,12	261,00
-1398,30	124,00
-1389,48	261,00
-1380,69	222,00
-1371,90	167,00
-1363,12	296,00
-1354,36	256,00
-1345,60	146,00
-1336,86	152,00
-1328,13	290,00
-1319,41	204,00
-1310,70	282,00
-1302,01	269,00
-1293,32	226,00
-1284,65	261,00
-1275,99	226,00
-1267,33	156,00
-1258,69	302,00
-1250,06	271,00
-1241,45	149,00
-1232,84	142,00
-1224,25	189,00
-1215,66	254,00
-1207,09	180,00
-1198,53	263,00
-1189,97	266,00
-1181,43	156,00
-1172,91	174,00
-1164,39	306,00
-1155,88	207,00
-1147,38	303,00
-1138,90	309,00
-1130,43	266,00
-1121,96	224,00
-1113,51	271,00
-1105,07	289,00
-1096,64	270,00
-1088,22	202,00
-1079,81	126,00
-1071,41	220,00
-1063,02	221,00
-1054,65	244,00
-1046,28	254,00
-1037,92	249,00
-1029,58	306,00
-1021,24	254,00
-1012,92	308,00
-1004,61	272,00
-996,30	306,00
-988,01	231,00
-979,73	224,00
-971,46	209,00
-963,20	114,00
-954,95	249,00
-946,71	131,00
-938,48	196,00
-930,26	329,00
-922,06	283,00
-913,86	253,00
-905,67	194,00
-897,49	230,00
-889,33	230,00
-881,17	252,00
-873,02	282,00
-864,89	257,00
-856,76	227,00
-848,65	162,00
-840,54	208,00
-832,45	198,00
-824,36	115,00
-816,29	274,00
-808,22	276,00
-800,17	455,00
-792,12	99,00
-784,09	207,00
-776,06	156,00
-768,05	295,00
-760,04	217,00
-752,05	229,00
-744,07	270,00
-736,09	200,00
-728,13	218,00
-720,17	244,00
-712,23	203,00
-704,29	355,00
-696,37	239,00
-688,45	206,00
-680,55	204,00
-672,65	203,00
-664,77	280,00
-656,89	315,00
-649,03	297,00
-641,17	181,00
-633,32	251,00
-625,49	237,00
-617,66	237,00
-609,84	289,00
-602,03	124,00
-594,23	241,00
-586,45	340,00
-578,67	189,00
-570,90	212,00
-563,14	260,00
-555,39	139,00
-547,65	157,00
-539,91	359,00
-532,19	112,00
-524,48	169,00
-516,78	163,00
-509,08	304,00
-501,40	269,00
-493,72	304,00
-486,06	101,00
-478,40	227,00
-470,76	185,00
-463,12	246,00
-455,49	231,00
-447,87	314,00
-440,26	280,00
-432,66	170,00
-425,07	307,00
-417,49	318,00
-409,92	261,00
-402,35	235,00
-394,80	219,00
-387,25	225,00
-379,72	305,00
-372,19	269,00
-364,67	333,00
-357,17	331,00
-349,67	264,00
-342,18	165,00
-334,69	254,00
-327,22	139,00
-319,76	243,00
-312,30	247,00
-304,86	298,00
-297,42	276,00
-290,00	265,00
-282,58	321,00
-275,17	349,00
-267,77	231,00
-260,37	273,00
-252,99	403,00
-245,62	218,00
-238,25	373,00
-230,90	250,00
-223,55	256,00
-216,21	268,00
-208,88	203,00
-201,56	333,00
-194,25	299,00
-186,94	262,00
-179,65	322,00
-172,36	322,00
-165,08	265,00
-157,81	384,00
-150,55	561,00
-143,30	380,00
-136,06	426,00
-128,82	440,00
-121,60	483,00
-114,38	440,00
-107,17	543,00
-99,97	573,00
-92,78	671,00
-85,60	785,00
-78,42	830,00
-71,25	887,00
-64,10	955,00
-56,95	1178,00
-49,81	1209,00
-42,67	1588,00
-35,55	2017,00
-28,43	2488,00
-21,33	4024,00
-14,23	13404,00
-7,14	56139,00
-0,05	55888,00
7,02	55558,00
14,09	41763,00
21,14	11073,00
28,19	4844,00
35,23	3268,00
42,27	2290,00
49,29	2094,00
56,31	1900,00
63,32	1537,00
70,32	1227,00
77,31	1196,00
84,29	992,00
91,27	1066,00
98,23	816,00
105,19	834,00
112,14	948,00
119,09	1651,00
126,02	2668,00
132,95	3260,00
139,87	3431,00
146,78	3389,00
153,68	3570,00
160,58	3479,00
167,46	3404,00
174,34	3492,00
181,21	3479,00
188,08	3378,00
194,93	3510,00
201,78	3383,00
208,62	3590,00
215,45	3479,00
222,27	3393,00
229,09	3458,00
235,90	3580,00
242,70	3553,00
249,49	3427,00
256,27	3479,00
263,05	3466,00
269,82	3564,00
276,58	3529,00
283,33	3472,00
290,08	3441,00
296,82	3243,00
303,55	3388,00
310,27	3313,00
316,98	3422,00
323,69	3378,00
330,39	3338,00
337,08	3404,00
343,76	3406,00
350,44	3329,00
357,11	3520,00
363,77	3446,00
370,42	3430,00
377,07	3298,00
383,71	3548,00
390,34	3415,00
396,96	3429,00
403,58	3601,00
410,19	3618,00
416,79	3563,00
423,38	3580,00
429,97	3506,00
436,55	3456,00
443,12	3481,00
449,68	3469,00
456,24	3499,00
462,79	3481,00
469,33	3460,00
475,86	3509,00
482,39	3423,00
488,91	3558,00
495,42	3473,00
501,93	3492,00
508,42	3475,00
514,91	3504,00
521,40	3502,00
527,87	3308,00
534,34	3526,00
540,80	3431,00
547,25	3624,00
553,70	3550,00
560,14	3465,00
566,57	3465,00
573,00	3526,00
579,41	3537,00
585,83	3456,00
592,23	3439,00
598,62	3525,00
605,01	3369,00
611,40	3517,00
617,77	3464,00
624,14	3553,00
630,50	3490,00
636,85	3445,00
643,20	3457,00
649,54	3426,00
655,87	3376,00
662,20	3499,00
668,52	3403,00
674,83	3458,00
681,13	3517,00
687,43	3352,00
693,72	3366,00
700,00	3599,00
706,28	3357,00
712,55	3500,00
718,81	3348,00
725,07	3582,00
731,32	3403,00
737,56	3607,00
743,79	3495,00
750,02	3635,00
756,24	3535,00
762,46	3565,00
768,67	3657,00
774,87	3665,00
781,06	3547,00
787,25	3525,00
793,43	3619,00
799,60	3611,00
805,77	3478,00
811,93	3562,00
818,08	3617,00
824,23	3442,00
830,37	3668,00
836,50	3734,00
842,63	3609,00
848,75	3753,00
854,87	3568,00
860,97	3696,00
867,07	3643,00
873,17	3565,00
879,25	3632,00
885,33	3619,00
891,41	3558,00
897,47	3575,00
903,53	3593,00
909,59	3649,00
915,63	3633,00
921,67	3658,00
927,71	3610,00
933,74	3675,00
939,76	3603,00
945,77	3555,00
951,78	3529,00
957,78	3618,00
963,78	3585,00
969,77	3623,00
975,75	3716,00
981,72	3750,00
987,69	3907,00
993,66	3801,00
999,61	3507,00
1005,56	3744,00
1011,51	3630,00
1017,44	3667,00
1023,37	3832,00
1029,30	3848,00
1035,22	3773,00
1041,13	3682,00
1047,03	3862,00
1052,93	3958,00
1058,83	4349,00
1064,71	4470,00
1070,59	4406,00
1076,47	4041,00
1082,33	4065,00
1088,20	4024,00
1094,05	3880,00
1099,90	3875,00
1105,74	4015,00
1111,58	3870,00
1117,41	4017,00
1123,23	4505,00
1129,05	4606,00
1134,86	4463,00
1140,67	4206,00
1146,47	4203,00
1152,26	4026,00
1158,05	3911,00
1163,83	4063,00
1169,60	3987,00
1175,37	4034,00
1181,13	3933,00
1186,89	3842,00
1192,64	3999,00
1198,38	3885,00
1204,12	3851,00
1209,85	3917,00
1215,58	4103,00
1221,30	4082,00
1227,02	4159,00
1232,72	4201,00
1238,43	4032,00
1244,12	4019,00
1249,81	4083,00
1255,50	3997,00
1261,17	4056,00
1266,85	4223,00
1272,51	3994,00
1278,17	4090,00
1283,83	4319,00
1289,47	4634,00
1295,12	5106,00
1300,75	4884,00
1306,38	4556,00
1312,01	4293,00
1317,63	4112,00
1323,24	4109,00
1328,85	4200,00
1334,45	4211,00
1340,04	3975,00
1345,63	4020,00
1351,22	4055,00
1356,80	4145,00
1362,37	4101,00
1367,93	4096,00
1373,49	4172,00
1379,05	4051,00
1384,60	4216,00
1390,14	4079,00
1395,68	4159,00
1401,21	4074,00
1406,74	4350,00
1412,26	4457,00
1417,77	4413,00
1423,28	4567,00
1428,78	4512,00
1434,28	4746,00
1439,77	4945,00
1445,26	5042,00
1450,74	4953,00
1456,22	4763,00
1461,68	4686,00
1467,15	4589,00
1472,61	4546,00
1478,06	4381,00
1483,51	4066,00
1488,95	4116,00
1494,38	4035,00
1499,81	3900,00
1505,24	3988,00
1510,65	3893,00
1516,07	3877,00
1521,48	3955,00
1526,88	3933,00
1532,27	3824,00
1537,67	3928,00
1543,05	3955,00
1548,43	3857,00
1553,81	3779,00
1559,18	3866,00
1564,54	3843,00
1569,90	3949,00
1575,25	3720,00
1580,60	3817,00
1585,94	3903,00
1591,28	3777,00
1596,61	3752,00
1601,93	3790,00
1607,25	3873,00
1612,57	3813,00
1617,88	3659,00
1623,18	3855,00
1628,48	3697,00
1633,77	3725,00
1639,06	3723,00
1644,34	3698,00
1649,62	3618,00
1654,89	3615,00
1660,16	3614,00
1665,42	3707,00
1670,67	3756,00
1675,92	3637,00
1681,17	3623,00
1686,41	3723,00
1691,64	3719,00
1696,87	3667,00
1702,10	3656,00
1707,32	3572,00
1712,53	3621,00
1717,74	3680,00
1722,94	3699,00
1728,14	3549,00
1733,33	3541,00
1738,52	3618,00
1743,70	3532,00
1748,88	3515,00
1754,05	3572,00
1759,22	3424,00
1764,38	2167,00
1769,53	3494,00
1774,69	3501,00
1779,83	3387,00
1784,97	3487,00
1790,11	3368,00
1795,24	3362,00
1800,36	3309,00
1805,48	3344,00
1810,60	3376,00
1815,71	3308,00
1820,82	3339,00
1825,92	3443,00
1831,01	3448,00
1836,10	3355,00
1841,19	3515,00
1846,26	3313,00
1851,34	3409,00
1856,41	3375,00
1861,47	3388,00
1866,53	3341,00
1871,59	3359,00
1876,64	3251,00
1881,68	3316,00
1886,72	3321,00
1891,76	3143,00
1896,79	3221,00
1901,81	3302,00
1906,83	3182,00
1911,85	3216,00
1916,86	3240,00
1921,86	3221,00
1926,86	3175,00
1931,86	3044,00
1936,85	2981,00
1941,83	3070,00
1946,81	3137,00
1951,79	3167,00
1956,76	3034,00
1961,72	2963,00
1966,68	3070,00
1971,64	2890,00
1976,59	2949,00
1981,54	3001,00
1986,48	2933,00
1991,42	2926,00
1996,35	3025,00
2001,27	2974,00
2006,20	3007,00
2011,11	2961,00
2016,03	2923,00
2020,93	2924,00
2025,84	2875,00
2030,73	2824,00
2035,63	2967,00
2040,52	2865,00
2045,40	2903,00
2050,28	2886,00
2055,15	2852,00
2060,02	2795,00
2064,89	2873,00
2069,75	2846,00
2074,60	2782,00
2079,46	2931,00
2084,30	2883,00
2089,14	2854,00
2093,98	2920,00
2098,81	2776,00
2103,64	2839,00
2108,46	2865,00
2113,28	2831,00
2118,09	2820,00
2122,90	2816,00
2127,70	2784,00
2132,50	2875,00
2137,30	2775,00
2142,09	2740,00
2146,87	2819,00
2151,66	2702,00
2156,43	2652,00
2161,20	2721,00
2165,97	2745,00
2170,73	2693,00
2175,49	2618,00
2180,24	2662,00
2184,99	2811,00
2189,74	2625,00
2194,48	2627,00
2199,21	2602,00
2203,94	2632,00
2208,67	2540,00
2213,39	2516,00
2218,11	2632,00
2222,82	2602,00
2227,53	2582,00
2232,23	2570,00
2236,93	2665,00
2241,63	2682,00
2246,32	2488,00
2251,00	2627,00
2255,68	2456,00
2260,36	2481,00
2265,03	2514,00
2269,70	2578,00
2274,36	2452,00
2279,02	2451,00
2283,68	2448,00
2288,33	2228,00
2292,97	2387,00
2297,61	2305,00
2302,25	2573,00
2306,88	2323,00
2311,51	2415,00
2316,14	2359,00
2320,75	2433,00
2325,37	2452,00
2329,98	2431,00
2334,59	2343,00
2339,19	2263,00
2343,79	2287,00
2348,38	2272,00
2352,97	2322,00
2357,55	2269,00
2362,13	2242,00
2366,71	2310,00
2371,28	2430,00
2375,85	2145,00
2380,41	2281,00
2384,97	2295,00
2389,52	2122,00
2394,07	2109,00
2398,62	2193,00
2403,16	2143,00
2407,70	2223,00
2412,23	2022,00
2416,76	2198,00
2421,29	2116,00
2425,81	2074,00
2430,32	2156,00
2434,84	1988,00
2439,34	2092,00
2443,85	2007,00
2448,35	2065,00
2452,84	1974,00
2457,33	2075,00
2461,82	1974,00
2466,30	1994,00
2470,78	2022,00
2475,25	1960,00
2479,72	1939,00
2484,19	2041,00
2488,65	1864,00
2493,11	1940,00
2497,56	1938,00
2502,01	1828,00
2506,46	1864,00
2510,90	1913,00
2515,34	1931,00
2519,77	1779,00
2524,20	1783,00
2528,62	1815,00
2533,04	1872,00
2537,46	1762,00
2541,87	1805,00
2546,28	1668,00
2550,68	1845,00
2555,08	1761,00
2559,48	1903,00
2563,87	1709,00
2568,26	1578,00
2572,64	1715,00
2577,02	1742,00
2581,40	1866,00
2585,77	1677,00
2590,14	1660,00
2594,50	1667,00
2598,86	1634,00
2603,22	1623,00
2607,57	1583,00
2611,92	1590,00
2616,26	1502,00
2620,60	1658,00
2624,94	1570,00
2629,27	1698,00
2633,60	1514,00
2637,92	1676,00
2642,24	1698,00
2646,56	1634,00
2650,87	1519,00
2655,18	1532,00
2659,48	1493,00
2663,78	1516,00
2668,08	1627,00
2672,37	1516,00
2676,66	1699,00
2680,95	1532,00
2685,23	1570,00
2689,50	1484,00
2693,78	1477,00
2698,05	1560,00
2702,31	1536,00
2706,57	1530,00
2710,83	1542,00
2715,08	1531,00
2719,33	1509,00
2723,58	1541,00
2727,82	1608,00
2732,06	1637,00
2736,29	1505,00
2740,53	1525,00
2744,75	1522,00
2748,97	1404,00
2753,19	1551,00
2757,41	1445,00
2761,62	1475,00
2765,83	1412,00
2770,03	1482,00
2774,23	1441,00
2778,43	1465,00
2782,62	1449,00
2786,81	1565,00
2791,00	1313,00
2795,18	1415,00
2799,35	1456,00
2803,53	1420,00
2807,70	1355,00
2811,86	1413,00
2816,03	1585,00
2820,19	1539,00
2824,34	1547,00
2828,49	1596,00
2832,64	1807,00
2836,78	1857,00
2840,92	2041,00
2845,06	2275,00
2849,19	2613,00
2853,32	2551,00
2857,45	2597,00
2861,57	2483,00
2865,69	2483,00
2869,80	2318,00
2873,91	2396,00
2878,02	2478,00
2882,12	2776,00
2886,22	2654,00
2890,32	2500,00
2894,41	2505,00
2898,50	2354,00
2902,58	2158,00
2906,67	2126,00
2910,74	1951,00
2914,82	1948,00
2918,89	1897,00
2922,96	1701,00
2927,02	1588,00
2931,08	1440,00
2935,13	1667,00
2939,19	1484,00
2943,24	1489,00
2947,28	1404,00
2951,32	1216,00
2955,36	1251,00
2959,40	1323,00
2963,43	1359,00
2967,46	1229,00
2971,48	1235,00
2975,50	1133,00
2979,52	1116,00
2983,53	1004,00
2987,54	977,00
2991,55	1010,00
2995,55	1091,00
2999,55	980,00
3003,54	963,00
3007,54	965,00
3011,53	1041,00
3015,51	892,00
3019,49	998,00
3023,47	894,00
3027,45	939,00
3031,42	976,00
3035,39	838,00
3039,35	816,00
3043,31	823,00
3047,27	822,00
3051,22	881,00
3055,17	813,00
3059,12	962,00
3063,06	908,00
3067,00	815,00
3070,94	688,00
3074,87	803,00
3078,80	718,00
3082,73	759,00
3086,65	843,00
3090,57	746,00
3094,49	693,00
3098,40	755,00
3102,31	794,00
3106,22	674,00
3110,12	804,00
3114,02	797,00
3117,92	687,00
3121,81	781,00
3125,70	737,00
3129,58	618,00
3133,47	650,00
3137,34	652,00
3141,22	683,00
3145,09	717,00
3148,96	706,00
3152,83	634,00
3156,69	646,00
3160,55	684,00
3164,40	626,00
3168,26	641,00
3172,10	639,00
3175,95	777,00
3179,79	655,00
3183,63	663,00
3187,47	765,00
3191,30	595,00
3195,13	685,00
3198,95	610,00
3202,78	590,00
3206,60	499,00
3210,41	502,00
3214,23	570,00
3218,03	513,00
3221,84	538,00
3225,64	586,00
3229,44	557,00
3233,24	581,00
3237,03	562,00
3240,82	574,00
3244,61	488,00
3248,39	561,00
3252,17	582,00
3255,95	618,00
3259,72	530,00
3263,49	556,00
3267,26	462,00
3271,03	480,00
3274,79	572,00
3278,54	529,00
3282,30	412,00
3286,05	544,00
3289,80	471,00
3293,54	417,00
3297,29	526,00
3301,02	512,00
3304,76	483,00
3308,49	548,00
3312,22	495,00
3315,95	572,00
3319,67	468,00
3323,39	453,00
3327,10	479,00
3330,82	482,00
3334,53	508,00
3338,24	507,00
3341,94	465,00
3345,64	441,00
3349,34	398,00
3353,03	319,00
3356,72	362,00
3360,41	496,00
3364,10	310,00
3367,78	514,00
3371,46	384,00
3375,13	379,00
3378,81	460,00
3382,48	553,00
3386,14	349,00
3389,81	455,00
3393,47	388,00
3397,12	491,00
3400,78	323,00
3404,43	492,00
3408,08	480,00
3411,72	401,00
3415,36	411,00
3419,00	362,00
3422,64	313,00
3426,27	423,00
3429,90	358,00
3433,53	326,00
3437,15	334,00
3440,77	363,00
3444,39	388,00
3448,00	365,00
3451,62	370,00
3455,22	333,00
3458,83	319,00
3462,43	351,00
3466,03	316,00
3469,63	338,00
3473,22	412,00
3476,81	471,00
3480,40	410,00
3483,99	314,00
3487,57	355,00
3491,15	294,00
3494,72	385,00
3498,29	349,00
3501,86	321,00
3505,43	368,00
3508,99	285,00
3512,56	347,00
3516,11	313,00
3519,67	268,00
3523,22	362,00
3526,77	403,00
3530,32	263,00
3533,86	362,00
3537,40	294,00
3540,94	279,00
3544,47	328,00
3548,00	348,00
3551,53	214,00
3555,06	228,00
3558,58	371,00
3562,10	275,00
3565,62	332,00
3569,13	303,00
3572,64	274,00
3576,15	382,00
3579,66	294,00
3583,16	258,00
3586,66	340,00
3590,16	254,00
3593,65	302,00
3597,14	275,00
3600,63	332,00
3604,11	284,00
3607,60	199,00
3611,08	265,00
3614,55	150,00
3618,03	279,00
3621,50	288,00
3624,97	215,00
3628,43	247,00
3631,90	337,00
3635,36	266,00
3638,81	274,00
3642,27	201,00
3645,72	288,00
3649,17	260,00
3652,61	236,00
3656,06	225,00
3659,50	306,00
3662,93	296,00
3666,37	304,00
3669,80	248,00
3673,23	282,00
3676,65	454,00
3680,08	245,00
3683,50	205,00
3686,92	313,00
3690,33	206,00
3693,74	317,00
3697,15	261,00
3700,56	214,00
3703,96	194,00
3707,36	342,00
3710,76	258,00
3714,16	232,00
3717,55	220,00
3720,94	141,00
3724,33	264,00
3727,71	198,00
3731,10	137,00
3734,48	230,00
3737,85	256,00
3741,23	216,00
3744,60	107,00
3747,97	198,00
3751,33	237,00
3754,69	137,00
3758,05	202,00
3761,41	178,00
3764,77	178,00
3768,12	234,00
3771,47	100,00
3774,82	314,00
3778,16	-6,00
3781,50	6,00
3784,84	5,00
3788,18	-4,00
>>>>>End Processed Spectral Data<<<<<
