SpectraSuite Data File
++++++++++++++++++++++++++++++++++++
Date: Mon Mar 09 14:52:38 ICT 2026
User: Administrator
Dark Spectrum Present: Yes
Reference Spectrum Present: No
Number of Sampled Component Spectra: 1
Spectrometers: MAYP113682
Integration Time (usec): 3000000 (MAYP113682)
Spectra Averaged: 1 (MAYP113682)
Boxcar Smoothing: 0 (MAYP113682)
Correct for Electrical Dark: No (MAYP113682)
Strobe/Lamp Enabled: No (MAYP113682)
Correct for Detector Non-linearity: No (MAYP113682)
Correct for Stray Light: No (MAYP113682)
Number of Pixels in Processed Spectrum: 2068
>>>>>Begin Processed Spectral Data<<<<<
-37534,58	42,00
-37414,56	3,00
-37295,11	9,00
-37176,24	9,00
-37057,95	881,00
-36940,22	878,00
-36823,05	936,00
-36706,45	1105,00
-36590,40	967,00
-36474,90	1099,00
-36359,95	1152,00
-36245,55	1059,00
-36131,68	1131,00
-36018,35	1026,00
-35905,55	1054,00
-35793,29	1071,00
-35681,54	1000,00
-35570,32	1001,00
-35459,62	1088,00
-35349,43	1142,00
-35239,75	1064,00
-35130,58	1085,00
-35021,91	1080,00
-34913,74	1088,00
-34806,07	1012,00
-34698,89	1269,00
-34592,20	1055,00
-34486,00	1261,00
-34380,28	1042,00
-34275,04	1057,00
-34170,27	997,00
-34065,98	1065,00
-33962,16	1125,00
-33858,81	1108,00
-33755,92	1157,00
-33653,49	1220,00
-33551,52	1272,00
-33450,01	1043,00
-33348,94	1055,00
-33248,33	1137,00
-33148,16	1082,00
-33048,43	1149,00
-32949,14	1281,00
-32850,29	1192,00
-32751,87	1217,00
-32653,89	1190,00
-32556,33	1271,00
-32459,20	1249,00
-32362,49	1138,00
-32266,19	1085,00
-32170,32	1170,00
-32074,86	1110,00
-31979,82	1324,00
-31885,18	1276,00
-31790,95	1287,00
-31697,12	1197,00
-31603,69	1295,00
-31510,67	1203,00
-31418,04	1200,00
-31325,80	1199,00
-31233,95	1307,00
-31142,49	1193,00
-31051,42	1256,00
-30960,73	1341,00
-30870,43	1272,00
-30780,50	1120,00
-30690,95	1149,00
-30601,77	1312,00
-30512,97	1148,00
-30424,53	1237,00
-30336,46	1274,00
-30248,76	1247,00
-30161,42	1205,00
-30074,44	1109,00
-29987,81	1188,00
-29901,55	1308,00
-29815,63	1124,00
-29730,07	1208,00
-29644,86	1249,00
-29560,00	1232,00
-29475,48	1137,00
-29391,30	1206,00
-29307,47	1025,00
-29223,97	1156,00
-29140,81	1241,00
-29057,99	1369,00
-28975,50	1097,00
-28893,34	1397,00
-28811,51	1075,00
-28730,00	1148,00
-28648,82	1169,00
-28567,97	1276,00
-28487,43	1166,00
-28407,21	1154,00
-28327,32	1072,00
-28247,73	1378,00
-28168,46	1122,00
-28089,50	1241,00
-28010,85	1099,00
-27932,51	1020,00
-27854,48	1293,00
-27776,75	1087,00
-27699,32	1106,00
-27622,19	1278,00
-27545,37	1267,00
-27468,84	1285,00
-27392,60	1290,00
-27316,66	1083,00
-27241,01	1167,00
-27165,66	1237,00
-27090,59	1193,00
-27015,81	1179,00
-26941,31	1320,00
-26867,10	1238,00
-26793,17	1347,00
-26719,52	1200,00
-26646,15	1147,00
-26573,06	1182,00
-26500,24	1253,00
-26427,70	1124,00
-26355,43	1213,00
-26283,43	1195,00
-26211,71	1292,00
-26140,25	1260,00
-26069,06	1457,00
-25998,13	1057,00
-25927,46	1078,00
-25857,06	1213,00
-25786,92	1083,00
-25717,04	1124,00
-25647,42	1200,00
-25578,05	1106,00
-25508,94	1189,00
-25440,09	1229,00
-25371,48	1163,00
-25303,13	1182,00
-25235,02	1170,00
-25167,17	1286,00
-25099,56	1291,00
-25032,19	1139,00
-24965,07	1128,00
-24898,20	1062,00
-24831,56	1300,00
-24765,17	1121,00
-24699,01	1088,00
-24633,10	1202,00
-24567,41	1173,00
-24501,97	1270,00
-24436,75	1111,00
-24371,77	1151,00
-24307,03	1193,00
-24242,51	1037,00
-24178,22	1309,00
-24114,16	1073,00
-24050,32	1236,00
-23986,71	1170,00
-23923,32	1139,00
-23860,16	1143,00
-23797,22	1108,00
-23734,50	1167,00
-23672,00	1129,00
-23609,71	1152,00
-23547,65	970,00
-23485,80	1241,00
-23424,16	1202,00
-23362,74	1292,00
-23301,53	1128,00
-23240,54	1114,00
-23179,75	1034,00
-23119,17	1053,00
-23058,80	1237,00
-22998,64	1116,00
-22938,68	1076,00
-22878,93	1116,00
-22819,39	1101,00
-22760,04	1070,00
-22700,90	1178,00
-22641,96	1160,00
-22583,22	1110,00
-22524,68	1194,00
-22466,33	1111,00
-22408,19	1109,00
-22350,23	1225,00
-22292,48	1212,00
-22234,92	1118,00
-22177,55	1295,00
-22120,37	1420,00
-22063,38	1219,00
-22006,58	1142,00
-21949,98	1121,00
-21893,56	928,00
-21837,33	1172,00
-21781,28	1218,00
-21725,42	1145,00
-21669,74	1140,00
-21614,25	1112,00
-21558,94	1123,00
-21503,81	1143,00
-21448,86	1246,00
-21394,10	1122,00
-21339,51	1093,00
-21285,10	1112,00
-21230,86	988,00
-21176,81	1064,00
-21122,93	1063,00
-21069,22	1159,00
-21015,69	1152,00
-20962,33	1315,00
-20909,14	1068,00
-20856,13	1136,00
-20803,28	1128,00
-20750,61	1108,00
-20698,10	1092,00
-20645,76	1228,00
-20593,59	1280,00
-20541,59	1154,00
-20489,75	1200,00
-20438,07	1178,00
-20386,56	1341,00
-20335,22	1149,00
-20284,03	1042,00
-20233,01	1047,00
-20182,15	1042,00
-20131,45	1103,00
-20080,91	1116,00
-20030,52	1102,00
-19980,30	1096,00
-19930,23	1030,00
-19880,32	1240,00
-19830,56	1264,00
-19780,96	1106,00
-19731,52	1063,00
-19682,23	1144,00
-19633,09	1110,00
-19584,10	1123,00
-19535,26	1122,00
-19486,58	1239,00
-19438,04	1157,00
-19389,66	1162,00
-19341,42	1102,00
-19293,33	1114,00
-19245,39	1065,00
-19197,60	1078,00
-19149,95	1130,00
-19102,45	1130,00
-19055,09	1146,00
-19007,87	1200,00
-18960,80	1180,00
-18913,87	1217,00
-18867,09	1170,00
-18820,44	1212,00
-18773,94	1107,00
-18727,57	1109,00
-18681,35	1122,00
-18635,26	1121,00
-18589,31	997,00
-18543,50	1014,00
-18497,83	1246,00
-18452,29	1148,00
-18406,89	1130,00
-18361,63	1227,00
-18316,50	1138,00
-18271,50	1198,00
-18226,63	1194,00
-18181,90	1148,00
-18137,30	1206,00
-18092,84	1116,00
-18048,50	1219,00
-18004,29	1051,00
-17960,22	1127,00
-17916,27	1074,00
-17872,45	1109,00
-17828,76	1208,00
-17785,20	1356,00
-17741,77	1150,00
-17698,46	1221,00
-17655,28	1077,00
-17612,22	1120,00
-17569,29	1107,00
-17526,48	1124,00
-17483,79	1112,00
-17441,23	1117,00
-17398,79	1019,00
-17356,48	1073,00
-17314,28	1388,00
-17272,21	1179,00
-17230,26	1066,00
-17188,42	1237,00
-17146,71	1055,00
-17105,12	1110,00
-17063,64	1215,00
-17022,28	987,00
-16981,04	1099,00
-16939,92	1095,00
-16898,91	1290,00
-16858,02	1151,00
-16817,25	1099,00
-16776,59	1073,00
-16736,04	1104,00
-16695,61	1072,00
-16655,29	1118,00
-16615,09	1199,00
-16574,99	1170,00
-16535,01	1082,00
-16495,15	1229,00
-16455,39	1116,00
-16415,74	1074,00
-16376,21	1012,00
-16336,78	986,00
-16297,46	1118,00
-16258,26	1111,00
-16219,16	1134,00
-16180,17	1107,00
-16141,28	1274,00
-16102,51	1218,00
-16063,84	1102,00
-16025,27	1174,00
-15986,82	1024,00
-15948,46	1082,00
-15910,22	1104,00
-15872,07	1118,00
-15834,04	1147,00
-15796,10	1074,00
-15758,27	1235,00
-15720,54	1134,00
-15682,91	1066,00
-15645,39	1198,00
-15607,97	1166,00
-15570,64	1046,00
-15533,42	1161,00
-15496,30	1065,00
-15459,28	1125,00
-15422,36	1098,00
-15385,54	1112,00
-15348,82	1159,00
-15312,19	1294,00
-15275,66	1130,00
-15239,23	1055,00
-15202,90	1127,00
-15166,67	1067,00
-15130,53	1167,00
-15094,48	1205,00
-15058,54	1248,00
-15022,68	1006,00
-14986,93	1072,00
-14951,26	1078,00
-14915,69	909,00
-14880,22	1112,00
-14844,84	1070,00
-14809,55	1220,00
-14774,35	1115,00
-14739,25	1261,00
-14704,24	1146,00
-14669,32	1063,00
-14634,49	1111,00
-14599,75	1262,00
-14565,10	1053,00
-14530,55	1269,00
-14496,08	1158,00
-14461,70	1070,00
-14427,41	1012,00
-14393,21	1098,00
-14359,10	1072,00
-14325,07	1256,00
-14291,14	1160,00
-14257,29	1203,00
-14223,52	1055,00
-14189,85	1229,00
-14156,26	1100,00
-14122,76	1119,00
-14089,34	1094,00
-14056,01	1117,00
-14022,76	1231,00
-13989,60	1242,00
-13956,52	1112,00
-13923,53	1187,00
-13890,62	1079,00
-13857,79	1063,00
-13825,05	1067,00
-13792,39	1065,00
-13759,81	1139,00
-13727,31	1125,00
-13694,90	1069,00
-13662,57	1147,00
-13630,31	1206,00
-13598,14	1110,00
-13566,05	1098,00
-13534,05	1136,00
-13502,12	1082,00
-13470,27	1114,00
-13438,50	1234,00
-13406,80	1157,00
-13375,19	1093,00
-13343,66	1168,00
-13312,20	1126,00
-13280,83	1100,00
-13249,53	1065,00
-13218,30	1008,00
-13187,16	1085,00
-13156,09	1240,00
-13125,10	1193,00
-13094,18	1165,00
-13063,34	1277,00
-13032,58	1067,00
-13001,89	1226,00
-12971,28	1136,00
-12940,74	1096,00
-12910,27	1136,00
-12879,88	1143,00
-12849,57	1234,00
-12819,33	1145,00
-12789,16	1157,00
-12759,06	1058,00
-12729,04	1254,00
-12699,09	2556,00
-12669,21	1081,00
-12639,41	1088,00
-12609,68	1129,00
-12580,02	1043,00
-12550,43	1210,00
-12520,91	977,00
-12491,46	1151,00
-12462,08	1084,00
-12432,77	1130,00
-12403,54	1119,00
-12374,37	1139,00
-12345,27	1106,00
-12316,24	1123,00
-12287,29	1245,00
-12258,40	1063,00
-12229,57	1142,00
-12200,82	1223,00
-12172,14	1094,00
-12143,52	1088,00
-12114,97	1004,00
-12086,49	1090,00
-12058,07	1148,00
-12029,73	1212,00
-12001,44	1288,00
-11973,23	1084,00
-11945,08	1171,00
-11917,00	1162,00
-11888,98	1027,00
-11861,03	1119,00
-11833,15	1131,00
-11805,32	1198,00
-11777,57	1196,00
-11749,88	1147,00
-11722,25	1095,00
-11694,69	1151,00
-11667,19	1082,00
-11639,75	1234,00
-11612,38	1173,00
-11585,07	1174,00
-11557,83	1136,00
-11530,65	1316,00
-11503,53	1247,00
-11476,47	1218,00
-11449,48	1130,00
-11422,54	1232,00
-11395,67	1183,00
-11368,86	1240,00
-11342,11	1208,00
-11315,43	1144,00
-11288,80	993,00
-11262,23	1218,00
-11235,73	1113,00
-11209,28	1194,00
-11182,90	1125,00
-11156,57	1171,00
-11130,31	1300,00
-11104,10	1223,00
-11077,96	1128,00
-11051,87	1135,00
-11025,84	1178,00
-10999,87	1127,00
-10973,96	1202,00
-10948,11	1107,00
-10922,31	1135,00
-10896,58	1208,00
-10870,90	1322,00
-10845,28	1144,00
-10819,71	1058,00
-10794,20	1078,00
-10768,75	1265,00
-10743,36	1029,00
-10718,02	1134,00
-10692,74	1123,00
-10667,52	954,00
-10642,35	1221,00
-10617,24	1278,00
-10592,18	1228,00
-10567,18	1007,00
-10542,23	1127,00
-10517,34	1230,00
-10492,51	1183,00
-10467,72	1151,00
-10443,00	1145,00
-10418,32	1222,00
-10393,70	1064,00
-10369,14	1089,00
-10344,63	1155,00
-10320,17	1239,00
-10295,77	1230,00
-10271,42	1225,00
-10247,12	1239,00
-10222,88	1300,00
-10198,68	1009,00
-10174,54	1168,00
-10150,46	1252,00
-10126,42	1234,00
-10102,44	1220,00
-10078,51	1160,00
-10054,63	1184,00
-10030,80	1181,00
-10007,03	1316,00
-9983,30	1185,00
-9959,63	1193,00
-9936,01	1380,00
-9912,44	1280,00
-9888,92	1206,00
-9865,44	1232,00
-9842,02	1334,00
-9818,65	1312,00
-9795,33	1236,00
-9772,06	1310,00
-9748,84	1239,00
-9725,67	1264,00
-9702,55	1306,00
-9679,47	1419,00
-9656,45	1481,00
-9633,47	1245,00
-9610,55	1417,00
-9587,67	1537,00
-9564,84	1684,00
-9542,06	1413,00
-9519,32	1654,00
-9496,64	1647,00
-9474,00	1529,00
-9451,41	1558,00
-9428,87	1718,00
-9406,37	1657,00
-9383,92	1665,00
-9361,52	1706,00
-9339,17	1829,00
-9316,86	1644,00
-9294,60	1831,00
-9272,38	2192,00
-9250,21	2070,00
-9228,09	1995,00
-9206,01	2094,00
-9183,98	1836,00
-9162,00	1874,00
-9140,06	1797,00
-9118,16	1835,00
-9096,31	2002,00
-9074,51	1856,00
-9052,75	2150,00
-9031,04	2020,00
-9009,37	1802,00
-8987,74	1726,00
-8966,16	1760,00
-8944,63	1644,00
-8923,14	1623,00
-8901,69	1614,00
-8880,29	1618,00
-8858,93	1776,00
-8837,61	1747,00
-8816,34	1779,00
-8795,11	1753,00
-8773,92	1776,00
-8752,78	1786,00
-8731,68	1644,00
-8710,62	1705,00
-8689,61	1474,00
-8668,63	1631,00
-8647,70	1914,00
-8626,82	1740,00
-8605,97	1817,00
-8585,17	1749,00
-8564,41	1576,00
-8543,69	1620,00
-8523,01	1514,00
-8502,37	1830,00
-8481,78	1471,00
-8461,23	1473,00
-8440,71	1554,00
-8420,24	1622,00
-8399,81	1747,00
-8379,42	1673,00
-8359,08	1723,00
-8338,77	1510,00
-8318,50	1579,00
-8298,27	1505,00
-8278,09	1584,00
-8257,94	1487,00
-8237,83	1750,00
-8217,76	1661,00
-8197,74	1545,00
-8177,75	1601,00
-8157,80	1581,00
-8137,89	1659,00
-8118,02	1577,00
-8098,19	1638,00
-8078,40	1524,00
-8058,65	1460,00
-8038,93	1571,00
-8019,26	1539,00
-7999,62	1494,00
-7980,02	1500,00
-7960,46	1442,00
-7940,94	1506,00
-7921,46	1507,00
-7902,01	1352,00
-7882,60	1590,00
-7863,23	1473,00
-7843,90	1525,00
-7824,61	1447,00
-7805,35	1669,00
-7786,13	1536,00
-7766,95	1409,00
-7747,80	1506,00
-7728,69	1635,00
-7709,62	1433,00
-7690,59	1551,00
-7671,59	1523,00
-7652,63	1404,00
-7633,70	1413,00
-7614,81	1629,00
-7595,96	1400,00
-7577,15	1413,00
-7558,37	1431,00
-7539,62	1464,00
-7520,91	1434,00
-7502,24	1510,00
-7483,60	1536,00
-7465,00	1415,00
-7446,44	1455,00
-7427,91	1292,00
-7409,41	1517,00
-7390,95	1329,00
-7372,53	1296,00
-7354,14	1399,00
-7335,78	1235,00
-7317,46	1417,00
-7299,18	1348,00
-7280,92	1507,00
-7262,71	1624,00
-7244,52	1520,00
-7226,38	1361,00
-7208,26	1518,00
-7190,18	1464,00
-7172,14	1478,00
-7154,12	1471,00
-7136,15	1372,00
-7118,20	1446,00
-7100,29	1591,00
-7082,41	1556,00
-7064,57	1517,00
-7046,76	1362,00
-7028,98	1322,00
-7011,24	1654,00
-6993,53	1195,00
-6975,85	1334,00
-6958,20	1256,00
-6940,59	1297,00
-6923,01	1281,00
-6905,46	1448,00
-6887,94	1414,00
-6870,46	1789,00
-6853,01	1470,00
-6835,59	1455,00
-6818,21	1327,00
-6800,85	1467,00
-6783,53	1359,00
-6766,24	1189,00
-6748,98	1318,00
-6731,76	1184,00
-6714,56	1265,00
-6697,40	1107,00
-6680,26	1162,00
-6663,16	1298,00
-6646,09	1369,00
-6629,05	1299,00
-6612,05	1427,00
-6595,07	1376,00
-6578,13	1448,00
-6561,21	1233,00
-6544,33	1267,00
-6527,47	1339,00
-6510,65	1266,00
-6493,86	1358,00
-6477,10	1223,00
-6460,36	1315,00
-6443,66	1180,00
-6426,99	1269,00
-6410,35	1161,00
-6393,74	1328,00
-6377,16	1265,00
-6360,61	1195,00
-6344,09	1121,00
-6327,59	1181,00
-6311,13	1056,00
-6294,70	1226,00
-6278,29	1361,00
-6261,92	1240,00
-6245,58	1296,00
-6229,26	1394,00
-6212,97	1370,00
-6196,72	1191,00
-6180,49	1397,00
-6164,29	1117,00
-6148,12	1305,00
-6131,98	1167,00
-6115,86	1316,00
-6099,78	1113,00
-6083,72	1152,00
-6067,69	1073,00
-6051,69	1232,00
-6035,72	1263,00
-6019,78	1112,00
-6003,87	1393,00
-5987,98	1286,00
-5972,12	1261,00
-5956,29	1288,00
-5940,49	1179,00
-5924,71	1399,00
-5908,96	1097,00
-5893,24	1187,00
-5877,55	1212,00
-5861,89	1244,00
-5846,25	1089,00
-5830,64	1181,00
-5815,05	1098,00
-5799,50	1177,00
-5783,97	1238,00
-5768,47	1272,00
-5752,99	1451,00
-5737,55	1265,00
-5722,12	1294,00
-5706,73	1291,00
-5691,36	1265,00
-5676,02	1135,00
-5660,71	1262,00
-5645,42	1146,00
-5630,16	1171,00
-5614,92	1258,00
-5599,71	1149,00
-5584,53	1198,00
-5569,37	1196,00
-5554,24	2208,00
-5539,14	1216,00
-5524,06	1169,00
-5509,01	1087,00
-5493,98	1210,00
-5478,98	1310,00
-5464,00	1202,00
-5449,05	1071,00
-5434,13	1184,00
-5419,23	1329,00
-5404,36	1105,00
-5389,51	1180,00
-5374,69	1213,00
-5359,89	1278,00
-5345,12	1287,00
-5330,37	1470,00
-5315,65	1456,00
-5300,95	1223,00
-5286,28	1120,00
-5271,63	1090,00
-5257,01	1336,00
-5242,41	1355,00
-5227,84	1208,00
-5213,29	1188,00
-5198,76	1267,00
-5184,26	1115,00
-5169,79	1244,00
-5155,33	1279,00
-5140,91	1281,00
-5126,51	1223,00
-5112,13	1281,00
-5097,77	1324,00
-5083,44	1215,00
-5069,13	1072,00
-5054,85	1202,00
-5040,59	1120,00
-5026,36	1307,00
-5012,15	1345,00
-4997,96	1280,00
-4983,80	1209,00
-4969,66	1253,00
-4955,54	1122,00
-4941,44	1138,00
-4927,37	1226,00
-4913,33	1271,00
-4899,30	1126,00
-4885,30	1227,00
-4871,33	1189,00
-4857,37	1264,00
-4843,44	1152,00
-4829,53	1315,00
-4815,65	1350,00
-4801,79	1029,00
-4787,95	1126,00
-4774,13	1133,00
-4760,34	1123,00
-4746,56	1278,00
-4732,82	1134,00
-4719,09	1188,00
-4705,38	1320,00
-4691,70	1320,00
-4678,04	1255,00
-4664,41	1255,00
-4650,79	1396,00
-4637,20	1138,00
-4623,63	1177,00
-4610,08	1210,00
-4596,56	1251,00
-4583,05	1164,00
-4569,57	1124,00
-4556,11	1257,00
-4542,67	1078,00
-4529,25	1092,00
-4515,86	1228,00
-4502,49	1276,00
-4489,13	1288,00
-4475,80	1237,00
-4462,49	1109,00
-4449,21	1436,00
-4435,94	1102,00
-4422,70	1185,00
-4409,47	1110,00
-4396,27	1141,00
-4383,09	1257,00
-4369,93	1093,00
-4356,79	1165,00
-4343,67	1132,00
-4330,58	1237,00
-4317,50	1094,00
-4304,45	1115,00
-4291,41	1145,00
-4278,40	1151,00
-4265,41	1095,00
-4252,44	1088,00
-4239,49	1016,00
-4226,55	1215,00
-4213,65	1359,00
-4200,76	1284,00
-4187,89	1122,00
-4175,04	1112,00
-4162,21	1201,00
-4149,40	1078,00
-4136,61	1146,00
-4123,85	1156,00
-4111,10	1112,00
-4098,37	1183,00
-4085,66	1188,00
-4072,98	1247,00
-4060,31	1075,00
-4047,66	1367,00
-4035,04	1235,00
-4022,43	1204,00
-4009,84	1256,00
-3997,27	1105,00
-3984,72	1194,00
-3972,19	1239,00
-3959,69	1107,00
-3947,20	1071,00
-3934,73	1230,00
-3922,27	1139,00
-3909,84	1156,00
-3897,43	1163,00
-3885,04	1153,00
-3872,67	1082,00
-3860,31	1168,00
-3847,98	1249,00
-3835,66	1150,00
-3823,36	1280,00
-3811,09	1012,00
-3798,83	1160,00
-3786,59	1302,00
-3774,37	1231,00
-3762,17	1133,00
-3749,98	1117,00
-3737,82	945,00
-3725,67	1390,00
-3713,55	1089,00
-3701,44	1225,00
-3689,35	1193,00
-3677,28	1173,00
-3665,22	1152,00
-3653,19	1022,00
-3641,17	1131,00
-3629,18	1162,00
-3617,20	1101,00
-3605,24	1139,00
-3593,30	1259,00
-3581,37	1142,00
-3569,47	1170,00
-3557,58	1200,00
-3545,71	1172,00
-3533,86	1210,00
-3522,02	1118,00
-3510,21	1209,00
-3498,41	1157,00
-3486,63	1114,00
-3474,87	1118,00
-3463,12	1080,00
-3451,40	1146,00
-3439,69	1227,00
-3428,00	1243,00
-3416,33	1239,00
-3404,67	1057,00
-3393,03	1211,00
-3381,41	1209,00
-3369,81	1174,00
-3358,22	1141,00
-3346,66	1258,00
-3335,10	1164,00
-3323,57	1127,00
-3312,06	1177,00
-3300,56	1189,00
-3289,08	1019,00
-3277,61	1076,00
-3266,16	1201,00
-3254,73	1157,00
-3243,32	1202,00
-3231,92	1112,00
-3220,55	1186,00
-3209,18	1196,00
-3197,84	1165,00
-3186,51	1031,00
-3175,20	1072,00
-3163,90	1171,00
-3152,63	1158,00
-3141,36	1124,00
-3130,12	1265,00
-3118,89	1256,00
-3107,68	1284,00
-3096,49	1226,00
-3085,31	1287,00
-3074,15	1094,00
-3063,00	1200,00
-3051,87	1272,00
-3040,76	1203,00
-3029,67	1265,00
-3018,59	1429,00
-3007,52	1212,00
-2996,48	1379,00
-2985,44	1067,00
-2974,43	1128,00
-2963,43	1074,00
-2952,45	1016,00
-2941,48	1145,00
-2930,53	1209,00
-2919,60	1113,00
-2908,68	1127,00
-2897,78	1169,00
-2886,89	1312,00
-2876,02	1129,00
-2865,17	1193,00
-2854,33	1029,00
-2843,50	1069,00
-2832,70	1067,00
-2821,90	1196,00
-2811,13	1134,00
-2800,37	1098,00
-2789,62	1189,00
-2778,89	1270,00
-2768,18	1200,00
-2757,48	1266,00
-2746,80	1326,00
-2736,13	1115,00
-2725,48	1201,00
-2714,84	1171,00
-2704,22	1117,00
-2693,61	1159,00
-2683,02	1157,00
-2672,45	1132,00
-2661,89	1254,00
-2651,34	1236,00
-2640,81	1138,00
-2630,30	1268,00
-2619,80	1209,00
-2609,31	1279,00
-2598,84	990,00
-2588,39	1128,00
-2577,95	1071,00
-2567,52	1039,00
-2557,11	1202,00
-2546,71	1146,00
-2536,33	1262,00
-2525,97	1143,00
-2515,62	1161,00
-2505,28	1175,00
-2494,96	1079,00
-2484,65	1128,00
-2474,36	1448,00
-2464,08	1203,00
-2453,82	1170,00
-2443,57	1234,00
-2433,33	1062,00
-2423,11	1156,00
-2412,91	1134,00
-2402,72	1062,00
-2392,54	1191,00
-2382,38	1085,00
-2372,23	1261,00
-2362,09	1941,00
-2351,97	1128,00
-2341,87	1045,00
-2331,78	1206,00
-2321,70	1262,00
-2311,64	1219,00
-2301,59	1067,00
-2291,55	1102,00
-2281,53	1244,00
-2271,53	1032,00
-2261,53	1224,00
-2251,55	1196,00
-2241,59	1093,00
-2231,64	1212,00
-2221,70	1153,00
-2211,78	1290,00
-2201,87	1208,00
-2191,97	1225,00
-2182,09	1141,00
-2172,22	1238,00
-2162,37	1103,00
-2152,53	1087,00
-2142,70	987,00
-2132,89	1023,00
-2123,09	1247,00
-2113,30	1209,00
-2103,53	1145,00
-2093,77	1172,00
-2084,02	983,00
-2074,29	1252,00
-2064,57	1191,00
-2054,86	1220,00
-2045,17	1190,00
-2035,49	1273,00
-2025,82	1137,00
-2016,17	1137,00
-2006,53	1182,00
-1996,91	1117,00
-1987,29	1069,00
-1977,69	1193,00
-1968,11	1164,00
-1958,53	1177,00
-1948,97	1285,00
-1939,42	1155,00
-1929,89	1056,00
-1920,37	1171,00
-1910,86	1200,00
-1901,36	1176,00
-1891,88	1153,00
-1882,41	1226,00
-1872,95	1151,00
-1863,51	1088,00
-1854,08	1157,00
-1844,66	1162,00
-1835,26	1078,00
-1825,86	1135,00
-1816,48	1097,00
-1807,11	1181,00
-1797,76	1268,00
-1788,42	1201,00
-1779,09	1167,00
-1769,77	1195,00
-1760,47	1389,00
-1751,17	1162,00
-1741,89	1124,00
-1732,63	1262,00
-1723,37	1490,00
-1714,13	1320,00
-1704,90	1126,00
-1695,68	1303,00
-1686,48	1110,00
-1677,29	1125,00
-1668,11	1459,00
-1658,94	1233,00
-1649,78	1239,00
-1640,64	1185,00
-1631,51	1148,00
-1622,39	1197,00
-1613,28	1127,00
-1604,19	1427,00
-1595,10	1139,00
-1586,03	1102,00
-1576,97	1222,00
-1567,93	1128,00
-1558,89	1200,00
-1549,87	1218,00
-1540,86	1088,00
-1531,86	1203,00
-1522,87	1082,00
-1513,90	1220,00
-1504,93	1278,00
-1495,98	1217,00
-1487,04	1320,00
-1478,12	1198,00
-1469,20	1126,00
-1460,30	1268,00
-1451,40	1304,00
-1442,52	1114,00
-1433,65	1303,00
-1424,80	1211,00
-1415,95	1188,00
-1407,12	1434,00
-1398,30	1188,00
-1389,48	1107,00
-1380,69	1218,00
-1371,90	1178,00
-1363,12	1150,00
-1354,36	1392,00
-1345,60	1137,00
-1336,86	1269,00
-1328,13	1450,00
-1319,41	1199,00
-1310,70	1135,00
-1302,01	1130,00
-1293,32	1076,00
-1284,65	1128,00
-1275,99	1150,00
-1267,33	1273,00
-1258,69	1162,00
-1250,06	1191,00
-1241,45	1078,00
-1232,84	1330,00
-1224,25	1217,00
-1215,66	1235,00
-1207,09	1269,00
-1198,53	1158,00
-1189,97	1120,00
-1181,43	1183,00
-1172,91	1245,00
-1164,39	1295,00
-1155,88	1127,00
-1147,38	1054,00
-1138,90	1171,00
-1130,43	1164,00
-1121,96	1120,00
-1113,51	1192,00
-1105,07	1124,00
-1096,64	1208,00
-1088,22	1296,00
-1079,81	1218,00
-1071,41	1335,00
-1063,02	1056,00
-1054,65	1260,00
-1046,28	1100,00
-1037,92	1297,00
-1029,58	1157,00
-1021,24	1161,00
-1012,92	1554,00
-1004,61	1161,00
-996,30	1642,00
-988,01	1010,00
-979,73	1193,00
-971,46	1286,00
-963,20	1136,00
-954,95	974,00
-946,71	1197,00
-938,48	1087,00
-930,26	1269,00
-922,06	1159,00
-913,86	1238,00
-905,67	1131,00
-897,49	1120,00
-889,33	1130,00
-881,17	1309,00
-873,02	1154,00
-864,89	1033,00
-856,76	1136,00
-848,65	1170,00
-840,54	1270,00
-832,45	1191,00
-824,36	1057,00
-816,29	1221,00
-808,22	1261,00
-800,17	1246,00
-792,12	1311,00
-784,09	1358,00
-776,06	1070,00
-768,05	1166,00
-760,04	1116,00
-752,05	1113,00
-744,07	1391,00
-736,09	1299,00
-728,13	1045,00
-720,17	1108,00
-712,23	1102,00
-704,29	1104,00
-696,37	1193,00
-688,45	1198,00
-680,55	1165,00
-672,65	1139,00
-664,77	1118,00
-656,89	1136,00
-649,03	1089,00
-641,17	1235,00
-633,32	1309,00
-625,49	1217,00
-617,66	1118,00
-609,84	1172,00
-602,03	1051,00
-594,23	1155,00
-586,45	1220,00
-578,67	1089,00
-570,90	1152,00
-563,14	1077,00
-555,39	1210,00
-547,65	1324,00
-539,91	1150,00
-532,19	1134,00
-524,48	1204,00
-516,78	1104,00
-509,08	1288,00
-501,40	1105,00
-493,72	1098,00
-486,06	1154,00
-478,40	1472,00
-470,76	1046,00
-463,12	1064,00
-455,49	1044,00
-447,87	1073,00
-440,26	1038,00
-432,66	1035,00
-425,07	1223,00
-417,49	1128,00
-409,92	1098,00
-402,35	967,00
-394,80	1095,00
-387,25	1201,00
-379,72	1162,00
-372,19	1145,00
-364,67	1295,00
-357,17	1164,00
-349,67	1110,00
-342,18	1143,00
-334,69	1199,00
-327,22	1220,00
-319,76	1109,00
-312,30	1263,00
-304,86	1222,00
-297,42	1154,00
-290,00	1162,00
-282,58	1079,00
-275,17	1285,00
-267,77	1230,00
-260,37	1188,00
-252,99	1253,00
-245,62	1206,00
-238,25	1073,00
-230,90	1151,00
-223,55	1315,00
-216,21	1177,00
-208,88	1305,00
-201,56	1252,00
-194,25	1233,00
-186,94	1241,00
-179,65	1236,00
-172,36	1285,00
-165,08	1221,00
-157,81	1400,00
-150,55	1388,00
-143,30	1436,00
-136,06	1330,00
-128,82	1410,00
-121,60	1382,00
-114,38	1463,00
-107,17	1440,00
-99,97	1572,00
-92,78	1514,00
-85,60	1635,00
-78,42	1732,00
-71,25	1801,00
-64,10	1906,00
-56,95	2010,00
-49,81	2168,00
-42,67	2607,00
-35,55	2732,00
-28,43	3456,00
-21,33	4893,00
-14,23	13632,00
-7,14	57775,00
-0,05	57564,00
7,02	57281,00
14,09	44533,00
21,14	12374,00
28,19	5675,00
35,23	4014,00
42,27	3421,00
49,29	2901,00
56,31	2727,00
63,32	2512,00
70,32	2184,00
77,31	1969,00
84,29	1851,00
91,27	1919,00
98,23	1915,00
105,19	1725,00
112,14	1869,00
119,09	2284,00
126,02	3083,00
132,95	3549,00
139,87	3503,00
146,78	3739,00
153,68	3540,00
160,58	3510,00
167,46	3487,00
174,34	3537,00
181,21	3581,00
188,08	3507,00
194,93	3669,00
201,78	3532,00
208,62	3460,00
215,45	3505,00
222,27	3553,00
229,09	3797,00
235,90	3537,00
242,70	3488,00
249,49	3687,00
256,27	3531,00
263,05	3599,00
269,82	3446,00
276,58	3561,00
283,33	3477,00
290,08	3492,00
296,82	3530,00
303,55	3433,00
310,27	3385,00
316,98	3412,00
323,69	3370,00
330,39	3364,00
337,08	3481,00
343,76	3536,00
350,44	3505,00
357,11	3466,00
363,77	3355,00
370,42	3299,00
377,07	3523,00
383,71	3515,00
390,34	3437,00
396,96	3398,00
403,58	3326,00
410,19	3617,00
416,79	3632,00
423,38	3573,00
429,97	3594,00
436,55	3242,00
443,12	3472,00
449,68	3296,00
456,24	3401,00
462,79	3504,00
469,33	3445,00
475,86	3375,00
482,39	3397,00
488,91	3478,00
495,42	3271,00
501,93	3437,00
508,42	3192,00
514,91	3438,00
521,40	3393,00
527,87	3382,00
534,34	3263,00
540,80	3479,00
547,25	3364,00
553,70	3396,00
560,14	3493,00
566,57	3397,00
573,00	3355,00
579,41	3349,00
585,83	3448,00
592,23	3347,00
598,62	3361,00
605,01	3288,00
611,40	3449,00
617,77	3461,00
624,14	3258,00
630,50	3343,00
636,85	3378,00
643,20	3446,00
649,54	3325,00
655,87	3314,00
662,20	3475,00
668,52	3407,00
674,83	3485,00
681,13	3268,00
687,43	3432,00
693,72	3332,00
700,00	3176,00
706,28	3375,00
712,55	3369,00
718,81	3495,00
725,07	3409,00
731,32	3324,00
737,56	3418,00
743,79	3464,00
750,02	3514,00
756,24	3410,00
762,46	3303,00
768,67	3773,00
774,87	3486,00
781,06	3380,00
787,25	3432,00
793,43	3393,00
799,60	3284,00
805,77	3553,00
811,93	3361,00
818,08	3403,00
824,23	3432,00
830,37	3711,00
836,50	3457,00
842,63	3471,00
848,75	3491,00
854,87	3555,00
860,97	3428,00
867,07	3519,00
873,17	3474,00
879,25	3476,00
885,33	3436,00
891,41	3415,00
897,47	3517,00
903,53	3432,00
909,59	3549,00
915,63	3593,00
921,67	3417,00
927,71	3502,00
933,74	3443,00
939,76	3295,00
945,77	3331,00
951,78	3442,00
957,78	3368,00
963,78	3556,00
969,77	3559,00
975,75	3530,00
981,72	3471,00
987,69	5054,00
993,66	3587,00
999,61	3555,00
1005,56	3592,00
1011,51	3421,00
1017,44	3436,00
1023,37	3569,00
1029,30	3604,00
1035,22	3718,00
1041,13	3554,00
1047,03	3471,00
1052,93	3747,00
1058,83	4092,00
1064,71	4240,00
1070,59	4062,00
1076,47	3827,00
1082,33	3792,00
1088,20	3648,00
1094,05	3721,00
1099,90	3546,00
1105,74	3604,00
1111,58	3626,00
1117,41	3739,00
1123,23	3985,00
1129,05	4350,00
1134,86	4307,00
1140,67	3926,00
1146,47	3831,00
1152,26	3667,00
1158,05	3464,00
1163,83	3703,00
1169,60	3805,00
1175,37	3726,00
1181,13	3675,00
1186,89	3651,00
1192,64	3743,00
1198,38	3811,00
1204,12	3677,00
1209,85	3721,00
1215,58	3708,00
1221,30	3733,00
1227,02	3786,00
1232,72	3780,00
1238,43	3589,00
1244,12	3809,00
1249,81	3721,00
1255,50	3851,00
1261,17	3780,00
1266,85	3801,00
1272,51	3805,00
1278,17	3945,00
1283,83	3810,00
1289,47	4144,00
1295,12	4703,00
1300,75	4449,00
1306,38	4207,00
1312,01	3931,00
1317,63	3749,00
1323,24	3725,00
1328,85	3886,00
1334,45	3728,00
1340,04	3701,00
1345,63	3596,00
1351,22	3960,00
1356,80	3666,00
1362,37	3772,00
1367,93	3799,00
1373,49	3743,00
1379,05	3725,00
1384,60	3731,00
1390,14	3758,00
1395,68	3858,00
1401,21	3752,00
1406,74	3958,00
1412,26	4001,00
1417,77	4288,00
1423,28	4045,00
1428,78	4282,00
1434,28	4587,00
1439,77	4645,00
1445,26	4597,00
1450,74	4528,00
1456,22	4531,00
1461,68	4465,00
1467,15	4310,00
1472,61	4113,00
1478,06	4196,00
1483,51	3904,00
1488,95	3826,00
1494,38	3921,00
1499,81	3691,00
1505,24	3621,00
1510,65	3802,00
1516,07	3849,00
1521,48	3608,00
1526,88	3502,00
1532,27	3696,00
1537,67	3575,00
1543,05	3728,00
1548,43	3465,00
1553,81	3586,00
1559,18	3543,00
1564,54	3629,00
1569,90	3578,00
1575,25	3433,00
1580,60	3344,00
1585,94	3616,00
1591,28	3592,00
1596,61	3372,00
1601,93	3500,00
1607,25	3617,00
1612,57	3512,00
1617,88	3510,00
1623,18	3474,00
1628,48	3567,00
1633,77	3532,00
1639,06	3619,00
1644,34	3453,00
1649,62	3478,00
1654,89	3616,00
1660,16	3400,00
1665,42	3572,00
1670,67	3490,00
1675,92	3425,00
1681,17	3441,00
1686,41	3466,00
1691,64	3561,00
1696,87	3403,00
1702,10	3339,00
1707,32	3507,00
1712,53	3455,00
1717,74	3404,00
1722,94	3450,00
1728,14	3416,00
1733,33	3256,00
1738,52	3313,00
1743,70	3513,00
1748,88	3333,00
1754,05	3326,00
1759,22	3249,00
1764,38	4837,00
1769,53	3269,00
1774,69	3445,00
1779,83	3274,00
1784,97	3262,00
1790,11	3229,00
1795,24	3307,00
1800,36	3384,00
1805,48	3185,00
1810,60	3258,00
1815,71	3179,00
1820,82	3099,00
1825,92	3204,00
1831,01	3156,00
1836,10	3191,00
1841,19	3212,00
1846,26	3172,00
1851,34	3192,00
1856,41	3293,00
1861,47	3274,00
1866,53	3203,00
1871,59	3191,00
1876,64	3177,00
1881,68	3254,00
1886,72	3256,00
1891,76	3140,00
1896,79	3233,00
1901,81	2975,00
1906,83	3191,00
1911,85	3094,00
1916,86	3129,00
1921,86	3042,00
1926,86	3096,00
1931,86	3115,00
1936,85	3110,00
1941,83	3050,00
1946,81	3060,00
1951,79	3046,00
1956,76	3040,00
1961,72	2935,00
1966,68	2885,00
1971,64	2876,00
1976,59	2993,00
1981,54	2928,00
1986,48	2970,00
1991,42	2949,00
1996,35	3324,00
2001,27	2874,00
2006,20	2940,00
2011,11	3052,00
2016,03	2950,00
2020,93	2989,00
2025,84	2922,00
2030,73	2860,00
2035,63	2799,00
2040,52	2972,00
2045,40	2877,00
2050,28	2882,00
2055,15	2801,00
2060,02	2762,00
2064,89	2900,00
2069,75	2866,00
2074,60	2878,00
2079,46	2756,00
2084,30	2737,00
2089,14	2750,00
2093,98	2883,00
2098,81	2894,00
2103,64	2876,00
2108,46	2827,00
2113,28	2773,00
2118,09	2815,00
2122,90	2834,00
2127,70	2753,00
2132,50	2854,00
2137,30	2828,00
2142,09	2653,00
2146,87	2641,00
2151,66	2840,00
2156,43	2875,00
2161,20	2741,00
2165,97	2876,00
2170,73	2723,00
2175,49	2838,00
2180,24	2814,00
2184,99	2971,00
2189,74	2818,00
2194,48	2799,00
2199,21	2849,00
2203,94	2510,00
2208,67	2626,00
2213,39	2532,00
2218,11	2686,00
2222,82	2691,00
2227,53	2554,00
2232,23	2759,00
2236,93	2633,00
2241,63	2712,00
2246,32	2638,00
2251,00	2606,00
2255,68	2670,00
2260,36	2758,00
2265,03	2715,00
2269,70	2823,00
2274,36	2554,00
2279,02	2585,00
2283,68	2616,00
2288,33	2529,00
2292,97	2671,00
2297,61	2623,00
2302,25	2557,00
2306,88	2518,00
2311,51	2443,00
2316,14	2516,00
2320,75	2593,00
2325,37	2414,00
2329,98	2706,00
2334,59	2435,00
2339,19	2420,00
2343,79	2375,00
2348,38	2536,00
2352,97	2426,00
2357,55	2616,00
2362,13	2572,00
2366,71	2398,00
2371,28	2514,00
2375,85	2548,00
2380,41	2548,00
2384,97	2405,00
2389,52	2427,00
2394,07	2562,00
2398,62	2549,00
2403,16	2310,00
2407,70	2360,00
2412,23	2481,00
2416,76	2504,00
2421,29	2430,00
2425,81	2466,00
2430,32	2424,00
2434,84	2210,00
2439,34	2430,00
2443,85	2490,00
2448,35	2335,00
2452,84	2274,00
2457,33	2343,00
2461,82	2216,00
2466,30	2224,00
2470,78	2387,00
2475,25	2222,00
2479,72	2359,00
2484,19	2268,00
2488,65	2433,00
2493,11	2132,00
2497,56	2322,00
2502,01	2095,00
2506,46	2345,00
2510,90	2214,00
2515,34	2257,00
2519,77	2327,00
2524,20	2113,00
2528,62	2247,00
2533,04	2291,00
2537,46	2068,00
2541,87	2134,00
2546,28	2084,00
2550,68	2191,00
2555,08	2050,00
2559,48	2122,00
2563,87	2075,00
2568,26	2079,00
2572,64	2167,00
2577,02	2167,00
2581,40	1981,00
2585,77	1985,00
2590,14	2064,00
2594,50	1979,00
2598,86	2050,00
2603,22	2077,00
2607,57	2153,00
2611,92	2068,00
2616,26	2162,00
2620,60	2102,00
2624,94	1951,00
2629,27	2318,00
2633,60	1929,00
2637,92	2158,00
2642,24	2150,00
2646,56	2048,00
2650,87	2032,00
2655,18	2185,00
2659,48	1875,00
2663,78	2005,00
2668,08	1958,00
2672,37	2021,00
2676,66	2114,00
2680,95	2081,00
2685,23	1994,00
2689,50	1963,00
2693,78	2015,00
2698,05	1969,00
2702,31	1983,00
2706,57	2074,00
2710,83	2160,00
2715,08	2048,00
2719,33	2308,00
2723,58	2207,00
2727,82	2145,00
2732,06	2146,00
2736,29	2049,00
2740,53	2177,00
2744,75	2030,00
2748,97	2082,00
2753,19	2043,00
2757,41	2070,00
2761,62	2161,00
2765,83	2137,00
2770,03	1938,00
2774,23	1945,00
2778,43	1899,00
2782,62	2016,00
2786,81	2016,00
2791,00	2062,00
2795,18	2110,00
2799,35	2098,00
2803,53	2153,00
2807,70	2062,00
2811,86	1870,00
2816,03	2227,00
2820,19	2121,00
2824,34	2121,00
2828,49	2083,00
2832,64	2324,00
2836,78	2455,00
2840,92	2469,00
2845,06	2936,00
2849,19	2948,00
2853,32	3116,00
2857,45	2992,00
2861,57	2963,00
2865,69	2974,00
2869,80	2866,00
2873,91	2873,00
2878,02	3094,00
2882,12	3325,00
2886,22	3208,00
2890,32	3127,00
2894,41	3024,00
2898,50	2787,00
2902,58	2713,00
2906,67	2790,00
2910,74	2520,00
2914,82	2509,00
2918,89	2412,00
2922,96	2343,00
2927,02	2274,00
2931,08	2128,00
2935,13	2026,00
2939,19	2187,00
2943,24	2071,00
2947,28	1989,00
2951,32	1920,00
2955,36	1884,00
2959,40	2059,00
2963,43	1983,00
2967,46	1798,00
2971,48	1734,00
2975,50	1835,00
2979,52	1833,00
2983,53	1819,00
2987,54	1749,00
2991,55	1758,00
2995,55	1667,00
2999,55	1519,00
3003,54	1660,00
3007,54	1728,00
3011,53	1664,00
3015,51	1573,00
3019,49	1768,00
3023,47	1505,00
3027,45	1529,00
3031,42	1527,00
3035,39	1551,00
3039,35	1514,00
3043,31	1636,00
3047,27	1644,00
3051,22	1664,00
3055,17	1384,00
3059,12	1413,00
3063,06	1546,00
3067,00	1388,00
3070,94	1520,00
3074,87	1529,00
3078,80	1581,00
3082,73	1489,00
3086,65	1461,00
3090,57	1447,00
3094,49	1474,00
3098,40	1526,00
3102,31	1444,00
3106,22	1598,00
3110,12	1621,00
3114,02	1460,00
3117,92	1553,00
3121,81	1311,00
3125,70	1446,00
3129,58	1398,00
3133,47	1407,00
3137,34	1553,00
3141,22	1507,00
3145,09	1587,00
3148,96	1349,00
3152,83	1298,00
3156,69	1481,00
3160,55	1272,00
3164,40	1436,00
3168,26	1385,00
3172,10	1567,00
3175,95	1527,00
3179,79	1505,00
3183,63	1460,00
3187,47	1394,00
3191,30	1351,00
3195,13	1451,00
3198,95	1239,00
3202,78	1442,00
3206,60	1256,00
3210,41	1213,00
3214,23	1278,00
3218,03	1334,00
3221,84	1307,00
3225,64	1247,00
3229,44	1397,00
3233,24	1313,00
3237,03	1342,00
3240,82	1320,00
3244,61	1242,00
3248,39	1260,00
3252,17	1359,00
3255,95	1439,00
3259,72	1439,00
3263,49	1596,00
3267,26	1257,00
3271,03	1244,00
3274,79	1232,00
3278,54	1261,00
3282,30	1174,00
3286,05	1331,00
3289,80	1398,00
3293,54	1242,00
3297,29	1407,00
3301,02	1265,00
3304,76	1304,00
3308,49	1309,00
3312,22	1280,00
3315,95	1245,00
3319,67	1294,00
3323,39	1346,00
3327,10	1450,00
3330,82	1173,00
3334,53	1237,00
3338,24	1265,00
3341,94	1237,00
3345,64	1145,00
3349,34	1228,00
3353,03	1305,00
3356,72	1247,00
3360,41	1427,00
3364,10	1322,00
3367,78	1157,00
3371,46	1214,00
3375,13	1294,00
3378,81	1274,00
3382,48	1209,00
3386,14	1381,00
3389,81	1278,00
3393,47	1241,00
3397,12	1420,00
3400,78	1243,00
3404,43	1275,00
3408,08	1246,00
3411,72	1192,00
3415,36	1214,00
3419,00	1230,00
3422,64	1180,00
3426,27	1208,00
3429,90	1202,00
3433,53	1184,00
3437,15	1156,00
3440,77	1100,00
3444,39	1171,00
3448,00	1323,00
3451,62	1180,00
3455,22	1127,00
3458,83	1177,00
3462,43	1211,00
3466,03	1312,00
3469,63	1243,00
3473,22	1260,00
3476,81	1161,00
3480,40	1275,00
3483,99	1182,00
3487,57	1319,00
3491,15	1199,00
3494,72	1123,00
3498,29	1177,00
3501,86	1146,00
3505,43	1254,00
3508,99	1157,00
3512,56	1206,00
3516,11	1337,00
3519,67	1089,00
3523,22	1236,00
3526,77	1228,00
3530,32	1207,00
3533,86	1189,00
3537,40	1291,00
3540,94	1295,00
3544,47	1126,00
3548,00	1090,00
3551,53	1255,00
3555,06	1052,00
3558,58	1281,00
3562,10	1159,00
3565,62	1262,00
3569,13	1198,00
3572,64	1211,00
3576,15	1032,00
3579,66	1127,00
3583,16	1193,00
3586,66	1074,00
3590,16	1134,00
3593,65	1072,00
3597,14	1101,00
3600,63	1103,00
3604,11	1315,00
3607,60	1078,00
3611,08	1080,00
3614,55	1150,00
3618,03	982,00
3621,50	1077,00
3624,97	1063,00
3628,43	1235,00
3631,90	1108,00
3635,36	972,00
3638,81	1131,00
3642,27	1224,00
3645,72	1133,00
3649,17	1220,00
3652,61	1020,00
3656,06	942,00
3659,50	1023,00
3662,93	1016,00
3666,37	1101,00
3669,80	1250,00
3673,23	1068,00
3676,65	1174,00
3680,08	1231,00
3683,50	1039,00
3686,92	1136,00
3690,33	1001,00
3693,74	991,00
3697,15	880,00
3700,56	1040,00
3703,96	1143,00
3707,36	941,00
3710,76	963,00
3714,16	985,00
3717,55	941,00
3720,94	1122,00
3724,33	1024,00
3727,71	1223,00
3731,10	999,00
3734,48	979,00
3737,85	926,00
3741,23	917,00
3744,60	1063,00
3747,97	961,00
3751,33	977,00
3754,69	1017,00
3758,05	997,00
3761,41	896,00
3764,77	955,00
3768,12	833,00
3771,47	846,00
3774,82	967,00
3778,16	-15,00
3781,50	15,00
3784,84	5,00
3788,18	13,00
>>>>>End Processed Spectral Data<<<<<
