SpectraSuite Data File
++++++++++++++++++++++++++++++++++++
Date: Mon Mar 09 14:32:35 ICT 2026
User: Administrator
Dark Spectrum Present: Yes
Reference Spectrum Present: No
Number of Sampled Component Spectra: 1
Spectrometers: MAYP113682
Integration Time (usec): 3000000 (MAYP113682)
Spectra Averaged: 1 (MAYP113682)
Boxcar Smoothing: 0 (MAYP113682)
Correct for Electrical Dark: No (MAYP113682)
Strobe/Lamp Enabled: No (MAYP113682)
Correct for Detector Non-linearity: No (MAYP113682)
Correct for Stray Light: No (MAYP113682)
Number of Pixels in Processed Spectrum: 2068
>>>>>Begin Processed Spectral Data<<<<<
-37534,58	9,00
-37414,56	8,00
-37295,11	8,00
-37176,24	5,00
-37057,95	250,00
-36940,22	84,00
-36823,05	213,00
-36706,45	217,00
-36590,40	86,00
-36474,90	241,00
-36359,95	241,00
-36245,55	188,00
-36131,68	189,00
-36018,35	155,00
-35905,55	165,00
-35793,29	135,00
-35681,54	215,00
-35570,32	131,00
-35459,62	171,00
-35349,43	223,00
-35239,75	229,00
-35130,58	185,00
-35021,91	231,00
-34913,74	244,00
-34806,07	212,00
-34698,89	178,00
-34592,20	173,00
-34486,00	160,00
-34380,28	221,00
-34275,04	232,00
-34170,27	235,00
-34065,98	208,00
-33962,16	159,00
-33858,81	230,00
-33755,92	198,00
-33653,49	221,00
-33551,52	216,00
-33450,01	141,00
-33348,94	202,00
-33248,33	140,00
-33148,16	124,00
-33048,43	127,00
-32949,14	288,00
-32850,29	220,00
-32751,87	232,00
-32653,89	161,00
-32556,33	250,00
-32459,20	218,00
-32362,49	159,00
-32266,19	159,00
-32170,32	185,00
-32074,86	94,00
-31979,82	149,00
-31885,18	249,00
-31790,95	283,00
-31697,12	255,00
-31603,69	302,00
-31510,67	255,00
-31418,04	230,00
-31325,80	187,00
-31233,95	257,00
-31142,49	249,00
-31051,42	142,00
-30960,73	132,00
-30870,43	245,00
-30780,50	163,00
-30690,95	233,00
-30601,77	191,00
-30512,97	225,00
-30424,53	176,00
-30336,46	245,00
-30248,76	276,00
-30161,42	195,00
-30074,44	161,00
-29987,81	265,00
-29901,55	283,00
-29815,63	231,00
-29730,07	97,00
-29644,86	277,00
-29560,00	203,00
-29475,48	167,00
-29391,30	228,00
-29307,47	162,00
-29223,97	220,00
-29140,81	170,00
-29057,99	198,00
-28975,50	252,00
-28893,34	263,00
-28811,51	187,00
-28730,00	209,00
-28648,82	268,00
-28567,97	327,00
-28487,43	240,00
-28407,21	207,00
-28327,32	281,00
-28247,73	195,00
-28168,46	198,00
-28089,50	257,00
-28010,85	186,00
-27932,51	204,00
-27854,48	263,00
-27776,75	273,00
-27699,32	326,00
-27622,19	330,00
-27545,37	177,00
-27468,84	112,00
-27392,60	240,00
-27316,66	243,00
-27241,01	302,00
-27165,66	289,00
-27090,59	175,00
-27015,81	153,00
-26941,31	160,00
-26867,10	158,00
-26793,17	280,00
-26719,52	243,00
-26646,15	295,00
-26573,06	184,00
-26500,24	177,00
-26427,70	152,00
-26355,43	197,00
-26283,43	166,00
-26211,71	203,00
-26140,25	302,00
-26069,06	212,00
-25998,13	201,00
-25927,46	214,00
-25857,06	189,00
-25786,92	187,00
-25717,04	150,00
-25647,42	204,00
-25578,05	171,00
-25508,94	217,00
-25440,09	228,00
-25371,48	254,00
-25303,13	217,00
-25235,02	217,00
-25167,17	208,00
-25099,56	232,00
-25032,19	180,00
-24965,07	321,00
-24898,20	257,00
-24831,56	239,00
-24765,17	203,00
-24699,01	126,00
-24633,10	173,00
-24567,41	244,00
-24501,97	206,00
-24436,75	242,00
-24371,77	253,00
-24307,03	279,00
-24242,51	185,00
-24178,22	241,00
-24114,16	217,00
-24050,32	332,00
-23986,71	140,00
-23923,32	190,00
-23860,16	196,00
-23797,22	226,00
-23734,50	199,00
-23672,00	194,00
-23609,71	194,00
-23547,65	189,00
-23485,80	281,00
-23424,16	152,00
-23362,74	258,00
-23301,53	183,00
-23240,54	232,00
-23179,75	210,00
-23119,17	185,00
-23058,80	146,00
-22998,64	222,00
-22938,68	214,00
-22878,93	240,00
-22819,39	212,00
-22760,04	154,00
-22700,90	245,00
-22641,96	203,00
-22583,22	249,00
-22524,68	275,00
-22466,33	180,00
-22408,19	206,00
-22350,23	276,00
-22292,48	200,00
-22234,92	226,00
-22177,55	197,00
-22120,37	257,00
-22063,38	258,00
-22006,58	91,00
-21949,98	222,00
-21893,56	159,00
-21837,33	239,00
-21781,28	236,00
-21725,42	135,00
-21669,74	277,00
-21614,25	243,00
-21558,94	268,00
-21503,81	253,00
-21448,86	204,00
-21394,10	178,00
-21339,51	304,00
-21285,10	114,00
-21230,86	171,00
-21176,81	142,00
-21122,93	176,00
-21069,22	287,00
-21015,69	206,00
-20962,33	294,00
-20909,14	205,00
-20856,13	202,00
-20803,28	285,00
-20750,61	203,00
-20698,10	167,00
-20645,76	220,00
-20593,59	273,00
-20541,59	252,00
-20489,75	228,00
-20438,07	116,00
-20386,56	172,00
-20335,22	229,00
-20284,03	189,00
-20233,01	230,00
-20182,15	284,00
-20131,45	232,00
-20080,91	154,00
-20030,52	125,00
-19980,30	216,00
-19930,23	205,00
-19880,32	124,00
-19830,56	145,00
-19780,96	281,00
-19731,52	206,00
-19682,23	247,00
-19633,09	246,00
-19584,10	206,00
-19535,26	258,00
-19486,58	184,00
-19438,04	152,00
-19389,66	203,00
-19341,42	167,00
-19293,33	252,00
-19245,39	198,00
-19197,60	193,00
-19149,95	178,00
-19102,45	221,00
-19055,09	229,00
-19007,87	208,00
-18960,80	235,00
-18913,87	325,00
-18867,09	181,00
-18820,44	222,00
-18773,94	260,00
-18727,57	182,00
-18681,35	188,00
-18635,26	203,00
-18589,31	123,00
-18543,50	202,00
-18497,83	211,00
-18452,29	281,00
-18406,89	193,00
-18361,63	202,00
-18316,50	204,00
-18271,50	191,00
-18226,63	247,00
-18181,90	189,00
-18137,30	240,00
-18092,84	130,00
-18048,50	224,00
-18004,29	219,00
-17960,22	248,00
-17916,27	196,00
-17872,45	144,00
-17828,76	224,00
-17785,20	264,00
-17741,77	178,00
-17698,46	210,00
-17655,28	124,00
-17612,22	98,00
-17569,29	209,00
-17526,48	190,00
-17483,79	231,00
-17441,23	267,00
-17398,79	264,00
-17356,48	109,00
-17314,28	296,00
-17272,21	156,00
-17230,26	183,00
-17188,42	216,00
-17146,71	234,00
-17105,12	219,00
-17063,64	199,00
-17022,28	214,00
-16981,04	213,00
-16939,92	160,00
-16898,91	175,00
-16858,02	225,00
-16817,25	190,00
-16776,59	153,00
-16736,04	212,00
-16695,61	185,00
-16655,29	195,00
-16615,09	221,00
-16574,99	128,00
-16535,01	163,00
-16495,15	257,00
-16455,39	219,00
-16415,74	277,00
-16376,21	275,00
-16336,78	215,00
-16297,46	186,00
-16258,26	249,00
-16219,16	245,00
-16180,17	334,00
-16141,28	208,00
-16102,51	134,00
-16063,84	223,00
-16025,27	105,00
-15986,82	172,00
-15948,46	209,00
-15910,22	158,00
-15872,07	148,00
-15834,04	248,00
-15796,10	279,00
-15758,27	221,00
-15720,54	196,00
-15682,91	193,00
-15645,39	229,00
-15607,97	270,00
-15570,64	225,00
-15533,42	151,00
-15496,30	242,00
-15459,28	245,00
-15422,36	241,00
-15385,54	243,00
-15348,82	224,00
-15312,19	173,00
-15275,66	143,00
-15239,23	194,00
-15202,90	233,00
-15166,67	195,00
-15130,53	194,00
-15094,48	137,00
-15058,54	268,00
-15022,68	164,00
-14986,93	194,00
-14951,26	240,00
-14915,69	302,00
-14880,22	318,00
-14844,84	142,00
-14809,55	276,00
-14774,35	185,00
-14739,25	210,00
-14704,24	157,00
-14669,32	197,00
-14634,49	147,00
-14599,75	161,00
-14565,10	189,00
-14530,55	323,00
-14496,08	245,00
-14461,70	205,00
-14427,41	209,00
-14393,21	163,00
-14359,10	168,00
-14325,07	202,00
-14291,14	318,00
-14257,29	198,00
-14223,52	218,00
-14189,85	245,00
-14156,26	212,00
-14122,76	177,00
-14089,34	252,00
-14056,01	280,00
-14022,76	190,00
-13989,60	195,00
-13956,52	262,00
-13923,53	218,00
-13890,62	260,00
-13857,79	193,00
-13825,05	208,00
-13792,39	214,00
-13759,81	159,00
-13727,31	226,00
-13694,90	274,00
-13662,57	193,00
-13630,31	280,00
-13598,14	222,00
-13566,05	199,00
-13534,05	255,00
-13502,12	209,00
-13470,27	270,00
-13438,50	200,00
-13406,80	197,00
-13375,19	221,00
-13343,66	161,00
-13312,20	148,00
-13280,83	209,00
-13249,53	204,00
-13218,30	245,00
-13187,16	165,00
-13156,09	251,00
-13125,10	156,00
-13094,18	212,00
-13063,34	331,00
-13032,58	153,00
-13001,89	307,00
-12971,28	218,00
-12940,74	263,00
-12910,27	229,00
-12879,88	248,00
-12849,57	163,00
-12819,33	207,00
-12789,16	218,00
-12759,06	169,00
-12729,04	311,00
-12699,09	1288,00
-12669,21	182,00
-12639,41	204,00
-12609,68	239,00
-12580,02	210,00
-12550,43	90,00
-12520,91	350,00
-12491,46	243,00
-12462,08	203,00
-12432,77	225,00
-12403,54	218,00
-12374,37	213,00
-12345,27	179,00
-12316,24	253,00
-12287,29	186,00
-12258,40	150,00
-12229,57	122,00
-12200,82	228,00
-12172,14	259,00
-12143,52	169,00
-12114,97	270,00
-12086,49	217,00
-12058,07	215,00
-12029,73	251,00
-12001,44	197,00
-11973,23	164,00
-11945,08	199,00
-11917,00	155,00
-11888,98	209,00
-11861,03	239,00
-11833,15	207,00
-11805,32	173,00
-11777,57	234,00
-11749,88	234,00
-11722,25	169,00
-11694,69	111,00
-11667,19	195,00
-11639,75	284,00
-11612,38	228,00
-11585,07	156,00
-11557,83	200,00
-11530,65	269,00
-11503,53	201,00
-11476,47	150,00
-11449,48	235,00
-11422,54	164,00
-11395,67	196,00
-11368,86	211,00
-11342,11	258,00
-11315,43	238,00
-11288,80	184,00
-11262,23	271,00
-11235,73	211,00
-11209,28	247,00
-11182,90	291,00
-11156,57	272,00
-11130,31	317,00
-11104,10	183,00
-11077,96	262,00
-11051,87	266,00
-11025,84	205,00
-10999,87	197,00
-10973,96	191,00
-10948,11	186,00
-10922,31	171,00
-10896,58	181,00
-10870,90	260,00
-10845,28	260,00
-10819,71	191,00
-10794,20	280,00
-10768,75	192,00
-10743,36	213,00
-10718,02	145,00
-10692,74	134,00
-10667,52	266,00
-10642,35	120,00
-10617,24	173,00
-10592,18	181,00
-10567,18	191,00
-10542,23	166,00
-10517,34	181,00
-10492,51	168,00
-10467,72	150,00
-10443,00	185,00
-10418,32	175,00
-10393,70	93,00
-10369,14	130,00
-10344,63	96,00
-10320,17	159,00
-10295,77	112,00
-10271,42	132,00
-10247,12	101,00
-10222,88	154,00
-10198,68	90,00
-10174,54	50,00
-10150,46	95,00
-10126,42	60,00
-10102,44	-95,00
-10078,51	-10,00
-10054,63	-2,00
-10030,80	-121,00
-10007,03	38,00
-9983,30	-68,00
-9959,63	-91,00
-9936,01	-200,00
-9912,44	-131,00
-9888,92	-237,00
-9865,44	-193,00
-9842,02	-230,00
-9818,65	-308,00
-9795,33	-182,00
-9772,06	-316,00
-9748,84	-311,00
-9725,67	-315,00
-9702,55	-464,00
-9679,47	-392,00
-9656,45	-597,00
-9633,47	-577,00
-9610,55	-580,00
-9587,67	-646,00
-9564,84	-854,00
-9542,06	-913,00
-9519,32	-971,00
-9496,64	-1173,00
-9474,00	-1303,00
-9451,41	-1358,00
-9428,87	-1355,00
-9406,37	-1389,00
-9383,92	-1284,00
-9361,52	-1303,00
-9339,17	-1416,00
-9316,86	-1577,00
-9294,60	-1906,00
-9272,38	-2000,00
-9250,21	-2167,00
-9228,09	-2415,00
-9206,01	-2345,00
-9183,98	-2133,00
-9162,00	-2045,00
-9140,06	-1907,00
-9118,16	-1986,00
-9096,31	-2087,00
-9074,51	-2108,00
-9052,75	-2007,00
-9031,04	-1993,00
-9009,37	-1944,00
-8987,74	-1640,00
-8966,16	-1481,00
-8944,63	-1522,00
-8923,14	-1377,00
-8901,69	-1225,00
-8880,29	-1423,00
-8858,93	-1370,00
-8837,61	-1572,00
-8816,34	-1616,00
-8795,11	-1746,00
-8773,92	-1576,00
-8752,78	-1444,00
-8731,68	-1365,00
-8710,62	-1446,00
-8689,61	-1624,00
-8668,63	-1591,00
-8647,70	-1509,00
-8626,82	-1606,00
-8605,97	-1531,00
-8585,17	-1473,00
-8564,41	-1419,00
-8543,69	-1078,00
-8523,01	-1292,00
-8502,37	-1187,00
-8481,78	-1339,00
-8461,23	-1505,00
-8440,71	-1666,00
-8420,24	-1684,00
-8399,81	-1625,00
-8379,42	-1661,00
-8359,08	-1373,00
-8338,77	-1269,00
-8318,50	-1245,00
-8298,27	-1170,00
-8278,09	-1241,00
-8257,94	-1376,00
-8237,83	-1320,00
-8217,76	-1502,00
-8197,74	-1578,00
-8177,75	-1332,00
-8157,80	-1376,00
-8137,89	-1172,00
-8118,02	-1117,00
-8098,19	-1052,00
-8078,40	-1130,00
-8058,65	-1210,00
-8038,93	-1101,00
-8019,26	-1083,00
-7999,62	-1099,00
-7980,02	-1143,00
-7960,46	-945,00
-7940,94	-983,00
-7921,46	-973,00
-7902,01	-845,00
-7882,60	-839,00
-7863,23	-988,00
-7843,90	-909,00
-7824,61	-1027,00
-7805,35	-841,00
-7786,13	-1063,00
-7766,95	-1048,00
-7747,80	-979,00
-7728,69	-1056,00
-7709,62	-871,00
-7690,59	-1099,00
-7671,59	-1141,00
-7652,63	-1108,00
-7633,70	-1174,00
-7614,81	-1046,00
-7595,96	-903,00
-7577,15	-825,00
-7558,37	-834,00
-7539,62	-870,00
-7520,91	-963,00
-7502,24	-1069,00
-7483,60	-1073,00
-7465,00	-940,00
-7446,44	-999,00
-7427,91	-705,00
-7409,41	-611,00
-7390,95	-666,00
-7372,53	-636,00
-7354,14	-603,00
-7335,78	-686,00
-7317,46	-588,00
-7299,18	-726,00
-7280,92	-845,00
-7262,71	-969,00
-7244,52	-1010,00
-7226,38	-1013,00
-7208,26	-970,00
-7190,18	-966,00
-7172,14	-799,00
-7154,12	-808,00
-7136,15	-966,00
-7118,20	-964,00
-7100,29	-1008,00
-7082,41	-954,00
-7064,57	-994,00
-7046,76	-970,00
-7028,98	-830,00
-7011,24	-723,00
-6993,53	-619,00
-6975,85	-483,00
-6958,20	-431,00
-6940,59	-471,00
-6923,01	-500,00
-6905,46	-546,00
-6887,94	-641,00
-6870,46	-2749,00
-6853,01	-906,00
-6835,59	-885,00
-6818,21	-741,00
-6800,85	-740,00
-6783,53	-488,00
-6766,24	-467,00
-6748,98	-425,00
-6731,76	-276,00
-6714,56	-358,00
-6697,40	-285,00
-6680,26	-295,00
-6663,16	-362,00
-6646,09	-502,00
-6629,05	-610,00
-6612,05	-661,00
-6595,07	-698,00
-6578,13	-558,00
-6561,21	-442,00
-6544,33	-350,00
-6527,47	-227,00
-6510,65	-315,00
-6493,86	-166,00
-6477,10	-235,00
-6460,36	-295,00
-6443,66	-222,00
-6426,99	-198,00
-6410,35	-189,00
-6393,74	-262,00
-6377,16	-348,00
-6360,61	-363,00
-6344,09	-534,00
-6327,59	-443,00
-6311,13	-425,00
-6294,70	-488,00
-6278,29	-461,00
-6261,92	-529,00
-6245,58	-558,00
-6229,26	-669,00
-6212,97	-569,00
-6196,72	-430,00
-6180,49	-331,00
-6164,29	-162,00
-6148,12	-76,00
-6131,98	-1,00
-6115,86	-51,00
-6099,78	-102,00
-6083,72	-87,00
-6067,69	-65,00
-6051,69	-43,00
-6035,72	-76,00
-6019,78	-99,00
-6003,87	-234,00
-5987,98	-373,00
-5972,12	-432,00
-5956,29	-369,00
-5940,49	-349,00
-5924,71	-237,00
-5908,96	-158,00
-5893,24	-124,00
-5877,55	-137,00
-5861,89	-142,00
-5846,25	-185,00
-5830,64	-131,00
-5815,05	-143,00
-5799,50	-127,00
-5783,97	-133,00
-5768,47	-131,00
-5752,99	-148,00
-5737,55	-332,00
-5722,12	-369,00
-5706,73	-349,00
-5691,36	-273,00
-5676,02	-56,00
-5660,71	-121,00
-5645,42	-175,00
-5630,16	-122,00
-5614,92	-124,00
-5599,71	-237,00
-5584,53	-270,00
-5569,37	-226,00
-5554,24	501,00
-5539,14	-147,00
-5524,06	-92,00
-5509,01	-266,00
-5493,98	-157,00
-5478,98	-302,00
-5464,00	-228,00
-5449,05	-198,00
-5434,13	-109,00
-5419,23	-70,00
-5404,36	-92,00
-5389,51	-205,00
-5374,69	-340,00
-5359,89	-409,00
-5345,12	-392,00
-5330,37	-347,00
-5315,65	-266,00
-5300,95	-248,00
-5286,28	-115,00
-5271,63	-194,00
-5257,01	-138,00
-5242,41	-145,00
-5227,84	-205,00
-5213,29	-193,00
-5198,76	9,00
-5184,26	-55,00
-5169,79	-85,00
-5155,33	-118,00
-5140,91	-191,00
-5126,51	-291,00
-5112,13	-267,00
-5097,77	-212,00
-5083,44	-172,00
-5069,13	-134,00
-5054,85	-129,00
-5040,59	-81,00
-5026,36	-162,00
-5012,15	-243,00
-4997,96	-156,00
-4983,80	-108,00
-4969,66	-78,00
-4955,54	-45,00
-4941,44	-91,00
-4927,37	-281,00
-4913,33	-416,00
-4899,30	-545,00
-4885,30	-356,00
-4871,33	-326,00
-4857,37	-47,00
-4843,44	135,00
-4829,53	22,00
-4815,65	-38,00
-4801,79	-82,00
-4787,95	-39,00
-4774,13	17,00
-4760,34	4,00
-4746,56	115,00
-4732,82	81,00
-4719,09	-95,00
-4705,38	-194,00
-4691,70	-396,00
-4678,04	-392,00
-4664,41	-217,00
-4650,79	4,00
-4637,20	-55,00
-4623,63	45,00
-4610,08	-84,00
-4596,56	-147,00
-4583,05	-138,00
-4569,57	-159,00
-4556,11	-20,00
-4542,67	-31,00
-4529,25	61,00
-4515,86	-23,00
-4502,49	-155,00
-4489,13	-183,00
-4475,80	-250,00
-4462,49	-1,00
-4449,21	96,00
-4435,94	-54,00
-4422,70	-65,00
-4409,47	-117,00
-4396,27	-148,00
-4383,09	-86,00
-4369,93	130,00
-4356,79	131,00
-4343,67	92,00
-4330,58	103,00
-4317,50	-112,00
-4304,45	-95,00
-4291,41	-12,00
-4278,40	93,00
-4265,41	18,00
-4252,44	50,00
-4239,49	-165,00
-4226,55	-51,00
-4213,65	-26,00
-4200,76	108,00
-4187,89	133,00
-4175,04	140,00
-4162,21	137,00
-4149,40	106,00
-4136,61	73,00
-4123,85	187,00
-4111,10	168,00
-4098,37	12,00
-4085,66	-43,00
-4072,98	167,00
-4060,31	203,00
-4047,66	256,00
-4035,04	93,00
-4022,43	244,00
-4009,84	190,00
-3997,27	150,00
-3984,72	184,00
-3972,19	166,00
-3959,69	138,00
-3947,20	216,00
-3934,73	196,00
-3922,27	153,00
-3909,84	163,00
-3897,43	171,00
-3885,04	153,00
-3872,67	178,00
-3860,31	204,00
-3847,98	277,00
-3835,66	259,00
-3823,36	231,00
-3811,09	207,00
-3798,83	191,00
-3786,59	129,00
-3774,37	287,00
-3762,17	266,00
-3749,98	201,00
-3737,82	115,00
-3725,67	275,00
-3713,55	291,00
-3701,44	237,00
-3689,35	204,00
-3677,28	230,00
-3665,22	201,00
-3653,19	199,00
-3641,17	205,00
-3629,18	299,00
-3617,20	195,00
-3605,24	326,00
-3593,30	242,00
-3581,37	207,00
-3569,47	178,00
-3557,58	192,00
-3545,71	213,00
-3533,86	20,00
-3522,02	191,00
-3510,21	239,00
-3498,41	234,00
-3486,63	172,00
-3474,87	216,00
-3463,12	138,00
-3451,40	201,00
-3439,69	225,00
-3428,00	195,00
-3416,33	256,00
-3404,67	256,00
-3393,03	246,00
-3381,41	191,00
-3369,81	198,00
-3358,22	229,00
-3346,66	191,00
-3335,10	216,00
-3323,57	201,00
-3312,06	247,00
-3300,56	256,00
-3289,08	214,00
-3277,61	178,00
-3266,16	171,00
-3254,73	235,00
-3243,32	245,00
-3231,92	217,00
-3220,55	169,00
-3209,18	287,00
-3197,84	178,00
-3186,51	114,00
-3175,20	205,00
-3163,90	272,00
-3152,63	179,00
-3141,36	236,00
-3130,12	331,00
-3118,89	310,00
-3107,68	187,00
-3096,49	271,00
-3085,31	237,00
-3074,15	173,00
-3063,00	325,00
-3051,87	295,00
-3040,76	116,00
-3029,67	301,00
-3018,59	233,00
-3007,52	275,00
-2996,48	165,00
-2985,44	231,00
-2974,43	266,00
-2963,43	238,00
-2952,45	219,00
-2941,48	279,00
-2930,53	220,00
-2919,60	199,00
-2908,68	191,00
-2897,78	161,00
-2886,89	208,00
-2876,02	234,00
-2865,17	262,00
-2854,33	170,00
-2843,50	269,00
-2832,70	238,00
-2821,90	192,00
-2811,13	182,00
-2800,37	260,00
-2789,62	241,00
-2778,89	291,00
-2768,18	222,00
-2757,48	246,00
-2746,80	250,00
-2736,13	235,00
-2725,48	283,00
-2714,84	175,00
-2704,22	162,00
-2693,61	275,00
-2683,02	269,00
-2672,45	181,00
-2661,89	220,00
-2651,34	219,00
-2640,81	270,00
-2630,30	274,00
-2619,80	218,00
-2609,31	268,00
-2598,84	189,00
-2588,39	88,00
-2577,95	246,00
-2567,52	222,00
-2557,11	227,00
-2546,71	168,00
-2536,33	238,00
-2525,97	221,00
-2515,62	199,00
-2505,28	187,00
-2494,96	199,00
-2484,65	202,00
-2474,36	273,00
-2464,08	304,00
-2453,82	219,00
-2443,57	174,00
-2433,33	210,00
-2423,11	248,00
-2412,91	228,00
-2402,72	143,00
-2392,54	239,00
-2382,38	290,00
-2372,23	248,00
-2362,09	331,00
-2351,97	206,00
-2341,87	146,00
-2331,78	288,00
-2321,70	170,00
-2311,64	207,00
-2301,59	210,00
-2291,55	186,00
-2281,53	166,00
-2271,53	198,00
-2261,53	325,00
-2251,55	259,00
-2241,59	167,00
-2231,64	207,00
-2221,70	210,00
-2211,78	183,00
-2201,87	190,00
-2191,97	200,00
-2182,09	200,00
-2172,22	135,00
-2162,37	252,00
-2152,53	223,00
-2142,70	310,00
-2132,89	217,00
-2123,09	291,00
-2113,30	250,00
-2103,53	254,00
-2093,77	206,00
-2084,02	189,00
-2074,29	198,00
-2064,57	216,00
-2054,86	184,00
-2045,17	82,00
-2035,49	241,00
-2025,82	127,00
-2016,17	307,00
-2006,53	239,00
-1996,91	320,00
-1987,29	245,00
-1977,69	231,00
-1968,11	287,00
-1958,53	181,00
-1948,97	220,00
-1939,42	196,00
-1929,89	172,00
-1920,37	157,00
-1910,86	138,00
-1901,36	156,00
-1891,88	289,00
-1882,41	173,00
-1872,95	273,00
-1863,51	223,00
-1854,08	233,00
-1844,66	138,00
-1835,26	204,00
-1825,86	220,00
-1816,48	206,00
-1807,11	236,00
-1797,76	271,00
-1788,42	212,00
-1779,09	245,00
-1769,77	193,00
-1760,47	233,00
-1751,17	261,00
-1741,89	141,00
-1732,63	227,00
-1723,37	296,00
-1714,13	299,00
-1704,90	149,00
-1695,68	115,00
-1686,48	219,00
-1677,29	270,00
-1668,11	218,00
-1658,94	208,00
-1649,78	298,00
-1640,64	279,00
-1631,51	152,00
-1622,39	189,00
-1613,28	180,00
-1604,19	257,00
-1595,10	249,00
-1586,03	160,00
-1576,97	217,00
-1567,93	285,00
-1558,89	223,00
-1549,87	330,00
-1540,86	192,00
-1531,86	274,00
-1522,87	275,00
-1513,90	233,00
-1504,93	265,00
-1495,98	314,00
-1487,04	257,00
-1478,12	151,00
-1469,20	253,00
-1460,30	194,00
-1451,40	281,00
-1442,52	290,00
-1433,65	154,00
-1424,80	237,00
-1415,95	230,00
-1407,12	190,00
-1398,30	181,00
-1389,48	212,00
-1380,69	324,00
-1371,90	182,00
-1363,12	276,00
-1354,36	215,00
-1345,60	295,00
-1336,86	148,00
-1328,13	245,00
-1319,41	253,00
-1310,70	216,00
-1302,01	194,00
-1293,32	215,00
-1284,65	232,00
-1275,99	129,00
-1267,33	199,00
-1258,69	211,00
-1250,06	247,00
-1241,45	216,00
-1232,84	242,00
-1224,25	262,00
-1215,66	239,00
-1207,09	179,00
-1198,53	226,00
-1189,97	156,00
-1181,43	221,00
-1172,91	312,00
-1164,39	201,00
-1155,88	186,00
-1147,38	193,00
-1138,90	209,00
-1130,43	196,00
-1121,96	145,00
-1113,51	201,00
-1105,07	211,00
-1096,64	220,00
-1088,22	176,00
-1079,81	157,00
-1071,41	242,00
-1063,02	155,00
-1054,65	284,00
-1046,28	205,00
-1037,92	233,00
-1029,58	190,00
-1021,24	201,00
-1012,92	238,00
-1004,61	285,00
-996,30	212,00
-988,01	221,00
-979,73	220,00
-971,46	160,00
-963,20	241,00
-954,95	325,00
-946,71	272,00
-938,48	299,00
-930,26	241,00
-922,06	242,00
-913,86	198,00
-905,67	200,00
-897,49	224,00
-889,33	221,00
-881,17	173,00
-873,02	200,00
-864,89	221,00
-856,76	255,00
-848,65	200,00
-840,54	304,00
-832,45	212,00
-824,36	193,00
-816,29	221,00
-808,22	209,00
-800,17	210,00
-792,12	247,00
-784,09	322,00
-776,06	213,00
-768,05	295,00
-760,04	200,00
-752,05	248,00
-744,07	217,00
-736,09	291,00
-728,13	291,00
-720,17	261,00
-712,23	200,00
-704,29	266,00
-696,37	225,00
-688,45	156,00
-680,55	271,00
-672,65	227,00
-664,77	194,00
-656,89	293,00
-649,03	207,00
-641,17	250,00
-633,32	223,00
-625,49	193,00
-617,66	260,00
-609,84	197,00
-602,03	149,00
-594,23	161,00
-586,45	187,00
-578,67	263,00
-570,90	165,00
-563,14	224,00
-555,39	168,00
-547,65	228,00
-539,91	263,00
-532,19	199,00
-524,48	227,00
-516,78	201,00
-509,08	214,00
-501,40	282,00
-493,72	253,00
-486,06	201,00
-478,40	260,00
-470,76	222,00
-463,12	229,00
-455,49	204,00
-447,87	249,00
-440,26	199,00
-432,66	243,00
-425,07	273,00
-417,49	283,00
-409,92	222,00
-402,35	186,00
-394,80	257,00
-387,25	265,00
-379,72	293,00
-372,19	268,00
-364,67	226,00
-357,17	220,00
-349,67	225,00
-342,18	234,00
-334,69	248,00
-327,22	164,00
-319,76	270,00
-312,30	251,00
-304,86	222,00
-297,42	250,00
-290,00	307,00
-282,58	236,00
-275,17	301,00
-267,77	357,00
-260,37	355,00
-252,99	293,00
-245,62	210,00
-238,25	206,00
-230,90	260,00
-223,55	295,00
-216,21	279,00
-208,88	353,00
-201,56	337,00
-194,25	259,00
-186,94	329,00
-179,65	479,00
-172,36	392,00
-165,08	335,00
-157,81	320,00
-150,55	388,00
-143,30	339,00
-136,06	404,00
-128,82	531,00
-121,60	424,00
-114,38	507,00
-107,17	581,00
-99,97	576,00
-92,78	617,00
-85,60	806,00
-78,42	878,00
-71,25	935,00
-64,10	1039,00
-56,95	1225,00
-49,81	1261,00
-42,67	1540,00
-35,55	1922,00
-28,43	2446,00
-21,33	3785,00
-14,23	11728,00
-7,14	58063,00
-0,05	57930,00
7,02	57685,00
14,09	46434,00
21,14	12142,00
28,19	4897,00
35,23	3148,00
42,27	2527,00
49,29	2078,00
56,31	1815,00
63,32	1513,00
70,32	1338,00
77,31	1085,00
84,29	978,00
91,27	864,00
98,23	826,00
105,19	752,00
112,14	801,00
119,09	1069,00
126,02	1454,00
132,95	1565,00
139,87	1645,00
146,78	1737,00
153,68	1628,00
160,58	1600,00
167,46	1579,00
174,34	1556,00
181,21	1615,00
188,08	1504,00
194,93	1412,00
201,78	1464,00
208,62	1564,00
215,45	1561,00
222,27	1482,00
229,09	1564,00
235,90	1525,00
242,70	1421,00
249,49	1411,00
256,27	1479,00
263,05	1478,00
269,82	1468,00
276,58	1453,00
283,33	1358,00
290,08	1432,00
296,82	1444,00
303,55	1362,00
310,27	1358,00
316,98	1431,00
323,69	1355,00
330,39	1406,00
337,08	1332,00
343,76	1422,00
350,44	1413,00
357,11	1347,00
363,77	1309,00
370,42	1319,00
377,07	1365,00
383,71	1240,00
390,34	1302,00
396,96	1217,00
403,58	1239,00
410,19	1454,00
416,79	1437,00
423,38	1368,00
429,97	1382,00
436,55	1210,00
443,12	1278,00
449,68	1155,00
456,24	1250,00
462,79	1261,00
469,33	1231,00
475,86	1331,00
482,39	1289,00
488,91	1226,00
495,42	1312,00
501,93	1319,00
508,42	1208,00
514,91	1255,00
521,40	1266,00
527,87	1260,00
534,34	1264,00
540,80	1165,00
547,25	1289,00
553,70	1208,00
560,14	1214,00
566,57	1270,00
573,00	1346,00
579,41	1258,00
585,83	1221,00
592,23	1246,00
598,62	1210,00
605,01	1222,00
611,40	1247,00
617,77	1274,00
624,14	1270,00
630,50	1178,00
636,85	1158,00
643,20	1157,00
649,54	1111,00
655,87	1218,00
662,20	1264,00
668,52	1194,00
674,83	1245,00
681,13	1157,00
687,43	1239,00
693,72	1173,00
700,00	1193,00
706,28	1171,00
712,55	1253,00
718,81	1126,00
725,07	1139,00
731,32	1172,00
737,56	1281,00
743,79	1211,00
750,02	1137,00
756,24	1178,00
762,46	1291,00
768,67	1300,00
774,87	1154,00
781,06	1275,00
787,25	1319,00
793,43	1217,00
799,60	1239,00
805,77	1143,00
811,93	1196,00
818,08	1147,00
824,23	1201,00
830,37	1256,00
836,50	1166,00
842,63	1196,00
848,75	1280,00
854,87	1276,00
860,97	1219,00
867,07	1262,00
873,17	1282,00
879,25	1168,00
885,33	1190,00
891,41	1284,00
897,47	1284,00
903,53	1217,00
909,59	1216,00
915,63	1259,00
921,67	1168,00
927,71	1207,00
933,74	1214,00
939,76	1189,00
945,77	1233,00
951,78	1235,00
957,78	1104,00
963,78	1215,00
969,77	1186,00
975,75	1352,00
981,72	1248,00
987,69	1457,00
993,66	1224,00
999,61	1290,00
1005,56	1159,00
1011,51	1148,00
1017,44	1244,00
1023,37	1322,00
1029,30	1348,00
1035,22	1270,00
1041,13	1288,00
1047,03	1423,00
1052,93	1426,00
1058,83	1740,00
1064,71	1875,00
1070,59	1607,00
1076,47	1483,00
1082,33	1423,00
1088,20	1415,00
1094,05	1419,00
1099,90	1356,00
1105,74	1303,00
1111,58	1364,00
1117,41	1410,00
1123,23	1611,00
1129,05	2031,00
1134,86	1868,00
1140,67	1499,00
1146,47	1418,00
1152,26	1369,00
1158,05	1296,00
1163,83	1332,00
1169,60	1357,00
1175,37	1298,00
1181,13	1346,00
1186,89	1335,00
1192,64	1259,00
1198,38	1197,00
1204,12	1217,00
1209,85	1245,00
1215,58	1139,00
1221,30	1268,00
1227,02	1205,00
1232,72	1247,00
1238,43	1298,00
1244,12	1290,00
1249,81	1289,00
1255,50	1279,00
1261,17	1253,00
1266,85	1366,00
1272,51	1373,00
1278,17	1408,00
1283,83	1488,00
1289,47	1722,00
1295,12	2144,00
1300,75	2047,00
1306,38	1654,00
1312,01	1604,00
1317,63	1448,00
1323,24	1331,00
1328,85	1444,00
1334,45	1369,00
1340,04	1324,00
1345,63	1300,00
1351,22	1457,00
1356,80	1424,00
1362,37	1325,00
1367,93	1463,00
1373,49	1428,00
1379,05	1424,00
1384,60	1365,00
1390,14	1327,00
1395,68	1361,00
1401,21	1352,00
1406,74	1507,00
1412,26	1539,00
1417,77	1741,00
1423,28	1776,00
1428,78	1756,00
1434,28	1973,00
1439,77	2195,00
1445,26	2097,00
1450,74	1989,00
1456,22	1860,00
1461,68	1943,00
1467,15	1884,00
1472,61	1814,00
1478,06	1645,00
1483,51	1386,00
1488,95	1360,00
1494,38	1525,00
1499,81	1293,00
1505,24	1308,00
1510,65	1296,00
1516,07	1247,00
1521,48	1349,00
1526,88	1223,00
1532,27	1288,00
1537,67	1274,00
1543,05	1268,00
1548,43	1167,00
1553,81	1149,00
1559,18	1180,00
1564,54	1194,00
1569,90	1222,00
1575,25	1210,00
1580,60	1147,00
1585,94	1182,00
1591,28	1183,00
1596,61	1135,00
1601,93	1166,00
1607,25	1161,00
1612,57	1191,00
1617,88	1212,00
1623,18	1156,00
1628,48	1171,00
1633,77	1275,00
1639,06	1232,00
1644,34	1140,00
1649,62	1151,00
1654,89	1117,00
1660,16	1240,00
1665,42	1146,00
1670,67	1187,00
1675,92	1083,00
1681,17	1179,00
1686,41	1160,00
1691,64	1133,00
1696,87	1132,00
1702,10	1055,00
1707,32	1119,00
1712,53	1156,00
1717,74	1097,00
1722,94	1146,00
1728,14	1181,00
1733,33	1008,00
1738,52	1090,00
1743,70	1003,00
1748,88	1050,00
1754,05	1014,00
1759,22	1092,00
1764,38	1196,00
1769,53	990,00
1774,69	1085,00
1779,83	1051,00
1784,97	976,00
1790,11	1016,00
1795,24	1112,00
1800,36	1061,00
1805,48	1013,00
1810,60	1055,00
1815,71	1029,00
1820,82	1005,00
1825,92	963,00
1831,01	982,00
1836,10	1032,00
1841,19	1071,00
1846,26	1018,00
1851,34	1053,00
1856,41	1011,00
1861,47	1023,00
1866,53	989,00
1871,59	1051,00
1876,64	1010,00
1881,68	958,00
1886,72	964,00
1891,76	1034,00
1896,79	1009,00
1901,81	899,00
1906,83	1032,00
1911,85	886,00
1916,86	894,00
1921,86	866,00
1926,86	988,00
1931,86	926,00
1936,85	928,00
1941,83	926,00
1946,81	979,00
1951,79	951,00
1956,76	879,00
1961,72	919,00
1966,68	858,00
1971,64	950,00
1976,59	1006,00
1981,54	968,00
1986,48	976,00
1991,42	851,00
1996,35	1017,00
2001,27	878,00
2006,20	966,00
2011,11	876,00
2016,03	952,00
2020,93	868,00
2025,84	826,00
2030,73	979,00
2035,63	968,00
2040,52	874,00
2045,40	869,00
2050,28	861,00
2055,15	954,00
2060,02	803,00
2064,89	831,00
2069,75	791,00
2074,60	947,00
2079,46	869,00
2084,30	862,00
2089,14	838,00
2093,98	954,00
2098,81	972,00
2103,64	858,00
2108,46	778,00
2113,28	819,00
2118,09	840,00
2122,90	831,00
2127,70	857,00
2132,50	856,00
2137,30	805,00
2142,09	822,00
2146,87	822,00
2151,66	816,00
2156,43	926,00
2161,20	841,00
2165,97	799,00
2170,73	800,00
2175,49	847,00
2180,24	763,00
2184,99	844,00
2189,74	827,00
2194,48	727,00
2199,21	880,00
2203,94	735,00
2208,67	786,00
2213,39	732,00
2218,11	714,00
2222,82	776,00
2227,53	782,00
2232,23	821,00
2236,93	790,00
2241,63	726,00
2246,32	801,00
2251,00	746,00
2255,68	892,00
2260,36	718,00
2265,03	808,00
2269,70	832,00
2274,36	662,00
2279,02	741,00
2283,68	803,00
2288,33	747,00
2292,97	759,00
2297,61	762,00
2302,25	777,00
2306,88	715,00
2311,51	720,00
2316,14	856,00
2320,75	775,00
2325,37	695,00
2329,98	840,00
2334,59	727,00
2339,19	669,00
2343,79	708,00
2348,38	694,00
2352,97	663,00
2357,55	674,00
2362,13	714,00
2366,71	656,00
2371,28	724,00
2375,85	692,00
2380,41	672,00
2384,97	685,00
2389,52	798,00
2394,07	669,00
2398,62	686,00
2403,16	679,00
2407,70	664,00
2412,23	574,00
2416,76	722,00
2421,29	764,00
2425,81	661,00
2430,32	844,00
2434,84	660,00
2439,34	608,00
2443,85	764,00
2448,35	601,00
2452,84	577,00
2457,33	686,00
2461,82	658,00
2466,30	661,00
2470,78	685,00
2475,25	711,00
2479,72	645,00
2484,19	627,00
2488,65	596,00
2493,11	588,00
2497,56	640,00
2502,01	609,00
2506,46	651,00
2510,90	636,00
2515,34	543,00
2519,77	670,00
2524,20	558,00
2528,62	630,00
2533,04	588,00
2537,46	516,00
2541,87	609,00
2546,28	654,00
2550,68	676,00
2555,08	583,00
2559,48	686,00
2563,87	593,00
2568,26	646,00
2572,64	580,00
2577,02	631,00
2581,40	532,00
2585,77	607,00
2590,14	572,00
2594,50	669,00
2598,86	517,00
2603,22	672,00
2607,57	605,00
2611,92	658,00
2616,26	509,00
2620,60	651,00
2624,94	490,00
2629,27	650,00
2633,60	542,00
2637,92	669,00
2642,24	598,00
2646,56	678,00
2650,87	501,00
2655,18	612,00
2659,48	618,00
2663,78	615,00
2668,08	556,00
2672,37	533,00
2676,66	608,00
2680,95	633,00
2685,23	613,00
2689,50	550,00
2693,78	643,00
2698,05	563,00
2702,31	626,00
2706,57	650,00
2710,83	605,00
2715,08	631,00
2719,33	627,00
2723,58	798,00
2727,82	674,00
2732,06	716,00
2736,29	582,00
2740,53	632,00
2744,75	661,00
2748,97	631,00
2753,19	617,00
2757,41	653,00
2761,62	644,00
2765,83	669,00
2770,03	468,00
2774,23	567,00
2778,43	524,00
2782,62	596,00
2786,81	567,00
2791,00	618,00
2795,18	596,00
2799,35	675,00
2803,53	695,00
2807,70	632,00
2811,86	746,00
2816,03	623,00
2820,19	767,00
2824,34	715,00
2828,49	779,00
2832,64	809,00
2836,78	991,00
2840,92	1274,00
2845,06	1366,00
2849,19	1657,00
2853,32	1555,00
2857,45	1627,00
2861,57	1520,00
2865,69	1521,00
2869,80	1409,00
2873,91	1598,00
2878,02	1594,00
2882,12	1868,00
2886,22	1724,00
2890,32	1628,00
2894,41	1569,00
2898,50	1431,00
2902,58	1228,00
2906,67	1253,00
2910,74	1153,00
2914,82	1109,00
2918,89	1092,00
2922,96	999,00
2927,02	998,00
2931,08	906,00
2935,13	889,00
2939,19	913,00
2943,24	832,00
2947,28	859,00
2951,32	681,00
2955,36	726,00
2959,40	629,00
2963,43	596,00
2967,46	556,00
2971,48	537,00
2975,50	569,00
2979,52	558,00
2983,53	530,00
2987,54	519,00
2991,55	453,00
2995,55	508,00
2999,55	494,00
3003,54	440,00
3007,54	554,00
3011,53	499,00
3015,51	507,00
3019,49	455,00
3023,47	271,00
3027,45	362,00
3031,42	468,00
3035,39	468,00
3039,35	432,00
3043,31	373,00
3047,27	418,00
3051,22	334,00
3055,17	380,00
3059,12	408,00
3063,06	437,00
3067,00	325,00
3070,94	366,00
3074,87	398,00
3078,80	446,00
3082,73	354,00
3086,65	446,00
3090,57	425,00
3094,49	351,00
3098,40	363,00
3102,31	355,00
3106,22	321,00
3110,12	440,00
3114,02	333,00
3117,92	363,00
3121,81	411,00
3125,70	371,00
3129,58	272,00
3133,47	353,00
3137,34	292,00
3141,22	285,00
3145,09	266,00
3148,96	309,00
3152,83	341,00
3156,69	360,00
3160,55	173,00
3164,40	392,00
3168,26	273,00
3172,10	359,00
3175,95	276,00
3179,79	398,00
3183,63	262,00
3187,47	301,00
3191,30	299,00
3195,13	342,00
3198,95	296,00
3202,78	332,00
3206,60	265,00
3210,41	286,00
3214,23	278,00
3218,03	248,00
3221,84	277,00
3225,64	363,00
3229,44	328,00
3233,24	372,00
3237,03	264,00
3240,82	304,00
3244,61	244,00
3248,39	295,00
3252,17	255,00
3255,95	295,00
3259,72	277,00
3263,49	335,00
3267,26	319,00
3271,03	266,00
3274,79	326,00
3278,54	209,00
3282,30	217,00
3286,05	256,00
3289,80	300,00
3293,54	260,00
3297,29	259,00
3301,02	325,00
3304,76	284,00
3308,49	324,00
3312,22	240,00
3315,95	292,00
3319,67	298,00
3323,39	324,00
3327,10	372,00
3330,82	276,00
3334,53	134,00
3338,24	226,00
3341,94	291,00
3345,64	366,00
3349,34	240,00
3353,03	296,00
3356,72	243,00
3360,41	297,00
3364,10	338,00
3367,78	271,00
3371,46	336,00
3375,13	244,00
3378,81	218,00
3382,48	293,00
3386,14	286,00
3389,81	288,00
3393,47	307,00
3397,12	383,00
3400,78	255,00
3404,43	221,00
3408,08	270,00
3411,72	209,00
3415,36	237,00
3419,00	265,00
3422,64	235,00
3426,27	180,00
3429,90	257,00
3433,53	238,00
3437,15	208,00
3440,77	285,00
3444,39	139,00
3448,00	261,00
3451,62	183,00
3455,22	175,00
3458,83	239,00
3462,43	240,00
3466,03	275,00
3469,63	283,00
3473,22	245,00
3476,81	261,00
3480,40	275,00
3483,99	267,00
3487,57	308,00
3491,15	202,00
3494,72	255,00
3498,29	248,00
3501,86	152,00
3505,43	238,00
3508,99	286,00
3512,56	314,00
3516,11	316,00
3519,67	141,00
3523,22	300,00
3526,77	208,00
3530,32	227,00
3533,86	191,00
3537,40	268,00
3540,94	236,00
3544,47	203,00
3548,00	217,00
3551,53	212,00
3555,06	281,00
3558,58	257,00
3562,10	149,00
3565,62	215,00
3569,13	244,00
3572,64	181,00
3576,15	177,00
3579,66	224,00
3583,16	160,00
3586,66	256,00
3590,16	292,00
3593,65	190,00
3597,14	165,00
3600,63	137,00
3604,11	176,00
3607,60	242,00
3611,08	172,00
3614,55	274,00
3618,03	224,00
3621,50	232,00
3624,97	253,00
3628,43	195,00
3631,90	230,00
3635,36	153,00
3638,81	241,00
3642,27	229,00
3645,72	240,00
3649,17	154,00
3652,61	174,00
3656,06	264,00
3659,50	275,00
3662,93	124,00
3666,37	173,00
3669,80	274,00
3673,23	125,00
3676,65	280,00
3680,08	286,00
3683,50	264,00
3686,92	137,00
3690,33	151,00
3693,74	132,00
3697,15	142,00
3700,56	223,00
3703,96	283,00
3707,36	184,00
3710,76	210,00
3714,16	194,00
3717,55	274,00
3720,94	281,00
3724,33	123,00
3727,71	208,00
3731,10	268,00
3734,48	201,00
3737,85	182,00
3741,23	148,00
3744,60	225,00
3747,97	202,00
3751,33	258,00
3754,69	239,00
3758,05	202,00
3761,41	120,00
3764,77	196,00
3768,12	135,00
3771,47	141,00
3774,82	239,00
3778,16	-4,00
3781,50	7,00
3784,84	5,00
3788,18	-1,00
>>>>>End Processed Spectral Data<<<<<
