SpectraSuite Data File
++++++++++++++++++++++++++++++++++++
Date: Mon Mar 09 15:11:17 ICT 2026
User: Administrator
Dark Spectrum Present: Yes
Reference Spectrum Present: No
Number of Sampled Component Spectra: 1
Spectrometers: MAYP113682
Integration Time (usec): 3000000 (MAYP113682)
Spectra Averaged: 1 (MAYP113682)
Boxcar Smoothing: 0 (MAYP113682)
Correct for Electrical Dark: No (MAYP113682)
Strobe/Lamp Enabled: No (MAYP113682)
Correct for Detector Non-linearity: No (MAYP113682)
Correct for Stray Light: No (MAYP113682)
Number of Pixels in Processed Spectrum: 2068
>>>>>Begin Processed Spectral Data<<<<<
-37534,58	4,00
-37414,56	1,00
-37295,11	-1,00
-37176,24	4,00
-37057,95	76,00
-36940,22	111,00
-36823,05	127,00
-36706,45	135,00
-36590,40	234,00
-36474,90	92,00
-36359,95	161,00
-36245,55	185,00
-36131,68	98,00
-36018,35	188,00
-35905,55	81,00
-35793,29	116,00
-35681,54	40,00
-35570,32	104,00
-35459,62	212,00
-35349,43	123,00
-35239,75	290,00
-35130,58	79,00
-35021,91	90,00
-34913,74	145,00
-34806,07	93,00
-34698,89	111,00
-34592,20	121,00
-34486,00	158,00
-34380,28	180,00
-34275,04	238,00
-34170,27	51,00
-34065,98	215,00
-33962,16	204,00
-33858,81	108,00
-33755,92	168,00
-33653,49	182,00
-33551,52	183,00
-33450,01	145,00
-33348,94	206,00
-33248,33	77,00
-33148,16	141,00
-33048,43	73,00
-32949,14	174,00
-32850,29	115,00
-32751,87	142,00
-32653,89	121,00
-32556,33	245,00
-32459,20	204,00
-32362,49	68,00
-32266,19	170,00
-32170,32	198,00
-32074,86	119,00
-31979,82	42,00
-31885,18	195,00
-31790,95	33,00
-31697,12	105,00
-31603,69	120,00
-31510,67	142,00
-31418,04	144,00
-31325,80	207,00
-31233,95	164,00
-31142,49	133,00
-31051,42	214,00
-30960,73	94,00
-30870,43	165,00
-30780,50	77,00
-30690,95	161,00
-30601,77	198,00
-30512,97	156,00
-30424,53	89,00
-30336,46	101,00
-30248,76	184,00
-30161,42	171,00
-30074,44	91,00
-29987,81	233,00
-29901,55	236,00
-29815,63	159,00
-29730,07	235,00
-29644,86	149,00
-29560,00	128,00
-29475,48	248,00
-29391,30	165,00
-29307,47	143,00
-29223,97	124,00
-29140,81	73,00
-29057,99	155,00
-28975,50	176,00
-28893,34	216,00
-28811,51	128,00
-28730,00	150,00
-28648,82	155,00
-28567,97	215,00
-28487,43	176,00
-28407,21	225,00
-28327,32	143,00
-28247,73	17,00
-28168,46	105,00
-28089,50	103,00
-28010,85	89,00
-27932,51	129,00
-27854,48	52,00
-27776,75	157,00
-27699,32	156,00
-27622,19	105,00
-27545,37	240,00
-27468,84	110,00
-27392,60	208,00
-27316,66	110,00
-27241,01	108,00
-27165,66	124,00
-27090,59	3,00
-27015,81	186,00
-26941,31	162,00
-26867,10	66,00
-26793,17	104,00
-26719,52	101,00
-26646,15	178,00
-26573,06	151,00
-26500,24	220,00
-26427,70	290,00
-26355,43	198,00
-26283,43	140,00
-26211,71	153,00
-26140,25	135,00
-26069,06	254,00
-25998,13	76,00
-25927,46	119,00
-25857,06	69,00
-25786,92	97,00
-25717,04	121,00
-25647,42	111,00
-25578,05	117,00
-25508,94	170,00
-25440,09	154,00
-25371,48	157,00
-25303,13	154,00
-25235,02	120,00
-25167,17	196,00
-25099,56	189,00
-25032,19	163,00
-24965,07	110,00
-24898,20	116,00
-24831,56	72,00
-24765,17	150,00
-24699,01	93,00
-24633,10	206,00
-24567,41	222,00
-24501,97	155,00
-24436,75	173,00
-24371,77	49,00
-24307,03	77,00
-24242,51	86,00
-24178,22	229,00
-24114,16	77,00
-24050,32	161,00
-23986,71	34,00
-23923,32	136,00
-23860,16	241,00
-23797,22	61,00
-23734,50	243,00
-23672,00	90,00
-23609,71	77,00
-23547,65	99,00
-23485,80	76,00
-23424,16	171,00
-23362,74	128,00
-23301,53	151,00
-23240,54	144,00
-23179,75	133,00
-23119,17	192,00
-23058,80	109,00
-22998,64	246,00
-22938,68	126,00
-22878,93	130,00
-22819,39	43,00
-22760,04	167,00
-22700,90	179,00
-22641,96	198,00
-22583,22	211,00
-22524,68	155,00
-22466,33	130,00
-22408,19	155,00
-22350,23	201,00
-22292,48	200,00
-22234,92	218,00
-22177,55	160,00
-22120,37	204,00
-22063,38	86,00
-22006,58	213,00
-21949,98	143,00
-21893,56	131,00
-21837,33	165,00
-21781,28	191,00
-21725,42	141,00
-21669,74	76,00
-21614,25	221,00
-21558,94	245,00
-21503,81	181,00
-21448,86	90,00
-21394,10	149,00
-21339,51	68,00
-21285,10	186,00
-21230,86	163,00
-21176,81	124,00
-21122,93	132,00
-21069,22	165,00
-21015,69	139,00
-20962,33	68,00
-20909,14	178,00
-20856,13	80,00
-20803,28	174,00
-20750,61	212,00
-20698,10	227,00
-20645,76	178,00
-20593,59	196,00
-20541,59	116,00
-20489,75	207,00
-20438,07	211,00
-20386,56	156,00
-20335,22	131,00
-20284,03	42,00
-20233,01	186,00
-20182,15	129,00
-20131,45	115,00
-20080,91	104,00
-20030,52	27,00
-19980,30	134,00
-19930,23	146,00
-19880,32	196,00
-19830,56	115,00
-19780,96	235,00
-19731,52	230,00
-19682,23	181,00
-19633,09	93,00
-19584,10	252,00
-19535,26	166,00
-19486,58	174,00
-19438,04	251,00
-19389,66	201,00
-19341,42	199,00
-19293,33	119,00
-19245,39	93,00
-19197,60	182,00
-19149,95	81,00
-19102,45	176,00
-19055,09	115,00
-19007,87	132,00
-18960,80	97,00
-18913,87	212,00
-18867,09	164,00
-18820,44	94,00
-18773,94	148,00
-18727,57	167,00
-18681,35	200,00
-18635,26	160,00
-18589,31	181,00
-18543,50	119,00
-18497,83	94,00
-18452,29	148,00
-18406,89	162,00
-18361,63	188,00
-18316,50	244,00
-18271,50	123,00
-18226,63	162,00
-18181,90	107,00
-18137,30	169,00
-18092,84	50,00
-18048,50	135,00
-18004,29	130,00
-17960,22	56,00
-17916,27	166,00
-17872,45	129,00
-17828,76	161,00
-17785,20	173,00
-17741,77	133,00
-17698,46	141,00
-17655,28	166,00
-17612,22	82,00
-17569,29	110,00
-17526,48	90,00
-17483,79	102,00
-17441,23	80,00
-17398,79	107,00
-17356,48	124,00
-17314,28	213,00
-17272,21	201,00
-17230,26	131,00
-17188,42	132,00
-17146,71	158,00
-17105,12	150,00
-17063,64	169,00
-17022,28	139,00
-16981,04	231,00
-16939,92	221,00
-16898,91	85,00
-16858,02	113,00
-16817,25	53,00
-16776,59	237,00
-16736,04	84,00
-16695,61	161,00
-16655,29	152,00
-16615,09	229,00
-16574,99	118,00
-16535,01	247,00
-16495,15	42,00
-16455,39	159,00
-16415,74	48,00
-16376,21	144,00
-16336,78	67,00
-16297,46	55,00
-16258,26	90,00
-16219,16	118,00
-16180,17	193,00
-16141,28	9,00
-16102,51	109,00
-16063,84	93,00
-16025,27	156,00
-15986,82	104,00
-15948,46	223,00
-15910,22	181,00
-15872,07	156,00
-15834,04	138,00
-15796,10	161,00
-15758,27	197,00
-15720,54	134,00
-15682,91	103,00
-15645,39	256,00
-15607,97	140,00
-15570,64	206,00
-15533,42	175,00
-15496,30	141,00
-15459,28	121,00
-15422,36	98,00
-15385,54	149,00
-15348,82	175,00
-15312,19	159,00
-15275,66	185,00
-15239,23	144,00
-15202,90	221,00
-15166,67	247,00
-15130,53	197,00
-15094,48	118,00
-15058,54	162,00
-15022,68	102,00
-14986,93	153,00
-14951,26	168,00
-14915,69	226,00
-14880,22	193,00
-14844,84	220,00
-14809,55	47,00
-14774,35	190,00
-14739,25	159,00
-14704,24	119,00
-14669,32	106,00
-14634,49	-9,00
-14599,75	110,00
-14565,10	125,00
-14530,55	157,00
-14496,08	211,00
-14461,70	177,00
-14427,41	222,00
-14393,21	212,00
-14359,10	152,00
-14325,07	122,00
-14291,14	154,00
-14257,29	156,00
-14223,52	168,00
-14189,85	292,00
-14156,26	240,00
-14122,76	134,00
-14089,34	108,00
-14056,01	198,00
-14022,76	12,00
-13989,60	165,00
-13956,52	69,00
-13923,53	116,00
-13890,62	129,00
-13857,79	67,00
-13825,05	212,00
-13792,39	92,00
-13759,81	306,00
-13727,31	146,00
-13694,90	232,00
-13662,57	131,00
-13630,31	260,00
-13598,14	84,00
-13566,05	211,00
-13534,05	183,00
-13502,12	122,00
-13470,27	250,00
-13438,50	217,00
-13406,80	139,00
-13375,19	116,00
-13343,66	113,00
-13312,20	192,00
-13280,83	128,00
-13249,53	83,00
-13218,30	123,00
-13187,16	166,00
-13156,09	181,00
-13125,10	172,00
-13094,18	152,00
-13063,34	132,00
-13032,58	304,00
-13001,89	144,00
-12971,28	100,00
-12940,74	167,00
-12910,27	181,00
-12879,88	212,00
-12849,57	-19,00
-12819,33	105,00
-12789,16	175,00
-12759,06	111,00
-12729,04	12,00
-12699,09	349,00
-12669,21	58,00
-12639,41	66,00
-12609,68	124,00
-12580,02	166,00
-12550,43	155,00
-12520,91	151,00
-12491,46	145,00
-12462,08	100,00
-12432,77	146,00
-12403,54	60,00
-12374,37	198,00
-12345,27	236,00
-12316,24	143,00
-12287,29	113,00
-12258,40	100,00
-12229,57	82,00
-12200,82	273,00
-12172,14	174,00
-12143,52	102,00
-12114,97	146,00
-12086,49	167,00
-12058,07	-4,00
-12029,73	164,00
-12001,44	192,00
-11973,23	109,00
-11945,08	122,00
-11917,00	243,00
-11888,98	107,00
-11861,03	53,00
-11833,15	93,00
-11805,32	263,00
-11777,57	211,00
-11749,88	133,00
-11722,25	112,00
-11694,69	96,00
-11667,19	121,00
-11639,75	117,00
-11612,38	151,00
-11585,07	203,00
-11557,83	114,00
-11530,65	31,00
-11503,53	118,00
-11476,47	129,00
-11449,48	133,00
-11422,54	55,00
-11395,67	214,00
-11368,86	167,00
-11342,11	147,00
-11315,43	161,00
-11288,80	95,00
-11262,23	150,00
-11235,73	77,00
-11209,28	-46,00
-11182,90	143,00
-11156,57	-21,00
-11130,31	176,00
-11104,10	125,00
-11077,96	205,00
-11051,87	150,00
-11025,84	152,00
-10999,87	214,00
-10973,96	213,00
-10948,11	53,00
-10922,31	17,00
-10896,58	185,00
-10870,90	181,00
-10845,28	108,00
-10819,71	190,00
-10794,20	257,00
-10768,75	97,00
-10743,36	197,00
-10718,02	101,00
-10692,74	63,00
-10667,52	137,00
-10642,35	127,00
-10617,24	165,00
-10592,18	165,00
-10567,18	100,00
-10542,23	169,00
-10517,34	125,00
-10492,51	265,00
-10467,72	60,00
-10443,00	229,00
-10418,32	227,00
-10393,70	171,00
-10369,14	197,00
-10344,63	177,00
-10320,17	11,00
-10295,77	78,00
-10271,42	178,00
-10247,12	234,00
-10222,88	184,00
-10198,68	169,00
-10174,54	264,00
-10150,46	236,00
-10126,42	263,00
-10102,44	223,00
-10078,51	104,00
-10054,63	151,00
-10030,80	145,00
-10007,03	215,00
-9983,30	233,00
-9959,63	296,00
-9936,01	266,00
-9912,44	263,00
-9888,92	249,00
-9865,44	309,00
-9842,02	226,00
-9818,65	313,00
-9795,33	103,00
-9772,06	208,00
-9748,84	308,00
-9725,67	264,00
-9702,55	273,00
-9679,47	189,00
-9656,45	254,00
-9633,47	267,00
-9610,55	309,00
-9587,67	358,00
-9564,84	298,00
-9542,06	294,00
-9519,32	344,00
-9496,64	381,00
-9474,00	409,00
-9451,41	491,00
-9428,87	315,00
-9406,37	361,00
-9383,92	189,00
-9361,52	58,00
-9339,17	352,00
-9316,86	359,00
-9294,60	331,00
-9272,38	546,00
-9250,21	712,00
-9228,09	680,00
-9206,01	571,00
-9183,98	582,00
-9162,00	387,00
-9140,06	419,00
-9118,16	205,00
-9096,31	483,00
-9074,51	447,00
-9052,75	585,00
-9031,04	411,00
-9009,37	478,00
-8987,74	346,00
-8966,16	178,00
-8944,63	292,00
-8923,14	160,00
-8901,69	267,00
-8880,29	335,00
-8858,93	475,00
-8837,61	451,00
-8816,34	529,00
-8795,11	553,00
-8773,92	581,00
-8752,78	444,00
-8731,68	394,00
-8710,62	357,00
-8689,61	329,00
-8668,63	554,00
-8647,70	522,00
-8626,82	584,00
-8605,97	622,00
-8585,17	424,00
-8564,41	387,00
-8543,69	342,00
-8523,01	399,00
-8502,37	387,00
-8481,78	351,00
-8461,23	476,00
-8440,71	504,00
-8420,24	472,00
-8399,81	686,00
-8379,42	555,00
-8359,08	504,00
-8338,77	393,00
-8318,50	500,00
-8298,27	431,00
-8278,09	543,00
-8257,94	561,00
-8237,83	602,00
-8217,76	613,00
-8197,74	497,00
-8177,75	626,00
-8157,80	542,00
-8137,89	454,00
-8118,02	554,00
-8098,19	456,00
-8078,40	523,00
-8058,65	417,00
-8038,93	561,00
-8019,26	608,00
-7999,62	645,00
-7980,02	359,00
-7960,46	417,00
-7940,94	517,00
-7921,46	425,00
-7902,01	438,00
-7882,60	341,00
-7863,23	374,00
-7843,90	498,00
-7824,61	364,00
-7805,35	523,00
-7786,13	525,00
-7766,95	536,00
-7747,80	464,00
-7728,69	495,00
-7709,62	510,00
-7690,59	497,00
-7671,59	602,00
-7652,63	503,00
-7633,70	601,00
-7614,81	525,00
-7595,96	486,00
-7577,15	490,00
-7558,37	532,00
-7539,62	449,00
-7520,91	453,00
-7502,24	457,00
-7483,60	510,00
-7465,00	487,00
-7446,44	371,00
-7427,91	297,00
-7409,41	216,00
-7390,95	313,00
-7372,53	225,00
-7354,14	182,00
-7335,78	393,00
-7317,46	339,00
-7299,18	283,00
-7280,92	348,00
-7262,71	495,00
-7244,52	526,00
-7226,38	428,00
-7208,26	508,00
-7190,18	493,00
-7172,14	387,00
-7154,12	460,00
-7136,15	351,00
-7118,20	284,00
-7100,29	428,00
-7082,41	363,00
-7064,57	589,00
-7046,76	438,00
-7028,98	328,00
-7011,24	293,00
-6993,53	215,00
-6975,85	261,00
-6958,20	140,00
-6940,59	249,00
-6923,01	91,00
-6905,46	244,00
-6887,94	207,00
-6870,46	2855,00
-6853,01	218,00
-6835,59	406,00
-6818,21	394,00
-6800,85	219,00
-6783,53	238,00
-6766,24	264,00
-6748,98	147,00
-6731,76	93,00
-6714,56	131,00
-6697,40	105,00
-6680,26	87,00
-6663,16	238,00
-6646,09	292,00
-6629,05	299,00
-6612,05	356,00
-6595,07	192,00
-6578,13	235,00
-6561,21	142,00
-6544,33	97,00
-6527,47	152,00
-6510,65	178,00
-6493,86	-28,00
-6477,10	40,00
-6460,36	63,00
-6443,66	124,00
-6426,99	35,00
-6410,35	62,00
-6393,74	80,00
-6377,16	200,00
-6360,61	199,00
-6344,09	156,00
-6327,59	190,00
-6311,13	147,00
-6294,70	315,00
-6278,29	220,00
-6261,92	358,00
-6245,58	236,00
-6229,26	262,00
-6212,97	284,00
-6196,72	196,00
-6180,49	160,00
-6164,29	57,00
-6148,12	121,00
-6131,98	121,00
-6115,86	-23,00
-6099,78	10,00
-6083,72	-2,00
-6067,69	-108,00
-6051,69	-14,00
-6035,72	50,00
-6019,78	202,00
-6003,87	164,00
-5987,98	148,00
-5972,12	245,00
-5956,29	211,00
-5940,49	230,00
-5924,71	197,00
-5908,96	118,00
-5893,24	160,00
-5877,55	125,00
-5861,89	54,00
-5846,25	92,00
-5830,64	49,00
-5815,05	126,00
-5799,50	127,00
-5783,97	191,00
-5768,47	340,00
-5752,99	146,00
-5737,55	218,00
-5722,12	344,00
-5706,73	187,00
-5691,36	114,00
-5676,02	188,00
-5660,71	109,00
-5645,42	142,00
-5630,16	186,00
-5614,92	111,00
-5599,71	153,00
-5584,53	195,00
-5569,37	150,00
-5554,24	284,00
-5539,14	189,00
-5524,06	92,00
-5509,01	153,00
-5493,98	111,00
-5478,98	43,00
-5464,00	43,00
-5449,05	154,00
-5434,13	56,00
-5419,23	112,00
-5404,36	168,00
-5389,51	233,00
-5374,69	137,00
-5359,89	245,00
-5345,12	86,00
-5330,37	189,00
-5315,65	161,00
-5300,95	144,00
-5286,28	180,00
-5271,63	160,00
-5257,01	249,00
-5242,41	126,00
-5227,84	8,00
-5213,29	88,00
-5198,76	96,00
-5184,26	197,00
-5169,79	119,00
-5155,33	119,00
-5140,91	-2,00
-5126,51	209,00
-5112,13	170,00
-5097,77	242,00
-5083,44	148,00
-5069,13	143,00
-5054,85	47,00
-5040,59	122,00
-5026,36	80,00
-5012,15	73,00
-4997,96	30,00
-4983,80	63,00
-4969,66	75,00
-4955,54	195,00
-4941,44	126,00
-4927,37	159,00
-4913,33	314,00
-4899,30	237,00
-4885,30	350,00
-4871,33	226,00
-4857,37	262,00
-4843,44	189,00
-4829,53	193,00
-4815,65	194,00
-4801,79	51,00
-4787,95	26,00
-4774,13	133,00
-4760,34	288,00
-4746,56	126,00
-4732,82	189,00
-4719,09	171,00
-4705,38	150,00
-4691,70	309,00
-4678,04	174,00
-4664,41	292,00
-4650,79	365,00
-4637,20	189,00
-4623,63	68,00
-4610,08	151,00
-4596,56	191,00
-4583,05	168,00
-4569,57	247,00
-4556,11	206,00
-4542,67	149,00
-4529,25	104,00
-4515,86	191,00
-4502,49	209,00
-4489,13	201,00
-4475,80	160,00
-4462,49	216,00
-4449,21	215,00
-4435,94	215,00
-4422,70	211,00
-4409,47	138,00
-4396,27	162,00
-4383,09	223,00
-4369,93	95,00
-4356,79	155,00
-4343,67	31,00
-4330,58	162,00
-4317,50	70,00
-4304,45	255,00
-4291,41	210,00
-4278,40	210,00
-4265,41	251,00
-4252,44	258,00
-4239,49	193,00
-4226,55	169,00
-4213,65	124,00
-4200,76	156,00
-4187,89	253,00
-4175,04	82,00
-4162,21	199,00
-4149,40	209,00
-4136,61	179,00
-4123,85	150,00
-4111,10	150,00
-4098,37	200,00
-4085,66	201,00
-4072,98	97,00
-4060,31	95,00
-4047,66	143,00
-4035,04	216,00
-4022,43	172,00
-4009,84	250,00
-3997,27	34,00
-3984,72	137,00
-3972,19	146,00
-3959,69	33,00
-3947,20	176,00
-3934,73	157,00
-3922,27	144,00
-3909,84	122,00
-3897,43	333,00
-3885,04	153,00
-3872,67	176,00
-3860,31	204,00
-3847,98	109,00
-3835,66	165,00
-3823,36	182,00
-3811,09	147,00
-3798,83	109,00
-3786,59	224,00
-3774,37	75,00
-3762,17	187,00
-3749,98	241,00
-3737,82	181,00
-3725,67	213,00
-3713,55	319,00
-3701,44	40,00
-3689,35	174,00
-3677,28	157,00
-3665,22	47,00
-3653,19	71,00
-3641,17	97,00
-3629,18	156,00
-3617,20	188,00
-3605,24	132,00
-3593,30	84,00
-3581,37	48,00
-3569,47	143,00
-3557,58	233,00
-3545,71	79,00
-3533,86	234,00
-3522,02	144,00
-3510,21	191,00
-3498,41	235,00
-3486,63	200,00
-3474,87	291,00
-3463,12	29,00
-3451,40	172,00
-3439,69	140,00
-3428,00	96,00
-3416,33	231,00
-3404,67	116,00
-3393,03	294,00
-3381,41	165,00
-3369,81	194,00
-3358,22	169,00
-3346,66	185,00
-3335,10	218,00
-3323,57	211,00
-3312,06	64,00
-3300,56	109,00
-3289,08	234,00
-3277,61	203,00
-3266,16	205,00
-3254,73	144,00
-3243,32	139,00
-3231,92	162,00
-3220,55	185,00
-3209,18	161,00
-3197,84	84,00
-3186,51	113,00
-3175,20	202,00
-3163,90	120,00
-3152,63	215,00
-3141,36	222,00
-3130,12	111,00
-3118,89	198,00
-3107,68	125,00
-3096,49	169,00
-3085,31	261,00
-3074,15	158,00
-3063,00	177,00
-3051,87	117,00
-3040,76	91,00
-3029,67	144,00
-3018,59	110,00
-3007,52	151,00
-2996,48	82,00
-2985,44	223,00
-2974,43	161,00
-2963,43	106,00
-2952,45	169,00
-2941,48	51,00
-2930,53	108,00
-2919,60	200,00
-2908,68	210,00
-2897,78	147,00
-2886,89	195,00
-2876,02	117,00
-2865,17	190,00
-2854,33	173,00
-2843,50	184,00
-2832,70	189,00
-2821,90	110,00
-2811,13	128,00
-2800,37	116,00
-2789,62	302,00
-2778,89	63,00
-2768,18	157,00
-2757,48	203,00
-2746,80	113,00
-2736,13	182,00
-2725,48	207,00
-2714,84	128,00
-2704,22	108,00
-2693,61	166,00
-2683,02	206,00
-2672,45	248,00
-2661,89	178,00
-2651,34	85,00
-2640,81	86,00
-2630,30	255,00
-2619,80	134,00
-2609,31	230,00
-2598,84	154,00
-2588,39	51,00
-2577,95	223,00
-2567,52	149,00
-2557,11	92,00
-2546,71	203,00
-2536,33	172,00
-2525,97	76,00
-2515,62	213,00
-2505,28	148,00
-2494,96	57,00
-2484,65	169,00
-2474,36	110,00
-2464,08	98,00
-2453,82	233,00
-2443,57	209,00
-2433,33	73,00
-2423,11	220,00
-2412,91	141,00
-2402,72	161,00
-2392,54	151,00
-2382,38	58,00
-2372,23	137,00
-2362,09	590,00
-2351,97	33,00
-2341,87	146,00
-2331,78	168,00
-2321,70	71,00
-2311,64	137,00
-2301,59	169,00
-2291,55	176,00
-2281,53	157,00
-2271,53	140,00
-2261,53	251,00
-2251,55	226,00
-2241,59	172,00
-2231,64	111,00
-2221,70	179,00
-2211,78	-11,00
-2201,87	156,00
-2191,97	76,00
-2182,09	189,00
-2172,22	119,00
-2162,37	152,00
-2152,53	101,00
-2142,70	97,00
-2132,89	202,00
-2123,09	143,00
-2113,30	159,00
-2103,53	98,00
-2093,77	275,00
-2084,02	134,00
-2074,29	115,00
-2064,57	190,00
-2054,86	150,00
-2045,17	148,00
-2035,49	68,00
-2025,82	99,00
-2016,17	251,00
-2006,53	158,00
-1996,91	254,00
-1987,29	117,00
-1977,69	171,00
-1968,11	172,00
-1958,53	64,00
-1948,97	170,00
-1939,42	185,00
-1929,89	232,00
-1920,37	149,00
-1910,86	53,00
-1901,36	164,00
-1891,88	101,00
-1882,41	131,00
-1872,95	123,00
-1863,51	195,00
-1854,08	261,00
-1844,66	147,00
-1835,26	304,00
-1825,86	152,00
-1816,48	241,00
-1807,11	58,00
-1797,76	141,00
-1788,42	67,00
-1779,09	132,00
-1769,77	95,00
-1760,47	239,00
-1751,17	148,00
-1741,89	119,00
-1732,63	187,00
-1723,37	228,00
-1714,13	242,00
-1704,90	69,00
-1695,68	134,00
-1686,48	144,00
-1677,29	225,00
-1668,11	145,00
-1658,94	142,00
-1649,78	160,00
-1640,64	153,00
-1631,51	260,00
-1622,39	123,00
-1613,28	154,00
-1604,19	154,00
-1595,10	121,00
-1586,03	71,00
-1576,97	112,00
-1567,93	164,00
-1558,89	89,00
-1549,87	55,00
-1540,86	59,00
-1531,86	114,00
-1522,87	274,00
-1513,90	154,00
-1504,93	147,00
-1495,98	203,00
-1487,04	135,00
-1478,12	57,00
-1469,20	164,00
-1460,30	164,00
-1451,40	179,00
-1442,52	195,00
-1433,65	180,00
-1424,80	149,00
-1415,95	91,00
-1407,12	90,00
-1398,30	66,00
-1389,48	239,00
-1380,69	128,00
-1371,90	25,00
-1363,12	152,00
-1354,36	187,00
-1345,60	165,00
-1336,86	-41,00
-1328,13	109,00
-1319,41	110,00
-1310,70	103,00
-1302,01	141,00
-1293,32	113,00
-1284,65	166,00
-1275,99	152,00
-1267,33	43,00
-1258,69	207,00
-1250,06	101,00
-1241,45	116,00
-1232,84	103,00
-1224,25	216,00
-1215,66	51,00
-1207,09	47,00
-1198,53	164,00
-1189,97	206,00
-1181,43	116,00
-1172,91	95,00
-1164,39	210,00
-1155,88	147,00
-1147,38	195,00
-1138,90	95,00
-1130,43	173,00
-1121,96	216,00
-1113,51	205,00
-1105,07	179,00
-1096,64	132,00
-1088,22	184,00
-1079,81	114,00
-1071,41	133,00
-1063,02	92,00
-1054,65	206,00
-1046,28	145,00
-1037,92	140,00
-1029,58	252,00
-1021,24	166,00
-1012,92	96,00
-1004,61	104,00
-996,30	131,00
-988,01	202,00
-979,73	202,00
-971,46	117,00
-963,20	93,00
-954,95	107,00
-946,71	161,00
-938,48	150,00
-930,26	244,00
-922,06	177,00
-913,86	176,00
-905,67	6,00
-897,49	151,00
-889,33	62,00
-881,17	244,00
-873,02	214,00
-864,89	226,00
-856,76	140,00
-848,65	240,00
-840,54	165,00
-832,45	0,00
-824,36	71,00
-816,29	127,00
-808,22	195,00
-800,17	226,00
-792,12	153,00
-784,09	205,00
-776,06	122,00
-768,05	166,00
-760,04	185,00
-752,05	179,00
-744,07	41,00
-736,09	116,00
-728,13	151,00
-720,17	181,00
-712,23	155,00
-704,29	149,00
-696,37	132,00
-688,45	44,00
-680,55	171,00
-672,65	67,00
-664,77	211,00
-656,89	189,00
-649,03	151,00
-641,17	106,00
-633,32	181,00
-625,49	150,00
-617,66	129,00
-609,84	118,00
-602,03	160,00
-594,23	200,00
-586,45	89,00
-578,67	167,00
-570,90	191,00
-563,14	161,00
-555,39	123,00
-547,65	69,00
-539,91	316,00
-532,19	92,00
-524,48	76,00
-516,78	174,00
-509,08	237,00
-501,40	198,00
-493,72	184,00
-486,06	34,00
-478,40	116,00
-470,76	143,00
-463,12	159,00
-455,49	155,00
-447,87	206,00
-440,26	296,00
-432,66	197,00
-425,07	197,00
-417,49	260,00
-409,92	155,00
-402,35	175,00
-394,80	185,00
-387,25	54,00
-379,72	224,00
-372,19	161,00
-364,67	118,00
-357,17	178,00
-349,67	209,00
-342,18	50,00
-334,69	177,00
-327,22	155,00
-319,76	176,00
-312,30	184,00
-304,86	242,00
-297,42	228,00
-290,00	169,00
-282,58	228,00
-275,17	229,00
-267,77	118,00
-260,37	183,00
-252,99	200,00
-245,62	168,00
-238,25	241,00
-230,90	247,00
-223,55	187,00
-216,21	239,00
-208,88	114,00
-201,56	209,00
-194,25	207,00
-186,94	274,00
-179,65	248,00
-172,36	325,00
-165,08	229,00
-157,81	338,00
-150,55	355,00
-143,30	329,00
-136,06	365,00
-128,82	364,00
-121,60	462,00
-114,38	470,00
-107,17	493,00
-99,97	530,00
-92,78	537,00
-85,60	714,00
-78,42	689,00
-71,25	898,00
-64,10	846,00
-56,95	1025,00
-49,81	1236,00
-42,67	1486,00
-35,55	1884,00
-28,43	2451,00
-21,33	4115,00
-14,23	13548,00
-7,14	56139,00
-0,05	55888,00
7,02	55558,00
14,09	41981,00
21,14	11240,00
28,19	4886,00
35,23	3165,00
42,27	2382,00
49,29	1988,00
56,31	1695,00
63,32	1401,00
70,32	1131,00
77,31	1065,00
84,29	915,00
91,27	980,00
98,23	800,00
105,19	795,00
112,14	776,00
119,09	1215,00
126,02	2046,00
132,95	2463,00
139,87	2564,00
146,78	2619,00
153,68	2666,00
160,58	2460,00
167,46	2474,00
174,34	2537,00
181,21	2478,00
188,08	2621,00
194,93	2498,00
201,78	2500,00
208,62	2471,00
215,45	2389,00
222,27	2389,00
229,09	2433,00
235,90	2611,00
242,70	2551,00
249,49	2452,00
256,27	2437,00
263,05	2605,00
269,82	2410,00
276,58	2571,00
283,33	2452,00
290,08	2433,00
296,82	2341,00
303,55	2494,00
310,27	2344,00
316,98	2409,00
323,69	2367,00
330,39	2277,00
337,08	2371,00
343,76	2400,00
350,44	2303,00
357,11	2465,00
363,77	2295,00
370,42	2471,00
377,07	2263,00
383,71	2508,00
390,34	2466,00
396,96	2337,00
403,58	2422,00
410,19	2475,00
416,79	2505,00
423,38	2502,00
429,97	2403,00
436,55	2415,00
443,12	2380,00
449,68	2363,00
456,24	2203,00
462,79	2393,00
469,33	2389,00
475,86	2380,00
482,39	2385,00
488,91	2271,00
495,42	2419,00
501,93	2217,00
508,42	2395,00
514,91	2333,00
521,40	2390,00
527,87	2233,00
534,34	2490,00
540,80	2304,00
547,25	2465,00
553,70	2467,00
560,14	2310,00
566,57	2458,00
573,00	2332,00
579,41	2362,00
585,83	2409,00
592,23	2338,00
598,62	2456,00
605,01	2356,00
611,40	2459,00
617,77	2305,00
624,14	2379,00
630,50	2308,00
636,85	2255,00
643,20	2324,00
649,54	2269,00
655,87	2206,00
662,20	2351,00
668,52	2249,00
674,83	2231,00
681,13	2240,00
687,43	2299,00
693,72	2313,00
700,00	2276,00
706,28	2173,00
712,55	2366,00
718,81	2285,00
725,07	2314,00
731,32	2303,00
737,56	2301,00
743,79	2405,00
750,02	2433,00
756,24	2437,00
762,46	2429,00
768,67	2321,00
774,87	2420,00
781,06	2393,00
787,25	2430,00
793,43	2342,00
799,60	2389,00
805,77	2366,00
811,93	2331,00
818,08	2411,00
824,23	2175,00
830,37	2444,00
836,50	2480,00
842,63	2488,00
848,75	2407,00
854,87	2307,00
860,97	2408,00
867,07	2383,00
873,17	2389,00
879,25	2440,00
885,33	2405,00
891,41	2377,00
897,47	2412,00
903,53	2462,00
909,59	2379,00
915,63	2457,00
921,67	2425,00
927,71	2378,00
933,74	2365,00
939,76	2432,00
945,77	2319,00
951,78	2292,00
957,78	2302,00
963,78	2381,00
969,77	2498,00
975,75	2502,00
981,72	2592,00
987,69	2405,00
993,66	2525,00
999,61	2402,00
1005,56	2514,00
1011,51	2447,00
1017,44	2298,00
1023,37	2545,00
1029,30	2584,00
1035,22	2484,00
1041,13	2526,00
1047,03	2623,00
1052,93	2787,00
1058,83	2952,00
1064,71	3109,00
1070,59	2826,00
1076,47	2725,00
1082,33	2705,00
1088,20	2696,00
1094,05	2667,00
1099,90	2507,00
1105,74	2719,00
1111,58	2562,00
1117,41	2771,00
1123,23	2986,00
1129,05	3177,00
1134,86	3011,00
1140,67	2844,00
1146,47	2794,00
1152,26	2645,00
1158,05	2600,00
1163,83	2761,00
1169,60	2640,00
1175,37	2633,00
1181,13	2559,00
1186,89	2565,00
1192,64	2512,00
1198,38	2524,00
1204,12	2530,00
1209,85	2526,00
1215,58	2613,00
1221,30	2696,00
1227,02	2810,00
1232,72	2772,00
1238,43	2666,00
1244,12	2666,00
1249,81	2670,00
1255,50	2614,00
1261,17	2689,00
1266,85	2795,00
1272,51	2667,00
1278,17	2818,00
1283,83	2901,00
1289,47	3277,00
1295,12	3652,00
1300,75	3349,00
1306,38	3169,00
1312,01	2874,00
1317,63	2758,00
1323,24	2803,00
1328,85	2682,00
1334,45	2824,00
1340,04	2608,00
1345,63	2665,00
1351,22	2732,00
1356,80	2758,00
1362,37	2686,00
1367,93	2759,00
1373,49	2811,00
1379,05	2712,00
1384,60	2835,00
1390,14	2696,00
1395,68	2769,00
1401,21	2733,00
1406,74	2843,00
1412,26	3085,00
1417,77	2990,00
1423,28	3124,00
1428,78	3075,00
1434,28	3388,00
1439,77	3514,00
1445,26	3440,00
1450,74	3339,00
1456,22	3402,00
1461,68	3303,00
1467,15	3112,00
1472,61	3026,00
1478,06	2944,00
1483,51	2615,00
1488,95	2717,00
1494,38	2812,00
1499,81	2560,00
1505,24	2626,00
1510,65	2544,00
1516,07	2662,00
1521,48	2629,00
1526,88	2682,00
1532,27	2601,00
1537,67	2690,00
1543,05	2582,00
1548,43	2536,00
1553,81	2551,00
1559,18	2563,00
1564,54	2551,00
1569,90	2580,00
1575,25	2508,00
1580,60	2574,00
1585,94	2476,00
1591,28	2508,00
1596,61	2488,00
1601,93	2460,00
1607,25	2592,00
1612,57	2453,00
1617,88	2381,00
1623,18	2487,00
1628,48	2432,00
1633,77	2463,00
1639,06	2463,00
1644,34	2365,00
1649,62	2438,00
1654,89	2377,00
1660,16	2412,00
1665,42	2494,00
1670,67	2423,00
1675,92	2364,00
1681,17	2371,00
1686,41	2415,00
1691,64	2372,00
1696,87	2391,00
1702,10	2352,00
1707,32	2231,00
1712,53	2269,00
1717,74	2388,00
1722,94	2519,00
1728,14	2307,00
1733,33	2292,00
1738,52	2251,00
1743,70	2377,00
1748,88	2461,00
1754,05	2308,00
1759,22	2237,00
1764,38	841,00
1769,53	2318,00
1774,69	2343,00
1779,83	2287,00
1784,97	2309,00
1790,11	2257,00
1795,24	2153,00
1800,36	2248,00
1805,48	2165,00
1810,60	2255,00
1815,71	2262,00
1820,82	2127,00
1825,92	2233,00
1831,01	2287,00
1836,10	2245,00
1841,19	2237,00
1846,26	2201,00
1851,34	2101,00
1856,41	2295,00
1861,47	2202,00
1866,53	2236,00
1871,59	2126,00
1876,64	2145,00
1881,68	2194,00
1886,72	2100,00
1891,76	2095,00
1896,79	2000,00
1901,81	2084,00
1906,83	2048,00
1911,85	2078,00
1916,86	2080,00
1921,86	2141,00
1926,86	2113,00
1931,86	2066,00
1936,85	1981,00
1941,83	1976,00
1946,81	1941,00
1951,79	1947,00
1956,76	2030,00
1961,72	2012,00
1966,68	1990,00
1971,64	1986,00
1976,59	1853,00
1981,54	2049,00
1986,48	1996,00
1991,42	1899,00
1996,35	1922,00
2001,27	2019,00
2006,20	2044,00
2011,11	1887,00
2016,03	2014,00
2020,93	1940,00
2025,84	1941,00
2030,73	1937,00
2035,63	1891,00
2040,52	2015,00
2045,40	1828,00
2050,28	1882,00
2055,15	1741,00
2060,02	1857,00
2064,89	1919,00
2069,75	1869,00
2074,60	1977,00
2079,46	1831,00
2084,30	1881,00
2089,14	1914,00
2093,98	1913,00
2098,81	1785,00
2103,64	1886,00
2108,46	1897,00
2113,28	1835,00
2118,09	1825,00
2122,90	1789,00
2127,70	1642,00
2132,50	1896,00
2137,30	1829,00
2142,09	1812,00
2146,87	1820,00
2151,66	1798,00
2156,43	1791,00
2161,20	1754,00
2165,97	1757,00
2170,73	1677,00
2175,49	1687,00
2180,24	1633,00
2184,99	1719,00
2189,74	1746,00
2194,48	1727,00
2199,21	1704,00
2203,94	1676,00
2208,67	1703,00
2213,39	1627,00
2218,11	1664,00
2222,82	1721,00
2227,53	1611,00
2232,23	1747,00
2236,93	1711,00
2241,63	1760,00
2246,32	1603,00
2251,00	1621,00
2255,68	1719,00
2260,36	1584,00
2265,03	1572,00
2269,70	1738,00
2274,36	1695,00
2279,02	1710,00
2283,68	1729,00
2288,33	1609,00
2292,97	1687,00
2297,61	1598,00
2302,25	1589,00
2306,88	1528,00
2311,51	1516,00
2316,14	1466,00
2320,75	1590,00
2325,37	1543,00
2329,98	1617,00
2334,59	1537,00
2339,19	1461,00
2343,79	1650,00
2348,38	1536,00
2352,97	1476,00
2357,55	1461,00
2362,13	1536,00
2366,71	1374,00
2371,28	1545,00
2375,85	1410,00
2380,41	1449,00
2384,97	1394,00
2389,52	1361,00
2394,07	1530,00
2398,62	1397,00
2403,16	1361,00
2407,70	1376,00
2412,23	1200,00
2416,76	1399,00
2421,29	1344,00
2425,81	1305,00
2430,32	1422,00
2434,84	1270,00
2439,34	1451,00
2443,85	1369,00
2448,35	1319,00
2452,84	1231,00
2457,33	1343,00
2461,82	1285,00
2466,30	1218,00
2470,78	1287,00
2475,25	1312,00
2479,72	1303,00
2484,19	1242,00
2488,65	1234,00
2493,11	1351,00
2497,56	1202,00
2502,01	1141,00
2506,46	1276,00
2510,90	1231,00
2515,34	1263,00
2519,77	1132,00
2524,20	1234,00
2528,62	1197,00
2533,04	1240,00
2537,46	1196,00
2541,87	1206,00
2546,28	1094,00
2550,68	1221,00
2555,08	1231,00
2559,48	1219,00
2563,87	1147,00
2568,26	1064,00
2572,64	1239,00
2577,02	1243,00
2581,40	1144,00
2585,77	1002,00
2590,14	956,00
2594,50	1075,00
2598,86	1060,00
2603,22	1023,00
2607,57	1040,00
2611,92	1004,00
2616,26	980,00
2620,60	1091,00
2624,94	1130,00
2629,27	1067,00
2633,60	987,00
2637,92	1130,00
2642,24	1068,00
2646,56	1158,00
2650,87	993,00
2655,18	977,00
2659,48	880,00
2663,78	1021,00
2668,08	1079,00
2672,37	989,00
2676,66	1086,00
2680,95	972,00
2685,23	997,00
2689,50	969,00
2693,78	965,00
2698,05	1061,00
2702,31	1091,00
2706,57	1045,00
2710,83	1060,00
2715,08	1012,00
2719,33	1129,00
2723,58	1060,00
2727,82	1136,00
2732,06	1125,00
2736,29	945,00
2740,53	1021,00
2744,75	1007,00
2748,97	1040,00
2753,19	936,00
2757,41	1050,00
2761,62	995,00
2765,83	991,00
2770,03	1069,00
2774,23	920,00
2778,43	959,00
2782,62	1045,00
2786,81	963,00
2791,00	920,00
2795,18	978,00
2799,35	1082,00
2803,53	873,00
2807,70	952,00
2811,86	903,00
2816,03	1100,00
2820,19	1031,00
2824,34	1097,00
2828,49	1076,00
2832,64	1206,00
2836,78	1409,00
2840,92	1483,00
2845,06	1675,00
2849,19	2021,00
2853,32	1870,00
2857,45	1902,00
2861,57	1832,00
2865,69	1872,00
2869,80	1831,00
2873,91	1866,00
2878,02	2000,00
2882,12	2142,00
2886,22	2041,00
2890,32	1869,00
2894,41	1849,00
2898,50	1913,00
2902,58	1574,00
2906,67	1603,00
2910,74	1561,00
2914,82	1430,00
2918,89	1352,00
2922,96	1293,00
2927,02	1190,00
2931,08	1109,00
2935,13	1194,00
2939,19	1025,00
2943,24	993,00
2947,28	1030,00
2951,32	918,00
2955,36	842,00
2959,40	871,00
2963,43	913,00
2967,46	915,00
2971,48	712,00
2975,50	708,00
2979,52	765,00
2983,53	678,00
2987,54	647,00
2991,55	774,00
2995,55	801,00
2999,55	734,00
3003,54	656,00
3007,54	683,00
3011,53	597,00
3015,51	581,00
3019,49	669,00
3023,47	665,00
3027,45	694,00
3031,42	744,00
3035,39	568,00
3039,35	661,00
3043,31	552,00
3047,27	494,00
3051,22	599,00
3055,17	495,00
3059,12	655,00
3063,06	583,00
3067,00	524,00
3070,94	464,00
3074,87	594,00
3078,80	522,00
3082,73	455,00
3086,65	547,00
3090,57	479,00
3094,49	448,00
3098,40	547,00
3102,31	488,00
3106,22	541,00
3110,12	570,00
3114,02	522,00
3117,92	545,00
3121,81	461,00
3125,70	390,00
3129,58	508,00
3133,47	307,00
3137,34	464,00
3141,22	460,00
3145,09	535,00
3148,96	491,00
3152,83	369,00
3156,69	435,00
3160,55	407,00
3164,40	404,00
3168,26	399,00
3172,10	401,00
3175,95	364,00
3179,79	382,00
3183,63	355,00
3187,47	508,00
3191,30	314,00
3195,13	421,00
3198,95	420,00
3202,78	406,00
3206,60	399,00
3210,41	283,00
3214,23	395,00
3218,03	335,00
3221,84	391,00
3225,64	379,00
3229,44	403,00
3233,24	488,00
3237,03	392,00
3240,82	212,00
3244,61	321,00
3248,39	345,00
3252,17	429,00
3255,95	345,00
3259,72	384,00
3263,49	351,00
3267,26	314,00
3271,03	289,00
3274,79	394,00
3278,54	410,00
3282,30	310,00
3286,05	281,00
3289,80	339,00
3293,54	287,00
3297,29	360,00
3301,02	247,00
3304,76	393,00
3308,49	384,00
3312,22	288,00
3315,95	337,00
3319,67	242,00
3323,39	332,00
3327,10	327,00
3330,82	298,00
3334,53	300,00
3338,24	311,00
3341,94	259,00
3345,64	278,00
3349,34	279,00
3353,03	212,00
3356,72	275,00
3360,41	320,00
3364,10	171,00
3367,78	312,00
3371,46	197,00
3375,13	208,00
3378,81	248,00
3382,48	309,00
3386,14	266,00
3389,81	385,00
3393,47	157,00
3397,12	276,00
3400,78	233,00
3404,43	252,00
3408,08	293,00
3411,72	279,00
3415,36	191,00
3419,00	279,00
3422,64	196,00
3426,27	285,00
3429,90	221,00
3433,53	237,00
3437,15	269,00
3440,77	241,00
3444,39	322,00
3448,00	215,00
3451,62	287,00
3455,22	237,00
3458,83	228,00
3462,43	276,00
3466,03	292,00
3469,63	221,00
3473,22	288,00
3476,81	277,00
3480,40	254,00
3483,99	308,00
3487,57	170,00
3491,15	139,00
3494,72	306,00
3498,29	273,00
3501,86	176,00
3505,43	178,00
3508,99	103,00
3512,56	222,00
3516,11	158,00
3519,67	223,00
3523,22	220,00
3526,77	184,00
3530,32	247,00
3533,86	248,00
3537,40	94,00
3540,94	141,00
3544,47	156,00
3548,00	202,00
3551,53	39,00
3555,06	110,00
3558,58	189,00
3562,10	114,00
3565,62	179,00
3569,13	254,00
3572,64	219,00
3576,15	264,00
3579,66	246,00
3583,16	161,00
3586,66	267,00
3590,16	266,00
3593,65	182,00
3597,14	213,00
3600,63	211,00
3604,11	139,00
3607,60	153,00
3611,08	91,00
3614,55	39,00
3618,03	242,00
3621,50	261,00
3624,97	195,00
3628,43	90,00
3631,90	218,00
3635,36	97,00
3638,81	179,00
3642,27	105,00
3645,72	320,00
3649,17	94,00
3652,61	158,00
3656,06	180,00
3659,50	211,00
3662,93	173,00
3666,37	239,00
3669,80	158,00
3673,23	170,00
3676,65	223,00
3680,08	234,00
3683,50	157,00
3686,92	223,00
3690,33	43,00
3693,74	233,00
3697,15	35,00
3700,56	116,00
3703,96	57,00
3707,36	295,00
3710,76	163,00
3714,16	145,00
3717,55	162,00
3720,94	51,00
3724,33	121,00
3727,71	143,00
3731,10	99,00
3734,48	137,00
3737,85	134,00
3741,23	159,00
3744,60	109,00
3747,97	130,00
3751,33	209,00
3754,69	111,00
3758,05	145,00
3761,41	151,00
3764,77	132,00
3768,12	255,00
3771,47	32,00
3774,82	195,00
3778,16	-4,00
3781,50	6,00
3784,84	3,00
3788,18	-3,00
>>>>>End Processed Spectral Data<<<<<
