SpectraSuite Data File
++++++++++++++++++++++++++++++++++++
Date: Mon Mar 09 14:32:50 ICT 2026
User: Administrator
Dark Spectrum Present: Yes
Reference Spectrum Present: No
Number of Sampled Component Spectra: 1
Spectrometers: MAYP113682
Integration Time (usec): 3000000 (MAYP113682)
Spectra Averaged: 1 (MAYP113682)
Boxcar Smoothing: 0 (MAYP113682)
Correct for Electrical Dark: No (MAYP113682)
Strobe/Lamp Enabled: No (MAYP113682)
Correct for Detector Non-linearity: No (MAYP113682)
Correct for Stray Light: No (MAYP113682)
Number of Pixels in Processed Spectrum: 2068
>>>>>Begin Processed Spectral Data<<<<<
-37534,58	14,00
-37414,56	6,00
-37295,11	11,00
-37176,24	7,00
-37057,95	130,00
-36940,22	117,00
-36823,05	227,00
-36706,45	213,00
-36590,40	154,00
-36474,90	212,00
-36359,95	257,00
-36245,55	196,00
-36131,68	222,00
-36018,35	211,00
-35905,55	198,00
-35793,29	211,00
-35681,54	181,00
-35570,32	201,00
-35459,62	190,00
-35349,43	196,00
-35239,75	161,00
-35130,58	198,00
-35021,91	230,00
-34913,74	247,00
-34806,07	268,00
-34698,89	205,00
-34592,20	229,00
-34486,00	144,00
-34380,28	190,00
-34275,04	176,00
-34170,27	246,00
-34065,98	236,00
-33962,16	194,00
-33858,81	347,00
-33755,92	128,00
-33653,49	319,00
-33551,52	267,00
-33450,01	193,00
-33348,94	249,00
-33248,33	145,00
-33148,16	127,00
-33048,43	124,00
-32949,14	315,00
-32850,29	150,00
-32751,87	277,00
-32653,89	120,00
-32556,33	292,00
-32459,20	249,00
-32362,49	238,00
-32266,19	185,00
-32170,32	206,00
-32074,86	127,00
-31979,82	216,00
-31885,18	183,00
-31790,95	278,00
-31697,12	313,00
-31603,69	250,00
-31510,67	340,00
-31418,04	264,00
-31325,80	217,00
-31233,95	275,00
-31142,49	197,00
-31051,42	203,00
-30960,73	215,00
-30870,43	257,00
-30780,50	225,00
-30690,95	189,00
-30601,77	148,00
-30512,97	212,00
-30424,53	259,00
-30336,46	298,00
-30248,76	303,00
-30161,42	195,00
-30074,44	182,00
-29987,81	283,00
-29901,55	295,00
-29815,63	216,00
-29730,07	128,00
-29644,86	199,00
-29560,00	297,00
-29475,48	159,00
-29391,30	162,00
-29307,47	210,00
-29223,97	202,00
-29140,81	248,00
-29057,99	232,00
-28975,50	189,00
-28893,34	290,00
-28811,51	209,00
-28730,00	179,00
-28648,82	239,00
-28567,97	211,00
-28487,43	275,00
-28407,21	186,00
-28327,32	283,00
-28247,73	214,00
-28168,46	229,00
-28089,50	241,00
-28010,85	213,00
-27932,51	202,00
-27854,48	209,00
-27776,75	227,00
-27699,32	314,00
-27622,19	289,00
-27545,37	195,00
-27468,84	217,00
-27392,60	288,00
-27316,66	199,00
-27241,01	277,00
-27165,66	241,00
-27090,59	230,00
-27015,81	204,00
-26941,31	213,00
-26867,10	216,00
-26793,17	300,00
-26719,52	213,00
-26646,15	233,00
-26573,06	211,00
-26500,24	211,00
-26427,70	260,00
-26355,43	224,00
-26283,43	168,00
-26211,71	226,00
-26140,25	351,00
-26069,06	287,00
-25998,13	261,00
-25927,46	241,00
-25857,06	270,00
-25786,92	167,00
-25717,04	156,00
-25647,42	168,00
-25578,05	175,00
-25508,94	176,00
-25440,09	162,00
-25371,48	206,00
-25303,13	201,00
-25235,02	253,00
-25167,17	162,00
-25099,56	298,00
-25032,19	225,00
-24965,07	257,00
-24898,20	186,00
-24831,56	234,00
-24765,17	381,00
-24699,01	210,00
-24633,10	289,00
-24567,41	336,00
-24501,97	263,00
-24436,75	190,00
-24371,77	160,00
-24307,03	322,00
-24242,51	183,00
-24178,22	246,00
-24114,16	211,00
-24050,32	272,00
-23986,71	199,00
-23923,32	174,00
-23860,16	161,00
-23797,22	281,00
-23734,50	182,00
-23672,00	124,00
-23609,71	194,00
-23547,65	243,00
-23485,80	211,00
-23424,16	179,00
-23362,74	287,00
-23301,53	191,00
-23240,54	206,00
-23179,75	194,00
-23119,17	220,00
-23058,80	159,00
-22998,64	201,00
-22938,68	210,00
-22878,93	190,00
-22819,39	338,00
-22760,04	149,00
-22700,90	281,00
-22641,96	203,00
-22583,22	250,00
-22524,68	290,00
-22466,33	185,00
-22408,19	245,00
-22350,23	271,00
-22292,48	248,00
-22234,92	258,00
-22177,55	245,00
-22120,37	277,00
-22063,38	329,00
-22006,58	195,00
-21949,98	233,00
-21893,56	137,00
-21837,33	256,00
-21781,28	283,00
-21725,42	99,00
-21669,74	315,00
-21614,25	219,00
-21558,94	245,00
-21503,81	277,00
-21448,86	296,00
-21394,10	194,00
-21339,51	335,00
-21285,10	156,00
-21230,86	137,00
-21176,81	219,00
-21122,93	192,00
-21069,22	248,00
-21015,69	201,00
-20962,33	221,00
-20909,14	273,00
-20856,13	203,00
-20803,28	286,00
-20750,61	228,00
-20698,10	206,00
-20645,76	272,00
-20593,59	242,00
-20541,59	264,00
-20489,75	277,00
-20438,07	202,00
-20386,56	229,00
-20335,22	183,00
-20284,03	192,00
-20233,01	276,00
-20182,15	272,00
-20131,45	190,00
-20080,91	266,00
-20030,52	133,00
-19980,30	230,00
-19930,23	240,00
-19880,32	137,00
-19830,56	156,00
-19780,96	244,00
-19731,52	228,00
-19682,23	154,00
-19633,09	272,00
-19584,10	153,00
-19535,26	252,00
-19486,58	213,00
-19438,04	180,00
-19389,66	219,00
-19341,42	216,00
-19293,33	186,00
-19245,39	213,00
-19197,60	212,00
-19149,95	224,00
-19102,45	282,00
-19055,09	311,00
-19007,87	240,00
-18960,80	212,00
-18913,87	332,00
-18867,09	237,00
-18820,44	302,00
-18773,94	324,00
-18727,57	215,00
-18681,35	121,00
-18635,26	119,00
-18589,31	111,00
-18543,50	203,00
-18497,83	293,00
-18452,29	276,00
-18406,89	180,00
-18361,63	271,00
-18316,50	220,00
-18271,50	243,00
-18226,63	277,00
-18181,90	252,00
-18137,30	299,00
-18092,84	139,00
-18048,50	324,00
-18004,29	222,00
-17960,22	223,00
-17916,27	183,00
-17872,45	215,00
-17828,76	189,00
-17785,20	248,00
-17741,77	128,00
-17698,46	272,00
-17655,28	144,00
-17612,22	194,00
-17569,29	166,00
-17526,48	240,00
-17483,79	220,00
-17441,23	283,00
-17398,79	255,00
-17356,48	174,00
-17314,28	320,00
-17272,21	141,00
-17230,26	274,00
-17188,42	294,00
-17146,71	171,00
-17105,12	259,00
-17063,64	220,00
-17022,28	216,00
-16981,04	250,00
-16939,92	155,00
-16898,91	245,00
-16858,02	309,00
-16817,25	272,00
-16776,59	168,00
-16736,04	308,00
-16695,61	267,00
-16655,29	219,00
-16615,09	275,00
-16574,99	193,00
-16535,01	175,00
-16495,15	224,00
-16455,39	246,00
-16415,74	320,00
-16376,21	402,00
-16336,78	226,00
-16297,46	218,00
-16258,26	268,00
-16219,16	242,00
-16180,17	234,00
-16141,28	235,00
-16102,51	206,00
-16063,84	254,00
-16025,27	158,00
-15986,82	215,00
-15948,46	255,00
-15910,22	252,00
-15872,07	240,00
-15834,04	274,00
-15796,10	238,00
-15758,27	296,00
-15720,54	256,00
-15682,91	166,00
-15645,39	271,00
-15607,97	260,00
-15570,64	167,00
-15533,42	236,00
-15496,30	207,00
-15459,28	199,00
-15422,36	131,00
-15385,54	242,00
-15348,82	292,00
-15312,19	223,00
-15275,66	229,00
-15239,23	205,00
-15202,90	215,00
-15166,67	185,00
-15130,53	250,00
-15094,48	233,00
-15058,54	204,00
-15022,68	216,00
-14986,93	280,00
-14951,26	241,00
-14915,69	307,00
-14880,22	261,00
-14844,84	156,00
-14809,55	272,00
-14774,35	273,00
-14739,25	275,00
-14704,24	178,00
-14669,32	207,00
-14634,49	172,00
-14599,75	172,00
-14565,10	250,00
-14530,55	195,00
-14496,08	231,00
-14461,70	148,00
-14427,41	260,00
-14393,21	166,00
-14359,10	155,00
-14325,07	157,00
-14291,14	324,00
-14257,29	265,00
-14223,52	224,00
-14189,85	303,00
-14156,26	279,00
-14122,76	216,00
-14089,34	347,00
-14056,01	281,00
-14022,76	226,00
-13989,60	296,00
-13956,52	191,00
-13923,53	186,00
-13890,62	246,00
-13857,79	174,00
-13825,05	242,00
-13792,39	213,00
-13759,81	239,00
-13727,31	228,00
-13694,90	323,00
-13662,57	293,00
-13630,31	173,00
-13598,14	253,00
-13566,05	249,00
-13534,05	246,00
-13502,12	258,00
-13470,27	290,00
-13438,50	276,00
-13406,80	280,00
-13375,19	300,00
-13343,66	233,00
-13312,20	203,00
-13280,83	240,00
-13249,53	240,00
-13218,30	221,00
-13187,16	225,00
-13156,09	215,00
-13125,10	280,00
-13094,18	249,00
-13063,34	301,00
-13032,58	145,00
-13001,89	290,00
-12971,28	218,00
-12940,74	270,00
-12910,27	188,00
-12879,88	223,00
-12849,57	273,00
-12819,33	199,00
-12789,16	205,00
-12759,06	217,00
-12729,04	301,00
-12699,09	1312,00
-12669,21	179,00
-12639,41	197,00
-12609,68	182,00
-12580,02	261,00
-12550,43	183,00
-12520,91	275,00
-12491,46	272,00
-12462,08	260,00
-12432,77	233,00
-12403,54	239,00
-12374,37	234,00
-12345,27	224,00
-12316,24	216,00
-12287,29	238,00
-12258,40	173,00
-12229,57	238,00
-12200,82	187,00
-12172,14	279,00
-12143,52	123,00
-12114,97	333,00
-12086,49	264,00
-12058,07	296,00
-12029,73	184,00
-12001,44	272,00
-11973,23	193,00
-11945,08	215,00
-11917,00	162,00
-11888,98	243,00
-11861,03	227,00
-11833,15	259,00
-11805,32	221,00
-11777,57	280,00
-11749,88	257,00
-11722,25	251,00
-11694,69	206,00
-11667,19	216,00
-11639,75	281,00
-11612,38	179,00
-11585,07	254,00
-11557,83	211,00
-11530,65	301,00
-11503,53	201,00
-11476,47	148,00
-11449,48	236,00
-11422,54	133,00
-11395,67	272,00
-11368,86	181,00
-11342,11	274,00
-11315,43	198,00
-11288,80	201,00
-11262,23	263,00
-11235,73	240,00
-11209,28	269,00
-11182,90	270,00
-11156,57	268,00
-11130,31	248,00
-11104,10	225,00
-11077,96	246,00
-11051,87	236,00
-11025,84	228,00
-10999,87	222,00
-10973,96	254,00
-10948,11	206,00
-10922,31	184,00
-10896,58	130,00
-10870,90	296,00
-10845,28	303,00
-10819,71	263,00
-10794,20	205,00
-10768,75	156,00
-10743,36	236,00
-10718,02	213,00
-10692,74	106,00
-10667,52	269,00
-10642,35	142,00
-10617,24	139,00
-10592,18	268,00
-10567,18	178,00
-10542,23	146,00
-10517,34	176,00
-10492,51	227,00
-10467,72	195,00
-10443,00	197,00
-10418,32	188,00
-10393,70	98,00
-10369,14	225,00
-10344,63	182,00
-10320,17	222,00
-10295,77	127,00
-10271,42	56,00
-10247,12	185,00
-10222,88	120,00
-10198,68	76,00
-10174,54	58,00
-10150,46	39,00
-10126,42	120,00
-10102,44	-52,00
-10078,51	-64,00
-10054,63	44,00
-10030,80	-62,00
-10007,03	57,00
-9983,30	-99,00
-9959,63	-4,00
-9936,01	-126,00
-9912,44	-76,00
-9888,92	-90,00
-9865,44	-147,00
-9842,02	-108,00
-9818,65	-236,00
-9795,33	-126,00
-9772,06	-205,00
-9748,84	-154,00
-9725,67	-179,00
-9702,55	-278,00
-9679,47	-325,00
-9656,45	-406,00
-9633,47	-554,00
-9610,55	-432,00
-9587,67	-655,00
-9564,84	-684,00
-9542,06	-783,00
-9519,32	-869,00
-9496,64	-1047,00
-9474,00	-1154,00
-9451,41	-1178,00
-9428,87	-1160,00
-9406,37	-1155,00
-9383,92	-1084,00
-9361,52	-1158,00
-9339,17	-1163,00
-9316,86	-1347,00
-9294,60	-1678,00
-9272,38	-1774,00
-9250,21	-1891,00
-9228,09	-2068,00
-9206,01	-2025,00
-9183,98	-1869,00
-9162,00	-1858,00
-9140,06	-1654,00
-9118,16	-1652,00
-9096,31	-1705,00
-9074,51	-1777,00
-9052,75	-1724,00
-9031,04	-1734,00
-9009,37	-1626,00
-8987,74	-1390,00
-8966,16	-1244,00
-8944,63	-1325,00
-8923,14	-1082,00
-8901,69	-1013,00
-8880,29	-1207,00
-8858,93	-1275,00
-8837,61	-1324,00
-8816,34	-1428,00
-8795,11	-1451,00
-8773,92	-1397,00
-8752,78	-1304,00
-8731,68	-1178,00
-8710,62	-1219,00
-8689,61	-1229,00
-8668,63	-1380,00
-8647,70	-1331,00
-8626,82	-1375,00
-8605,97	-1287,00
-8585,17	-1286,00
-8564,41	-1181,00
-8543,69	-892,00
-8523,01	-1132,00
-8502,37	-978,00
-8481,78	-1152,00
-8461,23	-1237,00
-8440,71	-1370,00
-8420,24	-1486,00
-8399,81	-1369,00
-8379,42	-1358,00
-8359,08	-1114,00
-8338,77	-1159,00
-8318,50	-1015,00
-8298,27	-998,00
-8278,09	-1120,00
-8257,94	-1217,00
-8237,83	-1284,00
-8217,76	-1397,00
-8197,74	-1360,00
-8177,75	-1211,00
-8157,80	-1200,00
-8137,89	-1042,00
-8118,02	-977,00
-8098,19	-817,00
-8078,40	-933,00
-8058,65	-1062,00
-8038,93	-1004,00
-8019,26	-998,00
-7999,62	-1042,00
-7980,02	-977,00
-7960,46	-919,00
-7940,94	-798,00
-7921,46	-825,00
-7902,01	-725,00
-7882,60	-710,00
-7863,23	-807,00
-7843,90	-879,00
-7824,61	-868,00
-7805,35	-843,00
-7786,13	-875,00
-7766,95	-852,00
-7747,80	-876,00
-7728,69	-835,00
-7709,62	-775,00
-7690,59	-919,00
-7671,59	-894,00
-7652,63	-913,00
-7633,70	-1034,00
-7614,81	-923,00
-7595,96	-827,00
-7577,15	-758,00
-7558,37	-727,00
-7539,62	-703,00
-7520,91	-833,00
-7502,24	-905,00
-7483,60	-810,00
-7465,00	-803,00
-7446,44	-780,00
-7427,91	-582,00
-7409,41	-562,00
-7390,95	-548,00
-7372,53	-531,00
-7354,14	-561,00
-7335,78	-514,00
-7317,46	-605,00
-7299,18	-663,00
-7280,92	-767,00
-7262,71	-823,00
-7244,52	-893,00
-7226,38	-920,00
-7208,26	-922,00
-7190,18	-790,00
-7172,14	-827,00
-7154,12	-671,00
-7136,15	-855,00
-7118,20	-826,00
-7100,29	-895,00
-7082,41	-826,00
-7064,57	-890,00
-7046,76	-852,00
-7028,98	-707,00
-7011,24	-667,00
-6993,53	-532,00
-6975,85	-432,00
-6958,20	-330,00
-6940,59	-256,00
-6923,01	-392,00
-6905,46	-328,00
-6887,94	-564,00
-6870,46	-2662,00
-6853,01	-674,00
-6835,59	-787,00
-6818,21	-673,00
-6800,85	-616,00
-6783,53	-474,00
-6766,24	-355,00
-6748,98	-322,00
-6731,76	-326,00
-6714,56	-247,00
-6697,40	-236,00
-6680,26	-292,00
-6663,16	-265,00
-6646,09	-343,00
-6629,05	-494,00
-6612,05	-561,00
-6595,07	-639,00
-6578,13	-524,00
-6561,21	-411,00
-6544,33	-267,00
-6527,47	-259,00
-6510,65	-146,00
-6493,86	-119,00
-6477,10	-164,00
-6460,36	-125,00
-6443,66	-180,00
-6426,99	-84,00
-6410,35	-107,00
-6393,74	-136,00
-6377,16	-328,00
-6360,61	-320,00
-6344,09	-437,00
-6327,59	-353,00
-6311,13	-348,00
-6294,70	-378,00
-6278,29	-404,00
-6261,92	-441,00
-6245,58	-551,00
-6229,26	-469,00
-6212,97	-473,00
-6196,72	-302,00
-6180,49	-264,00
-6164,29	-66,00
-6148,12	-22,00
-6131,98	121,00
-6115,86	0,00
-6099,78	-63,00
-6083,72	51,00
-6067,69	29,00
-6051,69	21,00
-6035,72	5,00
-6019,78	-17,00
-6003,87	-185,00
-5987,98	-309,00
-5972,12	-284,00
-5956,29	-328,00
-5940,49	-266,00
-5924,71	-208,00
-5908,96	-61,00
-5893,24	-74,00
-5877,55	-154,00
-5861,89	-91,00
-5846,25	-50,00
-5830,64	-46,00
-5815,05	-167,00
-5799,50	10,00
-5783,97	-78,00
-5768,47	-178,00
-5752,99	-157,00
-5737,55	-274,00
-5722,12	-276,00
-5706,73	-331,00
-5691,36	-212,00
-5676,02	-92,00
-5660,71	58,00
-5645,42	-86,00
-5630,16	-136,00
-5614,92	-48,00
-5599,71	-124,00
-5584,53	-161,00
-5569,37	-199,00
-5554,24	526,00
-5539,14	-156,00
-5524,06	-6,00
-5509,01	-136,00
-5493,98	-140,00
-5478,98	-128,00
-5464,00	-176,00
-5449,05	-113,00
-5434,13	-90,00
-5419,23	-66,00
-5404,36	28,00
-5389,51	-141,00
-5374,69	-267,00
-5359,89	-351,00
-5345,12	-325,00
-5330,37	-301,00
-5315,65	-187,00
-5300,95	-132,00
-5286,28	-105,00
-5271,63	-121,00
-5257,01	-81,00
-5242,41	-98,00
-5227,84	-131,00
-5213,29	-84,00
-5198,76	46,00
-5184,26	66,00
-5169,79	-85,00
-5155,33	-93,00
-5140,91	-161,00
-5126,51	-242,00
-5112,13	-215,00
-5097,77	-95,00
-5083,44	-1,00
-5069,13	-18,00
-5054,85	-33,00
-5040,59	-50,00
-5026,36	-106,00
-5012,15	-140,00
-4997,96	-157,00
-4983,80	-73,00
-4969,66	28,00
-4955,54	-20,00
-4941,44	-18,00
-4927,37	-211,00
-4913,33	-332,00
-4899,30	-424,00
-4885,30	-379,00
-4871,33	-224,00
-4857,37	-66,00
-4843,44	88,00
-4829,53	34,00
-4815,65	2,00
-4801,79	-63,00
-4787,95	-7,00
-4774,13	-72,00
-4760,34	32,00
-4746,56	182,00
-4732,82	12,00
-4719,09	-22,00
-4705,38	-169,00
-4691,70	-334,00
-4678,04	-308,00
-4664,41	-226,00
-4650,79	123,00
-4637,20	26,00
-4623,63	38,00
-4610,08	-99,00
-4596,56	-98,00
-4583,05	-78,00
-4569,57	-55,00
-4556,11	23,00
-4542,67	62,00
-4529,25	67,00
-4515,86	12,00
-4502,49	-160,00
-4489,13	-192,00
-4475,80	-149,00
-4462,49	8,00
-4449,21	147,00
-4435,94	11,00
-4422,70	-40,00
-4409,47	-114,00
-4396,27	-51,00
-4383,09	5,00
-4369,93	108,00
-4356,79	106,00
-4343,67	139,00
-4330,58	167,00
-4317,50	16,00
-4304,45	-19,00
-4291,41	58,00
-4278,40	200,00
-4265,41	15,00
-4252,44	129,00
-4239,49	-135,00
-4226,55	8,00
-4213,65	40,00
-4200,76	128,00
-4187,89	246,00
-4175,04	95,00
-4162,21	218,00
-4149,40	74,00
-4136,61	124,00
-4123,85	147,00
-4111,10	134,00
-4098,37	113,00
-4085,66	70,00
-4072,98	174,00
-4060,31	166,00
-4047,66	196,00
-4035,04	194,00
-4022,43	268,00
-4009,84	187,00
-3997,27	165,00
-3984,72	264,00
-3972,19	212,00
-3959,69	163,00
-3947,20	243,00
-3934,73	214,00
-3922,27	144,00
-3909,84	188,00
-3897,43	248,00
-3885,04	219,00
-3872,67	170,00
-3860,31	275,00
-3847,98	322,00
-3835,66	306,00
-3823,36	267,00
-3811,09	292,00
-3798,83	256,00
-3786,59	225,00
-3774,37	240,00
-3762,17	233,00
-3749,98	267,00
-3737,82	233,00
-3725,67	241,00
-3713,55	278,00
-3701,44	237,00
-3689,35	221,00
-3677,28	194,00
-3665,22	279,00
-3653,19	174,00
-3641,17	134,00
-3629,18	341,00
-3617,20	264,00
-3605,24	373,00
-3593,30	206,00
-3581,37	249,00
-3569,47	144,00
-3557,58	271,00
-3545,71	324,00
-3533,86	11,00
-3522,02	249,00
-3510,21	259,00
-3498,41	260,00
-3486,63	223,00
-3474,87	282,00
-3463,12	166,00
-3451,40	187,00
-3439,69	294,00
-3428,00	299,00
-3416,33	281,00
-3404,67	222,00
-3393,03	239,00
-3381,41	224,00
-3369,81	203,00
-3358,22	188,00
-3346,66	220,00
-3335,10	231,00
-3323,57	197,00
-3312,06	280,00
-3300,56	263,00
-3289,08	245,00
-3277,61	153,00
-3266,16	255,00
-3254,73	177,00
-3243,32	266,00
-3231,92	214,00
-3220,55	273,00
-3209,18	209,00
-3197,84	222,00
-3186,51	165,00
-3175,20	215,00
-3163,90	245,00
-3152,63	193,00
-3141,36	198,00
-3130,12	237,00
-3118,89	315,00
-3107,68	219,00
-3096,49	251,00
-3085,31	200,00
-3074,15	240,00
-3063,00	278,00
-3051,87	267,00
-3040,76	196,00
-3029,67	340,00
-3018,59	343,00
-3007,52	198,00
-2996,48	134,00
-2985,44	251,00
-2974,43	241,00
-2963,43	252,00
-2952,45	202,00
-2941,48	247,00
-2930,53	206,00
-2919,60	165,00
-2908,68	258,00
-2897,78	252,00
-2886,89	208,00
-2876,02	227,00
-2865,17	338,00
-2854,33	252,00
-2843,50	313,00
-2832,70	151,00
-2821,90	202,00
-2811,13	237,00
-2800,37	244,00
-2789,62	277,00
-2778,89	295,00
-2768,18	219,00
-2757,48	271,00
-2746,80	292,00
-2736,13	198,00
-2725,48	242,00
-2714,84	179,00
-2704,22	149,00
-2693,61	246,00
-2683,02	312,00
-2672,45	245,00
-2661,89	305,00
-2651,34	231,00
-2640,81	253,00
-2630,30	309,00
-2619,80	211,00
-2609,31	243,00
-2598,84	193,00
-2588,39	192,00
-2577,95	267,00
-2567,52	198,00
-2557,11	276,00
-2546,71	213,00
-2536,33	232,00
-2525,97	211,00
-2515,62	186,00
-2505,28	305,00
-2494,96	183,00
-2484,65	251,00
-2474,36	333,00
-2464,08	308,00
-2453,82	265,00
-2443,57	262,00
-2433,33	210,00
-2423,11	281,00
-2412,91	206,00
-2402,72	223,00
-2392,54	219,00
-2382,38	298,00
-2372,23	240,00
-2362,09	229,00
-2351,97	203,00
-2341,87	213,00
-2331,78	218,00
-2321,70	264,00
-2311,64	231,00
-2301,59	129,00
-2291,55	254,00
-2281,53	259,00
-2271,53	143,00
-2261,53	223,00
-2251,55	335,00
-2241,59	151,00
-2231,64	192,00
-2221,70	254,00
-2211,78	268,00
-2201,87	170,00
-2191,97	251,00
-2182,09	229,00
-2172,22	176,00
-2162,37	292,00
-2152,53	254,00
-2142,70	272,00
-2132,89	225,00
-2123,09	215,00
-2113,30	235,00
-2103,53	237,00
-2093,77	223,00
-2084,02	195,00
-2074,29	139,00
-2064,57	200,00
-2054,86	247,00
-2045,17	285,00
-2035,49	289,00
-2025,82	158,00
-2016,17	279,00
-2006,53	235,00
-1996,91	274,00
-1987,29	298,00
-1977,69	195,00
-1968,11	290,00
-1958,53	333,00
-1948,97	253,00
-1939,42	139,00
-1929,89	197,00
-1920,37	189,00
-1910,86	142,00
-1901,36	245,00
-1891,88	193,00
-1882,41	204,00
-1872,95	268,00
-1863,51	193,00
-1854,08	232,00
-1844,66	175,00
-1835,26	209,00
-1825,86	204,00
-1816,48	293,00
-1807,11	176,00
-1797,76	299,00
-1788,42	266,00
-1779,09	266,00
-1769,77	241,00
-1760,47	154,00
-1751,17	239,00
-1741,89	189,00
-1732,63	191,00
-1723,37	298,00
-1714,13	333,00
-1704,90	250,00
-1695,68	157,00
-1686,48	200,00
-1677,29	282,00
-1668,11	279,00
-1658,94	217,00
-1649,78	294,00
-1640,64	265,00
-1631,51	237,00
-1622,39	227,00
-1613,28	207,00
-1604,19	265,00
-1595,10	274,00
-1586,03	172,00
-1576,97	195,00
-1567,93	285,00
-1558,89	271,00
-1549,87	357,00
-1540,86	225,00
-1531,86	229,00
-1522,87	266,00
-1513,90	193,00
-1504,93	242,00
-1495,98	251,00
-1487,04	266,00
-1478,12	73,00
-1469,20	289,00
-1460,30	205,00
-1451,40	271,00
-1442,52	231,00
-1433,65	243,00
-1424,80	192,00
-1415,95	271,00
-1407,12	222,00
-1398,30	208,00
-1389,48	204,00
-1380,69	277,00
-1371,90	192,00
-1363,12	214,00
-1354,36	221,00
-1345,60	255,00
-1336,86	175,00
-1328,13	224,00
-1319,41	261,00
-1310,70	171,00
-1302,01	288,00
-1293,32	298,00
-1284,65	296,00
-1275,99	204,00
-1267,33	219,00
-1258,69	240,00
-1250,06	273,00
-1241,45	188,00
-1232,84	285,00
-1224,25	155,00
-1215,66	211,00
-1207,09	227,00
-1198,53	279,00
-1189,97	186,00
-1181,43	170,00
-1172,91	291,00
-1164,39	242,00
-1155,88	235,00
-1147,38	197,00
-1138,90	228,00
-1130,43	246,00
-1121,96	65,00
-1113,51	201,00
-1105,07	206,00
-1096,64	200,00
-1088,22	269,00
-1079,81	234,00
-1071,41	226,00
-1063,02	159,00
-1054,65	348,00
-1046,28	213,00
-1037,92	266,00
-1029,58	259,00
-1021,24	211,00
-1012,92	330,00
-1004,61	234,00
-996,30	237,00
-988,01	198,00
-979,73	239,00
-971,46	260,00
-963,20	330,00
-954,95	254,00
-946,71	288,00
-938,48	271,00
-930,26	251,00
-922,06	238,00
-913,86	242,00
-905,67	223,00
-897,49	250,00
-889,33	256,00
-881,17	285,00
-873,02	192,00
-864,89	235,00
-856,76	269,00
-848,65	159,00
-840,54	250,00
-832,45	228,00
-824,36	188,00
-816,29	276,00
-808,22	239,00
-800,17	230,00
-792,12	253,00
-784,09	290,00
-776,06	238,00
-768,05	267,00
-760,04	174,00
-752,05	261,00
-744,07	259,00
-736,09	267,00
-728,13	352,00
-720,17	256,00
-712,23	238,00
-704,29	272,00
-696,37	209,00
-688,45	292,00
-680,55	260,00
-672,65	221,00
-664,77	239,00
-656,89	314,00
-649,03	202,00
-641,17	236,00
-633,32	324,00
-625,49	187,00
-617,66	306,00
-609,84	313,00
-602,03	220,00
-594,23	230,00
-586,45	253,00
-578,67	291,00
-570,90	186,00
-563,14	238,00
-555,39	217,00
-547,65	211,00
-539,91	284,00
-532,19	227,00
-524,48	225,00
-516,78	239,00
-509,08	237,00
-501,40	214,00
-493,72	332,00
-486,06	152,00
-478,40	365,00
-470,76	216,00
-463,12	151,00
-455,49	244,00
-447,87	228,00
-440,26	284,00
-432,66	218,00
-425,07	388,00
-417,49	217,00
-409,92	255,00
-402,35	219,00
-394,80	263,00
-387,25	287,00
-379,72	231,00
-372,19	261,00
-364,67	282,00
-357,17	158,00
-349,67	223,00
-342,18	236,00
-334,69	205,00
-327,22	154,00
-319,76	272,00
-312,30	259,00
-304,86	205,00
-297,42	292,00
-290,00	371,00
-282,58	333,00
-275,17	264,00
-267,77	301,00
-260,37	364,00
-252,99	271,00
-245,62	226,00
-238,25	270,00
-230,90	250,00
-223,55	342,00
-216,21	299,00
-208,88	424,00
-201,56	357,00
-194,25	229,00
-186,94	366,00
-179,65	477,00
-172,36	376,00
-165,08	329,00
-157,81	440,00
-150,55	391,00
-143,30	332,00
-136,06	451,00
-128,82	476,00
-121,60	471,00
-114,38	562,00
-107,17	491,00
-99,97	622,00
-92,78	637,00
-85,60	827,00
-78,42	912,00
-71,25	966,00
-64,10	1000,00
-56,95	1138,00
-49,81	1291,00
-42,67	1657,00
-35,55	1970,00
-28,43	2435,00
-21,33	3748,00
-14,23	11410,00
-7,14	58063,00
-0,05	57930,00
7,02	57685,00
14,09	45903,00
21,14	11892,00
28,19	4769,00
35,23	3119,00
42,27	2526,00
49,29	2094,00
56,31	1771,00
63,32	1573,00
70,32	1288,00
77,31	1073,00
84,29	1058,00
91,27	849,00
98,23	843,00
105,19	820,00
112,14	779,00
119,09	1072,00
126,02	1592,00
132,95	1677,00
139,87	1882,00
146,78	1855,00
153,68	1800,00
160,58	1682,00
167,46	1615,00
174,34	1674,00
181,21	1787,00
188,08	1767,00
194,93	1571,00
201,78	1642,00
208,62	1702,00
215,45	1653,00
222,27	1640,00
229,09	1672,00
235,90	1624,00
242,70	1568,00
249,49	1585,00
256,27	1599,00
263,05	1633,00
269,82	1660,00
276,58	1546,00
283,33	1576,00
290,08	1554,00
296,82	1569,00
303,55	1435,00
310,27	1536,00
316,98	1543,00
323,69	1468,00
330,39	1536,00
337,08	1497,00
343,76	1518,00
350,44	1521,00
357,11	1556,00
363,77	1568,00
370,42	1540,00
377,07	1679,00
383,71	1434,00
390,34	1456,00
396,96	1427,00
403,58	1505,00
410,19	1639,00
416,79	1576,00
423,38	1577,00
429,97	1571,00
436,55	1397,00
443,12	1468,00
449,68	1350,00
456,24	1444,00
462,79	1505,00
469,33	1442,00
475,86	1526,00
482,39	1399,00
488,91	1464,00
495,42	1475,00
501,93	1492,00
508,42	1426,00
514,91	1447,00
521,40	1383,00
527,87	1362,00
534,34	1466,00
540,80	1406,00
547,25	1400,00
553,70	1408,00
560,14	1490,00
566,57	1449,00
573,00	1360,00
579,41	1461,00
585,83	1258,00
592,23	1388,00
598,62	1405,00
605,01	1409,00
611,40	1396,00
617,77	1468,00
624,14	1444,00
630,50	1410,00
636,85	1277,00
643,20	1385,00
649,54	1324,00
655,87	1359,00
662,20	1417,00
668,52	1388,00
674,83	1333,00
681,13	1324,00
687,43	1377,00
693,72	1415,00
700,00	1337,00
706,28	1307,00
712,55	1371,00
718,81	1332,00
725,07	1356,00
731,32	1396,00
737,56	1482,00
743,79	1435,00
750,02	1434,00
756,24	1336,00
762,46	1400,00
768,67	1576,00
774,87	1413,00
781,06	1429,00
787,25	1474,00
793,43	1365,00
799,60	1338,00
805,77	1400,00
811,93	1428,00
818,08	1334,00
824,23	1463,00
830,37	1433,00
836,50	1449,00
842,63	1402,00
848,75	1488,00
854,87	1479,00
860,97	1476,00
867,07	1404,00
873,17	1546,00
879,25	1339,00
885,33	1400,00
891,41	1459,00
897,47	1407,00
903,53	1352,00
909,59	1389,00
915,63	1428,00
921,67	1358,00
927,71	1327,00
933,74	1344,00
939,76	1395,00
945,77	1472,00
951,78	1407,00
957,78	1320,00
963,78	1410,00
969,77	1352,00
975,75	1436,00
981,72	1467,00
987,69	1526,00
993,66	1402,00
999,61	1465,00
1005,56	1350,00
1011,51	1456,00
1017,44	1399,00
1023,37	1462,00
1029,30	1428,00
1035,22	1510,00
1041,13	1509,00
1047,03	1613,00
1052,93	1673,00
1058,83	1885,00
1064,71	2080,00
1070,59	1856,00
1076,47	1719,00
1082,33	1634,00
1088,20	1544,00
1094,05	1536,00
1099,90	1503,00
1105,74	1570,00
1111,58	1542,00
1117,41	1573,00
1123,23	1830,00
1129,05	2137,00
1134,86	2040,00
1140,67	1704,00
1146,47	1536,00
1152,26	1511,00
1158,05	1527,00
1163,83	1567,00
1169,60	1572,00
1175,37	1609,00
1181,13	1514,00
1186,89	1539,00
1192,64	1459,00
1198,38	1469,00
1204,12	1457,00
1209,85	1494,00
1215,58	1383,00
1221,30	1503,00
1227,02	1484,00
1232,72	1559,00
1238,43	1529,00
1244,12	1531,00
1249,81	1482,00
1255,50	1491,00
1261,17	1577,00
1266,85	1662,00
1272,51	1605,00
1278,17	1651,00
1283,83	1736,00
1289,47	1936,00
1295,12	2438,00
1300,75	2374,00
1306,38	1933,00
1312,01	1791,00
1317,63	1543,00
1323,24	1601,00
1328,85	1603,00
1334,45	1556,00
1340,04	1554,00
1345,63	1507,00
1351,22	1631,00
1356,80	1579,00
1362,37	1590,00
1367,93	1649,00
1373,49	1595,00
1379,05	1550,00
1384,60	1608,00
1390,14	1639,00
1395,68	1594,00
1401,21	1609,00
1406,74	1733,00
1412,26	1858,00
1417,77	2017,00
1423,28	1933,00
1428,78	2063,00
1434,28	2242,00
1439,77	2441,00
1445,26	2398,00
1450,74	2346,00
1456,22	2121,00
1461,68	2164,00
1467,15	2113,00
1472,61	1992,00
1478,06	1816,00
1483,51	1655,00
1488,95	1594,00
1494,38	1677,00
1499,81	1498,00
1505,24	1494,00
1510,65	1567,00
1516,07	1450,00
1521,48	1487,00
1526,88	1413,00
1532,27	1428,00
1537,67	1486,00
1543,05	1410,00
1548,43	1381,00
1553,81	1518,00
1559,18	1359,00
1564,54	1397,00
1569,90	1419,00
1575,25	1382,00
1580,60	1342,00
1585,94	1353,00
1591,28	1464,00
1596,61	1339,00
1601,93	1444,00
1607,25	1431,00
1612,57	1353,00
1617,88	1427,00
1623,18	1425,00
1628,48	1394,00
1633,77	1338,00
1639,06	1330,00
1644,34	1386,00
1649,62	1351,00
1654,89	1404,00
1660,16	1344,00
1665,42	1343,00
1670,67	1366,00
1675,92	1365,00
1681,17	1322,00
1686,41	1389,00
1691,64	1330,00
1696,87	1229,00
1702,10	1293,00
1707,32	1346,00
1712,53	1287,00
1717,74	1320,00
1722,94	1335,00
1728,14	1284,00
1733,33	1314,00
1738,52	1324,00
1743,70	1266,00
1748,88	1198,00
1754,05	1298,00
1759,22	1235,00
1764,38	1372,00
1769,53	1248,00
1774,69	1297,00
1779,83	1246,00
1784,97	1244,00
1790,11	1280,00
1795,24	1272,00
1800,36	1234,00
1805,48	1128,00
1810,60	1329,00
1815,71	1212,00
1820,82	1249,00
1825,92	1252,00
1831,01	1198,00
1836,10	1209,00
1841,19	1184,00
1846,26	1175,00
1851,34	1231,00
1856,41	1256,00
1861,47	1230,00
1866,53	1232,00
1871,59	1161,00
1876,64	1194,00
1881,68	1222,00
1886,72	1210,00
1891,76	1117,00
1896,79	1294,00
1901,81	1093,00
1906,83	1223,00
1911,85	1190,00
1916,86	1165,00
1921,86	1114,00
1926,86	1172,00
1931,86	1117,00
1936,85	1097,00
1941,83	1179,00
1946,81	1201,00
1951,79	1146,00
1956,76	1099,00
1961,72	1119,00
1966,68	1115,00
1971,64	1126,00
1976,59	1092,00
1981,54	1052,00
1986,48	1127,00
1991,42	1095,00
1996,35	1157,00
2001,27	1104,00
2006,20	1054,00
2011,11	1040,00
2016,03	1130,00
2020,93	1047,00
2025,84	1000,00
2030,73	1061,00
2035,63	1075,00
2040,52	1084,00
2045,40	947,00
2050,28	1011,00
2055,15	1049,00
2060,02	950,00
2064,89	1069,00
2069,75	986,00
2074,60	1064,00
2079,46	1014,00
2084,30	1079,00
2089,14	1056,00
2093,98	1083,00
2098,81	1055,00
2103,64	1065,00
2108,46	997,00
2113,28	1113,00
2118,09	1043,00
2122,90	1011,00
2127,70	991,00
2132,50	1078,00
2137,30	974,00
2142,09	1013,00
2146,87	1027,00
2151,66	886,00
2156,43	1046,00
2161,20	1011,00
2165,97	990,00
2170,73	863,00
2175,49	1073,00
2180,24	962,00
2184,99	980,00
2189,74	1074,00
2194,48	968,00
2199,21	1033,00
2203,94	935,00
2208,67	910,00
2213,39	953,00
2218,11	901,00
2222,82	1025,00
2227,53	937,00
2232,23	905,00
2236,93	940,00
2241,63	865,00
2246,32	979,00
2251,00	1024,00
2255,68	986,00
2260,36	862,00
2265,03	907,00
2269,70	1009,00
2274,36	919,00
2279,02	929,00
2283,68	982,00
2288,33	899,00
2292,97	947,00
2297,61	923,00
2302,25	913,00
2306,88	905,00
2311,51	774,00
2316,14	822,00
2320,75	829,00
2325,37	849,00
2329,98	897,00
2334,59	900,00
2339,19	832,00
2343,79	888,00
2348,38	863,00
2352,97	800,00
2357,55	815,00
2362,13	847,00
2366,71	798,00
2371,28	828,00
2375,85	870,00
2380,41	799,00
2384,97	841,00
2389,52	843,00
2394,07	914,00
2398,62	766,00
2403,16	814,00
2407,70	730,00
2412,23	736,00
2416,76	871,00
2421,29	820,00
2425,81	826,00
2430,32	920,00
2434,84	705,00
2439,34	750,00
2443,85	829,00
2448,35	696,00
2452,84	764,00
2457,33	806,00
2461,82	783,00
2466,30	797,00
2470,78	874,00
2475,25	761,00
2479,72	753,00
2484,19	711,00
2488,65	720,00
2493,11	697,00
2497,56	719,00
2502,01	710,00
2506,46	729,00
2510,90	801,00
2515,34	687,00
2519,77	762,00
2524,20	674,00
2528,62	745,00
2533,04	694,00
2537,46	627,00
2541,87	673,00
2546,28	743,00
2550,68	753,00
2555,08	642,00
2559,48	760,00
2563,87	602,00
2568,26	718,00
2572,64	655,00
2577,02	806,00
2581,40	681,00
2585,77	764,00
2590,14	695,00
2594,50	655,00
2598,86	533,00
2603,22	745,00
2607,57	659,00
2611,92	651,00
2616,26	608,00
2620,60	687,00
2624,94	696,00
2629,27	678,00
2633,60	709,00
2637,92	714,00
2642,24	664,00
2646,56	707,00
2650,87	598,00
2655,18	748,00
2659,48	673,00
2663,78	699,00
2668,08	649,00
2672,37	590,00
2676,66	760,00
2680,95	687,00
2685,23	615,00
2689,50	616,00
2693,78	672,00
2698,05	662,00
2702,31	596,00
2706,57	759,00
2710,83	731,00
2715,08	732,00
2719,33	704,00
2723,58	709,00
2727,82	801,00
2732,06	765,00
2736,29	795,00
2740,53	732,00
2744,75	766,00
2748,97	759,00
2753,19	741,00
2757,41	668,00
2761,62	769,00
2765,83	698,00
2770,03	596,00
2774,23	640,00
2778,43	657,00
2782,62	735,00
2786,81	676,00
2791,00	672,00
2795,18	657,00
2799,35	796,00
2803,53	734,00
2807,70	706,00
2811,86	769,00
2816,03	714,00
2820,19	817,00
2824,34	802,00
2828,49	827,00
2832,64	916,00
2836,78	1106,00
2840,92	1409,00
2845,06	1546,00
2849,19	1783,00
2853,32	1790,00
2857,45	1734,00
2861,57	1696,00
2865,69	1555,00
2869,80	1626,00
2873,91	1785,00
2878,02	1743,00
2882,12	2043,00
2886,22	1917,00
2890,32	1838,00
2894,41	1661,00
2898,50	1512,00
2902,58	1373,00
2906,67	1430,00
2910,74	1368,00
2914,82	1235,00
2918,89	1251,00
2922,96	1105,00
2927,02	1073,00
2931,08	986,00
2935,13	940,00
2939,19	971,00
2943,24	923,00
2947,28	858,00
2951,32	809,00
2955,36	726,00
2959,40	655,00
2963,43	654,00
2967,46	647,00
2971,48	628,00
2975,50	618,00
2979,52	541,00
2983,53	588,00
2987,54	595,00
2991,55	571,00
2995,55	542,00
2999,55	541,00
3003,54	467,00
3007,54	503,00
3011,53	523,00
3015,51	554,00
3019,49	563,00
3023,47	423,00
3027,45	482,00
3031,42	503,00
3035,39	506,00
3039,35	461,00
3043,31	452,00
3047,27	436,00
3051,22	417,00
3055,17	466,00
3059,12	538,00
3063,06	548,00
3067,00	376,00
3070,94	375,00
3074,87	532,00
3078,80	508,00
3082,73	404,00
3086,65	459,00
3090,57	404,00
3094,49	371,00
3098,40	367,00
3102,31	370,00
3106,22	370,00
3110,12	456,00
3114,02	383,00
3117,92	407,00
3121,81	444,00
3125,70	378,00
3129,58	372,00
3133,47	341,00
3137,34	317,00
3141,22	424,00
3145,09	255,00
3148,96	351,00
3152,83	322,00
3156,69	417,00
3160,55	294,00
3164,40	399,00
3168,26	429,00
3172,10	388,00
3175,95	422,00
3179,79	405,00
3183,63	422,00
3187,47	332,00
3191,30	444,00
3195,13	390,00
3198,95	310,00
3202,78	350,00
3206,60	317,00
3210,41	297,00
3214,23	299,00
3218,03	267,00
3221,84	354,00
3225,64	318,00
3229,44	329,00
3233,24	331,00
3237,03	302,00
3240,82	329,00
3244,61	249,00
3248,39	300,00
3252,17	390,00
3255,95	376,00
3259,72	286,00
3263,49	359,00
3267,26	371,00
3271,03	313,00
3274,79	284,00
3278,54	338,00
3282,30	225,00
3286,05	296,00
3289,80	327,00
3293,54	322,00
3297,29	269,00
3301,02	353,00
3304,76	342,00
3308,49	300,00
3312,22	363,00
3315,95	364,00
3319,67	255,00
3323,39	352,00
3327,10	324,00
3330,82	367,00
3334,53	181,00
3338,24	251,00
3341,94	310,00
3345,64	359,00
3349,34	269,00
3353,03	359,00
3356,72	296,00
3360,41	265,00
3364,10	307,00
3367,78	291,00
3371,46	314,00
3375,13	345,00
3378,81	277,00
3382,48	315,00
3386,14	320,00
3389,81	339,00
3393,47	277,00
3397,12	368,00
3400,78	280,00
3404,43	169,00
3408,08	298,00
3411,72	181,00
3415,36	314,00
3419,00	264,00
3422,64	241,00
3426,27	268,00
3429,90	221,00
3433,53	317,00
3437,15	295,00
3440,77	276,00
3444,39	213,00
3448,00	289,00
3451,62	245,00
3455,22	206,00
3458,83	220,00
3462,43	249,00
3466,03	272,00
3469,63	234,00
3473,22	301,00
3476,81	315,00
3480,40	287,00
3483,99	272,00
3487,57	286,00
3491,15	278,00
3494,72	313,00
3498,29	311,00
3501,86	151,00
3505,43	255,00
3508,99	199,00
3512,56	320,00
3516,11	365,00
3519,67	171,00
3523,22	338,00
3526,77	214,00
3530,32	176,00
3533,86	204,00
3537,40	295,00
3540,94	283,00
3544,47	218,00
3548,00	222,00
3551,53	157,00
3555,06	261,00
3558,58	287,00
3562,10	197,00
3565,62	222,00
3569,13	251,00
3572,64	183,00
3576,15	233,00
3579,66	297,00
3583,16	225,00
3586,66	258,00
3590,16	307,00
3593,65	180,00
3597,14	227,00
3600,63	246,00
3604,11	170,00
3607,60	196,00
3611,08	230,00
3614,55	260,00
3618,03	299,00
3621,50	216,00
3624,97	190,00
3628,43	249,00
3631,90	266,00
3635,36	146,00
3638,81	285,00
3642,27	284,00
3645,72	222,00
3649,17	211,00
3652,61	208,00
3656,06	240,00
3659,50	267,00
3662,93	144,00
3666,37	196,00
3669,80	244,00
3673,23	124,00
3676,65	232,00
3680,08	300,00
3683,50	209,00
3686,92	200,00
3690,33	238,00
3693,74	232,00
3697,15	181,00
3700,56	154,00
3703,96	298,00
3707,36	232,00
3710,76	152,00
3714,16	230,00
3717,55	257,00
3720,94	251,00
3724,33	163,00
3727,71	212,00
3731,10	239,00
3734,48	182,00
3737,85	187,00
3741,23	169,00
3744,60	233,00
3747,97	170,00
3751,33	248,00
3754,69	299,00
3758,05	169,00
3761,41	178,00
3764,77	177,00
3768,12	226,00
3771,47	217,00
3774,82	204,00
3778,16	-6,00
3781,50	2,00
3784,84	3,00
3788,18	-6,00
>>>>>End Processed Spectral Data<<<<<
