SpectraSuite Data File
++++++++++++++++++++++++++++++++++++
Date: Mon Mar 09 14:39:53 ICT 2026
User: Administrator
Dark Spectrum Present: Yes
Reference Spectrum Present: No
Number of Sampled Component Spectra: 1
Spectrometers: MAYP113682
Integration Time (usec): 3000000 (MAYP113682)
Spectra Averaged: 1 (MAYP113682)
Boxcar Smoothing: 0 (MAYP113682)
Correct for Electrical Dark: No (MAYP113682)
Strobe/Lamp Enabled: No (MAYP113682)
Correct for Detector Non-linearity: No (MAYP113682)
Correct for Stray Light: No (MAYP113682)
Number of Pixels in Processed Spectrum: 2068
>>>>>Begin Processed Spectral Data<<<<<
-37534,58	16,00
-37414,56	-4,00
-37295,11	0,00
-37176,24	-1,00
-37057,95	260,00
-36940,22	302,00
-36823,05	366,00
-36706,45	428,00
-36590,40	281,00
-36474,90	352,00
-36359,95	377,00
-36245,55	299,00
-36131,68	382,00
-36018,35	338,00
-35905,55	363,00
-35793,29	312,00
-35681,54	266,00
-35570,32	319,00
-35459,62	290,00
-35349,43	291,00
-35239,75	256,00
-35130,58	314,00
-35021,91	241,00
-34913,74	348,00
-34806,07	332,00
-34698,89	391,00
-34592,20	349,00
-34486,00	372,00
-34380,28	243,00
-34275,04	378,00
-34170,27	317,00
-34065,98	283,00
-33962,16	247,00
-33858,81	342,00
-33755,92	345,00
-33653,49	431,00
-33551,52	354,00
-33450,01	250,00
-33348,94	326,00
-33248,33	368,00
-33148,16	317,00
-33048,43	331,00
-32949,14	335,00
-32850,29	350,00
-32751,87	353,00
-32653,89	370,00
-32556,33	454,00
-32459,20	302,00
-32362,49	361,00
-32266,19	320,00
-32170,32	321,00
-32074,86	401,00
-31979,82	361,00
-31885,18	509,00
-31790,95	406,00
-31697,12	311,00
-31603,69	423,00
-31510,67	297,00
-31418,04	251,00
-31325,80	427,00
-31233,95	355,00
-31142,49	369,00
-31051,42	450,00
-30960,73	450,00
-30870,43	406,00
-30780,50	343,00
-30690,95	367,00
-30601,77	476,00
-30512,97	246,00
-30424,53	342,00
-30336,46	271,00
-30248,76	395,00
-30161,42	398,00
-30074,44	313,00
-29987,81	329,00
-29901,55	434,00
-29815,63	243,00
-29730,07	301,00
-29644,86	333,00
-29560,00	379,00
-29475,48	363,00
-29391,30	403,00
-29307,47	316,00
-29223,97	307,00
-29140,81	405,00
-29057,99	347,00
-28975,50	325,00
-28893,34	406,00
-28811,51	304,00
-28730,00	347,00
-28648,82	289,00
-28567,97	328,00
-28487,43	346,00
-28407,21	289,00
-28327,32	359,00
-28247,73	290,00
-28168,46	302,00
-28089,50	408,00
-28010,85	294,00
-27932,51	294,00
-27854,48	394,00
-27776,75	298,00
-27699,32	282,00
-27622,19	376,00
-27545,37	339,00
-27468,84	372,00
-27392,60	400,00
-27316,66	407,00
-27241,01	296,00
-27165,66	336,00
-27090,59	323,00
-27015,81	336,00
-26941,31	451,00
-26867,10	413,00
-26793,17	341,00
-26719,52	433,00
-26646,15	266,00
-26573,06	413,00
-26500,24	311,00
-26427,70	360,00
-26355,43	393,00
-26283,43	388,00
-26211,71	402,00
-26140,25	367,00
-26069,06	387,00
-25998,13	231,00
-25927,46	312,00
-25857,06	406,00
-25786,92	364,00
-25717,04	291,00
-25647,42	321,00
-25578,05	420,00
-25508,94	316,00
-25440,09	333,00
-25371,48	309,00
-25303,13	273,00
-25235,02	349,00
-25167,17	435,00
-25099,56	392,00
-25032,19	345,00
-24965,07	346,00
-24898,20	318,00
-24831,56	323,00
-24765,17	345,00
-24699,01	308,00
-24633,10	264,00
-24567,41	321,00
-24501,97	357,00
-24436,75	357,00
-24371,77	325,00
-24307,03	336,00
-24242,51	210,00
-24178,22	345,00
-24114,16	207,00
-24050,32	327,00
-23986,71	362,00
-23923,32	327,00
-23860,16	318,00
-23797,22	365,00
-23734,50	361,00
-23672,00	272,00
-23609,71	280,00
-23547,65	272,00
-23485,80	387,00
-23424,16	307,00
-23362,74	402,00
-23301,53	332,00
-23240,54	347,00
-23179,75	343,00
-23119,17	330,00
-23058,80	355,00
-22998,64	382,00
-22938,68	340,00
-22878,93	374,00
-22819,39	364,00
-22760,04	312,00
-22700,90	294,00
-22641,96	340,00
-22583,22	432,00
-22524,68	361,00
-22466,33	243,00
-22408,19	379,00
-22350,23	355,00
-22292,48	376,00
-22234,92	338,00
-22177,55	378,00
-22120,37	427,00
-22063,38	356,00
-22006,58	287,00
-21949,98	322,00
-21893,56	256,00
-21837,33	301,00
-21781,28	335,00
-21725,42	346,00
-21669,74	356,00
-21614,25	404,00
-21558,94	248,00
-21503,81	315,00
-21448,86	370,00
-21394,10	359,00
-21339,51	267,00
-21285,10	249,00
-21230,86	296,00
-21176,81	284,00
-21122,93	305,00
-21069,22	448,00
-21015,69	353,00
-20962,33	301,00
-20909,14	318,00
-20856,13	320,00
-20803,28	342,00
-20750,61	274,00
-20698,10	272,00
-20645,76	350,00
-20593,59	422,00
-20541,59	363,00
-20489,75	330,00
-20438,07	394,00
-20386,56	420,00
-20335,22	360,00
-20284,03	322,00
-20233,01	332,00
-20182,15	310,00
-20131,45	368,00
-20080,91	277,00
-20030,52	365,00
-19980,30	253,00
-19930,23	314,00
-19880,32	342,00
-19830,56	379,00
-19780,96	286,00
-19731,52	364,00
-19682,23	359,00
-19633,09	290,00
-19584,10	377,00
-19535,26	316,00
-19486,58	316,00
-19438,04	397,00
-19389,66	360,00
-19341,42	344,00
-19293,33	343,00
-19245,39	284,00
-19197,60	370,00
-19149,95	308,00
-19102,45	363,00
-19055,09	324,00
-19007,87	292,00
-18960,80	378,00
-18913,87	363,00
-18867,09	345,00
-18820,44	394,00
-18773,94	476,00
-18727,57	293,00
-18681,35	259,00
-18635,26	398,00
-18589,31	313,00
-18543,50	274,00
-18497,83	400,00
-18452,29	377,00
-18406,89	381,00
-18361,63	390,00
-18316,50	389,00
-18271,50	348,00
-18226,63	284,00
-18181,90	393,00
-18137,30	348,00
-18092,84	275,00
-18048,50	398,00
-18004,29	213,00
-17960,22	344,00
-17916,27	325,00
-17872,45	289,00
-17828,76	408,00
-17785,20	371,00
-17741,77	350,00
-17698,46	387,00
-17655,28	236,00
-17612,22	345,00
-17569,29	231,00
-17526,48	334,00
-17483,79	312,00
-17441,23	316,00
-17398,79	355,00
-17356,48	380,00
-17314,28	422,00
-17272,21	342,00
-17230,26	313,00
-17188,42	369,00
-17146,71	292,00
-17105,12	309,00
-17063,64	353,00
-17022,28	269,00
-16981,04	393,00
-16939,92	289,00
-16898,91	361,00
-16858,02	384,00
-16817,25	214,00
-16776,59	292,00
-16736,04	340,00
-16695,61	246,00
-16655,29	337,00
-16615,09	409,00
-16574,99	307,00
-16535,01	310,00
-16495,15	357,00
-16455,39	393,00
-16415,74	287,00
-16376,21	326,00
-16336,78	293,00
-16297,46	300,00
-16258,26	393,00
-16219,16	349,00
-16180,17	308,00
-16141,28	358,00
-16102,51	432,00
-16063,84	355,00
-16025,27	382,00
-15986,82	212,00
-15948,46	354,00
-15910,22	310,00
-15872,07	330,00
-15834,04	378,00
-15796,10	307,00
-15758,27	346,00
-15720,54	268,00
-15682,91	370,00
-15645,39	265,00
-15607,97	314,00
-15570,64	299,00
-15533,42	317,00
-15496,30	287,00
-15459,28	290,00
-15422,36	282,00
-15385,54	300,00
-15348,82	361,00
-15312,19	364,00
-15275,66	278,00
-15239,23	338,00
-15202,90	308,00
-15166,67	275,00
-15130,53	351,00
-15094,48	397,00
-15058,54	293,00
-15022,68	193,00
-14986,93	354,00
-14951,26	322,00
-14915,69	269,00
-14880,22	275,00
-14844,84	264,00
-14809,55	341,00
-14774,35	352,00
-14739,25	472,00
-14704,24	314,00
-14669,32	353,00
-14634,49	334,00
-14599,75	361,00
-14565,10	313,00
-14530,55	461,00
-14496,08	427,00
-14461,70	343,00
-14427,41	261,00
-14393,21	322,00
-14359,10	319,00
-14325,07	399,00
-14291,14	330,00
-14257,29	393,00
-14223,52	311,00
-14189,85	420,00
-14156,26	303,00
-14122,76	357,00
-14089,34	280,00
-14056,01	343,00
-14022,76	389,00
-13989,60	461,00
-13956,52	314,00
-13923,53	314,00
-13890,62	355,00
-13857,79	274,00
-13825,05	315,00
-13792,39	362,00
-13759,81	389,00
-13727,31	260,00
-13694,90	339,00
-13662,57	295,00
-13630,31	367,00
-13598,14	276,00
-13566,05	268,00
-13534,05	352,00
-13502,12	293,00
-13470,27	360,00
-13438,50	451,00
-13406,80	289,00
-13375,19	219,00
-13343,66	390,00
-13312,20	316,00
-13280,83	256,00
-13249,53	310,00
-13218,30	328,00
-13187,16	232,00
-13156,09	399,00
-13125,10	374,00
-13094,18	365,00
-13063,34	365,00
-13032,58	292,00
-13001,89	322,00
-12971,28	325,00
-12940,74	360,00
-12910,27	390,00
-12879,88	220,00
-12849,57	337,00
-12819,33	287,00
-12789,16	338,00
-12759,06	293,00
-12729,04	398,00
-12699,09	861,00
-12669,21	301,00
-12639,41	284,00
-12609,68	378,00
-12580,02	352,00
-12550,43	355,00
-12520,91	289,00
-12491,46	363,00
-12462,08	347,00
-12432,77	329,00
-12403,54	331,00
-12374,37	356,00
-12345,27	319,00
-12316,24	347,00
-12287,29	456,00
-12258,40	295,00
-12229,57	330,00
-12200,82	369,00
-12172,14	262,00
-12143,52	342,00
-12114,97	313,00
-12086,49	320,00
-12058,07	378,00
-12029,73	289,00
-12001,44	448,00
-11973,23	333,00
-11945,08	390,00
-11917,00	307,00
-11888,98	331,00
-11861,03	343,00
-11833,15	332,00
-11805,32	315,00
-11777,57	333,00
-11749,88	351,00
-11722,25	349,00
-11694,69	367,00
-11667,19	380,00
-11639,75	270,00
-11612,38	362,00
-11585,07	312,00
-11557,83	419,00
-11530,65	360,00
-11503,53	368,00
-11476,47	391,00
-11449,48	318,00
-11422,54	343,00
-11395,67	302,00
-11368,86	355,00
-11342,11	349,00
-11315,43	267,00
-11288,80	285,00
-11262,23	389,00
-11235,73	287,00
-11209,28	299,00
-11182,90	360,00
-11156,57	391,00
-11130,31	361,00
-11104,10	396,00
-11077,96	390,00
-11051,87	298,00
-11025,84	262,00
-10999,87	397,00
-10973,96	378,00
-10948,11	307,00
-10922,31	277,00
-10896,58	392,00
-10870,90	381,00
-10845,28	334,00
-10819,71	296,00
-10794,20	271,00
-10768,75	374,00
-10743,36	304,00
-10718,02	365,00
-10692,74	354,00
-10667,52	319,00
-10642,35	331,00
-10617,24	407,00
-10592,18	422,00
-10567,18	310,00
-10542,23	308,00
-10517,34	382,00
-10492,51	396,00
-10467,72	345,00
-10443,00	345,00
-10418,32	359,00
-10393,70	361,00
-10369,14	244,00
-10344,63	420,00
-10320,17	365,00
-10295,77	270,00
-10271,42	346,00
-10247,12	399,00
-10222,88	454,00
-10198,68	273,00
-10174,54	353,00
-10150,46	395,00
-10126,42	390,00
-10102,44	386,00
-10078,51	385,00
-10054,63	385,00
-10030,80	328,00
-10007,03	427,00
-9983,30	351,00
-9959,63	283,00
-9936,01	315,00
-9912,44	363,00
-9888,92	298,00
-9865,44	271,00
-9842,02	347,00
-9818,65	285,00
-9795,33	399,00
-9772,06	346,00
-9748,84	339,00
-9725,67	389,00
-9702,55	244,00
-9679,47	451,00
-9656,45	281,00
-9633,47	288,00
-9610,55	358,00
-9587,67	381,00
-9564,84	403,00
-9542,06	359,00
-9519,32	328,00
-9496,64	402,00
-9474,00	377,00
-9451,41	402,00
-9428,87	411,00
-9406,37	368,00
-9383,92	328,00
-9361,52	341,00
-9339,17	334,00
-9316,86	248,00
-9294,60	253,00
-9272,38	355,00
-9250,21	430,00
-9228,09	415,00
-9206,01	298,00
-9183,98	299,00
-9162,00	241,00
-9140,06	295,00
-9118,16	292,00
-9096,31	405,00
-9074,51	372,00
-9052,75	439,00
-9031,04	483,00
-9009,37	259,00
-8987,74	413,00
-8966,16	414,00
-8944,63	246,00
-8923,14	236,00
-8901,69	309,00
-8880,29	324,00
-8858,93	301,00
-8837,61	484,00
-8816,34	411,00
-8795,11	382,00
-8773,92	374,00
-8752,78	429,00
-8731,68	272,00
-8710,62	342,00
-8689,61	288,00
-8668,63	262,00
-8647,70	428,00
-8626,82	431,00
-8605,97	513,00
-8585,17	389,00
-8564,41	265,00
-8543,69	301,00
-8523,01	300,00
-8502,37	469,00
-8481,78	370,00
-8461,23	161,00
-8440,71	329,00
-8420,24	315,00
-8399,81	417,00
-8379,42	320,00
-8359,08	417,00
-8338,77	289,00
-8318,50	522,00
-8298,27	249,00
-8278,09	352,00
-8257,94	279,00
-8237,83	444,00
-8217,76	467,00
-8197,74	309,00
-8177,75	450,00
-8157,80	415,00
-8137,89	361,00
-8118,02	304,00
-8098,19	508,00
-8078,40	365,00
-8058,65	388,00
-8038,93	475,00
-8019,26	423,00
-7999,62	488,00
-7980,02	438,00
-7960,46	473,00
-7940,94	397,00
-7921,46	339,00
-7902,01	325,00
-7882,60	409,00
-7863,23	468,00
-7843,90	408,00
-7824,61	354,00
-7805,35	366,00
-7786,13	404,00
-7766,95	435,00
-7747,80	306,00
-7728,69	449,00
-7709,62	359,00
-7690,59	413,00
-7671,59	376,00
-7652,63	364,00
-7633,70	286,00
-7614,81	450,00
-7595,96	318,00
-7577,15	383,00
-7558,37	340,00
-7539,62	381,00
-7520,91	325,00
-7502,24	416,00
-7483,60	456,00
-7465,00	373,00
-7446,44	386,00
-7427,91	372,00
-7409,41	376,00
-7390,95	416,00
-7372,53	278,00
-7354,14	369,00
-7335,78	319,00
-7317,46	345,00
-7299,18	364,00
-7280,92	467,00
-7262,71	432,00
-7244,52	372,00
-7226,38	322,00
-7208,26	390,00
-7190,18	323,00
-7172,14	421,00
-7154,12	393,00
-7136,15	399,00
-7118,20	408,00
-7100,29	434,00
-7082,41	441,00
-7064,57	389,00
-7046,76	364,00
-7028,98	263,00
-7011,24	489,00
-6993,53	241,00
-6975,85	275,00
-6958,20	303,00
-6940,59	304,00
-6923,01	303,00
-6905,46	428,00
-6887,94	327,00
-6870,46	497,00
-6853,01	321,00
-6835,59	322,00
-6818,21	202,00
-6800,85	353,00
-6783,53	302,00
-6766,24	291,00
-6748,98	272,00
-6731,76	331,00
-6714,56	231,00
-6697,40	246,00
-6680,26	253,00
-6663,16	248,00
-6646,09	333,00
-6629,05	236,00
-6612,05	404,00
-6595,07	275,00
-6578,13	344,00
-6561,21	277,00
-6544,33	304,00
-6527,47	234,00
-6510,65	370,00
-6493,86	274,00
-6477,10	211,00
-6460,36	304,00
-6443,66	238,00
-6426,99	284,00
-6410,35	307,00
-6393,74	392,00
-6377,16	230,00
-6360,61	268,00
-6344,09	262,00
-6327,59	236,00
-6311,13	151,00
-6294,70	401,00
-6278,29	403,00
-6261,92	309,00
-6245,58	296,00
-6229,26	428,00
-6212,97	283,00
-6196,72	355,00
-6180,49	335,00
-6164,29	134,00
-6148,12	283,00
-6131,98	211,00
-6115,86	289,00
-6099,78	223,00
-6083,72	203,00
-6067,69	256,00
-6051,69	364,00
-6035,72	360,00
-6019,78	312,00
-6003,87	266,00
-5987,98	273,00
-5972,12	310,00
-5956,29	352,00
-5940,49	278,00
-5924,71	324,00
-5908,96	304,00
-5893,24	321,00
-5877,55	219,00
-5861,89	334,00
-5846,25	256,00
-5830,64	241,00
-5815,05	195,00
-5799,50	253,00
-5783,97	354,00
-5768,47	347,00
-5752,99	403,00
-5737,55	372,00
-5722,12	275,00
-5706,73	393,00
-5691,36	352,00
-5676,02	261,00
-5660,71	336,00
-5645,42	303,00
-5630,16	330,00
-5614,92	225,00
-5599,71	272,00
-5584,53	308,00
-5569,37	288,00
-5554,24	1044,00
-5539,14	288,00
-5524,06	322,00
-5509,01	325,00
-5493,98	280,00
-5478,98	335,00
-5464,00	298,00
-5449,05	262,00
-5434,13	301,00
-5419,23	291,00
-5404,36	224,00
-5389,51	312,00
-5374,69	278,00
-5359,89	271,00
-5345,12	381,00
-5330,37	411,00
-5315,65	433,00
-5300,95	268,00
-5286,28	268,00
-5271,63	261,00
-5257,01	368,00
-5242,41	275,00
-5227,84	205,00
-5213,29	324,00
-5198,76	322,00
-5184,26	251,00
-5169,79	308,00
-5155,33	322,00
-5140,91	343,00
-5126,51	305,00
-5112,13	385,00
-5097,77	388,00
-5083,44	361,00
-5069,13	278,00
-5054,85	314,00
-5040,59	209,00
-5026,36	375,00
-5012,15	360,00
-4997,96	324,00
-4983,80	316,00
-4969,66	312,00
-4955,54	286,00
-4941,44	282,00
-4927,37	363,00
-4913,33	376,00
-4899,30	261,00
-4885,30	323,00
-4871,33	365,00
-4857,37	340,00
-4843,44	409,00
-4829,53	373,00
-4815,65	340,00
-4801,79	329,00
-4787,95	188,00
-4774,13	274,00
-4760,34	295,00
-4746,56	323,00
-4732,82	329,00
-4719,09	282,00
-4705,38	326,00
-4691,70	395,00
-4678,04	305,00
-4664,41	295,00
-4650,79	391,00
-4637,20	287,00
-4623,63	384,00
-4610,08	275,00
-4596,56	284,00
-4583,05	336,00
-4569,57	310,00
-4556,11	315,00
-4542,67	248,00
-4529,25	292,00
-4515,86	470,00
-4502,49	379,00
-4489,13	310,00
-4475,80	405,00
-4462,49	336,00
-4449,21	467,00
-4435,94	358,00
-4422,70	458,00
-4409,47	291,00
-4396,27	300,00
-4383,09	281,00
-4369,93	273,00
-4356,79	369,00
-4343,67	328,00
-4330,58	328,00
-4317,50	271,00
-4304,45	301,00
-4291,41	338,00
-4278,40	310,00
-4265,41	367,00
-4252,44	280,00
-4239,49	254,00
-4226,55	319,00
-4213,65	434,00
-4200,76	387,00
-4187,89	290,00
-4175,04	379,00
-4162,21	366,00
-4149,40	296,00
-4136,61	317,00
-4123,85	298,00
-4111,10	365,00
-4098,37	381,00
-4085,66	363,00
-4072,98	338,00
-4060,31	330,00
-4047,66	421,00
-4035,04	470,00
-4022,43	292,00
-4009,84	411,00
-3997,27	362,00
-3984,72	351,00
-3972,19	418,00
-3959,69	324,00
-3947,20	386,00
-3934,73	379,00
-3922,27	336,00
-3909,84	345,00
-3897,43	347,00
-3885,04	288,00
-3872,67	280,00
-3860,31	350,00
-3847,98	389,00
-3835,66	329,00
-3823,36	481,00
-3811,09	238,00
-3798,83	317,00
-3786,59	446,00
-3774,37	365,00
-3762,17	245,00
-3749,98	320,00
-3737,82	335,00
-3725,67	409,00
-3713,55	312,00
-3701,44	399,00
-3689,35	408,00
-3677,28	347,00
-3665,22	313,00
-3653,19	286,00
-3641,17	319,00
-3629,18	289,00
-3617,20	287,00
-3605,24	258,00
-3593,30	402,00
-3581,37	344,00
-3569,47	317,00
-3557,58	376,00
-3545,71	242,00
-3533,86	360,00
-3522,02	351,00
-3510,21	345,00
-3498,41	351,00
-3486,63	297,00
-3474,87	395,00
-3463,12	339,00
-3451,40	227,00
-3439,69	380,00
-3428,00	421,00
-3416,33	303,00
-3404,67	296,00
-3393,03	338,00
-3381,41	363,00
-3369,81	316,00
-3358,22	310,00
-3346,66	403,00
-3335,10	372,00
-3323,57	285,00
-3312,06	333,00
-3300,56	328,00
-3289,08	293,00
-3277,61	301,00
-3266,16	370,00
-3254,73	295,00
-3243,32	390,00
-3231,92	362,00
-3220,55	395,00
-3209,18	322,00
-3197,84	290,00
-3186,51	255,00
-3175,20	233,00
-3163,90	298,00
-3152,63	352,00
-3141,36	378,00
-3130,12	282,00
-3118,89	367,00
-3107,68	339,00
-3096,49	358,00
-3085,31	341,00
-3074,15	318,00
-3063,00	405,00
-3051,87	405,00
-3040,76	321,00
-3029,67	329,00
-3018,59	431,00
-3007,52	417,00
-2996,48	363,00
-2985,44	233,00
-2974,43	335,00
-2963,43	325,00
-2952,45	302,00
-2941,48	359,00
-2930,53	463,00
-2919,60	263,00
-2908,68	262,00
-2897,78	360,00
-2886,89	378,00
-2876,02	250,00
-2865,17	276,00
-2854,33	273,00
-2843,50	267,00
-2832,70	211,00
-2821,90	315,00
-2811,13	319,00
-2800,37	333,00
-2789,62	371,00
-2778,89	356,00
-2768,18	333,00
-2757,48	397,00
-2746,80	345,00
-2736,13	382,00
-2725,48	342,00
-2714,84	352,00
-2704,22	323,00
-2693,61	297,00
-2683,02	362,00
-2672,45	319,00
-2661,89	400,00
-2651,34	366,00
-2640,81	322,00
-2630,30	343,00
-2619,80	391,00
-2609,31	387,00
-2598,84	335,00
-2588,39	335,00
-2577,95	336,00
-2567,52	220,00
-2557,11	374,00
-2546,71	290,00
-2536,33	343,00
-2525,97	330,00
-2515,62	331,00
-2505,28	433,00
-2494,96	332,00
-2484,65	337,00
-2474,36	385,00
-2464,08	313,00
-2453,82	396,00
-2443,57	349,00
-2433,33	320,00
-2423,11	323,00
-2412,91	275,00
-2402,72	234,00
-2392,54	353,00
-2382,38	369,00
-2372,23	391,00
-2362,09	4075,00
-2351,97	253,00
-2341,87	346,00
-2331,78	366,00
-2321,70	364,00
-2311,64	371,00
-2301,59	267,00
-2291,55	285,00
-2281,53	358,00
-2271,53	393,00
-2261,53	449,00
-2251,55	257,00
-2241,59	408,00
-2231,64	381,00
-2221,70	281,00
-2211,78	428,00
-2201,87	415,00
-2191,97	345,00
-2182,09	351,00
-2172,22	487,00
-2162,37	271,00
-2152,53	318,00
-2142,70	263,00
-2132,89	311,00
-2123,09	353,00
-2113,30	400,00
-2103,53	337,00
-2093,77	353,00
-2084,02	383,00
-2074,29	352,00
-2064,57	343,00
-2054,86	348,00
-2045,17	327,00
-2035,49	422,00
-2025,82	365,00
-2016,17	250,00
-2006,53	285,00
-1996,91	377,00
-1987,29	296,00
-1977,69	363,00
-1968,11	301,00
-1958,53	322,00
-1948,97	373,00
-1939,42	334,00
-1929,89	226,00
-1920,37	368,00
-1910,86	303,00
-1901,36	350,00
-1891,88	325,00
-1882,41	338,00
-1872,95	366,00
-1863,51	293,00
-1854,08	320,00
-1844,66	326,00
-1835,26	251,00
-1825,86	373,00
-1816,48	307,00
-1807,11	345,00
-1797,76	353,00
-1788,42	400,00
-1779,09	339,00
-1769,77	239,00
-1760,47	439,00
-1751,17	345,00
-1741,89	357,00
-1732,63	417,00
-1723,37	492,00
-1714,13	448,00
-1704,90	267,00
-1695,68	410,00
-1686,48	258,00
-1677,29	284,00
-1668,11	392,00
-1658,94	353,00
-1649,78	305,00
-1640,64	376,00
-1631,51	338,00
-1622,39	412,00
-1613,28	432,00
-1604,19	415,00
-1595,10	340,00
-1586,03	254,00
-1576,97	431,00
-1567,93	397,00
-1558,89	413,00
-1549,87	450,00
-1540,86	333,00
-1531,86	322,00
-1522,87	284,00
-1513,90	345,00
-1504,93	342,00
-1495,98	381,00
-1487,04	385,00
-1478,12	438,00
-1469,20	316,00
-1460,30	353,00
-1451,40	394,00
-1442,52	390,00
-1433,65	393,00
-1424,80	376,00
-1415,95	298,00
-1407,12	451,00
-1398,30	409,00
-1389,48	391,00
-1380,69	381,00
-1371,90	364,00
-1363,12	394,00
-1354,36	381,00
-1345,60	366,00
-1336,86	272,00
-1328,13	484,00
-1319,41	336,00
-1310,70	326,00
-1302,01	294,00
-1293,32	261,00
-1284,65	349,00
-1275,99	343,00
-1267,33	373,00
-1258,69	385,00
-1250,06	334,00
-1241,45	385,00
-1232,84	367,00
-1224,25	339,00
-1215,66	419,00
-1207,09	368,00
-1198,53	334,00
-1189,97	302,00
-1181,43	366,00
-1172,91	430,00
-1164,39	348,00
-1155,88	357,00
-1147,38	296,00
-1138,90	360,00
-1130,43	320,00
-1121,96	313,00
-1113,51	443,00
-1105,07	380,00
-1096,64	296,00
-1088,22	304,00
-1079,81	357,00
-1071,41	365,00
-1063,02	325,00
-1054,65	477,00
-1046,28	372,00
-1037,92	396,00
-1029,58	275,00
-1021,24	322,00
-1012,92	494,00
-1004,61	388,00
-996,30	517,00
-988,01	259,00
-979,73	372,00
-971,46	368,00
-963,20	312,00
-954,95	349,00
-946,71	325,00
-938,48	317,00
-930,26	375,00
-922,06	416,00
-913,86	385,00
-905,67	349,00
-897,49	323,00
-889,33	339,00
-881,17	401,00
-873,02	382,00
-864,89	267,00
-856,76	311,00
-848,65	254,00
-840,54	340,00
-832,45	358,00
-824,36	258,00
-816,29	370,00
-808,22	321,00
-800,17	403,00
-792,12	407,00
-784,09	411,00
-776,06	322,00
-768,05	337,00
-760,04	380,00
-752,05	383,00
-744,07	513,00
-736,09	437,00
-728,13	298,00
-720,17	321,00
-712,23	342,00
-704,29	336,00
-696,37	340,00
-688,45	366,00
-680,55	359,00
-672,65	320,00
-664,77	274,00
-656,89	386,00
-649,03	331,00
-641,17	362,00
-633,32	432,00
-625,49	330,00
-617,66	413,00
-609,84	383,00
-602,03	291,00
-594,23	351,00
-586,45	307,00
-578,67	301,00
-570,90	290,00
-563,14	406,00
-555,39	357,00
-547,65	403,00
-539,91	435,00
-532,19	359,00
-524,48	321,00
-516,78	410,00
-509,08	399,00
-501,40	317,00
-493,72	332,00
-486,06	262,00
-478,40	499,00
-470,76	361,00
-463,12	272,00
-455,49	294,00
-447,87	348,00
-440,26	319,00
-432,66	392,00
-425,07	316,00
-417,49	289,00
-409,92	365,00
-402,35	272,00
-394,80	363,00
-387,25	382,00
-379,72	367,00
-372,19	302,00
-364,67	294,00
-357,17	418,00
-349,67	260,00
-342,18	475,00
-334,69	394,00
-327,22	297,00
-319,76	332,00
-312,30	432,00
-304,86	415,00
-297,42	395,00
-290,00	338,00
-282,58	316,00
-275,17	399,00
-267,77	446,00
-260,37	349,00
-252,99	478,00
-245,62	423,00
-238,25	301,00
-230,90	425,00
-223,55	463,00
-216,21	375,00
-208,88	384,00
-201,56	461,00
-194,25	382,00
-186,94	404,00
-179,65	418,00
-172,36	481,00
-165,08	423,00
-157,81	510,00
-150,55	585,00
-143,30	562,00
-136,06	566,00
-128,82	587,00
-121,60	571,00
-114,38	625,00
-107,17	663,00
-99,97	737,00
-92,78	721,00
-85,60	838,00
-78,42	899,00
-71,25	985,00
-64,10	1179,00
-56,95	1192,00
-49,81	1428,00
-42,67	1764,00
-35,55	1928,00
-28,43	2540,00
-21,33	4058,00
-14,23	11979,00
-7,14	57775,00
-0,05	57564,00
7,02	57281,00
14,09	42904,00
21,14	11369,00
28,19	4811,00
35,23	3303,00
42,27	2559,00
49,29	2131,00
56,31	1899,00
63,32	1647,00
70,32	1371,00
77,31	1139,00
84,29	1048,00
91,27	1095,00
98,23	929,00
105,19	898,00
112,14	1008,00
119,09	1364,00
126,02	1789,00
132,95	2253,00
139,87	2234,00
146,78	2191,00
153,68	2168,00
160,58	2209,00
167,46	2208,00
174,34	2093,00
181,21	2206,00
188,08	2192,00
194,93	2307,00
201,78	2177,00
208,62	2079,00
215,45	2219,00
222,27	2229,00
229,09	2250,00
235,90	2183,00
242,70	2135,00
249,49	2202,00
256,27	2136,00
263,05	2086,00
269,82	2070,00
276,58	2135,00
283,33	2142,00
290,08	2088,00
296,82	2069,00
303,55	2075,00
310,27	1980,00
316,98	2052,00
323,69	2061,00
330,39	1964,00
337,08	2126,00
343,76	2031,00
350,44	2060,00
357,11	2079,00
363,77	1971,00
370,42	1942,00
377,07	2100,00
383,71	2023,00
390,34	2117,00
396,96	1975,00
403,58	2041,00
410,19	2036,00
416,79	2083,00
423,38	2152,00
429,97	2013,00
436,55	1978,00
443,12	1967,00
449,68	1888,00
456,24	1990,00
462,79	2060,00
469,33	1989,00
475,86	2029,00
482,39	1984,00
488,91	2020,00
495,42	1891,00
501,93	1989,00
508,42	1942,00
514,91	1996,00
521,40	1952,00
527,87	1913,00
534,34	1944,00
540,80	2006,00
547,25	2043,00
553,70	2043,00
560,14	1909,00
566,57	2045,00
573,00	1955,00
579,41	2050,00
585,83	1922,00
592,23	1957,00
598,62	1962,00
605,01	1967,00
611,40	1960,00
617,77	2070,00
624,14	1929,00
630,50	2041,00
636,85	2081,00
643,20	2009,00
649,54	1981,00
655,87	1959,00
662,20	2037,00
668,52	2032,00
674,83	1981,00
681,13	2061,00
687,43	1978,00
693,72	1936,00
700,00	1857,00
706,28	1952,00
712,55	1967,00
718,81	1930,00
725,07	2035,00
731,32	1941,00
737,56	1986,00
743,79	1999,00
750,02	2013,00
756,24	1924,00
762,46	1987,00
768,67	2080,00
774,87	2047,00
781,06	2032,00
787,25	2020,00
793,43	2013,00
799,60	2003,00
805,77	2078,00
811,93	1966,00
818,08	2046,00
824,23	2101,00
830,37	2132,00
836,50	2063,00
842,63	2058,00
848,75	1994,00
854,87	2088,00
860,97	2056,00
867,07	2049,00
873,17	2018,00
879,25	1969,00
885,33	2023,00
891,41	2028,00
897,47	2004,00
903,53	2091,00
909,59	2061,00
915,63	2035,00
921,67	2033,00
927,71	2025,00
933,74	2056,00
939,76	1952,00
945,77	1999,00
951,78	1985,00
957,78	2025,00
963,78	2020,00
969,77	1960,00
975,75	2117,00
981,72	2011,00
987,69	2630,00
993,66	2134,00
999,61	2054,00
1005,56	2070,00
1011,51	1941,00
1017,44	2062,00
1023,37	2121,00
1029,30	2060,00
1035,22	2173,00
1041,13	2190,00
1047,03	2210,00
1052,93	2302,00
1058,83	2650,00
1064,71	2801,00
1070,59	2474,00
1076,47	2371,00
1082,33	2313,00
1088,20	2189,00
1094,05	2285,00
1099,90	2142,00
1105,74	2167,00
1111,58	2126,00
1117,41	2349,00
1123,23	2520,00
1129,05	2800,00
1134,86	2634,00
1140,67	2473,00
1146,47	2236,00
1152,26	2257,00
1158,05	2087,00
1163,83	2181,00
1169,60	2333,00
1175,37	2235,00
1181,13	2196,00
1186,89	2189,00
1192,64	2176,00
1198,38	2136,00
1204,12	2112,00
1209,85	2186,00
1215,58	2131,00
1221,30	2229,00
1227,02	2220,00
1232,72	2210,00
1238,43	2042,00
1244,12	2191,00
1249,81	2258,00
1255,50	2246,00
1261,17	2260,00
1266,85	2252,00
1272,51	2333,00
1278,17	2407,00
1283,83	2304,00
1289,47	2774,00
1295,12	3125,00
1300,75	3136,00
1306,38	2597,00
1312,01	2501,00
1317,63	2343,00
1323,24	2278,00
1328,85	2343,00
1334,45	2312,00
1340,04	2243,00
1345,63	2233,00
1351,22	2353,00
1356,80	2307,00
1362,37	2283,00
1367,93	2275,00
1373,49	2334,00
1379,05	2182,00
1384,60	2225,00
1390,14	2277,00
1395,68	2322,00
1401,21	2276,00
1406,74	2383,00
1412,26	2554,00
1417,77	2653,00
1423,28	2552,00
1428,78	2700,00
1434,28	2909,00
1439,77	3157,00
1445,26	3113,00
1450,74	3003,00
1456,22	2864,00
1461,68	2876,00
1467,15	2736,00
1472,61	2538,00
1478,06	2545,00
1483,51	2502,00
1488,95	2376,00
1494,38	2352,00
1499,81	2221,00
1505,24	2119,00
1510,65	2168,00
1516,07	2212,00
1521,48	2202,00
1526,88	2034,00
1532,27	2216,00
1537,67	2003,00
1543,05	2190,00
1548,43	2061,00
1553,81	2218,00
1559,18	2045,00
1564,54	2224,00
1569,90	2156,00
1575,25	2115,00
1580,60	2002,00
1585,94	2098,00
1591,28	2178,00
1596,61	2089,00
1601,93	2104,00
1607,25	2133,00
1612,57	2116,00
1617,88	2092,00
1623,18	1974,00
1628,48	2095,00
1633,77	2019,00
1639,06	2094,00
1644,34	2052,00
1649,62	2102,00
1654,89	2116,00
1660,16	2044,00
1665,42	2125,00
1670,67	2036,00
1675,92	1963,00
1681,17	2070,00
1686,41	1978,00
1691,64	2122,00
1696,87	2019,00
1702,10	1901,00
1707,32	1993,00
1712,53	2023,00
1717,74	2036,00
1722,94	1910,00
1728,14	1925,00
1733,33	1903,00
1738,52	1899,00
1743,70	1961,00
1748,88	1995,00
1754,05	1887,00
1759,22	1916,00
1764,38	3102,00
1769,53	1870,00
1774,69	1943,00
1779,83	1855,00
1784,97	1868,00
1790,11	1885,00
1795,24	1897,00
1800,36	1864,00
1805,48	1741,00
1810,60	1791,00
1815,71	1867,00
1820,82	1804,00
1825,92	1863,00
1831,01	1833,00
1836,10	1813,00
1841,19	1910,00
1846,26	1838,00
1851,34	1854,00
1856,41	1833,00
1861,47	1788,00
1866,53	1861,00
1871,59	1810,00
1876,64	1724,00
1881,68	1781,00
1886,72	1865,00
1891,76	1795,00
1896,79	1867,00
1901,81	1749,00
1906,83	1718,00
1911,85	1712,00
1916,86	1748,00
1921,86	1834,00
1926,86	1639,00
1931,86	1731,00
1936,85	1741,00
1941,83	1742,00
1946,81	1691,00
1951,79	1667,00
1956,76	1671,00
1961,72	1590,00
1966,68	1636,00
1971,64	1658,00
1976,59	1623,00
1981,54	1672,00
1986,48	1609,00
1991,42	1664,00
1996,35	1797,00
2001,27	1644,00
2006,20	1598,00
2011,11	1694,00
2016,03	1814,00
2020,93	1590,00
2025,84	1654,00
2030,73	1576,00
2035,63	1547,00
2040,52	1582,00
2045,40	1586,00
2050,28	1640,00
2055,15	1649,00
2060,02	1489,00
2064,89	1583,00
2069,75	1529,00
2074,60	1599,00
2079,46	1523,00
2084,30	1462,00
2089,14	1463,00
2093,98	1561,00
2098,81	1612,00
2103,64	1571,00
2108,46	1562,00
2113,28	1445,00
2118,09	1598,00
2122,90	1608,00
2127,70	1499,00
2132,50	1541,00
2137,30	1530,00
2142,09	1509,00
2146,87	1416,00
2151,66	1518,00
2156,43	1454,00
2161,20	1564,00
2165,97	1599,00
2170,73	1433,00
2175,49	1453,00
2180,24	1536,00
2184,99	1557,00
2189,74	1511,00
2194,48	1437,00
2199,21	1609,00
2203,94	1385,00
2208,67	1497,00
2213,39	1325,00
2218,11	1505,00
2222,82	1507,00
2227,53	1442,00
2232,23	1587,00
2236,93	1456,00
2241,63	1510,00
2246,32	1405,00
2251,00	1361,00
2255,68	1398,00
2260,36	1433,00
2265,03	1530,00
2269,70	1556,00
2274,36	1398,00
2279,02	1414,00
2283,68	1425,00
2288,33	1410,00
2292,97	1343,00
2297,61	1386,00
2302,25	1256,00
2306,88	1279,00
2311,51	1355,00
2316,14	1355,00
2320,75	1393,00
2325,37	1291,00
2329,98	1429,00
2334,59	1293,00
2339,19	1304,00
2343,79	1248,00
2348,38	1324,00
2352,97	1306,00
2357,55	1351,00
2362,13	1341,00
2366,71	1270,00
2371,28	1318,00
2375,85	1275,00
2380,41	1338,00
2384,97	1222,00
2389,52	1338,00
2394,07	1260,00
2398,62	1436,00
2403,16	1208,00
2407,70	1216,00
2412,23	1380,00
2416,76	1319,00
2421,29	1243,00
2425,81	1267,00
2430,32	1216,00
2434,84	1179,00
2439,34	1225,00
2443,85	1304,00
2448,35	1140,00
2452,84	1216,00
2457,33	1216,00
2461,82	1249,00
2466,30	1032,00
2470,78	1210,00
2475,25	1116,00
2479,72	1159,00
2484,19	1178,00
2488,65	1225,00
2493,11	1139,00
2497,56	1152,00
2502,01	1045,00
2506,46	1177,00
2510,90	1146,00
2515,34	1135,00
2519,77	1160,00
2524,20	1030,00
2528,62	1065,00
2533,04	1210,00
2537,46	1024,00
2541,87	1018,00
2546,28	1064,00
2550,68	1081,00
2555,08	1026,00
2559,48	1124,00
2563,87	1072,00
2568,26	1077,00
2572,64	1055,00
2577,02	1074,00
2581,40	992,00
2585,77	1063,00
2590,14	934,00
2594,50	1030,00
2598,86	995,00
2603,22	1091,00
2607,57	1019,00
2611,92	975,00
2616,26	974,00
2620,60	1046,00
2624,94	1049,00
2629,27	1112,00
2633,60	1014,00
2637,92	1125,00
2642,24	980,00
2646,56	897,00
2650,87	1007,00
2655,18	1071,00
2659,48	968,00
2663,78	1090,00
2668,08	974,00
2672,37	1007,00
2676,66	1038,00
2680,95	1031,00
2685,23	952,00
2689,50	1013,00
2693,78	970,00
2698,05	989,00
2702,31	1028,00
2706,57	1042,00
2710,83	1085,00
2715,08	958,00
2719,33	1219,00
2723,58	1037,00
2727,82	1087,00
2732,06	1139,00
2736,29	925,00
2740,53	1099,00
2744,75	999,00
2748,97	1030,00
2753,19	1035,00
2757,41	1021,00
2761,62	1085,00
2765,83	1095,00
2770,03	1010,00
2774,23	1007,00
2778,43	976,00
2782,62	920,00
2786,81	968,00
2791,00	1032,00
2795,18	1004,00
2799,35	1021,00
2803,53	1126,00
2807,70	1060,00
2811,86	925,00
2816,03	1096,00
2820,19	1044,00
2824,34	1138,00
2828,49	1230,00
2832,64	1223,00
2836,78	1464,00
2840,92	1659,00
2845,06	1774,00
2849,19	1935,00
2853,32	2052,00
2857,45	1999,00
2861,57	1935,00
2865,69	1888,00
2869,80	1874,00
2873,91	1885,00
2878,02	2102,00
2882,12	2199,00
2886,22	2173,00
2890,32	2024,00
2894,41	1940,00
2898,50	1808,00
2902,58	1589,00
2906,67	1623,00
2910,74	1458,00
2914,82	1414,00
2918,89	1321,00
2922,96	1275,00
2927,02	1284,00
2931,08	1232,00
2935,13	1143,00
2939,19	1161,00
2943,24	1127,00
2947,28	1059,00
2951,32	886,00
2955,36	865,00
2959,40	947,00
2963,43	971,00
2967,46	761,00
2971,48	818,00
2975,50	891,00
2979,52	833,00
2983,53	850,00
2987,54	774,00
2991,55	887,00
2995,55	730,00
2999,55	706,00
3003,54	766,00
3007,54	757,00
3011,53	736,00
3015,51	760,00
3019,49	781,00
3023,47	692,00
3027,45	661,00
3031,42	706,00
3035,39	630,00
3039,35	635,00
3043,31	735,00
3047,27	721,00
3051,22	688,00
3055,17	579,00
3059,12	664,00
3063,06	676,00
3067,00	591,00
3070,94	617,00
3074,87	717,00
3078,80	612,00
3082,73	542,00
3086,65	578,00
3090,57	588,00
3094,49	548,00
3098,40	639,00
3102,31	558,00
3106,22	658,00
3110,12	609,00
3114,02	626,00
3117,92	653,00
3121,81	419,00
3125,70	555,00
3129,58	560,00
3133,47	524,00
3137,34	567,00
3141,22	559,00
3145,09	629,00
3148,96	485,00
3152,83	474,00
3156,69	590,00
3160,55	421,00
3164,40	488,00
3168,26	534,00
3172,10	588,00
3175,95	572,00
3179,79	629,00
3183,63	497,00
3187,47	545,00
3191,30	428,00
3195,13	541,00
3198,95	470,00
3202,78	571,00
3206,60	549,00
3210,41	520,00
3214,23	470,00
3218,03	531,00
3221,84	536,00
3225,64	427,00
3229,44	475,00
3233,24	569,00
3237,03	484,00
3240,82	421,00
3244,61	528,00
3248,39	561,00
3252,17	466,00
3255,95	519,00
3259,72	518,00
3263,49	523,00
3267,26	429,00
3271,03	459,00
3274,79	470,00
3278,54	481,00
3282,30	430,00
3286,05	487,00
3289,80	466,00
3293,54	455,00
3297,29	493,00
3301,02	462,00
3304,76	518,00
3308,49	596,00
3312,22	450,00
3315,95	370,00
3319,67	437,00
3323,39	512,00
3327,10	457,00
3330,82	408,00
3334,53	370,00
3338,24	431,00
3341,94	424,00
3345,64	358,00
3349,34	492,00
3353,03	439,00
3356,72	420,00
3360,41	470,00
3364,10	477,00
3367,78	403,00
3371,46	490,00
3375,13	466,00
3378,81	393,00
3382,48	443,00
3386,14	424,00
3389,81	471,00
3393,47	359,00
3397,12	474,00
3400,78	422,00
3404,43	384,00
3408,08	415,00
3411,72	384,00
3415,36	430,00
3419,00	358,00
3422,64	401,00
3426,27	333,00
3429,90	411,00
3433,53	487,00
3437,15	356,00
3440,77	347,00
3444,39	323,00
3448,00	470,00
3451,62	439,00
3455,22	335,00
3458,83	441,00
3462,43	376,00
3466,03	423,00
3469,63	416,00
3473,22	461,00
3476,81	359,00
3480,40	408,00
3483,99	477,00
3487,57	382,00
3491,15	387,00
3494,72	400,00
3498,29	383,00
3501,86	371,00
3505,43	412,00
3508,99	308,00
3512,56	397,00
3516,11	380,00
3519,67	326,00
3523,22	504,00
3526,77	381,00
3530,32	312,00
3533,86	395,00
3537,40	373,00
3540,94	413,00
3544,47	405,00
3548,00	359,00
3551,53	359,00
3555,06	349,00
3558,58	415,00
3562,10	412,00
3565,62	456,00
3569,13	385,00
3572,64	307,00
3576,15	274,00
3579,66	325,00
3583,16	381,00
3586,66	328,00
3590,16	391,00
3593,65	390,00
3597,14	326,00
3600,63	375,00
3604,11	431,00
3607,60	291,00
3611,08	315,00
3614,55	311,00
3618,03	232,00
3621,50	337,00
3624,97	345,00
3628,43	437,00
3631,90	393,00
3635,36	307,00
3638,81	347,00
3642,27	420,00
3645,72	309,00
3649,17	357,00
3652,61	278,00
3656,06	245,00
3659,50	302,00
3662,93	300,00
3666,37	334,00
3669,80	439,00
3673,23	331,00
3676,65	344,00
3680,08	298,00
3683,50	386,00
3686,92	342,00
3690,33	285,00
3693,74	303,00
3697,15	260,00
3700,56	329,00
3703,96	316,00
3707,36	327,00
3710,76	319,00
3714,16	339,00
3717,55	311,00
3720,94	346,00
3724,33	320,00
3727,71	389,00
3731,10	309,00
3734,48	288,00
3737,85	285,00
3741,23	224,00
3744,60	351,00
3747,97	368,00
3751,33	219,00
3754,69	378,00
3758,05	262,00
3761,41	273,00
3764,77	251,00
3768,12	248,00
3771,47	371,00
3774,82	291,00
3778,16	-4,00
3781,50	5,00
3784,84	7,00
3788,18	3,00
>>>>>End Processed Spectral Data<<<<<
