SpectraSuite Data File
++++++++++++++++++++++++++++++++++++
Date: Mon Mar 09 14:45:53 ICT 2026
User: Administrator
Dark Spectrum Present: Yes
Reference Spectrum Present: No
Number of Sampled Component Spectra: 1
Spectrometers: MAYP113682
Integration Time (usec): 3000000 (MAYP113682)
Spectra Averaged: 1 (MAYP113682)
Boxcar Smoothing: 0 (MAYP113682)
Correct for Electrical Dark: No (MAYP113682)
Strobe/Lamp Enabled: No (MAYP113682)
Correct for Detector Non-linearity: No (MAYP113682)
Correct for Stray Light: No (MAYP113682)
Number of Pixels in Processed Spectrum: 2068
>>>>>Begin Processed Spectral Data<<<<<
-37534,58	30,00
-37414,56	0,00
-37295,11	7,00
-37176,24	4,00
-37057,95	511,00
-36940,22	584,00
-36823,05	670,00
-36706,45	768,00
-36590,40	556,00
-36474,90	614,00
-36359,95	715,00
-36245,55	710,00
-36131,68	733,00
-36018,35	648,00
-35905,55	678,00
-35793,29	760,00
-35681,54	707,00
-35570,32	608,00
-35459,62	667,00
-35349,43	710,00
-35239,75	701,00
-35130,58	673,00
-35021,91	691,00
-34913,74	800,00
-34806,07	693,00
-34698,89	862,00
-34592,20	786,00
-34486,00	780,00
-34380,28	641,00
-34275,04	690,00
-34170,27	729,00
-34065,98	711,00
-33962,16	771,00
-33858,81	777,00
-33755,92	753,00
-33653,49	832,00
-33551,52	798,00
-33450,01	638,00
-33348,94	692,00
-33248,33	774,00
-33148,16	744,00
-33048,43	797,00
-32949,14	783,00
-32850,29	831,00
-32751,87	758,00
-32653,89	806,00
-32556,33	857,00
-32459,20	795,00
-32362,49	781,00
-32266,19	753,00
-32170,32	783,00
-32074,86	731,00
-31979,82	807,00
-31885,18	897,00
-31790,95	852,00
-31697,12	751,00
-31603,69	891,00
-31510,67	739,00
-31418,04	732,00
-31325,80	759,00
-31233,95	839,00
-31142,49	758,00
-31051,42	831,00
-30960,73	804,00
-30870,43	872,00
-30780,50	782,00
-30690,95	755,00
-30601,77	879,00
-30512,97	748,00
-30424,53	809,00
-30336,46	788,00
-30248,76	831,00
-30161,42	771,00
-30074,44	676,00
-29987,81	835,00
-29901,55	870,00
-29815,63	701,00
-29730,07	795,00
-29644,86	846,00
-29560,00	875,00
-29475,48	808,00
-29391,30	777,00
-29307,47	631,00
-29223,97	717,00
-29140,81	756,00
-29057,99	805,00
-28975,50	686,00
-28893,34	814,00
-28811,51	717,00
-28730,00	805,00
-28648,82	693,00
-28567,97	845,00
-28487,43	823,00
-28407,21	690,00
-28327,32	693,00
-28247,73	774,00
-28168,46	743,00
-28089,50	799,00
-28010,85	675,00
-27932,51	630,00
-27854,48	829,00
-27776,75	759,00
-27699,32	773,00
-27622,19	746,00
-27545,37	764,00
-27468,84	810,00
-27392,60	851,00
-27316,66	729,00
-27241,01	835,00
-27165,66	800,00
-27090,59	709,00
-27015,81	749,00
-26941,31	835,00
-26867,10	804,00
-26793,17	828,00
-26719,52	796,00
-26646,15	738,00
-26573,06	794,00
-26500,24	812,00
-26427,70	729,00
-26355,43	840,00
-26283,43	778,00
-26211,71	821,00
-26140,25	764,00
-26069,06	928,00
-25998,13	670,00
-25927,46	782,00
-25857,06	792,00
-25786,92	721,00
-25717,04	679,00
-25647,42	688,00
-25578,05	695,00
-25508,94	744,00
-25440,09	788,00
-25371,48	711,00
-25303,13	715,00
-25235,02	786,00
-25167,17	842,00
-25099,56	867,00
-25032,19	766,00
-24965,07	769,00
-24898,20	663,00
-24831,56	784,00
-24765,17	745,00
-24699,01	738,00
-24633,10	738,00
-24567,41	746,00
-24501,97	800,00
-24436,75	801,00
-24371,77	771,00
-24307,03	767,00
-24242,51	639,00
-24178,22	814,00
-24114,16	777,00
-24050,32	758,00
-23986,71	775,00
-23923,32	739,00
-23860,16	724,00
-23797,22	718,00
-23734,50	754,00
-23672,00	646,00
-23609,71	688,00
-23547,65	728,00
-23485,80	680,00
-23424,16	690,00
-23362,74	865,00
-23301,53	669,00
-23240,54	732,00
-23179,75	708,00
-23119,17	766,00
-23058,80	759,00
-22998,64	759,00
-22938,68	631,00
-22878,93	733,00
-22819,39	761,00
-22760,04	724,00
-22700,90	777,00
-22641,96	724,00
-22583,22	712,00
-22524,68	784,00
-22466,33	684,00
-22408,19	792,00
-22350,23	807,00
-22292,48	813,00
-22234,92	752,00
-22177,55	791,00
-22120,37	880,00
-22063,38	711,00
-22006,58	717,00
-21949,98	765,00
-21893,56	536,00
-21837,33	766,00
-21781,28	790,00
-21725,42	724,00
-21669,74	749,00
-21614,25	797,00
-21558,94	653,00
-21503,81	776,00
-21448,86	759,00
-21394,10	749,00
-21339,51	715,00
-21285,10	668,00
-21230,86	690,00
-21176,81	689,00
-21122,93	693,00
-21069,22	766,00
-21015,69	792,00
-20962,33	797,00
-20909,14	758,00
-20856,13	728,00
-20803,28	748,00
-20750,61	696,00
-20698,10	627,00
-20645,76	780,00
-20593,59	852,00
-20541,59	758,00
-20489,75	777,00
-20438,07	658,00
-20386,56	911,00
-20335,22	763,00
-20284,03	726,00
-20233,01	677,00
-20182,15	658,00
-20131,45	719,00
-20080,91	720,00
-20030,52	747,00
-19980,30	624,00
-19930,23	709,00
-19880,32	820,00
-19830,56	811,00
-19780,96	700,00
-19731,52	796,00
-19682,23	746,00
-19633,09	679,00
-19584,10	665,00
-19535,26	719,00
-19486,58	842,00
-19438,04	747,00
-19389,66	697,00
-19341,42	614,00
-19293,33	681,00
-19245,39	732,00
-19197,60	672,00
-19149,95	829,00
-19102,45	751,00
-19055,09	671,00
-19007,87	757,00
-18960,80	769,00
-18913,87	761,00
-18867,09	818,00
-18820,44	787,00
-18773,94	703,00
-18727,57	680,00
-18681,35	705,00
-18635,26	755,00
-18589,31	681,00
-18543,50	642,00
-18497,83	731,00
-18452,29	782,00
-18406,89	713,00
-18361,63	806,00
-18316,50	748,00
-18271,50	719,00
-18226,63	811,00
-18181,90	717,00
-18137,30	754,00
-18092,84	641,00
-18048,50	710,00
-18004,29	576,00
-17960,22	744,00
-17916,27	701,00
-17872,45	691,00
-17828,76	691,00
-17785,20	741,00
-17741,77	815,00
-17698,46	749,00
-17655,28	653,00
-17612,22	728,00
-17569,29	619,00
-17526,48	747,00
-17483,79	723,00
-17441,23	641,00
-17398,79	796,00
-17356,48	778,00
-17314,28	953,00
-17272,21	710,00
-17230,26	722,00
-17188,42	767,00
-17146,71	731,00
-17105,12	713,00
-17063,64	743,00
-17022,28	685,00
-16981,04	765,00
-16939,92	714,00
-16898,91	870,00
-16858,02	741,00
-16817,25	717,00
-16776,59	649,00
-16736,04	701,00
-16695,61	686,00
-16655,29	729,00
-16615,09	710,00
-16574,99	695,00
-16535,01	635,00
-16495,15	770,00
-16455,39	829,00
-16415,74	742,00
-16376,21	726,00
-16336,78	724,00
-16297,46	687,00
-16258,26	751,00
-16219,16	765,00
-16180,17	717,00
-16141,28	791,00
-16102,51	748,00
-16063,84	749,00
-16025,27	728,00
-15986,82	629,00
-15948,46	693,00
-15910,22	779,00
-15872,07	721,00
-15834,04	703,00
-15796,10	653,00
-15758,27	804,00
-15720,54	733,00
-15682,91	727,00
-15645,39	778,00
-15607,97	720,00
-15570,64	658,00
-15533,42	657,00
-15496,30	723,00
-15459,28	647,00
-15422,36	722,00
-15385,54	737,00
-15348,82	723,00
-15312,19	778,00
-15275,66	750,00
-15239,23	678,00
-15202,90	735,00
-15166,67	612,00
-15130,53	728,00
-15094,48	819,00
-15058,54	720,00
-15022,68	656,00
-14986,93	710,00
-14951,26	786,00
-14915,69	648,00
-14880,22	670,00
-14844,84	640,00
-14809,55	760,00
-14774,35	678,00
-14739,25	810,00
-14704,24	671,00
-14669,32	841,00
-14634,49	725,00
-14599,75	776,00
-14565,10	650,00
-14530,55	835,00
-14496,08	754,00
-14461,70	704,00
-14427,41	671,00
-14393,21	744,00
-14359,10	650,00
-14325,07	778,00
-14291,14	699,00
-14257,29	770,00
-14223,52	758,00
-14189,85	852,00
-14156,26	746,00
-14122,76	701,00
-14089,34	690,00
-14056,01	684,00
-14022,76	804,00
-13989,60	749,00
-13956,52	780,00
-13923,53	766,00
-13890,62	691,00
-13857,79	613,00
-13825,05	758,00
-13792,39	638,00
-13759,81	811,00
-13727,31	683,00
-13694,90	660,00
-13662,57	728,00
-13630,31	756,00
-13598,14	708,00
-13566,05	711,00
-13534,05	799,00
-13502,12	711,00
-13470,27	731,00
-13438,50	787,00
-13406,80	661,00
-13375,19	707,00
-13343,66	771,00
-13312,20	736,00
-13280,83	671,00
-13249,53	656,00
-13218,30	652,00
-13187,16	720,00
-13156,09	748,00
-13125,10	791,00
-13094,18	765,00
-13063,34	824,00
-13032,58	646,00
-13001,89	886,00
-12971,28	777,00
-12940,74	757,00
-12910,27	746,00
-12879,88	759,00
-12849,57	833,00
-12819,33	761,00
-12789,16	634,00
-12759,06	678,00
-12729,04	727,00
-12699,09	1624,00
-12669,21	654,00
-12639,41	757,00
-12609,68	736,00
-12580,02	719,00
-12550,43	754,00
-12520,91	606,00
-12491,46	699,00
-12462,08	650,00
-12432,77	722,00
-12403,54	669,00
-12374,37	717,00
-12345,27	743,00
-12316,24	719,00
-12287,29	876,00
-12258,40	714,00
-12229,57	758,00
-12200,82	782,00
-12172,14	639,00
-12143,52	698,00
-12114,97	617,00
-12086,49	766,00
-12058,07	821,00
-12029,73	788,00
-12001,44	731,00
-11973,23	701,00
-11945,08	786,00
-11917,00	695,00
-11888,98	686,00
-11861,03	682,00
-11833,15	823,00
-11805,32	780,00
-11777,57	809,00
-11749,88	798,00
-11722,25	766,00
-11694,69	768,00
-11667,19	739,00
-11639,75	692,00
-11612,38	769,00
-11585,07	681,00
-11557,83	784,00
-11530,65	827,00
-11503,53	820,00
-11476,47	780,00
-11449,48	733,00
-11422,54	724,00
-11395,67	703,00
-11368,86	754,00
-11342,11	717,00
-11315,43	697,00
-11288,80	685,00
-11262,23	813,00
-11235,73	728,00
-11209,28	802,00
-11182,90	757,00
-11156,57	823,00
-11130,31	790,00
-11104,10	848,00
-11077,96	798,00
-11051,87	781,00
-11025,84	768,00
-10999,87	805,00
-10973,96	845,00
-10948,11	740,00
-10922,31	734,00
-10896,58	743,00
-10870,90	839,00
-10845,28	671,00
-10819,71	610,00
-10794,20	759,00
-10768,75	799,00
-10743,36	755,00
-10718,02	751,00
-10692,74	815,00
-10667,52	683,00
-10642,35	791,00
-10617,24	829,00
-10592,18	756,00
-10567,18	714,00
-10542,23	760,00
-10517,34	830,00
-10492,51	838,00
-10467,72	752,00
-10443,00	734,00
-10418,32	770,00
-10393,70	723,00
-10369,14	693,00
-10344,63	706,00
-10320,17	777,00
-10295,77	720,00
-10271,42	790,00
-10247,12	710,00
-10222,88	811,00
-10198,68	625,00
-10174,54	728,00
-10150,46	794,00
-10126,42	849,00
-10102,44	783,00
-10078,51	671,00
-10054,63	706,00
-10030,80	679,00
-10007,03	786,00
-9983,30	663,00
-9959,63	720,00
-9936,01	787,00
-9912,44	762,00
-9888,92	760,00
-9865,44	705,00
-9842,02	781,00
-9818,65	736,00
-9795,33	728,00
-9772,06	782,00
-9748,84	716,00
-9725,67	753,00
-9702,55	611,00
-9679,47	882,00
-9656,45	701,00
-9633,47	659,00
-9610,55	737,00
-9587,67	786,00
-9564,84	788,00
-9542,06	714,00
-9519,32	766,00
-9496,64	807,00
-9474,00	642,00
-9451,41	641,00
-9428,87	807,00
-9406,37	697,00
-9383,92	687,00
-9361,52	710,00
-9339,17	711,00
-9316,86	612,00
-9294,60	527,00
-9272,38	825,00
-9250,21	776,00
-9228,09	743,00
-9206,01	754,00
-9183,98	583,00
-9162,00	595,00
-9140,06	606,00
-9118,16	517,00
-9096,31	640,00
-9074,51	681,00
-9052,75	819,00
-9031,04	835,00
-9009,37	686,00
-8987,74	666,00
-8966,16	685,00
-8944,63	651,00
-8923,14	641,00
-8901,69	654,00
-8880,29	670,00
-8858,93	660,00
-8837,61	715,00
-8816,34	694,00
-8795,11	670,00
-8773,92	748,00
-8752,78	726,00
-8731,68	701,00
-8710,62	655,00
-8689,61	641,00
-8668,63	616,00
-8647,70	868,00
-8626,82	687,00
-8605,97	754,00
-8585,17	741,00
-8564,41	635,00
-8543,69	723,00
-8523,01	616,00
-8502,37	817,00
-8481,78	548,00
-8461,23	559,00
-8440,71	572,00
-8420,24	698,00
-8399,81	743,00
-8379,42	716,00
-8359,08	786,00
-8338,77	752,00
-8318,50	790,00
-8298,27	658,00
-8278,09	640,00
-8257,94	645,00
-8237,83	813,00
-8217,76	744,00
-8197,74	770,00
-8177,75	722,00
-8157,80	726,00
-8137,89	833,00
-8118,02	704,00
-8098,19	867,00
-8078,40	624,00
-8058,65	724,00
-8038,93	896,00
-8019,26	813,00
-7999,62	748,00
-7980,02	757,00
-7960,46	724,00
-7940,94	675,00
-7921,46	750,00
-7902,01	670,00
-7882,60	877,00
-7863,23	751,00
-7843,90	776,00
-7824,61	757,00
-7805,35	808,00
-7786,13	765,00
-7766,95	734,00
-7747,80	796,00
-7728,69	823,00
-7709,62	716,00
-7690,59	853,00
-7671,59	772,00
-7652,63	731,00
-7633,70	658,00
-7614,81	833,00
-7595,96	727,00
-7577,15	792,00
-7558,37	730,00
-7539,62	765,00
-7520,91	713,00
-7502,24	824,00
-7483,60	822,00
-7465,00	740,00
-7446,44	678,00
-7427,91	699,00
-7409,41	857,00
-7390,95	730,00
-7372,53	653,00
-7354,14	779,00
-7335,78	702,00
-7317,46	782,00
-7299,18	723,00
-7280,92	748,00
-7262,71	780,00
-7244,52	711,00
-7226,38	713,00
-7208,26	785,00
-7190,18	724,00
-7172,14	832,00
-7154,12	781,00
-7136,15	705,00
-7118,20	712,00
-7100,29	821,00
-7082,41	838,00
-7064,57	742,00
-7046,76	813,00
-7028,98	671,00
-7011,24	955,00
-6993,53	557,00
-6975,85	631,00
-6958,20	663,00
-6940,59	650,00
-6923,01	601,00
-6905,46	774,00
-6887,94	650,00
-6870,46	1004,00
-6853,01	716,00
-6835,59	766,00
-6818,21	678,00
-6800,85	738,00
-6783,53	705,00
-6766,24	587,00
-6748,98	646,00
-6731,76	619,00
-6714,56	610,00
-6697,40	657,00
-6680,26	669,00
-6663,16	678,00
-6646,09	752,00
-6629,05	736,00
-6612,05	823,00
-6595,07	676,00
-6578,13	716,00
-6561,21	640,00
-6544,33	658,00
-6527,47	710,00
-6510,65	720,00
-6493,86	613,00
-6477,10	608,00
-6460,36	685,00
-6443,66	565,00
-6426,99	670,00
-6410,35	494,00
-6393,74	722,00
-6377,16	613,00
-6360,61	628,00
-6344,09	620,00
-6327,59	594,00
-6311,13	557,00
-6294,70	768,00
-6278,29	745,00
-6261,92	652,00
-6245,58	672,00
-6229,26	840,00
-6212,97	678,00
-6196,72	691,00
-6180,49	727,00
-6164,29	685,00
-6148,12	709,00
-6131,98	726,00
-6115,86	657,00
-6099,78	612,00
-6083,72	557,00
-6067,69	672,00
-6051,69	737,00
-6035,72	714,00
-6019,78	656,00
-6003,87	755,00
-5987,98	728,00
-5972,12	745,00
-5956,29	651,00
-5940,49	618,00
-5924,71	792,00
-5908,96	689,00
-5893,24	717,00
-5877,55	650,00
-5861,89	678,00
-5846,25	699,00
-5830,64	665,00
-5815,05	674,00
-5799,50	654,00
-5783,97	763,00
-5768,47	847,00
-5752,99	773,00
-5737,55	723,00
-5722,12	631,00
-5706,73	682,00
-5691,36	638,00
-5676,02	672,00
-5660,71	719,00
-5645,42	620,00
-5630,16	740,00
-5614,92	737,00
-5599,71	544,00
-5584,53	715,00
-5569,37	725,00
-5554,24	778,00
-5539,14	670,00
-5524,06	689,00
-5509,01	657,00
-5493,98	657,00
-5478,98	755,00
-5464,00	615,00
-5449,05	575,00
-5434,13	708,00
-5419,23	682,00
-5404,36	583,00
-5389,51	681,00
-5374,69	682,00
-5359,89	723,00
-5345,12	729,00
-5330,37	834,00
-5315,65	900,00
-5300,95	708,00
-5286,28	603,00
-5271,63	606,00
-5257,01	703,00
-5242,41	724,00
-5227,84	659,00
-5213,29	705,00
-5198,76	687,00
-5184,26	674,00
-5169,79	742,00
-5155,33	805,00
-5140,91	655,00
-5126,51	722,00
-5112,13	736,00
-5097,77	739,00
-5083,44	696,00
-5069,13	631,00
-5054,85	737,00
-5040,59	647,00
-5026,36	713,00
-5012,15	781,00
-4997,96	706,00
-4983,80	729,00
-4969,66	731,00
-4955,54	720,00
-4941,44	752,00
-4927,37	722,00
-4913,33	773,00
-4899,30	568,00
-4885,30	678,00
-4871,33	691,00
-4857,37	800,00
-4843,44	757,00
-4829,53	736,00
-4815,65	695,00
-4801,79	712,00
-4787,95	666,00
-4774,13	581,00
-4760,34	690,00
-4746,56	712,00
-4732,82	685,00
-4719,09	748,00
-4705,38	748,00
-4691,70	797,00
-4678,04	784,00
-4664,41	711,00
-4650,79	870,00
-4637,20	801,00
-4623,63	635,00
-4610,08	760,00
-4596,56	852,00
-4583,05	696,00
-4569,57	674,00
-4556,11	781,00
-4542,67	584,00
-4529,25	681,00
-4515,86	804,00
-4502,49	757,00
-4489,13	767,00
-4475,80	805,00
-4462,49	615,00
-4449,21	879,00
-4435,94	718,00
-4422,70	834,00
-4409,47	639,00
-4396,27	635,00
-4383,09	709,00
-4369,93	708,00
-4356,79	794,00
-4343,67	712,00
-4330,58	719,00
-4317,50	622,00
-4304,45	608,00
-4291,41	758,00
-4278,40	760,00
-4265,41	688,00
-4252,44	667,00
-4239,49	703,00
-4226,55	775,00
-4213,65	804,00
-4200,76	763,00
-4187,89	661,00
-4175,04	663,00
-4162,21	745,00
-4149,40	730,00
-4136,61	676,00
-4123,85	698,00
-4111,10	737,00
-4098,37	790,00
-4085,66	835,00
-4072,98	757,00
-4060,31	642,00
-4047,66	832,00
-4035,04	791,00
-4022,43	716,00
-4009,84	847,00
-3997,27	668,00
-3984,72	710,00
-3972,19	770,00
-3959,69	662,00
-3947,20	753,00
-3934,73	776,00
-3922,27	747,00
-3909,84	756,00
-3897,43	794,00
-3885,04	781,00
-3872,67	671,00
-3860,31	779,00
-3847,98	780,00
-3835,66	749,00
-3823,36	770,00
-3811,09	671,00
-3798,83	737,00
-3786,59	816,00
-3774,37	830,00
-3762,17	637,00
-3749,98	714,00
-3737,82	616,00
-3725,67	861,00
-3713,55	721,00
-3701,44	808,00
-3689,35	760,00
-3677,28	776,00
-3665,22	755,00
-3653,19	703,00
-3641,17	669,00
-3629,18	743,00
-3617,20	765,00
-3605,24	683,00
-3593,30	822,00
-3581,37	822,00
-3569,47	781,00
-3557,58	785,00
-3545,71	715,00
-3533,86	763,00
-3522,02	752,00
-3510,21	773,00
-3498,41	742,00
-3486,63	750,00
-3474,87	811,00
-3463,12	732,00
-3451,40	796,00
-3439,69	765,00
-3428,00	809,00
-3416,33	761,00
-3404,67	717,00
-3393,03	772,00
-3381,41	735,00
-3369,81	796,00
-3358,22	664,00
-3346,66	866,00
-3335,10	754,00
-3323,57	726,00
-3312,06	797,00
-3300,56	675,00
-3289,08	601,00
-3277,61	710,00
-3266,16	771,00
-3254,73	727,00
-3243,32	705,00
-3231,92	786,00
-3220,55	718,00
-3209,18	793,00
-3197,84	709,00
-3186,51	660,00
-3175,20	702,00
-3163,90	746,00
-3152,63	744,00
-3141,36	798,00
-3130,12	782,00
-3118,89	821,00
-3107,68	693,00
-3096,49	836,00
-3085,31	851,00
-3074,15	749,00
-3063,00	739,00
-3051,87	740,00
-3040,76	731,00
-3029,67	777,00
-3018,59	837,00
-3007,52	813,00
-2996,48	915,00
-2985,44	636,00
-2974,43	749,00
-2963,43	730,00
-2952,45	603,00
-2941,48	841,00
-2930,53	837,00
-2919,60	684,00
-2908,68	735,00
-2897,78	684,00
-2886,89	866,00
-2876,02	782,00
-2865,17	749,00
-2854,33	694,00
-2843,50	751,00
-2832,70	706,00
-2821,90	729,00
-2811,13	803,00
-2800,37	727,00
-2789,62	751,00
-2778,89	786,00
-2768,18	793,00
-2757,48	813,00
-2746,80	814,00
-2736,13	773,00
-2725,48	696,00
-2714,84	748,00
-2704,22	699,00
-2693,61	768,00
-2683,02	704,00
-2672,45	680,00
-2661,89	791,00
-2651,34	839,00
-2640,81	728,00
-2630,30	770,00
-2619,80	779,00
-2609,31	861,00
-2598,84	668,00
-2588,39	760,00
-2577,95	736,00
-2567,52	592,00
-2557,11	779,00
-2546,71	671,00
-2536,33	835,00
-2525,97	702,00
-2515,62	694,00
-2505,28	780,00
-2494,96	708,00
-2484,65	750,00
-2474,36	831,00
-2464,08	878,00
-2453,82	853,00
-2443,57	806,00
-2433,33	647,00
-2423,11	736,00
-2412,91	733,00
-2402,72	662,00
-2392,54	711,00
-2382,38	706,00
-2372,23	781,00
-2362,09	1253,00
-2351,97	737,00
-2341,87	672,00
-2331,78	756,00
-2321,70	795,00
-2311,64	849,00
-2301,59	659,00
-2291,55	680,00
-2281,53	711,00
-2271,53	667,00
-2261,53	787,00
-2251,55	735,00
-2241,59	791,00
-2231,64	771,00
-2221,70	658,00
-2211,78	871,00
-2201,87	759,00
-2191,97	792,00
-2182,09	691,00
-2172,22	826,00
-2162,37	735,00
-2152,53	694,00
-2142,70	668,00
-2132,89	660,00
-2123,09	798,00
-2113,30	750,00
-2103,53	788,00
-2093,77	679,00
-2084,02	669,00
-2074,29	875,00
-2064,57	759,00
-2054,86	814,00
-2045,17	777,00
-2035,49	888,00
-2025,82	722,00
-2016,17	689,00
-2006,53	840,00
-1996,91	652,00
-1987,29	667,00
-1977,69	767,00
-1968,11	765,00
-1958,53	636,00
-1948,97	825,00
-1939,42	730,00
-1929,89	669,00
-1920,37	783,00
-1910,86	782,00
-1901,36	807,00
-1891,88	714,00
-1882,41	777,00
-1872,95	804,00
-1863,51	655,00
-1854,08	775,00
-1844,66	841,00
-1835,26	716,00
-1825,86	813,00
-1816,48	748,00
-1807,11	666,00
-1797,76	837,00
-1788,42	749,00
-1779,09	796,00
-1769,77	722,00
-1760,47	830,00
-1751,17	814,00
-1741,89	790,00
-1732,63	833,00
-1723,37	986,00
-1714,13	809,00
-1704,90	667,00
-1695,68	871,00
-1686,48	622,00
-1677,29	696,00
-1668,11	816,00
-1658,94	761,00
-1649,78	815,00
-1640,64	772,00
-1631,51	746,00
-1622,39	744,00
-1613,28	752,00
-1604,19	909,00
-1595,10	761,00
-1586,03	710,00
-1576,97	823,00
-1567,93	759,00
-1558,89	811,00
-1549,87	715,00
-1540,86	689,00
-1531,86	705,00
-1522,87	659,00
-1513,90	860,00
-1504,93	794,00
-1495,98	866,00
-1487,04	925,00
-1478,12	790,00
-1469,20	644,00
-1460,30	766,00
-1451,40	899,00
-1442,52	801,00
-1433,65	842,00
-1424,80	758,00
-1415,95	750,00
-1407,12	941,00
-1398,30	746,00
-1389,48	638,00
-1380,69	764,00
-1371,90	798,00
-1363,12	830,00
-1354,36	864,00
-1345,60	667,00
-1336,86	784,00
-1328,13	1000,00
-1319,41	763,00
-1310,70	793,00
-1302,01	815,00
-1293,32	664,00
-1284,65	708,00
-1275,99	760,00
-1267,33	962,00
-1258,69	735,00
-1250,06	841,00
-1241,45	773,00
-1232,84	768,00
-1224,25	743,00
-1215,66	783,00
-1207,09	813,00
-1198,53	747,00
-1189,97	634,00
-1181,43	815,00
-1172,91	761,00
-1164,39	804,00
-1155,88	707,00
-1147,38	673,00
-1138,90	771,00
-1130,43	734,00
-1121,96	765,00
-1113,51	746,00
-1105,07	727,00
-1096,64	730,00
-1088,22	760,00
-1079,81	834,00
-1071,41	804,00
-1063,02	782,00
-1054,65	784,00
-1046,28	689,00
-1037,92	788,00
-1029,58	732,00
-1021,24	718,00
-1012,92	1178,00
-1004,61	746,00
-996,30	1054,00
-988,01	680,00
-979,73	770,00
-971,46	741,00
-963,20	623,00
-954,95	671,00
-946,71	697,00
-938,48	634,00
-930,26	850,00
-922,06	821,00
-913,86	772,00
-905,67	767,00
-897,49	710,00
-889,33	700,00
-881,17	806,00
-873,02	746,00
-864,89	684,00
-856,76	746,00
-848,65	861,00
-840,54	667,00
-832,45	770,00
-824,36	637,00
-816,29	815,00
-808,22	751,00
-800,17	779,00
-792,12	814,00
-784,09	879,00
-776,06	671,00
-768,05	706,00
-760,04	789,00
-752,05	703,00
-744,07	881,00
-736,09	834,00
-728,13	675,00
-720,17	770,00
-712,23	717,00
-704,29	780,00
-696,37	838,00
-688,45	769,00
-680,55	743,00
-672,65	682,00
-664,77	730,00
-656,89	743,00
-649,03	815,00
-641,17	790,00
-633,32	767,00
-625,49	689,00
-617,66	776,00
-609,84	741,00
-602,03	670,00
-594,23	716,00
-586,45	803,00
-578,67	752,00
-570,90	697,00
-563,14	735,00
-555,39	869,00
-547,65	881,00
-539,91	806,00
-532,19	722,00
-524,48	802,00
-516,78	787,00
-509,08	797,00
-501,40	747,00
-493,72	690,00
-486,06	798,00
-478,40	886,00
-470,76	733,00
-463,12	718,00
-455,49	766,00
-447,87	696,00
-440,26	754,00
-432,66	710,00
-425,07	852,00
-417,49	722,00
-409,92	738,00
-402,35	682,00
-394,80	653,00
-387,25	824,00
-379,72	795,00
-372,19	767,00
-364,67	772,00
-357,17	779,00
-349,67	749,00
-342,18	709,00
-334,69	779,00
-327,22	756,00
-319,76	728,00
-312,30	737,00
-304,86	799,00
-297,42	885,00
-290,00	665,00
-282,58	786,00
-275,17	838,00
-267,77	870,00
-260,37	649,00
-252,99	820,00
-245,62	784,00
-238,25	754,00
-230,90	777,00
-223,55	825,00
-216,21	713,00
-208,88	894,00
-201,56	796,00
-194,25	828,00
-186,94	730,00
-179,65	889,00
-172,36	948,00
-165,08	839,00
-157,81	949,00
-150,55	995,00
-143,30	987,00
-136,06	960,00
-128,82	1013,00
-121,60	1004,00
-114,38	1013,00
-107,17	1061,00
-99,97	1140,00
-92,78	1143,00
-85,60	1212,00
-78,42	1301,00
-71,25	1444,00
-64,10	1525,00
-56,95	1589,00
-49,81	1703,00
-42,67	2120,00
-35,55	2360,00
-28,43	2961,00
-21,33	4381,00
-14,23	13137,00
-7,14	57775,00
-0,05	57564,00
7,02	57281,00
14,09	43645,00
21,14	11846,00
28,19	5163,00
35,23	3603,00
42,27	2920,00
49,29	2442,00
56,31	2200,00
63,32	2100,00
70,32	1723,00
77,31	1584,00
84,29	1474,00
91,27	1551,00
98,23	1432,00
105,19	1271,00
112,14	1484,00
119,09	1813,00
126,02	2373,00
132,95	2707,00
139,87	2741,00
146,78	2861,00
153,68	2756,00
160,58	2531,00
167,46	2603,00
174,34	2695,00
181,21	2719,00
188,08	2608,00
194,93	2838,00
201,78	2659,00
208,62	2634,00
215,45	2718,00
222,27	2668,00
229,09	2842,00
235,90	2627,00
242,70	2493,00
249,49	2764,00
256,27	2551,00
263,05	2703,00
269,82	2661,00
276,58	2716,00
283,33	2701,00
290,08	2607,00
296,82	2607,00
303,55	2519,00
310,27	2480,00
316,98	2613,00
323,69	2588,00
330,39	2477,00
337,08	2644,00
343,76	2698,00
350,44	2566,00
357,11	2626,00
363,77	2480,00
370,42	2474,00
377,07	2678,00
383,71	2566,00
390,34	2548,00
396,96	2552,00
403,58	2408,00
410,19	2644,00
416,79	2690,00
423,38	2747,00
429,97	2574,00
436,55	2415,00
443,12	2560,00
449,68	2348,00
456,24	2561,00
462,79	2563,00
469,33	2530,00
475,86	2470,00
482,39	2509,00
488,91	2720,00
495,42	2333,00
501,93	2627,00
508,42	2356,00
514,91	2562,00
521,40	2376,00
527,87	2452,00
534,34	2382,00
540,80	2529,00
547,25	2527,00
553,70	2551,00
560,14	2541,00
566,57	2557,00
573,00	2489,00
579,41	2589,00
585,83	2463,00
592,23	2561,00
598,62	2611,00
605,01	2429,00
611,40	2522,00
617,77	2644,00
624,14	2497,00
630,50	2473,00
636,85	2488,00
643,20	2573,00
649,54	2415,00
655,87	2460,00
662,20	2649,00
668,52	2503,00
674,83	2527,00
681,13	2582,00
687,43	2547,00
693,72	2532,00
700,00	2411,00
706,28	2455,00
712,55	2450,00
718,81	2568,00
725,07	2419,00
731,32	2444,00
737,56	2626,00
743,79	2512,00
750,02	2583,00
756,24	2456,00
762,46	2461,00
768,67	2755,00
774,87	2606,00
781,06	2506,00
787,25	2561,00
793,43	2543,00
799,60	2444,00
805,77	2598,00
811,93	2451,00
818,08	2491,00
824,23	2513,00
830,37	2781,00
836,50	2549,00
842,63	2611,00
848,75	2580,00
854,87	2593,00
860,97	2547,00
867,07	2658,00
873,17	2635,00
879,25	2616,00
885,33	2551,00
891,41	2541,00
897,47	2673,00
903,53	2571,00
909,59	2615,00
915,63	2653,00
921,67	2568,00
927,71	2655,00
933,74	2657,00
939,76	2445,00
945,77	2500,00
951,78	2507,00
957,78	2514,00
963,78	2653,00
969,77	2664,00
975,75	2615,00
981,72	2481,00
987,69	3691,00
993,66	2604,00
999,61	2631,00
1005,56	2564,00
1011,51	2524,00
1017,44	2555,00
1023,37	2676,00
1029,30	2636,00
1035,22	2705,00
1041,13	2622,00
1047,03	2782,00
1052,93	2775,00
1058,83	3105,00
1064,71	3222,00
1070,59	3127,00
1076,47	2780,00
1082,33	2845,00
1088,20	2753,00
1094,05	2832,00
1099,90	2585,00
1105,74	2666,00
1111,58	2690,00
1117,41	2932,00
1123,23	3026,00
1129,05	3363,00
1134,86	3349,00
1140,67	2946,00
1146,47	2850,00
1152,26	2841,00
1158,05	2585,00
1163,83	2789,00
1169,60	2853,00
1175,37	2916,00
1181,13	2766,00
1186,89	2812,00
1192,64	2768,00
1198,38	2815,00
1204,12	2661,00
1209,85	2779,00
1215,58	2785,00
1221,30	2806,00
1227,02	2762,00
1232,72	2752,00
1238,43	2681,00
1244,12	2844,00
1249,81	2801,00
1255,50	2883,00
1261,17	2685,00
1266,85	2715,00
1272,51	2804,00
1278,17	2817,00
1283,83	2865,00
1289,47	3290,00
1295,12	3615,00
1300,75	3492,00
1306,38	3182,00
1312,01	2993,00
1317,63	2958,00
1323,24	2936,00
1328,85	2955,00
1334,45	2830,00
1340,04	2871,00
1345,63	2845,00
1351,22	2959,00
1356,80	2888,00
1362,37	2829,00
1367,93	2843,00
1373,49	2838,00
1379,05	2842,00
1384,60	2859,00
1390,14	2857,00
1395,68	2819,00
1401,21	2857,00
1406,74	2977,00
1412,26	3108,00
1417,77	3318,00
1423,28	3057,00
1428,78	3309,00
1434,28	3451,00
1439,77	3580,00
1445,26	3568,00
1450,74	3599,00
1456,22	3450,00
1461,68	3443,00
1467,15	3332,00
1472,61	3145,00
1478,06	3078,00
1483,51	3032,00
1488,95	2893,00
1494,38	2907,00
1499,81	2640,00
1505,24	2720,00
1510,65	2716,00
1516,07	2773,00
1521,48	2592,00
1526,88	2578,00
1532,27	2718,00
1537,67	2735,00
1543,05	2780,00
1548,43	2593,00
1553,81	2758,00
1559,18	2559,00
1564,54	2724,00
1569,90	2624,00
1575,25	2627,00
1580,60	2559,00
1585,94	2740,00
1591,28	2677,00
1596,61	2639,00
1601,93	2638,00
1607,25	2664,00
1612,57	2617,00
1617,88	2624,00
1623,18	2562,00
1628,48	2712,00
1633,77	2569,00
1639,06	2693,00
1644,34	2525,00
1649,62	2532,00
1654,89	2676,00
1660,16	2516,00
1665,42	2560,00
1670,67	2608,00
1675,92	2586,00
1681,17	2460,00
1686,41	2537,00
1691,64	2698,00
1696,87	2494,00
1702,10	2476,00
1707,32	2537,00
1712,53	2554,00
1717,74	2520,00
1722,94	2524,00
1728,14	2498,00
1733,33	2396,00
1738,52	2494,00
1743,70	2554,00
1748,88	2482,00
1754,05	2452,00
1759,22	2342,00
1764,38	3743,00
1769,53	2390,00
1774,69	2648,00
1779,83	2465,00
1784,97	2338,00
1790,11	2308,00
1795,24	2439,00
1800,36	2456,00
1805,48	2324,00
1810,60	2425,00
1815,71	2427,00
1820,82	2356,00
1825,92	2387,00
1831,01	2322,00
1836,10	2366,00
1841,19	2405,00
1846,26	2322,00
1851,34	2479,00
1856,41	2419,00
1861,47	2381,00
1866,53	2364,00
1871,59	2350,00
1876,64	2341,00
1881,68	2428,00
1886,72	2489,00
1891,76	2294,00
1896,79	2322,00
1901,81	2208,00
1906,83	2403,00
1911,85	2343,00
1916,86	2217,00
1921,86	2354,00
1926,86	2248,00
1931,86	2241,00
1936,85	2322,00
1941,83	2239,00
1946,81	2256,00
1951,79	2272,00
1956,76	2163,00
1961,72	2177,00
1966,68	2126,00
1971,64	2119,00
1976,59	2199,00
1981,54	2251,00
1986,48	2192,00
1991,42	2129,00
1996,35	2398,00
2001,27	2076,00
2006,20	2144,00
2011,11	2272,00
2016,03	2231,00
2020,93	2204,00
2025,84	2177,00
2030,73	2046,00
2035,63	2056,00
2040,52	2211,00
2045,40	2068,00
2050,28	2075,00
2055,15	2219,00
2060,02	1987,00
2064,89	2221,00
2069,75	2157,00
2074,60	2162,00
2079,46	2048,00
2084,30	2093,00
2089,14	2059,00
2093,98	2090,00
2098,81	2155,00
2103,64	2097,00
2108,46	2057,00
2113,28	2146,00
2118,09	2039,00
2122,90	2164,00
2127,70	1963,00
2132,50	2136,00
2137,30	2069,00
2142,09	2004,00
2146,87	2000,00
2151,66	2117,00
2156,43	2135,00
2161,20	2050,00
2165,97	2062,00
2170,73	1911,00
2175,49	2165,00
2180,24	1976,00
2184,99	2072,00
2189,74	2094,00
2194,48	1963,00
2199,21	2070,00
2203,94	1902,00
2208,67	1918,00
2213,39	1909,00
2218,11	2054,00
2222,82	1934,00
2227,53	1884,00
2232,23	2088,00
2236,93	1948,00
2241,63	1997,00
2246,32	1896,00
2251,00	1954,00
2255,68	1901,00
2260,36	1896,00
2265,03	1991,00
2269,70	2032,00
2274,36	1832,00
2279,02	1896,00
2283,68	1960,00
2288,33	1878,00
2292,97	1996,00
2297,61	1820,00
2302,25	1801,00
2306,88	1715,00
2311,51	1847,00
2316,14	1846,00
2320,75	1827,00
2325,37	1773,00
2329,98	1898,00
2334,59	1771,00
2339,19	1792,00
2343,79	1774,00
2348,38	1876,00
2352,97	1822,00
2357,55	1854,00
2362,13	1868,00
2366,71	1647,00
2371,28	1836,00
2375,85	1860,00
2380,41	1940,00
2384,97	1786,00
2389,52	1817,00
2394,07	1804,00
2398,62	1888,00
2403,16	1663,00
2407,70	1742,00
2412,23	1825,00
2416,76	1814,00
2421,29	1842,00
2425,81	1818,00
2430,32	1756,00
2434,84	1609,00
2439,34	1769,00
2443,85	1897,00
2448,35	1677,00
2452,84	1623,00
2457,33	1694,00
2461,82	1626,00
2466,30	1597,00
2470,78	1717,00
2475,25	1508,00
2479,72	1625,00
2484,19	1693,00
2488,65	1622,00
2493,11	1586,00
2497,56	1586,00
2502,01	1492,00
2506,46	1758,00
2510,90	1606,00
2515,34	1701,00
2519,77	1677,00
2524,20	1533,00
2528,62	1569,00
2533,04	1619,00
2537,46	1479,00
2541,87	1489,00
2546,28	1574,00
2550,68	1650,00
2555,08	1476,00
2559,48	1570,00
2563,87	1498,00
2568,26	1494,00
2572,64	1628,00
2577,02	1559,00
2581,40	1398,00
2585,77	1508,00
2590,14	1501,00
2594,50	1448,00
2598,86	1514,00
2603,22	1505,00
2607,57	1546,00
2611,92	1411,00
2616,26	1460,00
2620,60	1575,00
2624,94	1436,00
2629,27	1617,00
2633,60	1364,00
2637,92	1559,00
2642,24	1540,00
2646,56	1431,00
2650,87	1433,00
2655,18	1510,00
2659,48	1317,00
2663,78	1465,00
2668,08	1379,00
2672,37	1414,00
2676,66	1472,00
2680,95	1439,00
2685,23	1367,00
2689,50	1388,00
2693,78	1377,00
2698,05	1386,00
2702,31	1462,00
2706,57	1455,00
2710,83	1566,00
2715,08	1508,00
2719,33	1626,00
2723,58	1526,00
2727,82	1558,00
2732,06	1637,00
2736,29	1366,00
2740,53	1517,00
2744,75	1400,00
2748,97	1570,00
2753,19	1499,00
2757,41	1446,00
2761,62	1558,00
2765,83	1557,00
2770,03	1399,00
2774,23	1422,00
2778,43	1492,00
2782,62	1437,00
2786,81	1430,00
2791,00	1488,00
2795,18	1511,00
2799,35	1480,00
2803,53	1566,00
2807,70	1474,00
2811,86	1348,00
2816,03	1498,00
2820,19	1514,00
2824,34	1560,00
2828,49	1593,00
2832,64	1677,00
2836,78	1799,00
2840,92	1961,00
2845,06	2182,00
2849,19	2290,00
2853,32	2387,00
2857,45	2374,00
2861,57	2274,00
2865,69	2298,00
2869,80	2207,00
2873,91	2234,00
2878,02	2419,00
2882,12	2526,00
2886,22	2487,00
2890,32	2388,00
2894,41	2311,00
2898,50	2154,00
2902,58	2065,00
2906,67	2037,00
2910,74	1900,00
2914,82	1784,00
2918,89	1788,00
2922,96	1709,00
2927,02	1646,00
2931,08	1604,00
2935,13	1464,00
2939,19	1595,00
2943,24	1531,00
2947,28	1524,00
2951,32	1365,00
2955,36	1288,00
2959,40	1438,00
2963,43	1379,00
2967,46	1245,00
2971,48	1184,00
2975,50	1389,00
2979,52	1371,00
2983,53	1327,00
2987,54	1259,00
2991,55	1215,00
2995,55	1127,00
2999,55	1086,00
3003,54	1181,00
3007,54	1245,00
3011,53	1105,00
3015,51	1139,00
3019,49	1227,00
3023,47	1155,00
3027,45	1150,00
3031,42	1069,00
3035,39	1054,00
3039,35	1067,00
3043,31	1138,00
3047,27	1135,00
3051,22	1168,00
3055,17	933,00
3059,12	989,00
3063,06	1090,00
3067,00	968,00
3070,94	1142,00
3074,87	1133,00
3078,80	1015,00
3082,73	986,00
3086,65	1132,00
3090,57	1045,00
3094,49	1077,00
3098,40	1013,00
3102,31	899,00
3106,22	1106,00
3110,12	1082,00
3114,02	975,00
3117,92	1067,00
3121,81	872,00
3125,70	948,00
3129,58	1021,00
3133,47	936,00
3137,34	1002,00
3141,22	1008,00
3145,09	1074,00
3148,96	985,00
3152,83	874,00
3156,69	1033,00
3160,55	902,00
3164,40	1017,00
3168,26	969,00
3172,10	1079,00
3175,95	949,00
3179,79	989,00
3183,63	892,00
3187,47	907,00
3191,30	829,00
3195,13	1042,00
3198,95	852,00
3202,78	962,00
3206,60	896,00
3210,41	900,00
3214,23	888,00
3218,03	900,00
3221,84	963,00
3225,64	835,00
3229,44	898,00
3233,24	887,00
3237,03	876,00
3240,82	846,00
3244,61	825,00
3248,39	935,00
3252,17	896,00
3255,95	948,00
3259,72	958,00
3263,49	1052,00
3267,26	864,00
3271,03	894,00
3274,79	880,00
3278,54	907,00
3282,30	893,00
3286,05	881,00
3289,80	906,00
3293,54	925,00
3297,29	893,00
3301,02	817,00
3304,76	906,00
3308,49	934,00
3312,22	810,00
3315,95	780,00
3319,67	866,00
3323,39	991,00
3327,10	911,00
3330,82	786,00
3334,53	863,00
3338,24	846,00
3341,94	871,00
3345,64	832,00
3349,34	853,00
3353,03	810,00
3356,72	768,00
3360,41	868,00
3364,10	819,00
3367,78	872,00
3371,46	833,00
3375,13	836,00
3378,81	874,00
3382,48	832,00
3386,14	907,00
3389,81	821,00
3393,47	722,00
3397,12	922,00
3400,78	795,00
3404,43	841,00
3408,08	816,00
3411,72	837,00
3415,36	818,00
3419,00	729,00
3422,64	835,00
3426,27	808,00
3429,90	763,00
3433,53	833,00
3437,15	747,00
3440,77	683,00
3444,39	797,00
3448,00	786,00
3451,62	755,00
3455,22	755,00
3458,83	748,00
3462,43	812,00
3466,03	826,00
3469,63	791,00
3473,22	832,00
3476,81	738,00
3480,40	866,00
3483,99	795,00
3487,57	897,00
3491,15	791,00
3494,72	823,00
3498,29	811,00
3501,86	748,00
3505,43	788,00
3508,99	762,00
3512,56	814,00
3516,11	873,00
3519,67	725,00
3523,22	878,00
3526,77	842,00
3530,32	775,00
3533,86	781,00
3537,40	893,00
3540,94	842,00
3544,47	787,00
3548,00	676,00
3551,53	725,00
3555,06	764,00
3558,58	884,00
3562,10	796,00
3565,62	821,00
3569,13	799,00
3572,64	693,00
3576,15	660,00
3579,66	678,00
3583,16	817,00
3586,66	716,00
3590,16	733,00
3593,65	702,00
3597,14	701,00
3600,63	778,00
3604,11	803,00
3607,60	750,00
3611,08	730,00
3614,55	658,00
3618,03	702,00
3621,50	665,00
3624,97	747,00
3628,43	878,00
3631,90	749,00
3635,36	658,00
3638,81	766,00
3642,27	806,00
3645,72	768,00
3649,17	788,00
3652,61	647,00
3656,06	640,00
3659,50	790,00
3662,93	693,00
3666,37	724,00
3669,80	926,00
3673,23	769,00
3676,65	808,00
3680,08	720,00
3683,50	701,00
3686,92	788,00
3690,33	645,00
3693,74	743,00
3697,15	556,00
3700,56	652,00
3703,96	694,00
3707,36	655,00
3710,76	632,00
3714,16	653,00
3717,55	589,00
3720,94	698,00
3724,33	659,00
3727,71	748,00
3731,10	604,00
3734,48	565,00
3737,85	611,00
3741,23	588,00
3744,60	698,00
3747,97	565,00
3751,33	600,00
3754,69	710,00
3758,05	646,00
3761,41	601,00
3764,77	597,00
3768,12	565,00
3771,47	671,00
3774,82	699,00
3778,16	-10,00
3781,50	14,00
3784,84	7,00
3788,18	9,00
>>>>>End Processed Spectral Data<<<<<
