SpectraSuite Data File
++++++++++++++++++++++++++++++++++++
Date: Mon Mar 09 14:45:08 ICT 2026
User: Administrator
Dark Spectrum Present: Yes
Reference Spectrum Present: No
Number of Sampled Component Spectra: 1
Spectrometers: MAYP113682
Integration Time (usec): 3000000 (MAYP113682)
Spectra Averaged: 1 (MAYP113682)
Boxcar Smoothing: 0 (MAYP113682)
Correct for Electrical Dark: No (MAYP113682)
Strobe/Lamp Enabled: No (MAYP113682)
Correct for Detector Non-linearity: No (MAYP113682)
Correct for Stray Light: No (MAYP113682)
Number of Pixels in Processed Spectrum: 2068
>>>>>Begin Processed Spectral Data<<<<<
-37534,58	26,00
-37414,56	3,00
-37295,11	5,00
-37176,24	2,00
-37057,95	479,00
-36940,22	593,00
-36823,05	648,00
-36706,45	649,00
-36590,40	556,00
-36474,90	637,00
-36359,95	638,00
-36245,55	658,00
-36131,68	751,00
-36018,35	670,00
-35905,55	658,00
-35793,29	651,00
-35681,54	712,00
-35570,32	592,00
-35459,62	662,00
-35349,43	679,00
-35239,75	596,00
-35130,58	625,00
-35021,91	600,00
-34913,74	586,00
-34806,07	659,00
-34698,89	736,00
-34592,20	657,00
-34486,00	774,00
-34380,28	573,00
-34275,04	645,00
-34170,27	633,00
-34065,98	659,00
-33962,16	666,00
-33858,81	694,00
-33755,92	693,00
-33653,49	766,00
-33551,52	744,00
-33450,01	650,00
-33348,94	684,00
-33248,33	676,00
-33148,16	682,00
-33048,43	746,00
-32949,14	775,00
-32850,29	706,00
-32751,87	644,00
-32653,89	726,00
-32556,33	755,00
-32459,20	679,00
-32362,49	697,00
-32266,19	592,00
-32170,32	641,00
-32074,86	705,00
-31979,82	697,00
-31885,18	828,00
-31790,95	845,00
-31697,12	690,00
-31603,69	766,00
-31510,67	769,00
-31418,04	645,00
-31325,80	722,00
-31233,95	719,00
-31142,49	671,00
-31051,42	758,00
-30960,73	786,00
-30870,43	796,00
-30780,50	625,00
-30690,95	760,00
-30601,77	793,00
-30512,97	710,00
-30424,53	657,00
-30336,46	719,00
-30248,76	770,00
-30161,42	756,00
-30074,44	701,00
-29987,81	762,00
-29901,55	819,00
-29815,63	574,00
-29730,07	680,00
-29644,86	795,00
-29560,00	754,00
-29475,48	706,00
-29391,30	673,00
-29307,47	545,00
-29223,97	634,00
-29140,81	686,00
-29057,99	835,00
-28975,50	703,00
-28893,34	778,00
-28811,51	656,00
-28730,00	708,00
-28648,82	685,00
-28567,97	845,00
-28487,43	752,00
-28407,21	674,00
-28327,32	611,00
-28247,73	818,00
-28168,46	670,00
-28089,50	840,00
-28010,85	598,00
-27932,51	625,00
-27854,48	821,00
-27776,75	650,00
-27699,32	685,00
-27622,19	724,00
-27545,37	742,00
-27468,84	695,00
-27392,60	725,00
-27316,66	706,00
-27241,01	728,00
-27165,66	782,00
-27090,59	730,00
-27015,81	740,00
-26941,31	817,00
-26867,10	709,00
-26793,17	698,00
-26719,52	771,00
-26646,15	716,00
-26573,06	763,00
-26500,24	741,00
-26427,70	674,00
-26355,43	799,00
-26283,43	685,00
-26211,71	735,00
-26140,25	666,00
-26069,06	965,00
-25998,13	602,00
-25927,46	729,00
-25857,06	722,00
-25786,92	671,00
-25717,04	711,00
-25647,42	708,00
-25578,05	753,00
-25508,94	747,00
-25440,09	708,00
-25371,48	709,00
-25303,13	641,00
-25235,02	680,00
-25167,17	745,00
-25099,56	816,00
-25032,19	684,00
-24965,07	703,00
-24898,20	622,00
-24831,56	687,00
-24765,17	737,00
-24699,01	682,00
-24633,10	687,00
-24567,41	677,00
-24501,97	785,00
-24436,75	682,00
-24371,77	636,00
-24307,03	663,00
-24242,51	566,00
-24178,22	876,00
-24114,16	639,00
-24050,32	671,00
-23986,71	656,00
-23923,32	713,00
-23860,16	567,00
-23797,22	635,00
-23734,50	701,00
-23672,00	672,00
-23609,71	668,00
-23547,65	624,00
-23485,80	698,00
-23424,16	653,00
-23362,74	781,00
-23301,53	644,00
-23240,54	646,00
-23179,75	691,00
-23119,17	644,00
-23058,80	772,00
-22998,64	739,00
-22938,68	626,00
-22878,93	766,00
-22819,39	723,00
-22760,04	658,00
-22700,90	726,00
-22641,96	768,00
-22583,22	709,00
-22524,68	691,00
-22466,33	627,00
-22408,19	732,00
-22350,23	711,00
-22292,48	820,00
-22234,92	669,00
-22177,55	774,00
-22120,37	756,00
-22063,38	698,00
-22006,58	593,00
-21949,98	652,00
-21893,56	568,00
-21837,33	719,00
-21781,28	736,00
-21725,42	653,00
-21669,74	729,00
-21614,25	658,00
-21558,94	613,00
-21503,81	676,00
-21448,86	710,00
-21394,10	694,00
-21339,51	636,00
-21285,10	618,00
-21230,86	631,00
-21176,81	680,00
-21122,93	606,00
-21069,22	724,00
-21015,69	681,00
-20962,33	687,00
-20909,14	688,00
-20856,13	632,00
-20803,28	736,00
-20750,61	620,00
-20698,10	631,00
-20645,76	771,00
-20593,59	808,00
-20541,59	761,00
-20489,75	770,00
-20438,07	644,00
-20386,56	801,00
-20335,22	709,00
-20284,03	665,00
-20233,01	637,00
-20182,15	593,00
-20131,45	630,00
-20080,91	683,00
-20030,52	667,00
-19980,30	688,00
-19930,23	618,00
-19880,32	739,00
-19830,56	816,00
-19780,96	572,00
-19731,52	740,00
-19682,23	651,00
-19633,09	606,00
-19584,10	671,00
-19535,26	679,00
-19486,58	725,00
-19438,04	702,00
-19389,66	644,00
-19341,42	656,00
-19293,33	697,00
-19245,39	627,00
-19197,60	651,00
-19149,95	711,00
-19102,45	735,00
-19055,09	709,00
-19007,87	673,00
-18960,80	752,00
-18913,87	706,00
-18867,09	805,00
-18820,44	805,00
-18773,94	676,00
-18727,57	660,00
-18681,35	596,00
-18635,26	732,00
-18589,31	646,00
-18543,50	625,00
-18497,83	652,00
-18452,29	747,00
-18406,89	627,00
-18361,63	818,00
-18316,50	665,00
-18271,50	642,00
-18226,63	707,00
-18181,90	620,00
-18137,30	767,00
-18092,84	657,00
-18048,50	712,00
-18004,29	574,00
-17960,22	670,00
-17916,27	622,00
-17872,45	670,00
-17828,76	647,00
-17785,20	782,00
-17741,77	684,00
-17698,46	668,00
-17655,28	553,00
-17612,22	659,00
-17569,29	617,00
-17526,48	681,00
-17483,79	653,00
-17441,23	674,00
-17398,79	672,00
-17356,48	682,00
-17314,28	830,00
-17272,21	673,00
-17230,26	620,00
-17188,42	742,00
-17146,71	710,00
-17105,12	667,00
-17063,64	651,00
-17022,28	685,00
-16981,04	670,00
-16939,92	730,00
-16898,91	862,00
-16858,02	728,00
-16817,25	676,00
-16776,59	615,00
-16736,04	691,00
-16695,61	630,00
-16655,29	769,00
-16615,09	719,00
-16574,99	741,00
-16535,01	588,00
-16495,15	651,00
-16455,39	742,00
-16415,74	751,00
-16376,21	581,00
-16336,78	556,00
-16297,46	674,00
-16258,26	761,00
-16219,16	604,00
-16180,17	671,00
-16141,28	792,00
-16102,51	744,00
-16063,84	758,00
-16025,27	740,00
-15986,82	568,00
-15948,46	596,00
-15910,22	711,00
-15872,07	718,00
-15834,04	639,00
-15796,10	678,00
-15758,27	753,00
-15720,54	680,00
-15682,91	647,00
-15645,39	675,00
-15607,97	683,00
-15570,64	621,00
-15533,42	676,00
-15496,30	752,00
-15459,28	635,00
-15422,36	672,00
-15385,54	732,00
-15348,82	663,00
-15312,19	744,00
-15275,66	626,00
-15239,23	657,00
-15202,90	679,00
-15166,67	646,00
-15130,53	728,00
-15094,48	771,00
-15058,54	719,00
-15022,68	569,00
-14986,93	689,00
-14951,26	740,00
-14915,69	625,00
-14880,22	624,00
-14844,84	600,00
-14809,55	672,00
-14774,35	628,00
-14739,25	751,00
-14704,24	761,00
-14669,32	740,00
-14634,49	647,00
-14599,75	731,00
-14565,10	575,00
-14530,55	681,00
-14496,08	720,00
-14461,70	642,00
-14427,41	634,00
-14393,21	595,00
-14359,10	678,00
-14325,07	722,00
-14291,14	753,00
-14257,29	705,00
-14223,52	647,00
-14189,85	789,00
-14156,26	713,00
-14122,76	597,00
-14089,34	688,00
-14056,01	769,00
-14022,76	735,00
-13989,60	747,00
-13956,52	703,00
-13923,53	711,00
-13890,62	700,00
-13857,79	674,00
-13825,05	693,00
-13792,39	607,00
-13759,81	745,00
-13727,31	687,00
-13694,90	641,00
-13662,57	674,00
-13630,31	738,00
-13598,14	706,00
-13566,05	728,00
-13534,05	786,00
-13502,12	668,00
-13470,27	640,00
-13438,50	775,00
-13406,80	673,00
-13375,19	654,00
-13343,66	761,00
-13312,20	704,00
-13280,83	662,00
-13249,53	673,00
-13218,30	604,00
-13187,16	624,00
-13156,09	748,00
-13125,10	765,00
-13094,18	705,00
-13063,34	794,00
-13032,58	618,00
-13001,89	731,00
-12971,28	660,00
-12940,74	683,00
-12910,27	815,00
-12879,88	579,00
-12849,57	770,00
-12819,33	686,00
-12789,16	677,00
-12759,06	577,00
-12729,04	697,00
-12699,09	1575,00
-12669,21	640,00
-12639,41	749,00
-12609,68	655,00
-12580,02	635,00
-12550,43	799,00
-12520,91	587,00
-12491,46	605,00
-12462,08	660,00
-12432,77	663,00
-12403,54	750,00
-12374,37	670,00
-12345,27	732,00
-12316,24	630,00
-12287,29	840,00
-12258,40	701,00
-12229,57	769,00
-12200,82	715,00
-12172,14	663,00
-12143,52	697,00
-12114,97	645,00
-12086,49	692,00
-12058,07	706,00
-12029,73	646,00
-12001,44	791,00
-11973,23	748,00
-11945,08	741,00
-11917,00	730,00
-11888,98	670,00
-11861,03	637,00
-11833,15	672,00
-11805,32	703,00
-11777,57	686,00
-11749,88	675,00
-11722,25	657,00
-11694,69	720,00
-11667,19	669,00
-11639,75	692,00
-11612,38	699,00
-11585,07	671,00
-11557,83	680,00
-11530,65	764,00
-11503,53	785,00
-11476,47	813,00
-11449,48	675,00
-11422,54	635,00
-11395,67	703,00
-11368,86	667,00
-11342,11	693,00
-11315,43	600,00
-11288,80	601,00
-11262,23	810,00
-11235,73	633,00
-11209,28	769,00
-11182,90	745,00
-11156,57	727,00
-11130,31	685,00
-11104,10	743,00
-11077,96	733,00
-11051,87	647,00
-11025,84	698,00
-10999,87	731,00
-10973,96	748,00
-10948,11	622,00
-10922,31	647,00
-10896,58	772,00
-10870,90	807,00
-10845,28	596,00
-10819,71	640,00
-10794,20	669,00
-10768,75	748,00
-10743,36	641,00
-10718,02	702,00
-10692,74	743,00
-10667,52	588,00
-10642,35	745,00
-10617,24	848,00
-10592,18	750,00
-10567,18	667,00
-10542,23	588,00
-10517,34	680,00
-10492,51	755,00
-10467,72	684,00
-10443,00	624,00
-10418,32	670,00
-10393,70	606,00
-10369,14	638,00
-10344,63	713,00
-10320,17	696,00
-10295,77	719,00
-10271,42	668,00
-10247,12	669,00
-10222,88	761,00
-10198,68	546,00
-10174,54	662,00
-10150,46	690,00
-10126,42	679,00
-10102,44	770,00
-10078,51	650,00
-10054,63	717,00
-10030,80	579,00
-10007,03	732,00
-9983,30	664,00
-9959,63	641,00
-9936,01	715,00
-9912,44	664,00
-9888,92	623,00
-9865,44	641,00
-9842,02	674,00
-9818,65	596,00
-9795,33	614,00
-9772,06	609,00
-9748,84	560,00
-9725,67	559,00
-9702,55	506,00
-9679,47	647,00
-9656,45	548,00
-9633,47	464,00
-9610,55	498,00
-9587,67	582,00
-9564,84	696,00
-9542,06	470,00
-9519,32	585,00
-9496,64	448,00
-9474,00	327,00
-9451,41	352,00
-9428,87	465,00
-9406,37	407,00
-9383,92	349,00
-9361,52	276,00
-9339,17	318,00
-9316,86	204,00
-9294,60	244,00
-9272,38	461,00
-9250,21	328,00
-9228,09	227,00
-9206,01	233,00
-9183,98	221,00
-9162,00	134,00
-9140,06	236,00
-9118,16	206,00
-9096,31	283,00
-9074,51	199,00
-9052,75	424,00
-9031,04	448,00
-9009,37	212,00
-8987,74	360,00
-8966,16	452,00
-8944,63	272,00
-8923,14	250,00
-8901,69	333,00
-8880,29	419,00
-8858,93	511,00
-8837,61	428,00
-8816,34	420,00
-8795,11	360,00
-8773,92	429,00
-8752,78	442,00
-8731,68	368,00
-8710,62	403,00
-8689,61	279,00
-8668,63	419,00
-8647,70	608,00
-8626,82	429,00
-8605,97	565,00
-8585,17	490,00
-8564,41	383,00
-8543,69	452,00
-8523,01	400,00
-8502,37	554,00
-8481,78	434,00
-8461,23	297,00
-8440,71	364,00
-8420,24	371,00
-8399,81	470,00
-8379,42	336,00
-8359,08	456,00
-8338,77	374,00
-8318,50	448,00
-8298,27	437,00
-8278,09	510,00
-8257,94	430,00
-8237,83	464,00
-8217,76	481,00
-8197,74	433,00
-8177,75	488,00
-8157,80	505,00
-8137,89	508,00
-8118,02	498,00
-8098,19	568,00
-8078,40	519,00
-8058,65	441,00
-8038,93	631,00
-8019,26	641,00
-7999,62	531,00
-7980,02	550,00
-7960,46	496,00
-7940,94	501,00
-7921,46	529,00
-7902,01	471,00
-7882,60	550,00
-7863,23	554,00
-7843,90	616,00
-7824,61	530,00
-7805,35	581,00
-7786,13	542,00
-7766,95	483,00
-7747,80	584,00
-7728,69	682,00
-7709,62	556,00
-7690,59	578,00
-7671,59	640,00
-7652,63	516,00
-7633,70	469,00
-7614,81	586,00
-7595,96	445,00
-7577,15	622,00
-7558,37	557,00
-7539,62	549,00
-7520,91	547,00
-7502,24	590,00
-7483,60	603,00
-7465,00	636,00
-7446,44	560,00
-7427,91	515,00
-7409,41	636,00
-7390,95	543,00
-7372,53	483,00
-7354,14	642,00
-7335,78	510,00
-7317,46	584,00
-7299,18	537,00
-7280,92	580,00
-7262,71	613,00
-7244,52	509,00
-7226,38	591,00
-7208,26	591,00
-7190,18	625,00
-7172,14	535,00
-7154,12	584,00
-7136,15	575,00
-7118,20	576,00
-7100,29	578,00
-7082,41	576,00
-7064,57	524,00
-7046,76	505,00
-7028,98	453,00
-7011,24	716,00
-6993,53	484,00
-6975,85	564,00
-6958,20	435,00
-6940,59	585,00
-6923,01	528,00
-6905,46	671,00
-6887,94	542,00
-6870,46	774,00
-6853,01	536,00
-6835,59	517,00
-6818,21	530,00
-6800,85	563,00
-6783,53	452,00
-6766,24	421,00
-6748,98	502,00
-6731,76	461,00
-6714,56	459,00
-6697,40	486,00
-6680,26	474,00
-6663,16	514,00
-6646,09	584,00
-6629,05	529,00
-6612,05	559,00
-6595,07	437,00
-6578,13	592,00
-6561,21	480,00
-6544,33	497,00
-6527,47	507,00
-6510,65	433,00
-6493,86	509,00
-6477,10	406,00
-6460,36	517,00
-6443,66	451,00
-6426,99	555,00
-6410,35	477,00
-6393,74	623,00
-6377,16	507,00
-6360,61	517,00
-6344,09	382,00
-6327,59	452,00
-6311,13	383,00
-6294,70	571,00
-6278,29	627,00
-6261,92	508,00
-6245,58	519,00
-6229,26	671,00
-6212,97	552,00
-6196,72	514,00
-6180,49	693,00
-6164,29	521,00
-6148,12	561,00
-6131,98	534,00
-6115,86	625,00
-6099,78	412,00
-6083,72	512,00
-6067,69	520,00
-6051,69	649,00
-6035,72	566,00
-6019,78	572,00
-6003,87	586,00
-5987,98	466,00
-5972,12	595,00
-5956,29	543,00
-5940,49	598,00
-5924,71	655,00
-5908,96	538,00
-5893,24	553,00
-5877,55	527,00
-5861,89	650,00
-5846,25	436,00
-5830,64	558,00
-5815,05	439,00
-5799,50	549,00
-5783,97	597,00
-5768,47	682,00
-5752,99	695,00
-5737,55	533,00
-5722,12	532,00
-5706,73	478,00
-5691,36	558,00
-5676,02	543,00
-5660,71	599,00
-5645,42	600,00
-5630,16	604,00
-5614,92	627,00
-5599,71	400,00
-5584,53	620,00
-5569,37	497,00
-5554,24	648,00
-5539,14	516,00
-5524,06	610,00
-5509,01	626,00
-5493,98	459,00
-5478,98	615,00
-5464,00	532,00
-5449,05	487,00
-5434,13	617,00
-5419,23	685,00
-5404,36	540,00
-5389,51	638,00
-5374,69	513,00
-5359,89	494,00
-5345,12	597,00
-5330,37	743,00
-5315,65	723,00
-5300,95	740,00
-5286,28	510,00
-5271,63	521,00
-5257,01	499,00
-5242,41	596,00
-5227,84	565,00
-5213,29	548,00
-5198,76	661,00
-5184,26	562,00
-5169,79	620,00
-5155,33	645,00
-5140,91	520,00
-5126,51	566,00
-5112,13	533,00
-5097,77	652,00
-5083,44	712,00
-5069,13	635,00
-5054,85	653,00
-5040,59	519,00
-5026,36	574,00
-5012,15	670,00
-4997,96	594,00
-4983,80	590,00
-4969,66	624,00
-4955,54	633,00
-4941,44	601,00
-4927,37	607,00
-4913,33	563,00
-4899,30	392,00
-4885,30	604,00
-4871,33	637,00
-4857,37	684,00
-4843,44	653,00
-4829,53	691,00
-4815,65	617,00
-4801,79	433,00
-4787,95	538,00
-4774,13	531,00
-4760,34	604,00
-4746,56	676,00
-4732,82	584,00
-4719,09	636,00
-4705,38	656,00
-4691,70	599,00
-4678,04	509,00
-4664,41	594,00
-4650,79	805,00
-4637,20	655,00
-4623,63	590,00
-4610,08	654,00
-4596,56	628,00
-4583,05	537,00
-4569,57	619,00
-4556,11	652,00
-4542,67	574,00
-4529,25	626,00
-4515,86	747,00
-4502,49	653,00
-4489,13	629,00
-4475,80	689,00
-4462,49	557,00
-4449,21	861,00
-4435,94	675,00
-4422,70	692,00
-4409,47	502,00
-4396,27	611,00
-4383,09	682,00
-4369,93	606,00
-4356,79	664,00
-4343,67	729,00
-4330,58	582,00
-4317,50	558,00
-4304,45	647,00
-4291,41	584,00
-4278,40	663,00
-4265,41	692,00
-4252,44	649,00
-4239,49	580,00
-4226,55	664,00
-4213,65	707,00
-4200,76	726,00
-4187,89	662,00
-4175,04	688,00
-4162,21	711,00
-4149,40	632,00
-4136,61	575,00
-4123,85	583,00
-4111,10	686,00
-4098,37	730,00
-4085,66	696,00
-4072,98	763,00
-4060,31	624,00
-4047,66	696,00
-4035,04	775,00
-4022,43	663,00
-4009,84	831,00
-3997,27	658,00
-3984,72	684,00
-3972,19	798,00
-3959,69	630,00
-3947,20	659,00
-3934,73	727,00
-3922,27	620,00
-3909,84	755,00
-3897,43	670,00
-3885,04	677,00
-3872,67	684,00
-3860,31	721,00
-3847,98	755,00
-3835,66	647,00
-3823,36	736,00
-3811,09	615,00
-3798,83	684,00
-3786,59	758,00
-3774,37	816,00
-3762,17	598,00
-3749,98	719,00
-3737,82	613,00
-3725,67	831,00
-3713,55	645,00
-3701,44	712,00
-3689,35	742,00
-3677,28	759,00
-3665,22	732,00
-3653,19	707,00
-3641,17	697,00
-3629,18	736,00
-3617,20	656,00
-3605,24	796,00
-3593,30	690,00
-3581,37	660,00
-3569,47	730,00
-3557,58	696,00
-3545,71	734,00
-3533,86	701,00
-3522,02	715,00
-3510,21	733,00
-3498,41	718,00
-3486,63	739,00
-3474,87	712,00
-3463,12	578,00
-3451,40	619,00
-3439,69	773,00
-3428,00	753,00
-3416,33	750,00
-3404,67	628,00
-3393,03	775,00
-3381,41	734,00
-3369,81	707,00
-3358,22	696,00
-3346,66	727,00
-3335,10	716,00
-3323,57	635,00
-3312,06	712,00
-3300,56	639,00
-3289,08	584,00
-3277,61	675,00
-3266,16	703,00
-3254,73	714,00
-3243,32	659,00
-3231,92	735,00
-3220,55	681,00
-3209,18	729,00
-3197,84	711,00
-3186,51	621,00
-3175,20	712,00
-3163,90	705,00
-3152,63	660,00
-3141,36	668,00
-3130,12	753,00
-3118,89	731,00
-3107,68	765,00
-3096,49	733,00
-3085,31	729,00
-3074,15	646,00
-3063,00	686,00
-3051,87	829,00
-3040,76	790,00
-3029,67	643,00
-3018,59	834,00
-3007,52	696,00
-2996,48	770,00
-2985,44	555,00
-2974,43	623,00
-2963,43	656,00
-2952,45	609,00
-2941,48	733,00
-2930,53	707,00
-2919,60	530,00
-2908,68	612,00
-2897,78	622,00
-2886,89	722,00
-2876,02	678,00
-2865,17	611,00
-2854,33	712,00
-2843,50	697,00
-2832,70	657,00
-2821,90	756,00
-2811,13	758,00
-2800,37	636,00
-2789,62	716,00
-2778,89	642,00
-2768,18	814,00
-2757,48	779,00
-2746,80	850,00
-2736,13	744,00
-2725,48	692,00
-2714,84	721,00
-2704,22	613,00
-2693,61	659,00
-2683,02	753,00
-2672,45	648,00
-2661,89	722,00
-2651,34	760,00
-2640,81	673,00
-2630,30	792,00
-2619,80	687,00
-2609,31	811,00
-2598,84	603,00
-2588,39	692,00
-2577,95	686,00
-2567,52	653,00
-2557,11	784,00
-2546,71	713,00
-2536,33	778,00
-2525,97	747,00
-2515,62	638,00
-2505,28	691,00
-2494,96	669,00
-2484,65	669,00
-2474,36	858,00
-2464,08	638,00
-2453,82	783,00
-2443,57	695,00
-2433,33	627,00
-2423,11	662,00
-2412,91	651,00
-2402,72	669,00
-2392,54	674,00
-2382,38	660,00
-2372,23	735,00
-2362,09	5091,00
-2351,97	697,00
-2341,87	641,00
-2331,78	683,00
-2321,70	779,00
-2311,64	766,00
-2301,59	611,00
-2291,55	692,00
-2281,53	704,00
-2271,53	614,00
-2261,53	774,00
-2251,55	626,00
-2241,59	695,00
-2231,64	703,00
-2221,70	614,00
-2211,78	794,00
-2201,87	689,00
-2191,97	713,00
-2182,09	653,00
-2172,22	754,00
-2162,37	592,00
-2152,53	690,00
-2142,70	581,00
-2132,89	590,00
-2123,09	832,00
-2113,30	659,00
-2103,53	687,00
-2093,77	622,00
-2084,02	633,00
-2074,29	784,00
-2064,57	703,00
-2054,86	693,00
-2045,17	786,00
-2035,49	755,00
-2025,82	709,00
-2016,17	644,00
-2006,53	701,00
-1996,91	663,00
-1987,29	635,00
-1977,69	656,00
-1968,11	821,00
-1958,53	726,00
-1948,97	744,00
-1939,42	655,00
-1929,89	664,00
-1920,37	712,00
-1910,86	728,00
-1901,36	718,00
-1891,88	686,00
-1882,41	684,00
-1872,95	794,00
-1863,51	641,00
-1854,08	741,00
-1844,66	751,00
-1835,26	666,00
-1825,86	699,00
-1816,48	633,00
-1807,11	690,00
-1797,76	863,00
-1788,42	809,00
-1779,09	874,00
-1769,77	661,00
-1760,47	804,00
-1751,17	728,00
-1741,89	806,00
-1732,63	686,00
-1723,37	938,00
-1714,13	700,00
-1704,90	700,00
-1695,68	831,00
-1686,48	637,00
-1677,29	674,00
-1668,11	927,00
-1658,94	699,00
-1649,78	692,00
-1640,64	689,00
-1631,51	761,00
-1622,39	806,00
-1613,28	765,00
-1604,19	891,00
-1595,10	760,00
-1586,03	668,00
-1576,97	742,00
-1567,93	713,00
-1558,89	783,00
-1549,87	814,00
-1540,86	694,00
-1531,86	610,00
-1522,87	667,00
-1513,90	798,00
-1504,93	772,00
-1495,98	766,00
-1487,04	817,00
-1478,12	730,00
-1469,20	662,00
-1460,30	802,00
-1451,40	836,00
-1442,52	713,00
-1433,65	759,00
-1424,80	740,00
-1415,95	701,00
-1407,12	879,00
-1398,30	754,00
-1389,48	663,00
-1380,69	708,00
-1371,90	705,00
-1363,12	720,00
-1354,36	849,00
-1345,60	700,00
-1336,86	716,00
-1328,13	938,00
-1319,41	680,00
-1310,70	693,00
-1302,01	741,00
-1293,32	650,00
-1284,65	763,00
-1275,99	768,00
-1267,33	793,00
-1258,69	731,00
-1250,06	788,00
-1241,45	662,00
-1232,84	789,00
-1224,25	788,00
-1215,66	755,00
-1207,09	774,00
-1198,53	737,00
-1189,97	613,00
-1181,43	696,00
-1172,91	860,00
-1164,39	803,00
-1155,88	661,00
-1147,38	562,00
-1138,90	688,00
-1130,43	719,00
-1121,96	749,00
-1113,51	806,00
-1105,07	683,00
-1096,64	772,00
-1088,22	726,00
-1079,81	719,00
-1071,41	860,00
-1063,02	744,00
-1054,65	712,00
-1046,28	718,00
-1037,92	776,00
-1029,58	677,00
-1021,24	676,00
-1012,92	991,00
-1004,61	706,00
-996,30	977,00
-988,01	630,00
-979,73	776,00
-971,46	757,00
-963,20	660,00
-954,95	557,00
-946,71	573,00
-938,48	639,00
-930,26	794,00
-922,06	789,00
-913,86	744,00
-905,67	722,00
-897,49	688,00
-889,33	670,00
-881,17	775,00
-873,02	701,00
-864,89	559,00
-856,76	672,00
-848,65	647,00
-840,54	770,00
-832,45	777,00
-824,36	566,00
-816,29	794,00
-808,22	715,00
-800,17	695,00
-792,12	757,00
-784,09	837,00
-776,06	717,00
-768,05	757,00
-760,04	647,00
-752,05	691,00
-744,07	799,00
-736,09	827,00
-728,13	588,00
-720,17	707,00
-712,23	708,00
-704,29	768,00
-696,37	749,00
-688,45	699,00
-680,55	668,00
-672,65	636,00
-664,77	590,00
-656,89	692,00
-649,03	665,00
-641,17	696,00
-633,32	880,00
-625,49	797,00
-617,66	733,00
-609,84	689,00
-602,03	653,00
-594,23	707,00
-586,45	674,00
-578,67	722,00
-570,90	635,00
-563,14	669,00
-555,39	767,00
-547,65	776,00
-539,91	761,00
-532,19	702,00
-524,48	815,00
-516,78	721,00
-509,08	786,00
-501,40	658,00
-493,72	750,00
-486,06	673,00
-478,40	883,00
-470,76	686,00
-463,12	632,00
-455,49	675,00
-447,87	675,00
-440,26	639,00
-432,66	701,00
-425,07	765,00
-417,49	682,00
-409,92	668,00
-402,35	598,00
-394,80	621,00
-387,25	745,00
-379,72	734,00
-372,19	624,00
-364,67	663,00
-357,17	784,00
-349,67	691,00
-342,18	709,00
-334,69	777,00
-327,22	686,00
-319,76	711,00
-312,30	767,00
-304,86	798,00
-297,42	752,00
-290,00	664,00
-282,58	626,00
-275,17	799,00
-267,77	808,00
-260,37	666,00
-252,99	764,00
-245,62	702,00
-238,25	723,00
-230,90	672,00
-223,55	820,00
-216,21	762,00
-208,88	825,00
-201,56	793,00
-194,25	749,00
-186,94	768,00
-179,65	802,00
-172,36	826,00
-165,08	781,00
-157,81	950,00
-150,55	934,00
-143,30	862,00
-136,06	1001,00
-128,82	930,00
-121,60	893,00
-114,38	1068,00
-107,17	1037,00
-99,97	1081,00
-92,78	1105,00
-85,60	1150,00
-78,42	1225,00
-71,25	1349,00
-64,10	1438,00
-56,95	1543,00
-49,81	1668,00
-42,67	2054,00
-35,55	2251,00
-28,43	2870,00
-21,33	4308,00
-14,23	12674,00
-7,14	57775,00
-0,05	57564,00
7,02	57281,00
14,09	42739,00
21,14	11515,00
28,19	5110,00
35,23	3570,00
42,27	2796,00
49,29	2435,00
56,31	2265,00
63,32	2036,00
70,32	1705,00
77,31	1506,00
84,29	1385,00
91,27	1400,00
98,23	1369,00
105,19	1162,00
112,14	1419,00
119,09	1705,00
126,02	2379,00
132,95	2869,00
139,87	2814,00
146,78	3098,00
153,68	2927,00
160,58	2919,00
167,46	2764,00
174,34	2955,00
181,21	2906,00
188,08	2901,00
194,93	2970,00
201,78	2842,00
208,62	2751,00
215,45	2907,00
222,27	2856,00
229,09	3013,00
235,90	2789,00
242,70	2843,00
249,49	2963,00
256,27	2795,00
263,05	2829,00
269,82	2772,00
276,58	2962,00
283,33	2739,00
290,08	2792,00
296,82	2866,00
303,55	2797,00
310,27	2740,00
316,98	2856,00
323,69	2738,00
330,39	2683,00
337,08	2848,00
343,76	2863,00
350,44	2776,00
357,11	2945,00
363,77	2670,00
370,42	2754,00
377,07	2905,00
383,71	2798,00
390,34	2784,00
396,96	2751,00
403,58	2714,00
410,19	2839,00
416,79	2968,00
423,38	2935,00
429,97	2894,00
436,55	2659,00
443,12	2769,00
449,68	2745,00
456,24	2744,00
462,79	2810,00
469,33	2710,00
475,86	2726,00
482,39	2804,00
488,91	2817,00
495,42	2724,00
501,93	2777,00
508,42	2658,00
514,91	2744,00
521,40	2763,00
527,87	2736,00
534,34	2708,00
540,80	2858,00
547,25	2743,00
553,70	2811,00
560,14	2824,00
566,57	2759,00
573,00	2812,00
579,41	2769,00
585,83	2716,00
592,23	2824,00
598,62	2854,00
605,01	2665,00
611,40	2785,00
617,77	2914,00
624,14	2705,00
630,50	2772,00
636,85	2796,00
643,20	2831,00
649,54	2798,00
655,87	2780,00
662,20	2931,00
668,52	2713,00
674,83	2797,00
681,13	2801,00
687,43	2902,00
693,72	2792,00
700,00	2680,00
706,28	2829,00
712,55	2790,00
718,81	2729,00
725,07	2751,00
731,32	2783,00
737,56	2842,00
743,79	2870,00
750,02	2753,00
756,24	2848,00
762,46	2776,00
768,67	3106,00
774,87	2870,00
781,06	2877,00
787,25	2832,00
793,43	2880,00
799,60	2767,00
805,77	3052,00
811,93	2821,00
818,08	2842,00
824,23	2885,00
830,37	3074,00
836,50	2939,00
842,63	2966,00
848,75	2888,00
854,87	2917,00
860,97	2883,00
867,07	2906,00
873,17	2897,00
879,25	2854,00
885,33	2876,00
891,41	2939,00
897,47	2884,00
903,53	2909,00
909,59	2933,00
915,63	3014,00
921,67	2831,00
927,71	2925,00
933,74	3031,00
939,76	2865,00
945,77	2889,00
951,78	2934,00
957,78	2869,00
963,78	3012,00
969,77	2971,00
975,75	2958,00
981,72	2886,00
987,69	3936,00
993,66	2974,00
999,61	3019,00
1005,56	3016,00
1011,51	2902,00
1017,44	2954,00
1023,37	3071,00
1029,30	2939,00
1035,22	3176,00
1041,13	3012,00
1047,03	3064,00
1052,93	3268,00
1058,83	3455,00
1064,71	3711,00
1070,59	3472,00
1076,47	3295,00
1082,33	3260,00
1088,20	3219,00
1094,05	3172,00
1099,90	3010,00
1105,74	3098,00
1111,58	3075,00
1117,41	3247,00
1123,23	3533,00
1129,05	3783,00
1134,86	3603,00
1140,67	3463,00
1146,47	3251,00
1152,26	3268,00
1158,05	3003,00
1163,83	3207,00
1169,60	3256,00
1175,37	3229,00
1181,13	3219,00
1186,89	3173,00
1192,64	3072,00
1198,38	3178,00
1204,12	3130,00
1209,85	3123,00
1215,58	3110,00
1221,30	3198,00
1227,02	3168,00
1232,72	3165,00
1238,43	3091,00
1244,12	3166,00
1249,81	3164,00
1255,50	3277,00
1261,17	3242,00
1266,85	3270,00
1272,51	3320,00
1278,17	3345,00
1283,83	3350,00
1289,47	3624,00
1295,12	4058,00
1300,75	3777,00
1306,38	3604,00
1312,01	3343,00
1317,63	3300,00
1323,24	3296,00
1328,85	3362,00
1334,45	3246,00
1340,04	3309,00
1345,63	3171,00
1351,22	3380,00
1356,80	3299,00
1362,37	3303,00
1367,93	3242,00
1373,49	3281,00
1379,05	3243,00
1384,60	3242,00
1390,14	3243,00
1395,68	3305,00
1401,21	3163,00
1406,74	3450,00
1412,26	3456,00
1417,77	3643,00
1423,28	3537,00
1428,78	3627,00
1434,28	3959,00
1439,77	4131,00
1445,26	4003,00
1450,74	4055,00
1456,22	3855,00
1461,68	3822,00
1467,15	3800,00
1472,61	3507,00
1478,06	3636,00
1483,51	3324,00
1488,95	3264,00
1494,38	3299,00
1499,81	3096,00
1505,24	3196,00
1510,65	3225,00
1516,07	3199,00
1521,48	3099,00
1526,88	3018,00
1532,27	3132,00
1537,67	3057,00
1543,05	3241,00
1548,43	2981,00
1553,81	3031,00
1559,18	2992,00
1564,54	3226,00
1569,90	3043,00
1575,25	2998,00
1580,60	2962,00
1585,94	3041,00
1591,28	3145,00
1596,61	3003,00
1601,93	3066,00
1607,25	3152,00
1612,57	3098,00
1617,88	3034,00
1623,18	2956,00
1628,48	3101,00
1633,77	2967,00
1639,06	2963,00
1644,34	2919,00
1649,62	2986,00
1654,89	3065,00
1660,16	2903,00
1665,42	3051,00
1670,67	2849,00
1675,92	3016,00
1681,17	2874,00
1686,41	2944,00
1691,64	3091,00
1696,87	2826,00
1702,10	2852,00
1707,32	2944,00
1712,53	2962,00
1717,74	2876,00
1722,94	2968,00
1728,14	2878,00
1733,33	2671,00
1738,52	2789,00
1743,70	2839,00
1748,88	2840,00
1754,05	2715,00
1759,22	2754,00
1764,38	2886,00
1769,53	2803,00
1774,69	2864,00
1779,83	2769,00
1784,97	2708,00
1790,11	2723,00
1795,24	2883,00
1800,36	2824,00
1805,48	2704,00
1810,60	2732,00
1815,71	2703,00
1820,82	2730,00
1825,92	2765,00
1831,01	2681,00
1836,10	2749,00
1841,19	2794,00
1846,26	2640,00
1851,34	2667,00
1856,41	2818,00
1861,47	2752,00
1866,53	2731,00
1871,59	2671,00
1876,64	2695,00
1881,68	2759,00
1886,72	2810,00
1891,76	2659,00
1896,79	2785,00
1901,81	2644,00
1906,83	2584,00
1911,85	2703,00
1916,86	2652,00
1921,86	2727,00
1926,86	2654,00
1931,86	2527,00
1936,85	2523,00
1941,83	2619,00
1946,81	2612,00
1951,79	2584,00
1956,76	2464,00
1961,72	2479,00
1966,68	2440,00
1971,64	2466,00
1976,59	2484,00
1981,54	2463,00
1986,48	2499,00
1991,42	2430,00
1996,35	2595,00
2001,27	2465,00
2006,20	2391,00
2011,11	2536,00
2016,03	2480,00
2020,93	2411,00
2025,84	2490,00
2030,73	2393,00
2035,63	2288,00
2040,52	2469,00
2045,40	2434,00
2050,28	2412,00
2055,15	2533,00
2060,02	2370,00
2064,89	2478,00
2069,75	2338,00
2074,60	2456,00
2079,46	2325,00
2084,30	2352,00
2089,14	2312,00
2093,98	2444,00
2098,81	2426,00
2103,64	2385,00
2108,46	2354,00
2113,28	2315,00
2118,09	2408,00
2122,90	2419,00
2127,70	2352,00
2132,50	2439,00
2137,30	2322,00
2142,09	2269,00
2146,87	2229,00
2151,66	2400,00
2156,43	2333,00
2161,20	2269,00
2165,97	2274,00
2170,73	2222,00
2175,49	2329,00
2180,24	2282,00
2184,99	2316,00
2189,74	2316,00
2194,48	2200,00
2199,21	2292,00
2203,94	2137,00
2208,67	2168,00
2213,39	2203,00
2218,11	2210,00
2222,82	2232,00
2227,53	2175,00
2232,23	2329,00
2236,93	2173,00
2241,63	2239,00
2246,32	2159,00
2251,00	2159,00
2255,68	2124,00
2260,36	2136,00
2265,03	2365,00
2269,70	2358,00
2274,36	2113,00
2279,02	2160,00
2283,68	2166,00
2288,33	2079,00
2292,97	2103,00
2297,61	2167,00
2302,25	2109,00
2306,88	2060,00
2311,51	2041,00
2316,14	2057,00
2320,75	2111,00
2325,37	2028,00
2329,98	2266,00
2334,59	1991,00
2339,19	2081,00
2343,79	2010,00
2348,38	1988,00
2352,97	2039,00
2357,55	2049,00
2362,13	2107,00
2366,71	1894,00
2371,28	2058,00
2375,85	2039,00
2380,41	2016,00
2384,97	1906,00
2389,52	1987,00
2394,07	1986,00
2398,62	2096,00
2403,16	1888,00
2407,70	1909,00
2412,23	1968,00
2416,76	2023,00
2421,29	1888,00
2425,81	1987,00
2430,32	1884,00
2434,84	1782,00
2439,34	1928,00
2443,85	1970,00
2448,35	1906,00
2452,84	1814,00
2457,33	1860,00
2461,82	1791,00
2466,30	1742,00
2470,78	1925,00
2475,25	1744,00
2479,72	1803,00
2484,19	1765,00
2488,65	1785,00
2493,11	1620,00
2497,56	1767,00
2502,01	1616,00
2506,46	1860,00
2510,90	1826,00
2515,34	1829,00
2519,77	1826,00
2524,20	1771,00
2528,62	1742,00
2533,04	1810,00
2537,46	1677,00
2541,87	1624,00
2546,28	1597,00
2550,68	1774,00
2555,08	1688,00
2559,48	1650,00
2563,87	1689,00
2568,26	1584,00
2572,64	1682,00
2577,02	1687,00
2581,40	1584,00
2585,77	1661,00
2590,14	1640,00
2594,50	1631,00
2598,86	1627,00
2603,22	1639,00
2607,57	1649,00
2611,92	1644,00
2616,26	1542,00
2620,60	1660,00
2624,94	1507,00
2629,27	1712,00
2633,60	1545,00
2637,92	1720,00
2642,24	1596,00
2646,56	1634,00
2650,87	1596,00
2655,18	1650,00
2659,48	1439,00
2663,78	1558,00
2668,08	1503,00
2672,37	1611,00
2676,66	1629,00
2680,95	1584,00
2685,23	1497,00
2689,50	1560,00
2693,78	1515,00
2698,05	1578,00
2702,31	1539,00
2706,57	1552,00
2710,83	1659,00
2715,08	1579,00
2719,33	1791,00
2723,58	1688,00
2727,82	1596,00
2732,06	1648,00
2736,29	1523,00
2740,53	1640,00
2744,75	1572,00
2748,97	1645,00
2753,19	1594,00
2757,41	1580,00
2761,62	1617,00
2765,83	1666,00
2770,03	1588,00
2774,23	1476,00
2778,43	1500,00
2782,62	1483,00
2786,81	1479,00
2791,00	1620,00
2795,18	1630,00
2799,35	1475,00
2803,53	1700,00
2807,70	1622,00
2811,86	1452,00
2816,03	1650,00
2820,19	1672,00
2824,34	1707,00
2828,49	1661,00
2832,64	1716,00
2836,78	2020,00
2840,92	2128,00
2845,06	2388,00
2849,19	2479,00
2853,32	2567,00
2857,45	2502,00
2861,57	2480,00
2865,69	2395,00
2869,80	2346,00
2873,91	2340,00
2878,02	2535,00
2882,12	2637,00
2886,22	2640,00
2890,32	2580,00
2894,41	2410,00
2898,50	2235,00
2902,58	2251,00
2906,67	2194,00
2910,74	2040,00
2914,82	1846,00
2918,89	1941,00
2922,96	1841,00
2927,02	1820,00
2931,08	1665,00
2935,13	1567,00
2939,19	1707,00
2943,24	1637,00
2947,28	1490,00
2951,32	1405,00
2955,36	1310,00
2959,40	1452,00
2963,43	1544,00
2967,46	1389,00
2971,48	1321,00
2975,50	1399,00
2979,52	1272,00
2983,53	1395,00
2987,54	1292,00
2991,55	1322,00
2995,55	1235,00
2999,55	1120,00
3003,54	1131,00
3007,54	1208,00
3011,53	1123,00
3015,51	1204,00
3019,49	1276,00
3023,47	1192,00
3027,45	1148,00
3031,42	1175,00
3035,39	1127,00
3039,35	1035,00
3043,31	1185,00
3047,27	1156,00
3051,22	1229,00
3055,17	1033,00
3059,12	1009,00
3063,06	1186,00
3067,00	1010,00
3070,94	989,00
3074,87	1138,00
3078,80	1076,00
3082,73	1068,00
3086,65	1054,00
3090,57	1043,00
3094,49	1023,00
3098,40	1026,00
3102,31	1046,00
3106,22	1161,00
3110,12	1053,00
3114,02	991,00
3117,92	1051,00
3121,81	869,00
3125,70	979,00
3129,58	1022,00
3133,47	960,00
3137,34	956,00
3141,22	1050,00
3145,09	1071,00
3148,96	926,00
3152,83	909,00
3156,69	1053,00
3160,55	914,00
3164,40	1005,00
3168,26	928,00
3172,10	1109,00
3175,95	1021,00
3179,79	1016,00
3183,63	869,00
3187,47	914,00
3191,30	899,00
3195,13	1035,00
3198,95	893,00
3202,78	980,00
3206,60	819,00
3210,41	818,00
3214,23	883,00
3218,03	947,00
3221,84	830,00
3225,64	887,00
3229,44	905,00
3233,24	945,00
3237,03	892,00
3240,82	846,00
3244,61	841,00
3248,39	864,00
3252,17	868,00
3255,95	898,00
3259,72	938,00
3263,49	1012,00
3267,26	810,00
3271,03	851,00
3274,79	907,00
3278,54	902,00
3282,30	805,00
3286,05	846,00
3289,80	835,00
3293,54	849,00
3297,29	887,00
3301,02	814,00
3304,76	869,00
3308,49	871,00
3312,22	820,00
3315,95	853,00
3319,67	831,00
3323,39	947,00
3327,10	923,00
3330,82	831,00
3334,53	771,00
3338,24	823,00
3341,94	787,00
3345,64	759,00
3349,34	787,00
3353,03	815,00
3356,72	838,00
3360,41	914,00
3364,10	783,00
3367,78	780,00
3371,46	830,00
3375,13	782,00
3378,81	785,00
3382,48	834,00
3386,14	845,00
3389,81	805,00
3393,47	706,00
3397,12	910,00
3400,78	870,00
3404,43	790,00
3408,08	871,00
3411,72	668,00
3415,36	699,00
3419,00	681,00
3422,64	845,00
3426,27	644,00
3429,90	798,00
3433,53	812,00
3437,15	733,00
3440,77	637,00
3444,39	685,00
3448,00	739,00
3451,62	751,00
3455,22	719,00
3458,83	709,00
3462,43	718,00
3466,03	855,00
3469,63	761,00
3473,22	812,00
3476,81	652,00
3480,40	778,00
3483,99	683,00
3487,57	875,00
3491,15	770,00
3494,72	767,00
3498,29	782,00
3501,86	719,00
3505,43	826,00
3508,99	679,00
3512,56	732,00
3516,11	766,00
3519,67	687,00
3523,22	777,00
3526,77	757,00
3530,32	664,00
3533,86	773,00
3537,40	855,00
3540,94	824,00
3544,47	694,00
3548,00	628,00
3551,53	820,00
3555,06	715,00
3558,58	895,00
3562,10	741,00
3565,62	734,00
3569,13	674,00
3572,64	738,00
3576,15	603,00
3579,66	682,00
3583,16	766,00
3586,66	612,00
3590,16	623,00
3593,65	655,00
3597,14	678,00
3600,63	687,00
3604,11	798,00
3607,60	764,00
3611,08	694,00
3614,55	659,00
3618,03	616,00
3621,50	685,00
3624,97	682,00
3628,43	830,00
3631,90	770,00
3635,36	609,00
3638,81	630,00
3642,27	776,00
3645,72	677,00
3649,17	691,00
3652,61	582,00
3656,06	601,00
3659,50	645,00
3662,93	581,00
3666,37	653,00
3669,80	840,00
3673,23	685,00
3676,65	728,00
3680,08	708,00
3683,50	648,00
3686,92	655,00
3690,33	631,00
3693,74	579,00
3697,15	526,00
3700,56	610,00
3703,96	655,00
3707,36	637,00
3710,76	588,00
3714,16	633,00
3717,55	594,00
3720,94	670,00
3724,33	555,00
3727,71	702,00
3731,10	509,00
3734,48	592,00
3737,85	550,00
3741,23	591,00
3744,60	620,00
3747,97	596,00
3751,33	553,00
3754,69	560,00
3758,05	588,00
3761,41	524,00
3764,77	580,00
3768,12	451,00
3771,47	548,00
3774,82	598,00
3778,16	-9,00
3781,50	16,00
3784,84	2,00
3788,18	8,00
>>>>>End Processed Spectral Data<<<<<
