SpectraSuite Data File
++++++++++++++++++++++++++++++++++++
Date: Mon Mar 09 15:08:23 ICT 2026
User: Administrator
Dark Spectrum Present: Yes
Reference Spectrum Present: No
Number of Sampled Component Spectra: 1
Spectrometers: MAYP113682
Integration Time (usec): 3000000 (MAYP113682)
Spectra Averaged: 1 (MAYP113682)
Boxcar Smoothing: 0 (MAYP113682)
Correct for Electrical Dark: No (MAYP113682)
Strobe/Lamp Enabled: No (MAYP113682)
Correct for Detector Non-linearity: No (MAYP113682)
Correct for Stray Light: No (MAYP113682)
Number of Pixels in Processed Spectrum: 2068
>>>>>Begin Processed Spectral Data<<<<<
-37534,58	-3,00
-37414,56	-4,00
-37295,11	-1,00
-37176,24	4,00
-37057,95	39,00
-36940,22	70,00
-36823,05	46,00
-36706,45	108,00
-36590,40	85,00
-36474,90	32,00
-36359,95	62,00
-36245,55	87,00
-36131,68	-21,00
-36018,35	88,00
-35905,55	17,00
-35793,29	88,00
-35681,54	-9,00
-35570,32	59,00
-35459,62	78,00
-35349,43	66,00
-35239,75	141,00
-35130,58	7,00
-35021,91	32,00
-34913,74	-5,00
-34806,07	60,00
-34698,89	33,00
-34592,20	55,00
-34486,00	46,00
-34380,28	94,00
-34275,04	43,00
-34170,27	49,00
-34065,98	43,00
-33962,16	60,00
-33858,81	97,00
-33755,92	79,00
-33653,49	80,00
-33551,52	141,00
-33450,01	5,00
-33348,94	96,00
-33248,33	118,00
-33148,16	35,00
-33048,43	51,00
-32949,14	-9,00
-32850,29	73,00
-32751,87	-35,00
-32653,89	48,00
-32556,33	82,00
-32459,20	77,00
-32362,49	99,00
-32266,19	46,00
-32170,32	121,00
-32074,86	151,00
-31979,82	87,00
-31885,18	79,00
-31790,95	-82,00
-31697,12	49,00
-31603,69	65,00
-31510,67	70,00
-31418,04	27,00
-31325,80	207,00
-31233,95	-26,00
-31142,49	19,00
-31051,42	47,00
-30960,73	11,00
-30870,43	132,00
-30780,50	30,00
-30690,95	64,00
-30601,77	129,00
-30512,97	95,00
-30424,53	96,00
-30336,46	21,00
-30248,76	193,00
-30161,42	105,00
-30074,44	-47,00
-29987,81	54,00
-29901,55	13,00
-29815,63	56,00
-29730,07	151,00
-29644,86	66,00
-29560,00	57,00
-29475,48	100,00
-29391,30	61,00
-29307,47	62,00
-29223,97	-23,00
-29140,81	21,00
-29057,99	45,00
-28975,50	135,00
-28893,34	-10,00
-28811,51	49,00
-28730,00	123,00
-28648,82	-8,00
-28567,97	122,00
-28487,43	99,00
-28407,21	115,00
-28327,32	-31,00
-28247,73	107,00
-28168,46	3,00
-28089,50	73,00
-28010,85	-38,00
-27932,51	68,00
-27854,48	-66,00
-27776,75	117,00
-27699,32	28,00
-27622,19	49,00
-27545,37	95,00
-27468,84	24,00
-27392,60	76,00
-27316,66	82,00
-27241,01	35,00
-27165,66	-31,00
-27090,59	-48,00
-27015,81	78,00
-26941,31	44,00
-26867,10	4,00
-26793,17	-56,00
-26719,52	-67,00
-26646,15	153,00
-26573,06	108,00
-26500,24	28,00
-26427,70	180,00
-26355,43	89,00
-26283,43	45,00
-26211,71	132,00
-26140,25	65,00
-26069,06	84,00
-25998,13	93,00
-25927,46	81,00
-25857,06	-120,00
-25786,92	29,00
-25717,04	7,00
-25647,42	15,00
-25578,05	-7,00
-25508,94	3,00
-25440,09	129,00
-25371,48	66,00
-25303,13	56,00
-25235,02	-25,00
-25167,17	120,00
-25099,56	67,00
-25032,19	121,00
-24965,07	100,00
-24898,20	44,00
-24831,56	13,00
-24765,17	67,00
-24699,01	-93,00
-24633,10	170,00
-24567,41	72,00
-24501,97	86,00
-24436,75	-4,00
-24371,77	19,00
-24307,03	81,00
-24242,51	34,00
-24178,22	85,00
-24114,16	-36,00
-24050,32	46,00
-23986,71	-33,00
-23923,32	63,00
-23860,16	133,00
-23797,22	-1,00
-23734,50	89,00
-23672,00	62,00
-23609,71	47,00
-23547,65	15,00
-23485,80	56,00
-23424,16	149,00
-23362,74	18,00
-23301,53	-52,00
-23240,54	46,00
-23179,75	3,00
-23119,17	152,00
-23058,80	-37,00
-22998,64	127,00
-22938,68	29,00
-22878,93	-16,00
-22819,39	66,00
-22760,04	118,00
-22700,90	183,00
-22641,96	1,00
-22583,22	71,00
-22524,68	144,00
-22466,33	14,00
-22408,19	-1,00
-22350,23	163,00
-22292,48	110,00
-22234,92	77,00
-22177,55	75,00
-22120,37	66,00
-22063,38	44,00
-22006,58	60,00
-21949,98	87,00
-21893,56	6,00
-21837,33	96,00
-21781,28	31,00
-21725,42	-5,00
-21669,74	96,00
-21614,25	33,00
-21558,94	221,00
-21503,81	188,00
-21448,86	-50,00
-21394,10	209,00
-21339,51	-9,00
-21285,10	6,00
-21230,86	20,00
-21176,81	101,00
-21122,93	99,00
-21069,22	88,00
-21015,69	11,00
-20962,33	6,00
-20909,14	156,00
-20856,13	14,00
-20803,28	83,00
-20750,61	93,00
-20698,10	59,00
-20645,76	150,00
-20593,59	241,00
-20541,59	29,00
-20489,75	66,00
-20438,07	68,00
-20386,56	82,00
-20335,22	28,00
-20284,03	-13,00
-20233,01	97,00
-20182,15	-29,00
-20131,45	113,00
-20080,91	0,00
-20030,52	-17,00
-19980,30	90,00
-19930,23	-6,00
-19880,32	76,00
-19830,56	7,00
-19780,96	111,00
-19731,52	139,00
-19682,23	-22,00
-19633,09	-32,00
-19584,10	127,00
-19535,26	97,00
-19486,58	-11,00
-19438,04	109,00
-19389,66	96,00
-19341,42	60,00
-19293,33	60,00
-19245,39	103,00
-19197,60	122,00
-19149,95	51,00
-19102,45	102,00
-19055,09	-5,00
-19007,87	89,00
-18960,80	-58,00
-18913,87	66,00
-18867,09	109,00
-18820,44	4,00
-18773,94	50,00
-18727,57	44,00
-18681,35	153,00
-18635,26	134,00
-18589,31	124,00
-18543,50	76,00
-18497,83	131,00
-18452,29	130,00
-18406,89	44,00
-18361,63	164,00
-18316,50	65,00
-18271,50	27,00
-18226,63	-32,00
-18181,90	-17,00
-18137,30	-72,00
-18092,84	-8,00
-18048,50	104,00
-18004,29	-16,00
-17960,22	5,00
-17916,27	122,00
-17872,45	45,00
-17828,76	-12,00
-17785,20	15,00
-17741,77	83,00
-17698,46	66,00
-17655,28	110,00
-17612,22	93,00
-17569,29	66,00
-17526,48	49,00
-17483,79	12,00
-17441,23	150,00
-17398,79	61,00
-17356,48	85,00
-17314,28	204,00
-17272,21	43,00
-17230,26	-22,00
-17188,42	29,00
-17146,71	194,00
-17105,12	118,00
-17063,64	36,00
-17022,28	120,00
-16981,04	9,00
-16939,92	133,00
-16898,91	-3,00
-16858,02	-8,00
-16817,25	-3,00
-16776,59	135,00
-16736,04	100,00
-16695,61	164,00
-16655,29	52,00
-16615,09	96,00
-16574,99	-8,00
-16535,01	99,00
-16495,15	20,00
-16455,39	56,00
-16415,74	9,00
-16376,21	98,00
-16336,78	56,00
-16297,46	27,00
-16258,26	8,00
-16219,16	-52,00
-16180,17	97,00
-16141,28	17,00
-16102,51	-59,00
-16063,84	98,00
-16025,27	79,00
-15986,82	51,00
-15948,46	87,00
-15910,22	62,00
-15872,07	50,00
-15834,04	78,00
-15796,10	65,00
-15758,27	132,00
-15720,54	-87,00
-15682,91	16,00
-15645,39	43,00
-15607,97	25,00
-15570,64	129,00
-15533,42	110,00
-15496,30	35,00
-15459,28	60,00
-15422,36	103,00
-15385,54	110,00
-15348,82	-58,00
-15312,19	29,00
-15275,66	133,00
-15239,23	64,00
-15202,90	196,00
-15166,67	132,00
-15130,53	15,00
-15094,48	9,00
-15058,54	0,00
-15022,68	-5,00
-14986,93	101,00
-14951,26	17,00
-14915,69	63,00
-14880,22	41,00
-14844,84	127,00
-14809,55	-54,00
-14774,35	33,00
-14739,25	181,00
-14704,24	0,00
-14669,32	50,00
-14634,49	-93,00
-14599,75	68,00
-14565,10	117,00
-14530,55	75,00
-14496,08	64,00
-14461,70	43,00
-14427,41	108,00
-14393,21	179,00
-14359,10	51,00
-14325,07	97,00
-14291,14	57,00
-14257,29	-11,00
-14223,52	104,00
-14189,85	130,00
-14156,26	170,00
-14122,76	103,00
-14089,34	30,00
-14056,01	88,00
-14022,76	14,00
-13989,60	28,00
-13956,52	37,00
-13923,53	50,00
-13890,62	98,00
-13857,79	-13,00
-13825,05	21,00
-13792,39	22,00
-13759,81	206,00
-13727,31	62,00
-13694,90	121,00
-13662,57	-12,00
-13630,31	82,00
-13598,14	62,00
-13566,05	149,00
-13534,05	70,00
-13502,12	41,00
-13470,27	28,00
-13438,50	72,00
-13406,80	103,00
-13375,19	100,00
-13343,66	61,00
-13312,20	22,00
-13280,83	86,00
-13249,53	35,00
-13218,30	119,00
-13187,16	46,00
-13156,09	130,00
-13125,10	84,00
-13094,18	108,00
-13063,34	47,00
-13032,58	182,00
-13001,89	37,00
-12971,28	-46,00
-12940,74	38,00
-12910,27	29,00
-12879,88	88,00
-12849,57	-69,00
-12819,33	73,00
-12789,16	51,00
-12759,06	9,00
-12729,04	40,00
-12699,09	56,00
-12669,21	69,00
-12639,41	35,00
-12609,68	22,00
-12580,02	48,00
-12550,43	14,00
-12520,91	53,00
-12491,46	60,00
-12462,08	50,00
-12432,77	116,00
-12403,54	-124,00
-12374,37	39,00
-12345,27	96,00
-12316,24	28,00
-12287,29	11,00
-12258,40	71,00
-12229,57	-7,00
-12200,82	44,00
-12172,14	-26,00
-12143,52	35,00
-12114,97	79,00
-12086,49	69,00
-12058,07	-44,00
-12029,73	0,00
-12001,44	-10,00
-11973,23	102,00
-11945,08	-37,00
-11917,00	58,00
-11888,98	95,00
-11861,03	61,00
-11833,15	-35,00
-11805,32	71,00
-11777,57	48,00
-11749,88	25,00
-11722,25	67,00
-11694,69	134,00
-11667,19	87,00
-11639,75	99,00
-11612,38	-60,00
-11585,07	76,00
-11557,83	90,00
-11530,65	-42,00
-11503,53	19,00
-11476,47	-8,00
-11449,48	56,00
-11422,54	-49,00
-11395,67	191,00
-11368,86	36,00
-11342,11	77,00
-11315,43	128,00
-11288,80	-20,00
-11262,23	142,00
-11235,73	100,00
-11209,28	-55,00
-11182,90	50,00
-11156,57	2,00
-11130,31	102,00
-11104,10	93,00
-11077,96	178,00
-11051,87	82,00
-11025,84	-24,00
-10999,87	150,00
-10973,96	173,00
-10948,11	-20,00
-10922,31	7,00
-10896,58	74,00
-10870,90	23,00
-10845,28	68,00
-10819,71	100,00
-10794,20	148,00
-10768,75	40,00
-10743,36	122,00
-10718,02	52,00
-10692,74	52,00
-10667,52	93,00
-10642,35	-12,00
-10617,24	91,00
-10592,18	91,00
-10567,18	66,00
-10542,23	86,00
-10517,34	92,00
-10492,51	108,00
-10467,72	-13,00
-10443,00	130,00
-10418,32	64,00
-10393,70	78,00
-10369,14	152,00
-10344,63	36,00
-10320,17	147,00
-10295,77	93,00
-10271,42	52,00
-10247,12	144,00
-10222,88	-17,00
-10198,68	97,00
-10174,54	128,00
-10150,46	198,00
-10126,42	136,00
-10102,44	253,00
-10078,51	89,00
-10054,63	131,00
-10030,80	73,00
-10007,03	230,00
-9983,30	143,00
-9959,63	209,00
-9936,01	146,00
-9912,44	188,00
-9888,92	145,00
-9865,44	207,00
-9842,02	248,00
-9818,65	172,00
-9795,33	135,00
-9772,06	171,00
-9748,84	337,00
-9725,67	155,00
-9702,55	321,00
-9679,47	266,00
-9656,45	297,00
-9633,47	248,00
-9610,55	399,00
-9587,67	367,00
-9564,84	395,00
-9542,06	251,00
-9519,32	425,00
-9496,64	538,00
-9474,00	554,00
-9451,41	483,00
-9428,87	490,00
-9406,37	534,00
-9383,92	245,00
-9361,52	236,00
-9339,17	324,00
-9316,86	499,00
-9294,60	527,00
-9272,38	723,00
-9250,21	883,00
-9228,09	887,00
-9206,01	771,00
-9183,98	656,00
-9162,00	466,00
-9140,06	490,00
-9118,16	326,00
-9096,31	612,00
-9074,51	639,00
-9052,75	732,00
-9031,04	654,00
-9009,37	577,00
-8987,74	501,00
-8966,16	416,00
-8944,63	289,00
-8923,14	223,00
-8901,69	386,00
-8880,29	433,00
-8858,93	527,00
-8837,61	591,00
-8816,34	754,00
-8795,11	665,00
-8773,92	647,00
-8752,78	556,00
-8731,68	384,00
-8710,62	502,00
-8689,61	443,00
-8668,63	655,00
-8647,70	644,00
-8626,82	747,00
-8605,97	730,00
-8585,17	601,00
-8564,41	521,00
-8543,69	468,00
-8523,01	362,00
-8502,37	412,00
-8481,78	421,00
-8461,23	676,00
-8440,71	609,00
-8420,24	645,00
-8399,81	739,00
-8379,42	589,00
-8359,08	570,00
-8338,77	623,00
-8318,50	614,00
-8298,27	485,00
-8278,09	502,00
-8257,94	565,00
-8237,83	677,00
-8217,76	637,00
-8197,74	638,00
-8177,75	714,00
-8157,80	569,00
-8137,89	497,00
-8118,02	495,00
-8098,19	568,00
-8078,40	567,00
-8058,65	578,00
-8038,93	556,00
-8019,26	719,00
-7999,62	585,00
-7980,02	570,00
-7960,46	392,00
-7940,94	441,00
-7921,46	458,00
-7902,01	412,00
-7882,60	393,00
-7863,23	465,00
-7843,90	500,00
-7824,61	434,00
-7805,35	576,00
-7786,13	498,00
-7766,95	644,00
-7747,80	564,00
-7728,69	491,00
-7709,62	451,00
-7690,59	565,00
-7671,59	606,00
-7652,63	621,00
-7633,70	662,00
-7614,81	487,00
-7595,96	607,00
-7577,15	387,00
-7558,37	498,00
-7539,62	428,00
-7520,91	522,00
-7502,24	598,00
-7483,60	651,00
-7465,00	517,00
-7446,44	473,00
-7427,91	324,00
-7409,41	313,00
-7390,95	194,00
-7372,53	261,00
-7354,14	310,00
-7335,78	365,00
-7317,46	360,00
-7299,18	321,00
-7280,92	417,00
-7262,71	546,00
-7244,52	553,00
-7226,38	474,00
-7208,26	497,00
-7190,18	512,00
-7172,14	299,00
-7154,12	473,00
-7136,15	435,00
-7118,20	408,00
-7100,29	539,00
-7082,41	448,00
-7064,57	564,00
-7046,76	502,00
-7028,98	306,00
-7011,24	348,00
-6993,53	209,00
-6975,85	187,00
-6958,20	109,00
-6940,59	185,00
-6923,01	190,00
-6905,46	199,00
-6887,94	268,00
-6870,46	2924,00
-6853,01	286,00
-6835,59	415,00
-6818,21	496,00
-6800,85	279,00
-6783,53	94,00
-6766,24	229,00
-6748,98	167,00
-6731,76	40,00
-6714,56	7,00
-6697,40	66,00
-6680,26	16,00
-6663,16	154,00
-6646,09	229,00
-6629,05	274,00
-6612,05	290,00
-6595,07	175,00
-6578,13	170,00
-6561,21	39,00
-6544,33	79,00
-6527,47	67,00
-6510,65	143,00
-6493,86	-5,00
-6477,10	-76,00
-6460,36	51,00
-6443,66	26,00
-6426,99	12,00
-6410,35	34,00
-6393,74	30,00
-6377,16	95,00
-6360,61	108,00
-6344,09	73,00
-6327,59	176,00
-6311,13	169,00
-6294,70	340,00
-6278,29	163,00
-6261,92	299,00
-6245,58	338,00
-6229,26	232,00
-6212,97	227,00
-6196,72	123,00
-6180,49	37,00
-6164,29	-19,00
-6148,12	-54,00
-6131,98	39,00
-6115,86	-21,00
-6099,78	-127,00
-6083,72	-78,00
-6067,69	-129,00
-6051,69	-54,00
-6035,72	-38,00
-6019,78	50,00
-6003,87	51,00
-5987,98	165,00
-5972,12	138,00
-5956,29	224,00
-5940,49	186,00
-5924,71	158,00
-5908,96	67,00
-5893,24	59,00
-5877,55	40,00
-5861,89	-58,00
-5846,25	58,00
-5830,64	45,00
-5815,05	-16,00
-5799,50	0,00
-5783,97	164,00
-5768,47	283,00
-5752,99	38,00
-5737,55	222,00
-5722,12	211,00
-5706,73	132,00
-5691,36	165,00
-5676,02	101,00
-5660,71	-46,00
-5645,42	84,00
-5630,16	133,00
-5614,92	116,00
-5599,71	69,00
-5584,53	183,00
-5569,37	41,00
-5554,24	-768,00
-5539,14	79,00
-5524,06	6,00
-5509,01	26,00
-5493,98	113,00
-5478,98	-24,00
-5464,00	60,00
-5449,05	34,00
-5434,13	49,00
-5419,23	72,00
-5404,36	64,00
-5389,51	180,00
-5374,69	101,00
-5359,89	262,00
-5345,12	117,00
-5330,37	170,00
-5315,65	176,00
-5300,95	175,00
-5286,28	119,00
-5271,63	140,00
-5257,01	3,00
-5242,41	82,00
-5227,84	89,00
-5213,29	71,00
-5198,76	-24,00
-5184,26	63,00
-5169,79	11,00
-5155,33	-97,00
-5140,91	15,00
-5126,51	222,00
-5112,13	119,00
-5097,77	149,00
-5083,44	-8,00
-5069,13	82,00
-5054,85	16,00
-5040,59	129,00
-5026,36	3,00
-5012,15	-4,00
-4997,96	9,00
-4983,80	64,00
-4969,66	57,00
-4955,54	100,00
-4941,44	29,00
-4927,37	163,00
-4913,33	156,00
-4899,30	284,00
-4885,30	328,00
-4871,33	138,00
-4857,37	180,00
-4843,44	75,00
-4829,53	33,00
-4815,65	86,00
-4801,79	-4,00
-4787,95	82,00
-4774,13	39,00
-4760,34	212,00
-4746,56	51,00
-4732,82	79,00
-4719,09	148,00
-4705,38	84,00
-4691,70	203,00
-4678,04	157,00
-4664,41	73,00
-4650,79	259,00
-4637,20	120,00
-4623,63	46,00
-4610,08	136,00
-4596,56	193,00
-4583,05	170,00
-4569,57	113,00
-4556,11	95,00
-4542,67	88,00
-4529,25	56,00
-4515,86	100,00
-4502,49	193,00
-4489,13	226,00
-4475,80	130,00
-4462,49	223,00
-4449,21	195,00
-4435,94	143,00
-4422,70	149,00
-4409,47	157,00
-4396,27	159,00
-4383,09	72,00
-4369,93	96,00
-4356,79	51,00
-4343,67	12,00
-4330,58	148,00
-4317,50	151,00
-4304,45	172,00
-4291,41	182,00
-4278,40	131,00
-4265,41	190,00
-4252,44	188,00
-4239,49	155,00
-4226,55	82,00
-4213,65	74,00
-4200,76	16,00
-4187,89	100,00
-4175,04	-6,00
-4162,21	10,00
-4149,40	123,00
-4136,61	68,00
-4123,85	145,00
-4111,10	130,00
-4098,37	198,00
-4085,66	62,00
-4072,98	59,00
-4060,31	-83,00
-4047,66	90,00
-4035,04	99,00
-4022,43	102,00
-4009,84	100,00
-3997,27	14,00
-3984,72	38,00
-3972,19	196,00
-3959,69	-76,00
-3947,20	81,00
-3934,73	60,00
-3922,27	62,00
-3909,84	27,00
-3897,43	112,00
-3885,04	77,00
-3872,67	112,00
-3860,31	56,00
-3847,98	-45,00
-3835,66	101,00
-3823,36	-36,00
-3811,09	92,00
-3798,83	31,00
-3786,59	15,00
-3774,37	-30,00
-3762,17	105,00
-3749,98	34,00
-3737,82	130,00
-3725,67	99,00
-3713,55	92,00
-3701,44	-46,00
-3689,35	88,00
-3677,28	44,00
-3665,22	55,00
-3653,19	86,00
-3641,17	28,00
-3629,18	109,00
-3617,20	112,00
-3605,24	52,00
-3593,30	-86,00
-3581,37	79,00
-3569,47	35,00
-3557,58	157,00
-3545,71	46,00
-3533,86	76,00
-3522,02	59,00
-3510,21	102,00
-3498,41	55,00
-3486,63	69,00
-3474,87	94,00
-3463,12	-13,00
-3451,40	96,00
-3439,69	-17,00
-3428,00	122,00
-3416,33	72,00
-3404,67	55,00
-3393,03	172,00
-3381,41	-60,00
-3369,81	67,00
-3358,22	98,00
-3346,66	47,00
-3335,10	56,00
-3323,57	122,00
-3312,06	-64,00
-3300,56	47,00
-3289,08	132,00
-3277,61	135,00
-3266,16	98,00
-3254,73	113,00
-3243,32	51,00
-3231,92	91,00
-3220,55	18,00
-3209,18	14,00
-3197,84	77,00
-3186,51	6,00
-3175,20	156,00
-3163,90	22,00
-3152,63	11,00
-3141,36	18,00
-3130,12	44,00
-3118,89	171,00
-3107,68	61,00
-3096,49	125,00
-3085,31	98,00
-3074,15	18,00
-3063,00	10,00
-3051,87	-28,00
-3040,76	-65,00
-3029,67	146,00
-3018,59	43,00
-3007,52	-31,00
-2996,48	-1,00
-2985,44	156,00
-2974,43	53,00
-2963,43	92,00
-2952,45	116,00
-2941,48	18,00
-2930,53	2,00
-2919,60	135,00
-2908,68	89,00
-2897,78	51,00
-2886,89	54,00
-2876,02	-15,00
-2865,17	32,00
-2854,33	167,00
-2843,50	39,00
-2832,70	147,00
-2821,90	40,00
-2811,13	-8,00
-2800,37	137,00
-2789,62	104,00
-2778,89	20,00
-2768,18	101,00
-2757,48	103,00
-2746,80	94,00
-2736,13	86,00
-2725,48	45,00
-2714,84	105,00
-2704,22	27,00
-2693,61	113,00
-2683,02	75,00
-2672,45	67,00
-2661,89	58,00
-2651,34	-3,00
-2640,81	30,00
-2630,30	130,00
-2619,80	85,00
-2609,31	63,00
-2598,84	147,00
-2588,39	9,00
-2577,95	75,00
-2567,52	72,00
-2557,11	72,00
-2546,71	83,00
-2536,33	128,00
-2525,97	32,00
-2515,62	78,00
-2505,28	85,00
-2494,96	12,00
-2484,65	110,00
-2474,36	-10,00
-2464,08	91,00
-2453,82	-11,00
-2443,57	115,00
-2433,33	-15,00
-2423,11	8,00
-2412,91	71,00
-2402,72	137,00
-2392,54	28,00
-2382,38	0,00
-2372,23	106,00
-2362,09	405,00
-2351,97	74,00
-2341,87	118,00
-2331,78	31,00
-2321,70	-2,00
-2311,64	117,00
-2301,59	104,00
-2291,55	90,00
-2281,53	75,00
-2271,53	48,00
-2261,53	85,00
-2251,55	155,00
-2241,59	57,00
-2231,64	71,00
-2221,70	147,00
-2211,78	-50,00
-2201,87	64,00
-2191,97	90,00
-2182,09	1,00
-2172,22	6,00
-2162,37	156,00
-2152,53	181,00
-2142,70	58,00
-2132,89	143,00
-2123,09	109,00
-2113,30	21,00
-2103,53	54,00
-2093,77	153,00
-2084,02	99,00
-2074,29	116,00
-2064,57	83,00
-2054,86	74,00
-2045,17	116,00
-2035,49	47,00
-2025,82	-47,00
-2016,17	102,00
-2006,53	41,00
-1996,91	66,00
-1987,29	158,00
-1977,69	90,00
-1968,11	206,00
-1958,53	137,00
-1948,97	39,00
-1939,42	136,00
-1929,89	141,00
-1920,37	129,00
-1910,86	19,00
-1901,36	-12,00
-1891,88	82,00
-1882,41	78,00
-1872,95	6,00
-1863,51	3,00
-1854,08	140,00
-1844,66	84,00
-1835,26	177,00
-1825,86	101,00
-1816,48	127,00
-1807,11	80,00
-1797,76	85,00
-1788,42	87,00
-1779,09	43,00
-1769,77	49,00
-1760,47	78,00
-1751,17	17,00
-1741,89	87,00
-1732,63	57,00
-1723,37	102,00
-1714,13	175,00
-1704,90	-83,00
-1695,68	57,00
-1686,48	78,00
-1677,29	154,00
-1668,11	12,00
-1658,94	68,00
-1649,78	79,00
-1640,64	74,00
-1631,51	119,00
-1622,39	77,00
-1613,28	53,00
-1604,19	42,00
-1595,10	14,00
-1586,03	-47,00
-1576,97	71,00
-1567,93	159,00
-1558,89	46,00
-1549,87	14,00
-1540,86	21,00
-1531,86	-52,00
-1522,87	82,00
-1513,90	133,00
-1504,93	-59,00
-1495,98	40,00
-1487,04	35,00
-1478,12	-6,00
-1469,20	89,00
-1460,30	47,00
-1451,40	129,00
-1442,52	78,00
-1433,65	108,00
-1424,80	47,00
-1415,95	126,00
-1407,12	73,00
-1398,30	16,00
-1389,48	113,00
-1380,69	-31,00
-1371,90	6,00
-1363,12	32,00
-1354,36	74,00
-1345,60	-8,00
-1336,86	-58,00
-1328,13	12,00
-1319,41	100,00
-1310,70	90,00
-1302,01	-15,00
-1293,32	47,00
-1284,65	63,00
-1275,99	-10,00
-1267,33	71,00
-1258,69	131,00
-1250,06	103,00
-1241,45	77,00
-1232,84	-24,00
-1224,25	18,00
-1215,66	42,00
-1207,09	-24,00
-1198,53	52,00
-1189,97	45,00
-1181,43	53,00
-1172,91	22,00
-1164,39	66,00
-1155,88	-4,00
-1147,38	87,00
-1138,90	66,00
-1130,43	124,00
-1121,96	134,00
-1113,51	72,00
-1105,07	59,00
-1096,64	144,00
-1088,22	45,00
-1079,81	109,00
-1071,41	-10,00
-1063,02	72,00
-1054,65	50,00
-1046,28	49,00
-1037,92	43,00
-1029,58	96,00
-1021,24	132,00
-1012,92	69,00
-1004,61	73,00
-996,30	77,00
-988,01	55,00
-979,73	-19,00
-971,46	57,00
-963,20	63,00
-954,95	96,00
-946,71	-47,00
-938,48	-19,00
-930,26	140,00
-922,06	164,00
-913,86	107,00
-905,67	59,00
-897,49	82,00
-889,33	77,00
-881,17	152,00
-873,02	168,00
-864,89	122,00
-856,76	75,00
-848,65	32,00
-840,54	94,00
-832,45	-15,00
-824,36	-21,00
-816,29	-10,00
-808,22	78,00
-800,17	57,00
-792,12	-44,00
-784,09	-10,00
-776,06	-17,00
-768,05	113,00
-760,04	36,00
-752,05	105,00
-744,07	136,00
-736,09	81,00
-728,13	103,00
-720,17	39,00
-712,23	72,00
-704,29	171,00
-696,37	-5,00
-688,45	-9,00
-680,55	92,00
-672,65	-36,00
-664,77	55,00
-656,89	55,00
-649,03	58,00
-641,17	36,00
-633,32	8,00
-625,49	69,00
-617,66	50,00
-609,84	-6,00
-602,03	33,00
-594,23	74,00
-586,45	86,00
-578,67	29,00
-570,90	59,00
-563,14	65,00
-555,39	29,00
-547,65	-29,00
-539,91	113,00
-532,19	-74,00
-524,48	24,00
-516,78	74,00
-509,08	174,00
-501,40	117,00
-493,72	104,00
-486,06	49,00
-478,40	96,00
-470,76	125,00
-463,12	100,00
-455,49	-78,00
-447,87	114,00
-440,26	119,00
-432,66	162,00
-425,07	76,00
-417,49	180,00
-409,92	86,00
-402,35	59,00
-394,80	50,00
-387,25	-27,00
-379,72	150,00
-372,19	31,00
-364,67	107,00
-357,17	105,00
-349,67	161,00
-342,18	33,00
-334,69	115,00
-327,22	19,00
-319,76	86,00
-312,30	52,00
-304,86	120,00
-297,42	62,00
-290,00	67,00
-282,58	243,00
-275,17	173,00
-267,77	75,00
-260,37	118,00
-252,99	147,00
-245,62	69,00
-238,25	180,00
-230,90	198,00
-223,55	39,00
-216,21	158,00
-208,88	9,00
-201,56	198,00
-194,25	99,00
-186,94	89,00
-179,65	255,00
-172,36	201,00
-165,08	144,00
-157,81	171,00
-150,55	278,00
-143,30	272,00
-136,06	277,00
-128,82	427,00
-121,60	339,00
-114,38	378,00
-107,17	370,00
-99,97	419,00
-92,78	380,00
-85,60	636,00
-78,42	732,00
-71,25	807,00
-64,10	799,00
-56,95	1035,00
-49,81	1173,00
-42,67	1403,00
-35,55	1836,00
-28,43	2395,00
-21,33	4018,00
-14,23	13346,00
-7,14	56139,00
-0,05	55888,00
7,02	55558,00
14,09	42686,00
21,14	11185,00
28,19	4804,00
35,23	3018,00
42,27	2253,00
49,29	1891,00
56,31	1581,00
63,32	1229,00
70,32	1137,00
77,31	1038,00
84,29	830,00
91,27	744,00
98,23	704,00
105,19	620,00
112,14	853,00
119,09	1299,00
126,02	2062,00
132,95	2677,00
139,87	2837,00
146,78	2864,00
153,68	2877,00
160,58	2825,00
167,46	2777,00
174,34	2765,00
181,21	2812,00
188,08	2778,00
194,93	2872,00
201,78	2851,00
208,62	2770,00
215,45	2838,00
222,27	2816,00
229,09	2837,00
235,90	2842,00
242,70	2860,00
249,49	2719,00
256,27	2761,00
263,05	2834,00
269,82	2726,00
276,58	2871,00
283,33	2884,00
290,08	2687,00
296,82	2767,00
303,55	2673,00
310,27	2681,00
316,98	2817,00
323,69	2673,00
330,39	2759,00
337,08	2667,00
343,76	2816,00
350,44	2673,00
357,11	2717,00
363,77	2779,00
370,42	2749,00
377,07	2675,00
383,71	2787,00
390,34	2726,00
396,96	2764,00
403,58	2718,00
410,19	2874,00
416,79	2925,00
423,38	2856,00
429,97	2806,00
436,55	2896,00
443,12	2680,00
449,68	2739,00
456,24	2856,00
462,79	2799,00
469,33	2844,00
475,86	2856,00
482,39	2759,00
488,91	2884,00
495,42	2753,00
501,93	2776,00
508,42	2810,00
514,91	2872,00
521,40	2738,00
527,87	2657,00
534,34	2809,00
540,80	2785,00
547,25	2851,00
553,70	2831,00
560,14	2828,00
566,57	2673,00
573,00	2824,00
579,41	2817,00
585,83	2827,00
592,23	2722,00
598,62	2822,00
605,01	2791,00
611,40	2861,00
617,77	2705,00
624,14	2782,00
630,50	2743,00
636,85	2713,00
643,20	2885,00
649,54	2742,00
655,87	2857,00
662,20	2869,00
668,52	2649,00
674,83	2890,00
681,13	2677,00
687,43	2692,00
693,72	2873,00
700,00	2935,00
706,28	2770,00
712,55	2879,00
718,81	2828,00
725,07	2830,00
731,32	2772,00
737,56	2893,00
743,79	2806,00
750,02	2949,00
756,24	2916,00
762,46	2889,00
768,67	2876,00
774,87	3014,00
781,06	2950,00
787,25	2948,00
793,43	2838,00
799,60	2931,00
805,77	2735,00
811,93	2848,00
818,08	3004,00
824,23	2800,00
830,37	2973,00
836,50	2980,00
842,63	2948,00
848,75	3015,00
854,87	2958,00
860,97	2968,00
867,07	2992,00
873,17	2941,00
879,25	2996,00
885,33	2884,00
891,41	2885,00
897,47	2891,00
903,53	2894,00
909,59	3025,00
915,63	2988,00
921,67	2996,00
927,71	2945,00
933,74	3035,00
939,76	2982,00
945,77	2840,00
951,78	2858,00
957,78	2916,00
963,78	2898,00
969,77	3007,00
975,75	3016,00
981,72	3083,00
987,69	3035,00
993,66	3077,00
999,61	2965,00
1005,56	3085,00
1011,51	2989,00
1017,44	3021,00
1023,37	3074,00
1029,30	3045,00
1035,22	3080,00
1041,13	3051,00
1047,03	3141,00
1052,93	3275,00
1058,83	3509,00
1064,71	3696,00
1070,59	3440,00
1076,47	3322,00
1082,33	3281,00
1088,20	3256,00
1094,05	3163,00
1099,90	3148,00
1105,74	3351,00
1111,58	3225,00
1117,41	3335,00
1123,23	3650,00
1129,05	3795,00
1134,86	3647,00
1140,67	3377,00
1146,47	3453,00
1152,26	3212,00
1158,05	3183,00
1163,83	3253,00
1169,60	3330,00
1175,37	3382,00
1181,13	3137,00
1186,89	3212,00
1192,64	3164,00
1198,38	3180,00
1204,12	3153,00
1209,85	3119,00
1215,58	3272,00
1221,30	3357,00
1227,02	3239,00
1232,72	3409,00
1238,43	3312,00
1244,12	3384,00
1249,81	3277,00
1255,50	3293,00
1261,17	3310,00
1266,85	3418,00
1272,51	3343,00
1278,17	3402,00
1283,83	3498,00
1289,47	3793,00
1295,12	4248,00
1300,75	3981,00
1306,38	3756,00
1312,01	3566,00
1317,63	3416,00
1323,24	3402,00
1328,85	3483,00
1334,45	3525,00
1340,04	3238,00
1345,63	3360,00
1351,22	3411,00
1356,80	3420,00
1362,37	3266,00
1367,93	3371,00
1373,49	3460,00
1379,05	3414,00
1384,60	3410,00
1390,14	3320,00
1395,68	3401,00
1401,21	3286,00
1406,74	3542,00
1412,26	3663,00
1417,77	3761,00
1423,28	3866,00
1428,78	3775,00
1434,28	3960,00
1439,77	4219,00
1445,26	4205,00
1450,74	4124,00
1456,22	4011,00
1461,68	4058,00
1467,15	3811,00
1472,61	3749,00
1478,06	3548,00
1483,51	3347,00
1488,95	3426,00
1494,38	3401,00
1499,81	3197,00
1505,24	3260,00
1510,65	3188,00
1516,07	3210,00
1521,48	3151,00
1526,88	3133,00
1532,27	3159,00
1537,67	3174,00
1543,05	3279,00
1548,43	3047,00
1553,81	3068,00
1559,18	3135,00
1564,54	3105,00
1569,90	3221,00
1575,25	3092,00
1580,60	3098,00
1585,94	3117,00
1591,28	3160,00
1596,61	3059,00
1601,93	3098,00
1607,25	3132,00
1612,57	2957,00
1617,88	2958,00
1623,18	3125,00
1628,48	3073,00
1633,77	3059,00
1639,06	3040,00
1644,34	3093,00
1649,62	2985,00
1654,89	2932,00
1660,16	2962,00
1665,42	3093,00
1670,67	3061,00
1675,92	2986,00
1681,17	3032,00
1686,41	3036,00
1691,64	2965,00
1696,87	2934,00
1702,10	2950,00
1707,32	2982,00
1712,53	2921,00
1717,74	2956,00
1722,94	3047,00
1728,14	2943,00
1733,33	2866,00
1738,52	2858,00
1743,70	2856,00
1748,88	2882,00
1754,05	2806,00
1759,22	2809,00
1764,38	2784,00
1769,53	2864,00
1774,69	2748,00
1779,83	2776,00
1784,97	2827,00
1790,11	2684,00
1795,24	2627,00
1800,36	2707,00
1805,48	2755,00
1810,60	2823,00
1815,71	2724,00
1820,82	2691,00
1825,92	2833,00
1831,01	2744,00
1836,10	2705,00
1841,19	2733,00
1846,26	2674,00
1851,34	2676,00
1856,41	2716,00
1861,47	2767,00
1866,53	2779,00
1871,59	2659,00
1876,64	2667,00
1881,68	2713,00
1886,72	2719,00
1891,76	2607,00
1896,79	2594,00
1901,81	2707,00
1906,83	2521,00
1911,85	2634,00
1916,86	2597,00
1921,86	2609,00
1926,86	2602,00
1931,86	2640,00
1936,85	2528,00
1941,83	2512,00
1946,81	2516,00
1951,79	2377,00
1956,76	2569,00
1961,72	2427,00
1966,68	2543,00
1971,64	2374,00
1976,59	2377,00
1981,54	2472,00
1986,48	2379,00
1991,42	2329,00
1996,35	2268,00
2001,27	2370,00
2006,20	2376,00
2011,11	2360,00
2016,03	2334,00
2020,93	2249,00
2025,84	2354,00
2030,73	2383,00
2035,63	2420,00
2040,52	2356,00
2045,40	2337,00
2050,28	2246,00
2055,15	2308,00
2060,02	2304,00
2064,89	2251,00
2069,75	2313,00
2074,60	2258,00
2079,46	2295,00
2084,30	2358,00
2089,14	2309,00
2093,98	2337,00
2098,81	2155,00
2103,64	2346,00
2108,46	2343,00
2113,28	2300,00
2118,09	2188,00
2122,90	2287,00
2127,70	2295,00
2132,50	2370,00
2137,30	2266,00
2142,09	2299,00
2146,87	2302,00
2151,66	2244,00
2156,43	2362,00
2161,20	2285,00
2165,97	2193,00
2170,73	2223,00
2175,49	2114,00
2180,24	2077,00
2184,99	2256,00
2189,74	2197,00
2194,48	2142,00
2199,21	2133,00
2203,94	2093,00
2208,67	2156,00
2213,39	1999,00
2218,11	2056,00
2222,82	2095,00
2227,53	2127,00
2232,23	1996,00
2236,93	2207,00
2241,63	2175,00
2246,32	2051,00
2251,00	2032,00
2255,68	2016,00
2260,36	1839,00
2265,03	1889,00
2269,70	2045,00
2274,36	2040,00
2279,02	2029,00
2283,68	2004,00
2288,33	1840,00
2292,97	1888,00
2297,61	1955,00
2302,25	1916,00
2306,88	1979,00
2311,51	1909,00
2316,14	1854,00
2320,75	1928,00
2325,37	1938,00
2329,98	1912,00
2334,59	1917,00
2339,19	1836,00
2343,79	1842,00
2348,38	1842,00
2352,97	1863,00
2357,55	1843,00
2362,13	1833,00
2366,71	1746,00
2371,28	1833,00
2375,85	1671,00
2380,41	1771,00
2384,97	1736,00
2389,52	1721,00
2394,07	1730,00
2398,62	1712,00
2403,16	1717,00
2407,70	1662,00
2412,23	1602,00
2416,76	1773,00
2421,29	1620,00
2425,81	1688,00
2430,32	1697,00
2434,84	1545,00
2439,34	1716,00
2443,85	1581,00
2448,35	1523,00
2452,84	1574,00
2457,33	1584,00
2461,82	1640,00
2466,30	1542,00
2470,78	1581,00
2475,25	1605,00
2479,72	1509,00
2484,19	1533,00
2488,65	1487,00
2493,11	1484,00
2497,56	1485,00
2502,01	1399,00
2506,46	1444,00
2510,90	1516,00
2515,34	1527,00
2519,77	1401,00
2524,20	1393,00
2528,62	1408,00
2533,04	1518,00
2537,46	1417,00
2541,87	1530,00
2546,28	1399,00
2550,68	1502,00
2555,08	1313,00
2559,48	1514,00
2563,87	1359,00
2568,26	1188,00
2572,64	1322,00
2577,02	1370,00
2581,40	1428,00
2585,77	1330,00
2590,14	1311,00
2594,50	1355,00
2598,86	1254,00
2603,22	1259,00
2607,57	1331,00
2611,92	1148,00
2616,26	1167,00
2620,60	1311,00
2624,94	1345,00
2629,27	1302,00
2633,60	1295,00
2637,92	1379,00
2642,24	1287,00
2646,56	1307,00
2650,87	1139,00
2655,18	1191,00
2659,48	1202,00
2663,78	1219,00
2668,08	1262,00
2672,37	1176,00
2676,66	1205,00
2680,95	1261,00
2685,23	1135,00
2689,50	1078,00
2693,78	1138,00
2698,05	1260,00
2702,31	1177,00
2706,57	1032,00
2710,83	1181,00
2715,08	1225,00
2719,33	1359,00
2723,58	1168,00
2727,82	1299,00
2732,06	1229,00
2736,29	1070,00
2740,53	1170,00
2744,75	1171,00
2748,97	1148,00
2753,19	1122,00
2757,41	1151,00
2761,62	1076,00
2765,83	1118,00
2770,03	1147,00
2774,23	1079,00
2778,43	1067,00
2782,62	1146,00
2786,81	1086,00
2791,00	1030,00
2795,18	1050,00
2799,35	1181,00
2803,53	1101,00
2807,70	1071,00
2811,86	1221,00
2816,03	1277,00
2820,19	1230,00
2824,34	1292,00
2828,49	1199,00
2832,64	1490,00
2836,78	1566,00
2840,92	1640,00
2845,06	1884,00
2849,19	2202,00
2853,32	2017,00
2857,45	2055,00
2861,57	2031,00
2865,69	2029,00
2869,80	1975,00
2873,91	2031,00
2878,02	2124,00
2882,12	2188,00
2886,22	2204,00
2890,32	2135,00
2894,41	1978,00
2898,50	1854,00
2902,58	1667,00
2906,67	1712,00
2910,74	1568,00
2914,82	1550,00
2918,89	1480,00
2922,96	1280,00
2927,02	1254,00
2931,08	1170,00
2935,13	1307,00
2939,19	1153,00
2943,24	1100,00
2947,28	1088,00
2951,32	989,00
2955,36	860,00
2959,40	941,00
2963,43	983,00
2967,46	955,00
2971,48	804,00
2975,50	905,00
2979,52	709,00
2983,53	759,00
2987,54	707,00
2991,55	783,00
2995,55	753,00
2999,55	719,00
3003,54	677,00
3007,54	690,00
3011,53	658,00
3015,51	686,00
3019,49	821,00
3023,47	624,00
3027,45	626,00
3031,42	570,00
3035,39	626,00
3039,35	615,00
3043,31	636,00
3047,27	653,00
3051,22	502,00
3055,17	593,00
3059,12	625,00
3063,06	626,00
3067,00	556,00
3070,94	516,00
3074,87	623,00
3078,80	621,00
3082,73	454,00
3086,65	528,00
3090,57	466,00
3094,49	459,00
3098,40	494,00
3102,31	548,00
3106,22	493,00
3110,12	545,00
3114,02	514,00
3117,92	556,00
3121,81	512,00
3125,70	453,00
3129,58	418,00
3133,47	380,00
3137,34	364,00
3141,22	450,00
3145,09	475,00
3148,96	427,00
3152,83	400,00
3156,69	428,00
3160,55	421,00
3164,40	432,00
3168,26	463,00
3172,10	348,00
3175,95	504,00
3179,79	282,00
3183,63	423,00
3187,47	546,00
3191,30	364,00
3195,13	441,00
3198,95	335,00
3202,78	394,00
3206,60	349,00
3210,41	249,00
3214,23	341,00
3218,03	276,00
3221,84	353,00
3225,64	326,00
3229,44	284,00
3233,24	334,00
3237,03	373,00
3240,82	319,00
3244,61	336,00
3248,39	292,00
3252,17	413,00
3255,95	332,00
3259,72	354,00
3263,49	346,00
3267,26	206,00
3271,03	264,00
3274,79	325,00
3278,54	333,00
3282,30	290,00
3286,05	355,00
3289,80	327,00
3293,54	294,00
3297,29	235,00
3301,02	292,00
3304,76	321,00
3308,49	323,00
3312,22	194,00
3315,95	351,00
3319,67	226,00
3323,39	306,00
3327,10	241,00
3330,82	256,00
3334,53	352,00
3338,24	290,00
3341,94	219,00
3345,64	323,00
3349,34	251,00
3353,03	178,00
3356,72	243,00
3360,41	203,00
3364,10	188,00
3367,78	211,00
3371,46	254,00
3375,13	115,00
3378,81	294,00
3382,48	226,00
3386,14	223,00
3389,81	363,00
3393,47	156,00
3397,12	270,00
3400,78	98,00
3404,43	238,00
3408,08	327,00
3411,72	268,00
3415,36	138,00
3419,00	209,00
3422,64	161,00
3426,27	255,00
3429,90	213,00
3433,53	160,00
3437,15	193,00
3440,77	223,00
3444,39	212,00
3448,00	264,00
3451,62	190,00
3455,22	215,00
3458,83	183,00
3462,43	227,00
3466,03	181,00
3469,63	236,00
3473,22	230,00
3476,81	200,00
3480,40	153,00
3483,99	134,00
3487,57	108,00
3491,15	70,00
3494,72	286,00
3498,29	210,00
3501,86	43,00
3505,43	145,00
3508,99	75,00
3512,56	169,00
3516,11	158,00
3519,67	135,00
3523,22	162,00
3526,77	158,00
3530,32	213,00
3533,86	144,00
3537,40	53,00
3540,94	6,00
3544,47	123,00
3548,00	87,00
3551,53	23,00
3555,06	11,00
3558,58	152,00
3562,10	22,00
3565,62	103,00
3569,13	18,00
3572,64	35,00
3576,15	137,00
3579,66	189,00
3583,16	108,00
3586,66	212,00
3590,16	151,00
3593,65	115,00
3597,14	144,00
3600,63	196,00
3604,11	68,00
3607,60	44,00
3611,08	58,00
3614,55	12,00
3618,03	110,00
3621,50	156,00
3624,97	93,00
3628,43	21,00
3631,90	197,00
3635,36	89,00
3638,81	106,00
3642,27	34,00
3645,72	101,00
3649,17	121,00
3652,61	122,00
3656,06	106,00
3659,50	120,00
3662,93	48,00
3666,37	169,00
3669,80	4,00
3673,23	132,00
3676,65	144,00
3680,08	171,00
3683,50	77,00
3686,92	94,00
3690,33	43,00
3693,74	131,00
3697,15	144,00
3700,56	106,00
3703,96	-44,00
3707,36	131,00
3710,76	114,00
3714,16	176,00
3717,55	87,00
3720,94	7,00
3724,33	78,00
3727,71	191,00
3731,10	8,00
3734,48	41,00
3737,85	122,00
3741,23	76,00
3744,60	96,00
3747,97	59,00
3751,33	115,00
3754,69	24,00
3758,05	67,00
3761,41	46,00
3764,77	151,00
3768,12	70,00
3771,47	-1,00
3774,82	199,00
3778,16	0,00
3781,50	9,00
3784,84	0,00
3788,18	-5,00
>>>>>End Processed Spectral Data<<<<<
