SpectraSuite Data File
++++++++++++++++++++++++++++++++++++
Date: Mon Mar 09 14:40:26 ICT 2026
User: Administrator
Dark Spectrum Present: Yes
Reference Spectrum Present: No
Number of Sampled Component Spectra: 1
Spectrometers: MAYP113682
Integration Time (usec): 3000000 (MAYP113682)
Spectra Averaged: 1 (MAYP113682)
Boxcar Smoothing: 0 (MAYP113682)
Correct for Electrical Dark: No (MAYP113682)
Strobe/Lamp Enabled: No (MAYP113682)
Correct for Detector Non-linearity: No (MAYP113682)
Correct for Stray Light: No (MAYP113682)
Number of Pixels in Processed Spectrum: 2068
>>>>>Begin Processed Spectral Data<<<<<
-37534,58	15,00
-37414,56	-2,00
-37295,11	2,00
-37176,24	2,00
-37057,95	298,00
-36940,22	299,00
-36823,05	392,00
-36706,45	379,00
-36590,40	226,00
-36474,90	375,00
-36359,95	404,00
-36245,55	289,00
-36131,68	384,00
-36018,35	374,00
-35905,55	323,00
-35793,29	377,00
-35681,54	338,00
-35570,32	315,00
-35459,62	379,00
-35349,43	386,00
-35239,75	353,00
-35130,58	347,00
-35021,91	344,00
-34913,74	422,00
-34806,07	356,00
-34698,89	438,00
-34592,20	367,00
-34486,00	459,00
-34380,28	250,00
-34275,04	378,00
-34170,27	339,00
-34065,98	346,00
-33962,16	323,00
-33858,81	375,00
-33755,92	370,00
-33653,49	446,00
-33551,52	339,00
-33450,01	317,00
-33348,94	287,00
-33248,33	349,00
-33148,16	418,00
-33048,43	300,00
-32949,14	411,00
-32850,29	331,00
-32751,87	421,00
-32653,89	348,00
-32556,33	440,00
-32459,20	465,00
-32362,49	336,00
-32266,19	311,00
-32170,32	329,00
-32074,86	472,00
-31979,82	444,00
-31885,18	464,00
-31790,95	419,00
-31697,12	302,00
-31603,69	448,00
-31510,67	393,00
-31418,04	387,00
-31325,80	417,00
-31233,95	455,00
-31142,49	362,00
-31051,42	481,00
-30960,73	432,00
-30870,43	302,00
-30780,50	390,00
-30690,95	403,00
-30601,77	476,00
-30512,97	396,00
-30424,53	383,00
-30336,46	373,00
-30248,76	411,00
-30161,42	471,00
-30074,44	381,00
-29987,81	370,00
-29901,55	439,00
-29815,63	354,00
-29730,07	391,00
-29644,86	429,00
-29560,00	457,00
-29475,48	316,00
-29391,30	462,00
-29307,47	360,00
-29223,97	371,00
-29140,81	442,00
-29057,99	491,00
-28975,50	385,00
-28893,34	385,00
-28811,51	397,00
-28730,00	361,00
-28648,82	376,00
-28567,97	454,00
-28487,43	434,00
-28407,21	299,00
-28327,32	408,00
-28247,73	432,00
-28168,46	378,00
-28089,50	412,00
-28010,85	342,00
-27932,51	296,00
-27854,48	421,00
-27776,75	330,00
-27699,32	456,00
-27622,19	414,00
-27545,37	476,00
-27468,84	394,00
-27392,60	478,00
-27316,66	416,00
-27241,01	379,00
-27165,66	393,00
-27090,59	389,00
-27015,81	343,00
-26941,31	460,00
-26867,10	407,00
-26793,17	439,00
-26719,52	380,00
-26646,15	310,00
-26573,06	418,00
-26500,24	394,00
-26427,70	361,00
-26355,43	525,00
-26283,43	365,00
-26211,71	490,00
-26140,25	352,00
-26069,06	516,00
-25998,13	270,00
-25927,46	369,00
-25857,06	411,00
-25786,92	383,00
-25717,04	384,00
-25647,42	408,00
-25578,05	487,00
-25508,94	375,00
-25440,09	378,00
-25371,48	385,00
-25303,13	300,00
-25235,02	376,00
-25167,17	467,00
-25099,56	376,00
-25032,19	357,00
-24965,07	424,00
-24898,20	358,00
-24831,56	359,00
-24765,17	462,00
-24699,01	377,00
-24633,10	346,00
-24567,41	410,00
-24501,97	377,00
-24436,75	326,00
-24371,77	363,00
-24307,03	373,00
-24242,51	244,00
-24178,22	481,00
-24114,16	310,00
-24050,32	331,00
-23986,71	448,00
-23923,32	423,00
-23860,16	293,00
-23797,22	372,00
-23734,50	399,00
-23672,00	321,00
-23609,71	383,00
-23547,65	337,00
-23485,80	370,00
-23424,16	304,00
-23362,74	431,00
-23301,53	340,00
-23240,54	315,00
-23179,75	363,00
-23119,17	371,00
-23058,80	382,00
-22998,64	407,00
-22938,68	384,00
-22878,93	419,00
-22819,39	396,00
-22760,04	422,00
-22700,90	344,00
-22641,96	421,00
-22583,22	384,00
-22524,68	422,00
-22466,33	307,00
-22408,19	481,00
-22350,23	395,00
-22292,48	461,00
-22234,92	366,00
-22177,55	426,00
-22120,37	389,00
-22063,38	356,00
-22006,58	370,00
-21949,98	377,00
-21893,56	250,00
-21837,33	350,00
-21781,28	381,00
-21725,42	334,00
-21669,74	389,00
-21614,25	360,00
-21558,94	311,00
-21503,81	313,00
-21448,86	416,00
-21394,10	334,00
-21339,51	390,00
-21285,10	320,00
-21230,86	349,00
-21176,81	358,00
-21122,93	436,00
-21069,22	386,00
-21015,69	374,00
-20962,33	361,00
-20909,14	356,00
-20856,13	398,00
-20803,28	354,00
-20750,61	302,00
-20698,10	388,00
-20645,76	404,00
-20593,59	424,00
-20541,59	316,00
-20489,75	430,00
-20438,07	386,00
-20386,56	414,00
-20335,22	398,00
-20284,03	335,00
-20233,01	343,00
-20182,15	317,00
-20131,45	300,00
-20080,91	308,00
-20030,52	306,00
-19980,30	345,00
-19930,23	312,00
-19880,32	420,00
-19830,56	392,00
-19780,96	277,00
-19731,52	436,00
-19682,23	329,00
-19633,09	364,00
-19584,10	378,00
-19535,26	324,00
-19486,58	411,00
-19438,04	381,00
-19389,66	390,00
-19341,42	393,00
-19293,33	356,00
-19245,39	391,00
-19197,60	362,00
-19149,95	321,00
-19102,45	402,00
-19055,09	421,00
-19007,87	407,00
-18960,80	376,00
-18913,87	415,00
-18867,09	416,00
-18820,44	469,00
-18773,94	358,00
-18727,57	329,00
-18681,35	320,00
-18635,26	399,00
-18589,31	340,00
-18543,50	313,00
-18497,83	395,00
-18452,29	448,00
-18406,89	401,00
-18361,63	438,00
-18316,50	383,00
-18271,50	425,00
-18226,63	373,00
-18181,90	334,00
-18137,30	407,00
-18092,84	315,00
-18048,50	364,00
-18004,29	326,00
-17960,22	378,00
-17916,27	287,00
-17872,45	440,00
-17828,76	381,00
-17785,20	452,00
-17741,77	465,00
-17698,46	377,00
-17655,28	314,00
-17612,22	389,00
-17569,29	307,00
-17526,48	411,00
-17483,79	332,00
-17441,23	369,00
-17398,79	362,00
-17356,48	378,00
-17314,28	471,00
-17272,21	362,00
-17230,26	338,00
-17188,42	427,00
-17146,71	337,00
-17105,12	423,00
-17063,64	409,00
-17022,28	325,00
-16981,04	375,00
-16939,92	384,00
-16898,91	380,00
-16858,02	442,00
-16817,25	232,00
-16776,59	253,00
-16736,04	395,00
-16695,61	254,00
-16655,29	406,00
-16615,09	444,00
-16574,99	402,00
-16535,01	317,00
-16495,15	393,00
-16455,39	408,00
-16415,74	335,00
-16376,21	332,00
-16336,78	288,00
-16297,46	430,00
-16258,26	442,00
-16219,16	386,00
-16180,17	272,00
-16141,28	486,00
-16102,51	403,00
-16063,84	341,00
-16025,27	499,00
-15986,82	309,00
-15948,46	342,00
-15910,22	420,00
-15872,07	408,00
-15834,04	374,00
-15796,10	376,00
-15758,27	453,00
-15720,54	388,00
-15682,91	344,00
-15645,39	287,00
-15607,97	414,00
-15570,64	261,00
-15533,42	388,00
-15496,30	361,00
-15459,28	300,00
-15422,36	343,00
-15385,54	373,00
-15348,82	300,00
-15312,19	398,00
-15275,66	324,00
-15239,23	355,00
-15202,90	365,00
-15166,67	345,00
-15130,53	400,00
-15094,48	373,00
-15058,54	417,00
-15022,68	353,00
-14986,93	327,00
-14951,26	369,00
-14915,69	292,00
-14880,22	316,00
-14844,84	337,00
-14809,55	396,00
-14774,35	384,00
-14739,25	464,00
-14704,24	357,00
-14669,32	380,00
-14634,49	331,00
-14599,75	392,00
-14565,10	331,00
-14530,55	408,00
-14496,08	362,00
-14461,70	420,00
-14427,41	350,00
-14393,21	328,00
-14359,10	287,00
-14325,07	442,00
-14291,14	292,00
-14257,29	393,00
-14223,52	334,00
-14189,85	446,00
-14156,26	452,00
-14122,76	369,00
-14089,34	355,00
-14056,01	379,00
-14022,76	430,00
-13989,60	393,00
-13956,52	340,00
-13923,53	398,00
-13890,62	384,00
-13857,79	353,00
-13825,05	338,00
-13792,39	345,00
-13759,81	411,00
-13727,31	312,00
-13694,90	340,00
-13662,57	361,00
-13630,31	325,00
-13598,14	320,00
-13566,05	302,00
-13534,05	435,00
-13502,12	337,00
-13470,27	373,00
-13438,50	424,00
-13406,80	358,00
-13375,19	268,00
-13343,66	433,00
-13312,20	381,00
-13280,83	343,00
-13249,53	374,00
-13218,30	302,00
-13187,16	381,00
-13156,09	386,00
-13125,10	474,00
-13094,18	430,00
-13063,34	405,00
-13032,58	287,00
-13001,89	490,00
-12971,28	399,00
-12940,74	377,00
-12910,27	393,00
-12879,88	316,00
-12849,57	422,00
-12819,33	330,00
-12789,16	380,00
-12759,06	225,00
-12729,04	446,00
-12699,09	904,00
-12669,21	409,00
-12639,41	421,00
-12609,68	424,00
-12580,02	318,00
-12550,43	424,00
-12520,91	260,00
-12491,46	427,00
-12462,08	359,00
-12432,77	393,00
-12403,54	363,00
-12374,37	291,00
-12345,27	373,00
-12316,24	398,00
-12287,29	551,00
-12258,40	341,00
-12229,57	436,00
-12200,82	391,00
-12172,14	277,00
-12143,52	338,00
-12114,97	282,00
-12086,49	363,00
-12058,07	362,00
-12029,73	366,00
-12001,44	415,00
-11973,23	376,00
-11945,08	400,00
-11917,00	329,00
-11888,98	374,00
-11861,03	382,00
-11833,15	390,00
-11805,32	386,00
-11777,57	414,00
-11749,88	368,00
-11722,25	299,00
-11694,69	320,00
-11667,19	364,00
-11639,75	307,00
-11612,38	431,00
-11585,07	279,00
-11557,83	476,00
-11530,65	497,00
-11503,53	409,00
-11476,47	465,00
-11449,48	331,00
-11422,54	291,00
-11395,67	386,00
-11368,86	376,00
-11342,11	410,00
-11315,43	343,00
-11288,80	346,00
-11262,23	436,00
-11235,73	337,00
-11209,28	401,00
-11182,90	351,00
-11156,57	436,00
-11130,31	406,00
-11104,10	418,00
-11077,96	422,00
-11051,87	408,00
-11025,84	395,00
-10999,87	396,00
-10973,96	459,00
-10948,11	394,00
-10922,31	382,00
-10896,58	428,00
-10870,90	473,00
-10845,28	389,00
-10819,71	353,00
-10794,20	298,00
-10768,75	444,00
-10743,36	411,00
-10718,02	343,00
-10692,74	422,00
-10667,52	335,00
-10642,35	467,00
-10617,24	445,00
-10592,18	478,00
-10567,18	345,00
-10542,23	410,00
-10517,34	413,00
-10492,51	391,00
-10467,72	301,00
-10443,00	373,00
-10418,32	421,00
-10393,70	307,00
-10369,14	306,00
-10344,63	407,00
-10320,17	372,00
-10295,77	401,00
-10271,42	436,00
-10247,12	388,00
-10222,88	458,00
-10198,68	322,00
-10174,54	355,00
-10150,46	395,00
-10126,42	418,00
-10102,44	419,00
-10078,51	386,00
-10054,63	424,00
-10030,80	412,00
-10007,03	506,00
-9983,30	449,00
-9959,63	411,00
-9936,01	424,00
-9912,44	429,00
-9888,92	458,00
-9865,44	428,00
-9842,02	408,00
-9818,65	362,00
-9795,33	483,00
-9772,06	524,00
-9748,84	416,00
-9725,67	492,00
-9702,55	345,00
-9679,47	488,00
-9656,45	400,00
-9633,47	410,00
-9610,55	452,00
-9587,67	566,00
-9564,84	519,00
-9542,06	554,00
-9519,32	710,00
-9496,64	593,00
-9474,00	510,00
-9451,41	586,00
-9428,87	633,00
-9406,37	686,00
-9383,92	653,00
-9361,52	651,00
-9339,17	637,00
-9316,86	590,00
-9294,60	684,00
-9272,38	619,00
-9250,21	675,00
-9228,09	764,00
-9206,01	739,00
-9183,98	608,00
-9162,00	679,00
-9140,06	673,00
-9118,16	573,00
-9096,31	754,00
-9074,51	763,00
-9052,75	830,00
-9031,04	822,00
-9009,37	675,00
-8987,74	571,00
-8966,16	692,00
-8944,63	541,00
-8923,14	555,00
-8901,69	619,00
-8880,29	737,00
-8858,93	662,00
-8837,61	686,00
-8816,34	695,00
-8795,11	697,00
-8773,92	690,00
-8752,78	781,00
-8731,68	492,00
-8710,62	576,00
-8689,61	529,00
-8668,63	562,00
-8647,70	634,00
-8626,82	645,00
-8605,97	719,00
-8585,17	616,00
-8564,41	587,00
-8543,69	603,00
-8523,01	545,00
-8502,37	654,00
-8481,78	618,00
-8461,23	530,00
-8440,71	535,00
-8420,24	576,00
-8399,81	673,00
-8379,42	541,00
-8359,08	605,00
-8338,77	557,00
-8318,50	677,00
-8298,27	517,00
-8278,09	564,00
-8257,94	472,00
-8237,83	706,00
-8217,76	661,00
-8197,74	551,00
-8177,75	617,00
-8157,80	598,00
-8137,89	511,00
-8118,02	499,00
-8098,19	626,00
-8078,40	537,00
-8058,65	506,00
-8038,93	631,00
-8019,26	629,00
-7999,62	601,00
-7980,02	538,00
-7960,46	575,00
-7940,94	580,00
-7921,46	603,00
-7902,01	505,00
-7882,60	510,00
-7863,23	548,00
-7843,90	591,00
-7824,61	578,00
-7805,35	581,00
-7786,13	511,00
-7766,95	481,00
-7747,80	619,00
-7728,69	670,00
-7709,62	553,00
-7690,59	562,00
-7671,59	582,00
-7652,63	576,00
-7633,70	512,00
-7614,81	534,00
-7595,96	475,00
-7577,15	486,00
-7558,37	524,00
-7539,62	506,00
-7520,91	522,00
-7502,24	504,00
-7483,60	594,00
-7465,00	570,00
-7446,44	554,00
-7427,91	575,00
-7409,41	486,00
-7390,95	495,00
-7372,53	435,00
-7354,14	564,00
-7335,78	487,00
-7317,46	543,00
-7299,18	532,00
-7280,92	545,00
-7262,71	685,00
-7244,52	445,00
-7226,38	530,00
-7208,26	532,00
-7190,18	531,00
-7172,14	606,00
-7154,12	584,00
-7136,15	448,00
-7118,20	528,00
-7100,29	538,00
-7082,41	632,00
-7064,57	535,00
-7046,76	536,00
-7028,98	495,00
-7011,24	702,00
-6993,53	395,00
-6975,85	475,00
-6958,20	354,00
-6940,59	408,00
-6923,01	407,00
-6905,46	596,00
-6887,94	412,00
-6870,46	625,00
-6853,01	446,00
-6835,59	535,00
-6818,21	571,00
-6800,85	525,00
-6783,53	474,00
-6766,24	431,00
-6748,98	466,00
-6731,76	375,00
-6714,56	449,00
-6697,40	461,00
-6680,26	508,00
-6663,16	385,00
-6646,09	429,00
-6629,05	431,00
-6612,05	544,00
-6595,07	482,00
-6578,13	501,00
-6561,21	376,00
-6544,33	441,00
-6527,47	424,00
-6510,65	558,00
-6493,86	430,00
-6477,10	280,00
-6460,36	430,00
-6443,66	431,00
-6426,99	436,00
-6410,35	257,00
-6393,74	520,00
-6377,16	384,00
-6360,61	387,00
-6344,09	420,00
-6327,59	447,00
-6311,13	374,00
-6294,70	461,00
-6278,29	453,00
-6261,92	499,00
-6245,58	493,00
-6229,26	513,00
-6212,97	405,00
-6196,72	443,00
-6180,49	531,00
-6164,29	367,00
-6148,12	481,00
-6131,98	341,00
-6115,86	465,00
-6099,78	419,00
-6083,72	366,00
-6067,69	356,00
-6051,69	457,00
-6035,72	506,00
-6019,78	368,00
-6003,87	546,00
-5987,98	388,00
-5972,12	509,00
-5956,29	386,00
-5940,49	364,00
-5924,71	460,00
-5908,96	432,00
-5893,24	457,00
-5877,55	432,00
-5861,89	462,00
-5846,25	392,00
-5830,64	472,00
-5815,05	326,00
-5799,50	459,00
-5783,97	414,00
-5768,47	490,00
-5752,99	508,00
-5737,55	509,00
-5722,12	367,00
-5706,73	489,00
-5691,36	411,00
-5676,02	415,00
-5660,71	480,00
-5645,42	344,00
-5630,16	405,00
-5614,92	441,00
-5599,71	360,00
-5584,53	514,00
-5569,37	408,00
-5554,24	1150,00
-5539,14	375,00
-5524,06	449,00
-5509,01	448,00
-5493,98	368,00
-5478,98	517,00
-5464,00	365,00
-5449,05	326,00
-5434,13	435,00
-5419,23	536,00
-5404,36	409,00
-5389,51	440,00
-5374,69	388,00
-5359,89	378,00
-5345,12	390,00
-5330,37	428,00
-5315,65	546,00
-5300,95	456,00
-5286,28	332,00
-5271,63	329,00
-5257,01	397,00
-5242,41	465,00
-5227,84	455,00
-5213,29	376,00
-5198,76	519,00
-5184,26	404,00
-5169,79	441,00
-5155,33	434,00
-5140,91	457,00
-5126,51	436,00
-5112,13	476,00
-5097,77	512,00
-5083,44	481,00
-5069,13	376,00
-5054,85	399,00
-5040,59	347,00
-5026,36	429,00
-5012,15	518,00
-4997,96	459,00
-4983,80	369,00
-4969,66	470,00
-4955,54	432,00
-4941,44	430,00
-4927,37	461,00
-4913,33	460,00
-4899,30	370,00
-4885,30	547,00
-4871,33	422,00
-4857,37	461,00
-4843,44	441,00
-4829,53	481,00
-4815,65	437,00
-4801,79	321,00
-4787,95	427,00
-4774,13	326,00
-4760,34	415,00
-4746,56	458,00
-4732,82	349,00
-4719,09	444,00
-4705,38	509,00
-4691,70	510,00
-4678,04	362,00
-4664,41	385,00
-4650,79	492,00
-4637,20	434,00
-4623,63	441,00
-4610,08	375,00
-4596,56	453,00
-4583,05	437,00
-4569,57	378,00
-4556,11	438,00
-4542,67	416,00
-4529,25	293,00
-4515,86	526,00
-4502,49	422,00
-4489,13	423,00
-4475,80	386,00
-4462,49	362,00
-4449,21	540,00
-4435,94	413,00
-4422,70	466,00
-4409,47	422,00
-4396,27	396,00
-4383,09	407,00
-4369,93	400,00
-4356,79	409,00
-4343,67	283,00
-4330,58	431,00
-4317,50	290,00
-4304,45	354,00
-4291,41	390,00
-4278,40	331,00
-4265,41	346,00
-4252,44	379,00
-4239,49	343,00
-4226,55	406,00
-4213,65	506,00
-4200,76	426,00
-4187,89	407,00
-4175,04	401,00
-4162,21	376,00
-4149,40	360,00
-4136,61	370,00
-4123,85	287,00
-4111,10	400,00
-4098,37	493,00
-4085,66	384,00
-4072,98	478,00
-4060,31	360,00
-4047,66	490,00
-4035,04	505,00
-4022,43	327,00
-4009,84	536,00
-3997,27	343,00
-3984,72	447,00
-3972,19	391,00
-3959,69	307,00
-3947,20	362,00
-3934,73	468,00
-3922,27	364,00
-3909,84	397,00
-3897,43	391,00
-3885,04	348,00
-3872,67	350,00
-3860,31	318,00
-3847,98	416,00
-3835,66	330,00
-3823,36	355,00
-3811,09	360,00
-3798,83	361,00
-3786,59	443,00
-3774,37	403,00
-3762,17	303,00
-3749,98	365,00
-3737,82	362,00
-3725,67	403,00
-3713,55	347,00
-3701,44	409,00
-3689,35	433,00
-3677,28	338,00
-3665,22	386,00
-3653,19	318,00
-3641,17	357,00
-3629,18	341,00
-3617,20	353,00
-3605,24	419,00
-3593,30	347,00
-3581,37	398,00
-3569,47	440,00
-3557,58	428,00
-3545,71	383,00
-3533,86	386,00
-3522,02	391,00
-3510,21	418,00
-3498,41	417,00
-3486,63	350,00
-3474,87	413,00
-3463,12	350,00
-3451,40	263,00
-3439,69	464,00
-3428,00	426,00
-3416,33	439,00
-3404,67	370,00
-3393,03	413,00
-3381,41	375,00
-3369,81	395,00
-3358,22	442,00
-3346,66	340,00
-3335,10	432,00
-3323,57	316,00
-3312,06	311,00
-3300,56	346,00
-3289,08	314,00
-3277,61	374,00
-3266,16	375,00
-3254,73	371,00
-3243,32	397,00
-3231,92	429,00
-3220,55	403,00
-3209,18	430,00
-3197,84	448,00
-3186,51	364,00
-3175,20	325,00
-3163,90	340,00
-3152,63	400,00
-3141,36	410,00
-3130,12	409,00
-3118,89	460,00
-3107,68	429,00
-3096,49	396,00
-3085,31	423,00
-3074,15	319,00
-3063,00	315,00
-3051,87	379,00
-3040,76	341,00
-3029,67	319,00
-3018,59	494,00
-3007,52	394,00
-2996,48	506,00
-2985,44	287,00
-2974,43	293,00
-2963,43	362,00
-2952,45	352,00
-2941,48	408,00
-2930,53	435,00
-2919,60	317,00
-2908,68	326,00
-2897,78	412,00
-2886,89	490,00
-2876,02	385,00
-2865,17	354,00
-2854,33	409,00
-2843,50	277,00
-2832,70	277,00
-2821,90	467,00
-2811,13	423,00
-2800,37	368,00
-2789,62	376,00
-2778,89	344,00
-2768,18	407,00
-2757,48	452,00
-2746,80	422,00
-2736,13	419,00
-2725,48	325,00
-2714,84	389,00
-2704,22	392,00
-2693,61	400,00
-2683,02	343,00
-2672,45	376,00
-2661,89	470,00
-2651,34	339,00
-2640,81	353,00
-2630,30	441,00
-2619,80	449,00
-2609,31	444,00
-2598,84	383,00
-2588,39	398,00
-2577,95	338,00
-2567,52	300,00
-2557,11	414,00
-2546,71	355,00
-2536,33	408,00
-2525,97	388,00
-2515,62	344,00
-2505,28	369,00
-2494,96	342,00
-2484,65	322,00
-2474,36	468,00
-2464,08	305,00
-2453,82	472,00
-2443,57	406,00
-2433,33	334,00
-2423,11	365,00
-2412,91	402,00
-2402,72	388,00
-2392,54	333,00
-2382,38	378,00
-2372,23	495,00
-2362,09	4086,00
-2351,97	329,00
-2341,87	415,00
-2331,78	423,00
-2321,70	363,00
-2311,64	352,00
-2301,59	335,00
-2291,55	404,00
-2281,53	408,00
-2271,53	335,00
-2261,53	471,00
-2251,55	325,00
-2241,59	411,00
-2231,64	426,00
-2221,70	287,00
-2211,78	512,00
-2201,87	386,00
-2191,97	380,00
-2182,09	373,00
-2172,22	494,00
-2162,37	387,00
-2152,53	371,00
-2142,70	301,00
-2132,89	334,00
-2123,09	500,00
-2113,30	340,00
-2103,53	432,00
-2093,77	315,00
-2084,02	292,00
-2074,29	419,00
-2064,57	294,00
-2054,86	393,00
-2045,17	352,00
-2035,49	516,00
-2025,82	424,00
-2016,17	361,00
-2006,53	474,00
-1996,91	311,00
-1987,29	274,00
-1977,69	412,00
-1968,11	416,00
-1958,53	337,00
-1948,97	457,00
-1939,42	393,00
-1929,89	432,00
-1920,37	366,00
-1910,86	454,00
-1901,36	356,00
-1891,88	411,00
-1882,41	409,00
-1872,95	415,00
-1863,51	311,00
-1854,08	411,00
-1844,66	394,00
-1835,26	290,00
-1825,86	440,00
-1816,48	349,00
-1807,11	348,00
-1797,76	413,00
-1788,42	380,00
-1779,09	419,00
-1769,77	362,00
-1760,47	512,00
-1751,17	471,00
-1741,89	394,00
-1732,63	403,00
-1723,37	531,00
-1714,13	459,00
-1704,90	361,00
-1695,68	503,00
-1686,48	260,00
-1677,29	350,00
-1668,11	477,00
-1658,94	382,00
-1649,78	386,00
-1640,64	416,00
-1631,51	333,00
-1622,39	451,00
-1613,28	482,00
-1604,19	472,00
-1595,10	395,00
-1586,03	383,00
-1576,97	453,00
-1567,93	418,00
-1558,89	385,00
-1549,87	364,00
-1540,86	386,00
-1531,86	393,00
-1522,87	320,00
-1513,90	406,00
-1504,93	363,00
-1495,98	407,00
-1487,04	504,00
-1478,12	459,00
-1469,20	296,00
-1460,30	469,00
-1451,40	509,00
-1442,52	368,00
-1433,65	403,00
-1424,80	400,00
-1415,95	432,00
-1407,12	398,00
-1398,30	329,00
-1389,48	368,00
-1380,69	429,00
-1371,90	393,00
-1363,12	390,00
-1354,36	469,00
-1345,60	314,00
-1336,86	412,00
-1328,13	489,00
-1319,41	465,00
-1310,70	393,00
-1302,01	393,00
-1293,32	304,00
-1284,65	309,00
-1275,99	336,00
-1267,33	441,00
-1258,69	411,00
-1250,06	395,00
-1241,45	409,00
-1232,84	447,00
-1224,25	404,00
-1215,66	432,00
-1207,09	419,00
-1198,53	355,00
-1189,97	322,00
-1181,43	356,00
-1172,91	521,00
-1164,39	395,00
-1155,88	374,00
-1147,38	329,00
-1138,90	447,00
-1130,43	345,00
-1121,96	384,00
-1113,51	424,00
-1105,07	374,00
-1096,64	281,00
-1088,22	401,00
-1079,81	356,00
-1071,41	461,00
-1063,02	369,00
-1054,65	419,00
-1046,28	379,00
-1037,92	431,00
-1029,58	382,00
-1021,24	346,00
-1012,92	522,00
-1004,61	380,00
-996,30	592,00
-988,01	389,00
-979,73	434,00
-971,46	403,00
-963,20	325,00
-954,95	396,00
-946,71	422,00
-938,48	295,00
-930,26	534,00
-922,06	418,00
-913,86	511,00
-905,67	397,00
-897,49	312,00
-889,33	390,00
-881,17	338,00
-873,02	456,00
-864,89	288,00
-856,76	377,00
-848,65	301,00
-840,54	319,00
-832,45	446,00
-824,36	339,00
-816,29	402,00
-808,22	410,00
-800,17	441,00
-792,12	458,00
-784,09	443,00
-776,06	344,00
-768,05	413,00
-760,04	366,00
-752,05	400,00
-744,07	460,00
-736,09	425,00
-728,13	387,00
-720,17	401,00
-712,23	376,00
-704,29	411,00
-696,37	385,00
-688,45	326,00
-680,55	279,00
-672,65	380,00
-664,77	328,00
-656,89	418,00
-649,03	357,00
-641,17	371,00
-633,32	475,00
-625,49	432,00
-617,66	431,00
-609,84	416,00
-602,03	373,00
-594,23	339,00
-586,45	426,00
-578,67	340,00
-570,90	329,00
-563,14	407,00
-555,39	357,00
-547,65	394,00
-539,91	440,00
-532,19	330,00
-524,48	425,00
-516,78	399,00
-509,08	443,00
-501,40	458,00
-493,72	410,00
-486,06	437,00
-478,40	467,00
-470,76	388,00
-463,12	482,00
-455,49	326,00
-447,87	353,00
-440,26	379,00
-432,66	411,00
-425,07	405,00
-417,49	323,00
-409,92	423,00
-402,35	284,00
-394,80	363,00
-387,25	399,00
-379,72	402,00
-372,19	339,00
-364,67	411,00
-357,17	404,00
-349,67	425,00
-342,18	370,00
-334,69	444,00
-327,22	363,00
-319,76	367,00
-312,30	502,00
-304,86	474,00
-297,42	442,00
-290,00	311,00
-282,58	354,00
-275,17	544,00
-267,77	436,00
-260,37	391,00
-252,99	478,00
-245,62	402,00
-238,25	469,00
-230,90	393,00
-223,55	508,00
-216,21	438,00
-208,88	476,00
-201,56	462,00
-194,25	530,00
-186,94	443,00
-179,65	520,00
-172,36	512,00
-165,08	453,00
-157,81	597,00
-150,55	516,00
-143,30	591,00
-136,06	520,00
-128,82	627,00
-121,60	591,00
-114,38	706,00
-107,17	700,00
-99,97	740,00
-92,78	815,00
-85,60	920,00
-78,42	943,00
-71,25	1079,00
-64,10	1273,00
-56,95	1213,00
-49,81	1420,00
-42,67	1822,00
-35,55	1984,00
-28,43	2668,00
-21,33	4124,00
-14,23	12599,00
-7,14	57775,00
-0,05	57564,00
7,02	57281,00
14,09	44940,00
21,14	12036,00
28,19	5107,00
35,23	3373,00
42,27	2621,00
49,29	2247,00
56,31	1994,00
63,32	1719,00
70,32	1476,00
77,31	1262,00
84,29	1096,00
91,27	1142,00
98,23	1083,00
105,19	914,00
112,14	1060,00
119,09	1302,00
126,02	1825,00
132,95	2130,00
139,87	2174,00
146,78	2149,00
153,68	2117,00
160,58	2084,00
167,46	2115,00
174,34	2124,00
181,21	2156,00
188,08	2044,00
194,93	2181,00
201,78	1993,00
208,62	2089,00
215,45	2122,00
222,27	2112,00
229,09	2246,00
235,90	2014,00
242,70	1953,00
249,49	2170,00
256,27	1958,00
263,05	2010,00
269,82	2002,00
276,58	2051,00
283,33	2008,00
290,08	1995,00
296,82	1993,00
303,55	1932,00
310,27	1924,00
316,98	1989,00
323,69	1914,00
330,39	1888,00
337,08	2032,00
343,76	1900,00
350,44	1938,00
357,11	2009,00
363,77	1915,00
370,42	1892,00
377,07	1920,00
383,71	1991,00
390,34	1843,00
396,96	1862,00
403,58	1916,00
410,19	1919,00
416,79	1974,00
423,38	1990,00
429,97	1991,00
436,55	1874,00
443,12	1938,00
449,68	1764,00
456,24	1884,00
462,79	1894,00
469,33	1888,00
475,86	1875,00
482,39	1851,00
488,91	1905,00
495,42	1713,00
501,93	1880,00
508,42	1848,00
514,91	1850,00
521,40	1823,00
527,87	1831,00
534,34	1776,00
540,80	1876,00
547,25	1858,00
553,70	1997,00
560,14	1859,00
566,57	1895,00
573,00	1856,00
579,41	1869,00
585,83	1864,00
592,23	1905,00
598,62	1897,00
605,01	1895,00
611,40	1847,00
617,77	1919,00
624,14	1821,00
630,50	1808,00
636,85	1882,00
643,20	1918,00
649,54	1859,00
655,87	1783,00
662,20	1878,00
668,52	1868,00
674,83	1877,00
681,13	1863,00
687,43	1907,00
693,72	1752,00
700,00	1732,00
706,28	1778,00
712,55	1793,00
718,81	1766,00
725,07	1841,00
731,32	1738,00
737,56	1861,00
743,79	1785,00
750,02	1835,00
756,24	1756,00
762,46	1854,00
768,67	2070,00
774,87	1912,00
781,06	1851,00
787,25	1835,00
793,43	1913,00
799,60	1792,00
805,77	2026,00
811,93	1814,00
818,08	1852,00
824,23	1858,00
830,37	2007,00
836,50	1888,00
842,63	1860,00
848,75	1947,00
854,87	1923,00
860,97	1798,00
867,07	1907,00
873,17	1871,00
879,25	1841,00
885,33	1817,00
891,41	1841,00
897,47	1939,00
903,53	1877,00
909,59	1950,00
915,63	1842,00
921,67	1809,00
927,71	2006,00
933,74	1799,00
939,76	1885,00
945,77	1747,00
951,78	1813,00
957,78	1792,00
963,78	1869,00
969,77	1877,00
975,75	1942,00
981,72	1818,00
987,69	2539,00
993,66	1908,00
999,61	2027,00
1005,56	1802,00
1011,51	1801,00
1017,44	1824,00
1023,37	1850,00
1029,30	1908,00
1035,22	1977,00
1041,13	1956,00
1047,03	1941,00
1052,93	2062,00
1058,83	2255,00
1064,71	2429,00
1070,59	2279,00
1076,47	2120,00
1082,33	2071,00
1088,20	1998,00
1094,05	2035,00
1099,90	1942,00
1105,74	1989,00
1111,58	1876,00
1117,41	2118,00
1123,23	2202,00
1129,05	2511,00
1134,86	2290,00
1140,67	2200,00
1146,47	2052,00
1152,26	1944,00
1158,05	1816,00
1163,83	1940,00
1169,60	2055,00
1175,37	1984,00
1181,13	1969,00
1186,89	2010,00
1192,64	1875,00
1198,38	1969,00
1204,12	1890,00
1209,85	1954,00
1215,58	1902,00
1221,30	2053,00
1227,02	2070,00
1232,72	1994,00
1238,43	1849,00
1244,12	1939,00
1249,81	2058,00
1255,50	2114,00
1261,17	2058,00
1266,85	1887,00
1272,51	2061,00
1278,17	2078,00
1283,83	2045,00
1289,47	2388,00
1295,12	2714,00
1300,75	2659,00
1306,38	2372,00
1312,01	2181,00
1317,63	2144,00
1323,24	2146,00
1328,85	2210,00
1334,45	2116,00
1340,04	2086,00
1345,63	1981,00
1351,22	2271,00
1356,80	2085,00
1362,37	2074,00
1367,93	2145,00
1373,49	2136,00
1379,05	2067,00
1384,60	2108,00
1390,14	2025,00
1395,68	2148,00
1401,21	2128,00
1406,74	2115,00
1412,26	2376,00
1417,77	2421,00
1423,28	2322,00
1428,78	2427,00
1434,28	2599,00
1439,77	2749,00
1445,26	2735,00
1450,74	2630,00
1456,22	2550,00
1461,68	2579,00
1467,15	2376,00
1472,61	2260,00
1478,06	2249,00
1483,51	2168,00
1488,95	2104,00
1494,38	2117,00
1499,81	2006,00
1505,24	1987,00
1510,65	2106,00
1516,07	2031,00
1521,48	1921,00
1526,88	1766,00
1532,27	1964,00
1537,67	1953,00
1543,05	1942,00
1548,43	1894,00
1553,81	1870,00
1559,18	1910,00
1564,54	2021,00
1569,90	1933,00
1575,25	1889,00
1580,60	1750,00
1585,94	1983,00
1591,28	1951,00
1596,61	1886,00
1601,93	1930,00
1607,25	1966,00
1612,57	1884,00
1617,88	1982,00
1623,18	1855,00
1628,48	1911,00
1633,77	1705,00
1639,06	1859,00
1644,34	1763,00
1649,62	1812,00
1654,89	1984,00
1660,16	1728,00
1665,42	1870,00
1670,67	1793,00
1675,92	1866,00
1681,17	1810,00
1686,41	1759,00
1691,64	1951,00
1696,87	1796,00
1702,10	1795,00
1707,32	1897,00
1712,53	1866,00
1717,74	1727,00
1722,94	1775,00
1728,14	1816,00
1733,33	1752,00
1738,52	1682,00
1743,70	1843,00
1748,88	1742,00
1754,05	1713,00
1759,22	1669,00
1764,38	2938,00
1769,53	1650,00
1774,69	1820,00
1779,83	1690,00
1784,97	1707,00
1790,11	1680,00
1795,24	1707,00
1800,36	1741,00
1805,48	1632,00
1810,60	1696,00
1815,71	1695,00
1820,82	1700,00
1825,92	1702,00
1831,01	1624,00
1836,10	1596,00
1841,19	1698,00
1846,26	1587,00
1851,34	1659,00
1856,41	1747,00
1861,47	1739,00
1866,53	1678,00
1871,59	1587,00
1876,64	1691,00
1881,68	1683,00
1886,72	1694,00
1891,76	1619,00
1896,79	1621,00
1901,81	1590,00
1906,83	1615,00
1911,85	1538,00
1916,86	1589,00
1921,86	1546,00
1926,86	1581,00
1931,86	1534,00
1936,85	1660,00
1941,83	1544,00
1946,81	1580,00
1951,79	1604,00
1956,76	1520,00
1961,72	1498,00
1966,68	1486,00
1971,64	1445,00
1976,59	1411,00
1981,54	1542,00
1986,48	1518,00
1991,42	1493,00
1996,35	1727,00
2001,27	1500,00
2006,20	1411,00
2011,11	1528,00
2016,03	1531,00
2020,93	1507,00
2025,84	1545,00
2030,73	1426,00
2035,63	1331,00
2040,52	1505,00
2045,40	1402,00
2050,28	1424,00
2055,15	1565,00
2060,02	1391,00
2064,89	1415,00
2069,75	1512,00
2074,60	1492,00
2079,46	1413,00
2084,30	1400,00
2089,14	1418,00
2093,98	1447,00
2098,81	1537,00
2103,64	1490,00
2108,46	1425,00
2113,28	1394,00
2118,09	1523,00
2122,90	1482,00
2127,70	1402,00
2132,50	1470,00
2137,30	1344,00
2142,09	1393,00
2146,87	1255,00
2151,66	1432,00
2156,43	1371,00
2161,20	1453,00
2165,97	1409,00
2170,73	1363,00
2175,49	1439,00
2180,24	1379,00
2184,99	1380,00
2189,74	1406,00
2194,48	1287,00
2199,21	1491,00
2203,94	1347,00
2208,67	1222,00
2213,39	1240,00
2218,11	1366,00
2222,82	1330,00
2227,53	1292,00
2232,23	1388,00
2236,93	1276,00
2241,63	1252,00
2246,32	1333,00
2251,00	1261,00
2255,68	1312,00
2260,36	1317,00
2265,03	1310,00
2269,70	1435,00
2274,36	1313,00
2279,02	1298,00
2283,68	1243,00
2288,33	1240,00
2292,97	1229,00
2297,61	1322,00
2302,25	1168,00
2306,88	1264,00
2311,51	1218,00
2316,14	1259,00
2320,75	1254,00
2325,37	1200,00
2329,98	1230,00
2334,59	1204,00
2339,19	1319,00
2343,79	1179,00
2348,38	1220,00
2352,97	1162,00
2357,55	1274,00
2362,13	1320,00
2366,71	1160,00
2371,28	1118,00
2375,85	1197,00
2380,41	1289,00
2384,97	1189,00
2389,52	1233,00
2394,07	1168,00
2398,62	1217,00
2403,16	1198,00
2407,70	1155,00
2412,23	1162,00
2416,76	1214,00
2421,29	1214,00
2425,81	1152,00
2430,32	1180,00
2434,84	1037,00
2439,34	1134,00
2443,85	1229,00
2448,35	1093,00
2452,84	1152,00
2457,33	1075,00
2461,82	1140,00
2466,30	1013,00
2470,78	1158,00
2475,25	974,00
2479,72	1009,00
2484,19	1089,00
2488,65	1060,00
2493,11	1028,00
2497,56	1091,00
2502,01	952,00
2506,46	1072,00
2510,90	1102,00
2515,34	1062,00
2519,77	1096,00
2524,20	1030,00
2528,62	1040,00
2533,04	1069,00
2537,46	964,00
2541,87	981,00
2546,28	989,00
2550,68	953,00
2555,08	879,00
2559,48	979,00
2563,87	920,00
2568,26	1019,00
2572,64	1006,00
2577,02	1000,00
2581,40	950,00
2585,77	933,00
2590,14	948,00
2594,50	971,00
2598,86	989,00
2603,22	936,00
2607,57	909,00
2611,92	1019,00
2616,26	872,00
2620,60	1000,00
2624,94	943,00
2629,27	1056,00
2633,60	880,00
2637,92	1041,00
2642,24	995,00
2646,56	876,00
2650,87	945,00
2655,18	934,00
2659,48	868,00
2663,78	919,00
2668,08	860,00
2672,37	953,00
2676,66	968,00
2680,95	904,00
2685,23	845,00
2689,50	860,00
2693,78	907,00
2698,05	971,00
2702,31	940,00
2706,57	1001,00
2710,83	1019,00
2715,08	936,00
2719,33	1089,00
2723,58	1034,00
2727,82	936,00
2732,06	1006,00
2736,29	946,00
2740,53	1054,00
2744,75	897,00
2748,97	951,00
2753,19	953,00
2757,41	1001,00
2761,62	967,00
2765,83	1078,00
2770,03	1001,00
2774,23	858,00
2778,43	933,00
2782,62	870,00
2786,81	951,00
2791,00	910,00
2795,18	975,00
2799,35	957,00
2803,53	996,00
2807,70	967,00
2811,86	828,00
2816,03	997,00
2820,19	1000,00
2824,34	1013,00
2828,49	1080,00
2832,64	1144,00
2836,78	1333,00
2840,92	1422,00
2845,06	1605,00
2849,19	1618,00
2853,32	1721,00
2857,45	1738,00
2861,57	1657,00
2865,69	1719,00
2869,80	1603,00
2873,91	1579,00
2878,02	1758,00
2882,12	1845,00
2886,22	1814,00
2890,32	1815,00
2894,41	1689,00
2898,50	1552,00
2902,58	1469,00
2906,67	1486,00
2910,74	1369,00
2914,82	1216,00
2918,89	1247,00
2922,96	1105,00
2927,02	1192,00
2931,08	1101,00
2935,13	1060,00
2939,19	1040,00
2943,24	1073,00
2947,28	980,00
2951,32	936,00
2955,36	817,00
2959,40	913,00
2963,43	887,00
2967,46	798,00
2971,48	731,00
2975,50	779,00
2979,52	823,00
2983,53	845,00
2987,54	814,00
2991,55	777,00
2995,55	788,00
2999,55	697,00
3003,54	678,00
3007,54	752,00
3011,53	749,00
3015,51	743,00
3019,49	739,00
3023,47	619,00
3027,45	698,00
3031,42	637,00
3035,39	587,00
3039,35	644,00
3043,31	727,00
3047,27	647,00
3051,22	617,00
3055,17	600,00
3059,12	558,00
3063,06	662,00
3067,00	546,00
3070,94	682,00
3074,87	619,00
3078,80	664,00
3082,73	624,00
3086,65	595,00
3090,57	612,00
3094,49	564,00
3098,40	641,00
3102,31	532,00
3106,22	638,00
3110,12	596,00
3114,02	541,00
3117,92	557,00
3121,81	461,00
3125,70	486,00
3129,58	626,00
3133,47	540,00
3137,34	668,00
3141,22	594,00
3145,09	647,00
3148,96	479,00
3152,83	529,00
3156,69	631,00
3160,55	482,00
3164,40	542,00
3168,26	563,00
3172,10	598,00
3175,95	596,00
3179,79	609,00
3183,63	530,00
3187,47	555,00
3191,30	482,00
3195,13	577,00
3198,95	454,00
3202,78	561,00
3206,60	499,00
3210,41	464,00
3214,23	492,00
3218,03	494,00
3221,84	518,00
3225,64	445,00
3229,44	519,00
3233,24	487,00
3237,03	548,00
3240,82	477,00
3244,61	545,00
3248,39	515,00
3252,17	593,00
3255,95	521,00
3259,72	550,00
3263,49	605,00
3267,26	444,00
3271,03	445,00
3274,79	549,00
3278,54	504,00
3282,30	439,00
3286,05	497,00
3289,80	424,00
3293,54	471,00
3297,29	489,00
3301,02	422,00
3304,76	470,00
3308,49	460,00
3312,22	431,00
3315,95	496,00
3319,67	319,00
3323,39	509,00
3327,10	520,00
3330,82	427,00
3334,53	484,00
3338,24	343,00
3341,94	505,00
3345,64	378,00
3349,34	532,00
3353,03	388,00
3356,72	394,00
3360,41	519,00
3364,10	488,00
3367,78	478,00
3371,46	493,00
3375,13	492,00
3378,81	387,00
3382,48	408,00
3386,14	584,00
3389,81	497,00
3393,47	395,00
3397,12	521,00
3400,78	462,00
3404,43	485,00
3408,08	435,00
3411,72	452,00
3415,36	375,00
3419,00	332,00
3422,64	504,00
3426,27	362,00
3429,90	421,00
3433,53	437,00
3437,15	425,00
3440,77	354,00
3444,39	411,00
3448,00	524,00
3451,62	375,00
3455,22	459,00
3458,83	449,00
3462,43	448,00
3466,03	503,00
3469,63	464,00
3473,22	450,00
3476,81	367,00
3480,40	392,00
3483,99	435,00
3487,57	440,00
3491,15	429,00
3494,72	443,00
3498,29	374,00
3501,86	455,00
3505,43	496,00
3508,99	456,00
3512,56	415,00
3516,11	454,00
3519,67	318,00
3523,22	376,00
3526,77	424,00
3530,32	405,00
3533,86	482,00
3537,40	357,00
3540,94	452,00
3544,47	421,00
3548,00	401,00
3551,53	343,00
3555,06	328,00
3558,58	443,00
3562,10	415,00
3565,62	425,00
3569,13	411,00
3572,64	365,00
3576,15	342,00
3579,66	386,00
3583,16	365,00
3586,66	336,00
3590,16	352,00
3593,65	392,00
3597,14	379,00
3600,63	402,00
3604,11	477,00
3607,60	378,00
3611,08	349,00
3614,55	327,00
3618,03	312,00
3621,50	377,00
3624,97	331,00
3628,43	483,00
3631,90	401,00
3635,36	374,00
3638,81	382,00
3642,27	427,00
3645,72	346,00
3649,17	427,00
3652,61	321,00
3656,06	310,00
3659,50	373,00
3662,93	332,00
3666,37	249,00
3669,80	422,00
3673,23	299,00
3676,65	412,00
3680,08	326,00
3683,50	346,00
3686,92	399,00
3690,33	358,00
3693,74	405,00
3697,15	294,00
3700,56	357,00
3703,96	377,00
3707,36	316,00
3710,76	326,00
3714,16	338,00
3717,55	254,00
3720,94	362,00
3724,33	374,00
3727,71	381,00
3731,10	314,00
3734,48	281,00
3737,85	288,00
3741,23	260,00
3744,60	353,00
3747,97	324,00
3751,33	251,00
3754,69	390,00
3758,05	328,00
3761,41	280,00
3764,77	306,00
3768,12	203,00
3771,47	335,00
3774,82	376,00
3778,16	-1,00
3781,50	6,00
3784,84	0,00
3788,18	4,00
>>>>>End Processed Spectral Data<<<<<
