SpectraSuite Data File
++++++++++++++++++++++++++++++++++++
Date: Mon Mar 09 14:44:05 ICT 2026
User: Administrator
Dark Spectrum Present: Yes
Reference Spectrum Present: No
Number of Sampled Component Spectra: 1
Spectrometers: MAYP113682
Integration Time (usec): 3000000 (MAYP113682)
Spectra Averaged: 1 (MAYP113682)
Boxcar Smoothing: 0 (MAYP113682)
Correct for Electrical Dark: No (MAYP113682)
Strobe/Lamp Enabled: No (MAYP113682)
Correct for Detector Non-linearity: No (MAYP113682)
Correct for Stray Light: No (MAYP113682)
Number of Pixels in Processed Spectrum: 2068
>>>>>Begin Processed Spectral Data<<<<<
-37534,58	28,00
-37414,56	1,00
-37295,11	1,00
-37176,24	3,00
-37057,95	501,00
-36940,22	462,00
-36823,05	565,00
-36706,45	625,00
-36590,40	549,00
-36474,90	555,00
-36359,95	607,00
-36245,55	544,00
-36131,68	530,00
-36018,35	514,00
-35905,55	591,00
-35793,29	597,00
-35681,54	560,00
-35570,32	524,00
-35459,62	540,00
-35349,43	561,00
-35239,75	621,00
-35130,58	492,00
-35021,91	582,00
-34913,74	611,00
-34806,07	558,00
-34698,89	660,00
-34592,20	592,00
-34486,00	723,00
-34380,28	565,00
-34275,04	588,00
-34170,27	536,00
-34065,98	620,00
-33962,16	611,00
-33858,81	544,00
-33755,92	640,00
-33653,49	701,00
-33551,52	608,00
-33450,01	537,00
-33348,94	578,00
-33248,33	637,00
-33148,16	629,00
-33048,43	544,00
-32949,14	725,00
-32850,29	641,00
-32751,87	616,00
-32653,89	730,00
-32556,33	684,00
-32459,20	657,00
-32362,49	569,00
-32266,19	638,00
-32170,32	664,00
-32074,86	679,00
-31979,82	672,00
-31885,18	772,00
-31790,95	682,00
-31697,12	672,00
-31603,69	761,00
-31510,67	640,00
-31418,04	629,00
-31325,80	766,00
-31233,95	684,00
-31142,49	616,00
-31051,42	709,00
-30960,73	753,00
-30870,43	708,00
-30780,50	624,00
-30690,95	615,00
-30601,77	731,00
-30512,97	643,00
-30424,53	759,00
-30336,46	667,00
-30248,76	611,00
-30161,42	634,00
-30074,44	583,00
-29987,81	645,00
-29901,55	763,00
-29815,63	569,00
-29730,07	671,00
-29644,86	571,00
-29560,00	684,00
-29475,48	576,00
-29391,30	620,00
-29307,47	522,00
-29223,97	581,00
-29140,81	645,00
-29057,99	683,00
-28975,50	588,00
-28893,34	725,00
-28811,51	641,00
-28730,00	610,00
-28648,82	542,00
-28567,97	667,00
-28487,43	678,00
-28407,21	598,00
-28327,32	631,00
-28247,73	716,00
-28168,46	595,00
-28089,50	686,00
-28010,85	492,00
-27932,51	555,00
-27854,48	747,00
-27776,75	633,00
-27699,32	633,00
-27622,19	662,00
-27545,37	661,00
-27468,84	699,00
-27392,60	682,00
-27316,66	646,00
-27241,01	588,00
-27165,66	636,00
-27090,59	631,00
-27015,81	606,00
-26941,31	740,00
-26867,10	678,00
-26793,17	563,00
-26719,52	723,00
-26646,15	618,00
-26573,06	701,00
-26500,24	729,00
-26427,70	635,00
-26355,43	781,00
-26283,43	689,00
-26211,71	747,00
-26140,25	662,00
-26069,06	869,00
-25998,13	488,00
-25927,46	584,00
-25857,06	678,00
-25786,92	657,00
-25717,04	624,00
-25647,42	609,00
-25578,05	646,00
-25508,94	648,00
-25440,09	571,00
-25371,48	618,00
-25303,13	537,00
-25235,02	617,00
-25167,17	710,00
-25099,56	655,00
-25032,19	612,00
-24965,07	721,00
-24898,20	602,00
-24831,56	662,00
-24765,17	623,00
-24699,01	588,00
-24633,10	675,00
-24567,41	576,00
-24501,97	678,00
-24436,75	572,00
-24371,77	614,00
-24307,03	645,00
-24242,51	471,00
-24178,22	747,00
-24114,16	607,00
-24050,32	685,00
-23986,71	590,00
-23923,32	707,00
-23860,16	589,00
-23797,22	606,00
-23734,50	676,00
-23672,00	601,00
-23609,71	579,00
-23547,65	603,00
-23485,80	619,00
-23424,16	619,00
-23362,74	690,00
-23301,53	553,00
-23240,54	630,00
-23179,75	618,00
-23119,17	616,00
-23058,80	602,00
-22998,64	719,00
-22938,68	583,00
-22878,93	683,00
-22819,39	652,00
-22760,04	593,00
-22700,90	714,00
-22641,96	674,00
-22583,22	691,00
-22524,68	624,00
-22466,33	552,00
-22408,19	665,00
-22350,23	673,00
-22292,48	684,00
-22234,92	590,00
-22177,55	766,00
-22120,37	739,00
-22063,38	629,00
-22006,58	682,00
-21949,98	551,00
-21893,56	462,00
-21837,33	655,00
-21781,28	698,00
-21725,42	639,00
-21669,74	657,00
-21614,25	645,00
-21558,94	563,00
-21503,81	591,00
-21448,86	670,00
-21394,10	653,00
-21339,51	544,00
-21285,10	520,00
-21230,86	533,00
-21176,81	548,00
-21122,93	596,00
-21069,22	569,00
-21015,69	620,00
-20962,33	650,00
-20909,14	699,00
-20856,13	536,00
-20803,28	629,00
-20750,61	600,00
-20698,10	567,00
-20645,76	685,00
-20593,59	769,00
-20541,59	568,00
-20489,75	762,00
-20438,07	560,00
-20386,56	722,00
-20335,22	628,00
-20284,03	633,00
-20233,01	566,00
-20182,15	636,00
-20131,45	521,00
-20080,91	626,00
-20030,52	544,00
-19980,30	565,00
-19930,23	599,00
-19880,32	683,00
-19830,56	713,00
-19780,96	567,00
-19731,52	617,00
-19682,23	701,00
-19633,09	614,00
-19584,10	597,00
-19535,26	631,00
-19486,58	694,00
-19438,04	595,00
-19389,66	637,00
-19341,42	617,00
-19293,33	598,00
-19245,39	574,00
-19197,60	576,00
-19149,95	552,00
-19102,45	736,00
-19055,09	643,00
-19007,87	649,00
-18960,80	675,00
-18913,87	642,00
-18867,09	634,00
-18820,44	725,00
-18773,94	720,00
-18727,57	584,00
-18681,35	550,00
-18635,26	640,00
-18589,31	600,00
-18543,50	591,00
-18497,83	676,00
-18452,29	616,00
-18406,89	606,00
-18361,63	687,00
-18316,50	642,00
-18271,50	562,00
-18226,63	673,00
-18181,90	619,00
-18137,30	675,00
-18092,84	522,00
-18048,50	613,00
-18004,29	525,00
-17960,22	660,00
-17916,27	679,00
-17872,45	666,00
-17828,76	660,00
-17785,20	703,00
-17741,77	605,00
-17698,46	594,00
-17655,28	527,00
-17612,22	637,00
-17569,29	529,00
-17526,48	693,00
-17483,79	556,00
-17441,23	597,00
-17398,79	648,00
-17356,48	610,00
-17314,28	751,00
-17272,21	581,00
-17230,26	516,00
-17188,42	672,00
-17146,71	573,00
-17105,12	674,00
-17063,64	647,00
-17022,28	604,00
-16981,04	634,00
-16939,92	600,00
-16898,91	754,00
-16858,02	668,00
-16817,25	542,00
-16776,59	580,00
-16736,04	593,00
-16695,61	543,00
-16655,29	620,00
-16615,09	722,00
-16574,99	662,00
-16535,01	569,00
-16495,15	608,00
-16455,39	678,00
-16415,74	604,00
-16376,21	563,00
-16336,78	578,00
-16297,46	599,00
-16258,26	662,00
-16219,16	680,00
-16180,17	616,00
-16141,28	702,00
-16102,51	638,00
-16063,84	674,00
-16025,27	667,00
-15986,82	589,00
-15948,46	592,00
-15910,22	671,00
-15872,07	559,00
-15834,04	556,00
-15796,10	635,00
-15758,27	685,00
-15720,54	598,00
-15682,91	631,00
-15645,39	652,00
-15607,97	568,00
-15570,64	560,00
-15533,42	583,00
-15496,30	621,00
-15459,28	600,00
-15422,36	555,00
-15385,54	570,00
-15348,82	634,00
-15312,19	657,00
-15275,66	615,00
-15239,23	532,00
-15202,90	646,00
-15166,67	475,00
-15130,53	679,00
-15094,48	709,00
-15058,54	659,00
-15022,68	501,00
-14986,93	580,00
-14951,26	573,00
-14915,69	530,00
-14880,22	598,00
-14844,84	599,00
-14809,55	604,00
-14774,35	645,00
-14739,25	692,00
-14704,24	650,00
-14669,32	628,00
-14634,49	553,00
-14599,75	682,00
-14565,10	573,00
-14530,55	716,00
-14496,08	679,00
-14461,70	678,00
-14427,41	630,00
-14393,21	612,00
-14359,10	596,00
-14325,07	697,00
-14291,14	526,00
-14257,29	604,00
-14223,52	551,00
-14189,85	778,00
-14156,26	571,00
-14122,76	579,00
-14089,34	633,00
-14056,01	495,00
-14022,76	710,00
-13989,60	714,00
-13956,52	584,00
-13923,53	627,00
-13890,62	615,00
-13857,79	549,00
-13825,05	545,00
-13792,39	596,00
-13759,81	614,00
-13727,31	582,00
-13694,90	582,00
-13662,57	669,00
-13630,31	621,00
-13598,14	639,00
-13566,05	562,00
-13534,05	610,00
-13502,12	538,00
-13470,27	630,00
-13438,50	606,00
-13406,80	612,00
-13375,19	579,00
-13343,66	632,00
-13312,20	652,00
-13280,83	555,00
-13249,53	605,00
-13218,30	546,00
-13187,16	517,00
-13156,09	711,00
-13125,10	599,00
-13094,18	588,00
-13063,34	729,00
-13032,58	542,00
-13001,89	735,00
-12971,28	643,00
-12940,74	658,00
-12910,27	634,00
-12879,88	576,00
-12849,57	634,00
-12819,33	632,00
-12789,16	615,00
-12759,06	520,00
-12729,04	652,00
-12699,09	1355,00
-12669,21	603,00
-12639,41	676,00
-12609,68	637,00
-12580,02	568,00
-12550,43	723,00
-12520,91	465,00
-12491,46	552,00
-12462,08	588,00
-12432,77	586,00
-12403,54	667,00
-12374,37	596,00
-12345,27	599,00
-12316,24	545,00
-12287,29	746,00
-12258,40	653,00
-12229,57	613,00
-12200,82	616,00
-12172,14	618,00
-12143,52	616,00
-12114,97	572,00
-12086,49	636,00
-12058,07	631,00
-12029,73	651,00
-12001,44	714,00
-11973,23	602,00
-11945,08	615,00
-11917,00	630,00
-11888,98	564,00
-11861,03	564,00
-11833,15	621,00
-11805,32	590,00
-11777,57	656,00
-11749,88	555,00
-11722,25	588,00
-11694,69	634,00
-11667,19	674,00
-11639,75	649,00
-11612,38	651,00
-11585,07	576,00
-11557,83	707,00
-11530,65	668,00
-11503,53	697,00
-11476,47	705,00
-11449,48	627,00
-11422,54	624,00
-11395,67	605,00
-11368,86	618,00
-11342,11	621,00
-11315,43	592,00
-11288,80	555,00
-11262,23	741,00
-11235,73	539,00
-11209,28	577,00
-11182,90	630,00
-11156,57	698,00
-11130,31	714,00
-11104,10	691,00
-11077,96	615,00
-11051,87	612,00
-11025,84	679,00
-10999,87	562,00
-10973,96	705,00
-10948,11	547,00
-10922,31	514,00
-10896,58	689,00
-10870,90	742,00
-10845,28	608,00
-10819,71	534,00
-10794,20	591,00
-10768,75	670,00
-10743,36	531,00
-10718,02	616,00
-10692,74	627,00
-10667,52	522,00
-10642,35	724,00
-10617,24	633,00
-10592,18	626,00
-10567,18	596,00
-10542,23	597,00
-10517,34	613,00
-10492,51	698,00
-10467,72	607,00
-10443,00	603,00
-10418,32	711,00
-10393,70	589,00
-10369,14	519,00
-10344,63	583,00
-10320,17	620,00
-10295,77	652,00
-10271,42	624,00
-10247,12	618,00
-10222,88	633,00
-10198,68	502,00
-10174,54	497,00
-10150,46	625,00
-10126,42	604,00
-10102,44	617,00
-10078,51	522,00
-10054,63	579,00
-10030,80	499,00
-10007,03	612,00
-9983,30	572,00
-9959,63	556,00
-9936,01	556,00
-9912,44	642,00
-9888,92	580,00
-9865,44	507,00
-9842,02	546,00
-9818,65	508,00
-9795,33	526,00
-9772,06	520,00
-9748,84	429,00
-9725,67	511,00
-9702,55	498,00
-9679,47	544,00
-9656,45	445,00
-9633,47	426,00
-9610,55	373,00
-9587,67	452,00
-9564,84	575,00
-9542,06	468,00
-9519,32	352,00
-9496,64	434,00
-9474,00	239,00
-9451,41	307,00
-9428,87	321,00
-9406,37	232,00
-9383,92	308,00
-9361,52	228,00
-9339,17	207,00
-9316,86	50,00
-9294,60	4,00
-9272,38	268,00
-9250,21	159,00
-9228,09	128,00
-9206,01	106,00
-9183,98	40,00
-9162,00	25,00
-9140,06	129,00
-9118,16	-48,00
-9096,31	180,00
-9074,51	61,00
-9052,75	168,00
-9031,04	257,00
-9009,37	43,00
-8987,74	206,00
-8966,16	235,00
-8944,63	225,00
-8923,14	145,00
-8901,69	226,00
-8880,29	217,00
-8858,93	348,00
-8837,61	287,00
-8816,34	189,00
-8795,11	261,00
-8773,92	319,00
-8752,78	362,00
-8731,68	258,00
-8710,62	334,00
-8689,61	155,00
-8668,63	225,00
-8647,70	397,00
-8626,82	280,00
-8605,97	330,00
-8585,17	324,00
-8564,41	247,00
-8543,69	327,00
-8523,01	195,00
-8502,37	369,00
-8481,78	313,00
-8461,23	133,00
-8440,71	259,00
-8420,24	216,00
-8399,81	314,00
-8379,42	409,00
-8359,08	408,00
-8338,77	271,00
-8318,50	413,00
-8298,27	375,00
-8278,09	407,00
-8257,94	269,00
-8237,83	371,00
-8217,76	329,00
-8197,74	261,00
-8177,75	359,00
-8157,80	409,00
-8137,89	335,00
-8118,02	398,00
-8098,19	539,00
-8078,40	493,00
-8058,65	360,00
-8038,93	487,00
-8019,26	473,00
-7999,62	472,00
-7980,02	357,00
-7960,46	515,00
-7940,94	435,00
-7921,46	423,00
-7902,01	351,00
-7882,60	537,00
-7863,23	492,00
-7843,90	510,00
-7824,61	417,00
-7805,35	465,00
-7786,13	463,00
-7766,95	389,00
-7747,80	418,00
-7728,69	519,00
-7709,62	474,00
-7690,59	536,00
-7671,59	451,00
-7652,63	459,00
-7633,70	493,00
-7614,81	471,00
-7595,96	489,00
-7577,15	432,00
-7558,37	441,00
-7539,62	425,00
-7520,91	426,00
-7502,24	491,00
-7483,60	466,00
-7465,00	556,00
-7446,44	480,00
-7427,91	456,00
-7409,41	543,00
-7390,95	523,00
-7372,53	305,00
-7354,14	455,00
-7335,78	462,00
-7317,46	497,00
-7299,18	417,00
-7280,92	507,00
-7262,71	528,00
-7244,52	464,00
-7226,38	436,00
-7208,26	470,00
-7190,18	468,00
-7172,14	521,00
-7154,12	524,00
-7136,15	402,00
-7118,20	507,00
-7100,29	510,00
-7082,41	516,00
-7064,57	472,00
-7046,76	404,00
-7028,98	411,00
-7011,24	554,00
-6993,53	346,00
-6975,85	422,00
-6958,20	414,00
-6940,59	440,00
-6923,01	320,00
-6905,46	536,00
-6887,94	416,00
-6870,46	690,00
-6853,01	440,00
-6835,59	406,00
-6818,21	405,00
-6800,85	527,00
-6783,53	429,00
-6766,24	457,00
-6748,98	388,00
-6731,76	373,00
-6714,56	363,00
-6697,40	374,00
-6680,26	321,00
-6663,16	492,00
-6646,09	480,00
-6629,05	414,00
-6612,05	429,00
-6595,07	378,00
-6578,13	464,00
-6561,21	417,00
-6544,33	427,00
-6527,47	482,00
-6510,65	493,00
-6493,86	439,00
-6477,10	303,00
-6460,36	428,00
-6443,66	347,00
-6426,99	464,00
-6410,35	436,00
-6393,74	499,00
-6377,16	422,00
-6360,61	379,00
-6344,09	393,00
-6327,59	428,00
-6311,13	278,00
-6294,70	579,00
-6278,29	536,00
-6261,92	501,00
-6245,58	405,00
-6229,26	560,00
-6212,97	401,00
-6196,72	523,00
-6180,49	523,00
-6164,29	392,00
-6148,12	499,00
-6131,98	414,00
-6115,86	408,00
-6099,78	362,00
-6083,72	409,00
-6067,69	441,00
-6051,69	491,00
-6035,72	499,00
-6019,78	522,00
-6003,87	482,00
-5987,98	472,00
-5972,12	561,00
-5956,29	475,00
-5940,49	469,00
-5924,71	505,00
-5908,96	448,00
-5893,24	495,00
-5877,55	486,00
-5861,89	452,00
-5846,25	462,00
-5830,64	415,00
-5815,05	408,00
-5799,50	446,00
-5783,97	478,00
-5768,47	636,00
-5752,99	546,00
-5737,55	415,00
-5722,12	453,00
-5706,73	447,00
-5691,36	573,00
-5676,02	456,00
-5660,71	575,00
-5645,42	469,00
-5630,16	570,00
-5614,92	460,00
-5599,71	278,00
-5584,53	549,00
-5569,37	416,00
-5554,24	1330,00
-5539,14	505,00
-5524,06	570,00
-5509,01	449,00
-5493,98	453,00
-5478,98	524,00
-5464,00	449,00
-5449,05	356,00
-5434,13	437,00
-5419,23	561,00
-5404,36	411,00
-5389,51	486,00
-5374,69	440,00
-5359,89	407,00
-5345,12	553,00
-5330,37	618,00
-5315,65	587,00
-5300,95	547,00
-5286,28	497,00
-5271,63	425,00
-5257,01	539,00
-5242,41	475,00
-5227,84	532,00
-5213,29	548,00
-5198,76	546,00
-5184,26	433,00
-5169,79	510,00
-5155,33	451,00
-5140,91	486,00
-5126,51	510,00
-5112,13	512,00
-5097,77	625,00
-5083,44	660,00
-5069,13	464,00
-5054,85	624,00
-5040,59	535,00
-5026,36	520,00
-5012,15	500,00
-4997,96	531,00
-4983,80	501,00
-4969,66	558,00
-4955,54	576,00
-4941,44	644,00
-4927,37	533,00
-4913,33	565,00
-4899,30	312,00
-4885,30	499,00
-4871,33	611,00
-4857,37	592,00
-4843,44	581,00
-4829,53	712,00
-4815,65	565,00
-4801,79	403,00
-4787,95	351,00
-4774,13	458,00
-4760,34	447,00
-4746,56	614,00
-4732,82	547,00
-4719,09	501,00
-4705,38	594,00
-4691,70	534,00
-4678,04	495,00
-4664,41	554,00
-4650,79	666,00
-4637,20	541,00
-4623,63	620,00
-4610,08	606,00
-4596,56	549,00
-4583,05	525,00
-4569,57	538,00
-4556,11	496,00
-4542,67	541,00
-4529,25	563,00
-4515,86	656,00
-4502,49	582,00
-4489,13	516,00
-4475,80	642,00
-4462,49	562,00
-4449,21	768,00
-4435,94	558,00
-4422,70	683,00
-4409,47	494,00
-4396,27	594,00
-4383,09	593,00
-4369,93	572,00
-4356,79	601,00
-4343,67	589,00
-4330,58	520,00
-4317,50	479,00
-4304,45	577,00
-4291,41	526,00
-4278,40	606,00
-4265,41	547,00
-4252,44	582,00
-4239,49	506,00
-4226,55	642,00
-4213,65	662,00
-4200,76	724,00
-4187,89	529,00
-4175,04	596,00
-4162,21	661,00
-4149,40	537,00
-4136,61	595,00
-4123,85	581,00
-4111,10	633,00
-4098,37	706,00
-4085,66	667,00
-4072,98	601,00
-4060,31	631,00
-4047,66	706,00
-4035,04	756,00
-4022,43	579,00
-4009,84	714,00
-3997,27	566,00
-3984,72	713,00
-3972,19	671,00
-3959,69	514,00
-3947,20	619,00
-3934,73	691,00
-3922,27	607,00
-3909,84	630,00
-3897,43	609,00
-3885,04	615,00
-3872,67	534,00
-3860,31	641,00
-3847,98	774,00
-3835,66	661,00
-3823,36	652,00
-3811,09	521,00
-3798,83	609,00
-3786,59	704,00
-3774,37	644,00
-3762,17	474,00
-3749,98	591,00
-3737,82	525,00
-3725,67	840,00
-3713,55	565,00
-3701,44	713,00
-3689,35	649,00
-3677,28	571,00
-3665,22	625,00
-3653,19	572,00
-3641,17	668,00
-3629,18	608,00
-3617,20	638,00
-3605,24	700,00
-3593,30	685,00
-3581,37	586,00
-3569,47	706,00
-3557,58	700,00
-3545,71	569,00
-3533,86	717,00
-3522,02	591,00
-3510,21	623,00
-3498,41	633,00
-3486,63	641,00
-3474,87	627,00
-3463,12	546,00
-3451,40	600,00
-3439,69	663,00
-3428,00	653,00
-3416,33	693,00
-3404,67	573,00
-3393,03	708,00
-3381,41	619,00
-3369,81	660,00
-3358,22	526,00
-3346,66	673,00
-3335,10	569,00
-3323,57	587,00
-3312,06	664,00
-3300,56	617,00
-3289,08	535,00
-3277,61	564,00
-3266,16	719,00
-3254,73	724,00
-3243,32	592,00
-3231,92	708,00
-3220,55	512,00
-3209,18	584,00
-3197,84	684,00
-3186,51	546,00
-3175,20	549,00
-3163,90	645,00
-3152,63	633,00
-3141,36	609,00
-3130,12	680,00
-3118,89	642,00
-3107,68	638,00
-3096,49	653,00
-3085,31	614,00
-3074,15	605,00
-3063,00	646,00
-3051,87	670,00
-3040,76	661,00
-3029,67	652,00
-3018,59	828,00
-3007,52	667,00
-2996,48	747,00
-2985,44	566,00
-2974,43	595,00
-2963,43	655,00
-2952,45	526,00
-2941,48	684,00
-2930,53	692,00
-2919,60	624,00
-2908,68	568,00
-2897,78	662,00
-2886,89	740,00
-2876,02	627,00
-2865,17	592,00
-2854,33	630,00
-2843,50	538,00
-2832,70	500,00
-2821,90	632,00
-2811,13	653,00
-2800,37	591,00
-2789,62	702,00
-2778,89	687,00
-2768,18	681,00
-2757,48	668,00
-2746,80	681,00
-2736,13	683,00
-2725,48	565,00
-2714,84	669,00
-2704,22	578,00
-2693,61	624,00
-2683,02	688,00
-2672,45	613,00
-2661,89	671,00
-2651,34	630,00
-2640,81	618,00
-2630,30	596,00
-2619,80	679,00
-2609,31	748,00
-2598,84	609,00
-2588,39	643,00
-2577,95	562,00
-2567,52	572,00
-2557,11	669,00
-2546,71	591,00
-2536,33	637,00
-2525,97	633,00
-2515,62	578,00
-2505,28	622,00
-2494,96	643,00
-2484,65	588,00
-2474,36	711,00
-2464,08	567,00
-2453,82	715,00
-2443,57	703,00
-2433,33	590,00
-2423,11	595,00
-2412,91	576,00
-2402,72	571,00
-2392,54	610,00
-2382,38	584,00
-2372,23	761,00
-2362,09	4814,00
-2351,97	490,00
-2341,87	593,00
-2331,78	704,00
-2321,70	607,00
-2311,64	655,00
-2301,59	565,00
-2291,55	614,00
-2281,53	718,00
-2271,53	622,00
-2261,53	787,00
-2251,55	618,00
-2241,59	644,00
-2231,64	685,00
-2221,70	609,00
-2211,78	743,00
-2201,87	641,00
-2191,97	570,00
-2182,09	677,00
-2172,22	725,00
-2162,37	583,00
-2152,53	596,00
-2142,70	542,00
-2132,89	559,00
-2123,09	660,00
-2113,30	641,00
-2103,53	638,00
-2093,77	628,00
-2084,02	528,00
-2074,29	630,00
-2064,57	654,00
-2054,86	615,00
-2045,17	634,00
-2035,49	746,00
-2025,82	626,00
-2016,17	580,00
-2006,53	607,00
-1996,91	608,00
-1987,29	497,00
-1977,69	646,00
-1968,11	617,00
-1958,53	549,00
-1948,97	683,00
-1939,42	622,00
-1929,89	531,00
-1920,37	652,00
-1910,86	658,00
-1901,36	655,00
-1891,88	588,00
-1882,41	698,00
-1872,95	640,00
-1863,51	605,00
-1854,08	652,00
-1844,66	677,00
-1835,26	539,00
-1825,86	610,00
-1816,48	595,00
-1807,11	635,00
-1797,76	682,00
-1788,42	566,00
-1779,09	735,00
-1769,77	667,00
-1760,47	839,00
-1751,17	642,00
-1741,89	648,00
-1732,63	592,00
-1723,37	859,00
-1714,13	699,00
-1704,90	572,00
-1695,68	711,00
-1686,48	587,00
-1677,29	620,00
-1668,11	800,00
-1658,94	701,00
-1649,78	630,00
-1640,64	515,00
-1631,51	588,00
-1622,39	691,00
-1613,28	717,00
-1604,19	775,00
-1595,10	637,00
-1586,03	596,00
-1576,97	712,00
-1567,93	606,00
-1558,89	662,00
-1549,87	752,00
-1540,86	659,00
-1531,86	594,00
-1522,87	550,00
-1513,90	734,00
-1504,93	669,00
-1495,98	683,00
-1487,04	776,00
-1478,12	714,00
-1469,20	551,00
-1460,30	625,00
-1451,40	759,00
-1442,52	592,00
-1433,65	667,00
-1424,80	592,00
-1415,95	598,00
-1407,12	760,00
-1398,30	581,00
-1389,48	555,00
-1380,69	633,00
-1371,90	654,00
-1363,12	626,00
-1354,36	713,00
-1345,60	682,00
-1336,86	618,00
-1328,13	737,00
-1319,41	674,00
-1310,70	665,00
-1302,01	657,00
-1293,32	578,00
-1284,65	621,00
-1275,99	689,00
-1267,33	715,00
-1258,69	651,00
-1250,06	694,00
-1241,45	640,00
-1232,84	663,00
-1224,25	654,00
-1215,66	646,00
-1207,09	657,00
-1198,53	628,00
-1189,97	596,00
-1181,43	648,00
-1172,91	608,00
-1164,39	640,00
-1155,88	639,00
-1147,38	495,00
-1138,90	648,00
-1130,43	609,00
-1121,96	690,00
-1113,51	657,00
-1105,07	688,00
-1096,64	564,00
-1088,22	661,00
-1079,81	679,00
-1071,41	703,00
-1063,02	617,00
-1054,65	633,00
-1046,28	593,00
-1037,92	712,00
-1029,58	588,00
-1021,24	588,00
-1012,92	980,00
-1004,61	671,00
-996,30	850,00
-988,01	550,00
-979,73	685,00
-971,46	626,00
-963,20	520,00
-954,95	535,00
-946,71	506,00
-938,48	528,00
-930,26	723,00
-922,06	689,00
-913,86	731,00
-905,67	577,00
-897,49	629,00
-889,33	617,00
-881,17	700,00
-873,02	648,00
-864,89	562,00
-856,76	626,00
-848,65	669,00
-840,54	682,00
-832,45	682,00
-824,36	538,00
-816,29	690,00
-808,22	627,00
-800,17	662,00
-792,12	642,00
-784,09	821,00
-776,06	569,00
-768,05	671,00
-760,04	594,00
-752,05	568,00
-744,07	642,00
-736,09	643,00
-728,13	595,00
-720,17	647,00
-712,23	611,00
-704,29	675,00
-696,37	697,00
-688,45	615,00
-680,55	555,00
-672,65	551,00
-664,77	554,00
-656,89	604,00
-649,03	625,00
-641,17	604,00
-633,32	768,00
-625,49	647,00
-617,66	663,00
-609,84	627,00
-602,03	520,00
-594,23	616,00
-586,45	691,00
-578,67	551,00
-570,90	553,00
-563,14	522,00
-555,39	676,00
-547,65	688,00
-539,91	661,00
-532,19	622,00
-524,48	659,00
-516,78	581,00
-509,08	628,00
-501,40	620,00
-493,72	587,00
-486,06	624,00
-478,40	762,00
-470,76	598,00
-463,12	604,00
-455,49	627,00
-447,87	622,00
-440,26	660,00
-432,66	625,00
-425,07	671,00
-417,49	598,00
-409,92	610,00
-402,35	562,00
-394,80	655,00
-387,25	680,00
-379,72	710,00
-372,19	607,00
-364,67	729,00
-357,17	675,00
-349,67	684,00
-342,18	633,00
-334,69	639,00
-327,22	622,00
-319,76	686,00
-312,30	696,00
-304,86	710,00
-297,42	645,00
-290,00	554,00
-282,58	677,00
-275,17	772,00
-267,77	736,00
-260,37	569,00
-252,99	739,00
-245,62	675,00
-238,25	677,00
-230,90	685,00
-223,55	767,00
-216,21	728,00
-208,88	723,00
-201,56	658,00
-194,25	727,00
-186,94	614,00
-179,65	768,00
-172,36	830,00
-165,08	759,00
-157,81	868,00
-150,55	786,00
-143,30	912,00
-136,06	768,00
-128,82	841,00
-121,60	804,00
-114,38	947,00
-107,17	949,00
-99,97	993,00
-92,78	1032,00
-85,60	1110,00
-78,42	1249,00
-71,25	1302,00
-64,10	1380,00
-56,95	1532,00
-49,81	1676,00
-42,67	2080,00
-35,55	2274,00
-28,43	2979,00
-21,33	4337,00
-14,23	13105,00
-7,14	57775,00
-0,05	57564,00
7,02	57281,00
14,09	45138,00
21,14	12131,00
28,19	5367,00
35,23	3657,00
42,27	2925,00
49,29	2503,00
56,31	2227,00
63,32	2055,00
70,32	1651,00
77,31	1426,00
84,29	1293,00
91,27	1356,00
98,23	1386,00
105,19	1176,00
112,14	1283,00
119,09	1490,00
126,02	1977,00
132,95	2217,00
139,87	2311,00
146,78	2405,00
153,68	2319,00
160,58	2193,00
167,46	2232,00
174,34	2276,00
181,21	2267,00
188,08	2213,00
194,93	2362,00
201,78	2114,00
208,62	2223,00
215,45	2192,00
222,27	2317,00
229,09	2401,00
235,90	2237,00
242,70	2214,00
249,49	2205,00
256,27	2118,00
263,05	2215,00
269,82	2104,00
276,58	2175,00
283,33	2116,00
290,08	2179,00
296,82	2082,00
303,55	2137,00
310,27	1936,00
316,98	2160,00
323,69	2077,00
330,39	2128,00
337,08	2176,00
343,76	2130,00
350,44	2112,00
357,11	2252,00
363,77	2007,00
370,42	2039,00
377,07	2177,00
383,71	2164,00
390,34	2126,00
396,96	2090,00
403,58	2024,00
410,19	2104,00
416,79	2130,00
423,38	2129,00
429,97	2082,00
436,55	1967,00
443,12	2001,00
449,68	2033,00
456,24	2064,00
462,79	2101,00
469,33	2043,00
475,86	2038,00
482,39	1995,00
488,91	2038,00
495,42	1961,00
501,93	1978,00
508,42	1894,00
514,91	2015,00
521,40	1917,00
527,87	1930,00
534,34	1839,00
540,80	2027,00
547,25	1989,00
553,70	2043,00
560,14	2030,00
566,57	2063,00
573,00	1975,00
579,41	2100,00
585,83	1995,00
592,23	1901,00
598,62	1990,00
605,01	1908,00
611,40	1941,00
617,77	2035,00
624,14	1949,00
630,50	1992,00
636,85	2043,00
643,20	1992,00
649,54	1848,00
655,87	1989,00
662,20	2066,00
668,52	1924,00
674,83	1976,00
681,13	2056,00
687,43	1969,00
693,72	1936,00
700,00	1899,00
706,28	1867,00
712,55	1917,00
718,81	1971,00
725,07	1908,00
731,32	1896,00
737,56	2017,00
743,79	2006,00
750,02	1972,00
756,24	1924,00
762,46	1860,00
768,67	2214,00
774,87	1990,00
781,06	1980,00
787,25	1967,00
793,43	1949,00
799,60	1848,00
805,77	2042,00
811,93	1897,00
818,08	1949,00
824,23	1953,00
830,37	2123,00
836,50	1954,00
842,63	1990,00
848,75	1962,00
854,87	2017,00
860,97	1971,00
867,07	2064,00
873,17	2009,00
879,25	1994,00
885,33	2055,00
891,41	1960,00
897,47	2042,00
903,53	2050,00
909,59	2069,00
915,63	2036,00
921,67	1922,00
927,71	2019,00
933,74	1926,00
939,76	1873,00
945,77	1862,00
951,78	2003,00
957,78	1918,00
963,78	2138,00
969,77	2014,00
975,75	2037,00
981,72	1937,00
987,69	2942,00
993,66	2054,00
999,61	1956,00
1005,56	2036,00
1011,51	1850,00
1017,44	2031,00
1023,37	2005,00
1029,30	2026,00
1035,22	2074,00
1041,13	2062,00
1047,03	2004,00
1052,93	2199,00
1058,83	2452,00
1064,71	2631,00
1070,59	2411,00
1076,47	2205,00
1082,33	2212,00
1088,20	2178,00
1094,05	2194,00
1099,90	1956,00
1105,74	2120,00
1111,58	2083,00
1117,41	2184,00
1123,23	2380,00
1129,05	2695,00
1134,86	2502,00
1140,67	2349,00
1146,47	2276,00
1152,26	2183,00
1158,05	1952,00
1163,83	2079,00
1169,60	2122,00
1175,37	2132,00
1181,13	2001,00
1186,89	2097,00
1192,64	2036,00
1198,38	2151,00
1204,12	2023,00
1209,85	2069,00
1215,58	2095,00
1221,30	2162,00
1227,02	2163,00
1232,72	2126,00
1238,43	1982,00
1244,12	2176,00
1249,81	2104,00
1255,50	2186,00
1261,17	2115,00
1266,85	2045,00
1272,51	2166,00
1278,17	2190,00
1283,83	2146,00
1289,47	2572,00
1295,12	2912,00
1300,75	2747,00
1306,38	2531,00
1312,01	2229,00
1317,63	2257,00
1323,24	2190,00
1328,85	2192,00
1334,45	2243,00
1340,04	2192,00
1345,63	2097,00
1351,22	2290,00
1356,80	2117,00
1362,37	2270,00
1367,93	2234,00
1373,49	2229,00
1379,05	2120,00
1384,60	2188,00
1390,14	2216,00
1395,68	2165,00
1401,21	2208,00
1406,74	2321,00
1412,26	2349,00
1417,77	2567,00
1423,28	2416,00
1428,78	2613,00
1434,28	2726,00
1439,77	2886,00
1445,26	2866,00
1450,74	2802,00
1456,22	2722,00
1461,68	2728,00
1467,15	2552,00
1472,61	2385,00
1478,06	2439,00
1483,51	2260,00
1488,95	2230,00
1494,38	2200,00
1499,81	2081,00
1505,24	2066,00
1510,65	2148,00
1516,07	2134,00
1521,48	2001,00
1526,88	1926,00
1532,27	2088,00
1537,67	1949,00
1543,05	2084,00
1548,43	1933,00
1553,81	1989,00
1559,18	2009,00
1564,54	2070,00
1569,90	2078,00
1575,25	1955,00
1580,60	1894,00
1585,94	2031,00
1591,28	1943,00
1596,61	1967,00
1601,93	2012,00
1607,25	2047,00
1612,57	2037,00
1617,88	2065,00
1623,18	1972,00
1628,48	2027,00
1633,77	1894,00
1639,06	2004,00
1644,34	1831,00
1649,62	1999,00
1654,89	2119,00
1660,16	1951,00
1665,42	2007,00
1670,67	1876,00
1675,92	1974,00
1681,17	1975,00
1686,41	1844,00
1691,64	2011,00
1696,87	1842,00
1702,10	1888,00
1707,32	1941,00
1712,53	1953,00
1717,74	2003,00
1722,94	1906,00
1728,14	1849,00
1733,33	1903,00
1738,52	1884,00
1743,70	1858,00
1748,88	1795,00
1754,05	1858,00
1759,22	1709,00
1764,38	3233,00
1769,53	1800,00
1774,69	1900,00
1779,83	1845,00
1784,97	1803,00
1790,11	1810,00
1795,24	1849,00
1800,36	1850,00
1805,48	1779,00
1810,60	1686,00
1815,71	1778,00
1820,82	1724,00
1825,92	1781,00
1831,01	1716,00
1836,10	1743,00
1841,19	1768,00
1846,26	1701,00
1851,34	1787,00
1856,41	1843,00
1861,47	1767,00
1866,53	1814,00
1871,59	1882,00
1876,64	1776,00
1881,68	1775,00
1886,72	1925,00
1891,76	1746,00
1896,79	1759,00
1901,81	1589,00
1906,83	1720,00
1911,85	1726,00
1916,86	1715,00
1921,86	1701,00
1926,86	1667,00
1931,86	1691,00
1936,85	1746,00
1941,83	1716,00
1946,81	1669,00
1951,79	1761,00
1956,76	1616,00
1961,72	1593,00
1966,68	1544,00
1971,64	1604,00
1976,59	1572,00
1981,54	1698,00
1986,48	1558,00
1991,42	1592,00
1996,35	1728,00
2001,27	1705,00
2006,20	1569,00
2011,11	1683,00
2016,03	1620,00
2020,93	1659,00
2025,84	1664,00
2030,73	1582,00
2035,63	1518,00
2040,52	1641,00
2045,40	1589,00
2050,28	1554,00
2055,15	1664,00
2060,02	1456,00
2064,89	1666,00
2069,75	1591,00
2074,60	1594,00
2079,46	1567,00
2084,30	1522,00
2089,14	1471,00
2093,98	1573,00
2098,81	1664,00
2103,64	1645,00
2108,46	1513,00
2113,28	1586,00
2118,09	1537,00
2122,90	1568,00
2127,70	1539,00
2132,50	1598,00
2137,30	1527,00
2142,09	1486,00
2146,87	1414,00
2151,66	1624,00
2156,43	1622,00
2161,20	1550,00
2165,97	1518,00
2170,73	1509,00
2175,49	1589,00
2180,24	1556,00
2184,99	1673,00
2189,74	1560,00
2194,48	1518,00
2199,21	1632,00
2203,94	1458,00
2208,67	1428,00
2213,39	1328,00
2218,11	1502,00
2222,82	1520,00
2227,53	1428,00
2232,23	1577,00
2236,93	1444,00
2241,63	1523,00
2246,32	1397,00
2251,00	1454,00
2255,68	1518,00
2260,36	1450,00
2265,03	1481,00
2269,70	1576,00
2274,36	1428,00
2279,02	1375,00
2283,68	1423,00
2288,33	1316,00
2292,97	1413,00
2297,61	1439,00
2302,25	1399,00
2306,88	1340,00
2311,51	1315,00
2316,14	1392,00
2320,75	1437,00
2325,37	1316,00
2329,98	1440,00
2334,59	1318,00
2339,19	1475,00
2343,79	1311,00
2348,38	1307,00
2352,97	1332,00
2357,55	1380,00
2362,13	1420,00
2366,71	1256,00
2371,28	1381,00
2375,85	1395,00
2380,41	1365,00
2384,97	1386,00
2389,52	1355,00
2394,07	1278,00
2398,62	1433,00
2403,16	1289,00
2407,70	1213,00
2412,23	1431,00
2416,76	1435,00
2421,29	1374,00
2425,81	1406,00
2430,32	1356,00
2434,84	1242,00
2439,34	1299,00
2443,85	1374,00
2448,35	1276,00
2452,84	1237,00
2457,33	1224,00
2461,82	1210,00
2466,30	1180,00
2470,78	1379,00
2475,25	1209,00
2479,72	1239,00
2484,19	1168,00
2488,65	1230,00
2493,11	1132,00
2497,56	1286,00
2502,01	1133,00
2506,46	1184,00
2510,90	1266,00
2515,34	1242,00
2519,77	1273,00
2524,20	1123,00
2528,62	1240,00
2533,04	1263,00
2537,46	1072,00
2541,87	1080,00
2546,28	1202,00
2550,68	1122,00
2555,08	1145,00
2559,48	1228,00
2563,87	1194,00
2568,26	1163,00
2572,64	1116,00
2577,02	1292,00
2581,40	1024,00
2585,77	1174,00
2590,14	1161,00
2594,50	1022,00
2598,86	1185,00
2603,22	1099,00
2607,57	1188,00
2611,92	1127,00
2616,26	1249,00
2620,60	1221,00
2624,94	1122,00
2629,27	1226,00
2633,60	1038,00
2637,92	1203,00
2642,24	1181,00
2646,56	1112,00
2650,87	1116,00
2655,18	1187,00
2659,48	990,00
2663,78	1085,00
2668,08	1084,00
2672,37	1182,00
2676,66	1165,00
2680,95	1162,00
2685,23	1152,00
2689,50	1085,00
2693,78	1107,00
2698,05	1077,00
2702,31	1103,00
2706,57	1191,00
2710,83	1267,00
2715,08	1256,00
2719,33	1312,00
2723,58	1223,00
2727,82	1178,00
2732,06	1187,00
2736,29	1138,00
2740,53	1248,00
2744,75	1130,00
2748,97	1181,00
2753,19	1228,00
2757,41	1122,00
2761,62	1229,00
2765,83	1314,00
2770,03	1081,00
2774,23	1073,00
2778,43	1062,00
2782,62	1158,00
2786,81	1160,00
2791,00	1227,00
2795,18	1168,00
2799,35	1128,00
2803,53	1255,00
2807,70	1225,00
2811,86	1080,00
2816,03	1235,00
2820,19	1215,00
2824,34	1198,00
2828,49	1326,00
2832,64	1347,00
2836,78	1516,00
2840,92	1667,00
2845,06	1892,00
2849,19	1912,00
2853,32	1981,00
2857,45	2042,00
2861,57	1973,00
2865,69	1889,00
2869,80	1838,00
2873,91	1854,00
2878,02	1951,00
2882,12	2133,00
2886,22	2186,00
2890,32	2138,00
2894,41	1875,00
2898,50	1845,00
2902,58	1792,00
2906,67	1769,00
2910,74	1533,00
2914,82	1572,00
2918,89	1561,00
2922,96	1378,00
2927,02	1404,00
2931,08	1346,00
2935,13	1260,00
2939,19	1369,00
2943,24	1210,00
2947,28	1195,00
2951,32	1147,00
2955,36	1045,00
2959,40	1115,00
2963,43	1123,00
2967,46	1039,00
2971,48	982,00
2975,50	1057,00
2979,52	1035,00
2983,53	1016,00
2987,54	976,00
2991,55	1009,00
2995,55	942,00
2999,55	978,00
3003,54	907,00
3007,54	1033,00
3011,53	961,00
3015,51	940,00
3019,49	1022,00
3023,47	908,00
3027,45	920,00
3031,42	906,00
3035,39	905,00
3039,35	844,00
3043,31	915,00
3047,27	840,00
3051,22	940,00
3055,17	737,00
3059,12	796,00
3063,06	889,00
3067,00	754,00
3070,94	846,00
3074,87	854,00
3078,80	829,00
3082,73	805,00
3086,65	789,00
3090,57	775,00
3094,49	853,00
3098,40	878,00
3102,31	795,00
3106,22	842,00
3110,12	749,00
3114,02	755,00
3117,92	808,00
3121,81	701,00
3125,70	836,00
3129,58	756,00
3133,47	730,00
3137,34	823,00
3141,22	832,00
3145,09	890,00
3148,96	729,00
3152,83	716,00
3156,69	753,00
3160,55	721,00
3164,40	799,00
3168,26	748,00
3172,10	940,00
3175,95	853,00
3179,79	823,00
3183,63	781,00
3187,47	804,00
3191,30	652,00
3195,13	858,00
3198,95	728,00
3202,78	851,00
3206,60	735,00
3210,41	731,00
3214,23	723,00
3218,03	722,00
3221,84	717,00
3225,64	755,00
3229,44	699,00
3233,24	700,00
3237,03	738,00
3240,82	671,00
3244,61	745,00
3248,39	805,00
3252,17	730,00
3255,95	800,00
3259,72	835,00
3263,49	854,00
3267,26	645,00
3271,03	699,00
3274,79	699,00
3278,54	750,00
3282,30	630,00
3286,05	692,00
3289,80	666,00
3293,54	676,00
3297,29	702,00
3301,02	680,00
3304,76	752,00
3308,49	815,00
3312,22	654,00
3315,95	666,00
3319,67	609,00
3323,39	793,00
3327,10	745,00
3330,82	596,00
3334,53	724,00
3338,24	646,00
3341,94	721,00
3345,64	670,00
3349,34	672,00
3353,03	722,00
3356,72	603,00
3360,41	775,00
3364,10	689,00
3367,78	619,00
3371,46	745,00
3375,13	690,00
3378,81	776,00
3382,48	686,00
3386,14	776,00
3389,81	698,00
3393,47	611,00
3397,12	819,00
3400,78	703,00
3404,43	694,00
3408,08	660,00
3411,72	679,00
3415,36	648,00
3419,00	603,00
3422,64	734,00
3426,27	640,00
3429,90	694,00
3433,53	696,00
3437,15	579,00
3440,77	598,00
3444,39	614,00
3448,00	636,00
3451,62	623,00
3455,22	653,00
3458,83	635,00
3462,43	642,00
3466,03	686,00
3469,63	627,00
3473,22	709,00
3476,81	586,00
3480,40	709,00
3483,99	662,00
3487,57	699,00
3491,15	682,00
3494,72	535,00
3498,29	609,00
3501,86	632,00
3505,43	657,00
3508,99	684,00
3512,56	604,00
3516,11	712,00
3519,67	681,00
3523,22	703,00
3526,77	685,00
3530,32	517,00
3533,86	744,00
3537,40	631,00
3540,94	731,00
3544,47	601,00
3548,00	519,00
3551,53	698,00
3555,06	620,00
3558,58	787,00
3562,10	611,00
3565,62	624,00
3569,13	640,00
3572,64	592,00
3576,15	515,00
3579,66	601,00
3583,16	706,00
3586,66	632,00
3590,16	558,00
3593,65	619,00
3597,14	624,00
3600,63	609,00
3604,11	686,00
3607,60	648,00
3611,08	720,00
3614,55	571,00
3618,03	542,00
3621,50	583,00
3624,97	571,00
3628,43	744,00
3631,90	645,00
3635,36	568,00
3638,81	594,00
3642,27	758,00
3645,72	649,00
3649,17	660,00
3652,61	564,00
3656,06	480,00
3659,50	541,00
3662,93	612,00
3666,37	550,00
3669,80	695,00
3673,23	557,00
3676,65	673,00
3680,08	627,00
3683,50	599,00
3686,92	608,00
3690,33	560,00
3693,74	583,00
3697,15	448,00
3700,56	547,00
3703,96	582,00
3707,36	503,00
3710,76	571,00
3714,16	551,00
3717,55	483,00
3720,94	628,00
3724,33	568,00
3727,71	636,00
3731,10	491,00
3734,48	496,00
3737,85	521,00
3741,23	496,00
3744,60	562,00
3747,97	503,00
3751,33	510,00
3754,69	581,00
3758,05	505,00
3761,41	433,00
3764,77	480,00
3768,12	417,00
3771,47	554,00
3774,82	532,00
3778,16	-9,00
3781,50	7,00
3784,84	5,00
3788,18	4,00
>>>>>End Processed Spectral Data<<<<<
