SpectraSuite Data File
++++++++++++++++++++++++++++++++++++
Date: Mon Mar 09 15:07:05 ICT 2026
User: Administrator
Dark Spectrum Present: Yes
Reference Spectrum Present: No
Number of Sampled Component Spectra: 1
Spectrometers: MAYP113682
Integration Time (usec): 3000000 (MAYP113682)
Spectra Averaged: 1 (MAYP113682)
Boxcar Smoothing: 0 (MAYP113682)
Correct for Electrical Dark: No (MAYP113682)
Strobe/Lamp Enabled: No (MAYP113682)
Correct for Detector Non-linearity: No (MAYP113682)
Correct for Stray Light: No (MAYP113682)
Number of Pixels in Processed Spectrum: 2068
>>>>>Begin Processed Spectral Data<<<<<
-37534,58	5,00
-37414,56	-3,00
-37295,11	-2,00
-37176,24	2,00
-37057,95	-74,00
-36940,22	50,00
-36823,05	59,00
-36706,45	-30,00
-36590,40	70,00
-36474,90	-16,00
-36359,95	87,00
-36245,55	86,00
-36131,68	-70,00
-36018,35	-44,00
-35905,55	0,00
-35793,29	30,00
-35681,54	-49,00
-35570,32	-16,00
-35459,62	38,00
-35349,43	81,00
-35239,75	51,00
-35130,58	-50,00
-35021,91	-17,00
-34913,74	2,00
-34806,07	-66,00
-34698,89	-67,00
-34592,20	66,00
-34486,00	66,00
-34380,28	45,00
-34275,04	20,00
-34170,27	77,00
-34065,98	28,00
-33962,16	27,00
-33858,81	33,00
-33755,92	-18,00
-33653,49	89,00
-33551,52	-23,00
-33450,01	-6,00
-33348,94	160,00
-33248,33	151,00
-33148,16	32,00
-33048,43	-53,00
-32949,14	58,00
-32850,29	5,00
-32751,87	5,00
-32653,89	-36,00
-32556,33	-24,00
-32459,20	28,00
-32362,49	20,00
-32266,19	88,00
-32170,32	34,00
-32074,86	62,00
-31979,82	11,00
-31885,18	28,00
-31790,95	-52,00
-31697,12	6,00
-31603,69	-11,00
-31510,67	79,00
-31418,04	-28,00
-31325,80	91,00
-31233,95	81,00
-31142,49	6,00
-31051,42	20,00
-30960,73	-22,00
-30870,43	47,00
-30780,50	-27,00
-30690,95	-10,00
-30601,77	42,00
-30512,97	54,00
-30424,53	17,00
-30336,46	-86,00
-30248,76	-12,00
-30161,42	59,00
-30074,44	-112,00
-29987,81	27,00
-29901,55	101,00
-29815,63	79,00
-29730,07	87,00
-29644,86	14,00
-29560,00	6,00
-29475,48	68,00
-29391,30	65,00
-29307,47	33,00
-29223,97	-1,00
-29140,81	25,00
-29057,99	61,00
-28975,50	72,00
-28893,34	0,00
-28811,51	7,00
-28730,00	108,00
-28648,82	0,00
-28567,97	119,00
-28487,43	107,00
-28407,21	14,00
-28327,32	50,00
-28247,73	-21,00
-28168,46	43,00
-28089,50	-19,00
-28010,85	-17,00
-27932,51	-59,00
-27854,48	-87,00
-27776,75	94,00
-27699,32	-103,00
-27622,19	38,00
-27545,37	-8,00
-27468,84	17,00
-27392,60	34,00
-27316,66	-24,00
-27241,01	-42,00
-27165,66	23,00
-27090,59	-45,00
-27015,81	50,00
-26941,31	-48,00
-26867,10	31,00
-26793,17	-27,00
-26719,52	-96,00
-26646,15	97,00
-26573,06	92,00
-26500,24	85,00
-26427,70	125,00
-26355,43	-62,00
-26283,43	137,00
-26211,71	105,00
-26140,25	86,00
-26069,06	182,00
-25998,13	-9,00
-25927,46	17,00
-25857,06	2,00
-25786,92	-97,00
-25717,04	13,00
-25647,42	-67,00
-25578,05	-73,00
-25508,94	23,00
-25440,09	80,00
-25371,48	61,00
-25303,13	5,00
-25235,02	115,00
-25167,17	40,00
-25099,56	9,00
-25032,19	32,00
-24965,07	42,00
-24898,20	8,00
-24831,56	-2,00
-24765,17	67,00
-24699,01	-61,00
-24633,10	97,00
-24567,41	76,00
-24501,97	-7,00
-24436,75	28,00
-24371,77	-119,00
-24307,03	18,00
-24242,51	-64,00
-24178,22	92,00
-24114,16	-34,00
-24050,32	61,00
-23986,71	-56,00
-23923,32	-55,00
-23860,16	79,00
-23797,22	-28,00
-23734,50	-13,00
-23672,00	-30,00
-23609,71	55,00
-23547,65	39,00
-23485,80	-51,00
-23424,16	-30,00
-23362,74	7,00
-23301,53	-52,00
-23240,54	5,00
-23179,75	21,00
-23119,17	135,00
-23058,80	-17,00
-22998,64	128,00
-22938,68	-14,00
-22878,93	32,00
-22819,39	61,00
-22760,04	41,00
-22700,90	52,00
-22641,96	24,00
-22583,22	73,00
-22524,68	77,00
-22466,33	-24,00
-22408,19	-78,00
-22350,23	25,00
-22292,48	76,00
-22234,92	6,00
-22177,55	-6,00
-22120,37	2,00
-22063,38	-10,00
-22006,58	93,00
-21949,98	-18,00
-21893,56	61,00
-21837,33	31,00
-21781,28	56,00
-21725,42	-14,00
-21669,74	27,00
-21614,25	-78,00
-21558,94	47,00
-21503,81	52,00
-21448,86	6,00
-21394,10	18,00
-21339,51	-7,00
-21285,10	-9,00
-21230,86	42,00
-21176,81	62,00
-21122,93	84,00
-21069,22	53,00
-21015,69	-69,00
-20962,33	50,00
-20909,14	68,00
-20856,13	-54,00
-20803,28	30,00
-20750,61	8,00
-20698,10	33,00
-20645,76	117,00
-20593,59	190,00
-20541,59	-95,00
-20489,75	3,00
-20438,07	0,00
-20386,56	46,00
-20335,22	-96,00
-20284,03	19,00
-20233,01	4,00
-20182,15	-33,00
-20131,45	24,00
-20080,91	-42,00
-20030,52	-104,00
-19980,30	41,00
-19930,23	-10,00
-19880,32	-42,00
-19830,56	6,00
-19780,96	87,00
-19731,52	21,00
-19682,23	-77,00
-19633,09	41,00
-19584,10	77,00
-19535,26	25,00
-19486,58	19,00
-19438,04	155,00
-19389,66	17,00
-19341,42	36,00
-19293,33	75,00
-19245,39	132,00
-19197,60	-11,00
-19149,95	-31,00
-19102,45	68,00
-19055,09	22,00
-19007,87	39,00
-18960,80	-56,00
-18913,87	105,00
-18867,09	63,00
-18820,44	8,00
-18773,94	11,00
-18727,57	8,00
-18681,35	-4,00
-18635,26	50,00
-18589,31	87,00
-18543,50	-22,00
-18497,83	-48,00
-18452,29	23,00
-18406,89	8,00
-18361,63	46,00
-18316,50	99,00
-18271,50	5,00
-18226,63	9,00
-18181,90	33,00
-18137,30	-20,00
-18092,84	8,00
-18048,50	-4,00
-18004,29	-21,00
-17960,22	-92,00
-17916,27	12,00
-17872,45	-25,00
-17828,76	12,00
-17785,20	22,00
-17741,77	-59,00
-17698,46	52,00
-17655,28	118,00
-17612,22	4,00
-17569,29	-11,00
-17526,48	-14,00
-17483,79	-20,00
-17441,23	-22,00
-17398,79	6,00
-17356,48	21,00
-17314,28	114,00
-17272,21	-11,00
-17230,26	2,00
-17188,42	-32,00
-17146,71	71,00
-17105,12	22,00
-17063,64	-25,00
-17022,28	49,00
-16981,04	11,00
-16939,92	103,00
-16898,91	-57,00
-16858,02	12,00
-16817,25	-86,00
-16776,59	42,00
-16736,04	87,00
-16695,61	99,00
-16655,29	3,00
-16615,09	97,00
-16574,99	-55,00
-16535,01	68,00
-16495,15	-137,00
-16455,39	30,00
-16415,74	-103,00
-16376,21	20,00
-16336,78	31,00
-16297,46	-82,00
-16258,26	1,00
-16219,16	-65,00
-16180,17	61,00
-16141,28	-51,00
-16102,51	-74,00
-16063,84	55,00
-16025,27	-59,00
-15986,82	50,00
-15948,46	58,00
-15910,22	97,00
-15872,07	29,00
-15834,04	36,00
-15796,10	39,00
-15758,27	40,00
-15720,54	-19,00
-15682,91	-41,00
-15645,39	78,00
-15607,97	-28,00
-15570,64	170,00
-15533,42	51,00
-15496,30	-11,00
-15459,28	33,00
-15422,36	87,00
-15385,54	82,00
-15348,82	84,00
-15312,19	-40,00
-15275,66	59,00
-15239,23	-12,00
-15202,90	69,00
-15166,67	137,00
-15130,53	115,00
-15094,48	-14,00
-15058,54	-3,00
-15022,68	-30,00
-14986,93	57,00
-14951,26	-26,00
-14915,69	14,00
-14880,22	65,00
-14844,84	62,00
-14809,55	-106,00
-14774,35	43,00
-14739,25	111,00
-14704,24	-9,00
-14669,32	74,00
-14634,49	-212,00
-14599,75	-30,00
-14565,10	69,00
-14530,55	3,00
-14496,08	47,00
-14461,70	3,00
-14427,41	76,00
-14393,21	186,00
-14359,10	9,00
-14325,07	17,00
-14291,14	-63,00
-14257,29	-15,00
-14223,52	62,00
-14189,85	90,00
-14156,26	136,00
-14122,76	80,00
-14089,34	-7,00
-14056,01	-30,00
-14022,76	-65,00
-13989,60	19,00
-13956,52	16,00
-13923,53	54,00
-13890,62	35,00
-13857,79	-113,00
-13825,05	28,00
-13792,39	14,00
-13759,81	111,00
-13727,31	33,00
-13694,90	50,00
-13662,57	-56,00
-13630,31	108,00
-13598,14	-75,00
-13566,05	29,00
-13534,05	132,00
-13502,12	34,00
-13470,27	50,00
-13438,50	87,00
-13406,80	21,00
-13375,19	-14,00
-13343,66	4,00
-13312,20	0,00
-13280,83	-21,00
-13249,53	23,00
-13218,30	65,00
-13187,16	-44,00
-13156,09	24,00
-13125,10	33,00
-13094,18	53,00
-13063,34	-24,00
-13032,58	196,00
-13001,89	8,00
-12971,28	-40,00
-12940,74	-6,00
-12910,27	25,00
-12879,88	13,00
-12849,57	-130,00
-12819,33	84,00
-12789,16	-66,00
-12759,06	19,00
-12729,04	-27,00
-12699,09	-1405,00
-12669,21	57,00
-12639,41	-43,00
-12609,68	-31,00
-12580,02	5,00
-12550,43	-27,00
-12520,91	-56,00
-12491,46	-40,00
-12462,08	-35,00
-12432,77	42,00
-12403,54	-103,00
-12374,37	35,00
-12345,27	40,00
-12316,24	-34,00
-12287,29	-52,00
-12258,40	-27,00
-12229,57	-40,00
-12200,82	48,00
-12172,14	74,00
-12143,52	-4,00
-12114,97	20,00
-12086,49	12,00
-12058,07	-61,00
-12029,73	-81,00
-12001,44	-34,00
-11973,23	11,00
-11945,08	41,00
-11917,00	12,00
-11888,98	-4,00
-11861,03	46,00
-11833,15	-110,00
-11805,32	62,00
-11777,57	66,00
-11749,88	-30,00
-11722,25	-3,00
-11694,69	42,00
-11667,19	35,00
-11639,75	-5,00
-11612,38	-86,00
-11585,07	31,00
-11557,83	11,00
-11530,65	-173,00
-11503,53	32,00
-11476,47	24,00
-11449,48	8,00
-11422,54	-28,00
-11395,67	97,00
-11368,86	2,00
-11342,11	-3,00
-11315,43	34,00
-11288,80	-50,00
-11262,23	75,00
-11235,73	-33,00
-11209,28	-37,00
-11182,90	26,00
-11156,57	-22,00
-11130,31	59,00
-11104,10	28,00
-11077,96	151,00
-11051,87	67,00
-11025,84	-12,00
-10999,87	17,00
-10973,96	3,00
-10948,11	-36,00
-10922,31	16,00
-10896,58	110,00
-10870,90	-11,00
-10845,28	30,00
-10819,71	52,00
-10794,20	110,00
-10768,75	84,00
-10743,36	78,00
-10718,02	12,00
-10692,74	-22,00
-10667,52	69,00
-10642,35	1,00
-10617,24	43,00
-10592,18	57,00
-10567,18	64,00
-10542,23	126,00
-10517,34	75,00
-10492,51	183,00
-10467,72	-38,00
-10443,00	-16,00
-10418,32	23,00
-10393,70	75,00
-10369,14	107,00
-10344,63	45,00
-10320,17	27,00
-10295,77	29,00
-10271,42	38,00
-10247,12	52,00
-10222,88	-33,00
-10198,68	6,00
-10174,54	149,00
-10150,46	157,00
-10126,42	31,00
-10102,44	101,00
-10078,51	-50,00
-10054,63	136,00
-10030,80	37,00
-10007,03	125,00
-9983,30	173,00
-9959,63	187,00
-9936,01	165,00
-9912,44	107,00
-9888,92	46,00
-9865,44	177,00
-9842,02	119,00
-9818,65	176,00
-9795,33	134,00
-9772,06	100,00
-9748,84	193,00
-9725,67	137,00
-9702,55	241,00
-9679,47	214,00
-9656,45	253,00
-9633,47	291,00
-9610,55	213,00
-9587,67	287,00
-9564,84	226,00
-9542,06	173,00
-9519,32	233,00
-9496,64	518,00
-9474,00	463,00
-9451,41	514,00
-9428,87	471,00
-9406,37	354,00
-9383,92	364,00
-9361,52	228,00
-9339,17	408,00
-9316,86	387,00
-9294,60	463,00
-9272,38	681,00
-9250,21	828,00
-9228,09	861,00
-9206,01	788,00
-9183,98	586,00
-9162,00	528,00
-9140,06	411,00
-9118,16	484,00
-9096,31	627,00
-9074,51	636,00
-9052,75	701,00
-9031,04	551,00
-9009,37	551,00
-8987,74	514,00
-8966,16	369,00
-8944,63	321,00
-8923,14	186,00
-8901,69	342,00
-8880,29	426,00
-8858,93	551,00
-8837,61	528,00
-8816,34	590,00
-8795,11	603,00
-8773,92	627,00
-8752,78	510,00
-8731,68	336,00
-8710,62	501,00
-8689,61	389,00
-8668,63	636,00
-8647,70	584,00
-8626,82	585,00
-8605,97	657,00
-8585,17	466,00
-8564,41	430,00
-8543,69	334,00
-8523,01	365,00
-8502,37	428,00
-8481,78	340,00
-8461,23	546,00
-8440,71	469,00
-8420,24	515,00
-8399,81	752,00
-8379,42	491,00
-8359,08	462,00
-8338,77	529,00
-8318,50	434,00
-8298,27	378,00
-8278,09	438,00
-8257,94	429,00
-8237,83	588,00
-8217,76	652,00
-8197,74	564,00
-8177,75	538,00
-8157,80	545,00
-8137,89	440,00
-8118,02	463,00
-8098,19	458,00
-8078,40	556,00
-8058,65	418,00
-8038,93	427,00
-8019,26	593,00
-7999,62	474,00
-7980,02	374,00
-7960,46	396,00
-7940,94	445,00
-7921,46	345,00
-7902,01	338,00
-7882,60	287,00
-7863,23	403,00
-7843,90	435,00
-7824,61	436,00
-7805,35	450,00
-7786,13	444,00
-7766,95	456,00
-7747,80	375,00
-7728,69	444,00
-7709,62	404,00
-7690,59	507,00
-7671,59	490,00
-7652,63	515,00
-7633,70	479,00
-7614,81	356,00
-7595,96	496,00
-7577,15	371,00
-7558,37	425,00
-7539,62	388,00
-7520,91	440,00
-7502,24	468,00
-7483,60	505,00
-7465,00	413,00
-7446,44	314,00
-7427,91	262,00
-7409,41	265,00
-7390,95	200,00
-7372,53	157,00
-7354,14	129,00
-7335,78	303,00
-7317,46	345,00
-7299,18	281,00
-7280,92	391,00
-7262,71	481,00
-7244,52	506,00
-7226,38	368,00
-7208,26	390,00
-7190,18	366,00
-7172,14	333,00
-7154,12	324,00
-7136,15	380,00
-7118,20	371,00
-7100,29	379,00
-7082,41	428,00
-7064,57	430,00
-7046,76	458,00
-7028,98	332,00
-7011,24	354,00
-6993,53	182,00
-6975,85	201,00
-6958,20	77,00
-6940,59	209,00
-6923,01	138,00
-6905,46	212,00
-6887,94	231,00
-6870,46	2857,00
-6853,01	256,00
-6835,59	294,00
-6818,21	402,00
-6800,85	205,00
-6783,53	136,00
-6766,24	140,00
-6748,98	153,00
-6731,76	56,00
-6714,56	-12,00
-6697,40	79,00
-6680,26	91,00
-6663,16	194,00
-6646,09	154,00
-6629,05	301,00
-6612,05	266,00
-6595,07	216,00
-6578,13	222,00
-6561,21	93,00
-6544,33	79,00
-6527,47	69,00
-6510,65	157,00
-6493,86	-143,00
-6477,10	20,00
-6460,36	8,00
-6443,66	146,00
-6426,99	-41,00
-6410,35	33,00
-6393,74	85,00
-6377,16	127,00
-6360,61	136,00
-6344,09	132,00
-6327,59	204,00
-6311,13	147,00
-6294,70	257,00
-6278,29	59,00
-6261,92	208,00
-6245,58	255,00
-6229,26	179,00
-6212,97	187,00
-6196,72	104,00
-6180,49	113,00
-6164,29	38,00
-6148,12	42,00
-6131,98	46,00
-6115,86	-75,00
-6099,78	-57,00
-6083,72	-17,00
-6067,69	-102,00
-6051,69	4,00
-6035,72	-47,00
-6019,78	-1,00
-6003,87	82,00
-5987,98	134,00
-5972,12	117,00
-5956,29	171,00
-5940,49	139,00
-5924,71	137,00
-5908,96	47,00
-5893,24	99,00
-5877,55	62,00
-5861,89	-58,00
-5846,25	45,00
-5830,64	-13,00
-5815,05	65,00
-5799,50	-18,00
-5783,97	147,00
-5768,47	171,00
-5752,99	46,00
-5737,55	105,00
-5722,12	267,00
-5706,73	230,00
-5691,36	131,00
-5676,02	137,00
-5660,71	-32,00
-5645,42	30,00
-5630,16	106,00
-5614,92	48,00
-5599,71	68,00
-5584,53	203,00
-5569,37	48,00
-5554,24	197,00
-5539,14	-6,00
-5524,06	-31,00
-5509,01	-10,00
-5493,98	55,00
-5478,98	-12,00
-5464,00	3,00
-5449,05	69,00
-5434,13	44,00
-5419,23	95,00
-5404,36	66,00
-5389,51	88,00
-5374,69	131,00
-5359,89	250,00
-5345,12	119,00
-5330,37	177,00
-5315,65	166,00
-5300,95	129,00
-5286,28	218,00
-5271,63	25,00
-5257,01	45,00
-5242,41	122,00
-5227,84	68,00
-5213,29	56,00
-5198,76	55,00
-5184,26	100,00
-5169,79	17,00
-5155,33	40,00
-5140,91	70,00
-5126,51	130,00
-5112,13	109,00
-5097,77	139,00
-5083,44	53,00
-5069,13	70,00
-5054,85	22,00
-5040,59	55,00
-5026,36	-34,00
-5012,15	-1,00
-4997,96	-84,00
-4983,80	-11,00
-4969,66	-57,00
-4955,54	60,00
-4941,44	58,00
-4927,37	179,00
-4913,33	172,00
-4899,30	207,00
-4885,30	218,00
-4871,33	146,00
-4857,37	185,00
-4843,44	60,00
-4829,53	83,00
-4815,65	9,00
-4801,79	-11,00
-4787,95	-18,00
-4774,13	16,00
-4760,34	151,00
-4746,56	29,00
-4732,82	52,00
-4719,09	176,00
-4705,38	68,00
-4691,70	212,00
-4678,04	131,00
-4664,41	120,00
-4650,79	238,00
-4637,20	107,00
-4623,63	9,00
-4610,08	104,00
-4596,56	6,00
-4583,05	158,00
-4569,57	98,00
-4556,11	-74,00
-4542,67	0,00
-4529,25	-19,00
-4515,86	23,00
-4502,49	107,00
-4489,13	135,00
-4475,80	132,00
-4462,49	139,00
-4449,21	75,00
-4435,94	28,00
-4422,70	69,00
-4409,47	19,00
-4396,27	118,00
-4383,09	52,00
-4369,93	88,00
-4356,79	137,00
-4343,67	-65,00
-4330,58	21,00
-4317,50	99,00
-4304,45	129,00
-4291,41	162,00
-4278,40	85,00
-4265,41	146,00
-4252,44	133,00
-4239,49	104,00
-4226,55	68,00
-4213,65	30,00
-4200,76	93,00
-4187,89	105,00
-4175,04	-72,00
-4162,21	41,00
-4149,40	14,00
-4136,61	-75,00
-4123,85	34,00
-4111,10	66,00
-4098,37	78,00
-4085,66	-10,00
-4072,98	-60,00
-4060,31	60,00
-4047,66	63,00
-4035,04	161,00
-4022,43	57,00
-4009,84	66,00
-3997,27	-69,00
-3984,72	58,00
-3972,19	142,00
-3959,69	-60,00
-3947,20	80,00
-3934,73	57,00
-3922,27	42,00
-3909,84	45,00
-3897,43	132,00
-3885,04	-42,00
-3872,67	81,00
-3860,31	67,00
-3847,98	-24,00
-3835,66	-36,00
-3823,36	-59,00
-3811,09	9,00
-3798,83	54,00
-3786,59	39,00
-3774,37	-65,00
-3762,17	20,00
-3749,98	16,00
-3737,82	102,00
-3725,67	162,00
-3713,55	73,00
-3701,44	-114,00
-3689,35	51,00
-3677,28	14,00
-3665,22	27,00
-3653,19	22,00
-3641,17	46,00
-3629,18	-44,00
-3617,20	133,00
-3605,24	-36,00
-3593,30	7,00
-3581,37	-46,00
-3569,47	-34,00
-3557,58	147,00
-3545,71	13,00
-3533,86	30,00
-3522,02	28,00
-3510,21	95,00
-3498,41	-44,00
-3486,63	94,00
-3474,87	105,00
-3463,12	-60,00
-3451,40	-41,00
-3439,69	-10,00
-3428,00	86,00
-3416,33	92,00
-3404,67	4,00
-3393,03	41,00
-3381,41	-66,00
-3369,81	-4,00
-3358,22	12,00
-3346,66	41,00
-3335,10	-8,00
-3323,57	69,00
-3312,06	-59,00
-3300,56	115,00
-3289,08	55,00
-3277,61	129,00
-3266,16	1,00
-3254,73	32,00
-3243,32	15,00
-3231,92	-6,00
-3220,55	75,00
-3209,18	-2,00
-3197,84	31,00
-3186,51	0,00
-3175,20	49,00
-3163,90	35,00
-3152,63	-18,00
-3141,36	117,00
-3130,12	-29,00
-3118,89	101,00
-3107,68	-33,00
-3096,49	-44,00
-3085,31	43,00
-3074,15	9,00
-3063,00	-3,00
-3051,87	56,00
-3040,76	-96,00
-3029,67	69,00
-3018,59	42,00
-3007,52	-6,00
-2996,48	-35,00
-2985,44	55,00
-2974,43	25,00
-2963,43	-8,00
-2952,45	24,00
-2941,48	-60,00
-2930,53	-36,00
-2919,60	83,00
-2908,68	1,00
-2897,78	20,00
-2886,89	41,00
-2876,02	-27,00
-2865,17	31,00
-2854,33	178,00
-2843,50	173,00
-2832,70	15,00
-2821,90	29,00
-2811,13	63,00
-2800,37	10,00
-2789,62	108,00
-2778,89	-19,00
-2768,18	47,00
-2757,48	50,00
-2746,80	-23,00
-2736,13	-46,00
-2725,48	21,00
-2714,84	-15,00
-2704,22	40,00
-2693,61	22,00
-2683,02	113,00
-2672,45	74,00
-2661,89	-20,00
-2651,34	-5,00
-2640,81	-80,00
-2630,30	83,00
-2619,80	-15,00
-2609,31	53,00
-2598,84	86,00
-2588,39	-50,00
-2577,95	-58,00
-2567,52	52,00
-2557,11	-67,00
-2546,71	66,00
-2536,33	48,00
-2525,97	-23,00
-2515,62	-2,00
-2505,28	14,00
-2494,96	-19,00
-2484,65	69,00
-2474,36	-72,00
-2464,08	14,00
-2453,82	-19,00
-2443,57	36,00
-2433,33	38,00
-2423,11	-8,00
-2412,91	45,00
-2402,72	52,00
-2392,54	-9,00
-2382,38	7,00
-2372,23	6,00
-2362,09	154,00
-2351,97	-8,00
-2341,87	47,00
-2331,78	62,00
-2321,70	-97,00
-2311,64	27,00
-2301,59	10,00
-2291,55	87,00
-2281,53	80,00
-2271,53	96,00
-2261,53	32,00
-2251,55	18,00
-2241,59	-60,00
-2231,64	58,00
-2221,70	76,00
-2211,78	13,00
-2201,87	54,00
-2191,97	29,00
-2182,09	-11,00
-2172,22	-18,00
-2162,37	126,00
-2152,53	24,00
-2142,70	35,00
-2132,89	51,00
-2123,09	29,00
-2113,30	-12,00
-2103,53	38,00
-2093,77	-6,00
-2084,02	72,00
-2074,29	18,00
-2064,57	0,00
-2054,86	51,00
-2045,17	119,00
-2035,49	-15,00
-2025,82	37,00
-2016,17	132,00
-2006,53	-62,00
-1996,91	53,00
-1987,29	119,00
-1977,69	55,00
-1968,11	69,00
-1958,53	60,00
-1948,97	-46,00
-1939,42	75,00
-1929,89	51,00
-1920,37	31,00
-1910,86	-48,00
-1901,36	27,00
-1891,88	-15,00
-1882,41	10,00
-1872,95	-45,00
-1863,51	-112,00
-1854,08	106,00
-1844,66	10,00
-1835,26	42,00
-1825,86	16,00
-1816,48	104,00
-1807,11	107,00
-1797,76	68,00
-1788,42	-12,00
-1779,09	-24,00
-1769,77	-48,00
-1760,47	45,00
-1751,17	28,00
-1741,89	38,00
-1732,63	68,00
-1723,37	51,00
-1714,13	120,00
-1704,90	28,00
-1695,68	-13,00
-1686,48	17,00
-1677,29	16,00
-1668,11	37,00
-1658,94	106,00
-1649,78	-40,00
-1640,64	79,00
-1631,51	-6,00
-1622,39	21,00
-1613,28	11,00
-1604,19	24,00
-1595,10	2,00
-1586,03	-63,00
-1576,97	-7,00
-1567,93	141,00
-1558,89	-32,00
-1549,87	-2,00
-1540,86	-85,00
-1531,86	22,00
-1522,87	107,00
-1513,90	5,00
-1504,93	-76,00
-1495,98	69,00
-1487,04	-80,00
-1478,12	-33,00
-1469,20	59,00
-1460,30	0,00
-1451,40	77,00
-1442,52	4,00
-1433,65	137,00
-1424,80	56,00
-1415,95	90,00
-1407,12	-67,00
-1398,30	-64,00
-1389,48	64,00
-1380,69	-87,00
-1371,90	-52,00
-1363,12	72,00
-1354,36	16,00
-1345,60	-58,00
-1336,86	-114,00
-1328,13	33,00
-1319,41	-22,00
-1310,70	95,00
-1302,01	58,00
-1293,32	-10,00
-1284,65	57,00
-1275,99	-34,00
-1267,33	-88,00
-1258,69	54,00
-1250,06	6,00
-1241,45	42,00
-1232,84	-46,00
-1224,25	18,00
-1215,66	32,00
-1207,09	-156,00
-1198,53	8,00
-1189,97	35,00
-1181,43	-7,00
-1172,91	-44,00
-1164,39	9,00
-1155,88	66,00
-1147,38	-38,00
-1138,90	27,00
-1130,43	121,00
-1121,96	25,00
-1113,51	51,00
-1105,07	33,00
-1096,64	23,00
-1088,22	66,00
-1079,81	-19,00
-1071,41	-44,00
-1063,02	-43,00
-1054,65	68,00
-1046,28	-58,00
-1037,92	-61,00
-1029,58	25,00
-1021,24	14,00
-1012,92	80,00
-1004,61	-5,00
-996,30	45,00
-988,01	30,00
-979,73	39,00
-971,46	70,00
-963,20	-37,00
-954,95	37,00
-946,71	20,00
-938,48	-97,00
-930,26	134,00
-922,06	74,00
-913,86	-36,00
-905,67	-39,00
-897,49	26,00
-889,33	-10,00
-881,17	37,00
-873,02	116,00
-864,89	44,00
-856,76	28,00
-848,65	-32,00
-840,54	76,00
-832,45	-99,00
-824,36	60,00
-816,29	27,00
-808,22	23,00
-800,17	30,00
-792,12	61,00
-784,09	39,00
-776,06	-80,00
-768,05	44,00
-760,04	61,00
-752,05	41,00
-744,07	-15,00
-736,09	-12,00
-728,13	28,00
-720,17	154,00
-712,23	-100,00
-704,29	-11,00
-696,37	-32,00
-688,45	30,00
-680,55	82,00
-672,65	-69,00
-664,77	25,00
-656,89	58,00
-649,03	41,00
-641,17	-75,00
-633,32	8,00
-625,49	-59,00
-617,66	4,00
-609,84	-36,00
-602,03	23,00
-594,23	-7,00
-586,45	39,00
-578,67	15,00
-570,90	-59,00
-563,14	77,00
-555,39	-95,00
-547,65	-105,00
-539,91	101,00
-532,19	-81,00
-524,48	-46,00
-516,78	-40,00
-509,08	75,00
-501,40	96,00
-493,72	81,00
-486,06	-112,00
-478,40	-26,00
-470,76	-72,00
-463,12	35,00
-455,49	-57,00
-447,87	4,00
-440,26	195,00
-432,66	63,00
-425,07	49,00
-417,49	71,00
-409,92	38,00
-402,35	86,00
-394,80	47,00
-387,25	-2,00
-379,72	25,00
-372,19	18,00
-364,67	82,00
-357,17	143,00
-349,67	26,00
-342,18	-13,00
-334,69	93,00
-327,22	94,00
-319,76	47,00
-312,30	38,00
-304,86	133,00
-297,42	23,00
-290,00	83,00
-282,58	85,00
-275,17	83,00
-267,77	-10,00
-260,37	134,00
-252,99	60,00
-245,62	105,00
-238,25	160,00
-230,90	68,00
-223,55	-58,00
-216,21	41,00
-208,88	-6,00
-201,56	162,00
-194,25	112,00
-186,94	190,00
-179,65	117,00
-172,36	132,00
-165,08	146,00
-157,81	170,00
-150,55	253,00
-143,30	234,00
-136,06	178,00
-128,82	212,00
-121,60	390,00
-114,38	354,00
-107,17	394,00
-99,97	405,00
-92,78	380,00
-85,60	453,00
-78,42	602,00
-71,25	767,00
-64,10	695,00
-56,95	978,00
-49,81	1093,00
-42,67	1391,00
-35,55	1665,00
-28,43	2159,00
-21,33	3929,00
-14,23	13006,00
-7,14	56139,00
-0,05	55888,00
7,02	55558,00
14,09	40902,00
21,14	10891,00
28,19	4462,00
35,23	2972,00
42,27	2158,00
49,29	1771,00
56,31	1389,00
63,32	1186,00
70,32	952,00
77,31	950,00
84,29	760,00
91,27	751,00
98,23	657,00
105,19	631,00
112,14	731,00
119,09	1306,00
126,02	2004,00
132,95	2458,00
139,87	2546,00
146,78	2697,00
153,68	2679,00
160,58	2583,00
167,46	2491,00
174,34	2594,00
181,21	2632,00
188,08	2602,00
194,93	2643,00
201,78	2614,00
208,62	2637,00
215,45	2513,00
222,27	2496,00
229,09	2657,00
235,90	2799,00
242,70	2588,00
249,49	2560,00
256,27	2509,00
263,05	2549,00
269,82	2634,00
276,58	2744,00
283,33	2675,00
290,08	2546,00
296,82	2597,00
303,55	2463,00
310,27	2483,00
316,98	2551,00
323,69	2488,00
330,39	2489,00
337,08	2476,00
343,76	2634,00
350,44	2510,00
357,11	2475,00
363,77	2394,00
370,42	2596,00
377,07	2428,00
383,71	2593,00
390,34	2604,00
396,96	2530,00
403,58	2545,00
410,19	2708,00
416,79	2676,00
423,38	2542,00
429,97	2554,00
436,55	2662,00
443,12	2510,00
449,68	2508,00
456,24	2461,00
462,79	2586,00
469,33	2643,00
475,86	2614,00
482,39	2645,00
488,91	2603,00
495,42	2596,00
501,93	2488,00
508,42	2588,00
514,91	2587,00
521,40	2586,00
527,87	2366,00
534,34	2611,00
540,80	2513,00
547,25	2627,00
553,70	2617,00
560,14	2586,00
566,57	2566,00
573,00	2471,00
579,41	2685,00
585,83	2550,00
592,23	2544,00
598,62	2739,00
605,01	2581,00
611,40	2613,00
617,77	2531,00
624,14	2593,00
630,50	2534,00
636,85	2474,00
643,20	2549,00
649,54	2482,00
655,87	2608,00
662,20	2646,00
668,52	2520,00
674,83	2527,00
681,13	2512,00
687,43	2451,00
693,72	2585,00
700,00	2577,00
706,28	2512,00
712,55	2702,00
718,81	2461,00
725,07	2562,00
731,32	2519,00
737,56	2638,00
743,79	2598,00
750,02	2670,00
756,24	2693,00
762,46	2673,00
768,67	2686,00
774,87	2696,00
781,06	2673,00
787,25	2592,00
793,43	2657,00
799,60	2733,00
805,77	2598,00
811,93	2667,00
818,08	2700,00
824,23	2564,00
830,37	2686,00
836,50	2834,00
842,63	2783,00
848,75	2741,00
854,87	2613,00
860,97	2745,00
867,07	2673,00
873,17	2753,00
879,25	2757,00
885,33	2664,00
891,41	2500,00
897,47	2720,00
903,53	2631,00
909,59	2780,00
915,63	2842,00
921,67	2730,00
927,71	2691,00
933,74	2614,00
939,76	2668,00
945,77	2626,00
951,78	2608,00
957,78	2673,00
963,78	2622,00
969,77	2616,00
975,75	2704,00
981,72	2770,00
987,69	2390,00
993,66	2793,00
999,61	2663,00
1005,56	2808,00
1011,51	2720,00
1017,44	2810,00
1023,37	2747,00
1029,30	2858,00
1035,22	2833,00
1041,13	2824,00
1047,03	2861,00
1052,93	3011,00
1058,83	3244,00
1064,71	3376,00
1070,59	3265,00
1076,47	2963,00
1082,33	3029,00
1088,20	2974,00
1094,05	2889,00
1099,90	2814,00
1105,74	3109,00
1111,58	3007,00
1117,41	3143,00
1123,23	3303,00
1129,05	3539,00
1134,86	3434,00
1140,67	3224,00
1146,47	3080,00
1152,26	2941,00
1158,05	2903,00
1163,83	3010,00
1169,60	2994,00
1175,37	2988,00
1181,13	2857,00
1186,89	2828,00
1192,64	2924,00
1198,38	2947,00
1204,12	2865,00
1209,85	2874,00
1215,58	2981,00
1221,30	2976,00
1227,02	2938,00
1232,72	3070,00
1238,43	2960,00
1244,12	3081,00
1249,81	3077,00
1255,50	2956,00
1261,17	2990,00
1266,85	3117,00
1272,51	3087,00
1278,17	3120,00
1283,83	3238,00
1289,47	3496,00
1295,12	4030,00
1300,75	3710,00
1306,38	3474,00
1312,01	3178,00
1317,63	3185,00
1323,24	3233,00
1328,85	3074,00
1334,45	3276,00
1340,04	3037,00
1345,63	3059,00
1351,22	3203,00
1356,80	3112,00
1362,37	3087,00
1367,93	3056,00
1373,49	3131,00
1379,05	3075,00
1384,60	3224,00
1390,14	3041,00
1395,68	3086,00
1401,21	3081,00
1406,74	3214,00
1412,26	3400,00
1417,77	3327,00
1423,28	3515,00
1428,78	3458,00
1434,28	3687,00
1439,77	3829,00
1445,26	3929,00
1450,74	3786,00
1456,22	3602,00
1461,68	3674,00
1467,15	3449,00
1472,61	3393,00
1478,06	3313,00
1483,51	3054,00
1488,95	3099,00
1494,38	3093,00
1499,81	2932,00
1505,24	3072,00
1510,65	2858,00
1516,07	2953,00
1521,48	3051,00
1526,88	2950,00
1532,27	2963,00
1537,67	2969,00
1543,05	2994,00
1548,43	2854,00
1553,81	2886,00
1559,18	2957,00
1564,54	2957,00
1569,90	3008,00
1575,25	2918,00
1580,60	2938,00
1585,94	2901,00
1591,28	3022,00
1596,61	2830,00
1601,93	2941,00
1607,25	2908,00
1612,57	2855,00
1617,88	2654,00
1623,18	2941,00
1628,48	2780,00
1633,77	2821,00
1639,06	2721,00
1644,34	2775,00
1649,62	2745,00
1654,89	2647,00
1660,16	2724,00
1665,42	2860,00
1670,67	2835,00
1675,92	2640,00
1681,17	2706,00
1686,41	2635,00
1691,64	2729,00
1696,87	2720,00
1702,10	2628,00
1707,32	2717,00
1712,53	2572,00
1717,74	2706,00
1722,94	2714,00
1728,14	2608,00
1733,33	2603,00
1738,52	2606,00
1743,70	2585,00
1748,88	2667,00
1754,05	2479,00
1759,22	2615,00
1764,38	1201,00
1769,53	2584,00
1774,69	2444,00
1779,83	2512,00
1784,97	2590,00
1790,11	2420,00
1795,24	2457,00
1800,36	2581,00
1805,48	2466,00
1810,60	2476,00
1815,71	2428,00
1820,82	2457,00
1825,92	2531,00
1831,01	2533,00
1836,10	2461,00
1841,19	2581,00
1846,26	2452,00
1851,34	2533,00
1856,41	2427,00
1861,47	2541,00
1866,53	2473,00
1871,59	2402,00
1876,64	2478,00
1881,68	2498,00
1886,72	2483,00
1891,76	2367,00
1896,79	2374,00
1901,81	2348,00
1906,83	2283,00
1911,85	2209,00
1916,86	2352,00
1921,86	2389,00
1926,86	2298,00
1931,86	2166,00
1936,85	2232,00
1941,83	2168,00
1946,81	2196,00
1951,79	2192,00
1956,76	2209,00
1961,72	2226,00
1966,68	2187,00
1971,64	2163,00
1976,59	2207,00
1981,54	2219,00
1986,48	2197,00
1991,42	2009,00
1996,35	2019,00
2001,27	2188,00
2006,20	2155,00
2011,11	2162,00
2016,03	2096,00
2020,93	2081,00
2025,84	2225,00
2030,73	2114,00
2035,63	2197,00
2040,52	2169,00
2045,40	2013,00
2050,28	2179,00
2055,15	2120,00
2060,02	2121,00
2064,89	2201,00
2069,75	2053,00
2074,60	2090,00
2079,46	2107,00
2084,30	2052,00
2089,14	2125,00
2093,98	1993,00
2098,81	1973,00
2103,64	2071,00
2108,46	2130,00
2113,28	2007,00
2118,09	2014,00
2122,90	2005,00
2127,70	1937,00
2132,50	2133,00
2137,30	1933,00
2142,09	2033,00
2146,87	1983,00
2151,66	1920,00
2156,43	1885,00
2161,20	1949,00
2165,97	1942,00
2170,73	1994,00
2175,49	1854,00
2180,24	1924,00
2184,99	1959,00
2189,74	1943,00
2194,48	1886,00
2199,21	1926,00
2203,94	1835,00
2208,67	1854,00
2213,39	1786,00
2218,11	1834,00
2222,82	1905,00
2227,53	1856,00
2232,23	1858,00
2236,93	1938,00
2241,63	1816,00
2246,32	1758,00
2251,00	1812,00
2255,68	1910,00
2260,36	1736,00
2265,03	1655,00
2269,70	1807,00
2274,36	1777,00
2279,02	1730,00
2283,68	1691,00
2288,33	1763,00
2292,97	1680,00
2297,61	1653,00
2302,25	1763,00
2306,88	1673,00
2311,51	1779,00
2316,14	1726,00
2320,75	1826,00
2325,37	1654,00
2329,98	1770,00
2334,59	1712,00
2339,19	1648,00
2343,79	1764,00
2348,38	1690,00
2352,97	1704,00
2357,55	1632,00
2362,13	1607,00
2366,71	1568,00
2371,28	1624,00
2375,85	1617,00
2380,41	1598,00
2384,97	1450,00
2389,52	1534,00
2394,07	1464,00
2398,62	1468,00
2403,16	1548,00
2407,70	1519,00
2412,23	1457,00
2416,76	1524,00
2421,29	1412,00
2425,81	1471,00
2430,32	1520,00
2434,84	1373,00
2439,34	1531,00
2443,85	1358,00
2448,35	1335,00
2452,84	1463,00
2457,33	1427,00
2461,82	1441,00
2466,30	1415,00
2470,78	1409,00
2475,25	1400,00
2479,72	1393,00
2484,19	1298,00
2488,65	1285,00
2493,11	1394,00
2497,56	1302,00
2502,01	1186,00
2506,46	1316,00
2510,90	1348,00
2515,34	1374,00
2519,77	1265,00
2524,20	1316,00
2528,62	1288,00
2533,04	1281,00
2537,46	1171,00
2541,87	1281,00
2546,28	1280,00
2550,68	1346,00
2555,08	1319,00
2559,48	1308,00
2563,87	1342,00
2568,26	1150,00
2572,64	1263,00
2577,02	1351,00
2581,40	1161,00
2585,77	1061,00
2590,14	1152,00
2594,50	1159,00
2598,86	1062,00
2603,22	1176,00
2607,57	1029,00
2611,92	1047,00
2616,26	1075,00
2620,60	1066,00
2624,94	1171,00
2629,27	1163,00
2633,60	1143,00
2637,92	1189,00
2642,24	1094,00
2646,56	1157,00
2650,87	1016,00
2655,18	1094,00
2659,48	1097,00
2663,78	1115,00
2668,08	1061,00
2672,37	1089,00
2676,66	1107,00
2680,95	1004,00
2685,23	1004,00
2689,50	990,00
2693,78	1014,00
2698,05	985,00
2702,31	1110,00
2706,57	1081,00
2710,83	1133,00
2715,08	1082,00
2719,33	1133,00
2723,58	1123,00
2727,82	1182,00
2732,06	1158,00
2736,29	1034,00
2740,53	1103,00
2744,75	1019,00
2748,97	1082,00
2753,19	1099,00
2757,41	998,00
2761,62	1016,00
2765,83	1034,00
2770,03	1140,00
2774,23	984,00
2778,43	985,00
2782,62	954,00
2786,81	1048,00
2791,00	1070,00
2795,18	913,00
2799,35	1043,00
2803,53	1001,00
2807,70	968,00
2811,86	1037,00
2816,03	1158,00
2820,19	1098,00
2824,34	1170,00
2828,49	978,00
2832,64	1360,00
2836,78	1372,00
2840,92	1496,00
2845,06	1759,00
2849,19	2152,00
2853,32	1924,00
2857,45	1981,00
2861,57	1976,00
2865,69	1934,00
2869,80	1779,00
2873,91	1960,00
2878,02	1936,00
2882,12	2127,00
2886,22	2178,00
2890,32	2004,00
2894,41	1881,00
2898,50	1823,00
2902,58	1635,00
2906,67	1492,00
2910,74	1481,00
2914,82	1484,00
2918,89	1340,00
2922,96	1234,00
2927,02	1291,00
2931,08	1074,00
2935,13	1140,00
2939,19	1075,00
2943,24	1067,00
2947,28	933,00
2951,32	849,00
2955,36	779,00
2959,40	904,00
2963,43	869,00
2967,46	922,00
2971,48	858,00
2975,50	729,00
2979,52	740,00
2983,53	714,00
2987,54	638,00
2991,55	689,00
2995,55	694,00
2999,55	528,00
3003,54	704,00
3007,54	538,00
3011,53	575,00
3015,51	545,00
3019,49	606,00
3023,47	531,00
3027,45	677,00
3031,42	593,00
3035,39	534,00
3039,35	601,00
3043,31	506,00
3047,27	523,00
3051,22	448,00
3055,17	485,00
3059,12	614,00
3063,06	547,00
3067,00	513,00
3070,94	429,00
3074,87	556,00
3078,80	433,00
3082,73	371,00
3086,65	470,00
3090,57	470,00
3094,49	336,00
3098,40	405,00
3102,31	413,00
3106,22	440,00
3110,12	573,00
3114,02	418,00
3117,92	415,00
3121,81	367,00
3125,70	397,00
3129,58	314,00
3133,47	296,00
3137,34	407,00
3141,22	358,00
3145,09	418,00
3148,96	332,00
3152,83	296,00
3156,69	374,00
3160,55	466,00
3164,40	303,00
3168,26	330,00
3172,10	421,00
3175,95	407,00
3179,79	229,00
3183,63	283,00
3187,47	411,00
3191,30	392,00
3195,13	310,00
3198,95	309,00
3202,78	341,00
3206,60	294,00
3210,41	226,00
3214,23	287,00
3218,03	319,00
3221,84	256,00
3225,64	345,00
3229,44	284,00
3233,24	260,00
3237,03	169,00
3240,82	245,00
3244,61	274,00
3248,39	336,00
3252,17	303,00
3255,95	263,00
3259,72	206,00
3263,49	300,00
3267,26	226,00
3271,03	197,00
3274,79	268,00
3278,54	378,00
3282,30	188,00
3286,05	265,00
3289,80	287,00
3293,54	240,00
3297,29	114,00
3301,02	95,00
3304,76	252,00
3308,49	292,00
3312,22	161,00
3315,95	214,00
3319,67	225,00
3323,39	230,00
3327,10	179,00
3330,82	290,00
3334,53	260,00
3338,24	276,00
3341,94	148,00
3345,64	181,00
3349,34	180,00
3353,03	143,00
3356,72	121,00
3360,41	80,00
3364,10	115,00
3367,78	197,00
3371,46	130,00
3375,13	65,00
3378,81	176,00
3382,48	249,00
3386,14	157,00
3389,81	271,00
3393,47	81,00
3397,12	154,00
3400,78	129,00
3404,43	161,00
3408,08	180,00
3411,72	180,00
3415,36	155,00
3419,00	75,00
3422,64	62,00
3426,27	176,00
3429,90	210,00
3433,53	77,00
3437,15	74,00
3440,77	109,00
3444,39	242,00
3448,00	188,00
3451,62	166,00
3455,22	154,00
3458,83	104,00
3462,43	65,00
3466,03	156,00
3469,63	187,00
3473,22	218,00
3476,81	170,00
3480,40	172,00
3483,99	140,00
3487,57	69,00
3491,15	48,00
3494,72	199,00
3498,29	188,00
3501,86	126,00
3505,43	140,00
3508,99	93,00
3512,56	110,00
3516,11	-11,00
3519,67	36,00
3523,22	46,00
3526,77	188,00
3530,32	80,00
3533,86	124,00
3537,40	36,00
3540,94	10,00
3544,47	158,00
3548,00	67,00
3551,53	37,00
3555,06	0,00
3558,58	55,00
3562,10	10,00
3565,62	121,00
3569,13	47,00
3572,64	72,00
3576,15	99,00
3579,66	91,00
3583,16	21,00
3586,66	88,00
3590,16	147,00
3593,65	120,00
3597,14	72,00
3600,63	95,00
3604,11	106,00
3607,60	50,00
3611,08	-67,00
3614,55	-60,00
3618,03	69,00
3621,50	121,00
3624,97	50,00
3628,43	18,00
3631,90	108,00
3635,36	20,00
3638,81	22,00
3642,27	-47,00
3645,72	67,00
3649,17	11,00
3652,61	99,00
3656,06	74,00
3659,50	112,00
3662,93	95,00
3666,37	151,00
3669,80	-34,00
3673,23	107,00
3676,65	101,00
3680,08	166,00
3683,50	-38,00
3686,92	55,00
3690,33	-24,00
3693,74	1,00
3697,15	101,00
3700,56	32,00
3703,96	-71,00
3707,36	180,00
3710,76	34,00
3714,16	97,00
3717,55	107,00
3720,94	-61,00
3724,33	41,00
3727,71	76,00
3731,10	-50,00
3734,48	-62,00
3737,85	109,00
3741,23	11,00
3744,60	-60,00
3747,97	48,00
3751,33	35,00
3754,69	57,00
3758,05	35,00
3761,41	80,00
3764,77	10,00
3768,12	87,00
3771,47	76,00
3774,82	83,00
3778,16	2,00
3781,50	-2,00
3784,84	3,00
3788,18	0,00
>>>>>End Processed Spectral Data<<<<<
