SpectraSuite Data File
++++++++++++++++++++++++++++++++++++
Date: Mon Mar 09 15:12:38 ICT 2026
User: Administrator
Dark Spectrum Present: Yes
Reference Spectrum Present: No
Number of Sampled Component Spectra: 1
Spectrometers: MAYP113682
Integration Time (usec): 3000000 (MAYP113682)
Spectra Averaged: 1 (MAYP113682)
Boxcar Smoothing: 0 (MAYP113682)
Correct for Electrical Dark: No (MAYP113682)
Strobe/Lamp Enabled: No (MAYP113682)
Correct for Detector Non-linearity: No (MAYP113682)
Correct for Stray Light: No (MAYP113682)
Number of Pixels in Processed Spectrum: 2068
>>>>>Begin Processed Spectral Data<<<<<
-37534,58	4,00
-37414,56	0,00
-37295,11	-7,00
-37176,24	4,00
-37057,95	164,00
-36940,22	188,00
-36823,05	133,00
-36706,45	214,00
-36590,40	243,00
-36474,90	162,00
-36359,95	185,00
-36245,55	174,00
-36131,68	44,00
-36018,35	239,00
-35905,55	115,00
-35793,29	231,00
-35681,54	103,00
-35570,32	192,00
-35459,62	158,00
-35349,43	213,00
-35239,75	242,00
-35130,58	89,00
-35021,91	129,00
-34913,74	147,00
-34806,07	143,00
-34698,89	191,00
-34592,20	161,00
-34486,00	225,00
-34380,28	272,00
-34275,04	121,00
-34170,27	148,00
-34065,98	154,00
-33962,16	138,00
-33858,81	181,00
-33755,92	227,00
-33653,49	293,00
-33551,52	177,00
-33450,01	88,00
-33348,94	231,00
-33248,33	250,00
-33148,16	202,00
-33048,43	102,00
-32949,14	180,00
-32850,29	196,00
-32751,87	87,00
-32653,89	125,00
-32556,33	195,00
-32459,20	187,00
-32362,49	241,00
-32266,19	167,00
-32170,32	204,00
-32074,86	344,00
-31979,82	119,00
-31885,18	133,00
-31790,95	56,00
-31697,12	199,00
-31603,69	222,00
-31510,67	144,00
-31418,04	182,00
-31325,80	270,00
-31233,95	238,00
-31142,49	152,00
-31051,42	259,00
-30960,73	150,00
-30870,43	284,00
-30780,50	143,00
-30690,95	108,00
-30601,77	263,00
-30512,97	188,00
-30424,53	149,00
-30336,46	156,00
-30248,76	227,00
-30161,42	248,00
-30074,44	137,00
-29987,81	200,00
-29901,55	231,00
-29815,63	202,00
-29730,07	284,00
-29644,86	128,00
-29560,00	202,00
-29475,48	263,00
-29391,30	97,00
-29307,47	241,00
-29223,97	147,00
-29140,81	195,00
-29057,99	195,00
-28975,50	240,00
-28893,34	223,00
-28811,51	240,00
-28730,00	282,00
-28648,82	227,00
-28567,97	200,00
-28487,43	265,00
-28407,21	227,00
-28327,32	219,00
-28247,73	262,00
-28168,46	125,00
-28089,50	208,00
-28010,85	115,00
-27932,51	214,00
-27854,48	2,00
-27776,75	219,00
-27699,32	176,00
-27622,19	124,00
-27545,37	127,00
-27468,84	151,00
-27392,60	160,00
-27316,66	72,00
-27241,01	257,00
-27165,66	105,00
-27090,59	72,00
-27015,81	206,00
-26941,31	160,00
-26867,10	148,00
-26793,17	91,00
-26719,52	140,00
-26646,15	240,00
-26573,06	221,00
-26500,24	246,00
-26427,70	308,00
-26355,43	218,00
-26283,43	193,00
-26211,71	270,00
-26140,25	181,00
-26069,06	333,00
-25998,13	166,00
-25927,46	212,00
-25857,06	84,00
-25786,92	113,00
-25717,04	122,00
-25647,42	147,00
-25578,05	148,00
-25508,94	204,00
-25440,09	217,00
-25371,48	139,00
-25303,13	129,00
-25235,02	111,00
-25167,17	166,00
-25099,56	188,00
-25032,19	172,00
-24965,07	228,00
-24898,20	153,00
-24831,56	169,00
-24765,17	331,00
-24699,01	137,00
-24633,10	198,00
-24567,41	253,00
-24501,97	267,00
-24436,75	110,00
-24371,77	133,00
-24307,03	182,00
-24242,51	52,00
-24178,22	227,00
-24114,16	86,00
-24050,32	253,00
-23986,71	130,00
-23923,32	182,00
-23860,16	297,00
-23797,22	120,00
-23734,50	224,00
-23672,00	131,00
-23609,71	159,00
-23547,65	139,00
-23485,80	135,00
-23424,16	204,00
-23362,74	253,00
-23301,53	124,00
-23240,54	180,00
-23179,75	124,00
-23119,17	239,00
-23058,80	78,00
-22998,64	287,00
-22938,68	204,00
-22878,93	283,00
-22819,39	174,00
-22760,04	134,00
-22700,90	247,00
-22641,96	149,00
-22583,22	160,00
-22524,68	141,00
-22466,33	220,00
-22408,19	215,00
-22350,23	211,00
-22292,48	237,00
-22234,92	251,00
-22177,55	192,00
-22120,37	316,00
-22063,38	183,00
-22006,58	238,00
-21949,98	156,00
-21893,56	64,00
-21837,33	203,00
-21781,28	277,00
-21725,42	133,00
-21669,74	122,00
-21614,25	211,00
-21558,94	281,00
-21503,81	226,00
-21448,86	45,00
-21394,10	217,00
-21339,51	170,00
-21285,10	201,00
-21230,86	122,00
-21176,81	209,00
-21122,93	200,00
-21069,22	216,00
-21015,69	92,00
-20962,33	177,00
-20909,14	271,00
-20856,13	149,00
-20803,28	134,00
-20750,61	208,00
-20698,10	189,00
-20645,76	197,00
-20593,59	320,00
-20541,59	184,00
-20489,75	188,00
-20438,07	178,00
-20386,56	195,00
-20335,22	133,00
-20284,03	117,00
-20233,01	182,00
-20182,15	206,00
-20131,45	125,00
-20080,91	206,00
-20030,52	170,00
-19980,30	177,00
-19930,23	135,00
-19880,32	259,00
-19830,56	176,00
-19780,96	152,00
-19731,52	287,00
-19682,23	135,00
-19633,09	90,00
-19584,10	298,00
-19535,26	157,00
-19486,58	283,00
-19438,04	258,00
-19389,66	186,00
-19341,42	214,00
-19293,33	202,00
-19245,39	272,00
-19197,60	346,00
-19149,95	185,00
-19102,45	159,00
-19055,09	83,00
-19007,87	277,00
-18960,80	135,00
-18913,87	191,00
-18867,09	198,00
-18820,44	191,00
-18773,94	135,00
-18727,57	199,00
-18681,35	271,00
-18635,26	301,00
-18589,31	235,00
-18543,50	186,00
-18497,83	197,00
-18452,29	172,00
-18406,89	236,00
-18361,63	263,00
-18316,50	179,00
-18271,50	165,00
-18226,63	206,00
-18181,90	131,00
-18137,30	123,00
-18092,84	102,00
-18048,50	190,00
-18004,29	105,00
-17960,22	180,00
-17916,27	201,00
-17872,45	132,00
-17828,76	180,00
-17785,20	155,00
-17741,77	112,00
-17698,46	204,00
-17655,28	216,00
-17612,22	180,00
-17569,29	198,00
-17526,48	177,00
-17483,79	82,00
-17441,23	239,00
-17398,79	131,00
-17356,48	250,00
-17314,28	286,00
-17272,21	222,00
-17230,26	201,00
-17188,42	170,00
-17146,71	227,00
-17105,12	114,00
-17063,64	138,00
-17022,28	222,00
-16981,04	212,00
-16939,92	200,00
-16898,91	81,00
-16858,02	131,00
-16817,25	104,00
-16776,59	268,00
-16736,04	194,00
-16695,61	181,00
-16655,29	112,00
-16615,09	236,00
-16574,99	139,00
-16535,01	205,00
-16495,15	81,00
-16455,39	112,00
-16415,74	82,00
-16376,21	151,00
-16336,78	187,00
-16297,46	161,00
-16258,26	73,00
-16219,16	58,00
-16180,17	277,00
-16141,28	65,00
-16102,51	142,00
-16063,84	133,00
-16025,27	158,00
-15986,82	203,00
-15948,46	204,00
-15910,22	241,00
-15872,07	153,00
-15834,04	170,00
-15796,10	242,00
-15758,27	330,00
-15720,54	38,00
-15682,91	120,00
-15645,39	203,00
-15607,97	150,00
-15570,64	248,00
-15533,42	185,00
-15496,30	197,00
-15459,28	227,00
-15422,36	231,00
-15385,54	230,00
-15348,82	262,00
-15312,19	116,00
-15275,66	226,00
-15239,23	113,00
-15202,90	255,00
-15166,67	272,00
-15130,53	166,00
-15094,48	97,00
-15058,54	261,00
-15022,68	86,00
-14986,93	270,00
-14951,26	147,00
-14915,69	188,00
-14880,22	198,00
-14844,84	211,00
-14809,55	102,00
-14774,35	173,00
-14739,25	285,00
-14704,24	103,00
-14669,32	196,00
-14634,49	-17,00
-14599,75	324,00
-14565,10	137,00
-14530,55	228,00
-14496,08	251,00
-14461,70	161,00
-14427,41	192,00
-14393,21	293,00
-14359,10	163,00
-14325,07	172,00
-14291,14	179,00
-14257,29	169,00
-14223,52	201,00
-14189,85	325,00
-14156,26	320,00
-14122,76	205,00
-14089,34	239,00
-14056,01	198,00
-14022,76	127,00
-13989,60	258,00
-13956,52	150,00
-13923,53	90,00
-13890,62	297,00
-13857,79	63,00
-13825,05	139,00
-13792,39	118,00
-13759,81	307,00
-13727,31	170,00
-13694,90	216,00
-13662,57	115,00
-13630,31	222,00
-13598,14	150,00
-13566,05	257,00
-13534,05	149,00
-13502,12	234,00
-13470,27	237,00
-13438,50	221,00
-13406,80	137,00
-13375,19	196,00
-13343,66	45,00
-13312,20	184,00
-13280,83	133,00
-13249,53	149,00
-13218,30	192,00
-13187,16	123,00
-13156,09	164,00
-13125,10	169,00
-13094,18	217,00
-13063,34	192,00
-13032,58	352,00
-13001,89	160,00
-12971,28	130,00
-12940,74	159,00
-12910,27	243,00
-12879,88	260,00
-12849,57	142,00
-12819,33	268,00
-12789,16	93,00
-12759,06	187,00
-12729,04	121,00
-12699,09	-866,00
-12669,21	192,00
-12639,41	115,00
-12609,68	99,00
-12580,02	257,00
-12550,43	109,00
-12520,91	184,00
-12491,46	167,00
-12462,08	121,00
-12432,77	227,00
-12403,54	118,00
-12374,37	144,00
-12345,27	283,00
-12316,24	177,00
-12287,29	153,00
-12258,40	107,00
-12229,57	136,00
-12200,82	274,00
-12172,14	298,00
-12143,52	185,00
-12114,97	188,00
-12086,49	188,00
-12058,07	76,00
-12029,73	148,00
-12001,44	158,00
-11973,23	199,00
-11945,08	88,00
-11917,00	279,00
-11888,98	202,00
-11861,03	184,00
-11833,15	92,00
-11805,32	297,00
-11777,57	221,00
-11749,88	236,00
-11722,25	211,00
-11694,69	159,00
-11667,19	238,00
-11639,75	115,00
-11612,38	174,00
-11585,07	297,00
-11557,83	214,00
-11530,65	42,00
-11503,53	142,00
-11476,47	215,00
-11449,48	125,00
-11422,54	135,00
-11395,67	219,00
-11368,86	225,00
-11342,11	166,00
-11315,43	249,00
-11288,80	75,00
-11262,23	218,00
-11235,73	170,00
-11209,28	173,00
-11182,90	305,00
-11156,57	130,00
-11130,31	243,00
-11104,10	229,00
-11077,96	290,00
-11051,87	211,00
-11025,84	149,00
-10999,87	240,00
-10973,96	300,00
-10948,11	95,00
-10922,31	137,00
-10896,58	167,00
-10870,90	173,00
-10845,28	134,00
-10819,71	196,00
-10794,20	264,00
-10768,75	213,00
-10743,36	291,00
-10718,02	135,00
-10692,74	227,00
-10667,52	207,00
-10642,35	97,00
-10617,24	255,00
-10592,18	208,00
-10567,18	227,00
-10542,23	344,00
-10517,34	226,00
-10492,51	301,00
-10467,72	118,00
-10443,00	217,00
-10418,32	240,00
-10393,70	179,00
-10369,14	237,00
-10344,63	133,00
-10320,17	215,00
-10295,77	130,00
-10271,42	217,00
-10247,12	232,00
-10222,88	238,00
-10198,68	88,00
-10174,54	296,00
-10150,46	214,00
-10126,42	182,00
-10102,44	271,00
-10078,51	240,00
-10054,63	223,00
-10030,80	153,00
-10007,03	179,00
-9983,30	243,00
-9959,63	192,00
-9936,01	279,00
-9912,44	167,00
-9888,92	186,00
-9865,44	214,00
-9842,02	252,00
-9818,65	164,00
-9795,33	97,00
-9772,06	131,00
-9748,84	166,00
-9725,67	106,00
-9702,55	204,00
-9679,47	225,00
-9656,45	204,00
-9633,47	261,00
-9610,55	207,00
-9587,67	303,00
-9564,84	189,00
-9542,06	43,00
-9519,32	153,00
-9496,64	232,00
-9474,00	259,00
-9451,41	206,00
-9428,87	189,00
-9406,37	111,00
-9383,92	-112,00
-9361,52	-241,00
-9339,17	-45,00
-9316,86	8,00
-9294,60	85,00
-9272,38	141,00
-9250,21	208,00
-9228,09	264,00
-9206,01	170,00
-9183,98	61,00
-9162,00	89,00
-9140,06	29,00
-9118,16	-72,00
-9096,31	88,00
-9074,51	103,00
-9052,75	281,00
-9031,04	186,00
-9009,37	112,00
-8987,74	66,00
-8966,16	-42,00
-8944,63	-76,00
-8923,14	-17,00
-8901,69	-43,00
-8880,29	192,00
-8858,93	113,00
-8837,61	191,00
-8816,34	340,00
-8795,11	212,00
-8773,92	255,00
-8752,78	231,00
-8731,68	197,00
-8710,62	182,00
-8689,61	127,00
-8668,63	340,00
-8647,70	183,00
-8626,82	296,00
-8605,97	364,00
-8585,17	271,00
-8564,41	228,00
-8543,69	118,00
-8523,01	67,00
-8502,37	163,00
-8481,78	33,00
-8461,23	290,00
-8440,71	322,00
-8420,24	320,00
-8399,81	445,00
-8379,42	292,00
-8359,08	300,00
-8338,77	246,00
-8318,50	290,00
-8298,27	158,00
-8278,09	210,00
-8257,94	359,00
-8237,83	360,00
-8217,76	349,00
-8197,74	374,00
-8177,75	458,00
-8157,80	309,00
-8137,89	228,00
-8118,02	365,00
-8098,19	399,00
-8078,40	402,00
-8058,65	363,00
-8038,93	323,00
-8019,26	510,00
-7999,62	415,00
-7980,02	282,00
-7960,46	244,00
-7940,94	317,00
-7921,46	233,00
-7902,01	276,00
-7882,60	290,00
-7863,23	307,00
-7843,90	287,00
-7824,61	238,00
-7805,35	416,00
-7786,13	421,00
-7766,95	342,00
-7747,80	353,00
-7728,69	386,00
-7709,62	277,00
-7690,59	482,00
-7671,59	334,00
-7652,63	312,00
-7633,70	397,00
-7614,81	359,00
-7595,96	387,00
-7577,15	320,00
-7558,37	482,00
-7539,62	406,00
-7520,91	410,00
-7502,24	282,00
-7483,60	437,00
-7465,00	309,00
-7446,44	349,00
-7427,91	191,00
-7409,41	145,00
-7390,95	207,00
-7372,53	236,00
-7354,14	146,00
-7335,78	232,00
-7317,46	176,00
-7299,18	237,00
-7280,92	314,00
-7262,71	433,00
-7244,52	381,00
-7226,38	332,00
-7208,26	401,00
-7190,18	336,00
-7172,14	273,00
-7154,12	339,00
-7136,15	318,00
-7118,20	318,00
-7100,29	271,00
-7082,41	224,00
-7064,57	387,00
-7046,76	340,00
-7028,98	182,00
-7011,24	254,00
-6993,53	124,00
-6975,85	170,00
-6958,20	149,00
-6940,59	144,00
-6923,01	66,00
-6905,46	144,00
-6887,94	77,00
-6870,46	372,00
-6853,01	140,00
-6835,59	192,00
-6818,21	288,00
-6800,85	182,00
-6783,53	46,00
-6766,24	80,00
-6748,98	35,00
-6731,76	-4,00
-6714,56	10,00
-6697,40	7,00
-6680,26	28,00
-6663,16	82,00
-6646,09	253,00
-6629,05	78,00
-6612,05	234,00
-6595,07	159,00
-6578,13	152,00
-6561,21	71,00
-6544,33	33,00
-6527,47	79,00
-6510,65	48,00
-6493,86	-129,00
-6477,10	-86,00
-6460,36	-71,00
-6443,66	68,00
-6426,99	-5,00
-6410,35	22,00
-6393,74	13,00
-6377,16	91,00
-6360,61	126,00
-6344,09	38,00
-6327,59	105,00
-6311,13	119,00
-6294,70	155,00
-6278,29	199,00
-6261,92	269,00
-6245,58	176,00
-6229,26	99,00
-6212,97	136,00
-6196,72	82,00
-6180,49	86,00
-6164,29	23,00
-6148,12	-12,00
-6131,98	9,00
-6115,86	43,00
-6099,78	-57,00
-6083,72	-127,00
-6067,69	-96,00
-6051,69	-8,00
-6035,72	-4,00
-6019,78	67,00
-6003,87	49,00
-5987,98	89,00
-5972,12	159,00
-5956,29	174,00
-5940,49	181,00
-5924,71	228,00
-5908,96	79,00
-5893,24	81,00
-5877,55	40,00
-5861,89	70,00
-5846,25	-4,00
-5830,64	12,00
-5815,05	7,00
-5799,50	-27,00
-5783,97	154,00
-5768,47	212,00
-5752,99	71,00
-5737,55	184,00
-5722,12	279,00
-5706,73	153,00
-5691,36	119,00
-5676,02	126,00
-5660,71	31,00
-5645,42	144,00
-5630,16	181,00
-5614,92	55,00
-5599,71	15,00
-5584,53	147,00
-5569,37	4,00
-5554,24	215,00
-5539,14	44,00
-5524,06	81,00
-5509,01	116,00
-5493,98	39,00
-5478,98	40,00
-5464,00	-91,00
-5449,05	139,00
-5434,13	93,00
-5419,23	161,00
-5404,36	144,00
-5389,51	169,00
-5374,69	147,00
-5359,89	176,00
-5345,12	111,00
-5330,37	199,00
-5315,65	297,00
-5300,95	208,00
-5286,28	122,00
-5271,63	119,00
-5257,01	-63,00
-5242,41	79,00
-5227,84	38,00
-5213,29	174,00
-5198,76	71,00
-5184,26	146,00
-5169,79	116,00
-5155,33	72,00
-5140,91	35,00
-5126,51	82,00
-5112,13	69,00
-5097,77	193,00
-5083,44	64,00
-5069,13	18,00
-5054,85	-17,00
-5040,59	159,00
-5026,36	32,00
-5012,15	-65,00
-4997,96	-42,00
-4983,80	56,00
-4969,66	51,00
-4955,54	78,00
-4941,44	193,00
-4927,37	141,00
-4913,33	169,00
-4899,30	217,00
-4885,30	231,00
-4871,33	149,00
-4857,37	313,00
-4843,44	155,00
-4829,53	179,00
-4815,65	39,00
-4801,79	11,00
-4787,95	-51,00
-4774,13	63,00
-4760,34	132,00
-4746,56	114,00
-4732,82	145,00
-4719,09	106,00
-4705,38	69,00
-4691,70	150,00
-4678,04	194,00
-4664,41	231,00
-4650,79	314,00
-4637,20	151,00
-4623,63	98,00
-4610,08	201,00
-4596,56	222,00
-4583,05	134,00
-4569,57	164,00
-4556,11	149,00
-4542,67	195,00
-4529,25	90,00
-4515,86	170,00
-4502,49	190,00
-4489,13	139,00
-4475,80	139,00
-4462,49	222,00
-4449,21	177,00
-4435,94	247,00
-4422,70	243,00
-4409,47	143,00
-4396,27	138,00
-4383,09	112,00
-4369,93	182,00
-4356,79	196,00
-4343,67	3,00
-4330,58	170,00
-4317,50	162,00
-4304,45	151,00
-4291,41	107,00
-4278,40	219,00
-4265,41	364,00
-4252,44	215,00
-4239,49	236,00
-4226,55	225,00
-4213,65	139,00
-4200,76	174,00
-4187,89	176,00
-4175,04	118,00
-4162,21	192,00
-4149,40	197,00
-4136,61	223,00
-4123,85	141,00
-4111,10	149,00
-4098,37	179,00
-4085,66	105,00
-4072,98	119,00
-4060,31	125,00
-4047,66	154,00
-4035,04	289,00
-4022,43	159,00
-4009,84	268,00
-3997,27	22,00
-3984,72	164,00
-3972,19	268,00
-3959,69	145,00
-3947,20	262,00
-3934,73	122,00
-3922,27	189,00
-3909,84	214,00
-3897,43	241,00
-3885,04	172,00
-3872,67	234,00
-3860,31	66,00
-3847,98	108,00
-3835,66	236,00
-3823,36	76,00
-3811,09	142,00
-3798,83	173,00
-3786,59	209,00
-3774,37	74,00
-3762,17	164,00
-3749,98	232,00
-3737,82	154,00
-3725,67	183,00
-3713,55	303,00
-3701,44	78,00
-3689,35	249,00
-3677,28	183,00
-3665,22	73,00
-3653,19	129,00
-3641,17	118,00
-3629,18	185,00
-3617,20	276,00
-3605,24	161,00
-3593,30	115,00
-3581,37	149,00
-3569,47	252,00
-3557,58	284,00
-3545,71	106,00
-3533,86	270,00
-3522,02	164,00
-3510,21	201,00
-3498,41	169,00
-3486,63	231,00
-3474,87	237,00
-3463,12	113,00
-3451,40	174,00
-3439,69	169,00
-3428,00	147,00
-3416,33	286,00
-3404,67	77,00
-3393,03	356,00
-3381,41	186,00
-3369,81	263,00
-3358,22	215,00
-3346,66	106,00
-3335,10	149,00
-3323,57	159,00
-3312,06	168,00
-3300,56	176,00
-3289,08	202,00
-3277,61	272,00
-3266,16	235,00
-3254,73	218,00
-3243,32	182,00
-3231,92	224,00
-3220,55	173,00
-3209,18	280,00
-3197,84	134,00
-3186,51	118,00
-3175,20	232,00
-3163,90	171,00
-3152,63	192,00
-3141,36	151,00
-3130,12	134,00
-3118,89	351,00
-3107,68	226,00
-3096,49	259,00
-3085,31	259,00
-3074,15	222,00
-3063,00	175,00
-3051,87	174,00
-3040,76	64,00
-3029,67	285,00
-3018,59	207,00
-3007,52	119,00
-2996,48	133,00
-2985,44	232,00
-2974,43	170,00
-2963,43	207,00
-2952,45	241,00
-2941,48	64,00
-2930,53	199,00
-2919,60	218,00
-2908,68	231,00
-2897,78	193,00
-2886,89	157,00
-2876,02	22,00
-2865,17	194,00
-2854,33	276,00
-2843,50	285,00
-2832,70	276,00
-2821,90	111,00
-2811,13	199,00
-2800,37	158,00
-2789,62	174,00
-2778,89	157,00
-2768,18	264,00
-2757,48	271,00
-2746,80	208,00
-2736,13	183,00
-2725,48	202,00
-2714,84	186,00
-2704,22	227,00
-2693,61	273,00
-2683,02	296,00
-2672,45	259,00
-2661,89	241,00
-2651,34	226,00
-2640,81	101,00
-2630,30	302,00
-2619,80	169,00
-2609,31	205,00
-2598,84	257,00
-2588,39	142,00
-2577,95	127,00
-2567,52	217,00
-2557,11	126,00
-2546,71	186,00
-2536,33	150,00
-2525,97	124,00
-2515,62	284,00
-2505,28	199,00
-2494,96	230,00
-2484,65	289,00
-2474,36	305,00
-2464,08	186,00
-2453,82	146,00
-2443,57	189,00
-2433,33	137,00
-2423,11	186,00
-2412,91	122,00
-2402,72	242,00
-2392,54	238,00
-2382,38	65,00
-2372,23	169,00
-2362,09	520,00
-2351,97	159,00
-2341,87	228,00
-2331,78	167,00
-2321,70	141,00
-2311,64	297,00
-2301,59	254,00
-2291,55	226,00
-2281,53	227,00
-2271,53	174,00
-2261,53	258,00
-2251,55	265,00
-2241,59	238,00
-2231,64	162,00
-2221,70	245,00
-2211,78	169,00
-2201,87	256,00
-2191,97	129,00
-2182,09	137,00
-2172,22	186,00
-2162,37	223,00
-2152,53	231,00
-2142,70	138,00
-2132,89	184,00
-2123,09	164,00
-2113,30	277,00
-2103,53	159,00
-2093,77	228,00
-2084,02	191,00
-2074,29	239,00
-2064,57	178,00
-2054,86	119,00
-2045,17	233,00
-2035,49	166,00
-2025,82	160,00
-2016,17	165,00
-2006,53	109,00
-1996,91	278,00
-1987,29	209,00
-1977,69	245,00
-1968,11	308,00
-1958,53	220,00
-1948,97	264,00
-1939,42	231,00
-1929,89	157,00
-1920,37	152,00
-1910,86	131,00
-1901,36	229,00
-1891,88	185,00
-1882,41	176,00
-1872,95	209,00
-1863,51	49,00
-1854,08	260,00
-1844,66	202,00
-1835,26	391,00
-1825,86	269,00
-1816,48	334,00
-1807,11	118,00
-1797,76	241,00
-1788,42	160,00
-1779,09	144,00
-1769,77	157,00
-1760,47	187,00
-1751,17	176,00
-1741,89	194,00
-1732,63	119,00
-1723,37	261,00
-1714,13	204,00
-1704,90	169,00
-1695,68	92,00
-1686,48	134,00
-1677,29	270,00
-1668,11	275,00
-1658,94	233,00
-1649,78	203,00
-1640,64	181,00
-1631,51	206,00
-1622,39	260,00
-1613,28	191,00
-1604,19	252,00
-1595,10	204,00
-1586,03	107,00
-1576,97	158,00
-1567,93	297,00
-1558,89	135,00
-1549,87	124,00
-1540,86	93,00
-1531,86	191,00
-1522,87	199,00
-1513,90	177,00
-1504,93	93,00
-1495,98	253,00
-1487,04	168,00
-1478,12	158,00
-1469,20	225,00
-1460,30	247,00
-1451,40	191,00
-1442,52	224,00
-1433,65	190,00
-1424,80	263,00
-1415,95	191,00
-1407,12	91,00
-1398,30	130,00
-1389,48	202,00
-1380,69	151,00
-1371,90	118,00
-1363,12	231,00
-1354,36	279,00
-1345,60	175,00
-1336,86	142,00
-1328,13	277,00
-1319,41	134,00
-1310,70	196,00
-1302,01	293,00
-1293,32	168,00
-1284,65	163,00
-1275,99	153,00
-1267,33	80,00
-1258,69	215,00
-1250,06	143,00
-1241,45	124,00
-1232,84	205,00
-1224,25	123,00
-1215,66	167,00
-1207,09	34,00
-1198,53	155,00
-1189,97	237,00
-1181,43	157,00
-1172,91	122,00
-1164,39	145,00
-1155,88	152,00
-1147,38	228,00
-1138,90	150,00
-1130,43	140,00
-1121,96	235,00
-1113,51	231,00
-1105,07	255,00
-1096,64	211,00
-1088,22	208,00
-1079,81	120,00
-1071,41	119,00
-1063,02	208,00
-1054,65	292,00
-1046,28	163,00
-1037,92	198,00
-1029,58	203,00
-1021,24	237,00
-1012,92	223,00
-1004,61	185,00
-996,30	259,00
-988,01	153,00
-979,73	228,00
-971,46	208,00
-963,20	176,00
-954,95	228,00
-946,71	-9,00
-938,48	173,00
-930,26	284,00
-922,06	121,00
-913,86	176,00
-905,67	129,00
-897,49	240,00
-889,33	144,00
-881,17	288,00
-873,02	248,00
-864,89	295,00
-856,76	189,00
-848,65	174,00
-840,54	103,00
-832,45	244,00
-824,36	146,00
-816,29	204,00
-808,22	266,00
-800,17	292,00
-792,12	206,00
-784,09	231,00
-776,06	99,00
-768,05	175,00
-760,04	162,00
-752,05	237,00
-744,07	128,00
-736,09	149,00
-728,13	190,00
-720,17	310,00
-712,23	225,00
-704,29	192,00
-696,37	193,00
-688,45	219,00
-680,55	126,00
-672,65	163,00
-664,77	180,00
-656,89	205,00
-649,03	250,00
-641,17	98,00
-633,32	149,00
-625,49	123,00
-617,66	195,00
-609,84	143,00
-602,03	108,00
-594,23	190,00
-586,45	167,00
-578,67	260,00
-570,90	139,00
-563,14	257,00
-555,39	95,00
-547,65	110,00
-539,91	216,00
-532,19	94,00
-524,48	125,00
-516,78	184,00
-509,08	212,00
-501,40	152,00
-493,72	257,00
-486,06	111,00
-478,40	246,00
-470,76	190,00
-463,12	217,00
-455,49	146,00
-447,87	161,00
-440,26	179,00
-432,66	264,00
-425,07	195,00
-417,49	156,00
-409,92	172,00
-402,35	277,00
-394,80	231,00
-387,25	118,00
-379,72	230,00
-372,19	268,00
-364,67	266,00
-357,17	319,00
-349,67	241,00
-342,18	180,00
-334,69	299,00
-327,22	183,00
-319,76	201,00
-312,30	203,00
-304,86	271,00
-297,42	161,00
-290,00	247,00
-282,58	277,00
-275,17	321,00
-267,77	103,00
-260,37	218,00
-252,99	243,00
-245,62	259,00
-238,25	217,00
-230,90	210,00
-223,55	210,00
-216,21	288,00
-208,88	146,00
-201,56	386,00
-194,25	238,00
-186,94	260,00
-179,65	273,00
-172,36	266,00
-165,08	324,00
-157,81	316,00
-150,55	360,00
-143,30	409,00
-136,06	363,00
-128,82	438,00
-121,60	495,00
-114,38	534,00
-107,17	510,00
-99,97	629,00
-92,78	522,00
-85,60	731,00
-78,42	771,00
-71,25	936,00
-64,10	891,00
-56,95	1125,00
-49,81	1209,00
-42,67	1594,00
-35,55	1971,00
-28,43	2432,00
-21,33	4062,00
-14,23	13412,00
-7,14	56139,00
-0,05	55888,00
7,02	55558,00
14,09	42353,00
21,14	11233,00
28,19	4856,00
35,23	3134,00
42,27	2329,00
49,29	2077,00
56,31	1663,00
63,32	1477,00
70,32	1161,00
77,31	1072,00
84,29	977,00
91,27	941,00
98,23	836,00
105,19	784,00
112,14	823,00
119,09	1375,00
126,02	2116,00
132,95	2502,00
139,87	2537,00
146,78	2674,00
153,68	2765,00
160,58	2584,00
167,46	2493,00
174,34	2585,00
181,21	2578,00
188,08	2647,00
194,93	2570,00
201,78	2603,00
208,62	2652,00
215,45	2567,00
222,27	2588,00
229,09	2675,00
235,90	2710,00
242,70	2642,00
249,49	2529,00
256,27	2535,00
263,05	2679,00
269,82	2625,00
276,58	2651,00
283,33	2684,00
290,08	2514,00
296,82	2579,00
303,55	2460,00
310,27	2346,00
316,98	2610,00
323,69	2443,00
330,39	2504,00
337,08	2432,00
343,76	2526,00
350,44	2445,00
357,11	2472,00
363,77	2466,00
370,42	2447,00
377,07	2390,00
383,71	2547,00
390,34	2493,00
396,96	2455,00
403,58	2554,00
410,19	2547,00
416,79	2640,00
423,38	2634,00
429,97	2555,00
436,55	2580,00
443,12	2344,00
449,68	2484,00
456,24	2578,00
462,79	2536,00
469,33	2543,00
475,86	2536,00
482,39	2497,00
488,91	2545,00
495,42	2566,00
501,93	2381,00
508,42	2418,00
514,91	2477,00
521,40	2452,00
527,87	2373,00
534,34	2591,00
540,80	2426,00
547,25	2536,00
553,70	2575,00
560,14	2459,00
566,57	2490,00
573,00	2549,00
579,41	2617,00
585,83	2481,00
592,23	2440,00
598,62	2646,00
605,01	2582,00
611,40	2615,00
617,77	2533,00
624,14	2481,00
630,50	2494,00
636,85	2402,00
643,20	2534,00
649,54	2384,00
655,87	2418,00
662,20	2547,00
668,52	2442,00
674,83	2474,00
681,13	2416,00
687,43	2502,00
693,72	2502,00
700,00	2467,00
706,28	2439,00
712,55	2454,00
718,81	2421,00
725,07	2519,00
731,32	2347,00
737,56	2575,00
743,79	2580,00
750,02	2729,00
756,24	2450,00
762,46	2535,00
768,67	2567,00
774,87	2579,00
781,06	2508,00
787,25	2596,00
793,43	2589,00
799,60	2623,00
805,77	2443,00
811,93	2532,00
818,08	2594,00
824,23	2506,00
830,37	2741,00
836,50	2725,00
842,63	2537,00
848,75	2659,00
854,87	2577,00
860,97	2686,00
867,07	2564,00
873,17	2627,00
879,25	2610,00
885,33	2635,00
891,41	2539,00
897,47	2713,00
903,53	2673,00
909,59	2662,00
915,63	2700,00
921,67	2598,00
927,71	2555,00
933,74	2665,00
939,76	2589,00
945,77	2595,00
951,78	2497,00
957,78	2692,00
963,78	2645,00
969,77	2634,00
975,75	2707,00
981,72	2623,00
987,69	2537,00
993,66	2730,00
999,61	2565,00
1005,56	2744,00
1011,51	2668,00
1017,44	2606,00
1023,37	2658,00
1029,30	2685,00
1035,22	2754,00
1041,13	2707,00
1047,03	2828,00
1052,93	2863,00
1058,83	3148,00
1064,71	3325,00
1070,59	3213,00
1076,47	2879,00
1082,33	2965,00
1088,20	2915,00
1094,05	2813,00
1099,90	2784,00
1105,74	2989,00
1111,58	2859,00
1117,41	3013,00
1123,23	3291,00
1129,05	3463,00
1134,86	3360,00
1140,67	3005,00
1146,47	3050,00
1152,26	2874,00
1158,05	2759,00
1163,83	2879,00
1169,60	2879,00
1175,37	2828,00
1181,13	2782,00
1186,89	2826,00
1192,64	2819,00
1198,38	2823,00
1204,12	2778,00
1209,85	2786,00
1215,58	2953,00
1221,30	2912,00
1227,02	2854,00
1232,72	3018,00
1238,43	2876,00
1244,12	2975,00
1249,81	2846,00
1255,50	2939,00
1261,17	2916,00
1266,85	3045,00
1272,51	2921,00
1278,17	2922,00
1283,83	3074,00
1289,47	3473,00
1295,12	3949,00
1300,75	3679,00
1306,38	3404,00
1312,01	3158,00
1317,63	2969,00
1323,24	3120,00
1328,85	3066,00
1334,45	3109,00
1340,04	2920,00
1345,63	2975,00
1351,22	2942,00
1356,80	3004,00
1362,37	2952,00
1367,93	2962,00
1373,49	3013,00
1379,05	2976,00
1384,60	3106,00
1390,14	2963,00
1395,68	2954,00
1401,21	2933,00
1406,74	3175,00
1412,26	3281,00
1417,77	3193,00
1423,28	3460,00
1428,78	3364,00
1434,28	3583,00
1439,77	3736,00
1445,26	3852,00
1450,74	3723,00
1456,22	3640,00
1461,68	3606,00
1467,15	3338,00
1472,61	3341,00
1478,06	3146,00
1483,51	3029,00
1488,95	3008,00
1494,38	3119,00
1499,81	2842,00
1505,24	2897,00
1510,65	2767,00
1516,07	2876,00
1521,48	2870,00
1526,88	2856,00
1532,27	2805,00
1537,67	2953,00
1543,05	2794,00
1548,43	2741,00
1553,81	2743,00
1559,18	2770,00
1564,54	2806,00
1569,90	2723,00
1575,25	2873,00
1580,60	2773,00
1585,94	2753,00
1591,28	2851,00
1596,61	2698,00
1601,93	2671,00
1607,25	2806,00
1612,57	2672,00
1617,88	2682,00
1623,18	2823,00
1628,48	2633,00
1633,77	2652,00
1639,06	2706,00
1644,34	2593,00
1649,62	2661,00
1654,89	2634,00
1660,16	2566,00
1665,42	2712,00
1670,67	2742,00
1675,92	2577,00
1681,17	2545,00
1686,41	2634,00
1691,64	2702,00
1696,87	2624,00
1702,10	2637,00
1707,32	2565,00
1712,53	2558,00
1717,74	2525,00
1722,94	2595,00
1728,14	2527,00
1733,33	2608,00
1738,52	2621,00
1743,70	2451,00
1748,88	2600,00
1754,05	2517,00
1759,22	2433,00
1764,38	2543,00
1769,53	2531,00
1774,69	2379,00
1779,83	2498,00
1784,97	2454,00
1790,11	2426,00
1795,24	2492,00
1800,36	2444,00
1805,48	2382,00
1810,60	2391,00
1815,71	2418,00
1820,82	2370,00
1825,92	2488,00
1831,01	2437,00
1836,10	2425,00
1841,19	2454,00
1846,26	2338,00
1851,34	2384,00
1856,41	2447,00
1861,47	2507,00
1866,53	2317,00
1871,59	2386,00
1876,64	2335,00
1881,68	2395,00
1886,72	2362,00
1891,76	2291,00
1896,79	2344,00
1901,81	2341,00
1906,83	2263,00
1911,85	2325,00
1916,86	2406,00
1921,86	2225,00
1926,86	2225,00
1931,86	2138,00
1936,85	2200,00
1941,83	2210,00
1946,81	2140,00
1951,79	2190,00
1956,76	2231,00
1961,72	2120,00
1966,68	2213,00
1971,64	2040,00
1976,59	2151,00
1981,54	2229,00
1986,48	2064,00
1991,42	2089,00
1996,35	2098,00
2001,27	2208,00
2006,20	2228,00
2011,11	2077,00
2016,03	2086,00
2020,93	2060,00
2025,84	2105,00
2030,73	2132,00
2035,63	2146,00
2040,52	2054,00
2045,40	2129,00
2050,28	2067,00
2055,15	2133,00
2060,02	1959,00
2064,89	2122,00
2069,75	2113,00
2074,60	2133,00
2079,46	1997,00
2084,30	2138,00
2089,14	2078,00
2093,98	1952,00
2098,81	1966,00
2103,64	2060,00
2108,46	2136,00
2113,28	2016,00
2118,09	1972,00
2122,90	2020,00
2127,70	1934,00
2132,50	2071,00
2137,30	2024,00
2142,09	1964,00
2146,87	2004,00
2151,66	2018,00
2156,43	1944,00
2161,20	1964,00
2165,97	1951,00
2170,73	1919,00
2175,49	2018,00
2180,24	1893,00
2184,99	1985,00
2189,74	1934,00
2194,48	1980,00
2199,21	1998,00
2203,94	1903,00
2208,67	1832,00
2213,39	1874,00
2218,11	1900,00
2222,82	1841,00
2227,53	1808,00
2232,23	1865,00
2236,93	1934,00
2241,63	1935,00
2246,32	1870,00
2251,00	1898,00
2255,68	1783,00
2260,36	1739,00
2265,03	1783,00
2269,70	1902,00
2274,36	1760,00
2279,02	1790,00
2283,68	1797,00
2288,33	1650,00
2292,97	1738,00
2297,61	1702,00
2302,25	1794,00
2306,88	1762,00
2311,51	1687,00
2316,14	1694,00
2320,75	1655,00
2325,37	1704,00
2329,98	1806,00
2334,59	1713,00
2339,19	1695,00
2343,79	1739,00
2348,38	1672,00
2352,97	1691,00
2357,55	1580,00
2362,13	1609,00
2366,71	1575,00
2371,28	1755,00
2375,85	1583,00
2380,41	1718,00
2384,97	1598,00
2389,52	1541,00
2394,07	1595,00
2398,62	1598,00
2403,16	1546,00
2407,70	1533,00
2412,23	1562,00
2416,76	1672,00
2421,29	1503,00
2425,81	1479,00
2430,32	1540,00
2434,84	1430,00
2439,34	1581,00
2443,85	1493,00
2448,35	1495,00
2452,84	1453,00
2457,33	1532,00
2461,82	1431,00
2466,30	1366,00
2470,78	1465,00
2475,25	1447,00
2479,72	1460,00
2484,19	1453,00
2488,65	1368,00
2493,11	1358,00
2497,56	1417,00
2502,01	1370,00
2506,46	1446,00
2510,90	1393,00
2515,34	1444,00
2519,77	1344,00
2524,20	1313,00
2528,62	1313,00
2533,04	1311,00
2537,46	1314,00
2541,87	1409,00
2546,28	1420,00
2550,68	1376,00
2555,08	1344,00
2559,48	1350,00
2563,87	1305,00
2568,26	1178,00
2572,64	1338,00
2577,02	1316,00
2581,40	1263,00
2585,77	1176,00
2590,14	1220,00
2594,50	1264,00
2598,86	1215,00
2603,22	1161,00
2607,57	1184,00
2611,92	1229,00
2616,26	1074,00
2620,60	1122,00
2624,94	1195,00
2629,27	1163,00
2633,60	1126,00
2637,92	1357,00
2642,24	1224,00
2646,56	1228,00
2650,87	1135,00
2655,18	1122,00
2659,48	1013,00
2663,78	1223,00
2668,08	1280,00
2672,37	1114,00
2676,66	1296,00
2680,95	1174,00
2685,23	1188,00
2689,50	1114,00
2693,78	1211,00
2698,05	1176,00
2702,31	1205,00
2706,57	1223,00
2710,83	1150,00
2715,08	1118,00
2719,33	1188,00
2723,58	1206,00
2727,82	1243,00
2732,06	1239,00
2736,29	1134,00
2740,53	1183,00
2744,75	1101,00
2748,97	1211,00
2753,19	1123,00
2757,41	1056,00
2761,62	1002,00
2765,83	1100,00
2770,03	1114,00
2774,23	1082,00
2778,43	1055,00
2782,62	1187,00
2786,81	1205,00
2791,00	1092,00
2795,18	1024,00
2799,35	1051,00
2803,53	1050,00
2807,70	1056,00
2811,86	1232,00
2816,03	1262,00
2820,19	1226,00
2824,34	1213,00
2828,49	1222,00
2832,64	1395,00
2836,78	1520,00
2840,92	1693,00
2845,06	1929,00
2849,19	2175,00
2853,32	2105,00
2857,45	1979,00
2861,57	2055,00
2865,69	2110,00
2869,80	1976,00
2873,91	2038,00
2878,02	2040,00
2882,12	2369,00
2886,22	2155,00
2890,32	2011,00
2894,41	2053,00
2898,50	1934,00
2902,58	1721,00
2906,67	1627,00
2910,74	1686,00
2914,82	1605,00
2918,89	1538,00
2922,96	1352,00
2927,02	1314,00
2931,08	1163,00
2935,13	1333,00
2939,19	1156,00
2943,24	1142,00
2947,28	1113,00
2951,32	1034,00
2955,36	902,00
2959,40	977,00
2963,43	986,00
2967,46	942,00
2971,48	836,00
2975,50	819,00
2979,52	857,00
2983,53	744,00
2987,54	679,00
2991,55	954,00
2995,55	883,00
2999,55	677,00
3003,54	798,00
3007,54	685,00
3011,53	727,00
3015,51	723,00
3019,49	699,00
3023,47	738,00
3027,45	685,00
3031,42	692,00
3035,39	616,00
3039,35	610,00
3043,31	738,00
3047,27	716,00
3051,22	692,00
3055,17	495,00
3059,12	674,00
3063,06	661,00
3067,00	566,00
3070,94	569,00
3074,87	739,00
3078,80	595,00
3082,73	561,00
3086,65	581,00
3090,57	628,00
3094,49	549,00
3098,40	449,00
3102,31	582,00
3106,22	486,00
3110,12	528,00
3114,02	617,00
3117,92	614,00
3121,81	455,00
3125,70	583,00
3129,58	526,00
3133,47	426,00
3137,34	577,00
3141,22	437,00
3145,09	558,00
3148,96	497,00
3152,83	492,00
3156,69	522,00
3160,55	494,00
3164,40	424,00
3168,26	463,00
3172,10	494,00
3175,95	519,00
3179,79	513,00
3183,63	483,00
3187,47	480,00
3191,30	492,00
3195,13	460,00
3198,95	458,00
3202,78	455,00
3206,60	387,00
3210,41	361,00
3214,23	424,00
3218,03	435,00
3221,84	427,00
3225,64	402,00
3229,44	438,00
3233,24	474,00
3237,03	422,00
3240,82	307,00
3244,61	420,00
3248,39	428,00
3252,17	461,00
3255,95	471,00
3259,72	411,00
3263,49	427,00
3267,26	457,00
3271,03	349,00
3274,79	379,00
3278,54	343,00
3282,30	332,00
3286,05	477,00
3289,80	354,00
3293,54	410,00
3297,29	370,00
3301,02	355,00
3304,76	347,00
3308,49	480,00
3312,22	336,00
3315,95	428,00
3319,67	354,00
3323,39	344,00
3327,10	426,00
3330,82	316,00
3334,53	371,00
3338,24	383,00
3341,94	308,00
3345,64	349,00
3349,34	338,00
3353,03	322,00
3356,72	191,00
3360,41	360,00
3364,10	356,00
3367,78	303,00
3371,46	191,00
3375,13	245,00
3378,81	293,00
3382,48	460,00
3386,14	295,00
3389,81	320,00
3393,47	366,00
3397,12	319,00
3400,78	318,00
3404,43	375,00
3408,08	333,00
3411,72	330,00
3415,36	206,00
3419,00	277,00
3422,64	256,00
3426,27	396,00
3429,90	299,00
3433,53	367,00
3437,15	261,00
3440,77	290,00
3444,39	339,00
3448,00	305,00
3451,62	370,00
3455,22	325,00
3458,83	256,00
3462,43	237,00
3466,03	255,00
3469,63	239,00
3473,22	322,00
3476,81	307,00
3480,40	299,00
3483,99	301,00
3487,57	192,00
3491,15	159,00
3494,72	352,00
3498,29	360,00
3501,86	215,00
3505,43	235,00
3508,99	148,00
3512,56	297,00
3516,11	288,00
3519,67	182,00
3523,22	310,00
3526,77	292,00
3530,32	215,00
3533,86	291,00
3537,40	265,00
3540,94	158,00
3544,47	272,00
3548,00	228,00
3551,53	183,00
3555,06	178,00
3558,58	181,00
3562,10	245,00
3565,62	276,00
3569,13	312,00
3572,64	206,00
3576,15	242,00
3579,66	311,00
3583,16	248,00
3586,66	242,00
3590,16	244,00
3593,65	160,00
3597,14	189,00
3600,63	266,00
3604,11	239,00
3607,60	243,00
3611,08	145,00
3614,55	75,00
3618,03	167,00
3621,50	303,00
3624,97	283,00
3628,43	144,00
3631,90	260,00
3635,36	172,00
3638,81	206,00
3642,27	241,00
3645,72	237,00
3649,17	186,00
3652,61	168,00
3656,06	161,00
3659,50	205,00
3662,93	253,00
3666,37	241,00
3669,80	200,00
3673,23	218,00
3676,65	370,00
3680,08	229,00
3683,50	141,00
3686,92	265,00
3690,33	97,00
3693,74	272,00
3697,15	203,00
3700,56	172,00
3703,96	152,00
3707,36	362,00
3710,76	237,00
3714,16	153,00
3717,55	165,00
3720,94	132,00
3724,33	211,00
3727,71	156,00
3731,10	59,00
3734,48	177,00
3737,85	143,00
3741,23	129,00
3744,60	125,00
3747,97	150,00
3751,33	227,00
3754,69	138,00
3758,05	199,00
3761,41	173,00
3764,77	233,00
3768,12	204,00
3771,47	122,00
3774,82	283,00
3778,16	1,00
3781,50	3,00
3784,84	-3,00
3788,18	0,00
>>>>>End Processed Spectral Data<<<<<
