SpectraSuite Data File
++++++++++++++++++++++++++++++++++++
Date: Mon Mar 09 14:42:23 ICT 2026
User: Administrator
Dark Spectrum Present: Yes
Reference Spectrum Present: No
Number of Sampled Component Spectra: 1
Spectrometers: MAYP113682
Integration Time (usec): 3000000 (MAYP113682)
Spectra Averaged: 1 (MAYP113682)
Boxcar Smoothing: 0 (MAYP113682)
Correct for Electrical Dark: No (MAYP113682)
Strobe/Lamp Enabled: No (MAYP113682)
Correct for Detector Non-linearity: No (MAYP113682)
Correct for Stray Light: No (MAYP113682)
Number of Pixels in Processed Spectrum: 2068
>>>>>Begin Processed Spectral Data<<<<<
-37534,58	23,00
-37414,56	-1,00
-37295,11	3,00
-37176,24	2,00
-37057,95	412,00
-36940,22	427,00
-36823,05	478,00
-36706,45	471,00
-36590,40	443,00
-36474,90	459,00
-36359,95	463,00
-36245,55	406,00
-36131,68	525,00
-36018,35	495,00
-35905,55	413,00
-35793,29	461,00
-35681,54	482,00
-35570,32	420,00
-35459,62	487,00
-35349,43	459,00
-35239,75	515,00
-35130,58	400,00
-35021,91	392,00
-34913,74	563,00
-34806,07	520,00
-34698,89	566,00
-34592,20	461,00
-34486,00	531,00
-34380,28	423,00
-34275,04	516,00
-34170,27	443,00
-34065,98	492,00
-33962,16	482,00
-33858,81	490,00
-33755,92	464,00
-33653,49	576,00
-33551,52	477,00
-33450,01	456,00
-33348,94	569,00
-33248,33	504,00
-33148,16	558,00
-33048,43	526,00
-32949,14	615,00
-32850,29	471,00
-32751,87	508,00
-32653,89	530,00
-32556,33	571,00
-32459,20	532,00
-32362,49	513,00
-32266,19	455,00
-32170,32	501,00
-32074,86	540,00
-31979,82	620,00
-31885,18	668,00
-31790,95	543,00
-31697,12	500,00
-31603,69	632,00
-31510,67	568,00
-31418,04	422,00
-31325,80	579,00
-31233,95	564,00
-31142,49	502,00
-31051,42	587,00
-30960,73	572,00
-30870,43	556,00
-30780,50	496,00
-30690,95	523,00
-30601,77	625,00
-30512,97	527,00
-30424,53	551,00
-30336,46	419,00
-30248,76	579,00
-30161,42	527,00
-30074,44	477,00
-29987,81	574,00
-29901,55	619,00
-29815,63	496,00
-29730,07	514,00
-29644,86	608,00
-29560,00	502,00
-29475,48	534,00
-29391,30	610,00
-29307,47	464,00
-29223,97	538,00
-29140,81	482,00
-29057,99	477,00
-28975,50	531,00
-28893,34	552,00
-28811,51	465,00
-28730,00	484,00
-28648,82	527,00
-28567,97	559,00
-28487,43	585,00
-28407,21	487,00
-28327,32	460,00
-28247,73	602,00
-28168,46	533,00
-28089,50	507,00
-28010,85	455,00
-27932,51	511,00
-27854,48	610,00
-27776,75	492,00
-27699,32	470,00
-27622,19	598,00
-27545,37	529,00
-27468,84	523,00
-27392,60	626,00
-27316,66	435,00
-27241,01	564,00
-27165,66	563,00
-27090,59	558,00
-27015,81	559,00
-26941,31	591,00
-26867,10	538,00
-26793,17	515,00
-26719,52	590,00
-26646,15	548,00
-26573,06	594,00
-26500,24	520,00
-26427,70	455,00
-26355,43	657,00
-26283,43	491,00
-26211,71	637,00
-26140,25	557,00
-26069,06	705,00
-25998,13	425,00
-25927,46	465,00
-25857,06	580,00
-25786,92	452,00
-25717,04	465,00
-25647,42	455,00
-25578,05	527,00
-25508,94	543,00
-25440,09	494,00
-25371,48	461,00
-25303,13	478,00
-25235,02	510,00
-25167,17	611,00
-25099,56	580,00
-25032,19	520,00
-24965,07	488,00
-24898,20	489,00
-24831,56	516,00
-24765,17	519,00
-24699,01	556,00
-24633,10	509,00
-24567,41	532,00
-24501,97	534,00
-24436,75	546,00
-24371,77	501,00
-24307,03	476,00
-24242,51	419,00
-24178,22	581,00
-24114,16	477,00
-24050,32	570,00
-23986,71	558,00
-23923,32	570,00
-23860,16	587,00
-23797,22	507,00
-23734,50	520,00
-23672,00	508,00
-23609,71	469,00
-23547,65	417,00
-23485,80	483,00
-23424,16	491,00
-23362,74	608,00
-23301,53	482,00
-23240,54	453,00
-23179,75	574,00
-23119,17	462,00
-23058,80	541,00
-22998,64	525,00
-22938,68	529,00
-22878,93	512,00
-22819,39	550,00
-22760,04	529,00
-22700,90	461,00
-22641,96	493,00
-22583,22	555,00
-22524,68	512,00
-22466,33	418,00
-22408,19	619,00
-22350,23	589,00
-22292,48	589,00
-22234,92	485,00
-22177,55	564,00
-22120,37	525,00
-22063,38	506,00
-22006,58	429,00
-21949,98	570,00
-21893,56	432,00
-21837,33	532,00
-21781,28	518,00
-21725,42	449,00
-21669,74	577,00
-21614,25	536,00
-21558,94	444,00
-21503,81	444,00
-21448,86	613,00
-21394,10	500,00
-21339,51	464,00
-21285,10	457,00
-21230,86	468,00
-21176,81	517,00
-21122,93	509,00
-21069,22	629,00
-21015,69	514,00
-20962,33	597,00
-20909,14	530,00
-20856,13	406,00
-20803,28	472,00
-20750,61	469,00
-20698,10	410,00
-20645,76	492,00
-20593,59	548,00
-20541,59	517,00
-20489,75	556,00
-20438,07	509,00
-20386,56	604,00
-20335,22	524,00
-20284,03	488,00
-20233,01	508,00
-20182,15	421,00
-20131,45	454,00
-20080,91	454,00
-20030,52	486,00
-19980,30	431,00
-19930,23	445,00
-19880,32	539,00
-19830,56	536,00
-19780,96	489,00
-19731,52	551,00
-19682,23	497,00
-19633,09	444,00
-19584,10	490,00
-19535,26	471,00
-19486,58	564,00
-19438,04	480,00
-19389,66	441,00
-19341,42	474,00
-19293,33	444,00
-19245,39	522,00
-19197,60	488,00
-19149,95	504,00
-19102,45	506,00
-19055,09	459,00
-19007,87	519,00
-18960,80	480,00
-18913,87	500,00
-18867,09	596,00
-18820,44	519,00
-18773,94	550,00
-18727,57	532,00
-18681,35	397,00
-18635,26	568,00
-18589,31	423,00
-18543,50	390,00
-18497,83	537,00
-18452,29	544,00
-18406,89	489,00
-18361,63	590,00
-18316,50	540,00
-18271,50	517,00
-18226,63	521,00
-18181,90	507,00
-18137,30	629,00
-18092,84	424,00
-18048,50	552,00
-18004,29	396,00
-17960,22	514,00
-17916,27	416,00
-17872,45	523,00
-17828,76	458,00
-17785,20	585,00
-17741,77	527,00
-17698,46	489,00
-17655,28	446,00
-17612,22	427,00
-17569,29	438,00
-17526,48	578,00
-17483,79	484,00
-17441,23	497,00
-17398,79	482,00
-17356,48	479,00
-17314,28	632,00
-17272,21	496,00
-17230,26	459,00
-17188,42	539,00
-17146,71	482,00
-17105,12	528,00
-17063,64	505,00
-17022,28	459,00
-16981,04	514,00
-16939,92	523,00
-16898,91	527,00
-16858,02	479,00
-16817,25	319,00
-16776,59	423,00
-16736,04	526,00
-16695,61	474,00
-16655,29	489,00
-16615,09	541,00
-16574,99	531,00
-16535,01	448,00
-16495,15	544,00
-16455,39	608,00
-16415,74	509,00
-16376,21	483,00
-16336,78	398,00
-16297,46	514,00
-16258,26	586,00
-16219,16	507,00
-16180,17	474,00
-16141,28	571,00
-16102,51	539,00
-16063,84	476,00
-16025,27	629,00
-15986,82	369,00
-15948,46	475,00
-15910,22	545,00
-15872,07	556,00
-15834,04	483,00
-15796,10	449,00
-15758,27	636,00
-15720,54	556,00
-15682,91	456,00
-15645,39	444,00
-15607,97	522,00
-15570,64	481,00
-15533,42	594,00
-15496,30	521,00
-15459,28	548,00
-15422,36	445,00
-15385,54	506,00
-15348,82	474,00
-15312,19	496,00
-15275,66	450,00
-15239,23	384,00
-15202,90	447,00
-15166,67	452,00
-15130,53	508,00
-15094,48	601,00
-15058,54	541,00
-15022,68	395,00
-14986,93	548,00
-14951,26	481,00
-14915,69	472,00
-14880,22	459,00
-14844,84	500,00
-14809,55	422,00
-14774,35	539,00
-14739,25	603,00
-14704,24	598,00
-14669,32	533,00
-14634,49	464,00
-14599,75	519,00
-14565,10	464,00
-14530,55	574,00
-14496,08	529,00
-14461,70	519,00
-14427,41	439,00
-14393,21	536,00
-14359,10	468,00
-14325,07	493,00
-14291,14	532,00
-14257,29	451,00
-14223,52	524,00
-14189,85	573,00
-14156,26	545,00
-14122,76	473,00
-14089,34	479,00
-14056,01	493,00
-14022,76	527,00
-13989,60	617,00
-13956,52	501,00
-13923,53	528,00
-13890,62	545,00
-13857,79	482,00
-13825,05	494,00
-13792,39	437,00
-13759,81	561,00
-13727,31	483,00
-13694,90	517,00
-13662,57	485,00
-13630,31	511,00
-13598,14	450,00
-13566,05	448,00
-13534,05	521,00
-13502,12	468,00
-13470,27	540,00
-13438,50	576,00
-13406,80	494,00
-13375,19	478,00
-13343,66	474,00
-13312,20	426,00
-13280,83	409,00
-13249,53	486,00
-13218,30	456,00
-13187,16	403,00
-13156,09	482,00
-13125,10	594,00
-13094,18	497,00
-13063,34	564,00
-13032,58	413,00
-13001,89	570,00
-12971,28	537,00
-12940,74	529,00
-12910,27	550,00
-12879,88	522,00
-12849,57	554,00
-12819,33	454,00
-12789,16	511,00
-12759,06	412,00
-12729,04	536,00
-12699,09	1128,00
-12669,21	497,00
-12639,41	504,00
-12609,68	500,00
-12580,02	487,00
-12550,43	526,00
-12520,91	399,00
-12491,46	526,00
-12462,08	463,00
-12432,77	554,00
-12403,54	504,00
-12374,37	504,00
-12345,27	504,00
-12316,24	566,00
-12287,29	597,00
-12258,40	470,00
-12229,57	592,00
-12200,82	585,00
-12172,14	443,00
-12143,52	472,00
-12114,97	451,00
-12086,49	518,00
-12058,07	448,00
-12029,73	476,00
-12001,44	628,00
-11973,23	505,00
-11945,08	576,00
-11917,00	506,00
-11888,98	523,00
-11861,03	446,00
-11833,15	527,00
-11805,32	545,00
-11777,57	497,00
-11749,88	571,00
-11722,25	494,00
-11694,69	509,00
-11667,19	511,00
-11639,75	412,00
-11612,38	515,00
-11585,07	462,00
-11557,83	564,00
-11530,65	584,00
-11503,53	629,00
-11476,47	652,00
-11449,48	508,00
-11422,54	480,00
-11395,67	459,00
-11368,86	608,00
-11342,11	544,00
-11315,43	498,00
-11288,80	463,00
-11262,23	570,00
-11235,73	471,00
-11209,28	480,00
-11182,90	510,00
-11156,57	559,00
-11130,31	527,00
-11104,10	518,00
-11077,96	564,00
-11051,87	480,00
-11025,84	512,00
-10999,87	540,00
-10973,96	606,00
-10948,11	576,00
-10922,31	429,00
-10896,58	541,00
-10870,90	590,00
-10845,28	544,00
-10819,71	395,00
-10794,20	467,00
-10768,75	560,00
-10743,36	458,00
-10718,02	505,00
-10692,74	518,00
-10667,52	430,00
-10642,35	574,00
-10617,24	662,00
-10592,18	578,00
-10567,18	488,00
-10542,23	514,00
-10517,34	489,00
-10492,51	529,00
-10467,72	473,00
-10443,00	469,00
-10418,32	604,00
-10393,70	475,00
-10369,14	403,00
-10344,63	477,00
-10320,17	493,00
-10295,77	525,00
-10271,42	484,00
-10247,12	528,00
-10222,88	598,00
-10198,68	416,00
-10174,54	434,00
-10150,46	485,00
-10126,42	461,00
-10102,44	550,00
-10078,51	542,00
-10054,63	596,00
-10030,80	444,00
-10007,03	628,00
-9983,30	477,00
-9959,63	587,00
-9936,01	552,00
-9912,44	520,00
-9888,92	502,00
-9865,44	445,00
-9842,02	512,00
-9818,65	548,00
-9795,33	503,00
-9772,06	555,00
-9748,84	479,00
-9725,67	463,00
-9702,55	537,00
-9679,47	585,00
-9656,45	549,00
-9633,47	386,00
-9610,55	513,00
-9587,67	479,00
-9564,84	607,00
-9542,06	516,00
-9519,32	509,00
-9496,64	607,00
-9474,00	461,00
-9451,41	537,00
-9428,87	554,00
-9406,37	485,00
-9383,92	460,00
-9361,52	482,00
-9339,17	501,00
-9316,86	397,00
-9294,60	452,00
-9272,38	616,00
-9250,21	416,00
-9228,09	564,00
-9206,01	509,00
-9183,98	509,00
-9162,00	426,00
-9140,06	413,00
-9118,16	356,00
-9096,31	558,00
-9074,51	483,00
-9052,75	665,00
-9031,04	688,00
-9009,37	449,00
-8987,74	435,00
-8966,16	453,00
-8944,63	401,00
-8923,14	428,00
-8901,69	474,00
-8880,29	498,00
-8858,93	481,00
-8837,61	527,00
-8816,34	607,00
-8795,11	536,00
-8773,92	566,00
-8752,78	531,00
-8731,68	454,00
-8710,62	481,00
-8689,61	364,00
-8668,63	448,00
-8647,70	674,00
-8626,82	494,00
-8605,97	540,00
-8585,17	473,00
-8564,41	451,00
-8543,69	600,00
-8523,01	474,00
-8502,37	624,00
-8481,78	463,00
-8461,23	342,00
-8440,71	490,00
-8420,24	516,00
-8399,81	535,00
-8379,42	555,00
-8359,08	529,00
-8338,77	452,00
-8318,50	590,00
-8298,27	558,00
-8278,09	538,00
-8257,94	489,00
-8237,83	540,00
-8217,76	578,00
-8197,74	515,00
-8177,75	503,00
-8157,80	590,00
-8137,89	599,00
-8118,02	466,00
-8098,19	620,00
-8078,40	499,00
-8058,65	511,00
-8038,93	624,00
-8019,26	617,00
-7999,62	605,00
-7980,02	455,00
-7960,46	558,00
-7940,94	528,00
-7921,46	564,00
-7902,01	413,00
-7882,60	625,00
-7863,23	519,00
-7843,90	576,00
-7824,61	521,00
-7805,35	534,00
-7786,13	604,00
-7766,95	455,00
-7747,80	571,00
-7728,69	567,00
-7709,62	585,00
-7690,59	600,00
-7671,59	568,00
-7652,63	575,00
-7633,70	475,00
-7614,81	574,00
-7595,96	503,00
-7577,15	533,00
-7558,37	471,00
-7539,62	570,00
-7520,91	541,00
-7502,24	530,00
-7483,60	588,00
-7465,00	688,00
-7446,44	561,00
-7427,91	452,00
-7409,41	514,00
-7390,95	473,00
-7372,53	434,00
-7354,14	556,00
-7335,78	581,00
-7317,46	489,00
-7299,18	581,00
-7280,92	587,00
-7262,71	649,00
-7244,52	546,00
-7226,38	477,00
-7208,26	588,00
-7190,18	595,00
-7172,14	590,00
-7154,12	577,00
-7136,15	485,00
-7118,20	591,00
-7100,29	595,00
-7082,41	619,00
-7064,57	532,00
-7046,76	587,00
-7028,98	430,00
-7011,24	694,00
-6993,53	338,00
-6975,85	428,00
-6958,20	436,00
-6940,59	484,00
-6923,01	403,00
-6905,46	549,00
-6887,94	446,00
-6870,46	-1500,00
-6853,01	603,00
-6835,59	463,00
-6818,21	441,00
-6800,85	456,00
-6783,53	498,00
-6766,24	466,00
-6748,98	422,00
-6731,76	421,00
-6714,56	390,00
-6697,40	382,00
-6680,26	447,00
-6663,16	431,00
-6646,09	514,00
-6629,05	436,00
-6612,05	557,00
-6595,07	444,00
-6578,13	476,00
-6561,21	440,00
-6544,33	479,00
-6527,47	508,00
-6510,65	443,00
-6493,86	441,00
-6477,10	420,00
-6460,36	436,00
-6443,66	412,00
-6426,99	418,00
-6410,35	319,00
-6393,74	466,00
-6377,16	377,00
-6360,61	384,00
-6344,09	421,00
-6327,59	354,00
-6311,13	403,00
-6294,70	485,00
-6278,29	572,00
-6261,92	483,00
-6245,58	486,00
-6229,26	537,00
-6212,97	471,00
-6196,72	458,00
-6180,49	539,00
-6164,29	391,00
-6148,12	488,00
-6131,98	435,00
-6115,86	532,00
-6099,78	381,00
-6083,72	333,00
-6067,69	433,00
-6051,69	484,00
-6035,72	427,00
-6019,78	508,00
-6003,87	445,00
-5987,98	396,00
-5972,12	463,00
-5956,29	498,00
-5940,49	462,00
-5924,71	531,00
-5908,96	491,00
-5893,24	419,00
-5877,55	424,00
-5861,89	473,00
-5846,25	478,00
-5830,64	504,00
-5815,05	389,00
-5799,50	396,00
-5783,97	490,00
-5768,47	592,00
-5752,99	572,00
-5737,55	458,00
-5722,12	414,00
-5706,73	489,00
-5691,36	506,00
-5676,02	512,00
-5660,71	475,00
-5645,42	434,00
-5630,16	507,00
-5614,92	385,00
-5599,71	352,00
-5584,53	472,00
-5569,37	365,00
-5554,24	1171,00
-5539,14	500,00
-5524,06	496,00
-5509,01	457,00
-5493,98	407,00
-5478,98	514,00
-5464,00	460,00
-5449,05	437,00
-5434,13	410,00
-5419,23	546,00
-5404,36	412,00
-5389,51	471,00
-5374,69	460,00
-5359,89	454,00
-5345,12	521,00
-5330,37	537,00
-5315,65	617,00
-5300,95	566,00
-5286,28	463,00
-5271,63	394,00
-5257,01	534,00
-5242,41	439,00
-5227,84	463,00
-5213,29	492,00
-5198,76	467,00
-5184,26	440,00
-5169,79	516,00
-5155,33	522,00
-5140,91	489,00
-5126,51	417,00
-5112,13	539,00
-5097,77	543,00
-5083,44	476,00
-5069,13	393,00
-5054,85	493,00
-5040,59	451,00
-5026,36	432,00
-5012,15	486,00
-4997,96	479,00
-4983,80	446,00
-4969,66	491,00
-4955,54	476,00
-4941,44	590,00
-4927,37	512,00
-4913,33	483,00
-4899,30	365,00
-4885,30	483,00
-4871,33	521,00
-4857,37	544,00
-4843,44	472,00
-4829,53	516,00
-4815,65	513,00
-4801,79	356,00
-4787,95	355,00
-4774,13	431,00
-4760,34	441,00
-4746,56	568,00
-4732,82	444,00
-4719,09	410,00
-4705,38	540,00
-4691,70	613,00
-4678,04	469,00
-4664,41	455,00
-4650,79	621,00
-4637,20	483,00
-4623,63	521,00
-4610,08	467,00
-4596,56	523,00
-4583,05	456,00
-4569,57	422,00
-4556,11	501,00
-4542,67	416,00
-4529,25	475,00
-4515,86	647,00
-4502,49	509,00
-4489,13	577,00
-4475,80	494,00
-4462,49	398,00
-4449,21	656,00
-4435,94	454,00
-4422,70	600,00
-4409,47	421,00
-4396,27	510,00
-4383,09	481,00
-4369,93	467,00
-4356,79	635,00
-4343,67	488,00
-4330,58	423,00
-4317,50	418,00
-4304,45	497,00
-4291,41	540,00
-4278,40	585,00
-4265,41	490,00
-4252,44	502,00
-4239,49	404,00
-4226,55	543,00
-4213,65	654,00
-4200,76	507,00
-4187,89	510,00
-4175,04	528,00
-4162,21	553,00
-4149,40	486,00
-4136,61	428,00
-4123,85	448,00
-4111,10	490,00
-4098,37	569,00
-4085,66	559,00
-4072,98	503,00
-4060,31	424,00
-4047,66	529,00
-4035,04	529,00
-4022,43	506,00
-4009,84	585,00
-3997,27	457,00
-3984,72	553,00
-3972,19	536,00
-3959,69	448,00
-3947,20	541,00
-3934,73	553,00
-3922,27	478,00
-3909,84	475,00
-3897,43	464,00
-3885,04	460,00
-3872,67	480,00
-3860,31	451,00
-3847,98	500,00
-3835,66	443,00
-3823,36	595,00
-3811,09	510,00
-3798,83	525,00
-3786,59	482,00
-3774,37	664,00
-3762,17	438,00
-3749,98	441,00
-3737,82	469,00
-3725,67	603,00
-3713,55	423,00
-3701,44	542,00
-3689,35	533,00
-3677,28	551,00
-3665,22	473,00
-3653,19	500,00
-3641,17	519,00
-3629,18	564,00
-3617,20	536,00
-3605,24	506,00
-3593,30	554,00
-3581,37	548,00
-3569,47	576,00
-3557,58	570,00
-3545,71	385,00
-3533,86	562,00
-3522,02	531,00
-3510,21	539,00
-3498,41	511,00
-3486,63	526,00
-3474,87	469,00
-3463,12	537,00
-3451,40	486,00
-3439,69	518,00
-3428,00	530,00
-3416,33	553,00
-3404,67	503,00
-3393,03	505,00
-3381,41	525,00
-3369,81	501,00
-3358,22	572,00
-3346,66	508,00
-3335,10	535,00
-3323,57	539,00
-3312,06	523,00
-3300,56	419,00
-3289,08	437,00
-3277,61	448,00
-3266,16	536,00
-3254,73	520,00
-3243,32	488,00
-3231,92	462,00
-3220,55	500,00
-3209,18	533,00
-3197,84	492,00
-3186,51	399,00
-3175,20	475,00
-3163,90	497,00
-3152,63	497,00
-3141,36	503,00
-3130,12	537,00
-3118,89	470,00
-3107,68	589,00
-3096,49	611,00
-3085,31	553,00
-3074,15	461,00
-3063,00	485,00
-3051,87	578,00
-3040,76	598,00
-3029,67	540,00
-3018,59	685,00
-3007,52	573,00
-2996,48	574,00
-2985,44	423,00
-2974,43	546,00
-2963,43	502,00
-2952,45	360,00
-2941,48	503,00
-2930,53	576,00
-2919,60	527,00
-2908,68	457,00
-2897,78	456,00
-2886,89	566,00
-2876,02	575,00
-2865,17	463,00
-2854,33	494,00
-2843,50	438,00
-2832,70	380,00
-2821,90	507,00
-2811,13	493,00
-2800,37	488,00
-2789,62	459,00
-2778,89	597,00
-2768,18	542,00
-2757,48	542,00
-2746,80	557,00
-2736,13	516,00
-2725,48	445,00
-2714,84	603,00
-2704,22	511,00
-2693,61	545,00
-2683,02	548,00
-2672,45	447,00
-2661,89	587,00
-2651,34	579,00
-2640,81	447,00
-2630,30	514,00
-2619,80	558,00
-2609,31	523,00
-2598,84	405,00
-2588,39	506,00
-2577,95	530,00
-2567,52	511,00
-2557,11	555,00
-2546,71	480,00
-2536,33	586,00
-2525,97	483,00
-2515,62	497,00
-2505,28	493,00
-2494,96	459,00
-2484,65	521,00
-2474,36	687,00
-2464,08	517,00
-2453,82	572,00
-2443,57	482,00
-2433,33	491,00
-2423,11	505,00
-2412,91	460,00
-2402,72	418,00
-2392,54	537,00
-2382,38	474,00
-2372,23	589,00
-2362,09	4572,00
-2351,97	417,00
-2341,87	534,00
-2331,78	493,00
-2321,70	568,00
-2311,64	588,00
-2301,59	531,00
-2291,55	499,00
-2281,53	569,00
-2271,53	457,00
-2261,53	619,00
-2251,55	460,00
-2241,59	523,00
-2231,64	503,00
-2221,70	497,00
-2211,78	599,00
-2201,87	489,00
-2191,97	601,00
-2182,09	543,00
-2172,22	602,00
-2162,37	533,00
-2152,53	502,00
-2142,70	444,00
-2132,89	396,00
-2123,09	532,00
-2113,30	541,00
-2103,53	512,00
-2093,77	459,00
-2084,02	445,00
-2074,29	496,00
-2064,57	488,00
-2054,86	566,00
-2045,17	478,00
-2035,49	507,00
-2025,82	530,00
-2016,17	462,00
-2006,53	504,00
-1996,91	443,00
-1987,29	480,00
-1977,69	523,00
-1968,11	534,00
-1958,53	594,00
-1948,97	541,00
-1939,42	462,00
-1929,89	489,00
-1920,37	571,00
-1910,86	482,00
-1901,36	580,00
-1891,88	485,00
-1882,41	510,00
-1872,95	545,00
-1863,51	432,00
-1854,08	512,00
-1844,66	586,00
-1835,26	492,00
-1825,86	535,00
-1816,48	545,00
-1807,11	547,00
-1797,76	573,00
-1788,42	498,00
-1779,09	488,00
-1769,77	517,00
-1760,47	571,00
-1751,17	493,00
-1741,89	537,00
-1732,63	548,00
-1723,37	702,00
-1714,13	572,00
-1704,90	470,00
-1695,68	635,00
-1686,48	378,00
-1677,29	443,00
-1668,11	612,00
-1658,94	512,00
-1649,78	522,00
-1640,64	504,00
-1631,51	501,00
-1622,39	523,00
-1613,28	579,00
-1604,19	728,00
-1595,10	473,00
-1586,03	417,00
-1576,97	537,00
-1567,93	520,00
-1558,89	608,00
-1549,87	607,00
-1540,86	464,00
-1531,86	493,00
-1522,87	484,00
-1513,90	625,00
-1504,93	533,00
-1495,98	535,00
-1487,04	644,00
-1478,12	537,00
-1469,20	449,00
-1460,30	608,00
-1451,40	515,00
-1442,52	490,00
-1433,65	558,00
-1424,80	536,00
-1415,95	489,00
-1407,12	633,00
-1398,30	503,00
-1389,48	420,00
-1380,69	532,00
-1371,90	498,00
-1363,12	517,00
-1354,36	626,00
-1345,60	482,00
-1336,86	491,00
-1328,13	653,00
-1319,41	463,00
-1310,70	513,00
-1302,01	561,00
-1293,32	477,00
-1284,65	559,00
-1275,99	504,00
-1267,33	581,00
-1258,69	580,00
-1250,06	541,00
-1241,45	517,00
-1232,84	514,00
-1224,25	576,00
-1215,66	511,00
-1207,09	567,00
-1198,53	474,00
-1189,97	544,00
-1181,43	511,00
-1172,91	650,00
-1164,39	569,00
-1155,88	507,00
-1147,38	435,00
-1138,90	426,00
-1130,43	473,00
-1121,96	557,00
-1113,51	564,00
-1105,07	469,00
-1096,64	527,00
-1088,22	516,00
-1079,81	568,00
-1071,41	625,00
-1063,02	535,00
-1054,65	549,00
-1046,28	447,00
-1037,92	573,00
-1029,58	488,00
-1021,24	538,00
-1012,92	778,00
-1004,61	607,00
-996,30	710,00
-988,01	486,00
-979,73	604,00
-971,46	453,00
-963,20	444,00
-954,95	516,00
-946,71	511,00
-938,48	511,00
-930,26	533,00
-922,06	633,00
-913,86	556,00
-905,67	565,00
-897,49	450,00
-889,33	534,00
-881,17	554,00
-873,02	622,00
-864,89	409,00
-856,76	456,00
-848,65	485,00
-840,54	579,00
-832,45	485,00
-824,36	444,00
-816,29	550,00
-808,22	513,00
-800,17	609,00
-792,12	603,00
-784,09	620,00
-776,06	468,00
-768,05	499,00
-760,04	513,00
-752,05	452,00
-744,07	599,00
-736,09	593,00
-728,13	415,00
-720,17	504,00
-712,23	495,00
-704,29	598,00
-696,37	533,00
-688,45	539,00
-680,55	503,00
-672,65	463,00
-664,77	491,00
-656,89	533,00
-649,03	484,00
-641,17	614,00
-633,32	603,00
-625,49	540,00
-617,66	506,00
-609,84	597,00
-602,03	437,00
-594,23	537,00
-586,45	530,00
-578,67	453,00
-570,90	453,00
-563,14	512,00
-555,39	565,00
-547,65	561,00
-539,91	538,00
-532,19	480,00
-524,48	523,00
-516,78	532,00
-509,08	571,00
-501,40	452,00
-493,72	526,00
-486,06	604,00
-478,40	708,00
-470,76	517,00
-463,12	439,00
-455,49	540,00
-447,87	446,00
-440,26	494,00
-432,66	462,00
-425,07	511,00
-417,49	557,00
-409,92	478,00
-402,35	423,00
-394,80	506,00
-387,25	569,00
-379,72	566,00
-372,19	493,00
-364,67	560,00
-357,17	498,00
-349,67	542,00
-342,18	501,00
-334,69	483,00
-327,22	511,00
-319,76	503,00
-312,30	644,00
-304,86	577,00
-297,42	562,00
-290,00	473,00
-282,58	495,00
-275,17	637,00
-267,77	561,00
-260,37	572,00
-252,99	540,00
-245,62	534,00
-238,25	529,00
-230,90	609,00
-223,55	579,00
-216,21	536,00
-208,88	577,00
-201,56	625,00
-194,25	565,00
-186,94	558,00
-179,65	659,00
-172,36	667,00
-165,08	552,00
-157,81	758,00
-150,55	710,00
-143,30	730,00
-136,06	780,00
-128,82	791,00
-121,60	702,00
-114,38	766,00
-107,17	867,00
-99,97	889,00
-92,78	954,00
-85,60	1020,00
-78,42	1072,00
-71,25	1161,00
-64,10	1288,00
-56,95	1406,00
-49,81	1545,00
-42,67	2002,00
-35,55	2260,00
-28,43	2796,00
-21,33	4184,00
-14,23	12750,00
-7,14	57775,00
-0,05	57564,00
7,02	57281,00
14,09	45374,00
21,14	12037,00
28,19	5188,00
35,23	3484,00
42,27	2689,00
49,29	2303,00
56,31	2106,00
63,32	1854,00
70,32	1588,00
77,31	1289,00
84,29	1219,00
91,27	1235,00
98,23	1192,00
105,19	1069,00
112,14	1165,00
119,09	1434,00
126,02	1893,00
132,95	2193,00
139,87	2181,00
146,78	2255,00
153,68	2095,00
160,58	2173,00
167,46	2101,00
174,34	2138,00
181,21	2193,00
188,08	2044,00
194,93	2216,00
201,78	2102,00
208,62	2106,00
215,45	2075,00
222,27	2083,00
229,09	2259,00
235,90	2015,00
242,70	2069,00
249,49	2109,00
256,27	2014,00
263,05	2049,00
269,82	2063,00
276,58	2109,00
283,33	1987,00
290,08	2033,00
296,82	2046,00
303,55	1973,00
310,27	1871,00
316,98	2001,00
323,69	1986,00
330,39	1934,00
337,08	2000,00
343,76	2004,00
350,44	2019,00
357,11	1950,00
363,77	1854,00
370,42	1891,00
377,07	2021,00
383,71	1852,00
390,34	2008,00
396,96	1897,00
403,58	1879,00
410,19	1999,00
416,79	2007,00
423,38	2070,00
429,97	2046,00
436,55	1898,00
443,12	1900,00
449,68	1792,00
456,24	1852,00
462,79	1933,00
469,33	1774,00
475,86	1873,00
482,39	1901,00
488,91	1885,00
495,42	1802,00
501,93	1938,00
508,42	1778,00
514,91	2002,00
521,40	1756,00
527,87	1851,00
534,34	1717,00
540,80	1876,00
547,25	1867,00
553,70	1875,00
560,14	1859,00
566,57	1914,00
573,00	1896,00
579,41	1871,00
585,83	1858,00
592,23	1866,00
598,62	1849,00
605,01	1801,00
611,40	1850,00
617,77	1922,00
624,14	1778,00
630,50	1851,00
636,85	1902,00
643,20	1823,00
649,54	1829,00
655,87	1855,00
662,20	1947,00
668,52	1888,00
674,83	1845,00
681,13	1925,00
687,43	1825,00
693,72	1825,00
700,00	1789,00
706,28	1823,00
712,55	1783,00
718,81	1849,00
725,07	1789,00
731,32	1839,00
737,56	1816,00
743,79	1849,00
750,02	1872,00
756,24	1805,00
762,46	1782,00
768,67	2039,00
774,87	1915,00
781,06	1904,00
787,25	1904,00
793,43	1882,00
799,60	1749,00
805,77	1948,00
811,93	1793,00
818,08	1785,00
824,23	1852,00
830,37	2041,00
836,50	1883,00
842,63	1933,00
848,75	1901,00
854,87	1983,00
860,97	1838,00
867,07	1887,00
873,17	1811,00
879,25	1861,00
885,33	1903,00
891,41	1890,00
897,47	1940,00
903,53	1896,00
909,59	1890,00
915,63	1876,00
921,67	1924,00
927,71	1935,00
933,74	1825,00
939,76	1817,00
945,77	1861,00
951,78	1828,00
957,78	1891,00
963,78	1922,00
969,77	1992,00
975,75	1933,00
981,72	1821,00
987,69	2690,00
993,66	1902,00
999,61	1919,00
1005,56	2023,00
1011,51	1817,00
1017,44	1908,00
1023,37	1889,00
1029,30	1957,00
1035,22	1986,00
1041,13	1928,00
1047,03	1991,00
1052,93	2028,00
1058,83	2452,00
1064,71	2544,00
1070,59	2279,00
1076,47	2117,00
1082,33	2153,00
1088,20	2111,00
1094,05	2104,00
1099,90	1930,00
1105,74	1992,00
1111,58	1959,00
1117,41	2073,00
1123,23	2219,00
1129,05	2637,00
1134,86	2462,00
1140,67	2309,00
1146,47	2047,00
1152,26	2117,00
1158,05	1843,00
1163,83	2041,00
1169,60	2127,00
1175,37	2011,00
1181,13	1925,00
1186,89	2098,00
1192,64	1935,00
1198,38	2067,00
1204,12	1976,00
1209,85	2017,00
1215,58	2081,00
1221,30	2034,00
1227,02	1993,00
1232,72	2000,00
1238,43	1925,00
1244,12	2011,00
1249,81	2037,00
1255,50	2052,00
1261,17	1922,00
1266,85	1988,00
1272,51	2097,00
1278,17	2196,00
1283,83	2141,00
1289,47	2502,00
1295,12	2960,00
1300,75	2714,00
1306,38	2432,00
1312,01	2196,00
1317,63	2068,00
1323,24	2090,00
1328,85	2137,00
1334,45	2131,00
1340,04	1988,00
1345,63	2053,00
1351,22	2130,00
1356,80	2081,00
1362,37	2062,00
1367,93	2069,00
1373,49	2128,00
1379,05	2050,00
1384,60	2083,00
1390,14	2158,00
1395,68	2116,00
1401,21	2068,00
1406,74	2230,00
1412,26	2338,00
1417,77	2465,00
1423,28	2340,00
1428,78	2487,00
1434,28	2677,00
1439,77	2878,00
1445,26	2781,00
1450,74	2748,00
1456,22	2688,00
1461,68	2722,00
1467,15	2483,00
1472,61	2315,00
1478,06	2310,00
1483,51	2215,00
1488,95	2250,00
1494,38	2143,00
1499,81	2030,00
1505,24	1952,00
1510,65	2067,00
1516,07	1995,00
1521,48	1946,00
1526,88	1856,00
1532,27	2053,00
1537,67	1938,00
1543,05	2079,00
1548,43	1853,00
1553,81	1986,00
1559,18	1916,00
1564,54	1987,00
1569,90	1994,00
1575,25	1948,00
1580,60	1844,00
1585,94	1913,00
1591,28	1930,00
1596,61	1920,00
1601,93	1887,00
1607,25	1947,00
1612,57	1977,00
1617,88	1919,00
1623,18	1813,00
1628,48	2033,00
1633,77	1868,00
1639,06	1924,00
1644,34	1801,00
1649,62	1872,00
1654,89	1999,00
1660,16	1748,00
1665,42	1853,00
1670,67	1810,00
1675,92	1848,00
1681,17	1811,00
1686,41	1855,00
1691,64	1935,00
1696,87	1812,00
1702,10	1747,00
1707,32	1804,00
1712,53	1876,00
1717,74	1840,00
1722,94	1768,00
1728,14	1759,00
1733,33	1759,00
1738,52	1826,00
1743,70	1894,00
1748,88	1755,00
1754,05	1652,00
1759,22	1701,00
1764,38	2997,00
1769,53	1744,00
1774,69	1829,00
1779,83	1720,00
1784,97	1744,00
1790,11	1669,00
1795,24	1763,00
1800,36	1780,00
1805,48	1745,00
1810,60	1757,00
1815,71	1735,00
1820,82	1672,00
1825,92	1773,00
1831,01	1761,00
1836,10	1650,00
1841,19	1736,00
1846,26	1628,00
1851,34	1671,00
1856,41	1748,00
1861,47	1719,00
1866,53	1749,00
1871,59	1614,00
1876,64	1661,00
1881,68	1659,00
1886,72	1750,00
1891,76	1652,00
1896,79	1626,00
1901,81	1597,00
1906,83	1635,00
1911,85	1594,00
1916,86	1621,00
1921,86	1637,00
1926,86	1568,00
1931,86	1571,00
1936,85	1599,00
1941,83	1660,00
1946,81	1636,00
1951,79	1534,00
1956,76	1539,00
1961,72	1474,00
1966,68	1550,00
1971,64	1452,00
1976,59	1502,00
1981,54	1551,00
1986,48	1514,00
1991,42	1515,00
1996,35	1732,00
2001,27	1650,00
2006,20	1479,00
2011,11	1605,00
2016,03	1600,00
2020,93	1538,00
2025,84	1573,00
2030,73	1507,00
2035,63	1380,00
2040,52	1540,00
2045,40	1531,00
2050,28	1534,00
2055,15	1570,00
2060,02	1372,00
2064,89	1460,00
2069,75	1555,00
2074,60	1561,00
2079,46	1449,00
2084,30	1450,00
2089,14	1523,00
2093,98	1534,00
2098,81	1569,00
2103,64	1473,00
2108,46	1486,00
2113,28	1399,00
2118,09	1447,00
2122,90	1508,00
2127,70	1438,00
2132,50	1452,00
2137,30	1413,00
2142,09	1385,00
2146,87	1395,00
2151,66	1484,00
2156,43	1453,00
2161,20	1430,00
2165,97	1446,00
2170,73	1420,00
2175,49	1461,00
2180,24	1413,00
2184,99	1512,00
2189,74	1456,00
2194,48	1388,00
2199,21	1506,00
2203,94	1298,00
2208,67	1396,00
2213,39	1207,00
2218,11	1386,00
2222,82	1382,00
2227,53	1327,00
2232,23	1441,00
2236,93	1294,00
2241,63	1448,00
2246,32	1367,00
2251,00	1307,00
2255,68	1377,00
2260,36	1348,00
2265,03	1499,00
2269,70	1405,00
2274,36	1311,00
2279,02	1318,00
2283,68	1318,00
2288,33	1288,00
2292,97	1317,00
2297,61	1367,00
2302,25	1372,00
2306,88	1206,00
2311,51	1260,00
2316,14	1351,00
2320,75	1331,00
2325,37	1237,00
2329,98	1447,00
2334,59	1256,00
2339,19	1301,00
2343,79	1255,00
2348,38	1349,00
2352,97	1292,00
2357,55	1310,00
2362,13	1374,00
2366,71	1179,00
2371,28	1318,00
2375,85	1224,00
2380,41	1319,00
2384,97	1193,00
2389,52	1330,00
2394,07	1232,00
2398,62	1334,00
2403,16	1166,00
2407,70	1186,00
2412,23	1321,00
2416,76	1340,00
2421,29	1336,00
2425,81	1253,00
2430,32	1173,00
2434,84	1064,00
2439,34	1244,00
2443,85	1251,00
2448,35	1146,00
2452,84	1127,00
2457,33	1271,00
2461,82	1107,00
2466,30	1172,00
2470,78	1213,00
2475,25	1162,00
2479,72	1206,00
2484,19	1174,00
2488,65	1133,00
2493,11	1127,00
2497,56	1111,00
2502,01	1027,00
2506,46	1167,00
2510,90	1153,00
2515,34	1146,00
2519,77	1207,00
2524,20	1091,00
2528,62	1086,00
2533,04	1196,00
2537,46	998,00
2541,87	1083,00
2546,28	1064,00
2550,68	1099,00
2555,08	1036,00
2559,48	1048,00
2563,87	973,00
2568,26	1107,00
2572,64	1068,00
2577,02	1100,00
2581,40	962,00
2585,77	1020,00
2590,14	1049,00
2594,50	1017,00
2598,86	1110,00
2603,22	1036,00
2607,57	1103,00
2611,92	1140,00
2616,26	1014,00
2620,60	1097,00
2624,94	1095,00
2629,27	1137,00
2633,60	1021,00
2637,92	1158,00
2642,24	1037,00
2646,56	990,00
2650,87	1101,00
2655,18	1098,00
2659,48	931,00
2663,78	1068,00
2668,08	944,00
2672,37	1044,00
2676,66	1098,00
2680,95	1086,00
2685,23	986,00
2689,50	1018,00
2693,78	999,00
2698,05	960,00
2702,31	1027,00
2706,57	1056,00
2710,83	1152,00
2715,08	1058,00
2719,33	1209,00
2723,58	1144,00
2727,82	1115,00
2732,06	1081,00
2736,29	1027,00
2740,53	1139,00
2744,75	1012,00
2748,97	1110,00
2753,19	1125,00
2757,41	1057,00
2761,62	1112,00
2765,83	1189,00
2770,03	1038,00
2774,23	1018,00
2778,43	1027,00
2782,62	1026,00
2786,81	1024,00
2791,00	1068,00
2795,18	1204,00
2799,35	1102,00
2803,53	1114,00
2807,70	1142,00
2811,86	1004,00
2816,03	1232,00
2820,19	1163,00
2824,34	1132,00
2828,49	1154,00
2832,64	1197,00
2836,78	1432,00
2840,92	1639,00
2845,06	1809,00
2849,19	1935,00
2853,32	2060,00
2857,45	1966,00
2861,57	1935,00
2865,69	1875,00
2869,80	1772,00
2873,91	1912,00
2878,02	2084,00
2882,12	2209,00
2886,22	2067,00
2890,32	2070,00
2894,41	1953,00
2898,50	1792,00
2902,58	1737,00
2906,67	1657,00
2910,74	1506,00
2914,82	1496,00
2918,89	1413,00
2922,96	1375,00
2927,02	1367,00
2931,08	1217,00
2935,13	1209,00
2939,19	1286,00
2943,24	1236,00
2947,28	1132,00
2951,32	966,00
2955,36	970,00
2959,40	1021,00
2963,43	1057,00
2967,46	885,00
2971,48	911,00
2975,50	885,00
2979,52	948,00
2983,53	968,00
2987,54	864,00
2991,55	897,00
2995,55	907,00
2999,55	811,00
3003,54	753,00
3007,54	857,00
3011,53	840,00
3015,51	823,00
3019,49	860,00
3023,47	869,00
3027,45	811,00
3031,42	824,00
3035,39	739,00
3039,35	767,00
3043,31	740,00
3047,27	805,00
3051,22	838,00
3055,17	678,00
3059,12	597,00
3063,06	772,00
3067,00	665,00
3070,94	685,00
3074,87	724,00
3078,80	717,00
3082,73	668,00
3086,65	702,00
3090,57	748,00
3094,49	688,00
3098,40	711,00
3102,31	707,00
3106,22	778,00
3110,12	766,00
3114,02	744,00
3117,92	760,00
3121,81	585,00
3125,70	671,00
3129,58	630,00
3133,47	647,00
3137,34	727,00
3141,22	732,00
3145,09	783,00
3148,96	645,00
3152,83	646,00
3156,69	734,00
3160,55	636,00
3164,40	658,00
3168,26	692,00
3172,10	797,00
3175,95	732,00
3179,79	673,00
3183,63	682,00
3187,47	557,00
3191,30	590,00
3195,13	720,00
3198,95	626,00
3202,78	706,00
3206,60	585,00
3210,41	671,00
3214,23	562,00
3218,03	692,00
3221,84	655,00
3225,64	627,00
3229,44	705,00
3233,24	661,00
3237,03	546,00
3240,82	622,00
3244,61	651,00
3248,39	645,00
3252,17	637,00
3255,95	708,00
3259,72	645,00
3263,49	748,00
3267,26	566,00
3271,03	582,00
3274,79	601,00
3278,54	683,00
3282,30	578,00
3286,05	664,00
3289,80	615,00
3293,54	655,00
3297,29	593,00
3301,02	663,00
3304,76	629,00
3308,49	673,00
3312,22	568,00
3315,95	592,00
3319,67	581,00
3323,39	674,00
3327,10	544,00
3330,82	506,00
3334,53	560,00
3338,24	596,00
3341,94	535,00
3345,64	590,00
3349,34	593,00
3353,03	569,00
3356,72	576,00
3360,41	616,00
3364,10	529,00
3367,78	514,00
3371,46	560,00
3375,13	633,00
3378,81	593,00
3382,48	634,00
3386,14	601,00
3389,81	667,00
3393,47	548,00
3397,12	614,00
3400,78	625,00
3404,43	614,00
3408,08	555,00
3411,72	508,00
3415,36	581,00
3419,00	443,00
3422,64	580,00
3426,27	501,00
3429,90	455,00
3433,53	557,00
3437,15	576,00
3440,77	516,00
3444,39	504,00
3448,00	589,00
3451,62	537,00
3455,22	503,00
3458,83	582,00
3462,43	570,00
3466,03	623,00
3469,63	578,00
3473,22	597,00
3476,81	514,00
3480,40	584,00
3483,99	490,00
3487,57	544,00
3491,15	507,00
3494,72	550,00
3498,29	625,00
3501,86	510,00
3505,43	576,00
3508,99	487,00
3512,56	506,00
3516,11	586,00
3519,67	405,00
3523,22	588,00
3526,77	571,00
3530,32	500,00
3533,86	549,00
3537,40	609,00
3540,94	585,00
3544,47	601,00
3548,00	496,00
3551,53	646,00
3555,06	520,00
3558,58	500,00
3562,10	512,00
3565,62	554,00
3569,13	497,00
3572,64	495,00
3576,15	490,00
3579,66	498,00
3583,16	606,00
3586,66	486,00
3590,16	442,00
3593,65	541,00
3597,14	509,00
3600,63	461,00
3604,11	674,00
3607,60	489,00
3611,08	507,00
3614,55	570,00
3618,03	471,00
3621,50	484,00
3624,97	482,00
3628,43	597,00
3631,90	581,00
3635,36	503,00
3638,81	471,00
3642,27	567,00
3645,72	467,00
3649,17	553,00
3652,61	418,00
3656,06	387,00
3659,50	451,00
3662,93	474,00
3666,37	526,00
3669,80	598,00
3673,23	451,00
3676,65	613,00
3680,08	531,00
3683,50	471,00
3686,92	521,00
3690,33	396,00
3693,74	471,00
3697,15	392,00
3700,56	498,00
3703,96	473,00
3707,36	460,00
3710,76	396,00
3714,16	474,00
3717,55	367,00
3720,94	478,00
3724,33	467,00
3727,71	557,00
3731,10	413,00
3734,48	399,00
3737,85	404,00
3741,23	387,00
3744,60	494,00
3747,97	384,00
3751,33	453,00
3754,69	474,00
3758,05	411,00
3761,41	393,00
3764,77	386,00
3768,12	323,00
3771,47	489,00
3774,82	401,00
3778,16	-8,00
3781,50	5,00
3784,84	4,00
3788,18	9,00
>>>>>End Processed Spectral Data<<<<<
