SpectraSuite Data File
++++++++++++++++++++++++++++++++++++
Date: Mon Mar 09 15:10:20 ICT 2026
User: Administrator
Dark Spectrum Present: Yes
Reference Spectrum Present: No
Number of Sampled Component Spectra: 1
Spectrometers: MAYP113682
Integration Time (usec): 3000000 (MAYP113682)
Spectra Averaged: 1 (MAYP113682)
Boxcar Smoothing: 0 (MAYP113682)
Correct for Electrical Dark: No (MAYP113682)
Strobe/Lamp Enabled: No (MAYP113682)
Correct for Detector Non-linearity: No (MAYP113682)
Correct for Stray Light: No (MAYP113682)
Number of Pixels in Processed Spectrum: 2068
>>>>>Begin Processed Spectral Data<<<<<
-37534,58	3,00
-37414,56	2,00
-37295,11	-1,00
-37176,24	2,00
-37057,95	86,00
-36940,22	158,00
-36823,05	54,00
-36706,45	144,00
-36590,40	153,00
-36474,90	130,00
-36359,95	171,00
-36245,55	123,00
-36131,68	25,00
-36018,35	132,00
-35905,55	66,00
-35793,29	128,00
-35681,54	42,00
-35570,32	50,00
-35459,62	179,00
-35349,43	116,00
-35239,75	250,00
-35130,58	-9,00
-35021,91	84,00
-34913,74	149,00
-34806,07	99,00
-34698,89	82,00
-34592,20	76,00
-34486,00	118,00
-34380,28	121,00
-34275,04	148,00
-34170,27	11,00
-34065,98	178,00
-33962,16	151,00
-33858,81	107,00
-33755,92	72,00
-33653,49	181,00
-33551,52	40,00
-33450,01	130,00
-33348,94	107,00
-33248,33	94,00
-33148,16	122,00
-33048,43	87,00
-32949,14	89,00
-32850,29	188,00
-32751,87	82,00
-32653,89	135,00
-32556,33	108,00
-32459,20	144,00
-32362,49	187,00
-32266,19	134,00
-32170,32	140,00
-32074,86	215,00
-31979,82	167,00
-31885,18	152,00
-31790,95	78,00
-31697,12	84,00
-31603,69	96,00
-31510,67	197,00
-31418,04	94,00
-31325,80	258,00
-31233,95	146,00
-31142,49	112,00
-31051,42	132,00
-30960,73	142,00
-30870,43	246,00
-30780,50	118,00
-30690,95	171,00
-30601,77	231,00
-30512,97	146,00
-30424,53	46,00
-30336,46	108,00
-30248,76	151,00
-30161,42	123,00
-30074,44	44,00
-29987,81	111,00
-29901,55	212,00
-29815,63	132,00
-29730,07	76,00
-29644,86	118,00
-29560,00	175,00
-29475,48	188,00
-29391,30	143,00
-29307,47	157,00
-29223,97	113,00
-29140,81	72,00
-29057,99	130,00
-28975,50	188,00
-28893,34	87,00
-28811,51	185,00
-28730,00	178,00
-28648,82	63,00
-28567,97	146,00
-28487,43	100,00
-28407,21	223,00
-28327,32	89,00
-28247,73	90,00
-28168,46	119,00
-28089,50	117,00
-28010,85	84,00
-27932,51	140,00
-27854,48	23,00
-27776,75	217,00
-27699,32	83,00
-27622,19	156,00
-27545,37	139,00
-27468,84	69,00
-27392,60	108,00
-27316,66	77,00
-27241,01	106,00
-27165,66	154,00
-27090,59	84,00
-27015,81	158,00
-26941,31	67,00
-26867,10	80,00
-26793,17	119,00
-26719,52	105,00
-26646,15	166,00
-26573,06	120,00
-26500,24	133,00
-26427,70	311,00
-26355,43	145,00
-26283,43	122,00
-26211,71	185,00
-26140,25	186,00
-26069,06	237,00
-25998,13	138,00
-25927,46	184,00
-25857,06	45,00
-25786,92	142,00
-25717,04	146,00
-25647,42	118,00
-25578,05	-21,00
-25508,94	186,00
-25440,09	182,00
-25371,48	81,00
-25303,13	194,00
-25235,02	116,00
-25167,17	113,00
-25099,56	126,00
-25032,19	49,00
-24965,07	124,00
-24898,20	57,00
-24831,56	132,00
-24765,17	85,00
-24699,01	24,00
-24633,10	75,00
-24567,41	69,00
-24501,97	117,00
-24436,75	88,00
-24371,77	51,00
-24307,03	73,00
-24242,51	78,00
-24178,22	227,00
-24114,16	-13,00
-24050,32	244,00
-23986,71	142,00
-23923,32	114,00
-23860,16	142,00
-23797,22	130,00
-23734,50	198,00
-23672,00	99,00
-23609,71	92,00
-23547,65	87,00
-23485,80	114,00
-23424,16	160,00
-23362,74	105,00
-23301,53	32,00
-23240,54	116,00
-23179,75	37,00
-23119,17	161,00
-23058,80	110,00
-22998,64	227,00
-22938,68	66,00
-22878,93	138,00
-22819,39	98,00
-22760,04	107,00
-22700,90	180,00
-22641,96	150,00
-22583,22	57,00
-22524,68	127,00
-22466,33	147,00
-22408,19	185,00
-22350,23	115,00
-22292,48	186,00
-22234,92	152,00
-22177,55	183,00
-22120,37	167,00
-22063,38	134,00
-22006,58	142,00
-21949,98	188,00
-21893,56	75,00
-21837,33	203,00
-21781,28	227,00
-21725,42	64,00
-21669,74	83,00
-21614,25	136,00
-21558,94	167,00
-21503,81	161,00
-21448,86	120,00
-21394,10	237,00
-21339,51	100,00
-21285,10	107,00
-21230,86	158,00
-21176,81	143,00
-21122,93	74,00
-21069,22	195,00
-21015,69	94,00
-20962,33	62,00
-20909,14	213,00
-20856,13	43,00
-20803,28	215,00
-20750,61	82,00
-20698,10	72,00
-20645,76	177,00
-20593,59	286,00
-20541,59	116,00
-20489,75	97,00
-20438,07	94,00
-20386,56	141,00
-20335,22	23,00
-20284,03	50,00
-20233,01	162,00
-20182,15	66,00
-20131,45	106,00
-20080,91	16,00
-20030,52	55,00
-19980,30	77,00
-19930,23	90,00
-19880,32	79,00
-19830,56	51,00
-19780,96	117,00
-19731,52	187,00
-19682,23	87,00
-19633,09	73,00
-19584,10	181,00
-19535,26	159,00
-19486,58	151,00
-19438,04	197,00
-19389,66	205,00
-19341,42	86,00
-19293,33	201,00
-19245,39	151,00
-19197,60	178,00
-19149,95	178,00
-19102,45	137,00
-19055,09	48,00
-19007,87	164,00
-18960,80	134,00
-18913,87	118,00
-18867,09	136,00
-18820,44	85,00
-18773,94	66,00
-18727,57	227,00
-18681,35	66,00
-18635,26	116,00
-18589,31	209,00
-18543,50	136,00
-18497,83	122,00
-18452,29	143,00
-18406,89	149,00
-18361,63	180,00
-18316,50	188,00
-18271,50	147,00
-18226,63	163,00
-18181,90	54,00
-18137,30	107,00
-18092,84	2,00
-18048,50	89,00
-18004,29	-20,00
-17960,22	126,00
-17916,27	89,00
-17872,45	69,00
-17828,76	117,00
-17785,20	165,00
-17741,77	82,00
-17698,46	138,00
-17655,28	132,00
-17612,22	57,00
-17569,29	70,00
-17526,48	116,00
-17483,79	89,00
-17441,23	121,00
-17398,79	128,00
-17356,48	87,00
-17314,28	245,00
-17272,21	181,00
-17230,26	58,00
-17188,42	170,00
-17146,71	79,00
-17105,12	183,00
-17063,64	47,00
-17022,28	102,00
-16981,04	129,00
-16939,92	201,00
-16898,91	106,00
-16858,02	48,00
-16817,25	77,00
-16776,59	170,00
-16736,04	130,00
-16695,61	97,00
-16655,29	182,00
-16615,09	188,00
-16574,99	32,00
-16535,01	133,00
-16495,15	64,00
-16455,39	135,00
-16415,74	-7,00
-16376,21	102,00
-16336,78	104,00
-16297,46	45,00
-16258,26	63,00
-16219,16	75,00
-16180,17	201,00
-16141,28	50,00
-16102,51	76,00
-16063,84	133,00
-16025,27	113,00
-15986,82	130,00
-15948,46	129,00
-15910,22	215,00
-15872,07	117,00
-15834,04	90,00
-15796,10	129,00
-15758,27	156,00
-15720,54	62,00
-15682,91	101,00
-15645,39	127,00
-15607,97	89,00
-15570,64	176,00
-15533,42	141,00
-15496,30	42,00
-15459,28	133,00
-15422,36	100,00
-15385,54	159,00
-15348,82	113,00
-15312,19	74,00
-15275,66	83,00
-15239,23	138,00
-15202,90	222,00
-15166,67	186,00
-15130,53	134,00
-15094,48	123,00
-15058,54	160,00
-15022,68	13,00
-14986,93	125,00
-14951,26	107,00
-14915,69	172,00
-14880,22	187,00
-14844,84	111,00
-14809,55	20,00
-14774,35	138,00
-14739,25	241,00
-14704,24	51,00
-14669,32	80,00
-14634,49	-85,00
-14599,75	238,00
-14565,10	95,00
-14530,55	105,00
-14496,08	135,00
-14461,70	104,00
-14427,41	160,00
-14393,21	210,00
-14359,10	108,00
-14325,07	27,00
-14291,14	120,00
-14257,29	144,00
-14223,52	141,00
-14189,85	148,00
-14156,26	199,00
-14122,76	170,00
-14089,34	118,00
-14056,01	133,00
-14022,76	-17,00
-13989,60	181,00
-13956,52	88,00
-13923,53	85,00
-13890,62	132,00
-13857,79	42,00
-13825,05	95,00
-13792,39	131,00
-13759,81	176,00
-13727,31	31,00
-13694,90	242,00
-13662,57	30,00
-13630,31	157,00
-13598,14	59,00
-13566,05	148,00
-13534,05	122,00
-13502,12	157,00
-13470,27	136,00
-13438,50	93,00
-13406,80	47,00
-13375,19	77,00
-13343,66	37,00
-13312,20	148,00
-13280,83	97,00
-13249,53	158,00
-13218,30	139,00
-13187,16	150,00
-13156,09	163,00
-13125,10	39,00
-13094,18	183,00
-13063,34	89,00
-13032,58	240,00
-13001,89	134,00
-12971,28	23,00
-12940,74	122,00
-12910,27	100,00
-12879,88	126,00
-12849,57	-27,00
-12819,33	108,00
-12789,16	122,00
-12759,06	117,00
-12729,04	140,00
-12699,09	-990,00
-12669,21	125,00
-12639,41	65,00
-12609,68	25,00
-12580,02	184,00
-12550,43	119,00
-12520,91	114,00
-12491,46	98,00
-12462,08	107,00
-12432,77	179,00
-12403,54	22,00
-12374,37	102,00
-12345,27	196,00
-12316,24	157,00
-12287,29	177,00
-12258,40	67,00
-12229,57	126,00
-12200,82	244,00
-12172,14	174,00
-12143,52	183,00
-12114,97	91,00
-12086,49	143,00
-12058,07	116,00
-12029,73	-6,00
-12001,44	121,00
-11973,23	173,00
-11945,08	46,00
-11917,00	101,00
-11888,98	51,00
-11861,03	121,00
-11833,15	54,00
-11805,32	162,00
-11777,57	105,00
-11749,88	137,00
-11722,25	161,00
-11694,69	110,00
-11667,19	74,00
-11639,75	100,00
-11612,38	78,00
-11585,07	134,00
-11557,83	86,00
-11530,65	-21,00
-11503,53	148,00
-11476,47	56,00
-11449,48	89,00
-11422,54	29,00
-11395,67	173,00
-11368,86	124,00
-11342,11	59,00
-11315,43	239,00
-11288,80	29,00
-11262,23	150,00
-11235,73	85,00
-11209,28	57,00
-11182,90	149,00
-11156,57	-31,00
-11130,31	186,00
-11104,10	101,00
-11077,96	230,00
-11051,87	109,00
-11025,84	118,00
-10999,87	106,00
-10973,96	209,00
-10948,11	65,00
-10922,31	17,00
-10896,58	263,00
-10870,90	136,00
-10845,28	58,00
-10819,71	122,00
-10794,20	254,00
-10768,75	108,00
-10743,36	96,00
-10718,02	73,00
-10692,74	74,00
-10667,52	120,00
-10642,35	84,00
-10617,24	81,00
-10592,18	222,00
-10567,18	88,00
-10542,23	232,00
-10517,34	165,00
-10492,51	123,00
-10467,72	82,00
-10443,00	123,00
-10418,32	163,00
-10393,70	155,00
-10369,14	176,00
-10344,63	159,00
-10320,17	48,00
-10295,77	40,00
-10271,42	130,00
-10247,12	72,00
-10222,88	98,00
-10198,68	181,00
-10174,54	126,00
-10150,46	165,00
-10126,42	134,00
-10102,44	188,00
-10078,51	89,00
-10054,63	175,00
-10030,80	83,00
-10007,03	216,00
-9983,30	160,00
-9959,63	141,00
-9936,01	148,00
-9912,44	99,00
-9888,92	134,00
-9865,44	124,00
-9842,02	73,00
-9818,65	104,00
-9795,33	39,00
-9772,06	64,00
-9748,84	52,00
-9725,67	-9,00
-9702,55	120,00
-9679,47	51,00
-9656,45	29,00
-9633,47	37,00
-9610,55	22,00
-9587,67	-92,00
-9564,84	-1,00
-9542,06	-71,00
-9519,32	35,00
-9496,64	129,00
-9474,00	77,00
-9451,41	-65,00
-9428,87	9,00
-9406,37	-109,00
-9383,92	-263,00
-9361,52	-375,00
-9339,17	-422,00
-9316,86	-219,00
-9294,60	-269,00
-9272,38	-116,00
-9250,21	25,00
-9228,09	6,00
-9206,01	-178,00
-9183,98	-190,00
-9162,00	-268,00
-9140,06	-412,00
-9118,16	-406,00
-9096,31	-186,00
-9074,51	-126,00
-9052,75	-6,00
-9031,04	-120,00
-9009,37	-183,00
-8987,74	-173,00
-8966,16	-243,00
-8944,63	-275,00
-8923,14	-401,00
-8901,69	-259,00
-8880,29	-44,00
-8858,93	-56,00
-8837,61	-153,00
-8816,34	145,00
-8795,11	41,00
-8773,92	145,00
-8752,78	-10,00
-8731,68	-66,00
-8710,62	8,00
-8689,61	-90,00
-8668,63	85,00
-8647,70	68,00
-8626,82	182,00
-8605,97	177,00
-8585,17	49,00
-8564,41	-11,00
-8543,69	-49,00
-8523,01	-149,00
-8502,37	-13,00
-8481,78	-138,00
-8461,23	149,00
-8440,71	93,00
-8420,24	68,00
-8399,81	197,00
-8379,42	20,00
-8359,08	115,00
-8338,77	38,00
-8318,50	157,00
-8298,27	123,00
-8278,09	174,00
-8257,94	182,00
-8237,83	335,00
-8217,76	186,00
-8197,74	227,00
-8177,75	301,00
-8157,80	160,00
-8137,89	186,00
-8118,02	262,00
-8098,19	181,00
-8078,40	236,00
-8058,65	277,00
-8038,93	144,00
-8019,26	341,00
-7999,62	330,00
-7980,02	157,00
-7960,46	196,00
-7940,94	283,00
-7921,46	143,00
-7902,01	165,00
-7882,60	170,00
-7863,23	303,00
-7843,90	253,00
-7824,61	135,00
-7805,35	284,00
-7786,13	323,00
-7766,95	217,00
-7747,80	300,00
-7728,69	316,00
-7709,62	200,00
-7690,59	322,00
-7671,59	287,00
-7652,63	175,00
-7633,70	263,00
-7614,81	248,00
-7595,96	299,00
-7577,15	120,00
-7558,37	306,00
-7539,62	225,00
-7520,91	194,00
-7502,24	266,00
-7483,60	263,00
-7465,00	261,00
-7446,44	257,00
-7427,91	113,00
-7409,41	56,00
-7390,95	37,00
-7372,53	2,00
-7354,14	10,00
-7335,78	51,00
-7317,46	141,00
-7299,18	75,00
-7280,92	196,00
-7262,71	322,00
-7244,52	222,00
-7226,38	234,00
-7208,26	206,00
-7190,18	144,00
-7172,14	148,00
-7154,12	203,00
-7136,15	137,00
-7118,20	137,00
-7100,29	176,00
-7082,41	85,00
-7064,57	269,00
-7046,76	159,00
-7028,98	61,00
-7011,24	82,00
-6993,53	-31,00
-6975,85	17,00
-6958,20	-31,00
-6940,59	-31,00
-6923,01	-77,00
-6905,46	8,00
-6887,94	-25,00
-6870,46	2662,00
-6853,01	38,00
-6835,59	93,00
-6818,21	217,00
-6800,85	104,00
-6783,53	-115,00
-6766,24	-33,00
-6748,98	-119,00
-6731,76	-176,00
-6714,56	-103,00
-6697,40	-136,00
-6680,26	-180,00
-6663,16	14,00
-6646,09	13,00
-6629,05	-10,00
-6612,05	0,00
-6595,07	6,00
-6578,13	-7,00
-6561,21	-42,00
-6544,33	-70,00
-6527,47	-94,00
-6510,65	-91,00
-6493,86	-182,00
-6477,10	-244,00
-6460,36	-212,00
-6443,66	7,00
-6426,99	-191,00
-6410,35	-154,00
-6393,74	-89,00
-6377,16	-62,00
-6360,61	-150,00
-6344,09	-91,00
-6327,59	-68,00
-6311,13	-5,00
-6294,70	108,00
-6278,29	14,00
-6261,92	131,00
-6245,58	156,00
-6229,26	145,00
-6212,97	28,00
-6196,72	33,00
-6180,49	-97,00
-6164,29	-140,00
-6148,12	-166,00
-6131,98	-111,00
-6115,86	-204,00
-6099,78	-140,00
-6083,72	-216,00
-6067,69	-249,00
-6051,69	-159,00
-6035,72	-75,00
-6019,78	-20,00
-6003,87	-24,00
-5987,98	26,00
-5972,12	-31,00
-5956,29	37,00
-5940,49	-72,00
-5924,71	87,00
-5908,96	-52,00
-5893,24	-20,00
-5877,55	-68,00
-5861,89	-167,00
-5846,25	-147,00
-5830,64	-145,00
-5815,05	-61,00
-5799,50	-68,00
-5783,97	71,00
-5768,47	68,00
-5752,99	-114,00
-5737,55	51,00
-5722,12	-30,00
-5706,73	9,00
-5691,36	-56,00
-5676,02	50,00
-5660,71	-87,00
-5645,42	-25,00
-5630,16	41,00
-5614,92	18,00
-5599,71	-159,00
-5584,53	62,00
-5569,37	-146,00
-5554,24	-883,00
-5539,14	-2,00
-5524,06	-126,00
-5509,01	-67,00
-5493,98	-17,00
-5478,98	-69,00
-5464,00	-235,00
-5449,05	-180,00
-5434,13	-76,00
-5419,23	-74,00
-5404,36	37,00
-5389,51	154,00
-5374,69	6,00
-5359,89	3,00
-5345,12	-35,00
-5330,37	130,00
-5315,65	2,00
-5300,95	119,00
-5286,28	23,00
-5271,63	-71,00
-5257,01	-79,00
-5242,41	-101,00
-5227,84	-164,00
-5213,29	-25,00
-5198,76	7,00
-5184,26	25,00
-5169,79	-92,00
-5155,33	-37,00
-5140,91	-25,00
-5126,51	-68,00
-5112,13	-22,00
-5097,77	47,00
-5083,44	-35,00
-5069,13	-12,00
-5054,85	-63,00
-5040,59	-87,00
-5026,36	-144,00
-5012,15	-183,00
-4997,96	-193,00
-4983,80	-154,00
-4969,66	8,00
-4955,54	21,00
-4941,44	-45,00
-4927,37	43,00
-4913,33	-7,00
-4899,30	114,00
-4885,30	90,00
-4871,33	56,00
-4857,37	168,00
-4843,44	94,00
-4829,53	-17,00
-4815,65	-17,00
-4801,79	-144,00
-4787,95	-103,00
-4774,13	-100,00
-4760,34	123,00
-4746,56	43,00
-4732,82	127,00
-4719,09	27,00
-4705,38	51,00
-4691,70	62,00
-4678,04	61,00
-4664,41	128,00
-4650,79	237,00
-4637,20	108,00
-4623,63	-80,00
-4610,08	106,00
-4596,56	36,00
-4583,05	-19,00
-4569,57	195,00
-4556,11	125,00
-4542,67	100,00
-4529,25	-35,00
-4515,86	31,00
-4502,49	77,00
-4489,13	79,00
-4475,80	108,00
-4462,49	184,00
-4449,21	207,00
-4435,94	164,00
-4422,70	83,00
-4409,47	42,00
-4396,27	66,00
-4383,09	46,00
-4369,93	95,00
-4356,79	111,00
-4343,67	-67,00
-4330,58	111,00
-4317,50	81,00
-4304,45	119,00
-4291,41	162,00
-4278,40	137,00
-4265,41	225,00
-4252,44	249,00
-4239,49	125,00
-4226,55	115,00
-4213,65	106,00
-4200,76	36,00
-4187,89	147,00
-4175,04	7,00
-4162,21	101,00
-4149,40	66,00
-4136,61	107,00
-4123,85	115,00
-4111,10	91,00
-4098,37	193,00
-4085,66	101,00
-4072,98	61,00
-4060,31	128,00
-4047,66	212,00
-4035,04	197,00
-4022,43	94,00
-4009,84	212,00
-3997,27	57,00
-3984,72	92,00
-3972,19	268,00
-3959,69	74,00
-3947,20	200,00
-3934,73	48,00
-3922,27	36,00
-3909,84	135,00
-3897,43	266,00
-3885,04	34,00
-3872,67	144,00
-3860,31	178,00
-3847,98	126,00
-3835,66	103,00
-3823,36	45,00
-3811,09	47,00
-3798,83	99,00
-3786,59	170,00
-3774,37	-72,00
-3762,17	102,00
-3749,98	132,00
-3737,82	148,00
-3725,67	189,00
-3713,55	226,00
-3701,44	43,00
-3689,35	167,00
-3677,28	77,00
-3665,22	104,00
-3653,19	164,00
-3641,17	2,00
-3629,18	129,00
-3617,20	206,00
-3605,24	128,00
-3593,30	79,00
-3581,37	63,00
-3569,47	98,00
-3557,58	250,00
-3545,71	52,00
-3533,86	153,00
-3522,02	103,00
-3510,21	185,00
-3498,41	29,00
-3486,63	124,00
-3474,87	249,00
-3463,12	131,00
-3451,40	244,00
-3439,69	12,00
-3428,00	145,00
-3416,33	184,00
-3404,67	112,00
-3393,03	321,00
-3381,41	151,00
-3369,81	75,00
-3358,22	219,00
-3346,66	132,00
-3335,10	79,00
-3323,57	126,00
-3312,06	-13,00
-3300,56	120,00
-3289,08	281,00
-3277,61	212,00
-3266,16	154,00
-3254,73	81,00
-3243,32	136,00
-3231,92	170,00
-3220,55	157,00
-3209,18	129,00
-3197,84	140,00
-3186,51	91,00
-3175,20	232,00
-3163,90	64,00
-3152,63	6,00
-3141,36	155,00
-3130,12	148,00
-3118,89	203,00
-3107,68	108,00
-3096,49	82,00
-3085,31	219,00
-3074,15	69,00
-3063,00	60,00
-3051,87	156,00
-3040,76	83,00
-3029,67	132,00
-3018,59	164,00
-3007,52	121,00
-2996,48	104,00
-2985,44	201,00
-2974,43	103,00
-2963,43	163,00
-2952,45	118,00
-2941,48	61,00
-2930,53	147,00
-2919,60	201,00
-2908,68	187,00
-2897,78	40,00
-2886,89	106,00
-2876,02	2,00
-2865,17	159,00
-2854,33	196,00
-2843,50	114,00
-2832,70	228,00
-2821,90	66,00
-2811,13	141,00
-2800,37	159,00
-2789,62	210,00
-2778,89	44,00
-2768,18	208,00
-2757,48	202,00
-2746,80	137,00
-2736,13	118,00
-2725,48	146,00
-2714,84	120,00
-2704,22	199,00
-2693,61	180,00
-2683,02	113,00
-2672,45	185,00
-2661,89	91,00
-2651,34	83,00
-2640,81	122,00
-2630,30	174,00
-2619,80	109,00
-2609,31	190,00
-2598,84	193,00
-2588,39	98,00
-2577,95	130,00
-2567,52	132,00
-2557,11	87,00
-2546,71	135,00
-2536,33	119,00
-2525,97	73,00
-2515,62	29,00
-2505,28	133,00
-2494,96	93,00
-2484,65	99,00
-2474,36	129,00
-2464,08	160,00
-2453,82	134,00
-2443,57	213,00
-2433,33	61,00
-2423,11	200,00
-2412,91	140,00
-2402,72	132,00
-2392,54	195,00
-2382,38	29,00
-2372,23	212,00
-2362,09	216,00
-2351,97	26,00
-2341,87	132,00
-2331,78	127,00
-2321,70	86,00
-2311,64	146,00
-2301,59	205,00
-2291,55	214,00
-2281,53	172,00
-2271,53	158,00
-2261,53	197,00
-2251,55	149,00
-2241,59	88,00
-2231,64	143,00
-2221,70	206,00
-2211,78	-45,00
-2201,87	178,00
-2191,97	81,00
-2182,09	81,00
-2172,22	94,00
-2162,37	133,00
-2152,53	159,00
-2142,70	116,00
-2132,89	111,00
-2123,09	119,00
-2113,30	242,00
-2103,53	125,00
-2093,77	114,00
-2084,02	96,00
-2074,29	106,00
-2064,57	237,00
-2054,86	118,00
-2045,17	154,00
-2035,49	51,00
-2025,82	73,00
-2016,17	249,00
-2006,53	96,00
-1996,91	152,00
-1987,29	128,00
-1977,69	196,00
-1968,11	217,00
-1958,53	116,00
-1948,97	117,00
-1939,42	197,00
-1929,89	139,00
-1920,37	28,00
-1910,86	-12,00
-1901,36	66,00
-1891,88	81,00
-1882,41	222,00
-1872,95	51,00
-1863,51	148,00
-1854,08	247,00
-1844,66	176,00
-1835,26	158,00
-1825,86	153,00
-1816,48	151,00
-1807,11	158,00
-1797,76	145,00
-1788,42	124,00
-1779,09	116,00
-1769,77	126,00
-1760,47	117,00
-1751,17	145,00
-1741,89	189,00
-1732,63	146,00
-1723,37	215,00
-1714,13	160,00
-1704,90	64,00
-1695,68	190,00
-1686,48	165,00
-1677,29	204,00
-1668,11	97,00
-1658,94	144,00
-1649,78	191,00
-1640,64	81,00
-1631,51	150,00
-1622,39	137,00
-1613,28	98,00
-1604,19	54,00
-1595,10	122,00
-1586,03	1,00
-1576,97	137,00
-1567,93	185,00
-1558,89	70,00
-1549,87	160,00
-1540,86	26,00
-1531,86	63,00
-1522,87	167,00
-1513,90	60,00
-1504,93	87,00
-1495,98	228,00
-1487,04	82,00
-1478,12	163,00
-1469,20	189,00
-1460,30	126,00
-1451,40	97,00
-1442,52	37,00
-1433,65	149,00
-1424,80	183,00
-1415,95	149,00
-1407,12	70,00
-1398,30	3,00
-1389,48	104,00
-1380,69	60,00
-1371,90	158,00
-1363,12	78,00
-1354,36	176,00
-1345,60	116,00
-1336,86	4,00
-1328,13	162,00
-1319,41	39,00
-1310,70	116,00
-1302,01	158,00
-1293,32	118,00
-1284,65	121,00
-1275,99	56,00
-1267,33	78,00
-1258,69	129,00
-1250,06	115,00
-1241,45	115,00
-1232,84	-28,00
-1224,25	134,00
-1215,66	88,00
-1207,09	74,00
-1198,53	130,00
-1189,97	168,00
-1181,43	36,00
-1172,91	20,00
-1164,39	111,00
-1155,88	111,00
-1147,38	161,00
-1138,90	152,00
-1130,43	130,00
-1121,96	127,00
-1113,51	111,00
-1105,07	196,00
-1096,64	132,00
-1088,22	74,00
-1079,81	159,00
-1071,41	100,00
-1063,02	136,00
-1054,65	102,00
-1046,28	92,00
-1037,92	96,00
-1029,58	169,00
-1021,24	211,00
-1012,92	28,00
-1004,61	96,00
-996,30	170,00
-988,01	160,00
-979,73	122,00
-971,46	81,00
-963,20	111,00
-954,95	149,00
-946,71	11,00
-938,48	147,00
-930,26	258,00
-922,06	120,00
-913,86	178,00
-905,67	88,00
-897,49	127,00
-889,33	179,00
-881,17	242,00
-873,02	274,00
-864,89	159,00
-856,76	66,00
-848,65	116,00
-840,54	114,00
-832,45	25,00
-824,36	114,00
-816,29	65,00
-808,22	89,00
-800,17	100,00
-792,12	90,00
-784,09	120,00
-776,06	66,00
-768,05	185,00
-760,04	207,00
-752,05	178,00
-744,07	131,00
-736,09	107,00
-728,13	139,00
-720,17	275,00
-712,23	58,00
-704,29	167,00
-696,37	134,00
-688,45	71,00
-680,55	138,00
-672,65	65,00
-664,77	221,00
-656,89	141,00
-649,03	132,00
-641,17	56,00
-633,32	85,00
-625,49	143,00
-617,66	146,00
-609,84	176,00
-602,03	75,00
-594,23	117,00
-586,45	196,00
-578,67	116,00
-570,90	70,00
-563,14	147,00
-555,39	117,00
-547,65	21,00
-539,91	180,00
-532,19	-6,00
-524,48	101,00
-516,78	45,00
-509,08	121,00
-501,40	206,00
-493,72	167,00
-486,06	135,00
-478,40	75,00
-470,76	91,00
-463,12	169,00
-455,49	108,00
-447,87	148,00
-440,26	133,00
-432,66	153,00
-425,07	125,00
-417,49	164,00
-409,92	128,00
-402,35	162,00
-394,80	137,00
-387,25	-7,00
-379,72	179,00
-372,19	86,00
-364,67	117,00
-357,17	236,00
-349,67	135,00
-342,18	49,00
-334,69	154,00
-327,22	187,00
-319,76	188,00
-312,30	94,00
-304,86	152,00
-297,42	212,00
-290,00	142,00
-282,58	193,00
-275,17	277,00
-267,77	112,00
-260,37	199,00
-252,99	213,00
-245,62	120,00
-238,25	128,00
-230,90	236,00
-223,55	128,00
-216,21	191,00
-208,88	143,00
-201,56	231,00
-194,25	192,00
-186,94	188,00
-179,65	231,00
-172,36	300,00
-165,08	228,00
-157,81	265,00
-150,55	276,00
-143,30	336,00
-136,06	360,00
-128,82	397,00
-121,60	377,00
-114,38	426,00
-107,17	492,00
-99,97	535,00
-92,78	594,00
-85,60	655,00
-78,42	738,00
-71,25	861,00
-64,10	823,00
-56,95	1039,00
-49,81	1222,00
-42,67	1470,00
-35,55	1842,00
-28,43	2424,00
-21,33	4119,00
-14,23	13327,00
-7,14	56139,00
-0,05	55888,00
7,02	55558,00
14,09	42878,00
21,14	11369,00
28,19	4839,00
35,23	3078,00
42,27	2352,00
49,29	2104,00
56,31	1649,00
63,32	1358,00
70,32	1182,00
77,31	1084,00
84,29	933,00
91,27	915,00
98,23	803,00
105,19	747,00
112,14	838,00
119,09	1346,00
126,02	2214,00
132,95	2711,00
139,87	2765,00
146,78	2834,00
153,68	2912,00
160,58	2798,00
167,46	2668,00
174,34	2682,00
181,21	2674,00
188,08	2784,00
194,93	2681,00
201,78	2722,00
208,62	2749,00
215,45	2763,00
222,27	2743,00
229,09	2903,00
235,90	2818,00
242,70	2790,00
249,49	2710,00
256,27	2786,00
263,05	2712,00
269,82	2737,00
276,58	2855,00
283,33	2821,00
290,08	2698,00
296,82	2718,00
303,55	2686,00
310,27	2548,00
316,98	2749,00
323,69	2652,00
330,39	2672,00
337,08	2677,00
343,76	2712,00
350,44	2569,00
357,11	2601,00
363,77	2675,00
370,42	2744,00
377,07	2586,00
383,71	2723,00
390,34	2609,00
396,96	2667,00
403,58	2753,00
410,19	2702,00
416,79	2873,00
423,38	2685,00
429,97	2694,00
436,55	2756,00
443,12	2572,00
449,68	2698,00
456,24	2667,00
462,79	2639,00
469,33	2716,00
475,86	2696,00
482,39	2588,00
488,91	2654,00
495,42	2763,00
501,93	2582,00
508,42	2601,00
514,91	2660,00
521,40	2633,00
527,87	2499,00
534,34	2698,00
540,80	2636,00
547,25	2770,00
553,70	2704,00
560,14	2594,00
566,57	2685,00
573,00	2565,00
579,41	2681,00
585,83	2637,00
592,23	2560,00
598,62	2798,00
605,01	2719,00
611,40	2736,00
617,77	2570,00
624,14	2733,00
630,50	2657,00
636,85	2643,00
643,20	2636,00
649,54	2570,00
655,87	2589,00
662,20	2729,00
668,52	2657,00
674,83	2564,00
681,13	2563,00
687,43	2649,00
693,72	2530,00
700,00	2705,00
706,28	2584,00
712,55	2688,00
718,81	2693,00
725,07	2701,00
731,32	2657,00
737,56	2687,00
743,79	2759,00
750,02	2779,00
756,24	2687,00
762,46	2701,00
768,67	2776,00
774,87	2741,00
781,06	2783,00
787,25	2820,00
793,43	2781,00
799,60	2785,00
805,77	2657,00
811,93	2704,00
818,08	2791,00
824,23	2673,00
830,37	2700,00
836,50	2904,00
842,63	2778,00
848,75	2839,00
854,87	2762,00
860,97	2792,00
867,07	2716,00
873,17	2722,00
879,25	2690,00
885,33	2731,00
891,41	2594,00
897,47	2802,00
903,53	2729,00
909,59	2760,00
915,63	2776,00
921,67	2762,00
927,71	2725,00
933,74	2824,00
939,76	2742,00
945,77	2712,00
951,78	2611,00
957,78	2863,00
963,78	2680,00
969,77	2840,00
975,75	2815,00
981,72	2829,00
987,69	2623,00
993,66	2866,00
999,61	2798,00
1005,56	2888,00
1011,51	2779,00
1017,44	2807,00
1023,37	2891,00
1029,30	2889,00
1035,22	2911,00
1041,13	2892,00
1047,03	3017,00
1052,93	3062,00
1058,83	3407,00
1064,71	3545,00
1070,59	3341,00
1076,47	3085,00
1082,33	3048,00
1088,20	3073,00
1094,05	3030,00
1099,90	2954,00
1105,74	3182,00
1111,58	3010,00
1117,41	3180,00
1123,23	3467,00
1129,05	3744,00
1134,86	3533,00
1140,67	3269,00
1146,47	3184,00
1152,26	3016,00
1158,05	3004,00
1163,83	3081,00
1169,60	3143,00
1175,37	3066,00
1181,13	3001,00
1186,89	2896,00
1192,64	2926,00
1198,38	2962,00
1204,12	2877,00
1209,85	2964,00
1215,58	3132,00
1221,30	3109,00
1227,02	2993,00
1232,72	3268,00
1238,43	3058,00
1244,12	3108,00
1249,81	3017,00
1255,50	3059,00
1261,17	3174,00
1266,85	3375,00
1272,51	3205,00
1278,17	3142,00
1283,83	3255,00
1289,47	3667,00
1295,12	4048,00
1300,75	3879,00
1306,38	3505,00
1312,01	3327,00
1317,63	3247,00
1323,24	3252,00
1328,85	3226,00
1334,45	3267,00
1340,04	3111,00
1345,63	3139,00
1351,22	3239,00
1356,80	3193,00
1362,37	3144,00
1367,93	3129,00
1373,49	3152,00
1379,05	3192,00
1384,60	3298,00
1390,14	3170,00
1395,68	3222,00
1401,21	3121,00
1406,74	3274,00
1412,26	3494,00
1417,77	3378,00
1423,28	3587,00
1428,78	3564,00
1434,28	3887,00
1439,77	3958,00
1445,26	4105,00
1450,74	3709,00
1456,22	3828,00
1461,68	3643,00
1467,15	3631,00
1472,61	3589,00
1478,06	3476,00
1483,51	3147,00
1488,95	3303,00
1494,38	3221,00
1499,81	3041,00
1505,24	3066,00
1510,65	2887,00
1516,07	3018,00
1521,48	3111,00
1526,88	3049,00
1532,27	3037,00
1537,67	3112,00
1543,05	3078,00
1548,43	2898,00
1553,81	3024,00
1559,18	3038,00
1564,54	3054,00
1569,90	3076,00
1575,25	2944,00
1580,60	2997,00
1585,94	3023,00
1591,28	2986,00
1596,61	2889,00
1601,93	2938,00
1607,25	2968,00
1612,57	2965,00
1617,88	2895,00
1623,18	2899,00
1628,48	2954,00
1633,77	2845,00
1639,06	2771,00
1644,34	2875,00
1649,62	2798,00
1654,89	2690,00
1660,16	2776,00
1665,42	2863,00
1670,67	2928,00
1675,92	2732,00
1681,17	2755,00
1686,41	2813,00
1691,64	2824,00
1696,87	2762,00
1702,10	2772,00
1707,32	2782,00
1712,53	2694,00
1717,74	2767,00
1722,94	2751,00
1728,14	2739,00
1733,33	2593,00
1738,52	2689,00
1743,70	2652,00
1748,88	2792,00
1754,05	2608,00
1759,22	2713,00
1764,38	2592,00
1769,53	2683,00
1774,69	2603,00
1779,83	2550,00
1784,97	2583,00
1790,11	2580,00
1795,24	2549,00
1800,36	2561,00
1805,48	2536,00
1810,60	2661,00
1815,71	2687,00
1820,82	2487,00
1825,92	2685,00
1831,01	2561,00
1836,10	2589,00
1841,19	2655,00
1846,26	2582,00
1851,34	2592,00
1856,41	2581,00
1861,47	2679,00
1866,53	2587,00
1871,59	2520,00
1876,64	2522,00
1881,68	2602,00
1886,72	2564,00
1891,76	2376,00
1896,79	2491,00
1901,81	2474,00
1906,83	2405,00
1911,85	2360,00
1916,86	2549,00
1921,86	2490,00
1926,86	2441,00
1931,86	2308,00
1936,85	2356,00
1941,83	2311,00
1946,81	2362,00
1951,79	2320,00
1956,76	2279,00
1961,72	2242,00
1966,68	2334,00
1971,64	2256,00
1976,59	2315,00
1981,54	2282,00
1986,48	2358,00
1991,42	2252,00
1996,35	2235,00
2001,27	2354,00
2006,20	2339,00
2011,11	2215,00
2016,03	2167,00
2020,93	2129,00
2025,84	2261,00
2030,73	2265,00
2035,63	2206,00
2040,52	2278,00
2045,40	2192,00
2050,28	2314,00
2055,15	2163,00
2060,02	2186,00
2064,89	2214,00
2069,75	2246,00
2074,60	2152,00
2079,46	2038,00
2084,30	2169,00
2089,14	2190,00
2093,98	2135,00
2098,81	2004,00
2103,64	2217,00
2108,46	2221,00
2113,28	2123,00
2118,09	2174,00
2122,90	2098,00
2127,70	2013,00
2132,50	2260,00
2137,30	2193,00
2142,09	2160,00
2146,87	2159,00
2151,66	2084,00
2156,43	2143,00
2161,20	2181,00
2165,97	1983,00
2170,73	2047,00
2175,49	2056,00
2180,24	2016,00
2184,99	2047,00
2189,74	2135,00
2194,48	2025,00
2199,21	1948,00
2203,94	1998,00
2208,67	2039,00
2213,39	2035,00
2218,11	1913,00
2222,82	1995,00
2227,53	1927,00
2232,23	1940,00
2236,93	2101,00
2241,63	2076,00
2246,32	1903,00
2251,00	1923,00
2255,68	2006,00
2260,36	1821,00
2265,03	1828,00
2269,70	2094,00
2274,36	2017,00
2279,02	1888,00
2283,68	1925,00
2288,33	1762,00
2292,97	1897,00
2297,61	1829,00
2302,25	1869,00
2306,88	1769,00
2311,51	1725,00
2316,14	1757,00
2320,75	1812,00
2325,37	1842,00
2329,98	1919,00
2334,59	1787,00
2339,19	1724,00
2343,79	1786,00
2348,38	1825,00
2352,97	1662,00
2357,55	1751,00
2362,13	1740,00
2366,71	1706,00
2371,28	1769,00
2375,85	1680,00
2380,41	1667,00
2384,97	1550,00
2389,52	1596,00
2394,07	1628,00
2398,62	1653,00
2403,16	1577,00
2407,70	1645,00
2412,23	1543,00
2416,76	1693,00
2421,29	1610,00
2425,81	1612,00
2430,32	1649,00
2434,84	1462,00
2439,34	1603,00
2443,85	1564,00
2448,35	1498,00
2452,84	1489,00
2457,33	1511,00
2461,82	1466,00
2466,30	1506,00
2470,78	1503,00
2475,25	1468,00
2479,72	1471,00
2484,19	1438,00
2488,65	1425,00
2493,11	1503,00
2497,56	1477,00
2502,01	1430,00
2506,46	1410,00
2510,90	1560,00
2515,34	1462,00
2519,77	1331,00
2524,20	1347,00
2528,62	1413,00
2533,04	1327,00
2537,46	1337,00
2541,87	1352,00
2546,28	1346,00
2550,68	1314,00
2555,08	1355,00
2559,48	1389,00
2563,87	1373,00
2568,26	1177,00
2572,64	1389,00
2577,02	1322,00
2581,40	1369,00
2585,77	1278,00
2590,14	1170,00
2594,50	1228,00
2598,86	1246,00
2603,22	1211,00
2607,57	1241,00
2611,92	1078,00
2616,26	1197,00
2620,60	1261,00
2624,94	1258,00
2629,27	1246,00
2633,60	1087,00
2637,92	1210,00
2642,24	1256,00
2646,56	1279,00
2650,87	1148,00
2655,18	1194,00
2659,48	1175,00
2663,78	1202,00
2668,08	1147,00
2672,37	1111,00
2676,66	1280,00
2680,95	1138,00
2685,23	1098,00
2689,50	982,00
2693,78	1157,00
2698,05	1161,00
2702,31	1200,00
2706,57	1207,00
2710,83	1170,00
2715,08	1184,00
2719,33	1132,00
2723,58	1116,00
2727,82	1311,00
2732,06	1286,00
2736,29	1092,00
2740,53	1182,00
2744,75	1072,00
2748,97	1193,00
2753,19	1147,00
2757,41	1062,00
2761,62	1123,00
2765,83	1038,00
2770,03	1098,00
2774,23	1048,00
2778,43	1112,00
2782,62	1106,00
2786,81	1103,00
2791,00	1028,00
2795,18	993,00
2799,35	1240,00
2803,53	1096,00
2807,70	1070,00
2811,86	1143,00
2816,03	1258,00
2820,19	1229,00
2824,34	1240,00
2828,49	1204,00
2832,64	1310,00
2836,78	1518,00
2840,92	1638,00
2845,06	1923,00
2849,19	2130,00
2853,32	2141,00
2857,45	2015,00
2861,57	2022,00
2865,69	2114,00
2869,80	1889,00
2873,91	1983,00
2878,02	2140,00
2882,12	2250,00
2886,22	2164,00
2890,32	2010,00
2894,41	2039,00
2898,50	1899,00
2902,58	1636,00
2906,67	1716,00
2910,74	1619,00
2914,82	1534,00
2918,89	1425,00
2922,96	1376,00
2927,02	1259,00
2931,08	1166,00
2935,13	1275,00
2939,19	1109,00
2943,24	1148,00
2947,28	1045,00
2951,32	950,00
2955,36	798,00
2959,40	986,00
2963,43	963,00
2967,46	985,00
2971,48	825,00
2975,50	836,00
2979,52	879,00
2983,53	785,00
2987,54	695,00
2991,55	820,00
2995,55	786,00
2999,55	765,00
3003,54	801,00
3007,54	691,00
3011,53	656,00
3015,51	672,00
3019,49	716,00
3023,47	610,00
3027,45	697,00
3031,42	768,00
3035,39	548,00
3039,35	580,00
3043,31	607,00
3047,27	617,00
3051,22	637,00
3055,17	595,00
3059,12	668,00
3063,06	743,00
3067,00	556,00
3070,94	540,00
3074,87	657,00
3078,80	571,00
3082,73	509,00
3086,65	588,00
3090,57	593,00
3094,49	546,00
3098,40	517,00
3102,31	634,00
3106,22	496,00
3110,12	576,00
3114,02	589,00
3117,92	538,00
3121,81	435,00
3125,70	441,00
3129,58	465,00
3133,47	383,00
3137,34	457,00
3141,22	484,00
3145,09	485,00
3148,96	573,00
3152,83	399,00
3156,69	466,00
3160,55	439,00
3164,40	427,00
3168,26	447,00
3172,10	486,00
3175,95	599,00
3179,79	410,00
3183,63	339,00
3187,47	570,00
3191,30	452,00
3195,13	553,00
3198,95	344,00
3202,78	474,00
3206,60	368,00
3210,41	362,00
3214,23	450,00
3218,03	445,00
3221,84	434,00
3225,64	427,00
3229,44	382,00
3233,24	442,00
3237,03	287,00
3240,82	328,00
3244,61	344,00
3248,39	397,00
3252,17	371,00
3255,95	369,00
3259,72	312,00
3263,49	266,00
3267,26	244,00
3271,03	310,00
3274,79	242,00
3278,54	361,00
3282,30	385,00
3286,05	328,00
3289,80	391,00
3293,54	361,00
3297,29	247,00
3301,02	301,00
3304,76	328,00
3308,49	381,00
3312,22	221,00
3315,95	370,00
3319,67	323,00
3323,39	309,00
3327,10	242,00
3330,82	252,00
3334,53	354,00
3338,24	278,00
3341,94	291,00
3345,64	323,00
3349,34	255,00
3353,03	244,00
3356,72	243,00
3360,41	299,00
3364,10	299,00
3367,78	280,00
3371,46	245,00
3375,13	311,00
3378,81	264,00
3382,48	349,00
3386,14	283,00
3389,81	291,00
3393,47	296,00
3397,12	201,00
3400,78	208,00
3404,43	303,00
3408,08	291,00
3411,72	234,00
3415,36	201,00
3419,00	238,00
3422,64	191,00
3426,27	330,00
3429,90	194,00
3433,53	268,00
3437,15	249,00
3440,77	222,00
3444,39	192,00
3448,00	269,00
3451,62	202,00
3455,22	198,00
3458,83	205,00
3462,43	182,00
3466,03	258,00
3469,63	245,00
3473,22	273,00
3476,81	179,00
3480,40	240,00
3483,99	292,00
3487,57	135,00
3491,15	135,00
3494,72	226,00
3498,29	236,00
3501,86	102,00
3505,43	91,00
3508,99	212,00
3512,56	263,00
3516,11	180,00
3519,67	226,00
3523,22	273,00
3526,77	283,00
3530,32	199,00
3533,86	144,00
3537,40	151,00
3540,94	123,00
3544,47	173,00
3548,00	196,00
3551,53	110,00
3555,06	115,00
3558,58	202,00
3562,10	117,00
3565,62	176,00
3569,13	147,00
3572,64	37,00
3576,15	190,00
3579,66	196,00
3583,16	203,00
3586,66	276,00
3590,16	304,00
3593,65	164,00
3597,14	152,00
3600,63	119,00
3604,11	210,00
3607,60	57,00
3611,08	112,00
3614,55	66,00
3618,03	131,00
3621,50	260,00
3624,97	68,00
3628,43	130,00
3631,90	219,00
3635,36	126,00
3638,81	83,00
3642,27	101,00
3645,72	239,00
3649,17	178,00
3652,61	72,00
3656,06	213,00
3659,50	141,00
3662,93	126,00
3666,37	216,00
3669,80	123,00
3673,23	179,00
3676,65	276,00
3680,08	149,00
3683,50	117,00
3686,92	224,00
3690,33	-55,00
3693,74	180,00
3697,15	128,00
3700,56	72,00
3703,96	88,00
3707,36	271,00
3710,76	221,00
3714,16	123,00
3717,55	165,00
3720,94	58,00
3724,33	122,00
3727,71	136,00
3731,10	13,00
3734,48	103,00
3737,85	172,00
3741,23	158,00
3744,60	61,00
3747,97	115,00
3751,33	129,00
3754,69	164,00
3758,05	107,00
3761,41	153,00
3764,77	180,00
3768,12	250,00
3771,47	51,00
3774,82	263,00
3778,16	-11,00
3781,50	6,00
3784,84	-1,00
3788,18	-3,00
>>>>>End Processed Spectral Data<<<<<
