SpectraSuite Data File
++++++++++++++++++++++++++++++++++++
Date: Mon Mar 09 14:32:20 ICT 2026
User: Administrator
Dark Spectrum Present: Yes
Reference Spectrum Present: No
Number of Sampled Component Spectra: 1
Spectrometers: MAYP113682
Integration Time (usec): 3000000 (MAYP113682)
Spectra Averaged: 1 (MAYP113682)
Boxcar Smoothing: 0 (MAYP113682)
Correct for Electrical Dark: No (MAYP113682)
Strobe/Lamp Enabled: No (MAYP113682)
Correct for Detector Non-linearity: No (MAYP113682)
Correct for Stray Light: No (MAYP113682)
Number of Pixels in Processed Spectrum: 2068
>>>>>Begin Processed Spectral Data<<<<<
-37534,58	11,00
-37414,56	7,00
-37295,11	8,00
-37176,24	5,00
-37057,95	180,00
-36940,22	79,00
-36823,05	146,00
-36706,45	175,00
-36590,40	82,00
-36474,90	215,00
-36359,95	172,00
-36245,55	198,00
-36131,68	198,00
-36018,35	158,00
-35905,55	158,00
-35793,29	121,00
-35681,54	145,00
-35570,32	101,00
-35459,62	240,00
-35349,43	209,00
-35239,75	136,00
-35130,58	175,00
-35021,91	204,00
-34913,74	236,00
-34806,07	163,00
-34698,89	246,00
-34592,20	166,00
-34486,00	126,00
-34380,28	183,00
-34275,04	195,00
-34170,27	270,00
-34065,98	180,00
-33962,16	186,00
-33858,81	231,00
-33755,92	164,00
-33653,49	239,00
-33551,52	171,00
-33450,01	194,00
-33348,94	138,00
-33248,33	112,00
-33148,16	100,00
-33048,43	124,00
-32949,14	313,00
-32850,29	135,00
-32751,87	201,00
-32653,89	76,00
-32556,33	237,00
-32459,20	178,00
-32362,49	195,00
-32266,19	158,00
-32170,32	187,00
-32074,86	129,00
-31979,82	256,00
-31885,18	234,00
-31790,95	293,00
-31697,12	230,00
-31603,69	178,00
-31510,67	209,00
-31418,04	228,00
-31325,80	209,00
-31233,95	250,00
-31142,49	93,00
-31051,42	206,00
-30960,73	147,00
-30870,43	259,00
-30780,50	131,00
-30690,95	214,00
-30601,77	195,00
-30512,97	290,00
-30424,53	151,00
-30336,46	207,00
-30248,76	274,00
-30161,42	208,00
-30074,44	187,00
-29987,81	254,00
-29901,55	237,00
-29815,63	195,00
-29730,07	121,00
-29644,86	156,00
-29560,00	188,00
-29475,48	156,00
-29391,30	148,00
-29307,47	174,00
-29223,97	276,00
-29140,81	191,00
-29057,99	210,00
-28975,50	172,00
-28893,34	298,00
-28811,51	76,00
-28730,00	147,00
-28648,82	312,00
-28567,97	150,00
-28487,43	230,00
-28407,21	148,00
-28327,32	211,00
-28247,73	165,00
-28168,46	178,00
-28089,50	189,00
-28010,85	160,00
-27932,51	195,00
-27854,48	261,00
-27776,75	205,00
-27699,32	211,00
-27622,19	238,00
-27545,37	254,00
-27468,84	194,00
-27392,60	185,00
-27316,66	238,00
-27241,01	166,00
-27165,66	271,00
-27090,59	209,00
-27015,81	152,00
-26941,31	133,00
-26867,10	207,00
-26793,17	351,00
-26719,52	215,00
-26646,15	223,00
-26573,06	179,00
-26500,24	158,00
-26427,70	165,00
-26355,43	172,00
-26283,43	153,00
-26211,71	264,00
-26140,25	232,00
-26069,06	274,00
-25998,13	222,00
-25927,46	235,00
-25857,06	205,00
-25786,92	155,00
-25717,04	100,00
-25647,42	245,00
-25578,05	125,00
-25508,94	129,00
-25440,09	134,00
-25371,48	234,00
-25303,13	158,00
-25235,02	183,00
-25167,17	183,00
-25099,56	259,00
-25032,19	216,00
-24965,07	146,00
-24898,20	237,00
-24831,56	217,00
-24765,17	249,00
-24699,01	128,00
-24633,10	172,00
-24567,41	211,00
-24501,97	237,00
-24436,75	248,00
-24371,77	199,00
-24307,03	212,00
-24242,51	163,00
-24178,22	171,00
-24114,16	228,00
-24050,32	286,00
-23986,71	194,00
-23923,32	211,00
-23860,16	148,00
-23797,22	197,00
-23734,50	258,00
-23672,00	105,00
-23609,71	213,00
-23547,65	187,00
-23485,80	289,00
-23424,16	171,00
-23362,74	212,00
-23301,53	143,00
-23240,54	154,00
-23179,75	114,00
-23119,17	210,00
-23058,80	216,00
-22998,64	224,00
-22938,68	228,00
-22878,93	164,00
-22819,39	246,00
-22760,04	146,00
-22700,90	248,00
-22641,96	285,00
-22583,22	211,00
-22524,68	237,00
-22466,33	202,00
-22408,19	192,00
-22350,23	171,00
-22292,48	131,00
-22234,92	219,00
-22177,55	202,00
-22120,37	198,00
-22063,38	220,00
-22006,58	111,00
-21949,98	220,00
-21893,56	105,00
-21837,33	179,00
-21781,28	232,00
-21725,42	99,00
-21669,74	305,00
-21614,25	214,00
-21558,94	253,00
-21503,81	221,00
-21448,86	164,00
-21394,10	173,00
-21339,51	311,00
-21285,10	139,00
-21230,86	136,00
-21176,81	165,00
-21122,93	136,00
-21069,22	288,00
-21015,69	140,00
-20962,33	226,00
-20909,14	107,00
-20856,13	204,00
-20803,28	262,00
-20750,61	142,00
-20698,10	128,00
-20645,76	162,00
-20593,59	228,00
-20541,59	183,00
-20489,75	234,00
-20438,07	198,00
-20386,56	173,00
-20335,22	181,00
-20284,03	205,00
-20233,01	181,00
-20182,15	301,00
-20131,45	129,00
-20080,91	153,00
-20030,52	177,00
-19980,30	243,00
-19930,23	213,00
-19880,32	172,00
-19830,56	93,00
-19780,96	243,00
-19731,52	140,00
-19682,23	197,00
-19633,09	196,00
-19584,10	204,00
-19535,26	184,00
-19486,58	254,00
-19438,04	157,00
-19389,66	119,00
-19341,42	163,00
-19293,33	210,00
-19245,39	128,00
-19197,60	185,00
-19149,95	109,00
-19102,45	187,00
-19055,09	211,00
-19007,87	220,00
-18960,80	215,00
-18913,87	249,00
-18867,09	176,00
-18820,44	189,00
-18773,94	235,00
-18727,57	162,00
-18681,35	124,00
-18635,26	153,00
-18589,31	211,00
-18543,50	185,00
-18497,83	212,00
-18452,29	136,00
-18406,89	222,00
-18361,63	214,00
-18316,50	197,00
-18271,50	179,00
-18226,63	266,00
-18181,90	162,00
-18137,30	223,00
-18092,84	156,00
-18048,50	191,00
-18004,29	176,00
-17960,22	204,00
-17916,27	193,00
-17872,45	181,00
-17828,76	215,00
-17785,20	222,00
-17741,77	145,00
-17698,46	178,00
-17655,28	107,00
-17612,22	148,00
-17569,29	189,00
-17526,48	132,00
-17483,79	165,00
-17441,23	218,00
-17398,79	265,00
-17356,48	132,00
-17314,28	255,00
-17272,21	77,00
-17230,26	197,00
-17188,42	171,00
-17146,71	206,00
-17105,12	232,00
-17063,64	153,00
-17022,28	197,00
-16981,04	127,00
-16939,92	139,00
-16898,91	162,00
-16858,02	219,00
-16817,25	172,00
-16776,59	178,00
-16736,04	206,00
-16695,61	226,00
-16655,29	191,00
-16615,09	197,00
-16574,99	169,00
-16535,01	148,00
-16495,15	114,00
-16455,39	174,00
-16415,74	252,00
-16376,21	262,00
-16336,78	229,00
-16297,46	214,00
-16258,26	259,00
-16219,16	219,00
-16180,17	254,00
-16141,28	229,00
-16102,51	191,00
-16063,84	145,00
-16025,27	186,00
-15986,82	140,00
-15948,46	249,00
-15910,22	168,00
-15872,07	180,00
-15834,04	223,00
-15796,10	296,00
-15758,27	250,00
-15720,54	170,00
-15682,91	177,00
-15645,39	203,00
-15607,97	258,00
-15570,64	171,00
-15533,42	133,00
-15496,30	177,00
-15459,28	167,00
-15422,36	192,00
-15385,54	207,00
-15348,82	223,00
-15312,19	130,00
-15275,66	207,00
-15239,23	191,00
-15202,90	151,00
-15166,67	187,00
-15130,53	266,00
-15094,48	159,00
-15058,54	279,00
-15022,68	176,00
-14986,93	183,00
-14951,26	177,00
-14915,69	293,00
-14880,22	202,00
-14844,84	143,00
-14809,55	195,00
-14774,35	176,00
-14739,25	181,00
-14704,24	211,00
-14669,32	162,00
-14634,49	203,00
-14599,75	241,00
-14565,10	190,00
-14530,55	202,00
-14496,08	149,00
-14461,70	206,00
-14427,41	209,00
-14393,21	193,00
-14359,10	194,00
-14325,07	169,00
-14291,14	225,00
-14257,29	208,00
-14223,52	243,00
-14189,85	227,00
-14156,26	224,00
-14122,76	177,00
-14089,34	263,00
-14056,01	286,00
-14022,76	243,00
-13989,60	240,00
-13956,52	207,00
-13923,53	186,00
-13890,62	275,00
-13857,79	158,00
-13825,05	235,00
-13792,39	131,00
-13759,81	124,00
-13727,31	234,00
-13694,90	227,00
-13662,57	198,00
-13630,31	197,00
-13598,14	226,00
-13566,05	183,00
-13534,05	267,00
-13502,12	172,00
-13470,27	242,00
-13438,50	208,00
-13406,80	193,00
-13375,19	194,00
-13343,66	191,00
-13312,20	235,00
-13280,83	173,00
-13249,53	192,00
-13218,30	198,00
-13187,16	224,00
-13156,09	234,00
-13125,10	164,00
-13094,18	203,00
-13063,34	214,00
-13032,58	149,00
-13001,89	214,00
-12971,28	155,00
-12940,74	233,00
-12910,27	224,00
-12879,88	214,00
-12849,57	233,00
-12819,33	181,00
-12789,16	214,00
-12759,06	73,00
-12729,04	171,00
-12699,09	1291,00
-12669,21	147,00
-12639,41	197,00
-12609,68	195,00
-12580,02	251,00
-12550,43	87,00
-12520,91	250,00
-12491,46	263,00
-12462,08	174,00
-12432,77	138,00
-12403,54	167,00
-12374,37	156,00
-12345,27	219,00
-12316,24	213,00
-12287,29	166,00
-12258,40	167,00
-12229,57	171,00
-12200,82	175,00
-12172,14	254,00
-12143,52	145,00
-12114,97	224,00
-12086,49	294,00
-12058,07	196,00
-12029,73	175,00
-12001,44	262,00
-11973,23	215,00
-11945,08	200,00
-11917,00	173,00
-11888,98	293,00
-11861,03	250,00
-11833,15	250,00
-11805,32	175,00
-11777,57	198,00
-11749,88	227,00
-11722,25	190,00
-11694,69	102,00
-11667,19	190,00
-11639,75	193,00
-11612,38	151,00
-11585,07	174,00
-11557,83	147,00
-11530,65	155,00
-11503,53	202,00
-11476,47	150,00
-11449,48	253,00
-11422,54	178,00
-11395,67	244,00
-11368,86	170,00
-11342,11	202,00
-11315,43	153,00
-11288,80	192,00
-11262,23	284,00
-11235,73	190,00
-11209,28	195,00
-11182,90	172,00
-11156,57	228,00
-11130,31	281,00
-11104,10	155,00
-11077,96	154,00
-11051,87	190,00
-11025,84	170,00
-10999,87	164,00
-10973,96	250,00
-10948,11	220,00
-10922,31	150,00
-10896,58	155,00
-10870,90	250,00
-10845,28	241,00
-10819,71	112,00
-10794,20	162,00
-10768,75	186,00
-10743,36	185,00
-10718,02	122,00
-10692,74	89,00
-10667,52	244,00
-10642,35	101,00
-10617,24	188,00
-10592,18	202,00
-10567,18	207,00
-10542,23	159,00
-10517,34	129,00
-10492,51	97,00
-10467,72	75,00
-10443,00	155,00
-10418,32	197,00
-10393,70	105,00
-10369,14	126,00
-10344,63	83,00
-10320,17	121,00
-10295,77	98,00
-10271,42	100,00
-10247,12	26,00
-10222,88	116,00
-10198,68	30,00
-10174,54	52,00
-10150,46	14,00
-10126,42	27,00
-10102,44	-126,00
-10078,51	-4,00
-10054,63	-58,00
-10030,80	-4,00
-10007,03	42,00
-9983,30	-88,00
-9959,63	-134,00
-9936,01	-192,00
-9912,44	-189,00
-9888,92	-254,00
-9865,44	-207,00
-9842,02	-234,00
-9818,65	-254,00
-9795,33	-167,00
-9772,06	-257,00
-9748,84	-292,00
-9725,67	-302,00
-9702,55	-427,00
-9679,47	-543,00
-9656,45	-524,00
-9633,47	-666,00
-9610,55	-618,00
-9587,67	-684,00
-9564,84	-753,00
-9542,06	-808,00
-9519,32	-1012,00
-9496,64	-1098,00
-9474,00	-1222,00
-9451,41	-1308,00
-9428,87	-1307,00
-9406,37	-1352,00
-9383,92	-1202,00
-9361,52	-1270,00
-9339,17	-1372,00
-9316,86	-1571,00
-9294,60	-1794,00
-9272,38	-1958,00
-9250,21	-2151,00
-9228,09	-2285,00
-9206,01	-2186,00
-9183,98	-2179,00
-9162,00	-2070,00
-9140,06	-1820,00
-9118,16	-1877,00
-9096,31	-1994,00
-9074,51	-2006,00
-9052,75	-1964,00
-9031,04	-1967,00
-9009,37	-1762,00
-8987,74	-1592,00
-8966,16	-1434,00
-8944,63	-1431,00
-8923,14	-1211,00
-8901,69	-1198,00
-8880,29	-1356,00
-8858,93	-1411,00
-8837,61	-1424,00
-8816,34	-1586,00
-8795,11	-1668,00
-8773,92	-1563,00
-8752,78	-1446,00
-8731,68	-1339,00
-8710,62	-1383,00
-8689,61	-1535,00
-8668,63	-1588,00
-8647,70	-1512,00
-8626,82	-1534,00
-8605,97	-1454,00
-8585,17	-1446,00
-8564,41	-1279,00
-8543,69	-1076,00
-8523,01	-1250,00
-8502,37	-1151,00
-8481,78	-1312,00
-8461,23	-1424,00
-8440,71	-1545,00
-8420,24	-1549,00
-8399,81	-1541,00
-8379,42	-1512,00
-8359,08	-1315,00
-8338,77	-1317,00
-8318,50	-1198,00
-8298,27	-1151,00
-8278,09	-1236,00
-8257,94	-1328,00
-8237,83	-1309,00
-8217,76	-1518,00
-8197,74	-1495,00
-8177,75	-1349,00
-8157,80	-1343,00
-8137,89	-1157,00
-8118,02	-1093,00
-8098,19	-1040,00
-8078,40	-1070,00
-8058,65	-1146,00
-8038,93	-1133,00
-8019,26	-1097,00
-7999,62	-1139,00
-7980,02	-1143,00
-7960,46	-958,00
-7940,94	-884,00
-7921,46	-876,00
-7902,01	-880,00
-7882,60	-791,00
-7863,23	-855,00
-7843,90	-876,00
-7824,61	-959,00
-7805,35	-928,00
-7786,13	-1100,00
-7766,95	-1020,00
-7747,80	-1033,00
-7728,69	-898,00
-7709,62	-804,00
-7690,59	-1047,00
-7671,59	-960,00
-7652,63	-1021,00
-7633,70	-1194,00
-7614,81	-1054,00
-7595,96	-879,00
-7577,15	-861,00
-7558,37	-821,00
-7539,62	-855,00
-7520,91	-998,00
-7502,24	-1026,00
-7483,60	-1061,00
-7465,00	-923,00
-7446,44	-864,00
-7427,91	-717,00
-7409,41	-699,00
-7390,95	-651,00
-7372,53	-602,00
-7354,14	-574,00
-7335,78	-644,00
-7317,46	-596,00
-7299,18	-754,00
-7280,92	-837,00
-7262,71	-917,00
-7244,52	-975,00
-7226,38	-999,00
-7208,26	-1029,00
-7190,18	-888,00
-7172,14	-808,00
-7154,12	-746,00
-7136,15	-888,00
-7118,20	-894,00
-7100,29	-1007,00
-7082,41	-925,00
-7064,57	-976,00
-7046,76	-871,00
-7028,98	-807,00
-7011,24	-698,00
-6993,53	-589,00
-6975,85	-418,00
-6958,20	-468,00
-6940,59	-419,00
-6923,01	-486,00
-6905,46	-507,00
-6887,94	-646,00
-6870,46	-1423,00
-6853,01	-795,00
-6835,59	-898,00
-6818,21	-742,00
-6800,85	-654,00
-6783,53	-604,00
-6766,24	-463,00
-6748,98	-406,00
-6731,76	-299,00
-6714,56	-355,00
-6697,40	-346,00
-6680,26	-389,00
-6663,16	-299,00
-6646,09	-435,00
-6629,05	-604,00
-6612,05	-629,00
-6595,07	-645,00
-6578,13	-579,00
-6561,21	-448,00
-6544,33	-333,00
-6527,47	-253,00
-6510,65	-275,00
-6493,86	-181,00
-6477,10	-183,00
-6460,36	-186,00
-6443,66	-210,00
-6426,99	-277,00
-6410,35	-186,00
-6393,74	-237,00
-6377,16	-383,00
-6360,61	-376,00
-6344,09	-435,00
-6327,59	-386,00
-6311,13	-389,00
-6294,70	-440,00
-6278,29	-497,00
-6261,92	-509,00
-6245,58	-569,00
-6229,26	-569,00
-6212,97	-563,00
-6196,72	-335,00
-6180,49	-231,00
-6164,29	-164,00
-6148,12	38,00
-6131,98	26,00
-6115,86	-77,00
-6099,78	-100,00
-6083,72	-41,00
-6067,69	-32,00
-6051,69	-129,00
-6035,72	-30,00
-6019,78	-134,00
-6003,87	-253,00
-5987,98	-360,00
-5972,12	-391,00
-5956,29	-322,00
-5940,49	-339,00
-5924,71	-228,00
-5908,96	-157,00
-5893,24	-112,00
-5877,55	-167,00
-5861,89	-197,00
-5846,25	-139,00
-5830,64	-95,00
-5815,05	-110,00
-5799,50	-53,00
-5783,97	-109,00
-5768,47	-185,00
-5752,99	-156,00
-5737,55	-357,00
-5722,12	-377,00
-5706,73	-331,00
-5691,36	-300,00
-5676,02	-231,00
-5660,71	2,00
-5645,42	-64,00
-5630,16	-48,00
-5614,92	-119,00
-5599,71	-217,00
-5584,53	-265,00
-5569,37	-312,00
-5554,24	544,00
-5539,14	-134,00
-5524,06	-102,00
-5509,01	-185,00
-5493,98	-206,00
-5478,98	-209,00
-5464,00	-178,00
-5449,05	-255,00
-5434,13	-145,00
-5419,23	-148,00
-5404,36	-72,00
-5389,51	-130,00
-5374,69	-321,00
-5359,89	-496,00
-5345,12	-445,00
-5330,37	-336,00
-5315,65	-295,00
-5300,95	-275,00
-5286,28	-224,00
-5271,63	-205,00
-5257,01	-88,00
-5242,41	-115,00
-5227,84	-99,00
-5213,29	-161,00
-5198,76	-5,00
-5184,26	-51,00
-5169,79	18,00
-5155,33	-157,00
-5140,91	-235,00
-5126,51	-282,00
-5112,13	-356,00
-5097,77	-133,00
-5083,44	-123,00
-5069,13	-109,00
-5054,85	-84,00
-5040,59	-126,00
-5026,36	-122,00
-5012,15	-193,00
-4997,96	-197,00
-4983,80	-182,00
-4969,66	-106,00
-4955,54	-70,00
-4941,44	-12,00
-4927,37	-244,00
-4913,33	-406,00
-4899,30	-459,00
-4885,30	-391,00
-4871,33	-266,00
-4857,37	-143,00
-4843,44	41,00
-4829,53	25,00
-4815,65	-75,00
-4801,79	-109,00
-4787,95	-93,00
-4774,13	-47,00
-4760,34	-35,00
-4746,56	63,00
-4732,82	24,00
-4719,09	-90,00
-4705,38	-220,00
-4691,70	-412,00
-4678,04	-371,00
-4664,41	-190,00
-4650,79	-28,00
-4637,20	-47,00
-4623,63	46,00
-4610,08	-124,00
-4596,56	-217,00
-4583,05	-150,00
-4569,57	-114,00
-4556,11	-44,00
-4542,67	-13,00
-4529,25	18,00
-4515,86	-31,00
-4502,49	-214,00
-4489,13	-227,00
-4475,80	-117,00
-4462,49	-130,00
-4449,21	55,00
-4435,94	33,00
-4422,70	-107,00
-4409,47	-197,00
-4396,27	-180,00
-4383,09	-87,00
-4369,93	28,00
-4356,79	54,00
-4343,67	138,00
-4330,58	10,00
-4317,50	-50,00
-4304,45	-63,00
-4291,41	-12,00
-4278,40	101,00
-4265,41	-17,00
-4252,44	90,00
-4239,49	-136,00
-4226,55	-85,00
-4213,65	46,00
-4200,76	113,00
-4187,89	205,00
-4175,04	117,00
-4162,21	157,00
-4149,40	73,00
-4136,61	92,00
-4123,85	197,00
-4111,10	158,00
-4098,37	54,00
-4085,66	53,00
-4072,98	150,00
-4060,31	190,00
-4047,66	223,00
-4035,04	116,00
-4022,43	128,00
-4009,84	157,00
-3997,27	94,00
-3984,72	276,00
-3972,19	151,00
-3959,69	138,00
-3947,20	237,00
-3934,73	176,00
-3922,27	152,00
-3909,84	162,00
-3897,43	205,00
-3885,04	138,00
-3872,67	127,00
-3860,31	213,00
-3847,98	327,00
-3835,66	346,00
-3823,36	211,00
-3811,09	148,00
-3798,83	258,00
-3786,59	152,00
-3774,37	269,00
-3762,17	184,00
-3749,98	180,00
-3737,82	181,00
-3725,67	221,00
-3713,55	250,00
-3701,44	117,00
-3689,35	173,00
-3677,28	256,00
-3665,22	252,00
-3653,19	192,00
-3641,17	180,00
-3629,18	307,00
-3617,20	238,00
-3605,24	221,00
-3593,30	169,00
-3581,37	113,00
-3569,47	155,00
-3557,58	261,00
-3545,71	261,00
-3533,86	-69,00
-3522,02	176,00
-3510,21	263,00
-3498,41	245,00
-3486,63	196,00
-3474,87	269,00
-3463,12	155,00
-3451,40	228,00
-3439,69	220,00
-3428,00	224,00
-3416,33	176,00
-3404,67	224,00
-3393,03	248,00
-3381,41	191,00
-3369,81	125,00
-3358,22	167,00
-3346,66	195,00
-3335,10	256,00
-3323,57	160,00
-3312,06	251,00
-3300,56	173,00
-3289,08	228,00
-3277,61	242,00
-3266,16	180,00
-3254,73	213,00
-3243,32	246,00
-3231,92	154,00
-3220,55	214,00
-3209,18	165,00
-3197,84	160,00
-3186,51	152,00
-3175,20	131,00
-3163,90	203,00
-3152,63	217,00
-3141,36	174,00
-3130,12	258,00
-3118,89	308,00
-3107,68	205,00
-3096,49	219,00
-3085,31	233,00
-3074,15	170,00
-3063,00	261,00
-3051,87	264,00
-3040,76	155,00
-3029,67	298,00
-3018,59	237,00
-3007,52	200,00
-2996,48	247,00
-2985,44	75,00
-2974,43	254,00
-2963,43	201,00
-2952,45	220,00
-2941,48	232,00
-2930,53	232,00
-2919,60	126,00
-2908,68	191,00
-2897,78	105,00
-2886,89	241,00
-2876,02	160,00
-2865,17	272,00
-2854,33	161,00
-2843,50	216,00
-2832,70	132,00
-2821,90	250,00
-2811,13	175,00
-2800,37	225,00
-2789,62	175,00
-2778,89	249,00
-2768,18	209,00
-2757,48	246,00
-2746,80	175,00
-2736,13	198,00
-2725,48	246,00
-2714,84	138,00
-2704,22	168,00
-2693,61	172,00
-2683,02	211,00
-2672,45	223,00
-2661,89	151,00
-2651,34	176,00
-2640,81	277,00
-2630,30	223,00
-2619,80	175,00
-2609,31	214,00
-2598,84	167,00
-2588,39	91,00
-2577,95	259,00
-2567,52	207,00
-2557,11	196,00
-2546,71	129,00
-2536,33	201,00
-2525,97	146,00
-2515,62	128,00
-2505,28	226,00
-2494,96	100,00
-2484,65	218,00
-2474,36	292,00
-2464,08	217,00
-2453,82	126,00
-2443,57	191,00
-2433,33	125,00
-2423,11	225,00
-2412,91	243,00
-2402,72	126,00
-2392,54	209,00
-2382,38	226,00
-2372,23	204,00
-2362,09	229,00
-2351,97	160,00
-2341,87	153,00
-2331,78	250,00
-2321,70	267,00
-2311,64	240,00
-2301,59	213,00
-2291,55	173,00
-2281,53	168,00
-2271,53	193,00
-2261,53	242,00
-2251,55	237,00
-2241,59	155,00
-2231,64	212,00
-2221,70	136,00
-2211,78	241,00
-2201,87	184,00
-2191,97	171,00
-2182,09	127,00
-2172,22	180,00
-2162,37	136,00
-2152,53	261,00
-2142,70	227,00
-2132,89	209,00
-2123,09	141,00
-2113,30	170,00
-2103,53	235,00
-2093,77	213,00
-2084,02	162,00
-2074,29	151,00
-2064,57	164,00
-2054,86	176,00
-2045,17	178,00
-2035,49	151,00
-2025,82	131,00
-2016,17	286,00
-2006,53	174,00
-1996,91	227,00
-1987,29	300,00
-1977,69	203,00
-1968,11	275,00
-1958,53	232,00
-1948,97	195,00
-1939,42	181,00
-1929,89	175,00
-1920,37	158,00
-1910,86	174,00
-1901,36	149,00
-1891,88	131,00
-1882,41	252,00
-1872,95	196,00
-1863,51	179,00
-1854,08	204,00
-1844,66	166,00
-1835,26	154,00
-1825,86	121,00
-1816,48	211,00
-1807,11	115,00
-1797,76	237,00
-1788,42	148,00
-1779,09	291,00
-1769,77	208,00
-1760,47	211,00
-1751,17	260,00
-1741,89	108,00
-1732,63	209,00
-1723,37	299,00
-1714,13	156,00
-1704,90	120,00
-1695,68	175,00
-1686,48	265,00
-1677,29	229,00
-1668,11	226,00
-1658,94	202,00
-1649,78	361,00
-1640,64	256,00
-1631,51	161,00
-1622,39	180,00
-1613,28	234,00
-1604,19	209,00
-1595,10	161,00
-1586,03	212,00
-1576,97	149,00
-1567,93	284,00
-1558,89	170,00
-1549,87	218,00
-1540,86	211,00
-1531,86	143,00
-1522,87	275,00
-1513,90	185,00
-1504,93	235,00
-1495,98	227,00
-1487,04	154,00
-1478,12	150,00
-1469,20	202,00
-1460,30	217,00
-1451,40	259,00
-1442,52	199,00
-1433,65	190,00
-1424,80	188,00
-1415,95	188,00
-1407,12	112,00
-1398,30	194,00
-1389,48	140,00
-1380,69	185,00
-1371,90	152,00
-1363,12	212,00
-1354,36	205,00
-1345,60	322,00
-1336,86	160,00
-1328,13	127,00
-1319,41	232,00
-1310,70	188,00
-1302,01	221,00
-1293,32	249,00
-1284,65	174,00
-1275,99	243,00
-1267,33	198,00
-1258,69	234,00
-1250,06	218,00
-1241,45	121,00
-1232,84	211,00
-1224,25	174,00
-1215,66	316,00
-1207,09	117,00
-1198,53	228,00
-1189,97	119,00
-1181,43	180,00
-1172,91	291,00
-1164,39	205,00
-1155,88	206,00
-1147,38	147,00
-1138,90	287,00
-1130,43	148,00
-1121,96	99,00
-1113,51	193,00
-1105,07	252,00
-1096,64	150,00
-1088,22	129,00
-1079,81	178,00
-1071,41	262,00
-1063,02	163,00
-1054,65	241,00
-1046,28	203,00
-1037,92	180,00
-1029,58	253,00
-1021,24	229,00
-1012,92	207,00
-1004,61	139,00
-996,30	133,00
-988,01	212,00
-979,73	225,00
-971,46	225,00
-963,20	243,00
-954,95	218,00
-946,71	120,00
-938,48	301,00
-930,26	198,00
-922,06	228,00
-913,86	193,00
-905,67	136,00
-897,49	220,00
-889,33	254,00
-881,17	235,00
-873,02	90,00
-864,89	198,00
-856,76	308,00
-848,65	119,00
-840,54	264,00
-832,45	144,00
-824,36	159,00
-816,29	160,00
-808,22	210,00
-800,17	172,00
-792,12	253,00
-784,09	294,00
-776,06	145,00
-768,05	294,00
-760,04	99,00
-752,05	203,00
-744,07	266,00
-736,09	226,00
-728,13	171,00
-720,17	189,00
-712,23	210,00
-704,29	195,00
-696,37	223,00
-688,45	156,00
-680,55	185,00
-672,65	205,00
-664,77	231,00
-656,89	159,00
-649,03	151,00
-641,17	230,00
-633,32	200,00
-625,49	168,00
-617,66	196,00
-609,84	262,00
-602,03	191,00
-594,23	188,00
-586,45	188,00
-578,67	248,00
-570,90	149,00
-563,14	247,00
-555,39	183,00
-547,65	226,00
-539,91	227,00
-532,19	157,00
-524,48	215,00
-516,78	223,00
-509,08	202,00
-501,40	185,00
-493,72	226,00
-486,06	115,00
-478,40	214,00
-470,76	138,00
-463,12	199,00
-455,49	224,00
-447,87	190,00
-440,26	229,00
-432,66	197,00
-425,07	228,00
-417,49	272,00
-409,92	191,00
-402,35	123,00
-394,80	189,00
-387,25	257,00
-379,72	266,00
-372,19	292,00
-364,67	292,00
-357,17	168,00
-349,67	157,00
-342,18	288,00
-334,69	206,00
-327,22	144,00
-319,76	257,00
-312,30	282,00
-304,86	211,00
-297,42	222,00
-290,00	265,00
-282,58	281,00
-275,17	254,00
-267,77	296,00
-260,37	299,00
-252,99	305,00
-245,62	195,00
-238,25	266,00
-230,90	251,00
-223,55	226,00
-216,21	349,00
-208,88	312,00
-201,56	278,00
-194,25	295,00
-186,94	376,00
-179,65	361,00
-172,36	333,00
-165,08	256,00
-157,81	409,00
-150,55	391,00
-143,30	268,00
-136,06	400,00
-128,82	499,00
-121,60	541,00
-114,38	492,00
-107,17	553,00
-99,97	580,00
-92,78	625,00
-85,60	725,00
-78,42	832,00
-71,25	789,00
-64,10	974,00
-56,95	1172,00
-49,81	1182,00
-42,67	1622,00
-35,55	1906,00
-28,43	2384,00
-21,33	3726,00
-14,23	11770,00
-7,14	58063,00
-0,05	57930,00
7,02	57685,00
14,09	46270,00
21,14	12007,00
28,19	4934,00
35,23	3137,00
42,27	2558,00
49,29	2021,00
56,31	1780,00
63,32	1534,00
70,32	1207,00
77,31	1111,00
84,29	994,00
91,27	940,00
98,23	773,00
105,19	763,00
112,14	800,00
119,09	1031,00
126,02	1430,00
132,95	1531,00
139,87	1666,00
146,78	1711,00
153,68	1553,00
160,58	1544,00
167,46	1512,00
174,34	1507,00
181,21	1567,00
188,08	1523,00
194,93	1403,00
201,78	1550,00
208,62	1550,00
215,45	1485,00
222,27	1400,00
229,09	1519,00
235,90	1525,00
242,70	1424,00
249,49	1458,00
256,27	1494,00
263,05	1441,00
269,82	1371,00
276,58	1458,00
283,33	1359,00
290,08	1411,00
296,82	1418,00
303,55	1389,00
310,27	1451,00
316,98	1439,00
323,69	1340,00
330,39	1380,00
337,08	1358,00
343,76	1296,00
350,44	1337,00
357,11	1303,00
363,77	1337,00
370,42	1312,00
377,07	1415,00
383,71	1269,00
390,34	1269,00
396,96	1254,00
403,58	1376,00
410,19	1303,00
416,79	1391,00
423,38	1301,00
429,97	1320,00
436,55	1283,00
443,12	1199,00
449,68	1200,00
456,24	1242,00
462,79	1303,00
469,33	1205,00
475,86	1298,00
482,39	1330,00
488,91	1267,00
495,42	1286,00
501,93	1259,00
508,42	1229,00
514,91	1212,00
521,40	1241,00
527,87	1221,00
534,34	1344,00
540,80	1185,00
547,25	1190,00
553,70	1185,00
560,14	1245,00
566,57	1228,00
573,00	1258,00
579,41	1244,00
585,83	1106,00
592,23	1212,00
598,62	1248,00
605,01	1193,00
611,40	1166,00
617,77	1245,00
624,14	1245,00
630,50	1174,00
636,85	1154,00
643,20	1141,00
649,54	1089,00
655,87	1180,00
662,20	1255,00
668,52	1202,00
674,83	1251,00
681,13	1157,00
687,43	1134,00
693,72	1260,00
700,00	1206,00
706,28	1121,00
712,55	1212,00
718,81	1202,00
725,07	1148,00
731,32	1111,00
737,56	1239,00
743,79	1227,00
750,02	1136,00
756,24	1170,00
762,46	1190,00
768,67	1222,00
774,87	1201,00
781,06	1198,00
787,25	1306,00
793,43	1208,00
799,60	1190,00
805,77	1197,00
811,93	1175,00
818,08	1163,00
824,23	1183,00
830,37	1236,00
836,50	1199,00
842,63	1282,00
848,75	1292,00
854,87	1274,00
860,97	1223,00
867,07	1224,00
873,17	1227,00
879,25	1278,00
885,33	1200,00
891,41	1307,00
897,47	1206,00
903,53	1283,00
909,59	1210,00
915,63	1256,00
921,67	1116,00
927,71	1140,00
933,74	1191,00
939,76	1132,00
945,77	1260,00
951,78	1146,00
957,78	1138,00
963,78	1208,00
969,77	1217,00
975,75	1328,00
981,72	1223,00
987,69	1487,00
993,66	1153,00
999,61	1185,00
1005,56	1230,00
1011,51	1232,00
1017,44	1190,00
1023,37	1276,00
1029,30	1356,00
1035,22	1254,00
1041,13	1327,00
1047,03	1404,00
1052,93	1387,00
1058,83	1730,00
1064,71	1785,00
1070,59	1551,00
1076,47	1458,00
1082,33	1322,00
1088,20	1348,00
1094,05	1338,00
1099,90	1261,00
1105,74	1278,00
1111,58	1199,00
1117,41	1345,00
1123,23	1573,00
1129,05	1913,00
1134,86	1803,00
1140,67	1533,00
1146,47	1302,00
1152,26	1289,00
1158,05	1322,00
1163,83	1336,00
1169,60	1317,00
1175,37	1297,00
1181,13	1277,00
1186,89	1242,00
1192,64	1234,00
1198,38	1223,00
1204,12	1157,00
1209,85	1162,00
1215,58	1142,00
1221,30	1244,00
1227,02	1301,00
1232,72	1280,00
1238,43	1262,00
1244,12	1281,00
1249,81	1220,00
1255,50	1270,00
1261,17	1272,00
1266,85	1409,00
1272,51	1411,00
1278,17	1376,00
1283,83	1442,00
1289,47	1761,00
1295,12	2138,00
1300,75	1946,00
1306,38	1681,00
1312,01	1480,00
1317,63	1383,00
1323,24	1359,00
1328,85	1394,00
1334,45	1438,00
1340,04	1278,00
1345,63	1321,00
1351,22	1295,00
1356,80	1343,00
1362,37	1330,00
1367,93	1340,00
1373,49	1441,00
1379,05	1350,00
1384,60	1317,00
1390,14	1313,00
1395,68	1411,00
1401,21	1312,00
1406,74	1530,00
1412,26	1554,00
1417,77	1738,00
1423,28	1701,00
1428,78	1722,00
1434,28	1863,00
1439,77	2062,00
1445,26	2140,00
1450,74	2082,00
1456,22	1888,00
1461,68	1877,00
1467,15	1862,00
1472,61	1737,00
1478,06	1627,00
1483,51	1389,00
1488,95	1334,00
1494,38	1360,00
1499,81	1235,00
1505,24	1287,00
1510,65	1385,00
1516,07	1242,00
1521,48	1302,00
1526,88	1236,00
1532,27	1157,00
1537,67	1227,00
1543,05	1269,00
1548,43	1176,00
1553,81	1257,00
1559,18	1178,00
1564,54	1232,00
1569,90	1155,00
1575,25	1118,00
1580,60	1158,00
1585,94	1175,00
1591,28	1170,00
1596,61	1031,00
1601,93	1191,00
1607,25	1131,00
1612,57	1145,00
1617,88	1252,00
1623,18	1182,00
1628,48	1135,00
1633,77	1177,00
1639,06	1087,00
1644,34	1145,00
1649,62	1126,00
1654,89	1234,00
1660,16	1178,00
1665,42	1191,00
1670,67	1158,00
1675,92	1117,00
1681,17	1086,00
1686,41	1116,00
1691,64	1085,00
1696,87	1140,00
1702,10	1067,00
1707,32	1117,00
1712,53	1059,00
1717,74	1084,00
1722,94	1036,00
1728,14	1089,00
1733,33	1036,00
1738,52	1126,00
1743,70	1041,00
1748,88	1030,00
1754,05	1019,00
1759,22	1092,00
1764,38	1196,00
1769,53	1034,00
1774,69	1017,00
1779,83	1019,00
1784,97	988,00
1790,11	967,00
1795,24	1017,00
1800,36	976,00
1805,48	1000,00
1810,60	1109,00
1815,71	986,00
1820,82	967,00
1825,92	966,00
1831,01	1052,00
1836,10	1053,00
1841,19	1030,00
1846,26	1003,00
1851,34	1079,00
1856,41	1015,00
1861,47	986,00
1866,53	1020,00
1871,59	960,00
1876,64	968,00
1881,68	939,00
1886,72	1008,00
1891,76	955,00
1896,79	1062,00
1901,81	922,00
1906,83	950,00
1911,85	983,00
1916,86	935,00
1921,86	980,00
1926,86	959,00
1931,86	913,00
1936,85	820,00
1941,83	922,00
1946,81	951,00
1951,79	945,00
1956,76	848,00
1961,72	935,00
1966,68	911,00
1971,64	897,00
1976,59	977,00
1981,54	899,00
1986,48	975,00
1991,42	880,00
1996,35	958,00
2001,27	893,00
2006,20	991,00
2011,11	875,00
2016,03	936,00
2020,93	851,00
2025,84	795,00
2030,73	891,00
2035,63	898,00
2040,52	898,00
2045,40	810,00
2050,28	893,00
2055,15	886,00
2060,02	755,00
2064,89	807,00
2069,75	880,00
2074,60	882,00
2079,46	866,00
2084,30	788,00
2089,14	819,00
2093,98	911,00
2098,81	882,00
2103,64	887,00
2108,46	769,00
2113,28	834,00
2118,09	856,00
2122,90	862,00
2127,70	825,00
2132,50	795,00
2137,30	748,00
2142,09	761,00
2146,87	881,00
2151,66	751,00
2156,43	884,00
2161,20	832,00
2165,97	810,00
2170,73	800,00
2175,49	850,00
2180,24	819,00
2184,99	860,00
2189,74	828,00
2194,48	676,00
2199,21	898,00
2203,94	797,00
2208,67	726,00
2213,39	783,00
2218,11	738,00
2222,82	722,00
2227,53	739,00
2232,23	672,00
2236,93	764,00
2241,63	759,00
2246,32	740,00
2251,00	807,00
2255,68	798,00
2260,36	676,00
2265,03	771,00
2269,70	805,00
2274,36	673,00
2279,02	688,00
2283,68	746,00
2288,33	747,00
2292,97	747,00
2297,61	745,00
2302,25	686,00
2306,88	676,00
2311,51	729,00
2316,14	705,00
2320,75	713,00
2325,37	621,00
2329,98	778,00
2334,59	780,00
2339,19	637,00
2343,79	635,00
2348,38	699,00
2352,97	655,00
2357,55	713,00
2362,13	697,00
2366,71	715,00
2371,28	714,00
2375,85	719,00
2380,41	633,00
2384,97	701,00
2389,52	763,00
2394,07	708,00
2398,62	610,00
2403,16	655,00
2407,70	589,00
2412,23	610,00
2416,76	724,00
2421,29	676,00
2425,81	718,00
2430,32	737,00
2434,84	662,00
2439,34	657,00
2443,85	706,00
2448,35	631,00
2452,84	627,00
2457,33	628,00
2461,82	664,00
2466,30	619,00
2470,78	673,00
2475,25	609,00
2479,72	586,00
2484,19	623,00
2488,65	535,00
2493,11	595,00
2497,56	552,00
2502,01	525,00
2506,46	625,00
2510,90	530,00
2515,34	589,00
2519,77	581,00
2524,20	520,00
2528,62	633,00
2533,04	642,00
2537,46	566,00
2541,87	537,00
2546,28	560,00
2550,68	620,00
2555,08	600,00
2559,48	612,00
2563,87	574,00
2568,26	602,00
2572,64	519,00
2577,02	603,00
2581,40	569,00
2585,77	563,00
2590,14	557,00
2594,50	555,00
2598,86	501,00
2603,22	643,00
2607,57	495,00
2611,92	540,00
2616,26	540,00
2620,60	628,00
2624,94	545,00
2629,27	605,00
2633,60	613,00
2637,92	632,00
2642,24	466,00
2646,56	560,00
2650,87	485,00
2655,18	630,00
2659,48	558,00
2663,78	604,00
2668,08	565,00
2672,37	525,00
2676,66	543,00
2680,95	601,00
2685,23	553,00
2689,50	577,00
2693,78	541,00
2698,05	601,00
2702,31	541,00
2706,57	682,00
2710,83	663,00
2715,08	706,00
2719,33	541,00
2723,58	770,00
2727,82	684,00
2732,06	660,00
2736,29	662,00
2740,53	604,00
2744,75	637,00
2748,97	588,00
2753,19	566,00
2757,41	551,00
2761,62	633,00
2765,83	585,00
2770,03	433,00
2774,23	573,00
2778,43	565,00
2782,62	638,00
2786,81	498,00
2791,00	565,00
2795,18	562,00
2799,35	619,00
2803,53	626,00
2807,70	586,00
2811,86	742,00
2816,03	638,00
2820,19	713,00
2824,34	750,00
2828,49	730,00
2832,64	813,00
2836,78	945,00
2840,92	1246,00
2845,06	1417,00
2849,19	1516,00
2853,32	1579,00
2857,45	1598,00
2861,57	1464,00
2865,69	1481,00
2869,80	1349,00
2873,91	1620,00
2878,02	1675,00
2882,12	1927,00
2886,22	1683,00
2890,32	1660,00
2894,41	1477,00
2898,50	1327,00
2902,58	1298,00
2906,67	1147,00
2910,74	1193,00
2914,82	1038,00
2918,89	1093,00
2922,96	906,00
2927,02	951,00
2931,08	832,00
2935,13	766,00
2939,19	867,00
2943,24	788,00
2947,28	806,00
2951,32	648,00
2955,36	615,00
2959,40	564,00
2963,43	644,00
2967,46	579,00
2971,48	493,00
2975,50	596,00
2979,52	474,00
2983,53	508,00
2987,54	472,00
2991,55	417,00
2995,55	413,00
2999,55	414,00
3003,54	389,00
3007,54	423,00
3011,53	436,00
3015,51	407,00
3019,49	380,00
3023,47	334,00
3027,45	381,00
3031,42	470,00
3035,39	425,00
3039,35	483,00
3043,31	337,00
3047,27	318,00
3051,22	355,00
3055,17	417,00
3059,12	417,00
3063,06	443,00
3067,00	332,00
3070,94	336,00
3074,87	378,00
3078,80	448,00
3082,73	348,00
3086,65	393,00
3090,57	367,00
3094,49	295,00
3098,40	366,00
3102,31	293,00
3106,22	310,00
3110,12	414,00
3114,02	315,00
3117,92	306,00
3121,81	427,00
3125,70	383,00
3129,58	340,00
3133,47	204,00
3137,34	303,00
3141,22	302,00
3145,09	259,00
3148,96	344,00
3152,83	233,00
3156,69	348,00
3160,55	273,00
3164,40	325,00
3168,26	299,00
3172,10	311,00
3175,95	262,00
3179,79	368,00
3183,63	290,00
3187,47	219,00
3191,30	336,00
3195,13	261,00
3198,95	294,00
3202,78	269,00
3206,60	290,00
3210,41	199,00
3214,23	285,00
3218,03	252,00
3221,84	233,00
3225,64	177,00
3229,44	329,00
3233,24	295,00
3237,03	268,00
3240,82	284,00
3244,61	240,00
3248,39	306,00
3252,17	253,00
3255,95	305,00
3259,72	202,00
3263,49	323,00
3267,26	319,00
3271,03	287,00
3274,79	275,00
3278,54	250,00
3282,30	166,00
3286,05	266,00
3289,80	197,00
3293,54	328,00
3297,29	288,00
3301,02	172,00
3304,76	281,00
3308,49	247,00
3312,22	244,00
3315,95	259,00
3319,67	197,00
3323,39	329,00
3327,10	314,00
3330,82	317,00
3334,53	187,00
3338,24	175,00
3341,94	245,00
3345,64	298,00
3349,34	210,00
3353,03	240,00
3356,72	259,00
3360,41	260,00
3364,10	283,00
3367,78	267,00
3371,46	285,00
3375,13	198,00
3378,81	303,00
3382,48	200,00
3386,14	306,00
3389,81	234,00
3393,47	275,00
3397,12	340,00
3400,78	162,00
3404,43	131,00
3408,08	259,00
3411,72	132,00
3415,36	234,00
3419,00	276,00
3422,64	152,00
3426,27	227,00
3429,90	247,00
3433,53	306,00
3437,15	307,00
3440,77	193,00
3444,39	205,00
3448,00	230,00
3451,62	150,00
3455,22	175,00
3458,83	251,00
3462,43	237,00
3466,03	270,00
3469,63	189,00
3473,22	286,00
3476,81	150,00
3480,40	285,00
3483,99	222,00
3487,57	253,00
3491,15	197,00
3494,72	244,00
3498,29	239,00
3501,86	121,00
3505,43	227,00
3508,99	200,00
3512,56	274,00
3516,11	277,00
3519,67	127,00
3523,22	221,00
3526,77	173,00
3530,32	179,00
3533,86	180,00
3537,40	209,00
3540,94	184,00
3544,47	228,00
3548,00	221,00
3551,53	119,00
3555,06	221,00
3558,58	174,00
3562,10	135,00
3565,62	237,00
3569,13	264,00
3572,64	186,00
3576,15	249,00
3579,66	225,00
3583,16	270,00
3586,66	237,00
3590,16	255,00
3593,65	122,00
3597,14	212,00
3600,63	119,00
3604,11	146,00
3607,60	242,00
3611,08	200,00
3614,55	204,00
3618,03	218,00
3621,50	223,00
3624,97	212,00
3628,43	193,00
3631,90	288,00
3635,36	82,00
3638,81	116,00
3642,27	253,00
3645,72	198,00
3649,17	153,00
3652,61	101,00
3656,06	219,00
3659,50	206,00
3662,93	102,00
3666,37	102,00
3669,80	272,00
3673,23	95,00
3676,65	272,00
3680,08	237,00
3683,50	232,00
3686,92	184,00
3690,33	150,00
3693,74	249,00
3697,15	103,00
3700,56	201,00
3703,96	260,00
3707,36	176,00
3710,76	173,00
3714,16	130,00
3717,55	208,00
3720,94	218,00
3724,33	107,00
3727,71	224,00
3731,10	192,00
3734,48	204,00
3737,85	169,00
3741,23	215,00
3744,60	165,00
3747,97	212,00
3751,33	172,00
3754,69	222,00
3758,05	138,00
3761,41	109,00
3764,77	97,00
3768,12	143,00
3771,47	203,00
3774,82	138,00
3778,16	3,00
3781,50	5,00
3784,84	1,00
3788,18	-4,00
>>>>>End Processed Spectral Data<<<<<
