SpectraSuite Data File
++++++++++++++++++++++++++++++++++++
Date: Mon Mar 09 14:51:14 ICT 2026
User: Administrator
Dark Spectrum Present: Yes
Reference Spectrum Present: No
Number of Sampled Component Spectra: 1
Spectrometers: MAYP113682
Integration Time (usec): 3000000 (MAYP113682)
Spectra Averaged: 1 (MAYP113682)
Boxcar Smoothing: 0 (MAYP113682)
Correct for Electrical Dark: No (MAYP113682)
Strobe/Lamp Enabled: No (MAYP113682)
Correct for Detector Non-linearity: No (MAYP113682)
Correct for Stray Light: No (MAYP113682)
Number of Pixels in Processed Spectrum: 2068
>>>>>Begin Processed Spectral Data<<<<<
-37534,58	36,00
-37414,56	10,00
-37295,11	6,00
-37176,24	16,00
-37057,95	783,00
-36940,22	817,00
-36823,05	911,00
-36706,45	1012,00
-36590,40	867,00
-36474,90	927,00
-36359,95	1027,00
-36245,55	942,00
-36131,68	959,00
-36018,35	1042,00
-35905,55	990,00
-35793,29	1011,00
-35681,54	1021,00
-35570,32	896,00
-35459,62	920,00
-35349,43	1012,00
-35239,75	1003,00
-35130,58	950,00
-35021,91	969,00
-34913,74	1040,00
-34806,07	1007,00
-34698,89	1119,00
-34592,20	952,00
-34486,00	1164,00
-34380,28	946,00
-34275,04	987,00
-34170,27	971,00
-34065,98	995,00
-33962,16	1003,00
-33858,81	1048,00
-33755,92	1081,00
-33653,49	1270,00
-33551,52	1074,00
-33450,01	1011,00
-33348,94	936,00
-33248,33	1075,00
-33148,16	1046,00
-33048,43	1112,00
-32949,14	1206,00
-32850,29	1198,00
-32751,87	1042,00
-32653,89	1074,00
-32556,33	1239,00
-32459,20	1118,00
-32362,49	1064,00
-32266,19	1057,00
-32170,32	1100,00
-32074,86	1061,00
-31979,82	1120,00
-31885,18	1200,00
-31790,95	1214,00
-31697,12	1111,00
-31603,69	1153,00
-31510,67	1114,00
-31418,04	1097,00
-31325,80	1159,00
-31233,95	1194,00
-31142,49	1077,00
-31051,42	1157,00
-30960,73	1281,00
-30870,43	1217,00
-30780,50	1060,00
-30690,95	1114,00
-30601,77	1256,00
-30512,97	1016,00
-30424,53	1069,00
-30336,46	1080,00
-30248,76	1107,00
-30161,42	1110,00
-30074,44	1010,00
-29987,81	1146,00
-29901,55	1153,00
-29815,63	1045,00
-29730,07	1142,00
-29644,86	1173,00
-29560,00	1148,00
-29475,48	1079,00
-29391,30	1126,00
-29307,47	960,00
-29223,97	1096,00
-29140,81	1062,00
-29057,99	1196,00
-28975,50	1043,00
-28893,34	1203,00
-28811,51	998,00
-28730,00	1164,00
-28648,82	1092,00
-28567,97	1202,00
-28487,43	1094,00
-28407,21	1078,00
-28327,32	1004,00
-28247,73	1290,00
-28168,46	1094,00
-28089,50	1049,00
-28010,85	954,00
-27932,51	1012,00
-27854,48	1211,00
-27776,75	1089,00
-27699,32	1062,00
-27622,19	1238,00
-27545,37	1224,00
-27468,84	1158,00
-27392,60	1170,00
-27316,66	1100,00
-27241,01	1038,00
-27165,66	1124,00
-27090,59	1008,00
-27015,81	1159,00
-26941,31	1210,00
-26867,10	1024,00
-26793,17	1121,00
-26719,52	1198,00
-26646,15	1102,00
-26573,06	1145,00
-26500,24	1141,00
-26427,70	1008,00
-26355,43	1125,00
-26283,43	1085,00
-26211,71	1220,00
-26140,25	1088,00
-26069,06	1311,00
-25998,13	969,00
-25927,46	1095,00
-25857,06	1105,00
-25786,92	1094,00
-25717,04	1024,00
-25647,42	1119,00
-25578,05	1058,00
-25508,94	1101,00
-25440,09	1174,00
-25371,48	1046,00
-25303,13	1067,00
-25235,02	1125,00
-25167,17	1177,00
-25099,56	1108,00
-25032,19	1046,00
-24965,07	1087,00
-24898,20	975,00
-24831,56	1097,00
-24765,17	1093,00
-24699,01	1049,00
-24633,10	1139,00
-24567,41	1038,00
-24501,97	1168,00
-24436,75	1159,00
-24371,77	1129,00
-24307,03	1083,00
-24242,51	891,00
-24178,22	1154,00
-24114,16	999,00
-24050,32	1158,00
-23986,71	1034,00
-23923,32	1093,00
-23860,16	954,00
-23797,22	1056,00
-23734,50	1052,00
-23672,00	1019,00
-23609,71	1093,00
-23547,65	883,00
-23485,80	1080,00
-23424,16	978,00
-23362,74	1195,00
-23301,53	1027,00
-23240,54	943,00
-23179,75	1106,00
-23119,17	1003,00
-23058,80	1092,00
-22998,64	1119,00
-22938,68	1090,00
-22878,93	1046,00
-22819,39	1154,00
-22760,04	1105,00
-22700,90	1058,00
-22641,96	1077,00
-22583,22	1102,00
-22524,68	1056,00
-22466,33	986,00
-22408,19	1013,00
-22350,23	1093,00
-22292,48	1107,00
-22234,92	1171,00
-22177,55	1242,00
-22120,37	1188,00
-22063,38	1090,00
-22006,58	1074,00
-21949,98	1050,00
-21893,56	881,00
-21837,33	1044,00
-21781,28	1129,00
-21725,42	1067,00
-21669,74	1060,00
-21614,25	1135,00
-21558,94	1024,00
-21503,81	1101,00
-21448,86	1050,00
-21394,10	991,00
-21339,51	992,00
-21285,10	1068,00
-21230,86	915,00
-21176,81	1006,00
-21122,93	1055,00
-21069,22	1125,00
-21015,69	988,00
-20962,33	1154,00
-20909,14	1075,00
-20856,13	995,00
-20803,28	1047,00
-20750,61	963,00
-20698,10	919,00
-20645,76	1048,00
-20593,59	1218,00
-20541,59	1092,00
-20489,75	1162,00
-20438,07	1025,00
-20386,56	1173,00
-20335,22	1048,00
-20284,03	1016,00
-20233,01	1004,00
-20182,15	1052,00
-20131,45	1062,00
-20080,91	1056,00
-20030,52	1041,00
-19980,30	1000,00
-19930,23	935,00
-19880,32	1146,00
-19830,56	1172,00
-19780,96	1029,00
-19731,52	1095,00
-19682,23	1130,00
-19633,09	1001,00
-19584,10	1030,00
-19535,26	1037,00
-19486,58	1219,00
-19438,04	1080,00
-19389,66	1080,00
-19341,42	1132,00
-19293,33	1107,00
-19245,39	990,00
-19197,60	1030,00
-19149,95	1100,00
-19102,45	1118,00
-19055,09	994,00
-19007,87	1159,00
-18960,80	1045,00
-18913,87	1080,00
-18867,09	1074,00
-18820,44	1050,00
-18773,94	1114,00
-18727,57	1021,00
-18681,35	985,00
-18635,26	1002,00
-18589,31	950,00
-18543,50	1056,00
-18497,83	1105,00
-18452,29	1094,00
-18406,89	1063,00
-18361,63	1146,00
-18316,50	1053,00
-18271,50	1030,00
-18226,63	1124,00
-18181,90	1132,00
-18137,30	1142,00
-18092,84	1032,00
-18048,50	1115,00
-18004,29	1005,00
-17960,22	974,00
-17916,27	964,00
-17872,45	1096,00
-17828,76	1097,00
-17785,20	1136,00
-17741,77	1054,00
-17698,46	1096,00
-17655,28	916,00
-17612,22	1053,00
-17569,29	1029,00
-17526,48	1084,00
-17483,79	1046,00
-17441,23	1022,00
-17398,79	1080,00
-17356,48	1056,00
-17314,28	1296,00
-17272,21	1037,00
-17230,26	1005,00
-17188,42	1161,00
-17146,71	1019,00
-17105,12	1120,00
-17063,64	1028,00
-17022,28	1040,00
-16981,04	1102,00
-16939,92	1113,00
-16898,91	1217,00
-16858,02	1015,00
-16817,25	966,00
-16776,59	943,00
-16736,04	1071,00
-16695,61	955,00
-16655,29	1105,00
-16615,09	1071,00
-16574,99	1121,00
-16535,01	942,00
-16495,15	1121,00
-16455,39	1147,00
-16415,74	1105,00
-16376,21	958,00
-16336,78	967,00
-16297,46	1058,00
-16258,26	1066,00
-16219,16	1085,00
-16180,17	1011,00
-16141,28	1111,00
-16102,51	1110,00
-16063,84	1052,00
-16025,27	1107,00
-15986,82	989,00
-15948,46	958,00
-15910,22	1062,00
-15872,07	1017,00
-15834,04	1048,00
-15796,10	932,00
-15758,27	1095,00
-15720,54	1063,00
-15682,91	1076,00
-15645,39	1123,00
-15607,97	1046,00
-15570,64	1004,00
-15533,42	1123,00
-15496,30	1038,00
-15459,28	1073,00
-15422,36	983,00
-15385,54	1020,00
-15348,82	1046,00
-15312,19	1269,00
-15275,66	994,00
-15239,23	1026,00
-15202,90	1067,00
-15166,67	909,00
-15130,53	1115,00
-15094,48	1102,00
-15058,54	1042,00
-15022,68	972,00
-14986,93	941,00
-14951,26	1068,00
-14915,69	965,00
-14880,22	1002,00
-14844,84	1015,00
-14809,55	1105,00
-14774,35	1032,00
-14739,25	1145,00
-14704,24	1032,00
-14669,32	1052,00
-14634,49	1047,00
-14599,75	1050,00
-14565,10	966,00
-14530,55	1169,00
-14496,08	1054,00
-14461,70	995,00
-14427,41	1016,00
-14393,21	1056,00
-14359,10	995,00
-14325,07	1121,00
-14291,14	1144,00
-14257,29	1114,00
-14223,52	1030,00
-14189,85	1276,00
-14156,26	1054,00
-14122,76	1025,00
-14089,34	1043,00
-14056,01	1052,00
-14022,76	1196,00
-13989,60	1159,00
-13956,52	1057,00
-13923,53	1086,00
-13890,62	1033,00
-13857,79	906,00
-13825,05	1051,00
-13792,39	1007,00
-13759,81	1077,00
-13727,31	967,00
-13694,90	1087,00
-13662,57	1075,00
-13630,31	1102,00
-13598,14	1054,00
-13566,05	1049,00
-13534,05	1149,00
-13502,12	981,00
-13470,27	1053,00
-13438,50	1139,00
-13406,80	1030,00
-13375,19	938,00
-13343,66	1082,00
-13312,20	1060,00
-13280,83	985,00
-13249,53	1050,00
-13218,30	954,00
-13187,16	1059,00
-13156,09	1157,00
-13125,10	1135,00
-13094,18	1088,00
-13063,34	1175,00
-13032,58	885,00
-13001,89	1124,00
-12971,28	1051,00
-12940,74	1034,00
-12910,27	1132,00
-12879,88	1025,00
-12849,57	1087,00
-12819,33	1070,00
-12789,16	1066,00
-12759,06	976,00
-12729,04	1074,00
-12699,09	2305,00
-12669,21	1027,00
-12639,41	1116,00
-12609,68	1029,00
-12580,02	1046,00
-12550,43	1156,00
-12520,91	875,00
-12491,46	1038,00
-12462,08	1022,00
-12432,77	973,00
-12403,54	1045,00
-12374,37	1082,00
-12345,27	1120,00
-12316,24	1050,00
-12287,29	1150,00
-12258,40	1013,00
-12229,57	1125,00
-12200,82	1067,00
-12172,14	1044,00
-12143,52	977,00
-12114,97	943,00
-12086,49	1066,00
-12058,07	1113,00
-12029,73	1143,00
-12001,44	1163,00
-11973,23	1029,00
-11945,08	1101,00
-11917,00	1020,00
-11888,98	1008,00
-11861,03	1023,00
-11833,15	1059,00
-11805,32	1049,00
-11777,57	1056,00
-11749,88	1102,00
-11722,25	1038,00
-11694,69	1087,00
-11667,19	1043,00
-11639,75	1137,00
-11612,38	1075,00
-11585,07	986,00
-11557,83	1110,00
-11530,65	1177,00
-11503,53	1099,00
-11476,47	1122,00
-11449,48	1028,00
-11422,54	1048,00
-11395,67	1007,00
-11368,86	1092,00
-11342,11	1122,00
-11315,43	1072,00
-11288,80	952,00
-11262,23	1093,00
-11235,73	1010,00
-11209,28	1100,00
-11182,90	1155,00
-11156,57	1093,00
-11130,31	1133,00
-11104,10	1094,00
-11077,96	1082,00
-11051,87	1084,00
-11025,84	1158,00
-10999,87	1107,00
-10973,96	1189,00
-10948,11	1018,00
-10922,31	1045,00
-10896,58	1060,00
-10870,90	1332,00
-10845,28	1025,00
-10819,71	844,00
-10794,20	1053,00
-10768,75	1233,00
-10743,36	1123,00
-10718,02	1045,00
-10692,74	1080,00
-10667,52	985,00
-10642,35	1057,00
-10617,24	1193,00
-10592,18	1127,00
-10567,18	1036,00
-10542,23	1084,00
-10517,34	1099,00
-10492,51	1203,00
-10467,72	1055,00
-10443,00	1014,00
-10418,32	1093,00
-10393,70	1048,00
-10369,14	1029,00
-10344,63	1080,00
-10320,17	1140,00
-10295,77	1090,00
-10271,42	1054,00
-10247,12	1110,00
-10222,88	1248,00
-10198,68	931,00
-10174,54	1024,00
-10150,46	1163,00
-10126,42	1173,00
-10102,44	1134,00
-10078,51	1080,00
-10054,63	1094,00
-10030,80	1111,00
-10007,03	1198,00
-9983,30	1102,00
-9959,63	1070,00
-9936,01	1192,00
-9912,44	1205,00
-9888,92	1074,00
-9865,44	1120,00
-9842,02	1214,00
-9818,65	1144,00
-9795,33	1186,00
-9772,06	1090,00
-9748,84	1126,00
-9725,67	1176,00
-9702,55	1116,00
-9679,47	1239,00
-9656,45	1180,00
-9633,47	1087,00
-9610,55	1160,00
-9587,67	1341,00
-9564,84	1502,00
-9542,06	1276,00
-9519,32	1368,00
-9496,64	1327,00
-9474,00	1244,00
-9451,41	1368,00
-9428,87	1435,00
-9406,37	1337,00
-9383,92	1370,00
-9361,52	1381,00
-9339,17	1491,00
-9316,86	1463,00
-9294,60	1319,00
-9272,38	1756,00
-9250,21	1570,00
-9228,09	1555,00
-9206,01	1589,00
-9183,98	1449,00
-9162,00	1498,00
-9140,06	1398,00
-9118,16	1425,00
-9096,31	1553,00
-9074,51	1522,00
-9052,75	1811,00
-9031,04	1611,00
-9009,37	1356,00
-8987,74	1469,00
-8966,16	1491,00
-8944,63	1356,00
-8923,14	1419,00
-8901,69	1332,00
-8880,29	1348,00
-8858,93	1451,00
-8837,61	1520,00
-8816,34	1486,00
-8795,11	1456,00
-8773,92	1439,00
-8752,78	1444,00
-8731,68	1353,00
-8710,62	1316,00
-8689,61	1278,00
-8668,63	1313,00
-8647,70	1614,00
-8626,82	1449,00
-8605,97	1572,00
-8585,17	1470,00
-8564,41	1255,00
-8543,69	1376,00
-8523,01	1166,00
-8502,37	1587,00
-8481,78	1305,00
-8461,23	1202,00
-8440,71	1247,00
-8420,24	1291,00
-8399,81	1462,00
-8379,42	1401,00
-8359,08	1477,00
-8338,77	1383,00
-8318,50	1352,00
-8298,27	1289,00
-8278,09	1301,00
-8257,94	1186,00
-8237,83	1411,00
-8217,76	1409,00
-8197,74	1364,00
-8177,75	1394,00
-8157,80	1319,00
-8137,89	1261,00
-8118,02	1283,00
-8098,19	1501,00
-8078,40	1263,00
-8058,65	1244,00
-8038,93	1412,00
-8019,26	1376,00
-7999,62	1311,00
-7980,02	1301,00
-7960,46	1320,00
-7940,94	1163,00
-7921,46	1237,00
-7902,01	1163,00
-7882,60	1380,00
-7863,23	1242,00
-7843,90	1311,00
-7824,61	1295,00
-7805,35	1395,00
-7786,13	1248,00
-7766,95	1316,00
-7747,80	1287,00
-7728,69	1404,00
-7709,62	1301,00
-7690,59	1355,00
-7671,59	1314,00
-7652,63	1207,00
-7633,70	1221,00
-7614,81	1438,00
-7595,96	1188,00
-7577,15	1276,00
-7558,37	1220,00
-7539,62	1366,00
-7520,91	1203,00
-7502,24	1295,00
-7483,60	1365,00
-7465,00	1256,00
-7446,44	1290,00
-7427,91	1155,00
-7409,41	1270,00
-7390,95	1236,00
-7372,53	1117,00
-7354,14	1229,00
-7335,78	1089,00
-7317,46	1274,00
-7299,18	1204,00
-7280,92	1227,00
-7262,71	1345,00
-7244,52	1173,00
-7226,38	1191,00
-7208,26	1357,00
-7190,18	1271,00
-7172,14	1338,00
-7154,12	1215,00
-7136,15	1126,00
-7118,20	1274,00
-7100,29	1304,00
-7082,41	1295,00
-7064,57	1208,00
-7046,76	1285,00
-7028,98	1058,00
-7011,24	1519,00
-6993,53	1022,00
-6975,85	1184,00
-6958,20	1100,00
-6940,59	1178,00
-6923,01	1063,00
-6905,46	1234,00
-6887,94	1224,00
-6870,46	-709,00
-6853,01	1298,00
-6835,59	1246,00
-6818,21	1122,00
-6800,85	1308,00
-6783,53	1219,00
-6766,24	1139,00
-6748,98	1107,00
-6731,76	1044,00
-6714,56	1145,00
-6697,40	1055,00
-6680,26	1042,00
-6663,16	1135,00
-6646,09	1273,00
-6629,05	1151,00
-6612,05	1227,00
-6595,07	1174,00
-6578,13	1216,00
-6561,21	1098,00
-6544,33	1099,00
-6527,47	1122,00
-6510,65	1163,00
-6493,86	1164,00
-6477,10	1103,00
-6460,36	1144,00
-6443,66	1143,00
-6426,99	1084,00
-6410,35	980,00
-6393,74	1178,00
-6377,16	1116,00
-6360,61	1037,00
-6344,09	1032,00
-6327,59	1019,00
-6311,13	940,00
-6294,70	1199,00
-6278,29	1129,00
-6261,92	1139,00
-6245,58	1140,00
-6229,26	1216,00
-6212,97	1138,00
-6196,72	1173,00
-6180,49	1219,00
-6164,29	1065,00
-6148,12	1184,00
-6131,98	1063,00
-6115,86	1100,00
-6099,78	1060,00
-6083,72	1005,00
-6067,69	1028,00
-6051,69	1118,00
-6035,72	1151,00
-6019,78	1092,00
-6003,87	1204,00
-5987,98	1084,00
-5972,12	1112,00
-5956,29	1059,00
-5940,49	1083,00
-5924,71	1255,00
-5908,96	993,00
-5893,24	1088,00
-5877,55	1084,00
-5861,89	1142,00
-5846,25	1009,00
-5830,64	1157,00
-5815,05	1025,00
-5799,50	1113,00
-5783,97	1097,00
-5768,47	1249,00
-5752,99	1307,00
-5737,55	1139,00
-5722,12	1146,00
-5706,73	1121,00
-5691,36	1133,00
-5676,02	1040,00
-5660,71	1193,00
-5645,42	1041,00
-5630,16	1108,00
-5614,92	1230,00
-5599,71	1006,00
-5584,53	1019,00
-5569,37	1052,00
-5554,24	2046,00
-5539,14	1062,00
-5524,06	1030,00
-5509,01	955,00
-5493,98	1069,00
-5478,98	1220,00
-5464,00	1025,00
-5449,05	1034,00
-5434,13	1070,00
-5419,23	1241,00
-5404,36	1036,00
-5389,51	1111,00
-5374,69	1109,00
-5359,89	1205,00
-5345,12	1139,00
-5330,37	1277,00
-5315,65	1160,00
-5300,95	1148,00
-5286,28	1093,00
-5271,63	1012,00
-5257,01	1181,00
-5242,41	1139,00
-5227,84	1094,00
-5213,29	1115,00
-5198,76	1154,00
-5184,26	1065,00
-5169,79	1121,00
-5155,33	1175,00
-5140,91	1168,00
-5126,51	1140,00
-5112,13	1097,00
-5097,77	1228,00
-5083,44	1203,00
-5069,13	1038,00
-5054,85	1065,00
-5040,59	1019,00
-5026,36	1113,00
-5012,15	1285,00
-4997,96	1184,00
-4983,80	1083,00
-4969,66	1158,00
-4955,54	1076,00
-4941,44	1101,00
-4927,37	1146,00
-4913,33	1120,00
-4899,30	983,00
-4885,30	1217,00
-4871,33	1036,00
-4857,37	1119,00
-4843,44	1135,00
-4829,53	1194,00
-4815,65	1164,00
-4801,79	1048,00
-4787,95	1021,00
-4774,13	1053,00
-4760,34	1064,00
-4746,56	1094,00
-4732,82	1082,00
-4719,09	1020,00
-4705,38	1272,00
-4691,70	1168,00
-4678,04	1113,00
-4664,41	1026,00
-4650,79	1244,00
-4637,20	1154,00
-4623,63	1110,00
-4610,08	1143,00
-4596,56	1121,00
-4583,05	1124,00
-4569,57	1065,00
-4556,11	1180,00
-4542,67	968,00
-4529,25	1022,00
-4515,86	1158,00
-4502,49	1092,00
-4489,13	1150,00
-4475,80	1124,00
-4462,49	1028,00
-4449,21	1297,00
-4435,94	984,00
-4422,70	1071,00
-4409,47	953,00
-4396,27	1022,00
-4383,09	1084,00
-4369,93	966,00
-4356,79	1051,00
-4343,67	1084,00
-4330,58	1106,00
-4317,50	974,00
-4304,45	1099,00
-4291,41	1042,00
-4278,40	978,00
-4265,41	1022,00
-4252,44	1098,00
-4239,49	990,00
-4226,55	1035,00
-4213,65	1158,00
-4200,76	1210,00
-4187,89	1037,00
-4175,04	1039,00
-4162,21	1072,00
-4149,40	1090,00
-4136,61	997,00
-4123,85	1098,00
-4111,10	1130,00
-4098,37	1132,00
-4085,66	1093,00
-4072,98	1170,00
-4060,31	980,00
-4047,66	1229,00
-4035,04	1184,00
-4022,43	1071,00
-4009,84	1234,00
-3997,27	911,00
-3984,72	1073,00
-3972,19	1113,00
-3959,69	982,00
-3947,20	1060,00
-3934,73	1145,00
-3922,27	995,00
-3909,84	1124,00
-3897,43	1081,00
-3885,04	1098,00
-3872,67	975,00
-3860,31	1065,00
-3847,98	1188,00
-3835,66	966,00
-3823,36	1216,00
-3811,09	958,00
-3798,83	1001,00
-3786,59	1136,00
-3774,37	1168,00
-3762,17	1017,00
-3749,98	1056,00
-3737,82	971,00
-3725,67	1309,00
-3713,55	970,00
-3701,44	1125,00
-3689,35	1034,00
-3677,28	1169,00
-3665,22	1049,00
-3653,19	980,00
-3641,17	1028,00
-3629,18	1072,00
-3617,20	1119,00
-3605,24	1070,00
-3593,30	1098,00
-3581,37	1059,00
-3569,47	1182,00
-3557,58	1160,00
-3545,71	1086,00
-3533,86	1153,00
-3522,02	1073,00
-3510,21	1096,00
-3498,41	1097,00
-3486,63	1114,00
-3474,87	1041,00
-3463,12	1019,00
-3451,40	1054,00
-3439,69	1148,00
-3428,00	1142,00
-3416,33	1170,00
-3404,67	1072,00
-3393,03	1160,00
-3381,41	1149,00
-3369,81	1076,00
-3358,22	1001,00
-3346,66	1170,00
-3335,10	1085,00
-3323,57	985,00
-3312,06	1164,00
-3300,56	1124,00
-3289,08	1002,00
-3277,61	1120,00
-3266,16	1116,00
-3254,73	1100,00
-3243,32	1055,00
-3231,92	1059,00
-3220,55	1099,00
-3209,18	1208,00
-3197,84	1027,00
-3186,51	953,00
-3175,20	1038,00
-3163,90	1176,00
-3152,63	1100,00
-3141,36	1113,00
-3130,12	1200,00
-3118,89	1189,00
-3107,68	1053,00
-3096,49	1111,00
-3085,31	1224,00
-3074,15	985,00
-3063,00	1096,00
-3051,87	1151,00
-3040,76	1187,00
-3029,67	1108,00
-3018,59	1296,00
-3007,52	1128,00
-2996,48	1262,00
-2985,44	998,00
-2974,43	1105,00
-2963,43	1050,00
-2952,45	922,00
-2941,48	1164,00
-2930,53	1111,00
-2919,60	924,00
-2908,68	1055,00
-2897,78	1038,00
-2886,89	1139,00
-2876,02	1043,00
-2865,17	1008,00
-2854,33	1078,00
-2843,50	1026,00
-2832,70	1000,00
-2821,90	1124,00
-2811,13	1063,00
-2800,37	1019,00
-2789,62	1149,00
-2778,89	1133,00
-2768,18	1267,00
-2757,48	1142,00
-2746,80	1227,00
-2736,13	1084,00
-2725,48	1115,00
-2714,84	1051,00
-2704,22	945,00
-2693,61	1102,00
-2683,02	1094,00
-2672,45	1069,00
-2661,89	1223,00
-2651,34	1067,00
-2640,81	1047,00
-2630,30	1224,00
-2619,80	1057,00
-2609,31	1257,00
-2598,84	891,00
-2588,39	1136,00
-2577,95	1073,00
-2567,52	973,00
-2557,11	1102,00
-2546,71	1072,00
-2536,33	1187,00
-2525,97	1037,00
-2515,62	1071,00
-2505,28	1075,00
-2494,96	1045,00
-2484,65	1070,00
-2474,36	1345,00
-2464,08	1048,00
-2453,82	1222,00
-2443,57	1062,00
-2433,33	992,00
-2423,11	1072,00
-2412,91	1003,00
-2402,72	970,00
-2392,54	1118,00
-2382,38	1111,00
-2372,23	1162,00
-2362,09	5749,00
-2351,97	981,00
-2341,87	1012,00
-2331,78	1122,00
-2321,70	1195,00
-2311,64	1154,00
-2301,59	910,00
-2291,55	1048,00
-2281,53	1117,00
-2271,53	1013,00
-2261,53	1188,00
-2251,55	1080,00
-2241,59	1119,00
-2231,64	1149,00
-2221,70	1089,00
-2211,78	1115,00
-2201,87	1158,00
-2191,97	1094,00
-2182,09	1037,00
-2172,22	1174,00
-2162,37	1054,00
-2152,53	975,00
-2142,70	1008,00
-2132,89	953,00
-2123,09	1170,00
-2113,30	1073,00
-2103,53	1068,00
-2093,77	1012,00
-2084,02	1039,00
-2074,29	1128,00
-2064,57	1217,00
-2054,86	1094,00
-2045,17	1174,00
-2035,49	1174,00
-2025,82	1015,00
-2016,17	1006,00
-2006,53	1124,00
-1996,91	1074,00
-1987,29	1039,00
-1977,69	1060,00
-1968,11	1061,00
-1958,53	1074,00
-1948,97	1132,00
-1939,42	973,00
-1929,89	967,00
-1920,37	1182,00
-1910,86	1072,00
-1901,36	1169,00
-1891,88	1136,00
-1882,41	1131,00
-1872,95	1141,00
-1863,51	1076,00
-1854,08	1012,00
-1844,66	1212,00
-1835,26	1036,00
-1825,86	1163,00
-1816,48	994,00
-1807,11	1019,00
-1797,76	1112,00
-1788,42	1179,00
-1779,09	1087,00
-1769,77	1068,00
-1760,47	1251,00
-1751,17	1068,00
-1741,89	1052,00
-1732,63	1113,00
-1723,37	1364,00
-1714,13	1179,00
-1704,90	990,00
-1695,68	1261,00
-1686,48	1022,00
-1677,29	1033,00
-1668,11	1297,00
-1658,94	1141,00
-1649,78	1130,00
-1640,64	1158,00
-1631,51	1003,00
-1622,39	1097,00
-1613,28	1192,00
-1604,19	1299,00
-1595,10	1127,00
-1586,03	922,00
-1576,97	1224,00
-1567,93	1043,00
-1558,89	1193,00
-1549,87	1109,00
-1540,86	1030,00
-1531,86	1102,00
-1522,87	1026,00
-1513,90	1293,00
-1504,93	1126,00
-1495,98	1169,00
-1487,04	1259,00
-1478,12	1190,00
-1469,20	1053,00
-1460,30	1151,00
-1451,40	1210,00
-1442,52	993,00
-1433,65	1162,00
-1424,80	1025,00
-1415,95	1047,00
-1407,12	1357,00
-1398,30	1090,00
-1389,48	1124,00
-1380,69	1080,00
-1371,90	1125,00
-1363,12	1093,00
-1354,36	1230,00
-1345,60	1069,00
-1336,86	1148,00
-1328,13	1348,00
-1319,41	1091,00
-1310,70	1045,00
-1302,01	1049,00
-1293,32	1036,00
-1284,65	1121,00
-1275,99	1190,00
-1267,33	1268,00
-1258,69	1123,00
-1250,06	1168,00
-1241,45	1047,00
-1232,84	1157,00
-1224,25	1063,00
-1215,66	1203,00
-1207,09	1140,00
-1198,53	1052,00
-1189,97	1110,00
-1181,43	1049,00
-1172,91	1214,00
-1164,39	1223,00
-1155,88	993,00
-1147,38	870,00
-1138,90	1077,00
-1130,43	1068,00
-1121,96	1129,00
-1113,51	1066,00
-1105,07	1093,00
-1096,64	1105,00
-1088,22	1126,00
-1079,81	1210,00
-1071,41	1177,00
-1063,02	1059,00
-1054,65	1218,00
-1046,28	1056,00
-1037,92	1139,00
-1029,58	1080,00
-1021,24	1107,00
-1012,92	1484,00
-1004,61	1105,00
-996,30	1518,00
-988,01	952,00
-979,73	1164,00
-971,46	1132,00
-963,20	1029,00
-954,95	985,00
-946,71	995,00
-938,48	1070,00
-930,26	1128,00
-922,06	1201,00
-913,86	1158,00
-905,67	970,00
-897,49	1103,00
-889,33	985,00
-881,17	1113,00
-873,02	1116,00
-864,89	939,00
-856,76	1062,00
-848,65	1112,00
-840,54	1072,00
-832,45	1225,00
-824,36	898,00
-816,29	1161,00
-808,22	1218,00
-800,17	1048,00
-792,12	1120,00
-784,09	1214,00
-776,06	1045,00
-768,05	1109,00
-760,04	985,00
-752,05	1051,00
-744,07	1284,00
-736,09	1242,00
-728,13	1004,00
-720,17	1096,00
-712,23	1094,00
-704,29	1096,00
-696,37	1187,00
-688,45	1095,00
-680,55	1098,00
-672,65	1074,00
-664,77	1028,00
-656,89	1088,00
-649,03	1015,00
-641,17	1091,00
-633,32	1152,00
-625,49	1109,00
-617,66	1081,00
-609,84	1054,00
-602,03	941,00
-594,23	1026,00
-586,45	1139,00
-578,67	1046,00
-570,90	989,00
-563,14	982,00
-555,39	1138,00
-547,65	1206,00
-539,91	1148,00
-532,19	1081,00
-524,48	1201,00
-516,78	1091,00
-509,08	1154,00
-501,40	1021,00
-493,72	1136,00
-486,06	1010,00
-478,40	1288,00
-470,76	1080,00
-463,12	1023,00
-455,49	1051,00
-447,87	1046,00
-440,26	1019,00
-432,66	1027,00
-425,07	1150,00
-417,49	1032,00
-409,92	1034,00
-402,35	906,00
-394,80	1077,00
-387,25	1173,00
-379,72	1114,00
-372,19	1079,00
-364,67	1120,00
-357,17	1130,00
-349,67	1061,00
-342,18	1144,00
-334,69	1196,00
-327,22	1071,00
-319,76	1094,00
-312,30	1180,00
-304,86	1078,00
-297,42	1136,00
-290,00	1126,00
-282,58	1139,00
-275,17	1175,00
-267,77	1178,00
-260,37	986,00
-252,99	1163,00
-245,62	1108,00
-238,25	1089,00
-230,90	1030,00
-223,55	1183,00
-216,21	1141,00
-208,88	1174,00
-201,56	1130,00
-194,25	1220,00
-186,94	1112,00
-179,65	1233,00
-172,36	1256,00
-165,08	1148,00
-157,81	1329,00
-150,55	1309,00
-143,30	1294,00
-136,06	1428,00
-128,82	1323,00
-121,60	1324,00
-114,38	1381,00
-107,17	1411,00
-99,97	1442,00
-92,78	1457,00
-85,60	1582,00
-78,42	1637,00
-71,25	1800,00
-64,10	1859,00
-56,95	1871,00
-49,81	2076,00
-42,67	2527,00
-35,55	2721,00
-28,43	3288,00
-21,33	4770,00
-14,23	13556,00
-7,14	57775,00
-0,05	57564,00
7,02	57281,00
14,09	44030,00
21,14	12216,00
28,19	5704,00
35,23	3976,00
42,27	3328,00
49,29	2845,00
56,31	2590,00
63,32	2452,00
70,32	2100,00
77,31	1899,00
84,29	1700,00
91,27	1895,00
98,23	1875,00
105,19	1576,00
112,14	1716,00
119,09	2077,00
126,02	2799,00
132,95	3018,00
139,87	3140,00
146,78	3203,00
153,68	3060,00
160,58	2982,00
167,46	3023,00
174,34	3067,00
181,21	3143,00
188,08	3070,00
194,93	3200,00
201,78	2951,00
208,62	2943,00
215,45	3064,00
222,27	3040,00
229,09	3287,00
235,90	2981,00
242,70	3061,00
249,49	3261,00
256,27	2952,00
263,05	2955,00
269,82	2932,00
276,58	3147,00
283,33	2893,00
290,08	2993,00
296,82	2990,00
303,55	2914,00
310,27	2841,00
316,98	2998,00
323,69	2993,00
330,39	2843,00
337,08	2998,00
343,76	2976,00
350,44	2921,00
357,11	2984,00
363,77	2856,00
370,42	2884,00
377,07	3021,00
383,71	2978,00
390,34	2903,00
396,96	2848,00
403,58	2857,00
410,19	2919,00
416,79	2950,00
423,38	3004,00
429,97	2959,00
436,55	2766,00
443,12	2933,00
449,68	2819,00
456,24	2862,00
462,79	2926,00
469,33	2852,00
475,86	2805,00
482,39	2812,00
488,91	2973,00
495,42	2805,00
501,93	2960,00
508,42	2671,00
514,91	3020,00
521,40	2770,00
527,87	2809,00
534,34	2742,00
540,80	2898,00
547,25	2862,00
553,70	2892,00
560,14	2868,00
566,57	2922,00
573,00	2793,00
579,41	2946,00
585,83	2864,00
592,23	2890,00
598,62	2863,00
605,01	2669,00
611,40	2934,00
617,77	3045,00
624,14	2777,00
630,50	2903,00
636,85	2795,00
643,20	2917,00
649,54	2716,00
655,87	2756,00
662,20	3017,00
668,52	2800,00
674,83	2867,00
681,13	2812,00
687,43	2901,00
693,72	2722,00
700,00	2640,00
706,28	2773,00
712,55	2837,00
718,81	2847,00
725,07	2824,00
731,32	2684,00
737,56	2858,00
743,79	2809,00
750,02	2895,00
756,24	2731,00
762,46	2813,00
768,67	3168,00
774,87	2919,00
781,06	2837,00
787,25	2961,00
793,43	2989,00
799,60	2668,00
805,77	3009,00
811,93	2790,00
818,08	2858,00
824,23	2919,00
830,37	3127,00
836,50	2925,00
842,63	2805,00
848,75	2872,00
854,87	2910,00
860,97	2857,00
867,07	2925,00
873,17	2861,00
879,25	2894,00
885,33	2846,00
891,41	2876,00
897,47	2981,00
903,53	2891,00
909,59	2984,00
915,63	2909,00
921,67	2978,00
927,71	3062,00
933,74	2969,00
939,76	2834,00
945,77	2870,00
951,78	2991,00
957,78	2791,00
963,78	3066,00
969,77	2941,00
975,75	2957,00
981,72	2851,00
987,69	4422,00
993,66	3004,00
999,61	3026,00
1005,56	2923,00
1011,51	2886,00
1017,44	2959,00
1023,37	3007,00
1029,30	2928,00
1035,22	3109,00
1041,13	2914,00
1047,03	2907,00
1052,93	3099,00
1058,83	3473,00
1064,71	3586,00
1070,59	3367,00
1076,47	3155,00
1082,33	3110,00
1088,20	3134,00
1094,05	3204,00
1099,90	2998,00
1105,74	3061,00
1111,58	3038,00
1117,41	3222,00
1123,23	3519,00
1129,05	3726,00
1134,86	3546,00
1140,67	3332,00
1146,47	3073,00
1152,26	3121,00
1158,05	2847,00
1163,83	3061,00
1169,60	3149,00
1175,37	3141,00
1181,13	3086,00
1186,89	3106,00
1192,64	3079,00
1198,38	3184,00
1204,12	2947,00
1209,85	3042,00
1215,58	3121,00
1221,30	3233,00
1227,02	3090,00
1232,72	2965,00
1238,43	2943,00
1244,12	3104,00
1249,81	3116,00
1255,50	3198,00
1261,17	3095,00
1266,85	3101,00
1272,51	3194,00
1278,17	3393,00
1283,83	3188,00
1289,47	3469,00
1295,12	4008,00
1300,75	3810,00
1306,38	3491,00
1312,01	3313,00
1317,63	3217,00
1323,24	3066,00
1328,85	3252,00
1334,45	3180,00
1340,04	3187,00
1345,63	3044,00
1351,22	3361,00
1356,80	3236,00
1362,37	3189,00
1367,93	3065,00
1373,49	3208,00
1379,05	3104,00
1384,60	3171,00
1390,14	3248,00
1395,68	3227,00
1401,21	3147,00
1406,74	3223,00
1412,26	3345,00
1417,77	3648,00
1423,28	3316,00
1428,78	3576,00
1434,28	3832,00
1439,77	3971,00
1445,26	3906,00
1450,74	3974,00
1456,22	3749,00
1461,68	3746,00
1467,15	3698,00
1472,61	3397,00
1478,06	3508,00
1483,51	3266,00
1488,95	3223,00
1494,38	3222,00
1499,81	3016,00
1505,24	2976,00
1510,65	3146,00
1516,07	3025,00
1521,48	3006,00
1526,88	2861,00
1532,27	3057,00
1537,67	3043,00
1543,05	3177,00
1548,43	2855,00
1553,81	3118,00
1559,18	2957,00
1564,54	3018,00
1569,90	3032,00
1575,25	2909,00
1580,60	2814,00
1585,94	2999,00
1591,28	2826,00
1596,61	2948,00
1601,93	2876,00
1607,25	3033,00
1612,57	2962,00
1617,88	2980,00
1623,18	2905,00
1628,48	2997,00
1633,77	2822,00
1639,06	3026,00
1644,34	2796,00
1649,62	2789,00
1654,89	3050,00
1660,16	2782,00
1665,42	2971,00
1670,67	2838,00
1675,92	2859,00
1681,17	2793,00
1686,41	2857,00
1691,64	3051,00
1696,87	2811,00
1702,10	2833,00
1707,32	2838,00
1712,53	2912,00
1717,74	2865,00
1722,94	2809,00
1728,14	2783,00
1733,33	2602,00
1738,52	2747,00
1743,70	2818,00
1748,88	2800,00
1754,05	2776,00
1759,22	2690,00
1764,38	4139,00
1769,53	2698,00
1774,69	2880,00
1779,83	2673,00
1784,97	2711,00
1790,11	2721,00
1795,24	2698,00
1800,36	2785,00
1805,48	2674,00
1810,60	2683,00
1815,71	2702,00
1820,82	2612,00
1825,92	2706,00
1831,01	2611,00
1836,10	2685,00
1841,19	2768,00
1846,26	2560,00
1851,34	2705,00
1856,41	2822,00
1861,47	2603,00
1866,53	2727,00
1871,59	2678,00
1876,64	2629,00
1881,68	2660,00
1886,72	2830,00
1891,76	2612,00
1896,79	2638,00
1901,81	2570,00
1906,83	2679,00
1911,85	2527,00
1916,86	2555,00
1921,86	2562,00
1926,86	2509,00
1931,86	2487,00
1936,85	2543,00
1941,83	2529,00
1946,81	2551,00
1951,79	2597,00
1956,76	2474,00
1961,72	2352,00
1966,68	2435,00
1971,64	2358,00
1976,59	2386,00
1981,54	2518,00
1986,48	2444,00
1991,42	2452,00
1996,35	2774,00
2001,27	2392,00
2006,20	2389,00
2011,11	2473,00
2016,03	2475,00
2020,93	2418,00
2025,84	2501,00
2030,73	2419,00
2035,63	2238,00
2040,52	2542,00
2045,40	2351,00
2050,28	2417,00
2055,15	2528,00
2060,02	2267,00
2064,89	2547,00
2069,75	2461,00
2074,60	2414,00
2079,46	2370,00
2084,30	2311,00
2089,14	2348,00
2093,98	2459,00
2098,81	2357,00
2103,64	2387,00
2108,46	2449,00
2113,28	2378,00
2118,09	2365,00
2122,90	2390,00
2127,70	2258,00
2132,50	2439,00
2137,30	2273,00
2142,09	2182,00
2146,87	2282,00
2151,66	2356,00
2156,43	2426,00
2161,20	2350,00
2165,97	2512,00
2170,73	2270,00
2175,49	2443,00
2180,24	2296,00
2184,99	2396,00
2189,74	2398,00
2194,48	2338,00
2199,21	2360,00
2203,94	2210,00
2208,67	2148,00
2213,39	2098,00
2218,11	2294,00
2222,82	2303,00
2227,53	2194,00
2232,23	2298,00
2236,93	2288,00
2241,63	2259,00
2246,32	2162,00
2251,00	2211,00
2255,68	2356,00
2260,36	2221,00
2265,03	2279,00
2269,70	2430,00
2274,36	2157,00
2279,02	2197,00
2283,68	2289,00
2288,33	2105,00
2292,97	2253,00
2297,61	2228,00
2302,25	2180,00
2306,88	2186,00
2311,51	2065,00
2316,14	2205,00
2320,75	2112,00
2325,37	2106,00
2329,98	2247,00
2334,59	2065,00
2339,19	2208,00
2343,79	1981,00
2348,38	2099,00
2352,97	2081,00
2357,55	2158,00
2362,13	2160,00
2366,71	1968,00
2371,28	2167,00
2375,85	2153,00
2380,41	2245,00
2384,97	2071,00
2389,52	2096,00
2394,07	2185,00
2398,62	2172,00
2403,16	2034,00
2407,70	1958,00
2412,23	2116,00
2416,76	2148,00
2421,29	2169,00
2425,81	2022,00
2430,32	2043,00
2434,84	1889,00
2439,34	2054,00
2443,85	2225,00
2448,35	1957,00
2452,84	1906,00
2457,33	1994,00
2461,82	1898,00
2466,30	1858,00
2470,78	2072,00
2475,25	1922,00
2479,72	1937,00
2484,19	1985,00
2488,65	2035,00
2493,11	1817,00
2497,56	2016,00
2502,01	1816,00
2506,46	1943,00
2510,90	1930,00
2515,34	2036,00
2519,77	1896,00
2524,20	1863,00
2528,62	1871,00
2533,04	2050,00
2537,46	1819,00
2541,87	1748,00
2546,28	1764,00
2550,68	1877,00
2555,08	1803,00
2559,48	1843,00
2563,87	1792,00
2568,26	1749,00
2572,64	1841,00
2577,02	1950,00
2581,40	1652,00
2585,77	1824,00
2590,14	1714,00
2594,50	1650,00
2598,86	1708,00
2603,22	1736,00
2607,57	1768,00
2611,92	1883,00
2616,26	1795,00
2620,60	1904,00
2624,94	1680,00
2629,27	1918,00
2633,60	1621,00
2637,92	1880,00
2642,24	1840,00
2646,56	1674,00
2650,87	1661,00
2655,18	1887,00
2659,48	1684,00
2663,78	1793,00
2668,08	1688,00
2672,37	1758,00
2676,66	1808,00
2680,95	1812,00
2685,23	1654,00
2689,50	1688,00
2693,78	1811,00
2698,05	1584,00
2702,31	1825,00
2706,57	1830,00
2710,83	1943,00
2715,08	1753,00
2719,33	2097,00
2723,58	1816,00
2727,82	1878,00
2732,06	1758,00
2736,29	1740,00
2740,53	1930,00
2744,75	1689,00
2748,97	1901,00
2753,19	1750,00
2757,41	1797,00
2761,62	1838,00
2765,83	1982,00
2770,03	1682,00
2774,23	1628,00
2778,43	1683,00
2782,62	1757,00
2786,81	1699,00
2791,00	1799,00
2795,18	1799,00
2799,35	1787,00
2803,53	1966,00
2807,70	1904,00
2811,86	1641,00
2816,03	1857,00
2820,19	1921,00
2824,34	1787,00
2828,49	1856,00
2832,64	2022,00
2836,78	2229,00
2840,92	2310,00
2845,06	2536,00
2849,19	2645,00
2853,32	2738,00
2857,45	2660,00
2861,57	2779,00
2865,69	2655,00
2869,80	2531,00
2873,91	2549,00
2878,02	2781,00
2882,12	2936,00
2886,22	2843,00
2890,32	2734,00
2894,41	2627,00
2898,50	2427,00
2902,58	2351,00
2906,67	2449,00
2910,74	2203,00
2914,82	2135,00
2918,89	2202,00
2922,96	1969,00
2927,02	2074,00
2931,08	1897,00
2935,13	1820,00
2939,19	1969,00
2943,24	1945,00
2947,28	1787,00
2951,32	1565,00
2955,36	1537,00
2959,40	1773,00
2963,43	1780,00
2967,46	1560,00
2971,48	1536,00
2975,50	1675,00
2979,52	1687,00
2983,53	1566,00
2987,54	1592,00
2991,55	1535,00
2995,55	1495,00
2999,55	1453,00
3003,54	1348,00
3007,54	1548,00
3011,53	1438,00
3015,51	1468,00
3019,49	1557,00
3023,47	1435,00
3027,45	1454,00
3031,42	1440,00
3035,39	1334,00
3039,35	1439,00
3043,31	1503,00
3047,27	1470,00
3051,22	1461,00
3055,17	1284,00
3059,12	1279,00
3063,06	1392,00
3067,00	1212,00
3070,94	1303,00
3074,87	1429,00
3078,80	1335,00
3082,73	1351,00
3086,65	1266,00
3090,57	1257,00
3094,49	1274,00
3098,40	1325,00
3102,31	1206,00
3106,22	1341,00
3110,12	1364,00
3114,02	1345,00
3117,92	1485,00
3121,81	1313,00
3125,70	1230,00
3129,58	1295,00
3133,47	1241,00
3137,34	1409,00
3141,22	1382,00
3145,09	1327,00
3148,96	1159,00
3152,83	1257,00
3156,69	1374,00
3160,55	1201,00
3164,40	1351,00
3168,26	1294,00
3172,10	1438,00
3175,95	1319,00
3179,79	1268,00
3183,63	1287,00
3187,47	1294,00
3191,30	1233,00
3195,13	1394,00
3198,95	1089,00
3202,78	1281,00
3206,60	1196,00
3210,41	1181,00
3214,23	1220,00
3218,03	1272,00
3221,84	1159,00
3225,64	1200,00
3229,44	1230,00
3233,24	1207,00
3237,03	1197,00
3240,82	1124,00
3244,61	1211,00
3248,39	1230,00
3252,17	1193,00
3255,95	1272,00
3259,72	1290,00
3263,49	1506,00
3267,26	1057,00
3271,03	1138,00
3274,79	1203,00
3278,54	1224,00
3282,30	1084,00
3286,05	1190,00
3289,80	1240,00
3293,54	1234,00
3297,29	1187,00
3301,02	1212,00
3304,76	1174,00
3308,49	1186,00
3312,22	1195,00
3315,95	1193,00
3319,67	1093,00
3323,39	1267,00
3327,10	1283,00
3330,82	1137,00
3334,53	1080,00
3338,24	1172,00
3341,94	1208,00
3345,64	1087,00
3349,34	1080,00
3353,03	1172,00
3356,72	1057,00
3360,41	1227,00
3364,10	1256,00
3367,78	1123,00
3371,46	1103,00
3375,13	1207,00
3378,81	1147,00
3382,48	1037,00
3386,14	1245,00
3389,81	1204,00
3393,47	1074,00
3397,12	1268,00
3400,78	1183,00
3404,43	1151,00
3408,08	1151,00
3411,72	1150,00
3415,36	1190,00
3419,00	1117,00
3422,64	1151,00
3426,27	1047,00
3429,90	1056,00
3433,53	1236,00
3437,15	1061,00
3440,77	1006,00
3444,39	1091,00
3448,00	1156,00
3451,62	1016,00
3455,22	1103,00
3458,83	1081,00
3462,43	1055,00
3466,03	1215,00
3469,63	1189,00
3473,22	1186,00
3476,81	1069,00
3480,40	1146,00
3483,99	1061,00
3487,57	1200,00
3491,15	1075,00
3494,72	1093,00
3498,29	1128,00
3501,86	966,00
3505,43	1228,00
3508,99	1068,00
3512,56	1042,00
3516,11	1081,00
3519,67	1012,00
3523,22	1171,00
3526,77	1053,00
3530,32	1038,00
3533,86	1163,00
3537,40	1114,00
3540,94	1238,00
3544,47	1033,00
3548,00	1026,00
3551,53	1118,00
3555,06	1058,00
3558,58	1180,00
3562,10	1146,00
3565,62	1082,00
3569,13	1173,00
3572,64	1136,00
3576,15	889,00
3579,66	999,00
3583,16	1054,00
3586,66	1004,00
3590,16	1000,00
3593,65	982,00
3597,14	933,00
3600,63	1047,00
3604,11	1202,00
3607,60	1028,00
3611,08	1075,00
3614,55	1039,00
3618,03	928,00
3621,50	1038,00
3624,97	1005,00
3628,43	1175,00
3631,90	1078,00
3635,36	935,00
3638,81	958,00
3642,27	1082,00
3645,72	1028,00
3649,17	1079,00
3652,61	937,00
3656,06	977,00
3659,50	877,00
3662,93	942,00
3666,37	1017,00
3669,80	1153,00
3673,23	1000,00
3676,65	1123,00
3680,08	1074,00
3683,50	964,00
3686,92	1037,00
3690,33	864,00
3693,74	994,00
3697,15	828,00
3700,56	1034,00
3703,96	1012,00
3707,36	869,00
3710,76	921,00
3714,16	904,00
3717,55	974,00
3720,94	1022,00
3724,33	991,00
3727,71	1062,00
3731,10	933,00
3734,48	887,00
3737,85	852,00
3741,23	856,00
3744,60	964,00
3747,97	822,00
3751,33	922,00
3754,69	917,00
3758,05	870,00
3761,41	830,00
3764,77	851,00
3768,12	753,00
3771,47	826,00
3774,82	857,00
3778,16	-11,00
3781,50	17,00
3784,84	9,00
3788,18	15,00
>>>>>End Processed Spectral Data<<<<<
