SpectraSuite Data File
++++++++++++++++++++++++++++++++++++
Date: Mon Mar 09 14:37:53 ICT 2026
User: Administrator
Dark Spectrum Present: Yes
Reference Spectrum Present: No
Number of Sampled Component Spectra: 1
Spectrometers: MAYP113682
Integration Time (usec): 3000000 (MAYP113682)
Spectra Averaged: 1 (MAYP113682)
Boxcar Smoothing: 0 (MAYP113682)
Correct for Electrical Dark: No (MAYP113682)
Strobe/Lamp Enabled: No (MAYP113682)
Correct for Detector Non-linearity: No (MAYP113682)
Correct for Stray Light: No (MAYP113682)
Number of Pixels in Processed Spectrum: 2068
>>>>>Begin Processed Spectral Data<<<<<
-37534,58	9,00
-37414,56	-3,00
-37295,11	1,00
-37176,24	-1,00
-37057,95	149,00
-36940,22	139,00
-36823,05	267,00
-36706,45	275,00
-36590,40	101,00
-36474,90	250,00
-36359,95	227,00
-36245,55	197,00
-36131,68	212,00
-36018,35	206,00
-35905,55	162,00
-35793,29	172,00
-35681,54	187,00
-35570,32	245,00
-35459,62	244,00
-35349,43	276,00
-35239,75	160,00
-35130,58	136,00
-35021,91	153,00
-34913,74	274,00
-34806,07	150,00
-34698,89	311,00
-34592,20	222,00
-34486,00	265,00
-34380,28	144,00
-34275,04	195,00
-34170,27	182,00
-34065,98	194,00
-33962,16	224,00
-33858,81	158,00
-33755,92	150,00
-33653,49	269,00
-33551,52	265,00
-33450,01	100,00
-33348,94	162,00
-33248,33	139,00
-33148,16	239,00
-33048,43	264,00
-32949,14	211,00
-32850,29	185,00
-32751,87	224,00
-32653,89	292,00
-32556,33	219,00
-32459,20	237,00
-32362,49	264,00
-32266,19	151,00
-32170,32	190,00
-32074,86	255,00
-31979,82	208,00
-31885,18	272,00
-31790,95	267,00
-31697,12	146,00
-31603,69	249,00
-31510,67	236,00
-31418,04	160,00
-31325,80	268,00
-31233,95	214,00
-31142,49	166,00
-31051,42	267,00
-30960,73	220,00
-30870,43	179,00
-30780,50	192,00
-30690,95	194,00
-30601,77	320,00
-30512,97	132,00
-30424,53	225,00
-30336,46	219,00
-30248,76	239,00
-30161,42	248,00
-30074,44	225,00
-29987,81	205,00
-29901,55	288,00
-29815,63	115,00
-29730,07	216,00
-29644,86	197,00
-29560,00	278,00
-29475,48	145,00
-29391,30	281,00
-29307,47	196,00
-29223,97	252,00
-29140,81	160,00
-29057,99	280,00
-28975,50	205,00
-28893,34	218,00
-28811,51	254,00
-28730,00	153,00
-28648,82	168,00
-28567,97	224,00
-28487,43	231,00
-28407,21	153,00
-28327,32	140,00
-28247,73	280,00
-28168,46	166,00
-28089,50	174,00
-28010,85	131,00
-27932,51	155,00
-27854,48	247,00
-27776,75	213,00
-27699,32	167,00
-27622,19	223,00
-27545,37	253,00
-27468,84	183,00
-27392,60	337,00
-27316,66	134,00
-27241,01	159,00
-27165,66	185,00
-27090,59	280,00
-27015,81	227,00
-26941,31	253,00
-26867,10	263,00
-26793,17	177,00
-26719,52	275,00
-26646,15	144,00
-26573,06	245,00
-26500,24	225,00
-26427,70	151,00
-26355,43	295,00
-26283,43	203,00
-26211,71	250,00
-26140,25	277,00
-26069,06	275,00
-25998,13	138,00
-25927,46	188,00
-25857,06	260,00
-25786,92	188,00
-25717,04	171,00
-25647,42	147,00
-25578,05	250,00
-25508,94	223,00
-25440,09	196,00
-25371,48	131,00
-25303,13	144,00
-25235,02	160,00
-25167,17	282,00
-25099,56	202,00
-25032,19	237,00
-24965,07	228,00
-24898,20	188,00
-24831,56	182,00
-24765,17	250,00
-24699,01	272,00
-24633,10	115,00
-24567,41	228,00
-24501,97	278,00
-24436,75	144,00
-24371,77	253,00
-24307,03	244,00
-24242,51	153,00
-24178,22	274,00
-24114,16	153,00
-24050,32	80,00
-23986,71	223,00
-23923,32	183,00
-23860,16	126,00
-23797,22	175,00
-23734,50	236,00
-23672,00	188,00
-23609,71	162,00
-23547,65	164,00
-23485,80	174,00
-23424,16	204,00
-23362,74	251,00
-23301,53	166,00
-23240,54	218,00
-23179,75	203,00
-23119,17	185,00
-23058,80	176,00
-22998,64	173,00
-22938,68	158,00
-22878,93	181,00
-22819,39	190,00
-22760,04	237,00
-22700,90	205,00
-22641,96	182,00
-22583,22	136,00
-22524,68	166,00
-22466,33	163,00
-22408,19	237,00
-22350,23	232,00
-22292,48	278,00
-22234,92	184,00
-22177,55	262,00
-22120,37	230,00
-22063,38	201,00
-22006,58	150,00
-21949,98	213,00
-21893,56	118,00
-21837,33	214,00
-21781,28	208,00
-21725,42	160,00
-21669,74	203,00
-21614,25	238,00
-21558,94	155,00
-21503,81	111,00
-21448,86	212,00
-21394,10	205,00
-21339,51	186,00
-21285,10	156,00
-21230,86	219,00
-21176,81	183,00
-21122,93	154,00
-21069,22	235,00
-21015,69	259,00
-20962,33	234,00
-20909,14	171,00
-20856,13	168,00
-20803,28	189,00
-20750,61	156,00
-20698,10	191,00
-20645,76	196,00
-20593,59	296,00
-20541,59	195,00
-20489,75	252,00
-20438,07	220,00
-20386,56	249,00
-20335,22	255,00
-20284,03	159,00
-20233,01	245,00
-20182,15	89,00
-20131,45	198,00
-20080,91	149,00
-20030,52	207,00
-19980,30	66,00
-19930,23	197,00
-19880,32	245,00
-19830,56	321,00
-19780,96	196,00
-19731,52	154,00
-19682,23	202,00
-19633,09	181,00
-19584,10	113,00
-19535,26	196,00
-19486,58	110,00
-19438,04	166,00
-19389,66	126,00
-19341,42	329,00
-19293,33	119,00
-19245,39	147,00
-19197,60	199,00
-19149,95	130,00
-19102,45	274,00
-19055,09	172,00
-19007,87	221,00
-18960,80	213,00
-18913,87	202,00
-18867,09	307,00
-18820,44	270,00
-18773,94	173,00
-18727,57	180,00
-18681,35	145,00
-18635,26	210,00
-18589,31	184,00
-18543,50	118,00
-18497,83	186,00
-18452,29	206,00
-18406,89	181,00
-18361,63	259,00
-18316,50	316,00
-18271,50	167,00
-18226,63	200,00
-18181,90	147,00
-18137,30	159,00
-18092,84	210,00
-18048,50	241,00
-18004,29	153,00
-17960,22	240,00
-17916,27	239,00
-17872,45	217,00
-17828,76	130,00
-17785,20	251,00
-17741,77	251,00
-17698,46	186,00
-17655,28	193,00
-17612,22	219,00
-17569,29	100,00
-17526,48	209,00
-17483,79	211,00
-17441,23	210,00
-17398,79	243,00
-17356,48	235,00
-17314,28	319,00
-17272,21	217,00
-17230,26	131,00
-17188,42	218,00
-17146,71	200,00
-17105,12	265,00
-17063,64	121,00
-17022,28	181,00
-16981,04	213,00
-16939,92	180,00
-16898,91	255,00
-16858,02	319,00
-16817,25	166,00
-16776,59	138,00
-16736,04	249,00
-16695,61	166,00
-16655,29	201,00
-16615,09	212,00
-16574,99	197,00
-16535,01	149,00
-16495,15	184,00
-16455,39	278,00
-16415,74	169,00
-16376,21	147,00
-16336,78	195,00
-16297,46	252,00
-16258,26	320,00
-16219,16	196,00
-16180,17	240,00
-16141,28	236,00
-16102,51	282,00
-16063,84	159,00
-16025,27	251,00
-15986,82	105,00
-15948,46	164,00
-15910,22	243,00
-15872,07	201,00
-15834,04	148,00
-15796,10	119,00
-15758,27	278,00
-15720,54	206,00
-15682,91	165,00
-15645,39	151,00
-15607,97	197,00
-15570,64	208,00
-15533,42	179,00
-15496,30	160,00
-15459,28	191,00
-15422,36	189,00
-15385,54	224,00
-15348,82	185,00
-15312,19	224,00
-15275,66	222,00
-15239,23	147,00
-15202,90	236,00
-15166,67	219,00
-15130,53	209,00
-15094,48	253,00
-15058,54	187,00
-15022,68	123,00
-14986,93	185,00
-14951,26	215,00
-14915,69	128,00
-14880,22	192,00
-14844,84	187,00
-14809,55	173,00
-14774,35	203,00
-14739,25	343,00
-14704,24	291,00
-14669,32	253,00
-14634,49	211,00
-14599,75	150,00
-14565,10	120,00
-14530,55	208,00
-14496,08	258,00
-14461,70	168,00
-14427,41	347,00
-14393,21	246,00
-14359,10	156,00
-14325,07	216,00
-14291,14	243,00
-14257,29	226,00
-14223,52	181,00
-14189,85	240,00
-14156,26	173,00
-14122,76	225,00
-14089,34	209,00
-14056,01	134,00
-14022,76	257,00
-13989,60	240,00
-13956,52	163,00
-13923,53	203,00
-13890,62	205,00
-13857,79	143,00
-13825,05	179,00
-13792,39	187,00
-13759,81	210,00
-13727,31	266,00
-13694,90	241,00
-13662,57	171,00
-13630,31	201,00
-13598,14	203,00
-13566,05	171,00
-13534,05	250,00
-13502,12	167,00
-13470,27	214,00
-13438,50	168,00
-13406,80	214,00
-13375,19	195,00
-13343,66	195,00
-13312,20	181,00
-13280,83	124,00
-13249,53	201,00
-13218,30	231,00
-13187,16	171,00
-13156,09	156,00
-13125,10	261,00
-13094,18	197,00
-13063,34	214,00
-13032,58	171,00
-13001,89	269,00
-12971,28	222,00
-12940,74	181,00
-12910,27	183,00
-12879,88	179,00
-12849,57	224,00
-12819,33	154,00
-12789,16	210,00
-12759,06	58,00
-12729,04	265,00
-12699,09	-687,00
-12669,21	215,00
-12639,41	182,00
-12609,68	167,00
-12580,02	119,00
-12550,43	309,00
-12520,91	177,00
-12491,46	213,00
-12462,08	190,00
-12432,77	161,00
-12403,54	162,00
-12374,37	219,00
-12345,27	209,00
-12316,24	232,00
-12287,29	288,00
-12258,40	172,00
-12229,57	217,00
-12200,82	252,00
-12172,14	157,00
-12143,52	198,00
-12114,97	86,00
-12086,49	174,00
-12058,07	121,00
-12029,73	161,00
-12001,44	213,00
-11973,23	148,00
-11945,08	193,00
-11917,00	129,00
-11888,98	141,00
-11861,03	157,00
-11833,15	160,00
-11805,32	237,00
-11777,57	214,00
-11749,88	172,00
-11722,25	163,00
-11694,69	243,00
-11667,19	232,00
-11639,75	164,00
-11612,38	245,00
-11585,07	176,00
-11557,83	233,00
-11530,65	323,00
-11503,53	235,00
-11476,47	317,00
-11449,48	168,00
-11422,54	157,00
-11395,67	155,00
-11368,86	217,00
-11342,11	209,00
-11315,43	124,00
-11288,80	73,00
-11262,23	309,00
-11235,73	177,00
-11209,28	265,00
-11182,90	75,00
-11156,57	207,00
-11130,31	157,00
-11104,10	290,00
-11077,96	317,00
-11051,87	153,00
-11025,84	252,00
-10999,87	232,00
-10973,96	281,00
-10948,11	218,00
-10922,31	207,00
-10896,58	201,00
-10870,90	222,00
-10845,28	212,00
-10819,71	145,00
-10794,20	99,00
-10768,75	176,00
-10743,36	148,00
-10718,02	266,00
-10692,74	198,00
-10667,52	129,00
-10642,35	307,00
-10617,24	217,00
-10592,18	214,00
-10567,18	203,00
-10542,23	237,00
-10517,34	171,00
-10492,51	239,00
-10467,72	235,00
-10443,00	200,00
-10418,32	248,00
-10393,70	177,00
-10369,14	169,00
-10344,63	247,00
-10320,17	206,00
-10295,77	156,00
-10271,42	198,00
-10247,12	202,00
-10222,88	268,00
-10198,68	146,00
-10174,54	165,00
-10150,46	216,00
-10126,42	234,00
-10102,44	247,00
-10078,51	200,00
-10054,63	209,00
-10030,80	133,00
-10007,03	230,00
-9983,30	221,00
-9959,63	165,00
-9936,01	203,00
-9912,44	258,00
-9888,92	175,00
-9865,44	253,00
-9842,02	334,00
-9818,65	170,00
-9795,33	263,00
-9772,06	239,00
-9748,84	234,00
-9725,67	139,00
-9702,55	153,00
-9679,47	305,00
-9656,45	127,00
-9633,47	116,00
-9610,55	214,00
-9587,67	246,00
-9564,84	206,00
-9542,06	177,00
-9519,32	269,00
-9496,64	217,00
-9474,00	172,00
-9451,41	168,00
-9428,87	166,00
-9406,37	186,00
-9383,92	144,00
-9361,52	47,00
-9339,17	190,00
-9316,86	175,00
-9294,60	117,00
-9272,38	311,00
-9250,21	116,00
-9228,09	151,00
-9206,01	123,00
-9183,98	104,00
-9162,00	108,00
-9140,06	156,00
-9118,16	82,00
-9096,31	292,00
-9074,51	160,00
-9052,75	232,00
-9031,04	246,00
-9009,37	104,00
-8987,74	82,00
-8966,16	169,00
-8944,63	61,00
-8923,14	94,00
-8901,69	160,00
-8880,29	175,00
-8858,93	156,00
-8837,61	251,00
-8816,34	253,00
-8795,11	237,00
-8773,92	235,00
-8752,78	173,00
-8731,68	185,00
-8710,62	163,00
-8689,61	30,00
-8668,63	159,00
-8647,70	248,00
-8626,82	201,00
-8605,97	225,00
-8585,17	198,00
-8564,41	111,00
-8543,69	132,00
-8523,01	141,00
-8502,37	125,00
-8481,78	149,00
-8461,23	86,00
-8440,71	141,00
-8420,24	165,00
-8399,81	199,00
-8379,42	149,00
-8359,08	216,00
-8338,77	109,00
-8318,50	272,00
-8298,27	104,00
-8278,09	149,00
-8257,94	136,00
-8237,83	250,00
-8217,76	198,00
-8197,74	231,00
-8177,75	144,00
-8157,80	253,00
-8137,89	283,00
-8118,02	176,00
-8098,19	263,00
-8078,40	187,00
-8058,65	163,00
-8038,93	338,00
-8019,26	308,00
-7999,62	302,00
-7980,02	210,00
-7960,46	178,00
-7940,94	230,00
-7921,46	257,00
-7902,01	112,00
-7882,60	260,00
-7863,23	282,00
-7843,90	274,00
-7824,61	224,00
-7805,35	209,00
-7786,13	256,00
-7766,95	272,00
-7747,80	231,00
-7728,69	296,00
-7709,62	252,00
-7690,59	246,00
-7671,59	275,00
-7652,63	271,00
-7633,70	129,00
-7614,81	270,00
-7595,96	188,00
-7577,15	185,00
-7558,37	200,00
-7539,62	181,00
-7520,91	208,00
-7502,24	182,00
-7483,60	220,00
-7465,00	180,00
-7446,44	217,00
-7427,91	232,00
-7409,41	270,00
-7390,95	194,00
-7372,53	201,00
-7354,14	183,00
-7335,78	161,00
-7317,46	239,00
-7299,18	178,00
-7280,92	269,00
-7262,71	181,00
-7244,52	278,00
-7226,38	261,00
-7208,26	290,00
-7190,18	112,00
-7172,14	273,00
-7154,12	236,00
-7136,15	138,00
-7118,20	245,00
-7100,29	288,00
-7082,41	271,00
-7064,57	205,00
-7046,76	157,00
-7028,98	181,00
-7011,24	355,00
-6993,53	126,00
-6975,85	100,00
-6958,20	185,00
-6940,59	181,00
-6923,01	203,00
-6905,46	278,00
-6887,94	107,00
-6870,46	254,00
-6853,01	187,00
-6835,59	73,00
-6818,21	130,00
-6800,85	239,00
-6783,53	207,00
-6766,24	168,00
-6748,98	207,00
-6731,76	173,00
-6714,56	159,00
-6697,40	124,00
-6680,26	159,00
-6663,16	83,00
-6646,09	193,00
-6629,05	117,00
-6612,05	159,00
-6595,07	142,00
-6578,13	228,00
-6561,21	117,00
-6544,33	153,00
-6527,47	147,00
-6510,65	156,00
-6493,86	209,00
-6477,10	95,00
-6460,36	41,00
-6443,66	100,00
-6426,99	118,00
-6410,35	113,00
-6393,74	197,00
-6377,16	149,00
-6360,61	79,00
-6344,09	80,00
-6327,59	197,00
-6311,13	98,00
-6294,70	208,00
-6278,29	163,00
-6261,92	188,00
-6245,58	127,00
-6229,26	342,00
-6212,97	219,00
-6196,72	139,00
-6180,49	230,00
-6164,29	141,00
-6148,12	163,00
-6131,98	120,00
-6115,86	147,00
-6099,78	124,00
-6083,72	80,00
-6067,69	221,00
-6051,69	159,00
-6035,72	194,00
-6019,78	120,00
-6003,87	196,00
-5987,98	117,00
-5972,12	162,00
-5956,29	145,00
-5940,49	133,00
-5924,71	325,00
-5908,96	142,00
-5893,24	102,00
-5877,55	141,00
-5861,89	182,00
-5846,25	200,00
-5830,64	177,00
-5815,05	147,00
-5799,50	164,00
-5783,97	186,00
-5768,47	232,00
-5752,99	220,00
-5737,55	174,00
-5722,12	154,00
-5706,73	162,00
-5691,36	180,00
-5676,02	179,00
-5660,71	211,00
-5645,42	123,00
-5630,16	108,00
-5614,92	140,00
-5599,71	38,00
-5584,53	220,00
-5569,37	143,00
-5554,24	801,00
-5539,14	129,00
-5524,06	200,00
-5509,01	137,00
-5493,98	101,00
-5478,98	146,00
-5464,00	147,00
-5449,05	23,00
-5434,13	231,00
-5419,23	219,00
-5404,36	180,00
-5389,51	217,00
-5374,69	117,00
-5359,89	88,00
-5345,12	239,00
-5330,37	190,00
-5315,65	291,00
-5300,95	202,00
-5286,28	130,00
-5271,63	105,00
-5257,01	182,00
-5242,41	196,00
-5227,84	109,00
-5213,29	199,00
-5198,76	199,00
-5184,26	92,00
-5169,79	120,00
-5155,33	179,00
-5140,91	205,00
-5126,51	122,00
-5112,13	185,00
-5097,77	278,00
-5083,44	226,00
-5069,13	111,00
-5054,85	151,00
-5040,59	124,00
-5026,36	153,00
-5012,15	196,00
-4997,96	141,00
-4983,80	163,00
-4969,66	138,00
-4955,54	244,00
-4941,44	218,00
-4927,37	253,00
-4913,33	202,00
-4899,30	126,00
-4885,30	136,00
-4871,33	207,00
-4857,37	212,00
-4843,44	239,00
-4829,53	198,00
-4815,65	187,00
-4801,79	116,00
-4787,95	106,00
-4774,13	85,00
-4760,34	119,00
-4746,56	269,00
-4732,82	182,00
-4719,09	182,00
-4705,38	150,00
-4691,70	198,00
-4678,04	158,00
-4664,41	183,00
-4650,79	229,00
-4637,20	146,00
-4623,63	188,00
-4610,08	156,00
-4596,56	191,00
-4583,05	204,00
-4569,57	165,00
-4556,11	140,00
-4542,67	214,00
-4529,25	212,00
-4515,86	297,00
-4502,49	235,00
-4489,13	144,00
-4475,80	212,00
-4462,49	139,00
-4449,21	270,00
-4435,94	202,00
-4422,70	205,00
-4409,47	186,00
-4396,27	150,00
-4383,09	170,00
-4369,93	174,00
-4356,79	203,00
-4343,67	234,00
-4330,58	194,00
-4317,50	109,00
-4304,45	197,00
-4291,41	222,00
-4278,40	104,00
-4265,41	200,00
-4252,44	192,00
-4239,49	183,00
-4226,55	177,00
-4213,65	320,00
-4200,76	290,00
-4187,89	191,00
-4175,04	187,00
-4162,21	219,00
-4149,40	192,00
-4136,61	176,00
-4123,85	196,00
-4111,10	134,00
-4098,37	248,00
-4085,66	203,00
-4072,98	218,00
-4060,31	196,00
-4047,66	187,00
-4035,04	219,00
-4022,43	215,00
-4009,84	233,00
-3997,27	161,00
-3984,72	214,00
-3972,19	166,00
-3959,69	174,00
-3947,20	171,00
-3934,73	254,00
-3922,27	166,00
-3909,84	200,00
-3897,43	215,00
-3885,04	106,00
-3872,67	179,00
-3860,31	238,00
-3847,98	227,00
-3835,66	191,00
-3823,36	181,00
-3811,09	114,00
-3798,83	239,00
-3786,59	288,00
-3774,37	212,00
-3762,17	169,00
-3749,98	170,00
-3737,82	180,00
-3725,67	162,00
-3713,55	210,00
-3701,44	226,00
-3689,35	208,00
-3677,28	194,00
-3665,22	168,00
-3653,19	116,00
-3641,17	149,00
-3629,18	201,00
-3617,20	153,00
-3605,24	157,00
-3593,30	128,00
-3581,37	204,00
-3569,47	233,00
-3557,58	263,00
-3545,71	126,00
-3533,86	258,00
-3522,02	207,00
-3510,21	246,00
-3498,41	184,00
-3486,63	234,00
-3474,87	180,00
-3463,12	191,00
-3451,40	152,00
-3439,69	224,00
-3428,00	193,00
-3416,33	218,00
-3404,67	232,00
-3393,03	172,00
-3381,41	244,00
-3369,81	171,00
-3358,22	258,00
-3346,66	128,00
-3335,10	223,00
-3323,57	182,00
-3312,06	166,00
-3300,56	146,00
-3289,08	120,00
-3277,61	179,00
-3266,16	221,00
-3254,73	203,00
-3243,32	221,00
-3231,92	195,00
-3220,55	237,00
-3209,18	233,00
-3197,84	194,00
-3186,51	164,00
-3175,20	166,00
-3163,90	175,00
-3152,63	153,00
-3141,36	128,00
-3130,12	136,00
-3118,89	200,00
-3107,68	229,00
-3096,49	250,00
-3085,31	253,00
-3074,15	164,00
-3063,00	153,00
-3051,87	309,00
-3040,76	242,00
-3029,67	116,00
-3018,59	231,00
-3007,52	185,00
-2996,48	309,00
-2985,44	133,00
-2974,43	153,00
-2963,43	142,00
-2952,45	166,00
-2941,48	255,00
-2930,53	239,00
-2919,60	135,00
-2908,68	187,00
-2897,78	199,00
-2886,89	191,00
-2876,02	230,00
-2865,17	179,00
-2854,33	197,00
-2843,50	63,00
-2832,70	161,00
-2821,90	251,00
-2811,13	285,00
-2800,37	255,00
-2789,62	207,00
-2778,89	183,00
-2768,18	201,00
-2757,48	280,00
-2746,80	298,00
-2736,13	253,00
-2725,48	187,00
-2714,84	161,00
-2704,22	93,00
-2693,61	205,00
-2683,02	159,00
-2672,45	201,00
-2661,89	212,00
-2651,34	229,00
-2640,81	196,00
-2630,30	139,00
-2619,80	209,00
-2609,31	200,00
-2598,84	216,00
-2588,39	283,00
-2577,95	154,00
-2567,52	243,00
-2557,11	311,00
-2546,71	185,00
-2536,33	275,00
-2525,97	258,00
-2515,62	167,00
-2505,28	209,00
-2494,96	179,00
-2484,65	108,00
-2474,36	266,00
-2464,08	247,00
-2453,82	330,00
-2443,57	274,00
-2433,33	183,00
-2423,11	122,00
-2412,91	91,00
-2402,72	156,00
-2392,54	190,00
-2382,38	176,00
-2372,23	302,00
-2362,09	3755,00
-2351,97	161,00
-2341,87	199,00
-2331,78	209,00
-2321,70	179,00
-2311,64	314,00
-2301,59	141,00
-2291,55	209,00
-2281,53	265,00
-2271,53	183,00
-2261,53	169,00
-2251,55	84,00
-2241,59	157,00
-2231,64	274,00
-2221,70	170,00
-2211,78	258,00
-2201,87	238,00
-2191,97	204,00
-2182,09	166,00
-2172,22	251,00
-2162,37	143,00
-2152,53	216,00
-2142,70	112,00
-2132,89	213,00
-2123,09	228,00
-2113,30	179,00
-2103,53	183,00
-2093,77	131,00
-2084,02	148,00
-2074,29	170,00
-2064,57	215,00
-2054,86	254,00
-2045,17	229,00
-2035,49	191,00
-2025,82	173,00
-2016,17	187,00
-2006,53	157,00
-1996,91	121,00
-1987,29	134,00
-1977,69	249,00
-1968,11	184,00
-1958,53	111,00
-1948,97	274,00
-1939,42	214,00
-1929,89	189,00
-1920,37	209,00
-1910,86	189,00
-1901,36	161,00
-1891,88	259,00
-1882,41	243,00
-1872,95	222,00
-1863,51	154,00
-1854,08	285,00
-1844,66	220,00
-1835,26	128,00
-1825,86	220,00
-1816,48	155,00
-1807,11	230,00
-1797,76	203,00
-1788,42	192,00
-1779,09	199,00
-1769,77	182,00
-1760,47	263,00
-1751,17	277,00
-1741,89	203,00
-1732,63	242,00
-1723,37	250,00
-1714,13	232,00
-1704,90	200,00
-1695,68	205,00
-1686,48	180,00
-1677,29	184,00
-1668,11	209,00
-1658,94	260,00
-1649,78	260,00
-1640,64	218,00
-1631,51	208,00
-1622,39	254,00
-1613,28	294,00
-1604,19	339,00
-1595,10	219,00
-1586,03	197,00
-1576,97	213,00
-1567,93	163,00
-1558,89	308,00
-1549,87	216,00
-1540,86	177,00
-1531,86	200,00
-1522,87	202,00
-1513,90	153,00
-1504,93	219,00
-1495,98	270,00
-1487,04	298,00
-1478,12	219,00
-1469,20	183,00
-1460,30	233,00
-1451,40	256,00
-1442,52	238,00
-1433,65	242,00
-1424,80	277,00
-1415,95	242,00
-1407,12	254,00
-1398,30	268,00
-1389,48	175,00
-1380,69	247,00
-1371,90	210,00
-1363,12	238,00
-1354,36	261,00
-1345,60	157,00
-1336,86	234,00
-1328,13	273,00
-1319,41	193,00
-1310,70	235,00
-1302,01	164,00
-1293,32	127,00
-1284,65	147,00
-1275,99	140,00
-1267,33	303,00
-1258,69	187,00
-1250,06	278,00
-1241,45	169,00
-1232,84	211,00
-1224,25	171,00
-1215,66	165,00
-1207,09	217,00
-1198,53	262,00
-1189,97	180,00
-1181,43	254,00
-1172,91	216,00
-1164,39	179,00
-1155,88	167,00
-1147,38	98,00
-1138,90	173,00
-1130,43	194,00
-1121,96	210,00
-1113,51	246,00
-1105,07	240,00
-1096,64	120,00
-1088,22	183,00
-1079,81	210,00
-1071,41	253,00
-1063,02	258,00
-1054,65	168,00
-1046,28	272,00
-1037,92	319,00
-1029,58	185,00
-1021,24	234,00
-1012,92	302,00
-1004,61	199,00
-996,30	344,00
-988,01	162,00
-979,73	316,00
-971,46	237,00
-963,20	132,00
-954,95	160,00
-946,71	244,00
-938,48	85,00
-930,26	293,00
-922,06	247,00
-913,86	211,00
-905,67	202,00
-897,49	145,00
-889,33	224,00
-881,17	257,00
-873,02	262,00
-864,89	92,00
-856,76	181,00
-848,65	144,00
-840,54	172,00
-832,45	260,00
-824,36	184,00
-816,29	181,00
-808,22	185,00
-800,17	178,00
-792,12	217,00
-784,09	288,00
-776,06	117,00
-768,05	210,00
-760,04	115,00
-752,05	186,00
-744,07	286,00
-736,09	254,00
-728,13	275,00
-720,17	220,00
-712,23	226,00
-704,29	260,00
-696,37	197,00
-688,45	210,00
-680,55	199,00
-672,65	138,00
-664,77	125,00
-656,89	243,00
-649,03	188,00
-641,17	262,00
-633,32	262,00
-625,49	200,00
-617,66	308,00
-609,84	243,00
-602,03	206,00
-594,23	200,00
-586,45	160,00
-578,67	177,00
-570,90	217,00
-563,14	256,00
-555,39	267,00
-547,65	229,00
-539,91	229,00
-532,19	212,00
-524,48	176,00
-516,78	258,00
-509,08	234,00
-501,40	205,00
-493,72	239,00
-486,06	217,00
-478,40	264,00
-470,76	158,00
-463,12	260,00
-455,49	182,00
-447,87	223,00
-440,26	203,00
-432,66	211,00
-425,07	235,00
-417,49	227,00
-409,92	223,00
-402,35	122,00
-394,80	222,00
-387,25	178,00
-379,72	246,00
-372,19	199,00
-364,67	245,00
-357,17	267,00
-349,67	257,00
-342,18	211,00
-334,69	276,00
-327,22	241,00
-319,76	185,00
-312,30	217,00
-304,86	329,00
-297,42	269,00
-290,00	224,00
-282,58	262,00
-275,17	263,00
-267,77	316,00
-260,37	179,00
-252,99	257,00
-245,62	281,00
-238,25	137,00
-230,90	255,00
-223,55	225,00
-216,21	229,00
-208,88	342,00
-201,56	309,00
-194,25	240,00
-186,94	272,00
-179,65	352,00
-172,36	329,00
-165,08	281,00
-157,81	388,00
-150,55	290,00
-143,30	356,00
-136,06	445,00
-128,82	445,00
-121,60	379,00
-114,38	586,00
-107,17	474,00
-99,97	523,00
-92,78	531,00
-85,60	690,00
-78,42	726,00
-71,25	878,00
-64,10	1051,00
-56,95	1058,00
-49,81	1196,00
-42,67	1597,00
-35,55	1859,00
-28,43	2400,00
-21,33	3900,00
-14,23	12152,00
-7,14	57775,00
-0,05	57564,00
7,02	57281,00
14,09	44314,00
21,14	11613,00
28,19	4787,00
35,23	3109,00
42,27	2372,00
49,29	1911,00
56,31	1785,00
63,32	1547,00
70,32	1252,00
77,31	1012,00
84,29	918,00
91,27	899,00
98,23	867,00
105,19	743,00
112,14	838,00
119,09	1067,00
126,02	1518,00
132,95	1865,00
139,87	1943,00
146,78	1936,00
153,68	1864,00
160,58	1837,00
167,46	1722,00
174,34	1735,00
181,21	1821,00
188,08	1837,00
194,93	1892,00
201,78	1773,00
208,62	1692,00
215,45	1838,00
222,27	1748,00
229,09	1863,00
235,90	1875,00
242,70	1792,00
249,49	1799,00
256,27	1739,00
263,05	1771,00
269,82	1768,00
276,58	1826,00
283,33	1719,00
290,08	1788,00
296,82	1730,00
303,55	1751,00
310,27	1621,00
316,98	1681,00
323,69	1636,00
330,39	1601,00
337,08	1726,00
343,76	1673,00
350,44	1690,00
357,11	1793,00
363,77	1661,00
370,42	1668,00
377,07	1766,00
383,71	1641,00
390,34	1667,00
396,96	1588,00
403,58	1620,00
410,19	1738,00
416,79	1742,00
423,38	1808,00
429,97	1778,00
436,55	1652,00
443,12	1641,00
449,68	1500,00
456,24	1662,00
462,79	1677,00
469,33	1616,00
475,86	1547,00
482,39	1585,00
488,91	1556,00
495,42	1492,00
501,93	1651,00
508,42	1579,00
514,91	1634,00
521,40	1546,00
527,87	1595,00
534,34	1506,00
540,80	1616,00
547,25	1586,00
553,70	1677,00
560,14	1534,00
566,57	1575,00
573,00	1612,00
579,41	1523,00
585,83	1552,00
592,23	1486,00
598,62	1602,00
605,01	1522,00
611,40	1568,00
617,77	1507,00
624,14	1613,00
630,50	1572,00
636,85	1611,00
643,20	1573,00
649,54	1524,00
655,87	1494,00
662,20	1673,00
668,52	1560,00
674,83	1597,00
681,13	1638,00
687,43	1576,00
693,72	1568,00
700,00	1421,00
706,28	1500,00
712,55	1508,00
718,81	1550,00
725,07	1438,00
731,32	1608,00
737,56	1546,00
743,79	1528,00
750,02	1571,00
756,24	1519,00
762,46	1501,00
768,67	1670,00
774,87	1652,00
781,06	1508,00
787,25	1498,00
793,43	1576,00
799,60	1523,00
805,77	1589,00
811,93	1456,00
818,08	1570,00
824,23	1496,00
830,37	1635,00
836,50	1602,00
842,63	1570,00
848,75	1560,00
854,87	1620,00
860,97	1522,00
867,07	1671,00
873,17	1547,00
879,25	1549,00
885,33	1555,00
891,41	1559,00
897,47	1562,00
903,53	1644,00
909,59	1606,00
915,63	1585,00
921,67	1511,00
927,71	1573,00
933,74	1597,00
939,76	1573,00
945,77	1523,00
951,78	1524,00
957,78	1508,00
963,78	1651,00
969,77	1583,00
975,75	1624,00
981,72	1520,00
987,69	1787,00
993,66	1638,00
999,61	1571,00
1005,56	1630,00
1011,51	1569,00
1017,44	1567,00
1023,37	1615,00
1029,30	1596,00
1035,22	1677,00
1041,13	1597,00
1047,03	1566,00
1052,93	1777,00
1058,83	2003,00
1064,71	2064,00
1070,59	1944,00
1076,47	1776,00
1082,33	1719,00
1088,20	1742,00
1094,05	1721,00
1099,90	1601,00
1105,74	1671,00
1111,58	1664,00
1117,41	1706,00
1123,23	1867,00
1129,05	2221,00
1134,86	1997,00
1140,67	1860,00
1146,47	1799,00
1152,26	1710,00
1158,05	1563,00
1163,83	1605,00
1169,60	1699,00
1175,37	1752,00
1181,13	1563,00
1186,89	1720,00
1192,64	1691,00
1198,38	1581,00
1204,12	1583,00
1209,85	1597,00
1215,58	1635,00
1221,30	1699,00
1227,02	1773,00
1232,72	1604,00
1238,43	1552,00
1244,12	1733,00
1249,81	1760,00
1255,50	1737,00
1261,17	1594,00
1266,85	1718,00
1272,51	1728,00
1278,17	1767,00
1283,83	1671,00
1289,47	2130,00
1295,12	2452,00
1300,75	2226,00
1306,38	1982,00
1312,01	1827,00
1317,63	1843,00
1323,24	1787,00
1328,85	1802,00
1334,45	1774,00
1340,04	1725,00
1345,63	1655,00
1351,22	1726,00
1356,80	1800,00
1362,37	1779,00
1367,93	1740,00
1373,49	1772,00
1379,05	1818,00
1384,60	1670,00
1390,14	1796,00
1395,68	1775,00
1401,21	1703,00
1406,74	1856,00
1412,26	1960,00
1417,77	2093,00
1423,28	2056,00
1428,78	2090,00
1434,28	2237,00
1439,77	2352,00
1445,26	2442,00
1450,74	2262,00
1456,22	2212,00
1461,68	2298,00
1467,15	2111,00
1472,61	2035,00
1478,06	1974,00
1483,51	1845,00
1488,95	1799,00
1494,38	1755,00
1499,81	1743,00
1505,24	1713,00
1510,65	1684,00
1516,07	1739,00
1521,48	1564,00
1526,88	1557,00
1532,27	1693,00
1537,67	1487,00
1543,05	1662,00
1548,43	1675,00
1553,81	1718,00
1559,18	1579,00
1564,54	1700,00
1569,90	1544,00
1575,25	1568,00
1580,60	1538,00
1585,94	1652,00
1591,28	1662,00
1596,61	1646,00
1601,93	1713,00
1607,25	1570,00
1612,57	1584,00
1617,88	1497,00
1623,18	1477,00
1628,48	1626,00
1633,77	1477,00
1639,06	1546,00
1644,34	1527,00
1649,62	1567,00
1654,89	1603,00
1660,16	1568,00
1665,42	1582,00
1670,67	1487,00
1675,92	1524,00
1681,17	1461,00
1686,41	1589,00
1691,64	1563,00
1696,87	1461,00
1702,10	1511,00
1707,32	1560,00
1712,53	1514,00
1717,74	1519,00
1722,94	1436,00
1728,14	1523,00
1733,33	1453,00
1738,52	1458,00
1743,70	1403,00
1748,88	1460,00
1754,05	1364,00
1759,22	1432,00
1764,38	2544,00
1769,53	1388,00
1774,69	1468,00
1779,83	1399,00
1784,97	1309,00
1790,11	1409,00
1795,24	1400,00
1800,36	1493,00
1805,48	1355,00
1810,60	1340,00
1815,71	1422,00
1820,82	1349,00
1825,92	1445,00
1831,01	1405,00
1836,10	1386,00
1841,19	1410,00
1846,26	1310,00
1851,34	1333,00
1856,41	1427,00
1861,47	1352,00
1866,53	1343,00
1871,59	1402,00
1876,64	1384,00
1881,68	1314,00
1886,72	1488,00
1891,76	1370,00
1896,79	1381,00
1901,81	1237,00
1906,83	1291,00
1911,85	1352,00
1916,86	1363,00
1921,86	1246,00
1926,86	1253,00
1931,86	1254,00
1936,85	1276,00
1941,83	1328,00
1946,81	1294,00
1951,79	1181,00
1956,76	1230,00
1961,72	1245,00
1966,68	1226,00
1971,64	1149,00
1976,59	1135,00
1981,54	1319,00
1986,48	1186,00
1991,42	1212,00
1996,35	1313,00
2001,27	1268,00
2006,20	1103,00
2011,11	1327,00
2016,03	1263,00
2020,93	1203,00
2025,84	1270,00
2030,73	1149,00
2035,63	1046,00
2040,52	1220,00
2045,40	1181,00
2050,28	1176,00
2055,15	1191,00
2060,02	1067,00
2064,89	1182,00
2069,75	1090,00
2074,60	1242,00
2079,46	1153,00
2084,30	1168,00
2089,14	1194,00
2093,98	1120,00
2098,81	1185,00
2103,64	1190,00
2108,46	1159,00
2113,28	1172,00
2118,09	1099,00
2122,90	1196,00
2127,70	1101,00
2132,50	1102,00
2137,30	1055,00
2142,09	1150,00
2146,87	1124,00
2151,66	1220,00
2156,43	1211,00
2161,20	1100,00
2165,97	1052,00
2170,73	1037,00
2175,49	1119,00
2180,24	1115,00
2184,99	1189,00
2189,74	1036,00
2194,48	1057,00
2199,21	1116,00
2203,94	1072,00
2208,67	990,00
2213,39	1013,00
2218,11	1079,00
2222,82	1059,00
2227,53	1042,00
2232,23	1137,00
2236,93	971,00
2241,63	1077,00
2246,32	1043,00
2251,00	1054,00
2255,68	897,00
2260,36	1060,00
2265,03	1066,00
2269,70	1156,00
2274,36	990,00
2279,02	958,00
2283,68	1038,00
2288,33	956,00
2292,97	1045,00
2297,61	1063,00
2302,25	930,00
2306,88	952,00
2311,51	1002,00
2316,14	1036,00
2320,75	1036,00
2325,37	881,00
2329,98	1026,00
2334,59	977,00
2339,19	929,00
2343,79	898,00
2348,38	993,00
2352,97	866,00
2357,55	1007,00
2362,13	1003,00
2366,71	888,00
2371,28	907,00
2375,85	952,00
2380,41	956,00
2384,97	880,00
2389,52	878,00
2394,07	874,00
2398,62	989,00
2403,16	873,00
2407,70	878,00
2412,23	946,00
2416,76	924,00
2421,29	962,00
2425,81	994,00
2430,32	858,00
2434,84	769,00
2439,34	834,00
2443,85	928,00
2448,35	815,00
2452,84	776,00
2457,33	859,00
2461,82	869,00
2466,30	751,00
2470,78	846,00
2475,25	821,00
2479,72	799,00
2484,19	800,00
2488,65	853,00
2493,11	802,00
2497,56	868,00
2502,01	713,00
2506,46	785,00
2510,90	866,00
2515,34	840,00
2519,77	907,00
2524,20	768,00
2528,62	782,00
2533,04	850,00
2537,46	719,00
2541,87	716,00
2546,28	808,00
2550,68	695,00
2555,08	727,00
2559,48	774,00
2563,87	668,00
2568,26	721,00
2572,64	785,00
2577,02	782,00
2581,40	700,00
2585,77	686,00
2590,14	696,00
2594,50	704,00
2598,86	756,00
2603,22	787,00
2607,57	642,00
2611,92	722,00
2616,26	671,00
2620,60	810,00
2624,94	695,00
2629,27	796,00
2633,60	588,00
2637,92	781,00
2642,24	662,00
2646,56	733,00
2650,87	757,00
2655,18	693,00
2659,48	669,00
2663,78	741,00
2668,08	734,00
2672,37	719,00
2676,66	772,00
2680,95	675,00
2685,23	592,00
2689,50	668,00
2693,78	666,00
2698,05	680,00
2702,31	669,00
2706,57	728,00
2710,83	763,00
2715,08	691,00
2719,33	817,00
2723,58	828,00
2727,82	739,00
2732,06	720,00
2736,29	695,00
2740,53	748,00
2744,75	638,00
2748,97	755,00
2753,19	791,00
2757,41	762,00
2761,62	733,00
2765,83	873,00
2770,03	694,00
2774,23	678,00
2778,43	740,00
2782,62	643,00
2786,81	663,00
2791,00	748,00
2795,18	752,00
2799,35	735,00
2803,53	836,00
2807,70	698,00
2811,86	617,00
2816,03	773,00
2820,19	751,00
2824,34	794,00
2828,49	864,00
2832,64	903,00
2836,78	1047,00
2840,92	1212,00
2845,06	1427,00
2849,19	1435,00
2853,32	1518,00
2857,45	1491,00
2861,57	1492,00
2865,69	1382,00
2869,80	1288,00
2873,91	1377,00
2878,02	1466,00
2882,12	1621,00
2886,22	1594,00
2890,32	1458,00
2894,41	1403,00
2898,50	1330,00
2902,58	1208,00
2906,67	1230,00
2910,74	1133,00
2914,82	1056,00
2918,89	1042,00
2922,96	911,00
2927,02	889,00
2931,08	823,00
2935,13	757,00
2939,19	846,00
2943,24	819,00
2947,28	743,00
2951,32	685,00
2955,36	527,00
2959,40	643,00
2963,43	710,00
2967,46	583,00
2971,48	576,00
2975,50	668,00
2979,52	587,00
2983,53	639,00
2987,54	488,00
2991,55	606,00
2995,55	566,00
2999,55	493,00
3003,54	439,00
3007,54	555,00
3011,53	485,00
3015,51	484,00
3019,49	518,00
3023,47	459,00
3027,45	539,00
3031,42	528,00
3035,39	412,00
3039,35	435,00
3043,31	471,00
3047,27	453,00
3051,22	483,00
3055,17	445,00
3059,12	417,00
3063,06	420,00
3067,00	429,00
3070,94	457,00
3074,87	419,00
3078,80	413,00
3082,73	408,00
3086,65	401,00
3090,57	461,00
3094,49	404,00
3098,40	371,00
3102,31	307,00
3106,22	398,00
3110,12	478,00
3114,02	397,00
3117,92	376,00
3121,81	264,00
3125,70	323,00
3129,58	451,00
3133,47	399,00
3137,34	432,00
3141,22	352,00
3145,09	398,00
3148,96	326,00
3152,83	306,00
3156,69	422,00
3160,55	330,00
3164,40	320,00
3168,26	392,00
3172,10	409,00
3175,95	444,00
3179,79	395,00
3183,63	380,00
3187,47	359,00
3191,30	314,00
3195,13	389,00
3198,95	316,00
3202,78	384,00
3206,60	355,00
3210,41	268,00
3214,23	315,00
3218,03	329,00
3221,84	247,00
3225,64	325,00
3229,44	370,00
3233,24	311,00
3237,03	284,00
3240,82	363,00
3244,61	257,00
3248,39	352,00
3252,17	277,00
3255,95	305,00
3259,72	358,00
3263,49	297,00
3267,26	276,00
3271,03	228,00
3274,79	379,00
3278,54	329,00
3282,30	241,00
3286,05	301,00
3289,80	247,00
3293,54	363,00
3297,29	324,00
3301,02	222,00
3304,76	298,00
3308,49	341,00
3312,22	220,00
3315,95	358,00
3319,67	303,00
3323,39	320,00
3327,10	395,00
3330,82	211,00
3334,53	342,00
3338,24	321,00
3341,94	268,00
3345,64	264,00
3349,34	313,00
3353,03	230,00
3356,72	286,00
3360,41	328,00
3364,10	307,00
3367,78	218,00
3371,46	342,00
3375,13	275,00
3378,81	273,00
3382,48	329,00
3386,14	354,00
3389,81	275,00
3393,47	186,00
3397,12	340,00
3400,78	311,00
3404,43	227,00
3408,08	216,00
3411,72	205,00
3415,36	193,00
3419,00	269,00
3422,64	242,00
3426,27	205,00
3429,90	220,00
3433,53	224,00
3437,15	206,00
3440,77	219,00
3444,39	242,00
3448,00	314,00
3451,62	277,00
3455,22	165,00
3458,83	337,00
3462,43	233,00
3466,03	387,00
3469,63	310,00
3473,22	338,00
3476,81	244,00
3480,40	274,00
3483,99	280,00
3487,57	272,00
3491,15	263,00
3494,72	276,00
3498,29	211,00
3501,86	224,00
3505,43	288,00
3508,99	152,00
3512,56	223,00
3516,11	288,00
3519,67	182,00
3523,22	250,00
3526,77	237,00
3530,32	178,00
3533,86	320,00
3537,40	176,00
3540,94	317,00
3544,47	203,00
3548,00	185,00
3551,53	249,00
3555,06	202,00
3558,58	236,00
3562,10	172,00
3565,62	321,00
3569,13	241,00
3572,64	133,00
3576,15	198,00
3579,66	210,00
3583,16	238,00
3586,66	192,00
3590,16	163,00
3593,65	208,00
3597,14	211,00
3600,63	219,00
3604,11	276,00
3607,60	224,00
3611,08	197,00
3614,55	163,00
3618,03	155,00
3621,50	254,00
3624,97	222,00
3628,43	272,00
3631,90	250,00
3635,36	232,00
3638,81	206,00
3642,27	272,00
3645,72	177,00
3649,17	239,00
3652,61	129,00
3656,06	135,00
3659,50	166,00
3662,93	158,00
3666,37	169,00
3669,80	243,00
3673,23	238,00
3676,65	139,00
3680,08	170,00
3683,50	201,00
3686,92	217,00
3690,33	190,00
3693,74	212,00
3697,15	165,00
3700,56	200,00
3703,96	178,00
3707,36	191,00
3710,76	151,00
3714,16	183,00
3717,55	89,00
3720,94	197,00
3724,33	180,00
3727,71	221,00
3731,10	147,00
3734,48	119,00
3737,85	90,00
3741,23	46,00
3744,60	184,00
3747,97	208,00
3751,33	136,00
3754,69	219,00
3758,05	146,00
3761,41	153,00
3764,77	163,00
3768,12	64,00
3771,47	243,00
3774,82	201,00
3778,16	-2,00
3781,50	6,00
3784,84	4,00
3788,18	6,00
>>>>>End Processed Spectral Data<<<<<
