SpectraSuite Data File
++++++++++++++++++++++++++++++++++++
Date: Mon Mar 09 14:48:59 ICT 2026
User: Administrator
Dark Spectrum Present: Yes
Reference Spectrum Present: No
Number of Sampled Component Spectra: 1
Spectrometers: MAYP113682
Integration Time (usec): 3000000 (MAYP113682)
Spectra Averaged: 1 (MAYP113682)
Boxcar Smoothing: 0 (MAYP113682)
Correct for Electrical Dark: No (MAYP113682)
Strobe/Lamp Enabled: No (MAYP113682)
Correct for Detector Non-linearity: No (MAYP113682)
Correct for Stray Light: No (MAYP113682)
Number of Pixels in Processed Spectrum: 2068
>>>>>Begin Processed Spectral Data<<<<<
-37534,58	39,00
-37414,56	5,00
-37295,11	2,00
-37176,24	6,00
-37057,95	776,00
-36940,22	720,00
-36823,05	853,00
-36706,45	898,00
-36590,40	761,00
-36474,90	839,00
-36359,95	899,00
-36245,55	838,00
-36131,68	870,00
-36018,35	881,00
-35905,55	850,00
-35793,29	901,00
-35681,54	886,00
-35570,32	858,00
-35459,62	827,00
-35349,43	929,00
-35239,75	846,00
-35130,58	812,00
-35021,91	842,00
-34913,74	915,00
-34806,07	884,00
-34698,89	933,00
-34592,20	889,00
-34486,00	969,00
-34380,28	881,00
-34275,04	891,00
-34170,27	825,00
-34065,98	870,00
-33962,16	841,00
-33858,81	879,00
-33755,92	960,00
-33653,49	1062,00
-33551,52	945,00
-33450,01	905,00
-33348,94	921,00
-33248,33	895,00
-33148,16	865,00
-33048,43	1022,00
-32949,14	1021,00
-32850,29	1007,00
-32751,87	916,00
-32653,89	977,00
-32556,33	1080,00
-32459,20	970,00
-32362,49	878,00
-32266,19	899,00
-32170,32	988,00
-32074,86	1107,00
-31979,82	996,00
-31885,18	1132,00
-31790,95	1037,00
-31697,12	930,00
-31603,69	1062,00
-31510,67	974,00
-31418,04	895,00
-31325,80	963,00
-31233,95	1051,00
-31142,49	943,00
-31051,42	980,00
-30960,73	1023,00
-30870,43	1102,00
-30780,50	974,00
-30690,95	996,00
-30601,77	1131,00
-30512,97	948,00
-30424,53	1055,00
-30336,46	1012,00
-30248,76	931,00
-30161,42	1073,00
-30074,44	914,00
-29987,81	965,00
-29901,55	1094,00
-29815,63	910,00
-29730,07	975,00
-29644,86	1021,00
-29560,00	1006,00
-29475,48	942,00
-29391,30	1001,00
-29307,47	822,00
-29223,97	969,00
-29140,81	942,00
-29057,99	1092,00
-28975,50	925,00
-28893,34	1117,00
-28811,51	830,00
-28730,00	1005,00
-28648,82	867,00
-28567,97	1074,00
-28487,43	949,00
-28407,21	887,00
-28327,32	843,00
-28247,73	1080,00
-28168,46	829,00
-28089,50	1004,00
-28010,85	869,00
-27932,51	786,00
-27854,48	1056,00
-27776,75	906,00
-27699,32	867,00
-27622,19	1036,00
-27545,37	988,00
-27468,84	954,00
-27392,60	1023,00
-27316,66	949,00
-27241,01	914,00
-27165,66	1014,00
-27090,59	961,00
-27015,81	926,00
-26941,31	1053,00
-26867,10	972,00
-26793,17	1040,00
-26719,52	982,00
-26646,15	982,00
-26573,06	963,00
-26500,24	960,00
-26427,70	891,00
-26355,43	1040,00
-26283,43	967,00
-26211,71	1011,00
-26140,25	956,00
-26069,06	1239,00
-25998,13	775,00
-25927,46	895,00
-25857,06	1043,00
-25786,92	938,00
-25717,04	844,00
-25647,42	945,00
-25578,05	922,00
-25508,94	955,00
-25440,09	958,00
-25371,48	906,00
-25303,13	919,00
-25235,02	971,00
-25167,17	1124,00
-25099,56	964,00
-25032,19	928,00
-24965,07	907,00
-24898,20	866,00
-24831,56	1010,00
-24765,17	986,00
-24699,01	924,00
-24633,10	968,00
-24567,41	874,00
-24501,97	1052,00
-24436,75	943,00
-24371,77	1029,00
-24307,03	958,00
-24242,51	837,00
-24178,22	1066,00
-24114,16	898,00
-24050,32	946,00
-23986,71	894,00
-23923,32	989,00
-23860,16	897,00
-23797,22	896,00
-23734,50	945,00
-23672,00	885,00
-23609,71	857,00
-23547,65	803,00
-23485,80	982,00
-23424,16	861,00
-23362,74	1062,00
-23301,53	971,00
-23240,54	823,00
-23179,75	976,00
-23119,17	940,00
-23058,80	977,00
-22998,64	997,00
-22938,68	888,00
-22878,93	904,00
-22819,39	973,00
-22760,04	890,00
-22700,90	979,00
-22641,96	944,00
-22583,22	919,00
-22524,68	923,00
-22466,33	871,00
-22408,19	983,00
-22350,23	973,00
-22292,48	1042,00
-22234,92	1045,00
-22177,55	1040,00
-22120,37	1055,00
-22063,38	928,00
-22006,58	909,00
-21949,98	932,00
-21893,56	782,00
-21837,33	957,00
-21781,28	1091,00
-21725,42	904,00
-21669,74	988,00
-21614,25	972,00
-21558,94	891,00
-21503,81	1011,00
-21448,86	959,00
-21394,10	882,00
-21339,51	883,00
-21285,10	886,00
-21230,86	811,00
-21176,81	825,00
-21122,93	894,00
-21069,22	932,00
-21015,69	899,00
-20962,33	1021,00
-20909,14	926,00
-20856,13	915,00
-20803,28	919,00
-20750,61	858,00
-20698,10	825,00
-20645,76	920,00
-20593,59	1045,00
-20541,59	962,00
-20489,75	1004,00
-20438,07	852,00
-20386,56	1067,00
-20335,22	960,00
-20284,03	937,00
-20233,01	933,00
-20182,15	833,00
-20131,45	821,00
-20080,91	962,00
-20030,52	862,00
-19980,30	861,00
-19930,23	861,00
-19880,32	1060,00
-19830,56	1035,00
-19780,96	887,00
-19731,52	1011,00
-19682,23	979,00
-19633,09	901,00
-19584,10	841,00
-19535,26	892,00
-19486,58	1080,00
-19438,04	909,00
-19389,66	876,00
-19341,42	910,00
-19293,33	907,00
-19245,39	941,00
-19197,60	950,00
-19149,95	908,00
-19102,45	1021,00
-19055,09	953,00
-19007,87	987,00
-18960,80	885,00
-18913,87	1018,00
-18867,09	998,00
-18820,44	996,00
-18773,94	978,00
-18727,57	973,00
-18681,35	818,00
-18635,26	968,00
-18589,31	845,00
-18543,50	886,00
-18497,83	948,00
-18452,29	910,00
-18406,89	917,00
-18361,63	1050,00
-18316,50	972,00
-18271,50	969,00
-18226,63	938,00
-18181,90	969,00
-18137,30	879,00
-18092,84	881,00
-18048,50	936,00
-18004,29	837,00
-17960,22	965,00
-17916,27	918,00
-17872,45	944,00
-17828,76	913,00
-17785,20	996,00
-17741,77	1008,00
-17698,46	900,00
-17655,28	823,00
-17612,22	938,00
-17569,29	850,00
-17526,48	929,00
-17483,79	935,00
-17441,23	912,00
-17398,79	920,00
-17356,48	913,00
-17314,28	1151,00
-17272,21	987,00
-17230,26	745,00
-17188,42	1029,00
-17146,71	923,00
-17105,12	936,00
-17063,64	892,00
-17022,28	883,00
-16981,04	1079,00
-16939,92	927,00
-16898,91	1074,00
-16858,02	944,00
-16817,25	805,00
-16776,59	806,00
-16736,04	983,00
-16695,61	886,00
-16655,29	871,00
-16615,09	1014,00
-16574,99	969,00
-16535,01	909,00
-16495,15	981,00
-16455,39	971,00
-16415,74	1009,00
-16376,21	859,00
-16336,78	828,00
-16297,46	931,00
-16258,26	975,00
-16219,16	969,00
-16180,17	956,00
-16141,28	915,00
-16102,51	1007,00
-16063,84	872,00
-16025,27	979,00
-15986,82	868,00
-15948,46	776,00
-15910,22	955,00
-15872,07	981,00
-15834,04	889,00
-15796,10	908,00
-15758,27	1053,00
-15720,54	900,00
-15682,91	899,00
-15645,39	872,00
-15607,97	946,00
-15570,64	889,00
-15533,42	968,00
-15496,30	932,00
-15459,28	886,00
-15422,36	862,00
-15385,54	892,00
-15348,82	903,00
-15312,19	1092,00
-15275,66	893,00
-15239,23	787,00
-15202,90	926,00
-15166,67	806,00
-15130,53	923,00
-15094,48	1014,00
-15058,54	1014,00
-15022,68	890,00
-14986,93	937,00
-14951,26	961,00
-14915,69	824,00
-14880,22	832,00
-14844,84	853,00
-14809,55	972,00
-14774,35	911,00
-14739,25	1057,00
-14704,24	861,00
-14669,32	956,00
-14634,49	902,00
-14599,75	1014,00
-14565,10	891,00
-14530,55	1006,00
-14496,08	1004,00
-14461,70	912,00
-14427,41	851,00
-14393,21	905,00
-14359,10	866,00
-14325,07	974,00
-14291,14	883,00
-14257,29	978,00
-14223,52	910,00
-14189,85	1085,00
-14156,26	900,00
-14122,76	870,00
-14089,34	878,00
-14056,01	876,00
-14022,76	928,00
-13989,60	966,00
-13956,52	926,00
-13923,53	935,00
-13890,62	903,00
-13857,79	811,00
-13825,05	870,00
-13792,39	807,00
-13759,81	985,00
-13727,31	962,00
-13694,90	925,00
-13662,57	962,00
-13630,31	953,00
-13598,14	919,00
-13566,05	933,00
-13534,05	923,00
-13502,12	891,00
-13470,27	901,00
-13438,50	942,00
-13406,80	856,00
-13375,19	839,00
-13343,66	888,00
-13312,20	839,00
-13280,83	852,00
-13249,53	738,00
-13218,30	801,00
-13187,16	818,00
-13156,09	993,00
-13125,10	1049,00
-13094,18	920,00
-13063,34	1007,00
-13032,58	796,00
-13001,89	982,00
-12971,28	1001,00
-12940,74	888,00
-12910,27	908,00
-12879,88	816,00
-12849,57	989,00
-12819,33	958,00
-12789,16	992,00
-12759,06	894,00
-12729,04	1008,00
-12699,09	2006,00
-12669,21	864,00
-12639,41	904,00
-12609,68	942,00
-12580,02	864,00
-12550,43	924,00
-12520,91	795,00
-12491,46	943,00
-12462,08	880,00
-12432,77	876,00
-12403,54	956,00
-12374,37	945,00
-12345,27	948,00
-12316,24	896,00
-12287,29	1021,00
-12258,40	887,00
-12229,57	964,00
-12200,82	1029,00
-12172,14	903,00
-12143,52	886,00
-12114,97	820,00
-12086,49	1001,00
-12058,07	933,00
-12029,73	974,00
-12001,44	1020,00
-11973,23	939,00
-11945,08	1008,00
-11917,00	944,00
-11888,98	814,00
-11861,03	907,00
-11833,15	930,00
-11805,32	928,00
-11777,57	941,00
-11749,88	947,00
-11722,25	881,00
-11694,69	840,00
-11667,19	924,00
-11639,75	962,00
-11612,38	1036,00
-11585,07	891,00
-11557,83	990,00
-11530,65	1010,00
-11503,53	1047,00
-11476,47	957,00
-11449,48	888,00
-11422,54	979,00
-11395,67	831,00
-11368,86	1021,00
-11342,11	911,00
-11315,43	962,00
-11288,80	794,00
-11262,23	1010,00
-11235,73	906,00
-11209,28	961,00
-11182,90	947,00
-11156,57	925,00
-11130,31	1027,00
-11104,10	920,00
-11077,96	890,00
-11051,87	923,00
-11025,84	1029,00
-10999,87	928,00
-10973,96	988,00
-10948,11	861,00
-10922,31	942,00
-10896,58	941,00
-10870,90	1177,00
-10845,28	884,00
-10819,71	867,00
-10794,20	871,00
-10768,75	931,00
-10743,36	940,00
-10718,02	952,00
-10692,74	934,00
-10667,52	874,00
-10642,35	981,00
-10617,24	1067,00
-10592,18	952,00
-10567,18	900,00
-10542,23	988,00
-10517,34	956,00
-10492,51	1003,00
-10467,72	927,00
-10443,00	886,00
-10418,32	958,00
-10393,70	864,00
-10369,14	812,00
-10344,63	939,00
-10320,17	1104,00
-10295,77	964,00
-10271,42	933,00
-10247,12	976,00
-10222,88	1027,00
-10198,68	792,00
-10174,54	936,00
-10150,46	992,00
-10126,42	992,00
-10102,44	1050,00
-10078,51	949,00
-10054,63	987,00
-10030,80	939,00
-10007,03	1104,00
-9983,30	1046,00
-9959,63	1001,00
-9936,01	1022,00
-9912,44	1088,00
-9888,92	888,00
-9865,44	913,00
-9842,02	1027,00
-9818,65	999,00
-9795,33	877,00
-9772,06	997,00
-9748,84	1017,00
-9725,67	961,00
-9702,55	1031,00
-9679,47	1065,00
-9656,45	994,00
-9633,47	959,00
-9610,55	973,00
-9587,67	1038,00
-9564,84	1261,00
-9542,06	1032,00
-9519,32	1156,00
-9496,64	1108,00
-9474,00	1032,00
-9451,41	1104,00
-9428,87	1166,00
-9406,37	1188,00
-9383,92	1118,00
-9361,52	1138,00
-9339,17	1305,00
-9316,86	1165,00
-9294,60	1080,00
-9272,38	1284,00
-9250,21	1250,00
-9228,09	1311,00
-9206,01	1304,00
-9183,98	1211,00
-9162,00	1210,00
-9140,06	1166,00
-9118,16	1150,00
-9096,31	1248,00
-9074,51	1226,00
-9052,75	1316,00
-9031,04	1345,00
-9009,37	1108,00
-8987,74	1080,00
-8966,16	1220,00
-8944,63	1061,00
-8923,14	991,00
-8901,69	1103,00
-8880,29	1102,00
-8858,93	1190,00
-8837,61	1262,00
-8816,34	1165,00
-8795,11	1117,00
-8773,92	1214,00
-8752,78	1203,00
-8731,68	1120,00
-8710,62	1161,00
-8689,61	996,00
-8668,63	1127,00
-8647,70	1319,00
-8626,82	1214,00
-8605,97	1249,00
-8585,17	1172,00
-8564,41	1021,00
-8543,69	1134,00
-8523,01	1023,00
-8502,37	1254,00
-8481,78	1169,00
-8461,23	891,00
-8440,71	1052,00
-8420,24	1063,00
-8399,81	1207,00
-8379,42	1163,00
-8359,08	1208,00
-8338,77	1115,00
-8318,50	1145,00
-8298,27	1068,00
-8278,09	1077,00
-8257,94	981,00
-8237,83	1144,00
-8217,76	1184,00
-8197,74	1095,00
-8177,75	1172,00
-8157,80	1170,00
-8137,89	1131,00
-8118,02	1152,00
-8098,19	1271,00
-8078,40	1105,00
-8058,65	1106,00
-8038,93	1161,00
-8019,26	1089,00
-7999,62	1158,00
-7980,02	961,00
-7960,46	1078,00
-7940,94	1024,00
-7921,46	1114,00
-7902,01	1005,00
-7882,60	1197,00
-7863,23	1098,00
-7843,90	1146,00
-7824,61	1032,00
-7805,35	1173,00
-7786,13	1100,00
-7766,95	1070,00
-7747,80	1055,00
-7728,69	1194,00
-7709,62	1062,00
-7690,59	1204,00
-7671,59	1103,00
-7652,63	1049,00
-7633,70	1083,00
-7614,81	1134,00
-7595,96	1025,00
-7577,15	1097,00
-7558,37	1041,00
-7539,62	1105,00
-7520,91	979,00
-7502,24	1132,00
-7483,60	1169,00
-7465,00	1121,00
-7446,44	1121,00
-7427,91	964,00
-7409,41	1128,00
-7390,95	1075,00
-7372,53	967,00
-7354,14	933,00
-7335,78	989,00
-7317,46	1036,00
-7299,18	1012,00
-7280,92	1123,00
-7262,71	1243,00
-7244,52	1056,00
-7226,38	1106,00
-7208,26	1081,00
-7190,18	1190,00
-7172,14	951,00
-7154,12	1098,00
-7136,15	989,00
-7118,20	1134,00
-7100,29	1208,00
-7082,41	1210,00
-7064,57	1120,00
-7046,76	1003,00
-7028,98	955,00
-7011,24	1283,00
-6993,53	870,00
-6975,85	1035,00
-6958,20	957,00
-6940,59	968,00
-6923,01	845,00
-6905,46	1061,00
-6887,94	1045,00
-6870,46	-908,00
-6853,01	1161,00
-6835,59	1025,00
-6818,21	1017,00
-6800,85	1168,00
-6783,53	995,00
-6766,24	896,00
-6748,98	960,00
-6731,76	903,00
-6714,56	963,00
-6697,40	857,00
-6680,26	840,00
-6663,16	1007,00
-6646,09	1077,00
-6629,05	974,00
-6612,05	1004,00
-6595,07	907,00
-6578,13	1165,00
-6561,21	857,00
-6544,33	976,00
-6527,47	973,00
-6510,65	1032,00
-6493,86	966,00
-6477,10	850,00
-6460,36	946,00
-6443,66	891,00
-6426,99	940,00
-6410,35	860,00
-6393,74	1022,00
-6377,16	940,00
-6360,61	980,00
-6344,09	902,00
-6327,59	829,00
-6311,13	831,00
-6294,70	1035,00
-6278,29	1143,00
-6261,92	965,00
-6245,58	953,00
-6229,26	1028,00
-6212,97	1002,00
-6196,72	986,00
-6180,49	1000,00
-6164,29	882,00
-6148,12	1019,00
-6131,98	944,00
-6115,86	953,00
-6099,78	864,00
-6083,72	886,00
-6067,69	930,00
-6051,69	950,00
-6035,72	931,00
-6019,78	917,00
-6003,87	1054,00
-5987,98	948,00
-5972,12	1027,00
-5956,29	929,00
-5940,49	867,00
-5924,71	999,00
-5908,96	828,00
-5893,24	997,00
-5877,55	909,00
-5861,89	975,00
-5846,25	906,00
-5830,64	1011,00
-5815,05	887,00
-5799,50	859,00
-5783,97	932,00
-5768,47	1124,00
-5752,99	1146,00
-5737,55	961,00
-5722,12	912,00
-5706,73	983,00
-5691,36	980,00
-5676,02	896,00
-5660,71	1098,00
-5645,42	867,00
-5630,16	1029,00
-5614,92	918,00
-5599,71	924,00
-5584,53	1020,00
-5569,37	863,00
-5554,24	1863,00
-5539,14	958,00
-5524,06	1080,00
-5509,01	867,00
-5493,98	864,00
-5478,98	1034,00
-5464,00	870,00
-5449,05	858,00
-5434,13	992,00
-5419,23	1042,00
-5404,36	852,00
-5389,51	950,00
-5374,69	876,00
-5359,89	1003,00
-5345,12	1051,00
-5330,37	1040,00
-5315,65	1079,00
-5300,95	1034,00
-5286,28	886,00
-5271,63	800,00
-5257,01	946,00
-5242,41	937,00
-5227,84	962,00
-5213,29	984,00
-5198,76	963,00
-5184,26	864,00
-5169,79	926,00
-5155,33	979,00
-5140,91	904,00
-5126,51	889,00
-5112,13	1035,00
-5097,77	1059,00
-5083,44	973,00
-5069,13	847,00
-5054,85	896,00
-5040,59	812,00
-5026,36	1004,00
-5012,15	1030,00
-4997,96	885,00
-4983,80	935,00
-4969,66	1060,00
-4955,54	844,00
-4941,44	923,00
-4927,37	947,00
-4913,33	1033,00
-4899,30	834,00
-4885,30	990,00
-4871,33	990,00
-4857,37	925,00
-4843,44	957,00
-4829,53	1003,00
-4815,65	1040,00
-4801,79	899,00
-4787,95	925,00
-4774,13	875,00
-4760,34	907,00
-4746,56	995,00
-4732,82	910,00
-4719,09	898,00
-4705,38	1011,00
-4691,70	1018,00
-4678,04	958,00
-4664,41	935,00
-4650,79	1095,00
-4637,20	901,00
-4623,63	915,00
-4610,08	944,00
-4596,56	964,00
-4583,05	955,00
-4569,57	959,00
-4556,11	1073,00
-4542,67	890,00
-4529,25	824,00
-4515,86	1049,00
-4502,49	1014,00
-4489,13	1059,00
-4475,80	984,00
-4462,49	822,00
-4449,21	1150,00
-4435,94	875,00
-4422,70	1050,00
-4409,47	827,00
-4396,27	854,00
-4383,09	967,00
-4369,93	943,00
-4356,79	971,00
-4343,67	912,00
-4330,58	921,00
-4317,50	840,00
-4304,45	861,00
-4291,41	930,00
-4278,40	866,00
-4265,41	858,00
-4252,44	905,00
-4239,49	864,00
-4226,55	982,00
-4213,65	1032,00
-4200,76	1007,00
-4187,89	837,00
-4175,04	979,00
-4162,21	972,00
-4149,40	921,00
-4136,61	894,00
-4123,85	918,00
-4111,10	958,00
-4098,37	1016,00
-4085,66	1015,00
-4072,98	948,00
-4060,31	811,00
-4047,66	1040,00
-4035,04	1036,00
-4022,43	892,00
-4009,84	1032,00
-3997,27	823,00
-3984,72	948,00
-3972,19	1021,00
-3959,69	832,00
-3947,20	885,00
-3934,73	919,00
-3922,27	836,00
-3909,84	911,00
-3897,43	898,00
-3885,04	943,00
-3872,67	904,00
-3860,31	971,00
-3847,98	1032,00
-3835,66	962,00
-3823,36	966,00
-3811,09	905,00
-3798,83	952,00
-3786,59	1018,00
-3774,37	1070,00
-3762,17	873,00
-3749,98	949,00
-3737,82	807,00
-3725,67	1185,00
-3713,55	903,00
-3701,44	1010,00
-3689,35	996,00
-3677,28	965,00
-3665,22	820,00
-3653,19	943,00
-3641,17	882,00
-3629,18	899,00
-3617,20	889,00
-3605,24	912,00
-3593,30	931,00
-3581,37	945,00
-3569,47	1036,00
-3557,58	982,00
-3545,71	942,00
-3533,86	963,00
-3522,02	985,00
-3510,21	920,00
-3498,41	964,00
-3486,63	904,00
-3474,87	989,00
-3463,12	904,00
-3451,40	864,00
-3439,69	1006,00
-3428,00	924,00
-3416,33	1043,00
-3404,67	855,00
-3393,03	979,00
-3381,41	973,00
-3369,81	1015,00
-3358,22	884,00
-3346,66	1001,00
-3335,10	965,00
-3323,57	911,00
-3312,06	921,00
-3300,56	946,00
-3289,08	836,00
-3277,61	909,00
-3266,16	956,00
-3254,73	889,00
-3243,32	917,00
-3231,92	927,00
-3220,55	963,00
-3209,18	1017,00
-3197,84	912,00
-3186,51	792,00
-3175,20	878,00
-3163,90	871,00
-3152,63	856,00
-3141,36	951,00
-3130,12	969,00
-3118,89	1045,00
-3107,68	1013,00
-3096,49	980,00
-3085,31	980,00
-3074,15	915,00
-3063,00	900,00
-3051,87	986,00
-3040,76	904,00
-3029,67	956,00
-3018,59	1158,00
-3007,52	1009,00
-2996,48	1064,00
-2985,44	867,00
-2974,43	995,00
-2963,43	937,00
-2952,45	846,00
-2941,48	973,00
-2930,53	1003,00
-2919,60	868,00
-2908,68	941,00
-2897,78	902,00
-2886,89	1091,00
-2876,02	969,00
-2865,17	876,00
-2854,33	855,00
-2843,50	890,00
-2832,70	884,00
-2821,90	981,00
-2811,13	1006,00
-2800,37	885,00
-2789,62	937,00
-2778,89	931,00
-2768,18	1026,00
-2757,48	947,00
-2746,80	1028,00
-2736,13	944,00
-2725,48	966,00
-2714,84	964,00
-2704,22	914,00
-2693,61	939,00
-2683,02	867,00
-2672,45	916,00
-2661,89	1078,00
-2651,34	1019,00
-2640,81	935,00
-2630,30	989,00
-2619,80	1032,00
-2609,31	991,00
-2598,84	816,00
-2588,39	979,00
-2577,95	842,00
-2567,52	916,00
-2557,11	982,00
-2546,71	956,00
-2536,33	1014,00
-2525,97	1002,00
-2515,62	870,00
-2505,28	1044,00
-2494,96	910,00
-2484,65	956,00
-2474,36	1141,00
-2464,08	1014,00
-2453,82	1044,00
-2443,57	1023,00
-2433,33	815,00
-2423,11	890,00
-2412,91	879,00
-2402,72	891,00
-2392,54	917,00
-2382,38	935,00
-2372,23	1058,00
-2362,09	5495,00
-2351,97	803,00
-2341,87	899,00
-2331,78	961,00
-2321,70	1020,00
-2311,64	966,00
-2301,59	880,00
-2291,55	795,00
-2281,53	996,00
-2271,53	928,00
-2261,53	1002,00
-2251,55	857,00
-2241,59	923,00
-2231,64	1038,00
-2221,70	899,00
-2211,78	976,00
-2201,87	992,00
-2191,97	876,00
-2182,09	958,00
-2172,22	1095,00
-2162,37	922,00
-2152,53	882,00
-2142,70	813,00
-2132,89	806,00
-2123,09	1039,00
-2113,30	996,00
-2103,53	913,00
-2093,77	874,00
-2084,02	843,00
-2074,29	1040,00
-2064,57	963,00
-2054,86	1014,00
-2045,17	1005,00
-2035,49	1116,00
-2025,82	879,00
-2016,17	889,00
-2006,53	990,00
-1996,91	884,00
-1987,29	854,00
-1977,69	967,00
-1968,11	927,00
-1958,53	898,00
-1948,97	1007,00
-1939,42	884,00
-1929,89	834,00
-1920,37	873,00
-1910,86	971,00
-1901,36	930,00
-1891,88	1016,00
-1882,41	939,00
-1872,95	983,00
-1863,51	929,00
-1854,08	888,00
-1844,66	1001,00
-1835,26	922,00
-1825,86	993,00
-1816,48	963,00
-1807,11	899,00
-1797,76	1021,00
-1788,42	998,00
-1779,09	967,00
-1769,77	948,00
-1760,47	1188,00
-1751,17	866,00
-1741,89	948,00
-1732,63	1034,00
-1723,37	1166,00
-1714,13	1055,00
-1704,90	867,00
-1695,68	1075,00
-1686,48	848,00
-1677,29	904,00
-1668,11	1107,00
-1658,94	1035,00
-1649,78	948,00
-1640,64	900,00
-1631,51	914,00
-1622,39	1020,00
-1613,28	1008,00
-1604,19	1108,00
-1595,10	974,00
-1586,03	862,00
-1576,97	997,00
-1567,93	938,00
-1558,89	1059,00
-1549,87	1005,00
-1540,86	920,00
-1531,86	894,00
-1522,87	903,00
-1513,90	1074,00
-1504,93	977,00
-1495,98	1008,00
-1487,04	1141,00
-1478,12	996,00
-1469,20	890,00
-1460,30	1021,00
-1451,40	1008,00
-1442,52	864,00
-1433,65	985,00
-1424,80	977,00
-1415,95	899,00
-1407,12	1101,00
-1398,30	1005,00
-1389,48	918,00
-1380,69	989,00
-1371,90	951,00
-1363,12	991,00
-1354,36	1134,00
-1345,60	951,00
-1336,86	965,00
-1328,13	1174,00
-1319,41	1020,00
-1310,70	898,00
-1302,01	894,00
-1293,32	871,00
-1284,65	893,00
-1275,99	967,00
-1267,33	1089,00
-1258,69	946,00
-1250,06	1029,00
-1241,45	977,00
-1232,84	1075,00
-1224,25	960,00
-1215,66	983,00
-1207,09	979,00
-1198,53	917,00
-1189,97	868,00
-1181,43	998,00
-1172,91	1031,00
-1164,39	1082,00
-1155,88	919,00
-1147,38	790,00
-1138,90	1047,00
-1130,43	1002,00
-1121,96	928,00
-1113,51	997,00
-1105,07	946,00
-1096,64	969,00
-1088,22	1020,00
-1079,81	962,00
-1071,41	1036,00
-1063,02	985,00
-1054,65	1079,00
-1046,28	866,00
-1037,92	1078,00
-1029,58	979,00
-1021,24	950,00
-1012,92	1342,00
-1004,61	974,00
-996,30	1218,00
-988,01	811,00
-979,73	994,00
-971,46	1037,00
-963,20	927,00
-954,95	898,00
-946,71	976,00
-938,48	900,00
-930,26	1019,00
-922,06	1027,00
-913,86	1012,00
-905,67	894,00
-897,49	979,00
-889,33	907,00
-881,17	979,00
-873,02	1034,00
-864,89	870,00
-856,76	926,00
-848,65	980,00
-840,54	1005,00
-832,45	1047,00
-824,36	837,00
-816,29	965,00
-808,22	976,00
-800,17	1047,00
-792,12	1013,00
-784,09	1160,00
-776,06	901,00
-768,05	934,00
-760,04	840,00
-752,05	990,00
-744,07	1103,00
-736,09	1009,00
-728,13	861,00
-720,17	974,00
-712,23	924,00
-704,29	942,00
-696,37	972,00
-688,45	943,00
-680,55	911,00
-672,65	970,00
-664,77	871,00
-656,89	944,00
-649,03	849,00
-641,17	938,00
-633,32	1001,00
-625,49	913,00
-617,66	940,00
-609,84	1007,00
-602,03	901,00
-594,23	931,00
-586,45	947,00
-578,67	836,00
-570,90	874,00
-563,14	885,00
-555,39	955,00
-547,65	1106,00
-539,91	984,00
-532,19	930,00
-524,48	898,00
-516,78	912,00
-509,08	994,00
-501,40	882,00
-493,72	881,00
-486,06	981,00
-478,40	1118,00
-470,76	949,00
-463,12	954,00
-455,49	867,00
-447,87	929,00
-440,26	879,00
-432,66	874,00
-425,07	985,00
-417,49	918,00
-409,92	871,00
-402,35	833,00
-394,80	900,00
-387,25	1015,00
-379,72	945,00
-372,19	913,00
-364,67	985,00
-357,17	962,00
-349,67	927,00
-342,18	962,00
-334,69	1066,00
-327,22	944,00
-319,76	880,00
-312,30	1021,00
-304,86	968,00
-297,42	1025,00
-290,00	902,00
-282,58	934,00
-275,17	1032,00
-267,77	1094,00
-260,37	922,00
-252,99	1035,00
-245,62	923,00
-238,25	920,00
-230,90	976,00
-223,55	1019,00
-216,21	1014,00
-208,88	1125,00
-201,56	988,00
-194,25	1025,00
-186,94	966,00
-179,65	1026,00
-172,36	1074,00
-165,08	1017,00
-157,81	1191,00
-150,55	1244,00
-143,30	1175,00
-136,06	1139,00
-128,82	1214,00
-121,60	1096,00
-114,38	1242,00
-107,17	1258,00
-99,97	1352,00
-92,78	1286,00
-85,60	1489,00
-78,42	1549,00
-71,25	1597,00
-64,10	1768,00
-56,95	1829,00
-49,81	1962,00
-42,67	2316,00
-35,55	2646,00
-28,43	3208,00
-21,33	4628,00
-14,23	13709,00
-7,14	57775,00
-0,05	57564,00
7,02	57281,00
14,09	46467,00
21,14	12808,00
28,19	5815,00
35,23	4014,00
42,27	3245,00
49,29	2712,00
56,31	2469,00
63,32	2355,00
70,32	1983,00
77,31	1762,00
84,29	1650,00
91,27	1744,00
98,23	1708,00
105,19	1483,00
112,14	1664,00
119,09	1792,00
126,02	2267,00
132,95	2475,00
139,87	2527,00
146,78	2677,00
153,68	2449,00
160,58	2441,00
167,46	2389,00
174,34	2464,00
181,21	2582,00
188,08	2449,00
194,93	2587,00
201,78	2516,00
208,62	2498,00
215,45	2430,00
222,27	2514,00
229,09	2631,00
235,90	2451,00
242,70	2433,00
249,49	2612,00
256,27	2385,00
263,05	2487,00
269,82	2319,00
276,58	2565,00
283,33	2343,00
290,08	2449,00
296,82	2350,00
303,55	2231,00
310,27	2236,00
316,98	2328,00
323,69	2347,00
330,39	2284,00
337,08	2425,00
343,76	2396,00
350,44	2414,00
357,11	2537,00
363,77	2352,00
370,42	2323,00
377,07	2388,00
383,71	2271,00
390,34	2352,00
396,96	2231,00
403,58	2163,00
410,19	2413,00
416,79	2462,00
423,38	2442,00
429,97	2331,00
436,55	2205,00
443,12	2353,00
449,68	2161,00
456,24	2320,00
462,79	2397,00
469,33	2286,00
475,86	2298,00
482,39	2314,00
488,91	2254,00
495,42	2190,00
501,93	2282,00
508,42	2113,00
514,91	2340,00
521,40	2211,00
527,87	2221,00
534,34	2172,00
540,80	2341,00
547,25	2318,00
553,70	2241,00
560,14	2302,00
566,57	2252,00
573,00	2307,00
579,41	2265,00
585,83	2221,00
592,23	2279,00
598,62	2222,00
605,01	2153,00
611,40	2262,00
617,77	2383,00
624,14	2252,00
630,50	2259,00
636,85	2343,00
643,20	2326,00
649,54	2180,00
655,87	2193,00
662,20	2416,00
668,52	2338,00
674,83	2317,00
681,13	2205,00
687,43	2273,00
693,72	2202,00
700,00	2158,00
706,28	2172,00
712,55	2173,00
718,81	2330,00
725,07	2165,00
731,32	2091,00
737,56	2192,00
743,79	2235,00
750,02	2225,00
756,24	2172,00
762,46	2256,00
768,67	2556,00
774,87	2360,00
781,06	2261,00
787,25	2199,00
793,43	2299,00
799,60	2162,00
805,77	2339,00
811,93	2180,00
818,08	2257,00
824,23	2184,00
830,37	2559,00
836,50	2293,00
842,63	2290,00
848,75	2268,00
854,87	2278,00
860,97	2242,00
867,07	2343,00
873,17	2216,00
879,25	2196,00
885,33	2222,00
891,41	2260,00
897,47	2287,00
903,53	2315,00
909,59	2369,00
915,63	2380,00
921,67	2309,00
927,71	2404,00
933,74	2272,00
939,76	2142,00
945,77	2187,00
951,78	2323,00
957,78	2224,00
963,78	2378,00
969,77	2300,00
975,75	2245,00
981,72	2150,00
987,69	3412,00
993,66	2387,00
999,61	2355,00
1005,56	2267,00
1011,51	2257,00
1017,44	2237,00
1023,37	2334,00
1029,30	2326,00
1035,22	2379,00
1041,13	2228,00
1047,03	2351,00
1052,93	2323,00
1058,83	2579,00
1064,71	2778,00
1070,59	2575,00
1076,47	2378,00
1082,33	2337,00
1088,20	2401,00
1094,05	2433,00
1099,90	2286,00
1105,74	2306,00
1111,58	2350,00
1117,41	2440,00
1123,23	2582,00
1129,05	2852,00
1134,86	2725,00
1140,67	2543,00
1146,47	2510,00
1152,26	2402,00
1158,05	2216,00
1163,83	2378,00
1169,60	2385,00
1175,37	2421,00
1181,13	2366,00
1186,89	2444,00
1192,64	2379,00
1198,38	2501,00
1204,12	2310,00
1209,85	2348,00
1215,58	2446,00
1221,30	2535,00
1227,02	2369,00
1232,72	2321,00
1238,43	2288,00
1244,12	2420,00
1249,81	2371,00
1255,50	2415,00
1261,17	2406,00
1266,85	2378,00
1272,51	2445,00
1278,17	2511,00
1283,83	2426,00
1289,47	2645,00
1295,12	3087,00
1300,75	2922,00
1306,38	2689,00
1312,01	2472,00
1317,63	2474,00
1323,24	2436,00
1328,85	2593,00
1334,45	2407,00
1340,04	2417,00
1345,63	2412,00
1351,22	2659,00
1356,80	2550,00
1362,37	2530,00
1367,93	2416,00
1373,49	2520,00
1379,05	2431,00
1384,60	2478,00
1390,14	2338,00
1395,68	2450,00
1401,21	2451,00
1406,74	2593,00
1412,26	2630,00
1417,77	2878,00
1423,28	2638,00
1428,78	2728,00
1434,28	2920,00
1439,77	2997,00
1445,26	3010,00
1450,74	3080,00
1456,22	2910,00
1461,68	2853,00
1467,15	2863,00
1472,61	2652,00
1478,06	2689,00
1483,51	2578,00
1488,95	2449,00
1494,38	2524,00
1499,81	2410,00
1505,24	2353,00
1510,65	2431,00
1516,07	2440,00
1521,48	2275,00
1526,88	2183,00
1532,27	2331,00
1537,67	2355,00
1543,05	2406,00
1548,43	2178,00
1553,81	2444,00
1559,18	2216,00
1564,54	2383,00
1569,90	2301,00
1575,25	2131,00
1580,60	2157,00
1585,94	2332,00
1591,28	2231,00
1596,61	2344,00
1601,93	2287,00
1607,25	2445,00
1612,57	2283,00
1617,88	2368,00
1623,18	2194,00
1628,48	2404,00
1633,77	2250,00
1639,06	2256,00
1644,34	2215,00
1649,62	2163,00
1654,89	2428,00
1660,16	2175,00
1665,42	2340,00
1670,67	2168,00
1675,92	2309,00
1681,17	2176,00
1686,41	2293,00
1691,64	2374,00
1696,87	2178,00
1702,10	2111,00
1707,32	2159,00
1712,53	2276,00
1717,74	2216,00
1722,94	2287,00
1728,14	2176,00
1733,33	2059,00
1738,52	2103,00
1743,70	2286,00
1748,88	2032,00
1754,05	2151,00
1759,22	2058,00
1764,38	2306,00
1769,53	2080,00
1774,69	2254,00
1779,83	2176,00
1784,97	2079,00
1790,11	2109,00
1795,24	2193,00
1800,36	2167,00
1805,48	2012,00
1810,60	2072,00
1815,71	2145,00
1820,82	2070,00
1825,92	2074,00
1831,01	2033,00
1836,10	2010,00
1841,19	2074,00
1846,26	1998,00
1851,34	2032,00
1856,41	2222,00
1861,47	2063,00
1866,53	2089,00
1871,59	2080,00
1876,64	2025,00
1881,68	2040,00
1886,72	2117,00
1891,76	2089,00
1896,79	2071,00
1901,81	1941,00
1906,83	2078,00
1911,85	1980,00
1916,86	2035,00
1921,86	2124,00
1926,86	2061,00
1931,86	2007,00
1936,85	1963,00
1941,83	2050,00
1946,81	1991,00
1951,79	1997,00
1956,76	1888,00
1961,72	1893,00
1966,68	1876,00
1971,64	1936,00
1976,59	1850,00
1981,54	1915,00
1986,48	1879,00
1991,42	1925,00
1996,35	2234,00
2001,27	1869,00
2006,20	1789,00
2011,11	1984,00
2016,03	2000,00
2020,93	1874,00
2025,84	1959,00
2030,73	1874,00
2035,63	1721,00
2040,52	1870,00
2045,40	1936,00
2050,28	1814,00
2055,15	1909,00
2060,02	1780,00
2064,89	1980,00
2069,75	1964,00
2074,60	1897,00
2079,46	1855,00
2084,30	1845,00
2089,14	1862,00
2093,98	1901,00
2098,81	1897,00
2103,64	1944,00
2108,46	1871,00
2113,28	1784,00
2118,09	1905,00
2122,90	1892,00
2127,70	1820,00
2132,50	1956,00
2137,30	1773,00
2142,09	1738,00
2146,87	1790,00
2151,66	1965,00
2156,43	1854,00
2161,20	1869,00
2165,97	1931,00
2170,73	1792,00
2175,49	1924,00
2180,24	1764,00
2184,99	1903,00
2189,74	1935,00
2194,48	1767,00
2199,21	2036,00
2203,94	1671,00
2208,67	1670,00
2213,39	1652,00
2218,11	1846,00
2222,82	1696,00
2227,53	1784,00
2232,23	1806,00
2236,93	1808,00
2241,63	1856,00
2246,32	1665,00
2251,00	1699,00
2255,68	1802,00
2260,36	1782,00
2265,03	1804,00
2269,70	1941,00
2274,36	1649,00
2279,02	1683,00
2283,68	1728,00
2288,33	1658,00
2292,97	1797,00
2297,61	1755,00
2302,25	1639,00
2306,88	1634,00
2311,51	1657,00
2316,14	1762,00
2320,75	1705,00
2325,37	1651,00
2329,98	1833,00
2334,59	1626,00
2339,19	1738,00
2343,79	1583,00
2348,38	1596,00
2352,97	1613,00
2357,55	1819,00
2362,13	1686,00
2366,71	1546,00
2371,28	1740,00
2375,85	1691,00
2380,41	1701,00
2384,97	1622,00
2389,52	1747,00
2394,07	1714,00
2398,62	1678,00
2403,16	1600,00
2407,70	1632,00
2412,23	1675,00
2416,76	1750,00
2421,29	1627,00
2425,81	1679,00
2430,32	1643,00
2434,84	1509,00
2439,34	1653,00
2443,85	1688,00
2448,35	1549,00
2452,84	1558,00
2457,33	1553,00
2461,82	1524,00
2466,30	1489,00
2470,78	1661,00
2475,25	1532,00
2479,72	1589,00
2484,19	1559,00
2488,65	1608,00
2493,11	1500,00
2497,56	1559,00
2502,01	1405,00
2506,46	1607,00
2510,90	1517,00
2515,34	1529,00
2519,77	1537,00
2524,20	1454,00
2528,62	1470,00
2533,04	1547,00
2537,46	1368,00
2541,87	1457,00
2546,28	1464,00
2550,68	1453,00
2555,08	1468,00
2559,48	1525,00
2563,87	1401,00
2568,26	1413,00
2572,64	1444,00
2577,02	1540,00
2581,40	1323,00
2585,77	1424,00
2590,14	1412,00
2594,50	1282,00
2598,86	1517,00
2603,22	1393,00
2607,57	1345,00
2611,92	1479,00
2616,26	1497,00
2620,60	1508,00
2624,94	1323,00
2629,27	1555,00
2633,60	1291,00
2637,92	1560,00
2642,24	1547,00
2646,56	1440,00
2650,87	1402,00
2655,18	1481,00
2659,48	1318,00
2663,78	1356,00
2668,08	1369,00
2672,37	1414,00
2676,66	1468,00
2680,95	1421,00
2685,23	1419,00
2689,50	1354,00
2693,78	1335,00
2698,05	1326,00
2702,31	1410,00
2706,57	1442,00
2710,83	1576,00
2715,08	1436,00
2719,33	1680,00
2723,58	1491,00
2727,82	1410,00
2732,06	1369,00
2736,29	1345,00
2740,53	1557,00
2744,75	1442,00
2748,97	1505,00
2753,19	1571,00
2757,41	1428,00
2761,62	1501,00
2765,83	1542,00
2770,03	1314,00
2774,23	1330,00
2778,43	1386,00
2782,62	1375,00
2786,81	1336,00
2791,00	1555,00
2795,18	1597,00
2799,35	1445,00
2803,53	1430,00
2807,70	1507,00
2811,86	1334,00
2816,03	1596,00
2820,19	1466,00
2824,34	1453,00
2828,49	1520,00
2832,64	1602,00
2836,78	1791,00
2840,92	1706,00
2845,06	1978,00
2849,19	2065,00
2853,32	2069,00
2857,45	2168,00
2861,57	2019,00
2865,69	1989,00
2869,80	1944,00
2873,91	1998,00
2878,02	2125,00
2882,12	2249,00
2886,22	2156,00
2890,32	2172,00
2894,41	2091,00
2898,50	1901,00
2902,58	1846,00
2906,67	1900,00
2910,74	1708,00
2914,82	1757,00
2918,89	1797,00
2922,96	1579,00
2927,02	1591,00
2931,08	1507,00
2935,13	1367,00
2939,19	1553,00
2943,24	1543,00
2947,28	1416,00
2951,32	1325,00
2955,36	1253,00
2959,40	1364,00
2963,43	1427,00
2967,46	1261,00
2971,48	1225,00
2975,50	1383,00
2979,52	1355,00
2983,53	1319,00
2987,54	1292,00
2991,55	1270,00
2995,55	1168,00
2999,55	1149,00
3003,54	1211,00
3007,54	1243,00
3011,53	1198,00
3015,51	1238,00
3019,49	1290,00
3023,47	1136,00
3027,45	1204,00
3031,42	1168,00
3035,39	1113,00
3039,35	1183,00
3043,31	1221,00
3047,27	1206,00
3051,22	1235,00
3055,17	1104,00
3059,12	1049,00
3063,06	1214,00
3067,00	1056,00
3070,94	1157,00
3074,87	1179,00
3078,80	1167,00
3082,73	1107,00
3086,65	1214,00
3090,57	1113,00
3094,49	1072,00
3098,40	1104,00
3102,31	1092,00
3106,22	1212,00
3110,12	1042,00
3114,02	1145,00
3117,92	1203,00
3121,81	1023,00
3125,70	1049,00
3129,58	1098,00
3133,47	1084,00
3137,34	1156,00
3141,22	1145,00
3145,09	1237,00
3148,96	1058,00
3152,83	1001,00
3156,69	1088,00
3160,55	946,00
3164,40	1118,00
3168,26	1090,00
3172,10	1248,00
3175,95	1152,00
3179,79	1075,00
3183,63	1036,00
3187,47	1154,00
3191,30	1042,00
3195,13	1184,00
3198,95	960,00
3202,78	1053,00
3206,60	940,00
3210,41	1013,00
3214,23	1005,00
3218,03	1035,00
3221,84	1063,00
3225,64	966,00
3229,44	1122,00
3233,24	1129,00
3237,03	1033,00
3240,82	957,00
3244,61	1007,00
3248,39	978,00
3252,17	1050,00
3255,95	1082,00
3259,72	1132,00
3263,49	1272,00
3267,26	992,00
3271,03	955,00
3274,79	1005,00
3278,54	1029,00
3282,30	941,00
3286,05	977,00
3289,80	951,00
3293,54	1100,00
3297,29	1012,00
3301,02	1044,00
3304,76	1050,00
3308,49	1130,00
3312,22	982,00
3315,95	1017,00
3319,67	990,00
3323,39	1095,00
3327,10	1099,00
3330,82	1031,00
3334,53	961,00
3338,24	1010,00
3341,94	1021,00
3345,64	926,00
3349,34	977,00
3353,03	1067,00
3356,72	1019,00
3360,41	1125,00
3364,10	1035,00
3367,78	965,00
3371,46	1083,00
3375,13	1023,00
3378,81	1074,00
3382,48	1015,00
3386,14	1076,00
3389,81	1014,00
3393,47	962,00
3397,12	1075,00
3400,78	971,00
3404,43	982,00
3408,08	1032,00
3411,72	1006,00
3415,36	991,00
3419,00	1007,00
3422,64	998,00
3426,27	991,00
3429,90	1023,00
3433,53	1021,00
3437,15	904,00
3440,77	895,00
3444,39	908,00
3448,00	1038,00
3451,62	922,00
3455,22	884,00
3458,83	993,00
3462,43	951,00
3466,03	1070,00
3469,63	1004,00
3473,22	994,00
3476,81	850,00
3480,40	998,00
3483,99	922,00
3487,57	1099,00
3491,15	920,00
3494,72	889,00
3498,29	906,00
3501,86	854,00
3505,43	1080,00
3508,99	950,00
3512,56	923,00
3516,11	995,00
3519,67	884,00
3523,22	1000,00
3526,77	1007,00
3530,32	858,00
3533,86	956,00
3537,40	1013,00
3540,94	1092,00
3544,47	954,00
3548,00	863,00
3551,53	956,00
3555,06	837,00
3558,58	1064,00
3562,10	975,00
3565,62	1024,00
3569,13	931,00
3572,64	901,00
3576,15	808,00
3579,66	969,00
3583,16	947,00
3586,66	786,00
3590,16	868,00
3593,65	885,00
3597,14	839,00
3600,63	910,00
3604,11	996,00
3607,60	822,00
3611,08	898,00
3614,55	946,00
3618,03	798,00
3621,50	856,00
3624,97	886,00
3628,43	1018,00
3631,90	1024,00
3635,36	821,00
3638,81	862,00
3642,27	947,00
3645,72	938,00
3649,17	967,00
3652,61	836,00
3656,06	863,00
3659,50	845,00
3662,93	863,00
3666,37	855,00
3669,80	1110,00
3673,23	880,00
3676,65	1023,00
3680,08	992,00
3683,50	846,00
3686,92	935,00
3690,33	804,00
3693,74	845,00
3697,15	734,00
3700,56	829,00
3703,96	883,00
3707,36	746,00
3710,76	824,00
3714,16	776,00
3717,55	743,00
3720,94	854,00
3724,33	801,00
3727,71	1006,00
3731,10	806,00
3734,48	782,00
3737,85	716,00
3741,23	755,00
3744,60	816,00
3747,97	811,00
3751,33	795,00
3754,69	842,00
3758,05	782,00
3761,41	723,00
3764,77	726,00
3768,12	661,00
3771,47	755,00
3774,82	852,00
3778,16	-8,00
3781,50	11,00
3784,84	7,00
3788,18	10,00
>>>>>End Processed Spectral Data<<<<<
