SpectraSuite Data File
++++++++++++++++++++++++++++++++++++
Date: Mon Mar 09 14:31:11 ICT 2026
User: Administrator
Dark Spectrum Present: Yes
Reference Spectrum Present: No
Number of Sampled Component Spectra: 1
Spectrometers: MAYP113682
Integration Time (usec): 3000000 (MAYP113682)
Spectra Averaged: 1 (MAYP113682)
Boxcar Smoothing: 0 (MAYP113682)
Correct for Electrical Dark: No (MAYP113682)
Strobe/Lamp Enabled: No (MAYP113682)
Correct for Detector Non-linearity: No (MAYP113682)
Correct for Stray Light: No (MAYP113682)
Number of Pixels in Processed Spectrum: 2068
>>>>>Begin Processed Spectral Data<<<<<
-37534,58	10,00
-37414,56	8,00
-37295,11	2,00
-37176,24	5,00
-37057,95	74,00
-36940,22	64,00
-36823,05	127,00
-36706,45	146,00
-36590,40	66,00
-36474,90	110,00
-36359,95	97,00
-36245,55	144,00
-36131,68	186,00
-36018,35	77,00
-35905,55	144,00
-35793,29	47,00
-35681,54	130,00
-35570,32	111,00
-35459,62	117,00
-35349,43	74,00
-35239,75	53,00
-35130,58	114,00
-35021,91	182,00
-34913,74	111,00
-34806,07	114,00
-34698,89	183,00
-34592,20	91,00
-34486,00	51,00
-34380,28	143,00
-34275,04	88,00
-34170,27	117,00
-34065,98	117,00
-33962,16	124,00
-33858,81	184,00
-33755,92	70,00
-33653,49	234,00
-33551,52	98,00
-33450,01	67,00
-33348,94	81,00
-33248,33	42,00
-33148,16	-9,00
-33048,43	-21,00
-32949,14	174,00
-32850,29	93,00
-32751,87	149,00
-32653,89	20,00
-32556,33	147,00
-32459,20	97,00
-32362,49	110,00
-32266,19	60,00
-32170,32	78,00
-32074,86	-15,00
-31979,82	58,00
-31885,18	59,00
-31790,95	165,00
-31697,12	170,00
-31603,69	57,00
-31510,67	183,00
-31418,04	120,00
-31325,80	108,00
-31233,95	193,00
-31142,49	55,00
-31051,42	35,00
-30960,73	36,00
-30870,43	99,00
-30780,50	50,00
-30690,95	99,00
-30601,77	59,00
-30512,97	91,00
-30424,53	135,00
-30336,46	194,00
-30248,76	116,00
-30161,42	64,00
-30074,44	54,00
-29987,81	158,00
-29901,55	167,00
-29815,63	79,00
-29730,07	45,00
-29644,86	103,00
-29560,00	137,00
-29475,48	99,00
-29391,30	49,00
-29307,47	152,00
-29223,97	188,00
-29140,81	98,00
-29057,99	122,00
-28975,50	105,00
-28893,34	147,00
-28811,51	66,00
-28730,00	61,00
-28648,82	131,00
-28567,97	115,00
-28487,43	128,00
-28407,21	114,00
-28327,32	138,00
-28247,73	95,00
-28168,46	98,00
-28089,50	184,00
-28010,85	69,00
-27932,51	129,00
-27854,48	152,00
-27776,75	121,00
-27699,32	82,00
-27622,19	200,00
-27545,37	89,00
-27468,84	117,00
-27392,60	161,00
-27316,66	236,00
-27241,01	166,00
-27165,66	210,00
-27090,59	183,00
-27015,81	61,00
-26941,31	131,00
-26867,10	118,00
-26793,17	156,00
-26719,52	134,00
-26646,15	167,00
-26573,06	64,00
-26500,24	113,00
-26427,70	108,00
-26355,43	126,00
-26283,43	87,00
-26211,71	142,00
-26140,25	138,00
-26069,06	132,00
-25998,13	160,00
-25927,46	97,00
-25857,06	95,00
-25786,92	106,00
-25717,04	84,00
-25647,42	153,00
-25578,05	85,00
-25508,94	26,00
-25440,09	100,00
-25371,48	165,00
-25303,13	118,00
-25235,02	63,00
-25167,17	126,00
-25099,56	221,00
-25032,19	126,00
-24965,07	102,00
-24898,20	124,00
-24831,56	107,00
-24765,17	200,00
-24699,01	84,00
-24633,10	115,00
-24567,41	153,00
-24501,97	41,00
-24436,75	63,00
-24371,77	112,00
-24307,03	164,00
-24242,51	41,00
-24178,22	79,00
-24114,16	139,00
-24050,32	237,00
-23986,71	98,00
-23923,32	74,00
-23860,16	61,00
-23797,22	129,00
-23734,50	105,00
-23672,00	74,00
-23609,71	94,00
-23547,65	201,00
-23485,80	191,00
-23424,16	117,00
-23362,74	143,00
-23301,53	55,00
-23240,54	125,00
-23179,75	131,00
-23119,17	112,00
-23058,80	82,00
-22998,64	112,00
-22938,68	84,00
-22878,93	114,00
-22819,39	116,00
-22760,04	81,00
-22700,90	158,00
-22641,96	128,00
-22583,22	90,00
-22524,68	184,00
-22466,33	30,00
-22408,19	193,00
-22350,23	179,00
-22292,48	201,00
-22234,92	161,00
-22177,55	97,00
-22120,37	114,00
-22063,38	158,00
-22006,58	72,00
-21949,98	114,00
-21893,56	153,00
-21837,33	154,00
-21781,28	143,00
-21725,42	121,00
-21669,74	222,00
-21614,25	121,00
-21558,94	111,00
-21503,81	145,00
-21448,86	164,00
-21394,10	120,00
-21339,51	220,00
-21285,10	9,00
-21230,86	94,00
-21176,81	46,00
-21122,93	107,00
-21069,22	227,00
-21015,69	46,00
-20962,33	187,00
-20909,14	12,00
-20856,13	181,00
-20803,28	214,00
-20750,61	89,00
-20698,10	69,00
-20645,76	175,00
-20593,59	189,00
-20541,59	87,00
-20489,75	185,00
-20438,07	145,00
-20386,56	119,00
-20335,22	175,00
-20284,03	129,00
-20233,01	15,00
-20182,15	170,00
-20131,45	121,00
-20080,91	131,00
-20030,52	48,00
-19980,30	76,00
-19930,23	176,00
-19880,32	19,00
-19830,56	88,00
-19780,96	198,00
-19731,52	90,00
-19682,23	108,00
-19633,09	162,00
-19584,10	109,00
-19535,26	123,00
-19486,58	172,00
-19438,04	124,00
-19389,66	49,00
-19341,42	97,00
-19293,33	79,00
-19245,39	102,00
-19197,60	173,00
-19149,95	131,00
-19102,45	189,00
-19055,09	229,00
-19007,87	142,00
-18960,80	157,00
-18913,87	223,00
-18867,09	124,00
-18820,44	179,00
-18773,94	171,00
-18727,57	92,00
-18681,35	98,00
-18635,26	43,00
-18589,31	85,00
-18543,50	99,00
-18497,83	173,00
-18452,29	180,00
-18406,89	79,00
-18361,63	151,00
-18316,50	131,00
-18271,50	50,00
-18226,63	161,00
-18181,90	69,00
-18137,30	109,00
-18092,84	95,00
-18048,50	170,00
-18004,29	90,00
-17960,22	142,00
-17916,27	109,00
-17872,45	102,00
-17828,76	72,00
-17785,20	159,00
-17741,77	43,00
-17698,46	70,00
-17655,28	43,00
-17612,22	91,00
-17569,29	155,00
-17526,48	109,00
-17483,79	120,00
-17441,23	179,00
-17398,79	147,00
-17356,48	146,00
-17314,28	181,00
-17272,21	58,00
-17230,26	171,00
-17188,42	139,00
-17146,71	128,00
-17105,12	159,00
-17063,64	97,00
-17022,28	128,00
-16981,04	134,00
-16939,92	42,00
-16898,91	107,00
-16858,02	138,00
-16817,25	93,00
-16776,59	47,00
-16736,04	133,00
-16695,61	129,00
-16655,29	84,00
-16615,09	138,00
-16574,99	47,00
-16535,01	111,00
-16495,15	103,00
-16455,39	137,00
-16415,74	180,00
-16376,21	205,00
-16336,78	127,00
-16297,46	123,00
-16258,26	152,00
-16219,16	196,00
-16180,17	95,00
-16141,28	230,00
-16102,51	118,00
-16063,84	99,00
-16025,27	58,00
-15986,82	93,00
-15948,46	136,00
-15910,22	153,00
-15872,07	108,00
-15834,04	144,00
-15796,10	167,00
-15758,27	160,00
-15720,54	111,00
-15682,91	89,00
-15645,39	106,00
-15607,97	128,00
-15570,64	121,00
-15533,42	40,00
-15496,30	162,00
-15459,28	43,00
-15422,36	89,00
-15385,54	130,00
-15348,82	187,00
-15312,19	20,00
-15275,66	83,00
-15239,23	124,00
-15202,90	61,00
-15166,67	68,00
-15130,53	226,00
-15094,48	67,00
-15058,54	173,00
-15022,68	14,00
-14986,93	118,00
-14951,26	109,00
-14915,69	148,00
-14880,22	212,00
-14844,84	8,00
-14809,55	99,00
-14774,35	144,00
-14739,25	190,00
-14704,24	87,00
-14669,32	92,00
-14634,49	148,00
-14599,75	140,00
-14565,10	164,00
-14530,55	177,00
-14496,08	193,00
-14461,70	58,00
-14427,41	135,00
-14393,21	64,00
-14359,10	128,00
-14325,07	122,00
-14291,14	147,00
-14257,29	206,00
-14223,52	166,00
-14189,85	197,00
-14156,26	143,00
-14122,76	59,00
-14089,34	173,00
-14056,01	144,00
-14022,76	108,00
-13989,60	189,00
-13956,52	179,00
-13923,53	108,00
-13890,62	115,00
-13857,79	45,00
-13825,05	175,00
-13792,39	120,00
-13759,81	143,00
-13727,31	106,00
-13694,90	203,00
-13662,57	143,00
-13630,31	160,00
-13598,14	119,00
-13566,05	91,00
-13534,05	177,00
-13502,12	92,00
-13470,27	179,00
-13438,50	140,00
-13406,80	45,00
-13375,19	134,00
-13343,66	37,00
-13312,20	73,00
-13280,83	175,00
-13249,53	112,00
-13218,30	129,00
-13187,16	31,00
-13156,09	179,00
-13125,10	110,00
-13094,18	79,00
-13063,34	148,00
-13032,58	71,00
-13001,89	140,00
-12971,28	132,00
-12940,74	258,00
-12910,27	120,00
-12879,88	132,00
-12849,57	163,00
-12819,33	115,00
-12789,16	157,00
-12759,06	126,00
-12729,04	131,00
-12699,09	1216,00
-12669,21	143,00
-12639,41	154,00
-12609,68	90,00
-12580,02	235,00
-12550,43	80,00
-12520,91	173,00
-12491,46	166,00
-12462,08	113,00
-12432,77	126,00
-12403,54	90,00
-12374,37	40,00
-12345,27	143,00
-12316,24	79,00
-12287,29	182,00
-12258,40	62,00
-12229,57	112,00
-12200,82	97,00
-12172,14	209,00
-12143,52	49,00
-12114,97	183,00
-12086,49	185,00
-12058,07	159,00
-12029,73	193,00
-12001,44	186,00
-11973,23	85,00
-11945,08	120,00
-11917,00	86,00
-11888,98	130,00
-11861,03	131,00
-11833,15	151,00
-11805,32	84,00
-11777,57	147,00
-11749,88	108,00
-11722,25	160,00
-11694,69	76,00
-11667,19	143,00
-11639,75	80,00
-11612,38	50,00
-11585,07	103,00
-11557,83	116,00
-11530,65	96,00
-11503,53	131,00
-11476,47	136,00
-11449,48	170,00
-11422,54	158,00
-11395,67	185,00
-11368,86	85,00
-11342,11	148,00
-11315,43	7,00
-11288,80	98,00
-11262,23	109,00
-11235,73	139,00
-11209,28	112,00
-11182,90	112,00
-11156,57	177,00
-11130,31	149,00
-11104,10	73,00
-11077,96	131,00
-11051,87	91,00
-11025,84	149,00
-10999,87	106,00
-10973,96	72,00
-10948,11	189,00
-10922,31	97,00
-10896,58	157,00
-10870,90	110,00
-10845,28	126,00
-10819,71	103,00
-10794,20	105,00
-10768,75	184,00
-10743,36	105,00
-10718,02	78,00
-10692,74	101,00
-10667,52	196,00
-10642,35	53,00
-10617,24	119,00
-10592,18	145,00
-10567,18	71,00
-10542,23	35,00
-10517,34	93,00
-10492,51	59,00
-10467,72	51,00
-10443,00	157,00
-10418,32	106,00
-10393,70	-22,00
-10369,14	77,00
-10344,63	39,00
-10320,17	40,00
-10295,77	6,00
-10271,42	9,00
-10247,12	48,00
-10222,88	-3,00
-10198,68	-19,00
-10174,54	-58,00
-10150,46	-63,00
-10126,42	-62,00
-10102,44	-53,00
-10078,51	-49,00
-10054,63	-132,00
-10030,80	-88,00
-10007,03	-94,00
-9983,30	-158,00
-9959,63	-117,00
-9936,01	-324,00
-9912,44	-266,00
-9888,92	-189,00
-9865,44	-326,00
-9842,02	-336,00
-9818,65	-352,00
-9795,33	-196,00
-9772,06	-368,00
-9748,84	-391,00
-9725,67	-369,00
-9702,55	-442,00
-9679,47	-515,00
-9656,45	-592,00
-9633,47	-771,00
-9610,55	-685,00
-9587,67	-762,00
-9564,84	-876,00
-9542,06	-886,00
-9519,32	-1033,00
-9496,64	-1218,00
-9474,00	-1405,00
-9451,41	-1426,00
-9428,87	-1393,00
-9406,37	-1564,00
-9383,92	-1387,00
-9361,52	-1385,00
-9339,17	-1513,00
-9316,86	-1667,00
-9294,60	-1943,00
-9272,38	-2036,00
-9250,21	-2376,00
-9228,09	-2316,00
-9206,01	-2347,00
-9183,98	-2220,00
-9162,00	-2051,00
-9140,06	-1955,00
-9118,16	-2004,00
-9096,31	-2138,00
-9074,51	-2200,00
-9052,75	-2097,00
-9031,04	-2062,00
-9009,37	-1834,00
-8987,74	-1665,00
-8966,16	-1473,00
-8944,63	-1554,00
-8923,14	-1368,00
-8901,69	-1308,00
-8880,29	-1459,00
-8858,93	-1550,00
-8837,61	-1545,00
-8816,34	-1695,00
-8795,11	-1792,00
-8773,92	-1764,00
-8752,78	-1505,00
-8731,68	-1420,00
-8710,62	-1478,00
-8689,61	-1564,00
-8668,63	-1705,00
-8647,70	-1655,00
-8626,82	-1643,00
-8605,97	-1602,00
-8585,17	-1468,00
-8564,41	-1484,00
-8543,69	-1266,00
-8523,01	-1329,00
-8502,37	-1268,00
-8481,78	-1459,00
-8461,23	-1532,00
-8440,71	-1631,00
-8420,24	-1737,00
-8399,81	-1675,00
-8379,42	-1550,00
-8359,08	-1489,00
-8338,77	-1427,00
-8318,50	-1254,00
-8298,27	-1225,00
-8278,09	-1329,00
-8257,94	-1379,00
-8237,83	-1461,00
-8217,76	-1580,00
-8197,74	-1651,00
-8177,75	-1494,00
-8157,80	-1352,00
-8137,89	-1226,00
-8118,02	-1267,00
-8098,19	-1113,00
-8078,40	-1219,00
-8058,65	-1271,00
-8038,93	-1253,00
-8019,26	-1147,00
-7999,62	-1177,00
-7980,02	-1141,00
-7960,46	-1041,00
-7940,94	-1037,00
-7921,46	-1019,00
-7902,01	-868,00
-7882,60	-865,00
-7863,23	-1048,00
-7843,90	-980,00
-7824,61	-1111,00
-7805,35	-1040,00
-7786,13	-1093,00
-7766,95	-1039,00
-7747,80	-1122,00
-7728,69	-1002,00
-7709,62	-934,00
-7690,59	-1174,00
-7671,59	-1131,00
-7652,63	-1138,00
-7633,70	-1325,00
-7614,81	-1180,00
-7595,96	-978,00
-7577,15	-888,00
-7558,37	-921,00
-7539,62	-974,00
-7520,91	-1102,00
-7502,24	-1103,00
-7483,60	-1076,00
-7465,00	-1062,00
-7446,44	-922,00
-7427,91	-746,00
-7409,41	-646,00
-7390,95	-793,00
-7372,53	-718,00
-7354,14	-670,00
-7335,78	-737,00
-7317,46	-709,00
-7299,18	-832,00
-7280,92	-934,00
-7262,71	-990,00
-7244,52	-1063,00
-7226,38	-1104,00
-7208,26	-1113,00
-7190,18	-1083,00
-7172,14	-916,00
-7154,12	-922,00
-7136,15	-924,00
-7118,20	-997,00
-7100,29	-1019,00
-7082,41	-1065,00
-7064,57	-1006,00
-7046,76	-1072,00
-7028,98	-812,00
-7011,24	-822,00
-6993,53	-639,00
-6975,85	-525,00
-6958,20	-576,00
-6940,59	-541,00
-6923,01	-589,00
-6905,46	-529,00
-6887,94	-707,00
-6870,46	-2891,00
-6853,01	-843,00
-6835,59	-967,00
-6818,21	-896,00
-6800,85	-807,00
-6783,53	-667,00
-6766,24	-598,00
-6748,98	-511,00
-6731,76	-385,00
-6714,56	-460,00
-6697,40	-405,00
-6680,26	-431,00
-6663,16	-407,00
-6646,09	-557,00
-6629,05	-691,00
-6612,05	-639,00
-6595,07	-762,00
-6578,13	-742,00
-6561,21	-539,00
-6544,33	-488,00
-6527,47	-395,00
-6510,65	-377,00
-6493,86	-310,00
-6477,10	-240,00
-6460,36	-342,00
-6443,66	-327,00
-6426,99	-324,00
-6410,35	-243,00
-6393,74	-331,00
-6377,16	-400,00
-6360,61	-430,00
-6344,09	-496,00
-6327,59	-495,00
-6311,13	-487,00
-6294,70	-501,00
-6278,29	-626,00
-6261,92	-543,00
-6245,58	-693,00
-6229,26	-673,00
-6212,97	-617,00
-6196,72	-456,00
-6180,49	-370,00
-6164,29	-251,00
-6148,12	-161,00
-6131,98	-127,00
-6115,86	-155,00
-6099,78	-183,00
-6083,72	-105,00
-6067,69	-152,00
-6051,69	-102,00
-6035,72	-176,00
-6019,78	-241,00
-6003,87	-372,00
-5987,98	-460,00
-5972,12	-508,00
-5956,29	-460,00
-5940,49	-433,00
-5924,71	-286,00
-5908,96	-180,00
-5893,24	-217,00
-5877,55	-237,00
-5861,89	-183,00
-5846,25	-194,00
-5830,64	-153,00
-5815,05	-198,00
-5799,50	-164,00
-5783,97	-178,00
-5768,47	-229,00
-5752,99	-296,00
-5737,55	-429,00
-5722,12	-422,00
-5706,73	-496,00
-5691,36	-378,00
-5676,02	-259,00
-5660,71	-155,00
-5645,42	-114,00
-5630,16	-177,00
-5614,92	-180,00
-5599,71	-296,00
-5584,53	-369,00
-5569,37	-308,00
-5554,24	-250,00
-5539,14	-166,00
-5524,06	-188,00
-5509,01	-184,00
-5493,98	-254,00
-5478,98	-368,00
-5464,00	-264,00
-5449,05	-247,00
-5434,13	-219,00
-5419,23	-168,00
-5404,36	-159,00
-5389,51	-223,00
-5374,69	-486,00
-5359,89	-604,00
-5345,12	-430,00
-5330,37	-401,00
-5315,65	-371,00
-5300,95	-304,00
-5286,28	-324,00
-5271,63	-290,00
-5257,01	-212,00
-5242,41	-264,00
-5227,84	-238,00
-5213,29	-181,00
-5198,76	-196,00
-5184,26	-172,00
-5169,79	-74,00
-5155,33	-277,00
-5140,91	-314,00
-5126,51	-331,00
-5112,13	-349,00
-5097,77	-342,00
-5083,44	-184,00
-5069,13	-194,00
-5054,85	-200,00
-5040,59	-218,00
-5026,36	-261,00
-5012,15	-408,00
-4997,96	-289,00
-4983,80	-151,00
-4969,66	-111,00
-4955,54	-152,00
-4941,44	-188,00
-4927,37	-266,00
-4913,33	-496,00
-4899,30	-579,00
-4885,30	-471,00
-4871,33	-342,00
-4857,37	-178,00
-4843,44	-91,00
-4829,53	-87,00
-4815,65	-147,00
-4801,79	-172,00
-4787,95	-159,00
-4774,13	-133,00
-4760,34	-115,00
-4746,56	-4,00
-4732,82	-56,00
-4719,09	-167,00
-4705,38	-202,00
-4691,70	-516,00
-4678,04	-476,00
-4664,41	-339,00
-4650,79	-97,00
-4637,20	-122,00
-4623,63	-55,00
-4610,08	-245,00
-4596,56	-279,00
-4583,05	-269,00
-4569,57	-242,00
-4556,11	-142,00
-4542,67	-59,00
-4529,25	-49,00
-4515,86	-50,00
-4502,49	-288,00
-4489,13	-276,00
-4475,80	-221,00
-4462,49	-73,00
-4449,21	-9,00
-4435,94	-117,00
-4422,70	-157,00
-4409,47	-225,00
-4396,27	-216,00
-4383,09	-239,00
-4369,93	54,00
-4356,79	1,00
-4343,67	-34,00
-4330,58	-17,00
-4317,50	-171,00
-4304,45	-216,00
-4291,41	-17,00
-4278,40	23,00
-4265,41	-28,00
-4252,44	-47,00
-4239,49	-202,00
-4226,55	-103,00
-4213,65	-69,00
-4200,76	33,00
-4187,89	91,00
-4175,04	-53,00
-4162,21	-14,00
-4149,40	15,00
-4136,61	80,00
-4123,85	49,00
-4111,10	29,00
-4098,37	27,00
-4085,66	-14,00
-4072,98	101,00
-4060,31	66,00
-4047,66	78,00
-4035,04	70,00
-4022,43	91,00
-4009,84	92,00
-3997,27	33,00
-3984,72	136,00
-3972,19	65,00
-3959,69	48,00
-3947,20	153,00
-3934,73	233,00
-3922,27	52,00
-3909,84	112,00
-3897,43	115,00
-3885,04	44,00
-3872,67	148,00
-3860,31	88,00
-3847,98	139,00
-3835,66	203,00
-3823,36	155,00
-3811,09	108,00
-3798,83	169,00
-3786,59	87,00
-3774,37	188,00
-3762,17	188,00
-3749,98	112,00
-3737,82	92,00
-3725,67	164,00
-3713,55	155,00
-3701,44	141,00
-3689,35	136,00
-3677,28	170,00
-3665,22	94,00
-3653,19	41,00
-3641,17	51,00
-3629,18	256,00
-3617,20	184,00
-3605,24	156,00
-3593,30	157,00
-3581,37	122,00
-3569,47	126,00
-3557,58	132,00
-3545,71	208,00
-3533,86	-112,00
-3522,02	142,00
-3510,21	98,00
-3498,41	94,00
-3486,63	38,00
-3474,87	145,00
-3463,12	128,00
-3451,40	155,00
-3439,69	145,00
-3428,00	105,00
-3416,33	123,00
-3404,67	171,00
-3393,03	184,00
-3381,41	132,00
-3369,81	110,00
-3358,22	98,00
-3346,66	162,00
-3335,10	94,00
-3323,57	75,00
-3312,06	181,00
-3300,56	104,00
-3289,08	150,00
-3277,61	37,00
-3266,16	181,00
-3254,73	126,00
-3243,32	184,00
-3231,92	113,00
-3220,55	100,00
-3209,18	121,00
-3197,84	124,00
-3186,51	143,00
-3175,20	121,00
-3163,90	136,00
-3152,63	51,00
-3141,36	89,00
-3130,12	159,00
-3118,89	200,00
-3107,68	81,00
-3096,49	97,00
-3085,31	133,00
-3074,15	35,00
-3063,00	82,00
-3051,87	198,00
-3040,76	45,00
-3029,67	175,00
-3018,59	94,00
-3007,52	160,00
-2996,48	145,00
-2985,44	83,00
-2974,43	195,00
-2963,43	179,00
-2952,45	88,00
-2941,48	132,00
-2930,53	87,00
-2919,60	70,00
-2908,68	179,00
-2897,78	133,00
-2886,89	180,00
-2876,02	132,00
-2865,17	220,00
-2854,33	57,00
-2843,50	180,00
-2832,70	54,00
-2821,90	82,00
-2811,13	132,00
-2800,37	107,00
-2789,62	164,00
-2778,89	187,00
-2768,18	153,00
-2757,48	167,00
-2746,80	156,00
-2736,13	84,00
-2725,48	72,00
-2714,84	108,00
-2704,22	79,00
-2693,61	219,00
-2683,02	157,00
-2672,45	160,00
-2661,89	115,00
-2651,34	78,00
-2640,81	205,00
-2630,30	126,00
-2619,80	105,00
-2609,31	129,00
-2598,84	52,00
-2588,39	87,00
-2577,95	158,00
-2567,52	154,00
-2557,11	153,00
-2546,71	73,00
-2536,33	115,00
-2525,97	125,00
-2515,62	49,00
-2505,28	190,00
-2494,96	58,00
-2484,65	123,00
-2474,36	159,00
-2464,08	112,00
-2453,82	129,00
-2443,57	91,00
-2433,33	142,00
-2423,11	161,00
-2412,91	49,00
-2402,72	3,00
-2392,54	119,00
-2382,38	207,00
-2372,23	152,00
-2362,09	3481,00
-2351,97	108,00
-2341,87	89,00
-2331,78	94,00
-2321,70	171,00
-2311,64	181,00
-2301,59	70,00
-2291,55	102,00
-2281,53	171,00
-2271,53	121,00
-2261,53	130,00
-2251,55	234,00
-2241,59	36,00
-2231,64	121,00
-2221,70	90,00
-2211,78	155,00
-2201,87	10,00
-2191,97	67,00
-2182,09	116,00
-2172,22	54,00
-2162,37	144,00
-2152,53	136,00
-2142,70	240,00
-2132,89	106,00
-2123,09	56,00
-2113,30	98,00
-2103,53	140,00
-2093,77	79,00
-2084,02	88,00
-2074,29	60,00
-2064,57	85,00
-2054,86	174,00
-2045,17	41,00
-2035,49	148,00
-2025,82	52,00
-2016,17	186,00
-2006,53	56,00
-1996,91	160,00
-1987,29	159,00
-1977,69	159,00
-1968,11	179,00
-1958,53	146,00
-1948,97	55,00
-1939,42	94,00
-1929,89	67,00
-1920,37	114,00
-1910,86	62,00
-1901,36	100,00
-1891,88	163,00
-1882,41	145,00
-1872,95	173,00
-1863,51	157,00
-1854,08	109,00
-1844,66	8,00
-1835,26	83,00
-1825,86	102,00
-1816,48	130,00
-1807,11	81,00
-1797,76	139,00
-1788,42	130,00
-1779,09	164,00
-1769,77	83,00
-1760,47	92,00
-1751,17	108,00
-1741,89	56,00
-1732,63	27,00
-1723,37	173,00
-1714,13	174,00
-1704,90	123,00
-1695,68	33,00
-1686,48	130,00
-1677,29	212,00
-1668,11	136,00
-1658,94	133,00
-1649,78	124,00
-1640,64	65,00
-1631,51	107,00
-1622,39	99,00
-1613,28	87,00
-1604,19	199,00
-1595,10	105,00
-1586,03	81,00
-1576,97	123,00
-1567,93	164,00
-1558,89	44,00
-1549,87	164,00
-1540,86	56,00
-1531,86	157,00
-1522,87	168,00
-1513,90	125,00
-1504,93	155,00
-1495,98	152,00
-1487,04	101,00
-1478,12	80,00
-1469,20	141,00
-1460,30	28,00
-1451,40	145,00
-1442,52	115,00
-1433,65	143,00
-1424,80	108,00
-1415,95	89,00
-1407,12	104,00
-1398,30	142,00
-1389,48	81,00
-1380,69	253,00
-1371,90	83,00
-1363,12	206,00
-1354,36	44,00
-1345,60	212,00
-1336,86	88,00
-1328,13	69,00
-1319,41	176,00
-1310,70	94,00
-1302,01	155,00
-1293,32	146,00
-1284,65	84,00
-1275,99	98,00
-1267,33	124,00
-1258,69	139,00
-1250,06	196,00
-1241,45	41,00
-1232,84	155,00
-1224,25	72,00
-1215,66	146,00
-1207,09	15,00
-1198,53	151,00
-1189,97	124,00
-1181,43	90,00
-1172,91	166,00
-1164,39	74,00
-1155,88	101,00
-1147,38	151,00
-1138,90	135,00
-1130,43	153,00
-1121,96	34,00
-1113,51	58,00
-1105,07	131,00
-1096,64	137,00
-1088,22	120,00
-1079,81	184,00
-1071,41	67,00
-1063,02	-9,00
-1054,65	185,00
-1046,28	75,00
-1037,92	182,00
-1029,58	165,00
-1021,24	127,00
-1012,92	116,00
-1004,61	145,00
-996,30	51,00
-988,01	88,00
-979,73	106,00
-971,46	115,00
-963,20	116,00
-954,95	189,00
-946,71	120,00
-938,48	147,00
-930,26	91,00
-922,06	125,00
-913,86	88,00
-905,67	139,00
-897,49	105,00
-889,33	213,00
-881,17	86,00
-873,02	89,00
-864,89	119,00
-856,76	211,00
-848,65	56,00
-840,54	234,00
-832,45	118,00
-824,36	71,00
-816,29	175,00
-808,22	168,00
-800,17	70,00
-792,12	179,00
-784,09	178,00
-776,06	79,00
-768,05	183,00
-760,04	103,00
-752,05	149,00
-744,07	103,00
-736,09	167,00
-728,13	195,00
-720,17	159,00
-712,23	118,00
-704,29	168,00
-696,37	81,00
-688,45	80,00
-680,55	186,00
-672,65	146,00
-664,77	86,00
-656,89	156,00
-649,03	99,00
-641,17	192,00
-633,32	69,00
-625,49	64,00
-617,66	191,00
-609,84	208,00
-602,03	129,00
-594,23	70,00
-586,45	71,00
-578,67	204,00
-570,90	104,00
-563,14	89,00
-555,39	75,00
-547,65	47,00
-539,91	116,00
-532,19	140,00
-524,48	142,00
-516,78	125,00
-509,08	150,00
-501,40	169,00
-493,72	188,00
-486,06	45,00
-478,40	195,00
-470,76	178,00
-463,12	73,00
-455,49	154,00
-447,87	183,00
-440,26	174,00
-432,66	123,00
-425,07	232,00
-417,49	169,00
-409,92	146,00
-402,35	88,00
-394,80	109,00
-387,25	201,00
-379,72	224,00
-372,19	176,00
-364,67	206,00
-357,17	124,00
-349,67	124,00
-342,18	141,00
-334,69	39,00
-327,22	126,00
-319,76	124,00
-312,30	188,00
-304,86	165,00
-297,42	190,00
-290,00	195,00
-282,58	147,00
-275,17	168,00
-267,77	243,00
-260,37	266,00
-252,99	176,00
-245,62	116,00
-238,25	203,00
-230,90	159,00
-223,55	144,00
-216,21	228,00
-208,88	271,00
-201,56	250,00
-194,25	220,00
-186,94	295,00
-179,65	388,00
-172,36	256,00
-165,08	234,00
-157,81	329,00
-150,55	259,00
-143,30	241,00
-136,06	324,00
-128,82	377,00
-121,60	389,00
-114,38	421,00
-107,17	437,00
-99,97	556,00
-92,78	517,00
-85,60	665,00
-78,42	763,00
-71,25	734,00
-64,10	961,00
-56,95	1163,00
-49,81	1104,00
-42,67	1563,00
-35,55	1863,00
-28,43	2387,00
-21,33	3721,00
-14,23	11698,00
-7,14	58063,00
-0,05	57930,00
7,02	57685,00
14,09	45976,00
21,14	11732,00
28,19	4772,00
35,23	3032,00
42,27	2352,00
49,29	2001,00
56,31	1696,00
63,32	1404,00
70,32	1147,00
77,31	932,00
84,29	889,00
91,27	789,00
98,23	711,00
105,19	694,00
112,14	692,00
119,09	1026,00
126,02	1349,00
132,95	1578,00
139,87	1624,00
146,78	1709,00
153,68	1646,00
160,58	1542,00
167,46	1559,00
174,34	1540,00
181,21	1540,00
188,08	1584,00
194,93	1453,00
201,78	1444,00
208,62	1480,00
215,45	1433,00
222,27	1428,00
229,09	1434,00
235,90	1458,00
242,70	1407,00
249,49	1313,00
256,27	1447,00
263,05	1312,00
269,82	1434,00
276,58	1441,00
283,33	1364,00
290,08	1383,00
296,82	1395,00
303,55	1347,00
310,27	1361,00
316,98	1396,00
323,69	1359,00
330,39	1295,00
337,08	1254,00
343,76	1329,00
350,44	1395,00
357,11	1394,00
363,77	1385,00
370,42	1329,00
377,07	1361,00
383,71	1264,00
390,34	1234,00
396,96	1231,00
403,58	1320,00
410,19	1335,00
416,79	1355,00
423,38	1401,00
429,97	1324,00
436,55	1128,00
443,12	1171,00
449,68	1183,00
456,24	1201,00
462,79	1258,00
469,33	1129,00
475,86	1323,00
482,39	1199,00
488,91	1295,00
495,42	1197,00
501,93	1264,00
508,42	1135,00
514,91	1236,00
521,40	1171,00
527,87	1192,00
534,34	1237,00
540,80	1175,00
547,25	1157,00
553,70	1275,00
560,14	1202,00
566,57	1203,00
573,00	1179,00
579,41	1183,00
585,83	1190,00
592,23	1171,00
598,62	1215,00
605,01	1152,00
611,40	1076,00
617,77	1205,00
624,14	1223,00
630,50	1141,00
636,85	1140,00
643,20	1093,00
649,54	1120,00
655,87	1107,00
662,20	1160,00
668,52	1125,00
674,83	1167,00
681,13	1189,00
687,43	1169,00
693,72	1141,00
700,00	1124,00
706,28	1105,00
712,55	1091,00
718,81	1076,00
725,07	1107,00
731,32	1118,00
737,56	1294,00
743,79	1108,00
750,02	1116,00
756,24	1151,00
762,46	1138,00
768,67	1288,00
774,87	1145,00
781,06	1140,00
787,25	1250,00
793,43	1170,00
799,60	1119,00
805,77	1163,00
811,93	1221,00
818,08	1111,00
824,23	1194,00
830,37	1219,00
836,50	1180,00
842,63	1109,00
848,75	1223,00
854,87	1231,00
860,97	1211,00
867,07	1208,00
873,17	1174,00
879,25	1182,00
885,33	1132,00
891,41	1289,00
897,47	1088,00
903,53	1195,00
909,59	1219,00
915,63	1098,00
921,67	1076,00
927,71	1153,00
933,74	1096,00
939,76	1105,00
945,77	1179,00
951,78	1124,00
957,78	1153,00
963,78	1129,00
969,77	1048,00
975,75	1204,00
981,72	1190,00
987,69	1260,00
993,66	1064,00
999,61	1218,00
1005,56	1118,00
1011,51	1164,00
1017,44	1146,00
1023,37	1208,00
1029,30	1201,00
1035,22	1202,00
1041,13	1271,00
1047,03	1371,00
1052,93	1279,00
1058,83	1700,00
1064,71	1870,00
1070,59	1570,00
1076,47	1476,00
1082,33	1305,00
1088,20	1277,00
1094,05	1288,00
1099,90	1272,00
1105,74	1247,00
1111,58	1251,00
1117,41	1321,00
1123,23	1599,00
1129,05	2021,00
1134,86	1834,00
1140,67	1438,00
1146,47	1307,00
1152,26	1203,00
1158,05	1199,00
1163,83	1266,00
1169,60	1261,00
1175,37	1279,00
1181,13	1326,00
1186,89	1249,00
1192,64	1174,00
1198,38	1156,00
1204,12	1210,00
1209,85	1175,00
1215,58	1119,00
1221,30	1182,00
1227,02	1141,00
1232,72	1231,00
1238,43	1314,00
1244,12	1273,00
1249,81	1247,00
1255,50	1203,00
1261,17	1206,00
1266,85	1323,00
1272,51	1317,00
1278,17	1325,00
1283,83	1445,00
1289,47	1729,00
1295,12	2133,00
1300,75	1994,00
1306,38	1678,00
1312,01	1402,00
1317,63	1340,00
1323,24	1350,00
1328,85	1359,00
1334,45	1280,00
1340,04	1275,00
1345,63	1239,00
1351,22	1314,00
1356,80	1308,00
1362,37	1236,00
1367,93	1321,00
1373,49	1362,00
1379,05	1332,00
1384,60	1350,00
1390,14	1261,00
1395,68	1336,00
1401,21	1346,00
1406,74	1447,00
1412,26	1477,00
1417,77	1707,00
1423,28	1705,00
1428,78	1727,00
1434,28	1917,00
1439,77	2137,00
1445,26	2146,00
1450,74	1984,00
1456,22	1820,00
1461,68	1902,00
1467,15	1877,00
1472,61	1692,00
1478,06	1587,00
1483,51	1418,00
1488,95	1301,00
1494,38	1330,00
1499,81	1260,00
1505,24	1253,00
1510,65	1204,00
1516,07	1150,00
1521,48	1206,00
1526,88	1202,00
1532,27	1104,00
1537,67	1216,00
1543,05	1141,00
1548,43	1137,00
1553,81	1154,00
1559,18	1088,00
1564,54	1136,00
1569,90	1153,00
1575,25	1135,00
1580,60	1090,00
1585,94	1106,00
1591,28	1150,00
1596,61	1041,00
1601,93	1131,00
1607,25	1118,00
1612,57	1043,00
1617,88	1134,00
1623,18	1011,00
1628,48	1100,00
1633,77	1162,00
1639,06	1103,00
1644,34	1042,00
1649,62	1128,00
1654,89	986,00
1660,16	1157,00
1665,42	1134,00
1670,67	1099,00
1675,92	1013,00
1681,17	1120,00
1686,41	1052,00
1691,64	1069,00
1696,87	959,00
1702,10	980,00
1707,32	1029,00
1712,53	957,00
1717,74	1060,00
1722,94	1003,00
1728,14	1023,00
1733,33	1055,00
1738,52	1045,00
1743,70	835,00
1748,88	966,00
1754,05	940,00
1759,22	1000,00
1764,38	-85,00
1769,53	964,00
1774,69	966,00
1779,83	939,00
1784,97	939,00
1790,11	938,00
1795,24	978,00
1800,36	893,00
1805,48	872,00
1810,60	1030,00
1815,71	898,00
1820,82	911,00
1825,92	923,00
1831,01	933,00
1836,10	933,00
1841,19	877,00
1846,26	925,00
1851,34	947,00
1856,41	894,00
1861,47	873,00
1866,53	1015,00
1871,59	851,00
1876,64	909,00
1881,68	930,00
1886,72	993,00
1891,76	855,00
1896,79	951,00
1901,81	891,00
1906,83	879,00
1911,85	806,00
1916,86	781,00
1921,86	803,00
1926,86	935,00
1931,86	871,00
1936,85	793,00
1941,83	873,00
1946,81	926,00
1951,79	903,00
1956,76	754,00
1961,72	889,00
1966,68	828,00
1971,64	861,00
1976,59	908,00
1981,54	788,00
1986,48	820,00
1991,42	827,00
1996,35	966,00
2001,27	844,00
2006,20	854,00
2011,11	802,00
2016,03	813,00
2020,93	789,00
2025,84	784,00
2030,73	818,00
2035,63	790,00
2040,52	882,00
2045,40	714,00
2050,28	786,00
2055,15	873,00
2060,02	761,00
2064,89	867,00
2069,75	684,00
2074,60	761,00
2079,46	657,00
2084,30	782,00
2089,14	818,00
2093,98	874,00
2098,81	786,00
2103,64	772,00
2108,46	690,00
2113,28	741,00
2118,09	829,00
2122,90	717,00
2127,70	757,00
2132,50	775,00
2137,30	664,00
2142,09	758,00
2146,87	794,00
2151,66	714,00
2156,43	786,00
2161,20	730,00
2165,97	711,00
2170,73	744,00
2175,49	697,00
2180,24	797,00
2184,99	704,00
2189,74	770,00
2194,48	597,00
2199,21	776,00
2203,94	669,00
2208,67	697,00
2213,39	676,00
2218,11	655,00
2222,82	769,00
2227,53	711,00
2232,23	602,00
2236,93	651,00
2241,63	677,00
2246,32	694,00
2251,00	692,00
2255,68	671,00
2260,36	651,00
2265,03	703,00
2269,70	712,00
2274,36	631,00
2279,02	728,00
2283,68	668,00
2288,33	736,00
2292,97	679,00
2297,61	696,00
2302,25	681,00
2306,88	603,00
2311,51	620,00
2316,14	657,00
2320,75	643,00
2325,37	584,00
2329,98	637,00
2334,59	624,00
2339,19	592,00
2343,79	638,00
2348,38	630,00
2352,97	611,00
2357,55	547,00
2362,13	587,00
2366,71	573,00
2371,28	639,00
2375,85	647,00
2380,41	557,00
2384,97	620,00
2389,52	629,00
2394,07	529,00
2398,62	664,00
2403,16	582,00
2407,70	558,00
2412,23	509,00
2416,76	590,00
2421,29	697,00
2425,81	537,00
2430,32	668,00
2434,84	600,00
2439,34	573,00
2443,85	606,00
2448,35	535,00
2452,84	522,00
2457,33	528,00
2461,82	536,00
2466,30	543,00
2470,78	590,00
2475,25	575,00
2479,72	505,00
2484,19	531,00
2488,65	517,00
2493,11	530,00
2497,56	592,00
2502,01	572,00
2506,46	518,00
2510,90	466,00
2515,34	490,00
2519,77	539,00
2524,20	426,00
2528,62	594,00
2533,04	543,00
2537,46	456,00
2541,87	437,00
2546,28	536,00
2550,68	551,00
2555,08	468,00
2559,48	550,00
2563,87	477,00
2568,26	520,00
2572,64	424,00
2577,02	513,00
2581,40	525,00
2585,77	431,00
2590,14	502,00
2594,50	509,00
2598,86	431,00
2603,22	489,00
2607,57	537,00
2611,92	502,00
2616,26	444,00
2620,60	514,00
2624,94	464,00
2629,27	539,00
2633,60	503,00
2637,92	568,00
2642,24	419,00
2646,56	471,00
2650,87	491,00
2655,18	541,00
2659,48	476,00
2663,78	469,00
2668,08	468,00
2672,37	450,00
2676,66	592,00
2680,95	489,00
2685,23	537,00
2689,50	485,00
2693,78	550,00
2698,05	575,00
2702,31	448,00
2706,57	636,00
2710,83	487,00
2715,08	575,00
2719,33	508,00
2723,58	557,00
2727,82	659,00
2732,06	617,00
2736,29	564,00
2740,53	586,00
2744,75	565,00
2748,97	573,00
2753,19	491,00
2757,41	514,00
2761,62	555,00
2765,83	559,00
2770,03	424,00
2774,23	512,00
2778,43	588,00
2782,62	534,00
2786,81	482,00
2791,00	561,00
2795,18	486,00
2799,35	548,00
2803,53	605,00
2807,70	538,00
2811,86	697,00
2816,03	643,00
2820,19	628,00
2824,34	732,00
2828,49	753,00
2832,64	759,00
2836,78	1030,00
2840,92	1232,00
2845,06	1425,00
2849,19	1565,00
2853,32	1549,00
2857,45	1648,00
2861,57	1600,00
2865,69	1536,00
2869,80	1478,00
2873,91	1602,00
2878,02	1588,00
2882,12	1964,00
2886,22	1719,00
2890,32	1704,00
2894,41	1552,00
2898,50	1377,00
2902,58	1290,00
2906,67	1284,00
2910,74	1206,00
2914,82	1003,00
2918,89	1070,00
2922,96	906,00
2927,02	966,00
2931,08	886,00
2935,13	744,00
2939,19	857,00
2943,24	733,00
2947,28	737,00
2951,32	646,00
2955,36	585,00
2959,40	563,00
2963,43	475,00
2967,46	476,00
2971,48	440,00
2975,50	421,00
2979,52	405,00
2983,53	446,00
2987,54	425,00
2991,55	416,00
2995,55	381,00
2999,55	403,00
3003,54	418,00
3007,54	361,00
3011,53	409,00
3015,51	317,00
3019,49	363,00
3023,47	233,00
3027,45	322,00
3031,42	308,00
3035,39	374,00
3039,35	342,00
3043,31	346,00
3047,27	307,00
3051,22	267,00
3055,17	316,00
3059,12	327,00
3063,06	279,00
3067,00	265,00
3070,94	207,00
3074,87	323,00
3078,80	354,00
3082,73	321,00
3086,65	392,00
3090,57	266,00
3094,49	247,00
3098,40	285,00
3102,31	204,00
3106,22	277,00
3110,12	302,00
3114,02	219,00
3117,92	301,00
3121,81	319,00
3125,70	322,00
3129,58	227,00
3133,47	171,00
3137,34	252,00
3141,22	246,00
3145,09	179,00
3148,96	196,00
3152,83	203,00
3156,69	301,00
3160,55	209,00
3164,40	282,00
3168,26	212,00
3172,10	276,00
3175,95	207,00
3179,79	266,00
3183,63	181,00
3187,47	249,00
3191,30	171,00
3195,13	187,00
3198,95	221,00
3202,78	211,00
3206,60	201,00
3210,41	160,00
3214,23	235,00
3218,03	165,00
3221,84	200,00
3225,64	170,00
3229,44	241,00
3233,24	201,00
3237,03	143,00
3240,82	236,00
3244,61	116,00
3248,39	211,00
3252,17	156,00
3255,95	245,00
3259,72	140,00
3263,49	250,00
3267,26	228,00
3271,03	196,00
3274,79	217,00
3278,54	191,00
3282,30	131,00
3286,05	220,00
3289,80	162,00
3293,54	233,00
3297,29	166,00
3301,02	175,00
3304,76	197,00
3308,49	153,00
3312,22	169,00
3315,95	192,00
3319,67	197,00
3323,39	241,00
3327,10	222,00
3330,82	195,00
3334,53	77,00
3338,24	98,00
3341,94	199,00
3345,64	268,00
3349,34	180,00
3353,03	227,00
3356,72	193,00
3360,41	167,00
3364,10	248,00
3367,78	181,00
3371,46	225,00
3375,13	184,00
3378,81	209,00
3382,48	201,00
3386,14	182,00
3389,81	196,00
3393,47	188,00
3397,12	347,00
3400,78	139,00
3404,43	100,00
3408,08	181,00
3411,72	139,00
3415,36	174,00
3419,00	82,00
3422,64	130,00
3426,27	157,00
3429,90	238,00
3433,53	188,00
3437,15	209,00
3440,77	143,00
3444,39	98,00
3448,00	189,00
3451,62	132,00
3455,22	207,00
3458,83	82,00
3462,43	117,00
3466,03	163,00
3469,63	199,00
3473,22	169,00
3476,81	173,00
3480,40	167,00
3483,99	101,00
3487,57	227,00
3491,15	75,00
3494,72	210,00
3498,29	184,00
3501,86	34,00
3505,43	150,00
3508,99	95,00
3512,56	216,00
3516,11	234,00
3519,67	109,00
3523,22	123,00
3526,77	43,00
3530,32	105,00
3533,86	80,00
3537,40	228,00
3540,94	150,00
3544,47	108,00
3548,00	105,00
3551,53	148,00
3555,06	176,00
3558,58	136,00
3562,10	75,00
3565,62	207,00
3569,13	163,00
3572,64	25,00
3576,15	127,00
3579,66	99,00
3583,16	113,00
3586,66	154,00
3590,16	141,00
3593,65	143,00
3597,14	108,00
3600,63	55,00
3604,11	66,00
3607,60	143,00
3611,08	111,00
3614,55	161,00
3618,03	137,00
3621,50	55,00
3624,97	63,00
3628,43	85,00
3631,90	173,00
3635,36	82,00
3638,81	125,00
3642,27	103,00
3645,72	127,00
3649,17	72,00
3652,61	85,00
3656,06	169,00
3659,50	138,00
3662,93	127,00
3666,37	82,00
3669,80	186,00
3673,23	72,00
3676,65	143,00
3680,08	172,00
3683,50	128,00
3686,92	89,00
3690,33	148,00
3693,74	134,00
3697,15	41,00
3700,56	25,00
3703,96	184,00
3707,36	142,00
3710,76	58,00
3714,16	102,00
3717,55	119,00
3720,94	153,00
3724,33	104,00
3727,71	127,00
3731,10	133,00
3734,48	148,00
3737,85	41,00
3741,23	63,00
3744,60	154,00
3747,97	128,00
3751,33	146,00
3754,69	171,00
3758,05	75,00
3761,41	68,00
3764,77	97,00
3768,12	99,00
3771,47	148,00
3774,82	117,00
3778,16	2,00
3781,50	8,00
3784,84	-2,00
3788,18	0,00
>>>>>End Processed Spectral Data<<<<<
