SpectraSuite Data File
++++++++++++++++++++++++++++++++++++
Date: Mon Mar 09 14:39:11 ICT 2026
User: Administrator
Dark Spectrum Present: Yes
Reference Spectrum Present: No
Number of Sampled Component Spectra: 1
Spectrometers: MAYP113682
Integration Time (usec): 3000000 (MAYP113682)
Spectra Averaged: 1 (MAYP113682)
Boxcar Smoothing: 0 (MAYP113682)
Correct for Electrical Dark: No (MAYP113682)
Strobe/Lamp Enabled: No (MAYP113682)
Correct for Detector Non-linearity: No (MAYP113682)
Correct for Stray Light: No (MAYP113682)
Number of Pixels in Processed Spectrum: 2068
>>>>>Begin Processed Spectral Data<<<<<
-37534,58	13,00
-37414,56	-1,00
-37295,11	-6,00
-37176,24	-1,00
-37057,95	229,00
-36940,22	259,00
-36823,05	317,00
-36706,45	341,00
-36590,40	213,00
-36474,90	314,00
-36359,95	302,00
-36245,55	255,00
-36131,68	268,00
-36018,35	342,00
-35905,55	279,00
-35793,29	271,00
-35681,54	257,00
-35570,32	300,00
-35459,62	236,00
-35349,43	270,00
-35239,75	224,00
-35130,58	281,00
-35021,91	295,00
-34913,74	322,00
-34806,07	238,00
-34698,89	330,00
-34592,20	331,00
-34486,00	376,00
-34380,28	202,00
-34275,04	266,00
-34170,27	249,00
-34065,98	279,00
-33962,16	289,00
-33858,81	230,00
-33755,92	330,00
-33653,49	350,00
-33551,52	306,00
-33450,01	179,00
-33348,94	281,00
-33248,33	276,00
-33148,16	221,00
-33048,43	308,00
-32949,14	386,00
-32850,29	286,00
-32751,87	228,00
-32653,89	324,00
-32556,33	373,00
-32459,20	251,00
-32362,49	354,00
-32266,19	264,00
-32170,32	314,00
-32074,86	342,00
-31979,82	344,00
-31885,18	396,00
-31790,95	332,00
-31697,12	255,00
-31603,69	348,00
-31510,67	312,00
-31418,04	286,00
-31325,80	390,00
-31233,95	382,00
-31142,49	348,00
-31051,42	302,00
-30960,73	371,00
-30870,43	329,00
-30780,50	334,00
-30690,95	322,00
-30601,77	367,00
-30512,97	237,00
-30424,53	322,00
-30336,46	310,00
-30248,76	298,00
-30161,42	287,00
-30074,44	303,00
-29987,81	309,00
-29901,55	337,00
-29815,63	298,00
-29730,07	277,00
-29644,86	273,00
-29560,00	321,00
-29475,48	279,00
-29391,30	346,00
-29307,47	250,00
-29223,97	293,00
-29140,81	312,00
-29057,99	350,00
-28975,50	306,00
-28893,34	363,00
-28811,51	298,00
-28730,00	230,00
-28648,82	298,00
-28567,97	383,00
-28487,43	336,00
-28407,21	298,00
-28327,32	262,00
-28247,73	361,00
-28168,46	333,00
-28089,50	404,00
-28010,85	214,00
-27932,51	299,00
-27854,48	352,00
-27776,75	306,00
-27699,32	287,00
-27622,19	331,00
-27545,37	402,00
-27468,84	273,00
-27392,60	404,00
-27316,66	247,00
-27241,01	228,00
-27165,66	293,00
-27090,59	301,00
-27015,81	312,00
-26941,31	371,00
-26867,10	352,00
-26793,17	243,00
-26719,52	327,00
-26646,15	262,00
-26573,06	289,00
-26500,24	324,00
-26427,70	249,00
-26355,43	390,00
-26283,43	363,00
-26211,71	319,00
-26140,25	244,00
-26069,06	478,00
-25998,13	232,00
-25927,46	240,00
-25857,06	365,00
-25786,92	282,00
-25717,04	227,00
-25647,42	279,00
-25578,05	353,00
-25508,94	291,00
-25440,09	307,00
-25371,48	275,00
-25303,13	272,00
-25235,02	268,00
-25167,17	394,00
-25099,56	312,00
-25032,19	296,00
-24965,07	333,00
-24898,20	230,00
-24831,56	288,00
-24765,17	280,00
-24699,01	255,00
-24633,10	257,00
-24567,41	198,00
-24501,97	297,00
-24436,75	297,00
-24371,77	259,00
-24307,03	296,00
-24242,51	241,00
-24178,22	421,00
-24114,16	272,00
-24050,32	208,00
-23986,71	328,00
-23923,32	356,00
-23860,16	262,00
-23797,22	281,00
-23734,50	302,00
-23672,00	356,00
-23609,71	225,00
-23547,65	307,00
-23485,80	302,00
-23424,16	321,00
-23362,74	266,00
-23301,53	292,00
-23240,54	290,00
-23179,75	232,00
-23119,17	238,00
-23058,80	371,00
-22998,64	290,00
-22938,68	290,00
-22878,93	334,00
-22819,39	329,00
-22760,04	323,00
-22700,90	285,00
-22641,96	285,00
-22583,22	237,00
-22524,68	320,00
-22466,33	259,00
-22408,19	372,00
-22350,23	298,00
-22292,48	346,00
-22234,92	329,00
-22177,55	319,00
-22120,37	370,00
-22063,38	317,00
-22006,58	251,00
-21949,98	301,00
-21893,56	178,00
-21837,33	246,00
-21781,28	301,00
-21725,42	245,00
-21669,74	341,00
-21614,25	306,00
-21558,94	284,00
-21503,81	224,00
-21448,86	290,00
-21394,10	327,00
-21339,51	297,00
-21285,10	208,00
-21230,86	294,00
-21176,81	239,00
-21122,93	239,00
-21069,22	312,00
-21015,69	296,00
-20962,33	265,00
-20909,14	369,00
-20856,13	245,00
-20803,28	255,00
-20750,61	302,00
-20698,10	257,00
-20645,76	318,00
-20593,59	368,00
-20541,59	262,00
-20489,75	324,00
-20438,07	276,00
-20386,56	391,00
-20335,22	320,00
-20284,03	287,00
-20233,01	234,00
-20182,15	201,00
-20131,45	254,00
-20080,91	230,00
-20030,52	243,00
-19980,30	247,00
-19930,23	311,00
-19880,32	339,00
-19830,56	344,00
-19780,96	205,00
-19731,52	349,00
-19682,23	308,00
-19633,09	214,00
-19584,10	217,00
-19535,26	284,00
-19486,58	315,00
-19438,04	265,00
-19389,66	236,00
-19341,42	362,00
-19293,33	218,00
-19245,39	287,00
-19197,60	314,00
-19149,95	226,00
-19102,45	364,00
-19055,09	307,00
-19007,87	344,00
-18960,80	329,00
-18913,87	302,00
-18867,09	386,00
-18820,44	375,00
-18773,94	317,00
-18727,57	232,00
-18681,35	213,00
-18635,26	320,00
-18589,31	286,00
-18543,50	235,00
-18497,83	299,00
-18452,29	300,00
-18406,89	267,00
-18361,63	290,00
-18316,50	317,00
-18271,50	314,00
-18226,63	307,00
-18181,90	256,00
-18137,30	288,00
-18092,84	262,00
-18048,50	300,00
-18004,29	221,00
-17960,22	283,00
-17916,27	350,00
-17872,45	261,00
-17828,76	300,00
-17785,20	315,00
-17741,77	345,00
-17698,46	333,00
-17655,28	251,00
-17612,22	223,00
-17569,29	252,00
-17526,48	326,00
-17483,79	253,00
-17441,23	327,00
-17398,79	285,00
-17356,48	304,00
-17314,28	432,00
-17272,21	280,00
-17230,26	206,00
-17188,42	297,00
-17146,71	265,00
-17105,12	355,00
-17063,64	283,00
-17022,28	269,00
-16981,04	295,00
-16939,92	208,00
-16898,91	366,00
-16858,02	335,00
-16817,25	196,00
-16776,59	273,00
-16736,04	355,00
-16695,61	172,00
-16655,29	288,00
-16615,09	356,00
-16574,99	295,00
-16535,01	254,00
-16495,15	273,00
-16455,39	309,00
-16415,74	345,00
-16376,21	185,00
-16336,78	217,00
-16297,46	281,00
-16258,26	407,00
-16219,16	329,00
-16180,17	288,00
-16141,28	356,00
-16102,51	366,00
-16063,84	293,00
-16025,27	303,00
-15986,82	191,00
-15948,46	208,00
-15910,22	257,00
-15872,07	333,00
-15834,04	275,00
-15796,10	300,00
-15758,27	335,00
-15720,54	317,00
-15682,91	350,00
-15645,39	249,00
-15607,97	325,00
-15570,64	263,00
-15533,42	249,00
-15496,30	315,00
-15459,28	228,00
-15422,36	287,00
-15385,54	252,00
-15348,82	359,00
-15312,19	388,00
-15275,66	230,00
-15239,23	236,00
-15202,90	273,00
-15166,67	287,00
-15130,53	317,00
-15094,48	368,00
-15058,54	282,00
-15022,68	240,00
-14986,93	244,00
-14951,26	234,00
-14915,69	184,00
-14880,22	240,00
-14844,84	288,00
-14809,55	333,00
-14774,35	219,00
-14739,25	361,00
-14704,24	281,00
-14669,32	351,00
-14634,49	308,00
-14599,75	283,00
-14565,10	201,00
-14530,55	321,00
-14496,08	332,00
-14461,70	291,00
-14427,41	295,00
-14393,21	249,00
-14359,10	298,00
-14325,07	275,00
-14291,14	342,00
-14257,29	248,00
-14223,52	324,00
-14189,85	359,00
-14156,26	280,00
-14122,76	314,00
-14089,34	229,00
-14056,01	296,00
-14022,76	334,00
-13989,60	351,00
-13956,52	284,00
-13923,53	279,00
-13890,62	360,00
-13857,79	249,00
-13825,05	223,00
-13792,39	284,00
-13759,81	318,00
-13727,31	299,00
-13694,90	286,00
-13662,57	280,00
-13630,31	324,00
-13598,14	289,00
-13566,05	276,00
-13534,05	329,00
-13502,12	240,00
-13470,27	297,00
-13438,50	334,00
-13406,80	269,00
-13375,19	151,00
-13343,66	339,00
-13312,20	318,00
-13280,83	207,00
-13249,53	248,00
-13218,30	291,00
-13187,16	298,00
-13156,09	313,00
-13125,10	326,00
-13094,18	323,00
-13063,34	344,00
-13032,58	266,00
-13001,89	288,00
-12971,28	266,00
-12940,74	303,00
-12910,27	295,00
-12879,88	258,00
-12849,57	303,00
-12819,33	246,00
-12789,16	230,00
-12759,06	219,00
-12729,04	278,00
-12699,09	613,00
-12669,21	291,00
-12639,41	300,00
-12609,68	312,00
-12580,02	292,00
-12550,43	377,00
-12520,91	179,00
-12491,46	267,00
-12462,08	260,00
-12432,77	310,00
-12403,54	314,00
-12374,37	290,00
-12345,27	262,00
-12316,24	332,00
-12287,29	364,00
-12258,40	307,00
-12229,57	337,00
-12200,82	376,00
-12172,14	194,00
-12143,52	259,00
-12114,97	210,00
-12086,49	263,00
-12058,07	258,00
-12029,73	268,00
-12001,44	336,00
-11973,23	246,00
-11945,08	303,00
-11917,00	344,00
-11888,98	198,00
-11861,03	233,00
-11833,15	307,00
-11805,32	318,00
-11777,57	288,00
-11749,88	304,00
-11722,25	256,00
-11694,69	306,00
-11667,19	232,00
-11639,75	239,00
-11612,38	265,00
-11585,07	227,00
-11557,83	344,00
-11530,65	337,00
-11503,53	336,00
-11476,47	400,00
-11449,48	277,00
-11422,54	252,00
-11395,67	286,00
-11368,86	321,00
-11342,11	263,00
-11315,43	273,00
-11288,80	208,00
-11262,23	356,00
-11235,73	260,00
-11209,28	297,00
-11182,90	339,00
-11156,57	368,00
-11130,31	282,00
-11104,10	371,00
-11077,96	322,00
-11051,87	299,00
-11025,84	342,00
-10999,87	234,00
-10973,96	342,00
-10948,11	320,00
-10922,31	237,00
-10896,58	295,00
-10870,90	287,00
-10845,28	259,00
-10819,71	246,00
-10794,20	253,00
-10768,75	375,00
-10743,36	316,00
-10718,02	345,00
-10692,74	311,00
-10667,52	192,00
-10642,35	392,00
-10617,24	334,00
-10592,18	400,00
-10567,18	291,00
-10542,23	365,00
-10517,34	396,00
-10492,51	368,00
-10467,72	283,00
-10443,00	256,00
-10418,32	288,00
-10393,70	180,00
-10369,14	232,00
-10344,63	327,00
-10320,17	291,00
-10295,77	310,00
-10271,42	297,00
-10247,12	360,00
-10222,88	411,00
-10198,68	270,00
-10174,54	248,00
-10150,46	367,00
-10126,42	317,00
-10102,44	353,00
-10078,51	372,00
-10054,63	359,00
-10030,80	286,00
-10007,03	410,00
-9983,30	361,00
-9959,63	248,00
-9936,01	418,00
-9912,44	405,00
-9888,92	347,00
-9865,44	360,00
-9842,02	398,00
-9818,65	264,00
-9795,33	340,00
-9772,06	324,00
-9748,84	222,00
-9725,67	362,00
-9702,55	316,00
-9679,47	443,00
-9656,45	339,00
-9633,47	342,00
-9610,55	384,00
-9587,67	424,00
-9564,84	448,00
-9542,06	459,00
-9519,32	433,00
-9496,64	482,00
-9474,00	435,00
-9451,41	498,00
-9428,87	535,00
-9406,37	459,00
-9383,92	479,00
-9361,52	414,00
-9339,17	424,00
-9316,86	399,00
-9294,60	413,00
-9272,38	594,00
-9250,21	553,00
-9228,09	576,00
-9206,01	578,00
-9183,98	568,00
-9162,00	547,00
-9140,06	418,00
-9118,16	472,00
-9096,31	534,00
-9074,51	501,00
-9052,75	584,00
-9031,04	532,00
-9009,37	446,00
-8987,74	420,00
-8966,16	480,00
-8944,63	362,00
-8923,14	311,00
-8901,69	430,00
-8880,29	465,00
-8858,93	487,00
-8837,61	528,00
-8816,34	565,00
-8795,11	567,00
-8773,92	622,00
-8752,78	562,00
-8731,68	485,00
-8710,62	420,00
-8689,61	382,00
-8668,63	426,00
-8647,70	583,00
-8626,82	524,00
-8605,97	516,00
-8585,17	465,00
-8564,41	396,00
-8543,69	379,00
-8523,01	501,00
-8502,37	492,00
-8481,78	410,00
-8461,23	307,00
-8440,71	453,00
-8420,24	448,00
-8399,81	507,00
-8379,42	399,00
-8359,08	552,00
-8338,77	409,00
-8318,50	563,00
-8298,27	368,00
-8278,09	479,00
-8257,94	395,00
-8237,83	490,00
-8217,76	474,00
-8197,74	519,00
-8177,75	402,00
-8157,80	592,00
-8137,89	471,00
-8118,02	425,00
-8098,19	523,00
-8078,40	428,00
-8058,65	510,00
-8038,93	586,00
-8019,26	489,00
-7999,62	476,00
-7980,02	446,00
-7960,46	452,00
-7940,94	371,00
-7921,46	443,00
-7902,01	364,00
-7882,60	470,00
-7863,23	517,00
-7843,90	490,00
-7824,61	420,00
-7805,35	423,00
-7786,13	437,00
-7766,95	436,00
-7747,80	491,00
-7728,69	544,00
-7709,62	380,00
-7690,59	439,00
-7671,59	512,00
-7652,63	475,00
-7633,70	462,00
-7614,81	467,00
-7595,96	413,00
-7577,15	495,00
-7558,37	379,00
-7539,62	371,00
-7520,91	483,00
-7502,24	374,00
-7483,60	476,00
-7465,00	457,00
-7446,44	446,00
-7427,91	335,00
-7409,41	420,00
-7390,95	361,00
-7372,53	335,00
-7354,14	481,00
-7335,78	332,00
-7317,46	369,00
-7299,18	355,00
-7280,92	400,00
-7262,71	431,00
-7244,52	465,00
-7226,38	486,00
-7208,26	500,00
-7190,18	486,00
-7172,14	513,00
-7154,12	426,00
-7136,15	438,00
-7118,20	469,00
-7100,29	390,00
-7082,41	549,00
-7064,57	374,00
-7046,76	373,00
-7028,98	369,00
-7011,24	503,00
-6993,53	259,00
-6975,85	328,00
-6958,20	288,00
-6940,59	328,00
-6923,01	288,00
-6905,46	422,00
-6887,94	430,00
-6870,46	503,00
-6853,01	380,00
-6835,59	384,00
-6818,21	344,00
-6800,85	419,00
-6783,53	305,00
-6766,24	366,00
-6748,98	286,00
-6731,76	223,00
-6714,56	208,00
-6697,40	259,00
-6680,26	294,00
-6663,16	282,00
-6646,09	370,00
-6629,05	374,00
-6612,05	385,00
-6595,07	269,00
-6578,13	363,00
-6561,21	331,00
-6544,33	328,00
-6527,47	284,00
-6510,65	399,00
-6493,86	335,00
-6477,10	279,00
-6460,36	259,00
-6443,66	245,00
-6426,99	339,00
-6410,35	191,00
-6393,74	392,00
-6377,16	310,00
-6360,61	299,00
-6344,09	179,00
-6327,59	338,00
-6311,13	184,00
-6294,70	364,00
-6278,29	385,00
-6261,92	358,00
-6245,58	269,00
-6229,26	460,00
-6212,97	296,00
-6196,72	349,00
-6180,49	329,00
-6164,29	264,00
-6148,12	278,00
-6131,98	208,00
-6115,86	328,00
-6099,78	293,00
-6083,72	205,00
-6067,69	272,00
-6051,69	382,00
-6035,72	291,00
-6019,78	313,00
-6003,87	358,00
-5987,98	234,00
-5972,12	318,00
-5956,29	396,00
-5940,49	310,00
-5924,71	284,00
-5908,96	321,00
-5893,24	298,00
-5877,55	241,00
-5861,89	297,00
-5846,25	302,00
-5830,64	268,00
-5815,05	240,00
-5799,50	351,00
-5783,97	301,00
-5768,47	468,00
-5752,99	339,00
-5737,55	274,00
-5722,12	340,00
-5706,73	271,00
-5691,36	305,00
-5676,02	196,00
-5660,71	319,00
-5645,42	242,00
-5630,16	300,00
-5614,92	275,00
-5599,71	230,00
-5584,53	348,00
-5569,37	242,00
-5554,24	982,00
-5539,14	293,00
-5524,06	351,00
-5509,01	279,00
-5493,98	305,00
-5478,98	285,00
-5464,00	314,00
-5449,05	129,00
-5434,13	252,00
-5419,23	302,00
-5404,36	230,00
-5389,51	384,00
-5374,69	299,00
-5359,89	241,00
-5345,12	347,00
-5330,37	359,00
-5315,65	472,00
-5300,95	308,00
-5286,28	290,00
-5271,63	267,00
-5257,01	268,00
-5242,41	315,00
-5227,84	313,00
-5213,29	236,00
-5198,76	355,00
-5184,26	256,00
-5169,79	192,00
-5155,33	293,00
-5140,91	324,00
-5126,51	222,00
-5112,13	325,00
-5097,77	377,00
-5083,44	266,00
-5069,13	213,00
-5054,85	319,00
-5040,59	243,00
-5026,36	354,00
-5012,15	330,00
-4997,96	317,00
-4983,80	280,00
-4969,66	294,00
-4955,54	334,00
-4941,44	338,00
-4927,37	371,00
-4913,33	331,00
-4899,30	304,00
-4885,30	339,00
-4871,33	333,00
-4857,37	285,00
-4843,44	354,00
-4829,53	340,00
-4815,65	271,00
-4801,79	293,00
-4787,95	162,00
-4774,13	250,00
-4760,34	240,00
-4746,56	322,00
-4732,82	248,00
-4719,09	309,00
-4705,38	316,00
-4691,70	385,00
-4678,04	305,00
-4664,41	359,00
-4650,79	352,00
-4637,20	339,00
-4623,63	353,00
-4610,08	333,00
-4596,56	375,00
-4583,05	275,00
-4569,57	237,00
-4556,11	271,00
-4542,67	309,00
-4529,25	315,00
-4515,86	346,00
-4502,49	434,00
-4489,13	328,00
-4475,80	294,00
-4462,49	323,00
-4449,21	377,00
-4435,94	328,00
-4422,70	357,00
-4409,47	271,00
-4396,27	306,00
-4383,09	369,00
-4369,93	201,00
-4356,79	272,00
-4343,67	299,00
-4330,58	200,00
-4317,50	225,00
-4304,45	258,00
-4291,41	296,00
-4278,40	267,00
-4265,41	282,00
-4252,44	289,00
-4239,49	295,00
-4226,55	295,00
-4213,65	383,00
-4200,76	435,00
-4187,89	284,00
-4175,04	310,00
-4162,21	308,00
-4149,40	233,00
-4136,61	173,00
-4123,85	268,00
-4111,10	315,00
-4098,37	394,00
-4085,66	274,00
-4072,98	305,00
-4060,31	230,00
-4047,66	303,00
-4035,04	313,00
-4022,43	243,00
-4009,84	427,00
-3997,27	259,00
-3984,72	317,00
-3972,19	268,00
-3959,69	230,00
-3947,20	336,00
-3934,73	320,00
-3922,27	293,00
-3909,84	293,00
-3897,43	340,00
-3885,04	293,00
-3872,67	213,00
-3860,31	290,00
-3847,98	397,00
-3835,66	329,00
-3823,36	346,00
-3811,09	267,00
-3798,83	305,00
-3786,59	386,00
-3774,37	368,00
-3762,17	199,00
-3749,98	315,00
-3737,82	303,00
-3725,67	375,00
-3713,55	214,00
-3701,44	330,00
-3689,35	285,00
-3677,28	303,00
-3665,22	257,00
-3653,19	294,00
-3641,17	301,00
-3629,18	288,00
-3617,20	255,00
-3605,24	278,00
-3593,30	307,00
-3581,37	293,00
-3569,47	307,00
-3557,58	312,00
-3545,71	312,00
-3533,86	321,00
-3522,02	268,00
-3510,21	299,00
-3498,41	305,00
-3486,63	322,00
-3474,87	290,00
-3463,12	250,00
-3451,40	338,00
-3439,69	363,00
-3428,00	308,00
-3416,33	311,00
-3404,67	285,00
-3393,03	353,00
-3381,41	287,00
-3369,81	317,00
-3358,22	270,00
-3346,66	274,00
-3335,10	331,00
-3323,57	236,00
-3312,06	225,00
-3300,56	275,00
-3289,08	247,00
-3277,61	309,00
-3266,16	293,00
-3254,73	275,00
-3243,32	385,00
-3231,92	249,00
-3220,55	292,00
-3209,18	287,00
-3197,84	240,00
-3186,51	205,00
-3175,20	274,00
-3163,90	334,00
-3152,63	293,00
-3141,36	273,00
-3130,12	263,00
-3118,89	345,00
-3107,68	314,00
-3096,49	284,00
-3085,31	377,00
-3074,15	333,00
-3063,00	272,00
-3051,87	346,00
-3040,76	337,00
-3029,67	258,00
-3018,59	274,00
-3007,52	377,00
-2996,48	405,00
-2985,44	248,00
-2974,43	235,00
-2963,43	272,00
-2952,45	250,00
-2941,48	368,00
-2930,53	302,00
-2919,60	253,00
-2908,68	293,00
-2897,78	293,00
-2886,89	334,00
-2876,02	321,00
-2865,17	252,00
-2854,33	278,00
-2843,50	211,00
-2832,70	265,00
-2821,90	392,00
-2811,13	272,00
-2800,37	317,00
-2789,62	278,00
-2778,89	303,00
-2768,18	279,00
-2757,48	368,00
-2746,80	336,00
-2736,13	330,00
-2725,48	272,00
-2714,84	315,00
-2704,22	248,00
-2693,61	348,00
-2683,02	216,00
-2672,45	239,00
-2661,89	415,00
-2651,34	227,00
-2640,81	272,00
-2630,30	299,00
-2619,80	384,00
-2609,31	293,00
-2598,84	266,00
-2588,39	308,00
-2577,95	239,00
-2567,52	312,00
-2557,11	292,00
-2546,71	314,00
-2536,33	339,00
-2525,97	298,00
-2515,62	181,00
-2505,28	266,00
-2494,96	278,00
-2484,65	228,00
-2474,36	365,00
-2464,08	253,00
-2453,82	402,00
-2443,57	344,00
-2433,33	304,00
-2423,11	323,00
-2412,91	208,00
-2402,72	265,00
-2392,54	291,00
-2382,38	277,00
-2372,23	340,00
-2362,09	489,00
-2351,97	327,00
-2341,87	255,00
-2331,78	323,00
-2321,70	231,00
-2311,64	291,00
-2301,59	302,00
-2291,55	291,00
-2281,53	345,00
-2271,53	267,00
-2261,53	400,00
-2251,55	192,00
-2241,59	292,00
-2231,64	335,00
-2221,70	278,00
-2211,78	375,00
-2201,87	328,00
-2191,97	281,00
-2182,09	237,00
-2172,22	320,00
-2162,37	282,00
-2152,53	321,00
-2142,70	243,00
-2132,89	292,00
-2123,09	290,00
-2113,30	259,00
-2103,53	284,00
-2093,77	238,00
-2084,02	256,00
-2074,29	316,00
-2064,57	310,00
-2054,86	334,00
-2045,17	177,00
-2035,49	360,00
-2025,82	272,00
-2016,17	323,00
-2006,53	243,00
-1996,91	265,00
-1987,29	290,00
-1977,69	316,00
-1968,11	284,00
-1958,53	280,00
-1948,97	292,00
-1939,42	248,00
-1929,89	278,00
-1920,37	342,00
-1910,86	400,00
-1901,36	324,00
-1891,88	280,00
-1882,41	292,00
-1872,95	286,00
-1863,51	295,00
-1854,08	271,00
-1844,66	355,00
-1835,26	199,00
-1825,86	357,00
-1816,48	295,00
-1807,11	365,00
-1797,76	274,00
-1788,42	327,00
-1779,09	304,00
-1769,77	218,00
-1760,47	419,00
-1751,17	306,00
-1741,89	336,00
-1732,63	321,00
-1723,37	463,00
-1714,13	316,00
-1704,90	181,00
-1695,68	337,00
-1686,48	207,00
-1677,29	285,00
-1668,11	358,00
-1658,94	293,00
-1649,78	268,00
-1640,64	300,00
-1631,51	259,00
-1622,39	297,00
-1613,28	331,00
-1604,19	390,00
-1595,10	378,00
-1586,03	270,00
-1576,97	304,00
-1567,93	284,00
-1558,89	383,00
-1549,87	420,00
-1540,86	271,00
-1531,86	265,00
-1522,87	271,00
-1513,90	334,00
-1504,93	263,00
-1495,98	319,00
-1487,04	376,00
-1478,12	372,00
-1469,20	291,00
-1460,30	286,00
-1451,40	310,00
-1442,52	270,00
-1433,65	292,00
-1424,80	350,00
-1415,95	287,00
-1407,12	333,00
-1398,30	343,00
-1389,48	246,00
-1380,69	235,00
-1371,90	321,00
-1363,12	320,00
-1354,36	373,00
-1345,60	223,00
-1336,86	253,00
-1328,13	364,00
-1319,41	302,00
-1310,70	342,00
-1302,01	288,00
-1293,32	229,00
-1284,65	285,00
-1275,99	259,00
-1267,33	374,00
-1258,69	344,00
-1250,06	337,00
-1241,45	301,00
-1232,84	401,00
-1224,25	332,00
-1215,66	316,00
-1207,09	299,00
-1198,53	280,00
-1189,97	262,00
-1181,43	325,00
-1172,91	398,00
-1164,39	278,00
-1155,88	301,00
-1147,38	192,00
-1138,90	316,00
-1130,43	317,00
-1121,96	285,00
-1113,51	375,00
-1105,07	337,00
-1096,64	229,00
-1088,22	349,00
-1079,81	298,00
-1071,41	334,00
-1063,02	334,00
-1054,65	253,00
-1046,28	331,00
-1037,92	319,00
-1029,58	246,00
-1021,24	353,00
-1012,92	444,00
-1004,61	269,00
-996,30	470,00
-988,01	290,00
-979,73	364,00
-971,46	303,00
-963,20	289,00
-954,95	262,00
-946,71	307,00
-938,48	250,00
-930,26	321,00
-922,06	333,00
-913,86	310,00
-905,67	297,00
-897,49	219,00
-889,33	261,00
-881,17	378,00
-873,02	356,00
-864,89	204,00
-856,76	256,00
-848,65	352,00
-840,54	277,00
-832,45	361,00
-824,36	238,00
-816,29	292,00
-808,22	335,00
-800,17	328,00
-792,12	291,00
-784,09	432,00
-776,06	278,00
-768,05	341,00
-760,04	250,00
-752,05	270,00
-744,07	380,00
-736,09	377,00
-728,13	272,00
-720,17	256,00
-712,23	256,00
-704,29	366,00
-696,37	291,00
-688,45	297,00
-680,55	365,00
-672,65	231,00
-664,77	297,00
-656,89	300,00
-649,03	238,00
-641,17	286,00
-633,32	368,00
-625,49	310,00
-617,66	326,00
-609,84	316,00
-602,03	251,00
-594,23	245,00
-586,45	273,00
-578,67	282,00
-570,90	231,00
-563,14	401,00
-555,39	301,00
-547,65	331,00
-539,91	327,00
-532,19	232,00
-524,48	276,00
-516,78	326,00
-509,08	304,00
-501,40	337,00
-493,72	320,00
-486,06	278,00
-478,40	398,00
-470,76	343,00
-463,12	289,00
-455,49	288,00
-447,87	372,00
-440,26	279,00
-432,66	251,00
-425,07	256,00
-417,49	227,00
-409,92	389,00
-402,35	249,00
-394,80	270,00
-387,25	284,00
-379,72	353,00
-372,19	281,00
-364,67	355,00
-357,17	327,00
-349,67	370,00
-342,18	261,00
-334,69	357,00
-327,22	370,00
-319,76	323,00
-312,30	396,00
-304,86	392,00
-297,42	360,00
-290,00	250,00
-282,58	281,00
-275,17	334,00
-267,77	349,00
-260,37	328,00
-252,99	403,00
-245,62	377,00
-238,25	361,00
-230,90	275,00
-223,55	367,00
-216,21	346,00
-208,88	350,00
-201,56	406,00
-194,25	430,00
-186,94	345,00
-179,65	409,00
-172,36	449,00
-165,08	371,00
-157,81	568,00
-150,55	537,00
-143,30	515,00
-136,06	550,00
-128,82	507,00
-121,60	567,00
-114,38	686,00
-107,17	636,00
-99,97	656,00
-92,78	698,00
-85,60	786,00
-78,42	867,00
-71,25	985,00
-64,10	1162,00
-56,95	1172,00
-49,81	1334,00
-42,67	1765,00
-35,55	2107,00
-28,43	2545,00
-21,33	4026,00
-14,23	12548,00
-7,14	57775,00
-0,05	57564,00
7,02	57281,00
14,09	44962,00
21,14	11923,00
28,19	5075,00
35,23	3301,00
42,27	2532,00
49,29	2125,00
56,31	1907,00
63,32	1622,00
70,32	1363,00
77,31	1113,00
84,29	1059,00
91,27	1043,00
98,23	931,00
105,19	810,00
112,14	992,00
119,09	1199,00
126,02	1761,00
132,95	2070,00
139,87	2014,00
146,78	2062,00
153,68	2047,00
160,58	1919,00
167,46	1927,00
174,34	1996,00
181,21	1999,00
188,08	2013,00
194,93	2068,00
201,78	1898,00
208,62	1943,00
215,45	1972,00
222,27	1968,00
229,09	2071,00
235,90	1927,00
242,70	2001,00
249,49	1905,00
256,27	1864,00
263,05	1940,00
269,82	1905,00
276,58	1925,00
283,33	1888,00
290,08	1910,00
296,82	1879,00
303,55	1919,00
310,27	1765,00
316,98	1792,00
323,69	1819,00
330,39	1717,00
337,08	1935,00
343,76	1842,00
350,44	1832,00
357,11	1944,00
363,77	1690,00
370,42	1759,00
377,07	1898,00
383,71	1814,00
390,34	1783,00
396,96	1762,00
403,58	1736,00
410,19	1828,00
416,79	1902,00
423,38	1927,00
429,97	1784,00
436,55	1755,00
443,12	1795,00
449,68	1608,00
456,24	1745,00
462,79	1849,00
469,33	1725,00
475,86	1735,00
482,39	1765,00
488,91	1872,00
495,42	1644,00
501,93	1719,00
508,42	1697,00
514,91	1801,00
521,40	1647,00
527,87	1695,00
534,34	1613,00
540,80	1792,00
547,25	1784,00
553,70	1793,00
560,14	1708,00
566,57	1755,00
573,00	1719,00
579,41	1759,00
585,83	1716,00
592,23	1716,00
598,62	1780,00
605,01	1541,00
611,40	1767,00
617,77	1729,00
624,14	1657,00
630,50	1666,00
636,85	1738,00
643,20	1637,00
649,54	1689,00
655,87	1727,00
662,20	1802,00
668,52	1815,00
674,83	1805,00
681,13	1730,00
687,43	1677,00
693,72	1720,00
700,00	1618,00
706,28	1671,00
712,55	1756,00
718,81	1671,00
725,07	1694,00
731,32	1651,00
737,56	1731,00
743,79	1651,00
750,02	1717,00
756,24	1778,00
762,46	1733,00
768,67	1799,00
774,87	1810,00
781,06	1733,00
787,25	1775,00
793,43	1734,00
799,60	1618,00
805,77	1837,00
811,93	1681,00
818,08	1744,00
824,23	1768,00
830,37	1924,00
836,50	1782,00
842,63	1765,00
848,75	1737,00
854,87	1753,00
860,97	1758,00
867,07	1816,00
873,17	1803,00
879,25	1739,00
885,33	1731,00
891,41	1736,00
897,47	1850,00
903,53	1846,00
909,59	1790,00
915,63	1792,00
921,67	1732,00
927,71	1793,00
933,74	1710,00
939,76	1733,00
945,77	1677,00
951,78	1740,00
957,78	1698,00
963,78	1825,00
969,77	1747,00
975,75	1794,00
981,72	1689,00
987,69	2295,00
993,66	1729,00
999,61	1749,00
1005,56	1879,00
1011,51	1652,00
1017,44	1808,00
1023,37	1847,00
1029,30	1776,00
1035,22	1899,00
1041,13	1832,00
1047,03	1831,00
1052,93	1972,00
1058,83	2274,00
1064,71	2343,00
1070,59	2104,00
1076,47	1964,00
1082,33	1918,00
1088,20	1964,00
1094,05	1988,00
1099,90	1848,00
1105,74	1798,00
1111,58	1806,00
1117,41	1922,00
1123,23	2062,00
1129,05	2429,00
1134,86	2313,00
1140,67	2091,00
1146,47	1960,00
1152,26	1875,00
1158,05	1712,00
1163,83	1902,00
1169,60	1980,00
1175,37	1893,00
1181,13	1833,00
1186,89	1823,00
1192,64	1856,00
1198,38	1873,00
1204,12	1735,00
1209,85	1817,00
1215,58	1821,00
1221,30	1909,00
1227,02	1972,00
1232,72	1780,00
1238,43	1778,00
1244,12	1956,00
1249,81	1905,00
1255,50	1943,00
1261,17	1864,00
1266,85	1881,00
1272,51	1955,00
1278,17	2073,00
1283,83	2071,00
1289,47	2341,00
1295,12	2714,00
1300,75	2524,00
1306,38	2369,00
1312,01	2051,00
1317,63	2048,00
1323,24	1986,00
1328,85	2039,00
1334,45	1989,00
1340,04	1921,00
1345,63	1980,00
1351,22	2057,00
1356,80	1967,00
1362,37	2043,00
1367,93	1929,00
1373,49	2067,00
1379,05	1885,00
1384,60	1972,00
1390,14	2010,00
1395,68	1901,00
1401,21	1980,00
1406,74	2060,00
1412,26	2176,00
1417,77	2269,00
1423,28	2245,00
1428,78	2324,00
1434,28	2494,00
1439,77	2677,00
1445,26	2698,00
1450,74	2512,00
1456,22	2449,00
1461,68	2491,00
1467,15	2288,00
1472,61	2160,00
1478,06	2222,00
1483,51	2112,00
1488,95	2051,00
1494,38	2031,00
1499,81	1950,00
1505,24	1825,00
1510,65	1867,00
1516,07	1960,00
1521,48	1868,00
1526,88	1756,00
1532,27	1916,00
1537,67	1830,00
1543,05	1896,00
1548,43	1812,00
1553,81	1866,00
1559,18	1798,00
1564,54	1902,00
1569,90	1728,00
1575,25	1796,00
1580,60	1752,00
1585,94	1816,00
1591,28	1813,00
1596,61	1877,00
1601,93	1718,00
1607,25	1766,00
1612,57	1794,00
1617,88	1813,00
1623,18	1742,00
1628,48	1810,00
1633,77	1621,00
1639,06	1775,00
1644,34	1736,00
1649,62	1774,00
1654,89	1845,00
1660,16	1730,00
1665,42	1773,00
1670,67	1647,00
1675,92	1796,00
1681,17	1716,00
1686,41	1761,00
1691,64	1863,00
1696,87	1680,00
1702,10	1662,00
1707,32	1687,00
1712,53	1668,00
1717,74	1705,00
1722,94	1660,00
1728,14	1737,00
1733,33	1628,00
1738,52	1696,00
1743,70	1662,00
1748,88	1700,00
1754,05	1533,00
1759,22	1551,00
1764,38	2840,00
1769,53	1519,00
1774,69	1721,00
1779,83	1657,00
1784,97	1561,00
1790,11	1600,00
1795,24	1603,00
1800,36	1673,00
1805,48	1481,00
1810,60	1579,00
1815,71	1599,00
1820,82	1555,00
1825,92	1577,00
1831,01	1552,00
1836,10	1557,00
1841,19	1539,00
1846,26	1470,00
1851,34	1504,00
1856,41	1655,00
1861,47	1640,00
1866,53	1533,00
1871,59	1543,00
1876,64	1464,00
1881,68	1544,00
1886,72	1657,00
1891,76	1465,00
1896,79	1494,00
1901,81	1436,00
1906,83	1484,00
1911,85	1477,00
1916,86	1494,00
1921,86	1471,00
1926,86	1472,00
1931,86	1419,00
1936,85	1488,00
1941,83	1484,00
1946,81	1502,00
1951,79	1467,00
1956,76	1340,00
1961,72	1340,00
1966,68	1406,00
1971,64	1355,00
1976,59	1308,00
1981,54	1427,00
1986,48	1300,00
1991,42	1305,00
1996,35	1458,00
2001,27	1384,00
2006,20	1324,00
2011,11	1462,00
2016,03	1428,00
2020,93	1397,00
2025,84	1422,00
2030,73	1265,00
2035,63	1297,00
2040,52	1391,00
2045,40	1384,00
2050,28	1416,00
2055,15	1389,00
2060,02	1334,00
2064,89	1283,00
2069,75	1322,00
2074,60	1326,00
2079,46	1316,00
2084,30	1287,00
2089,14	1287,00
2093,98	1325,00
2098,81	1354,00
2103,64	1350,00
2108,46	1332,00
2113,28	1273,00
2118,09	1372,00
2122,90	1315,00
2127,70	1386,00
2132,50	1303,00
2137,30	1296,00
2142,09	1242,00
2146,87	1239,00
2151,66	1337,00
2156,43	1323,00
2161,20	1323,00
2165,97	1267,00
2170,73	1237,00
2175,49	1256,00
2180,24	1286,00
2184,99	1313,00
2189,74	1323,00
2194,48	1236,00
2199,21	1317,00
2203,94	1236,00
2208,67	1158,00
2213,39	1144,00
2218,11	1294,00
2222,82	1270,00
2227,53	1235,00
2232,23	1294,00
2236,93	1177,00
2241,63	1294,00
2246,32	1128,00
2251,00	1216,00
2255,68	1120,00
2260,36	1245,00
2265,03	1226,00
2269,70	1285,00
2274,36	1144,00
2279,02	1232,00
2283,68	1240,00
2288,33	1103,00
2292,97	1217,00
2297,61	1202,00
2302,25	1143,00
2306,88	1140,00
2311,51	1161,00
2316,14	1169,00
2320,75	1213,00
2325,37	1071,00
2329,98	1127,00
2334,59	1154,00
2339,19	1208,00
2343,79	1040,00
2348,38	1093,00
2352,97	1096,00
2357,55	1082,00
2362,13	1142,00
2366,71	1120,00
2371,28	1051,00
2375,85	1098,00
2380,41	1148,00
2384,97	1075,00
2389,52	1096,00
2394,07	1035,00
2398,62	1201,00
2403,16	1026,00
2407,70	1160,00
2412,23	1135,00
2416,76	1107,00
2421,29	1083,00
2425,81	1052,00
2430,32	1029,00
2434,84	989,00
2439,34	1088,00
2443,85	1128,00
2448,35	935,00
2452,84	955,00
2457,33	961,00
2461,82	1017,00
2466,30	929,00
2470,78	925,00
2475,25	919,00
2479,72	947,00
2484,19	975,00
2488,65	992,00
2493,11	958,00
2497,56	942,00
2502,01	912,00
2506,46	898,00
2510,90	1068,00
2515,34	954,00
2519,77	1004,00
2524,20	921,00
2528,62	941,00
2533,04	971,00
2537,46	853,00
2541,87	935,00
2546,28	877,00
2550,68	929,00
2555,08	872,00
2559,48	916,00
2563,87	916,00
2568,26	830,00
2572,64	959,00
2577,02	951,00
2581,40	751,00
2585,77	853,00
2590,14	816,00
2594,50	885,00
2598,86	867,00
2603,22	772,00
2607,57	871,00
2611,92	952,00
2616,26	873,00
2620,60	953,00
2624,94	879,00
2629,27	1006,00
2633,60	785,00
2637,92	947,00
2642,24	859,00
2646,56	840,00
2650,87	857,00
2655,18	930,00
2659,48	821,00
2663,78	839,00
2668,08	799,00
2672,37	850,00
2676,66	866,00
2680,95	859,00
2685,23	824,00
2689,50	812,00
2693,78	769,00
2698,05	860,00
2702,31	843,00
2706,57	808,00
2710,83	987,00
2715,08	875,00
2719,33	963,00
2723,58	986,00
2727,82	853,00
2732,06	1024,00
2736,29	759,00
2740,53	932,00
2744,75	821,00
2748,97	927,00
2753,19	925,00
2757,41	852,00
2761,62	938,00
2765,83	1061,00
2770,03	855,00
2774,23	811,00
2778,43	846,00
2782,62	750,00
2786,81	834,00
2791,00	868,00
2795,18	928,00
2799,35	831,00
2803,53	915,00
2807,70	910,00
2811,86	794,00
2816,03	958,00
2820,19	896,00
2824,34	941,00
2828,49	908,00
2832,64	1068,00
2836,78	1159,00
2840,92	1330,00
2845,06	1527,00
2849,19	1628,00
2853,32	1745,00
2857,45	1642,00
2861,57	1708,00
2865,69	1683,00
2869,80	1504,00
2873,91	1574,00
2878,02	1748,00
2882,12	1917,00
2886,22	1858,00
2890,32	1697,00
2894,41	1628,00
2898,50	1504,00
2902,58	1419,00
2906,67	1330,00
2910,74	1291,00
2914,82	1214,00
2918,89	1161,00
2922,96	1111,00
2927,02	1129,00
2931,08	1031,00
2935,13	994,00
2939,19	984,00
2943,24	963,00
2947,28	878,00
2951,32	800,00
2955,36	774,00
2959,40	810,00
2963,43	863,00
2967,46	716,00
2971,48	673,00
2975,50	784,00
2979,52	680,00
2983,53	712,00
2987,54	638,00
2991,55	608,00
2995,55	633,00
2999,55	577,00
3003,54	608,00
3007,54	622,00
3011,53	572,00
3015,51	592,00
3019,49	573,00
3023,47	601,00
3027,45	614,00
3031,42	574,00
3035,39	523,00
3039,35	596,00
3043,31	619,00
3047,27	566,00
3051,22	568,00
3055,17	482,00
3059,12	517,00
3063,06	630,00
3067,00	425,00
3070,94	549,00
3074,87	547,00
3078,80	572,00
3082,73	564,00
3086,65	463,00
3090,57	549,00
3094,49	468,00
3098,40	506,00
3102,31	440,00
3106,22	580,00
3110,12	548,00
3114,02	440,00
3117,92	493,00
3121,81	462,00
3125,70	439,00
3129,58	444,00
3133,47	453,00
3137,34	530,00
3141,22	528,00
3145,09	516,00
3148,96	458,00
3152,83	423,00
3156,69	530,00
3160,55	400,00
3164,40	461,00
3168,26	477,00
3172,10	534,00
3175,95	502,00
3179,79	455,00
3183,63	514,00
3187,47	423,00
3191,30	472,00
3195,13	463,00
3198,95	400,00
3202,78	524,00
3206,60	387,00
3210,41	409,00
3214,23	427,00
3218,03	463,00
3221,84	395,00
3225,64	356,00
3229,44	423,00
3233,24	490,00
3237,03	356,00
3240,82	361,00
3244,61	403,00
3248,39	488,00
3252,17	446,00
3255,95	342,00
3259,72	464,00
3263,49	460,00
3267,26	452,00
3271,03	423,00
3274,79	478,00
3278,54	509,00
3282,30	365,00
3286,05	355,00
3289,80	403,00
3293,54	444,00
3297,29	441,00
3301,02	339,00
3304,76	466,00
3308,49	373,00
3312,22	411,00
3315,95	457,00
3319,67	349,00
3323,39	466,00
3327,10	431,00
3330,82	378,00
3334,53	364,00
3338,24	320,00
3341,94	343,00
3345,64	309,00
3349,34	438,00
3353,03	371,00
3356,72	393,00
3360,41	404,00
3364,10	386,00
3367,78	365,00
3371,46	370,00
3375,13	410,00
3378,81	336,00
3382,48	415,00
3386,14	425,00
3389,81	393,00
3393,47	267,00
3397,12	377,00
3400,78	307,00
3404,43	414,00
3408,08	324,00
3411,72	347,00
3415,36	368,00
3419,00	254,00
3422,64	419,00
3426,27	279,00
3429,90	305,00
3433,53	434,00
3437,15	289,00
3440,77	216,00
3444,39	336,00
3448,00	407,00
3451,62	301,00
3455,22	343,00
3458,83	396,00
3462,43	402,00
3466,03	434,00
3469,63	344,00
3473,22	366,00
3476,81	300,00
3480,40	380,00
3483,99	358,00
3487,57	350,00
3491,15	363,00
3494,72	289,00
3498,29	398,00
3501,86	320,00
3505,43	361,00
3508,99	284,00
3512,56	284,00
3516,11	307,00
3519,67	252,00
3523,22	300,00
3526,77	302,00
3530,32	255,00
3533,86	396,00
3537,40	337,00
3540,94	341,00
3544,47	317,00
3548,00	307,00
3551,53	322,00
3555,06	344,00
3558,58	291,00
3562,10	406,00
3565,62	348,00
3569,13	297,00
3572,64	290,00
3576,15	244,00
3579,66	307,00
3583,16	348,00
3586,66	330,00
3590,16	251,00
3593,65	298,00
3597,14	297,00
3600,63	367,00
3604,11	411,00
3607,60	259,00
3611,08	296,00
3614,55	286,00
3618,03	201,00
3621,50	267,00
3624,97	302,00
3628,43	359,00
3631,90	361,00
3635,36	248,00
3638,81	322,00
3642,27	329,00
3645,72	291,00
3649,17	389,00
3652,61	239,00
3656,06	218,00
3659,50	281,00
3662,93	216,00
3666,37	338,00
3669,80	250,00
3673,23	280,00
3676,65	311,00
3680,08	340,00
3683,50	287,00
3686,92	274,00
3690,33	248,00
3693,74	306,00
3697,15	211,00
3700,56	212,00
3703,96	307,00
3707,36	193,00
3710,76	258,00
3714,16	346,00
3717,55	181,00
3720,94	319,00
3724,33	300,00
3727,71	339,00
3731,10	212,00
3734,48	178,00
3737,85	176,00
3741,23	220,00
3744,60	294,00
3747,97	241,00
3751,33	187,00
3754,69	242,00
3758,05	247,00
3761,41	238,00
3764,77	147,00
3768,12	167,00
3771,47	345,00
3774,82	225,00
3778,16	-7,00
3781,50	2,00
3784,84	7,00
3788,18	5,00
>>>>>End Processed Spectral Data<<<<<
