SpectraSuite Data File
++++++++++++++++++++++++++++++++++++
Date: Mon Mar 09 14:48:41 ICT 2026
User: Administrator
Dark Spectrum Present: Yes
Reference Spectrum Present: No
Number of Sampled Component Spectra: 1
Spectrometers: MAYP113682
Integration Time (usec): 3000000 (MAYP113682)
Spectra Averaged: 1 (MAYP113682)
Boxcar Smoothing: 0 (MAYP113682)
Correct for Electrical Dark: No (MAYP113682)
Strobe/Lamp Enabled: No (MAYP113682)
Correct for Detector Non-linearity: No (MAYP113682)
Correct for Stray Light: No (MAYP113682)
Number of Pixels in Processed Spectrum: 2068
>>>>>Begin Processed Spectral Data<<<<<
-37534,58	33,00
-37414,56	2,00
-37295,11	4,00
-37176,24	8,00
-37057,95	679,00
-36940,22	699,00
-36823,05	825,00
-36706,45	932,00
-36590,40	702,00
-36474,90	899,00
-36359,95	820,00
-36245,55	870,00
-36131,68	847,00
-36018,35	853,00
-35905,55	814,00
-35793,29	845,00
-35681,54	903,00
-35570,32	806,00
-35459,62	924,00
-35349,43	964,00
-35239,75	839,00
-35130,58	791,00
-35021,91	877,00
-34913,74	912,00
-34806,07	850,00
-34698,89	941,00
-34592,20	835,00
-34486,00	971,00
-34380,28	847,00
-34275,04	883,00
-34170,27	830,00
-34065,98	888,00
-33962,16	840,00
-33858,81	883,00
-33755,92	963,00
-33653,49	974,00
-33551,52	950,00
-33450,01	855,00
-33348,94	879,00
-33248,33	933,00
-33148,16	913,00
-33048,43	928,00
-32949,14	1021,00
-32850,29	1009,00
-32751,87	925,00
-32653,89	899,00
-32556,33	1077,00
-32459,20	1000,00
-32362,49	965,00
-32266,19	921,00
-32170,32	905,00
-32074,86	877,00
-31979,82	924,00
-31885,18	1091,00
-31790,95	1029,00
-31697,12	954,00
-31603,69	952,00
-31510,67	993,00
-31418,04	920,00
-31325,80	1013,00
-31233,95	1035,00
-31142,49	950,00
-31051,42	1005,00
-30960,73	991,00
-30870,43	998,00
-30780,50	956,00
-30690,95	927,00
-30601,77	1093,00
-30512,97	923,00
-30424,53	955,00
-30336,46	983,00
-30248,76	912,00
-30161,42	963,00
-30074,44	941,00
-29987,81	1024,00
-29901,55	1073,00
-29815,63	807,00
-29730,07	887,00
-29644,86	935,00
-29560,00	1022,00
-29475,48	909,00
-29391,30	945,00
-29307,47	851,00
-29223,97	1000,00
-29140,81	926,00
-29057,99	1043,00
-28975,50	846,00
-28893,34	1086,00
-28811,51	873,00
-28730,00	992,00
-28648,82	887,00
-28567,97	1032,00
-28487,43	952,00
-28407,21	884,00
-28327,32	825,00
-28247,73	1056,00
-28168,46	862,00
-28089,50	996,00
-28010,85	820,00
-27932,51	782,00
-27854,48	1067,00
-27776,75	873,00
-27699,32	950,00
-27622,19	978,00
-27545,37	1008,00
-27468,84	979,00
-27392,60	1030,00
-27316,66	850,00
-27241,01	1000,00
-27165,66	937,00
-27090,59	879,00
-27015,81	1034,00
-26941,31	1103,00
-26867,10	907,00
-26793,17	1029,00
-26719,52	937,00
-26646,15	890,00
-26573,06	1074,00
-26500,24	912,00
-26427,70	893,00
-26355,43	1051,00
-26283,43	887,00
-26211,71	1013,00
-26140,25	943,00
-26069,06	1204,00
-25998,13	847,00
-25927,46	920,00
-25857,06	1041,00
-25786,92	887,00
-25717,04	838,00
-25647,42	929,00
-25578,05	920,00
-25508,94	1037,00
-25440,09	908,00
-25371,48	959,00
-25303,13	922,00
-25235,02	961,00
-25167,17	1066,00
-25099,56	1027,00
-25032,19	927,00
-24965,07	965,00
-24898,20	906,00
-24831,56	978,00
-24765,17	906,00
-24699,01	921,00
-24633,10	958,00
-24567,41	864,00
-24501,97	1057,00
-24436,75	972,00
-24371,77	919,00
-24307,03	938,00
-24242,51	808,00
-24178,22	1091,00
-24114,16	813,00
-24050,32	1020,00
-23986,71	966,00
-23923,32	829,00
-23860,16	758,00
-23797,22	880,00
-23734,50	976,00
-23672,00	831,00
-23609,71	865,00
-23547,65	824,00
-23485,80	970,00
-23424,16	888,00
-23362,74	1039,00
-23301,53	878,00
-23240,54	915,00
-23179,75	1018,00
-23119,17	875,00
-23058,80	954,00
-22998,64	1029,00
-22938,68	917,00
-22878,93	861,00
-22819,39	877,00
-22760,04	930,00
-22700,90	930,00
-22641,96	965,00
-22583,22	925,00
-22524,68	908,00
-22466,33	803,00
-22408,19	987,00
-22350,23	981,00
-22292,48	967,00
-22234,92	937,00
-22177,55	1093,00
-22120,37	1052,00
-22063,38	892,00
-22006,58	886,00
-21949,98	881,00
-21893,56	735,00
-21837,33	826,00
-21781,28	1034,00
-21725,42	928,00
-21669,74	921,00
-21614,25	975,00
-21558,94	839,00
-21503,81	953,00
-21448,86	1017,00
-21394,10	905,00
-21339,51	893,00
-21285,10	845,00
-21230,86	813,00
-21176,81	906,00
-21122,93	869,00
-21069,22	891,00
-21015,69	880,00
-20962,33	1028,00
-20909,14	865,00
-20856,13	855,00
-20803,28	920,00
-20750,61	864,00
-20698,10	841,00
-20645,76	960,00
-20593,59	1017,00
-20541,59	909,00
-20489,75	1002,00
-20438,07	878,00
-20386,56	1025,00
-20335,22	935,00
-20284,03	853,00
-20233,01	887,00
-20182,15	824,00
-20131,45	900,00
-20080,91	915,00
-20030,52	838,00
-19980,30	818,00
-19930,23	838,00
-19880,32	984,00
-19830,56	913,00
-19780,96	885,00
-19731,52	959,00
-19682,23	953,00
-19633,09	868,00
-19584,10	919,00
-19535,26	901,00
-19486,58	1019,00
-19438,04	917,00
-19389,66	868,00
-19341,42	933,00
-19293,33	859,00
-19245,39	873,00
-19197,60	905,00
-19149,95	952,00
-19102,45	943,00
-19055,09	862,00
-19007,87	949,00
-18960,80	918,00
-18913,87	956,00
-18867,09	935,00
-18820,44	873,00
-18773,94	924,00
-18727,57	897,00
-18681,35	849,00
-18635,26	998,00
-18589,31	783,00
-18543,50	809,00
-18497,83	963,00
-18452,29	976,00
-18406,89	867,00
-18361,63	950,00
-18316,50	980,00
-18271,50	960,00
-18226,63	916,00
-18181,90	897,00
-18137,30	979,00
-18092,84	898,00
-18048,50	944,00
-18004,29	781,00
-17960,22	873,00
-17916,27	806,00
-17872,45	962,00
-17828,76	922,00
-17785,20	1039,00
-17741,77	899,00
-17698,46	866,00
-17655,28	779,00
-17612,22	908,00
-17569,29	833,00
-17526,48	1009,00
-17483,79	858,00
-17441,23	872,00
-17398,79	847,00
-17356,48	816,00
-17314,28	1074,00
-17272,21	927,00
-17230,26	811,00
-17188,42	950,00
-17146,71	913,00
-17105,12	902,00
-17063,64	902,00
-17022,28	843,00
-16981,04	855,00
-16939,92	950,00
-16898,91	1034,00
-16858,02	869,00
-16817,25	856,00
-16776,59	853,00
-16736,04	926,00
-16695,61	885,00
-16655,29	874,00
-16615,09	948,00
-16574,99	936,00
-16535,01	845,00
-16495,15	965,00
-16455,39	967,00
-16415,74	929,00
-16376,21	929,00
-16336,78	841,00
-16297,46	933,00
-16258,26	925,00
-16219,16	898,00
-16180,17	897,00
-16141,28	1021,00
-16102,51	994,00
-16063,84	915,00
-16025,27	1014,00
-15986,82	810,00
-15948,46	828,00
-15910,22	900,00
-15872,07	945,00
-15834,04	794,00
-15796,10	969,00
-15758,27	1039,00
-15720,54	904,00
-15682,91	972,00
-15645,39	811,00
-15607,97	864,00
-15570,64	885,00
-15533,42	868,00
-15496,30	931,00
-15459,28	888,00
-15422,36	807,00
-15385,54	798,00
-15348,82	874,00
-15312,19	983,00
-15275,66	841,00
-15239,23	874,00
-15202,90	841,00
-15166,67	767,00
-15130,53	909,00
-15094,48	892,00
-15058,54	920,00
-15022,68	840,00
-14986,93	899,00
-14951,26	1004,00
-14915,69	831,00
-14880,22	875,00
-14844,84	895,00
-14809,55	948,00
-14774,35	907,00
-14739,25	1061,00
-14704,24	942,00
-14669,32	941,00
-14634,49	868,00
-14599,75	891,00
-14565,10	812,00
-14530,55	1003,00
-14496,08	938,00
-14461,70	868,00
-14427,41	916,00
-14393,21	848,00
-14359,10	876,00
-14325,07	956,00
-14291,14	898,00
-14257,29	958,00
-14223,52	915,00
-14189,85	1056,00
-14156,26	902,00
-14122,76	871,00
-14089,34	921,00
-14056,01	930,00
-14022,76	973,00
-13989,60	1025,00
-13956,52	917,00
-13923,53	923,00
-13890,62	869,00
-13857,79	822,00
-13825,05	939,00
-13792,39	852,00
-13759,81	921,00
-13727,31	877,00
-13694,90	875,00
-13662,57	972,00
-13630,31	900,00
-13598,14	938,00
-13566,05	883,00
-13534,05	952,00
-13502,12	822,00
-13470,27	901,00
-13438,50	941,00
-13406,80	856,00
-13375,19	852,00
-13343,66	908,00
-13312,20	898,00
-13280,83	763,00
-13249,53	849,00
-13218,30	821,00
-13187,16	869,00
-13156,09	974,00
-13125,10	944,00
-13094,18	977,00
-13063,34	924,00
-13032,58	887,00
-13001,89	941,00
-12971,28	1042,00
-12940,74	935,00
-12910,27	1011,00
-12879,88	898,00
-12849,57	1043,00
-12819,33	855,00
-12789,16	955,00
-12759,06	878,00
-12729,04	1004,00
-12699,09	1992,00
-12669,21	950,00
-12639,41	820,00
-12609,68	837,00
-12580,02	936,00
-12550,43	964,00
-12520,91	818,00
-12491,46	934,00
-12462,08	829,00
-12432,77	852,00
-12403,54	842,00
-12374,37	1020,00
-12345,27	845,00
-12316,24	907,00
-12287,29	999,00
-12258,40	798,00
-12229,57	993,00
-12200,82	981,00
-12172,14	851,00
-12143,52	833,00
-12114,97	826,00
-12086,49	891,00
-12058,07	976,00
-12029,73	930,00
-12001,44	1005,00
-11973,23	854,00
-11945,08	955,00
-11917,00	916,00
-11888,98	852,00
-11861,03	821,00
-11833,15	915,00
-11805,32	930,00
-11777,57	974,00
-11749,88	913,00
-11722,25	877,00
-11694,69	890,00
-11667,19	926,00
-11639,75	899,00
-11612,38	950,00
-11585,07	922,00
-11557,83	855,00
-11530,65	1017,00
-11503,53	951,00
-11476,47	1039,00
-11449,48	835,00
-11422,54	985,00
-11395,67	865,00
-11368,86	974,00
-11342,11	908,00
-11315,43	939,00
-11288,80	737,00
-11262,23	1029,00
-11235,73	944,00
-11209,28	1010,00
-11182,90	970,00
-11156,57	970,00
-11130,31	1002,00
-11104,10	1008,00
-11077,96	883,00
-11051,87	880,00
-11025,84	910,00
-10999,87	907,00
-10973,96	1022,00
-10948,11	848,00
-10922,31	871,00
-10896,58	1022,00
-10870,90	1042,00
-10845,28	870,00
-10819,71	833,00
-10794,20	941,00
-10768,75	1015,00
-10743,36	875,00
-10718,02	905,00
-10692,74	931,00
-10667,52	769,00
-10642,35	924,00
-10617,24	1002,00
-10592,18	959,00
-10567,18	847,00
-10542,23	895,00
-10517,34	964,00
-10492,51	944,00
-10467,72	915,00
-10443,00	848,00
-10418,32	945,00
-10393,70	849,00
-10369,14	894,00
-10344,63	901,00
-10320,17	965,00
-10295,77	958,00
-10271,42	925,00
-10247,12	988,00
-10222,88	983,00
-10198,68	919,00
-10174,54	906,00
-10150,46	913,00
-10126,42	1090,00
-10102,44	917,00
-10078,51	960,00
-10054,63	956,00
-10030,80	912,00
-10007,03	1044,00
-9983,30	935,00
-9959,63	819,00
-9936,01	1019,00
-9912,44	931,00
-9888,92	916,00
-9865,44	899,00
-9842,02	992,00
-9818,65	985,00
-9795,33	862,00
-9772,06	917,00
-9748,84	936,00
-9725,67	955,00
-9702,55	855,00
-9679,47	1090,00
-9656,45	893,00
-9633,47	792,00
-9610,55	929,00
-9587,67	943,00
-9564,84	1152,00
-9542,06	924,00
-9519,32	1018,00
-9496,64	1027,00
-9474,00	842,00
-9451,41	949,00
-9428,87	1132,00
-9406,37	1010,00
-9383,92	925,00
-9361,52	853,00
-9339,17	1020,00
-9316,86	850,00
-9294,60	841,00
-9272,38	1158,00
-9250,21	968,00
-9228,09	993,00
-9206,01	989,00
-9183,98	927,00
-9162,00	908,00
-9140,06	1016,00
-9118,16	768,00
-9096,31	1100,00
-9074,51	932,00
-9052,75	1197,00
-9031,04	1087,00
-9009,37	821,00
-8987,74	940,00
-8966,16	942,00
-8944,63	949,00
-8923,14	883,00
-8901,69	851,00
-8880,29	850,00
-8858,93	894,00
-8837,61	938,00
-8816,34	1013,00
-8795,11	924,00
-8773,92	1104,00
-8752,78	992,00
-8731,68	937,00
-8710,62	1020,00
-8689,61	859,00
-8668,63	855,00
-8647,70	1134,00
-8626,82	922,00
-8605,97	1158,00
-8585,17	978,00
-8564,41	879,00
-8543,69	969,00
-8523,01	825,00
-8502,37	1052,00
-8481,78	766,00
-8461,23	777,00
-8440,71	826,00
-8420,24	896,00
-8399,81	1014,00
-8379,42	884,00
-8359,08	998,00
-8338,77	907,00
-8318,50	999,00
-8298,27	859,00
-8278,09	1028,00
-8257,94	848,00
-8237,83	995,00
-8217,76	875,00
-8197,74	896,00
-8177,75	921,00
-8157,80	964,00
-8137,89	990,00
-8118,02	979,00
-8098,19	1119,00
-8078,40	960,00
-8058,65	874,00
-8038,93	1078,00
-8019,26	1095,00
-7999,62	947,00
-7980,02	930,00
-7960,46	996,00
-7940,94	930,00
-7921,46	1000,00
-7902,01	877,00
-7882,60	1059,00
-7863,23	939,00
-7843,90	937,00
-7824,61	971,00
-7805,35	1014,00
-7786,13	850,00
-7766,95	914,00
-7747,80	893,00
-7728,69	1066,00
-7709,62	972,00
-7690,59	1024,00
-7671,59	1037,00
-7652,63	931,00
-7633,70	867,00
-7614,81	1061,00
-7595,96	924,00
-7577,15	1006,00
-7558,37	912,00
-7539,62	988,00
-7520,91	932,00
-7502,24	1021,00
-7483,60	1108,00
-7465,00	950,00
-7446,44	962,00
-7427,91	931,00
-7409,41	1038,00
-7390,95	985,00
-7372,53	856,00
-7354,14	1000,00
-7335,78	847,00
-7317,46	913,00
-7299,18	905,00
-7280,92	1019,00
-7262,71	992,00
-7244,52	929,00
-7226,38	968,00
-7208,26	926,00
-7190,18	974,00
-7172,14	1006,00
-7154,12	980,00
-7136,15	848,00
-7118,20	975,00
-7100,29	1059,00
-7082,41	1032,00
-7064,57	989,00
-7046,76	971,00
-7028,98	857,00
-7011,24	1130,00
-6993,53	785,00
-6975,85	910,00
-6958,20	785,00
-6940,59	813,00
-6923,01	789,00
-6905,46	959,00
-6887,94	908,00
-6870,46	-1031,00
-6853,01	1014,00
-6835,59	906,00
-6818,21	790,00
-6800,85	999,00
-6783,53	890,00
-6766,24	872,00
-6748,98	875,00
-6731,76	772,00
-6714,56	786,00
-6697,40	739,00
-6680,26	822,00
-6663,16	845,00
-6646,09	1008,00
-6629,05	935,00
-6612,05	999,00
-6595,07	935,00
-6578,13	926,00
-6561,21	867,00
-6544,33	846,00
-6527,47	810,00
-6510,65	946,00
-6493,86	892,00
-6477,10	814,00
-6460,36	877,00
-6443,66	763,00
-6426,99	885,00
-6410,35	805,00
-6393,74	903,00
-6377,16	900,00
-6360,61	876,00
-6344,09	830,00
-6327,59	801,00
-6311,13	777,00
-6294,70	967,00
-6278,29	1031,00
-6261,92	863,00
-6245,58	855,00
-6229,26	936,00
-6212,97	884,00
-6196,72	921,00
-6180,49	1020,00
-6164,29	731,00
-6148,12	869,00
-6131,98	863,00
-6115,86	885,00
-6099,78	769,00
-6083,72	765,00
-6067,69	855,00
-6051,69	914,00
-6035,72	914,00
-6019,78	779,00
-6003,87	978,00
-5987,98	898,00
-5972,12	876,00
-5956,29	951,00
-5940,49	855,00
-5924,71	963,00
-5908,96	930,00
-5893,24	935,00
-5877,55	864,00
-5861,89	955,00
-5846,25	863,00
-5830,64	916,00
-5815,05	795,00
-5799,50	844,00
-5783,97	923,00
-5768,47	1062,00
-5752,99	1035,00
-5737,55	879,00
-5722,12	838,00
-5706,73	861,00
-5691,36	894,00
-5676,02	863,00
-5660,71	922,00
-5645,42	890,00
-5630,16	927,00
-5614,92	966,00
-5599,71	806,00
-5584,53	943,00
-5569,37	802,00
-5554,24	1823,00
-5539,14	827,00
-5524,06	933,00
-5509,01	818,00
-5493,98	836,00
-5478,98	983,00
-5464,00	797,00
-5449,05	791,00
-5434,13	906,00
-5419,23	966,00
-5404,36	773,00
-5389,51	926,00
-5374,69	876,00
-5359,89	888,00
-5345,12	937,00
-5330,37	1000,00
-5315,65	952,00
-5300,95	940,00
-5286,28	897,00
-5271,63	784,00
-5257,01	966,00
-5242,41	923,00
-5227,84	821,00
-5213,29	884,00
-5198,76	900,00
-5184,26	860,00
-5169,79	886,00
-5155,33	972,00
-5140,91	843,00
-5126,51	904,00
-5112,13	939,00
-5097,77	1023,00
-5083,44	972,00
-5069,13	827,00
-5054,85	906,00
-5040,59	817,00
-5026,36	910,00
-5012,15	1038,00
-4997,96	913,00
-4983,80	881,00
-4969,66	979,00
-4955,54	927,00
-4941,44	834,00
-4927,37	979,00
-4913,33	891,00
-4899,30	816,00
-4885,30	877,00
-4871,33	977,00
-4857,37	914,00
-4843,44	956,00
-4829,53	980,00
-4815,65	949,00
-4801,79	739,00
-4787,95	790,00
-4774,13	799,00
-4760,34	807,00
-4746,56	960,00
-4732,82	923,00
-4719,09	840,00
-4705,38	936,00
-4691,70	1002,00
-4678,04	859,00
-4664,41	927,00
-4650,79	1069,00
-4637,20	931,00
-4623,63	916,00
-4610,08	915,00
-4596,56	978,00
-4583,05	911,00
-4569,57	866,00
-4556,11	1004,00
-4542,67	816,00
-4529,25	861,00
-4515,86	1050,00
-4502,49	1002,00
-4489,13	942,00
-4475,80	923,00
-4462,49	838,00
-4449,21	1094,00
-4435,94	865,00
-4422,70	925,00
-4409,47	779,00
-4396,27	857,00
-4383,09	943,00
-4369,93	896,00
-4356,79	931,00
-4343,67	894,00
-4330,58	867,00
-4317,50	859,00
-4304,45	817,00
-4291,41	880,00
-4278,40	907,00
-4265,41	765,00
-4252,44	830,00
-4239,49	871,00
-4226,55	919,00
-4213,65	1019,00
-4200,76	959,00
-4187,89	839,00
-4175,04	879,00
-4162,21	945,00
-4149,40	913,00
-4136,61	856,00
-4123,85	932,00
-4111,10	901,00
-4098,37	1035,00
-4085,66	951,00
-4072,98	1009,00
-4060,31	846,00
-4047,66	956,00
-4035,04	1062,00
-4022,43	861,00
-4009,84	1002,00
-3997,27	823,00
-3984,72	958,00
-3972,19	1016,00
-3959,69	778,00
-3947,20	953,00
-3934,73	982,00
-3922,27	842,00
-3909,84	925,00
-3897,43	982,00
-3885,04	924,00
-3872,67	799,00
-3860,31	863,00
-3847,98	981,00
-3835,66	887,00
-3823,36	1002,00
-3811,09	854,00
-3798,83	864,00
-3786,59	1084,00
-3774,37	1047,00
-3762,17	817,00
-3749,98	917,00
-3737,82	780,00
-3725,67	1099,00
-3713,55	810,00
-3701,44	977,00
-3689,35	1020,00
-3677,28	905,00
-3665,22	845,00
-3653,19	860,00
-3641,17	881,00
-3629,18	911,00
-3617,20	877,00
-3605,24	909,00
-3593,30	960,00
-3581,37	924,00
-3569,47	948,00
-3557,58	963,00
-3545,71	932,00
-3533,86	959,00
-3522,02	944,00
-3510,21	1000,00
-3498,41	948,00
-3486,63	914,00
-3474,87	964,00
-3463,12	875,00
-3451,40	961,00
-3439,69	904,00
-3428,00	926,00
-3416,33	1033,00
-3404,67	866,00
-3393,03	1056,00
-3381,41	867,00
-3369,81	950,00
-3358,22	853,00
-3346,66	960,00
-3335,10	959,00
-3323,57	902,00
-3312,06	872,00
-3300,56	954,00
-3289,08	869,00
-3277,61	904,00
-3266,16	977,00
-3254,73	903,00
-3243,32	933,00
-3231,92	944,00
-3220,55	913,00
-3209,18	1029,00
-3197,84	926,00
-3186,51	764,00
-3175,20	883,00
-3163,90	892,00
-3152,63	920,00
-3141,36	908,00
-3130,12	883,00
-3118,89	991,00
-3107,68	906,00
-3096,49	906,00
-3085,31	967,00
-3074,15	918,00
-3063,00	1027,00
-3051,87	1047,00
-3040,76	956,00
-3029,67	1034,00
-3018,59	1108,00
-3007,52	977,00
-2996,48	1035,00
-2985,44	865,00
-2974,43	963,00
-2963,43	861,00
-2952,45	815,00
-2941,48	964,00
-2930,53	930,00
-2919,60	861,00
-2908,68	900,00
-2897,78	895,00
-2886,89	1033,00
-2876,02	962,00
-2865,17	932,00
-2854,33	880,00
-2843,50	872,00
-2832,70	848,00
-2821,90	965,00
-2811,13	914,00
-2800,37	945,00
-2789,62	934,00
-2778,89	957,00
-2768,18	974,00
-2757,48	949,00
-2746,80	1060,00
-2736,13	960,00
-2725,48	975,00
-2714,84	983,00
-2704,22	905,00
-2693,61	831,00
-2683,02	958,00
-2672,45	873,00
-2661,89	974,00
-2651,34	947,00
-2640,81	887,00
-2630,30	1051,00
-2619,80	987,00
-2609,31	1050,00
-2598,84	854,00
-2588,39	945,00
-2577,95	883,00
-2567,52	812,00
-2557,11	976,00
-2546,71	896,00
-2536,33	1024,00
-2525,97	944,00
-2515,62	840,00
-2505,28	945,00
-2494,96	871,00
-2484,65	806,00
-2474,36	1122,00
-2464,08	958,00
-2453,82	1118,00
-2443,57	993,00
-2433,33	807,00
-2423,11	882,00
-2412,91	843,00
-2402,72	809,00
-2392,54	917,00
-2382,38	909,00
-2372,23	1029,00
-2362,09	5551,00
-2351,97	797,00
-2341,87	843,00
-2331,78	905,00
-2321,70	947,00
-2311,64	953,00
-2301,59	803,00
-2291,55	908,00
-2281,53	929,00
-2271,53	834,00
-2261,53	1022,00
-2251,55	942,00
-2241,59	987,00
-2231,64	1055,00
-2221,70	768,00
-2211,78	983,00
-2201,87	865,00
-2191,97	960,00
-2182,09	926,00
-2172,22	1014,00
-2162,37	883,00
-2152,53	916,00
-2142,70	785,00
-2132,89	857,00
-2123,09	1011,00
-2113,30	965,00
-2103,53	955,00
-2093,77	934,00
-2084,02	782,00
-2074,29	1012,00
-2064,57	935,00
-2054,86	951,00
-2045,17	1021,00
-2035,49	1134,00
-2025,82	896,00
-2016,17	883,00
-2006,53	982,00
-1996,91	865,00
-1987,29	839,00
-1977,69	974,00
-1968,11	867,00
-1958,53	850,00
-1948,97	979,00
-1939,42	921,00
-1929,89	834,00
-1920,37	950,00
-1910,86	933,00
-1901,36	993,00
-1891,88	946,00
-1882,41	1023,00
-1872,95	914,00
-1863,51	864,00
-1854,08	989,00
-1844,66	968,00
-1835,26	832,00
-1825,86	960,00
-1816,48	925,00
-1807,11	942,00
-1797,76	1004,00
-1788,42	937,00
-1779,09	998,00
-1769,77	901,00
-1760,47	1131,00
-1751,17	932,00
-1741,89	982,00
-1732,63	988,00
-1723,37	1186,00
-1714,13	1007,00
-1704,90	913,00
-1695,68	1095,00
-1686,48	870,00
-1677,29	900,00
-1668,11	1132,00
-1658,94	973,00
-1649,78	989,00
-1640,64	905,00
-1631,51	928,00
-1622,39	961,00
-1613,28	1019,00
-1604,19	1100,00
-1595,10	951,00
-1586,03	846,00
-1576,97	1064,00
-1567,93	927,00
-1558,89	999,00
-1549,87	972,00
-1540,86	920,00
-1531,86	865,00
-1522,87	891,00
-1513,90	1024,00
-1504,93	993,00
-1495,98	977,00
-1487,04	1076,00
-1478,12	991,00
-1469,20	853,00
-1460,30	931,00
-1451,40	960,00
-1442,52	907,00
-1433,65	984,00
-1424,80	992,00
-1415,95	936,00
-1407,12	1025,00
-1398,30	950,00
-1389,48	949,00
-1380,69	979,00
-1371,90	958,00
-1363,12	878,00
-1354,36	1110,00
-1345,60	858,00
-1336,86	1018,00
-1328,13	1120,00
-1319,41	910,00
-1310,70	959,00
-1302,01	927,00
-1293,32	885,00
-1284,65	808,00
-1275,99	1017,00
-1267,33	1051,00
-1258,69	920,00
-1250,06	989,00
-1241,45	922,00
-1232,84	1102,00
-1224,25	928,00
-1215,66	984,00
-1207,09	973,00
-1198,53	889,00
-1189,97	828,00
-1181,43	857,00
-1172,91	1049,00
-1164,39	1091,00
-1155,88	827,00
-1147,38	784,00
-1138,90	1006,00
-1130,43	865,00
-1121,96	965,00
-1113,51	1003,00
-1105,07	926,00
-1096,64	1020,00
-1088,22	946,00
-1079,81	1007,00
-1071,41	1032,00
-1063,02	963,00
-1054,65	997,00
-1046,28	924,00
-1037,92	1061,00
-1029,58	994,00
-1021,24	978,00
-1012,92	1245,00
-1004,61	908,00
-996,30	1244,00
-988,01	800,00
-979,73	944,00
-971,46	1013,00
-963,20	880,00
-954,95	852,00
-946,71	866,00
-938,48	872,00
-930,26	1055,00
-922,06	946,00
-913,86	1018,00
-905,67	934,00
-897,49	886,00
-889,33	823,00
-881,17	999,00
-873,02	994,00
-864,89	823,00
-856,76	819,00
-848,65	902,00
-840,54	949,00
-832,45	1038,00
-824,36	773,00
-816,29	970,00
-808,22	944,00
-800,17	946,00
-792,12	1013,00
-784,09	1069,00
-776,06	911,00
-768,05	1030,00
-760,04	883,00
-752,05	965,00
-744,07	1038,00
-736,09	993,00
-728,13	888,00
-720,17	932,00
-712,23	856,00
-704,29	959,00
-696,37	884,00
-688,45	918,00
-680,55	899,00
-672,65	860,00
-664,77	782,00
-656,89	969,00
-649,03	887,00
-641,17	955,00
-633,32	1020,00
-625,49	949,00
-617,66	974,00
-609,84	1003,00
-602,03	777,00
-594,23	898,00
-586,45	920,00
-578,67	901,00
-570,90	843,00
-563,14	921,00
-555,39	1045,00
-547,65	992,00
-539,91	956,00
-532,19	867,00
-524,48	966,00
-516,78	974,00
-509,08	932,00
-501,40	896,00
-493,72	864,00
-486,06	948,00
-478,40	1090,00
-470,76	945,00
-463,12	948,00
-455,49	911,00
-447,87	860,00
-440,26	874,00
-432,66	885,00
-425,07	982,00
-417,49	882,00
-409,92	965,00
-402,35	770,00
-394,80	938,00
-387,25	1014,00
-379,72	949,00
-372,19	874,00
-364,67	910,00
-357,17	950,00
-349,67	950,00
-342,18	931,00
-334,69	973,00
-327,22	998,00
-319,76	813,00
-312,30	1035,00
-304,86	987,00
-297,42	966,00
-290,00	925,00
-282,58	876,00
-275,17	1028,00
-267,77	1031,00
-260,37	863,00
-252,99	1068,00
-245,62	933,00
-238,25	920,00
-230,90	908,00
-223,55	1129,00
-216,21	957,00
-208,88	1082,00
-201,56	1066,00
-194,25	1032,00
-186,94	951,00
-179,65	1050,00
-172,36	1105,00
-165,08	1025,00
-157,81	1139,00
-150,55	1138,00
-143,30	1197,00
-136,06	1179,00
-128,82	1127,00
-121,60	1114,00
-114,38	1176,00
-107,17	1275,00
-99,97	1431,00
-92,78	1275,00
-85,60	1401,00
-78,42	1506,00
-71,25	1622,00
-64,10	1755,00
-56,95	1850,00
-49,81	1932,00
-42,67	2371,00
-35,55	2557,00
-28,43	3281,00
-21,33	4725,00
-14,23	13623,00
-7,14	57775,00
-0,05	57564,00
7,02	57281,00
14,09	46316,00
21,14	12728,00
28,19	5723,00
35,23	3942,00
42,27	3234,00
49,29	2801,00
56,31	2472,00
63,32	2276,00
70,32	2081,00
77,31	1766,00
84,29	1551,00
91,27	1611,00
98,23	1781,00
105,19	1441,00
112,14	1573,00
119,09	1864,00
126,02	2327,00
132,95	2535,00
139,87	2596,00
146,78	2675,00
153,68	2637,00
160,58	2496,00
167,46	2449,00
174,34	2594,00
181,21	2622,00
188,08	2553,00
194,93	2801,00
201,78	2551,00
208,62	2424,00
215,45	2551,00
222,27	2528,00
229,09	2743,00
235,90	2448,00
242,70	2547,00
249,49	2674,00
256,27	2481,00
263,05	2465,00
269,82	2423,00
276,58	2582,00
283,33	2501,00
290,08	2533,00
296,82	2417,00
303,55	2441,00
310,27	2298,00
316,98	2477,00
323,69	2405,00
330,39	2337,00
337,08	2462,00
343,76	2493,00
350,44	2456,00
357,11	2506,00
363,77	2381,00
370,42	2423,00
377,07	2486,00
383,71	2418,00
390,34	2493,00
396,96	2377,00
403,58	2333,00
410,19	2465,00
416,79	2523,00
423,38	2544,00
429,97	2458,00
436,55	2293,00
443,12	2371,00
449,68	2254,00
456,24	2447,00
462,79	2491,00
469,33	2302,00
475,86	2352,00
482,39	2325,00
488,91	2526,00
495,42	2310,00
501,93	2462,00
508,42	2206,00
514,91	2412,00
521,40	2285,00
527,87	2368,00
534,34	2293,00
540,80	2534,00
547,25	2480,00
553,70	2342,00
560,14	2345,00
566,57	2424,00
573,00	2339,00
579,41	2419,00
585,83	2402,00
592,23	2334,00
598,62	2368,00
605,01	2257,00
611,40	2431,00
617,77	2499,00
624,14	2410,00
630,50	2369,00
636,85	2438,00
643,20	2365,00
649,54	2290,00
655,87	2397,00
662,20	2503,00
668,52	2360,00
674,83	2424,00
681,13	2387,00
687,43	2425,00
693,72	2309,00
700,00	2266,00
706,28	2288,00
712,55	2398,00
718,81	2452,00
725,07	2238,00
731,32	2297,00
737,56	2360,00
743,79	2390,00
750,02	2369,00
756,24	2279,00
762,46	2293,00
768,67	2656,00
774,87	2380,00
781,06	2330,00
787,25	2416,00
793,43	2365,00
799,60	2217,00
805,77	2468,00
811,93	2340,00
818,08	2319,00
824,23	2373,00
830,37	2601,00
836,50	2390,00
842,63	2374,00
848,75	2325,00
854,87	2458,00
860,97	2301,00
867,07	2443,00
873,17	2338,00
879,25	2356,00
885,33	2345,00
891,41	2373,00
897,47	2328,00
903,53	2396,00
909,59	2503,00
915,63	2400,00
921,67	2348,00
927,71	2415,00
933,74	2391,00
939,76	2255,00
945,77	2298,00
951,78	2477,00
957,78	2333,00
963,78	2496,00
969,77	2381,00
975,75	2412,00
981,72	2352,00
987,69	3685,00
993,66	2429,00
999,61	2417,00
1005,56	2527,00
1011,51	2355,00
1017,44	2354,00
1023,37	2497,00
1029,30	2437,00
1035,22	2505,00
1041,13	2441,00
1047,03	2460,00
1052,93	2492,00
1058,83	2852,00
1064,71	2928,00
1070,59	2679,00
1076,47	2663,00
1082,33	2539,00
1088,20	2464,00
1094,05	2541,00
1099,90	2480,00
1105,74	2482,00
1111,58	2460,00
1117,41	2536,00
1123,23	2729,00
1129,05	3028,00
1134,86	2877,00
1140,67	2674,00
1146,47	2558,00
1152,26	2587,00
1158,05	2351,00
1163,83	2512,00
1169,60	2658,00
1175,37	2599,00
1181,13	2513,00
1186,89	2564,00
1192,64	2451,00
1198,38	2598,00
1204,12	2463,00
1209,85	2436,00
1215,58	2525,00
1221,30	2647,00
1227,02	2579,00
1232,72	2590,00
1238,43	2438,00
1244,12	2625,00
1249,81	2562,00
1255,50	2651,00
1261,17	2460,00
1266,85	2543,00
1272,51	2563,00
1278,17	2662,00
1283,83	2556,00
1289,47	2885,00
1295,12	3199,00
1300,75	3134,00
1306,38	2786,00
1312,01	2628,00
1317,63	2720,00
1323,24	2642,00
1328,85	2644,00
1334,45	2635,00
1340,04	2608,00
1345,63	2533,00
1351,22	2751,00
1356,80	2653,00
1362,37	2695,00
1367,93	2620,00
1373,49	2630,00
1379,05	2606,00
1384,60	2641,00
1390,14	2717,00
1395,68	2611,00
1401,21	2652,00
1406,74	2779,00
1412,26	2786,00
1417,77	2966,00
1423,28	2817,00
1428,78	2804,00
1434,28	3080,00
1439,77	3151,00
1445,26	3147,00
1450,74	3242,00
1456,22	3008,00
1461,68	2929,00
1467,15	2983,00
1472,61	2768,00
1478,06	2896,00
1483,51	2771,00
1488,95	2603,00
1494,38	2670,00
1499,81	2509,00
1505,24	2456,00
1510,65	2737,00
1516,07	2562,00
1521,48	2427,00
1526,88	2386,00
1532,27	2436,00
1537,67	2427,00
1543,05	2598,00
1548,43	2396,00
1553,81	2438,00
1559,18	2390,00
1564,54	2529,00
1569,90	2528,00
1575,25	2445,00
1580,60	2248,00
1585,94	2516,00
1591,28	2429,00
1596,61	2423,00
1601,93	2493,00
1607,25	2510,00
1612,57	2528,00
1617,88	2547,00
1623,18	2415,00
1628,48	2501,00
1633,77	2459,00
1639,06	2494,00
1644,34	2302,00
1649,62	2347,00
1654,89	2507,00
1660,16	2335,00
1665,42	2422,00
1670,67	2348,00
1675,92	2410,00
1681,17	2330,00
1686,41	2363,00
1691,64	2599,00
1696,87	2357,00
1702,10	2369,00
1707,32	2387,00
1712,53	2396,00
1717,74	2410,00
1722,94	2358,00
1728,14	2293,00
1733,33	2220,00
1738,52	2300,00
1743,70	2320,00
1748,88	2281,00
1754,05	2340,00
1759,22	2206,00
1764,38	2406,00
1769,53	2317,00
1774,69	2397,00
1779,83	2242,00
1784,97	2214,00
1790,11	2337,00
1795,24	2341,00
1800,36	2278,00
1805,48	2153,00
1810,60	2256,00
1815,71	2251,00
1820,82	2140,00
1825,92	2154,00
1831,01	2117,00
1836,10	2120,00
1841,19	2235,00
1846,26	2133,00
1851,34	2189,00
1856,41	2261,00
1861,47	2301,00
1866,53	2176,00
1871,59	2194,00
1876,64	2194,00
1881,68	2249,00
1886,72	2256,00
1891,76	2179,00
1896,79	2277,00
1901,81	2041,00
1906,83	2185,00
1911,85	2094,00
1916,86	2206,00
1921,86	2150,00
1926,86	2157,00
1931,86	2091,00
1936,85	2079,00
1941,83	2144,00
1946,81	2195,00
1951,79	2155,00
1956,76	2020,00
1961,72	1902,00
1966,68	1954,00
1971,64	1968,00
1976,59	2032,00
1981,54	2080,00
1986,48	2042,00
1991,42	1987,00
1996,35	2258,00
2001,27	2046,00
2006,20	1992,00
2011,11	2112,00
2016,03	2103,00
2020,93	1994,00
2025,84	2067,00
2030,73	1923,00
2035,63	1900,00
2040,52	2032,00
2045,40	2061,00
2050,28	1936,00
2055,15	2066,00
2060,02	1853,00
2064,89	2090,00
2069,75	2046,00
2074,60	2067,00
2079,46	1944,00
2084,30	2009,00
2089,14	2048,00
2093,98	2018,00
2098,81	2063,00
2103,64	1977,00
2108,46	1923,00
2113,28	1945,00
2118,09	1941,00
2122,90	2029,00
2127,70	1936,00
2132,50	1991,00
2137,30	1921,00
2142,09	1848,00
2146,87	1871,00
2151,66	1955,00
2156,43	1955,00
2161,20	1960,00
2165,97	2024,00
2170,73	1898,00
2175,49	2049,00
2180,24	1907,00
2184,99	1997,00
2189,74	1961,00
2194,48	1900,00
2199,21	2036,00
2203,94	1810,00
2208,67	1833,00
2213,39	1777,00
2218,11	1886,00
2222,82	1885,00
2227,53	1806,00
2232,23	1998,00
2236,93	1837,00
2241,63	2006,00
2246,32	1839,00
2251,00	1843,00
2255,68	1885,00
2260,36	1825,00
2265,03	1898,00
2269,70	2006,00
2274,36	1741,00
2279,02	1708,00
2283,68	1816,00
2288,33	1723,00
2292,97	1895,00
2297,61	1892,00
2302,25	1819,00
2306,88	1722,00
2311,51	1699,00
2316,14	1811,00
2320,75	1813,00
2325,37	1727,00
2329,98	1839,00
2334,59	1756,00
2339,19	1751,00
2343,79	1609,00
2348,38	1749,00
2352,97	1667,00
2357,55	1958,00
2362,13	1870,00
2366,71	1674,00
2371,28	1772,00
2375,85	1744,00
2380,41	1816,00
2384,97	1760,00
2389,52	1758,00
2394,07	1786,00
2398,62	1789,00
2403,16	1713,00
2407,70	1693,00
2412,23	1773,00
2416,76	1858,00
2421,29	1775,00
2425,81	1653,00
2430,32	1743,00
2434,84	1510,00
2439,34	1656,00
2443,85	1855,00
2448,35	1607,00
2452,84	1618,00
2457,33	1711,00
2461,82	1606,00
2466,30	1544,00
2470,78	1781,00
2475,25	1533,00
2479,72	1596,00
2484,19	1584,00
2488,65	1754,00
2493,11	1576,00
2497,56	1602,00
2502,01	1462,00
2506,46	1680,00
2510,90	1615,00
2515,34	1637,00
2519,77	1647,00
2524,20	1522,00
2528,62	1670,00
2533,04	1578,00
2537,46	1464,00
2541,87	1458,00
2546,28	1541,00
2550,68	1565,00
2555,08	1569,00
2559,48	1478,00
2563,87	1446,00
2568,26	1481,00
2572,64	1561,00
2577,02	1557,00
2581,40	1302,00
2585,77	1477,00
2590,14	1452,00
2594,50	1429,00
2598,86	1547,00
2603,22	1453,00
2607,57	1601,00
2611,92	1530,00
2616,26	1442,00
2620,60	1580,00
2624,94	1357,00
2629,27	1594,00
2633,60	1322,00
2637,92	1592,00
2642,24	1582,00
2646,56	1468,00
2650,87	1471,00
2655,18	1506,00
2659,48	1292,00
2663,78	1509,00
2668,08	1486,00
2672,37	1508,00
2676,66	1548,00
2680,95	1449,00
2685,23	1408,00
2689,50	1370,00
2693,78	1370,00
2698,05	1433,00
2702,31	1456,00
2706,57	1480,00
2710,83	1579,00
2715,08	1491,00
2719,33	1645,00
2723,58	1564,00
2727,82	1531,00
2732,06	1499,00
2736,29	1404,00
2740,53	1554,00
2744,75	1511,00
2748,97	1595,00
2753,19	1513,00
2757,41	1497,00
2761,62	1559,00
2765,83	1628,00
2770,03	1290,00
2774,23	1460,00
2778,43	1341,00
2782,62	1427,00
2786,81	1347,00
2791,00	1492,00
2795,18	1589,00
2799,35	1431,00
2803,53	1543,00
2807,70	1562,00
2811,86	1345,00
2816,03	1569,00
2820,19	1486,00
2824,34	1470,00
2828,49	1469,00
2832,64	1560,00
2836,78	1746,00
2840,92	1790,00
2845,06	2013,00
2849,19	1987,00
2853,32	2118,00
2857,45	2073,00
2861,57	2094,00
2865,69	2060,00
2869,80	1907,00
2873,91	1988,00
2878,02	2076,00
2882,12	2272,00
2886,22	2185,00
2890,32	2196,00
2894,41	2090,00
2898,50	1916,00
2902,58	1952,00
2906,67	2004,00
2910,74	1651,00
2914,82	1756,00
2918,89	1756,00
2922,96	1634,00
2927,02	1594,00
2931,08	1438,00
2935,13	1427,00
2939,19	1557,00
2943,24	1592,00
2947,28	1525,00
2951,32	1292,00
2955,36	1293,00
2959,40	1502,00
2963,43	1468,00
2967,46	1225,00
2971,48	1268,00
2975,50	1373,00
2979,52	1395,00
2983,53	1368,00
2987,54	1257,00
2991,55	1297,00
2995,55	1230,00
2999,55	1183,00
3003,54	1127,00
3007,54	1252,00
3011,53	1274,00
3015,51	1182,00
3019,49	1376,00
3023,47	1248,00
3027,45	1277,00
3031,42	1147,00
3035,39	1085,00
3039,35	1222,00
3043,31	1234,00
3047,27	1244,00
3051,22	1250,00
3055,17	1172,00
3059,12	1037,00
3063,06	1195,00
3067,00	1015,00
3070,94	1109,00
3074,87	1212,00
3078,80	1123,00
3082,73	1101,00
3086,65	1172,00
3090,57	1158,00
3094,49	1121,00
3098,40	1167,00
3102,31	1081,00
3106,22	1179,00
3110,12	1145,00
3114,02	1110,00
3117,92	1168,00
3121,81	1037,00
3125,70	1099,00
3129,58	1136,00
3133,47	1039,00
3137,34	1167,00
3141,22	1207,00
3145,09	1239,00
3148,96	1078,00
3152,83	990,00
3156,69	1156,00
3160,55	1025,00
3164,40	1118,00
3168,26	1040,00
3172,10	1227,00
3175,95	1091,00
3179,79	1059,00
3183,63	955,00
3187,47	1099,00
3191,30	1067,00
3195,13	1201,00
3198,95	910,00
3202,78	1137,00
3206,60	994,00
3210,41	1017,00
3214,23	998,00
3218,03	1123,00
3221,84	1033,00
3225,64	1022,00
3229,44	1058,00
3233,24	1069,00
3237,03	1058,00
3240,82	1018,00
3244,61	996,00
3248,39	998,00
3252,17	1065,00
3255,95	1198,00
3259,72	1049,00
3263,49	1265,00
3267,26	984,00
3271,03	1003,00
3274,79	1069,00
3278,54	994,00
3282,30	887,00
3286,05	1060,00
3289,80	963,00
3293,54	1040,00
3297,29	1006,00
3301,02	1011,00
3304,76	1005,00
3308,49	1025,00
3312,22	991,00
3315,95	992,00
3319,67	961,00
3323,39	1096,00
3327,10	1079,00
3330,82	991,00
3334,53	951,00
3338,24	1000,00
3341,94	1036,00
3345,64	938,00
3349,34	1031,00
3353,03	966,00
3356,72	1007,00
3360,41	1102,00
3364,10	1049,00
3367,78	1024,00
3371,46	985,00
3375,13	1003,00
3378,81	956,00
3382,48	1041,00
3386,14	1050,00
3389,81	1000,00
3393,47	875,00
3397,12	1110,00
3400,78	943,00
3404,43	1016,00
3408,08	985,00
3411,72	926,00
3415,36	993,00
3419,00	974,00
3422,64	940,00
3426,27	903,00
3429,90	1015,00
3433,53	1022,00
3437,15	989,00
3440,77	765,00
3444,39	947,00
3448,00	986,00
3451,62	939,00
3455,22	977,00
3458,83	899,00
3462,43	918,00
3466,03	1003,00
3469,63	952,00
3473,22	980,00
3476,81	946,00
3480,40	1024,00
3483,99	968,00
3487,57	1076,00
3491,15	975,00
3494,72	883,00
3498,29	933,00
3501,86	882,00
3505,43	1021,00
3508,99	951,00
3512,56	937,00
3516,11	1040,00
3519,67	874,00
3523,22	1007,00
3526,77	978,00
3530,32	926,00
3533,86	984,00
3537,40	1069,00
3540,94	946,00
3544,47	876,00
3548,00	868,00
3551,53	1006,00
3555,06	797,00
3558,58	971,00
3562,10	856,00
3565,62	922,00
3569,13	954,00
3572,64	902,00
3576,15	772,00
3579,66	941,00
3583,16	1005,00
3586,66	788,00
3590,16	959,00
3593,65	817,00
3597,14	881,00
3600,63	913,00
3604,11	980,00
3607,60	848,00
3611,08	886,00
3614,55	794,00
3618,03	773,00
3621,50	837,00
3624,97	836,00
3628,43	961,00
3631,90	900,00
3635,36	805,00
3638,81	905,00
3642,27	1002,00
3645,72	885,00
3649,17	967,00
3652,61	766,00
3656,06	863,00
3659,50	820,00
3662,93	834,00
3666,37	899,00
3669,80	960,00
3673,23	774,00
3676,65	921,00
3680,08	913,00
3683,50	830,00
3686,92	896,00
3690,33	812,00
3693,74	811,00
3697,15	709,00
3700,56	840,00
3703,96	865,00
3707,36	775,00
3710,76	783,00
3714,16	841,00
3717,55	701,00
3720,94	888,00
3724,33	822,00
3727,71	942,00
3731,10	758,00
3734,48	754,00
3737,85	782,00
3741,23	662,00
3744,60	830,00
3747,97	785,00
3751,33	787,00
3754,69	769,00
3758,05	776,00
3761,41	704,00
3764,77	720,00
3768,12	636,00
3771,47	773,00
3774,82	743,00
3778,16	-13,00
3781,50	11,00
3784,84	7,00
3788,18	14,00
>>>>>End Processed Spectral Data<<<<<
