SpectraSuite Data File
++++++++++++++++++++++++++++++++++++
Date: Mon Mar 09 15:07:41 ICT 2026
User: Administrator
Dark Spectrum Present: Yes
Reference Spectrum Present: No
Number of Sampled Component Spectra: 1
Spectrometers: MAYP113682
Integration Time (usec): 3000000 (MAYP113682)
Spectra Averaged: 1 (MAYP113682)
Boxcar Smoothing: 0 (MAYP113682)
Correct for Electrical Dark: No (MAYP113682)
Strobe/Lamp Enabled: No (MAYP113682)
Correct for Detector Non-linearity: No (MAYP113682)
Correct for Stray Light: No (MAYP113682)
Number of Pixels in Processed Spectrum: 2068
>>>>>Begin Processed Spectral Data<<<<<
-37534,58	-1,00
-37414,56	-1,00
-37295,11	-1,00
-37176,24	2,00
-37057,95	40,00
-36940,22	26,00
-36823,05	45,00
-36706,45	72,00
-36590,40	101,00
-36474,90	79,00
-36359,95	69,00
-36245,55	162,00
-36131,68	-86,00
-36018,35	83,00
-35905,55	-28,00
-35793,29	58,00
-35681,54	-138,00
-35570,32	-49,00
-35459,62	48,00
-35349,43	7,00
-35239,75	95,00
-35130,58	-42,00
-35021,91	-26,00
-34913,74	-28,00
-34806,07	-6,00
-34698,89	65,00
-34592,20	18,00
-34486,00	52,00
-34380,28	174,00
-34275,04	74,00
-34170,27	-6,00
-34065,98	90,00
-33962,16	-19,00
-33858,81	33,00
-33755,92	5,00
-33653,49	25,00
-33551,52	51,00
-33450,01	40,00
-33348,94	153,00
-33248,33	130,00
-33148,16	5,00
-33048,43	57,00
-32949,14	49,00
-32850,29	-33,00
-32751,87	-16,00
-32653,89	9,00
-32556,33	37,00
-32459,20	33,00
-32362,49	60,00
-32266,19	60,00
-32170,32	-25,00
-32074,86	138,00
-31979,82	13,00
-31885,18	64,00
-31790,95	-102,00
-31697,12	99,00
-31603,69	73,00
-31510,67	83,00
-31418,04	-14,00
-31325,80	131,00
-31233,95	112,00
-31142,49	34,00
-31051,42	51,00
-30960,73	63,00
-30870,43	80,00
-30780,50	-19,00
-30690,95	85,00
-30601,77	153,00
-30512,97	91,00
-30424,53	100,00
-30336,46	-12,00
-30248,76	18,00
-30161,42	140,00
-30074,44	-63,00
-29987,81	13,00
-29901,55	66,00
-29815,63	54,00
-29730,07	69,00
-29644,86	59,00
-29560,00	-13,00
-29475,48	136,00
-29391,30	24,00
-29307,47	41,00
-29223,97	33,00
-29140,81	0,00
-29057,99	27,00
-28975,50	128,00
-28893,34	91,00
-28811,51	63,00
-28730,00	112,00
-28648,82	-38,00
-28567,97	-8,00
-28487,43	132,00
-28407,21	87,00
-28327,32	-28,00
-28247,73	12,00
-28168,46	-18,00
-28089,50	16,00
-28010,85	-27,00
-27932,51	28,00
-27854,48	-117,00
-27776,75	47,00
-27699,32	32,00
-27622,19	24,00
-27545,37	132,00
-27468,84	26,00
-27392,60	19,00
-27316,66	41,00
-27241,01	57,00
-27165,66	30,00
-27090,59	-38,00
-27015,81	-10,00
-26941,31	-59,00
-26867,10	34,00
-26793,17	-106,00
-26719,52	10,00
-26646,15	-29,00
-26573,06	31,00
-26500,24	83,00
-26427,70	170,00
-26355,43	28,00
-26283,43	71,00
-26211,71	109,00
-26140,25	103,00
-26069,06	110,00
-25998,13	28,00
-25927,46	84,00
-25857,06	-65,00
-25786,92	22,00
-25717,04	91,00
-25647,42	54,00
-25578,05	29,00
-25508,94	-9,00
-25440,09	92,00
-25371,48	91,00
-25303,13	24,00
-25235,02	9,00
-25167,17	108,00
-25099,56	-23,00
-25032,19	52,00
-24965,07	-6,00
-24898,20	20,00
-24831,56	43,00
-24765,17	47,00
-24699,01	-100,00
-24633,10	74,00
-24567,41	123,00
-24501,97	-18,00
-24436,75	73,00
-24371,77	21,00
-24307,03	57,00
-24242,51	20,00
-24178,22	66,00
-24114,16	-70,00
-24050,32	158,00
-23986,71	-20,00
-23923,32	14,00
-23860,16	34,00
-23797,22	-72,00
-23734,50	-1,00
-23672,00	37,00
-23609,71	60,00
-23547,65	19,00
-23485,80	58,00
-23424,16	99,00
-23362,74	12,00
-23301,53	48,00
-23240,54	35,00
-23179,75	-56,00
-23119,17	65,00
-23058,80	-16,00
-22998,64	98,00
-22938,68	-151,00
-22878,93	59,00
-22819,39	27,00
-22760,04	33,00
-22700,90	116,00
-22641,96	24,00
-22583,22	-52,00
-22524,68	41,00
-22466,33	31,00
-22408,19	96,00
-22350,23	19,00
-22292,48	37,00
-22234,92	99,00
-22177,55	70,00
-22120,37	109,00
-22063,38	-2,00
-22006,58	36,00
-21949,98	54,00
-21893,56	66,00
-21837,33	56,00
-21781,28	48,00
-21725,42	-6,00
-21669,74	36,00
-21614,25	-16,00
-21558,94	174,00
-21503,81	120,00
-21448,86	-14,00
-21394,10	69,00
-21339,51	-30,00
-21285,10	66,00
-21230,86	73,00
-21176,81	46,00
-21122,93	81,00
-21069,22	82,00
-21015,69	-21,00
-20962,33	100,00
-20909,14	49,00
-20856,13	-12,00
-20803,28	160,00
-20750,61	48,00
-20698,10	78,00
-20645,76	-5,00
-20593,59	185,00
-20541,59	63,00
-20489,75	23,00
-20438,07	-45,00
-20386,56	87,00
-20335,22	32,00
-20284,03	27,00
-20233,01	49,00
-20182,15	49,00
-20131,45	73,00
-20080,91	-4,00
-20030,52	-99,00
-19980,30	-14,00
-19930,23	-4,00
-19880,32	35,00
-19830,56	24,00
-19780,96	98,00
-19731,52	17,00
-19682,23	-25,00
-19633,09	7,00
-19584,10	114,00
-19535,26	93,00
-19486,58	96,00
-19438,04	79,00
-19389,66	97,00
-19341,42	-34,00
-19293,33	67,00
-19245,39	-37,00
-19197,60	143,00
-19149,95	68,00
-19102,45	-6,00
-19055,09	0,00
-19007,87	69,00
-18960,80	-34,00
-18913,87	133,00
-18867,09	70,00
-18820,44	27,00
-18773,94	153,00
-18727,57	108,00
-18681,35	84,00
-18635,26	73,00
-18589,31	50,00
-18543,50	44,00
-18497,83	-22,00
-18452,29	-27,00
-18406,89	37,00
-18361,63	41,00
-18316,50	126,00
-18271,50	6,00
-18226,63	105,00
-18181,90	-61,00
-18137,30	-27,00
-18092,84	-19,00
-18048,50	22,00
-18004,29	12,00
-17960,22	-40,00
-17916,27	128,00
-17872,45	-45,00
-17828,76	-15,00
-17785,20	39,00
-17741,77	14,00
-17698,46	67,00
-17655,28	24,00
-17612,22	-12,00
-17569,29	2,00
-17526,48	-4,00
-17483,79	59,00
-17441,23	59,00
-17398,79	92,00
-17356,48	87,00
-17314,28	156,00
-17272,21	75,00
-17230,26	84,00
-17188,42	-44,00
-17146,71	70,00
-17105,12	20,00
-17063,64	-39,00
-17022,28	72,00
-16981,04	15,00
-16939,92	155,00
-16898,91	-51,00
-16858,02	11,00
-16817,25	51,00
-16776,59	11,00
-16736,04	87,00
-16695,61	43,00
-16655,29	-3,00
-16615,09	121,00
-16574,99	-90,00
-16535,01	33,00
-16495,15	-36,00
-16455,39	97,00
-16415,74	-191,00
-16376,21	81,00
-16336,78	93,00
-16297,46	29,00
-16258,26	-8,00
-16219,16	-63,00
-16180,17	118,00
-16141,28	-39,00
-16102,51	-76,00
-16063,84	41,00
-16025,27	46,00
-15986,82	56,00
-15948,46	103,00
-15910,22	84,00
-15872,07	-9,00
-15834,04	93,00
-15796,10	11,00
-15758,27	93,00
-15720,54	-34,00
-15682,91	4,00
-15645,39	43,00
-15607,97	20,00
-15570,64	70,00
-15533,42	101,00
-15496,30	48,00
-15459,28	34,00
-15422,36	91,00
-15385,54	32,00
-15348,82	38,00
-15312,19	17,00
-15275,66	38,00
-15239,23	11,00
-15202,90	73,00
-15166,67	144,00
-15130,53	2,00
-15094,48	-39,00
-15058,54	70,00
-15022,68	18,00
-14986,93	-28,00
-14951,26	-44,00
-14915,69	103,00
-14880,22	66,00
-14844,84	142,00
-14809,55	-97,00
-14774,35	83,00
-14739,25	77,00
-14704,24	26,00
-14669,32	17,00
-14634,49	-125,00
-14599,75	108,00
-14565,10	73,00
-14530,55	122,00
-14496,08	103,00
-14461,70	99,00
-14427,41	26,00
-14393,21	129,00
-14359,10	-49,00
-14325,07	-21,00
-14291,14	42,00
-14257,29	34,00
-14223,52	90,00
-14189,85	134,00
-14156,26	135,00
-14122,76	41,00
-14089,34	81,00
-14056,01	10,00
-14022,76	-5,00
-13989,60	16,00
-13956,52	70,00
-13923,53	41,00
-13890,62	-23,00
-13857,79	-11,00
-13825,05	1,00
-13792,39	2,00
-13759,81	115,00
-13727,31	-14,00
-13694,90	121,00
-13662,57	-13,00
-13630,31	91,00
-13598,14	-44,00
-13566,05	116,00
-13534,05	95,00
-13502,12	-20,00
-13470,27	92,00
-13438,50	89,00
-13406,80	24,00
-13375,19	31,00
-13343,66	-74,00
-13312,20	40,00
-13280,83	-31,00
-13249,53	5,00
-13218,30	53,00
-13187,16	19,00
-13156,09	108,00
-13125,10	53,00
-13094,18	112,00
-13063,34	-4,00
-13032,58	128,00
-13001,89	60,00
-12971,28	-66,00
-12940,74	60,00
-12910,27	28,00
-12879,88	87,00
-12849,57	-16,00
-12819,33	2,00
-12789,16	-29,00
-12759,06	5,00
-12729,04	21,00
-12699,09	-1154,00
-12669,21	23,00
-12639,41	-42,00
-12609,68	5,00
-12580,02	142,00
-12550,43	87,00
-12520,91	-4,00
-12491,46	31,00
-12462,08	-32,00
-12432,77	91,00
-12403,54	-121,00
-12374,37	41,00
-12345,27	-9,00
-12316,24	133,00
-12287,29	27,00
-12258,40	20,00
-12229,57	41,00
-12200,82	92,00
-12172,14	111,00
-12143,52	80,00
-12114,97	17,00
-12086,49	14,00
-12058,07	-28,00
-12029,73	-136,00
-12001,44	14,00
-11973,23	4,00
-11945,08	-84,00
-11917,00	78,00
-11888,98	20,00
-11861,03	13,00
-11833,15	-6,00
-11805,32	74,00
-11777,57	14,00
-11749,88	105,00
-11722,25	35,00
-11694,69	23,00
-11667,19	-33,00
-11639,75	-15,00
-11612,38	-14,00
-11585,07	111,00
-11557,83	54,00
-11530,65	-131,00
-11503,53	59,00
-11476,47	7,00
-11449,48	-15,00
-11422,54	-46,00
-11395,67	28,00
-11368,86	111,00
-11342,11	59,00
-11315,43	110,00
-11288,80	-41,00
-11262,23	187,00
-11235,73	49,00
-11209,28	45,00
-11182,90	-13,00
-11156,57	-9,00
-11130,31	45,00
-11104,10	48,00
-11077,96	121,00
-11051,87	34,00
-11025,84	-37,00
-10999,87	52,00
-10973,96	61,00
-10948,11	12,00
-10922,31	-3,00
-10896,58	21,00
-10870,90	24,00
-10845,28	35,00
-10819,71	21,00
-10794,20	76,00
-10768,75	63,00
-10743,36	96,00
-10718,02	-31,00
-10692,74	33,00
-10667,52	70,00
-10642,35	-57,00
-10617,24	85,00
-10592,18	-19,00
-10567,18	112,00
-10542,23	146,00
-10517,34	110,00
-10492,51	127,00
-10467,72	-68,00
-10443,00	76,00
-10418,32	83,00
-10393,70	23,00
-10369,14	56,00
-10344,63	82,00
-10320,17	85,00
-10295,77	3,00
-10271,42	35,00
-10247,12	84,00
-10222,88	48,00
-10198,68	8,00
-10174,54	115,00
-10150,46	106,00
-10126,42	22,00
-10102,44	221,00
-10078,51	10,00
-10054,63	104,00
-10030,80	84,00
-10007,03	152,00
-9983,30	83,00
-9959,63	162,00
-9936,01	105,00
-9912,44	165,00
-9888,92	101,00
-9865,44	265,00
-9842,02	99,00
-9818,65	142,00
-9795,33	90,00
-9772,06	114,00
-9748,84	110,00
-9725,67	38,00
-9702,55	179,00
-9679,47	225,00
-9656,45	176,00
-9633,47	203,00
-9610,55	166,00
-9587,67	296,00
-9564,84	208,00
-9542,06	104,00
-9519,32	279,00
-9496,64	334,00
-9474,00	366,00
-9451,41	389,00
-9428,87	247,00
-9406,37	182,00
-9383,92	145,00
-9361,52	-22,00
-9339,17	111,00
-9316,86	313,00
-9294,60	280,00
-9272,38	489,00
-9250,21	660,00
-9228,09	660,00
-9206,01	508,00
-9183,98	332,00
-9162,00	217,00
-9140,06	264,00
-9118,16	109,00
-9096,31	435,00
-9074,51	467,00
-9052,75	466,00
-9031,04	363,00
-9009,37	337,00
-8987,74	301,00
-8966,16	224,00
-8944,63	85,00
-8923,14	-33,00
-8901,69	149,00
-8880,29	352,00
-8858,93	283,00
-8837,61	366,00
-8816,34	524,00
-8795,11	499,00
-8773,92	462,00
-8752,78	330,00
-8731,68	385,00
-8710,62	393,00
-8689,61	385,00
-8668,63	553,00
-8647,70	392,00
-8626,82	543,00
-8605,97	557,00
-8585,17	394,00
-8564,41	295,00
-8543,69	175,00
-8523,01	134,00
-8502,37	195,00
-8481,78	271,00
-8461,23	428,00
-8440,71	430,00
-8420,24	489,00
-8399,81	539,00
-8379,42	495,00
-8359,08	344,00
-8338,77	403,00
-8318,50	345,00
-8298,27	302,00
-8278,09	403,00
-8257,94	472,00
-8237,83	539,00
-8217,76	536,00
-8197,74	569,00
-8177,75	602,00
-8157,80	406,00
-8137,89	423,00
-8118,02	418,00
-8098,19	486,00
-8078,40	439,00
-8058,65	415,00
-8038,93	428,00
-8019,26	459,00
-7999,62	533,00
-7980,02	420,00
-7960,46	348,00
-7940,94	471,00
-7921,46	360,00
-7902,01	335,00
-7882,60	265,00
-7863,23	447,00
-7843,90	328,00
-7824,61	375,00
-7805,35	423,00
-7786,13	436,00
-7766,95	456,00
-7747,80	458,00
-7728,69	437,00
-7709,62	310,00
-7690,59	458,00
-7671,59	502,00
-7652,63	471,00
-7633,70	428,00
-7614,81	478,00
-7595,96	454,00
-7577,15	313,00
-7558,37	455,00
-7539,62	348,00
-7520,91	382,00
-7502,24	327,00
-7483,60	444,00
-7465,00	326,00
-7446,44	327,00
-7427,91	250,00
-7409,41	96,00
-7390,95	166,00
-7372,53	158,00
-7354,14	104,00
-7335,78	230,00
-7317,46	286,00
-7299,18	166,00
-7280,92	244,00
-7262,71	443,00
-7244,52	482,00
-7226,38	330,00
-7208,26	459,00
-7190,18	316,00
-7172,14	257,00
-7154,12	223,00
-7136,15	225,00
-7118,20	343,00
-7100,29	277,00
-7082,41	346,00
-7064,57	373,00
-7046,76	422,00
-7028,98	202,00
-7011,24	120,00
-6993,53	47,00
-6975,85	77,00
-6958,20	23,00
-6940,59	147,00
-6923,01	-47,00
-6905,46	142,00
-6887,94	115,00
-6870,46	2739,00
-6853,01	120,00
-6835,59	264,00
-6818,21	324,00
-6800,85	69,00
-6783,53	48,00
-6766,24	75,00
-6748,98	97,00
-6731,76	-51,00
-6714,56	-74,00
-6697,40	-26,00
-6680,26	-86,00
-6663,16	-23,00
-6646,09	149,00
-6629,05	169,00
-6612,05	143,00
-6595,07	38,00
-6578,13	96,00
-6561,21	-5,00
-6544,33	-18,00
-6527,47	-18,00
-6510,65	-25,00
-6493,86	-94,00
-6477,10	-216,00
-6460,36	-217,00
-6443,66	26,00
-6426,99	-115,00
-6410,35	-101,00
-6393,74	-75,00
-6377,16	11,00
-6360,61	49,00
-6344,09	114,00
-6327,59	35,00
-6311,13	79,00
-6294,70	175,00
-6278,29	67,00
-6261,92	199,00
-6245,58	176,00
-6229,26	134,00
-6212,97	114,00
-6196,72	56,00
-6180,49	14,00
-6164,29	-17,00
-6148,12	-60,00
-6131,98	-133,00
-6115,86	-85,00
-6099,78	-146,00
-6083,72	-204,00
-6067,69	-232,00
-6051,69	-190,00
-6035,72	-51,00
-6019,78	96,00
-6003,87	-45,00
-5987,98	12,00
-5972,12	125,00
-5956,29	18,00
-5940,49	35,00
-5924,71	53,00
-5908,96	-19,00
-5893,24	-15,00
-5877,55	6,00
-5861,89	-163,00
-5846,25	-36,00
-5830,64	-51,00
-5815,05	-96,00
-5799,50	-134,00
-5783,97	59,00
-5768,47	124,00
-5752,99	0,00
-5737,55	109,00
-5722,12	121,00
-5706,73	8,00
-5691,36	56,00
-5676,02	26,00
-5660,71	-59,00
-5645,42	-13,00
-5630,16	47,00
-5614,92	-25,00
-5599,71	-28,00
-5584,53	61,00
-5569,37	51,00
-5554,24	75,00
-5539,14	-14,00
-5524,06	-63,00
-5509,01	59,00
-5493,98	50,00
-5478,98	-123,00
-5464,00	-133,00
-5449,05	-94,00
-5434,13	-44,00
-5419,23	9,00
-5404,36	82,00
-5389,51	-1,00
-5374,69	40,00
-5359,89	147,00
-5345,12	12,00
-5330,37	160,00
-5315,65	157,00
-5300,95	100,00
-5286,28	127,00
-5271,63	19,00
-5257,01	-36,00
-5242,41	28,00
-5227,84	-65,00
-5213,29	-26,00
-5198,76	-90,00
-5184,26	76,00
-5169,79	-21,00
-5155,33	-37,00
-5140,91	10,00
-5126,51	8,00
-5112,13	16,00
-5097,77	58,00
-5083,44	-36,00
-5069,13	49,00
-5054,85	-26,00
-5040,59	22,00
-5026,36	-137,00
-5012,15	-106,00
-4997,96	-160,00
-4983,80	-79,00
-4969,66	-58,00
-4955,54	12,00
-4941,44	-30,00
-4927,37	-5,00
-4913,33	112,00
-4899,30	195,00
-4885,30	98,00
-4871,33	91,00
-4857,37	186,00
-4843,44	23,00
-4829,53	27,00
-4815,65	-32,00
-4801,79	-47,00
-4787,95	-114,00
-4774,13	-31,00
-4760,34	58,00
-4746,56	7,00
-4732,82	-10,00
-4719,09	1,00
-4705,38	14,00
-4691,70	117,00
-4678,04	118,00
-4664,41	65,00
-4650,79	226,00
-4637,20	142,00
-4623,63	-61,00
-4610,08	88,00
-4596,56	54,00
-4583,05	70,00
-4569,57	58,00
-4556,11	67,00
-4542,67	-5,00
-4529,25	3,00
-4515,86	72,00
-4502,49	97,00
-4489,13	87,00
-4475,80	121,00
-4462,49	133,00
-4449,21	2,00
-4435,94	102,00
-4422,70	51,00
-4409,47	75,00
-4396,27	15,00
-4383,09	47,00
-4369,93	55,00
-4356,79	28,00
-4343,67	-25,00
-4330,58	62,00
-4317,50	-31,00
-4304,45	93,00
-4291,41	95,00
-4278,40	100,00
-4265,41	172,00
-4252,44	163,00
-4239,49	172,00
-4226,55	17,00
-4213,65	-2,00
-4200,76	80,00
-4187,89	40,00
-4175,04	0,00
-4162,21	40,00
-4149,40	60,00
-4136,61	5,00
-4123,85	93,00
-4111,10	86,00
-4098,37	75,00
-4085,66	8,00
-4072,98	-42,00
-4060,31	-36,00
-4047,66	64,00
-4035,04	167,00
-4022,43	53,00
-4009,84	89,00
-3997,27	-30,00
-3984,72	-16,00
-3972,19	164,00
-3959,69	-17,00
-3947,20	67,00
-3934,73	71,00
-3922,27	-68,00
-3909,84	100,00
-3897,43	76,00
-3885,04	-3,00
-3872,67	66,00
-3860,31	64,00
-3847,98	-58,00
-3835,66	32,00
-3823,36	-46,00
-3811,09	17,00
-3798,83	23,00
-3786,59	83,00
-3774,37	-28,00
-3762,17	102,00
-3749,98	-26,00
-3737,82	70,00
-3725,67	-3,00
-3713,55	132,00
-3701,44	-39,00
-3689,35	144,00
-3677,28	47,00
-3665,22	-16,00
-3653,19	69,00
-3641,17	-40,00
-3629,18	-42,00
-3617,20	12,00
-3605,24	10,00
-3593,30	-18,00
-3581,37	-75,00
-3569,47	-13,00
-3557,58	91,00
-3545,71	43,00
-3533,86	68,00
-3522,02	50,00
-3510,21	82,00
-3498,41	-69,00
-3486,63	104,00
-3474,87	161,00
-3463,12	-61,00
-3451,40	72,00
-3439,69	106,00
-3428,00	38,00
-3416,33	162,00
-3404,67	-4,00
-3393,03	214,00
-3381,41	-22,00
-3369,81	47,00
-3358,22	64,00
-3346,66	4,00
-3335,10	22,00
-3323,57	114,00
-3312,06	-7,00
-3300,56	-13,00
-3289,08	167,00
-3277,61	81,00
-3266,16	69,00
-3254,73	64,00
-3243,32	17,00
-3231,92	30,00
-3220,55	45,00
-3209,18	80,00
-3197,84	-34,00
-3186,51	101,00
-3175,20	46,00
-3163,90	-12,00
-3152,63	49,00
-3141,36	60,00
-3130,12	-26,00
-3118,89	178,00
-3107,68	89,00
-3096,49	53,00
-3085,31	150,00
-3074,15	23,00
-3063,00	-34,00
-3051,87	22,00
-3040,76	-64,00
-3029,67	57,00
-3018,59	-18,00
-3007,52	9,00
-2996,48	-66,00
-2985,44	56,00
-2974,43	12,00
-2963,43	52,00
-2952,45	71,00
-2941,48	-46,00
-2930,53	-11,00
-2919,60	142,00
-2908,68	194,00
-2897,78	21,00
-2886,89	162,00
-2876,02	-15,00
-2865,17	33,00
-2854,33	118,00
-2843,50	110,00
-2832,70	129,00
-2821,90	-27,00
-2811,13	49,00
-2800,37	115,00
-2789,62	122,00
-2778,89	-40,00
-2768,18	127,00
-2757,48	222,00
-2746,80	8,00
-2736,13	37,00
-2725,48	76,00
-2714,84	138,00
-2704,22	-21,00
-2693,61	129,00
-2683,02	84,00
-2672,45	54,00
-2661,89	-10,00
-2651,34	15,00
-2640,81	26,00
-2630,30	77,00
-2619,80	-2,00
-2609,31	44,00
-2598,84	153,00
-2588,39	40,00
-2577,95	85,00
-2567,52	37,00
-2557,11	3,00
-2546,71	-53,00
-2536,33	95,00
-2525,97	-29,00
-2515,62	90,00
-2505,28	56,00
-2494,96	66,00
-2484,65	75,00
-2474,36	62,00
-2464,08	82,00
-2453,82	50,00
-2443,57	134,00
-2433,33	50,00
-2423,11	74,00
-2412,91	-2,00
-2402,72	32,00
-2392,54	65,00
-2382,38	112,00
-2372,23	20,00
-2362,09	-4064,00
-2351,97	121,00
-2341,87	33,00
-2331,78	40,00
-2321,70	83,00
-2311,64	64,00
-2301,59	95,00
-2291,55	84,00
-2281,53	51,00
-2271,53	73,00
-2261,53	44,00
-2251,55	95,00
-2241,59	-17,00
-2231,64	32,00
-2221,70	158,00
-2211,78	-88,00
-2201,87	81,00
-2191,97	12,00
-2182,09	-57,00
-2172,22	63,00
-2162,37	-27,00
-2152,53	89,00
-2142,70	103,00
-2132,89	94,00
-2123,09	-56,00
-2113,30	114,00
-2103,53	-33,00
-2093,77	51,00
-2084,02	96,00
-2074,29	34,00
-2064,57	41,00
-2054,86	11,00
-2045,17	67,00
-2035,49	13,00
-2025,82	11,00
-2016,17	48,00
-2006,53	42,00
-1996,91	132,00
-1987,29	7,00
-1977,69	40,00
-1968,11	105,00
-1958,53	118,00
-1948,97	53,00
-1939,42	65,00
-1929,89	66,00
-1920,37	2,00
-1910,86	-59,00
-1901,36	56,00
-1891,88	-43,00
-1882,41	52,00
-1872,95	67,00
-1863,51	-17,00
-1854,08	80,00
-1844,66	19,00
-1835,26	111,00
-1825,86	34,00
-1816,48	82,00
-1807,11	0,00
-1797,76	51,00
-1788,42	-2,00
-1779,09	41,00
-1769,77	55,00
-1760,47	53,00
-1751,17	5,00
-1741,89	18,00
-1732,63	56,00
-1723,37	164,00
-1714,13	69,00
-1704,90	-78,00
-1695,68	-18,00
-1686,48	-9,00
-1677,29	120,00
-1668,11	40,00
-1658,94	49,00
-1649,78	-18,00
-1640,64	112,00
-1631,51	117,00
-1622,39	57,00
-1613,28	-51,00
-1604,19	101,00
-1595,10	-19,00
-1586,03	-61,00
-1576,97	15,00
-1567,93	135,00
-1558,89	20,00
-1549,87	65,00
-1540,86	-27,00
-1531,86	1,00
-1522,87	122,00
-1513,90	1,00
-1504,93	-38,00
-1495,98	120,00
-1487,04	-55,00
-1478,12	50,00
-1469,20	72,00
-1460,30	131,00
-1451,40	105,00
-1442,52	-24,00
-1433,65	71,00
-1424,80	140,00
-1415,95	52,00
-1407,12	-57,00
-1398,30	-112,00
-1389,48	14,00
-1380,69	115,00
-1371,90	43,00
-1363,12	24,00
-1354,36	106,00
-1345,60	10,00
-1336,86	-121,00
-1328,13	0,00
-1319,41	39,00
-1310,70	55,00
-1302,01	35,00
-1293,32	42,00
-1284,65	77,00
-1275,99	24,00
-1267,33	77,00
-1258,69	135,00
-1250,06	-11,00
-1241,45	48,00
-1232,84	-27,00
-1224,25	-8,00
-1215,66	27,00
-1207,09	-74,00
-1198,53	19,00
-1189,97	64,00
-1181,43	9,00
-1172,91	-97,00
-1164,39	120,00
-1155,88	72,00
-1147,38	102,00
-1138,90	45,00
-1130,43	52,00
-1121,96	-30,00
-1113,51	39,00
-1105,07	100,00
-1096,64	29,00
-1088,22	90,00
-1079,81	-44,00
-1071,41	-3,00
-1063,02	57,00
-1054,65	45,00
-1046,28	13,00
-1037,92	86,00
-1029,58	69,00
-1021,24	94,00
-1012,92	-28,00
-1004,61	25,00
-996,30	-22,00
-988,01	46,00
-979,73	72,00
-971,46	15,00
-963,20	8,00
-954,95	21,00
-946,71	-56,00
-938,48	6,00
-930,26	104,00
-922,06	16,00
-913,86	-18,00
-905,67	15,00
-897,49	-11,00
-889,33	47,00
-881,17	179,00
-873,02	153,00
-864,89	83,00
-856,76	-20,00
-848,65	39,00
-840,54	6,00
-832,45	16,00
-824,36	4,00
-816,29	76,00
-808,22	102,00
-800,17	166,00
-792,12	5,00
-784,09	22,00
-776,06	-105,00
-768,05	15,00
-760,04	96,00
-752,05	154,00
-744,07	17,00
-736,09	49,00
-728,13	24,00
-720,17	95,00
-712,23	-41,00
-704,29	-14,00
-696,37	56,00
-688,45	-106,00
-680,55	40,00
-672,65	-26,00
-664,77	103,00
-656,89	18,00
-649,03	132,00
-641,17	40,00
-633,32	71,00
-625,49	16,00
-617,66	-8,00
-609,84	10,00
-602,03	30,00
-594,23	20,00
-586,45	80,00
-578,67	64,00
-570,90	18,00
-563,14	58,00
-555,39	-23,00
-547,65	-95,00
-539,91	130,00
-532,19	-154,00
-524,48	-16,00
-516,78	30,00
-509,08	50,00
-501,40	41,00
-493,72	98,00
-486,06	-52,00
-478,40	12,00
-470,76	-37,00
-463,12	53,00
-455,49	-52,00
-447,87	1,00
-440,26	137,00
-432,66	173,00
-425,07	147,00
-417,49	146,00
-409,92	9,00
-402,35	43,00
-394,80	68,00
-387,25	-15,00
-379,72	15,00
-372,19	61,00
-364,67	120,00
-357,17	50,00
-349,67	55,00
-342,18	62,00
-334,69	71,00
-327,22	51,00
-319,76	31,00
-312,30	20,00
-304,86	51,00
-297,42	52,00
-290,00	51,00
-282,58	139,00
-275,17	125,00
-267,77	-30,00
-260,37	89,00
-252,99	158,00
-245,62	121,00
-238,25	137,00
-230,90	157,00
-223,55	51,00
-216,21	132,00
-208,88	44,00
-201,56	109,00
-194,25	98,00
-186,94	168,00
-179,65	194,00
-172,36	139,00
-165,08	122,00
-157,81	201,00
-150,55	205,00
-143,30	209,00
-136,06	337,00
-128,82	286,00
-121,60	346,00
-114,38	392,00
-107,17	439,00
-99,97	472,00
-92,78	434,00
-85,60	613,00
-78,42	665,00
-71,25	759,00
-64,10	719,00
-56,95	956,00
-49,81	1140,00
-42,67	1389,00
-35,55	1838,00
-28,43	2403,00
-21,33	4110,00
-14,23	13476,00
-7,14	56139,00
-0,05	55888,00
7,02	55558,00
14,09	43670,00
21,14	11586,00
28,19	4837,00
35,23	3032,00
42,27	2337,00
49,29	1932,00
56,31	1629,00
63,32	1248,00
70,32	1091,00
77,31	989,00
84,29	868,00
91,27	863,00
98,23	781,00
105,19	646,00
112,14	720,00
119,09	1288,00
126,02	2153,00
132,95	2731,00
139,87	2961,00
146,78	2868,00
153,68	3004,00
160,58	2882,00
167,46	2736,00
174,34	2889,00
181,21	2918,00
188,08	2870,00
194,93	2914,00
201,78	2894,00
208,62	2907,00
215,45	2838,00
222,27	2739,00
229,09	2917,00
235,90	2951,00
242,70	2872,00
249,49	2840,00
256,27	2805,00
263,05	2856,00
269,82	2882,00
276,58	2933,00
283,33	2832,00
290,08	2778,00
296,82	2715,00
303,55	2858,00
310,27	2562,00
316,98	2797,00
323,69	2826,00
330,39	2729,00
337,08	2717,00
343,76	2833,00
350,44	2765,00
357,11	2709,00
363,77	2751,00
370,42	2874,00
377,07	2677,00
383,71	2823,00
390,34	2800,00
396,96	2696,00
403,58	2812,00
410,19	2940,00
416,79	2905,00
423,38	2943,00
429,97	2865,00
436,55	2902,00
443,12	2775,00
449,68	2808,00
456,24	2796,00
462,79	2850,00
469,33	2820,00
475,86	2824,00
482,39	2892,00
488,91	2845,00
495,42	2852,00
501,93	2712,00
508,42	2884,00
514,91	2787,00
521,40	2804,00
527,87	2705,00
534,34	2842,00
540,80	2786,00
547,25	2891,00
553,70	2827,00
560,14	2787,00
566,57	2880,00
573,00	2798,00
579,41	2917,00
585,83	2768,00
592,23	2726,00
598,62	2946,00
605,01	2745,00
611,40	3003,00
617,77	2787,00
624,14	2866,00
630,50	2683,00
636,85	2776,00
643,20	2946,00
649,54	2842,00
655,87	2683,00
662,20	2870,00
668,52	2781,00
674,83	2784,00
681,13	2801,00
687,43	2766,00
693,72	2788,00
700,00	2895,00
706,28	2733,00
712,55	2829,00
718,81	2944,00
725,07	2883,00
731,32	2754,00
737,56	2945,00
743,79	2940,00
750,02	2930,00
756,24	2937,00
762,46	2866,00
768,67	2889,00
774,87	2979,00
781,06	2953,00
787,25	2955,00
793,43	3021,00
799,60	2955,00
805,77	2783,00
811,93	2887,00
818,08	2922,00
824,23	2853,00
830,37	2959,00
836,50	3095,00
842,63	3023,00
848,75	2967,00
854,87	2997,00
860,97	3031,00
867,07	2999,00
873,17	2911,00
879,25	2991,00
885,33	2906,00
891,41	2914,00
897,47	2944,00
903,53	3023,00
909,59	3078,00
915,63	3002,00
921,67	3042,00
927,71	2989,00
933,74	3036,00
939,76	2980,00
945,77	2855,00
951,78	2954,00
957,78	3068,00
963,78	3017,00
969,77	2978,00
975,75	3092,00
981,72	2985,00
987,69	2893,00
993,66	3101,00
999,61	3005,00
1005,56	3052,00
1011,51	2956,00
1017,44	3065,00
1023,37	3054,00
1029,30	3079,00
1035,22	3060,00
1041,13	3148,00
1047,03	3200,00
1052,93	3283,00
1058,83	3666,00
1064,71	3972,00
1070,59	3656,00
1076,47	3399,00
1082,33	3344,00
1088,20	3412,00
1094,05	3365,00
1099,90	3240,00
1105,74	3374,00
1111,58	3204,00
1117,41	3412,00
1123,23	3791,00
1129,05	4055,00
1134,86	3849,00
1140,67	3555,00
1146,47	3493,00
1152,26	3290,00
1158,05	3217,00
1163,83	3455,00
1169,60	3338,00
1175,37	3343,00
1181,13	3240,00
1186,89	3339,00
1192,64	3309,00
1198,38	3233,00
1204,12	3246,00
1209,85	3155,00
1215,58	3244,00
1221,30	3343,00
1227,02	3424,00
1232,72	3481,00
1238,43	3405,00
1244,12	3502,00
1249,81	3376,00
1255,50	3279,00
1261,17	3368,00
1266,85	3571,00
1272,51	3367,00
1278,17	3501,00
1283,83	3653,00
1289,47	3897,00
1295,12	4492,00
1300,75	4158,00
1306,38	3909,00
1312,01	3678,00
1317,63	3465,00
1323,24	3462,00
1328,85	3481,00
1334,45	3632,00
1340,04	3393,00
1345,63	3441,00
1351,22	3516,00
1356,80	3543,00
1362,37	3498,00
1367,93	3529,00
1373,49	3562,00
1379,05	3407,00
1384,60	3611,00
1390,14	3468,00
1395,68	3558,00
1401,21	3441,00
1406,74	3613,00
1412,26	3863,00
1417,77	3764,00
1423,28	3937,00
1428,78	3928,00
1434,28	4034,00
1439,77	4358,00
1445,26	4338,00
1450,74	4241,00
1456,22	4171,00
1461,68	4009,00
1467,15	3927,00
1472,61	3797,00
1478,06	3626,00
1483,51	3444,00
1488,95	3516,00
1494,38	3398,00
1499,81	3242,00
1505,24	3320,00
1510,65	3218,00
1516,07	3273,00
1521,48	3305,00
1526,88	3263,00
1532,27	3284,00
1537,67	3331,00
1543,05	3392,00
1548,43	3150,00
1553,81	3222,00
1559,18	3290,00
1564,54	3209,00
1569,90	3216,00
1575,25	3336,00
1580,60	3223,00
1585,94	3215,00
1591,28	3352,00
1596,61	3109,00
1601,93	3112,00
1607,25	3281,00
1612,57	3130,00
1617,88	3129,00
1623,18	3130,00
1628,48	3201,00
1633,77	3164,00
1639,06	3083,00
1644,34	3120,00
1649,62	3116,00
1654,89	3012,00
1660,16	3067,00
1665,42	3126,00
1670,67	3124,00
1675,92	2987,00
1681,17	3015,00
1686,41	2950,00
1691,64	3026,00
1696,87	2972,00
1702,10	2909,00
1707,32	2930,00
1712,53	2983,00
1717,74	2907,00
1722,94	3063,00
1728,14	2906,00
1733,33	2960,00
1738,52	2847,00
1743,70	2839,00
1748,88	2945,00
1754,05	2868,00
1759,22	2841,00
1764,38	2806,00
1769,53	2920,00
1774,69	2879,00
1779,83	2893,00
1784,97	2839,00
1790,11	2670,00
1795,24	2843,00
1800,36	2840,00
1805,48	2794,00
1810,60	2854,00
1815,71	2851,00
1820,82	2705,00
1825,92	2823,00
1831,01	2873,00
1836,10	2803,00
1841,19	2778,00
1846,26	2798,00
1851,34	2808,00
1856,41	2757,00
1861,47	2705,00
1866,53	2727,00
1871,59	2783,00
1876,64	2708,00
1881,68	2819,00
1886,72	2711,00
1891,76	2689,00
1896,79	2763,00
1901,81	2745,00
1906,83	2618,00
1911,85	2623,00
1916,86	2659,00
1921,86	2623,00
1926,86	2611,00
1931,86	2562,00
1936,85	2502,00
1941,83	2450,00
1946,81	2504,00
1951,79	2365,00
1956,76	2480,00
1961,72	2434,00
1966,68	2486,00
1971,64	2450,00
1976,59	2506,00
1981,54	2408,00
1986,48	2446,00
1991,42	2418,00
1996,35	2232,00
2001,27	2382,00
2006,20	2463,00
2011,11	2437,00
2016,03	2441,00
2020,93	2303,00
2025,84	2345,00
2030,73	2449,00
2035,63	2451,00
2040,52	2345,00
2045,40	2412,00
2050,28	2406,00
2055,15	2304,00
2060,02	2369,00
2064,89	2455,00
2069,75	2333,00
2074,60	2357,00
2079,46	2364,00
2084,30	2476,00
2089,14	2422,00
2093,98	2315,00
2098,81	2300,00
2103,64	2417,00
2108,46	2338,00
2113,28	2287,00
2118,09	2238,00
2122,90	2305,00
2127,70	2220,00
2132,50	2281,00
2137,30	2397,00
2142,09	2329,00
2146,87	2316,00
2151,66	2249,00
2156,43	2268,00
2161,20	2209,00
2165,97	2227,00
2170,73	2146,00
2175,49	2118,00
2180,24	2184,00
2184,99	2165,00
2189,74	2084,00
2194,48	2062,00
2199,21	2107,00
2203,94	2056,00
2208,67	2076,00
2213,39	2016,00
2218,11	2071,00
2222,82	2117,00
2227,53	2115,00
2232,23	2025,00
2236,93	2160,00
2241,63	2093,00
2246,32	2005,00
2251,00	1970,00
2255,68	1993,00
2260,36	1917,00
2265,03	1950,00
2269,70	2042,00
2274,36	2092,00
2279,02	1908,00
2283,68	1966,00
2288,33	1936,00
2292,97	1911,00
2297,61	1865,00
2302,25	1973,00
2306,88	1876,00
2311,51	1870,00
2316,14	2009,00
2320,75	1987,00
2325,37	1894,00
2329,98	2049,00
2334,59	1849,00
2339,19	1869,00
2343,79	1823,00
2348,38	1816,00
2352,97	1825,00
2357,55	1823,00
2362,13	1871,00
2366,71	1758,00
2371,28	1917,00
2375,85	1818,00
2380,41	1814,00
2384,97	1785,00
2389,52	1673,00
2394,07	1750,00
2398,62	1758,00
2403,16	1666,00
2407,70	1722,00
2412,23	1593,00
2416,76	1675,00
2421,29	1626,00
2425,81	1630,00
2430,32	1699,00
2434,84	1568,00
2439,34	1606,00
2443,85	1672,00
2448,35	1607,00
2452,84	1623,00
2457,33	1652,00
2461,82	1532,00
2466,30	1617,00
2470,78	1588,00
2475,25	1466,00
2479,72	1572,00
2484,19	1577,00
2488,65	1521,00
2493,11	1627,00
2497,56	1483,00
2502,01	1393,00
2506,46	1478,00
2510,90	1530,00
2515,34	1546,00
2519,77	1511,00
2524,20	1406,00
2528,62	1508,00
2533,04	1442,00
2537,46	1374,00
2541,87	1511,00
2546,28	1446,00
2550,68	1413,00
2555,08	1437,00
2559,48	1440,00
2563,87	1387,00
2568,26	1292,00
2572,64	1370,00
2577,02	1409,00
2581,40	1383,00
2585,77	1308,00
2590,14	1257,00
2594,50	1256,00
2598,86	1331,00
2603,22	1340,00
2607,57	1274,00
2611,92	1249,00
2616,26	1237,00
2620,60	1247,00
2624,94	1242,00
2629,27	1270,00
2633,60	1188,00
2637,92	1318,00
2642,24	1320,00
2646,56	1295,00
2650,87	1157,00
2655,18	1132,00
2659,48	1083,00
2663,78	1175,00
2668,08	1183,00
2672,37	1187,00
2676,66	1255,00
2680,95	1243,00
2685,23	1117,00
2689,50	1066,00
2693,78	1156,00
2698,05	1243,00
2702,31	1252,00
2706,57	1263,00
2710,83	1209,00
2715,08	1183,00
2719,33	1233,00
2723,58	1268,00
2727,82	1341,00
2732,06	1218,00
2736,29	1191,00
2740,53	1118,00
2744,75	1145,00
2748,97	1179,00
2753,19	1162,00
2757,41	1145,00
2761,62	1053,00
2765,83	1086,00
2770,03	1169,00
2774,23	1097,00
2778,43	1112,00
2782,62	1204,00
2786,81	1210,00
2791,00	1021,00
2795,18	1067,00
2799,35	1167,00
2803,53	1130,00
2807,70	1117,00
2811,86	1160,00
2816,03	1255,00
2820,19	1209,00
2824,34	1285,00
2828,49	1255,00
2832,64	1373,00
2836,78	1628,00
2840,92	1820,00
2845,06	1980,00
2849,19	2370,00
2853,32	2206,00
2857,45	2236,00
2861,57	2211,00
2865,69	2211,00
2869,80	2145,00
2873,91	2158,00
2878,02	2198,00
2882,12	2402,00
2886,22	2300,00
2890,32	2229,00
2894,41	2175,00
2898,50	2009,00
2902,58	1736,00
2906,67	1804,00
2910,74	1687,00
2914,82	1671,00
2918,89	1586,00
2922,96	1434,00
2927,02	1332,00
2931,08	1126,00
2935,13	1227,00
2939,19	1142,00
2943,24	1129,00
2947,28	1079,00
2951,32	1044,00
2955,36	901,00
2959,40	962,00
2963,43	1012,00
2967,46	1026,00
2971,48	874,00
2975,50	754,00
2979,52	781,00
2983,53	776,00
2987,54	741,00
2991,55	691,00
2995,55	782,00
2999,55	763,00
3003,54	781,00
3007,54	687,00
3011,53	653,00
3015,51	655,00
3019,49	720,00
3023,47	700,00
3027,45	672,00
3031,42	647,00
3035,39	664,00
3039,35	554,00
3043,31	585,00
3047,27	579,00
3051,22	646,00
3055,17	540,00
3059,12	570,00
3063,06	683,00
3067,00	572,00
3070,94	549,00
3074,87	626,00
3078,80	526,00
3082,73	504,00
3086,65	538,00
3090,57	559,00
3094,49	487,00
3098,40	429,00
3102,31	439,00
3106,22	494,00
3110,12	538,00
3114,02	561,00
3117,92	510,00
3121,81	374,00
3125,70	495,00
3129,58	462,00
3133,47	421,00
3137,34	487,00
3141,22	407,00
3145,09	488,00
3148,96	377,00
3152,83	378,00
3156,69	435,00
3160,55	459,00
3164,40	316,00
3168,26	304,00
3172,10	346,00
3175,95	469,00
3179,79	252,00
3183,63	364,00
3187,47	456,00
3191,30	447,00
3195,13	480,00
3198,95	278,00
3202,78	328,00
3206,60	354,00
3210,41	309,00
3214,23	354,00
3218,03	242,00
3221,84	402,00
3225,64	332,00
3229,44	293,00
3233,24	310,00
3237,03	224,00
3240,82	221,00
3244,61	316,00
3248,39	331,00
3252,17	364,00
3255,95	270,00
3259,72	238,00
3263,49	344,00
3267,26	261,00
3271,03	234,00
3274,79	269,00
3278,54	352,00
3282,30	239,00
3286,05	310,00
3289,80	304,00
3293,54	298,00
3297,29	353,00
3301,02	216,00
3304,76	404,00
3308,49	397,00
3312,22	247,00
3315,95	322,00
3319,67	208,00
3323,39	285,00
3327,10	146,00
3330,82	206,00
3334,53	199,00
3338,24	365,00
3341,94	195,00
3345,64	314,00
3349,34	185,00
3353,03	176,00
3356,72	234,00
3360,41	246,00
3364,10	244,00
3367,78	209,00
3371,46	117,00
3375,13	207,00
3378,81	292,00
3382,48	280,00
3386,14	173,00
3389,81	309,00
3393,47	152,00
3397,12	225,00
3400,78	122,00
3404,43	271,00
3408,08	262,00
3411,72	191,00
3415,36	180,00
3419,00	219,00
3422,64	179,00
3426,27	252,00
3429,90	231,00
3433,53	121,00
3437,15	130,00
3440,77	176,00
3444,39	208,00
3448,00	207,00
3451,62	134,00
3455,22	198,00
3458,83	151,00
3462,43	239,00
3466,03	124,00
3469,63	187,00
3473,22	194,00
3476,81	187,00
3480,40	247,00
3483,99	146,00
3487,57	58,00
3491,15	0,00
3494,72	149,00
3498,29	123,00
3501,86	106,00
3505,43	63,00
3508,99	60,00
3512,56	140,00
3516,11	100,00
3519,67	33,00
3523,22	107,00
3526,77	227,00
3530,32	69,00
3533,86	193,00
3537,40	76,00
3540,94	81,00
3544,47	158,00
3548,00	168,00
3551,53	41,00
3555,06	20,00
3558,58	107,00
3562,10	81,00
3565,62	134,00
3569,13	80,00
3572,64	36,00
3576,15	197,00
3579,66	86,00
3583,16	68,00
3586,66	123,00
3590,16	92,00
3593,65	118,00
3597,14	63,00
3600,63	149,00
3604,11	55,00
3607,60	124,00
3611,08	12,00
3614,55	25,00
3618,03	183,00
3621,50	137,00
3624,97	35,00
3628,43	57,00
3631,90	59,00
3635,36	39,00
3638,81	133,00
3642,27	66,00
3645,72	87,00
3649,17	1,00
3652,61	48,00
3656,06	43,00
3659,50	88,00
3662,93	76,00
3666,37	220,00
3669,80	82,00
3673,23	93,00
3676,65	207,00
3680,08	75,00
3683,50	118,00
3686,92	75,00
3690,33	-100,00
3693,74	133,00
3697,15	56,00
3700,56	-13,00
3703,96	-19,00
3707,36	168,00
3710,76	22,00
3714,16	70,00
3717,55	25,00
3720,94	-49,00
3724,33	52,00
3727,71	76,00
3731,10	-45,00
3734,48	9,00
3737,85	52,00
3741,23	41,00
3744,60	22,00
3747,97	45,00
3751,33	68,00
3754,69	76,00
3758,05	31,00
3761,41	44,00
3764,77	113,00
3768,12	101,00
3771,47	40,00
3774,82	84,00
3778,16	0,00
3781,50	3,00
3784,84	0,00
3788,18	-9,00
>>>>>End Processed Spectral Data<<<<<
