SpectraSuite Data File
++++++++++++++++++++++++++++++++++++
Date: Mon Mar 09 14:53:53 ICT 2026
User: Administrator
Dark Spectrum Present: Yes
Reference Spectrum Present: No
Number of Sampled Component Spectra: 1
Spectrometers: MAYP113682
Integration Time (usec): 3000000 (MAYP113682)
Spectra Averaged: 1 (MAYP113682)
Boxcar Smoothing: 0 (MAYP113682)
Correct for Electrical Dark: No (MAYP113682)
Strobe/Lamp Enabled: No (MAYP113682)
Correct for Detector Non-linearity: No (MAYP113682)
Correct for Stray Light: No (MAYP113682)
Number of Pixels in Processed Spectrum: 2068
>>>>>Begin Processed Spectral Data<<<<<
-37534,58	44,00
-37414,56	10,00
-37295,11	12,00
-37176,24	11,00
-37057,95	954,00
-36940,22	864,00
-36823,05	1024,00
-36706,45	1207,00
-36590,40	1012,00
-36474,90	1090,00
-36359,95	1146,00
-36245,55	1099,00
-36131,68	1112,00
-36018,35	1140,00
-35905,55	1069,00
-35793,29	1208,00
-35681,54	1136,00
-35570,32	1082,00
-35459,62	1053,00
-35349,43	1195,00
-35239,75	1051,00
-35130,58	1132,00
-35021,91	1115,00
-34913,74	1235,00
-34806,07	1126,00
-34698,89	1307,00
-34592,20	1197,00
-34486,00	1306,00
-34380,28	1067,00
-34275,04	1149,00
-34170,27	1209,00
-34065,98	1176,00
-33962,16	1130,00
-33858,81	1157,00
-33755,92	1212,00
-33653,49	1348,00
-33551,52	1271,00
-33450,01	1181,00
-33348,94	1125,00
-33248,33	1158,00
-33148,16	1141,00
-33048,43	1212,00
-32949,14	1408,00
-32850,29	1285,00
-32751,87	1103,00
-32653,89	1266,00
-32556,33	1398,00
-32459,20	1249,00
-32362,49	1222,00
-32266,19	1225,00
-32170,32	1313,00
-32074,86	1265,00
-31979,82	1269,00
-31885,18	1464,00
-31790,95	1418,00
-31697,12	1269,00
-31603,69	1316,00
-31510,67	1241,00
-31418,04	1167,00
-31325,80	1252,00
-31233,95	1338,00
-31142,49	1270,00
-31051,42	1407,00
-30960,73	1431,00
-30870,43	1399,00
-30780,50	1184,00
-30690,95	1240,00
-30601,77	1415,00
-30512,97	1186,00
-30424,53	1237,00
-30336,46	1230,00
-30248,76	1255,00
-30161,42	1368,00
-30074,44	1140,00
-29987,81	1309,00
-29901,55	1323,00
-29815,63	1089,00
-29730,07	1325,00
-29644,86	1237,00
-29560,00	1324,00
-29475,48	1269,00
-29391,30	1247,00
-29307,47	1084,00
-29223,97	1236,00
-29140,81	1222,00
-29057,99	1236,00
-28975,50	1245,00
-28893,34	1337,00
-28811,51	1205,00
-28730,00	1226,00
-28648,82	1242,00
-28567,97	1281,00
-28487,43	1289,00
-28407,21	1208,00
-28327,32	1187,00
-28247,73	1410,00
-28168,46	1162,00
-28089,50	1361,00
-28010,85	1088,00
-27932,51	1146,00
-27854,48	1345,00
-27776,75	1162,00
-27699,32	1167,00
-27622,19	1272,00
-27545,37	1322,00
-27468,84	1257,00
-27392,60	1405,00
-27316,66	1249,00
-27241,01	1279,00
-27165,66	1336,00
-27090,59	1201,00
-27015,81	1222,00
-26941,31	1452,00
-26867,10	1225,00
-26793,17	1232,00
-26719,52	1340,00
-26646,15	1195,00
-26573,06	1289,00
-26500,24	1231,00
-26427,70	1182,00
-26355,43	1280,00
-26283,43	1225,00
-26211,71	1374,00
-26140,25	1294,00
-26069,06	1544,00
-25998,13	1097,00
-25927,46	1229,00
-25857,06	1338,00
-25786,92	1145,00
-25717,04	1112,00
-25647,42	1277,00
-25578,05	1263,00
-25508,94	1303,00
-25440,09	1255,00
-25371,48	1190,00
-25303,13	1195,00
-25235,02	1253,00
-25167,17	1437,00
-25099,56	1350,00
-25032,19	1167,00
-24965,07	1240,00
-24898,20	1176,00
-24831,56	1284,00
-24765,17	1213,00
-24699,01	1268,00
-24633,10	1212,00
-24567,41	1260,00
-24501,97	1330,00
-24436,75	1240,00
-24371,77	1225,00
-24307,03	1219,00
-24242,51	1159,00
-24178,22	1331,00
-24114,16	1149,00
-24050,32	1300,00
-23986,71	1280,00
-23923,32	1185,00
-23860,16	1171,00
-23797,22	1191,00
-23734,50	1223,00
-23672,00	1140,00
-23609,71	1155,00
-23547,65	1090,00
-23485,80	1280,00
-23424,16	1161,00
-23362,74	1417,00
-23301,53	1220,00
-23240,54	1097,00
-23179,75	1224,00
-23119,17	1251,00
-23058,80	1219,00
-22998,64	1265,00
-22938,68	1181,00
-22878,93	1329,00
-22819,39	1273,00
-22760,04	1220,00
-22700,90	1206,00
-22641,96	1162,00
-22583,22	1232,00
-22524,68	1257,00
-22466,33	1143,00
-22408,19	1327,00
-22350,23	1245,00
-22292,48	1245,00
-22234,92	1253,00
-22177,55	1292,00
-22120,37	1404,00
-22063,38	1216,00
-22006,58	1200,00
-21949,98	1157,00
-21893,56	1094,00
-21837,33	1201,00
-21781,28	1262,00
-21725,42	1141,00
-21669,74	1256,00
-21614,25	1287,00
-21558,94	1207,00
-21503,81	1245,00
-21448,86	1288,00
-21394,10	1136,00
-21339,51	1140,00
-21285,10	1153,00
-21230,86	1104,00
-21176,81	1042,00
-21122,93	1134,00
-21069,22	1235,00
-21015,69	1235,00
-20962,33	1302,00
-20909,14	1201,00
-20856,13	1205,00
-20803,28	1259,00
-20750,61	1148,00
-20698,10	1162,00
-20645,76	1275,00
-20593,59	1325,00
-20541,59	1387,00
-20489,75	1288,00
-20438,07	1116,00
-20386,56	1369,00
-20335,22	1192,00
-20284,03	1091,00
-20233,01	1122,00
-20182,15	1201,00
-20131,45	1156,00
-20080,91	1254,00
-20030,52	1188,00
-19980,30	1132,00
-19930,23	1063,00
-19880,32	1360,00
-19830,56	1316,00
-19780,96	1138,00
-19731,52	1270,00
-19682,23	1241,00
-19633,09	1213,00
-19584,10	1223,00
-19535,26	1182,00
-19486,58	1331,00
-19438,04	1234,00
-19389,66	1130,00
-19341,42	1144,00
-19293,33	1208,00
-19245,39	1118,00
-19197,60	1199,00
-19149,95	1252,00
-19102,45	1327,00
-19055,09	1251,00
-19007,87	1278,00
-18960,80	1211,00
-18913,87	1269,00
-18867,09	1191,00
-18820,44	1214,00
-18773,94	1170,00
-18727,57	1115,00
-18681,35	1136,00
-18635,26	1247,00
-18589,31	1083,00
-18543,50	1089,00
-18497,83	1222,00
-18452,29	1230,00
-18406,89	1166,00
-18361,63	1322,00
-18316,50	1197,00
-18271,50	1152,00
-18226,63	1325,00
-18181,90	1294,00
-18137,30	1295,00
-18092,84	1148,00
-18048,50	1246,00
-18004,29	1072,00
-17960,22	1130,00
-17916,27	1149,00
-17872,45	1210,00
-17828,76	1192,00
-17785,20	1313,00
-17741,77	1236,00
-17698,46	1145,00
-17655,28	975,00
-17612,22	1222,00
-17569,29	1137,00
-17526,48	1251,00
-17483,79	1103,00
-17441,23	1160,00
-17398,79	1174,00
-17356,48	1198,00
-17314,28	1488,00
-17272,21	1147,00
-17230,26	1089,00
-17188,42	1273,00
-17146,71	1236,00
-17105,12	1191,00
-17063,64	1288,00
-17022,28	1089,00
-16981,04	1221,00
-16939,92	1215,00
-16898,91	1263,00
-16858,02	1226,00
-16817,25	1137,00
-16776,59	1104,00
-16736,04	1171,00
-16695,61	1131,00
-16655,29	1171,00
-16615,09	1266,00
-16574,99	1222,00
-16535,01	1152,00
-16495,15	1294,00
-16455,39	1265,00
-16415,74	1230,00
-16376,21	1196,00
-16336,78	1112,00
-16297,46	1138,00
-16258,26	1165,00
-16219,16	1189,00
-16180,17	1137,00
-16141,28	1328,00
-16102,51	1264,00
-16063,84	1221,00
-16025,27	1339,00
-15986,82	1109,00
-15948,46	1182,00
-15910,22	1244,00
-15872,07	1200,00
-15834,04	1126,00
-15796,10	1107,00
-15758,27	1391,00
-15720,54	1133,00
-15682,91	1210,00
-15645,39	1235,00
-15607,97	1219,00
-15570,64	1125,00
-15533,42	1268,00
-15496,30	1210,00
-15459,28	1202,00
-15422,36	1168,00
-15385,54	1161,00
-15348,82	1196,00
-15312,19	1328,00
-15275,66	1117,00
-15239,23	1165,00
-15202,90	1122,00
-15166,67	1104,00
-15130,53	1269,00
-15094,48	1211,00
-15058,54	1217,00
-15022,68	1107,00
-14986,93	1215,00
-14951,26	1172,00
-14915,69	1054,00
-14880,22	1072,00
-14844,84	1148,00
-14809,55	1255,00
-14774,35	1168,00
-14739,25	1371,00
-14704,24	1176,00
-14669,32	1202,00
-14634,49	1207,00
-14599,75	1330,00
-14565,10	1127,00
-14530,55	1296,00
-14496,08	1225,00
-14461,70	1172,00
-14427,41	1092,00
-14393,21	1136,00
-14359,10	1094,00
-14325,07	1333,00
-14291,14	1279,00
-14257,29	1252,00
-14223,52	1234,00
-14189,85	1429,00
-14156,26	1216,00
-14122,76	1195,00
-14089,34	1174,00
-14056,01	1128,00
-14022,76	1339,00
-13989,60	1239,00
-13956,52	1197,00
-13923,53	1207,00
-13890,62	1265,00
-13857,79	1139,00
-13825,05	1197,00
-13792,39	1094,00
-13759,81	1207,00
-13727,31	1182,00
-13694,90	1101,00
-13662,57	1210,00
-13630,31	1222,00
-13598,14	1237,00
-13566,05	1093,00
-13534,05	1165,00
-13502,12	1086,00
-13470,27	1197,00
-13438,50	1301,00
-13406,80	1107,00
-13375,19	1091,00
-13343,66	1221,00
-13312,20	1253,00
-13280,83	1173,00
-13249,53	1136,00
-13218,30	1073,00
-13187,16	1084,00
-13156,09	1278,00
-13125,10	1261,00
-13094,18	1279,00
-13063,34	1276,00
-13032,58	1113,00
-13001,89	1304,00
-12971,28	1276,00
-12940,74	1223,00
-12910,27	1290,00
-12879,88	1242,00
-12849,57	1236,00
-12819,33	1154,00
-12789,16	1215,00
-12759,06	1118,00
-12729,04	1262,00
-12699,09	2746,00
-12669,21	1162,00
-12639,41	1254,00
-12609,68	1189,00
-12580,02	1185,00
-12550,43	1298,00
-12520,91	1019,00
-12491,46	1250,00
-12462,08	1123,00
-12432,77	1114,00
-12403,54	1201,00
-12374,37	1170,00
-12345,27	1238,00
-12316,24	1166,00
-12287,29	1330,00
-12258,40	1157,00
-12229,57	1278,00
-12200,82	1296,00
-12172,14	1158,00
-12143,52	1074,00
-12114,97	1112,00
-12086,49	1237,00
-12058,07	1250,00
-12029,73	1152,00
-12001,44	1326,00
-11973,23	1192,00
-11945,08	1339,00
-11917,00	1180,00
-11888,98	1188,00
-11861,03	1203,00
-11833,15	1199,00
-11805,32	1236,00
-11777,57	1237,00
-11749,88	1251,00
-11722,25	1111,00
-11694,69	1121,00
-11667,19	1146,00
-11639,75	1282,00
-11612,38	1193,00
-11585,07	1202,00
-11557,83	1242,00
-11530,65	1306,00
-11503,53	1296,00
-11476,47	1223,00
-11449,48	1156,00
-11422,54	1228,00
-11395,67	1176,00
-11368,86	1308,00
-11342,11	1182,00
-11315,43	1183,00
-11288,80	1062,00
-11262,23	1258,00
-11235,73	1155,00
-11209,28	1317,00
-11182,90	1261,00
-11156,57	1233,00
-11130,31	1340,00
-11104,10	1206,00
-11077,96	1304,00
-11051,87	1198,00
-11025,84	1275,00
-10999,87	1255,00
-10973,96	1342,00
-10948,11	1133,00
-10922,31	1160,00
-10896,58	1251,00
-10870,90	1450,00
-10845,28	1128,00
-10819,71	996,00
-10794,20	1196,00
-10768,75	1318,00
-10743,36	1231,00
-10718,02	1171,00
-10692,74	1265,00
-10667,52	1069,00
-10642,35	1232,00
-10617,24	1278,00
-10592,18	1321,00
-10567,18	1062,00
-10542,23	1241,00
-10517,34	1252,00
-10492,51	1283,00
-10467,72	1175,00
-10443,00	1165,00
-10418,32	1273,00
-10393,70	1160,00
-10369,14	1167,00
-10344,63	1226,00
-10320,17	1245,00
-10295,77	1181,00
-10271,42	1224,00
-10247,12	1284,00
-10222,88	1264,00
-10198,68	1082,00
-10174,54	1139,00
-10150,46	1299,00
-10126,42	1247,00
-10102,44	1218,00
-10078,51	1202,00
-10054,63	1198,00
-10030,80	1148,00
-10007,03	1313,00
-9983,30	1162,00
-9959,63	1001,00
-9936,01	1233,00
-9912,44	1232,00
-9888,92	1122,00
-9865,44	1197,00
-9842,02	1259,00
-9818,65	1195,00
-9795,33	1142,00
-9772,06	1178,00
-9748,84	1101,00
-9725,67	1075,00
-9702,55	1114,00
-9679,47	1324,00
-9656,45	1216,00
-9633,47	1018,00
-9610,55	1083,00
-9587,67	1207,00
-9564,84	1471,00
-9542,06	1166,00
-9519,32	1206,00
-9496,64	1145,00
-9474,00	993,00
-9451,41	990,00
-9428,87	1190,00
-9406,37	1157,00
-9383,92	1087,00
-9361,52	1069,00
-9339,17	1135,00
-9316,86	974,00
-9294,60	987,00
-9272,38	1254,00
-9250,21	1092,00
-9228,09	1025,00
-9206,01	977,00
-9183,98	1018,00
-9162,00	1014,00
-9140,06	1029,00
-9118,16	934,00
-9096,31	1124,00
-9074,51	968,00
-9052,75	1277,00
-9031,04	1138,00
-9009,37	911,00
-8987,74	1103,00
-8966,16	1172,00
-8944,63	1088,00
-8923,14	1102,00
-8901,69	1170,00
-8880,29	1043,00
-8858,93	1026,00
-8837,61	1109,00
-8816,34	1073,00
-8795,11	989,00
-8773,92	1128,00
-8752,78	1028,00
-8731,68	1123,00
-8710,62	1150,00
-8689,61	997,00
-8668,63	956,00
-8647,70	1207,00
-8626,82	1011,00
-8605,97	1167,00
-8585,17	1104,00
-8564,41	1027,00
-8543,69	1292,00
-8523,01	1065,00
-8502,37	1310,00
-8481,78	1015,00
-8461,23	827,00
-8440,71	1019,00
-8420,24	971,00
-8399,81	1024,00
-8379,42	996,00
-8359,08	1146,00
-8338,77	1089,00
-8318,50	1198,00
-8298,27	1021,00
-8278,09	1057,00
-8257,94	934,00
-8237,83	1084,00
-8217,76	1099,00
-8197,74	939,00
-8177,75	1067,00
-8157,80	1006,00
-8137,89	1051,00
-8118,02	1096,00
-8098,19	1201,00
-8078,40	1045,00
-8058,65	1005,00
-8038,93	1195,00
-8019,26	1059,00
-7999,62	1096,00
-7980,02	1009,00
-7960,46	1056,00
-7940,94	971,00
-7921,46	1127,00
-7902,01	1021,00
-7882,60	1250,00
-7863,23	1051,00
-7843,90	1030,00
-7824,61	1041,00
-7805,35	1117,00
-7786,13	1055,00
-7766,95	1086,00
-7747,80	1014,00
-7728,69	1204,00
-7709,62	1122,00
-7690,59	1153,00
-7671,59	1056,00
-7652,63	1043,00
-7633,70	1032,00
-7614,81	1202,00
-7595,96	967,00
-7577,15	1072,00
-7558,37	1022,00
-7539,62	1097,00
-7520,91	1080,00
-7502,24	1176,00
-7483,60	1176,00
-7465,00	1095,00
-7446,44	1099,00
-7427,91	996,00
-7409,41	1184,00
-7390,95	1197,00
-7372,53	1101,00
-7354,14	1165,00
-7335,78	1137,00
-7317,46	1156,00
-7299,18	1113,00
-7280,92	1159,00
-7262,71	1274,00
-7244,52	1099,00
-7226,38	1040,00
-7208,26	1132,00
-7190,18	1053,00
-7172,14	1134,00
-7154,12	1181,00
-7136,15	1055,00
-7118,20	1154,00
-7100,29	1133,00
-7082,41	1141,00
-7064,57	997,00
-7046,76	1146,00
-7028,98	989,00
-7011,24	1414,00
-6993,53	960,00
-6975,85	1152,00
-6958,20	1117,00
-6940,59	1172,00
-6923,01	983,00
-6905,46	1179,00
-6887,94	1140,00
-6870,46	1520,00
-6853,01	1209,00
-6835,59	1071,00
-6818,21	1013,00
-6800,85	1220,00
-6783,53	1131,00
-6766,24	1050,00
-6748,98	1119,00
-6731,76	1105,00
-6714,56	1134,00
-6697,40	1048,00
-6680,26	1021,00
-6663,16	1176,00
-6646,09	1293,00
-6629,05	1024,00
-6612,05	1137,00
-6595,07	1086,00
-6578,13	1157,00
-6561,21	1047,00
-6544,33	1101,00
-6527,47	1178,00
-6510,65	1180,00
-6493,86	1153,00
-6477,10	1070,00
-6460,36	1301,00
-6443,66	1140,00
-6426,99	1156,00
-6410,35	1066,00
-6393,74	1211,00
-6377,16	1120,00
-6360,61	1049,00
-6344,09	1028,00
-6327,59	990,00
-6311,13	957,00
-6294,70	1193,00
-6278,29	1164,00
-6261,92	1121,00
-6245,58	1012,00
-6229,26	1170,00
-6212,97	1102,00
-6196,72	1171,00
-6180,49	1281,00
-6164,29	1170,00
-6148,12	1213,00
-6131,98	1206,00
-6115,86	1189,00
-6099,78	1190,00
-6083,72	1145,00
-6067,69	1152,00
-6051,69	1133,00
-6035,72	1145,00
-6019,78	1134,00
-6003,87	1209,00
-5987,98	1180,00
-5972,12	1096,00
-5956,29	1173,00
-5940,49	1037,00
-5924,71	1204,00
-5908,96	1085,00
-5893,24	1206,00
-5877,55	1216,00
-5861,89	1216,00
-5846,25	1114,00
-5830,64	1274,00
-5815,05	1029,00
-5799,50	1175,00
-5783,97	1198,00
-5768,47	1257,00
-5752,99	1324,00
-5737,55	1139,00
-5722,12	1142,00
-5706,73	1163,00
-5691,36	1179,00
-5676,02	1066,00
-5660,71	1265,00
-5645,42	1163,00
-5630,16	1222,00
-5614,92	1239,00
-5599,71	1100,00
-5584,53	1172,00
-5569,37	1068,00
-5554,24	2176,00
-5539,14	1087,00
-5524,06	1187,00
-5509,01	1071,00
-5493,98	1108,00
-5478,98	1177,00
-5464,00	1061,00
-5449,05	1041,00
-5434,13	1291,00
-5419,23	1252,00
-5404,36	1032,00
-5389,51	1204,00
-5374,69	1091,00
-5359,89	1139,00
-5345,12	1144,00
-5330,37	1345,00
-5315,65	1342,00
-5300,95	1255,00
-5286,28	1046,00
-5271,63	1077,00
-5257,01	1275,00
-5242,41	1221,00
-5227,84	1148,00
-5213,29	1169,00
-5198,76	1207,00
-5184,26	1088,00
-5169,79	1194,00
-5155,33	1190,00
-5140,91	1138,00
-5126,51	1163,00
-5112,13	1092,00
-5097,77	1252,00
-5083,44	1253,00
-5069,13	1165,00
-5054,85	1221,00
-5040,59	1113,00
-5026,36	1139,00
-5012,15	1256,00
-4997,96	1078,00
-4983,80	1131,00
-4969,66	1283,00
-4955,54	1150,00
-4941,44	1166,00
-4927,37	1170,00
-4913,33	1123,00
-4899,30	996,00
-4885,30	1020,00
-4871,33	1189,00
-4857,37	1198,00
-4843,44	1254,00
-4829,53	1263,00
-4815,65	1344,00
-4801,79	1058,00
-4787,95	1129,00
-4774,13	1109,00
-4760,34	1185,00
-4746,56	1297,00
-4732,82	1111,00
-4719,09	1170,00
-4705,38	1198,00
-4691,70	1277,00
-4678,04	1150,00
-4664,41	1194,00
-4650,79	1418,00
-4637,20	1210,00
-4623,63	1122,00
-4610,08	1212,00
-4596,56	1265,00
-4583,05	1206,00
-4569,57	1137,00
-4556,11	1306,00
-4542,67	1129,00
-4529,25	1069,00
-4515,86	1242,00
-4502,49	1242,00
-4489,13	1138,00
-4475,80	1200,00
-4462,49	1002,00
-4449,21	1440,00
-4435,94	1136,00
-4422,70	1222,00
-4409,47	1025,00
-4396,27	1232,00
-4383,09	1253,00
-4369,93	1198,00
-4356,79	1238,00
-4343,67	1241,00
-4330,58	1168,00
-4317,50	1107,00
-4304,45	1056,00
-4291,41	1211,00
-4278,40	1284,00
-4265,41	1122,00
-4252,44	1145,00
-4239,49	1094,00
-4226,55	1225,00
-4213,65	1335,00
-4200,76	1260,00
-4187,89	1121,00
-4175,04	1220,00
-4162,21	1208,00
-4149,40	1176,00
-4136,61	1157,00
-4123,85	1175,00
-4111,10	1257,00
-4098,37	1219,00
-4085,66	1239,00
-4072,98	1256,00
-4060,31	1126,00
-4047,66	1329,00
-4035,04	1266,00
-4022,43	1164,00
-4009,84	1382,00
-3997,27	1074,00
-3984,72	1212,00
-3972,19	1244,00
-3959,69	1113,00
-3947,20	1147,00
-3934,73	1305,00
-3922,27	1169,00
-3909,84	1245,00
-3897,43	1297,00
-3885,04	1244,00
-3872,67	1103,00
-3860,31	1222,00
-3847,98	1360,00
-3835,66	1206,00
-3823,36	1280,00
-3811,09	1084,00
-3798,83	1217,00
-3786,59	1307,00
-3774,37	1414,00
-3762,17	1174,00
-3749,98	1173,00
-3737,82	1080,00
-3725,67	1469,00
-3713,55	1140,00
-3701,44	1267,00
-3689,35	1276,00
-3677,28	1336,00
-3665,22	1219,00
-3653,19	1204,00
-3641,17	1154,00
-3629,18	1262,00
-3617,20	1194,00
-3605,24	1236,00
-3593,30	1207,00
-3581,37	1252,00
-3569,47	1280,00
-3557,58	1307,00
-3545,71	1185,00
-3533,86	1298,00
-3522,02	1227,00
-3510,21	1276,00
-3498,41	1221,00
-3486,63	1202,00
-3474,87	1182,00
-3463,12	1181,00
-3451,40	1225,00
-3439,69	1282,00
-3428,00	1366,00
-3416,33	1289,00
-3404,67	1102,00
-3393,03	1370,00
-3381,41	1375,00
-3369,81	1233,00
-3358,22	1219,00
-3346,66	1379,00
-3335,10	1208,00
-3323,57	1207,00
-3312,06	1269,00
-3300,56	1263,00
-3289,08	1073,00
-3277,61	1219,00
-3266,16	1326,00
-3254,73	1335,00
-3243,32	1235,00
-3231,92	1218,00
-3220,55	1186,00
-3209,18	1296,00
-3197,84	1136,00
-3186,51	1068,00
-3175,20	1163,00
-3163,90	1218,00
-3152,63	1202,00
-3141,36	1233,00
-3130,12	1218,00
-3118,89	1346,00
-3107,68	1310,00
-3096,49	1284,00
-3085,31	1317,00
-3074,15	1153,00
-3063,00	1236,00
-3051,87	1357,00
-3040,76	1206,00
-3029,67	1185,00
-3018,59	1491,00
-3007,52	1308,00
-2996,48	1393,00
-2985,44	1140,00
-2974,43	1338,00
-2963,43	1193,00
-2952,45	1105,00
-2941,48	1256,00
-2930,53	1279,00
-2919,60	1181,00
-2908,68	1153,00
-2897,78	1216,00
-2886,89	1379,00
-2876,02	1174,00
-2865,17	1248,00
-2854,33	1130,00
-2843,50	1158,00
-2832,70	1193,00
-2821,90	1233,00
-2811,13	1289,00
-2800,37	1134,00
-2789,62	1345,00
-2778,89	1289,00
-2768,18	1351,00
-2757,48	1295,00
-2746,80	1342,00
-2736,13	1251,00
-2725,48	1251,00
-2714,84	1276,00
-2704,22	1154,00
-2693,61	1169,00
-2683,02	1224,00
-2672,45	1216,00
-2661,89	1335,00
-2651,34	1267,00
-2640,81	1199,00
-2630,30	1315,00
-2619,80	1261,00
-2609,31	1433,00
-2598,84	1098,00
-2588,39	1232,00
-2577,95	1187,00
-2567,52	1063,00
-2557,11	1336,00
-2546,71	1172,00
-2536,33	1324,00
-2525,97	1318,00
-2515,62	1254,00
-2505,28	1210,00
-2494,96	1160,00
-2484,65	1271,00
-2474,36	1489,00
-2464,08	1221,00
-2453,82	1324,00
-2443,57	1338,00
-2433,33	1128,00
-2423,11	1199,00
-2412,91	1224,00
-2402,72	1086,00
-2392,54	1331,00
-2382,38	1238,00
-2372,23	1282,00
-2362,09	6193,00
-2351,97	1065,00
-2341,87	1160,00
-2331,78	1287,00
-2321,70	1288,00
-2311,64	1273,00
-2301,59	1204,00
-2291,55	1154,00
-2281,53	1270,00
-2271,53	1188,00
-2261,53	1371,00
-2251,55	1232,00
-2241,59	1190,00
-2231,64	1300,00
-2221,70	1203,00
-2211,78	1248,00
-2201,87	1220,00
-2191,97	1281,00
-2182,09	1241,00
-2172,22	1389,00
-2162,37	1167,00
-2152,53	1079,00
-2142,70	1085,00
-2132,89	1054,00
-2123,09	1349,00
-2113,30	1316,00
-2103,53	1248,00
-2093,77	1200,00
-2084,02	1056,00
-2074,29	1369,00
-2064,57	1300,00
-2054,86	1262,00
-2045,17	1244,00
-2035,49	1350,00
-2025,82	1179,00
-2016,17	1186,00
-2006,53	1283,00
-1996,91	1257,00
-1987,29	1085,00
-1977,69	1246,00
-1968,11	1181,00
-1958,53	1195,00
-1948,97	1310,00
-1939,42	1095,00
-1929,89	1098,00
-1920,37	1266,00
-1910,86	1275,00
-1901,36	1292,00
-1891,88	1244,00
-1882,41	1278,00
-1872,95	1247,00
-1863,51	1203,00
-1854,08	1269,00
-1844,66	1289,00
-1835,26	1223,00
-1825,86	1221,00
-1816,48	1148,00
-1807,11	1309,00
-1797,76	1393,00
-1788,42	1256,00
-1779,09	1356,00
-1769,77	1225,00
-1760,47	1376,00
-1751,17	1245,00
-1741,89	1256,00
-1732,63	1370,00
-1723,37	1509,00
-1714,13	1393,00
-1704,90	1160,00
-1695,68	1488,00
-1686,48	1180,00
-1677,29	1251,00
-1668,11	1517,00
-1658,94	1244,00
-1649,78	1226,00
-1640,64	1291,00
-1631,51	1298,00
-1622,39	1298,00
-1613,28	1259,00
-1604,19	1440,00
-1595,10	1279,00
-1586,03	1078,00
-1576,97	1270,00
-1567,93	1224,00
-1558,89	1338,00
-1549,87	1297,00
-1540,86	1148,00
-1531,86	1262,00
-1522,87	1087,00
-1513,90	1382,00
-1504,93	1333,00
-1495,98	1322,00
-1487,04	1484,00
-1478,12	1265,00
-1469,20	1188,00
-1460,30	1261,00
-1451,40	1373,00
-1442,52	1185,00
-1433,65	1305,00
-1424,80	1226,00
-1415,95	1216,00
-1407,12	1432,00
-1398,30	1250,00
-1389,48	1216,00
-1380,69	1263,00
-1371,90	1229,00
-1363,12	1239,00
-1354,36	1471,00
-1345,60	1226,00
-1336,86	1310,00
-1328,13	1489,00
-1319,41	1280,00
-1310,70	1192,00
-1302,01	1213,00
-1293,32	1208,00
-1284,65	1270,00
-1275,99	1284,00
-1267,33	1370,00
-1258,69	1317,00
-1250,06	1331,00
-1241,45	1188,00
-1232,84	1358,00
-1224,25	1322,00
-1215,66	1289,00
-1207,09	1265,00
-1198,53	1289,00
-1189,97	1248,00
-1181,43	1204,00
-1172,91	1389,00
-1164,39	1376,00
-1155,88	1171,00
-1147,38	1085,00
-1138,90	1231,00
-1130,43	1189,00
-1121,96	1216,00
-1113,51	1200,00
-1105,07	1251,00
-1096,64	1304,00
-1088,22	1328,00
-1079,81	1343,00
-1071,41	1349,00
-1063,02	1176,00
-1054,65	1299,00
-1046,28	1152,00
-1037,92	1327,00
-1029,58	1185,00
-1021,24	1180,00
-1012,92	1666,00
-1004,61	1238,00
-996,30	1710,00
-988,01	1051,00
-979,73	1257,00
-971,46	1347,00
-963,20	1123,00
-954,95	1112,00
-946,71	1179,00
-938,48	1195,00
-930,26	1329,00
-922,06	1337,00
-913,86	1250,00
-905,67	1142,00
-897,49	1185,00
-889,33	1141,00
-881,17	1375,00
-873,02	1300,00
-864,89	1073,00
-856,76	1191,00
-848,65	1284,00
-840,54	1323,00
-832,45	1317,00
-824,36	1021,00
-816,29	1314,00
-808,22	1350,00
-800,17	1301,00
-792,12	1349,00
-784,09	1459,00
-776,06	1162,00
-768,05	1241,00
-760,04	1142,00
-752,05	1267,00
-744,07	1416,00
-736,09	1382,00
-728,13	1117,00
-720,17	1245,00
-712,23	1163,00
-704,29	1226,00
-696,37	1299,00
-688,45	1190,00
-680,55	1205,00
-672,65	1098,00
-664,77	1159,00
-656,89	1141,00
-649,03	1126,00
-641,17	1266,00
-633,32	1294,00
-625,49	1294,00
-617,66	1261,00
-609,84	1251,00
-602,03	1101,00
-594,23	1195,00
-586,45	1313,00
-578,67	1238,00
-570,90	1113,00
-563,14	1172,00
-555,39	1258,00
-547,65	1390,00
-539,91	1270,00
-532,19	1207,00
-524,48	1240,00
-516,78	1213,00
-509,08	1251,00
-501,40	1225,00
-493,72	1230,00
-486,06	1129,00
-478,40	1468,00
-470,76	1206,00
-463,12	1268,00
-455,49	1136,00
-447,87	1169,00
-440,26	1182,00
-432,66	1161,00
-425,07	1332,00
-417,49	1206,00
-409,92	1157,00
-402,35	1128,00
-394,80	1108,00
-387,25	1325,00
-379,72	1332,00
-372,19	1169,00
-364,67	1275,00
-357,17	1223,00
-349,67	1226,00
-342,18	1187,00
-334,69	1298,00
-327,22	1253,00
-319,76	1160,00
-312,30	1307,00
-304,86	1372,00
-297,42	1292,00
-290,00	1239,00
-282,58	1162,00
-275,17	1327,00
-267,77	1281,00
-260,37	1226,00
-252,99	1354,00
-245,62	1319,00
-238,25	1203,00
-230,90	1249,00
-223,55	1368,00
-216,21	1312,00
-208,88	1387,00
-201,56	1293,00
-194,25	1225,00
-186,94	1244,00
-179,65	1309,00
-172,36	1348,00
-165,08	1243,00
-157,81	1506,00
-150,55	1423,00
-143,30	1499,00
-136,06	1467,00
-128,82	1438,00
-121,60	1418,00
-114,38	1479,00
-107,17	1619,00
-99,97	1672,00
-92,78	1630,00
-85,60	1709,00
-78,42	1783,00
-71,25	1969,00
-64,10	1882,00
-56,95	2061,00
-49,81	2272,00
-42,67	2695,00
-35,55	2858,00
-28,43	3415,00
-21,33	4879,00
-14,23	14051,00
-7,14	57775,00
-0,05	57564,00
7,02	57281,00
14,09	43715,00
21,14	12313,00
28,19	5719,00
35,23	4172,00
42,27	3400,00
49,29	2998,00
56,31	2822,00
63,32	2633,00
70,32	2248,00
77,31	2003,00
84,29	1892,00
91,27	2079,00
98,23	1986,00
105,19	1793,00
112,14	1947,00
119,09	2338,00
126,02	3059,00
132,95	3413,00
139,87	3445,00
146,78	3645,00
153,68	3446,00
160,58	3467,00
167,46	3359,00
174,34	3489,00
181,21	3473,00
188,08	3473,00
194,93	3736,00
201,78	3447,00
208,62	3396,00
215,45	3456,00
222,27	3502,00
229,09	3738,00
235,90	3471,00
242,70	3460,00
249,49	3650,00
256,27	3462,00
263,05	3515,00
269,82	3358,00
276,58	3559,00
283,33	3385,00
290,08	3426,00
296,82	3385,00
303,55	3362,00
310,27	3337,00
316,98	3425,00
323,69	3384,00
330,39	3235,00
337,08	3452,00
343,76	3386,00
350,44	3401,00
357,11	3472,00
363,77	3383,00
370,42	3270,00
377,07	3511,00
383,71	3399,00
390,34	3424,00
396,96	3416,00
403,58	3354,00
410,19	3438,00
416,79	3568,00
423,38	3566,00
429,97	3533,00
436,55	3267,00
443,12	3452,00
449,68	3380,00
456,24	3286,00
462,79	3374,00
469,33	3408,00
475,86	3348,00
482,39	3333,00
488,91	3468,00
495,42	3223,00
501,93	3428,00
508,42	3178,00
514,91	3515,00
521,40	3249,00
527,87	3293,00
534,34	3199,00
540,80	3427,00
547,25	3438,00
553,70	3453,00
560,14	3344,00
566,57	3394,00
573,00	3384,00
579,41	3313,00
585,83	3368,00
592,23	3310,00
598,62	3324,00
605,01	3209,00
611,40	3441,00
617,77	3419,00
624,14	3356,00
630,50	3307,00
636,85	3345,00
643,20	3298,00
649,54	3214,00
655,87	3299,00
662,20	3483,00
668,52	3313,00
674,83	3394,00
681,13	3354,00
687,43	3281,00
693,72	3331,00
700,00	3174,00
706,28	3274,00
712,55	3398,00
718,81	3386,00
725,07	3207,00
731,32	3264,00
737,56	3290,00
743,79	3351,00
750,02	3411,00
756,24	3279,00
762,46	3234,00
768,67	3769,00
774,87	3407,00
781,06	3388,00
787,25	3368,00
793,43	3414,00
799,60	3224,00
805,77	3548,00
811,93	3289,00
818,08	3380,00
824,23	3387,00
830,37	3722,00
836,50	3376,00
842,63	3386,00
848,75	3431,00
854,87	3428,00
860,97	3409,00
867,07	3412,00
873,17	3420,00
879,25	3340,00
885,33	3391,00
891,41	3351,00
897,47	3490,00
903,53	3400,00
909,59	3540,00
915,63	3484,00
921,67	3448,00
927,71	3496,00
933,74	3490,00
939,76	3335,00
945,77	3314,00
951,78	3375,00
957,78	3418,00
963,78	3521,00
969,77	3515,00
975,75	3463,00
981,72	3318,00
987,69	5248,00
993,66	3500,00
999,61	3580,00
1005,56	3500,00
1011,51	3471,00
1017,44	3400,00
1023,37	3561,00
1029,30	3571,00
1035,22	3521,00
1041,13	3482,00
1047,03	3500,00
1052,93	3620,00
1058,83	3896,00
1064,71	4151,00
1070,59	3891,00
1076,47	3660,00
1082,33	3563,00
1088,20	3722,00
1094,05	3637,00
1099,90	3463,00
1105,74	3608,00
1111,58	3660,00
1117,41	3678,00
1123,23	3834,00
1129,05	4263,00
1134,86	4050,00
1140,67	3845,00
1146,47	3724,00
1152,26	3650,00
1158,05	3315,00
1163,83	3630,00
1169,60	3742,00
1175,37	3752,00
1181,13	3606,00
1186,89	3652,00
1192,64	3539,00
1198,38	3798,00
1204,12	3604,00
1209,85	3712,00
1215,58	3741,00
1221,30	3748,00
1227,02	3651,00
1232,72	3660,00
1238,43	3471,00
1244,12	3649,00
1249,81	3563,00
1255,50	3709,00
1261,17	3708,00
1266,85	3764,00
1272,51	3814,00
1278,17	3754,00
1283,83	3675,00
1289,47	4164,00
1295,12	4516,00
1300,75	4382,00
1306,38	4198,00
1312,01	3860,00
1317,63	3831,00
1323,24	3723,00
1328,85	3873,00
1334,45	3699,00
1340,04	3702,00
1345,63	3544,00
1351,22	3952,00
1356,80	3775,00
1362,37	3782,00
1367,93	3616,00
1373,49	3769,00
1379,05	3678,00
1384,60	3656,00
1390,14	3840,00
1395,68	3647,00
1401,21	3742,00
1406,74	3887,00
1412,26	3999,00
1417,77	4188,00
1423,28	3878,00
1428,78	4206,00
1434,28	4390,00
1439,77	4499,00
1445,26	4540,00
1450,74	4480,00
1456,22	4372,00
1461,68	4257,00
1467,15	4144,00
1472,61	4004,00
1478,06	4097,00
1483,51	3954,00
1488,95	3752,00
1494,38	3850,00
1499,81	3599,00
1505,24	3569,00
1510,65	3788,00
1516,07	3747,00
1521,48	3683,00
1526,88	3416,00
1532,27	3610,00
1537,67	3507,00
1543,05	3679,00
1548,43	3409,00
1553,81	3531,00
1559,18	3384,00
1564,54	3544,00
1569,90	3544,00
1575,25	3411,00
1580,60	3338,00
1585,94	3573,00
1591,28	3542,00
1596,61	3477,00
1601,93	3448,00
1607,25	3687,00
1612,57	3548,00
1617,88	3525,00
1623,18	3436,00
1628,48	3405,00
1633,77	3446,00
1639,06	3513,00
1644,34	3335,00
1649,62	3295,00
1654,89	3543,00
1660,16	3307,00
1665,42	3477,00
1670,67	3334,00
1675,92	3476,00
1681,17	3321,00
1686,41	3370,00
1691,64	3610,00
1696,87	3355,00
1702,10	3261,00
1707,32	3389,00
1712,53	3432,00
1717,74	3403,00
1722,94	3415,00
1728,14	3416,00
1733,33	3246,00
1738,52	3288,00
1743,70	3371,00
1748,88	3267,00
1754,05	3239,00
1759,22	3227,00
1764,38	4873,00
1769,53	3153,00
1774,69	3477,00
1779,83	3213,00
1784,97	3122,00
1790,11	3266,00
1795,24	3270,00
1800,36	3365,00
1805,48	3222,00
1810,60	3222,00
1815,71	3164,00
1820,82	3138,00
1825,92	3167,00
1831,01	3144,00
1836,10	3102,00
1841,19	3135,00
1846,26	3087,00
1851,34	3200,00
1856,41	3351,00
1861,47	3265,00
1866,53	3247,00
1871,59	3168,00
1876,64	3192,00
1881,68	3216,00
1886,72	3252,00
1891,76	3118,00
1896,79	3182,00
1901,81	2907,00
1906,83	3110,00
1911,85	3081,00
1916,86	3064,00
1921,86	3039,00
1926,86	3097,00
1931,86	3085,00
1936,85	3013,00
1941,83	2979,00
1946,81	3009,00
1951,79	3100,00
1956,76	2916,00
1961,72	2833,00
1966,68	2870,00
1971,64	2837,00
1976,59	2928,00
1981,54	2882,00
1986,48	3016,00
1991,42	2859,00
1996,35	3219,00
2001,27	2951,00
2006,20	2890,00
2011,11	2903,00
2016,03	3010,00
2020,93	2822,00
2025,84	2905,00
2030,73	2820,00
2035,63	2713,00
2040,52	2925,00
2045,40	2779,00
2050,28	2895,00
2055,15	2993,00
2060,02	2793,00
2064,89	2934,00
2069,75	2968,00
2074,60	2904,00
2079,46	2904,00
2084,30	2743,00
2089,14	2756,00
2093,98	2882,00
2098,81	2925,00
2103,64	2889,00
2108,46	2838,00
2113,28	2742,00
2118,09	2872,00
2122,90	2823,00
2127,70	2749,00
2132,50	2868,00
2137,30	2763,00
2142,09	2665,00
2146,87	2669,00
2151,66	2804,00
2156,43	2821,00
2161,20	2777,00
2165,97	2881,00
2170,73	2700,00
2175,49	2809,00
2180,24	2672,00
2184,99	2798,00
2189,74	2891,00
2194,48	2735,00
2199,21	2842,00
2203,94	2682,00
2208,67	2668,00
2213,39	2584,00
2218,11	2698,00
2222,82	2725,00
2227,53	2538,00
2232,23	2761,00
2236,93	2682,00
2241,63	2777,00
2246,32	2643,00
2251,00	2638,00
2255,68	2667,00
2260,36	2621,00
2265,03	2698,00
2269,70	2845,00
2274,36	2555,00
2279,02	2582,00
2283,68	2743,00
2288,33	2623,00
2292,97	2710,00
2297,61	2650,00
2302,25	2578,00
2306,88	2583,00
2311,51	2455,00
2316,14	2532,00
2320,75	2572,00
2325,37	2412,00
2329,98	2605,00
2334,59	2430,00
2339,19	2501,00
2343,79	2371,00
2348,38	2435,00
2352,97	2486,00
2357,55	2653,00
2362,13	2509,00
2366,71	2382,00
2371,28	2474,00
2375,85	2525,00
2380,41	2584,00
2384,97	2460,00
2389,52	2490,00
2394,07	2477,00
2398,62	2601,00
2403,16	2342,00
2407,70	2312,00
2412,23	2547,00
2416,76	2497,00
2421,29	2379,00
2425,81	2458,00
2430,32	2528,00
2434,84	2267,00
2439,34	2328,00
2443,85	2433,00
2448,35	2326,00
2452,84	2232,00
2457,33	2383,00
2461,82	2251,00
2466,30	2354,00
2470,78	2353,00
2475,25	2252,00
2479,72	2279,00
2484,19	2328,00
2488,65	2320,00
2493,11	2203,00
2497,56	2362,00
2502,01	2107,00
2506,46	2348,00
2510,90	2199,00
2515,34	2272,00
2519,77	2271,00
2524,20	2189,00
2528,62	2184,00
2533,04	2311,00
2537,46	2108,00
2541,87	2061,00
2546,28	2084,00
2550,68	2198,00
2555,08	2103,00
2559,48	2175,00
2563,87	2141,00
2568,26	2073,00
2572,64	2128,00
2577,02	2216,00
2581,40	1912,00
2585,77	2190,00
2590,14	2032,00
2594,50	1992,00
2598,86	2108,00
2603,22	2060,00
2607,57	2090,00
2611,92	2173,00
2616,26	2116,00
2620,60	2092,00
2624,94	2064,00
2629,27	2240,00
2633,60	1986,00
2637,92	2139,00
2642,24	2180,00
2646,56	2093,00
2650,87	2007,00
2655,18	2115,00
2659,48	1929,00
2663,78	2036,00
2668,08	1994,00
2672,37	2037,00
2676,66	2126,00
2680,95	2033,00
2685,23	2064,00
2689,50	2087,00
2693,78	2019,00
2698,05	1901,00
2702,31	2039,00
2706,57	2101,00
2710,83	2150,00
2715,08	2088,00
2719,33	2376,00
2723,58	2134,00
2727,82	2141,00
2732,06	2150,00
2736,29	2030,00
2740,53	2185,00
2744,75	2020,00
2748,97	2227,00
2753,19	2183,00
2757,41	2034,00
2761,62	2158,00
2765,83	2184,00
2770,03	1892,00
2774,23	2004,00
2778,43	2053,00
2782,62	2007,00
2786,81	1931,00
2791,00	2029,00
2795,18	2101,00
2799,35	2055,00
2803,53	2107,00
2807,70	2116,00
2811,86	1982,00
2816,03	2197,00
2820,19	2108,00
2824,34	2078,00
2828,49	2063,00
2832,64	2279,00
2836,78	2411,00
2840,92	2609,00
2845,06	2807,00
2849,19	2910,00
2853,32	2884,00
2857,45	2996,00
2861,57	2929,00
2865,69	2825,00
2869,80	2641,00
2873,91	2782,00
2878,02	2947,00
2882,12	3094,00
2886,22	2905,00
2890,32	3008,00
2894,41	2773,00
2898,50	2663,00
2902,58	2584,00
2906,67	2717,00
2910,74	2481,00
2914,82	2435,00
2918,89	2435,00
2922,96	2241,00
2927,02	2230,00
2931,08	2156,00
2935,13	2010,00
2939,19	2227,00
2943,24	1950,00
2947,28	2107,00
2951,32	1801,00
2955,36	1830,00
2959,40	2051,00
2963,43	1987,00
2967,46	1805,00
2971,48	1739,00
2975,50	1816,00
2979,52	1835,00
2983,53	1899,00
2987,54	1780,00
2991,55	1743,00
2995,55	1689,00
2999,55	1627,00
3003,54	1640,00
3007,54	1753,00
3011,53	1721,00
3015,51	1675,00
3019,49	1830,00
3023,47	1547,00
3027,45	1589,00
3031,42	1699,00
3035,39	1516,00
3039,35	1575,00
3043,31	1658,00
3047,27	1609,00
3051,22	1716,00
3055,17	1525,00
3059,12	1450,00
3063,06	1639,00
3067,00	1460,00
3070,94	1598,00
3074,87	1673,00
3078,80	1528,00
3082,73	1519,00
3086,65	1580,00
3090,57	1544,00
3094,49	1535,00
3098,40	1543,00
3102,31	1508,00
3106,22	1687,00
3110,12	1547,00
3114,02	1516,00
3117,92	1618,00
3121,81	1378,00
3125,70	1424,00
3129,58	1525,00
3133,47	1400,00
3137,34	1469,00
3141,22	1554,00
3145,09	1680,00
3148,96	1385,00
3152,83	1440,00
3156,69	1478,00
3160,55	1384,00
3164,40	1532,00
3168,26	1437,00
3172,10	1636,00
3175,95	1529,00
3179,79	1444,00
3183,63	1477,00
3187,47	1448,00
3191,30	1404,00
3195,13	1596,00
3198,95	1343,00
3202,78	1444,00
3206,60	1335,00
3210,41	1306,00
3214,23	1312,00
3218,03	1384,00
3221,84	1449,00
3225,64	1397,00
3229,44	1374,00
3233,24	1432,00
3237,03	1411,00
3240,82	1312,00
3244,61	1320,00
3248,39	1398,00
3252,17	1456,00
3255,95	1504,00
3259,72	1476,00
3263,49	1631,00
3267,26	1258,00
3271,03	1285,00
3274,79	1363,00
3278,54	1355,00
3282,30	1272,00
3286,05	1313,00
3289,80	1358,00
3293,54	1422,00
3297,29	1398,00
3301,02	1380,00
3304,76	1334,00
3308,49	1418,00
3312,22	1305,00
3315,95	1424,00
3319,67	1291,00
3323,39	1528,00
3327,10	1460,00
3330,82	1271,00
3334,53	1301,00
3338,24	1331,00
3341,94	1363,00
3345,64	1203,00
3349,34	1265,00
3353,03	1315,00
3356,72	1258,00
3360,41	1415,00
3364,10	1319,00
3367,78	1187,00
3371,46	1387,00
3375,13	1295,00
3378,81	1326,00
3382,48	1295,00
3386,14	1474,00
3389,81	1341,00
3393,47	1216,00
3397,12	1469,00
3400,78	1334,00
3404,43	1327,00
3408,08	1328,00
3411,72	1313,00
3415,36	1300,00
3419,00	1236,00
3422,64	1293,00
3426,27	1245,00
3429,90	1247,00
3433,53	1268,00
3437,15	1256,00
3440,77	1161,00
3444,39	1212,00
3448,00	1325,00
3451,62	1289,00
3455,22	1261,00
3458,83	1272,00
3462,43	1236,00
3466,03	1343,00
3469,63	1333,00
3473,22	1302,00
3476,81	1201,00
3480,40	1360,00
3483,99	1292,00
3487,57	1376,00
3491,15	1155,00
3494,72	1124,00
3498,29	1257,00
3501,86	1188,00
3505,43	1267,00
3508,99	1283,00
3512,56	1214,00
3516,11	1339,00
3519,67	1270,00
3523,22	1268,00
3526,77	1268,00
3530,32	1295,00
3533,86	1219,00
3537,40	1317,00
3540,94	1296,00
3544,47	1198,00
3548,00	1199,00
3551,53	1351,00
3555,06	1179,00
3558,58	1351,00
3562,10	1226,00
3565,62	1166,00
3569,13	1298,00
3572,64	1278,00
3576,15	1065,00
3579,66	1276,00
3583,16	1292,00
3586,66	1111,00
3590,16	1183,00
3593,65	1140,00
3597,14	1102,00
3600,63	1114,00
3604,11	1371,00
3607,60	1162,00
3611,08	1206,00
3614,55	1240,00
3618,03	1044,00
3621,50	1228,00
3624,97	1204,00
3628,43	1351,00
3631,90	1232,00
3635,36	1060,00
3638,81	1094,00
3642,27	1296,00
3645,72	1178,00
3649,17	1233,00
3652,61	1100,00
3656,06	1109,00
3659,50	1126,00
3662,93	1174,00
3666,37	1193,00
3669,80	1328,00
3673,23	1151,00
3676,65	1298,00
3680,08	1265,00
3683,50	1152,00
3686,92	1175,00
3690,33	1076,00
3693,74	1128,00
3697,15	996,00
3700,56	1140,00
3703,96	1153,00
3707,36	1049,00
3710,76	1033,00
3714,16	1050,00
3717,55	966,00
3720,94	1208,00
3724,33	1110,00
3727,71	1197,00
3731,10	1028,00
3734,48	981,00
3737,85	955,00
3741,23	1080,00
3744,60	1066,00
3747,97	973,00
3751,33	977,00
3754,69	1056,00
3758,05	1054,00
3761,41	962,00
3764,77	951,00
3768,12	927,00
3771,47	925,00
3774,82	1073,00
3778,16	-16,00
3781,50	21,00
3784,84	9,00
3788,18	14,00
>>>>>End Processed Spectral Data<<<<<
