SpectraSuite Data File
++++++++++++++++++++++++++++++++++++
Date: Mon Mar 09 15:12:56 ICT 2026
User: Administrator
Dark Spectrum Present: Yes
Reference Spectrum Present: No
Number of Sampled Component Spectra: 1
Spectrometers: MAYP113682
Integration Time (usec): 3000000 (MAYP113682)
Spectra Averaged: 1 (MAYP113682)
Boxcar Smoothing: 0 (MAYP113682)
Correct for Electrical Dark: No (MAYP113682)
Strobe/Lamp Enabled: No (MAYP113682)
Correct for Detector Non-linearity: No (MAYP113682)
Correct for Stray Light: No (MAYP113682)
Number of Pixels in Processed Spectrum: 2068
>>>>>Begin Processed Spectral Data<<<<<
-37534,58	0,00
-37414,56	0,00
-37295,11	-7,00
-37176,24	7,00
-37057,95	202,00
-36940,22	181,00
-36823,05	128,00
-36706,45	193,00
-36590,40	218,00
-36474,90	178,00
-36359,95	136,00
-36245,55	268,00
-36131,68	111,00
-36018,35	180,00
-35905,55	121,00
-35793,29	239,00
-35681,54	138,00
-35570,32	130,00
-35459,62	185,00
-35349,43	186,00
-35239,75	245,00
-35130,58	113,00
-35021,91	145,00
-34913,74	219,00
-34806,07	148,00
-34698,89	218,00
-34592,20	191,00
-34486,00	194,00
-34380,28	201,00
-34275,04	234,00
-34170,27	189,00
-34065,98	273,00
-33962,16	155,00
-33858,81	148,00
-33755,92	212,00
-33653,49	230,00
-33551,52	234,00
-33450,01	182,00
-33348,94	182,00
-33248,33	299,00
-33148,16	153,00
-33048,43	214,00
-32949,14	201,00
-32850,29	219,00
-32751,87	148,00
-32653,89	252,00
-32556,33	236,00
-32459,20	275,00
-32362,49	231,00
-32266,19	205,00
-32170,32	193,00
-32074,86	335,00
-31979,82	184,00
-31885,18	265,00
-31790,95	177,00
-31697,12	224,00
-31603,69	169,00
-31510,67	190,00
-31418,04	189,00
-31325,80	267,00
-31233,95	209,00
-31142,49	120,00
-31051,42	194,00
-30960,73	149,00
-30870,43	127,00
-30780,50	188,00
-30690,95	149,00
-30601,77	245,00
-30512,97	170,00
-30424,53	229,00
-30336,46	126,00
-30248,76	181,00
-30161,42	199,00
-30074,44	63,00
-29987,81	261,00
-29901,55	158,00
-29815,63	173,00
-29730,07	204,00
-29644,86	191,00
-29560,00	237,00
-29475,48	241,00
-29391,30	176,00
-29307,47	188,00
-29223,97	175,00
-29140,81	158,00
-29057,99	185,00
-28975,50	272,00
-28893,34	139,00
-28811,51	222,00
-28730,00	297,00
-28648,82	159,00
-28567,97	196,00
-28487,43	182,00
-28407,21	284,00
-28327,32	125,00
-28247,73	155,00
-28168,46	160,00
-28089,50	156,00
-28010,85	56,00
-27932,51	106,00
-27854,48	97,00
-27776,75	236,00
-27699,32	125,00
-27622,19	160,00
-27545,37	241,00
-27468,84	163,00
-27392,60	190,00
-27316,66	83,00
-27241,01	189,00
-27165,66	166,00
-27090,59	158,00
-27015,81	184,00
-26941,31	245,00
-26867,10	205,00
-26793,17	131,00
-26719,52	161,00
-26646,15	284,00
-26573,06	163,00
-26500,24	162,00
-26427,70	355,00
-26355,43	158,00
-26283,43	262,00
-26211,71	270,00
-26140,25	144,00
-26069,06	364,00
-25998,13	207,00
-25927,46	207,00
-25857,06	150,00
-25786,92	156,00
-25717,04	238,00
-25647,42	170,00
-25578,05	84,00
-25508,94	267,00
-25440,09	228,00
-25371,48	172,00
-25303,13	286,00
-25235,02	208,00
-25167,17	269,00
-25099,56	260,00
-25032,19	230,00
-24965,07	191,00
-24898,20	153,00
-24831,56	143,00
-24765,17	281,00
-24699,01	66,00
-24633,10	255,00
-24567,41	185,00
-24501,97	278,00
-24436,75	237,00
-24371,77	138,00
-24307,03	240,00
-24242,51	188,00
-24178,22	250,00
-24114,16	73,00
-24050,32	327,00
-23986,71	129,00
-23923,32	115,00
-23860,16	341,00
-23797,22	177,00
-23734,50	233,00
-23672,00	90,00
-23609,71	194,00
-23547,65	209,00
-23485,80	107,00
-23424,16	163,00
-23362,74	218,00
-23301,53	133,00
-23240,54	139,00
-23179,75	199,00
-23119,17	274,00
-23058,80	110,00
-22998,64	262,00
-22938,68	74,00
-22878,93	176,00
-22819,39	164,00
-22760,04	195,00
-22700,90	253,00
-22641,96	191,00
-22583,22	104,00
-22524,68	297,00
-22466,33	268,00
-22408,19	157,00
-22350,23	231,00
-22292,48	268,00
-22234,92	320,00
-22177,55	284,00
-22120,37	168,00
-22063,38	177,00
-22006,58	266,00
-21949,98	206,00
-21893,56	167,00
-21837,33	157,00
-21781,28	262,00
-21725,42	145,00
-21669,74	181,00
-21614,25	254,00
-21558,94	306,00
-21503,81	285,00
-21448,86	84,00
-21394,10	160,00
-21339,51	177,00
-21285,10	270,00
-21230,86	194,00
-21176,81	263,00
-21122,93	294,00
-21069,22	220,00
-21015,69	112,00
-20962,33	205,00
-20909,14	255,00
-20856,13	56,00
-20803,28	257,00
-20750,61	239,00
-20698,10	167,00
-20645,76	235,00
-20593,59	241,00
-20541,59	151,00
-20489,75	241,00
-20438,07	164,00
-20386,56	250,00
-20335,22	200,00
-20284,03	222,00
-20233,01	267,00
-20182,15	158,00
-20131,45	192,00
-20080,91	118,00
-20030,52	132,00
-19980,30	152,00
-19930,23	71,00
-19880,32	203,00
-19830,56	155,00
-19780,96	180,00
-19731,52	245,00
-19682,23	186,00
-19633,09	153,00
-19584,10	268,00
-19535,26	258,00
-19486,58	165,00
-19438,04	243,00
-19389,66	233,00
-19341,42	152,00
-19293,33	230,00
-19245,39	196,00
-19197,60	244,00
-19149,95	255,00
-19102,45	137,00
-19055,09	142,00
-19007,87	269,00
-18960,80	259,00
-18913,87	313,00
-18867,09	189,00
-18820,44	264,00
-18773,94	279,00
-18727,57	227,00
-18681,35	301,00
-18635,26	211,00
-18589,31	188,00
-18543,50	233,00
-18497,83	177,00
-18452,29	200,00
-18406,89	205,00
-18361,63	307,00
-18316,50	220,00
-18271,50	168,00
-18226,63	234,00
-18181,90	164,00
-18137,30	204,00
-18092,84	180,00
-18048,50	195,00
-18004,29	10,00
-17960,22	145,00
-17916,27	249,00
-17872,45	169,00
-17828,76	98,00
-17785,20	209,00
-17741,77	139,00
-17698,46	190,00
-17655,28	302,00
-17612,22	156,00
-17569,29	245,00
-17526,48	111,00
-17483,79	152,00
-17441,23	184,00
-17398,79	220,00
-17356,48	232,00
-17314,28	274,00
-17272,21	183,00
-17230,26	140,00
-17188,42	135,00
-17146,71	249,00
-17105,12	242,00
-17063,64	144,00
-17022,28	179,00
-16981,04	202,00
-16939,92	271,00
-16898,91	135,00
-16858,02	171,00
-16817,25	188,00
-16776,59	246,00
-16736,04	201,00
-16695,61	167,00
-16655,29	202,00
-16615,09	263,00
-16574,99	117,00
-16535,01	296,00
-16495,15	146,00
-16455,39	181,00
-16415,74	111,00
-16376,21	179,00
-16336,78	169,00
-16297,46	140,00
-16258,26	154,00
-16219,16	130,00
-16180,17	278,00
-16141,28	215,00
-16102,51	184,00
-16063,84	237,00
-16025,27	147,00
-15986,82	173,00
-15948,46	138,00
-15910,22	291,00
-15872,07	185,00
-15834,04	199,00
-15796,10	283,00
-15758,27	289,00
-15720,54	119,00
-15682,91	183,00
-15645,39	250,00
-15607,97	163,00
-15570,64	348,00
-15533,42	211,00
-15496,30	207,00
-15459,28	228,00
-15422,36	235,00
-15385,54	280,00
-15348,82	103,00
-15312,19	179,00
-15275,66	153,00
-15239,23	203,00
-15202,90	259,00
-15166,67	174,00
-15130,53	235,00
-15094,48	125,00
-15058,54	141,00
-15022,68	140,00
-14986,93	245,00
-14951,26	212,00
-14915,69	190,00
-14880,22	229,00
-14844,84	279,00
-14809,55	157,00
-14774,35	220,00
-14739,25	265,00
-14704,24	218,00
-14669,32	150,00
-14634,49	107,00
-14599,75	238,00
-14565,10	85,00
-14530,55	261,00
-14496,08	245,00
-14461,70	220,00
-14427,41	193,00
-14393,21	218,00
-14359,10	206,00
-14325,07	88,00
-14291,14	199,00
-14257,29	153,00
-14223,52	123,00
-14189,85	348,00
-14156,26	173,00
-14122,76	215,00
-14089,34	194,00
-14056,01	235,00
-14022,76	201,00
-13989,60	131,00
-13956,52	174,00
-13923,53	131,00
-13890,62	251,00
-13857,79	78,00
-13825,05	246,00
-13792,39	119,00
-13759,81	227,00
-13727,31	257,00
-13694,90	297,00
-13662,57	141,00
-13630,31	176,00
-13598,14	175,00
-13566,05	236,00
-13534,05	268,00
-13502,12	237,00
-13470,27	258,00
-13438,50	179,00
-13406,80	116,00
-13375,19	184,00
-13343,66	210,00
-13312,20	180,00
-13280,83	248,00
-13249,53	197,00
-13218,30	129,00
-13187,16	219,00
-13156,09	299,00
-13125,10	138,00
-13094,18	254,00
-13063,34	247,00
-13032,58	275,00
-13001,89	103,00
-12971,28	156,00
-12940,74	182,00
-12910,27	108,00
-12879,88	198,00
-12849,57	163,00
-12819,33	197,00
-12789,16	87,00
-12759,06	237,00
-12729,04	186,00
-12699,09	-911,00
-12669,21	240,00
-12639,41	164,00
-12609,68	91,00
-12580,02	266,00
-12550,43	137,00
-12520,91	159,00
-12491,46	272,00
-12462,08	194,00
-12432,77	199,00
-12403,54	120,00
-12374,37	158,00
-12345,27	251,00
-12316,24	250,00
-12287,29	252,00
-12258,40	162,00
-12229,57	183,00
-12200,82	248,00
-12172,14	250,00
-12143,52	219,00
-12114,97	217,00
-12086,49	224,00
-12058,07	50,00
-12029,73	123,00
-12001,44	205,00
-11973,23	173,00
-11945,08	141,00
-11917,00	277,00
-11888,98	230,00
-11861,03	214,00
-11833,15	136,00
-11805,32	263,00
-11777,57	221,00
-11749,88	148,00
-11722,25	229,00
-11694,69	194,00
-11667,19	133,00
-11639,75	211,00
-11612,38	135,00
-11585,07	186,00
-11557,83	186,00
-11530,65	45,00
-11503,53	120,00
-11476,47	151,00
-11449,48	96,00
-11422,54	11,00
-11395,67	221,00
-11368,86	223,00
-11342,11	210,00
-11315,43	232,00
-11288,80	118,00
-11262,23	309,00
-11235,73	171,00
-11209,28	177,00
-11182,90	208,00
-11156,57	101,00
-11130,31	217,00
-11104,10	254,00
-11077,96	280,00
-11051,87	192,00
-11025,84	181,00
-10999,87	232,00
-10973,96	189,00
-10948,11	157,00
-10922,31	86,00
-10896,58	241,00
-10870,90	298,00
-10845,28	109,00
-10819,71	233,00
-10794,20	355,00
-10768,75	127,00
-10743,36	147,00
-10718,02	82,00
-10692,74	161,00
-10667,52	222,00
-10642,35	185,00
-10617,24	252,00
-10592,18	213,00
-10567,18	181,00
-10542,23	248,00
-10517,34	169,00
-10492,51	286,00
-10467,72	132,00
-10443,00	167,00
-10418,32	200,00
-10393,70	233,00
-10369,14	278,00
-10344,63	218,00
-10320,17	270,00
-10295,77	225,00
-10271,42	207,00
-10247,12	220,00
-10222,88	205,00
-10198,68	136,00
-10174,54	295,00
-10150,46	210,00
-10126,42	158,00
-10102,44	308,00
-10078,51	90,00
-10054,63	164,00
-10030,80	100,00
-10007,03	281,00
-9983,30	307,00
-9959,63	276,00
-9936,01	204,00
-9912,44	162,00
-9888,92	250,00
-9865,44	276,00
-9842,02	192,00
-9818,65	277,00
-9795,33	132,00
-9772,06	189,00
-9748,84	182,00
-9725,67	162,00
-9702,55	182,00
-9679,47	121,00
-9656,45	288,00
-9633,47	206,00
-9610,55	133,00
-9587,67	236,00
-9564,84	278,00
-9542,06	102,00
-9519,32	152,00
-9496,64	235,00
-9474,00	201,00
-9451,41	168,00
-9428,87	202,00
-9406,37	112,00
-9383,92	-66,00
-9361,52	-128,00
-9339,17	-6,00
-9316,86	51,00
-9294,60	42,00
-9272,38	165,00
-9250,21	284,00
-9228,09	236,00
-9206,01	260,00
-9183,98	28,00
-9162,00	32,00
-9140,06	22,00
-9118,16	-35,00
-9096,31	179,00
-9074,51	123,00
-9052,75	232,00
-9031,04	191,00
-9009,37	117,00
-8987,74	119,00
-8966,16	17,00
-8944,63	20,00
-8923,14	-49,00
-8901,69	8,00
-8880,29	92,00
-8858,93	223,00
-8837,61	193,00
-8816,34	235,00
-8795,11	275,00
-8773,92	273,00
-8752,78	199,00
-8731,68	133,00
-8710,62	222,00
-8689,61	107,00
-8668,63	346,00
-8647,70	422,00
-8626,82	374,00
-8605,97	423,00
-8585,17	230,00
-8564,41	142,00
-8543,69	182,00
-8523,01	51,00
-8502,37	92,00
-8481,78	139,00
-8461,23	256,00
-8440,71	281,00
-8420,24	283,00
-8399,81	384,00
-8379,42	250,00
-8359,08	224,00
-8338,77	252,00
-8318,50	296,00
-8298,27	188,00
-8278,09	257,00
-8257,94	414,00
-8237,83	426,00
-8217,76	374,00
-8197,74	347,00
-8177,75	392,00
-8157,80	297,00
-8137,89	241,00
-8118,02	358,00
-8098,19	426,00
-8078,40	335,00
-8058,65	368,00
-8038,93	304,00
-8019,26	427,00
-7999,62	403,00
-7980,02	279,00
-7960,46	334,00
-7940,94	397,00
-7921,46	352,00
-7902,01	304,00
-7882,60	266,00
-7863,23	344,00
-7843,90	282,00
-7824,61	280,00
-7805,35	431,00
-7786,13	295,00
-7766,95	373,00
-7747,80	336,00
-7728,69	410,00
-7709,62	374,00
-7690,59	337,00
-7671,59	359,00
-7652,63	358,00
-7633,70	399,00
-7614,81	344,00
-7595,96	445,00
-7577,15	346,00
-7558,37	399,00
-7539,62	308,00
-7520,91	366,00
-7502,24	333,00
-7483,60	371,00
-7465,00	250,00
-7446,44	323,00
-7427,91	222,00
-7409,41	246,00
-7390,95	235,00
-7372,53	137,00
-7354,14	134,00
-7335,78	254,00
-7317,46	238,00
-7299,18	138,00
-7280,92	245,00
-7262,71	430,00
-7244,52	377,00
-7226,38	313,00
-7208,26	426,00
-7190,18	326,00
-7172,14	215,00
-7154,12	235,00
-7136,15	274,00
-7118,20	250,00
-7100,29	358,00
-7082,41	271,00
-7064,57	385,00
-7046,76	326,00
-7028,98	229,00
-7011,24	183,00
-6993,53	175,00
-6975,85	104,00
-6958,20	63,00
-6940,59	165,00
-6923,01	56,00
-6905,46	161,00
-6887,94	134,00
-6870,46	328,00
-6853,01	121,00
-6835,59	249,00
-6818,21	304,00
-6800,85	157,00
-6783,53	174,00
-6766,24	144,00
-6748,98	209,00
-6731,76	-36,00
-6714,56	59,00
-6697,40	-92,00
-6680,26	11,00
-6663,16	136,00
-6646,09	172,00
-6629,05	206,00
-6612,05	208,00
-6595,07	154,00
-6578,13	228,00
-6561,21	27,00
-6544,33	76,00
-6527,47	4,00
-6510,65	123,00
-6493,86	-30,00
-6477,10	-78,00
-6460,36	40,00
-6443,66	158,00
-6426,99	-7,00
-6410,35	35,00
-6393,74	90,00
-6377,16	212,00
-6360,61	108,00
-6344,09	80,00
-6327,59	151,00
-6311,13	136,00
-6294,70	212,00
-6278,29	192,00
-6261,92	201,00
-6245,58	238,00
-6229,26	160,00
-6212,97	188,00
-6196,72	115,00
-6180,49	125,00
-6164,29	54,00
-6148,12	-2,00
-6131,98	12,00
-6115,86	-33,00
-6099,78	-20,00
-6083,72	-34,00
-6067,69	-91,00
-6051,69	15,00
-6035,72	2,00
-6019,78	117,00
-6003,87	84,00
-5987,98	75,00
-5972,12	207,00
-5956,29	216,00
-5940,49	96,00
-5924,71	196,00
-5908,96	76,00
-5893,24	93,00
-5877,55	111,00
-5861,89	31,00
-5846,25	-17,00
-5830,64	109,00
-5815,05	7,00
-5799,50	-1,00
-5783,97	190,00
-5768,47	193,00
-5752,99	71,00
-5737,55	184,00
-5722,12	201,00
-5706,73	204,00
-5691,36	180,00
-5676,02	209,00
-5660,71	64,00
-5645,42	80,00
-5630,16	155,00
-5614,92	59,00
-5599,71	48,00
-5584,53	107,00
-5569,37	26,00
-5554,24	-760,00
-5539,14	66,00
-5524,06	71,00
-5509,01	73,00
-5493,98	75,00
-5478,98	97,00
-5464,00	-37,00
-5449,05	9,00
-5434,13	36,00
-5419,23	99,00
-5404,36	232,00
-5389,51	131,00
-5374,69	76,00
-5359,89	210,00
-5345,12	122,00
-5330,37	203,00
-5315,65	196,00
-5300,95	235,00
-5286,28	182,00
-5271,63	84,00
-5257,01	51,00
-5242,41	28,00
-5227,84	-17,00
-5213,29	-5,00
-5198,76	130,00
-5184,26	153,00
-5169,79	70,00
-5155,33	-16,00
-5140,91	29,00
-5126,51	229,00
-5112,13	83,00
-5097,77	201,00
-5083,44	143,00
-5069,13	185,00
-5054,85	5,00
-5040,59	73,00
-5026,36	91,00
-5012,15	71,00
-4997,96	113,00
-4983,80	29,00
-4969,66	32,00
-4955,54	178,00
-4941,44	136,00
-4927,37	77,00
-4913,33	300,00
-4899,30	248,00
-4885,30	273,00
-4871,33	178,00
-4857,37	348,00
-4843,44	152,00
-4829,53	162,00
-4815,65	-37,00
-4801,79	-3,00
-4787,95	46,00
-4774,13	96,00
-4760,34	175,00
-4746,56	223,00
-4732,82	148,00
-4719,09	96,00
-4705,38	125,00
-4691,70	192,00
-4678,04	177,00
-4664,41	209,00
-4650,79	318,00
-4637,20	179,00
-4623,63	71,00
-4610,08	120,00
-4596,56	170,00
-4583,05	233,00
-4569,57	174,00
-4556,11	262,00
-4542,67	141,00
-4529,25	175,00
-4515,86	121,00
-4502,49	203,00
-4489,13	212,00
-4475,80	219,00
-4462,49	179,00
-4449,21	245,00
-4435,94	261,00
-4422,70	173,00
-4409,47	175,00
-4396,27	123,00
-4383,09	174,00
-4369,93	139,00
-4356,79	179,00
-4343,67	83,00
-4330,58	173,00
-4317,50	170,00
-4304,45	278,00
-4291,41	178,00
-4278,40	200,00
-4265,41	261,00
-4252,44	277,00
-4239,49	288,00
-4226,55	212,00
-4213,65	113,00
-4200,76	123,00
-4187,89	239,00
-4175,04	127,00
-4162,21	218,00
-4149,40	231,00
-4136,61	255,00
-4123,85	280,00
-4111,10	158,00
-4098,37	262,00
-4085,66	194,00
-4072,98	75,00
-4060,31	154,00
-4047,66	143,00
-4035,04	362,00
-4022,43	194,00
-4009,84	312,00
-3997,27	101,00
-3984,72	240,00
-3972,19	343,00
-3959,69	70,00
-3947,20	192,00
-3934,73	146,00
-3922,27	197,00
-3909,84	253,00
-3897,43	286,00
-3885,04	165,00
-3872,67	220,00
-3860,31	241,00
-3847,98	88,00
-3835,66	211,00
-3823,36	93,00
-3811,09	143,00
-3798,83	184,00
-3786,59	192,00
-3774,37	63,00
-3762,17	159,00
-3749,98	212,00
-3737,82	284,00
-3725,67	298,00
-3713,55	229,00
-3701,44	85,00
-3689,35	293,00
-3677,28	188,00
-3665,22	156,00
-3653,19	174,00
-3641,17	199,00
-3629,18	223,00
-3617,20	249,00
-3605,24	150,00
-3593,30	116,00
-3581,37	190,00
-3569,47	185,00
-3557,58	289,00
-3545,71	172,00
-3533,86	237,00
-3522,02	238,00
-3510,21	190,00
-3498,41	123,00
-3486,63	231,00
-3474,87	234,00
-3463,12	105,00
-3451,40	131,00
-3439,69	146,00
-3428,00	175,00
-3416,33	181,00
-3404,67	126,00
-3393,03	402,00
-3381,41	166,00
-3369,81	186,00
-3358,22	220,00
-3346,66	51,00
-3335,10	207,00
-3323,57	167,00
-3312,06	233,00
-3300,56	187,00
-3289,08	288,00
-3277,61	235,00
-3266,16	188,00
-3254,73	211,00
-3243,32	219,00
-3231,92	200,00
-3220,55	242,00
-3209,18	190,00
-3197,84	136,00
-3186,51	191,00
-3175,20	230,00
-3163,90	173,00
-3152,63	220,00
-3141,36	213,00
-3130,12	140,00
-3118,89	262,00
-3107,68	234,00
-3096,49	219,00
-3085,31	251,00
-3074,15	104,00
-3063,00	233,00
-3051,87	203,00
-3040,76	113,00
-3029,67	265,00
-3018,59	184,00
-3007,52	271,00
-2996,48	145,00
-2985,44	269,00
-2974,43	126,00
-2963,43	252,00
-2952,45	186,00
-2941,48	193,00
-2930,53	269,00
-2919,60	248,00
-2908,68	315,00
-2897,78	97,00
-2886,89	259,00
-2876,02	166,00
-2865,17	331,00
-2854,33	189,00
-2843,50	193,00
-2832,70	279,00
-2821,90	181,00
-2811,13	109,00
-2800,37	162,00
-2789,62	250,00
-2778,89	86,00
-2768,18	394,00
-2757,48	312,00
-2746,80	270,00
-2736,13	170,00
-2725,48	295,00
-2714,84	280,00
-2704,22	199,00
-2693,61	251,00
-2683,02	176,00
-2672,45	250,00
-2661,89	180,00
-2651,34	161,00
-2640,81	167,00
-2630,30	252,00
-2619,80	197,00
-2609,31	252,00
-2598,84	190,00
-2588,39	132,00
-2577,95	178,00
-2567,52	232,00
-2557,11	236,00
-2546,71	191,00
-2536,33	207,00
-2525,97	159,00
-2515,62	245,00
-2505,28	238,00
-2494,96	112,00
-2484,65	193,00
-2474,36	210,00
-2464,08	192,00
-2453,82	270,00
-2443,57	205,00
-2433,33	228,00
-2423,11	183,00
-2412,91	233,00
-2402,72	166,00
-2392,54	159,00
-2382,38	173,00
-2372,23	147,00
-2362,09	311,00
-2351,97	105,00
-2341,87	182,00
-2331,78	266,00
-2321,70	188,00
-2311,64	205,00
-2301,59	166,00
-2291,55	243,00
-2281,53	283,00
-2271,53	172,00
-2261,53	302,00
-2251,55	245,00
-2241,59	130,00
-2231,64	196,00
-2221,70	279,00
-2211,78	194,00
-2201,87	117,00
-2191,97	164,00
-2182,09	164,00
-2172,22	168,00
-2162,37	252,00
-2152,53	191,00
-2142,70	202,00
-2132,89	211,00
-2123,09	160,00
-2113,30	167,00
-2103,53	198,00
-2093,77	264,00
-2084,02	186,00
-2074,29	236,00
-2064,57	311,00
-2054,86	235,00
-2045,17	281,00
-2035,49	117,00
-2025,82	154,00
-2016,17	189,00
-2006,53	155,00
-1996,91	280,00
-1987,29	184,00
-1977,69	260,00
-1968,11	326,00
-1958,53	225,00
-1948,97	172,00
-1939,42	287,00
-1929,89	208,00
-1920,37	211,00
-1910,86	115,00
-1901,36	200,00
-1891,88	165,00
-1882,41	218,00
-1872,95	165,00
-1863,51	143,00
-1854,08	184,00
-1844,66	228,00
-1835,26	259,00
-1825,86	251,00
-1816,48	278,00
-1807,11	233,00
-1797,76	243,00
-1788,42	256,00
-1779,09	193,00
-1769,77	158,00
-1760,47	212,00
-1751,17	188,00
-1741,89	197,00
-1732,63	203,00
-1723,37	303,00
-1714,13	285,00
-1704,90	167,00
-1695,68	181,00
-1686,48	187,00
-1677,29	320,00
-1668,11	226,00
-1658,94	249,00
-1649,78	275,00
-1640,64	194,00
-1631,51	263,00
-1622,39	273,00
-1613,28	243,00
-1604,19	174,00
-1595,10	225,00
-1586,03	196,00
-1576,97	175,00
-1567,93	295,00
-1558,89	120,00
-1549,87	130,00
-1540,86	112,00
-1531,86	171,00
-1522,87	308,00
-1513,90	145,00
-1504,93	246,00
-1495,98	178,00
-1487,04	155,00
-1478,12	236,00
-1469,20	221,00
-1460,30	178,00
-1451,40	181,00
-1442,52	261,00
-1433,65	208,00
-1424,80	231,00
-1415,95	222,00
-1407,12	178,00
-1398,30	73,00
-1389,48	276,00
-1380,69	184,00
-1371,90	156,00
-1363,12	212,00
-1354,36	264,00
-1345,60	280,00
-1336,86	120,00
-1328,13	263,00
-1319,41	167,00
-1310,70	200,00
-1302,01	132,00
-1293,32	185,00
-1284,65	196,00
-1275,99	199,00
-1267,33	166,00
-1258,69	170,00
-1250,06	172,00
-1241,45	144,00
-1232,84	137,00
-1224,25	180,00
-1215,66	110,00
-1207,09	46,00
-1198,53	184,00
-1189,97	245,00
-1181,43	141,00
-1172,91	136,00
-1164,39	300,00
-1155,88	167,00
-1147,38	227,00
-1138,90	239,00
-1130,43	236,00
-1121,96	233,00
-1113,51	202,00
-1105,07	236,00
-1096,64	155,00
-1088,22	242,00
-1079,81	168,00
-1071,41	131,00
-1063,02	193,00
-1054,65	219,00
-1046,28	236,00
-1037,92	231,00
-1029,58	210,00
-1021,24	279,00
-1012,92	272,00
-1004,61	177,00
-996,30	179,00
-988,01	229,00
-979,73	150,00
-971,46	216,00
-963,20	151,00
-954,95	177,00
-946,71	77,00
-938,48	200,00
-930,26	241,00
-922,06	186,00
-913,86	217,00
-905,67	131,00
-897,49	187,00
-889,33	159,00
-881,17	258,00
-873,02	234,00
-864,89	186,00
-856,76	204,00
-848,65	102,00
-840,54	254,00
-832,45	146,00
-824,36	83,00
-816,29	215,00
-808,22	321,00
-800,17	172,00
-792,12	171,00
-784,09	192,00
-776,06	168,00
-768,05	204,00
-760,04	233,00
-752,05	293,00
-744,07	153,00
-736,09	210,00
-728,13	306,00
-720,17	235,00
-712,23	156,00
-704,29	265,00
-696,37	135,00
-688,45	140,00
-680,55	256,00
-672,65	164,00
-664,77	253,00
-656,89	238,00
-649,03	195,00
-641,17	26,00
-633,32	225,00
-625,49	175,00
-617,66	159,00
-609,84	164,00
-602,03	167,00
-594,23	197,00
-586,45	289,00
-578,67	262,00
-570,90	173,00
-563,14	235,00
-555,39	118,00
-547,65	106,00
-539,91	274,00
-532,19	134,00
-524,48	93,00
-516,78	185,00
-509,08	169,00
-501,40	259,00
-493,72	160,00
-486,06	61,00
-478,40	223,00
-470,76	153,00
-463,12	264,00
-455,49	157,00
-447,87	224,00
-440,26	253,00
-432,66	203,00
-425,07	210,00
-417,49	295,00
-409,92	214,00
-402,35	289,00
-394,80	235,00
-387,25	171,00
-379,72	229,00
-372,19	213,00
-364,67	275,00
-357,17	304,00
-349,67	260,00
-342,18	152,00
-334,69	258,00
-327,22	186,00
-319,76	234,00
-312,30	243,00
-304,86	285,00
-297,42	191,00
-290,00	248,00
-282,58	346,00
-275,17	318,00
-267,77	187,00
-260,37	221,00
-252,99	211,00
-245,62	223,00
-238,25	193,00
-230,90	252,00
-223,55	179,00
-216,21	241,00
-208,88	275,00
-201,56	247,00
-194,25	361,00
-186,94	339,00
-179,65	272,00
-172,36	275,00
-165,08	210,00
-157,81	333,00
-150,55	422,00
-143,30	423,00
-136,06	454,00
-128,82	409,00
-121,60	466,00
-114,38	506,00
-107,17	458,00
-99,97	576,00
-92,78	607,00
-85,60	705,00
-78,42	810,00
-71,25	812,00
-64,10	889,00
-56,95	1121,00
-49,81	1275,00
-42,67	1549,00
-35,55	1930,00
-28,43	2472,00
-21,33	4099,00
-14,23	13502,00
-7,14	56139,00
-0,05	55888,00
7,02	55558,00
14,09	41835,00
21,14	11164,00
28,19	4722,00
35,23	3075,00
42,27	2225,00
49,29	2001,00
56,31	1762,00
63,32	1425,00
70,32	1204,00
77,31	1017,00
84,29	996,00
91,27	916,00
98,23	875,00
105,19	841,00
112,14	823,00
119,09	1303,00
126,02	1909,00
132,95	2426,00
139,87	2431,00
146,78	2586,00
153,68	2548,00
160,58	2426,00
167,46	2358,00
174,34	2437,00
181,21	2531,00
188,08	2536,00
194,93	2489,00
201,78	2520,00
208,62	2478,00
215,45	2456,00
222,27	2441,00
229,09	2469,00
235,90	2534,00
242,70	2484,00
249,49	2336,00
256,27	2454,00
263,05	2359,00
269,82	2427,00
276,58	2466,00
283,33	2557,00
290,08	2511,00
296,82	2367,00
303,55	2377,00
310,27	2269,00
316,98	2449,00
323,69	2365,00
330,39	2392,00
337,08	2318,00
343,76	2394,00
350,44	2446,00
357,11	2447,00
363,77	2364,00
370,42	2420,00
377,07	2301,00
383,71	2378,00
390,34	2382,00
396,96	2404,00
403,58	2336,00
410,19	2459,00
416,79	2541,00
423,38	2557,00
429,97	2368,00
436,55	2478,00
443,12	2476,00
449,68	2256,00
456,24	2387,00
462,79	2299,00
469,33	2427,00
475,86	2329,00
482,39	2271,00
488,91	2402,00
495,42	2432,00
501,93	2369,00
508,42	2397,00
514,91	2361,00
521,40	2382,00
527,87	2264,00
534,34	2436,00
540,80	2304,00
547,25	2523,00
553,70	2430,00
560,14	2363,00
566,57	2444,00
573,00	2322,00
579,41	2365,00
585,83	2360,00
592,23	2365,00
598,62	2369,00
605,01	2399,00
611,40	2522,00
617,77	2304,00
624,14	2426,00
630,50	2403,00
636,85	2199,00
643,20	2403,00
649,54	2261,00
655,87	2293,00
662,20	2503,00
668,52	2322,00
674,83	2246,00
681,13	2294,00
687,43	2295,00
693,72	2317,00
700,00	2376,00
706,28	2243,00
712,55	2371,00
718,81	2466,00
725,07	2365,00
731,32	2270,00
737,56	2276,00
743,79	2403,00
750,02	2484,00
756,24	2432,00
762,46	2450,00
768,67	2442,00
774,87	2473,00
781,06	2453,00
787,25	2445,00
793,43	2390,00
799,60	2388,00
805,77	2320,00
811,93	2399,00
818,08	2463,00
824,23	2311,00
830,37	2532,00
836,50	2547,00
842,63	2467,00
848,75	2505,00
854,87	2452,00
860,97	2490,00
867,07	2526,00
873,17	2371,00
879,25	2544,00
885,33	2286,00
891,41	2446,00
897,47	2402,00
903,53	2511,00
909,59	2495,00
915,63	2553,00
921,67	2552,00
927,71	2429,00
933,74	2508,00
939,76	2489,00
945,77	2438,00
951,78	2398,00
957,78	2407,00
963,78	2419,00
969,77	2508,00
975,75	2469,00
981,72	2468,00
987,69	2641,00
993,66	2570,00
999,61	2425,00
1005,56	2584,00
1011,51	2571,00
1017,44	2516,00
1023,37	2611,00
1029,30	2702,00
1035,22	2494,00
1041,13	2593,00
1047,03	2640,00
1052,93	2775,00
1058,83	2988,00
1064,71	3173,00
1070,59	2944,00
1076,47	2666,00
1082,33	2839,00
1088,20	2639,00
1094,05	2688,00
1099,90	2495,00
1105,74	2676,00
1111,58	2712,00
1117,41	2803,00
1123,23	3133,00
1129,05	3344,00
1134,86	3104,00
1140,67	2813,00
1146,47	2926,00
1152,26	2759,00
1158,05	2621,00
1163,83	2797,00
1169,60	2775,00
1175,37	2699,00
1181,13	2546,00
1186,89	2641,00
1192,64	2546,00
1198,38	2732,00
1204,12	2765,00
1209,85	2618,00
1215,58	2639,00
1221,30	2791,00
1227,02	2734,00
1232,72	2874,00
1238,43	2792,00
1244,12	2841,00
1249,81	2729,00
1255,50	2690,00
1261,17	2649,00
1266,85	2989,00
1272,51	2815,00
1278,17	2830,00
1283,83	2918,00
1289,47	3291,00
1295,12	3596,00
1300,75	3435,00
1306,38	3284,00
1312,01	3038,00
1317,63	2826,00
1323,24	2938,00
1328,85	2859,00
1334,45	2930,00
1340,04	2780,00
1345,63	2831,00
1351,22	2799,00
1356,80	2794,00
1362,37	2883,00
1367,93	2779,00
1373,49	2850,00
1379,05	2853,00
1384,60	2944,00
1390,14	2780,00
1395,68	2854,00
1401,21	2838,00
1406,74	2902,00
1412,26	3083,00
1417,77	3142,00
1423,28	3205,00
1428,78	3223,00
1434,28	3457,00
1439,77	3537,00
1445,26	3654,00
1450,74	3462,00
1456,22	3480,00
1461,68	3394,00
1467,15	3219,00
1472,61	3299,00
1478,06	3095,00
1483,51	2841,00
1488,95	2904,00
1494,38	2939,00
1499,81	2659,00
1505,24	2721,00
1510,65	2724,00
1516,07	2674,00
1521,48	2769,00
1526,88	2671,00
1532,27	2677,00
1537,67	2769,00
1543,05	2697,00
1548,43	2486,00
1553,81	2672,00
1559,18	2696,00
1564,54	2505,00
1569,90	2735,00
1575,25	2651,00
1580,60	2568,00
1585,94	2605,00
1591,28	2694,00
1596,61	2463,00
1601,93	2622,00
1607,25	2474,00
1612,57	2602,00
1617,88	2550,00
1623,18	2564,00
1628,48	2528,00
1633,77	2506,00
1639,06	2652,00
1644,34	2588,00
1649,62	2540,00
1654,89	2434,00
1660,16	2486,00
1665,42	2637,00
1670,67	2555,00
1675,92	2409,00
1681,17	2380,00
1686,41	2472,00
1691,64	2528,00
1696,87	2599,00
1702,10	2474,00
1707,32	2463,00
1712,53	2497,00
1717,74	2418,00
1722,94	2538,00
1728,14	2381,00
1733,33	2444,00
1738,52	2498,00
1743,70	2463,00
1748,88	2621,00
1754,05	2274,00
1759,22	2370,00
1764,38	2465,00
1769,53	2354,00
1774,69	2379,00
1779,83	2289,00
1784,97	2402,00
1790,11	2342,00
1795,24	2303,00
1800,36	2247,00
1805,48	2153,00
1810,60	2218,00
1815,71	2279,00
1820,82	2149,00
1825,92	2422,00
1831,01	2264,00
1836,10	2323,00
1841,19	2415,00
1846,26	2206,00
1851,34	2263,00
1856,41	2323,00
1861,47	2279,00
1866,53	2227,00
1871,59	2221,00
1876,64	2259,00
1881,68	2326,00
1886,72	2267,00
1891,76	2210,00
1896,79	2309,00
1901,81	2272,00
1906,83	2155,00
1911,85	2242,00
1916,86	2074,00
1921,86	2215,00
1926,86	2183,00
1931,86	2026,00
1936,85	2092,00
1941,83	1966,00
1946,81	2110,00
1951,79	2024,00
1956,76	2118,00
1961,72	2050,00
1966,68	2048,00
1971,64	2025,00
1976,59	2062,00
1981,54	2085,00
1986,48	2102,00
1991,42	1995,00
1996,35	2064,00
2001,27	2031,00
2006,20	1989,00
2011,11	2013,00
2016,03	1996,00
2020,93	1975,00
2025,84	2021,00
2030,73	1995,00
2035,63	1971,00
2040,52	2029,00
2045,40	1913,00
2050,28	1923,00
2055,15	1995,00
2060,02	2003,00
2064,89	1943,00
2069,75	1952,00
2074,60	1956,00
2079,46	1912,00
2084,30	1963,00
2089,14	2004,00
2093,98	1908,00
2098,81	1864,00
2103,64	1924,00
2108,46	1999,00
2113,28	1836,00
2118,09	1845,00
2122,90	1902,00
2127,70	1895,00
2132,50	1922,00
2137,30	1909,00
2142,09	1953,00
2146,87	1863,00
2151,66	1825,00
2156,43	1944,00
2161,20	1995,00
2165,97	1866,00
2170,73	1912,00
2175,49	1840,00
2180,24	1946,00
2184,99	1871,00
2189,74	1815,00
2194,48	1917,00
2199,21	1893,00
2203,94	1838,00
2208,67	1843,00
2213,39	1826,00
2218,11	1773,00
2222,82	1841,00
2227,53	1741,00
2232,23	1813,00
2236,93	1829,00
2241,63	1818,00
2246,32	1707,00
2251,00	1718,00
2255,68	1730,00
2260,36	1603,00
2265,03	1644,00
2269,70	1765,00
2274,36	1661,00
2279,02	1760,00
2283,68	1701,00
2288,33	1569,00
2292,97	1722,00
2297,61	1672,00
2302,25	1725,00
2306,88	1651,00
2311,51	1633,00
2316,14	1542,00
2320,75	1592,00
2325,37	1703,00
2329,98	1645,00
2334,59	1628,00
2339,19	1540,00
2343,79	1675,00
2348,38	1610,00
2352,97	1608,00
2357,55	1574,00
2362,13	1622,00
2366,71	1512,00
2371,28	1727,00
2375,85	1488,00
2380,41	1552,00
2384,97	1545,00
2389,52	1482,00
2394,07	1579,00
2398,62	1494,00
2403,16	1469,00
2407,70	1447,00
2412,23	1389,00
2416,76	1502,00
2421,29	1370,00
2425,81	1463,00
2430,32	1508,00
2434,84	1372,00
2439,34	1505,00
2443,85	1403,00
2448,35	1335,00
2452,84	1322,00
2457,33	1438,00
2461,82	1337,00
2466,30	1349,00
2470,78	1365,00
2475,25	1388,00
2479,72	1280,00
2484,19	1536,00
2488,65	1375,00
2493,11	1383,00
2497,56	1284,00
2502,01	1253,00
2506,46	1334,00
2510,90	1355,00
2515,34	1405,00
2519,77	1258,00
2524,20	1315,00
2528,62	1235,00
2533,04	1270,00
2537,46	1296,00
2541,87	1266,00
2546,28	1252,00
2550,68	1260,00
2555,08	1271,00
2559,48	1265,00
2563,87	1200,00
2568,26	1138,00
2572,64	1270,00
2577,02	1201,00
2581,40	1249,00
2585,77	1071,00
2590,14	1175,00
2594,50	1116,00
2598,86	1160,00
2603,22	1197,00
2607,57	1189,00
2611,92	1054,00
2616,26	1056,00
2620,60	1161,00
2624,94	1171,00
2629,27	1191,00
2633,60	1172,00
2637,92	1237,00
2642,24	1143,00
2646,56	1131,00
2650,87	1100,00
2655,18	1044,00
2659,48	1030,00
2663,78	1146,00
2668,08	1187,00
2672,37	1097,00
2676,66	1174,00
2680,95	1228,00
2685,23	1126,00
2689,50	1072,00
2693,78	1140,00
2698,05	1093,00
2702,31	1219,00
2706,57	1117,00
2710,83	1086,00
2715,08	1114,00
2719,33	1136,00
2723,58	1150,00
2727,82	1255,00
2732,06	1098,00
2736,29	985,00
2740,53	1106,00
2744,75	1085,00
2748,97	1150,00
2753,19	940,00
2757,41	1075,00
2761,62	930,00
2765,83	1057,00
2770,03	1132,00
2774,23	973,00
2778,43	1013,00
2782,62	1064,00
2786,81	1065,00
2791,00	977,00
2795,18	1038,00
2799,35	1116,00
2803,53	980,00
2807,70	1119,00
2811,86	1107,00
2816,03	1201,00
2820,19	1143,00
2824,34	1179,00
2828,49	1191,00
2832,64	1396,00
2836,78	1486,00
2840,92	1591,00
2845,06	1800,00
2849,19	2163,00
2853,32	2030,00
2857,45	2011,00
2861,57	2046,00
2865,69	1959,00
2869,80	1901,00
2873,91	1910,00
2878,02	2032,00
2882,12	2200,00
2886,22	2153,00
2890,32	2016,00
2894,41	1961,00
2898,50	1899,00
2902,58	1616,00
2906,67	1630,00
2910,74	1597,00
2914,82	1518,00
2918,89	1536,00
2922,96	1349,00
2927,02	1317,00
2931,08	1187,00
2935,13	1225,00
2939,19	1125,00
2943,24	1159,00
2947,28	1099,00
2951,32	950,00
2955,36	945,00
2959,40	896,00
2963,43	997,00
2967,46	873,00
2971,48	882,00
2975,50	847,00
2979,52	777,00
2983,53	830,00
2987,54	731,00
2991,55	770,00
2995,55	733,00
2999,55	687,00
3003,54	832,00
3007,54	689,00
3011,53	705,00
3015,51	819,00
3019,49	761,00
3023,47	603,00
3027,45	753,00
3031,42	796,00
3035,39	605,00
3039,35	688,00
3043,31	649,00
3047,27	572,00
3051,22	652,00
3055,17	558,00
3059,12	667,00
3063,06	675,00
3067,00	542,00
3070,94	500,00
3074,87	727,00
3078,80	634,00
3082,73	512,00
3086,65	659,00
3090,57	574,00
3094,49	492,00
3098,40	569,00
3102,31	528,00
3106,22	624,00
3110,12	624,00
3114,02	532,00
3117,92	586,00
3121,81	565,00
3125,70	591,00
3129,58	524,00
3133,47	384,00
3137,34	591,00
3141,22	487,00
3145,09	572,00
3148,96	407,00
3152,83	429,00
3156,69	584,00
3160,55	505,00
3164,40	447,00
3168,26	458,00
3172,10	412,00
3175,95	585,00
3179,79	410,00
3183,63	449,00
3187,47	548,00
3191,30	476,00
3195,13	510,00
3198,95	463,00
3202,78	565,00
3206,60	466,00
3210,41	293,00
3214,23	464,00
3218,03	363,00
3221,84	444,00
3225,64	462,00
3229,44	465,00
3233,24	488,00
3237,03	467,00
3240,82	329,00
3244,61	388,00
3248,39	412,00
3252,17	405,00
3255,95	473,00
3259,72	477,00
3263,49	363,00
3267,26	365,00
3271,03	369,00
3274,79	426,00
3278,54	433,00
3282,30	379,00
3286,05	462,00
3289,80	421,00
3293,54	299,00
3297,29	349,00
3301,02	373,00
3304,76	443,00
3308,49	429,00
3312,22	293,00
3315,95	438,00
3319,67	368,00
3323,39	419,00
3327,10	403,00
3330,82	373,00
3334,53	350,00
3338,24	426,00
3341,94	374,00
3345,64	351,00
3349,34	299,00
3353,03	371,00
3356,72	241,00
3360,41	374,00
3364,10	375,00
3367,78	307,00
3371,46	321,00
3375,13	266,00
3378,81	401,00
3382,48	380,00
3386,14	310,00
3389,81	448,00
3393,47	327,00
3397,12	338,00
3400,78	328,00
3404,43	353,00
3408,08	481,00
3411,72	269,00
3415,36	303,00
3419,00	334,00
3422,64	225,00
3426,27	435,00
3429,90	296,00
3433,53	269,00
3437,15	284,00
3440,77	358,00
3444,39	298,00
3448,00	266,00
3451,62	307,00
3455,22	317,00
3458,83	275,00
3462,43	298,00
3466,03	314,00
3469,63	225,00
3473,22	315,00
3476,81	292,00
3480,40	317,00
3483,99	246,00
3487,57	195,00
3491,15	148,00
3494,72	325,00
3498,29	310,00
3501,86	177,00
3505,43	227,00
3508,99	201,00
3512,56	310,00
3516,11	226,00
3519,67	157,00
3523,22	254,00
3526,77	320,00
3530,32	269,00
3533,86	260,00
3537,40	153,00
3540,94	179,00
3544,47	220,00
3548,00	228,00
3551,53	126,00
3555,06	98,00
3558,58	236,00
3562,10	131,00
3565,62	156,00
3569,13	220,00
3572,64	231,00
3576,15	199,00
3579,66	308,00
3583,16	149,00
3586,66	359,00
3590,16	304,00
3593,65	224,00
3597,14	195,00
3600,63	248,00
3604,11	243,00
3607,60	134,00
3611,08	103,00
3614,55	123,00
3618,03	253,00
3621,50	225,00
3624,97	209,00
3628,43	87,00
3631,90	253,00
3635,36	174,00
3638,81	248,00
3642,27	129,00
3645,72	237,00
3649,17	208,00
3652,61	245,00
3656,06	213,00
3659,50	266,00
3662,93	239,00
3666,37	262,00
3669,80	199,00
3673,23	252,00
3676,65	317,00
3680,08	285,00
3683,50	116,00
3686,92	210,00
3690,33	90,00
3693,74	272,00
3697,15	193,00
3700,56	111,00
3703,96	199,00
3707,36	264,00
3710,76	216,00
3714,16	135,00
3717,55	121,00
3720,94	151,00
3724,33	251,00
3727,71	237,00
3731,10	171,00
3734,48	156,00
3737,85	183,00
3741,23	226,00
3744,60	142,00
3747,97	168,00
3751,33	274,00
3754,69	154,00
3758,05	118,00
3761,41	176,00
3764,77	231,00
3768,12	165,00
3771,47	173,00
3774,82	270,00
3778,16	-4,00
3781,50	9,00
3784,84	0,00
3788,18	-3,00
>>>>>End Processed Spectral Data<<<<<
