SpectraSuite Data File
++++++++++++++++++++++++++++++++++++
Date: Mon Mar 09 15:13:44 ICT 2026
User: Administrator
Dark Spectrum Present: Yes
Reference Spectrum Present: No
Number of Sampled Component Spectra: 1
Spectrometers: MAYP113682
Integration Time (usec): 3000000 (MAYP113682)
Spectra Averaged: 1 (MAYP113682)
Boxcar Smoothing: 0 (MAYP113682)
Correct for Electrical Dark: No (MAYP113682)
Strobe/Lamp Enabled: No (MAYP113682)
Correct for Detector Non-linearity: No (MAYP113682)
Correct for Stray Light: No (MAYP113682)
Number of Pixels in Processed Spectrum: 2068
>>>>>Begin Processed Spectral Data<<<<<
-37534,58	5,00
-37414,56	0,00
-37295,11	-3,00
-37176,24	11,00
-37057,95	182,00
-36940,22	212,00
-36823,05	212,00
-36706,45	267,00
-36590,40	291,00
-36474,90	150,00
-36359,95	236,00
-36245,55	282,00
-36131,68	157,00
-36018,35	207,00
-35905,55	159,00
-35793,29	283,00
-35681,54	192,00
-35570,32	178,00
-35459,62	231,00
-35349,43	289,00
-35239,75	372,00
-35130,58	99,00
-35021,91	244,00
-34913,74	181,00
-34806,07	254,00
-34698,89	168,00
-34592,20	207,00
-34486,00	313,00
-34380,28	242,00
-34275,04	224,00
-34170,27	262,00
-34065,98	195,00
-33962,16	166,00
-33858,81	277,00
-33755,92	252,00
-33653,49	281,00
-33551,52	292,00
-33450,01	152,00
-33348,94	286,00
-33248,33	238,00
-33148,16	188,00
-33048,43	189,00
-32949,14	274,00
-32850,29	225,00
-32751,87	184,00
-32653,89	201,00
-32556,33	307,00
-32459,20	198,00
-32362,49	157,00
-32266,19	228,00
-32170,32	263,00
-32074,86	315,00
-31979,82	168,00
-31885,18	193,00
-31790,95	191,00
-31697,12	190,00
-31603,69	283,00
-31510,67	253,00
-31418,04	144,00
-31325,80	295,00
-31233,95	176,00
-31142,49	191,00
-31051,42	253,00
-30960,73	179,00
-30870,43	282,00
-30780,50	182,00
-30690,95	203,00
-30601,77	290,00
-30512,97	340,00
-30424,53	198,00
-30336,46	195,00
-30248,76	213,00
-30161,42	267,00
-30074,44	121,00
-29987,81	189,00
-29901,55	192,00
-29815,63	270,00
-29730,07	305,00
-29644,86	263,00
-29560,00	226,00
-29475,48	283,00
-29391,30	189,00
-29307,47	230,00
-29223,97	212,00
-29140,81	171,00
-29057,99	248,00
-28975,50	288,00
-28893,34	196,00
-28811,51	112,00
-28730,00	292,00
-28648,82	183,00
-28567,97	255,00
-28487,43	323,00
-28407,21	275,00
-28327,32	179,00
-28247,73	319,00
-28168,46	210,00
-28089,50	137,00
-28010,85	247,00
-27932,51	224,00
-27854,48	110,00
-27776,75	255,00
-27699,32	114,00
-27622,19	229,00
-27545,37	275,00
-27468,84	267,00
-27392,60	290,00
-27316,66	149,00
-27241,01	206,00
-27165,66	209,00
-27090,59	190,00
-27015,81	278,00
-26941,31	251,00
-26867,10	211,00
-26793,17	109,00
-26719,52	148,00
-26646,15	311,00
-26573,06	280,00
-26500,24	215,00
-26427,70	346,00
-26355,43	287,00
-26283,43	321,00
-26211,71	223,00
-26140,25	304,00
-26069,06	307,00
-25998,13	173,00
-25927,46	200,00
-25857,06	100,00
-25786,92	187,00
-25717,04	341,00
-25647,42	142,00
-25578,05	65,00
-25508,94	159,00
-25440,09	330,00
-25371,48	242,00
-25303,13	259,00
-25235,02	164,00
-25167,17	222,00
-25099,56	175,00
-25032,19	222,00
-24965,07	264,00
-24898,20	145,00
-24831,56	140,00
-24765,17	283,00
-24699,01	125,00
-24633,10	256,00
-24567,41	244,00
-24501,97	209,00
-24436,75	170,00
-24371,77	106,00
-24307,03	229,00
-24242,51	219,00
-24178,22	290,00
-24114,16	62,00
-24050,32	306,00
-23986,71	126,00
-23923,32	145,00
-23860,16	279,00
-23797,22	119,00
-23734,50	226,00
-23672,00	118,00
-23609,71	163,00
-23547,65	133,00
-23485,80	243,00
-23424,16	178,00
-23362,74	242,00
-23301,53	136,00
-23240,54	172,00
-23179,75	245,00
-23119,17	245,00
-23058,80	164,00
-22998,64	299,00
-22938,68	181,00
-22878,93	221,00
-22819,39	228,00
-22760,04	188,00
-22700,90	280,00
-22641,96	238,00
-22583,22	161,00
-22524,68	226,00
-22466,33	214,00
-22408,19	269,00
-22350,23	280,00
-22292,48	238,00
-22234,92	315,00
-22177,55	312,00
-22120,37	308,00
-22063,38	211,00
-22006,58	238,00
-21949,98	304,00
-21893,56	177,00
-21837,33	147,00
-21781,28	326,00
-21725,42	169,00
-21669,74	246,00
-21614,25	197,00
-21558,94	253,00
-21503,81	228,00
-21448,86	124,00
-21394,10	256,00
-21339,51	160,00
-21285,10	201,00
-21230,86	239,00
-21176,81	177,00
-21122,93	293,00
-21069,22	325,00
-21015,69	166,00
-20962,33	263,00
-20909,14	181,00
-20856,13	72,00
-20803,28	274,00
-20750,61	246,00
-20698,10	160,00
-20645,76	201,00
-20593,59	493,00
-20541,59	153,00
-20489,75	297,00
-20438,07	202,00
-20386,56	276,00
-20335,22	189,00
-20284,03	193,00
-20233,01	226,00
-20182,15	198,00
-20131,45	357,00
-20080,91	180,00
-20030,52	215,00
-19980,30	254,00
-19930,23	136,00
-19880,32	319,00
-19830,56	144,00
-19780,96	226,00
-19731,52	261,00
-19682,23	234,00
-19633,09	227,00
-19584,10	205,00
-19535,26	110,00
-19486,58	251,00
-19438,04	332,00
-19389,66	270,00
-19341,42	220,00
-19293,33	215,00
-19245,39	229,00
-19197,60	315,00
-19149,95	142,00
-19102,45	261,00
-19055,09	163,00
-19007,87	292,00
-18960,80	183,00
-18913,87	197,00
-18867,09	211,00
-18820,44	237,00
-18773,94	240,00
-18727,57	198,00
-18681,35	245,00
-18635,26	205,00
-18589,31	312,00
-18543,50	161,00
-18497,83	175,00
-18452,29	168,00
-18406,89	190,00
-18361,63	277,00
-18316,50	269,00
-18271,50	159,00
-18226,63	301,00
-18181,90	191,00
-18137,30	192,00
-18092,84	119,00
-18048,50	155,00
-18004,29	197,00
-17960,22	172,00
-17916,27	224,00
-17872,45	218,00
-17828,76	216,00
-17785,20	291,00
-17741,77	159,00
-17698,46	302,00
-17655,28	205,00
-17612,22	213,00
-17569,29	265,00
-17526,48	126,00
-17483,79	128,00
-17441,23	232,00
-17398,79	189,00
-17356,48	244,00
-17314,28	365,00
-17272,21	199,00
-17230,26	173,00
-17188,42	184,00
-17146,71	228,00
-17105,12	173,00
-17063,64	154,00
-17022,28	244,00
-16981,04	284,00
-16939,92	323,00
-16898,91	170,00
-16858,02	208,00
-16817,25	280,00
-16776,59	169,00
-16736,04	195,00
-16695,61	156,00
-16655,29	208,00
-16615,09	304,00
-16574,99	183,00
-16535,01	215,00
-16495,15	167,00
-16455,39	182,00
-16415,74	97,00
-16376,21	225,00
-16336,78	182,00
-16297,46	165,00
-16258,26	124,00
-16219,16	156,00
-16180,17	259,00
-16141,28	127,00
-16102,51	193,00
-16063,84	214,00
-16025,27	166,00
-15986,82	193,00
-15948,46	267,00
-15910,22	220,00
-15872,07	245,00
-15834,04	207,00
-15796,10	253,00
-15758,27	309,00
-15720,54	182,00
-15682,91	206,00
-15645,39	247,00
-15607,97	175,00
-15570,64	321,00
-15533,42	273,00
-15496,30	250,00
-15459,28	162,00
-15422,36	253,00
-15385,54	268,00
-15348,82	194,00
-15312,19	311,00
-15275,66	355,00
-15239,23	168,00
-15202,90	343,00
-15166,67	273,00
-15130,53	297,00
-15094,48	131,00
-15058,54	161,00
-15022,68	230,00
-14986,93	255,00
-14951,26	176,00
-14915,69	303,00
-14880,22	178,00
-14844,84	234,00
-14809,55	204,00
-14774,35	304,00
-14739,25	250,00
-14704,24	124,00
-14669,32	179,00
-14634,49	-19,00
-14599,75	243,00
-14565,10	206,00
-14530,55	230,00
-14496,08	329,00
-14461,70	270,00
-14427,41	274,00
-14393,21	295,00
-14359,10	305,00
-14325,07	169,00
-14291,14	215,00
-14257,29	248,00
-14223,52	178,00
-14189,85	377,00
-14156,26	276,00
-14122,76	295,00
-14089,34	223,00
-14056,01	205,00
-14022,76	193,00
-13989,60	275,00
-13956,52	202,00
-13923,53	210,00
-13890,62	234,00
-13857,79	186,00
-13825,05	144,00
-13792,39	173,00
-13759,81	301,00
-13727,31	117,00
-13694,90	245,00
-13662,57	61,00
-13630,31	241,00
-13598,14	199,00
-13566,05	234,00
-13534,05	238,00
-13502,12	140,00
-13470,27	315,00
-13438,50	308,00
-13406,80	141,00
-13375,19	231,00
-13343,66	173,00
-13312,20	282,00
-13280,83	234,00
-13249,53	233,00
-13218,30	208,00
-13187,16	285,00
-13156,09	166,00
-13125,10	153,00
-13094,18	232,00
-13063,34	258,00
-13032,58	366,00
-13001,89	199,00
-12971,28	148,00
-12940,74	183,00
-12910,27	194,00
-12879,88	260,00
-12849,57	126,00
-12819,33	218,00
-12789,16	156,00
-12759,06	221,00
-12729,04	250,00
-12699,09	-822,00
-12669,21	246,00
-12639,41	115,00
-12609,68	103,00
-12580,02	238,00
-12550,43	161,00
-12520,91	146,00
-12491,46	211,00
-12462,08	216,00
-12432,77	242,00
-12403,54	190,00
-12374,37	219,00
-12345,27	267,00
-12316,24	285,00
-12287,29	217,00
-12258,40	202,00
-12229,57	135,00
-12200,82	296,00
-12172,14	345,00
-12143,52	226,00
-12114,97	157,00
-12086,49	168,00
-12058,07	124,00
-12029,73	160,00
-12001,44	207,00
-11973,23	250,00
-11945,08	122,00
-11917,00	274,00
-11888,98	206,00
-11861,03	143,00
-11833,15	134,00
-11805,32	333,00
-11777,57	184,00
-11749,88	192,00
-11722,25	240,00
-11694,69	154,00
-11667,19	154,00
-11639,75	183,00
-11612,38	165,00
-11585,07	301,00
-11557,83	222,00
-11530,65	73,00
-11503,53	195,00
-11476,47	159,00
-11449,48	191,00
-11422,54	129,00
-11395,67	242,00
-11368,86	259,00
-11342,11	124,00
-11315,43	335,00
-11288,80	99,00
-11262,23	235,00
-11235,73	225,00
-11209,28	111,00
-11182,90	206,00
-11156,57	175,00
-11130,31	280,00
-11104,10	167,00
-11077,96	320,00
-11051,87	239,00
-11025,84	185,00
-10999,87	200,00
-10973,96	255,00
-10948,11	136,00
-10922,31	181,00
-10896,58	331,00
-10870,90	253,00
-10845,28	170,00
-10819,71	155,00
-10794,20	267,00
-10768,75	203,00
-10743,36	258,00
-10718,02	225,00
-10692,74	216,00
-10667,52	204,00
-10642,35	219,00
-10617,24	249,00
-10592,18	273,00
-10567,18	175,00
-10542,23	283,00
-10517,34	245,00
-10492,51	331,00
-10467,72	86,00
-10443,00	227,00
-10418,32	340,00
-10393,70	307,00
-10369,14	315,00
-10344,63	232,00
-10320,17	209,00
-10295,77	221,00
-10271,42	170,00
-10247,12	223,00
-10222,88	300,00
-10198,68	163,00
-10174,54	291,00
-10150,46	232,00
-10126,42	248,00
-10102,44	273,00
-10078,51	78,00
-10054,63	319,00
-10030,80	154,00
-10007,03	347,00
-9983,30	264,00
-9959,63	303,00
-9936,01	284,00
-9912,44	215,00
-9888,92	245,00
-9865,44	312,00
-9842,02	147,00
-9818,65	210,00
-9795,33	121,00
-9772,06	141,00
-9748,84	271,00
-9725,67	155,00
-9702,55	247,00
-9679,47	194,00
-9656,45	314,00
-9633,47	246,00
-9610,55	293,00
-9587,67	296,00
-9564,84	265,00
-9542,06	241,00
-9519,32	262,00
-9496,64	317,00
-9474,00	286,00
-9451,41	343,00
-9428,87	289,00
-9406,37	275,00
-9383,92	89,00
-9361,52	53,00
-9339,17	168,00
-9316,86	238,00
-9294,60	238,00
-9272,38	400,00
-9250,21	432,00
-9228,09	370,00
-9206,01	356,00
-9183,98	253,00
-9162,00	175,00
-9140,06	123,00
-9118,16	68,00
-9096,31	240,00
-9074,51	234,00
-9052,75	443,00
-9031,04	290,00
-9009,37	181,00
-8987,74	282,00
-8966,16	190,00
-8944,63	100,00
-8923,14	94,00
-8901,69	70,00
-8880,29	310,00
-8858,93	377,00
-8837,61	299,00
-8816,34	383,00
-8795,11	456,00
-8773,92	460,00
-8752,78	339,00
-8731,68	313,00
-8710,62	307,00
-8689,61	308,00
-8668,63	514,00
-8647,70	418,00
-8626,82	511,00
-8605,97	459,00
-8585,17	427,00
-8564,41	263,00
-8543,69	249,00
-8523,01	151,00
-8502,37	297,00
-8481,78	187,00
-8461,23	438,00
-8440,71	393,00
-8420,24	301,00
-8399,81	412,00
-8379,42	459,00
-8359,08	315,00
-8338,77	400,00
-8318,50	387,00
-8298,27	360,00
-8278,09	302,00
-8257,94	455,00
-8237,83	508,00
-8217,76	476,00
-8197,74	487,00
-8177,75	556,00
-8157,80	527,00
-8137,89	340,00
-8118,02	458,00
-8098,19	453,00
-8078,40	453,00
-8058,65	436,00
-8038,93	436,00
-8019,26	599,00
-7999,62	647,00
-7980,02	401,00
-7960,46	419,00
-7940,94	404,00
-7921,46	395,00
-7902,01	368,00
-7882,60	335,00
-7863,23	387,00
-7843,90	430,00
-7824,61	248,00
-7805,35	415,00
-7786,13	439,00
-7766,95	489,00
-7747,80	495,00
-7728,69	512,00
-7709,62	455,00
-7690,59	510,00
-7671,59	454,00
-7652,63	451,00
-7633,70	466,00
-7614,81	448,00
-7595,96	455,00
-7577,15	318,00
-7558,37	512,00
-7539,62	364,00
-7520,91	392,00
-7502,24	506,00
-7483,60	455,00
-7465,00	385,00
-7446,44	401,00
-7427,91	349,00
-7409,41	280,00
-7390,95	261,00
-7372,53	191,00
-7354,14	201,00
-7335,78	301,00
-7317,46	432,00
-7299,18	333,00
-7280,92	342,00
-7262,71	467,00
-7244,52	512,00
-7226,38	377,00
-7208,26	460,00
-7190,18	451,00
-7172,14	330,00
-7154,12	418,00
-7136,15	357,00
-7118,20	379,00
-7100,29	298,00
-7082,41	433,00
-7064,57	403,00
-7046,76	429,00
-7028,98	311,00
-7011,24	287,00
-6993,53	76,00
-6975,85	235,00
-6958,20	99,00
-6940,59	270,00
-6923,01	165,00
-6905,46	194,00
-6887,94	188,00
-6870,46	2893,00
-6853,01	331,00
-6835,59	391,00
-6818,21	302,00
-6800,85	221,00
-6783,53	178,00
-6766,24	205,00
-6748,98	149,00
-6731,76	-9,00
-6714,56	50,00
-6697,40	103,00
-6680,26	56,00
-6663,16	205,00
-6646,09	290,00
-6629,05	273,00
-6612,05	294,00
-6595,07	167,00
-6578,13	284,00
-6561,21	78,00
-6544,33	92,00
-6527,47	147,00
-6510,65	192,00
-6493,86	-31,00
-6477,10	-13,00
-6460,36	-7,00
-6443,66	137,00
-6426,99	-4,00
-6410,35	57,00
-6393,74	98,00
-6377,16	151,00
-6360,61	161,00
-6344,09	112,00
-6327,59	177,00
-6311,13	193,00
-6294,70	361,00
-6278,29	154,00
-6261,92	324,00
-6245,58	205,00
-6229,26	175,00
-6212,97	170,00
-6196,72	106,00
-6180,49	181,00
-6164,29	92,00
-6148,12	116,00
-6131,98	125,00
-6115,86	-5,00
-6099,78	10,00
-6083,72	-29,00
-6067,69	-146,00
-6051,69	9,00
-6035,72	169,00
-6019,78	182,00
-6003,87	34,00
-5987,98	176,00
-5972,12	201,00
-5956,29	227,00
-5940,49	189,00
-5924,71	218,00
-5908,96	103,00
-5893,24	183,00
-5877,55	157,00
-5861,89	106,00
-5846,25	26,00
-5830,64	77,00
-5815,05	90,00
-5799,50	55,00
-5783,97	205,00
-5768,47	276,00
-5752,99	109,00
-5737,55	270,00
-5722,12	278,00
-5706,73	199,00
-5691,36	139,00
-5676,02	191,00
-5660,71	61,00
-5645,42	156,00
-5630,16	171,00
-5614,92	101,00
-5599,71	210,00
-5584,53	220,00
-5569,37	99,00
-5554,24	302,00
-5539,14	162,00
-5524,06	132,00
-5509,01	72,00
-5493,98	168,00
-5478,98	-40,00
-5464,00	49,00
-5449,05	186,00
-5434,13	63,00
-5419,23	132,00
-5404,36	145,00
-5389,51	221,00
-5374,69	141,00
-5359,89	244,00
-5345,12	217,00
-5330,37	257,00
-5315,65	256,00
-5300,95	310,00
-5286,28	254,00
-5271,63	119,00
-5257,01	154,00
-5242,41	122,00
-5227,84	61,00
-5213,29	156,00
-5198,76	15,00
-5184,26	150,00
-5169,79	52,00
-5155,33	109,00
-5140,91	71,00
-5126,51	181,00
-5112,13	200,00
-5097,77	229,00
-5083,44	209,00
-5069,13	226,00
-5054,85	126,00
-5040,59	177,00
-5026,36	84,00
-5012,15	104,00
-4997,96	91,00
-4983,80	107,00
-4969,66	11,00
-4955,54	233,00
-4941,44	133,00
-4927,37	228,00
-4913,33	232,00
-4899,30	229,00
-4885,30	326,00
-4871,33	238,00
-4857,37	284,00
-4843,44	167,00
-4829,53	251,00
-4815,65	207,00
-4801,79	66,00
-4787,95	80,00
-4774,13	179,00
-4760,34	242,00
-4746,56	113,00
-4732,82	181,00
-4719,09	183,00
-4705,38	159,00
-4691,70	191,00
-4678,04	274,00
-4664,41	251,00
-4650,79	430,00
-4637,20	316,00
-4623,63	154,00
-4610,08	222,00
-4596,56	201,00
-4583,05	202,00
-4569,57	277,00
-4556,11	205,00
-4542,67	273,00
-4529,25	77,00
-4515,86	162,00
-4502,49	278,00
-4489,13	272,00
-4475,80	245,00
-4462,49	311,00
-4449,21	194,00
-4435,94	211,00
-4422,70	258,00
-4409,47	232,00
-4396,27	229,00
-4383,09	199,00
-4369,93	143,00
-4356,79	184,00
-4343,67	128,00
-4330,58	152,00
-4317,50	133,00
-4304,45	221,00
-4291,41	214,00
-4278,40	287,00
-4265,41	365,00
-4252,44	335,00
-4239,49	255,00
-4226,55	208,00
-4213,65	153,00
-4200,76	225,00
-4187,89	278,00
-4175,04	95,00
-4162,21	272,00
-4149,40	215,00
-4136,61	143,00
-4123,85	296,00
-4111,10	139,00
-4098,37	260,00
-4085,66	220,00
-4072,98	125,00
-4060,31	192,00
-4047,66	280,00
-4035,04	364,00
-4022,43	165,00
-4009,84	348,00
-3997,27	112,00
-3984,72	250,00
-3972,19	295,00
-3959,69	129,00
-3947,20	199,00
-3934,73	190,00
-3922,27	168,00
-3909,84	184,00
-3897,43	343,00
-3885,04	185,00
-3872,67	247,00
-3860,31	268,00
-3847,98	168,00
-3835,66	237,00
-3823,36	151,00
-3811,09	177,00
-3798,83	212,00
-3786,59	153,00
-3774,37	172,00
-3762,17	206,00
-3749,98	183,00
-3737,82	331,00
-3725,67	311,00
-3713,55	275,00
-3701,44	108,00
-3689,35	232,00
-3677,28	207,00
-3665,22	196,00
-3653,19	178,00
-3641,17	178,00
-3629,18	234,00
-3617,20	327,00
-3605,24	232,00
-3593,30	176,00
-3581,37	159,00
-3569,47	195,00
-3557,58	330,00
-3545,71	216,00
-3533,86	299,00
-3522,02	143,00
-3510,21	130,00
-3498,41	186,00
-3486,63	268,00
-3474,87	313,00
-3463,12	122,00
-3451,40	163,00
-3439,69	215,00
-3428,00	231,00
-3416,33	338,00
-3404,67	115,00
-3393,03	409,00
-3381,41	178,00
-3369,81	202,00
-3358,22	262,00
-3346,66	219,00
-3335,10	262,00
-3323,57	242,00
-3312,06	166,00
-3300,56	242,00
-3289,08	329,00
-3277,61	291,00
-3266,16	315,00
-3254,73	220,00
-3243,32	203,00
-3231,92	219,00
-3220,55	227,00
-3209,18	182,00
-3197,84	137,00
-3186,51	196,00
-3175,20	227,00
-3163,90	156,00
-3152,63	254,00
-3141,36	278,00
-3130,12	216,00
-3118,89	292,00
-3107,68	217,00
-3096,49	267,00
-3085,31	231,00
-3074,15	187,00
-3063,00	262,00
-3051,87	211,00
-3040,76	52,00
-3029,67	179,00
-3018,59	306,00
-3007,52	151,00
-2996,48	138,00
-2985,44	290,00
-2974,43	236,00
-2963,43	215,00
-2952,45	189,00
-2941,48	132,00
-2930,53	217,00
-2919,60	274,00
-2908,68	297,00
-2897,78	212,00
-2886,89	155,00
-2876,02	153,00
-2865,17	222,00
-2854,33	333,00
-2843,50	349,00
-2832,70	285,00
-2821,90	229,00
-2811,13	217,00
-2800,37	135,00
-2789,62	350,00
-2778,89	183,00
-2768,18	308,00
-2757,48	277,00
-2746,80	222,00
-2736,13	162,00
-2725,48	121,00
-2714,84	288,00
-2704,22	169,00
-2693,61	227,00
-2683,02	277,00
-2672,45	258,00
-2661,89	173,00
-2651,34	128,00
-2640,81	139,00
-2630,30	322,00
-2619,80	135,00
-2609,31	270,00
-2598,84	252,00
-2588,39	213,00
-2577,95	180,00
-2567,52	224,00
-2557,11	245,00
-2546,71	261,00
-2536,33	184,00
-2525,97	194,00
-2515,62	208,00
-2505,28	281,00
-2494,96	122,00
-2484,65	291,00
-2474,36	321,00
-2464,08	240,00
-2453,82	211,00
-2443,57	234,00
-2433,33	278,00
-2423,11	257,00
-2412,91	288,00
-2402,72	232,00
-2392,54	169,00
-2382,38	206,00
-2372,23	175,00
-2362,09	641,00
-2351,97	165,00
-2341,87	257,00
-2331,78	276,00
-2321,70	202,00
-2311,64	298,00
-2301,59	163,00
-2291,55	302,00
-2281,53	342,00
-2271,53	221,00
-2261,53	297,00
-2251,55	316,00
-2241,59	196,00
-2231,64	365,00
-2221,70	252,00
-2211,78	173,00
-2201,87	132,00
-2191,97	198,00
-2182,09	219,00
-2172,22	228,00
-2162,37	207,00
-2152,53	180,00
-2142,70	245,00
-2132,89	262,00
-2123,09	112,00
-2113,30	204,00
-2103,53	203,00
-2093,77	237,00
-2084,02	190,00
-2074,29	191,00
-2064,57	322,00
-2054,86	176,00
-2045,17	312,00
-2035,49	283,00
-2025,82	172,00
-2016,17	268,00
-2006,53	216,00
-1996,91	360,00
-1987,29	154,00
-1977,69	348,00
-1968,11	316,00
-1958,53	238,00
-1948,97	183,00
-1939,42	217,00
-1929,89	303,00
-1920,37	232,00
-1910,86	182,00
-1901,36	117,00
-1891,88	193,00
-1882,41	206,00
-1872,95	203,00
-1863,51	134,00
-1854,08	298,00
-1844,66	224,00
-1835,26	306,00
-1825,86	267,00
-1816,48	231,00
-1807,11	172,00
-1797,76	199,00
-1788,42	225,00
-1779,09	224,00
-1769,77	192,00
-1760,47	342,00
-1751,17	78,00
-1741,89	193,00
-1732,63	221,00
-1723,37	346,00
-1714,13	259,00
-1704,90	204,00
-1695,68	302,00
-1686,48	214,00
-1677,29	300,00
-1668,11	209,00
-1658,94	300,00
-1649,78	147,00
-1640,64	244,00
-1631,51	238,00
-1622,39	199,00
-1613,28	240,00
-1604,19	264,00
-1595,10	256,00
-1586,03	118,00
-1576,97	192,00
-1567,93	235,00
-1558,89	244,00
-1549,87	316,00
-1540,86	62,00
-1531,86	196,00
-1522,87	306,00
-1513,90	258,00
-1504,93	197,00
-1495,98	362,00
-1487,04	210,00
-1478,12	130,00
-1469,20	227,00
-1460,30	242,00
-1451,40	218,00
-1442,52	242,00
-1433,65	256,00
-1424,80	259,00
-1415,95	230,00
-1407,12	234,00
-1398,30	88,00
-1389,48	251,00
-1380,69	151,00
-1371,90	157,00
-1363,12	249,00
-1354,36	294,00
-1345,60	243,00
-1336,86	108,00
-1328,13	319,00
-1319,41	171,00
-1310,70	137,00
-1302,01	328,00
-1293,32	198,00
-1284,65	254,00
-1275,99	207,00
-1267,33	185,00
-1258,69	183,00
-1250,06	227,00
-1241,45	142,00
-1232,84	198,00
-1224,25	252,00
-1215,66	224,00
-1207,09	206,00
-1198,53	199,00
-1189,97	311,00
-1181,43	122,00
-1172,91	126,00
-1164,39	249,00
-1155,88	163,00
-1147,38	215,00
-1138,90	255,00
-1130,43	211,00
-1121,96	226,00
-1113,51	270,00
-1105,07	232,00
-1096,64	247,00
-1088,22	262,00
-1079,81	138,00
-1071,41	263,00
-1063,02	125,00
-1054,65	298,00
-1046,28	227,00
-1037,92	227,00
-1029,58	216,00
-1021,24	233,00
-1012,92	296,00
-1004,61	177,00
-996,30	313,00
-988,01	126,00
-979,73	172,00
-971,46	98,00
-963,20	133,00
-954,95	141,00
-946,71	217,00
-938,48	146,00
-930,26	258,00
-922,06	231,00
-913,86	143,00
-905,67	209,00
-897,49	257,00
-889,33	214,00
-881,17	274,00
-873,02	335,00
-864,89	196,00
-856,76	160,00
-848,65	193,00
-840,54	213,00
-832,45	173,00
-824,36	141,00
-816,29	160,00
-808,22	262,00
-800,17	282,00
-792,12	192,00
-784,09	205,00
-776,06	120,00
-768,05	302,00
-760,04	200,00
-752,05	301,00
-744,07	195,00
-736,09	215,00
-728,13	197,00
-720,17	288,00
-712,23	85,00
-704,29	213,00
-696,37	230,00
-688,45	194,00
-680,55	233,00
-672,65	169,00
-664,77	182,00
-656,89	225,00
-649,03	205,00
-641,17	168,00
-633,32	139,00
-625,49	144,00
-617,66	152,00
-609,84	236,00
-602,03	188,00
-594,23	254,00
-586,45	195,00
-578,67	322,00
-570,90	244,00
-563,14	304,00
-555,39	177,00
-547,65	182,00
-539,91	383,00
-532,19	184,00
-524,48	109,00
-516,78	134,00
-509,08	228,00
-501,40	294,00
-493,72	257,00
-486,06	145,00
-478,40	197,00
-470,76	184,00
-463,12	166,00
-455,49	116,00
-447,87	258,00
-440,26	256,00
-432,66	268,00
-425,07	326,00
-417,49	258,00
-409,92	179,00
-402,35	322,00
-394,80	261,00
-387,25	200,00
-379,72	204,00
-372,19	169,00
-364,67	287,00
-357,17	309,00
-349,67	302,00
-342,18	155,00
-334,69	247,00
-327,22	182,00
-319,76	235,00
-312,30	210,00
-304,86	268,00
-297,42	283,00
-290,00	255,00
-282,58	279,00
-275,17	306,00
-267,77	232,00
-260,37	349,00
-252,99	277,00
-245,62	278,00
-238,25	213,00
-230,90	226,00
-223,55	215,00
-216,21	276,00
-208,88	154,00
-201,56	357,00
-194,25	318,00
-186,94	395,00
-179,65	313,00
-172,36	299,00
-165,08	321,00
-157,81	317,00
-150,55	471,00
-143,30	402,00
-136,06	430,00
-128,82	485,00
-121,60	561,00
-114,38	505,00
-107,17	525,00
-99,97	570,00
-92,78	599,00
-85,60	656,00
-78,42	847,00
-71,25	924,00
-64,10	906,00
-56,95	1110,00
-49,81	1292,00
-42,67	1504,00
-35,55	1902,00
-28,43	2476,00
-21,33	4090,00
-14,23	13384,00
-7,14	56139,00
-0,05	55888,00
7,02	55558,00
14,09	41489,00
21,14	11032,00
28,19	4887,00
35,23	3186,00
42,27	2363,00
49,29	2038,00
56,31	1741,00
63,32	1393,00
70,32	1173,00
77,31	1094,00
84,29	974,00
91,27	944,00
98,23	827,00
105,19	841,00
112,14	887,00
119,09	1367,00
126,02	2066,00
132,95	2525,00
139,87	2557,00
146,78	2624,00
153,68	2737,00
160,58	2638,00
167,46	2461,00
174,34	2492,00
181,21	2597,00
188,08	2580,00
194,93	2503,00
201,78	2584,00
208,62	2536,00
215,45	2566,00
222,27	2506,00
229,09	2703,00
235,90	2707,00
242,70	2541,00
249,49	2448,00
256,27	2457,00
263,05	2482,00
269,82	2553,00
276,58	2575,00
283,33	2538,00
290,08	2516,00
296,82	2498,00
303,55	2479,00
310,27	2389,00
316,98	2618,00
323,69	2428,00
330,39	2472,00
337,08	2460,00
343,76	2443,00
350,44	2392,00
357,11	2454,00
363,77	2421,00
370,42	2440,00
377,07	2443,00
383,71	2523,00
390,34	2529,00
396,96	2464,00
403,58	2529,00
410,19	2583,00
416,79	2555,00
423,38	2587,00
429,97	2511,00
436,55	2504,00
443,12	2420,00
449,68	2440,00
456,24	2488,00
462,79	2497,00
469,33	2453,00
475,86	2537,00
482,39	2355,00
488,91	2649,00
495,42	2513,00
501,93	2450,00
508,42	2509,00
514,91	2339,00
521,40	2559,00
527,87	2339,00
534,34	2527,00
540,80	2401,00
547,25	2605,00
553,70	2555,00
560,14	2466,00
566,57	2534,00
573,00	2568,00
579,41	2539,00
585,83	2518,00
592,23	2407,00
598,62	2517,00
605,01	2508,00
611,40	2594,00
617,77	2550,00
624,14	2486,00
630,50	2402,00
636,85	2486,00
643,20	2498,00
649,54	2444,00
655,87	2437,00
662,20	2556,00
668,52	2452,00
674,83	2466,00
681,13	2452,00
687,43	2491,00
693,72	2525,00
700,00	2541,00
706,28	2334,00
712,55	2671,00
718,81	2596,00
725,07	2401,00
731,32	2446,00
737,56	2530,00
743,79	2540,00
750,02	2731,00
756,24	2526,00
762,46	2614,00
768,67	2553,00
774,87	2630,00
781,06	2610,00
787,25	2668,00
793,43	2525,00
799,60	2467,00
805,77	2446,00
811,93	2594,00
818,08	2566,00
824,23	2525,00
830,37	2784,00
836,50	2678,00
842,63	2573,00
848,75	2569,00
854,87	2619,00
860,97	2614,00
867,07	2580,00
873,17	2606,00
879,25	2576,00
885,33	2639,00
891,41	2549,00
897,47	2617,00
903,53	2715,00
909,59	2695,00
915,63	2659,00
921,67	2775,00
927,71	2618,00
933,74	2666,00
939,76	2613,00
945,77	2568,00
951,78	2486,00
957,78	2588,00
963,78	2606,00
969,77	2692,00
975,75	2732,00
981,72	2754,00
987,69	2791,00
993,66	2713,00
999,61	2633,00
1005,56	2669,00
1011,51	2545,00
1017,44	2628,00
1023,37	2668,00
1029,30	2853,00
1035,22	2677,00
1041,13	2628,00
1047,03	2724,00
1052,93	2878,00
1058,83	3072,00
1064,71	3384,00
1070,59	3167,00
1076,47	2956,00
1082,33	2948,00
1088,20	2841,00
1094,05	2787,00
1099,90	2806,00
1105,74	2970,00
1111,58	2750,00
1117,41	2971,00
1123,23	3288,00
1129,05	3345,00
1134,86	3303,00
1140,67	3066,00
1146,47	3078,00
1152,26	2900,00
1158,05	2884,00
1163,83	2929,00
1169,60	2982,00
1175,37	2920,00
1181,13	2856,00
1186,89	2861,00
1192,64	2809,00
1198,38	2779,00
1204,12	2772,00
1209,85	2796,00
1215,58	2968,00
1221,30	2929,00
1227,02	2867,00
1232,72	3054,00
1238,43	2848,00
1244,12	2947,00
1249,81	2962,00
1255,50	2833,00
1261,17	2971,00
1266,85	2981,00
1272,51	2882,00
1278,17	2999,00
1283,83	3078,00
1289,47	3499,00
1295,12	3820,00
1300,75	3615,00
1306,38	3442,00
1312,01	3164,00
1317,63	2960,00
1323,24	3010,00
1328,85	3011,00
1334,45	2992,00
1340,04	2955,00
1345,63	2936,00
1351,22	3023,00
1356,80	3038,00
1362,37	2945,00
1367,93	3034,00
1373,49	2972,00
1379,05	3024,00
1384,60	3067,00
1390,14	3038,00
1395,68	3065,00
1401,21	3038,00
1406,74	3016,00
1412,26	3303,00
1417,77	3316,00
1423,28	3398,00
1428,78	3312,00
1434,28	3546,00
1439,77	3786,00
1445,26	3801,00
1450,74	3644,00
1456,22	3624,00
1461,68	3518,00
1467,15	3367,00
1472,61	3309,00
1478,06	3251,00
1483,51	3028,00
1488,95	3099,00
1494,38	2996,00
1499,81	2783,00
1505,24	2963,00
1510,65	2834,00
1516,07	2845,00
1521,48	2970,00
1526,88	2840,00
1532,27	2799,00
1537,67	2845,00
1543,05	2958,00
1548,43	2825,00
1553,81	2774,00
1559,18	2865,00
1564,54	2803,00
1569,90	2933,00
1575,25	2737,00
1580,60	2764,00
1585,94	2748,00
1591,28	2875,00
1596,61	2715,00
1601,93	2685,00
1607,25	2850,00
1612,57	2738,00
1617,88	2775,00
1623,18	2728,00
1628,48	2685,00
1633,77	2809,00
1639,06	2705,00
1644,34	2689,00
1649,62	2668,00
1654,89	2618,00
1660,16	2681,00
1665,42	2708,00
1670,67	2748,00
1675,92	2641,00
1681,17	2638,00
1686,41	2622,00
1691,64	2719,00
1696,87	2633,00
1702,10	2561,00
1707,32	2561,00
1712,53	2616,00
1717,74	2666,00
1722,94	2681,00
1728,14	2608,00
1733,33	2647,00
1738,52	2551,00
1743,70	2613,00
1748,88	2704,00
1754,05	2512,00
1759,22	2606,00
1764,38	1117,00
1769,53	2703,00
1774,69	2528,00
1779,83	2456,00
1784,97	2524,00
1790,11	2487,00
1795,24	2481,00
1800,36	2460,00
1805,48	2412,00
1810,60	2504,00
1815,71	2507,00
1820,82	2377,00
1825,92	2473,00
1831,01	2450,00
1836,10	2489,00
1841,19	2558,00
1846,26	2412,00
1851,34	2393,00
1856,41	2505,00
1861,47	2541,00
1866,53	2342,00
1871,59	2347,00
1876,64	2371,00
1881,68	2442,00
1886,72	2339,00
1891,76	2288,00
1896,79	2418,00
1901,81	2448,00
1906,83	2432,00
1911,85	2287,00
1916,86	2289,00
1921,86	2338,00
1926,86	2287,00
1931,86	2230,00
1936,85	2216,00
1941,83	2215,00
1946,81	2210,00
1951,79	2259,00
1956,76	2220,00
1961,72	2063,00
1966,68	2173,00
1971,64	2204,00
1976,59	2187,00
1981,54	2166,00
1986,48	2178,00
1991,42	2144,00
1996,35	2157,00
2001,27	2156,00
2006,20	2298,00
2011,11	2175,00
2016,03	2144,00
2020,93	2129,00
2025,84	2106,00
2030,73	2029,00
2035,63	2081,00
2040,52	2192,00
2045,40	2064,00
2050,28	2074,00
2055,15	1993,00
2060,02	2001,00
2064,89	2182,00
2069,75	2106,00
2074,60	2072,00
2079,46	2174,00
2084,30	2147,00
2089,14	2152,00
2093,98	1988,00
2098,81	2037,00
2103,64	2094,00
2108,46	2092,00
2113,28	2104,00
2118,09	1938,00
2122,90	2132,00
2127,70	1976,00
2132,50	2058,00
2137,30	2017,00
2142,09	1995,00
2146,87	2060,00
2151,66	2097,00
2156,43	1997,00
2161,20	2010,00
2165,97	2026,00
2170,73	1977,00
2175,49	1958,00
2180,24	2019,00
2184,99	1969,00
2189,74	2017,00
2194,48	1997,00
2199,21	2052,00
2203,94	1916,00
2208,67	1892,00
2213,39	1866,00
2218,11	1810,00
2222,82	1900,00
2227,53	1915,00
2232,23	1932,00
2236,93	2026,00
2241,63	1972,00
2246,32	1896,00
2251,00	1814,00
2255,68	1768,00
2260,36	1739,00
2265,03	1798,00
2269,70	1961,00
2274,36	1856,00
2279,02	1850,00
2283,68	1828,00
2288,33	1724,00
2292,97	1745,00
2297,61	1759,00
2302,25	1758,00
2306,88	1737,00
2311,51	1837,00
2316,14	1758,00
2320,75	1804,00
2325,37	1828,00
2329,98	1933,00
2334,59	1739,00
2339,19	1677,00
2343,79	1708,00
2348,38	1642,00
2352,97	1701,00
2357,55	1733,00
2362,13	1733,00
2366,71	1661,00
2371,28	1732,00
2375,85	1680,00
2380,41	1692,00
2384,97	1621,00
2389,52	1611,00
2394,07	1622,00
2398,62	1563,00
2403,16	1588,00
2407,70	1517,00
2412,23	1527,00
2416,76	1640,00
2421,29	1578,00
2425,81	1691,00
2430,32	1528,00
2434,84	1420,00
2439,34	1581,00
2443,85	1518,00
2448,35	1471,00
2452,84	1516,00
2457,33	1501,00
2461,82	1364,00
2466,30	1499,00
2470,78	1516,00
2475,25	1381,00
2479,72	1377,00
2484,19	1527,00
2488,65	1356,00
2493,11	1406,00
2497,56	1347,00
2502,01	1452,00
2506,46	1413,00
2510,90	1497,00
2515,34	1472,00
2519,77	1261,00
2524,20	1363,00
2528,62	1316,00
2533,04	1396,00
2537,46	1252,00
2541,87	1339,00
2546,28	1233,00
2550,68	1465,00
2555,08	1369,00
2559,48	1402,00
2563,87	1410,00
2568,26	1274,00
2572,64	1333,00
2577,02	1412,00
2581,40	1291,00
2585,77	1231,00
2590,14	1239,00
2594,50	1202,00
2598,86	1246,00
2603,22	1191,00
2607,57	1231,00
2611,92	1235,00
2616,26	1216,00
2620,60	1230,00
2624,94	1197,00
2629,27	1252,00
2633,60	1103,00
2637,92	1288,00
2642,24	1321,00
2646,56	1270,00
2650,87	1089,00
2655,18	1053,00
2659,48	1212,00
2663,78	1233,00
2668,08	1154,00
2672,37	1163,00
2676,66	1298,00
2680,95	1158,00
2685,23	1046,00
2689,50	1149,00
2693,78	1085,00
2698,05	1209,00
2702,31	1177,00
2706,57	1213,00
2710,83	1113,00
2715,08	1168,00
2719,33	1285,00
2723,58	1176,00
2727,82	1240,00
2732,06	1277,00
2736,29	1120,00
2740,53	1192,00
2744,75	1004,00
2748,97	1214,00
2753,19	1184,00
2757,41	1132,00
2761,62	1024,00
2765,83	1101,00
2770,03	1152,00
2774,23	1065,00
2778,43	1083,00
2782,62	1130,00
2786,81	1138,00
2791,00	1012,00
2795,18	1021,00
2799,35	1204,00
2803,53	1117,00
2807,70	1042,00
2811,86	1156,00
2816,03	1161,00
2820,19	1169,00
2824,34	1243,00
2828,49	1289,00
2832,64	1463,00
2836,78	1511,00
2840,92	1724,00
2845,06	1805,00
2849,19	2039,00
2853,32	2032,00
2857,45	2066,00
2861,57	2002,00
2865,69	1989,00
2869,80	1894,00
2873,91	1902,00
2878,02	2081,00
2882,12	2302,00
2886,22	2167,00
2890,32	1993,00
2894,41	2056,00
2898,50	1890,00
2902,58	1602,00
2906,67	1651,00
2910,74	1571,00
2914,82	1512,00
2918,89	1561,00
2922,96	1321,00
2927,02	1203,00
2931,08	1155,00
2935,13	1310,00
2939,19	1191,00
2943,24	1172,00
2947,28	1042,00
2951,32	963,00
2955,36	951,00
2959,40	992,00
2963,43	1056,00
2967,46	907,00
2971,48	888,00
2975,50	813,00
2979,52	809,00
2983,53	820,00
2987,54	825,00
2991,55	851,00
2995,55	859,00
2999,55	724,00
3003,54	806,00
3007,54	738,00
3011,53	635,00
3015,51	731,00
3019,49	787,00
3023,47	737,00
3027,45	717,00
3031,42	746,00
3035,39	741,00
3039,35	645,00
3043,31	603,00
3047,27	738,00
3051,22	661,00
3055,17	576,00
3059,12	677,00
3063,06	753,00
3067,00	641,00
3070,94	483,00
3074,87	740,00
3078,80	650,00
3082,73	548,00
3086,65	638,00
3090,57	704,00
3094,49	532,00
3098,40	601,00
3102,31	571,00
3106,22	546,00
3110,12	674,00
3114,02	599,00
3117,92	627,00
3121,81	590,00
3125,70	582,00
3129,58	453,00
3133,47	514,00
3137,34	561,00
3141,22	435,00
3145,09	601,00
3148,96	540,00
3152,83	427,00
3156,69	571,00
3160,55	516,00
3164,40	437,00
3168,26	472,00
3172,10	519,00
3175,95	470,00
3179,79	428,00
3183,63	470,00
3187,47	619,00
3191,30	536,00
3195,13	573,00
3198,95	514,00
3202,78	546,00
3206,60	416,00
3210,41	357,00
3214,23	428,00
3218,03	513,00
3221,84	477,00
3225,64	491,00
3229,44	411,00
3233,24	490,00
3237,03	490,00
3240,82	376,00
3244,61	528,00
3248,39	386,00
3252,17	457,00
3255,95	391,00
3259,72	490,00
3263,49	548,00
3267,26	418,00
3271,03	328,00
3274,79	433,00
3278,54	491,00
3282,30	345,00
3286,05	346,00
3289,80	417,00
3293,54	442,00
3297,29	347,00
3301,02	324,00
3304,76	417,00
3308,49	487,00
3312,22	318,00
3315,95	487,00
3319,67	407,00
3323,39	537,00
3327,10	418,00
3330,82	332,00
3334,53	375,00
3338,24	352,00
3341,94	369,00
3345,64	425,00
3349,34	353,00
3353,03	328,00
3356,72	287,00
3360,41	457,00
3364,10	248,00
3367,78	444,00
3371,46	320,00
3375,13	357,00
3378,81	376,00
3382,48	426,00
3386,14	289,00
3389,81	469,00
3393,47	377,00
3397,12	360,00
3400,78	483,00
3404,43	385,00
3408,08	405,00
3411,72	311,00
3415,36	379,00
3419,00	333,00
3422,64	279,00
3426,27	456,00
3429,90	321,00
3433,53	288,00
3437,15	274,00
3440,77	345,00
3444,39	397,00
3448,00	347,00
3451,62	390,00
3455,22	315,00
3458,83	315,00
3462,43	325,00
3466,03	342,00
3469,63	271,00
3473,22	323,00
3476,81	354,00
3480,40	396,00
3483,99	309,00
3487,57	262,00
3491,15	239,00
3494,72	351,00
3498,29	397,00
3501,86	252,00
3505,43	212,00
3508,99	187,00
3512,56	173,00
3516,11	266,00
3519,67	192,00
3523,22	364,00
3526,77	336,00
3530,32	208,00
3533,86	288,00
3537,40	366,00
3540,94	207,00
3544,47	182,00
3548,00	267,00
3551,53	254,00
3555,06	275,00
3558,58	266,00
3562,10	230,00
3565,62	266,00
3569,13	356,00
3572,64	247,00
3576,15	306,00
3579,66	294,00
3583,16	270,00
3586,66	372,00
3590,16	337,00
3593,65	302,00
3597,14	286,00
3600,63	266,00
3604,11	185,00
3607,60	273,00
3611,08	249,00
3614,55	156,00
3618,03	273,00
3621,50	282,00
3624,97	178,00
3628,43	233,00
3631,90	323,00
3635,36	237,00
3638,81	238,00
3642,27	266,00
3645,72	273,00
3649,17	235,00
3652,61	256,00
3656,06	234,00
3659,50	226,00
3662,93	285,00
3666,37	342,00
3669,80	270,00
3673,23	199,00
3676,65	347,00
3680,08	214,00
3683,50	160,00
3686,92	276,00
3690,33	151,00
3693,74	341,00
3697,15	211,00
3700,56	215,00
3703,96	145,00
3707,36	248,00
3710,76	205,00
3714,16	213,00
3717,55	202,00
3720,94	142,00
3724,33	224,00
3727,71	271,00
3731,10	94,00
3734,48	158,00
3737,85	195,00
3741,23	260,00
3744,60	132,00
3747,97	185,00
3751,33	231,00
3754,69	270,00
3758,05	127,00
3761,41	237,00
3764,77	103,00
3768,12	296,00
3771,47	191,00
3774,82	321,00
3778,16	-14,00
3781,50	0,00
3784,84	2,00
3788,18	-3,00
>>>>>End Processed Spectral Data<<<<<
