SpectraSuite Data File
++++++++++++++++++++++++++++++++++++
Date: Mon Mar 09 14:38:47 ICT 2026
User: Administrator
Dark Spectrum Present: Yes
Reference Spectrum Present: No
Number of Sampled Component Spectra: 1
Spectrometers: MAYP113682
Integration Time (usec): 3000000 (MAYP113682)
Spectra Averaged: 1 (MAYP113682)
Boxcar Smoothing: 0 (MAYP113682)
Correct for Electrical Dark: No (MAYP113682)
Strobe/Lamp Enabled: No (MAYP113682)
Correct for Detector Non-linearity: No (MAYP113682)
Correct for Stray Light: No (MAYP113682)
Number of Pixels in Processed Spectrum: 2068
>>>>>Begin Processed Spectral Data<<<<<
-37534,58	18,00
-37414,56	-8,00
-37295,11	0,00
-37176,24	-1,00
-37057,95	212,00
-36940,22	243,00
-36823,05	333,00
-36706,45	353,00
-36590,40	171,00
-36474,90	289,00
-36359,95	259,00
-36245,55	298,00
-36131,68	295,00
-36018,35	199,00
-35905,55	214,00
-35793,29	280,00
-35681,54	227,00
-35570,32	202,00
-35459,62	260,00
-35349,43	301,00
-35239,75	179,00
-35130,58	260,00
-35021,91	197,00
-34913,74	323,00
-34806,07	205,00
-34698,89	301,00
-34592,20	306,00
-34486,00	297,00
-34380,28	239,00
-34275,04	205,00
-34170,27	322,00
-34065,98	192,00
-33962,16	224,00
-33858,81	226,00
-33755,92	242,00
-33653,49	339,00
-33551,52	279,00
-33450,01	177,00
-33348,94	147,00
-33248,33	265,00
-33148,16	247,00
-33048,43	316,00
-32949,14	288,00
-32850,29	268,00
-32751,87	287,00
-32653,89	278,00
-32556,33	273,00
-32459,20	260,00
-32362,49	278,00
-32266,19	200,00
-32170,32	192,00
-32074,86	307,00
-31979,82	323,00
-31885,18	316,00
-31790,95	384,00
-31697,12	208,00
-31603,69	316,00
-31510,67	308,00
-31418,04	217,00
-31325,80	339,00
-31233,95	313,00
-31142,49	258,00
-31051,42	337,00
-30960,73	280,00
-30870,43	288,00
-30780,50	236,00
-30690,95	315,00
-30601,77	341,00
-30512,97	193,00
-30424,53	240,00
-30336,46	340,00
-30248,76	334,00
-30161,42	203,00
-30074,44	237,00
-29987,81	313,00
-29901,55	367,00
-29815,63	277,00
-29730,07	213,00
-29644,86	365,00
-29560,00	272,00
-29475,48	221,00
-29391,30	376,00
-29307,47	212,00
-29223,97	252,00
-29140,81	234,00
-29057,99	319,00
-28975,50	261,00
-28893,34	385,00
-28811,51	283,00
-28730,00	254,00
-28648,82	242,00
-28567,97	262,00
-28487,43	275,00
-28407,21	264,00
-28327,32	219,00
-28247,73	328,00
-28168,46	300,00
-28089,50	297,00
-28010,85	190,00
-27932,51	242,00
-27854,48	350,00
-27776,75	250,00
-27699,32	317,00
-27622,19	281,00
-27545,37	296,00
-27468,84	277,00
-27392,60	344,00
-27316,66	220,00
-27241,01	233,00
-27165,66	363,00
-27090,59	308,00
-27015,81	256,00
-26941,31	249,00
-26867,10	252,00
-26793,17	271,00
-26719,52	278,00
-26646,15	283,00
-26573,06	326,00
-26500,24	229,00
-26427,70	203,00
-26355,43	295,00
-26283,43	314,00
-26211,71	267,00
-26140,25	300,00
-26069,06	404,00
-25998,13	190,00
-25927,46	221,00
-25857,06	297,00
-25786,92	192,00
-25717,04	295,00
-25647,42	241,00
-25578,05	256,00
-25508,94	253,00
-25440,09	239,00
-25371,48	248,00
-25303,13	269,00
-25235,02	179,00
-25167,17	285,00
-25099,56	280,00
-25032,19	307,00
-24965,07	298,00
-24898,20	230,00
-24831,56	291,00
-24765,17	253,00
-24699,01	203,00
-24633,10	205,00
-24567,41	211,00
-24501,97	288,00
-24436,75	273,00
-24371,77	293,00
-24307,03	231,00
-24242,51	166,00
-24178,22	346,00
-24114,16	173,00
-24050,32	226,00
-23986,71	241,00
-23923,32	313,00
-23860,16	226,00
-23797,22	198,00
-23734,50	274,00
-23672,00	300,00
-23609,71	171,00
-23547,65	235,00
-23485,80	278,00
-23424,16	230,00
-23362,74	342,00
-23301,53	153,00
-23240,54	262,00
-23179,75	288,00
-23119,17	285,00
-23058,80	285,00
-22998,64	232,00
-22938,68	256,00
-22878,93	226,00
-22819,39	280,00
-22760,04	302,00
-22700,90	192,00
-22641,96	263,00
-22583,22	280,00
-22524,68	372,00
-22466,33	192,00
-22408,19	275,00
-22350,23	325,00
-22292,48	338,00
-22234,92	238,00
-22177,55	264,00
-22120,37	303,00
-22063,38	266,00
-22006,58	228,00
-21949,98	270,00
-21893,56	159,00
-21837,33	279,00
-21781,28	277,00
-21725,42	279,00
-21669,74	274,00
-21614,25	247,00
-21558,94	176,00
-21503,81	253,00
-21448,86	301,00
-21394,10	285,00
-21339,51	345,00
-21285,10	189,00
-21230,86	251,00
-21176,81	286,00
-21122,93	259,00
-21069,22	327,00
-21015,69	258,00
-20962,33	287,00
-20909,14	293,00
-20856,13	235,00
-20803,28	255,00
-20750,61	202,00
-20698,10	205,00
-20645,76	341,00
-20593,59	321,00
-20541,59	277,00
-20489,75	318,00
-20438,07	201,00
-20386,56	351,00
-20335,22	235,00
-20284,03	252,00
-20233,01	299,00
-20182,15	186,00
-20131,45	165,00
-20080,91	249,00
-20030,52	187,00
-19980,30	118,00
-19930,23	229,00
-19880,32	323,00
-19830,56	295,00
-19780,96	197,00
-19731,52	327,00
-19682,23	238,00
-19633,09	206,00
-19584,10	227,00
-19535,26	275,00
-19486,58	235,00
-19438,04	197,00
-19389,66	181,00
-19341,42	222,00
-19293,33	281,00
-19245,39	248,00
-19197,60	212,00
-19149,95	295,00
-19102,45	284,00
-19055,09	210,00
-19007,87	296,00
-18960,80	289,00
-18913,87	278,00
-18867,09	298,00
-18820,44	288,00
-18773,94	272,00
-18727,57	261,00
-18681,35	206,00
-18635,26	331,00
-18589,31	218,00
-18543,50	205,00
-18497,83	316,00
-18452,29	248,00
-18406,89	278,00
-18361,63	323,00
-18316,50	293,00
-18271,50	251,00
-18226,63	234,00
-18181,90	318,00
-18137,30	329,00
-18092,84	274,00
-18048,50	299,00
-18004,29	203,00
-17960,22	258,00
-17916,27	292,00
-17872,45	259,00
-17828,76	340,00
-17785,20	300,00
-17741,77	312,00
-17698,46	264,00
-17655,28	250,00
-17612,22	249,00
-17569,29	283,00
-17526,48	270,00
-17483,79	237,00
-17441,23	257,00
-17398,79	179,00
-17356,48	236,00
-17314,28	286,00
-17272,21	253,00
-17230,26	185,00
-17188,42	162,00
-17146,71	210,00
-17105,12	263,00
-17063,64	220,00
-17022,28	249,00
-16981,04	265,00
-16939,92	272,00
-16898,91	343,00
-16858,02	307,00
-16817,25	178,00
-16776,59	159,00
-16736,04	264,00
-16695,61	214,00
-16655,29	281,00
-16615,09	308,00
-16574,99	277,00
-16535,01	294,00
-16495,15	218,00
-16455,39	301,00
-16415,74	223,00
-16376,21	180,00
-16336,78	200,00
-16297,46	290,00
-16258,26	288,00
-16219,16	336,00
-16180,17	273,00
-16141,28	284,00
-16102,51	292,00
-16063,84	247,00
-16025,27	352,00
-15986,82	185,00
-15948,46	231,00
-15910,22	339,00
-15872,07	283,00
-15834,04	235,00
-15796,10	284,00
-15758,27	358,00
-15720,54	228,00
-15682,91	217,00
-15645,39	284,00
-15607,97	331,00
-15570,64	201,00
-15533,42	265,00
-15496,30	303,00
-15459,28	250,00
-15422,36	218,00
-15385,54	215,00
-15348,82	231,00
-15312,19	216,00
-15275,66	166,00
-15239,23	231,00
-15202,90	252,00
-15166,67	197,00
-15130,53	231,00
-15094,48	318,00
-15058,54	342,00
-15022,68	214,00
-14986,93	286,00
-14951,26	295,00
-14915,69	206,00
-14880,22	154,00
-14844,84	187,00
-14809,55	276,00
-14774,35	151,00
-14739,25	417,00
-14704,24	284,00
-14669,32	245,00
-14634,49	284,00
-14599,75	280,00
-14565,10	219,00
-14530,55	285,00
-14496,08	294,00
-14461,70	207,00
-14427,41	208,00
-14393,21	244,00
-14359,10	178,00
-14325,07	344,00
-14291,14	226,00
-14257,29	267,00
-14223,52	232,00
-14189,85	257,00
-14156,26	264,00
-14122,76	230,00
-14089,34	304,00
-14056,01	223,00
-14022,76	323,00
-13989,60	339,00
-13956,52	255,00
-13923,53	267,00
-13890,62	223,00
-13857,79	242,00
-13825,05	267,00
-13792,39	222,00
-13759,81	268,00
-13727,31	254,00
-13694,90	169,00
-13662,57	241,00
-13630,31	297,00
-13598,14	299,00
-13566,05	292,00
-13534,05	298,00
-13502,12	185,00
-13470,27	266,00
-13438,50	279,00
-13406,80	287,00
-13375,19	211,00
-13343,66	288,00
-13312,20	311,00
-13280,83	181,00
-13249,53	229,00
-13218,30	272,00
-13187,16	176,00
-13156,09	310,00
-13125,10	291,00
-13094,18	322,00
-13063,34	330,00
-13032,58	230,00
-13001,89	315,00
-12971,28	319,00
-12940,74	312,00
-12910,27	298,00
-12879,88	224,00
-12849,57	244,00
-12819,33	144,00
-12789,16	221,00
-12759,06	144,00
-12729,04	329,00
-12699,09	618,00
-12669,21	216,00
-12639,41	237,00
-12609,68	286,00
-12580,02	179,00
-12550,43	295,00
-12520,91	249,00
-12491,46	262,00
-12462,08	253,00
-12432,77	199,00
-12403,54	243,00
-12374,37	295,00
-12345,27	338,00
-12316,24	275,00
-12287,29	349,00
-12258,40	264,00
-12229,57	265,00
-12200,82	320,00
-12172,14	202,00
-12143,52	264,00
-12114,97	209,00
-12086,49	216,00
-12058,07	247,00
-12029,73	248,00
-12001,44	316,00
-11973,23	279,00
-11945,08	264,00
-11917,00	247,00
-11888,98	269,00
-11861,03	248,00
-11833,15	283,00
-11805,32	244,00
-11777,57	236,00
-11749,88	215,00
-11722,25	241,00
-11694,69	256,00
-11667,19	287,00
-11639,75	121,00
-11612,38	291,00
-11585,07	251,00
-11557,83	300,00
-11530,65	301,00
-11503,53	295,00
-11476,47	371,00
-11449,48	274,00
-11422,54	284,00
-11395,67	232,00
-11368,86	267,00
-11342,11	287,00
-11315,43	247,00
-11288,80	239,00
-11262,23	312,00
-11235,73	271,00
-11209,28	235,00
-11182,90	174,00
-11156,57	352,00
-11130,31	290,00
-11104,10	285,00
-11077,96	329,00
-11051,87	273,00
-11025,84	251,00
-10999,87	261,00
-10973,96	286,00
-10948,11	214,00
-10922,31	245,00
-10896,58	315,00
-10870,90	357,00
-10845,28	291,00
-10819,71	223,00
-10794,20	219,00
-10768,75	272,00
-10743,36	314,00
-10718,02	283,00
-10692,74	216,00
-10667,52	247,00
-10642,35	297,00
-10617,24	324,00
-10592,18	324,00
-10567,18	151,00
-10542,23	258,00
-10517,34	299,00
-10492,51	353,00
-10467,72	215,00
-10443,00	264,00
-10418,32	332,00
-10393,70	278,00
-10369,14	181,00
-10344,63	288,00
-10320,17	243,00
-10295,77	274,00
-10271,42	306,00
-10247,12	264,00
-10222,88	326,00
-10198,68	211,00
-10174,54	222,00
-10150,46	226,00
-10126,42	238,00
-10102,44	291,00
-10078,51	265,00
-10054,63	309,00
-10030,80	228,00
-10007,03	356,00
-9983,30	274,00
-9959,63	220,00
-9936,01	320,00
-9912,44	298,00
-9888,92	355,00
-9865,44	219,00
-9842,02	306,00
-9818,65	261,00
-9795,33	330,00
-9772,06	234,00
-9748,84	216,00
-9725,67	303,00
-9702,55	158,00
-9679,47	375,00
-9656,45	209,00
-9633,47	224,00
-9610,55	374,00
-9587,67	412,00
-9564,84	391,00
-9542,06	292,00
-9519,32	299,00
-9496,64	391,00
-9474,00	206,00
-9451,41	417,00
-9428,87	363,00
-9406,37	311,00
-9383,92	333,00
-9361,52	214,00
-9339,17	355,00
-9316,86	231,00
-9294,60	260,00
-9272,38	479,00
-9250,21	251,00
-9228,09	315,00
-9206,01	330,00
-9183,98	317,00
-9162,00	231,00
-9140,06	288,00
-9118,16	197,00
-9096,31	439,00
-9074,51	325,00
-9052,75	399,00
-9031,04	437,00
-9009,37	250,00
-8987,74	203,00
-8966,16	213,00
-8944,63	146,00
-8923,14	203,00
-8901,69	231,00
-8880,29	267,00
-8858,93	357,00
-8837,61	426,00
-8816,34	385,00
-8795,11	272,00
-8773,92	460,00
-8752,78	397,00
-8731,68	319,00
-8710,62	201,00
-8689,61	197,00
-8668,63	239,00
-8647,70	445,00
-8626,82	333,00
-8605,97	348,00
-8585,17	340,00
-8564,41	268,00
-8543,69	300,00
-8523,01	276,00
-8502,37	342,00
-8481,78	337,00
-8461,23	145,00
-8440,71	221,00
-8420,24	248,00
-8399,81	395,00
-8379,42	305,00
-8359,08	438,00
-8338,77	300,00
-8318,50	405,00
-8298,27	216,00
-8278,09	355,00
-8257,94	180,00
-8237,83	267,00
-8217,76	396,00
-8197,74	344,00
-8177,75	282,00
-8157,80	391,00
-8137,89	406,00
-8118,02	300,00
-8098,19	373,00
-8078,40	341,00
-8058,65	236,00
-8038,93	496,00
-8019,26	382,00
-7999,62	366,00
-7980,02	334,00
-7960,46	285,00
-7940,94	264,00
-7921,46	326,00
-7902,01	277,00
-7882,60	387,00
-7863,23	301,00
-7843,90	364,00
-7824,61	322,00
-7805,35	370,00
-7786,13	365,00
-7766,95	320,00
-7747,80	290,00
-7728,69	390,00
-7709,62	309,00
-7690,59	284,00
-7671,59	378,00
-7652,63	317,00
-7633,70	354,00
-7614,81	360,00
-7595,96	321,00
-7577,15	273,00
-7558,37	332,00
-7539,62	225,00
-7520,91	267,00
-7502,24	353,00
-7483,60	443,00
-7465,00	354,00
-7446,44	385,00
-7427,91	347,00
-7409,41	337,00
-7390,95	323,00
-7372,53	297,00
-7354,14	248,00
-7335,78	308,00
-7317,46	225,00
-7299,18	324,00
-7280,92	291,00
-7262,71	385,00
-7244,52	250,00
-7226,38	357,00
-7208,26	321,00
-7190,18	395,00
-7172,14	352,00
-7154,12	353,00
-7136,15	314,00
-7118,20	264,00
-7100,29	324,00
-7082,41	396,00
-7064,57	288,00
-7046,76	334,00
-7028,98	227,00
-7011,24	486,00
-6993,53	192,00
-6975,85	175,00
-6958,20	211,00
-6940,59	200,00
-6923,01	131,00
-6905,46	320,00
-6887,94	259,00
-6870,46	406,00
-6853,01	361,00
-6835,59	307,00
-6818,21	288,00
-6800,85	390,00
-6783,53	239,00
-6766,24	239,00
-6748,98	307,00
-6731,76	202,00
-6714,56	187,00
-6697,40	207,00
-6680,26	256,00
-6663,16	205,00
-6646,09	250,00
-6629,05	272,00
-6612,05	291,00
-6595,07	200,00
-6578,13	261,00
-6561,21	286,00
-6544,33	259,00
-6527,47	258,00
-6510,65	334,00
-6493,86	265,00
-6477,10	173,00
-6460,36	232,00
-6443,66	136,00
-6426,99	269,00
-6410,35	248,00
-6393,74	320,00
-6377,16	200,00
-6360,61	188,00
-6344,09	232,00
-6327,59	197,00
-6311,13	128,00
-6294,70	252,00
-6278,29	343,00
-6261,92	304,00
-6245,58	201,00
-6229,26	384,00
-6212,97	205,00
-6196,72	327,00
-6180,49	223,00
-6164,29	209,00
-6148,12	329,00
-6131,98	205,00
-6115,86	223,00
-6099,78	204,00
-6083,72	193,00
-6067,69	230,00
-6051,69	294,00
-6035,72	300,00
-6019,78	227,00
-6003,87	315,00
-5987,98	170,00
-5972,12	315,00
-5956,29	280,00
-5940,49	270,00
-5924,71	301,00
-5908,96	225,00
-5893,24	272,00
-5877,55	173,00
-5861,89	318,00
-5846,25	155,00
-5830,64	222,00
-5815,05	168,00
-5799,50	225,00
-5783,97	302,00
-5768,47	293,00
-5752,99	313,00
-5737,55	235,00
-5722,12	223,00
-5706,73	299,00
-5691,36	229,00
-5676,02	130,00
-5660,71	308,00
-5645,42	168,00
-5630,16	212,00
-5614,92	278,00
-5599,71	114,00
-5584,53	248,00
-5569,37	221,00
-5554,24	951,00
-5539,14	266,00
-5524,06	369,00
-5509,01	216,00
-5493,98	261,00
-5478,98	242,00
-5464,00	259,00
-5449,05	108,00
-5434,13	247,00
-5419,23	274,00
-5404,36	151,00
-5389,51	208,00
-5374,69	296,00
-5359,89	209,00
-5345,12	276,00
-5330,37	363,00
-5315,65	316,00
-5300,95	290,00
-5286,28	218,00
-5271,63	167,00
-5257,01	310,00
-5242,41	323,00
-5227,84	218,00
-5213,29	217,00
-5198,76	322,00
-5184,26	184,00
-5169,79	198,00
-5155,33	239,00
-5140,91	304,00
-5126,51	289,00
-5112,13	306,00
-5097,77	321,00
-5083,44	259,00
-5069,13	201,00
-5054,85	312,00
-5040,59	156,00
-5026,36	402,00
-5012,15	243,00
-4997,96	236,00
-4983,80	219,00
-4969,66	248,00
-4955,54	211,00
-4941,44	291,00
-4927,37	300,00
-4913,33	302,00
-4899,30	162,00
-4885,30	231,00
-4871,33	300,00
-4857,37	309,00
-4843,44	252,00
-4829,53	324,00
-4815,65	289,00
-4801,79	269,00
-4787,95	195,00
-4774,13	188,00
-4760,34	139,00
-4746,56	296,00
-4732,82	254,00
-4719,09	240,00
-4705,38	227,00
-4691,70	317,00
-4678,04	183,00
-4664,41	231,00
-4650,79	254,00
-4637,20	285,00
-4623,63	286,00
-4610,08	304,00
-4596,56	335,00
-4583,05	271,00
-4569,57	183,00
-4556,11	287,00
-4542,67	223,00
-4529,25	206,00
-4515,86	356,00
-4502,49	254,00
-4489,13	254,00
-4475,80	270,00
-4462,49	254,00
-4449,21	386,00
-4435,94	262,00
-4422,70	334,00
-4409,47	228,00
-4396,27	230,00
-4383,09	215,00
-4369,93	234,00
-4356,79	276,00
-4343,67	294,00
-4330,58	215,00
-4317,50	198,00
-4304,45	249,00
-4291,41	213,00
-4278,40	222,00
-4265,41	223,00
-4252,44	235,00
-4239,49	263,00
-4226,55	204,00
-4213,65	350,00
-4200,76	325,00
-4187,89	212,00
-4175,04	308,00
-4162,21	197,00
-4149,40	300,00
-4136,61	204,00
-4123,85	239,00
-4111,10	277,00
-4098,37	353,00
-4085,66	237,00
-4072,98	305,00
-4060,31	203,00
-4047,66	245,00
-4035,04	314,00
-4022,43	218,00
-4009,84	309,00
-3997,27	250,00
-3984,72	340,00
-3972,19	284,00
-3959,69	183,00
-3947,20	302,00
-3934,73	286,00
-3922,27	229,00
-3909,84	333,00
-3897,43	239,00
-3885,04	269,00
-3872,67	222,00
-3860,31	304,00
-3847,98	252,00
-3835,66	277,00
-3823,36	215,00
-3811,09	253,00
-3798,83	276,00
-3786,59	357,00
-3774,37	274,00
-3762,17	188,00
-3749,98	291,00
-3737,82	141,00
-3725,67	272,00
-3713,55	225,00
-3701,44	290,00
-3689,35	223,00
-3677,28	251,00
-3665,22	261,00
-3653,19	240,00
-3641,17	234,00
-3629,18	223,00
-3617,20	249,00
-3605,24	200,00
-3593,30	309,00
-3581,37	220,00
-3569,47	350,00
-3557,58	304,00
-3545,71	231,00
-3533,86	285,00
-3522,02	279,00
-3510,21	288,00
-3498,41	254,00
-3486,63	289,00
-3474,87	307,00
-3463,12	258,00
-3451,40	247,00
-3439,69	297,00
-3428,00	318,00
-3416,33	282,00
-3404,67	285,00
-3393,03	275,00
-3381,41	303,00
-3369,81	244,00
-3358,22	318,00
-3346,66	264,00
-3335,10	281,00
-3323,57	211,00
-3312,06	269,00
-3300,56	269,00
-3289,08	181,00
-3277,61	328,00
-3266,16	291,00
-3254,73	279,00
-3243,32	276,00
-3231,92	216,00
-3220,55	243,00
-3209,18	295,00
-3197,84	266,00
-3186,51	301,00
-3175,20	223,00
-3163,90	229,00
-3152,63	304,00
-3141,36	253,00
-3130,12	254,00
-3118,89	267,00
-3107,68	323,00
-3096,49	317,00
-3085,31	291,00
-3074,15	274,00
-3063,00	249,00
-3051,87	291,00
-3040,76	330,00
-3029,67	247,00
-3018,59	394,00
-3007,52	228,00
-2996,48	347,00
-2985,44	160,00
-2974,43	189,00
-2963,43	266,00
-2952,45	190,00
-2941,48	253,00
-2930,53	424,00
-2919,60	210,00
-2908,68	229,00
-2897,78	284,00
-2886,89	298,00
-2876,02	246,00
-2865,17	199,00
-2854,33	228,00
-2843,50	170,00
-2832,70	139,00
-2821,90	292,00
-2811,13	280,00
-2800,37	290,00
-2789,62	221,00
-2778,89	312,00
-2768,18	331,00
-2757,48	297,00
-2746,80	222,00
-2736,13	326,00
-2725,48	192,00
-2714,84	247,00
-2704,22	186,00
-2693,61	248,00
-2683,02	251,00
-2672,45	267,00
-2661,89	280,00
-2651,34	299,00
-2640,81	219,00
-2630,30	248,00
-2619,80	282,00
-2609,31	257,00
-2598,84	245,00
-2588,39	253,00
-2577,95	152,00
-2567,52	268,00
-2557,11	257,00
-2546,71	273,00
-2536,33	283,00
-2525,97	323,00
-2515,62	257,00
-2505,28	235,00
-2494,96	339,00
-2484,65	238,00
-2474,36	303,00
-2464,08	234,00
-2453,82	382,00
-2443,57	279,00
-2433,33	222,00
-2423,11	196,00
-2412,91	160,00
-2402,72	224,00
-2392,54	230,00
-2382,38	352,00
-2372,23	314,00
-2362,09	525,00
-2351,97	281,00
-2341,87	251,00
-2331,78	266,00
-2321,70	316,00
-2311,64	355,00
-2301,59	188,00
-2291,55	190,00
-2281,53	342,00
-2271,53	252,00
-2261,53	268,00
-2251,55	154,00
-2241,59	276,00
-2231,64	288,00
-2221,70	143,00
-2211,78	300,00
-2201,87	227,00
-2191,97	243,00
-2182,09	308,00
-2172,22	354,00
-2162,37	196,00
-2152,53	283,00
-2142,70	258,00
-2132,89	165,00
-2123,09	301,00
-2113,30	251,00
-2103,53	292,00
-2093,77	208,00
-2084,02	188,00
-2074,29	264,00
-2064,57	152,00
-2054,86	261,00
-2045,17	217,00
-2035,49	289,00
-2025,82	343,00
-2016,17	226,00
-2006,53	294,00
-1996,91	202,00
-1987,29	165,00
-1977,69	233,00
-1968,11	277,00
-1958,53	216,00
-1948,97	307,00
-1939,42	272,00
-1929,89	239,00
-1920,37	301,00
-1910,86	300,00
-1901,36	302,00
-1891,88	224,00
-1882,41	336,00
-1872,95	186,00
-1863,51	232,00
-1854,08	214,00
-1844,66	187,00
-1835,26	258,00
-1825,86	263,00
-1816,48	298,00
-1807,11	269,00
-1797,76	252,00
-1788,42	185,00
-1779,09	277,00
-1769,77	219,00
-1760,47	399,00
-1751,17	271,00
-1741,89	285,00
-1732,63	361,00
-1723,37	405,00
-1714,13	302,00
-1704,90	182,00
-1695,68	351,00
-1686,48	241,00
-1677,29	262,00
-1668,11	315,00
-1658,94	267,00
-1649,78	346,00
-1640,64	243,00
-1631,51	206,00
-1622,39	273,00
-1613,28	344,00
-1604,19	381,00
-1595,10	269,00
-1586,03	206,00
-1576,97	293,00
-1567,93	279,00
-1558,89	274,00
-1549,87	348,00
-1540,86	360,00
-1531,86	239,00
-1522,87	242,00
-1513,90	315,00
-1504,93	290,00
-1495,98	273,00
-1487,04	360,00
-1478,12	323,00
-1469,20	180,00
-1460,30	314,00
-1451,40	298,00
-1442,52	251,00
-1433,65	287,00
-1424,80	293,00
-1415,95	298,00
-1407,12	329,00
-1398,30	272,00
-1389,48	222,00
-1380,69	259,00
-1371,90	284,00
-1363,12	336,00
-1354,36	322,00
-1345,60	252,00
-1336,86	200,00
-1328,13	380,00
-1319,41	317,00
-1310,70	355,00
-1302,01	268,00
-1293,32	228,00
-1284,65	197,00
-1275,99	303,00
-1267,33	265,00
-1258,69	224,00
-1250,06	360,00
-1241,45	253,00
-1232,84	306,00
-1224,25	252,00
-1215,66	260,00
-1207,09	266,00
-1198,53	249,00
-1189,97	270,00
-1181,43	277,00
-1172,91	320,00
-1164,39	246,00
-1155,88	313,00
-1147,38	173,00
-1138,90	304,00
-1130,43	281,00
-1121,96	217,00
-1113,51	292,00
-1105,07	288,00
-1096,64	206,00
-1088,22	201,00
-1079,81	263,00
-1071,41	396,00
-1063,02	285,00
-1054,65	264,00
-1046,28	272,00
-1037,92	319,00
-1029,58	259,00
-1021,24	275,00
-1012,92	474,00
-1004,61	202,00
-996,30	350,00
-988,01	230,00
-979,73	400,00
-971,46	322,00
-963,20	235,00
-954,95	295,00
-946,71	225,00
-938,48	189,00
-930,26	304,00
-922,06	336,00
-913,86	311,00
-905,67	288,00
-897,49	222,00
-889,33	252,00
-881,17	276,00
-873,02	332,00
-864,89	152,00
-856,76	328,00
-848,65	164,00
-840,54	291,00
-832,45	330,00
-824,36	261,00
-816,29	307,00
-808,22	151,00
-800,17	262,00
-792,12	239,00
-784,09	341,00
-776,06	197,00
-768,05	281,00
-760,04	240,00
-752,05	282,00
-744,07	308,00
-736,09	272,00
-728,13	255,00
-720,17	212,00
-712,23	259,00
-704,29	227,00
-696,37	210,00
-688,45	249,00
-680,55	288,00
-672,65	215,00
-664,77	233,00
-656,89	277,00
-649,03	231,00
-641,17	288,00
-633,32	358,00
-625,49	273,00
-617,66	281,00
-609,84	311,00
-602,03	201,00
-594,23	281,00
-586,45	328,00
-578,67	299,00
-570,90	208,00
-563,14	356,00
-555,39	194,00
-547,65	342,00
-539,91	345,00
-532,19	218,00
-524,48	195,00
-516,78	253,00
-509,08	350,00
-501,40	277,00
-493,72	266,00
-486,06	218,00
-478,40	353,00
-470,76	247,00
-463,12	272,00
-455,49	234,00
-447,87	254,00
-440,26	280,00
-432,66	152,00
-425,07	238,00
-417,49	192,00
-409,92	298,00
-402,35	178,00
-394,80	278,00
-387,25	259,00
-379,72	320,00
-372,19	308,00
-364,67	345,00
-357,17	273,00
-349,67	285,00
-342,18	252,00
-334,69	333,00
-327,22	281,00
-319,76	187,00
-312,30	380,00
-304,86	384,00
-297,42	266,00
-290,00	259,00
-282,58	265,00
-275,17	344,00
-267,77	292,00
-260,37	248,00
-252,99	429,00
-245,62	334,00
-238,25	351,00
-230,90	320,00
-223,55	312,00
-216,21	356,00
-208,88	354,00
-201,56	424,00
-194,25	401,00
-186,94	289,00
-179,65	389,00
-172,36	424,00
-165,08	362,00
-157,81	511,00
-150,55	465,00
-143,30	464,00
-136,06	512,00
-128,82	500,00
-121,60	513,00
-114,38	620,00
-107,17	543,00
-99,97	626,00
-92,78	629,00
-85,60	834,00
-78,42	867,00
-71,25	912,00
-64,10	1102,00
-56,95	1069,00
-49,81	1312,00
-42,67	1720,00
-35,55	1903,00
-28,43	2500,00
-21,33	3965,00
-14,23	12060,00
-7,14	57775,00
-0,05	57564,00
7,02	57281,00
14,09	43694,00
21,14	11440,00
28,19	4870,00
35,23	3192,00
42,27	2428,00
49,29	2013,00
56,31	1841,00
63,32	1512,00
70,32	1366,00
77,31	1094,00
84,29	1004,00
91,27	987,00
98,23	836,00
105,19	816,00
112,14	1004,00
119,09	1218,00
126,02	1721,00
132,95	2094,00
139,87	2147,00
146,78	2180,00
153,68	2024,00
160,58	2063,00
167,46	1935,00
174,34	2043,00
181,21	2074,00
188,08	2017,00
194,93	2112,00
201,78	1992,00
208,62	2000,00
215,45	2082,00
222,27	2014,00
229,09	2098,00
235,90	1988,00
242,70	2085,00
249,49	2061,00
256,27	1914,00
263,05	2034,00
269,82	1939,00
276,58	2011,00
283,33	1929,00
290,08	2013,00
296,82	1913,00
303,55	1920,00
310,27	1889,00
316,98	1880,00
323,69	1919,00
330,39	1816,00
337,08	1868,00
343,76	1887,00
350,44	1865,00
357,11	1947,00
363,77	1891,00
370,42	1804,00
377,07	1923,00
383,71	1869,00
390,34	1938,00
396,96	1790,00
403,58	1845,00
410,19	1994,00
416,79	1986,00
423,38	1932,00
429,97	1999,00
436,55	1830,00
443,12	1908,00
449,68	1660,00
456,24	1872,00
462,79	1870,00
469,33	1820,00
475,86	1848,00
482,39	1770,00
488,91	1865,00
495,42	1738,00
501,93	1932,00
508,42	1726,00
514,91	1916,00
521,40	1821,00
527,87	1772,00
534,34	1824,00
540,80	1785,00
547,25	1865,00
553,70	1852,00
560,14	1850,00
566,57	1874,00
573,00	1792,00
579,41	1825,00
585,83	1761,00
592,23	1765,00
598,62	1900,00
605,01	1728,00
611,40	1801,00
617,77	1802,00
624,14	1808,00
630,50	1771,00
636,85	1781,00
643,20	1777,00
649,54	1754,00
655,87	1716,00
662,20	1837,00
668,52	1715,00
674,83	1826,00
681,13	1725,00
687,43	1755,00
693,72	1670,00
700,00	1734,00
706,28	1733,00
712,55	1755,00
718,81	1744,00
725,07	1679,00
731,32	1699,00
737,56	1842,00
743,79	1688,00
750,02	1745,00
756,24	1751,00
762,46	1761,00
768,67	1858,00
774,87	1877,00
781,06	1774,00
787,25	1921,00
793,43	1850,00
799,60	1650,00
805,77	1844,00
811,93	1765,00
818,08	1902,00
824,23	1892,00
830,37	1905,00
836,50	1799,00
842,63	1876,00
848,75	1796,00
854,87	1935,00
860,97	1819,00
867,07	1838,00
873,17	1759,00
879,25	1844,00
885,33	1867,00
891,41	1861,00
897,47	1871,00
903,53	1907,00
909,59	1902,00
915,63	1859,00
921,67	1737,00
927,71	1717,00
933,74	1763,00
939,76	1757,00
945,77	1822,00
951,78	1708,00
957,78	1805,00
963,78	1800,00
969,77	1765,00
975,75	1867,00
981,72	1777,00
987,69	2164,00
993,66	1874,00
999,61	1836,00
1005,56	1938,00
1011,51	1754,00
1017,44	1899,00
1023,37	1842,00
1029,30	1867,00
1035,22	1926,00
1041,13	1832,00
1047,03	1954,00
1052,93	2023,00
1058,83	2327,00
1064,71	2482,00
1070,59	2298,00
1076,47	2032,00
1082,33	2048,00
1088,20	1996,00
1094,05	2065,00
1099,90	1885,00
1105,74	1891,00
1111,58	1935,00
1117,41	2096,00
1123,23	2223,00
1129,05	2654,00
1134,86	2307,00
1140,67	2201,00
1146,47	2128,00
1152,26	1989,00
1158,05	1853,00
1163,83	1960,00
1169,60	2060,00
1175,37	2016,00
1181,13	1918,00
1186,89	2001,00
1192,64	1975,00
1198,38	1976,00
1204,12	1919,00
1209,85	1892,00
1215,58	1865,00
1221,30	1987,00
1227,02	1895,00
1232,72	1911,00
1238,43	1888,00
1244,12	2081,00
1249,81	1959,00
1255,50	1980,00
1261,17	1986,00
1266,85	1929,00
1272,51	2055,00
1278,17	2161,00
1283,83	2080,00
1289,47	2442,00
1295,12	2969,00
1300,75	2706,00
1306,38	2393,00
1312,01	2197,00
1317,63	2145,00
1323,24	2014,00
1328,85	2096,00
1334,45	2082,00
1340,04	1977,00
1345,63	1989,00
1351,22	2107,00
1356,80	2112,00
1362,37	2065,00
1367,93	2023,00
1373,49	2010,00
1379,05	2036,00
1384,60	1969,00
1390,14	2064,00
1395,68	2080,00
1401,21	2036,00
1406,74	2144,00
1412,26	2310,00
1417,77	2400,00
1423,28	2424,00
1428,78	2350,00
1434,28	2755,00
1439,77	2840,00
1445,26	2905,00
1450,74	2707,00
1456,22	2614,00
1461,68	2622,00
1467,15	2416,00
1472,61	2340,00
1478,06	2315,00
1483,51	2162,00
1488,95	2188,00
1494,38	2088,00
1499,81	1894,00
1505,24	1979,00
1510,65	1994,00
1516,07	1980,00
1521,48	1915,00
1526,88	1867,00
1532,27	2006,00
1537,67	1966,00
1543,05	1987,00
1548,43	1865,00
1553,81	1919,00
1559,18	1829,00
1564,54	1950,00
1569,90	1802,00
1575,25	1859,00
1580,60	1756,00
1585,94	1897,00
1591,28	1909,00
1596,61	1902,00
1601,93	1937,00
1607,25	1928,00
1612,57	1896,00
1617,88	1837,00
1623,18	1824,00
1628,48	1879,00
1633,77	1758,00
1639,06	1858,00
1644,34	1674,00
1649,62	1756,00
1654,89	1901,00
1660,16	1845,00
1665,42	1821,00
1670,67	1744,00
1675,92	1812,00
1681,17	1764,00
1686,41	1824,00
1691,64	1930,00
1696,87	1776,00
1702,10	1725,00
1707,32	1755,00
1712,53	1752,00
1717,74	1711,00
1722,94	1760,00
1728,14	1788,00
1733,33	1676,00
1738,52	1762,00
1743,70	1744,00
1748,88	1694,00
1754,05	1605,00
1759,22	1639,00
1764,38	2948,00
1769,53	1633,00
1774,69	1736,00
1779,83	1676,00
1784,97	1660,00
1790,11	1685,00
1795,24	1594,00
1800,36	1720,00
1805,48	1603,00
1810,60	1648,00
1815,71	1596,00
1820,82	1629,00
1825,92	1569,00
1831,01	1531,00
1836,10	1631,00
1841,19	1630,00
1846,26	1634,00
1851,34	1544,00
1856,41	1684,00
1861,47	1541,00
1866,53	1565,00
1871,59	1553,00
1876,64	1623,00
1881,68	1548,00
1886,72	1661,00
1891,76	1534,00
1896,79	1582,00
1901,81	1501,00
1906,83	1488,00
1911,85	1498,00
1916,86	1528,00
1921,86	1593,00
1926,86	1491,00
1931,86	1501,00
1936,85	1573,00
1941,83	1469,00
1946,81	1559,00
1951,79	1510,00
1956,76	1428,00
1961,72	1433,00
1966,68	1492,00
1971,64	1439,00
1976,59	1379,00
1981,54	1462,00
1986,48	1394,00
1991,42	1448,00
1996,35	1562,00
2001,27	1380,00
2006,20	1374,00
2011,11	1490,00
2016,03	1431,00
2020,93	1474,00
2025,84	1546,00
2030,73	1447,00
2035,63	1299,00
2040,52	1419,00
2045,40	1513,00
2050,28	1455,00
2055,15	1499,00
2060,02	1281,00
2064,89	1439,00
2069,75	1464,00
2074,60	1405,00
2079,46	1360,00
2084,30	1338,00
2089,14	1306,00
2093,98	1368,00
2098,81	1390,00
2103,64	1406,00
2108,46	1319,00
2113,28	1359,00
2118,09	1344,00
2122,90	1370,00
2127,70	1363,00
2132,50	1358,00
2137,30	1254,00
2142,09	1322,00
2146,87	1276,00
2151,66	1354,00
2156,43	1323,00
2161,20	1380,00
2165,97	1452,00
2170,73	1278,00
2175,49	1307,00
2180,24	1248,00
2184,99	1310,00
2189,74	1227,00
2194,48	1222,00
2199,21	1403,00
2203,94	1194,00
2208,67	1174,00
2213,39	1212,00
2218,11	1301,00
2222,82	1314,00
2227,53	1262,00
2232,23	1368,00
2236,93	1257,00
2241,63	1235,00
2246,32	1236,00
2251,00	1193,00
2255,68	1190,00
2260,36	1344,00
2265,03	1283,00
2269,70	1316,00
2274,36	1204,00
2279,02	1244,00
2283,68	1207,00
2288,33	1246,00
2292,97	1185,00
2297,61	1207,00
2302,25	1149,00
2306,88	1128,00
2311,51	1109,00
2316,14	1220,00
2320,75	1134,00
2325,37	1063,00
2329,98	1234,00
2334,59	1153,00
2339,19	1181,00
2343,79	1075,00
2348,38	1122,00
2352,97	1154,00
2357,55	1177,00
2362,13	1253,00
2366,71	1012,00
2371,28	1084,00
2375,85	1144,00
2380,41	1157,00
2384,97	1080,00
2389,52	1092,00
2394,07	1087,00
2398,62	1156,00
2403,16	1061,00
2407,70	1019,00
2412,23	1182,00
2416,76	1167,00
2421,29	1127,00
2425,81	1055,00
2430,32	1032,00
2434,84	1026,00
2439,34	1012,00
2443,85	1189,00
2448,35	972,00
2452,84	976,00
2457,33	1032,00
2461,82	1021,00
2466,30	969,00
2470,78	1026,00
2475,25	979,00
2479,72	1020,00
2484,19	983,00
2488,65	961,00
2493,11	965,00
2497,56	988,00
2502,01	882,00
2506,46	1008,00
2510,90	1030,00
2515,34	1012,00
2519,77	968,00
2524,20	957,00
2528,62	927,00
2533,04	1014,00
2537,46	878,00
2541,87	815,00
2546,28	876,00
2550,68	873,00
2555,08	807,00
2559,48	920,00
2563,87	916,00
2568,26	867,00
2572,64	930,00
2577,02	973,00
2581,40	854,00
2585,77	870,00
2590,14	892,00
2594,50	854,00
2598,86	865,00
2603,22	881,00
2607,57	893,00
2611,92	917,00
2616,26	834,00
2620,60	946,00
2624,94	866,00
2629,27	937,00
2633,60	840,00
2637,92	959,00
2642,24	873,00
2646,56	847,00
2650,87	927,00
2655,18	922,00
2659,48	725,00
2663,78	858,00
2668,08	820,00
2672,37	846,00
2676,66	939,00
2680,95	868,00
2685,23	797,00
2689,50	871,00
2693,78	837,00
2698,05	793,00
2702,31	868,00
2706,57	954,00
2710,83	964,00
2715,08	901,00
2719,33	1005,00
2723,58	982,00
2727,82	1002,00
2732,06	993,00
2736,29	867,00
2740,53	973,00
2744,75	906,00
2748,97	945,00
2753,19	947,00
2757,41	884,00
2761,62	864,00
2765,83	976,00
2770,03	890,00
2774,23	822,00
2778,43	849,00
2782,62	834,00
2786,81	924,00
2791,00	870,00
2795,18	892,00
2799,35	902,00
2803,53	919,00
2807,70	913,00
2811,86	839,00
2816,03	1009,00
2820,19	1024,00
2824,34	1007,00
2828,49	1043,00
2832,64	1097,00
2836,78	1243,00
2840,92	1441,00
2845,06	1727,00
2849,19	1791,00
2853,32	1969,00
2857,45	1879,00
2861,57	1857,00
2865,69	1691,00
2869,80	1618,00
2873,91	1729,00
2878,02	1903,00
2882,12	2053,00
2886,22	2038,00
2890,32	1867,00
2894,41	1797,00
2898,50	1642,00
2902,58	1558,00
2906,67	1470,00
2910,74	1376,00
2914,82	1358,00
2918,89	1250,00
2922,96	1136,00
2927,02	1167,00
2931,08	1077,00
2935,13	1045,00
2939,19	1097,00
2943,24	1005,00
2947,28	908,00
2951,32	864,00
2955,36	739,00
2959,40	813,00
2963,43	880,00
2967,46	694,00
2971,48	679,00
2975,50	762,00
2979,52	749,00
2983,53	771,00
2987,54	741,00
2991,55	672,00
2995,55	653,00
2999,55	569,00
3003,54	586,00
3007,54	598,00
3011,53	620,00
3015,51	654,00
3019,49	619,00
3023,47	538,00
3027,45	522,00
3031,42	619,00
3035,39	563,00
3039,35	603,00
3043,31	575,00
3047,27	586,00
3051,22	577,00
3055,17	542,00
3059,12	511,00
3063,06	478,00
3067,00	440,00
3070,94	561,00
3074,87	537,00
3078,80	565,00
3082,73	469,00
3086,65	552,00
3090,57	477,00
3094,49	484,00
3098,40	534,00
3102,31	391,00
3106,22	602,00
3110,12	439,00
3114,02	498,00
3117,92	518,00
3121,81	401,00
3125,70	483,00
3129,58	604,00
3133,47	530,00
3137,34	473,00
3141,22	501,00
3145,09	546,00
3148,96	397,00
3152,83	385,00
3156,69	386,00
3160,55	376,00
3164,40	438,00
3168,26	458,00
3172,10	524,00
3175,95	429,00
3179,79	491,00
3183,63	405,00
3187,47	412,00
3191,30	329,00
3195,13	451,00
3198,95	395,00
3202,78	493,00
3206,60	295,00
3210,41	450,00
3214,23	393,00
3218,03	417,00
3221,84	426,00
3225,64	294,00
3229,44	389,00
3233,24	429,00
3237,03	332,00
3240,82	447,00
3244,61	347,00
3248,39	427,00
3252,17	458,00
3255,95	365,00
3259,72	405,00
3263,49	422,00
3267,26	344,00
3271,03	391,00
3274,79	472,00
3278,54	462,00
3282,30	333,00
3286,05	401,00
3289,80	445,00
3293,54	386,00
3297,29	401,00
3301,02	345,00
3304,76	363,00
3308,49	431,00
3312,22	299,00
3315,95	328,00
3319,67	321,00
3323,39	465,00
3327,10	404,00
3330,82	271,00
3334,53	327,00
3338,24	374,00
3341,94	329,00
3345,64	335,00
3349,34	345,00
3353,03	305,00
3356,72	321,00
3360,41	420,00
3364,10	375,00
3367,78	299,00
3371,46	369,00
3375,13	389,00
3378,81	290,00
3382,48	311,00
3386,14	404,00
3389,81	411,00
3393,47	305,00
3397,12	343,00
3400,78	369,00
3404,43	346,00
3408,08	332,00
3411,72	321,00
3415,36	310,00
3419,00	212,00
3422,64	388,00
3426,27	255,00
3429,90	275,00
3433,53	351,00
3437,15	254,00
3440,77	276,00
3444,39	266,00
3448,00	299,00
3451,62	287,00
3455,22	322,00
3458,83	382,00
3462,43	279,00
3466,03	373,00
3469,63	365,00
3473,22	406,00
3476,81	297,00
3480,40	288,00
3483,99	376,00
3487,57	329,00
3491,15	339,00
3494,72	327,00
3498,29	346,00
3501,86	295,00
3505,43	322,00
3508,99	320,00
3512,56	303,00
3516,11	349,00
3519,67	261,00
3523,22	342,00
3526,77	316,00
3530,32	287,00
3533,86	370,00
3537,40	338,00
3540,94	351,00
3544,47	270,00
3548,00	283,00
3551,53	306,00
3555,06	252,00
3558,58	365,00
3562,10	345,00
3565,62	324,00
3569,13	235,00
3572,64	266,00
3576,15	181,00
3579,66	178,00
3583,16	256,00
3586,66	237,00
3590,16	236,00
3593,65	301,00
3597,14	256,00
3600,63	234,00
3604,11	347,00
3607,60	254,00
3611,08	261,00
3614,55	250,00
3618,03	246,00
3621,50	243,00
3624,97	320,00
3628,43	358,00
3631,90	265,00
3635,36	184,00
3638,81	298,00
3642,27	329,00
3645,72	276,00
3649,17	296,00
3652,61	224,00
3656,06	180,00
3659,50	206,00
3662,93	200,00
3666,37	127,00
3669,80	316,00
3673,23	222,00
3676,65	261,00
3680,08	277,00
3683,50	303,00
3686,92	331,00
3690,33	216,00
3693,74	260,00
3697,15	154,00
3700,56	215,00
3703,96	212,00
3707,36	234,00
3710,76	245,00
3714,16	230,00
3717,55	218,00
3720,94	284,00
3724,33	247,00
3727,71	314,00
3731,10	181,00
3734,48	186,00
3737,85	223,00
3741,23	136,00
3744,60	270,00
3747,97	225,00
3751,33	166,00
3754,69	253,00
3758,05	194,00
3761,41	238,00
3764,77	146,00
3768,12	130,00
3771,47	248,00
3774,82	244,00
3778,16	-3,00
3781,50	5,00
3784,84	-1,00
3788,18	2,00
>>>>>End Processed Spectral Data<<<<<
