SpectraSuite Data File
++++++++++++++++++++++++++++++++++++
Date: Mon Mar 09 14:41:50 ICT 2026
User: Administrator
Dark Spectrum Present: Yes
Reference Spectrum Present: No
Number of Sampled Component Spectra: 1
Spectrometers: MAYP113682
Integration Time (usec): 3000000 (MAYP113682)
Spectra Averaged: 1 (MAYP113682)
Boxcar Smoothing: 0 (MAYP113682)
Correct for Electrical Dark: No (MAYP113682)
Strobe/Lamp Enabled: No (MAYP113682)
Correct for Detector Non-linearity: No (MAYP113682)
Correct for Stray Light: No (MAYP113682)
Number of Pixels in Processed Spectrum: 2068
>>>>>Begin Processed Spectral Data<<<<<
-37534,58	28,00
-37414,56	3,00
-37295,11	-5,00
-37176,24	6,00
-37057,95	378,00
-36940,22	353,00
-36823,05	412,00
-36706,45	467,00
-36590,40	346,00
-36474,90	473,00
-36359,95	411,00
-36245,55	458,00
-36131,68	493,00
-36018,35	451,00
-35905,55	426,00
-35793,29	463,00
-35681,54	460,00
-35570,32	475,00
-35459,62	409,00
-35349,43	477,00
-35239,75	481,00
-35130,58	436,00
-35021,91	429,00
-34913,74	522,00
-34806,07	468,00
-34698,89	508,00
-34592,20	426,00
-34486,00	510,00
-34380,28	442,00
-34275,04	444,00
-34170,27	434,00
-34065,98	444,00
-33962,16	463,00
-33858,81	430,00
-33755,92	392,00
-33653,49	604,00
-33551,52	542,00
-33450,01	409,00
-33348,94	514,00
-33248,33	512,00
-33148,16	459,00
-33048,43	516,00
-32949,14	580,00
-32850,29	487,00
-32751,87	413,00
-32653,89	555,00
-32556,33	603,00
-32459,20	558,00
-32362,49	484,00
-32266,19	516,00
-32170,32	446,00
-32074,86	485,00
-31979,82	589,00
-31885,18	581,00
-31790,95	564,00
-31697,12	395,00
-31603,69	520,00
-31510,67	525,00
-31418,04	377,00
-31325,80	552,00
-31233,95	538,00
-31142,49	435,00
-31051,42	576,00
-30960,73	592,00
-30870,43	556,00
-30780,50	496,00
-30690,95	484,00
-30601,77	535,00
-30512,97	406,00
-30424,53	523,00
-30336,46	460,00
-30248,76	526,00
-30161,42	454,00
-30074,44	497,00
-29987,81	514,00
-29901,55	606,00
-29815,63	424,00
-29730,07	471,00
-29644,86	485,00
-29560,00	609,00
-29475,48	448,00
-29391,30	541,00
-29307,47	381,00
-29223,97	449,00
-29140,81	453,00
-29057,99	547,00
-28975,50	501,00
-28893,34	560,00
-28811,51	522,00
-28730,00	457,00
-28648,82	405,00
-28567,97	472,00
-28487,43	514,00
-28407,21	475,00
-28327,32	414,00
-28247,73	457,00
-28168,46	484,00
-28089,50	498,00
-28010,85	423,00
-27932,51	378,00
-27854,48	570,00
-27776,75	426,00
-27699,32	499,00
-27622,19	526,00
-27545,37	520,00
-27468,84	510,00
-27392,60	580,00
-27316,66	451,00
-27241,01	508,00
-27165,66	491,00
-27090,59	521,00
-27015,81	467,00
-26941,31	611,00
-26867,10	455,00
-26793,17	475,00
-26719,52	549,00
-26646,15	470,00
-26573,06	591,00
-26500,24	475,00
-26427,70	424,00
-26355,43	554,00
-26283,43	503,00
-26211,71	597,00
-26140,25	457,00
-26069,06	628,00
-25998,13	414,00
-25927,46	496,00
-25857,06	537,00
-25786,92	456,00
-25717,04	407,00
-25647,42	499,00
-25578,05	505,00
-25508,94	477,00
-25440,09	481,00
-25371,48	473,00
-25303,13	391,00
-25235,02	484,00
-25167,17	593,00
-25099,56	515,00
-25032,19	542,00
-24965,07	514,00
-24898,20	438,00
-24831,56	462,00
-24765,17	416,00
-24699,01	456,00
-24633,10	465,00
-24567,41	461,00
-24501,97	563,00
-24436,75	394,00
-24371,77	531,00
-24307,03	493,00
-24242,51	341,00
-24178,22	581,00
-24114,16	471,00
-24050,32	463,00
-23986,71	462,00
-23923,32	535,00
-23860,16	493,00
-23797,22	436,00
-23734,50	488,00
-23672,00	482,00
-23609,71	433,00
-23547,65	416,00
-23485,80	510,00
-23424,16	482,00
-23362,74	572,00
-23301,53	339,00
-23240,54	394,00
-23179,75	516,00
-23119,17	438,00
-23058,80	549,00
-22998,64	495,00
-22938,68	401,00
-22878,93	476,00
-22819,39	504,00
-22760,04	455,00
-22700,90	464,00
-22641,96	491,00
-22583,22	445,00
-22524,68	498,00
-22466,33	364,00
-22408,19	466,00
-22350,23	433,00
-22292,48	529,00
-22234,92	458,00
-22177,55	527,00
-22120,37	501,00
-22063,38	397,00
-22006,58	480,00
-21949,98	485,00
-21893,56	334,00
-21837,33	401,00
-21781,28	506,00
-21725,42	451,00
-21669,74	474,00
-21614,25	442,00
-21558,94	451,00
-21503,81	450,00
-21448,86	419,00
-21394,10	429,00
-21339,51	444,00
-21285,10	357,00
-21230,86	389,00
-21176,81	434,00
-21122,93	492,00
-21069,22	480,00
-21015,69	462,00
-20962,33	507,00
-20909,14	472,00
-20856,13	427,00
-20803,28	467,00
-20750,61	446,00
-20698,10	432,00
-20645,76	502,00
-20593,59	592,00
-20541,59	482,00
-20489,75	501,00
-20438,07	443,00
-20386,56	529,00
-20335,22	526,00
-20284,03	442,00
-20233,01	474,00
-20182,15	413,00
-20131,45	448,00
-20080,91	402,00
-20030,52	502,00
-19980,30	441,00
-19930,23	448,00
-19880,32	554,00
-19830,56	509,00
-19780,96	457,00
-19731,52	517,00
-19682,23	532,00
-19633,09	467,00
-19584,10	493,00
-19535,26	469,00
-19486,58	419,00
-19438,04	458,00
-19389,66	526,00
-19341,42	472,00
-19293,33	419,00
-19245,39	482,00
-19197,60	396,00
-19149,95	527,00
-19102,45	481,00
-19055,09	494,00
-19007,87	483,00
-18960,80	484,00
-18913,87	530,00
-18867,09	485,00
-18820,44	532,00
-18773,94	449,00
-18727,57	413,00
-18681,35	460,00
-18635,26	501,00
-18589,31	429,00
-18543,50	438,00
-18497,83	489,00
-18452,29	437,00
-18406,89	457,00
-18361,63	563,00
-18316,50	457,00
-18271,50	478,00
-18226,63	434,00
-18181,90	497,00
-18137,30	530,00
-18092,84	416,00
-18048,50	576,00
-18004,29	355,00
-17960,22	462,00
-17916,27	462,00
-17872,45	492,00
-17828,76	522,00
-17785,20	576,00
-17741,77	492,00
-17698,46	460,00
-17655,28	383,00
-17612,22	509,00
-17569,29	354,00
-17526,48	473,00
-17483,79	435,00
-17441,23	422,00
-17398,79	507,00
-17356,48	461,00
-17314,28	577,00
-17272,21	512,00
-17230,26	404,00
-17188,42	487,00
-17146,71	432,00
-17105,12	500,00
-17063,64	469,00
-17022,28	389,00
-16981,04	519,00
-16939,92	436,00
-16898,91	503,00
-16858,02	528,00
-16817,25	400,00
-16776,59	431,00
-16736,04	508,00
-16695,61	386,00
-16655,29	542,00
-16615,09	492,00
-16574,99	461,00
-16535,01	472,00
-16495,15	471,00
-16455,39	549,00
-16415,74	473,00
-16376,21	427,00
-16336,78	440,00
-16297,46	474,00
-16258,26	562,00
-16219,16	511,00
-16180,17	433,00
-16141,28	503,00
-16102,51	511,00
-16063,84	454,00
-16025,27	515,00
-15986,82	411,00
-15948,46	443,00
-15910,22	504,00
-15872,07	465,00
-15834,04	422,00
-15796,10	469,00
-15758,27	512,00
-15720,54	490,00
-15682,91	441,00
-15645,39	463,00
-15607,97	458,00
-15570,64	440,00
-15533,42	422,00
-15496,30	433,00
-15459,28	514,00
-15422,36	410,00
-15385,54	402,00
-15348,82	412,00
-15312,19	522,00
-15275,66	462,00
-15239,23	380,00
-15202,90	478,00
-15166,67	474,00
-15130,53	484,00
-15094,48	525,00
-15058,54	534,00
-15022,68	385,00
-14986,93	443,00
-14951,26	432,00
-14915,69	423,00
-14880,22	402,00
-14844,84	373,00
-14809,55	500,00
-14774,35	440,00
-14739,25	580,00
-14704,24	473,00
-14669,32	502,00
-14634,49	437,00
-14599,75	447,00
-14565,10	392,00
-14530,55	590,00
-14496,08	509,00
-14461,70	474,00
-14427,41	435,00
-14393,21	407,00
-14359,10	393,00
-14325,07	531,00
-14291,14	456,00
-14257,29	530,00
-14223,52	423,00
-14189,85	494,00
-14156,26	497,00
-14122,76	430,00
-14089,34	447,00
-14056,01	436,00
-14022,76	502,00
-13989,60	561,00
-13956,52	490,00
-13923,53	433,00
-13890,62	409,00
-13857,79	407,00
-13825,05	463,00
-13792,39	462,00
-13759,81	476,00
-13727,31	439,00
-13694,90	477,00
-13662,57	441,00
-13630,31	468,00
-13598,14	367,00
-13566,05	464,00
-13534,05	496,00
-13502,12	353,00
-13470,27	483,00
-13438,50	533,00
-13406,80	492,00
-13375,19	459,00
-13343,66	492,00
-13312,20	464,00
-13280,83	395,00
-13249,53	389,00
-13218,30	375,00
-13187,16	453,00
-13156,09	548,00
-13125,10	502,00
-13094,18	407,00
-13063,34	523,00
-13032,58	406,00
-13001,89	550,00
-12971,28	510,00
-12940,74	471,00
-12910,27	510,00
-12879,88	452,00
-12849,57	489,00
-12819,33	424,00
-12789,16	474,00
-12759,06	424,00
-12729,04	547,00
-12699,09	1019,00
-12669,21	368,00
-12639,41	541,00
-12609,68	499,00
-12580,02	440,00
-12550,43	488,00
-12520,91	358,00
-12491,46	484,00
-12462,08	454,00
-12432,77	419,00
-12403,54	403,00
-12374,37	492,00
-12345,27	502,00
-12316,24	470,00
-12287,29	624,00
-12258,40	408,00
-12229,57	477,00
-12200,82	531,00
-12172,14	424,00
-12143,52	423,00
-12114,97	393,00
-12086,49	496,00
-12058,07	446,00
-12029,73	508,00
-12001,44	486,00
-11973,23	469,00
-11945,08	506,00
-11917,00	398,00
-11888,98	518,00
-11861,03	381,00
-11833,15	498,00
-11805,32	416,00
-11777,57	409,00
-11749,88	460,00
-11722,25	420,00
-11694,69	482,00
-11667,19	450,00
-11639,75	441,00
-11612,38	572,00
-11585,07	490,00
-11557,83	480,00
-11530,65	582,00
-11503,53	544,00
-11476,47	522,00
-11449,48	546,00
-11422,54	478,00
-11395,67	354,00
-11368,86	515,00
-11342,11	497,00
-11315,43	442,00
-11288,80	365,00
-11262,23	528,00
-11235,73	440,00
-11209,28	443,00
-11182,90	469,00
-11156,57	510,00
-11130,31	491,00
-11104,10	511,00
-11077,96	455,00
-11051,87	464,00
-11025,84	477,00
-10999,87	511,00
-10973,96	594,00
-10948,11	421,00
-10922,31	381,00
-10896,58	527,00
-10870,90	541,00
-10845,28	422,00
-10819,71	421,00
-10794,20	430,00
-10768,75	502,00
-10743,36	358,00
-10718,02	492,00
-10692,74	452,00
-10667,52	372,00
-10642,35	427,00
-10617,24	632,00
-10592,18	471,00
-10567,18	428,00
-10542,23	464,00
-10517,34	524,00
-10492,51	473,00
-10467,72	487,00
-10443,00	488,00
-10418,32	510,00
-10393,70	444,00
-10369,14	435,00
-10344,63	472,00
-10320,17	461,00
-10295,77	508,00
-10271,42	477,00
-10247,12	434,00
-10222,88	546,00
-10198,68	290,00
-10174,54	455,00
-10150,46	543,00
-10126,42	461,00
-10102,44	481,00
-10078,51	487,00
-10054,63	432,00
-10030,80	400,00
-10007,03	521,00
-9983,30	437,00
-9959,63	437,00
-9936,01	453,00
-9912,44	435,00
-9888,92	439,00
-9865,44	448,00
-9842,02	510,00
-9818,65	422,00
-9795,33	435,00
-9772,06	438,00
-9748,84	383,00
-9725,67	340,00
-9702,55	295,00
-9679,47	482,00
-9656,45	360,00
-9633,47	345,00
-9610,55	360,00
-9587,67	457,00
-9564,84	432,00
-9542,06	333,00
-9519,32	433,00
-9496,64	342,00
-9474,00	272,00
-9451,41	240,00
-9428,87	372,00
-9406,37	293,00
-9383,92	189,00
-9361,52	321,00
-9339,17	233,00
-9316,86	137,00
-9294,60	180,00
-9272,38	295,00
-9250,21	294,00
-9228,09	247,00
-9206,01	189,00
-9183,98	82,00
-9162,00	222,00
-9140,06	259,00
-9118,16	55,00
-9096,31	256,00
-9074,51	168,00
-9052,75	321,00
-9031,04	365,00
-9009,37	149,00
-8987,74	211,00
-8966,16	277,00
-8944,63	176,00
-8923,14	194,00
-8901,69	220,00
-8880,29	221,00
-8858,93	282,00
-8837,61	383,00
-8816,34	382,00
-8795,11	293,00
-8773,92	343,00
-8752,78	389,00
-8731,68	261,00
-8710,62	279,00
-8689,61	208,00
-8668,63	216,00
-8647,70	386,00
-8626,82	325,00
-8605,97	393,00
-8585,17	368,00
-8564,41	246,00
-8543,69	326,00
-8523,01	251,00
-8502,37	430,00
-8481,78	317,00
-8461,23	162,00
-8440,71	264,00
-8420,24	287,00
-8399,81	308,00
-8379,42	336,00
-8359,08	346,00
-8338,77	297,00
-8318,50	474,00
-8298,27	312,00
-8278,09	367,00
-8257,94	248,00
-8237,83	354,00
-8217,76	408,00
-8197,74	335,00
-8177,75	320,00
-8157,80	336,00
-8137,89	419,00
-8118,02	312,00
-8098,19	469,00
-8078,40	392,00
-8058,65	320,00
-8038,93	475,00
-8019,26	432,00
-7999,62	379,00
-7980,02	351,00
-7960,46	424,00
-7940,94	428,00
-7921,46	411,00
-7902,01	349,00
-7882,60	437,00
-7863,23	370,00
-7843,90	456,00
-7824,61	385,00
-7805,35	429,00
-7786,13	457,00
-7766,95	399,00
-7747,80	346,00
-7728,69	463,00
-7709,62	458,00
-7690,59	393,00
-7671,59	461,00
-7652,63	395,00
-7633,70	329,00
-7614,81	490,00
-7595,96	339,00
-7577,15	506,00
-7558,37	424,00
-7539,62	303,00
-7520,91	458,00
-7502,24	406,00
-7483,60	435,00
-7465,00	424,00
-7446,44	441,00
-7427,91	306,00
-7409,41	412,00
-7390,95	424,00
-7372,53	387,00
-7354,14	397,00
-7335,78	390,00
-7317,46	377,00
-7299,18	361,00
-7280,92	461,00
-7262,71	460,00
-7244,52	430,00
-7226,38	373,00
-7208,26	396,00
-7190,18	479,00
-7172,14	440,00
-7154,12	461,00
-7136,15	368,00
-7118,20	363,00
-7100,29	424,00
-7082,41	520,00
-7064,57	359,00
-7046,76	371,00
-7028,98	351,00
-7011,24	531,00
-6993,53	223,00
-6975,85	323,00
-6958,20	335,00
-6940,59	375,00
-6923,01	311,00
-6905,46	466,00
-6887,94	387,00
-6870,46	-1680,00
-6853,01	452,00
-6835,59	366,00
-6818,21	374,00
-6800,85	397,00
-6783,53	339,00
-6766,24	288,00
-6748,98	371,00
-6731,76	226,00
-6714,56	257,00
-6697,40	372,00
-6680,26	264,00
-6663,16	281,00
-6646,09	328,00
-6629,05	395,00
-6612,05	338,00
-6595,07	294,00
-6578,13	350,00
-6561,21	363,00
-6544,33	345,00
-6527,47	372,00
-6510,65	347,00
-6493,86	389,00
-6477,10	250,00
-6460,36	290,00
-6443,66	280,00
-6426,99	278,00
-6410,35	244,00
-6393,74	432,00
-6377,16	312,00
-6360,61	304,00
-6344,09	280,00
-6327,59	331,00
-6311,13	264,00
-6294,70	439,00
-6278,29	396,00
-6261,92	413,00
-6245,58	316,00
-6229,26	444,00
-6212,97	300,00
-6196,72	379,00
-6180,49	404,00
-6164,29	325,00
-6148,12	322,00
-6131,98	355,00
-6115,86	374,00
-6099,78	280,00
-6083,72	333,00
-6067,69	290,00
-6051,69	398,00
-6035,72	376,00
-6019,78	346,00
-6003,87	435,00
-5987,98	243,00
-5972,12	398,00
-5956,29	432,00
-5940,49	358,00
-5924,71	420,00
-5908,96	381,00
-5893,24	454,00
-5877,55	321,00
-5861,89	333,00
-5846,25	313,00
-5830,64	394,00
-5815,05	299,00
-5799,50	383,00
-5783,97	404,00
-5768,47	501,00
-5752,99	447,00
-5737,55	328,00
-5722,12	324,00
-5706,73	365,00
-5691,36	301,00
-5676,02	371,00
-5660,71	447,00
-5645,42	406,00
-5630,16	426,00
-5614,92	334,00
-5599,71	316,00
-5584,53	321,00
-5569,37	314,00
-5554,24	1124,00
-5539,14	400,00
-5524,06	438,00
-5509,01	394,00
-5493,98	370,00
-5478,98	402,00
-5464,00	366,00
-5449,05	301,00
-5434,13	375,00
-5419,23	429,00
-5404,36	350,00
-5389,51	416,00
-5374,69	379,00
-5359,89	299,00
-5345,12	385,00
-5330,37	456,00
-5315,65	541,00
-5300,95	406,00
-5286,28	379,00
-5271,63	302,00
-5257,01	387,00
-5242,41	360,00
-5227,84	412,00
-5213,29	402,00
-5198,76	398,00
-5184,26	389,00
-5169,79	363,00
-5155,33	432,00
-5140,91	326,00
-5126,51	376,00
-5112,13	379,00
-5097,77	461,00
-5083,44	512,00
-5069,13	429,00
-5054,85	386,00
-5040,59	317,00
-5026,36	413,00
-5012,15	414,00
-4997,96	340,00
-4983,80	364,00
-4969,66	468,00
-4955,54	403,00
-4941,44	363,00
-4927,37	417,00
-4913,33	366,00
-4899,30	260,00
-4885,30	382,00
-4871,33	442,00
-4857,37	448,00
-4843,44	453,00
-4829,53	505,00
-4815,65	484,00
-4801,79	334,00
-4787,95	316,00
-4774,13	312,00
-4760,34	407,00
-4746,56	436,00
-4732,82	427,00
-4719,09	363,00
-4705,38	424,00
-4691,70	537,00
-4678,04	351,00
-4664,41	370,00
-4650,79	503,00
-4637,20	452,00
-4623,63	429,00
-4610,08	343,00
-4596,56	394,00
-4583,05	373,00
-4569,57	369,00
-4556,11	458,00
-4542,67	446,00
-4529,25	411,00
-4515,86	503,00
-4502,49	467,00
-4489,13	432,00
-4475,80	465,00
-4462,49	391,00
-4449,21	587,00
-4435,94	429,00
-4422,70	493,00
-4409,47	352,00
-4396,27	377,00
-4383,09	367,00
-4369,93	422,00
-4356,79	410,00
-4343,67	433,00
-4330,58	476,00
-4317,50	385,00
-4304,45	393,00
-4291,41	453,00
-4278,40	377,00
-4265,41	401,00
-4252,44	464,00
-4239,49	380,00
-4226,55	391,00
-4213,65	603,00
-4200,76	541,00
-4187,89	425,00
-4175,04	501,00
-4162,21	500,00
-4149,40	436,00
-4136,61	432,00
-4123,85	440,00
-4111,10	456,00
-4098,37	562,00
-4085,66	511,00
-4072,98	489,00
-4060,31	345,00
-4047,66	492,00
-4035,04	517,00
-4022,43	428,00
-4009,84	529,00
-3997,27	476,00
-3984,72	497,00
-3972,19	509,00
-3959,69	364,00
-3947,20	464,00
-3934,73	558,00
-3922,27	450,00
-3909,84	454,00
-3897,43	458,00
-3885,04	382,00
-3872,67	439,00
-3860,31	470,00
-3847,98	545,00
-3835,66	470,00
-3823,36	568,00
-3811,09	432,00
-3798,83	415,00
-3786,59	519,00
-3774,37	531,00
-3762,17	444,00
-3749,98	471,00
-3737,82	405,00
-3725,67	502,00
-3713,55	414,00
-3701,44	560,00
-3689,35	466,00
-3677,28	461,00
-3665,22	458,00
-3653,19	456,00
-3641,17	424,00
-3629,18	521,00
-3617,20	486,00
-3605,24	391,00
-3593,30	466,00
-3581,37	457,00
-3569,47	438,00
-3557,58	543,00
-3545,71	398,00
-3533,86	548,00
-3522,02	493,00
-3510,21	464,00
-3498,41	440,00
-3486,63	369,00
-3474,87	493,00
-3463,12	497,00
-3451,40	430,00
-3439,69	484,00
-3428,00	472,00
-3416,33	476,00
-3404,67	483,00
-3393,03	495,00
-3381,41	459,00
-3369,81	501,00
-3358,22	451,00
-3346,66	511,00
-3335,10	526,00
-3323,57	385,00
-3312,06	439,00
-3300,56	551,00
-3289,08	358,00
-3277,61	476,00
-3266,16	565,00
-3254,73	474,00
-3243,32	517,00
-3231,92	503,00
-3220,55	477,00
-3209,18	474,00
-3197,84	441,00
-3186,51	348,00
-3175,20	418,00
-3163,90	421,00
-3152,63	521,00
-3141,36	449,00
-3130,12	445,00
-3118,89	490,00
-3107,68	501,00
-3096,49	473,00
-3085,31	520,00
-3074,15	414,00
-3063,00	417,00
-3051,87	482,00
-3040,76	539,00
-3029,67	423,00
-3018,59	657,00
-3007,52	556,00
-2996,48	567,00
-2985,44	400,00
-2974,43	508,00
-2963,43	507,00
-2952,45	336,00
-2941,48	459,00
-2930,53	564,00
-2919,60	455,00
-2908,68	466,00
-2897,78	543,00
-2886,89	629,00
-2876,02	452,00
-2865,17	455,00
-2854,33	502,00
-2843,50	306,00
-2832,70	396,00
-2821,90	455,00
-2811,13	513,00
-2800,37	488,00
-2789,62	506,00
-2778,89	402,00
-2768,18	521,00
-2757,48	557,00
-2746,80	511,00
-2736,13	493,00
-2725,48	420,00
-2714,84	473,00
-2704,22	470,00
-2693,61	379,00
-2683,02	493,00
-2672,45	440,00
-2661,89	518,00
-2651,34	457,00
-2640,81	413,00
-2630,30	541,00
-2619,80	504,00
-2609,31	552,00
-2598,84	433,00
-2588,39	481,00
-2577,95	479,00
-2567,52	449,00
-2557,11	510,00
-2546,71	457,00
-2536,33	567,00
-2525,97	434,00
-2515,62	481,00
-2505,28	487,00
-2494,96	436,00
-2484,65	404,00
-2474,36	527,00
-2464,08	484,00
-2453,82	576,00
-2443,57	461,00
-2433,33	395,00
-2423,11	415,00
-2412,91	451,00
-2402,72	430,00
-2392,54	498,00
-2382,38	482,00
-2372,23	535,00
-2362,09	4657,00
-2351,97	444,00
-2341,87	487,00
-2331,78	467,00
-2321,70	546,00
-2311,64	533,00
-2301,59	399,00
-2291,55	446,00
-2281,53	443,00
-2271,53	454,00
-2261,53	486,00
-2251,55	380,00
-2241,59	392,00
-2231,64	470,00
-2221,70	416,00
-2211,78	581,00
-2201,87	484,00
-2191,97	491,00
-2182,09	485,00
-2172,22	556,00
-2162,37	477,00
-2152,53	446,00
-2142,70	461,00
-2132,89	375,00
-2123,09	561,00
-2113,30	466,00
-2103,53	419,00
-2093,77	475,00
-2084,02	351,00
-2074,29	530,00
-2064,57	494,00
-2054,86	488,00
-2045,17	553,00
-2035,49	495,00
-2025,82	514,00
-2016,17	458,00
-2006,53	521,00
-1996,91	451,00
-1987,29	388,00
-1977,69	444,00
-1968,11	488,00
-1958,53	498,00
-1948,97	485,00
-1939,42	435,00
-1929,89	373,00
-1920,37	523,00
-1910,86	544,00
-1901,36	419,00
-1891,88	408,00
-1882,41	539,00
-1872,95	552,00
-1863,51	362,00
-1854,08	480,00
-1844,66	455,00
-1835,26	442,00
-1825,86	552,00
-1816,48	349,00
-1807,11	552,00
-1797,76	604,00
-1788,42	583,00
-1779,09	591,00
-1769,77	445,00
-1760,47	597,00
-1751,17	481,00
-1741,89	501,00
-1732,63	569,00
-1723,37	694,00
-1714,13	516,00
-1704,90	453,00
-1695,68	621,00
-1686,48	460,00
-1677,29	403,00
-1668,11	555,00
-1658,94	483,00
-1649,78	497,00
-1640,64	553,00
-1631,51	506,00
-1622,39	501,00
-1613,28	632,00
-1604,19	674,00
-1595,10	537,00
-1586,03	423,00
-1576,97	573,00
-1567,93	472,00
-1558,89	540,00
-1549,87	536,00
-1540,86	495,00
-1531,86	509,00
-1522,87	344,00
-1513,90	539,00
-1504,93	472,00
-1495,98	601,00
-1487,04	557,00
-1478,12	518,00
-1469,20	373,00
-1460,30	463,00
-1451,40	639,00
-1442,52	437,00
-1433,65	488,00
-1424,80	512,00
-1415,95	450,00
-1407,12	608,00
-1398,30	468,00
-1389,48	397,00
-1380,69	513,00
-1371,90	515,00
-1363,12	512,00
-1354,36	601,00
-1345,60	477,00
-1336,86	477,00
-1328,13	636,00
-1319,41	492,00
-1310,70	485,00
-1302,01	488,00
-1293,32	456,00
-1284,65	533,00
-1275,99	519,00
-1267,33	560,00
-1258,69	568,00
-1250,06	631,00
-1241,45	513,00
-1232,84	485,00
-1224,25	506,00
-1215,66	478,00
-1207,09	490,00
-1198,53	471,00
-1189,97	430,00
-1181,43	480,00
-1172,91	447,00
-1164,39	506,00
-1155,88	511,00
-1147,38	352,00
-1138,90	466,00
-1130,43	467,00
-1121,96	459,00
-1113,51	421,00
-1105,07	461,00
-1096,64	422,00
-1088,22	534,00
-1079,81	478,00
-1071,41	487,00
-1063,02	538,00
-1054,65	489,00
-1046,28	524,00
-1037,92	525,00
-1029,58	425,00
-1021,24	550,00
-1012,92	733,00
-1004,61	494,00
-996,30	715,00
-988,01	441,00
-979,73	516,00
-971,46	465,00
-963,20	445,00
-954,95	429,00
-946,71	433,00
-938,48	460,00
-930,26	512,00
-922,06	510,00
-913,86	494,00
-905,67	437,00
-897,49	484,00
-889,33	457,00
-881,17	526,00
-873,02	569,00
-864,89	311,00
-856,76	479,00
-848,65	436,00
-840,54	531,00
-832,45	492,00
-824,36	454,00
-816,29	524,00
-808,22	476,00
-800,17	538,00
-792,12	658,00
-784,09	601,00
-776,06	409,00
-768,05	466,00
-760,04	456,00
-752,05	440,00
-744,07	529,00
-736,09	527,00
-728,13	385,00
-720,17	522,00
-712,23	474,00
-704,29	452,00
-696,37	506,00
-688,45	500,00
-680,55	462,00
-672,65	441,00
-664,77	374,00
-656,89	559,00
-649,03	484,00
-641,17	515,00
-633,32	512,00
-625,49	478,00
-617,66	491,00
-609,84	492,00
-602,03	357,00
-594,23	434,00
-586,45	483,00
-578,67	502,00
-570,90	421,00
-563,14	469,00
-555,39	536,00
-547,65	567,00
-539,91	520,00
-532,19	494,00
-524,48	577,00
-516,78	554,00
-509,08	471,00
-501,40	425,00
-493,72	440,00
-486,06	476,00
-478,40	638,00
-470,76	452,00
-463,12	472,00
-455,49	414,00
-447,87	457,00
-440,26	422,00
-432,66	428,00
-425,07	523,00
-417,49	385,00
-409,92	519,00
-402,35	324,00
-394,80	471,00
-387,25	556,00
-379,72	512,00
-372,19	437,00
-364,67	509,00
-357,17	509,00
-349,67	492,00
-342,18	450,00
-334,69	599,00
-327,22	515,00
-319,76	488,00
-312,30	506,00
-304,86	522,00
-297,42	565,00
-290,00	511,00
-282,58	475,00
-275,17	490,00
-267,77	595,00
-260,37	473,00
-252,99	549,00
-245,62	474,00
-238,25	423,00
-230,90	509,00
-223,55	607,00
-216,21	525,00
-208,88	630,00
-201,56	660,00
-194,25	585,00
-186,94	454,00
-179,65	610,00
-172,36	626,00
-165,08	551,00
-157,81	680,00
-150,55	687,00
-143,30	712,00
-136,06	689,00
-128,82	734,00
-121,60	697,00
-114,38	796,00
-107,17	840,00
-99,97	879,00
-92,78	946,00
-85,60	932,00
-78,42	1076,00
-71,25	1138,00
-64,10	1284,00
-56,95	1288,00
-49,81	1487,00
-42,67	1887,00
-35,55	2067,00
-28,43	2701,00
-21,33	4204,00
-14,23	12605,00
-7,14	57775,00
-0,05	57564,00
7,02	57281,00
14,09	45262,00
21,14	11963,00
28,19	5284,00
35,23	3489,00
42,27	2729,00
49,29	2308,00
56,31	2021,00
63,32	1862,00
70,32	1517,00
77,31	1276,00
84,29	1199,00
91,27	1163,00
98,23	1163,00
105,19	1067,00
112,14	1091,00
119,09	1421,00
126,02	1933,00
132,95	2283,00
139,87	2402,00
146,78	2445,00
153,68	2236,00
160,58	2248,00
167,46	2152,00
174,34	2267,00
181,21	2392,00
188,08	2279,00
194,93	2376,00
201,78	2171,00
208,62	2112,00
215,45	2296,00
222,27	2380,00
229,09	2366,00
235,90	2290,00
242,70	2219,00
249,49	2250,00
256,27	2184,00
263,05	2284,00
269,82	2137,00
276,58	2293,00
283,33	2193,00
290,08	2288,00
296,82	2132,00
303,55	2050,00
310,27	2070,00
316,98	2213,00
323,69	2132,00
330,39	2070,00
337,08	2207,00
343,76	2127,00
350,44	2160,00
357,11	2188,00
363,77	2130,00
370,42	2078,00
377,07	2247,00
383,71	2160,00
390,34	2192,00
396,96	2130,00
403,58	2066,00
410,19	2160,00
416,79	2175,00
423,38	2191,00
429,97	2169,00
436,55	2051,00
443,12	2080,00
449,68	2032,00
456,24	2112,00
462,79	2123,00
469,33	2123,00
475,86	2093,00
482,39	2100,00
488,91	2144,00
495,42	1925,00
501,93	2122,00
508,42	2025,00
514,91	2185,00
521,40	1968,00
527,87	2070,00
534,34	1970,00
540,80	2071,00
547,25	2082,00
553,70	2153,00
560,14	1977,00
566,57	2175,00
573,00	2049,00
579,41	2139,00
585,83	2039,00
592,23	2034,00
598,62	2069,00
605,01	2017,00
611,40	2072,00
617,77	2117,00
624,14	1940,00
630,50	2106,00
636,85	2067,00
643,20	2098,00
649,54	2020,00
655,87	2060,00
662,20	2208,00
668,52	2077,00
674,83	2081,00
681,13	2027,00
687,43	2020,00
693,72	2078,00
700,00	1954,00
706,28	1953,00
712,55	2052,00
718,81	2046,00
725,07	2025,00
731,32	1940,00
737,56	2107,00
743,79	2077,00
750,02	2079,00
756,24	2037,00
762,46	2049,00
768,67	2313,00
774,87	2147,00
781,06	2081,00
787,25	2047,00
793,43	2083,00
799,60	2005,00
805,77	2123,00
811,93	2078,00
818,08	2010,00
824,23	2128,00
830,37	2260,00
836,50	2167,00
842,63	2068,00
848,75	2066,00
854,87	2164,00
860,97	2057,00
867,07	2176,00
873,17	2118,00
879,25	2129,00
885,33	2080,00
891,41	2160,00
897,47	2081,00
903,53	2166,00
909,59	2104,00
915,63	2133,00
921,67	2145,00
927,71	2119,00
933,74	2015,00
939,76	1973,00
945,77	1992,00
951,78	2127,00
957,78	2083,00
963,78	2134,00
969,77	2135,00
975,75	2115,00
981,72	2084,00
987,69	2891,00
993,66	2219,00
999,61	2136,00
1005,56	2179,00
1011,51	2112,00
1017,44	2180,00
1023,37	2163,00
1029,30	2133,00
1035,22	2205,00
1041,13	2212,00
1047,03	2186,00
1052,93	2321,00
1058,83	2562,00
1064,71	2777,00
1070,59	2632,00
1076,47	2375,00
1082,33	2352,00
1088,20	2284,00
1094,05	2376,00
1099,90	2230,00
1105,74	2264,00
1111,58	2302,00
1117,41	2339,00
1123,23	2656,00
1129,05	2868,00
1134,86	2683,00
1140,67	2460,00
1146,47	2358,00
1152,26	2305,00
1158,05	2115,00
1163,83	2263,00
1169,60	2272,00
1175,37	2238,00
1181,13	2335,00
1186,89	2299,00
1192,64	2195,00
1198,38	2336,00
1204,12	2194,00
1209,85	2208,00
1215,58	2286,00
1221,30	2303,00
1227,02	2249,00
1232,72	2277,00
1238,43	2204,00
1244,12	2323,00
1249,81	2314,00
1255,50	2237,00
1261,17	2320,00
1266,85	2266,00
1272,51	2446,00
1278,17	2404,00
1283,83	2488,00
1289,47	2792,00
1295,12	3124,00
1300,75	2975,00
1306,38	2678,00
1312,01	2494,00
1317,63	2416,00
1323,24	2415,00
1328,85	2455,00
1334,45	2319,00
1340,04	2337,00
1345,63	2253,00
1351,22	2436,00
1356,80	2353,00
1362,37	2420,00
1367,93	2358,00
1373,49	2364,00
1379,05	2389,00
1384,60	2392,00
1390,14	2404,00
1395,68	2406,00
1401,21	2287,00
1406,74	2399,00
1412,26	2566,00
1417,77	2729,00
1423,28	2588,00
1428,78	2725,00
1434,28	2966,00
1439,77	3071,00
1445,26	3123,00
1450,74	3089,00
1456,22	2935,00
1461,68	2908,00
1467,15	2787,00
1472,61	2560,00
1478,06	2642,00
1483,51	2456,00
1488,95	2435,00
1494,38	2447,00
1499,81	2301,00
1505,24	2229,00
1510,65	2341,00
1516,07	2298,00
1521,48	2196,00
1526,88	2087,00
1532,27	2218,00
1537,67	2211,00
1543,05	2314,00
1548,43	2199,00
1553,81	2266,00
1559,18	2208,00
1564,54	2211,00
1569,90	2116,00
1575,25	2129,00
1580,60	2062,00
1585,94	2273,00
1591,28	2132,00
1596,61	2100,00
1601,93	2141,00
1607,25	2138,00
1612,57	2220,00
1617,88	2219,00
1623,18	2160,00
1628,48	2172,00
1633,77	2083,00
1639,06	2130,00
1644,34	2171,00
1649,62	2074,00
1654,89	2245,00
1660,16	2057,00
1665,42	2083,00
1670,67	2086,00
1675,92	2189,00
1681,17	2003,00
1686,41	2071,00
1691,64	2174,00
1696,87	2080,00
1702,10	1981,00
1707,32	2198,00
1712,53	2024,00
1717,74	2102,00
1722,94	2061,00
1728,14	1995,00
1733,33	2003,00
1738,52	2017,00
1743,70	2027,00
1748,88	1998,00
1754,05	1962,00
1759,22	1879,00
1764,38	3211,00
1769,53	1929,00
1774,69	2009,00
1779,83	2025,00
1784,97	1896,00
1790,11	1966,00
1795,24	1974,00
1800,36	2036,00
1805,48	1852,00
1810,60	1936,00
1815,71	1953,00
1820,82	1948,00
1825,92	1993,00
1831,01	1918,00
1836,10	1911,00
1841,19	1933,00
1846,26	1858,00
1851,34	1884,00
1856,41	2065,00
1861,47	1999,00
1866,53	1981,00
1871,59	1939,00
1876,64	1924,00
1881,68	1920,00
1886,72	1960,00
1891,76	1874,00
1896,79	1912,00
1901,81	1717,00
1906,83	1856,00
1911,85	1840,00
1916,86	1831,00
1921,86	1867,00
1926,86	1763,00
1931,86	1820,00
1936,85	1880,00
1941,83	1802,00
1946,81	1855,00
1951,79	1797,00
1956,76	1704,00
1961,72	1654,00
1966,68	1733,00
1971,64	1723,00
1976,59	1671,00
1981,54	1777,00
1986,48	1720,00
1991,42	1654,00
1996,35	1864,00
2001,27	1818,00
2006,20	1733,00
2011,11	1870,00
2016,03	1790,00
2020,93	1711,00
2025,84	1746,00
2030,73	1725,00
2035,63	1613,00
2040,52	1707,00
2045,40	1625,00
2050,28	1672,00
2055,15	1765,00
2060,02	1579,00
2064,89	1707,00
2069,75	1726,00
2074,60	1639,00
2079,46	1735,00
2084,30	1583,00
2089,14	1643,00
2093,98	1717,00
2098,81	1675,00
2103,64	1734,00
2108,46	1683,00
2113,28	1652,00
2118,09	1640,00
2122,90	1615,00
2127,70	1617,00
2132,50	1769,00
2137,30	1639,00
2142,09	1556,00
2146,87	1534,00
2151,66	1759,00
2156,43	1616,00
2161,20	1653,00
2165,97	1620,00
2170,73	1587,00
2175,49	1662,00
2180,24	1596,00
2184,99	1617,00
2189,74	1615,00
2194,48	1599,00
2199,21	1713,00
2203,94	1477,00
2208,67	1520,00
2213,39	1452,00
2218,11	1584,00
2222,82	1645,00
2227,53	1620,00
2232,23	1623,00
2236,93	1588,00
2241,63	1613,00
2246,32	1495,00
2251,00	1559,00
2255,68	1523,00
2260,36	1529,00
2265,03	1614,00
2269,70	1625,00
2274,36	1518,00
2279,02	1519,00
2283,68	1593,00
2288,33	1423,00
2292,97	1512,00
2297,61	1514,00
2302,25	1435,00
2306,88	1454,00
2311,51	1342,00
2316,14	1499,00
2320,75	1455,00
2325,37	1409,00
2329,98	1463,00
2334,59	1336,00
2339,19	1396,00
2343,79	1371,00
2348,38	1443,00
2352,97	1339,00
2357,55	1354,00
2362,13	1463,00
2366,71	1377,00
2371,28	1428,00
2375,85	1422,00
2380,41	1517,00
2384,97	1396,00
2389,52	1322,00
2394,07	1365,00
2398,62	1468,00
2403,16	1363,00
2407,70	1317,00
2412,23	1414,00
2416,76	1401,00
2421,29	1412,00
2425,81	1470,00
2430,32	1297,00
2434,84	1221,00
2439,34	1352,00
2443,85	1381,00
2448,35	1323,00
2452,84	1314,00
2457,33	1260,00
2461,82	1254,00
2466,30	1289,00
2470,78	1381,00
2475,25	1206,00
2479,72	1251,00
2484,19	1254,00
2488,65	1282,00
2493,11	1257,00
2497,56	1215,00
2502,01	1193,00
2506,46	1299,00
2510,90	1307,00
2515,34	1328,00
2519,77	1298,00
2524,20	1121,00
2528,62	1271,00
2533,04	1242,00
2537,46	1049,00
2541,87	1091,00
2546,28	1193,00
2550,68	1209,00
2555,08	1138,00
2559,48	1170,00
2563,87	1082,00
2568,26	1142,00
2572,64	1228,00
2577,02	1187,00
2581,40	1040,00
2585,77	1091,00
2590,14	1169,00
2594,50	1082,00
2598,86	1223,00
2603,22	1081,00
2607,57	1195,00
2611,92	1141,00
2616,26	1114,00
2620,60	1191,00
2624,94	1160,00
2629,27	1245,00
2633,60	1081,00
2637,92	1200,00
2642,24	1200,00
2646,56	1152,00
2650,87	1128,00
2655,18	1164,00
2659,48	1117,00
2663,78	1178,00
2668,08	1067,00
2672,37	1111,00
2676,66	1187,00
2680,95	1083,00
2685,23	1115,00
2689,50	1053,00
2693,78	1072,00
2698,05	1102,00
2702,31	1139,00
2706,57	1146,00
2710,83	1196,00
2715,08	1112,00
2719,33	1304,00
2723,58	1218,00
2727,82	1216,00
2732,06	1156,00
2736,29	1075,00
2740,53	1192,00
2744,75	1121,00
2748,97	1088,00
2753,19	1217,00
2757,41	1133,00
2761,62	1108,00
2765,83	1234,00
2770,03	1087,00
2774,23	1110,00
2778,43	1029,00
2782,62	1056,00
2786,81	1094,00
2791,00	1228,00
2795,18	1212,00
2799,35	1102,00
2803,53	1212,00
2807,70	1164,00
2811,86	1043,00
2816,03	1289,00
2820,19	1173,00
2824,34	1278,00
2828,49	1286,00
2832,64	1352,00
2836,78	1575,00
2840,92	1611,00
2845,06	1930,00
2849,19	1913,00
2853,32	2077,00
2857,45	2039,00
2861,57	2045,00
2865,69	1931,00
2869,80	1863,00
2873,91	1910,00
2878,02	2009,00
2882,12	2289,00
2886,22	2112,00
2890,32	2097,00
2894,41	1957,00
2898,50	1813,00
2902,58	1680,00
2906,67	1722,00
2910,74	1513,00
2914,82	1527,00
2918,89	1477,00
2922,96	1380,00
2927,02	1436,00
2931,08	1301,00
2935,13	1224,00
2939,19	1271,00
2943,24	1273,00
2947,28	1123,00
2951,32	1057,00
2955,36	971,00
2959,40	1091,00
2963,43	1116,00
2967,46	872,00
2971,48	903,00
2975,50	961,00
2979,52	864,00
2983,53	1008,00
2987,54	966,00
2991,55	914,00
2995,55	864,00
2999,55	825,00
3003,54	817,00
3007,54	817,00
3011,53	932,00
3015,51	792,00
3019,49	914,00
3023,47	844,00
3027,45	789,00
3031,42	778,00
3035,39	751,00
3039,35	820,00
3043,31	839,00
3047,27	784,00
3051,22	849,00
3055,17	760,00
3059,12	670,00
3063,06	788,00
3067,00	751,00
3070,94	726,00
3074,87	771,00
3078,80	802,00
3082,73	700,00
3086,65	774,00
3090,57	652,00
3094,49	746,00
3098,40	734,00
3102,31	578,00
3106,22	773,00
3110,12	785,00
3114,02	699,00
3117,92	734,00
3121,81	645,00
3125,70	696,00
3129,58	693,00
3133,47	664,00
3137,34	643,00
3141,22	754,00
3145,09	742,00
3148,96	610,00
3152,83	559,00
3156,69	722,00
3160,55	617,00
3164,40	697,00
3168,26	643,00
3172,10	813,00
3175,95	660,00
3179,79	691,00
3183,63	601,00
3187,47	647,00
3191,30	626,00
3195,13	756,00
3198,95	597,00
3202,78	751,00
3206,60	549,00
3210,41	635,00
3214,23	646,00
3218,03	686,00
3221,84	583,00
3225,64	576,00
3229,44	641,00
3233,24	603,00
3237,03	599,00
3240,82	579,00
3244,61	639,00
3248,39	637,00
3252,17	596,00
3255,95	615,00
3259,72	665,00
3263,49	737,00
3267,26	515,00
3271,03	598,00
3274,79	628,00
3278,54	651,00
3282,30	543,00
3286,05	564,00
3289,80	651,00
3293,54	697,00
3297,29	577,00
3301,02	532,00
3304,76	588,00
3308,49	636,00
3312,22	598,00
3315,95	585,00
3319,67	562,00
3323,39	667,00
3327,10	635,00
3330,82	516,00
3334,53	481,00
3338,24	530,00
3341,94	594,00
3345,64	504,00
3349,34	604,00
3353,03	589,00
3356,72	512,00
3360,41	572,00
3364,10	571,00
3367,78	548,00
3371,46	609,00
3375,13	572,00
3378,81	564,00
3382,48	603,00
3386,14	624,00
3389,81	631,00
3393,47	524,00
3397,12	595,00
3400,78	581,00
3404,43	627,00
3408,08	483,00
3411,72	566,00
3415,36	504,00
3419,00	456,00
3422,64	516,00
3426,27	493,00
3429,90	492,00
3433,53	596,00
3437,15	485,00
3440,77	434,00
3444,39	490,00
3448,00	568,00
3451,62	487,00
3455,22	567,00
3458,83	497,00
3462,43	535,00
3466,03	539,00
3469,63	498,00
3473,22	576,00
3476,81	485,00
3480,40	569,00
3483,99	586,00
3487,57	479,00
3491,15	461,00
3494,72	479,00
3498,29	558,00
3501,86	433,00
3505,43	568,00
3508,99	515,00
3512,56	486,00
3516,11	563,00
3519,67	472,00
3523,22	536,00
3526,77	580,00
3530,32	444,00
3533,86	557,00
3537,40	526,00
3540,94	538,00
3544,47	541,00
3548,00	502,00
3551,53	539,00
3555,06	453,00
3558,58	487,00
3562,10	507,00
3565,62	559,00
3569,13	512,00
3572,64	420,00
3576,15	386,00
3579,66	415,00
3583,16	519,00
3586,66	462,00
3590,16	386,00
3593,65	423,00
3597,14	525,00
3600,63	487,00
3604,11	648,00
3607,60	462,00
3611,08	554,00
3614,55	536,00
3618,03	383,00
3621,50	392,00
3624,97	507,00
3628,43	528,00
3631,90	472,00
3635,36	383,00
3638,81	496,00
3642,27	525,00
3645,72	546,00
3649,17	465,00
3652,61	401,00
3656,06	397,00
3659,50	408,00
3662,93	420,00
3666,37	424,00
3669,80	555,00
3673,23	431,00
3676,65	471,00
3680,08	448,00
3683,50	384,00
3686,92	444,00
3690,33	401,00
3693,74	481,00
3697,15	357,00
3700,56	439,00
3703,96	427,00
3707,36	373,00
3710,76	365,00
3714,16	423,00
3717,55	303,00
3720,94	428,00
3724,33	405,00
3727,71	502,00
3731,10	352,00
3734,48	388,00
3737,85	357,00
3741,23	309,00
3744,60	487,00
3747,97	389,00
3751,33	358,00
3754,69	470,00
3758,05	406,00
3761,41	338,00
3764,77	380,00
3768,12	316,00
3771,47	333,00
3774,82	473,00
3778,16	-7,00
3781,50	9,00
3784,84	1,00
3788,18	7,00
>>>>>End Processed Spectral Data<<<<<
