SpectraSuite Data File
++++++++++++++++++++++++++++++++++++
Date: Mon Mar 09 14:48:17 ICT 2026
User: Administrator
Dark Spectrum Present: Yes
Reference Spectrum Present: No
Number of Sampled Component Spectra: 1
Spectrometers: MAYP113682
Integration Time (usec): 3000000 (MAYP113682)
Spectra Averaged: 1 (MAYP113682)
Boxcar Smoothing: 0 (MAYP113682)
Correct for Electrical Dark: No (MAYP113682)
Strobe/Lamp Enabled: No (MAYP113682)
Correct for Detector Non-linearity: No (MAYP113682)
Correct for Stray Light: No (MAYP113682)
Number of Pixels in Processed Spectrum: 2068
>>>>>Begin Processed Spectral Data<<<<<
-37534,58	36,00
-37414,56	2,00
-37295,11	8,00
-37176,24	7,00
-37057,95	721,00
-36940,22	672,00
-36823,05	800,00
-36706,45	830,00
-36590,40	765,00
-36474,90	808,00
-36359,95	870,00
-36245,55	774,00
-36131,68	835,00
-36018,35	763,00
-35905,55	824,00
-35793,29	801,00
-35681,54	860,00
-35570,32	781,00
-35459,62	862,00
-35349,43	914,00
-35239,75	807,00
-35130,58	825,00
-35021,91	844,00
-34913,74	872,00
-34806,07	804,00
-34698,89	965,00
-34592,20	870,00
-34486,00	943,00
-34380,28	813,00
-34275,04	810,00
-34170,27	792,00
-34065,98	881,00
-33962,16	847,00
-33858,81	933,00
-33755,92	868,00
-33653,49	1075,00
-33551,52	914,00
-33450,01	796,00
-33348,94	825,00
-33248,33	867,00
-33148,16	954,00
-33048,43	892,00
-32949,14	998,00
-32850,29	950,00
-32751,87	866,00
-32653,89	927,00
-32556,33	1054,00
-32459,20	957,00
-32362,49	914,00
-32266,19	852,00
-32170,32	919,00
-32074,86	957,00
-31979,82	987,00
-31885,18	1036,00
-31790,95	1008,00
-31697,12	968,00
-31603,69	991,00
-31510,67	904,00
-31418,04	938,00
-31325,80	924,00
-31233,95	1029,00
-31142,49	931,00
-31051,42	1014,00
-30960,73	998,00
-30870,43	949,00
-30780,50	940,00
-30690,95	917,00
-30601,77	1151,00
-30512,97	845,00
-30424,53	931,00
-30336,46	1010,00
-30248,76	987,00
-30161,42	963,00
-30074,44	926,00
-29987,81	902,00
-29901,55	1023,00
-29815,63	914,00
-29730,07	953,00
-29644,86	976,00
-29560,00	1027,00
-29475,48	935,00
-29391,30	990,00
-29307,47	811,00
-29223,97	910,00
-29140,81	884,00
-29057,99	1012,00
-28975,50	845,00
-28893,34	1135,00
-28811,51	878,00
-28730,00	937,00
-28648,82	870,00
-28567,97	1066,00
-28487,43	944,00
-28407,21	886,00
-28327,32	883,00
-28247,73	992,00
-28168,46	865,00
-28089,50	891,00
-28010,85	833,00
-27932,51	817,00
-27854,48	959,00
-27776,75	881,00
-27699,32	907,00
-27622,19	1014,00
-27545,37	904,00
-27468,84	921,00
-27392,60	1030,00
-27316,66	911,00
-27241,01	863,00
-27165,66	933,00
-27090,59	910,00
-27015,81	925,00
-26941,31	1040,00
-26867,10	932,00
-26793,17	927,00
-26719,52	977,00
-26646,15	832,00
-26573,06	1001,00
-26500,24	912,00
-26427,70	889,00
-26355,43	960,00
-26283,43	945,00
-26211,71	1028,00
-26140,25	894,00
-26069,06	1141,00
-25998,13	827,00
-25927,46	883,00
-25857,06	1002,00
-25786,92	1038,00
-25717,04	822,00
-25647,42	899,00
-25578,05	891,00
-25508,94	958,00
-25440,09	923,00
-25371,48	889,00
-25303,13	873,00
-25235,02	931,00
-25167,17	971,00
-25099,56	986,00
-25032,19	872,00
-24965,07	836,00
-24898,20	850,00
-24831,56	995,00
-24765,17	929,00
-24699,01	868,00
-24633,10	922,00
-24567,41	826,00
-24501,97	952,00
-24436,75	887,00
-24371,77	888,00
-24307,03	912,00
-24242,51	817,00
-24178,22	1009,00
-24114,16	843,00
-24050,32	1005,00
-23986,71	932,00
-23923,32	988,00
-23860,16	853,00
-23797,22	847,00
-23734,50	891,00
-23672,00	799,00
-23609,71	898,00
-23547,65	827,00
-23485,80	884,00
-23424,16	913,00
-23362,74	987,00
-23301,53	907,00
-23240,54	799,00
-23179,75	924,00
-23119,17	884,00
-23058,80	984,00
-22998,64	836,00
-22938,68	858,00
-22878,93	922,00
-22819,39	956,00
-22760,04	850,00
-22700,90	865,00
-22641,96	928,00
-22583,22	880,00
-22524,68	887,00
-22466,33	851,00
-22408,19	981,00
-22350,23	915,00
-22292,48	956,00
-22234,92	934,00
-22177,55	991,00
-22120,37	1044,00
-22063,38	831,00
-22006,58	848,00
-21949,98	958,00
-21893,56	732,00
-21837,33	803,00
-21781,28	973,00
-21725,42	827,00
-21669,74	844,00
-21614,25	886,00
-21558,94	865,00
-21503,81	960,00
-21448,86	902,00
-21394,10	929,00
-21339,51	851,00
-21285,10	821,00
-21230,86	823,00
-21176,81	819,00
-21122,93	767,00
-21069,22	900,00
-21015,69	874,00
-20962,33	947,00
-20909,14	864,00
-20856,13	830,00
-20803,28	853,00
-20750,61	865,00
-20698,10	812,00
-20645,76	903,00
-20593,59	1062,00
-20541,59	956,00
-20489,75	983,00
-20438,07	840,00
-20386,56	1016,00
-20335,22	895,00
-20284,03	839,00
-20233,01	865,00
-20182,15	827,00
-20131,45	873,00
-20080,91	889,00
-20030,52	838,00
-19980,30	793,00
-19930,23	791,00
-19880,32	975,00
-19830,56	1031,00
-19780,96	837,00
-19731,52	987,00
-19682,23	874,00
-19633,09	851,00
-19584,10	860,00
-19535,26	828,00
-19486,58	1019,00
-19438,04	949,00
-19389,66	832,00
-19341,42	859,00
-19293,33	820,00
-19245,39	912,00
-19197,60	890,00
-19149,95	888,00
-19102,45	949,00
-19055,09	827,00
-19007,87	1035,00
-18960,80	909,00
-18913,87	890,00
-18867,09	920,00
-18820,44	938,00
-18773,94	930,00
-18727,57	864,00
-18681,35	794,00
-18635,26	970,00
-18589,31	764,00
-18543,50	759,00
-18497,83	956,00
-18452,29	846,00
-18406,89	892,00
-18361,63	1019,00
-18316,50	913,00
-18271,50	881,00
-18226,63	958,00
-18181,90	864,00
-18137,30	930,00
-18092,84	867,00
-18048,50	942,00
-18004,29	755,00
-17960,22	851,00
-17916,27	871,00
-17872,45	882,00
-17828,76	931,00
-17785,20	965,00
-17741,77	840,00
-17698,46	897,00
-17655,28	774,00
-17612,22	807,00
-17569,29	833,00
-17526,48	900,00
-17483,79	791,00
-17441,23	879,00
-17398,79	852,00
-17356,48	885,00
-17314,28	1116,00
-17272,21	897,00
-17230,26	772,00
-17188,42	990,00
-17146,71	906,00
-17105,12	911,00
-17063,64	934,00
-17022,28	860,00
-16981,04	958,00
-16939,92	900,00
-16898,91	1017,00
-16858,02	832,00
-16817,25	840,00
-16776,59	784,00
-16736,04	925,00
-16695,61	816,00
-16655,29	875,00
-16615,09	934,00
-16574,99	931,00
-16535,01	807,00
-16495,15	901,00
-16455,39	880,00
-16415,74	913,00
-16376,21	833,00
-16336,78	790,00
-16297,46	876,00
-16258,26	908,00
-16219,16	948,00
-16180,17	812,00
-16141,28	1024,00
-16102,51	914,00
-16063,84	918,00
-16025,27	1007,00
-15986,82	773,00
-15948,46	804,00
-15910,22	892,00
-15872,07	863,00
-15834,04	841,00
-15796,10	823,00
-15758,27	973,00
-15720,54	884,00
-15682,91	917,00
-15645,39	925,00
-15607,97	953,00
-15570,64	818,00
-15533,42	905,00
-15496,30	880,00
-15459,28	890,00
-15422,36	880,00
-15385,54	837,00
-15348,82	813,00
-15312,19	1060,00
-15275,66	766,00
-15239,23	799,00
-15202,90	783,00
-15166,67	764,00
-15130,53	877,00
-15094,48	996,00
-15058,54	933,00
-15022,68	778,00
-14986,93	780,00
-14951,26	872,00
-14915,69	835,00
-14880,22	807,00
-14844,84	819,00
-14809,55	944,00
-14774,35	861,00
-14739,25	1007,00
-14704,24	855,00
-14669,32	845,00
-14634,49	867,00
-14599,75	895,00
-14565,10	676,00
-14530,55	965,00
-14496,08	906,00
-14461,70	853,00
-14427,41	827,00
-14393,21	854,00
-14359,10	809,00
-14325,07	940,00
-14291,14	958,00
-14257,29	930,00
-14223,52	888,00
-14189,85	1019,00
-14156,26	856,00
-14122,76	889,00
-14089,34	885,00
-14056,01	840,00
-14022,76	929,00
-13989,60	1005,00
-13956,52	910,00
-13923,53	976,00
-13890,62	868,00
-13857,79	819,00
-13825,05	907,00
-13792,39	786,00
-13759,81	898,00
-13727,31	800,00
-13694,90	874,00
-13662,57	915,00
-13630,31	900,00
-13598,14	902,00
-13566,05	836,00
-13534,05	937,00
-13502,12	762,00
-13470,27	859,00
-13438,50	1000,00
-13406,80	783,00
-13375,19	809,00
-13343,66	918,00
-13312,20	930,00
-13280,83	851,00
-13249,53	791,00
-13218,30	778,00
-13187,16	745,00
-13156,09	1059,00
-13125,10	988,00
-13094,18	908,00
-13063,34	986,00
-13032,58	759,00
-13001,89	885,00
-12971,28	908,00
-12940,74	882,00
-12910,27	900,00
-12879,88	904,00
-12849,57	921,00
-12819,33	844,00
-12789,16	854,00
-12759,06	845,00
-12729,04	925,00
-12699,09	771,00
-12669,21	846,00
-12639,41	868,00
-12609,68	877,00
-12580,02	833,00
-12550,43	978,00
-12520,91	779,00
-12491,46	807,00
-12462,08	777,00
-12432,77	814,00
-12403,54	848,00
-12374,37	786,00
-12345,27	933,00
-12316,24	889,00
-12287,29	1029,00
-12258,40	858,00
-12229,57	925,00
-12200,82	916,00
-12172,14	799,00
-12143,52	891,00
-12114,97	816,00
-12086,49	880,00
-12058,07	907,00
-12029,73	840,00
-12001,44	1009,00
-11973,23	905,00
-11945,08	972,00
-11917,00	869,00
-11888,98	869,00
-11861,03	798,00
-11833,15	904,00
-11805,32	877,00
-11777,57	960,00
-11749,88	924,00
-11722,25	876,00
-11694,69	863,00
-11667,19	900,00
-11639,75	846,00
-11612,38	947,00
-11585,07	802,00
-11557,83	888,00
-11530,65	1014,00
-11503,53	948,00
-11476,47	965,00
-11449,48	925,00
-11422,54	905,00
-11395,67	845,00
-11368,86	919,00
-11342,11	875,00
-11315,43	857,00
-11288,80	721,00
-11262,23	1056,00
-11235,73	841,00
-11209,28	886,00
-11182,90	937,00
-11156,57	954,00
-11130,31	980,00
-11104,10	961,00
-11077,96	900,00
-11051,87	924,00
-11025,84	948,00
-10999,87	950,00
-10973,96	938,00
-10948,11	886,00
-10922,31	862,00
-10896,58	931,00
-10870,90	1119,00
-10845,28	891,00
-10819,71	801,00
-10794,20	816,00
-10768,75	978,00
-10743,36	841,00
-10718,02	792,00
-10692,74	850,00
-10667,52	759,00
-10642,35	934,00
-10617,24	1015,00
-10592,18	907,00
-10567,18	783,00
-10542,23	894,00
-10517,34	999,00
-10492,51	940,00
-10467,72	861,00
-10443,00	803,00
-10418,32	930,00
-10393,70	863,00
-10369,14	825,00
-10344,63	915,00
-10320,17	849,00
-10295,77	960,00
-10271,42	880,00
-10247,12	991,00
-10222,88	1010,00
-10198,68	787,00
-10174,54	887,00
-10150,46	938,00
-10126,42	977,00
-10102,44	953,00
-10078,51	983,00
-10054,63	956,00
-10030,80	939,00
-10007,03	1031,00
-9983,30	877,00
-9959,63	924,00
-9936,01	997,00
-9912,44	983,00
-9888,92	929,00
-9865,44	897,00
-9842,02	1032,00
-9818,65	955,00
-9795,33	947,00
-9772,06	975,00
-9748,84	901,00
-9725,67	1007,00
-9702,55	930,00
-9679,47	1138,00
-9656,45	1048,00
-9633,47	928,00
-9610,55	1018,00
-9587,67	1079,00
-9564,84	1248,00
-9542,06	1085,00
-9519,32	1181,00
-9496,64	1206,00
-9474,00	1098,00
-9451,41	1098,00
-9428,87	1233,00
-9406,37	1198,00
-9383,92	1170,00
-9361,52	1151,00
-9339,17	1208,00
-9316,86	1214,00
-9294,60	1132,00
-9272,38	1431,00
-9250,21	1494,00
-9228,09	1367,00
-9206,01	1369,00
-9183,98	1239,00
-9162,00	1199,00
-9140,06	1214,00
-9118,16	1213,00
-9096,31	1317,00
-9074,51	1272,00
-9052,75	1568,00
-9031,04	1403,00
-9009,37	1186,00
-8987,74	1275,00
-8966,16	1282,00
-8944,63	1109,00
-8923,14	1107,00
-8901,69	1136,00
-8880,29	1167,00
-8858,93	1224,00
-8837,61	1318,00
-8816,34	1190,00
-8795,11	1264,00
-8773,92	1224,00
-8752,78	1296,00
-8731,68	1152,00
-8710,62	1168,00
-8689,61	1048,00
-8668,63	1144,00
-8647,70	1356,00
-8626,82	1256,00
-8605,97	1292,00
-8585,17	1212,00
-8564,41	1189,00
-8543,69	1208,00
-8523,01	1081,00
-8502,37	1290,00
-8481,78	1155,00
-8461,23	970,00
-8440,71	1121,00
-8420,24	1075,00
-8399,81	1237,00
-8379,42	1216,00
-8359,08	1176,00
-8338,77	1101,00
-8318,50	1252,00
-8298,27	1136,00
-8278,09	1169,00
-8257,94	991,00
-8237,83	1252,00
-8217,76	1242,00
-8197,74	1094,00
-8177,75	1195,00
-8157,80	1212,00
-8137,89	1078,00
-8118,02	1198,00
-8098,19	1212,00
-8078,40	1075,00
-8058,65	941,00
-8038,93	1186,00
-8019,26	1153,00
-7999,62	1171,00
-7980,02	1023,00
-7960,46	1114,00
-7940,94	1008,00
-7921,46	1107,00
-7902,01	1045,00
-7882,60	1190,00
-7863,23	1036,00
-7843,90	1176,00
-7824,61	1094,00
-7805,35	1114,00
-7786,13	1174,00
-7766,95	1089,00
-7747,80	1124,00
-7728,69	1210,00
-7709,62	1087,00
-7690,59	1147,00
-7671,59	1130,00
-7652,63	1076,00
-7633,70	1078,00
-7614,81	1210,00
-7595,96	1073,00
-7577,15	1087,00
-7558,37	1020,00
-7539,62	1080,00
-7520,91	1065,00
-7502,24	1186,00
-7483,60	1167,00
-7465,00	1135,00
-7446,44	1139,00
-7427,91	1027,00
-7409,41	1125,00
-7390,95	1116,00
-7372,53	987,00
-7354,14	962,00
-7335,78	935,00
-7317,46	998,00
-7299,18	1080,00
-7280,92	1027,00
-7262,71	1179,00
-7244,52	1135,00
-7226,38	1073,00
-7208,26	1121,00
-7190,18	1050,00
-7172,14	1084,00
-7154,12	1066,00
-7136,15	1044,00
-7118,20	1100,00
-7100,29	1113,00
-7082,41	1138,00
-7064,57	1108,00
-7046,76	1051,00
-7028,98	942,00
-7011,24	1247,00
-6993,53	795,00
-6975,85	1036,00
-6958,20	882,00
-6940,59	933,00
-6923,01	915,00
-6905,46	1134,00
-6887,94	1023,00
-6870,46	-928,00
-6853,01	1100,00
-6835,59	954,00
-6818,21	954,00
-6800,85	1147,00
-6783,53	932,00
-6766,24	972,00
-6748,98	917,00
-6731,76	904,00
-6714,56	872,00
-6697,40	848,00
-6680,26	808,00
-6663,16	977,00
-6646,09	1060,00
-6629,05	873,00
-6612,05	1171,00
-6595,07	972,00
-6578,13	1015,00
-6561,21	900,00
-6544,33	845,00
-6527,47	944,00
-6510,65	953,00
-6493,86	921,00
-6477,10	888,00
-6460,36	1041,00
-6443,66	901,00
-6426,99	950,00
-6410,35	828,00
-6393,74	1011,00
-6377,16	912,00
-6360,61	965,00
-6344,09	830,00
-6327,59	980,00
-6311,13	772,00
-6294,70	959,00
-6278,29	1104,00
-6261,92	942,00
-6245,58	974,00
-6229,26	1111,00
-6212,97	964,00
-6196,72	921,00
-6180,49	1068,00
-6164,29	833,00
-6148,12	1030,00
-6131,98	918,00
-6115,86	941,00
-6099,78	817,00
-6083,72	826,00
-6067,69	880,00
-6051,69	901,00
-6035,72	966,00
-6019,78	914,00
-6003,87	1016,00
-5987,98	941,00
-5972,12	954,00
-5956,29	976,00
-5940,49	838,00
-5924,71	980,00
-5908,96	844,00
-5893,24	929,00
-5877,55	885,00
-5861,89	911,00
-5846,25	883,00
-5830,64	971,00
-5815,05	843,00
-5799,50	900,00
-5783,97	974,00
-5768,47	1027,00
-5752,99	1044,00
-5737,55	918,00
-5722,12	901,00
-5706,73	957,00
-5691,36	984,00
-5676,02	794,00
-5660,71	931,00
-5645,42	887,00
-5630,16	947,00
-5614,92	943,00
-5599,71	790,00
-5584,53	897,00
-5569,37	840,00
-5554,24	1125,00
-5539,14	919,00
-5524,06	902,00
-5509,01	844,00
-5493,98	819,00
-5478,98	972,00
-5464,00	967,00
-5449,05	813,00
-5434,13	991,00
-5419,23	946,00
-5404,36	794,00
-5389,51	867,00
-5374,69	907,00
-5359,89	967,00
-5345,12	956,00
-5330,37	1058,00
-5315,65	1072,00
-5300,95	947,00
-5286,28	832,00
-5271,63	856,00
-5257,01	988,00
-5242,41	916,00
-5227,84	926,00
-5213,29	943,00
-5198,76	947,00
-5184,26	876,00
-5169,79	952,00
-5155,33	997,00
-5140,91	966,00
-5126,51	899,00
-5112,13	914,00
-5097,77	1011,00
-5083,44	945,00
-5069,13	863,00
-5054,85	1005,00
-5040,59	771,00
-5026,36	998,00
-5012,15	1116,00
-4997,96	977,00
-4983,80	908,00
-4969,66	935,00
-4955,54	828,00
-4941,44	941,00
-4927,37	978,00
-4913,33	959,00
-4899,30	870,00
-4885,30	937,00
-4871,33	884,00
-4857,37	1001,00
-4843,44	941,00
-4829,53	1041,00
-4815,65	1014,00
-4801,79	812,00
-4787,95	851,00
-4774,13	824,00
-4760,34	869,00
-4746,56	911,00
-4732,82	844,00
-4719,09	875,00
-4705,38	967,00
-4691,70	1021,00
-4678,04	892,00
-4664,41	953,00
-4650,79	1109,00
-4637,20	948,00
-4623,63	886,00
-4610,08	918,00
-4596,56	1031,00
-4583,05	824,00
-4569,57	893,00
-4556,11	998,00
-4542,67	851,00
-4529,25	827,00
-4515,86	955,00
-4502,49	931,00
-4489,13	1030,00
-4475,80	1016,00
-4462,49	827,00
-4449,21	1081,00
-4435,94	863,00
-4422,70	971,00
-4409,47	822,00
-4396,27	903,00
-4383,09	928,00
-4369,93	889,00
-4356,79	866,00
-4343,67	828,00
-4330,58	946,00
-4317,50	814,00
-4304,45	868,00
-4291,41	912,00
-4278,40	847,00
-4265,41	815,00
-4252,44	843,00
-4239,49	838,00
-4226,55	996,00
-4213,65	1025,00
-4200,76	964,00
-4187,89	810,00
-4175,04	862,00
-4162,21	933,00
-4149,40	807,00
-4136,61	924,00
-4123,85	833,00
-4111,10	879,00
-4098,37	995,00
-4085,66	999,00
-4072,98	979,00
-4060,31	837,00
-4047,66	972,00
-4035,04	1120,00
-4022,43	869,00
-4009,84	1024,00
-3997,27	785,00
-3984,72	965,00
-3972,19	1029,00
-3959,69	797,00
-3947,20	944,00
-3934,73	959,00
-3922,27	839,00
-3909,84	902,00
-3897,43	933,00
-3885,04	913,00
-3872,67	828,00
-3860,31	920,00
-3847,98	964,00
-3835,66	805,00
-3823,36	896,00
-3811,09	873,00
-3798,83	909,00
-3786,59	969,00
-3774,37	978,00
-3762,17	829,00
-3749,98	921,00
-3737,82	806,00
-3725,67	1095,00
-3713,55	746,00
-3701,44	953,00
-3689,35	929,00
-3677,28	973,00
-3665,22	921,00
-3653,19	866,00
-3641,17	856,00
-3629,18	925,00
-3617,20	921,00
-3605,24	852,00
-3593,30	887,00
-3581,37	866,00
-3569,47	906,00
-3557,58	982,00
-3545,71	904,00
-3533,86	912,00
-3522,02	873,00
-3510,21	923,00
-3498,41	862,00
-3486,63	798,00
-3474,87	972,00
-3463,12	817,00
-3451,40	933,00
-3439,69	988,00
-3428,00	942,00
-3416,33	957,00
-3404,67	794,00
-3393,03	927,00
-3381,41	948,00
-3369,81	904,00
-3358,22	801,00
-3346,66	905,00
-3335,10	903,00
-3323,57	884,00
-3312,06	956,00
-3300,56	856,00
-3289,08	830,00
-3277,61	882,00
-3266,16	983,00
-3254,73	985,00
-3243,32	885,00
-3231,92	864,00
-3220,55	869,00
-3209,18	996,00
-3197,84	831,00
-3186,51	671,00
-3175,20	875,00
-3163,90	813,00
-3152,63	933,00
-3141,36	931,00
-3130,12	910,00
-3118,89	942,00
-3107,68	954,00
-3096,49	942,00
-3085,31	913,00
-3074,15	873,00
-3063,00	910,00
-3051,87	1043,00
-3040,76	921,00
-3029,67	901,00
-3018,59	1102,00
-3007,52	989,00
-2996,48	1014,00
-2985,44	782,00
-2974,43	980,00
-2963,43	874,00
-2952,45	798,00
-2941,48	982,00
-2930,53	971,00
-2919,60	874,00
-2908,68	872,00
-2897,78	854,00
-2886,89	930,00
-2876,02	790,00
-2865,17	877,00
-2854,33	842,00
-2843,50	791,00
-2832,70	825,00
-2821,90	993,00
-2811,13	933,00
-2800,37	898,00
-2789,62	893,00
-2778,89	966,00
-2768,18	929,00
-2757,48	1043,00
-2746,80	1070,00
-2736,13	911,00
-2725,48	913,00
-2714,84	940,00
-2704,22	871,00
-2693,61	903,00
-2683,02	904,00
-2672,45	866,00
-2661,89	1047,00
-2651,34	875,00
-2640,81	862,00
-2630,30	943,00
-2619,80	891,00
-2609,31	1021,00
-2598,84	845,00
-2588,39	939,00
-2577,95	896,00
-2567,52	847,00
-2557,11	930,00
-2546,71	804,00
-2536,33	957,00
-2525,97	882,00
-2515,62	878,00
-2505,28	971,00
-2494,96	890,00
-2484,65	893,00
-2474,36	1136,00
-2464,08	877,00
-2453,82	1036,00
-2443,57	926,00
-2433,33	852,00
-2423,11	878,00
-2412,91	850,00
-2402,72	857,00
-2392,54	823,00
-2382,38	929,00
-2372,23	931,00
-2362,09	1530,00
-2351,97	839,00
-2341,87	923,00
-2331,78	908,00
-2321,70	990,00
-2311,64	940,00
-2301,59	801,00
-2291,55	802,00
-2281,53	928,00
-2271,53	840,00
-2261,53	1006,00
-2251,55	901,00
-2241,59	948,00
-2231,64	996,00
-2221,70	898,00
-2211,78	895,00
-2201,87	944,00
-2191,97	894,00
-2182,09	946,00
-2172,22	1038,00
-2162,37	798,00
-2152,53	808,00
-2142,70	785,00
-2132,89	784,00
-2123,09	1013,00
-2113,30	925,00
-2103,53	995,00
-2093,77	878,00
-2084,02	815,00
-2074,29	942,00
-2064,57	904,00
-2054,86	926,00
-2045,17	939,00
-2035,49	1015,00
-2025,82	907,00
-2016,17	922,00
-2006,53	873,00
-1996,91	888,00
-1987,29	819,00
-1977,69	900,00
-1968,11	855,00
-1958,53	832,00
-1948,97	878,00
-1939,42	910,00
-1929,89	823,00
-1920,37	916,00
-1910,86	874,00
-1901,36	939,00
-1891,88	879,00
-1882,41	980,00
-1872,95	944,00
-1863,51	789,00
-1854,08	934,00
-1844,66	1013,00
-1835,26	989,00
-1825,86	940,00
-1816,48	829,00
-1807,11	944,00
-1797,76	961,00
-1788,42	901,00
-1779,09	1031,00
-1769,77	892,00
-1760,47	1057,00
-1751,17	857,00
-1741,89	958,00
-1732,63	978,00
-1723,37	1159,00
-1714,13	1043,00
-1704,90	854,00
-1695,68	1076,00
-1686,48	846,00
-1677,29	857,00
-1668,11	1157,00
-1658,94	912,00
-1649,78	1016,00
-1640,64	970,00
-1631,51	878,00
-1622,39	939,00
-1613,28	976,00
-1604,19	1066,00
-1595,10	916,00
-1586,03	852,00
-1576,97	957,00
-1567,93	944,00
-1558,89	995,00
-1549,87	1001,00
-1540,86	889,00
-1531,86	858,00
-1522,87	809,00
-1513,90	1013,00
-1504,93	983,00
-1495,98	932,00
-1487,04	993,00
-1478,12	1006,00
-1469,20	879,00
-1460,30	1005,00
-1451,40	1013,00
-1442,52	876,00
-1433,65	952,00
-1424,80	956,00
-1415,95	863,00
-1407,12	1149,00
-1398,30	893,00
-1389,48	877,00
-1380,69	868,00
-1371,90	957,00
-1363,12	962,00
-1354,36	1012,00
-1345,60	830,00
-1336,86	953,00
-1328,13	1116,00
-1319,41	863,00
-1310,70	917,00
-1302,01	891,00
-1293,32	867,00
-1284,65	888,00
-1275,99	987,00
-1267,33	971,00
-1258,69	878,00
-1250,06	951,00
-1241,45	839,00
-1232,84	1045,00
-1224,25	925,00
-1215,66	982,00
-1207,09	994,00
-1198,53	825,00
-1189,97	882,00
-1181,43	897,00
-1172,91	992,00
-1164,39	947,00
-1155,88	871,00
-1147,38	824,00
-1138,90	940,00
-1130,43	848,00
-1121,96	910,00
-1113,51	940,00
-1105,07	880,00
-1096,64	904,00
-1088,22	910,00
-1079,81	955,00
-1071,41	1112,00
-1063,02	842,00
-1054,65	904,00
-1046,28	842,00
-1037,92	984,00
-1029,58	921,00
-1021,24	855,00
-1012,92	1359,00
-1004,61	985,00
-996,30	1232,00
-988,01	768,00
-979,73	966,00
-971,46	965,00
-963,20	789,00
-954,95	738,00
-946,71	925,00
-938,48	795,00
-930,26	977,00
-922,06	921,00
-913,86	939,00
-905,67	804,00
-897,49	885,00
-889,33	933,00
-881,17	1006,00
-873,02	937,00
-864,89	727,00
-856,76	805,00
-848,65	878,00
-840,54	933,00
-832,45	939,00
-824,36	768,00
-816,29	904,00
-808,22	984,00
-800,17	916,00
-792,12	1030,00
-784,09	1053,00
-776,06	838,00
-768,05	925,00
-760,04	864,00
-752,05	848,00
-744,07	1042,00
-736,09	987,00
-728,13	859,00
-720,17	888,00
-712,23	831,00
-704,29	854,00
-696,37	913,00
-688,45	1006,00
-680,55	925,00
-672,65	876,00
-664,77	770,00
-656,89	947,00
-649,03	832,00
-641,17	882,00
-633,32	1039,00
-625,49	890,00
-617,66	986,00
-609,84	931,00
-602,03	819,00
-594,23	845,00
-586,45	934,00
-578,67	852,00
-570,90	847,00
-563,14	845,00
-555,39	979,00
-547,65	1036,00
-539,91	956,00
-532,19	922,00
-524,48	947,00
-516,78	932,00
-509,08	924,00
-501,40	937,00
-493,72	876,00
-486,06	828,00
-478,40	1163,00
-470,76	908,00
-463,12	875,00
-455,49	830,00
-447,87	918,00
-440,26	837,00
-432,66	847,00
-425,07	943,00
-417,49	907,00
-409,92	902,00
-402,35	818,00
-394,80	872,00
-387,25	968,00
-379,72	940,00
-372,19	907,00
-364,67	1068,00
-357,17	992,00
-349,67	816,00
-342,18	867,00
-334,69	962,00
-327,22	968,00
-319,76	868,00
-312,30	1024,00
-304,86	971,00
-297,42	1006,00
-290,00	853,00
-282,58	874,00
-275,17	961,00
-267,77	1036,00
-260,37	817,00
-252,99	1080,00
-245,62	941,00
-238,25	873,00
-230,90	923,00
-223,55	1111,00
-216,21	933,00
-208,88	1034,00
-201,56	935,00
-194,25	963,00
-186,94	976,00
-179,65	1025,00
-172,36	1031,00
-165,08	940,00
-157,81	1139,00
-150,55	1144,00
-143,30	1119,00
-136,06	1098,00
-128,82	1143,00
-121,60	1134,00
-114,38	1173,00
-107,17	1252,00
-99,97	1371,00
-92,78	1257,00
-85,60	1398,00
-78,42	1451,00
-71,25	1679,00
-64,10	1698,00
-56,95	1810,00
-49,81	1914,00
-42,67	2274,00
-35,55	2566,00
-28,43	3238,00
-21,33	4597,00
-14,23	13404,00
-7,14	57775,00
-0,05	57564,00
7,02	57281,00
14,09	44686,00
21,14	12238,00
28,19	5568,00
35,23	3836,00
42,27	3060,00
49,29	2710,00
56,31	2512,00
63,32	2242,00
70,32	1982,00
77,31	1767,00
84,29	1522,00
91,27	1617,00
98,23	1656,00
105,19	1440,00
112,14	1611,00
119,09	1818,00
126,02	2360,00
132,95	2569,00
139,87	2612,00
146,78	2792,00
153,68	2578,00
160,58	2548,00
167,46	2568,00
174,34	2534,00
181,21	2650,00
188,08	2594,00
194,93	2763,00
201,78	2519,00
208,62	2526,00
215,45	2656,00
222,27	2604,00
229,09	2786,00
235,90	2431,00
242,70	2552,00
249,49	2683,00
256,27	2491,00
263,05	2623,00
269,82	2563,00
276,58	2623,00
283,33	2579,00
290,08	2547,00
296,82	2470,00
303,55	2528,00
310,27	2390,00
316,98	2446,00
323,69	2368,00
330,39	2409,00
337,08	2505,00
343,76	2498,00
350,44	2400,00
357,11	2552,00
363,77	2397,00
370,42	2327,00
377,07	2594,00
383,71	2400,00
390,34	2488,00
396,96	2348,00
403,58	2294,00
410,19	2490,00
416,79	2574,00
423,38	2496,00
429,97	2511,00
436,55	2337,00
443,12	2439,00
449,68	2348,00
456,24	2427,00
462,79	2453,00
469,33	2343,00
475,86	2455,00
482,39	2378,00
488,91	2390,00
495,42	2270,00
501,93	2413,00
508,42	2184,00
514,91	2407,00
521,40	2287,00
527,87	2394,00
534,34	2347,00
540,80	2477,00
547,25	2420,00
553,70	2456,00
560,14	2392,00
566,57	2389,00
573,00	2397,00
579,41	2439,00
585,83	2423,00
592,23	2287,00
598,62	2331,00
605,01	2322,00
611,40	2329,00
617,77	2518,00
624,14	2373,00
630,50	2405,00
636,85	2453,00
643,20	2317,00
649,54	2310,00
655,87	2372,00
662,20	2416,00
668,52	2398,00
674,83	2376,00
681,13	2319,00
687,43	2354,00
693,72	2313,00
700,00	2261,00
706,28	2350,00
712,55	2314,00
718,81	2322,00
725,07	2299,00
731,32	2278,00
737,56	2405,00
743,79	2376,00
750,02	2388,00
756,24	2302,00
762,46	2340,00
768,67	2721,00
774,87	2429,00
781,06	2328,00
787,25	2379,00
793,43	2415,00
799,60	2291,00
805,77	2508,00
811,93	2305,00
818,08	2355,00
824,23	2390,00
830,37	2562,00
836,50	2385,00
842,63	2469,00
848,75	2336,00
854,87	2418,00
860,97	2374,00
867,07	2399,00
873,17	2394,00
879,25	2516,00
885,33	2465,00
891,41	2383,00
897,47	2488,00
903,53	2405,00
909,59	2559,00
915,63	2436,00
921,67	2444,00
927,71	2471,00
933,74	2399,00
939,76	2290,00
945,77	2312,00
951,78	2456,00
957,78	2322,00
963,78	2381,00
969,77	2413,00
975,75	2482,00
981,72	2313,00
987,69	3795,00
993,66	2470,00
999,61	2429,00
1005,56	2457,00
1011,51	2272,00
1017,44	2345,00
1023,37	2410,00
1029,30	2392,00
1035,22	2562,00
1041,13	2452,00
1047,03	2489,00
1052,93	2592,00
1058,83	2827,00
1064,71	2952,00
1070,59	2773,00
1076,47	2590,00
1082,33	2587,00
1088,20	2489,00
1094,05	2541,00
1099,90	2469,00
1105,74	2452,00
1111,58	2495,00
1117,41	2588,00
1123,23	2731,00
1129,05	3095,00
1134,86	2977,00
1140,67	2749,00
1146,47	2638,00
1152,26	2550,00
1158,05	2393,00
1163,83	2615,00
1169,60	2595,00
1175,37	2609,00
1181,13	2484,00
1186,89	2507,00
1192,64	2445,00
1198,38	2670,00
1204,12	2553,00
1209,85	2425,00
1215,58	2551,00
1221,30	2548,00
1227,02	2605,00
1232,72	2521,00
1238,43	2424,00
1244,12	2542,00
1249,81	2475,00
1255,50	2589,00
1261,17	2512,00
1266,85	2558,00
1272,51	2601,00
1278,17	2665,00
1283,83	2531,00
1289,47	2932,00
1295,12	3328,00
1300,75	3127,00
1306,38	2850,00
1312,01	2668,00
1317,63	2635,00
1323,24	2508,00
1328,85	2732,00
1334,45	2538,00
1340,04	2568,00
1345,63	2504,00
1351,22	2693,00
1356,80	2605,00
1362,37	2681,00
1367,93	2664,00
1373,49	2547,00
1379,05	2510,00
1384,60	2682,00
1390,14	2633,00
1395,68	2615,00
1401,21	2635,00
1406,74	2673,00
1412,26	2788,00
1417,77	3072,00
1423,28	2795,00
1428,78	2988,00
1434,28	3200,00
1439,77	3307,00
1445,26	3243,00
1450,74	3283,00
1456,22	3056,00
1461,68	3109,00
1467,15	2898,00
1472,61	2814,00
1478,06	2956,00
1483,51	2722,00
1488,95	2672,00
1494,38	2716,00
1499,81	2481,00
1505,24	2457,00
1510,65	2584,00
1516,07	2573,00
1521,48	2479,00
1526,88	2285,00
1532,27	2582,00
1537,67	2430,00
1543,05	2578,00
1548,43	2353,00
1553,81	2456,00
1559,18	2376,00
1564,54	2456,00
1569,90	2423,00
1575,25	2402,00
1580,60	2282,00
1585,94	2502,00
1591,28	2379,00
1596,61	2470,00
1601,93	2429,00
1607,25	2461,00
1612,57	2411,00
1617,88	2419,00
1623,18	2327,00
1628,48	2441,00
1633,77	2371,00
1639,06	2463,00
1644,34	2281,00
1649,62	2333,00
1654,89	2508,00
1660,16	2287,00
1665,42	2395,00
1670,67	2317,00
1675,92	2480,00
1681,17	2318,00
1686,41	2392,00
1691,64	2545,00
1696,87	2263,00
1702,10	2250,00
1707,32	2457,00
1712,53	2306,00
1717,74	2370,00
1722,94	2303,00
1728,14	2402,00
1733,33	2252,00
1738,52	2165,00
1743,70	2343,00
1748,88	2291,00
1754,05	2271,00
1759,22	2107,00
1764,38	2490,00
1769,53	2113,00
1774,69	2285,00
1779,83	2229,00
1784,97	2193,00
1790,11	2311,00
1795,24	2183,00
1800,36	2255,00
1805,48	2176,00
1810,60	2160,00
1815,71	2192,00
1820,82	2203,00
1825,92	2172,00
1831,01	2146,00
1836,10	2191,00
1841,19	2136,00
1846,26	2067,00
1851,34	2260,00
1856,41	2317,00
1861,47	2129,00
1866,53	2264,00
1871,59	2190,00
1876,64	2164,00
1881,68	2191,00
1886,72	2259,00
1891,76	2164,00
1896,79	2147,00
1901,81	2019,00
1906,83	2120,00
1911,85	2038,00
1916,86	2126,00
1921,86	2251,00
1926,86	2044,00
1931,86	2112,00
1936,85	2084,00
1941,83	2046,00
1946,81	2041,00
1951,79	2136,00
1956,76	1964,00
1961,72	1942,00
1966,68	2063,00
1971,64	2021,00
1976,59	2028,00
1981,54	2021,00
1986,48	2064,00
1991,42	1962,00
1996,35	2218,00
2001,27	2008,00
2006,20	1967,00
2011,11	2061,00
2016,03	2046,00
2020,93	1999,00
2025,84	2050,00
2030,73	1961,00
2035,63	1801,00
2040,52	1929,00
2045,40	1893,00
2050,28	1948,00
2055,15	2092,00
2060,02	1817,00
2064,89	2022,00
2069,75	1988,00
2074,60	1984,00
2079,46	1952,00
2084,30	1923,00
2089,14	1886,00
2093,98	1991,00
2098,81	1941,00
2103,64	2030,00
2108,46	1977,00
2113,28	1918,00
2118,09	2015,00
2122,90	1955,00
2127,70	1795,00
2132,50	2009,00
2137,30	1932,00
2142,09	1866,00
2146,87	1894,00
2151,66	1948,00
2156,43	1950,00
2161,20	1896,00
2165,97	1992,00
2170,73	1839,00
2175,49	2007,00
2180,24	1841,00
2184,99	1886,00
2189,74	2044,00
2194,48	1911,00
2199,21	1974,00
2203,94	1822,00
2208,67	1797,00
2213,39	1676,00
2218,11	1856,00
2222,82	1859,00
2227,53	1752,00
2232,23	1979,00
2236,93	1903,00
2241,63	1823,00
2246,32	1782,00
2251,00	1779,00
2255,68	1768,00
2260,36	1860,00
2265,03	1915,00
2269,70	1928,00
2274,36	1738,00
2279,02	1784,00
2283,68	1804,00
2288,33	1675,00
2292,97	1796,00
2297,61	1879,00
2302,25	1781,00
2306,88	1700,00
2311,51	1698,00
2316,14	1742,00
2320,75	1723,00
2325,37	1704,00
2329,98	1912,00
2334,59	1716,00
2339,19	1769,00
2343,79	1659,00
2348,38	1754,00
2352,97	1813,00
2357,55	1785,00
2362,13	1815,00
2366,71	1620,00
2371,28	1754,00
2375,85	1834,00
2380,41	1736,00
2384,97	1689,00
2389,52	1739,00
2394,07	1752,00
2398,62	1758,00
2403,16	1672,00
2407,70	1582,00
2412,23	1792,00
2416,76	1728,00
2421,29	1750,00
2425,81	1722,00
2430,32	1651,00
2434,84	1482,00
2439,34	1644,00
2443,85	1674,00
2448,35	1592,00
2452,84	1603,00
2457,33	1661,00
2461,82	1540,00
2466,30	1572,00
2470,78	1717,00
2475,25	1552,00
2479,72	1496,00
2484,19	1588,00
2488,65	1688,00
2493,11	1495,00
2497,56	1622,00
2502,01	1452,00
2506,46	1715,00
2510,90	1658,00
2515,34	1597,00
2519,77	1606,00
2524,20	1474,00
2528,62	1494,00
2533,04	1575,00
2537,46	1429,00
2541,87	1507,00
2546,28	1415,00
2550,68	1478,00
2555,08	1382,00
2559,48	1538,00
2563,87	1484,00
2568,26	1426,00
2572,64	1505,00
2577,02	1548,00
2581,40	1411,00
2585,77	1579,00
2590,14	1521,00
2594,50	1386,00
2598,86	1526,00
2603,22	1456,00
2607,57	1444,00
2611,92	1497,00
2616,26	1419,00
2620,60	1616,00
2624,94	1368,00
2629,27	1549,00
2633,60	1375,00
2637,92	1515,00
2642,24	1630,00
2646,56	1386,00
2650,87	1382,00
2655,18	1585,00
2659,48	1384,00
2663,78	1443,00
2668,08	1417,00
2672,37	1475,00
2676,66	1526,00
2680,95	1501,00
2685,23	1444,00
2689,50	1381,00
2693,78	1445,00
2698,05	1414,00
2702,31	1414,00
2706,57	1410,00
2710,83	1604,00
2715,08	1437,00
2719,33	1632,00
2723,58	1514,00
2727,82	1515,00
2732,06	1410,00
2736,29	1434,00
2740,53	1577,00
2744,75	1395,00
2748,97	1569,00
2753,19	1530,00
2757,41	1504,00
2761,62	1551,00
2765,83	1588,00
2770,03	1379,00
2774,23	1417,00
2778,43	1465,00
2782,62	1421,00
2786,81	1417,00
2791,00	1494,00
2795,18	1573,00
2799,35	1498,00
2803,53	1507,00
2807,70	1566,00
2811,86	1294,00
2816,03	1579,00
2820,19	1507,00
2824,34	1523,00
2828,49	1611,00
2832,64	1713,00
2836,78	1782,00
2840,92	1803,00
2845,06	2083,00
2849,19	2252,00
2853,32	2198,00
2857,45	2218,00
2861,57	2188,00
2865,69	2148,00
2869,80	1989,00
2873,91	2103,00
2878,02	2280,00
2882,12	2409,00
2886,22	2292,00
2890,32	2238,00
2894,41	2165,00
2898,50	2124,00
2902,58	2051,00
2906,67	2024,00
2910,74	1776,00
2914,82	1791,00
2918,89	1790,00
2922,96	1663,00
2927,02	1637,00
2931,08	1538,00
2935,13	1396,00
2939,19	1577,00
2943,24	1565,00
2947,28	1561,00
2951,32	1374,00
2955,36	1296,00
2959,40	1365,00
2963,43	1391,00
2967,46	1256,00
2971,48	1325,00
2975,50	1368,00
2979,52	1364,00
2983,53	1327,00
2987,54	1298,00
2991,55	1307,00
2995,55	1217,00
2999,55	1225,00
3003,54	1211,00
3007,54	1337,00
3011,53	1186,00
3015,51	1324,00
3019,49	1332,00
3023,47	1148,00
3027,45	1183,00
3031,42	1172,00
3035,39	1124,00
3039,35	1162,00
3043,31	1232,00
3047,27	1212,00
3051,22	1217,00
3055,17	1105,00
3059,12	1113,00
3063,06	1138,00
3067,00	973,00
3070,94	1119,00
3074,87	1134,00
3078,80	1172,00
3082,73	1148,00
3086,65	1164,00
3090,57	1124,00
3094,49	1127,00
3098,40	1067,00
3102,31	1013,00
3106,22	1193,00
3110,12	1125,00
3114,02	1107,00
3117,92	1180,00
3121,81	917,00
3125,70	1063,00
3129,58	1058,00
3133,47	1030,00
3137,34	1124,00
3141,22	1140,00
3145,09	1188,00
3148,96	1039,00
3152,83	1009,00
3156,69	1116,00
3160,55	958,00
3164,40	1096,00
3168,26	1050,00
3172,10	1170,00
3175,95	1107,00
3179,79	1072,00
3183,63	1093,00
3187,47	1068,00
3191,30	984,00
3195,13	1158,00
3198,95	929,00
3202,78	1110,00
3206,60	994,00
3210,41	949,00
3214,23	1015,00
3218,03	1045,00
3221,84	1044,00
3225,64	953,00
3229,44	1044,00
3233,24	987,00
3237,03	1008,00
3240,82	947,00
3244,61	1038,00
3248,39	1056,00
3252,17	1002,00
3255,95	1065,00
3259,72	1115,00
3263,49	1189,00
3267,26	899,00
3271,03	929,00
3274,79	936,00
3278,54	1033,00
3282,30	904,00
3286,05	910,00
3289,80	1025,00
3293,54	930,00
3297,29	1038,00
3301,02	949,00
3304,76	954,00
3308,49	1008,00
3312,22	838,00
3315,95	990,00
3319,67	955,00
3323,39	1053,00
3327,10	1121,00
3330,82	871,00
3334,53	870,00
3338,24	972,00
3341,94	887,00
3345,64	909,00
3349,34	1029,00
3353,03	987,00
3356,72	903,00
3360,41	1139,00
3364,10	1030,00
3367,78	932,00
3371,46	1001,00
3375,13	944,00
3378,81	1012,00
3382,48	986,00
3386,14	1072,00
3389,81	993,00
3393,47	881,00
3397,12	1013,00
3400,78	966,00
3404,43	1055,00
3408,08	1036,00
3411,72	917,00
3415,36	918,00
3419,00	876,00
3422,64	1050,00
3426,27	826,00
3429,90	884,00
3433,53	906,00
3437,15	811,00
3440,77	772,00
3444,39	880,00
3448,00	1015,00
3451,62	931,00
3455,22	862,00
3458,83	903,00
3462,43	886,00
3466,03	1031,00
3469,63	986,00
3473,22	932,00
3476,81	859,00
3480,40	932,00
3483,99	961,00
3487,57	966,00
3491,15	868,00
3494,72	930,00
3498,29	959,00
3501,86	878,00
3505,43	966,00
3508,99	896,00
3512,56	880,00
3516,11	962,00
3519,67	899,00
3523,22	1008,00
3526,77	1028,00
3530,32	920,00
3533,86	906,00
3537,40	902,00
3540,94	952,00
3544,47	834,00
3548,00	819,00
3551,53	963,00
3555,06	860,00
3558,58	965,00
3562,10	947,00
3565,62	961,00
3569,13	946,00
3572,64	847,00
3576,15	798,00
3579,66	865,00
3583,16	970,00
3586,66	831,00
3590,16	867,00
3593,65	830,00
3597,14	778,00
3600,63	792,00
3604,11	986,00
3607,60	916,00
3611,08	917,00
3614,55	830,00
3618,03	819,00
3621,50	860,00
3624,97	813,00
3628,43	921,00
3631,90	886,00
3635,36	764,00
3638,81	854,00
3642,27	955,00
3645,72	955,00
3649,17	890,00
3652,61	797,00
3656,06	791,00
3659,50	778,00
3662,93	728,00
3666,37	874,00
3669,80	990,00
3673,23	750,00
3676,65	979,00
3680,08	910,00
3683,50	852,00
3686,92	885,00
3690,33	767,00
3693,74	800,00
3697,15	724,00
3700,56	872,00
3703,96	856,00
3707,36	720,00
3710,76	718,00
3714,16	749,00
3717,55	736,00
3720,94	789,00
3724,33	887,00
3727,71	884,00
3731,10	773,00
3734,48	733,00
3737,85	724,00
3741,23	695,00
3744,60	827,00
3747,97	773,00
3751,33	746,00
3754,69	774,00
3758,05	733,00
3761,41	729,00
3764,77	623,00
3768,12	679,00
3771,47	706,00
3774,82	791,00
3778,16	-14,00
3781,50	15,00
3784,84	4,00
3788,18	11,00
>>>>>End Processed Spectral Data<<<<<
