SpectraSuite Data File
++++++++++++++++++++++++++++++++++++
Date: Mon Mar 09 14:47:26 ICT 2026
User: Administrator
Dark Spectrum Present: Yes
Reference Spectrum Present: No
Number of Sampled Component Spectra: 1
Spectrometers: MAYP113682
Integration Time (usec): 3000000 (MAYP113682)
Spectra Averaged: 1 (MAYP113682)
Boxcar Smoothing: 0 (MAYP113682)
Correct for Electrical Dark: No (MAYP113682)
Strobe/Lamp Enabled: No (MAYP113682)
Correct for Detector Non-linearity: No (MAYP113682)
Correct for Stray Light: No (MAYP113682)
Number of Pixels in Processed Spectrum: 2068
>>>>>Begin Processed Spectral Data<<<<<
-37534,58	30,00
-37414,56	-2,00
-37295,11	6,00
-37176,24	0,00
-37057,95	646,00
-36940,22	619,00
-36823,05	714,00
-36706,45	852,00
-36590,40	659,00
-36474,90	743,00
-36359,95	843,00
-36245,55	766,00
-36131,68	790,00
-36018,35	747,00
-35905,55	818,00
-35793,29	792,00
-35681,54	776,00
-35570,32	737,00
-35459,62	784,00
-35349,43	774,00
-35239,75	779,00
-35130,58	765,00
-35021,91	808,00
-34913,74	775,00
-34806,07	743,00
-34698,89	868,00
-34592,20	785,00
-34486,00	942,00
-34380,28	722,00
-34275,04	804,00
-34170,27	729,00
-34065,98	799,00
-33962,16	783,00
-33858,81	881,00
-33755,92	841,00
-33653,49	859,00
-33551,52	907,00
-33450,01	789,00
-33348,94	748,00
-33248,33	853,00
-33148,16	829,00
-33048,43	847,00
-32949,14	989,00
-32850,29	932,00
-32751,87	751,00
-32653,89	866,00
-32556,33	979,00
-32459,20	800,00
-32362,49	782,00
-32266,19	793,00
-32170,32	852,00
-32074,86	887,00
-31979,82	859,00
-31885,18	929,00
-31790,95	945,00
-31697,12	818,00
-31603,69	977,00
-31510,67	872,00
-31418,04	859,00
-31325,80	916,00
-31233,95	901,00
-31142,49	871,00
-31051,42	966,00
-30960,73	937,00
-30870,43	860,00
-30780,50	790,00
-30690,95	865,00
-30601,77	1006,00
-30512,97	857,00
-30424,53	863,00
-30336,46	862,00
-30248,76	847,00
-30161,42	912,00
-30074,44	801,00
-29987,81	918,00
-29901,55	993,00
-29815,63	788,00
-29730,07	806,00
-29644,86	889,00
-29560,00	889,00
-29475,48	821,00
-29391,30	797,00
-29307,47	790,00
-29223,97	792,00
-29140,81	924,00
-29057,99	1016,00
-28975,50	838,00
-28893,34	944,00
-28811,51	758,00
-28730,00	843,00
-28648,82	871,00
-28567,97	959,00
-28487,43	900,00
-28407,21	789,00
-28327,32	847,00
-28247,73	1036,00
-28168,46	828,00
-28089,50	816,00
-28010,85	747,00
-27932,51	710,00
-27854,48	921,00
-27776,75	849,00
-27699,32	777,00
-27622,19	880,00
-27545,37	864,00
-27468,84	892,00
-27392,60	938,00
-27316,66	816,00
-27241,01	848,00
-27165,66	874,00
-27090,59	855,00
-27015,81	855,00
-26941,31	938,00
-26867,10	823,00
-26793,17	969,00
-26719,52	975,00
-26646,15	789,00
-26573,06	943,00
-26500,24	886,00
-26427,70	799,00
-26355,43	892,00
-26283,43	870,00
-26211,71	939,00
-26140,25	934,00
-26069,06	1110,00
-25998,13	624,00
-25927,46	743,00
-25857,06	912,00
-25786,92	819,00
-25717,04	764,00
-25647,42	933,00
-25578,05	924,00
-25508,94	863,00
-25440,09	940,00
-25371,48	879,00
-25303,13	722,00
-25235,02	841,00
-25167,17	933,00
-25099,56	1000,00
-25032,19	884,00
-24965,07	811,00
-24898,20	817,00
-24831,56	878,00
-24765,17	835,00
-24699,01	754,00
-24633,10	785,00
-24567,41	801,00
-24501,97	898,00
-24436,75	829,00
-24371,77	886,00
-24307,03	824,00
-24242,51	734,00
-24178,22	927,00
-24114,16	794,00
-24050,32	920,00
-23986,71	850,00
-23923,32	928,00
-23860,16	745,00
-23797,22	798,00
-23734,50	924,00
-23672,00	791,00
-23609,71	859,00
-23547,65	712,00
-23485,80	874,00
-23424,16	749,00
-23362,74	884,00
-23301,53	781,00
-23240,54	818,00
-23179,75	908,00
-23119,17	857,00
-23058,80	845,00
-22998,64	870,00
-22938,68	892,00
-22878,93	814,00
-22819,39	920,00
-22760,04	817,00
-22700,90	904,00
-22641,96	825,00
-22583,22	824,00
-22524,68	874,00
-22466,33	775,00
-22408,19	862,00
-22350,23	941,00
-22292,48	934,00
-22234,92	866,00
-22177,55	938,00
-22120,37	877,00
-22063,38	829,00
-22006,58	735,00
-21949,98	888,00
-21893,56	683,00
-21837,33	814,00
-21781,28	827,00
-21725,42	770,00
-21669,74	841,00
-21614,25	896,00
-21558,94	845,00
-21503,81	860,00
-21448,86	900,00
-21394,10	896,00
-21339,51	773,00
-21285,10	796,00
-21230,86	723,00
-21176,81	783,00
-21122,93	836,00
-21069,22	834,00
-21015,69	850,00
-20962,33	929,00
-20909,14	836,00
-20856,13	755,00
-20803,28	877,00
-20750,61	783,00
-20698,10	827,00
-20645,76	909,00
-20593,59	997,00
-20541,59	824,00
-20489,75	869,00
-20438,07	824,00
-20386,56	942,00
-20335,22	841,00
-20284,03	742,00
-20233,01	793,00
-20182,15	868,00
-20131,45	838,00
-20080,91	837,00
-20030,52	787,00
-19980,30	710,00
-19930,23	791,00
-19880,32	937,00
-19830,56	969,00
-19780,96	860,00
-19731,52	839,00
-19682,23	865,00
-19633,09	858,00
-19584,10	803,00
-19535,26	860,00
-19486,58	974,00
-19438,04	822,00
-19389,66	850,00
-19341,42	785,00
-19293,33	769,00
-19245,39	802,00
-19197,60	904,00
-19149,95	879,00
-19102,45	893,00
-19055,09	861,00
-19007,87	950,00
-18960,80	854,00
-18913,87	871,00
-18867,09	825,00
-18820,44	906,00
-18773,94	826,00
-18727,57	778,00
-18681,35	802,00
-18635,26	871,00
-18589,31	737,00
-18543,50	732,00
-18497,83	815,00
-18452,29	885,00
-18406,89	866,00
-18361,63	934,00
-18316,50	810,00
-18271,50	838,00
-18226,63	855,00
-18181,90	816,00
-18137,30	838,00
-18092,84	864,00
-18048,50	827,00
-18004,29	790,00
-17960,22	867,00
-17916,27	808,00
-17872,45	865,00
-17828,76	898,00
-17785,20	986,00
-17741,77	843,00
-17698,46	763,00
-17655,28	733,00
-17612,22	821,00
-17569,29	717,00
-17526,48	750,00
-17483,79	780,00
-17441,23	850,00
-17398,79	805,00
-17356,48	782,00
-17314,28	1006,00
-17272,21	892,00
-17230,26	792,00
-17188,42	857,00
-17146,71	799,00
-17105,12	782,00
-17063,64	836,00
-17022,28	791,00
-16981,04	884,00
-16939,92	862,00
-16898,91	898,00
-16858,02	924,00
-16817,25	766,00
-16776,59	764,00
-16736,04	880,00
-16695,61	766,00
-16655,29	790,00
-16615,09	891,00
-16574,99	840,00
-16535,01	755,00
-16495,15	863,00
-16455,39	856,00
-16415,74	844,00
-16376,21	777,00
-16336,78	779,00
-16297,46	776,00
-16258,26	840,00
-16219,16	845,00
-16180,17	793,00
-16141,28	864,00
-16102,51	825,00
-16063,84	863,00
-16025,27	911,00
-15986,82	704,00
-15948,46	756,00
-15910,22	874,00
-15872,07	781,00
-15834,04	870,00
-15796,10	848,00
-15758,27	935,00
-15720,54	823,00
-15682,91	848,00
-15645,39	895,00
-15607,97	882,00
-15570,64	769,00
-15533,42	957,00
-15496,30	906,00
-15459,28	806,00
-15422,36	767,00
-15385,54	856,00
-15348,82	798,00
-15312,19	899,00
-15275,66	811,00
-15239,23	816,00
-15202,90	781,00
-15166,67	754,00
-15130,53	847,00
-15094,48	889,00
-15058,54	862,00
-15022,68	739,00
-14986,93	838,00
-14951,26	767,00
-14915,69	733,00
-14880,22	796,00
-14844,84	799,00
-14809,55	924,00
-14774,35	825,00
-14739,25	911,00
-14704,24	802,00
-14669,32	814,00
-14634,49	774,00
-14599,75	895,00
-14565,10	744,00
-14530,55	955,00
-14496,08	883,00
-14461,70	815,00
-14427,41	775,00
-14393,21	757,00
-14359,10	775,00
-14325,07	961,00
-14291,14	905,00
-14257,29	921,00
-14223,52	814,00
-14189,85	999,00
-14156,26	814,00
-14122,76	835,00
-14089,34	807,00
-14056,01	799,00
-14022,76	908,00
-13989,60	829,00
-13956,52	875,00
-13923,53	849,00
-13890,62	791,00
-13857,79	797,00
-13825,05	825,00
-13792,39	763,00
-13759,81	880,00
-13727,31	830,00
-13694,90	778,00
-13662,57	895,00
-13630,31	828,00
-13598,14	775,00
-13566,05	806,00
-13534,05	856,00
-13502,12	796,00
-13470,27	897,00
-13438,50	893,00
-13406,80	757,00
-13375,19	794,00
-13343,66	828,00
-13312,20	796,00
-13280,83	780,00
-13249,53	790,00
-13218,30	719,00
-13187,16	810,00
-13156,09	950,00
-13125,10	827,00
-13094,18	853,00
-13063,34	884,00
-13032,58	776,00
-13001,89	901,00
-12971,28	845,00
-12940,74	859,00
-12910,27	882,00
-12879,88	853,00
-12849,57	856,00
-12819,33	806,00
-12789,16	919,00
-12759,06	745,00
-12729,04	879,00
-12699,09	1796,00
-12669,21	800,00
-12639,41	813,00
-12609,68	827,00
-12580,02	799,00
-12550,43	930,00
-12520,91	715,00
-12491,46	745,00
-12462,08	840,00
-12432,77	822,00
-12403,54	859,00
-12374,37	841,00
-12345,27	868,00
-12316,24	841,00
-12287,29	882,00
-12258,40	808,00
-12229,57	864,00
-12200,82	892,00
-12172,14	752,00
-12143,52	757,00
-12114,97	761,00
-12086,49	858,00
-12058,07	763,00
-12029,73	818,00
-12001,44	925,00
-11973,23	772,00
-11945,08	874,00
-11917,00	835,00
-11888,98	721,00
-11861,03	839,00
-11833,15	878,00
-11805,32	836,00
-11777,57	864,00
-11749,88	820,00
-11722,25	752,00
-11694,69	800,00
-11667,19	749,00
-11639,75	831,00
-11612,38	931,00
-11585,07	818,00
-11557,83	851,00
-11530,65	930,00
-11503,53	917,00
-11476,47	1016,00
-11449,48	795,00
-11422,54	860,00
-11395,67	770,00
-11368,86	824,00
-11342,11	807,00
-11315,43	818,00
-11288,80	748,00
-11262,23	903,00
-11235,73	824,00
-11209,28	838,00
-11182,90	800,00
-11156,57	814,00
-11130,31	849,00
-11104,10	935,00
-11077,96	851,00
-11051,87	883,00
-11025,84	902,00
-10999,87	816,00
-10973,96	891,00
-10948,11	767,00
-10922,31	778,00
-10896,58	839,00
-10870,90	942,00
-10845,28	800,00
-10819,71	741,00
-10794,20	744,00
-10768,75	917,00
-10743,36	781,00
-10718,02	870,00
-10692,74	841,00
-10667,52	717,00
-10642,35	842,00
-10617,24	867,00
-10592,18	890,00
-10567,18	785,00
-10542,23	848,00
-10517,34	834,00
-10492,51	852,00
-10467,72	844,00
-10443,00	716,00
-10418,32	872,00
-10393,70	831,00
-10369,14	788,00
-10344,63	828,00
-10320,17	833,00
-10295,77	884,00
-10271,42	847,00
-10247,12	869,00
-10222,88	938,00
-10198,68	742,00
-10174,54	768,00
-10150,46	861,00
-10126,42	919,00
-10102,44	958,00
-10078,51	844,00
-10054,63	899,00
-10030,80	773,00
-10007,03	951,00
-9983,30	812,00
-9959,63	812,00
-9936,01	849,00
-9912,44	865,00
-9888,92	817,00
-9865,44	832,00
-9842,02	833,00
-9818,65	805,00
-9795,33	903,00
-9772,06	821,00
-9748,84	738,00
-9725,67	800,00
-9702,55	762,00
-9679,47	905,00
-9656,45	874,00
-9633,47	752,00
-9610,55	790,00
-9587,67	864,00
-9564,84	974,00
-9542,06	842,00
-9519,32	885,00
-9496,64	926,00
-9474,00	664,00
-9451,41	804,00
-9428,87	871,00
-9406,37	876,00
-9383,92	800,00
-9361,52	789,00
-9339,17	915,00
-9316,86	824,00
-9294,60	813,00
-9272,38	993,00
-9250,21	985,00
-9228,09	866,00
-9206,01	934,00
-9183,98	847,00
-9162,00	716,00
-9140,06	821,00
-9118,16	732,00
-9096,31	962,00
-9074,51	789,00
-9052,75	997,00
-9031,04	941,00
-9009,37	783,00
-8987,74	803,00
-8966,16	828,00
-8944,63	823,00
-8923,14	757,00
-8901,69	736,00
-8880,29	758,00
-8858,93	826,00
-8837,61	832,00
-8816,34	907,00
-8795,11	910,00
-8773,92	940,00
-8752,78	911,00
-8731,68	807,00
-8710,62	890,00
-8689,61	702,00
-8668,63	855,00
-8647,70	1039,00
-8626,82	879,00
-8605,97	1034,00
-8585,17	887,00
-8564,41	752,00
-8543,69	875,00
-8523,01	768,00
-8502,37	1059,00
-8481,78	801,00
-8461,23	658,00
-8440,71	685,00
-8420,24	777,00
-8399,81	858,00
-8379,42	874,00
-8359,08	858,00
-8338,77	812,00
-8318,50	864,00
-8298,27	788,00
-8278,09	857,00
-8257,94	718,00
-8237,83	1023,00
-8217,76	879,00
-8197,74	856,00
-8177,75	896,00
-8157,80	949,00
-8137,89	854,00
-8118,02	869,00
-8098,19	925,00
-8078,40	878,00
-8058,65	831,00
-8038,93	1002,00
-8019,26	952,00
-7999,62	963,00
-7980,02	844,00
-7960,46	888,00
-7940,94	796,00
-7921,46	798,00
-7902,01	811,00
-7882,60	940,00
-7863,23	908,00
-7843,90	838,00
-7824,61	862,00
-7805,35	981,00
-7786,13	929,00
-7766,95	731,00
-7747,80	868,00
-7728,69	963,00
-7709,62	827,00
-7690,59	890,00
-7671,59	906,00
-7652,63	856,00
-7633,70	798,00
-7614,81	948,00
-7595,96	875,00
-7577,15	813,00
-7558,37	783,00
-7539,62	856,00
-7520,91	888,00
-7502,24	1000,00
-7483,60	958,00
-7465,00	924,00
-7446,44	908,00
-7427,91	838,00
-7409,41	927,00
-7390,95	858,00
-7372,53	790,00
-7354,14	825,00
-7335,78	801,00
-7317,46	856,00
-7299,18	817,00
-7280,92	859,00
-7262,71	1014,00
-7244,52	907,00
-7226,38	785,00
-7208,26	892,00
-7190,18	897,00
-7172,14	901,00
-7154,12	917,00
-7136,15	794,00
-7118,20	854,00
-7100,29	929,00
-7082,41	888,00
-7064,57	849,00
-7046,76	796,00
-7028,98	762,00
-7011,24	1058,00
-6993,53	702,00
-6975,85	849,00
-6958,20	768,00
-6940,59	782,00
-6923,01	795,00
-6905,46	848,00
-6887,94	880,00
-6870,46	1128,00
-6853,01	880,00
-6835,59	832,00
-6818,21	837,00
-6800,85	908,00
-6783,53	834,00
-6766,24	782,00
-6748,98	786,00
-6731,76	735,00
-6714,56	665,00
-6697,40	776,00
-6680,26	756,00
-6663,16	734,00
-6646,09	895,00
-6629,05	688,00
-6612,05	813,00
-6595,07	786,00
-6578,13	896,00
-6561,21	753,00
-6544,33	781,00
-6527,47	798,00
-6510,65	824,00
-6493,86	759,00
-6477,10	707,00
-6460,36	816,00
-6443,66	714,00
-6426,99	742,00
-6410,35	665,00
-6393,74	891,00
-6377,16	786,00
-6360,61	780,00
-6344,09	750,00
-6327,59	693,00
-6311,13	626,00
-6294,70	898,00
-6278,29	861,00
-6261,92	845,00
-6245,58	793,00
-6229,26	908,00
-6212,97	798,00
-6196,72	824,00
-6180,49	935,00
-6164,29	785,00
-6148,12	835,00
-6131,98	819,00
-6115,86	807,00
-6099,78	754,00
-6083,72	674,00
-6067,69	757,00
-6051,69	844,00
-6035,72	804,00
-6019,78	798,00
-6003,87	907,00
-5987,98	815,00
-5972,12	886,00
-5956,29	879,00
-5940,49	755,00
-5924,71	862,00
-5908,96	692,00
-5893,24	846,00
-5877,55	758,00
-5861,89	755,00
-5846,25	733,00
-5830,64	759,00
-5815,05	730,00
-5799,50	789,00
-5783,97	857,00
-5768,47	873,00
-5752,99	893,00
-5737,55	750,00
-5722,12	790,00
-5706,73	854,00
-5691,36	800,00
-5676,02	765,00
-5660,71	859,00
-5645,42	802,00
-5630,16	772,00
-5614,92	873,00
-5599,71	612,00
-5584,53	827,00
-5569,37	744,00
-5554,24	975,00
-5539,14	826,00
-5524,06	782,00
-5509,01	720,00
-5493,98	762,00
-5478,98	876,00
-5464,00	766,00
-5449,05	681,00
-5434,13	723,00
-5419,23	856,00
-5404,36	724,00
-5389,51	857,00
-5374,69	797,00
-5359,89	843,00
-5345,12	828,00
-5330,37	939,00
-5315,65	889,00
-5300,95	873,00
-5286,28	684,00
-5271,63	694,00
-5257,01	778,00
-5242,41	807,00
-5227,84	771,00
-5213,29	791,00
-5198,76	895,00
-5184,26	755,00
-5169,79	851,00
-5155,33	866,00
-5140,91	768,00
-5126,51	833,00
-5112,13	780,00
-5097,77	807,00
-5083,44	882,00
-5069,13	761,00
-5054,85	798,00
-5040,59	847,00
-5026,36	785,00
-5012,15	911,00
-4997,96	794,00
-4983,80	790,00
-4969,66	849,00
-4955,54	751,00
-4941,44	778,00
-4927,37	848,00
-4913,33	866,00
-4899,30	708,00
-4885,30	812,00
-4871,33	726,00
-4857,37	828,00
-4843,44	844,00
-4829,53	935,00
-4815,65	838,00
-4801,79	723,00
-4787,95	755,00
-4774,13	773,00
-4760,34	768,00
-4746,56	806,00
-4732,82	738,00
-4719,09	820,00
-4705,38	889,00
-4691,70	898,00
-4678,04	773,00
-4664,41	797,00
-4650,79	1008,00
-4637,20	855,00
-4623,63	745,00
-4610,08	790,00
-4596,56	886,00
-4583,05	746,00
-4569,57	856,00
-4556,11	902,00
-4542,67	795,00
-4529,25	713,00
-4515,86	986,00
-4502,49	871,00
-4489,13	879,00
-4475,80	836,00
-4462,49	718,00
-4449,21	1005,00
-4435,94	775,00
-4422,70	866,00
-4409,47	696,00
-4396,27	819,00
-4383,09	854,00
-4369,93	840,00
-4356,79	861,00
-4343,67	823,00
-4330,58	879,00
-4317,50	786,00
-4304,45	794,00
-4291,41	770,00
-4278,40	806,00
-4265,41	758,00
-4252,44	810,00
-4239,49	724,00
-4226,55	883,00
-4213,65	902,00
-4200,76	887,00
-4187,89	801,00
-4175,04	866,00
-4162,21	882,00
-4149,40	846,00
-4136,61	749,00
-4123,85	821,00
-4111,10	759,00
-4098,37	884,00
-4085,66	877,00
-4072,98	892,00
-4060,31	744,00
-4047,66	981,00
-4035,04	934,00
-4022,43	817,00
-4009,84	923,00
-3997,27	737,00
-3984,72	901,00
-3972,19	859,00
-3959,69	844,00
-3947,20	773,00
-3934,73	927,00
-3922,27	791,00
-3909,84	819,00
-3897,43	839,00
-3885,04	841,00
-3872,67	851,00
-3860,31	823,00
-3847,98	928,00
-3835,66	838,00
-3823,36	853,00
-3811,09	804,00
-3798,83	801,00
-3786,59	892,00
-3774,37	834,00
-3762,17	794,00
-3749,98	831,00
-3737,82	811,00
-3725,67	1003,00
-3713,55	770,00
-3701,44	896,00
-3689,35	858,00
-3677,28	906,00
-3665,22	808,00
-3653,19	785,00
-3641,17	815,00
-3629,18	873,00
-3617,20	916,00
-3605,24	854,00
-3593,30	853,00
-3581,37	874,00
-3569,47	906,00
-3557,58	882,00
-3545,71	899,00
-3533,86	842,00
-3522,02	834,00
-3510,21	853,00
-3498,41	899,00
-3486,63	832,00
-3474,87	868,00
-3463,12	779,00
-3451,40	875,00
-3439,69	983,00
-3428,00	853,00
-3416,33	923,00
-3404,67	767,00
-3393,03	961,00
-3381,41	972,00
-3369,81	824,00
-3358,22	833,00
-3346,66	886,00
-3335,10	785,00
-3323,57	777,00
-3312,06	852,00
-3300,56	879,00
-3289,08	782,00
-3277,61	821,00
-3266,16	856,00
-3254,73	991,00
-3243,32	798,00
-3231,92	833,00
-3220,55	756,00
-3209,18	924,00
-3197,84	831,00
-3186,51	724,00
-3175,20	840,00
-3163,90	834,00
-3152,63	860,00
-3141,36	848,00
-3130,12	908,00
-3118,89	900,00
-3107,68	925,00
-3096,49	936,00
-3085,31	927,00
-3074,15	775,00
-3063,00	852,00
-3051,87	965,00
-3040,76	813,00
-3029,67	847,00
-3018,59	1044,00
-3007,52	894,00
-2996,48	965,00
-2985,44	762,00
-2974,43	808,00
-2963,43	857,00
-2952,45	738,00
-2941,48	778,00
-2930,53	909,00
-2919,60	785,00
-2908,68	838,00
-2897,78	803,00
-2886,89	978,00
-2876,02	776,00
-2865,17	823,00
-2854,33	792,00
-2843,50	753,00
-2832,70	749,00
-2821,90	957,00
-2811,13	847,00
-2800,37	765,00
-2789,62	864,00
-2778,89	884,00
-2768,18	942,00
-2757,48	939,00
-2746,80	959,00
-2736,13	933,00
-2725,48	865,00
-2714,84	898,00
-2704,22	801,00
-2693,61	872,00
-2683,02	901,00
-2672,45	810,00
-2661,89	923,00
-2651,34	898,00
-2640,81	804,00
-2630,30	1021,00
-2619,80	918,00
-2609,31	966,00
-2598,84	784,00
-2588,39	867,00
-2577,95	762,00
-2567,52	729,00
-2557,11	979,00
-2546,71	854,00
-2536,33	833,00
-2525,97	857,00
-2515,62	823,00
-2505,28	894,00
-2494,96	826,00
-2484,65	895,00
-2474,36	1068,00
-2464,08	862,00
-2453,82	946,00
-2443,57	881,00
-2433,33	714,00
-2423,11	736,00
-2412,91	734,00
-2402,72	821,00
-2392,54	826,00
-2382,38	880,00
-2372,23	932,00
-2362,09	5359,00
-2351,97	748,00
-2341,87	764,00
-2331,78	893,00
-2321,70	919,00
-2311,64	864,00
-2301,59	783,00
-2291,55	799,00
-2281,53	901,00
-2271,53	781,00
-2261,53	871,00
-2251,55	857,00
-2241,59	820,00
-2231,64	874,00
-2221,70	728,00
-2211,78	914,00
-2201,87	920,00
-2191,97	879,00
-2182,09	871,00
-2172,22	943,00
-2162,37	835,00
-2152,53	818,00
-2142,70	771,00
-2132,89	766,00
-2123,09	901,00
-2113,30	817,00
-2103,53	889,00
-2093,77	870,00
-2084,02	805,00
-2074,29	917,00
-2064,57	900,00
-2054,86	859,00
-2045,17	900,00
-2035,49	1006,00
-2025,82	800,00
-2016,17	801,00
-2006,53	829,00
-1996,91	798,00
-1987,29	787,00
-1977,69	866,00
-1968,11	922,00
-1958,53	851,00
-1948,97	973,00
-1939,42	770,00
-1929,89	765,00
-1920,37	792,00
-1910,86	896,00
-1901,36	842,00
-1891,88	945,00
-1882,41	924,00
-1872,95	962,00
-1863,51	812,00
-1854,08	906,00
-1844,66	945,00
-1835,26	811,00
-1825,86	829,00
-1816,48	868,00
-1807,11	860,00
-1797,76	870,00
-1788,42	839,00
-1779,09	954,00
-1769,77	813,00
-1760,47	974,00
-1751,17	882,00
-1741,89	922,00
-1732,63	932,00
-1723,37	1120,00
-1714,13	941,00
-1704,90	821,00
-1695,68	955,00
-1686,48	787,00
-1677,29	865,00
-1668,11	963,00
-1658,94	974,00
-1649,78	844,00
-1640,64	866,00
-1631,51	816,00
-1622,39	809,00
-1613,28	840,00
-1604,19	1058,00
-1595,10	904,00
-1586,03	784,00
-1576,97	971,00
-1567,93	813,00
-1558,89	892,00
-1549,87	874,00
-1540,86	812,00
-1531,86	869,00
-1522,87	802,00
-1513,90	945,00
-1504,93	869,00
-1495,98	877,00
-1487,04	1046,00
-1478,12	907,00
-1469,20	809,00
-1460,30	856,00
-1451,40	987,00
-1442,52	883,00
-1433,65	946,00
-1424,80	865,00
-1415,95	788,00
-1407,12	1029,00
-1398,30	857,00
-1389,48	801,00
-1380,69	882,00
-1371,90	879,00
-1363,12	894,00
-1354,36	978,00
-1345,60	780,00
-1336,86	903,00
-1328,13	1009,00
-1319,41	866,00
-1310,70	914,00
-1302,01	876,00
-1293,32	799,00
-1284,65	832,00
-1275,99	893,00
-1267,33	972,00
-1258,69	790,00
-1250,06	856,00
-1241,45	794,00
-1232,84	897,00
-1224,25	868,00
-1215,66	899,00
-1207,09	960,00
-1198,53	863,00
-1189,97	743,00
-1181,43	897,00
-1172,91	924,00
-1164,39	911,00
-1155,88	771,00
-1147,38	718,00
-1138,90	844,00
-1130,43	856,00
-1121,96	898,00
-1113,51	894,00
-1105,07	818,00
-1096,64	862,00
-1088,22	889,00
-1079,81	938,00
-1071,41	872,00
-1063,02	942,00
-1054,65	939,00
-1046,28	871,00
-1037,92	933,00
-1029,58	838,00
-1021,24	871,00
-1012,92	1150,00
-1004,61	881,00
-996,30	1235,00
-988,01	773,00
-979,73	876,00
-971,46	935,00
-963,20	793,00
-954,95	746,00
-946,71	809,00
-938,48	729,00
-930,26	863,00
-922,06	899,00
-913,86	836,00
-905,67	835,00
-897,49	902,00
-889,33	766,00
-881,17	888,00
-873,02	936,00
-864,89	755,00
-856,76	798,00
-848,65	950,00
-840,54	957,00
-832,45	946,00
-824,36	748,00
-816,29	928,00
-808,22	860,00
-800,17	864,00
-792,12	935,00
-784,09	1036,00
-776,06	809,00
-768,05	857,00
-760,04	756,00
-752,05	855,00
-744,07	898,00
-736,09	957,00
-728,13	749,00
-720,17	769,00
-712,23	818,00
-704,29	872,00
-696,37	853,00
-688,45	903,00
-680,55	839,00
-672,65	845,00
-664,77	785,00
-656,89	856,00
-649,03	866,00
-641,17	852,00
-633,32	948,00
-625,49	864,00
-617,66	836,00
-609,84	851,00
-602,03	711,00
-594,23	791,00
-586,45	822,00
-578,67	792,00
-570,90	758,00
-563,14	838,00
-555,39	973,00
-547,65	933,00
-539,91	936,00
-532,19	803,00
-524,48	938,00
-516,78	856,00
-509,08	896,00
-501,40	771,00
-493,72	831,00
-486,06	859,00
-478,40	1085,00
-470,76	868,00
-463,12	856,00
-455,49	849,00
-447,87	858,00
-440,26	798,00
-432,66	780,00
-425,07	922,00
-417,49	808,00
-409,92	804,00
-402,35	717,00
-394,80	717,00
-387,25	882,00
-379,72	821,00
-372,19	795,00
-364,67	858,00
-357,17	884,00
-349,67	845,00
-342,18	794,00
-334,69	961,00
-327,22	775,00
-319,76	832,00
-312,30	972,00
-304,86	906,00
-297,42	918,00
-290,00	800,00
-282,58	868,00
-275,17	931,00
-267,77	977,00
-260,37	753,00
-252,99	987,00
-245,62	866,00
-238,25	809,00
-230,90	824,00
-223,55	981,00
-216,21	888,00
-208,88	982,00
-201,56	952,00
-194,25	878,00
-186,94	883,00
-179,65	983,00
-172,36	1060,00
-165,08	938,00
-157,81	1078,00
-150,55	1098,00
-143,30	1051,00
-136,06	1071,00
-128,82	1147,00
-121,60	1041,00
-114,38	1195,00
-107,17	1140,00
-99,97	1212,00
-92,78	1133,00
-85,60	1271,00
-78,42	1435,00
-71,25	1517,00
-64,10	1617,00
-56,95	1684,00
-49,81	1869,00
-42,67	2284,00
-35,55	2457,00
-28,43	3043,00
-21,33	4474,00
-14,23	12938,00
-7,14	57775,00
-0,05	57564,00
7,02	57281,00
14,09	43176,00
21,14	11920,00
28,19	5505,00
35,23	3758,00
42,27	2987,00
49,29	2601,00
56,31	2447,00
63,32	2140,00
70,32	1808,00
77,31	1552,00
84,29	1513,00
91,27	1559,00
98,23	1495,00
105,19	1375,00
112,14	1513,00
119,09	1710,00
126,02	2288,00
132,95	2429,00
139,87	2590,00
146,78	2699,00
153,68	2471,00
160,58	2536,00
167,46	2407,00
174,34	2498,00
181,21	2605,00
188,08	2448,00
194,93	2624,00
201,78	2420,00
208,62	2411,00
215,45	2515,00
222,27	2473,00
229,09	2710,00
235,90	2506,00
242,70	2470,00
249,49	2661,00
256,27	2418,00
263,05	2507,00
269,82	2448,00
276,58	2551,00
283,33	2391,00
290,08	2535,00
296,82	2330,00
303,55	2335,00
310,27	2301,00
316,98	2325,00
323,69	2367,00
330,39	2271,00
337,08	2407,00
343,76	2402,00
350,44	2467,00
357,11	2417,00
363,77	2244,00
370,42	2313,00
377,07	2529,00
383,71	2392,00
390,34	2500,00
396,96	2297,00
403,58	2393,00
410,19	2406,00
416,79	2508,00
423,38	2540,00
429,97	2404,00
436,55	2260,00
443,12	2272,00
449,68	2297,00
456,24	2421,00
462,79	2420,00
469,33	2187,00
475,86	2315,00
482,39	2288,00
488,91	2291,00
495,42	2272,00
501,93	2360,00
508,42	2094,00
514,91	2422,00
521,40	2209,00
527,87	2273,00
534,34	2174,00
540,80	2360,00
547,25	2291,00
553,70	2359,00
560,14	2376,00
566,57	2384,00
573,00	2225,00
579,41	2370,00
585,83	2292,00
592,23	2372,00
598,62	2304,00
605,01	2160,00
611,40	2333,00
617,77	2409,00
624,14	2268,00
630,50	2292,00
636,85	2318,00
643,20	2352,00
649,54	2246,00
655,87	2285,00
662,20	2433,00
668,52	2331,00
674,83	2270,00
681,13	2329,00
687,43	2330,00
693,72	2234,00
700,00	2157,00
706,28	2203,00
712,55	2265,00
718,81	2309,00
725,07	2278,00
731,32	2249,00
737,56	2275,00
743,79	2354,00
750,02	2309,00
756,24	2155,00
762,46	2252,00
768,67	2585,00
774,87	2329,00
781,06	2275,00
787,25	2373,00
793,43	2345,00
799,60	2110,00
805,77	2370,00
811,93	2210,00
818,08	2289,00
824,23	2290,00
830,37	2424,00
836,50	2269,00
842,63	2316,00
848,75	2281,00
854,87	2299,00
860,97	2302,00
867,07	2413,00
873,17	2426,00
879,25	2278,00
885,33	2357,00
891,41	2343,00
897,47	2335,00
903,53	2318,00
909,59	2385,00
915,63	2376,00
921,67	2443,00
927,71	2438,00
933,74	2348,00
939,76	2237,00
945,77	2264,00
951,78	2417,00
957,78	2311,00
963,78	2413,00
969,77	2387,00
975,75	2371,00
981,72	2312,00
987,69	3563,00
993,66	2382,00
999,61	2452,00
1005,56	2383,00
1011,51	2286,00
1017,44	2422,00
1023,37	2413,00
1029,30	2435,00
1035,22	2430,00
1041,13	2344,00
1047,03	2433,00
1052,93	2411,00
1058,83	2823,00
1064,71	2907,00
1070,59	2736,00
1076,47	2585,00
1082,33	2556,00
1088,20	2518,00
1094,05	2481,00
1099,90	2342,00
1105,74	2319,00
1111,58	2449,00
1117,41	2503,00
1123,23	2757,00
1129,05	3035,00
1134,86	2908,00
1140,67	2785,00
1146,47	2601,00
1152,26	2517,00
1158,05	2329,00
1163,83	2495,00
1169,60	2614,00
1175,37	2496,00
1181,13	2466,00
1186,89	2459,00
1192,64	2444,00
1198,38	2497,00
1204,12	2489,00
1209,85	2406,00
1215,58	2444,00
1221,30	2562,00
1227,02	2426,00
1232,72	2477,00
1238,43	2342,00
1244,12	2548,00
1249,81	2521,00
1255,50	2587,00
1261,17	2433,00
1266,85	2571,00
1272,51	2592,00
1278,17	2618,00
1283,83	2618,00
1289,47	2958,00
1295,12	3359,00
1300,75	3056,00
1306,38	2886,00
1312,01	2660,00
1317,63	2489,00
1323,24	2577,00
1328,85	2718,00
1334,45	2522,00
1340,04	2583,00
1345,63	2427,00
1351,22	2680,00
1356,80	2568,00
1362,37	2687,00
1367,93	2567,00
1373,49	2552,00
1379,05	2493,00
1384,60	2616,00
1390,14	2643,00
1395,68	2666,00
1401,21	2557,00
1406,74	2727,00
1412,26	2836,00
1417,77	2912,00
1423,28	2811,00
1428,78	2846,00
1434,28	3121,00
1439,77	3355,00
1445,26	3251,00
1450,74	3351,00
1456,22	3094,00
1461,68	3009,00
1467,15	2956,00
1472,61	2701,00
1478,06	2861,00
1483,51	2742,00
1488,95	2571,00
1494,38	2637,00
1499,81	2431,00
1505,24	2422,00
1510,65	2547,00
1516,07	2587,00
1521,48	2322,00
1526,88	2236,00
1532,27	2491,00
1537,67	2345,00
1543,05	2498,00
1548,43	2319,00
1553,81	2346,00
1559,18	2302,00
1564,54	2500,00
1569,90	2441,00
1575,25	2214,00
1580,60	2240,00
1585,94	2411,00
1591,28	2377,00
1596,61	2360,00
1601,93	2357,00
1607,25	2524,00
1612,57	2402,00
1617,88	2420,00
1623,18	2331,00
1628,48	2402,00
1633,77	2320,00
1639,06	2340,00
1644,34	2315,00
1649,62	2304,00
1654,89	2492,00
1660,16	2289,00
1665,42	2407,00
1670,67	2243,00
1675,92	2355,00
1681,17	2248,00
1686,41	2380,00
1691,64	2408,00
1696,87	2308,00
1702,10	2192,00
1707,32	2398,00
1712,53	2335,00
1717,74	2342,00
1722,94	2364,00
1728,14	2292,00
1733,33	2112,00
1738,52	2245,00
1743,70	2282,00
1748,88	2216,00
1754,05	2188,00
1759,22	2052,00
1764,38	2284,00
1769,53	2154,00
1774,69	2212,00
1779,83	2209,00
1784,97	2168,00
1790,11	2242,00
1795,24	2133,00
1800,36	2303,00
1805,48	2237,00
1810,60	2165,00
1815,71	2251,00
1820,82	2104,00
1825,92	2192,00
1831,01	2157,00
1836,10	2181,00
1841,19	2095,00
1846,26	2061,00
1851,34	2144,00
1856,41	2159,00
1861,47	2125,00
1866,53	2091,00
1871,59	2086,00
1876,64	2064,00
1881,68	2158,00
1886,72	2263,00
1891,76	2118,00
1896,79	2046,00
1901,81	2019,00
1906,83	2088,00
1911,85	2067,00
1916,86	2081,00
1921,86	2113,00
1926,86	2018,00
1931,86	2039,00
1936,85	2061,00
1941,83	2063,00
1946,81	2052,00
1951,79	2034,00
1956,76	1938,00
1961,72	1835,00
1966,68	1876,00
1971,64	1913,00
1976,59	2006,00
1981,54	1992,00
1986,48	1897,00
1991,42	1942,00
1996,35	2309,00
2001,27	1994,00
2006,20	1975,00
2011,11	2038,00
2016,03	2018,00
2020,93	2000,00
2025,84	1995,00
2030,73	1916,00
2035,63	1703,00
2040,52	2009,00
2045,40	1933,00
2050,28	1934,00
2055,15	1991,00
2060,02	1862,00
2064,89	1893,00
2069,75	1991,00
2074,60	1990,00
2079,46	1888,00
2084,30	1820,00
2089,14	1859,00
2093,98	1953,00
2098,81	2001,00
2103,64	1942,00
2108,46	1901,00
2113,28	1907,00
2118,09	1874,00
2122,90	1905,00
2127,70	1857,00
2132,50	1844,00
2137,30	1905,00
2142,09	1790,00
2146,87	1775,00
2151,66	1929,00
2156,43	1950,00
2161,20	1840,00
2165,97	1982,00
2170,73	1845,00
2175,49	1990,00
2180,24	1836,00
2184,99	1849,00
2189,74	1881,00
2194,48	1870,00
2199,21	2014,00
2203,94	1720,00
2208,67	1678,00
2213,39	1705,00
2218,11	1862,00
2222,82	1861,00
2227,53	1735,00
2232,23	1926,00
2236,93	1767,00
2241,63	1880,00
2246,32	1720,00
2251,00	1753,00
2255,68	1841,00
2260,36	1775,00
2265,03	1896,00
2269,70	1921,00
2274,36	1696,00
2279,02	1719,00
2283,68	1799,00
2288,33	1706,00
2292,97	1734,00
2297,61	1707,00
2302,25	1760,00
2306,88	1677,00
2311,51	1597,00
2316,14	1784,00
2320,75	1691,00
2325,37	1647,00
2329,98	1809,00
2334,59	1700,00
2339,19	1738,00
2343,79	1611,00
2348,38	1711,00
2352,97	1631,00
2357,55	1731,00
2362,13	1715,00
2366,71	1600,00
2371,28	1787,00
2375,85	1712,00
2380,41	1788,00
2384,97	1611,00
2389,52	1688,00
2394,07	1781,00
2398,62	1712,00
2403,16	1606,00
2407,70	1634,00
2412,23	1725,00
2416,76	1709,00
2421,29	1758,00
2425,81	1730,00
2430,32	1668,00
2434,84	1468,00
2439,34	1583,00
2443,85	1692,00
2448,35	1610,00
2452,84	1583,00
2457,33	1575,00
2461,82	1424,00
2466,30	1441,00
2470,78	1667,00
2475,25	1535,00
2479,72	1555,00
2484,19	1611,00
2488,65	1642,00
2493,11	1399,00
2497,56	1586,00
2502,01	1398,00
2506,46	1647,00
2510,90	1528,00
2515,34	1605,00
2519,77	1582,00
2524,20	1567,00
2528,62	1467,00
2533,04	1534,00
2537,46	1359,00
2541,87	1372,00
2546,28	1477,00
2550,68	1556,00
2555,08	1360,00
2559,48	1518,00
2563,87	1355,00
2568,26	1397,00
2572,64	1468,00
2577,02	1533,00
2581,40	1394,00
2585,77	1416,00
2590,14	1312,00
2594,50	1388,00
2598,86	1451,00
2603,22	1428,00
2607,57	1386,00
2611,92	1519,00
2616,26	1366,00
2620,60	1570,00
2624,94	1332,00
2629,27	1628,00
2633,60	1290,00
2637,92	1552,00
2642,24	1483,00
2646,56	1412,00
2650,87	1444,00
2655,18	1503,00
2659,48	1376,00
2663,78	1438,00
2668,08	1346,00
2672,37	1454,00
2676,66	1488,00
2680,95	1409,00
2685,23	1365,00
2689,50	1349,00
2693,78	1335,00
2698,05	1334,00
2702,31	1462,00
2706,57	1483,00
2710,83	1598,00
2715,08	1411,00
2719,33	1675,00
2723,58	1488,00
2727,82	1587,00
2732,06	1492,00
2736,29	1377,00
2740,53	1524,00
2744,75	1460,00
2748,97	1471,00
2753,19	1476,00
2757,41	1457,00
2761,62	1599,00
2765,83	1564,00
2770,03	1326,00
2774,23	1331,00
2778,43	1339,00
2782,62	1413,00
2786,81	1370,00
2791,00	1527,00
2795,18	1487,00
2799,35	1449,00
2803,53	1430,00
2807,70	1519,00
2811,86	1273,00
2816,03	1511,00
2820,19	1461,00
2824,34	1616,00
2828,49	1509,00
2832,64	1644,00
2836,78	1824,00
2840,92	1868,00
2845,06	2078,00
2849,19	2231,00
2853,32	2318,00
2857,45	2309,00
2861,57	2204,00
2865,69	2213,00
2869,80	2111,00
2873,91	2155,00
2878,02	2324,00
2882,12	2387,00
2886,22	2410,00
2890,32	2297,00
2894,41	2249,00
2898,50	2043,00
2902,58	2008,00
2906,67	2041,00
2910,74	1890,00
2914,82	1859,00
2918,89	1784,00
2922,96	1707,00
2927,02	1703,00
2931,08	1589,00
2935,13	1472,00
2939,19	1523,00
2943,24	1546,00
2947,28	1409,00
2951,32	1331,00
2955,36	1243,00
2959,40	1427,00
2963,43	1426,00
2967,46	1235,00
2971,48	1250,00
2975,50	1398,00
2979,52	1395,00
2983,53	1290,00
2987,54	1210,00
2991,55	1209,00
2995,55	1274,00
2999,55	1081,00
3003,54	1134,00
3007,54	1212,00
3011,53	1113,00
3015,51	1219,00
3019,49	1250,00
3023,47	1100,00
3027,45	1119,00
3031,42	1189,00
3035,39	1052,00
3039,35	1110,00
3043,31	1183,00
3047,27	1201,00
3051,22	1232,00
3055,17	1000,00
3059,12	857,00
3063,06	1142,00
3067,00	996,00
3070,94	1085,00
3074,87	1083,00
3078,80	1057,00
3082,73	1066,00
3086,65	1060,00
3090,57	1030,00
3094,49	1085,00
3098,40	1108,00
3102,31	974,00
3106,22	1073,00
3110,12	1101,00
3114,02	1023,00
3117,92	1103,00
3121,81	908,00
3125,70	990,00
3129,58	1045,00
3133,47	1017,00
3137,34	1108,00
3141,22	1062,00
3145,09	1199,00
3148,96	949,00
3152,83	894,00
3156,69	1028,00
3160,55	960,00
3164,40	1047,00
3168,26	984,00
3172,10	1075,00
3175,95	995,00
3179,79	1043,00
3183,63	965,00
3187,47	1000,00
3191,30	931,00
3195,13	1082,00
3198,95	921,00
3202,78	1068,00
3206,60	910,00
3210,41	953,00
3214,23	999,00
3218,03	1035,00
3221,84	1010,00
3225,64	939,00
3229,44	1007,00
3233,24	980,00
3237,03	966,00
3240,82	929,00
3244,61	925,00
3248,39	874,00
3252,17	899,00
3255,95	1068,00
3259,72	1012,00
3263,49	1182,00
3267,26	828,00
3271,03	899,00
3274,79	952,00
3278,54	936,00
3282,30	826,00
3286,05	1002,00
3289,80	946,00
3293,54	998,00
3297,29	963,00
3301,02	1013,00
3304,76	896,00
3308,49	928,00
3312,22	910,00
3315,95	912,00
3319,67	948,00
3323,39	1124,00
3327,10	985,00
3330,82	938,00
3334,53	857,00
3338,24	860,00
3341,94	957,00
3345,64	857,00
3349,34	921,00
3353,03	931,00
3356,72	894,00
3360,41	970,00
3364,10	962,00
3367,78	885,00
3371,46	950,00
3375,13	945,00
3378,81	895,00
3382,48	939,00
3386,14	1026,00
3389,81	963,00
3393,47	853,00
3397,12	1022,00
3400,78	920,00
3404,43	974,00
3408,08	908,00
3411,72	891,00
3415,36	886,00
3419,00	777,00
3422,64	949,00
3426,27	807,00
3429,90	891,00
3433,53	929,00
3437,15	917,00
3440,77	739,00
3444,39	823,00
3448,00	930,00
3451,62	846,00
3455,22	880,00
3458,83	887,00
3462,43	906,00
3466,03	991,00
3469,63	832,00
3473,22	939,00
3476,81	831,00
3480,40	937,00
3483,99	901,00
3487,57	915,00
3491,15	832,00
3494,72	865,00
3498,29	976,00
3501,86	744,00
3505,43	870,00
3508,99	885,00
3512,56	803,00
3516,11	892,00
3519,67	830,00
3523,22	916,00
3526,77	867,00
3530,32	840,00
3533,86	904,00
3537,40	920,00
3540,94	939,00
3544,47	825,00
3548,00	753,00
3551,53	896,00
3555,06	814,00
3558,58	946,00
3562,10	887,00
3565,62	860,00
3569,13	888,00
3572,64	892,00
3576,15	764,00
3579,66	839,00
3583,16	876,00
3586,66	792,00
3590,16	800,00
3593,65	819,00
3597,14	766,00
3600,63	764,00
3604,11	971,00
3607,60	866,00
3611,08	801,00
3614,55	754,00
3618,03	766,00
3621,50	732,00
3624,97	838,00
3628,43	963,00
3631,90	882,00
3635,36	717,00
3638,81	770,00
3642,27	882,00
3645,72	821,00
3649,17	825,00
3652,61	730,00
3656,06	713,00
3659,50	774,00
3662,93	792,00
3666,37	790,00
3669,80	904,00
3673,23	840,00
3676,65	835,00
3680,08	884,00
3683,50	735,00
3686,92	831,00
3690,33	755,00
3693,74	764,00
3697,15	627,00
3700,56	767,00
3703,96	779,00
3707,36	671,00
3710,76	744,00
3714,16	684,00
3717,55	716,00
3720,94	766,00
3724,33	795,00
3727,71	844,00
3731,10	718,00
3734,48	716,00
3737,85	656,00
3741,23	591,00
3744,60	789,00
3747,97	758,00
3751,33	690,00
3754,69	776,00
3758,05	674,00
3761,41	669,00
3764,77	713,00
3768,12	597,00
3771,47	728,00
3774,82	701,00
3778,16	-9,00
3781,50	9,00
3784,84	4,00
3788,18	8,00
>>>>>End Processed Spectral Data<<<<<
