SpectraSuite Data File
++++++++++++++++++++++++++++++++++++
Date: Mon Mar 09 14:49:17 ICT 2026
User: Administrator
Dark Spectrum Present: Yes
Reference Spectrum Present: No
Number of Sampled Component Spectra: 1
Spectrometers: MAYP113682
Integration Time (usec): 3000000 (MAYP113682)
Spectra Averaged: 1 (MAYP113682)
Boxcar Smoothing: 0 (MAYP113682)
Correct for Electrical Dark: No (MAYP113682)
Strobe/Lamp Enabled: No (MAYP113682)
Correct for Detector Non-linearity: No (MAYP113682)
Correct for Stray Light: No (MAYP113682)
Number of Pixels in Processed Spectrum: 2068
>>>>>Begin Processed Spectral Data<<<<<
-37534,58	36,00
-37414,56	4,00
-37295,11	8,00
-37176,24	4,00
-37057,95	772,00
-36940,22	676,00
-36823,05	918,00
-36706,45	907,00
-36590,40	800,00
-36474,90	896,00
-36359,95	892,00
-36245,55	875,00
-36131,68	922,00
-36018,35	919,00
-35905,55	905,00
-35793,29	929,00
-35681,54	890,00
-35570,32	837,00
-35459,62	925,00
-35349,43	1008,00
-35239,75	871,00
-35130,58	911,00
-35021,91	830,00
-34913,74	969,00
-34806,07	867,00
-34698,89	972,00
-34592,20	892,00
-34486,00	1054,00
-34380,28	811,00
-34275,04	870,00
-34170,27	884,00
-34065,98	954,00
-33962,16	855,00
-33858,81	883,00
-33755,92	947,00
-33653,49	1073,00
-33551,52	1036,00
-33450,01	967,00
-33348,94	943,00
-33248,33	964,00
-33148,16	927,00
-33048,43	930,00
-32949,14	1047,00
-32850,29	988,00
-32751,87	882,00
-32653,89	1011,00
-32556,33	1050,00
-32459,20	953,00
-32362,49	932,00
-32266,19	944,00
-32170,32	1044,00
-32074,86	1012,00
-31979,82	1045,00
-31885,18	1116,00
-31790,95	1034,00
-31697,12	892,00
-31603,69	1088,00
-31510,67	961,00
-31418,04	951,00
-31325,80	1048,00
-31233,95	1063,00
-31142,49	984,00
-31051,42	1019,00
-30960,73	1045,00
-30870,43	1101,00
-30780,50	998,00
-30690,95	1047,00
-30601,77	1113,00
-30512,97	901,00
-30424,53	1014,00
-30336,46	984,00
-30248,76	981,00
-30161,42	1041,00
-30074,44	970,00
-29987,81	917,00
-29901,55	1042,00
-29815,63	946,00
-29730,07	996,00
-29644,86	936,00
-29560,00	1046,00
-29475,48	924,00
-29391,30	955,00
-29307,47	851,00
-29223,97	910,00
-29140,81	998,00
-29057,99	1114,00
-28975,50	865,00
-28893,34	1131,00
-28811,51	953,00
-28730,00	957,00
-28648,82	917,00
-28567,97	1109,00
-28487,43	1002,00
-28407,21	956,00
-28327,32	936,00
-28247,73	1043,00
-28168,46	967,00
-28089,50	993,00
-28010,85	849,00
-27932,51	862,00
-27854,48	1050,00
-27776,75	929,00
-27699,32	1009,00
-27622,19	1041,00
-27545,37	944,00
-27468,84	1019,00
-27392,60	1128,00
-27316,66	923,00
-27241,01	954,00
-27165,66	1008,00
-27090,59	870,00
-27015,81	1036,00
-26941,31	1128,00
-26867,10	1004,00
-26793,17	1000,00
-26719,52	1055,00
-26646,15	1008,00
-26573,06	1033,00
-26500,24	997,00
-26427,70	876,00
-26355,43	1010,00
-26283,43	980,00
-26211,71	1106,00
-26140,25	1032,00
-26069,06	1196,00
-25998,13	889,00
-25927,46	947,00
-25857,06	988,00
-25786,92	943,00
-25717,04	915,00
-25647,42	1018,00
-25578,05	952,00
-25508,94	878,00
-25440,09	1008,00
-25371,48	960,00
-25303,13	886,00
-25235,02	993,00
-25167,17	1112,00
-25099,56	1058,00
-25032,19	900,00
-24965,07	904,00
-24898,20	826,00
-24831,56	1040,00
-24765,17	1004,00
-24699,01	952,00
-24633,10	1058,00
-24567,41	991,00
-24501,97	1054,00
-24436,75	1068,00
-24371,77	1081,00
-24307,03	1009,00
-24242,51	827,00
-24178,22	1026,00
-24114,16	864,00
-24050,32	1041,00
-23986,71	989,00
-23923,32	955,00
-23860,16	866,00
-23797,22	902,00
-23734,50	950,00
-23672,00	867,00
-23609,71	890,00
-23547,65	942,00
-23485,80	942,00
-23424,16	957,00
-23362,74	1031,00
-23301,53	962,00
-23240,54	933,00
-23179,75	970,00
-23119,17	915,00
-23058,80	931,00
-22998,64	968,00
-22938,68	990,00
-22878,93	1008,00
-22819,39	909,00
-22760,04	932,00
-22700,90	1013,00
-22641,96	1000,00
-22583,22	952,00
-22524,68	1015,00
-22466,33	908,00
-22408,19	992,00
-22350,23	1022,00
-22292,48	951,00
-22234,92	945,00
-22177,55	1163,00
-22120,37	1130,00
-22063,38	952,00
-22006,58	903,00
-21949,98	933,00
-21893,56	781,00
-21837,33	946,00
-21781,28	1027,00
-21725,42	912,00
-21669,74	974,00
-21614,25	928,00
-21558,94	947,00
-21503,81	991,00
-21448,86	1007,00
-21394,10	889,00
-21339,51	968,00
-21285,10	982,00
-21230,86	882,00
-21176,81	887,00
-21122,93	891,00
-21069,22	956,00
-21015,69	941,00
-20962,33	1023,00
-20909,14	1024,00
-20856,13	912,00
-20803,28	950,00
-20750,61	933,00
-20698,10	863,00
-20645,76	941,00
-20593,59	1131,00
-20541,59	942,00
-20489,75	1027,00
-20438,07	872,00
-20386,56	1039,00
-20335,22	997,00
-20284,03	909,00
-20233,01	902,00
-20182,15	945,00
-20131,45	864,00
-20080,91	898,00
-20030,52	901,00
-19980,30	827,00
-19930,23	870,00
-19880,32	1045,00
-19830,56	1082,00
-19780,96	849,00
-19731,52	963,00
-19682,23	908,00
-19633,09	886,00
-19584,10	896,00
-19535,26	948,00
-19486,58	1052,00
-19438,04	909,00
-19389,66	949,00
-19341,42	966,00
-19293,33	943,00
-19245,39	911,00
-19197,60	1005,00
-19149,95	1000,00
-19102,45	993,00
-19055,09	959,00
-19007,87	1030,00
-18960,80	951,00
-18913,87	970,00
-18867,09	970,00
-18820,44	1076,00
-18773,94	946,00
-18727,57	914,00
-18681,35	866,00
-18635,26	1018,00
-18589,31	858,00
-18543,50	819,00
-18497,83	949,00
-18452,29	961,00
-18406,89	893,00
-18361,63	1096,00
-18316,50	900,00
-18271,50	972,00
-18226,63	1051,00
-18181,90	936,00
-18137,30	1018,00
-18092,84	944,00
-18048,50	988,00
-18004,29	870,00
-17960,22	934,00
-17916,27	868,00
-17872,45	968,00
-17828,76	971,00
-17785,20	1069,00
-17741,77	976,00
-17698,46	984,00
-17655,28	818,00
-17612,22	942,00
-17569,29	898,00
-17526,48	993,00
-17483,79	868,00
-17441,23	926,00
-17398,79	859,00
-17356,48	929,00
-17314,28	1206,00
-17272,21	965,00
-17230,26	851,00
-17188,42	1017,00
-17146,71	948,00
-17105,12	970,00
-17063,64	901,00
-17022,28	870,00
-16981,04	930,00
-16939,92	909,00
-16898,91	1010,00
-16858,02	968,00
-16817,25	877,00
-16776,59	844,00
-16736,04	887,00
-16695,61	856,00
-16655,29	898,00
-16615,09	981,00
-16574,99	966,00
-16535,01	931,00
-16495,15	989,00
-16455,39	916,00
-16415,74	910,00
-16376,21	899,00
-16336,78	866,00
-16297,46	948,00
-16258,26	1024,00
-16219,16	926,00
-16180,17	896,00
-16141,28	1039,00
-16102,51	962,00
-16063,84	919,00
-16025,27	994,00
-15986,82	868,00
-15948,46	934,00
-15910,22	946,00
-15872,07	960,00
-15834,04	890,00
-15796,10	889,00
-15758,27	1103,00
-15720,54	937,00
-15682,91	984,00
-15645,39	991,00
-15607,97	938,00
-15570,64	861,00
-15533,42	942,00
-15496,30	985,00
-15459,28	907,00
-15422,36	884,00
-15385,54	890,00
-15348,82	952,00
-15312,19	1081,00
-15275,66	875,00
-15239,23	920,00
-15202,90	1016,00
-15166,67	788,00
-15130,53	1051,00
-15094,48	962,00
-15058,54	966,00
-15022,68	949,00
-14986,93	894,00
-14951,26	887,00
-14915,69	830,00
-14880,22	940,00
-14844,84	916,00
-14809,55	966,00
-14774,35	970,00
-14739,25	1018,00
-14704,24	966,00
-14669,32	1017,00
-14634,49	926,00
-14599,75	1035,00
-14565,10	807,00
-14530,55	964,00
-14496,08	972,00
-14461,70	978,00
-14427,41	884,00
-14393,21	937,00
-14359,10	867,00
-14325,07	1013,00
-14291,14	932,00
-14257,29	979,00
-14223,52	934,00
-14189,85	1130,00
-14156,26	968,00
-14122,76	915,00
-14089,34	881,00
-14056,01	868,00
-14022,76	945,00
-13989,60	976,00
-13956,52	1026,00
-13923,53	1015,00
-13890,62	969,00
-13857,79	805,00
-13825,05	869,00
-13792,39	830,00
-13759,81	1013,00
-13727,31	845,00
-13694,90	955,00
-13662,57	907,00
-13630,31	899,00
-13598,14	893,00
-13566,05	915,00
-13534,05	988,00
-13502,12	850,00
-13470,27	943,00
-13438,50	1071,00
-13406,80	903,00
-13375,19	877,00
-13343,66	964,00
-13312,20	936,00
-13280,83	853,00
-13249,53	913,00
-13218,30	775,00
-13187,16	880,00
-13156,09	1046,00
-13125,10	972,00
-13094,18	961,00
-13063,34	1013,00
-13032,58	864,00
-13001,89	979,00
-12971,28	969,00
-12940,74	981,00
-12910,27	1014,00
-12879,88	923,00
-12849,57	962,00
-12819,33	950,00
-12789,16	971,00
-12759,06	839,00
-12729,04	965,00
-12699,09	1387,00
-12669,21	909,00
-12639,41	952,00
-12609,68	907,00
-12580,02	864,00
-12550,43	1066,00
-12520,91	778,00
-12491,46	958,00
-12462,08	947,00
-12432,77	972,00
-12403,54	1007,00
-12374,37	929,00
-12345,27	965,00
-12316,24	982,00
-12287,29	1056,00
-12258,40	887,00
-12229,57	965,00
-12200,82	1047,00
-12172,14	882,00
-12143,52	918,00
-12114,97	805,00
-12086,49	996,00
-12058,07	949,00
-12029,73	976,00
-12001,44	1025,00
-11973,23	997,00
-11945,08	941,00
-11917,00	933,00
-11888,98	925,00
-11861,03	975,00
-11833,15	964,00
-11805,32	872,00
-11777,57	923,00
-11749,88	910,00
-11722,25	783,00
-11694,69	896,00
-11667,19	966,00
-11639,75	1018,00
-11612,38	935,00
-11585,07	920,00
-11557,83	995,00
-11530,65	1057,00
-11503,53	994,00
-11476,47	1076,00
-11449,48	874,00
-11422,54	1014,00
-11395,67	861,00
-11368,86	983,00
-11342,11	1058,00
-11315,43	970,00
-11288,80	883,00
-11262,23	1032,00
-11235,73	935,00
-11209,28	952,00
-11182,90	962,00
-11156,57	925,00
-11130,31	1008,00
-11104,10	983,00
-11077,96	1017,00
-11051,87	1003,00
-11025,84	1042,00
-10999,87	959,00
-10973,96	1048,00
-10948,11	877,00
-10922,31	893,00
-10896,58	1009,00
-10870,90	1137,00
-10845,28	965,00
-10819,71	856,00
-10794,20	907,00
-10768,75	1060,00
-10743,36	994,00
-10718,02	967,00
-10692,74	942,00
-10667,52	815,00
-10642,35	1048,00
-10617,24	1022,00
-10592,18	1015,00
-10567,18	924,00
-10542,23	997,00
-10517,34	984,00
-10492,51	987,00
-10467,72	982,00
-10443,00	929,00
-10418,32	966,00
-10393,70	936,00
-10369,14	896,00
-10344,63	948,00
-10320,17	995,00
-10295,77	952,00
-10271,42	916,00
-10247,12	1054,00
-10222,88	1074,00
-10198,68	819,00
-10174,54	847,00
-10150,46	1026,00
-10126,42	1010,00
-10102,44	1031,00
-10078,51	883,00
-10054,63	941,00
-10030,80	898,00
-10007,03	1117,00
-9983,30	999,00
-9959,63	915,00
-9936,01	1058,00
-9912,44	1013,00
-9888,92	940,00
-9865,44	971,00
-9842,02	1022,00
-9818,65	928,00
-9795,33	935,00
-9772,06	967,00
-9748,84	890,00
-9725,67	951,00
-9702,55	933,00
-9679,47	1111,00
-9656,45	913,00
-9633,47	890,00
-9610,55	1059,00
-9587,67	1028,00
-9564,84	1187,00
-9542,06	1008,00
-9519,32	1086,00
-9496,64	1070,00
-9474,00	848,00
-9451,41	924,00
-9428,87	1226,00
-9406,37	1051,00
-9383,92	1146,00
-9361,52	1067,00
-9339,17	1009,00
-9316,86	970,00
-9294,60	972,00
-9272,38	1291,00
-9250,21	1069,00
-9228,09	1147,00
-9206,01	1158,00
-9183,98	986,00
-9162,00	952,00
-9140,06	1017,00
-9118,16	869,00
-9096,31	1162,00
-9074,51	913,00
-9052,75	1151,00
-9031,04	1234,00
-9009,37	946,00
-8987,74	1066,00
-8966,16	1073,00
-8944,63	965,00
-8923,14	950,00
-8901,69	1075,00
-8880,29	968,00
-8858,93	1076,00
-8837,61	1109,00
-8816,34	1154,00
-8795,11	1037,00
-8773,92	1066,00
-8752,78	1054,00
-8731,68	910,00
-8710,62	1078,00
-8689,61	923,00
-8668,63	1079,00
-8647,70	1159,00
-8626,82	1057,00
-8605,97	1108,00
-8585,17	1134,00
-8564,41	999,00
-8543,69	926,00
-8523,01	888,00
-8502,37	1261,00
-8481,78	1025,00
-8461,23	913,00
-8440,71	1022,00
-8420,24	983,00
-8399,81	1033,00
-8379,42	1055,00
-8359,08	1099,00
-8338,77	898,00
-8318,50	1020,00
-8298,27	951,00
-8278,09	1007,00
-8257,94	916,00
-8237,83	1087,00
-8217,76	992,00
-8197,74	928,00
-8177,75	1035,00
-8157,80	1049,00
-8137,89	1106,00
-8118,02	1008,00
-8098,19	1161,00
-8078,40	1060,00
-8058,65	994,00
-8038,93	1111,00
-8019,26	1005,00
-7999,62	1057,00
-7980,02	1014,00
-7960,46	1040,00
-7940,94	1027,00
-7921,46	1102,00
-7902,01	957,00
-7882,60	1090,00
-7863,23	1012,00
-7843,90	1010,00
-7824,61	1036,00
-7805,35	1122,00
-7786,13	1075,00
-7766,95	1038,00
-7747,80	1055,00
-7728,69	1102,00
-7709,62	1023,00
-7690,59	1119,00
-7671,59	1071,00
-7652,63	930,00
-7633,70	954,00
-7614,81	1134,00
-7595,96	976,00
-7577,15	1065,00
-7558,37	934,00
-7539,62	1039,00
-7520,91	1038,00
-7502,24	1065,00
-7483,60	1101,00
-7465,00	1109,00
-7446,44	969,00
-7427,91	876,00
-7409,41	1056,00
-7390,95	1005,00
-7372,53	871,00
-7354,14	979,00
-7335,78	936,00
-7317,46	977,00
-7299,18	1018,00
-7280,92	1068,00
-7262,71	1136,00
-7244,52	930,00
-7226,38	966,00
-7208,26	1102,00
-7190,18	982,00
-7172,14	1053,00
-7154,12	1090,00
-7136,15	885,00
-7118,20	1132,00
-7100,29	1107,00
-7082,41	1065,00
-7064,57	990,00
-7046,76	1064,00
-7028,98	882,00
-7011,24	1151,00
-6993,53	843,00
-6975,85	990,00
-6958,20	968,00
-6940,59	971,00
-6923,01	789,00
-6905,46	1133,00
-6887,94	1003,00
-6870,46	-958,00
-6853,01	1007,00
-6835,59	952,00
-6818,21	947,00
-6800,85	999,00
-6783,53	913,00
-6766,24	890,00
-6748,98	955,00
-6731,76	845,00
-6714,56	888,00
-6697,40	813,00
-6680,26	812,00
-6663,16	864,00
-6646,09	1125,00
-6629,05	976,00
-6612,05	1009,00
-6595,07	924,00
-6578,13	982,00
-6561,21	871,00
-6544,33	903,00
-6527,47	882,00
-6510,65	934,00
-6493,86	910,00
-6477,10	856,00
-6460,36	963,00
-6443,66	897,00
-6426,99	849,00
-6410,35	873,00
-6393,74	1003,00
-6377,16	894,00
-6360,61	875,00
-6344,09	867,00
-6327,59	874,00
-6311,13	762,00
-6294,70	950,00
-6278,29	1124,00
-6261,92	898,00
-6245,58	911,00
-6229,26	1040,00
-6212,97	931,00
-6196,72	974,00
-6180,49	989,00
-6164,29	876,00
-6148,12	1075,00
-6131,98	968,00
-6115,86	854,00
-6099,78	813,00
-6083,72	873,00
-6067,69	919,00
-6051,69	882,00
-6035,72	916,00
-6019,78	865,00
-6003,87	968,00
-5987,98	896,00
-5972,12	962,00
-5956,29	962,00
-5940,49	898,00
-5924,71	996,00
-5908,96	935,00
-5893,24	944,00
-5877,55	933,00
-5861,89	936,00
-5846,25	887,00
-5830,64	935,00
-5815,05	893,00
-5799,50	979,00
-5783,97	942,00
-5768,47	1011,00
-5752,99	1068,00
-5737,55	953,00
-5722,12	872,00
-5706,73	930,00
-5691,36	917,00
-5676,02	898,00
-5660,71	1010,00
-5645,42	916,00
-5630,16	932,00
-5614,92	977,00
-5599,71	813,00
-5584,53	1004,00
-5569,37	901,00
-5554,24	1847,00
-5539,14	897,00
-5524,06	928,00
-5509,01	855,00
-5493,98	872,00
-5478,98	1062,00
-5464,00	883,00
-5449,05	832,00
-5434,13	891,00
-5419,23	1003,00
-5404,36	926,00
-5389,51	947,00
-5374,69	936,00
-5359,89	862,00
-5345,12	1034,00
-5330,37	1084,00
-5315,65	1123,00
-5300,95	1029,00
-5286,28	831,00
-5271,63	827,00
-5257,01	1018,00
-5242,41	939,00
-5227,84	929,00
-5213,29	948,00
-5198,76	936,00
-5184,26	890,00
-5169,79	934,00
-5155,33	948,00
-5140,91	961,00
-5126,51	918,00
-5112,13	955,00
-5097,77	1055,00
-5083,44	1033,00
-5069,13	944,00
-5054,85	930,00
-5040,59	830,00
-5026,36	967,00
-5012,15	1001,00
-4997,96	929,00
-4983,80	892,00
-4969,66	909,00
-4955,54	891,00
-4941,44	875,00
-4927,37	978,00
-4913,33	942,00
-4899,30	858,00
-4885,30	1046,00
-4871,33	903,00
-4857,37	1012,00
-4843,44	1048,00
-4829,53	1029,00
-4815,65	1018,00
-4801,79	809,00
-4787,95	877,00
-4774,13	874,00
-4760,34	875,00
-4746,56	988,00
-4732,82	911,00
-4719,09	887,00
-4705,38	976,00
-4691,70	992,00
-4678,04	870,00
-4664,41	919,00
-4650,79	1142,00
-4637,20	952,00
-4623,63	865,00
-4610,08	967,00
-4596,56	964,00
-4583,05	916,00
-4569,57	887,00
-4556,11	1004,00
-4542,67	773,00
-4529,25	941,00
-4515,86	1004,00
-4502,49	975,00
-4489,13	934,00
-4475,80	970,00
-4462,49	866,00
-4449,21	1147,00
-4435,94	839,00
-4422,70	1003,00
-4409,47	862,00
-4396,27	902,00
-4383,09	1012,00
-4369,93	852,00
-4356,79	927,00
-4343,67	876,00
-4330,58	993,00
-4317,50	810,00
-4304,45	859,00
-4291,41	945,00
-4278,40	906,00
-4265,41	831,00
-4252,44	982,00
-4239,49	829,00
-4226,55	945,00
-4213,65	1065,00
-4200,76	1035,00
-4187,89	843,00
-4175,04	921,00
-4162,21	961,00
-4149,40	903,00
-4136,61	970,00
-4123,85	859,00
-4111,10	967,00
-4098,37	1023,00
-4085,66	980,00
-4072,98	1073,00
-4060,31	942,00
-4047,66	1013,00
-4035,04	1103,00
-4022,43	919,00
-4009,84	1079,00
-3997,27	904,00
-3984,72	1038,00
-3972,19	1000,00
-3959,69	855,00
-3947,20	933,00
-3934,73	966,00
-3922,27	938,00
-3909,84	969,00
-3897,43	971,00
-3885,04	948,00
-3872,67	897,00
-3860,31	882,00
-3847,98	1005,00
-3835,66	939,00
-3823,36	977,00
-3811,09	935,00
-3798,83	970,00
-3786,59	1129,00
-3774,37	1038,00
-3762,17	876,00
-3749,98	963,00
-3737,82	784,00
-3725,67	1123,00
-3713,55	883,00
-3701,44	1031,00
-3689,35	962,00
-3677,28	960,00
-3665,22	909,00
-3653,19	940,00
-3641,17	906,00
-3629,18	985,00
-3617,20	899,00
-3605,24	1011,00
-3593,30	1039,00
-3581,37	928,00
-3569,47	1029,00
-3557,58	1026,00
-3545,71	915,00
-3533,86	1008,00
-3522,02	1003,00
-3510,21	968,00
-3498,41	1024,00
-3486,63	936,00
-3474,87	914,00
-3463,12	922,00
-3451,40	964,00
-3439,69	990,00
-3428,00	993,00
-3416,33	1022,00
-3404,67	873,00
-3393,03	1072,00
-3381,41	1035,00
-3369,81	918,00
-3358,22	940,00
-3346,66	975,00
-3335,10	1020,00
-3323,57	886,00
-3312,06	972,00
-3300,56	996,00
-3289,08	829,00
-3277,61	959,00
-3266,16	1054,00
-3254,73	977,00
-3243,32	960,00
-3231,92	972,00
-3220,55	1002,00
-3209,18	997,00
-3197,84	934,00
-3186,51	865,00
-3175,20	944,00
-3163,90	896,00
-3152,63	921,00
-3141,36	970,00
-3130,12	1038,00
-3118,89	1010,00
-3107,68	979,00
-3096,49	1026,00
-3085,31	1023,00
-3074,15	872,00
-3063,00	963,00
-3051,87	1002,00
-3040,76	971,00
-3029,67	986,00
-3018,59	1107,00
-3007,52	1073,00
-2996,48	1157,00
-2985,44	898,00
-2974,43	1054,00
-2963,43	942,00
-2952,45	891,00
-2941,48	997,00
-2930,53	1021,00
-2919,60	884,00
-2908,68	943,00
-2897,78	932,00
-2886,89	1110,00
-2876,02	1031,00
-2865,17	989,00
-2854,33	892,00
-2843,50	902,00
-2832,70	919,00
-2821,90	1010,00
-2811,13	961,00
-2800,37	881,00
-2789,62	982,00
-2778,89	1054,00
-2768,18	1052,00
-2757,48	1050,00
-2746,80	1134,00
-2736,13	1019,00
-2725,48	1007,00
-2714,84	968,00
-2704,22	964,00
-2693,61	932,00
-2683,02	947,00
-2672,45	938,00
-2661,89	974,00
-2651,34	1023,00
-2640,81	876,00
-2630,30	1146,00
-2619,80	1030,00
-2609,31	1083,00
-2598,84	875,00
-2588,39	955,00
-2577,95	871,00
-2567,52	843,00
-2557,11	1005,00
-2546,71	961,00
-2536,33	1033,00
-2525,97	929,00
-2515,62	888,00
-2505,28	988,00
-2494,96	936,00
-2484,65	1006,00
-2474,36	1257,00
-2464,08	1009,00
-2453,82	1084,00
-2443,57	983,00
-2433,33	915,00
-2423,11	977,00
-2412,91	923,00
-2402,72	913,00
-2392,54	984,00
-2382,38	913,00
-2372,23	1110,00
-2362,09	5735,00
-2351,97	887,00
-2341,87	946,00
-2331,78	1035,00
-2321,70	967,00
-2311,64	1063,00
-2301,59	846,00
-2291,55	913,00
-2281,53	932,00
-2271,53	914,00
-2261,53	1125,00
-2251,55	896,00
-2241,59	969,00
-2231,64	977,00
-2221,70	953,00
-2211,78	1119,00
-2201,87	947,00
-2191,97	996,00
-2182,09	997,00
-2172,22	1036,00
-2162,37	853,00
-2152,53	934,00
-2142,70	837,00
-2132,89	877,00
-2123,09	1019,00
-2113,30	956,00
-2103,53	941,00
-2093,77	968,00
-2084,02	912,00
-2074,29	1063,00
-2064,57	996,00
-2054,86	970,00
-2045,17	1029,00
-2035,49	1051,00
-2025,82	889,00
-2016,17	955,00
-2006,53	959,00
-1996,91	862,00
-1987,29	942,00
-1977,69	992,00
-1968,11	1007,00
-1958,53	903,00
-1948,97	1030,00
-1939,42	945,00
-1929,89	952,00
-1920,37	1016,00
-1910,86	947,00
-1901,36	961,00
-1891,88	971,00
-1882,41	941,00
-1872,95	971,00
-1863,51	895,00
-1854,08	1011,00
-1844,66	1022,00
-1835,26	885,00
-1825,86	1012,00
-1816,48	913,00
-1807,11	969,00
-1797,76	972,00
-1788,42	1100,00
-1779,09	1027,00
-1769,77	914,00
-1760,47	1190,00
-1751,17	938,00
-1741,89	951,00
-1732,63	1074,00
-1723,37	1230,00
-1714,13	1051,00
-1704,90	877,00
-1695,68	1128,00
-1686,48	872,00
-1677,29	899,00
-1668,11	1131,00
-1658,94	988,00
-1649,78	992,00
-1640,64	969,00
-1631,51	954,00
-1622,39	1007,00
-1613,28	986,00
-1604,19	1081,00
-1595,10	1027,00
-1586,03	922,00
-1576,97	1080,00
-1567,93	967,00
-1558,89	1075,00
-1549,87	1126,00
-1540,86	962,00
-1531,86	992,00
-1522,87	891,00
-1513,90	1041,00
-1504,93	937,00
-1495,98	970,00
-1487,04	1108,00
-1478,12	979,00
-1469,20	910,00
-1460,30	1013,00
-1451,40	1105,00
-1442,52	945,00
-1433,65	1051,00
-1424,80	1008,00
-1415,95	893,00
-1407,12	1191,00
-1398,30	1078,00
-1389,48	970,00
-1380,69	993,00
-1371,90	925,00
-1363,12	979,00
-1354,36	1129,00
-1345,60	874,00
-1336,86	1035,00
-1328,13	1180,00
-1319,41	988,00
-1310,70	925,00
-1302,01	1028,00
-1293,32	941,00
-1284,65	959,00
-1275,99	1029,00
-1267,33	1051,00
-1258,69	1022,00
-1250,06	1013,00
-1241,45	946,00
-1232,84	1001,00
-1224,25	929,00
-1215,66	1109,00
-1207,09	1003,00
-1198,53	974,00
-1189,97	892,00
-1181,43	933,00
-1172,91	1053,00
-1164,39	1064,00
-1155,88	949,00
-1147,38	834,00
-1138,90	924,00
-1130,43	904,00
-1121,96	941,00
-1113,51	1038,00
-1105,07	952,00
-1096,64	1017,00
-1088,22	992,00
-1079,81	1054,00
-1071,41	1109,00
-1063,02	946,00
-1054,65	980,00
-1046,28	941,00
-1037,92	1083,00
-1029,58	994,00
-1021,24	947,00
-1012,92	1330,00
-1004,61	1014,00
-996,30	1364,00
-988,01	825,00
-979,73	1021,00
-971,46	1066,00
-963,20	877,00
-954,95	864,00
-946,71	937,00
-938,48	880,00
-930,26	1037,00
-922,06	1017,00
-913,86	1045,00
-905,67	906,00
-897,49	1004,00
-889,33	932,00
-881,17	1071,00
-873,02	1082,00
-864,89	780,00
-856,76	972,00
-848,65	1014,00
-840,54	1020,00
-832,45	1096,00
-824,36	854,00
-816,29	1024,00
-808,22	1038,00
-800,17	994,00
-792,12	1110,00
-784,09	1039,00
-776,06	911,00
-768,05	992,00
-760,04	967,00
-752,05	909,00
-744,07	1201,00
-736,09	1028,00
-728,13	871,00
-720,17	980,00
-712,23	894,00
-704,29	1014,00
-696,37	1002,00
-688,45	947,00
-680,55	937,00
-672,65	977,00
-664,77	912,00
-656,89	974,00
-649,03	971,00
-641,17	1038,00
-633,32	1126,00
-625,49	950,00
-617,66	1016,00
-609,84	1042,00
-602,03	845,00
-594,23	922,00
-586,45	964,00
-578,67	870,00
-570,90	902,00
-563,14	901,00
-555,39	993,00
-547,65	1068,00
-539,91	1022,00
-532,19	905,00
-524,48	1060,00
-516,78	958,00
-509,08	1007,00
-501,40	897,00
-493,72	950,00
-486,06	872,00
-478,40	1154,00
-470,76	991,00
-463,12	992,00
-455,49	936,00
-447,87	942,00
-440,26	879,00
-432,66	842,00
-425,07	1052,00
-417,49	941,00
-409,92	911,00
-402,35	817,00
-394,80	955,00
-387,25	1039,00
-379,72	969,00
-372,19	944,00
-364,67	1005,00
-357,17	1034,00
-349,67	942,00
-342,18	987,00
-334,69	1024,00
-327,22	936,00
-319,76	980,00
-312,30	1023,00
-304,86	1023,00
-297,42	970,00
-290,00	1017,00
-282,58	885,00
-275,17	1058,00
-267,77	1056,00
-260,37	906,00
-252,99	1052,00
-245,62	978,00
-238,25	834,00
-230,90	1005,00
-223,55	1049,00
-216,21	1054,00
-208,88	1063,00
-201,56	1066,00
-194,25	1101,00
-186,94	984,00
-179,65	1089,00
-172,36	1061,00
-165,08	1005,00
-157,81	1222,00
-150,55	1227,00
-143,30	1224,00
-136,06	1157,00
-128,82	1182,00
-121,60	1147,00
-114,38	1213,00
-107,17	1291,00
-99,97	1373,00
-92,78	1310,00
-85,60	1458,00
-78,42	1539,00
-71,25	1653,00
-64,10	1711,00
-56,95	1858,00
-49,81	2000,00
-42,67	2393,00
-35,55	2536,00
-28,43	3179,00
-21,33	4840,00
-14,23	13407,00
-7,14	57775,00
-0,05	57564,00
7,02	57281,00
14,09	44946,00
21,14	12466,00
28,19	5551,00
35,23	3913,00
42,27	3227,00
49,29	2760,00
56,31	2451,00
63,32	2320,00
70,32	1969,00
77,31	1795,00
84,29	1662,00
91,27	1693,00
98,23	1732,00
105,19	1510,00
112,14	1680,00
119,09	1949,00
126,02	2520,00
132,95	2748,00
139,87	2838,00
146,78	2937,00
153,68	2772,00
160,58	2775,00
167,46	2689,00
174,34	2856,00
181,21	2836,00
188,08	2726,00
194,93	2868,00
201,78	2669,00
208,62	2776,00
215,45	2796,00
222,27	2880,00
229,09	2980,00
235,90	2699,00
242,70	2684,00
249,49	2925,00
256,27	2693,00
263,05	2718,00
269,82	2676,00
276,58	2834,00
283,33	2636,00
290,08	2701,00
296,82	2721,00
303,55	2663,00
310,27	2482,00
316,98	2666,00
323,69	2582,00
330,39	2643,00
337,08	2708,00
343,76	2667,00
350,44	2636,00
357,11	2617,00
363,77	2566,00
370,42	2570,00
377,07	2773,00
383,71	2537,00
390,34	2662,00
396,96	2502,00
403,58	2453,00
410,19	2609,00
416,79	2726,00
423,38	2735,00
429,97	2718,00
436,55	2481,00
443,12	2609,00
449,68	2457,00
456,24	2664,00
462,79	2639,00
469,33	2560,00
475,86	2587,00
482,39	2652,00
488,91	2667,00
495,42	2503,00
501,93	2636,00
508,42	2484,00
514,91	2725,00
521,40	2547,00
527,87	2575,00
534,34	2430,00
540,80	2583,00
547,25	2584,00
553,70	2633,00
560,14	2585,00
566,57	2608,00
573,00	2534,00
579,41	2620,00
585,83	2523,00
592,23	2558,00
598,62	2524,00
605,01	2470,00
611,40	2563,00
617,77	2689,00
624,14	2640,00
630,50	2516,00
636,85	2552,00
643,20	2653,00
649,54	2458,00
655,87	2517,00
662,20	2625,00
668,52	2629,00
674,83	2605,00
681,13	2554,00
687,43	2624,00
693,72	2569,00
700,00	2466,00
706,28	2495,00
712,55	2589,00
718,81	2577,00
725,07	2497,00
731,32	2470,00
737,56	2622,00
743,79	2595,00
750,02	2578,00
756,24	2466,00
762,46	2480,00
768,67	2893,00
774,87	2571,00
781,06	2532,00
787,25	2617,00
793,43	2641,00
799,60	2463,00
805,77	2723,00
811,93	2454,00
818,08	2531,00
824,23	2506,00
830,37	2696,00
836,50	2631,00
842,63	2564,00
848,75	2556,00
854,87	2623,00
860,97	2564,00
867,07	2551,00
873,17	2647,00
879,25	2592,00
885,33	2539,00
891,41	2623,00
897,47	2638,00
903,53	2568,00
909,59	2775,00
915,63	2636,00
921,67	2681,00
927,71	2568,00
933,74	2705,00
939,76	2476,00
945,77	2535,00
951,78	2649,00
957,78	2513,00
963,78	2662,00
969,77	2601,00
975,75	2619,00
981,72	2587,00
987,69	4074,00
993,66	2713,00
999,61	2652,00
1005,56	2710,00
1011,51	2597,00
1017,44	2654,00
1023,37	2717,00
1029,30	2714,00
1035,22	2757,00
1041,13	2547,00
1047,03	2614,00
1052,93	2806,00
1058,83	3048,00
1064,71	3243,00
1070,59	3073,00
1076,47	2831,00
1082,33	2800,00
1088,20	2818,00
1094,05	2788,00
1099,90	2648,00
1105,74	2703,00
1111,58	2705,00
1117,41	2769,00
1123,23	3013,00
1129,05	3354,00
1134,86	3322,00
1140,67	3042,00
1146,47	2795,00
1152,26	2861,00
1158,05	2603,00
1163,83	2780,00
1169,60	2883,00
1175,37	2854,00
1181,13	2794,00
1186,89	2853,00
1192,64	2809,00
1198,38	2844,00
1204,12	2717,00
1209,85	2736,00
1215,58	2791,00
1221,30	2801,00
1227,02	2742,00
1232,72	2726,00
1238,43	2619,00
1244,12	2842,00
1249,81	2722,00
1255,50	2772,00
1261,17	2683,00
1266,85	2862,00
1272,51	2817,00
1278,17	2851,00
1283,83	2918,00
1289,47	3187,00
1295,12	3654,00
1300,75	3362,00
1306,38	3076,00
1312,01	2926,00
1317,63	2869,00
1323,24	2901,00
1328,85	3012,00
1334,45	2815,00
1340,04	2803,00
1345,63	2747,00
1351,22	2995,00
1356,80	2836,00
1362,37	2904,00
1367,93	2849,00
1373,49	2896,00
1379,05	2722,00
1384,60	2930,00
1390,14	2840,00
1395,68	2934,00
1401,21	2884,00
1406,74	2938,00
1412,26	3151,00
1417,77	3234,00
1423,28	3128,00
1428,78	3219,00
1434,28	3450,00
1439,77	3559,00
1445,26	3443,00
1450,74	3477,00
1456,22	3440,00
1461,68	3436,00
1467,15	3252,00
1472,61	3070,00
1478,06	3194,00
1483,51	3096,00
1488,95	2872,00
1494,38	2726,00
1499,81	2651,00
1505,24	2701,00
1510,65	2825,00
1516,07	2848,00
1521,48	2608,00
1526,88	2497,00
1532,27	2798,00
1537,67	2683,00
1543,05	2811,00
1548,43	2552,00
1553,81	2718,00
1559,18	2548,00
1564,54	2668,00
1569,90	2673,00
1575,25	2579,00
1580,60	2525,00
1585,94	2680,00
1591,28	2577,00
1596,61	2613,00
1601,93	2798,00
1607,25	2714,00
1612,57	2632,00
1617,88	2708,00
1623,18	2596,00
1628,48	2753,00
1633,77	2545,00
1639,06	2634,00
1644,34	2538,00
1649,62	2514,00
1654,89	2749,00
1660,16	2564,00
1665,42	2721,00
1670,67	2543,00
1675,92	2643,00
1681,17	2617,00
1686,41	2655,00
1691,64	2658,00
1696,87	2470,00
1702,10	2583,00
1707,32	2640,00
1712,53	2551,00
1717,74	2595,00
1722,94	2485,00
1728,14	2556,00
1733,33	2425,00
1738,52	2379,00
1743,70	2518,00
1748,88	2425,00
1754,05	2471,00
1759,22	2362,00
1764,38	2624,00
1769,53	2485,00
1774,69	2564,00
1779,83	2418,00
1784,97	2390,00
1790,11	2396,00
1795,24	2424,00
1800,36	2443,00
1805,48	2386,00
1810,60	2389,00
1815,71	2350,00
1820,82	2336,00
1825,92	2354,00
1831,01	2359,00
1836,10	2304,00
1841,19	2414,00
1846,26	2301,00
1851,34	2338,00
1856,41	2467,00
1861,47	2453,00
1866,53	2401,00
1871,59	2422,00
1876,64	2348,00
1881,68	2417,00
1886,72	2549,00
1891,76	2281,00
1896,79	2361,00
1901,81	2217,00
1906,83	2367,00
1911,85	2287,00
1916,86	2418,00
1921,86	2367,00
1926,86	2338,00
1931,86	2361,00
1936,85	2277,00
1941,83	2388,00
1946,81	2316,00
1951,79	2286,00
1956,76	2169,00
1961,72	2168,00
1966,68	2158,00
1971,64	2170,00
1976,59	2201,00
1981,54	2235,00
1986,48	2143,00
1991,42	2178,00
1996,35	2487,00
2001,27	2226,00
2006,20	2179,00
2011,11	2248,00
2016,03	2234,00
2020,93	2099,00
2025,84	2151,00
2030,73	2132,00
2035,63	1972,00
2040,52	2252,00
2045,40	2191,00
2050,28	2167,00
2055,15	2146,00
2060,02	1981,00
2064,89	2210,00
2069,75	2262,00
2074,60	2206,00
2079,46	2154,00
2084,30	2078,00
2089,14	2044,00
2093,98	2202,00
2098,81	2149,00
2103,64	2155,00
2108,46	2117,00
2113,28	2057,00
2118,09	2125,00
2122,90	2114,00
2127,70	2090,00
2132,50	2223,00
2137,30	2071,00
2142,09	2168,00
2146,87	1981,00
2151,66	2162,00
2156,43	2113,00
2161,20	2166,00
2165,97	2075,00
2170,73	1981,00
2175,49	2135,00
2180,24	2024,00
2184,99	2167,00
2189,74	2136,00
2194,48	2114,00
2199,21	2157,00
2203,94	1972,00
2208,67	1912,00
2213,39	1935,00
2218,11	2009,00
2222,82	2052,00
2227,53	2016,00
2232,23	2124,00
2236,93	2002,00
2241,63	2051,00
2246,32	2092,00
2251,00	1972,00
2255,68	2003,00
2260,36	2036,00
2265,03	2098,00
2269,70	2092,00
2274,36	1899,00
2279,02	1976,00
2283,68	1976,00
2288,33	1845,00
2292,97	2043,00
2297,61	1949,00
2302,25	1920,00
2306,88	1844,00
2311,51	1952,00
2316,14	1977,00
2320,75	1942,00
2325,37	1840,00
2329,98	2106,00
2334,59	1874,00
2339,19	1949,00
2343,79	1828,00
2348,38	1892,00
2352,97	1876,00
2357,55	1989,00
2362,13	1978,00
2366,71	1764,00
2371,28	1962,00
2375,85	1824,00
2380,41	1934,00
2384,97	1867,00
2389,52	1949,00
2394,07	1855,00
2398,62	1955,00
2403,16	1783,00
2407,70	1777,00
2412,23	1876,00
2416,76	1990,00
2421,29	1871,00
2425,81	1896,00
2430,32	1919,00
2434,84	1632,00
2439,34	1809,00
2443,85	1937,00
2448,35	1730,00
2452,84	1779,00
2457,33	1815,00
2461,82	1660,00
2466,30	1630,00
2470,78	1870,00
2475,25	1618,00
2479,72	1739,00
2484,19	1677,00
2488,65	1822,00
2493,11	1667,00
2497,56	1734,00
2502,01	1593,00
2506,46	1831,00
2510,90	1693,00
2515,34	1770,00
2519,77	1738,00
2524,20	1678,00
2528,62	1635,00
2533,04	1788,00
2537,46	1565,00
2541,87	1628,00
2546,28	1580,00
2550,68	1650,00
2555,08	1546,00
2559,48	1601,00
2563,87	1572,00
2568,26	1650,00
2572,64	1627,00
2577,02	1702,00
2581,40	1457,00
2585,77	1649,00
2590,14	1534,00
2594,50	1488,00
2598,86	1578,00
2603,22	1622,00
2607,57	1639,00
2611,92	1710,00
2616,26	1649,00
2620,60	1706,00
2624,94	1539,00
2629,27	1823,00
2633,60	1479,00
2637,92	1710,00
2642,24	1655,00
2646,56	1564,00
2650,87	1513,00
2655,18	1623,00
2659,48	1480,00
2663,78	1561,00
2668,08	1540,00
2672,37	1630,00
2676,66	1625,00
2680,95	1584,00
2685,23	1571,00
2689,50	1456,00
2693,78	1596,00
2698,05	1486,00
2702,31	1542,00
2706,57	1515,00
2710,83	1666,00
2715,08	1611,00
2719,33	1796,00
2723,58	1658,00
2727,82	1718,00
2732,06	1603,00
2736,29	1564,00
2740,53	1728,00
2744,75	1551,00
2748,97	1651,00
2753,19	1672,00
2757,41	1550,00
2761,62	1634,00
2765,83	1656,00
2770,03	1471,00
2774,23	1531,00
2778,43	1574,00
2782,62	1524,00
2786,81	1493,00
2791,00	1605,00
2795,18	1681,00
2799,35	1659,00
2803,53	1704,00
2807,70	1659,00
2811,86	1451,00
2816,03	1682,00
2820,19	1626,00
2824,34	1748,00
2828,49	1673,00
2832,64	1845,00
2836,78	1956,00
2840,92	2043,00
2845,06	2382,00
2849,19	2396,00
2853,32	2470,00
2857,45	2488,00
2861,57	2450,00
2865,69	2358,00
2869,80	2292,00
2873,91	2309,00
2878,02	2393,00
2882,12	2626,00
2886,22	2494,00
2890,32	2543,00
2894,41	2365,00
2898,50	2298,00
2902,58	2086,00
2906,67	2183,00
2910,74	2054,00
2914,82	1952,00
2918,89	2025,00
2922,96	1804,00
2927,02	1867,00
2931,08	1715,00
2935,13	1627,00
2939,19	1705,00
2943,24	1702,00
2947,28	1657,00
2951,32	1495,00
2955,36	1421,00
2959,40	1612,00
2963,43	1550,00
2967,46	1409,00
2971,48	1400,00
2975,50	1543,00
2979,52	1465,00
2983,53	1502,00
2987,54	1336,00
2991,55	1371,00
2995,55	1356,00
2999,55	1288,00
3003,54	1247,00
3007,54	1471,00
3011,53	1265,00
3015,51	1295,00
3019,49	1418,00
3023,47	1215,00
3027,45	1255,00
3031,42	1299,00
3035,39	1147,00
3039,35	1320,00
3043,31	1324,00
3047,27	1285,00
3051,22	1309,00
3055,17	1147,00
3059,12	1222,00
3063,06	1191,00
3067,00	1097,00
3070,94	1196,00
3074,87	1224,00
3078,80	1252,00
3082,73	1203,00
3086,65	1167,00
3090,57	1148,00
3094,49	1201,00
3098,40	1150,00
3102,31	1104,00
3106,22	1291,00
3110,12	1202,00
3114,02	1101,00
3117,92	1327,00
3121,81	1087,00
3125,70	1089,00
3129,58	1172,00
3133,47	1172,00
3137,34	1272,00
3141,22	1195,00
3145,09	1271,00
3148,96	1128,00
3152,83	1082,00
3156,69	1225,00
3160,55	1032,00
3164,40	1151,00
3168,26	1104,00
3172,10	1258,00
3175,95	1146,00
3179,79	1136,00
3183,63	1093,00
3187,47	1142,00
3191,30	1103,00
3195,13	1234,00
3198,95	1097,00
3202,78	1188,00
3206,60	1060,00
3210,41	1020,00
3214,23	1027,00
3218,03	1167,00
3221,84	1151,00
3225,64	1050,00
3229,44	1113,00
3233,24	1118,00
3237,03	991,00
3240,82	1010,00
3244,61	1098,00
3248,39	1071,00
3252,17	1061,00
3255,95	1138,00
3259,72	1086,00
3263,49	1299,00
3267,26	949,00
3271,03	970,00
3274,79	1165,00
3278,54	1066,00
3282,30	913,00
3286,05	1055,00
3289,80	1051,00
3293,54	1078,00
3297,29	1023,00
3301,02	1083,00
3304,76	1002,00
3308,49	1143,00
3312,22	997,00
3315,95	995,00
3319,67	1014,00
3323,39	1165,00
3327,10	1162,00
3330,82	1000,00
3334,53	966,00
3338,24	944,00
3341,94	1059,00
3345,64	877,00
3349,34	1004,00
3353,03	1051,00
3356,72	1029,00
3360,41	1096,00
3364,10	1118,00
3367,78	935,00
3371,46	1077,00
3375,13	1045,00
3378,81	1070,00
3382,48	919,00
3386,14	1168,00
3389,81	1101,00
3393,47	945,00
3397,12	1097,00
3400,78	987,00
3404,43	1039,00
3408,08	1054,00
3411,72	965,00
3415,36	987,00
3419,00	986,00
3422,64	997,00
3426,27	956,00
3429,90	974,00
3433,53	980,00
3437,15	914,00
3440,77	910,00
3444,39	972,00
3448,00	998,00
3451,62	1022,00
3455,22	972,00
3458,83	958,00
3462,43	958,00
3466,03	1057,00
3469,63	1107,00
3473,22	1057,00
3476,81	909,00
3480,40	1038,00
3483,99	1012,00
3487,57	1088,00
3491,15	927,00
3494,72	877,00
3498,29	972,00
3501,86	915,00
3505,43	1051,00
3508,99	937,00
3512,56	929,00
3516,11	1064,00
3519,67	930,00
3523,22	1088,00
3526,77	990,00
3530,32	987,00
3533,86	1019,00
3537,40	1028,00
3540,94	1043,00
3544,47	920,00
3548,00	947,00
3551,53	1009,00
3555,06	861,00
3558,58	1052,00
3562,10	971,00
3565,62	1025,00
3569,13	978,00
3572,64	973,00
3576,15	843,00
3579,66	899,00
3583,16	1025,00
3586,66	945,00
3590,16	938,00
3593,65	876,00
3597,14	917,00
3600,63	859,00
3604,11	1056,00
3607,60	902,00
3611,08	939,00
3614,55	850,00
3618,03	831,00
3621,50	902,00
3624,97	838,00
3628,43	1086,00
3631,90	959,00
3635,36	884,00
3638,81	826,00
3642,27	1006,00
3645,72	971,00
3649,17	978,00
3652,61	869,00
3656,06	849,00
3659,50	901,00
3662,93	847,00
3666,37	902,00
3669,80	1060,00
3673,23	874,00
3676,65	1038,00
3680,08	989,00
3683,50	855,00
3686,92	1000,00
3690,33	820,00
3693,74	879,00
3697,15	791,00
3700,56	869,00
3703,96	910,00
3707,36	847,00
3710,76	835,00
3714,16	842,00
3717,55	847,00
3720,94	955,00
3724,33	835,00
3727,71	995,00
3731,10	844,00
3734,48	798,00
3737,85	742,00
3741,23	707,00
3744,60	769,00
3747,97	772,00
3751,33	857,00
3754,69	848,00
3758,05	849,00
3761,41	738,00
3764,77	766,00
3768,12	721,00
3771,47	762,00
3774,82	837,00
3778,16	-10,00
3781,50	13,00
3784,84	3,00
3788,18	8,00
>>>>>End Processed Spectral Data<<<<<
