SpectraSuite Data File
++++++++++++++++++++++++++++++++++++
Date: Mon Mar 09 15:10:11 ICT 2026
User: Administrator
Dark Spectrum Present: Yes
Reference Spectrum Present: No
Number of Sampled Component Spectra: 1
Spectrometers: MAYP113682
Integration Time (usec): 3000000 (MAYP113682)
Spectra Averaged: 1 (MAYP113682)
Boxcar Smoothing: 0 (MAYP113682)
Correct for Electrical Dark: No (MAYP113682)
Strobe/Lamp Enabled: No (MAYP113682)
Correct for Detector Non-linearity: No (MAYP113682)
Correct for Stray Light: No (MAYP113682)
Number of Pixels in Processed Spectrum: 2068
>>>>>Begin Processed Spectral Data<<<<<
-37534,58	2,00
-37414,56	0,00
-37295,11	-5,00
-37176,24	5,00
-37057,95	128,00
-36940,22	109,00
-36823,05	125,00
-36706,45	205,00
-36590,40	72,00
-36474,90	68,00
-36359,95	146,00
-36245,55	85,00
-36131,68	59,00
-36018,35	71,00
-35905,55	98,00
-35793,29	138,00
-35681,54	45,00
-35570,32	65,00
-35459,62	140,00
-35349,43	85,00
-35239,75	292,00
-35130,58	-13,00
-35021,91	63,00
-34913,74	111,00
-34806,07	107,00
-34698,89	194,00
-34592,20	87,00
-34486,00	123,00
-34380,28	142,00
-34275,04	141,00
-34170,27	112,00
-34065,98	22,00
-33962,16	72,00
-33858,81	134,00
-33755,92	130,00
-33653,49	158,00
-33551,52	142,00
-33450,01	154,00
-33348,94	172,00
-33248,33	230,00
-33148,16	113,00
-33048,43	124,00
-32949,14	190,00
-32850,29	126,00
-32751,87	36,00
-32653,89	173,00
-32556,33	191,00
-32459,20	121,00
-32362,49	145,00
-32266,19	119,00
-32170,32	145,00
-32074,86	230,00
-31979,82	14,00
-31885,18	80,00
-31790,95	-20,00
-31697,12	87,00
-31603,69	96,00
-31510,67	99,00
-31418,04	57,00
-31325,80	167,00
-31233,95	205,00
-31142,49	99,00
-31051,42	148,00
-30960,73	177,00
-30870,43	121,00
-30780,50	124,00
-30690,95	154,00
-30601,77	126,00
-30512,97	145,00
-30424,53	73,00
-30336,46	-1,00
-30248,76	147,00
-30161,42	183,00
-30074,44	-71,00
-29987,81	145,00
-29901,55	80,00
-29815,63	201,00
-29730,07	235,00
-29644,86	152,00
-29560,00	99,00
-29475,48	90,00
-29391,30	70,00
-29307,47	78,00
-29223,97	118,00
-29140,81	47,00
-29057,99	88,00
-28975,50	101,00
-28893,34	179,00
-28811,51	153,00
-28730,00	223,00
-28648,82	111,00
-28567,97	111,00
-28487,43	147,00
-28407,21	212,00
-28327,32	164,00
-28247,73	147,00
-28168,46	101,00
-28089,50	115,00
-28010,85	156,00
-27932,51	118,00
-27854,48	63,00
-27776,75	164,00
-27699,32	63,00
-27622,19	41,00
-27545,37	55,00
-27468,84	141,00
-27392,60	59,00
-27316,66	76,00
-27241,01	185,00
-27165,66	121,00
-27090,59	141,00
-27015,81	193,00
-26941,31	49,00
-26867,10	65,00
-26793,17	55,00
-26719,52	8,00
-26646,15	224,00
-26573,06	94,00
-26500,24	177,00
-26427,70	218,00
-26355,43	168,00
-26283,43	242,00
-26211,71	158,00
-26140,25	124,00
-26069,06	143,00
-25998,13	162,00
-25927,46	65,00
-25857,06	99,00
-25786,92	52,00
-25717,04	147,00
-25647,42	54,00
-25578,05	52,00
-25508,94	84,00
-25440,09	212,00
-25371,48	117,00
-25303,13	123,00
-25235,02	94,00
-25167,17	196,00
-25099,56	141,00
-25032,19	53,00
-24965,07	153,00
-24898,20	141,00
-24831,56	95,00
-24765,17	168,00
-24699,01	75,00
-24633,10	232,00
-24567,41	156,00
-24501,97	178,00
-24436,75	144,00
-24371,77	49,00
-24307,03	147,00
-24242,51	124,00
-24178,22	154,00
-24114,16	-12,00
-24050,32	234,00
-23986,71	64,00
-23923,32	67,00
-23860,16	166,00
-23797,22	28,00
-23734,50	152,00
-23672,00	101,00
-23609,71	169,00
-23547,65	127,00
-23485,80	83,00
-23424,16	92,00
-23362,74	90,00
-23301,53	-21,00
-23240,54	116,00
-23179,75	117,00
-23119,17	153,00
-23058,80	69,00
-22998,64	214,00
-22938,68	109,00
-22878,93	72,00
-22819,39	129,00
-22760,04	150,00
-22700,90	92,00
-22641,96	157,00
-22583,22	78,00
-22524,68	103,00
-22466,33	126,00
-22408,19	204,00
-22350,23	185,00
-22292,48	216,00
-22234,92	142,00
-22177,55	198,00
-22120,37	220,00
-22063,38	81,00
-22006,58	157,00
-21949,98	113,00
-21893,56	131,00
-21837,33	83,00
-21781,28	94,00
-21725,42	-35,00
-21669,74	127,00
-21614,25	75,00
-21558,94	189,00
-21503,81	138,00
-21448,86	-23,00
-21394,10	165,00
-21339,51	100,00
-21285,10	94,00
-21230,86	110,00
-21176,81	133,00
-21122,93	120,00
-21069,22	191,00
-21015,69	-37,00
-20962,33	156,00
-20909,14	124,00
-20856,13	22,00
-20803,28	218,00
-20750,61	94,00
-20698,10	138,00
-20645,76	137,00
-20593,59	294,00
-20541,59	-49,00
-20489,75	91,00
-20438,07	129,00
-20386,56	184,00
-20335,22	48,00
-20284,03	65,00
-20233,01	34,00
-20182,15	72,00
-20131,45	82,00
-20080,91	106,00
-20030,52	82,00
-19980,30	63,00
-19930,23	31,00
-19880,32	191,00
-19830,56	35,00
-19780,96	184,00
-19731,52	149,00
-19682,23	110,00
-19633,09	8,00
-19584,10	208,00
-19535,26	88,00
-19486,58	173,00
-19438,04	191,00
-19389,66	213,00
-19341,42	75,00
-19293,33	110,00
-19245,39	59,00
-19197,60	100,00
-19149,95	63,00
-19102,45	99,00
-19055,09	-44,00
-19007,87	144,00
-18960,80	17,00
-18913,87	146,00
-18867,09	156,00
-18820,44	94,00
-18773,94	69,00
-18727,57	111,00
-18681,35	190,00
-18635,26	91,00
-18589,31	135,00
-18543,50	187,00
-18497,83	116,00
-18452,29	166,00
-18406,89	151,00
-18361,63	167,00
-18316,50	111,00
-18271,50	35,00
-18226,63	167,00
-18181,90	47,00
-18137,30	112,00
-18092,84	83,00
-18048,50	149,00
-18004,29	58,00
-17960,22	53,00
-17916,27	168,00
-17872,45	151,00
-17828,76	93,00
-17785,20	83,00
-17741,77	38,00
-17698,46	80,00
-17655,28	102,00
-17612,22	116,00
-17569,29	164,00
-17526,48	145,00
-17483,79	82,00
-17441,23	197,00
-17398,79	136,00
-17356,48	163,00
-17314,28	196,00
-17272,21	155,00
-17230,26	6,00
-17188,42	59,00
-17146,71	157,00
-17105,12	198,00
-17063,64	107,00
-17022,28	54,00
-16981,04	134,00
-16939,92	235,00
-16898,91	-23,00
-16858,02	112,00
-16817,25	89,00
-16776,59	221,00
-16736,04	40,00
-16695,61	88,00
-16655,29	64,00
-16615,09	232,00
-16574,99	94,00
-16535,01	192,00
-16495,15	-6,00
-16455,39	89,00
-16415,74	2,00
-16376,21	116,00
-16336,78	65,00
-16297,46	49,00
-16258,26	46,00
-16219,16	52,00
-16180,17	161,00
-16141,28	21,00
-16102,51	73,00
-16063,84	130,00
-16025,27	32,00
-15986,82	154,00
-15948,46	71,00
-15910,22	181,00
-15872,07	37,00
-15834,04	93,00
-15796,10	127,00
-15758,27	155,00
-15720,54	22,00
-15682,91	94,00
-15645,39	224,00
-15607,97	120,00
-15570,64	140,00
-15533,42	67,00
-15496,30	28,00
-15459,28	156,00
-15422,36	143,00
-15385,54	137,00
-15348,82	64,00
-15312,19	152,00
-15275,66	158,00
-15239,23	103,00
-15202,90	225,00
-15166,67	211,00
-15130,53	134,00
-15094,48	44,00
-15058,54	139,00
-15022,68	115,00
-14986,93	123,00
-14951,26	6,00
-14915,69	88,00
-14880,22	75,00
-14844,84	137,00
-14809,55	47,00
-14774,35	122,00
-14739,25	199,00
-14704,24	114,00
-14669,32	123,00
-14634,49	-18,00
-14599,75	129,00
-14565,10	130,00
-14530,55	125,00
-14496,08	200,00
-14461,70	67,00
-14427,41	72,00
-14393,21	219,00
-14359,10	97,00
-14325,07	128,00
-14291,14	100,00
-14257,29	48,00
-14223,52	151,00
-14189,85	245,00
-14156,26	124,00
-14122,76	103,00
-14089,34	41,00
-14056,01	104,00
-14022,76	81,00
-13989,60	160,00
-13956,52	48,00
-13923,53	46,00
-13890,62	45,00
-13857,79	82,00
-13825,05	116,00
-13792,39	-10,00
-13759,81	215,00
-13727,31	148,00
-13694,90	219,00
-13662,57	56,00
-13630,31	148,00
-13598,14	29,00
-13566,05	164,00
-13534,05	215,00
-13502,12	115,00
-13470,27	199,00
-13438,50	123,00
-13406,80	43,00
-13375,19	126,00
-13343,66	99,00
-13312,20	118,00
-13280,83	129,00
-13249,53	93,00
-13218,30	161,00
-13187,16	59,00
-13156,09	173,00
-13125,10	77,00
-13094,18	162,00
-13063,34	89,00
-13032,58	250,00
-13001,89	141,00
-12971,28	-37,00
-12940,74	55,00
-12910,27	113,00
-12879,88	172,00
-12849,57	29,00
-12819,33	54,00
-12789,16	27,00
-12759,06	64,00
-12729,04	91,00
-12699,09	-1075,00
-12669,21	203,00
-12639,41	107,00
-12609,68	75,00
-12580,02	191,00
-12550,43	96,00
-12520,91	103,00
-12491,46	136,00
-12462,08	98,00
-12432,77	109,00
-12403,54	75,00
-12374,37	174,00
-12345,27	85,00
-12316,24	130,00
-12287,29	186,00
-12258,40	108,00
-12229,57	112,00
-12200,82	196,00
-12172,14	140,00
-12143,52	132,00
-12114,97	69,00
-12086,49	104,00
-12058,07	105,00
-12029,73	44,00
-12001,44	76,00
-11973,23	155,00
-11945,08	-8,00
-11917,00	146,00
-11888,98	102,00
-11861,03	104,00
-11833,15	75,00
-11805,32	130,00
-11777,57	67,00
-11749,88	104,00
-11722,25	86,00
-11694,69	93,00
-11667,19	123,00
-11639,75	27,00
-11612,38	-28,00
-11585,07	141,00
-11557,83	112,00
-11530,65	-57,00
-11503,53	144,00
-11476,47	32,00
-11449,48	71,00
-11422,54	23,00
-11395,67	173,00
-11368,86	172,00
-11342,11	162,00
-11315,43	245,00
-11288,80	28,00
-11262,23	132,00
-11235,73	201,00
-11209,28	61,00
-11182,90	200,00
-11156,57	61,00
-11130,31	100,00
-11104,10	78,00
-11077,96	149,00
-11051,87	149,00
-11025,84	95,00
-10999,87	189,00
-10973,96	202,00
-10948,11	77,00
-10922,31	68,00
-10896,58	198,00
-10870,90	96,00
-10845,28	72,00
-10819,71	68,00
-10794,20	179,00
-10768,75	160,00
-10743,36	120,00
-10718,02	106,00
-10692,74	87,00
-10667,52	133,00
-10642,35	44,00
-10617,24	114,00
-10592,18	137,00
-10567,18	77,00
-10542,23	177,00
-10517,34	169,00
-10492,51	215,00
-10467,72	81,00
-10443,00	123,00
-10418,32	123,00
-10393,70	191,00
-10369,14	117,00
-10344,63	155,00
-10320,17	97,00
-10295,77	134,00
-10271,42	31,00
-10247,12	160,00
-10222,88	74,00
-10198,68	90,00
-10174,54	223,00
-10150,46	197,00
-10126,42	11,00
-10102,44	197,00
-10078,51	44,00
-10054,63	67,00
-10030,80	106,00
-10007,03	128,00
-9983,30	163,00
-9959,63	55,00
-9936,01	208,00
-9912,44	82,00
-9888,92	47,00
-9865,44	157,00
-9842,02	103,00
-9818,65	58,00
-9795,33	79,00
-9772,06	73,00
-9748,84	117,00
-9725,67	34,00
-9702,55	100,00
-9679,47	116,00
-9656,45	95,00
-9633,47	91,00
-9610,55	63,00
-9587,67	126,00
-9564,84	111,00
-9542,06	-4,00
-9519,32	125,00
-9496,64	63,00
-9474,00	119,00
-9451,41	91,00
-9428,87	-11,00
-9406,37	-45,00
-9383,92	-163,00
-9361,52	-295,00
-9339,17	-204,00
-9316,86	-98,00
-9294,60	-45,00
-9272,38	28,00
-9250,21	50,00
-9228,09	14,00
-9206,01	60,00
-9183,98	-90,00
-9162,00	-90,00
-9140,06	-229,00
-9118,16	-308,00
-9096,31	-44,00
-9074,51	-53,00
-9052,75	15,00
-9031,04	-98,00
-9009,37	-59,00
-8987,74	-62,00
-8966,16	-119,00
-8944,63	-301,00
-8923,14	-251,00
-8901,69	-193,00
-8880,29	99,00
-8858,93	85,00
-8837,61	37,00
-8816,34	65,00
-8795,11	143,00
-8773,92	176,00
-8752,78	48,00
-8731,68	-67,00
-8710,62	145,00
-8689,61	17,00
-8668,63	165,00
-8647,70	205,00
-8626,82	179,00
-8605,97	197,00
-8585,17	155,00
-8564,41	93,00
-8543,69	45,00
-8523,01	-56,00
-8502,37	-44,00
-8481,78	-111,00
-8461,23	145,00
-8440,71	35,00
-8420,24	138,00
-8399,81	334,00
-8379,42	177,00
-8359,08	145,00
-8338,77	178,00
-8318,50	262,00
-8298,27	81,00
-8278,09	145,00
-8257,94	353,00
-8237,83	251,00
-8217,76	236,00
-8197,74	273,00
-8177,75	387,00
-8157,80	230,00
-8137,89	171,00
-8118,02	241,00
-8098,19	301,00
-8078,40	228,00
-8058,65	320,00
-8038,93	117,00
-8019,26	304,00
-7999,62	346,00
-7980,02	203,00
-7960,46	213,00
-7940,94	249,00
-7921,46	200,00
-7902,01	176,00
-7882,60	110,00
-7863,23	240,00
-7843,90	216,00
-7824,61	224,00
-7805,35	261,00
-7786,13	255,00
-7766,95	359,00
-7747,80	269,00
-7728,69	326,00
-7709,62	193,00
-7690,59	311,00
-7671,59	304,00
-7652,63	238,00
-7633,70	308,00
-7614,81	320,00
-7595,96	211,00
-7577,15	212,00
-7558,37	376,00
-7539,62	317,00
-7520,91	238,00
-7502,24	216,00
-7483,60	291,00
-7465,00	182,00
-7446,44	133,00
-7427,91	128,00
-7409,41	96,00
-7390,95	74,00
-7372,53	-2,00
-7354,14	62,00
-7335,78	102,00
-7317,46	149,00
-7299,18	150,00
-7280,92	170,00
-7262,71	395,00
-7244,52	295,00
-7226,38	131,00
-7208,26	285,00
-7190,18	271,00
-7172,14	124,00
-7154,12	145,00
-7136,15	213,00
-7118,20	78,00
-7100,29	195,00
-7082,41	177,00
-7064,57	292,00
-7046,76	204,00
-7028,98	66,00
-7011,24	70,00
-6993,53	-40,00
-6975,85	32,00
-6958,20	-41,00
-6940,59	32,00
-6923,01	40,00
-6905,46	100,00
-6887,94	-37,00
-6870,46	2561,00
-6853,01	36,00
-6835,59	123,00
-6818,21	271,00
-6800,85	104,00
-6783,53	-12,00
-6766,24	73,00
-6748,98	-46,00
-6731,76	-101,00
-6714,56	-79,00
-6697,40	-75,00
-6680,26	-82,00
-6663,16	25,00
-6646,09	63,00
-6629,05	96,00
-6612,05	63,00
-6595,07	58,00
-6578,13	53,00
-6561,21	-14,00
-6544,33	-158,00
-6527,47	2,00
-6510,65	-42,00
-6493,86	-149,00
-6477,10	-167,00
-6460,36	-91,00
-6443,66	-59,00
-6426,99	-163,00
-6410,35	-4,00
-6393,74	-159,00
-6377,16	1,00
-6360,61	-68,00
-6344,09	10,00
-6327,59	-26,00
-6311,13	117,00
-6294,70	153,00
-6278,29	18,00
-6261,92	147,00
-6245,58	44,00
-6229,26	119,00
-6212,97	-13,00
-6196,72	-73,00
-6180,49	2,00
-6164,29	-18,00
-6148,12	-104,00
-6131,98	-72,00
-6115,86	-74,00
-6099,78	-199,00
-6083,72	-152,00
-6067,69	-224,00
-6051,69	-134,00
-6035,72	-98,00
-6019,78	-14,00
-6003,87	-9,00
-5987,98	1,00
-5972,12	28,00
-5956,29	73,00
-5940,49	62,00
-5924,71	71,00
-5908,96	29,00
-5893,24	36,00
-5877,55	-29,00
-5861,89	-101,00
-5846,25	-98,00
-5830,64	-57,00
-5815,05	-85,00
-5799,50	-111,00
-5783,97	35,00
-5768,47	99,00
-5752,99	-11,00
-5737,55	-51,00
-5722,12	124,00
-5706,73	-26,00
-5691,36	-29,00
-5676,02	23,00
-5660,71	49,00
-5645,42	8,00
-5630,16	126,00
-5614,92	34,00
-5599,71	-47,00
-5584,53	13,00
-5569,37	-18,00
-5554,24	-879,00
-5539,14	-7,00
-5524,06	-6,00
-5509,01	-20,00
-5493,98	-102,00
-5478,98	-109,00
-5464,00	-154,00
-5449,05	-57,00
-5434,13	-15,00
-5419,23	56,00
-5404,36	35,00
-5389,51	107,00
-5374,69	4,00
-5359,89	47,00
-5345,12	27,00
-5330,37	75,00
-5315,65	90,00
-5300,95	88,00
-5286,28	109,00
-5271,63	-17,00
-5257,01	7,00
-5242,41	37,00
-5227,84	-154,00
-5213,29	-21,00
-5198,76	25,00
-5184,26	27,00
-5169,79	-15,00
-5155,33	-91,00
-5140,91	-20,00
-5126,51	39,00
-5112,13	11,00
-5097,77	72,00
-5083,44	73,00
-5069,13	21,00
-5054,85	-27,00
-5040,59	55,00
-5026,36	-50,00
-5012,15	-41,00
-4997,96	-128,00
-4983,80	-73,00
-4969,66	-54,00
-4955,54	85,00
-4941,44	28,00
-4927,37	64,00
-4913,33	129,00
-4899,30	164,00
-4885,30	158,00
-4871,33	24,00
-4857,37	156,00
-4843,44	53,00
-4829,53	37,00
-4815,65	-64,00
-4801,79	-13,00
-4787,95	-35,00
-4774,13	24,00
-4760,34	203,00
-4746,56	65,00
-4732,82	96,00
-4719,09	78,00
-4705,38	62,00
-4691,70	77,00
-4678,04	67,00
-4664,41	176,00
-4650,79	197,00
-4637,20	143,00
-4623,63	-10,00
-4610,08	115,00
-4596,56	23,00
-4583,05	41,00
-4569,57	16,00
-4556,11	99,00
-4542,67	112,00
-4529,25	-23,00
-4515,86	106,00
-4502,49	67,00
-4489,13	115,00
-4475,80	133,00
-4462,49	131,00
-4449,21	173,00
-4435,94	127,00
-4422,70	94,00
-4409,47	70,00
-4396,27	68,00
-4383,09	70,00
-4369,93	115,00
-4356,79	70,00
-4343,67	12,00
-4330,58	109,00
-4317,50	42,00
-4304,45	125,00
-4291,41	118,00
-4278,40	288,00
-4265,41	193,00
-4252,44	161,00
-4239,49	136,00
-4226,55	158,00
-4213,65	52,00
-4200,76	38,00
-4187,89	107,00
-4175,04	25,00
-4162,21	135,00
-4149,40	130,00
-4136,61	143,00
-4123,85	102,00
-4111,10	135,00
-4098,37	170,00
-4085,66	30,00
-4072,98	47,00
-4060,31	93,00
-4047,66	193,00
-4035,04	141,00
-4022,43	125,00
-4009,84	134,00
-3997,27	-13,00
-3984,72	116,00
-3972,19	249,00
-3959,69	-54,00
-3947,20	212,00
-3934,73	32,00
-3922,27	185,00
-3909,84	139,00
-3897,43	219,00
-3885,04	38,00
-3872,67	122,00
-3860,31	159,00
-3847,98	42,00
-3835,66	145,00
-3823,36	82,00
-3811,09	158,00
-3798,83	0,00
-3786,59	169,00
-3774,37	66,00
-3762,17	127,00
-3749,98	64,00
-3737,82	102,00
-3725,67	166,00
-3713,55	119,00
-3701,44	-22,00
-3689,35	184,00
-3677,28	137,00
-3665,22	95,00
-3653,19	176,00
-3641,17	160,00
-3629,18	139,00
-3617,20	212,00
-3605,24	191,00
-3593,30	17,00
-3581,37	103,00
-3569,47	65,00
-3557,58	175,00
-3545,71	146,00
-3533,86	137,00
-3522,02	174,00
-3510,21	121,00
-3498,41	46,00
-3486,63	170,00
-3474,87	258,00
-3463,12	57,00
-3451,40	60,00
-3439,69	107,00
-3428,00	152,00
-3416,33	247,00
-3404,67	46,00
-3393,03	255,00
-3381,41	86,00
-3369,81	96,00
-3358,22	143,00
-3346,66	140,00
-3335,10	72,00
-3323,57	79,00
-3312,06	-51,00
-3300,56	180,00
-3289,08	145,00
-3277,61	187,00
-3266,16	156,00
-3254,73	80,00
-3243,32	114,00
-3231,92	141,00
-3220,55	201,00
-3209,18	69,00
-3197,84	65,00
-3186,51	121,00
-3175,20	91,00
-3163,90	110,00
-3152,63	145,00
-3141,36	106,00
-3130,12	51,00
-3118,89	246,00
-3107,68	204,00
-3096,49	119,00
-3085,31	170,00
-3074,15	107,00
-3063,00	85,00
-3051,87	166,00
-3040,76	48,00
-3029,67	153,00
-3018,59	111,00
-3007,52	142,00
-2996,48	45,00
-2985,44	156,00
-2974,43	52,00
-2963,43	121,00
-2952,45	102,00
-2941,48	56,00
-2930,53	122,00
-2919,60	136,00
-2908,68	215,00
-2897,78	84,00
-2886,89	121,00
-2876,02	-41,00
-2865,17	124,00
-2854,33	207,00
-2843,50	163,00
-2832,70	134,00
-2821,90	86,00
-2811,13	112,00
-2800,37	129,00
-2789,62	120,00
-2778,89	25,00
-2768,18	124,00
-2757,48	208,00
-2746,80	104,00
-2736,13	118,00
-2725,48	124,00
-2714,84	127,00
-2704,22	27,00
-2693,61	128,00
-2683,02	141,00
-2672,45	217,00
-2661,89	90,00
-2651,34	49,00
-2640,81	52,00
-2630,30	213,00
-2619,80	155,00
-2609,31	213,00
-2598,84	134,00
-2588,39	19,00
-2577,95	21,00
-2567,52	53,00
-2557,11	83,00
-2546,71	112,00
-2536,33	46,00
-2525,97	-12,00
-2515,62	49,00
-2505,28	162,00
-2494,96	142,00
-2484,65	164,00
-2474,36	93,00
-2464,08	131,00
-2453,82	169,00
-2443,57	220,00
-2433,33	67,00
-2423,11	162,00
-2412,91	47,00
-2402,72	134,00
-2392,54	123,00
-2382,38	99,00
-2372,23	203,00
-2362,09	168,00
-2351,97	54,00
-2341,87	51,00
-2331,78	176,00
-2321,70	114,00
-2311,64	208,00
-2301,59	86,00
-2291,55	220,00
-2281,53	167,00
-2271,53	143,00
-2261,53	195,00
-2251,55	87,00
-2241,59	117,00
-2231,64	104,00
-2221,70	254,00
-2211,78	140,00
-2201,87	104,00
-2191,97	100,00
-2182,09	112,00
-2172,22	90,00
-2162,37	134,00
-2152,53	70,00
-2142,70	138,00
-2132,89	184,00
-2123,09	134,00
-2113,30	116,00
-2103,53	63,00
-2093,77	140,00
-2084,02	120,00
-2074,29	119,00
-2064,57	166,00
-2054,86	132,00
-2045,17	146,00
-2035,49	55,00
-2025,82	61,00
-2016,17	143,00
-2006,53	27,00
-1996,91	166,00
-1987,29	123,00
-1977,69	216,00
-1968,11	159,00
-1958,53	78,00
-1948,97	75,00
-1939,42	201,00
-1929,89	166,00
-1920,37	98,00
-1910,86	29,00
-1901,36	93,00
-1891,88	67,00
-1882,41	114,00
-1872,95	127,00
-1863,51	93,00
-1854,08	128,00
-1844,66	123,00
-1835,26	237,00
-1825,86	60,00
-1816,48	54,00
-1807,11	162,00
-1797,76	71,00
-1788,42	39,00
-1779,09	55,00
-1769,77	-21,00
-1760,47	117,00
-1751,17	128,00
-1741,89	174,00
-1732,63	22,00
-1723,37	78,00
-1714,13	132,00
-1704,90	78,00
-1695,68	105,00
-1686,48	195,00
-1677,29	234,00
-1668,11	113,00
-1658,94	152,00
-1649,78	145,00
-1640,64	180,00
-1631,51	224,00
-1622,39	102,00
-1613,28	81,00
-1604,19	153,00
-1595,10	2,00
-1586,03	41,00
-1576,97	86,00
-1567,93	160,00
-1558,89	147,00
-1549,87	77,00
-1540,86	39,00
-1531,86	134,00
-1522,87	164,00
-1513,90	79,00
-1504,93	118,00
-1495,98	212,00
-1487,04	25,00
-1478,12	58,00
-1469,20	241,00
-1460,30	98,00
-1451,40	202,00
-1442,52	26,00
-1433,65	163,00
-1424,80	172,00
-1415,95	116,00
-1407,12	3,00
-1398,30	71,00
-1389,48	134,00
-1380,69	90,00
-1371,90	179,00
-1363,12	128,00
-1354,36	112,00
-1345,60	131,00
-1336,86	76,00
-1328,13	121,00
-1319,41	69,00
-1310,70	38,00
-1302,01	61,00
-1293,32	67,00
-1284,65	93,00
-1275,99	56,00
-1267,33	48,00
-1258,69	180,00
-1250,06	96,00
-1241,45	108,00
-1232,84	52,00
-1224,25	81,00
-1215,66	105,00
-1207,09	45,00
-1198,53	76,00
-1189,97	184,00
-1181,43	124,00
-1172,91	54,00
-1164,39	29,00
-1155,88	60,00
-1147,38	178,00
-1138,90	96,00
-1130,43	207,00
-1121,96	131,00
-1113,51	136,00
-1105,07	269,00
-1096,64	124,00
-1088,22	165,00
-1079,81	43,00
-1071,41	154,00
-1063,02	26,00
-1054,65	60,00
-1046,28	134,00
-1037,92	124,00
-1029,58	148,00
-1021,24	114,00
-1012,92	162,00
-1004,61	192,00
-996,30	102,00
-988,01	86,00
-979,73	120,00
-971,46	82,00
-963,20	156,00
-954,95	163,00
-946,71	63,00
-938,48	118,00
-930,26	251,00
-922,06	179,00
-913,86	119,00
-905,67	113,00
-897,49	126,00
-889,33	58,00
-881,17	133,00
-873,02	210,00
-864,89	184,00
-856,76	49,00
-848,65	-20,00
-840,54	192,00
-832,45	112,00
-824,36	143,00
-816,29	94,00
-808,22	94,00
-800,17	215,00
-792,12	91,00
-784,09	92,00
-776,06	-16,00
-768,05	88,00
-760,04	229,00
-752,05	137,00
-744,07	194,00
-736,09	56,00
-728,13	153,00
-720,17	133,00
-712,23	111,00
-704,29	91,00
-696,37	88,00
-688,45	124,00
-680,55	178,00
-672,65	52,00
-664,77	133,00
-656,89	162,00
-649,03	179,00
-641,17	38,00
-633,32	97,00
-625,49	77,00
-617,66	109,00
-609,84	90,00
-602,03	92,00
-594,23	110,00
-586,45	90,00
-578,67	101,00
-570,90	150,00
-563,14	182,00
-555,39	36,00
-547,65	-6,00
-539,91	140,00
-532,19	73,00
-524,48	-29,00
-516,78	57,00
-509,08	158,00
-501,40	184,00
-493,72	187,00
-486,06	52,00
-478,40	9,00
-470,76	128,00
-463,12	137,00
-455,49	97,00
-447,87	120,00
-440,26	204,00
-432,66	188,00
-425,07	109,00
-417,49	224,00
-409,92	79,00
-402,35	192,00
-394,80	126,00
-387,25	9,00
-379,72	32,00
-372,19	116,00
-364,67	159,00
-357,17	132,00
-349,67	182,00
-342,18	72,00
-334,69	125,00
-327,22	106,00
-319,76	152,00
-312,30	135,00
-304,86	247,00
-297,42	136,00
-290,00	196,00
-282,58	253,00
-275,17	229,00
-267,77	119,00
-260,37	113,00
-252,99	169,00
-245,62	166,00
-238,25	223,00
-230,90	203,00
-223,55	117,00
-216,21	161,00
-208,88	105,00
-201,56	248,00
-194,25	169,00
-186,94	227,00
-179,65	337,00
-172,36	272,00
-165,08	197,00
-157,81	213,00
-150,55	309,00
-143,30	350,00
-136,06	207,00
-128,82	393,00
-121,60	399,00
-114,38	446,00
-107,17	440,00
-99,97	535,00
-92,78	518,00
-85,60	736,00
-78,42	636,00
-71,25	866,00
-64,10	825,00
-56,95	1028,00
-49,81	1262,00
-42,67	1482,00
-35,55	1769,00
-28,43	2370,00
-21,33	4124,00
-14,23	13328,00
-7,14	56139,00
-0,05	55888,00
7,02	55558,00
14,09	42484,00
21,14	11160,00
28,19	4695,00
35,23	3049,00
42,27	2237,00
49,29	2061,00
56,31	1588,00
63,32	1306,00
70,32	1099,00
77,31	1011,00
84,29	881,00
91,27	970,00
98,23	792,00
105,19	799,00
112,14	842,00
119,09	1266,00
126,02	2124,00
132,95	2483,00
139,87	2734,00
146,78	2764,00
153,68	2737,00
160,58	2595,00
167,46	2568,00
174,34	2704,00
181,21	2637,00
188,08	2733,00
194,93	2716,00
201,78	2680,00
208,62	2696,00
215,45	2604,00
222,27	2627,00
229,09	2714,00
235,90	2698,00
242,70	2671,00
249,49	2609,00
256,27	2542,00
263,05	2676,00
269,82	2686,00
276,58	2694,00
283,33	2656,00
290,08	2623,00
296,82	2567,00
303,55	2581,00
310,27	2450,00
316,98	2602,00
323,69	2597,00
330,39	2570,00
337,08	2533,00
343,76	2614,00
350,44	2555,00
357,11	2536,00
363,77	2629,00
370,42	2546,00
377,07	2477,00
383,71	2653,00
390,34	2742,00
396,96	2572,00
403,58	2623,00
410,19	2782,00
416,79	2811,00
423,38	2689,00
429,97	2698,00
436,55	2737,00
443,12	2545,00
449,68	2599,00
456,24	2673,00
462,79	2723,00
469,33	2723,00
475,86	2604,00
482,39	2525,00
488,91	2710,00
495,42	2692,00
501,93	2629,00
508,42	2687,00
514,91	2625,00
521,40	2589,00
527,87	2586,00
534,34	2661,00
540,80	2583,00
547,25	2757,00
553,70	2718,00
560,14	2599,00
566,57	2736,00
573,00	2629,00
579,41	2675,00
585,83	2633,00
592,23	2561,00
598,62	2630,00
605,01	2754,00
611,40	2730,00
617,77	2722,00
624,14	2764,00
630,50	2674,00
636,85	2710,00
643,20	2674,00
649,54	2605,00
655,87	2648,00
662,20	2641,00
668,52	2597,00
674,83	2624,00
681,13	2526,00
687,43	2647,00
693,72	2707,00
700,00	2700,00
706,28	2762,00
712,55	2678,00
718,81	2620,00
725,07	2558,00
731,32	2654,00
737,56	2652,00
743,79	2753,00
750,02	2795,00
756,24	2711,00
762,46	2725,00
768,67	2746,00
774,87	2740,00
781,06	2725,00
787,25	2815,00
793,43	2808,00
799,60	2759,00
805,77	2636,00
811,93	2784,00
818,08	2789,00
824,23	2653,00
830,37	2804,00
836,50	2782,00
842,63	2832,00
848,75	2836,00
854,87	2749,00
860,97	2782,00
867,07	2714,00
873,17	2891,00
879,25	2848,00
885,33	2817,00
891,41	2693,00
897,47	2848,00
903,53	2753,00
909,59	3030,00
915,63	2840,00
921,67	2956,00
927,71	2846,00
933,74	2801,00
939,76	2827,00
945,77	2774,00
951,78	2675,00
957,78	2747,00
963,78	2766,00
969,77	2798,00
975,75	2765,00
981,72	2870,00
987,69	2819,00
993,66	3007,00
999,61	2802,00
1005,56	2833,00
1011,51	2848,00
1017,44	2884,00
1023,37	2937,00
1029,30	2959,00
1035,22	2833,00
1041,13	2980,00
1047,03	3042,00
1052,93	3094,00
1058,83	3422,00
1064,71	3538,00
1070,59	3297,00
1076,47	3185,00
1082,33	3109,00
1088,20	3117,00
1094,05	3103,00
1099,90	2998,00
1105,74	3134,00
1111,58	3047,00
1117,41	3135,00
1123,23	3441,00
1129,05	3634,00
1134,86	3583,00
1140,67	3291,00
1146,47	3341,00
1152,26	3042,00
1158,05	3044,00
1163,83	3175,00
1169,60	3115,00
1175,37	3106,00
1181,13	3069,00
1186,89	3035,00
1192,64	3067,00
1198,38	2909,00
1204,12	3035,00
1209,85	2980,00
1215,58	3130,00
1221,30	3079,00
1227,02	3201,00
1232,72	3266,00
1238,43	3107,00
1244,12	3201,00
1249,81	3132,00
1255,50	3155,00
1261,17	3132,00
1266,85	3241,00
1272,51	3150,00
1278,17	3196,00
1283,83	3348,00
1289,47	3663,00
1295,12	4172,00
1300,75	3815,00
1306,38	3608,00
1312,01	3355,00
1317,63	3144,00
1323,24	3234,00
1328,85	3291,00
1334,45	3307,00
1340,04	3149,00
1345,63	3125,00
1351,22	3228,00
1356,80	3414,00
1362,37	3155,00
1367,93	3256,00
1373,49	3307,00
1379,05	3260,00
1384,60	3405,00
1390,14	3203,00
1395,68	3295,00
1401,21	3178,00
1406,74	3380,00
1412,26	3588,00
1417,77	3609,00
1423,28	3671,00
1428,78	3529,00
1434,28	3913,00
1439,77	3997,00
1445,26	3983,00
1450,74	3931,00
1456,22	3813,00
1461,68	3866,00
1467,15	3689,00
1472,61	3508,00
1478,06	3408,00
1483,51	3202,00
1488,95	3275,00
1494,38	3227,00
1499,81	3098,00
1505,24	3174,00
1510,65	3001,00
1516,07	2967,00
1521,48	3022,00
1526,88	3096,00
1532,27	3105,00
1537,67	3138,00
1543,05	3071,00
1548,43	3019,00
1553,81	3039,00
1559,18	3085,00
1564,54	3037,00
1569,90	3078,00
1575,25	3068,00
1580,60	2989,00
1585,94	3118,00
1591,28	3042,00
1596,61	2897,00
1601,93	2976,00
1607,25	2976,00
1612,57	2919,00
1617,88	2907,00
1623,18	3000,00
1628,48	3020,00
1633,77	2930,00
1639,06	2907,00
1644,34	2884,00
1649,62	2990,00
1654,89	2881,00
1660,16	2837,00
1665,42	2985,00
1670,67	2997,00
1675,92	2841,00
1681,17	2887,00
1686,41	2828,00
1691,64	2891,00
1696,87	2829,00
1702,10	2783,00
1707,32	2863,00
1712,53	2807,00
1717,74	2757,00
1722,94	2887,00
1728,14	2704,00
1733,33	2918,00
1738,52	2714,00
1743,70	2857,00
1748,88	2778,00
1754,05	2643,00
1759,22	2730,00
1764,38	2662,00
1769,53	2656,00
1774,69	2661,00
1779,83	2692,00
1784,97	2844,00
1790,11	2629,00
1795,24	2674,00
1800,36	2615,00
1805,48	2583,00
1810,60	2714,00
1815,71	2616,00
1820,82	2711,00
1825,92	2723,00
1831,01	2695,00
1836,10	2597,00
1841,19	2678,00
1846,26	2639,00
1851,34	2660,00
1856,41	2581,00
1861,47	2650,00
1866,53	2658,00
1871,59	2490,00
1876,64	2607,00
1881,68	2654,00
1886,72	2589,00
1891,76	2546,00
1896,79	2504,00
1901,81	2592,00
1906,83	2450,00
1911,85	2540,00
1916,86	2506,00
1921,86	2429,00
1926,86	2463,00
1931,86	2333,00
1936,85	2359,00
1941,83	2413,00
1946,81	2297,00
1951,79	2401,00
1956,76	2415,00
1961,72	2394,00
1966,68	2431,00
1971,64	2225,00
1976,59	2320,00
1981,54	2380,00
1986,48	2375,00
1991,42	2335,00
1996,35	2153,00
2001,27	2321,00
2006,20	2333,00
2011,11	2312,00
2016,03	2267,00
2020,93	2282,00
2025,84	2327,00
2030,73	2208,00
2035,63	2251,00
2040,52	2308,00
2045,40	2169,00
2050,28	2332,00
2055,15	2159,00
2060,02	2257,00
2064,89	2179,00
2069,75	2222,00
2074,60	2250,00
2079,46	2218,00
2084,30	2357,00
2089,14	2210,00
2093,98	2172,00
2098,81	2132,00
2103,64	2280,00
2108,46	2297,00
2113,28	2123,00
2118,09	2129,00
2122,90	2083,00
2127,70	2100,00
2132,50	2274,00
2137,30	2185,00
2142,09	2149,00
2146,87	2186,00
2151,66	2118,00
2156,43	2219,00
2161,20	2192,00
2165,97	2168,00
2170,73	2059,00
2175,49	2085,00
2180,24	1977,00
2184,99	2040,00
2189,74	2044,00
2194,48	1989,00
2199,21	2115,00
2203,94	1992,00
2208,67	2051,00
2213,39	1917,00
2218,11	1920,00
2222,82	2040,00
2227,53	2019,00
2232,23	2072,00
2236,93	2106,00
2241,63	2026,00
2246,32	1942,00
2251,00	2036,00
2255,68	1927,00
2260,36	1926,00
2265,03	1892,00
2269,70	2048,00
2274,36	2008,00
2279,02	1925,00
2283,68	1919,00
2288,33	1858,00
2292,97	1810,00
2297,61	1801,00
2302,25	1973,00
2306,88	1813,00
2311,51	1905,00
2316,14	1836,00
2320,75	1902,00
2325,37	1883,00
2329,98	2037,00
2334,59	1834,00
2339,19	1737,00
2343,79	1869,00
2348,38	1765,00
2352,97	1814,00
2357,55	1765,00
2362,13	1800,00
2366,71	1691,00
2371,28	1852,00
2375,85	1788,00
2380,41	1798,00
2384,97	1688,00
2389,52	1654,00
2394,07	1743,00
2398,62	1696,00
2403,16	1611,00
2407,70	1645,00
2412,23	1609,00
2416,76	1682,00
2421,29	1602,00
2425,81	1626,00
2430,32	1789,00
2434,84	1494,00
2439,34	1635,00
2443,85	1582,00
2448,35	1564,00
2452,84	1545,00
2457,33	1509,00
2461,82	1447,00
2466,30	1491,00
2470,78	1538,00
2475,25	1477,00
2479,72	1564,00
2484,19	1488,00
2488,65	1482,00
2493,11	1506,00
2497,56	1335,00
2502,01	1451,00
2506,46	1500,00
2510,90	1556,00
2515,34	1611,00
2519,77	1414,00
2524,20	1345,00
2528,62	1428,00
2533,04	1396,00
2537,46	1477,00
2541,87	1407,00
2546,28	1379,00
2550,68	1467,00
2555,08	1419,00
2559,48	1462,00
2563,87	1411,00
2568,26	1234,00
2572,64	1399,00
2577,02	1369,00
2581,40	1341,00
2585,77	1271,00
2590,14	1217,00
2594,50	1316,00
2598,86	1292,00
2603,22	1250,00
2607,57	1247,00
2611,92	1149,00
2616,26	1171,00
2620,60	1259,00
2624,94	1295,00
2629,27	1305,00
2633,60	1135,00
2637,92	1280,00
2642,24	1264,00
2646,56	1202,00
2650,87	1197,00
2655,18	1180,00
2659,48	1168,00
2663,78	1214,00
2668,08	1214,00
2672,37	1135,00
2676,66	1178,00
2680,95	1200,00
2685,23	1170,00
2689,50	1092,00
2693,78	1175,00
2698,05	1238,00
2702,31	1177,00
2706,57	1184,00
2710,83	1151,00
2715,08	1131,00
2719,33	1211,00
2723,58	1232,00
2727,82	1346,00
2732,06	1203,00
2736,29	1144,00
2740,53	1211,00
2744,75	1144,00
2748,97	1238,00
2753,19	1163,00
2757,41	1107,00
2761,62	1079,00
2765,83	1132,00
2770,03	1124,00
2774,23	1153,00
2778,43	1104,00
2782,62	1083,00
2786,81	1224,00
2791,00	1032,00
2795,18	1012,00
2799,35	1217,00
2803,53	1016,00
2807,70	1147,00
2811,86	1187,00
2816,03	1185,00
2820,19	1279,00
2824,34	1194,00
2828,49	1221,00
2832,64	1419,00
2836,78	1490,00
2840,92	1650,00
2845,06	1820,00
2849,19	2036,00
2853,32	2023,00
2857,45	2054,00
2861,57	1889,00
2865,69	1929,00
2869,80	1960,00
2873,91	1934,00
2878,02	2013,00
2882,12	2105,00
2886,22	2089,00
2890,32	1983,00
2894,41	1902,00
2898,50	1823,00
2902,58	1634,00
2906,67	1611,00
2910,74	1490,00
2914,82	1503,00
2918,89	1459,00
2922,96	1337,00
2927,02	1264,00
2931,08	1220,00
2935,13	1263,00
2939,19	1124,00
2943,24	1196,00
2947,28	1118,00
2951,32	1023,00
2955,36	923,00
2959,40	989,00
2963,43	1077,00
2967,46	884,00
2971,48	912,00
2975,50	833,00
2979,52	825,00
2983,53	770,00
2987,54	709,00
2991,55	678,00
2995,55	856,00
2999,55	715,00
3003,54	765,00
3007,54	679,00
3011,53	717,00
3015,51	709,00
3019,49	723,00
3023,47	694,00
3027,45	714,00
3031,42	759,00
3035,39	616,00
3039,35	558,00
3043,31	585,00
3047,27	590,00
3051,22	612,00
3055,17	470,00
3059,12	655,00
3063,06	602,00
3067,00	664,00
3070,94	539,00
3074,87	673,00
3078,80	584,00
3082,73	457,00
3086,65	582,00
3090,57	593,00
3094,49	491,00
3098,40	576,00
3102,31	536,00
3106,22	567,00
3110,12	499,00
3114,02	546,00
3117,92	438,00
3121,81	522,00
3125,70	452,00
3129,58	465,00
3133,47	445,00
3137,34	448,00
3141,22	447,00
3145,09	467,00
3148,96	408,00
3152,83	475,00
3156,69	437,00
3160,55	473,00
3164,40	499,00
3168,26	405,00
3172,10	446,00
3175,95	456,00
3179,79	471,00
3183,63	460,00
3187,47	490,00
3191,30	446,00
3195,13	475,00
3198,95	424,00
3202,78	426,00
3206,60	397,00
3210,41	325,00
3214,23	401,00
3218,03	298,00
3221,84	496,00
3225,64	409,00
3229,44	379,00
3233,24	463,00
3237,03	387,00
3240,82	271,00
3244,61	382,00
3248,39	360,00
3252,17	416,00
3255,95	374,00
3259,72	404,00
3263,49	410,00
3267,26	290,00
3271,03	309,00
3274,79	343,00
3278,54	407,00
3282,30	380,00
3286,05	347,00
3289,80	331,00
3293,54	337,00
3297,29	257,00
3301,02	297,00
3304,76	359,00
3308,49	410,00
3312,22	318,00
3315,95	285,00
3319,67	271,00
3323,39	319,00
3327,10	306,00
3330,82	305,00
3334,53	315,00
3338,24	372,00
3341,94	294,00
3345,64	291,00
3349,34	304,00
3353,03	253,00
3356,72	225,00
3360,41	326,00
3364,10	293,00
3367,78	254,00
3371,46	311,00
3375,13	214,00
3378,81	332,00
3382,48	402,00
3386,14	237,00
3389,81	321,00
3393,47	313,00
3397,12	311,00
3400,78	199,00
3404,43	232,00
3408,08	250,00
3411,72	204,00
3415,36	321,00
3419,00	273,00
3422,64	115,00
3426,27	335,00
3429,90	248,00
3433,53	157,00
3437,15	270,00
3440,77	267,00
3444,39	216,00
3448,00	182,00
3451,62	288,00
3455,22	200,00
3458,83	171,00
3462,43	254,00
3466,03	229,00
3469,63	250,00
3473,22	217,00
3476,81	258,00
3480,40	278,00
3483,99	253,00
3487,57	246,00
3491,15	184,00
3494,72	276,00
3498,29	291,00
3501,86	153,00
3505,43	180,00
3508,99	194,00
3512,56	208,00
3516,11	238,00
3519,67	176,00
3523,22	159,00
3526,77	200,00
3530,32	180,00
3533,86	172,00
3537,40	207,00
3540,94	227,00
3544,47	173,00
3548,00	229,00
3551,53	127,00
3555,06	169,00
3558,58	170,00
3562,10	66,00
3565,62	226,00
3569,13	95,00
3572,64	192,00
3576,15	205,00
3579,66	169,00
3583,16	84,00
3586,66	239,00
3590,16	220,00
3593,65	132,00
3597,14	144,00
3600,63	251,00
3604,11	201,00
3607,60	159,00
3611,08	89,00
3614,55	27,00
3618,03	215,00
3621,50	184,00
3624,97	98,00
3628,43	20,00
3631,90	203,00
3635,36	159,00
3638,81	138,00
3642,27	106,00
3645,72	210,00
3649,17	135,00
3652,61	114,00
3656,06	111,00
3659,50	137,00
3662,93	217,00
3666,37	234,00
3669,80	114,00
3673,23	145,00
3676,65	276,00
3680,08	157,00
3683,50	90,00
3686,92	182,00
3690,33	26,00
3693,74	188,00
3697,15	156,00
3700,56	81,00
3703,96	73,00
3707,36	205,00
3710,76	164,00
3714,16	102,00
3717,55	197,00
3720,94	83,00
3724,33	129,00
3727,71	173,00
3731,10	33,00
3734,48	119,00
3737,85	85,00
3741,23	212,00
3744,60	84,00
3747,97	59,00
3751,33	115,00
3754,69	113,00
3758,05	138,00
3761,41	93,00
3764,77	109,00
3768,12	214,00
3771,47	43,00
3774,82	198,00
3778,16	1,00
3781,50	3,00
3784,84	4,00
3788,18	-3,00
>>>>>End Processed Spectral Data<<<<<
