SpectraSuite Data File
++++++++++++++++++++++++++++++++++++
Date: Mon Mar 09 14:40:56 ICT 2026
User: Administrator
Dark Spectrum Present: Yes
Reference Spectrum Present: No
Number of Sampled Component Spectra: 1
Spectrometers: MAYP113682
Integration Time (usec): 3000000 (MAYP113682)
Spectra Averaged: 1 (MAYP113682)
Boxcar Smoothing: 0 (MAYP113682)
Correct for Electrical Dark: No (MAYP113682)
Strobe/Lamp Enabled: No (MAYP113682)
Correct for Detector Non-linearity: No (MAYP113682)
Correct for Stray Light: No (MAYP113682)
Number of Pixels in Processed Spectrum: 2068
>>>>>Begin Processed Spectral Data<<<<<
-37534,58	15,00
-37414,56	4,00
-37295,11	-2,00
-37176,24	8,00
-37057,95	330,00
-36940,22	299,00
-36823,05	400,00
-36706,45	428,00
-36590,40	304,00
-36474,90	451,00
-36359,95	368,00
-36245,55	365,00
-36131,68	486,00
-36018,35	399,00
-35905,55	369,00
-35793,29	364,00
-35681,54	458,00
-35570,32	308,00
-35459,62	355,00
-35349,43	416,00
-35239,75	365,00
-35130,58	315,00
-35021,91	388,00
-34913,74	463,00
-34806,07	365,00
-34698,89	460,00
-34592,20	394,00
-34486,00	464,00
-34380,28	345,00
-34275,04	365,00
-34170,27	389,00
-34065,98	394,00
-33962,16	307,00
-33858,81	395,00
-33755,92	409,00
-33653,49	490,00
-33551,52	445,00
-33450,01	370,00
-33348,94	304,00
-33248,33	404,00
-33148,16	393,00
-33048,43	444,00
-32949,14	485,00
-32850,29	465,00
-32751,87	390,00
-32653,89	465,00
-32556,33	464,00
-32459,20	409,00
-32362,49	388,00
-32266,19	397,00
-32170,32	444,00
-32074,86	375,00
-31979,82	505,00
-31885,18	548,00
-31790,95	482,00
-31697,12	380,00
-31603,69	495,00
-31510,67	442,00
-31418,04	431,00
-31325,80	408,00
-31233,95	420,00
-31142,49	343,00
-31051,42	573,00
-30960,73	487,00
-30870,43	373,00
-30780,50	512,00
-30690,95	413,00
-30601,77	537,00
-30512,97	386,00
-30424,53	477,00
-30336,46	410,00
-30248,76	524,00
-30161,42	446,00
-30074,44	418,00
-29987,81	414,00
-29901,55	507,00
-29815,63	374,00
-29730,07	408,00
-29644,86	446,00
-29560,00	483,00
-29475,48	399,00
-29391,30	398,00
-29307,47	346,00
-29223,97	428,00
-29140,81	374,00
-29057,99	511,00
-28975,50	426,00
-28893,34	607,00
-28811,51	400,00
-28730,00	383,00
-28648,82	416,00
-28567,97	446,00
-28487,43	498,00
-28407,21	416,00
-28327,32	419,00
-28247,73	471,00
-28168,46	439,00
-28089,50	479,00
-28010,85	369,00
-27932,51	366,00
-27854,48	417,00
-27776,75	350,00
-27699,32	437,00
-27622,19	472,00
-27545,37	432,00
-27468,84	452,00
-27392,60	462,00
-27316,66	391,00
-27241,01	375,00
-27165,66	390,00
-27090,59	389,00
-27015,81	368,00
-26941,31	492,00
-26867,10	501,00
-26793,17	462,00
-26719,52	406,00
-26646,15	415,00
-26573,06	502,00
-26500,24	436,00
-26427,70	438,00
-26355,43	501,00
-26283,43	417,00
-26211,71	502,00
-26140,25	443,00
-26069,06	505,00
-25998,13	231,00
-25927,46	408,00
-25857,06	462,00
-25786,92	404,00
-25717,04	488,00
-25647,42	323,00
-25578,05	479,00
-25508,94	373,00
-25440,09	427,00
-25371,48	378,00
-25303,13	325,00
-25235,02	378,00
-25167,17	579,00
-25099,56	518,00
-25032,19	410,00
-24965,07	419,00
-24898,20	438,00
-24831,56	465,00
-24765,17	380,00
-24699,01	349,00
-24633,10	368,00
-24567,41	405,00
-24501,97	459,00
-24436,75	406,00
-24371,77	403,00
-24307,03	395,00
-24242,51	298,00
-24178,22	470,00
-24114,16	347,00
-24050,32	425,00
-23986,71	426,00
-23923,32	397,00
-23860,16	323,00
-23797,22	478,00
-23734,50	432,00
-23672,00	430,00
-23609,71	343,00
-23547,65	237,00
-23485,80	433,00
-23424,16	316,00
-23362,74	512,00
-23301,53	356,00
-23240,54	371,00
-23179,75	423,00
-23119,17	328,00
-23058,80	417,00
-22998,64	465,00
-22938,68	416,00
-22878,93	438,00
-22819,39	517,00
-22760,04	431,00
-22700,90	410,00
-22641,96	410,00
-22583,22	413,00
-22524,68	472,00
-22466,33	352,00
-22408,19	435,00
-22350,23	370,00
-22292,48	464,00
-22234,92	393,00
-22177,55	466,00
-22120,37	506,00
-22063,38	428,00
-22006,58	401,00
-21949,98	390,00
-21893,56	290,00
-21837,33	326,00
-21781,28	390,00
-21725,42	304,00
-21669,74	453,00
-21614,25	445,00
-21558,94	320,00
-21503,81	359,00
-21448,86	445,00
-21394,10	350,00
-21339,51	389,00
-21285,10	283,00
-21230,86	392,00
-21176,81	381,00
-21122,93	380,00
-21069,22	454,00
-21015,69	421,00
-20962,33	402,00
-20909,14	467,00
-20856,13	325,00
-20803,28	358,00
-20750,61	434,00
-20698,10	428,00
-20645,76	435,00
-20593,59	517,00
-20541,59	417,00
-20489,75	536,00
-20438,07	402,00
-20386,56	474,00
-20335,22	436,00
-20284,03	339,00
-20233,01	392,00
-20182,15	355,00
-20131,45	388,00
-20080,91	336,00
-20030,52	398,00
-19980,30	317,00
-19930,23	444,00
-19880,32	467,00
-19830,56	504,00
-19780,96	329,00
-19731,52	451,00
-19682,23	434,00
-19633,09	444,00
-19584,10	327,00
-19535,26	407,00
-19486,58	466,00
-19438,04	370,00
-19389,66	318,00
-19341,42	347,00
-19293,33	379,00
-19245,39	418,00
-19197,60	436,00
-19149,95	388,00
-19102,45	438,00
-19055,09	386,00
-19007,87	432,00
-18960,80	401,00
-18913,87	448,00
-18867,09	446,00
-18820,44	427,00
-18773,94	428,00
-18727,57	354,00
-18681,35	388,00
-18635,26	464,00
-18589,31	323,00
-18543,50	338,00
-18497,83	422,00
-18452,29	410,00
-18406,89	451,00
-18361,63	475,00
-18316,50	401,00
-18271,50	381,00
-18226,63	323,00
-18181,90	412,00
-18137,30	387,00
-18092,84	394,00
-18048,50	425,00
-18004,29	324,00
-17960,22	456,00
-17916,27	423,00
-17872,45	464,00
-17828,76	374,00
-17785,20	522,00
-17741,77	470,00
-17698,46	448,00
-17655,28	365,00
-17612,22	381,00
-17569,29	367,00
-17526,48	419,00
-17483,79	296,00
-17441,23	443,00
-17398,79	375,00
-17356,48	478,00
-17314,28	556,00
-17272,21	386,00
-17230,26	346,00
-17188,42	438,00
-17146,71	361,00
-17105,12	444,00
-17063,64	513,00
-17022,28	396,00
-16981,04	429,00
-16939,92	392,00
-16898,91	467,00
-16858,02	449,00
-16817,25	321,00
-16776,59	278,00
-16736,04	484,00
-16695,61	270,00
-16655,29	321,00
-16615,09	470,00
-16574,99	424,00
-16535,01	325,00
-16495,15	451,00
-16455,39	435,00
-16415,74	479,00
-16376,21	310,00
-16336,78	400,00
-16297,46	438,00
-16258,26	479,00
-16219,16	439,00
-16180,17	351,00
-16141,28	504,00
-16102,51	447,00
-16063,84	352,00
-16025,27	475,00
-15986,82	315,00
-15948,46	363,00
-15910,22	426,00
-15872,07	457,00
-15834,04	408,00
-15796,10	454,00
-15758,27	475,00
-15720,54	435,00
-15682,91	352,00
-15645,39	403,00
-15607,97	427,00
-15570,64	344,00
-15533,42	424,00
-15496,30	391,00
-15459,28	382,00
-15422,36	421,00
-15385,54	416,00
-15348,82	336,00
-15312,19	517,00
-15275,66	431,00
-15239,23	383,00
-15202,90	373,00
-15166,67	382,00
-15130,53	402,00
-15094,48	459,00
-15058,54	430,00
-15022,68	364,00
-14986,93	356,00
-14951,26	375,00
-14915,69	259,00
-14880,22	305,00
-14844,84	414,00
-14809,55	372,00
-14774,35	405,00
-14739,25	471,00
-14704,24	395,00
-14669,32	379,00
-14634,49	404,00
-14599,75	401,00
-14565,10	329,00
-14530,55	472,00
-14496,08	459,00
-14461,70	393,00
-14427,41	386,00
-14393,21	379,00
-14359,10	439,00
-14325,07	441,00
-14291,14	421,00
-14257,29	403,00
-14223,52	390,00
-14189,85	439,00
-14156,26	416,00
-14122,76	429,00
-14089,34	359,00
-14056,01	414,00
-14022,76	498,00
-13989,60	396,00
-13956,52	408,00
-13923,53	423,00
-13890,62	467,00
-13857,79	366,00
-13825,05	353,00
-13792,39	343,00
-13759,81	418,00
-13727,31	382,00
-13694,90	425,00
-13662,57	401,00
-13630,31	468,00
-13598,14	432,00
-13566,05	348,00
-13534,05	495,00
-13502,12	357,00
-13470,27	372,00
-13438,50	498,00
-13406,80	414,00
-13375,19	366,00
-13343,66	387,00
-13312,20	403,00
-13280,83	347,00
-13249,53	435,00
-13218,30	346,00
-13187,16	321,00
-13156,09	485,00
-13125,10	377,00
-13094,18	492,00
-13063,34	461,00
-13032,58	367,00
-13001,89	468,00
-12971,28	443,00
-12940,74	358,00
-12910,27	419,00
-12879,88	346,00
-12849,57	444,00
-12819,33	329,00
-12789,16	395,00
-12759,06	325,00
-12729,04	446,00
-12699,09	910,00
-12669,21	398,00
-12639,41	378,00
-12609,68	371,00
-12580,02	385,00
-12550,43	436,00
-12520,91	324,00
-12491,46	402,00
-12462,08	391,00
-12432,77	409,00
-12403,54	468,00
-12374,37	417,00
-12345,27	411,00
-12316,24	418,00
-12287,29	470,00
-12258,40	410,00
-12229,57	468,00
-12200,82	501,00
-12172,14	288,00
-12143,52	405,00
-12114,97	304,00
-12086,49	424,00
-12058,07	347,00
-12029,73	412,00
-12001,44	412,00
-11973,23	433,00
-11945,08	481,00
-11917,00	409,00
-11888,98	422,00
-11861,03	435,00
-11833,15	391,00
-11805,32	402,00
-11777,57	406,00
-11749,88	347,00
-11722,25	347,00
-11694,69	427,00
-11667,19	402,00
-11639,75	321,00
-11612,38	425,00
-11585,07	359,00
-11557,83	520,00
-11530,65	443,00
-11503,53	449,00
-11476,47	464,00
-11449,48	360,00
-11422,54	393,00
-11395,67	326,00
-11368,86	424,00
-11342,11	371,00
-11315,43	385,00
-11288,80	307,00
-11262,23	470,00
-11235,73	382,00
-11209,28	389,00
-11182,90	414,00
-11156,57	460,00
-11130,31	393,00
-11104,10	446,00
-11077,96	543,00
-11051,87	434,00
-11025,84	342,00
-10999,87	362,00
-10973,96	455,00
-10948,11	392,00
-10922,31	313,00
-10896,58	383,00
-10870,90	417,00
-10845,28	454,00
-10819,71	344,00
-10794,20	421,00
-10768,75	417,00
-10743,36	371,00
-10718,02	412,00
-10692,74	468,00
-10667,52	356,00
-10642,35	429,00
-10617,24	495,00
-10592,18	457,00
-10567,18	313,00
-10542,23	404,00
-10517,34	415,00
-10492,51	414,00
-10467,72	464,00
-10443,00	378,00
-10418,32	408,00
-10393,70	405,00
-10369,14	340,00
-10344,63	421,00
-10320,17	419,00
-10295,77	454,00
-10271,42	390,00
-10247,12	490,00
-10222,88	506,00
-10198,68	354,00
-10174,54	349,00
-10150,46	431,00
-10126,42	496,00
-10102,44	501,00
-10078,51	457,00
-10054,63	451,00
-10030,80	376,00
-10007,03	476,00
-9983,30	420,00
-9959,63	375,00
-9936,01	339,00
-9912,44	418,00
-9888,92	384,00
-9865,44	375,00
-9842,02	451,00
-9818,65	406,00
-9795,33	496,00
-9772,06	424,00
-9748,84	384,00
-9725,67	387,00
-9702,55	372,00
-9679,47	434,00
-9656,45	365,00
-9633,47	405,00
-9610,55	463,00
-9587,67	415,00
-9564,84	447,00
-9542,06	445,00
-9519,32	519,00
-9496,64	466,00
-9474,00	352,00
-9451,41	439,00
-9428,87	557,00
-9406,37	468,00
-9383,92	442,00
-9361,52	365,00
-9339,17	425,00
-9316,86	361,00
-9294,60	290,00
-9272,38	493,00
-9250,21	467,00
-9228,09	491,00
-9206,01	430,00
-9183,98	439,00
-9162,00	377,00
-9140,06	372,00
-9118,16	374,00
-9096,31	485,00
-9074,51	475,00
-9052,75	546,00
-9031,04	472,00
-9009,37	424,00
-8987,74	367,00
-8966,16	387,00
-8944,63	400,00
-8923,14	347,00
-8901,69	277,00
-8880,29	413,00
-8858,93	421,00
-8837,61	516,00
-8816,34	446,00
-8795,11	399,00
-8773,92	579,00
-8752,78	461,00
-8731,68	488,00
-8710,62	304,00
-8689,61	348,00
-8668,63	389,00
-8647,70	592,00
-8626,82	429,00
-8605,97	408,00
-8585,17	535,00
-8564,41	249,00
-8543,69	403,00
-8523,01	403,00
-8502,37	521,00
-8481,78	407,00
-8461,23	271,00
-8440,71	404,00
-8420,24	367,00
-8399,81	477,00
-8379,42	504,00
-8359,08	436,00
-8338,77	417,00
-8318,50	413,00
-8298,27	453,00
-8278,09	449,00
-8257,94	458,00
-8237,83	455,00
-8217,76	428,00
-8197,74	455,00
-8177,75	469,00
-8157,80	434,00
-8137,89	485,00
-8118,02	522,00
-8098,19	567,00
-8078,40	467,00
-8058,65	443,00
-8038,93	514,00
-8019,26	652,00
-7999,62	534,00
-7980,02	510,00
-7960,46	449,00
-7940,94	408,00
-7921,46	473,00
-7902,01	335,00
-7882,60	428,00
-7863,23	431,00
-7843,90	529,00
-7824,61	419,00
-7805,35	485,00
-7786,13	448,00
-7766,95	457,00
-7747,80	506,00
-7728,69	463,00
-7709,62	433,00
-7690,59	518,00
-7671,59	480,00
-7652,63	431,00
-7633,70	411,00
-7614,81	497,00
-7595,96	468,00
-7577,15	464,00
-7558,37	457,00
-7539,62	367,00
-7520,91	525,00
-7502,24	590,00
-7483,60	544,00
-7465,00	482,00
-7446,44	465,00
-7427,91	487,00
-7409,41	431,00
-7390,95	401,00
-7372,53	279,00
-7354,14	478,00
-7335,78	406,00
-7317,46	384,00
-7299,18	447,00
-7280,92	478,00
-7262,71	589,00
-7244,52	478,00
-7226,38	501,00
-7208,26	513,00
-7190,18	475,00
-7172,14	485,00
-7154,12	479,00
-7136,15	456,00
-7118,20	460,00
-7100,29	462,00
-7082,41	504,00
-7064,57	444,00
-7046,76	434,00
-7028,98	396,00
-7011,24	575,00
-6993,53	312,00
-6975,85	449,00
-6958,20	329,00
-6940,59	385,00
-6923,01	368,00
-6905,46	490,00
-6887,94	490,00
-6870,46	609,00
-6853,01	505,00
-6835,59	414,00
-6818,21	466,00
-6800,85	482,00
-6783,53	466,00
-6766,24	331,00
-6748,98	399,00
-6731,76	379,00
-6714,56	301,00
-6697,40	385,00
-6680,26	259,00
-6663,16	416,00
-6646,09	416,00
-6629,05	337,00
-6612,05	439,00
-6595,07	425,00
-6578,13	408,00
-6561,21	315,00
-6544,33	340,00
-6527,47	416,00
-6510,65	444,00
-6493,86	385,00
-6477,10	338,00
-6460,36	348,00
-6443,66	275,00
-6426,99	297,00
-6410,35	181,00
-6393,74	381,00
-6377,16	326,00
-6360,61	315,00
-6344,09	336,00
-6327,59	352,00
-6311,13	266,00
-6294,70	425,00
-6278,29	486,00
-6261,92	407,00
-6245,58	385,00
-6229,26	463,00
-6212,97	354,00
-6196,72	369,00
-6180,49	364,00
-6164,29	351,00
-6148,12	432,00
-6131,98	342,00
-6115,86	451,00
-6099,78	375,00
-6083,72	341,00
-6067,69	378,00
-6051,69	345,00
-6035,72	397,00
-6019,78	377,00
-6003,87	452,00
-5987,98	329,00
-5972,12	342,00
-5956,29	436,00
-5940,49	373,00
-5924,71	415,00
-5908,96	387,00
-5893,24	361,00
-5877,55	364,00
-5861,89	378,00
-5846,25	364,00
-5830,64	422,00
-5815,05	301,00
-5799,50	379,00
-5783,97	381,00
-5768,47	398,00
-5752,99	425,00
-5737,55	346,00
-5722,12	370,00
-5706,73	315,00
-5691,36	344,00
-5676,02	255,00
-5660,71	385,00
-5645,42	347,00
-5630,16	406,00
-5614,92	415,00
-5599,71	280,00
-5584,53	386,00
-5569,37	315,00
-5554,24	1155,00
-5539,14	381,00
-5524,06	376,00
-5509,01	341,00
-5493,98	367,00
-5478,98	458,00
-5464,00	330,00
-5449,05	284,00
-5434,13	402,00
-5419,23	405,00
-5404,36	288,00
-5389,51	429,00
-5374,69	350,00
-5359,89	360,00
-5345,12	416,00
-5330,37	463,00
-5315,65	486,00
-5300,95	453,00
-5286,28	310,00
-5271,63	317,00
-5257,01	345,00
-5242,41	432,00
-5227,84	350,00
-5213,29	400,00
-5198,76	446,00
-5184,26	297,00
-5169,79	391,00
-5155,33	454,00
-5140,91	394,00
-5126,51	388,00
-5112,13	462,00
-5097,77	431,00
-5083,44	429,00
-5069,13	363,00
-5054,85	406,00
-5040,59	314,00
-5026,36	441,00
-5012,15	447,00
-4997,96	436,00
-4983,80	394,00
-4969,66	403,00
-4955,54	441,00
-4941,44	397,00
-4927,37	458,00
-4913,33	422,00
-4899,30	288,00
-4885,30	363,00
-4871,33	440,00
-4857,37	424,00
-4843,44	405,00
-4829,53	479,00
-4815,65	424,00
-4801,79	295,00
-4787,95	301,00
-4774,13	330,00
-4760,34	289,00
-4746,56	448,00
-4732,82	331,00
-4719,09	342,00
-4705,38	368,00
-4691,70	556,00
-4678,04	388,00
-4664,41	375,00
-4650,79	508,00
-4637,20	468,00
-4623,63	398,00
-4610,08	374,00
-4596,56	400,00
-4583,05	407,00
-4569,57	343,00
-4556,11	453,00
-4542,67	368,00
-4529,25	379,00
-4515,86	531,00
-4502,49	399,00
-4489,13	418,00
-4475,80	440,00
-4462,49	372,00
-4449,21	552,00
-4435,94	345,00
-4422,70	474,00
-4409,47	358,00
-4396,27	371,00
-4383,09	340,00
-4369,93	355,00
-4356,79	387,00
-4343,67	421,00
-4330,58	410,00
-4317,50	294,00
-4304,45	379,00
-4291,41	395,00
-4278,40	318,00
-4265,41	393,00
-4252,44	360,00
-4239,49	342,00
-4226,55	375,00
-4213,65	486,00
-4200,76	512,00
-4187,89	362,00
-4175,04	416,00
-4162,21	490,00
-4149,40	339,00
-4136,61	410,00
-4123,85	365,00
-4111,10	404,00
-4098,37	449,00
-4085,66	443,00
-4072,98	522,00
-4060,31	419,00
-4047,66	427,00
-4035,04	526,00
-4022,43	363,00
-4009,84	476,00
-3997,27	379,00
-3984,72	441,00
-3972,19	429,00
-3959,69	362,00
-3947,20	428,00
-3934,73	473,00
-3922,27	411,00
-3909,84	384,00
-3897,43	397,00
-3885,04	381,00
-3872,67	454,00
-3860,31	408,00
-3847,98	418,00
-3835,66	403,00
-3823,36	534,00
-3811,09	419,00
-3798,83	425,00
-3786,59	369,00
-3774,37	440,00
-3762,17	375,00
-3749,98	434,00
-3737,82	365,00
-3725,67	505,00
-3713,55	347,00
-3701,44	443,00
-3689,35	443,00
-3677,28	438,00
-3665,22	380,00
-3653,19	333,00
-3641,17	405,00
-3629,18	383,00
-3617,20	394,00
-3605,24	415,00
-3593,30	383,00
-3581,37	380,00
-3569,47	434,00
-3557,58	460,00
-3545,71	312,00
-3533,86	465,00
-3522,02	468,00
-3510,21	403,00
-3498,41	405,00
-3486,63	389,00
-3474,87	507,00
-3463,12	386,00
-3451,40	361,00
-3439,69	483,00
-3428,00	392,00
-3416,33	448,00
-3404,67	374,00
-3393,03	427,00
-3381,41	445,00
-3369,81	353,00
-3358,22	372,00
-3346,66	394,00
-3335,10	405,00
-3323,57	351,00
-3312,06	427,00
-3300,56	359,00
-3289,08	374,00
-3277,61	424,00
-3266,16	444,00
-3254,73	397,00
-3243,32	468,00
-3231,92	474,00
-3220,55	433,00
-3209,18	384,00
-3197,84	404,00
-3186,51	318,00
-3175,20	460,00
-3163,90	342,00
-3152,63	430,00
-3141,36	430,00
-3130,12	382,00
-3118,89	471,00
-3107,68	419,00
-3096,49	404,00
-3085,31	396,00
-3074,15	433,00
-3063,00	421,00
-3051,87	432,00
-3040,76	451,00
-3029,67	339,00
-3018,59	491,00
-3007,52	470,00
-2996,48	458,00
-2985,44	348,00
-2974,43	394,00
-2963,43	404,00
-2952,45	355,00
-2941,48	440,00
-2930,53	455,00
-2919,60	408,00
-2908,68	427,00
-2897,78	424,00
-2886,89	533,00
-2876,02	362,00
-2865,17	380,00
-2854,33	368,00
-2843,50	354,00
-2832,70	303,00
-2821,90	451,00
-2811,13	389,00
-2800,37	525,00
-2789,62	423,00
-2778,89	422,00
-2768,18	387,00
-2757,48	497,00
-2746,80	496,00
-2736,13	437,00
-2725,48	406,00
-2714,84	442,00
-2704,22	369,00
-2693,61	412,00
-2683,02	452,00
-2672,45	404,00
-2661,89	476,00
-2651,34	343,00
-2640,81	460,00
-2630,30	446,00
-2619,80	483,00
-2609,31	425,00
-2598,84	318,00
-2588,39	411,00
-2577,95	375,00
-2567,52	354,00
-2557,11	473,00
-2546,71	377,00
-2536,33	431,00
-2525,97	429,00
-2515,62	317,00
-2505,28	425,00
-2494,96	400,00
-2484,65	413,00
-2474,36	542,00
-2464,08	397,00
-2453,82	478,00
-2443,57	456,00
-2433,33	362,00
-2423,11	349,00
-2412,91	326,00
-2402,72	410,00
-2392,54	435,00
-2382,38	448,00
-2372,23	545,00
-2362,09	4402,00
-2351,97	403,00
-2341,87	435,00
-2331,78	430,00
-2321,70	399,00
-2311,64	515,00
-2301,59	380,00
-2291,55	418,00
-2281,53	464,00
-2271,53	322,00
-2261,53	507,00
-2251,55	342,00
-2241,59	399,00
-2231,64	448,00
-2221,70	349,00
-2211,78	468,00
-2201,87	437,00
-2191,97	410,00
-2182,09	393,00
-2172,22	381,00
-2162,37	388,00
-2152,53	396,00
-2142,70	262,00
-2132,89	314,00
-2123,09	439,00
-2113,30	468,00
-2103,53	396,00
-2093,77	376,00
-2084,02	400,00
-2074,29	457,00
-2064,57	422,00
-2054,86	397,00
-2045,17	420,00
-2035,49	513,00
-2025,82	379,00
-2016,17	398,00
-2006,53	360,00
-1996,91	400,00
-1987,29	296,00
-1977,69	430,00
-1968,11	457,00
-1958,53	387,00
-1948,97	434,00
-1939,42	354,00
-1929,89	405,00
-1920,37	462,00
-1910,86	418,00
-1901,36	436,00
-1891,88	448,00
-1882,41	399,00
-1872,95	453,00
-1863,51	388,00
-1854,08	517,00
-1844,66	435,00
-1835,26	319,00
-1825,86	446,00
-1816,48	419,00
-1807,11	426,00
-1797,76	440,00
-1788,42	399,00
-1779,09	427,00
-1769,77	332,00
-1760,47	526,00
-1751,17	487,00
-1741,89	486,00
-1732,63	434,00
-1723,37	610,00
-1714,13	435,00
-1704,90	345,00
-1695,68	514,00
-1686,48	399,00
-1677,29	356,00
-1668,11	334,00
-1658,94	414,00
-1649,78	358,00
-1640,64	368,00
-1631,51	380,00
-1622,39	439,00
-1613,28	456,00
-1604,19	606,00
-1595,10	508,00
-1586,03	374,00
-1576,97	437,00
-1567,93	385,00
-1558,89	499,00
-1549,87	453,00
-1540,86	405,00
-1531,86	414,00
-1522,87	308,00
-1513,90	497,00
-1504,93	428,00
-1495,98	462,00
-1487,04	494,00
-1478,12	467,00
-1469,20	384,00
-1460,30	471,00
-1451,40	455,00
-1442,52	423,00
-1433,65	501,00
-1424,80	417,00
-1415,95	419,00
-1407,12	535,00
-1398,30	454,00
-1389,48	335,00
-1380,69	396,00
-1371,90	493,00
-1363,12	434,00
-1354,36	514,00
-1345,60	390,00
-1336,86	397,00
-1328,13	527,00
-1319,41	446,00
-1310,70	425,00
-1302,01	327,00
-1293,32	415,00
-1284,65	371,00
-1275,99	485,00
-1267,33	512,00
-1258,69	408,00
-1250,06	510,00
-1241,45	439,00
-1232,84	469,00
-1224,25	433,00
-1215,66	490,00
-1207,09	488,00
-1198,53	410,00
-1189,97	337,00
-1181,43	501,00
-1172,91	473,00
-1164,39	416,00
-1155,88	452,00
-1147,38	301,00
-1138,90	408,00
-1130,43	374,00
-1121,96	467,00
-1113,51	489,00
-1105,07	416,00
-1096,64	370,00
-1088,22	465,00
-1079,81	448,00
-1071,41	500,00
-1063,02	432,00
-1054,65	375,00
-1046,28	419,00
-1037,92	501,00
-1029,58	343,00
-1021,24	377,00
-1012,92	597,00
-1004,61	428,00
-996,30	608,00
-988,01	414,00
-979,73	417,00
-971,46	485,00
-963,20	406,00
-954,95	419,00
-946,71	362,00
-938,48	376,00
-930,26	527,00
-922,06	480,00
-913,86	496,00
-905,67	441,00
-897,49	385,00
-889,33	504,00
-881,17	455,00
-873,02	510,00
-864,89	288,00
-856,76	372,00
-848,65	431,00
-840,54	474,00
-832,45	547,00
-824,36	341,00
-816,29	460,00
-808,22	384,00
-800,17	385,00
-792,12	502,00
-784,09	570,00
-776,06	395,00
-768,05	359,00
-760,04	393,00
-752,05	399,00
-744,07	476,00
-736,09	526,00
-728,13	358,00
-720,17	444,00
-712,23	385,00
-704,29	435,00
-696,37	443,00
-688,45	474,00
-680,55	438,00
-672,65	383,00
-664,77	361,00
-656,89	387,00
-649,03	416,00
-641,17	414,00
-633,32	480,00
-625,49	392,00
-617,66	440,00
-609,84	426,00
-602,03	327,00
-594,23	407,00
-586,45	434,00
-578,67	392,00
-570,90	387,00
-563,14	452,00
-555,39	443,00
-547,65	472,00
-539,91	519,00
-532,19	396,00
-524,48	447,00
-516,78	428,00
-509,08	390,00
-501,40	385,00
-493,72	385,00
-486,06	443,00
-478,40	459,00
-470,76	446,00
-463,12	400,00
-455,49	413,00
-447,87	386,00
-440,26	419,00
-432,66	405,00
-425,07	437,00
-417,49	435,00
-409,92	518,00
-402,35	302,00
-394,80	387,00
-387,25	474,00
-379,72	457,00
-372,19	340,00
-364,67	475,00
-357,17	471,00
-349,67	413,00
-342,18	396,00
-334,69	491,00
-327,22	487,00
-319,76	414,00
-312,30	538,00
-304,86	480,00
-297,42	520,00
-290,00	307,00
-282,58	411,00
-275,17	460,00
-267,77	506,00
-260,37	476,00
-252,99	467,00
-245,62	444,00
-238,25	454,00
-230,90	469,00
-223,55	455,00
-216,21	502,00
-208,88	488,00
-201,56	555,00
-194,25	457,00
-186,94	458,00
-179,65	532,00
-172,36	553,00
-165,08	535,00
-157,81	612,00
-150,55	591,00
-143,30	632,00
-136,06	639,00
-128,82	637,00
-121,60	607,00
-114,38	704,00
-107,17	796,00
-99,97	728,00
-92,78	816,00
-85,60	883,00
-78,42	985,00
-71,25	1102,00
-64,10	1198,00
-56,95	1217,00
-49,81	1437,00
-42,67	1772,00
-35,55	2091,00
-28,43	2727,00
-21,33	4012,00
-14,23	12175,00
-7,14	57775,00
-0,05	57564,00
7,02	57281,00
14,09	43691,00
21,14	11688,00
28,19	4977,00
35,23	3285,00
42,27	2501,00
49,29	2204,00
56,31	1921,00
63,32	1716,00
70,32	1435,00
77,31	1254,00
84,29	1196,00
91,27	1075,00
98,23	1157,00
105,19	903,00
112,14	1087,00
119,09	1309,00
126,02	1879,00
132,95	2257,00
139,87	2282,00
146,78	2387,00
153,68	2330,00
160,58	2209,00
167,46	2174,00
174,34	2257,00
181,21	2317,00
188,08	2247,00
194,93	2228,00
201,78	2229,00
208,62	2198,00
215,45	2192,00
222,27	2232,00
229,09	2293,00
235,90	2279,00
242,70	2202,00
249,49	2330,00
256,27	2181,00
263,05	2241,00
269,82	2144,00
276,58	2192,00
283,33	2158,00
290,08	2230,00
296,82	2094,00
303,55	2156,00
310,27	2087,00
316,98	2182,00
323,69	2055,00
330,39	2068,00
337,08	2171,00
343,76	2146,00
350,44	2025,00
357,11	2193,00
363,77	2099,00
370,42	2119,00
377,07	2187,00
383,71	2091,00
390,34	2099,00
396,96	2102,00
403,58	2021,00
410,19	2166,00
416,79	2166,00
423,38	2168,00
429,97	2115,00
436,55	1916,00
443,12	2118,00
449,68	1970,00
456,24	2056,00
462,79	2208,00
469,33	2091,00
475,86	2111,00
482,39	2035,00
488,91	2181,00
495,42	1997,00
501,93	2083,00
508,42	1932,00
514,91	2121,00
521,40	2032,00
527,87	2011,00
534,34	1972,00
540,80	2143,00
547,25	2023,00
553,70	2117,00
560,14	1998,00
566,57	2098,00
573,00	2077,00
579,41	2138,00
585,83	2101,00
592,23	2036,00
598,62	2074,00
605,01	2029,00
611,40	1997,00
617,77	2041,00
624,14	1932,00
630,50	1993,00
636,85	2067,00
643,20	2057,00
649,54	2041,00
655,87	1975,00
662,20	2155,00
668,52	2074,00
674,83	2022,00
681,13	2032,00
687,43	2035,00
693,72	1977,00
700,00	1923,00
706,28	1932,00
712,55	2055,00
718,81	2040,00
725,07	1960,00
731,32	2068,00
737,56	2087,00
743,79	2021,00
750,02	2071,00
756,24	2101,00
762,46	1979,00
768,67	2248,00
774,87	2132,00
781,06	2064,00
787,25	2129,00
793,43	2181,00
799,60	1970,00
805,77	2086,00
811,93	2063,00
818,08	2094,00
824,23	2179,00
830,37	2249,00
836,50	2044,00
842,63	2116,00
848,75	2122,00
854,87	2178,00
860,97	2046,00
867,07	2174,00
873,17	2104,00
879,25	2048,00
885,33	2090,00
891,41	2150,00
897,47	2138,00
903,53	2122,00
909,59	2151,00
915,63	2137,00
921,67	2072,00
927,71	2133,00
933,74	2156,00
939,76	2026,00
945,77	2086,00
951,78	2152,00
957,78	2117,00
963,78	2162,00
969,77	2129,00
975,75	2215,00
981,72	2134,00
987,69	2675,00
993,66	2118,00
999,61	2236,00
1005,56	2187,00
1011,51	2042,00
1017,44	2129,00
1023,37	2168,00
1029,30	2238,00
1035,22	2280,00
1041,13	2229,00
1047,03	2215,00
1052,93	2397,00
1058,83	2674,00
1064,71	2739,00
1070,59	2595,00
1076,47	2421,00
1082,33	2446,00
1088,20	2313,00
1094,05	2363,00
1099,90	2226,00
1105,74	2261,00
1111,58	2271,00
1117,41	2387,00
1123,23	2628,00
1129,05	2977,00
1134,86	2772,00
1140,67	2597,00
1146,47	2429,00
1152,26	2342,00
1158,05	2132,00
1163,83	2333,00
1169,60	2313,00
1175,37	2444,00
1181,13	2280,00
1186,89	2256,00
1192,64	2291,00
1198,38	2360,00
1204,12	2291,00
1209,85	2242,00
1215,58	2276,00
1221,30	2322,00
1227,02	2312,00
1232,72	2237,00
1238,43	2227,00
1244,12	2334,00
1249,81	2327,00
1255,50	2391,00
1261,17	2331,00
1266,85	2367,00
1272,51	2449,00
1278,17	2478,00
1283,83	2401,00
1289,47	2771,00
1295,12	3259,00
1300,75	3093,00
1306,38	2811,00
1312,01	2503,00
1317,63	2487,00
1323,24	2461,00
1328,85	2538,00
1334,45	2385,00
1340,04	2409,00
1345,63	2264,00
1351,22	2393,00
1356,80	2397,00
1362,37	2411,00
1367,93	2353,00
1373,49	2367,00
1379,05	2381,00
1384,60	2402,00
1390,14	2380,00
1395,68	2387,00
1401,21	2368,00
1406,74	2467,00
1412,26	2680,00
1417,77	2860,00
1423,28	2689,00
1428,78	2703,00
1434,28	2977,00
1439,77	3284,00
1445,26	3199,00
1450,74	3142,00
1456,22	2986,00
1461,68	2990,00
1467,15	2820,00
1472,61	2581,00
1478,06	2583,00
1483,51	2451,00
1488,95	2396,00
1494,38	2433,00
1499,81	2396,00
1505,24	2329,00
1510,65	2321,00
1516,07	2338,00
1521,48	2300,00
1526,88	2068,00
1532,27	2299,00
1537,67	2244,00
1543,05	2326,00
1548,43	2154,00
1553,81	2297,00
1559,18	2196,00
1564,54	2330,00
1569,90	2209,00
1575,25	2151,00
1580,60	2190,00
1585,94	2280,00
1591,28	2234,00
1596,61	2276,00
1601,93	2200,00
1607,25	2262,00
1612,57	2238,00
1617,88	2248,00
1623,18	2054,00
1628,48	2200,00
1633,77	2010,00
1639,06	2246,00
1644,34	2047,00
1649,62	2157,00
1654,89	2242,00
1660,16	2087,00
1665,42	2117,00
1670,67	2124,00
1675,92	2191,00
1681,17	2063,00
1686,41	2085,00
1691,64	2237,00
1696,87	2083,00
1702,10	2051,00
1707,32	2239,00
1712,53	2095,00
1717,74	2060,00
1722,94	2138,00
1728,14	2126,00
1733,33	1969,00
1738,52	2058,00
1743,70	1990,00
1748,88	2013,00
1754,05	2041,00
1759,22	1904,00
1764,38	3225,00
1769,53	2008,00
1774,69	2102,00
1779,83	1959,00
1784,97	1938,00
1790,11	1966,00
1795,24	2002,00
1800,36	2008,00
1805,48	1885,00
1810,60	1911,00
1815,71	1998,00
1820,82	1936,00
1825,92	1962,00
1831,01	1917,00
1836,10	1905,00
1841,19	1999,00
1846,26	1875,00
1851,34	1955,00
1856,41	1936,00
1861,47	1999,00
1866,53	1951,00
1871,59	1936,00
1876,64	1939,00
1881,68	1902,00
1886,72	2066,00
1891,76	1912,00
1896,79	1882,00
1901,81	1818,00
1906,83	1796,00
1911,85	1838,00
1916,86	1817,00
1921,86	1827,00
1926,86	1824,00
1931,86	1773,00
1936,85	1861,00
1941,83	1859,00
1946,81	1856,00
1951,79	1813,00
1956,76	1679,00
1961,72	1698,00
1966,68	1847,00
1971,64	1739,00
1976,59	1769,00
1981,54	1769,00
1986,48	1675,00
1991,42	1704,00
1996,35	1884,00
2001,27	1715,00
2006,20	1686,00
2011,11	1794,00
2016,03	1796,00
2020,93	1743,00
2025,84	1837,00
2030,73	1741,00
2035,63	1623,00
2040,52	1781,00
2045,40	1751,00
2050,28	1721,00
2055,15	1666,00
2060,02	1617,00
2064,89	1746,00
2069,75	1709,00
2074,60	1689,00
2079,46	1716,00
2084,30	1664,00
2089,14	1633,00
2093,98	1712,00
2098,81	1734,00
2103,64	1697,00
2108,46	1665,00
2113,28	1689,00
2118,09	1690,00
2122,90	1746,00
2127,70	1677,00
2132,50	1720,00
2137,30	1654,00
2142,09	1614,00
2146,87	1583,00
2151,66	1632,00
2156,43	1710,00
2161,20	1666,00
2165,97	1608,00
2170,73	1569,00
2175,49	1598,00
2180,24	1589,00
2184,99	1636,00
2189,74	1639,00
2194,48	1537,00
2199,21	1754,00
2203,94	1568,00
2208,67	1471,00
2213,39	1541,00
2218,11	1559,00
2222,82	1640,00
2227,53	1544,00
2232,23	1682,00
2236,93	1528,00
2241,63	1617,00
2246,32	1467,00
2251,00	1412,00
2255,68	1528,00
2260,36	1433,00
2265,03	1619,00
2269,70	1507,00
2274,36	1462,00
2279,02	1551,00
2283,68	1532,00
2288,33	1421,00
2292,97	1505,00
2297,61	1500,00
2302,25	1477,00
2306,88	1472,00
2311,51	1449,00
2316,14	1492,00
2320,75	1566,00
2325,37	1347,00
2329,98	1525,00
2334,59	1394,00
2339,19	1427,00
2343,79	1423,00
2348,38	1410,00
2352,97	1357,00
2357,55	1511,00
2362,13	1480,00
2366,71	1334,00
2371,28	1451,00
2375,85	1416,00
2380,41	1430,00
2384,97	1407,00
2389,52	1420,00
2394,07	1347,00
2398,62	1387,00
2403,16	1330,00
2407,70	1265,00
2412,23	1371,00
2416,76	1430,00
2421,29	1370,00
2425,81	1325,00
2430,32	1283,00
2434,84	1270,00
2439,34	1282,00
2443,85	1474,00
2448,35	1230,00
2452,84	1274,00
2457,33	1223,00
2461,82	1249,00
2466,30	1257,00
2470,78	1300,00
2475,25	1203,00
2479,72	1230,00
2484,19	1262,00
2488,65	1258,00
2493,11	1197,00
2497,56	1277,00
2502,01	1278,00
2506,46	1251,00
2510,90	1316,00
2515,34	1284,00
2519,77	1310,00
2524,20	1166,00
2528,62	1209,00
2533,04	1306,00
2537,46	1158,00
2541,87	1133,00
2546,28	1093,00
2550,68	1229,00
2555,08	1095,00
2559,48	1234,00
2563,87	1079,00
2568,26	1175,00
2572,64	1156,00
2577,02	1209,00
2581,40	1131,00
2585,77	1097,00
2590,14	1116,00
2594,50	1120,00
2598,86	1104,00
2603,22	1104,00
2607,57	1068,00
2611,92	1122,00
2616,26	1146,00
2620,60	1202,00
2624,94	1091,00
2629,27	1192,00
2633,60	1069,00
2637,92	1123,00
2642,24	1056,00
2646,56	1076,00
2650,87	1124,00
2655,18	1139,00
2659,48	1080,00
2663,78	1119,00
2668,08	1077,00
2672,37	1103,00
2676,66	1133,00
2680,95	1103,00
2685,23	1027,00
2689,50	1053,00
2693,78	1109,00
2698,05	1050,00
2702,31	1128,00
2706,57	1155,00
2710,83	1248,00
2715,08	1084,00
2719,33	1266,00
2723,58	1193,00
2727,82	1123,00
2732,06	1176,00
2736,29	1054,00
2740,53	1246,00
2744,75	1048,00
2748,97	1085,00
2753,19	1181,00
2757,41	1150,00
2761,62	1154,00
2765,83	1186,00
2770,03	1180,00
2774,23	1042,00
2778,43	1054,00
2782,62	1122,00
2786,81	1101,00
2791,00	1168,00
2795,18	1212,00
2799,35	1097,00
2803,53	1251,00
2807,70	1115,00
2811,86	982,00
2816,03	1200,00
2820,19	1122,00
2824,34	1232,00
2828,49	1158,00
2832,64	1384,00
2836,78	1564,00
2840,92	1704,00
2845,06	2012,00
2849,19	1973,00
2853,32	2094,00
2857,45	2044,00
2861,57	2022,00
2865,69	1941,00
2869,80	1874,00
2873,91	1869,00
2878,02	2043,00
2882,12	2249,00
2886,22	2160,00
2890,32	2079,00
2894,41	1964,00
2898,50	1912,00
2902,58	1761,00
2906,67	1672,00
2910,74	1546,00
2914,82	1476,00
2918,89	1510,00
2922,96	1391,00
2927,02	1408,00
2931,08	1254,00
2935,13	1267,00
2939,19	1304,00
2943,24	1205,00
2947,28	1114,00
2951,32	1032,00
2955,36	1010,00
2959,40	1072,00
2963,43	1064,00
2967,46	917,00
2971,48	883,00
2975,50	985,00
2979,52	902,00
2983,53	949,00
2987,54	839,00
2991,55	806,00
2995,55	842,00
2999,55	807,00
3003,54	777,00
3007,54	857,00
3011,53	774,00
3015,51	787,00
3019,49	854,00
3023,47	780,00
3027,45	801,00
3031,42	785,00
3035,39	761,00
3039,35	656,00
3043,31	785,00
3047,27	767,00
3051,22	819,00
3055,17	636,00
3059,12	744,00
3063,06	753,00
3067,00	638,00
3070,94	683,00
3074,87	704,00
3078,80	707,00
3082,73	702,00
3086,65	738,00
3090,57	679,00
3094,49	691,00
3098,40	712,00
3102,31	673,00
3106,22	748,00
3110,12	697,00
3114,02	564,00
3117,92	587,00
3121,81	503,00
3125,70	620,00
3129,58	642,00
3133,47	656,00
3137,34	685,00
3141,22	655,00
3145,09	665,00
3148,96	622,00
3152,83	589,00
3156,69	700,00
3160,55	579,00
3164,40	634,00
3168,26	602,00
3172,10	736,00
3175,95	630,00
3179,79	701,00
3183,63	607,00
3187,47	612,00
3191,30	500,00
3195,13	728,00
3198,95	570,00
3202,78	645,00
3206,60	538,00
3210,41	574,00
3214,23	571,00
3218,03	548,00
3221,84	569,00
3225,64	558,00
3229,44	590,00
3233,24	507,00
3237,03	580,00
3240,82	502,00
3244,61	569,00
3248,39	556,00
3252,17	576,00
3255,95	583,00
3259,72	574,00
3263,49	560,00
3267,26	467,00
3271,03	451,00
3274,79	568,00
3278,54	576,00
3282,30	528,00
3286,05	485,00
3289,80	535,00
3293,54	544,00
3297,29	525,00
3301,02	533,00
3304,76	575,00
3308,49	618,00
3312,22	500,00
3315,95	438,00
3319,67	520,00
3323,39	650,00
3327,10	573,00
3330,82	450,00
3334,53	547,00
3338,24	485,00
3341,94	498,00
3345,64	483,00
3349,34	530,00
3353,03	528,00
3356,72	523,00
3360,41	575,00
3364,10	571,00
3367,78	429,00
3371,46	505,00
3375,13	489,00
3378,81	480,00
3382,48	539,00
3386,14	585,00
3389,81	469,00
3393,47	423,00
3397,12	584,00
3400,78	563,00
3404,43	445,00
3408,08	425,00
3411,72	479,00
3415,36	483,00
3419,00	422,00
3422,64	483,00
3426,27	456,00
3429,90	428,00
3433,53	497,00
3437,15	370,00
3440,77	348,00
3444,39	439,00
3448,00	499,00
3451,62	445,00
3455,22	435,00
3458,83	480,00
3462,43	477,00
3466,03	593,00
3469,63	512,00
3473,22	506,00
3476,81	388,00
3480,40	492,00
3483,99	497,00
3487,57	584,00
3491,15	461,00
3494,72	455,00
3498,29	446,00
3501,86	428,00
3505,43	475,00
3508,99	459,00
3512,56	487,00
3516,11	480,00
3519,67	447,00
3523,22	491,00
3526,77	497,00
3530,32	436,00
3533,86	526,00
3537,40	454,00
3540,94	557,00
3544,47	374,00
3548,00	324,00
3551,53	474,00
3555,06	405,00
3558,58	536,00
3562,10	493,00
3565,62	489,00
3569,13	443,00
3572,64	392,00
3576,15	330,00
3579,66	378,00
3583,16	430,00
3586,66	421,00
3590,16	418,00
3593,65	430,00
3597,14	517,00
3600,63	425,00
3604,11	507,00
3607,60	395,00
3611,08	445,00
3614,55	424,00
3618,03	312,00
3621,50	454,00
3624,97	408,00
3628,43	482,00
3631,90	458,00
3635,36	351,00
3638,81	385,00
3642,27	440,00
3645,72	492,00
3649,17	421,00
3652,61	382,00
3656,06	349,00
3659,50	407,00
3662,93	346,00
3666,37	403,00
3669,80	476,00
3673,23	446,00
3676,65	437,00
3680,08	451,00
3683,50	418,00
3686,92	480,00
3690,33	380,00
3693,74	462,00
3697,15	259,00
3700,56	421,00
3703,96	341,00
3707,36	415,00
3710,76	295,00
3714,16	385,00
3717,55	360,00
3720,94	434,00
3724,33	354,00
3727,71	428,00
3731,10	382,00
3734,48	266,00
3737,85	346,00
3741,23	305,00
3744,60	384,00
3747,97	340,00
3751,33	299,00
3754,69	376,00
3758,05	392,00
3761,41	295,00
3764,77	354,00
3768,12	280,00
3771,47	383,00
3774,82	283,00
3778,16	-4,00
3781,50	9,00
3784,84	4,00
3788,18	4,00
>>>>>End Processed Spectral Data<<<<<
