SpectraSuite Data File
++++++++++++++++++++++++++++++++++++
Date: Mon Mar 09 14:37:41 ICT 2026
User: Administrator
Dark Spectrum Present: Yes
Reference Spectrum Present: No
Number of Sampled Component Spectra: 1
Spectrometers: MAYP113682
Integration Time (usec): 3000000 (MAYP113682)
Spectra Averaged: 1 (MAYP113682)
Boxcar Smoothing: 0 (MAYP113682)
Correct for Electrical Dark: No (MAYP113682)
Strobe/Lamp Enabled: No (MAYP113682)
Correct for Detector Non-linearity: No (MAYP113682)
Correct for Stray Light: No (MAYP113682)
Number of Pixels in Processed Spectrum: 2068
>>>>>Begin Processed Spectral Data<<<<<
-37534,58	9,00
-37414,56	-2,00
-37295,11	0,00
-37176,24	-5,00
-37057,95	146,00
-36940,22	135,00
-36823,05	217,00
-36706,45	237,00
-36590,40	108,00
-36474,90	203,00
-36359,95	195,00
-36245,55	199,00
-36131,68	224,00
-36018,35	164,00
-35905,55	154,00
-35793,29	140,00
-35681,54	196,00
-35570,32	162,00
-35459,62	158,00
-35349,43	189,00
-35239,75	124,00
-35130,58	117,00
-35021,91	172,00
-34913,74	224,00
-34806,07	136,00
-34698,89	276,00
-34592,20	180,00
-34486,00	201,00
-34380,28	71,00
-34275,04	180,00
-34170,27	171,00
-34065,98	107,00
-33962,16	153,00
-33858,81	144,00
-33755,92	180,00
-33653,49	273,00
-33551,52	184,00
-33450,01	104,00
-33348,94	149,00
-33248,33	189,00
-33148,16	174,00
-33048,43	226,00
-32949,14	209,00
-32850,29	204,00
-32751,87	173,00
-32653,89	169,00
-32556,33	247,00
-32459,20	209,00
-32362,49	193,00
-32266,19	51,00
-32170,32	195,00
-32074,86	191,00
-31979,82	242,00
-31885,18	293,00
-31790,95	210,00
-31697,12	145,00
-31603,69	232,00
-31510,67	136,00
-31418,04	193,00
-31325,80	319,00
-31233,95	280,00
-31142,49	210,00
-31051,42	241,00
-30960,73	255,00
-30870,43	220,00
-30780,50	181,00
-30690,95	163,00
-30601,77	256,00
-30512,97	119,00
-30424,53	246,00
-30336,46	202,00
-30248,76	182,00
-30161,42	230,00
-30074,44	159,00
-29987,81	217,00
-29901,55	249,00
-29815,63	147,00
-29730,07	184,00
-29644,86	222,00
-29560,00	186,00
-29475,48	151,00
-29391,30	259,00
-29307,47	128,00
-29223,97	185,00
-29140,81	213,00
-29057,99	261,00
-28975,50	165,00
-28893,34	213,00
-28811,51	193,00
-28730,00	143,00
-28648,82	199,00
-28567,97	274,00
-28487,43	227,00
-28407,21	127,00
-28327,32	187,00
-28247,73	184,00
-28168,46	110,00
-28089,50	213,00
-28010,85	119,00
-27932,51	174,00
-27854,48	258,00
-27776,75	218,00
-27699,32	200,00
-27622,19	216,00
-27545,37	226,00
-27468,84	133,00
-27392,60	180,00
-27316,66	174,00
-27241,01	146,00
-27165,66	238,00
-27090,59	200,00
-27015,81	247,00
-26941,31	224,00
-26867,10	288,00
-26793,17	204,00
-26719,52	230,00
-26646,15	292,00
-26573,06	254,00
-26500,24	201,00
-26427,70	200,00
-26355,43	220,00
-26283,43	251,00
-26211,71	232,00
-26140,25	188,00
-26069,06	270,00
-25998,13	102,00
-25927,46	194,00
-25857,06	245,00
-25786,92	133,00
-25717,04	191,00
-25647,42	175,00
-25578,05	230,00
-25508,94	107,00
-25440,09	211,00
-25371,48	189,00
-25303,13	51,00
-25235,02	199,00
-25167,17	201,00
-25099,56	181,00
-25032,19	164,00
-24965,07	214,00
-24898,20	130,00
-24831,56	116,00
-24765,17	206,00
-24699,01	150,00
-24633,10	123,00
-24567,41	107,00
-24501,97	145,00
-24436,75	141,00
-24371,77	192,00
-24307,03	192,00
-24242,51	49,00
-24178,22	280,00
-24114,16	164,00
-24050,32	154,00
-23986,71	242,00
-23923,32	234,00
-23860,16	158,00
-23797,22	142,00
-23734,50	168,00
-23672,00	161,00
-23609,71	126,00
-23547,65	115,00
-23485,80	140,00
-23424,16	204,00
-23362,74	202,00
-23301,53	174,00
-23240,54	101,00
-23179,75	245,00
-23119,17	166,00
-23058,80	200,00
-22998,64	166,00
-22938,68	174,00
-22878,93	138,00
-22819,39	255,00
-22760,04	175,00
-22700,90	217,00
-22641,96	195,00
-22583,22	165,00
-22524,68	224,00
-22466,33	102,00
-22408,19	202,00
-22350,23	180,00
-22292,48	269,00
-22234,92	158,00
-22177,55	247,00
-22120,37	179,00
-22063,38	157,00
-22006,58	154,00
-21949,98	165,00
-21893,56	87,00
-21837,33	158,00
-21781,28	156,00
-21725,42	172,00
-21669,74	159,00
-21614,25	215,00
-21558,94	92,00
-21503,81	215,00
-21448,86	214,00
-21394,10	172,00
-21339,51	82,00
-21285,10	140,00
-21230,86	87,00
-21176,81	133,00
-21122,93	139,00
-21069,22	259,00
-21015,69	226,00
-20962,33	162,00
-20909,14	201,00
-20856,13	151,00
-20803,28	144,00
-20750,61	148,00
-20698,10	162,00
-20645,76	273,00
-20593,59	319,00
-20541,59	176,00
-20489,75	220,00
-20438,07	221,00
-20386,56	196,00
-20335,22	193,00
-20284,03	250,00
-20233,01	192,00
-20182,15	166,00
-20131,45	97,00
-20080,91	166,00
-20030,52	152,00
-19980,30	49,00
-19930,23	215,00
-19880,32	217,00
-19830,56	196,00
-19780,96	187,00
-19731,52	183,00
-19682,23	189,00
-19633,09	136,00
-19584,10	148,00
-19535,26	234,00
-19486,58	201,00
-19438,04	109,00
-19389,66	182,00
-19341,42	185,00
-19293,33	176,00
-19245,39	114,00
-19197,60	159,00
-19149,95	161,00
-19102,45	181,00
-19055,09	189,00
-19007,87	185,00
-18960,80	233,00
-18913,87	164,00
-18867,09	198,00
-18820,44	186,00
-18773,94	200,00
-18727,57	145,00
-18681,35	156,00
-18635,26	204,00
-18589,31	157,00
-18543,50	185,00
-18497,83	237,00
-18452,29	201,00
-18406,89	246,00
-18361,63	232,00
-18316,50	240,00
-18271,50	166,00
-18226,63	182,00
-18181,90	146,00
-18137,30	196,00
-18092,84	73,00
-18048,50	205,00
-18004,29	113,00
-17960,22	214,00
-17916,27	165,00
-17872,45	147,00
-17828,76	209,00
-17785,20	287,00
-17741,77	227,00
-17698,46	150,00
-17655,28	104,00
-17612,22	207,00
-17569,29	167,00
-17526,48	179,00
-17483,79	236,00
-17441,23	189,00
-17398,79	209,00
-17356,48	192,00
-17314,28	284,00
-17272,21	167,00
-17230,26	148,00
-17188,42	204,00
-17146,71	154,00
-17105,12	220,00
-17063,64	204,00
-17022,28	168,00
-16981,04	174,00
-16939,92	122,00
-16898,91	274,00
-16858,02	255,00
-16817,25	167,00
-16776,59	109,00
-16736,04	214,00
-16695,61	98,00
-16655,29	171,00
-16615,09	183,00
-16574,99	181,00
-16535,01	124,00
-16495,15	259,00
-16455,39	225,00
-16415,74	135,00
-16376,21	169,00
-16336,78	116,00
-16297,46	156,00
-16258,26	302,00
-16219,16	194,00
-16180,17	258,00
-16141,28	280,00
-16102,51	199,00
-16063,84	119,00
-16025,27	292,00
-15986,82	105,00
-15948,46	150,00
-15910,22	123,00
-15872,07	191,00
-15834,04	153,00
-15796,10	206,00
-15758,27	202,00
-15720,54	195,00
-15682,91	225,00
-15645,39	117,00
-15607,97	180,00
-15570,64	140,00
-15533,42	179,00
-15496,30	195,00
-15459,28	105,00
-15422,36	142,00
-15385,54	144,00
-15348,82	151,00
-15312,19	197,00
-15275,66	93,00
-15239,23	128,00
-15202,90	218,00
-15166,67	128,00
-15130,53	96,00
-15094,48	283,00
-15058,54	188,00
-15022,68	90,00
-14986,93	139,00
-14951,26	172,00
-14915,69	71,00
-14880,22	116,00
-14844,84	244,00
-14809,55	168,00
-14774,35	216,00
-14739,25	294,00
-14704,24	226,00
-14669,32	228,00
-14634,49	104,00
-14599,75	154,00
-14565,10	115,00
-14530,55	256,00
-14496,08	218,00
-14461,70	195,00
-14427,41	185,00
-14393,21	168,00
-14359,10	186,00
-14325,07	230,00
-14291,14	122,00
-14257,29	181,00
-14223,52	153,00
-14189,85	298,00
-14156,26	236,00
-14122,76	174,00
-14089,34	163,00
-14056,01	173,00
-14022,76	179,00
-13989,60	213,00
-13956,52	182,00
-13923,53	166,00
-13890,62	224,00
-13857,79	147,00
-13825,05	177,00
-13792,39	140,00
-13759,81	246,00
-13727,31	184,00
-13694,90	218,00
-13662,57	272,00
-13630,31	152,00
-13598,14	95,00
-13566,05	179,00
-13534,05	225,00
-13502,12	182,00
-13470,27	187,00
-13438,50	213,00
-13406,80	165,00
-13375,19	109,00
-13343,66	183,00
-13312,20	218,00
-13280,83	149,00
-13249,53	228,00
-13218,30	89,00
-13187,16	145,00
-13156,09	165,00
-13125,10	138,00
-13094,18	226,00
-13063,34	261,00
-13032,58	166,00
-13001,89	244,00
-12971,28	241,00
-12940,74	200,00
-12910,27	238,00
-12879,88	218,00
-12849,57	167,00
-12819,33	134,00
-12789,16	162,00
-12759,06	78,00
-12729,04	159,00
-12699,09	-579,00
-12669,21	244,00
-12639,41	221,00
-12609,68	195,00
-12580,02	147,00
-12550,43	182,00
-12520,91	93,00
-12491,46	170,00
-12462,08	187,00
-12432,77	113,00
-12403,54	133,00
-12374,37	211,00
-12345,27	196,00
-12316,24	96,00
-12287,29	301,00
-12258,40	175,00
-12229,57	203,00
-12200,82	244,00
-12172,14	139,00
-12143,52	207,00
-12114,97	132,00
-12086,49	137,00
-12058,07	211,00
-12029,73	150,00
-12001,44	272,00
-11973,23	216,00
-11945,08	212,00
-11917,00	124,00
-11888,98	143,00
-11861,03	142,00
-11833,15	238,00
-11805,32	187,00
-11777,57	168,00
-11749,88	131,00
-11722,25	188,00
-11694,69	192,00
-11667,19	232,00
-11639,75	181,00
-11612,38	235,00
-11585,07	232,00
-11557,83	256,00
-11530,65	233,00
-11503,53	231,00
-11476,47	236,00
-11449,48	242,00
-11422,54	242,00
-11395,67	125,00
-11368,86	194,00
-11342,11	231,00
-11315,43	89,00
-11288,80	156,00
-11262,23	238,00
-11235,73	175,00
-11209,28	115,00
-11182,90	171,00
-11156,57	193,00
-11130,31	201,00
-11104,10	289,00
-11077,96	206,00
-11051,87	221,00
-11025,84	210,00
-10999,87	206,00
-10973,96	253,00
-10948,11	205,00
-10922,31	30,00
-10896,58	158,00
-10870,90	238,00
-10845,28	198,00
-10819,71	138,00
-10794,20	154,00
-10768,75	265,00
-10743,36	187,00
-10718,02	168,00
-10692,74	211,00
-10667,52	111,00
-10642,35	273,00
-10617,24	252,00
-10592,18	308,00
-10567,18	175,00
-10542,23	184,00
-10517,34	292,00
-10492,51	208,00
-10467,72	220,00
-10443,00	242,00
-10418,32	224,00
-10393,70	208,00
-10369,14	88,00
-10344,63	299,00
-10320,17	194,00
-10295,77	274,00
-10271,42	218,00
-10247,12	208,00
-10222,88	327,00
-10198,68	148,00
-10174,54	222,00
-10150,46	226,00
-10126,42	222,00
-10102,44	292,00
-10078,51	254,00
-10054,63	317,00
-10030,80	205,00
-10007,03	361,00
-9983,30	280,00
-9959,63	216,00
-9936,01	257,00
-9912,44	276,00
-9888,92	328,00
-9865,44	240,00
-9842,02	336,00
-9818,65	315,00
-9795,33	398,00
-9772,06	296,00
-9748,84	322,00
-9725,67	389,00
-9702,55	348,00
-9679,47	406,00
-9656,45	409,00
-9633,47	296,00
-9610,55	459,00
-9587,67	428,00
-9564,84	573,00
-9542,06	607,00
-9519,32	511,00
-9496,64	466,00
-9474,00	439,00
-9451,41	535,00
-9428,87	622,00
-9406,37	606,00
-9383,92	595,00
-9361,52	668,00
-9339,17	707,00
-9316,86	620,00
-9294,60	705,00
-9272,38	859,00
-9250,21	823,00
-9228,09	792,00
-9206,01	936,00
-9183,98	796,00
-9162,00	735,00
-9140,06	828,00
-9118,16	700,00
-9096,31	793,00
-9074,51	804,00
-9052,75	931,00
-9031,04	776,00
-9009,37	743,00
-8987,74	693,00
-8966,16	628,00
-8944,63	564,00
-8923,14	495,00
-8901,69	680,00
-8880,29	643,00
-8858,93	631,00
-8837,61	745,00
-8816,34	743,00
-8795,11	637,00
-8773,92	724,00
-8752,78	647,00
-8731,68	600,00
-8710,62	608,00
-8689,61	521,00
-8668,63	522,00
-8647,70	738,00
-8626,82	642,00
-8605,97	645,00
-8585,17	540,00
-8564,41	539,00
-8543,69	590,00
-8523,01	518,00
-8502,37	591,00
-8481,78	655,00
-8461,23	491,00
-8440,71	567,00
-8420,24	654,00
-8399,81	595,00
-8379,42	640,00
-8359,08	613,00
-8338,77	589,00
-8318,50	624,00
-8298,27	439,00
-8278,09	573,00
-8257,94	485,00
-8237,83	568,00
-8217,76	631,00
-8197,74	658,00
-8177,75	565,00
-8157,80	615,00
-8137,89	516,00
-8118,02	463,00
-8098,19	547,00
-8078,40	518,00
-8058,65	395,00
-8038,93	556,00
-8019,26	500,00
-7999,62	471,00
-7980,02	479,00
-7960,46	518,00
-7940,94	397,00
-7921,46	459,00
-7902,01	428,00
-7882,60	575,00
-7863,23	526,00
-7843,90	471,00
-7824,61	430,00
-7805,35	438,00
-7786,13	500,00
-7766,95	370,00
-7747,80	434,00
-7728,69	494,00
-7709,62	457,00
-7690,59	435,00
-7671,59	537,00
-7652,63	491,00
-7633,70	492,00
-7614,81	493,00
-7595,96	387,00
-7577,15	427,00
-7558,37	384,00
-7539,62	415,00
-7520,91	480,00
-7502,24	406,00
-7483,60	450,00
-7465,00	548,00
-7446,44	436,00
-7427,91	488,00
-7409,41	390,00
-7390,95	417,00
-7372,53	355,00
-7354,14	450,00
-7335,78	416,00
-7317,46	433,00
-7299,18	370,00
-7280,92	432,00
-7262,71	453,00
-7244,52	402,00
-7226,38	477,00
-7208,26	515,00
-7190,18	444,00
-7172,14	465,00
-7154,12	452,00
-7136,15	371,00
-7118,20	445,00
-7100,29	509,00
-7082,41	464,00
-7064,57	416,00
-7046,76	427,00
-7028,98	332,00
-7011,24	464,00
-6993,53	359,00
-6975,85	304,00
-6958,20	310,00
-6940,59	271,00
-6923,01	376,00
-6905,46	430,00
-6887,94	385,00
-6870,46	563,00
-6853,01	374,00
-6835,59	418,00
-6818,21	382,00
-6800,85	380,00
-6783,53	269,00
-6766,24	335,00
-6748,98	365,00
-6731,76	309,00
-6714,56	210,00
-6697,40	262,00
-6680,26	239,00
-6663,16	303,00
-6646,09	475,00
-6629,05	316,00
-6612,05	371,00
-6595,07	323,00
-6578,13	436,00
-6561,21	340,00
-6544,33	261,00
-6527,47	299,00
-6510,65	333,00
-6493,86	324,00
-6477,10	330,00
-6460,36	285,00
-6443,66	314,00
-6426,99	362,00
-6410,35	196,00
-6393,74	319,00
-6377,16	280,00
-6360,61	217,00
-6344,09	337,00
-6327,59	358,00
-6311,13	266,00
-6294,70	347,00
-6278,29	404,00
-6261,92	381,00
-6245,58	283,00
-6229,26	400,00
-6212,97	424,00
-6196,72	334,00
-6180,49	315,00
-6164,29	255,00
-6148,12	337,00
-6131,98	225,00
-6115,86	264,00
-6099,78	336,00
-6083,72	217,00
-6067,69	280,00
-6051,69	249,00
-6035,72	264,00
-6019,78	248,00
-6003,87	334,00
-5987,98	226,00
-5972,12	372,00
-5956,29	453,00
-5940,49	330,00
-5924,71	302,00
-5908,96	292,00
-5893,24	247,00
-5877,55	242,00
-5861,89	261,00
-5846,25	267,00
-5830,64	319,00
-5815,05	168,00
-5799,50	287,00
-5783,97	226,00
-5768,47	375,00
-5752,99	267,00
-5737,55	313,00
-5722,12	239,00
-5706,73	344,00
-5691,36	299,00
-5676,02	216,00
-5660,71	284,00
-5645,42	312,00
-5630,16	272,00
-5614,92	240,00
-5599,71	119,00
-5584,53	296,00
-5569,37	290,00
-5554,24	958,00
-5539,14	285,00
-5524,06	320,00
-5509,01	269,00
-5493,98	300,00
-5478,98	370,00
-5464,00	356,00
-5449,05	190,00
-5434,13	274,00
-5419,23	326,00
-5404,36	176,00
-5389,51	304,00
-5374,69	232,00
-5359,89	236,00
-5345,12	291,00
-5330,37	348,00
-5315,65	378,00
-5300,95	248,00
-5286,28	281,00
-5271,63	252,00
-5257,01	296,00
-5242,41	360,00
-5227,84	358,00
-5213,29	268,00
-5198,76	291,00
-5184,26	168,00
-5169,79	272,00
-5155,33	266,00
-5140,91	366,00
-5126,51	241,00
-5112,13	289,00
-5097,77	361,00
-5083,44	236,00
-5069,13	197,00
-5054,85	238,00
-5040,59	193,00
-5026,36	314,00
-5012,15	258,00
-4997,96	312,00
-4983,80	232,00
-4969,66	195,00
-4955,54	270,00
-4941,44	249,00
-4927,37	384,00
-4913,33	332,00
-4899,30	312,00
-4885,30	271,00
-4871,33	327,00
-4857,37	271,00
-4843,44	270,00
-4829,53	176,00
-4815,65	237,00
-4801,79	237,00
-4787,95	177,00
-4774,13	170,00
-4760,34	240,00
-4746,56	262,00
-4732,82	235,00
-4719,09	202,00
-4705,38	296,00
-4691,70	349,00
-4678,04	205,00
-4664,41	226,00
-4650,79	154,00
-4637,20	263,00
-4623,63	205,00
-4610,08	262,00
-4596,56	273,00
-4583,05	256,00
-4569,57	285,00
-4556,11	214,00
-4542,67	216,00
-4529,25	198,00
-4515,86	323,00
-4502,49	318,00
-4489,13	274,00
-4475,80	231,00
-4462,49	274,00
-4449,21	309,00
-4435,94	192,00
-4422,70	290,00
-4409,47	198,00
-4396,27	202,00
-4383,09	257,00
-4369,93	161,00
-4356,79	223,00
-4343,67	202,00
-4330,58	222,00
-4317,50	184,00
-4304,45	224,00
-4291,41	250,00
-4278,40	151,00
-4265,41	127,00
-4252,44	211,00
-4239,49	207,00
-4226,55	209,00
-4213,65	324,00
-4200,76	234,00
-4187,89	131,00
-4175,04	233,00
-4162,21	253,00
-4149,40	225,00
-4136,61	149,00
-4123,85	177,00
-4111,10	160,00
-4098,37	260,00
-4085,66	203,00
-4072,98	272,00
-4060,31	55,00
-4047,66	261,00
-4035,04	185,00
-4022,43	168,00
-4009,84	259,00
-3997,27	160,00
-3984,72	253,00
-3972,19	149,00
-3959,69	185,00
-3947,20	208,00
-3934,73	260,00
-3922,27	217,00
-3909,84	220,00
-3897,43	125,00
-3885,04	80,00
-3872,67	100,00
-3860,31	220,00
-3847,98	264,00
-3835,66	147,00
-3823,36	228,00
-3811,09	122,00
-3798,83	92,00
-3786,59	187,00
-3774,37	274,00
-3762,17	214,00
-3749,98	219,00
-3737,82	199,00
-3725,67	192,00
-3713,55	155,00
-3701,44	257,00
-3689,35	266,00
-3677,28	246,00
-3665,22	117,00
-3653,19	108,00
-3641,17	207,00
-3629,18	193,00
-3617,20	117,00
-3605,24	50,00
-3593,30	117,00
-3581,37	142,00
-3569,47	163,00
-3557,58	162,00
-3545,71	70,00
-3533,86	189,00
-3522,02	210,00
-3510,21	256,00
-3498,41	219,00
-3486,63	163,00
-3474,87	206,00
-3463,12	148,00
-3451,40	82,00
-3439,69	213,00
-3428,00	167,00
-3416,33	225,00
-3404,67	161,00
-3393,03	163,00
-3381,41	203,00
-3369,81	191,00
-3358,22	170,00
-3346,66	149,00
-3335,10	243,00
-3323,57	154,00
-3312,06	123,00
-3300,56	159,00
-3289,08	156,00
-3277,61	203,00
-3266,16	203,00
-3254,73	129,00
-3243,32	177,00
-3231,92	183,00
-3220,55	173,00
-3209,18	191,00
-3197,84	212,00
-3186,51	86,00
-3175,20	209,00
-3163,90	85,00
-3152,63	188,00
-3141,36	162,00
-3130,12	158,00
-3118,89	183,00
-3107,68	242,00
-3096,49	197,00
-3085,31	244,00
-3074,15	130,00
-3063,00	78,00
-3051,87	247,00
-3040,76	207,00
-3029,67	75,00
-3018,59	256,00
-3007,52	263,00
-2996,48	269,00
-2985,44	89,00
-2974,43	95,00
-2963,43	196,00
-2952,45	72,00
-2941,48	138,00
-2930,53	203,00
-2919,60	80,00
-2908,68	163,00
-2897,78	165,00
-2886,89	239,00
-2876,02	214,00
-2865,17	188,00
-2854,33	166,00
-2843,50	126,00
-2832,70	119,00
-2821,90	244,00
-2811,13	205,00
-2800,37	279,00
-2789,62	143,00
-2778,89	225,00
-2768,18	233,00
-2757,48	245,00
-2746,80	229,00
-2736,13	238,00
-2725,48	157,00
-2714,84	239,00
-2704,22	154,00
-2693,61	182,00
-2683,02	186,00
-2672,45	158,00
-2661,89	230,00
-2651,34	172,00
-2640,81	140,00
-2630,30	216,00
-2619,80	282,00
-2609,31	278,00
-2598,84	213,00
-2588,39	191,00
-2577,95	144,00
-2567,52	136,00
-2557,11	264,00
-2546,71	121,00
-2536,33	181,00
-2525,97	133,00
-2515,62	139,00
-2505,28	191,00
-2494,96	188,00
-2484,65	172,00
-2474,36	238,00
-2464,08	191,00
-2453,82	204,00
-2443,57	226,00
-2433,33	141,00
-2423,11	192,00
-2412,91	159,00
-2402,72	100,00
-2392,54	157,00
-2382,38	151,00
-2372,23	227,00
-2362,09	236,00
-2351,97	228,00
-2341,87	210,00
-2331,78	147,00
-2321,70	216,00
-2311,64	227,00
-2301,59	125,00
-2291,55	169,00
-2281,53	291,00
-2271,53	177,00
-2261,53	268,00
-2251,55	159,00
-2241,59	155,00
-2231,64	247,00
-2221,70	70,00
-2211,78	162,00
-2201,87	142,00
-2191,97	182,00
-2182,09	207,00
-2172,22	184,00
-2162,37	120,00
-2152,53	168,00
-2142,70	42,00
-2132,89	196,00
-2123,09	213,00
-2113,30	275,00
-2103,53	176,00
-2093,77	127,00
-2084,02	152,00
-2074,29	100,00
-2064,57	174,00
-2054,86	206,00
-2045,17	173,00
-2035,49	266,00
-2025,82	117,00
-2016,17	122,00
-2006,53	229,00
-1996,91	103,00
-1987,29	216,00
-1977,69	140,00
-1968,11	212,00
-1958,53	151,00
-1948,97	223,00
-1939,42	153,00
-1929,89	193,00
-1920,37	276,00
-1910,86	209,00
-1901,36	186,00
-1891,88	227,00
-1882,41	210,00
-1872,95	229,00
-1863,51	138,00
-1854,08	232,00
-1844,66	228,00
-1835,26	107,00
-1825,86	123,00
-1816,48	175,00
-1807,11	180,00
-1797,76	192,00
-1788,42	171,00
-1779,09	239,00
-1769,77	130,00
-1760,47	211,00
-1751,17	210,00
-1741,89	186,00
-1732,63	227,00
-1723,37	292,00
-1714,13	211,00
-1704,90	145,00
-1695,68	282,00
-1686,48	103,00
-1677,29	188,00
-1668,11	212,00
-1658,94	315,00
-1649,78	145,00
-1640,64	200,00
-1631,51	164,00
-1622,39	208,00
-1613,28	231,00
-1604,19	250,00
-1595,10	239,00
-1586,03	183,00
-1576,97	334,00
-1567,93	180,00
-1558,89	207,00
-1549,87	218,00
-1540,86	131,00
-1531,86	145,00
-1522,87	194,00
-1513,90	179,00
-1504,93	203,00
-1495,98	196,00
-1487,04	306,00
-1478,12	214,00
-1469,20	122,00
-1460,30	211,00
-1451,40	174,00
-1442,52	219,00
-1433,65	201,00
-1424,80	170,00
-1415,95	205,00
-1407,12	316,00
-1398,30	178,00
-1389,48	134,00
-1380,69	195,00
-1371,90	203,00
-1363,12	198,00
-1354,36	234,00
-1345,60	226,00
-1336,86	150,00
-1328,13	290,00
-1319,41	199,00
-1310,70	198,00
-1302,01	234,00
-1293,32	126,00
-1284,65	202,00
-1275,99	126,00
-1267,33	316,00
-1258,69	182,00
-1250,06	267,00
-1241,45	179,00
-1232,84	213,00
-1224,25	169,00
-1215,66	227,00
-1207,09	181,00
-1198,53	209,00
-1189,97	110,00
-1181,43	207,00
-1172,91	256,00
-1164,39	175,00
-1155,88	220,00
-1147,38	133,00
-1138,90	160,00
-1130,43	163,00
-1121,96	160,00
-1113,51	204,00
-1105,07	150,00
-1096,64	185,00
-1088,22	198,00
-1079,81	194,00
-1071,41	189,00
-1063,02	187,00
-1054,65	182,00
-1046,28	156,00
-1037,92	220,00
-1029,58	77,00
-1021,24	181,00
-1012,92	340,00
-1004,61	229,00
-996,30	294,00
-988,01	168,00
-979,73	208,00
-971,46	225,00
-963,20	133,00
-954,95	172,00
-946,71	160,00
-938,48	154,00
-930,26	298,00
-922,06	258,00
-913,86	239,00
-905,67	161,00
-897,49	114,00
-889,33	230,00
-881,17	214,00
-873,02	226,00
-864,89	70,00
-856,76	217,00
-848,65	208,00
-840,54	129,00
-832,45	129,00
-824,36	214,00
-816,29	255,00
-808,22	139,00
-800,17	193,00
-792,12	183,00
-784,09	335,00
-776,06	158,00
-768,05	200,00
-760,04	176,00
-752,05	182,00
-744,07	220,00
-736,09	143,00
-728,13	209,00
-720,17	196,00
-712,23	234,00
-704,29	156,00
-696,37	198,00
-688,45	166,00
-680,55	156,00
-672,65	136,00
-664,77	133,00
-656,89	273,00
-649,03	132,00
-641,17	192,00
-633,32	264,00
-625,49	221,00
-617,66	222,00
-609,84	240,00
-602,03	133,00
-594,23	227,00
-586,45	156,00
-578,67	171,00
-570,90	177,00
-563,14	218,00
-555,39	256,00
-547,65	293,00
-539,91	236,00
-532,19	180,00
-524,48	135,00
-516,78	116,00
-509,08	237,00
-501,40	169,00
-493,72	225,00
-486,06	159,00
-478,40	242,00
-470,76	146,00
-463,12	204,00
-455,49	178,00
-447,87	254,00
-440,26	235,00
-432,66	192,00
-425,07	146,00
-417,49	157,00
-409,92	220,00
-402,35	138,00
-394,80	168,00
-387,25	232,00
-379,72	258,00
-372,19	153,00
-364,67	155,00
-357,17	213,00
-349,67	150,00
-342,18	103,00
-334,69	304,00
-327,22	199,00
-319,76	152,00
-312,30	253,00
-304,86	283,00
-297,42	307,00
-290,00	172,00
-282,58	222,00
-275,17	301,00
-267,77	179,00
-260,37	154,00
-252,99	235,00
-245,62	275,00
-238,25	253,00
-230,90	277,00
-223,55	274,00
-216,21	251,00
-208,88	244,00
-201,56	324,00
-194,25	308,00
-186,94	259,00
-179,65	338,00
-172,36	348,00
-165,08	285,00
-157,81	461,00
-150,55	339,00
-143,30	400,00
-136,06	420,00
-128,82	415,00
-121,60	428,00
-114,38	475,00
-107,17	467,00
-99,97	491,00
-92,78	584,00
-85,60	792,00
-78,42	751,00
-71,25	885,00
-64,10	982,00
-56,95	1008,00
-49,81	1200,00
-42,67	1599,00
-35,55	1875,00
-28,43	2463,00
-21,33	3908,00
-14,23	12170,00
-7,14	57775,00
-0,05	57564,00
7,02	57281,00
14,09	44375,00
21,14	11565,00
28,19	4796,00
35,23	3160,00
42,27	2412,00
49,29	1945,00
56,31	1765,00
63,32	1502,00
70,32	1195,00
77,31	950,00
84,29	919,00
91,27	912,00
98,23	852,00
105,19	634,00
112,14	780,00
119,09	999,00
126,02	1512,00
132,95	1944,00
139,87	1975,00
146,78	1934,00
153,68	1882,00
160,58	1820,00
167,46	1752,00
174,34	1865,00
181,21	1867,00
188,08	1788,00
194,93	1822,00
201,78	1778,00
208,62	1751,00
215,45	1860,00
222,27	1818,00
229,09	1909,00
235,90	1895,00
242,70	1783,00
249,49	1786,00
256,27	1750,00
263,05	1826,00
269,82	1709,00
276,58	1764,00
283,33	1718,00
290,08	1797,00
296,82	1731,00
303,55	1730,00
310,27	1638,00
316,98	1663,00
323,69	1674,00
330,39	1680,00
337,08	1729,00
343,76	1675,00
350,44	1694,00
357,11	1760,00
363,77	1669,00
370,42	1643,00
377,07	1776,00
383,71	1671,00
390,34	1750,00
396,96	1670,00
403,58	1648,00
410,19	1792,00
416,79	1770,00
423,38	1803,00
429,97	1683,00
436,55	1542,00
443,12	1633,00
449,68	1489,00
456,24	1636,00
462,79	1594,00
469,33	1611,00
475,86	1663,00
482,39	1596,00
488,91	1600,00
495,42	1560,00
501,93	1597,00
508,42	1523,00
514,91	1615,00
521,40	1491,00
527,87	1562,00
534,34	1566,00
540,80	1669,00
547,25	1598,00
553,70	1618,00
560,14	1605,00
566,57	1555,00
573,00	1544,00
579,41	1699,00
585,83	1628,00
592,23	1600,00
598,62	1580,00
605,01	1575,00
611,40	1506,00
617,77	1649,00
624,14	1504,00
630,50	1635,00
636,85	1645,00
643,20	1568,00
649,54	1582,00
655,87	1616,00
662,20	1678,00
668,52	1593,00
674,83	1634,00
681,13	1619,00
687,43	1625,00
693,72	1594,00
700,00	1531,00
706,28	1500,00
712,55	1467,00
718,81	1538,00
725,07	1508,00
731,32	1588,00
737,56	1653,00
743,79	1568,00
750,02	1466,00
756,24	1612,00
762,46	1470,00
768,67	1640,00
774,87	1672,00
781,06	1614,00
787,25	1583,00
793,43	1629,00
799,60	1528,00
805,77	1729,00
811,93	1651,00
818,08	1578,00
824,23	1615,00
830,37	1723,00
836,50	1637,00
842,63	1610,00
848,75	1610,00
854,87	1708,00
860,97	1576,00
867,07	1602,00
873,17	1564,00
879,25	1612,00
885,33	1611,00
891,41	1634,00
897,47	1647,00
903,53	1662,00
909,59	1688,00
915,63	1648,00
921,67	1617,00
927,71	1613,00
933,74	1634,00
939,76	1530,00
945,77	1550,00
951,78	1600,00
957,78	1552,00
963,78	1600,00
969,77	1549,00
975,75	1647,00
981,72	1607,00
987,69	1706,00
993,66	1552,00
999,61	1696,00
1005,56	1634,00
1011,51	1588,00
1017,44	1608,00
1023,37	1605,00
1029,30	1649,00
1035,22	1769,00
1041,13	1652,00
1047,03	1704,00
1052,93	1754,00
1058,83	2065,00
1064,71	2069,00
1070,59	1941,00
1076,47	1876,00
1082,33	1760,00
1088,20	1801,00
1094,05	1812,00
1099,90	1699,00
1105,74	1612,00
1111,58	1678,00
1117,41	1848,00
1123,23	2005,00
1129,05	2263,00
1134,86	2064,00
1140,67	1902,00
1146,47	1719,00
1152,26	1760,00
1158,05	1654,00
1163,83	1710,00
1169,60	1744,00
1175,37	1800,00
1181,13	1635,00
1186,89	1686,00
1192,64	1581,00
1198,38	1671,00
1204,12	1666,00
1209,85	1691,00
1215,58	1679,00
1221,30	1729,00
1227,02	1654,00
1232,72	1654,00
1238,43	1612,00
1244,12	1755,00
1249,81	1796,00
1255,50	1763,00
1261,17	1781,00
1266,85	1746,00
1272,51	1872,00
1278,17	1869,00
1283,83	1903,00
1289,47	2120,00
1295,12	2503,00
1300,75	2406,00
1306,38	2082,00
1312,01	1927,00
1317,63	1809,00
1323,24	1840,00
1328,85	1904,00
1334,45	1861,00
1340,04	1762,00
1345,63	1733,00
1351,22	1923,00
1356,80	1767,00
1362,37	1825,00
1367,93	1759,00
1373,49	1792,00
1379,05	1861,00
1384,60	1774,00
1390,14	1732,00
1395,68	1861,00
1401,21	1750,00
1406,74	1888,00
1412,26	2031,00
1417,77	2256,00
1423,28	2104,00
1428,78	2223,00
1434,28	2293,00
1439,77	2401,00
1445,26	2512,00
1450,74	2449,00
1456,22	2290,00
1461,68	2321,00
1467,15	2195,00
1472,61	2056,00
1478,06	2021,00
1483,51	1830,00
1488,95	1945,00
1494,38	1856,00
1499,81	1736,00
1505,24	1754,00
1510,65	1769,00
1516,07	1788,00
1521,48	1749,00
1526,88	1612,00
1532,27	1717,00
1537,67	1664,00
1543,05	1733,00
1548,43	1588,00
1553,81	1724,00
1559,18	1640,00
1564,54	1658,00
1569,90	1713,00
1575,25	1588,00
1580,60	1583,00
1585,94	1623,00
1591,28	1668,00
1596,61	1638,00
1601,93	1677,00
1607,25	1645,00
1612,57	1600,00
1617,88	1640,00
1623,18	1539,00
1628,48	1633,00
1633,77	1516,00
1639,06	1524,00
1644,34	1558,00
1649,62	1618,00
1654,89	1630,00
1660,16	1615,00
1665,42	1609,00
1670,67	1543,00
1675,92	1556,00
1681,17	1628,00
1686,41	1577,00
1691,64	1682,00
1696,87	1591,00
1702,10	1456,00
1707,32	1577,00
1712,53	1565,00
1717,74	1551,00
1722,94	1473,00
1728,14	1554,00
1733,33	1463,00
1738,52	1486,00
1743,70	1619,00
1748,88	1486,00
1754,05	1423,00
1759,22	1448,00
1764,38	2651,00
1769,53	1428,00
1774,69	1504,00
1779,83	1423,00
1784,97	1499,00
1790,11	1462,00
1795,24	1407,00
1800,36	1510,00
1805,48	1451,00
1810,60	1480,00
1815,71	1507,00
1820,82	1453,00
1825,92	1453,00
1831,01	1338,00
1836,10	1396,00
1841,19	1448,00
1846,26	1416,00
1851,34	1409,00
1856,41	1422,00
1861,47	1481,00
1866,53	1407,00
1871,59	1366,00
1876,64	1497,00
1881,68	1365,00
1886,72	1507,00
1891,76	1300,00
1896,79	1419,00
1901,81	1403,00
1906,83	1337,00
1911,85	1315,00
1916,86	1340,00
1921,86	1311,00
1926,86	1328,00
1931,86	1281,00
1936,85	1358,00
1941,83	1356,00
1946,81	1262,00
1951,79	1368,00
1956,76	1224,00
1961,72	1256,00
1966,68	1268,00
1971,64	1266,00
1976,59	1234,00
1981,54	1289,00
1986,48	1238,00
1991,42	1229,00
1996,35	1366,00
2001,27	1243,00
2006,20	1131,00
2011,11	1280,00
2016,03	1388,00
2020,93	1264,00
2025,84	1282,00
2030,73	1230,00
2035,63	1079,00
2040,52	1197,00
2045,40	1344,00
2050,28	1219,00
2055,15	1285,00
2060,02	1148,00
2064,89	1202,00
2069,75	1194,00
2074,60	1178,00
2079,46	1202,00
2084,30	1189,00
2089,14	1248,00
2093,98	1315,00
2098,81	1273,00
2103,64	1305,00
2108,46	1292,00
2113,28	1292,00
2118,09	1263,00
2122,90	1298,00
2127,70	1192,00
2132,50	1314,00
2137,30	1132,00
2142,09	1173,00
2146,87	1176,00
2151,66	1196,00
2156,43	1241,00
2161,20	1184,00
2165,97	1163,00
2170,73	1100,00
2175,49	1150,00
2180,24	1131,00
2184,99	1130,00
2189,74	1144,00
2194,48	1115,00
2199,21	1169,00
2203,94	1187,00
2208,67	1070,00
2213,39	1022,00
2218,11	1154,00
2222,82	1189,00
2227,53	1104,00
2232,23	1215,00
2236,93	1114,00
2241,63	1190,00
2246,32	1114,00
2251,00	997,00
2255,68	1085,00
2260,36	1070,00
2265,03	1162,00
2269,70	1105,00
2274,36	988,00
2279,02	1095,00
2283,68	1034,00
2288,33	999,00
2292,97	1068,00
2297,61	1067,00
2302,25	957,00
2306,88	1034,00
2311,51	972,00
2316,14	994,00
2320,75	1076,00
2325,37	929,00
2329,98	1032,00
2334,59	1024,00
2339,19	1091,00
2343,79	893,00
2348,38	978,00
2352,97	986,00
2357,55	1036,00
2362,13	1040,00
2366,71	883,00
2371,28	923,00
2375,85	1015,00
2380,41	1022,00
2384,97	928,00
2389,52	974,00
2394,07	811,00
2398,62	1073,00
2403,16	934,00
2407,70	923,00
2412,23	971,00
2416,76	918,00
2421,29	1006,00
2425,81	976,00
2430,32	872,00
2434,84	934,00
2439,34	857,00
2443,85	964,00
2448,35	817,00
2452,84	880,00
2457,33	851,00
2461,82	930,00
2466,30	811,00
2470,78	882,00
2475,25	836,00
2479,72	808,00
2484,19	891,00
2488,65	942,00
2493,11	783,00
2497,56	832,00
2502,01	797,00
2506,46	744,00
2510,90	917,00
2515,34	817,00
2519,77	964,00
2524,20	751,00
2528,62	797,00
2533,04	905,00
2537,46	776,00
2541,87	754,00
2546,28	789,00
2550,68	805,00
2555,08	721,00
2559,48	730,00
2563,87	812,00
2568,26	774,00
2572,64	813,00
2577,02	867,00
2581,40	710,00
2585,77	759,00
2590,14	796,00
2594,50	776,00
2598,86	772,00
2603,22	716,00
2607,57	770,00
2611,92	815,00
2616,26	755,00
2620,60	832,00
2624,94	799,00
2629,27	813,00
2633,60	665,00
2637,92	775,00
2642,24	689,00
2646,56	588,00
2650,87	798,00
2655,18	781,00
2659,48	648,00
2663,78	685,00
2668,08	662,00
2672,37	751,00
2676,66	792,00
2680,95	683,00
2685,23	691,00
2689,50	694,00
2693,78	688,00
2698,05	718,00
2702,31	742,00
2706,57	748,00
2710,83	845,00
2715,08	825,00
2719,33	812,00
2723,58	818,00
2727,82	776,00
2732,06	812,00
2736,29	696,00
2740,53	784,00
2744,75	612,00
2748,97	748,00
2753,19	805,00
2757,41	697,00
2761,62	778,00
2765,83	844,00
2770,03	772,00
2774,23	718,00
2778,43	699,00
2782,62	586,00
2786,81	707,00
2791,00	746,00
2795,18	734,00
2799,35	763,00
2803,53	783,00
2807,70	742,00
2811,86	638,00
2816,03	811,00
2820,19	834,00
2824,34	817,00
2828,49	882,00
2832,64	884,00
2836,78	1093,00
2840,92	1288,00
2845,06	1492,00
2849,19	1465,00
2853,32	1549,00
2857,45	1548,00
2861,57	1523,00
2865,69	1498,00
2869,80	1345,00
2873,91	1450,00
2878,02	1480,00
2882,12	1681,00
2886,22	1669,00
2890,32	1583,00
2894,41	1486,00
2898,50	1392,00
2902,58	1335,00
2906,67	1190,00
2910,74	1128,00
2914,82	1030,00
2918,89	1029,00
2922,96	949,00
2927,02	967,00
2931,08	850,00
2935,13	818,00
2939,19	851,00
2943,24	964,00
2947,28	760,00
2951,32	648,00
2955,36	667,00
2959,40	642,00
2963,43	720,00
2967,46	546,00
2971,48	528,00
2975,50	579,00
2979,52	636,00
2983,53	645,00
2987,54	586,00
2991,55	605,00
2995,55	555,00
2999,55	510,00
3003,54	526,00
3007,54	563,00
3011,53	513,00
3015,51	459,00
3019,49	514,00
3023,47	517,00
3027,45	463,00
3031,42	462,00
3035,39	420,00
3039,35	450,00
3043,31	502,00
3047,27	419,00
3051,22	476,00
3055,17	398,00
3059,12	382,00
3063,06	380,00
3067,00	397,00
3070,94	421,00
3074,87	382,00
3078,80	400,00
3082,73	393,00
3086,65	341,00
3090,57	388,00
3094,49	373,00
3098,40	435,00
3102,31	363,00
3106,22	489,00
3110,12	407,00
3114,02	389,00
3117,92	356,00
3121,81	276,00
3125,70	375,00
3129,58	373,00
3133,47	369,00
3137,34	447,00
3141,22	373,00
3145,09	422,00
3148,96	347,00
3152,83	316,00
3156,69	366,00
3160,55	332,00
3164,40	400,00
3168,26	364,00
3172,10	361,00
3175,95	367,00
3179,79	409,00
3183,63	297,00
3187,47	375,00
3191,30	287,00
3195,13	459,00
3198,95	286,00
3202,78	430,00
3206,60	250,00
3210,41	319,00
3214,23	286,00
3218,03	363,00
3221,84	295,00
3225,64	260,00
3229,44	325,00
3233,24	365,00
3237,03	302,00
3240,82	300,00
3244,61	318,00
3248,39	322,00
3252,17	360,00
3255,95	327,00
3259,72	356,00
3263,49	398,00
3267,26	262,00
3271,03	263,00
3274,79	401,00
3278,54	362,00
3282,30	230,00
3286,05	303,00
3289,80	333,00
3293,54	368,00
3297,29	339,00
3301,02	252,00
3304,76	223,00
3308,49	412,00
3312,22	273,00
3315,95	249,00
3319,67	293,00
3323,39	345,00
3327,10	302,00
3330,82	225,00
3334,53	244,00
3338,24	212,00
3341,94	281,00
3345,64	250,00
3349,34	326,00
3353,03	295,00
3356,72	200,00
3360,41	244,00
3364,10	229,00
3367,78	295,00
3371,46	331,00
3375,13	275,00
3378,81	220,00
3382,48	280,00
3386,14	281,00
3389,81	305,00
3393,47	217,00
3397,12	329,00
3400,78	235,00
3404,43	262,00
3408,08	215,00
3411,72	174,00
3415,36	251,00
3419,00	223,00
3422,64	298,00
3426,27	236,00
3429,90	271,00
3433,53	271,00
3437,15	243,00
3440,77	178,00
3444,39	153,00
3448,00	279,00
3451,62	271,00
3455,22	207,00
3458,83	259,00
3462,43	223,00
3466,03	317,00
3469,63	196,00
3473,22	276,00
3476,81	160,00
3480,40	283,00
3483,99	261,00
3487,57	280,00
3491,15	240,00
3494,72	318,00
3498,29	195,00
3501,86	236,00
3505,43	290,00
3508,99	243,00
3512,56	223,00
3516,11	270,00
3519,67	208,00
3523,22	195,00
3526,77	257,00
3530,32	215,00
3533,86	245,00
3537,40	195,00
3540,94	310,00
3544,47	221,00
3548,00	166,00
3551,53	182,00
3555,06	141,00
3558,58	238,00
3562,10	193,00
3565,62	230,00
3569,13	171,00
3572,64	109,00
3576,15	178,00
3579,66	188,00
3583,16	236,00
3586,66	172,00
3590,16	179,00
3593,65	227,00
3597,14	212,00
3600,63	216,00
3604,11	320,00
3607,60	162,00
3611,08	205,00
3614,55	131,00
3618,03	106,00
3621,50	176,00
3624,97	179,00
3628,43	236,00
3631,90	234,00
3635,36	101,00
3638,81	146,00
3642,27	272,00
3645,72	248,00
3649,17	250,00
3652,61	185,00
3656,06	131,00
3659,50	207,00
3662,93	141,00
3666,37	199,00
3669,80	237,00
3673,23	222,00
3676,65	224,00
3680,08	191,00
3683,50	217,00
3686,92	215,00
3690,33	139,00
3693,74	186,00
3697,15	134,00
3700,56	135,00
3703,96	236,00
3707,36	166,00
3710,76	196,00
3714,16	225,00
3717,55	119,00
3720,94	234,00
3724,33	183,00
3727,71	245,00
3731,10	150,00
3734,48	95,00
3737,85	166,00
3741,23	78,00
3744,60	216,00
3747,97	177,00
3751,33	161,00
3754,69	182,00
3758,05	183,00
3761,41	95,00
3764,77	117,00
3768,12	120,00
3771,47	274,00
3774,82	131,00
3778,16	-3,00
3781,50	7,00
3784,84	0,00
3788,18	1,00
>>>>>End Processed Spectral Data<<<<<
