SpectraSuite Data File
++++++++++++++++++++++++++++++++++++
Date: Mon Mar 09 15:10:47 ICT 2026
User: Administrator
Dark Spectrum Present: Yes
Reference Spectrum Present: No
Number of Sampled Component Spectra: 1
Spectrometers: MAYP113682
Integration Time (usec): 3000000 (MAYP113682)
Spectra Averaged: 1 (MAYP113682)
Boxcar Smoothing: 0 (MAYP113682)
Correct for Electrical Dark: No (MAYP113682)
Strobe/Lamp Enabled: No (MAYP113682)
Correct for Detector Non-linearity: No (MAYP113682)
Correct for Stray Light: No (MAYP113682)
Number of Pixels in Processed Spectrum: 2068
>>>>>Begin Processed Spectral Data<<<<<
-37534,58	6,00
-37414,56	-1,00
-37295,11	1,00
-37176,24	-3,00
-37057,95	76,00
-36940,22	145,00
-36823,05	83,00
-36706,45	137,00
-36590,40	139,00
-36474,90	74,00
-36359,95	137,00
-36245,55	221,00
-36131,68	16,00
-36018,35	132,00
-35905,55	112,00
-35793,29	141,00
-35681,54	137,00
-35570,32	145,00
-35459,62	131,00
-35349,43	177,00
-35239,75	263,00
-35130,58	108,00
-35021,91	139,00
-34913,74	159,00
-34806,07	184,00
-34698,89	132,00
-34592,20	91,00
-34486,00	163,00
-34380,28	91,00
-34275,04	177,00
-34170,27	98,00
-34065,98	111,00
-33962,16	62,00
-33858,81	125,00
-33755,92	134,00
-33653,49	176,00
-33551,52	151,00
-33450,01	163,00
-33348,94	191,00
-33248,33	150,00
-33148,16	143,00
-33048,43	155,00
-32949,14	79,00
-32850,29	57,00
-32751,87	98,00
-32653,89	124,00
-32556,33	197,00
-32459,20	119,00
-32362,49	147,00
-32266,19	80,00
-32170,32	124,00
-32074,86	198,00
-31979,82	168,00
-31885,18	153,00
-31790,95	0,00
-31697,12	72,00
-31603,69	157,00
-31510,67	206,00
-31418,04	169,00
-31325,80	250,00
-31233,95	166,00
-31142,49	189,00
-31051,42	133,00
-30960,73	133,00
-30870,43	247,00
-30780,50	95,00
-30690,95	142,00
-30601,77	178,00
-30512,97	143,00
-30424,53	131,00
-30336,46	107,00
-30248,76	63,00
-30161,42	205,00
-30074,44	50,00
-29987,81	125,00
-29901,55	122,00
-29815,63	121,00
-29730,07	227,00
-29644,86	142,00
-29560,00	132,00
-29475,48	133,00
-29391,30	128,00
-29307,47	166,00
-29223,97	93,00
-29140,81	172,00
-29057,99	61,00
-28975,50	198,00
-28893,34	116,00
-28811,51	254,00
-28730,00	180,00
-28648,82	154,00
-28567,97	120,00
-28487,43	157,00
-28407,21	147,00
-28327,32	128,00
-28247,73	85,00
-28168,46	98,00
-28089,50	160,00
-28010,85	118,00
-27932,51	156,00
-27854,48	-13,00
-27776,75	140,00
-27699,32	-18,00
-27622,19	76,00
-27545,37	189,00
-27468,84	75,00
-27392,60	216,00
-27316,66	57,00
-27241,01	143,00
-27165,66	141,00
-27090,59	0,00
-27015,81	148,00
-26941,31	152,00
-26867,10	86,00
-26793,17	66,00
-26719,52	168,00
-26646,15	179,00
-26573,06	165,00
-26500,24	204,00
-26427,70	218,00
-26355,43	144,00
-26283,43	180,00
-26211,71	209,00
-26140,25	219,00
-26069,06	259,00
-25998,13	145,00
-25927,46	131,00
-25857,06	103,00
-25786,92	72,00
-25717,04	294,00
-25647,42	124,00
-25578,05	108,00
-25508,94	101,00
-25440,09	233,00
-25371,48	118,00
-25303,13	135,00
-25235,02	152,00
-25167,17	141,00
-25099,56	221,00
-25032,19	129,00
-24965,07	118,00
-24898,20	88,00
-24831,56	80,00
-24765,17	142,00
-24699,01	63,00
-24633,10	180,00
-24567,41	126,00
-24501,97	96,00
-24436,75	183,00
-24371,77	104,00
-24307,03	136,00
-24242,51	60,00
-24178,22	202,00
-24114,16	0,00
-24050,32	231,00
-23986,71	41,00
-23923,32	183,00
-23860,16	258,00
-23797,22	97,00
-23734,50	206,00
-23672,00	-12,00
-23609,71	95,00
-23547,65	203,00
-23485,80	67,00
-23424,16	73,00
-23362,74	155,00
-23301,53	6,00
-23240,54	188,00
-23179,75	26,00
-23119,17	168,00
-23058,80	-6,00
-22998,64	219,00
-22938,68	71,00
-22878,93	137,00
-22819,39	141,00
-22760,04	127,00
-22700,90	163,00
-22641,96	171,00
-22583,22	56,00
-22524,68	179,00
-22466,33	198,00
-22408,19	98,00
-22350,23	104,00
-22292,48	181,00
-22234,92	174,00
-22177,55	120,00
-22120,37	220,00
-22063,38	94,00
-22006,58	173,00
-21949,98	175,00
-21893,56	133,00
-21837,33	152,00
-21781,28	166,00
-21725,42	48,00
-21669,74	95,00
-21614,25	157,00
-21558,94	185,00
-21503,81	165,00
-21448,86	78,00
-21394,10	113,00
-21339,51	44,00
-21285,10	157,00
-21230,86	133,00
-21176,81	199,00
-21122,93	178,00
-21069,22	181,00
-21015,69	34,00
-20962,33	182,00
-20909,14	163,00
-20856,13	129,00
-20803,28	116,00
-20750,61	176,00
-20698,10	126,00
-20645,76	165,00
-20593,59	334,00
-20541,59	72,00
-20489,75	69,00
-20438,07	138,00
-20386,56	142,00
-20335,22	76,00
-20284,03	123,00
-20233,01	156,00
-20182,15	114,00
-20131,45	161,00
-20080,91	-21,00
-20030,52	30,00
-19980,30	103,00
-19930,23	62,00
-19880,32	171,00
-19830,56	81,00
-19780,96	122,00
-19731,52	211,00
-19682,23	90,00
-19633,09	73,00
-19584,10	150,00
-19535,26	96,00
-19486,58	219,00
-19438,04	195,00
-19389,66	160,00
-19341,42	141,00
-19293,33	117,00
-19245,39	92,00
-19197,60	238,00
-19149,95	53,00
-19102,45	68,00
-19055,09	105,00
-19007,87	143,00
-18960,80	69,00
-18913,87	133,00
-18867,09	82,00
-18820,44	127,00
-18773,94	121,00
-18727,57	213,00
-18681,35	153,00
-18635,26	263,00
-18589,31	114,00
-18543,50	131,00
-18497,83	124,00
-18452,29	92,00
-18406,89	147,00
-18361,63	241,00
-18316,50	235,00
-18271,50	175,00
-18226,63	160,00
-18181,90	84,00
-18137,30	147,00
-18092,84	110,00
-18048,50	112,00
-18004,29	138,00
-17960,22	28,00
-17916,27	255,00
-17872,45	168,00
-17828,76	113,00
-17785,20	183,00
-17741,77	94,00
-17698,46	130,00
-17655,28	156,00
-17612,22	116,00
-17569,29	105,00
-17526,48	126,00
-17483,79	78,00
-17441,23	180,00
-17398,79	113,00
-17356,48	171,00
-17314,28	270,00
-17272,21	199,00
-17230,26	42,00
-17188,42	94,00
-17146,71	274,00
-17105,12	103,00
-17063,64	233,00
-17022,28	175,00
-16981,04	157,00
-16939,92	205,00
-16898,91	29,00
-16858,02	78,00
-16817,25	62,00
-16776,59	184,00
-16736,04	132,00
-16695,61	169,00
-16655,29	108,00
-16615,09	166,00
-16574,99	64,00
-16535,01	178,00
-16495,15	51,00
-16455,39	186,00
-16415,74	65,00
-16376,21	109,00
-16336,78	148,00
-16297,46	47,00
-16258,26	93,00
-16219,16	108,00
-16180,17	198,00
-16141,28	137,00
-16102,51	75,00
-16063,84	130,00
-16025,27	110,00
-15986,82	124,00
-15948,46	213,00
-15910,22	215,00
-15872,07	120,00
-15834,04	185,00
-15796,10	78,00
-15758,27	188,00
-15720,54	21,00
-15682,91	45,00
-15645,39	188,00
-15607,97	152,00
-15570,64	233,00
-15533,42	221,00
-15496,30	211,00
-15459,28	59,00
-15422,36	119,00
-15385,54	222,00
-15348,82	138,00
-15312,19	117,00
-15275,66	157,00
-15239,23	131,00
-15202,90	76,00
-15166,67	231,00
-15130,53	132,00
-15094,48	104,00
-15058,54	166,00
-15022,68	50,00
-14986,93	179,00
-14951,26	119,00
-14915,69	63,00
-14880,22	164,00
-14844,84	178,00
-14809,55	87,00
-14774,35	185,00
-14739,25	212,00
-14704,24	129,00
-14669,32	81,00
-14634,49	-39,00
-14599,75	107,00
-14565,10	125,00
-14530,55	51,00
-14496,08	212,00
-14461,70	175,00
-14427,41	123,00
-14393,21	199,00
-14359,10	60,00
-14325,07	140,00
-14291,14	100,00
-14257,29	175,00
-14223,52	97,00
-14189,85	360,00
-14156,26	252,00
-14122,76	135,00
-14089,34	56,00
-14056,01	159,00
-14022,76	99,00
-13989,60	212,00
-13956,52	95,00
-13923,53	125,00
-13890,62	114,00
-13857,79	53,00
-13825,05	116,00
-13792,39	74,00
-13759,81	322,00
-13727,31	92,00
-13694,90	224,00
-13662,57	38,00
-13630,31	137,00
-13598,14	65,00
-13566,05	193,00
-13534,05	255,00
-13502,12	60,00
-13470,27	198,00
-13438,50	151,00
-13406,80	77,00
-13375,19	159,00
-13343,66	112,00
-13312,20	223,00
-13280,83	91,00
-13249,53	144,00
-13218,30	180,00
-13187,16	138,00
-13156,09	169,00
-13125,10	94,00
-13094,18	177,00
-13063,34	126,00
-13032,58	291,00
-13001,89	144,00
-12971,28	20,00
-12940,74	151,00
-12910,27	18,00
-12879,88	155,00
-12849,57	99,00
-12819,33	103,00
-12789,16	141,00
-12759,06	40,00
-12729,04	105,00
-12699,09	-1061,00
-12669,21	187,00
-12639,41	114,00
-12609,68	98,00
-12580,02	208,00
-12550,43	103,00
-12520,91	166,00
-12491,46	74,00
-12462,08	100,00
-12432,77	69,00
-12403,54	7,00
-12374,37	166,00
-12345,27	169,00
-12316,24	189,00
-12287,29	112,00
-12258,40	96,00
-12229,57	52,00
-12200,82	240,00
-12172,14	192,00
-12143,52	194,00
-12114,97	230,00
-12086,49	177,00
-12058,07	43,00
-12029,73	49,00
-12001,44	54,00
-11973,23	186,00
-11945,08	156,00
-11917,00	119,00
-11888,98	128,00
-11861,03	132,00
-11833,15	115,00
-11805,32	195,00
-11777,57	155,00
-11749,88	130,00
-11722,25	164,00
-11694,69	122,00
-11667,19	53,00
-11639,75	152,00
-11612,38	89,00
-11585,07	181,00
-11557,83	176,00
-11530,65	-22,00
-11503,53	58,00
-11476,47	96,00
-11449,48	107,00
-11422,54	67,00
-11395,67	206,00
-11368,86	230,00
-11342,11	160,00
-11315,43	256,00
-11288,80	49,00
-11262,23	204,00
-11235,73	178,00
-11209,28	61,00
-11182,90	191,00
-11156,57	90,00
-11130,31	185,00
-11104,10	161,00
-11077,96	229,00
-11051,87	204,00
-11025,84	61,00
-10999,87	192,00
-10973,96	217,00
-10948,11	92,00
-10922,31	75,00
-10896,58	227,00
-10870,90	110,00
-10845,28	111,00
-10819,71	233,00
-10794,20	137,00
-10768,75	130,00
-10743,36	204,00
-10718,02	76,00
-10692,74	68,00
-10667,52	157,00
-10642,35	83,00
-10617,24	194,00
-10592,18	171,00
-10567,18	117,00
-10542,23	219,00
-10517,34	176,00
-10492,51	218,00
-10467,72	46,00
-10443,00	90,00
-10418,32	237,00
-10393,70	201,00
-10369,14	269,00
-10344,63	158,00
-10320,17	127,00
-10295,77	188,00
-10271,42	126,00
-10247,12	233,00
-10222,88	105,00
-10198,68	141,00
-10174,54	157,00
-10150,46	189,00
-10126,42	195,00
-10102,44	208,00
-10078,51	50,00
-10054,63	192,00
-10030,80	110,00
-10007,03	253,00
-9983,30	211,00
-9959,63	150,00
-9936,01	239,00
-9912,44	178,00
-9888,92	154,00
-9865,44	221,00
-9842,02	252,00
-9818,65	322,00
-9795,33	127,00
-9772,06	164,00
-9748,84	238,00
-9725,67	195,00
-9702,55	197,00
-9679,47	135,00
-9656,45	289,00
-9633,47	251,00
-9610,55	297,00
-9587,67	255,00
-9564,84	376,00
-9542,06	213,00
-9519,32	215,00
-9496,64	338,00
-9474,00	413,00
-9451,41	348,00
-9428,87	321,00
-9406,37	347,00
-9383,92	97,00
-9361,52	6,00
-9339,17	107,00
-9316,86	343,00
-9294,60	280,00
-9272,38	441,00
-9250,21	594,00
-9228,09	593,00
-9206,01	480,00
-9183,98	329,00
-9162,00	305,00
-9140,06	206,00
-9118,16	215,00
-9096,31	380,00
-9074,51	399,00
-9052,75	514,00
-9031,04	384,00
-9009,37	346,00
-8987,74	287,00
-8966,16	273,00
-8944,63	208,00
-8923,14	183,00
-8901,69	5,00
-8880,29	285,00
-8858,93	428,00
-8837,61	376,00
-8816,34	530,00
-8795,11	506,00
-8773,92	514,00
-8752,78	436,00
-8731,68	316,00
-8710,62	411,00
-8689,61	220,00
-8668,63	553,00
-8647,70	523,00
-8626,82	550,00
-8605,97	454,00
-8585,17	517,00
-8564,41	296,00
-8543,69	319,00
-8523,01	215,00
-8502,37	274,00
-8481,78	299,00
-8461,23	490,00
-8440,71	538,00
-8420,24	410,00
-8399,81	536,00
-8379,42	462,00
-8359,08	385,00
-8338,77	385,00
-8318,50	468,00
-8298,27	364,00
-8278,09	446,00
-8257,94	523,00
-8237,83	563,00
-8217,76	519,00
-8197,74	535,00
-8177,75	561,00
-8157,80	464,00
-8137,89	424,00
-8118,02	491,00
-8098,19	499,00
-8078,40	445,00
-8058,65	502,00
-8038,93	476,00
-8019,26	510,00
-7999,62	486,00
-7980,02	477,00
-7960,46	393,00
-7940,94	382,00
-7921,46	432,00
-7902,01	424,00
-7882,60	352,00
-7863,23	420,00
-7843,90	403,00
-7824,61	385,00
-7805,35	539,00
-7786,13	460,00
-7766,95	563,00
-7747,80	468,00
-7728,69	519,00
-7709,62	307,00
-7690,59	520,00
-7671,59	518,00
-7652,63	412,00
-7633,70	520,00
-7614,81	502,00
-7595,96	431,00
-7577,15	329,00
-7558,37	468,00
-7539,62	477,00
-7520,91	422,00
-7502,24	406,00
-7483,60	476,00
-7465,00	444,00
-7446,44	432,00
-7427,91	307,00
-7409,41	279,00
-7390,95	187,00
-7372,53	222,00
-7354,14	222,00
-7335,78	266,00
-7317,46	356,00
-7299,18	276,00
-7280,92	397,00
-7262,71	469,00
-7244,52	456,00
-7226,38	433,00
-7208,26	582,00
-7190,18	452,00
-7172,14	294,00
-7154,12	396,00
-7136,15	339,00
-7118,20	418,00
-7100,29	360,00
-7082,41	426,00
-7064,57	444,00
-7046,76	554,00
-7028,98	273,00
-7011,24	279,00
-6993,53	210,00
-6975,85	160,00
-6958,20	135,00
-6940,59	248,00
-6923,01	133,00
-6905,46	250,00
-6887,94	95,00
-6870,46	2813,00
-6853,01	268,00
-6835,59	273,00
-6818,21	361,00
-6800,85	402,00
-6783,53	219,00
-6766,24	150,00
-6748,98	202,00
-6731,76	25,00
-6714,56	43,00
-6697,40	35,00
-6680,26	66,00
-6663,16	209,00
-6646,09	174,00
-6629,05	246,00
-6612,05	250,00
-6595,07	214,00
-6578,13	192,00
-6561,21	7,00
-6544,33	143,00
-6527,47	44,00
-6510,65	84,00
-6493,86	-77,00
-6477,10	14,00
-6460,36	-8,00
-6443,66	166,00
-6426,99	62,00
-6410,35	189,00
-6393,74	16,00
-6377,16	183,00
-6360,61	186,00
-6344,09	106,00
-6327,59	180,00
-6311,13	176,00
-6294,70	327,00
-6278,29	178,00
-6261,92	274,00
-6245,58	242,00
-6229,26	208,00
-6212,97	205,00
-6196,72	126,00
-6180,49	89,00
-6164,29	49,00
-6148,12	-9,00
-6131,98	58,00
-6115,86	-79,00
-6099,78	22,00
-6083,72	-31,00
-6067,69	-26,00
-6051,69	56,00
-6035,72	0,00
-6019,78	141,00
-6003,87	87,00
-5987,98	103,00
-5972,12	259,00
-5956,29	189,00
-5940,49	151,00
-5924,71	135,00
-5908,96	72,00
-5893,24	42,00
-5877,55	154,00
-5861,89	-49,00
-5846,25	44,00
-5830,64	13,00
-5815,05	37,00
-5799,50	-12,00
-5783,97	187,00
-5768,47	210,00
-5752,99	101,00
-5737,55	184,00
-5722,12	239,00
-5706,73	137,00
-5691,36	114,00
-5676,02	92,00
-5660,71	57,00
-5645,42	33,00
-5630,16	138,00
-5614,92	121,00
-5599,71	65,00
-5584,53	227,00
-5569,37	67,00
-5554,24	-599,00
-5539,14	97,00
-5524,06	10,00
-5509,01	34,00
-5493,98	158,00
-5478,98	31,00
-5464,00	49,00
-5449,05	56,00
-5434,13	-16,00
-5419,23	116,00
-5404,36	201,00
-5389,51	97,00
-5374,69	138,00
-5359,89	159,00
-5345,12	180,00
-5330,37	173,00
-5315,65	168,00
-5300,95	110,00
-5286,28	178,00
-5271,63	21,00
-5257,01	98,00
-5242,41	143,00
-5227,84	25,00
-5213,29	38,00
-5198,76	44,00
-5184,26	140,00
-5169,79	70,00
-5155,33	56,00
-5140,91	29,00
-5126,51	167,00
-5112,13	60,00
-5097,77	221,00
-5083,44	6,00
-5069,13	145,00
-5054,85	73,00
-5040,59	82,00
-5026,36	42,00
-5012,15	46,00
-4997,96	57,00
-4983,80	90,00
-4969,66	125,00
-4955,54	213,00
-4941,44	126,00
-4927,37	223,00
-4913,33	240,00
-4899,30	236,00
-4885,30	268,00
-4871,33	218,00
-4857,37	260,00
-4843,44	21,00
-4829,53	196,00
-4815,65	163,00
-4801,79	14,00
-4787,95	-1,00
-4774,13	95,00
-4760,34	266,00
-4746,56	48,00
-4732,82	157,00
-4719,09	178,00
-4705,38	186,00
-4691,70	215,00
-4678,04	200,00
-4664,41	142,00
-4650,79	344,00
-4637,20	105,00
-4623,63	127,00
-4610,08	124,00
-4596,56	59,00
-4583,05	187,00
-4569,57	120,00
-4556,11	117,00
-4542,67	125,00
-4529,25	28,00
-4515,86	57,00
-4502,49	173,00
-4489,13	117,00
-4475,80	200,00
-4462,49	232,00
-4449,21	194,00
-4435,94	119,00
-4422,70	182,00
-4409,47	155,00
-4396,27	171,00
-4383,09	116,00
-4369,93	112,00
-4356,79	87,00
-4343,67	46,00
-4330,58	128,00
-4317,50	115,00
-4304,45	195,00
-4291,41	188,00
-4278,40	167,00
-4265,41	187,00
-4252,44	264,00
-4239,49	270,00
-4226,55	279,00
-4213,65	61,00
-4200,76	21,00
-4187,89	147,00
-4175,04	94,00
-4162,21	122,00
-4149,40	162,00
-4136,61	192,00
-4123,85	183,00
-4111,10	112,00
-4098,37	241,00
-4085,66	104,00
-4072,98	82,00
-4060,31	140,00
-4047,66	88,00
-4035,04	233,00
-4022,43	164,00
-4009,84	190,00
-3997,27	84,00
-3984,72	78,00
-3972,19	306,00
-3959,69	45,00
-3947,20	67,00
-3934,73	132,00
-3922,27	103,00
-3909,84	94,00
-3897,43	227,00
-3885,04	213,00
-3872,67	164,00
-3860,31	153,00
-3847,98	56,00
-3835,66	208,00
-3823,36	98,00
-3811,09	15,00
-3798,83	96,00
-3786,59	152,00
-3774,37	123,00
-3762,17	127,00
-3749,98	138,00
-3737,82	205,00
-3725,67	161,00
-3713,55	117,00
-3701,44	-39,00
-3689,35	146,00
-3677,28	133,00
-3665,22	116,00
-3653,19	140,00
-3641,17	106,00
-3629,18	189,00
-3617,20	144,00
-3605,24	110,00
-3593,30	87,00
-3581,37	96,00
-3569,47	69,00
-3557,58	229,00
-3545,71	89,00
-3533,86	210,00
-3522,02	123,00
-3510,21	95,00
-3498,41	102,00
-3486,63	166,00
-3474,87	238,00
-3463,12	66,00
-3451,40	80,00
-3439,69	93,00
-3428,00	167,00
-3416,33	246,00
-3404,67	124,00
-3393,03	196,00
-3381,41	114,00
-3369,81	184,00
-3358,22	127,00
-3346,66	105,00
-3335,10	132,00
-3323,57	151,00
-3312,06	71,00
-3300,56	198,00
-3289,08	249,00
-3277,61	200,00
-3266,16	152,00
-3254,73	204,00
-3243,32	80,00
-3231,92	49,00
-3220,55	144,00
-3209,18	134,00
-3197,84	33,00
-3186,51	123,00
-3175,20	136,00
-3163,90	148,00
-3152,63	114,00
-3141,36	224,00
-3130,12	107,00
-3118,89	202,00
-3107,68	170,00
-3096,49	151,00
-3085,31	204,00
-3074,15	153,00
-3063,00	70,00
-3051,87	118,00
-3040,76	6,00
-3029,67	115,00
-3018,59	98,00
-3007,52	94,00
-2996,48	89,00
-2985,44	181,00
-2974,43	190,00
-2963,43	115,00
-2952,45	165,00
-2941,48	93,00
-2930,53	98,00
-2919,60	139,00
-2908,68	129,00
-2897,78	103,00
-2886,89	175,00
-2876,02	81,00
-2865,17	137,00
-2854,33	240,00
-2843,50	191,00
-2832,70	89,00
-2821,90	32,00
-2811,13	160,00
-2800,37	187,00
-2789,62	325,00
-2778,89	76,00
-2768,18	220,00
-2757,48	193,00
-2746,80	184,00
-2736,13	49,00
-2725,48	127,00
-2714,84	153,00
-2704,22	133,00
-2693,61	130,00
-2683,02	219,00
-2672,45	163,00
-2661,89	144,00
-2651,34	76,00
-2640,81	93,00
-2630,30	180,00
-2619,80	48,00
-2609,31	128,00
-2598,84	187,00
-2588,39	130,00
-2577,95	77,00
-2567,52	139,00
-2557,11	74,00
-2546,71	145,00
-2536,33	114,00
-2525,97	94,00
-2515,62	113,00
-2505,28	176,00
-2494,96	108,00
-2484,65	169,00
-2474,36	218,00
-2464,08	90,00
-2453,82	72,00
-2443,57	97,00
-2433,33	99,00
-2423,11	182,00
-2412,91	169,00
-2402,72	157,00
-2392,54	159,00
-2382,38	162,00
-2372,23	102,00
-2362,09	191,00
-2351,97	14,00
-2341,87	147,00
-2331,78	92,00
-2321,70	153,00
-2311,64	205,00
-2301,59	90,00
-2291,55	291,00
-2281,53	173,00
-2271,53	208,00
-2261,53	149,00
-2251,55	223,00
-2241,59	116,00
-2231,64	168,00
-2221,70	218,00
-2211,78	97,00
-2201,87	86,00
-2191,97	96,00
-2182,09	89,00
-2172,22	226,00
-2162,37	161,00
-2152,53	191,00
-2142,70	68,00
-2132,89	150,00
-2123,09	155,00
-2113,30	112,00
-2103,53	120,00
-2093,77	215,00
-2084,02	127,00
-2074,29	75,00
-2064,57	149,00
-2054,86	137,00
-2045,17	219,00
-2035,49	152,00
-2025,82	84,00
-2016,17	112,00
-2006,53	109,00
-1996,91	205,00
-1987,29	159,00
-1977,69	215,00
-1968,11	270,00
-1958,53	180,00
-1948,97	32,00
-1939,42	92,00
-1929,89	149,00
-1920,37	97,00
-1910,86	107,00
-1901,36	134,00
-1891,88	134,00
-1882,41	202,00
-1872,95	59,00
-1863,51	48,00
-1854,08	183,00
-1844,66	138,00
-1835,26	181,00
-1825,86	157,00
-1816,48	188,00
-1807,11	143,00
-1797,76	141,00
-1788,42	170,00
-1779,09	211,00
-1769,77	164,00
-1760,47	181,00
-1751,17	114,00
-1741,89	134,00
-1732,63	133,00
-1723,37	247,00
-1714,13	207,00
-1704,90	131,00
-1695,68	84,00
-1686,48	72,00
-1677,29	177,00
-1668,11	106,00
-1658,94	277,00
-1649,78	152,00
-1640,64	128,00
-1631,51	279,00
-1622,39	161,00
-1613,28	192,00
-1604,19	48,00
-1595,10	52,00
-1586,03	66,00
-1576,97	123,00
-1567,93	184,00
-1558,89	162,00
-1549,87	147,00
-1540,86	48,00
-1531,86	125,00
-1522,87	193,00
-1513,90	120,00
-1504,93	111,00
-1495,98	128,00
-1487,04	100,00
-1478,12	85,00
-1469,20	149,00
-1460,30	91,00
-1451,40	170,00
-1442,52	21,00
-1433,65	175,00
-1424,80	223,00
-1415,95	207,00
-1407,12	128,00
-1398,30	38,00
-1389,48	159,00
-1380,69	138,00
-1371,90	97,00
-1363,12	125,00
-1354,36	242,00
-1345,60	112,00
-1336,86	81,00
-1328,13	179,00
-1319,41	106,00
-1310,70	114,00
-1302,01	251,00
-1293,32	169,00
-1284,65	108,00
-1275,99	100,00
-1267,33	12,00
-1258,69	146,00
-1250,06	33,00
-1241,45	121,00
-1232,84	105,00
-1224,25	113,00
-1215,66	182,00
-1207,09	135,00
-1198,53	154,00
-1189,97	132,00
-1181,43	110,00
-1172,91	55,00
-1164,39	139,00
-1155,88	189,00
-1147,38	67,00
-1138,90	170,00
-1130,43	164,00
-1121,96	137,00
-1113,51	145,00
-1105,07	213,00
-1096,64	151,00
-1088,22	212,00
-1079,81	139,00
-1071,41	161,00
-1063,02	44,00
-1054,65	174,00
-1046,28	133,00
-1037,92	194,00
-1029,58	61,00
-1021,24	176,00
-1012,92	222,00
-1004,61	166,00
-996,30	120,00
-988,01	95,00
-979,73	102,00
-971,46	216,00
-963,20	47,00
-954,95	76,00
-946,71	58,00
-938,48	122,00
-930,26	140,00
-922,06	94,00
-913,86	110,00
-905,67	112,00
-897,49	209,00
-889,33	137,00
-881,17	215,00
-873,02	419,00
-864,89	103,00
-856,76	162,00
-848,65	121,00
-840,54	225,00
-832,45	133,00
-824,36	121,00
-816,29	136,00
-808,22	196,00
-800,17	164,00
-792,12	153,00
-784,09	138,00
-776,06	57,00
-768,05	147,00
-760,04	150,00
-752,05	52,00
-744,07	86,00
-736,09	177,00
-728,13	133,00
-720,17	229,00
-712,23	30,00
-704,29	183,00
-696,37	61,00
-688,45	70,00
-680,55	199,00
-672,65	62,00
-664,77	204,00
-656,89	190,00
-649,03	181,00
-641,17	56,00
-633,32	140,00
-625,49	188,00
-617,66	156,00
-609,84	66,00
-602,03	110,00
-594,23	202,00
-586,45	173,00
-578,67	156,00
-570,90	142,00
-563,14	116,00
-555,39	61,00
-547,65	43,00
-539,91	186,00
-532,19	-21,00
-524,48	55,00
-516,78	137,00
-509,08	96,00
-501,40	158,00
-493,72	190,00
-486,06	105,00
-478,40	62,00
-470,76	97,00
-463,12	196,00
-455,49	132,00
-447,87	200,00
-440,26	161,00
-432,66	260,00
-425,07	200,00
-417,49	209,00
-409,92	168,00
-402,35	189,00
-394,80	104,00
-387,25	88,00
-379,72	130,00
-372,19	115,00
-364,67	167,00
-357,17	245,00
-349,67	121,00
-342,18	88,00
-334,69	185,00
-327,22	108,00
-319,76	169,00
-312,30	161,00
-304,86	213,00
-297,42	179,00
-290,00	217,00
-282,58	197,00
-275,17	260,00
-267,77	120,00
-260,37	181,00
-252,99	211,00
-245,62	47,00
-238,25	166,00
-230,90	219,00
-223,55	103,00
-216,21	251,00
-208,88	147,00
-201,56	325,00
-194,25	240,00
-186,94	217,00
-179,65	147,00
-172,36	254,00
-165,08	176,00
-157,81	249,00
-150,55	375,00
-143,30	250,00
-136,06	315,00
-128,82	380,00
-121,60	494,00
-114,38	424,00
-107,17	433,00
-99,97	526,00
-92,78	482,00
-85,60	617,00
-78,42	742,00
-71,25	834,00
-64,10	881,00
-56,95	1051,00
-49,81	1188,00
-42,67	1434,00
-35,55	1847,00
-28,43	2423,00
-21,33	3939,00
-14,23	13350,00
-7,14	56139,00
-0,05	55888,00
7,02	55558,00
14,09	41807,00
21,14	11073,00
28,19	4711,00
35,23	3110,00
42,27	2299,00
49,29	1963,00
56,31	1639,00
63,32	1411,00
70,32	1105,00
77,31	1083,00
84,29	944,00
91,27	953,00
98,23	702,00
105,19	764,00
112,14	818,00
119,09	1434,00
126,02	2269,00
132,95	2775,00
139,87	2798,00
146,78	2986,00
153,68	2900,00
160,58	2795,00
167,46	2763,00
174,34	2878,00
181,21	2877,00
188,08	2877,00
194,93	2898,00
201,78	2925,00
208,62	2790,00
215,45	2761,00
222,27	2820,00
229,09	2940,00
235,90	2959,00
242,70	2947,00
249,49	2834,00
256,27	2795,00
263,05	2878,00
269,82	2850,00
276,58	2860,00
283,33	2915,00
290,08	2807,00
296,82	2794,00
303,55	2819,00
310,27	2758,00
316,98	2787,00
323,69	2722,00
330,39	2769,00
337,08	2716,00
343,76	2778,00
350,44	2818,00
357,11	2744,00
363,77	2782,00
370,42	2841,00
377,07	2648,00
383,71	2866,00
390,34	2822,00
396,96	2822,00
403,58	2837,00
410,19	2939,00
416,79	2939,00
423,38	2914,00
429,97	2991,00
436,55	2914,00
443,12	2873,00
449,68	2883,00
456,24	2780,00
462,79	2839,00
469,33	2911,00
475,86	2886,00
482,39	2860,00
488,91	2828,00
495,42	2876,00
501,93	2831,00
508,42	2779,00
514,91	2840,00
521,40	2817,00
527,87	2736,00
534,34	2865,00
540,80	2750,00
547,25	2865,00
553,70	2827,00
560,14	2856,00
566,57	2930,00
573,00	2771,00
579,41	2924,00
585,83	2770,00
592,23	2753,00
598,62	2941,00
605,01	2912,00
611,40	2941,00
617,77	2876,00
624,14	2946,00
630,50	2813,00
636,85	2693,00
643,20	2891,00
649,54	2724,00
655,87	2757,00
662,20	2906,00
668,52	2819,00
674,83	2774,00
681,13	2869,00
687,43	2790,00
693,72	2756,00
700,00	2853,00
706,28	2832,00
712,55	2890,00
718,81	2906,00
725,07	2892,00
731,32	2718,00
737,56	2914,00
743,79	2821,00
750,02	3052,00
756,24	2901,00
762,46	2951,00
768,67	2978,00
774,87	2985,00
781,06	2919,00
787,25	2959,00
793,43	2982,00
799,60	3042,00
805,77	2852,00
811,93	2911,00
818,08	2992,00
824,23	2820,00
830,37	2940,00
836,50	3049,00
842,63	3040,00
848,75	3013,00
854,87	2944,00
860,97	3038,00
867,07	3007,00
873,17	2963,00
879,25	2996,00
885,33	2998,00
891,41	2828,00
897,47	3000,00
903,53	3027,00
909,59	2982,00
915,63	3033,00
921,67	3022,00
927,71	3051,00
933,74	3063,00
939,76	3001,00
945,77	2920,00
951,78	2943,00
957,78	2949,00
963,78	2953,00
969,77	3036,00
975,75	3043,00
981,72	3096,00
987,69	3003,00
993,66	3028,00
999,61	2993,00
1005,56	3088,00
1011,51	3096,00
1017,44	2911,00
1023,37	3069,00
1029,30	3076,00
1035,22	3092,00
1041,13	3124,00
1047,03	3235,00
1052,93	3381,00
1058,83	3645,00
1064,71	3776,00
1070,59	3603,00
1076,47	3360,00
1082,33	3388,00
1088,20	3298,00
1094,05	3262,00
1099,90	3211,00
1105,74	3281,00
1111,58	3248,00
1117,41	3441,00
1123,23	3659,00
1129,05	3968,00
1134,86	3883,00
1140,67	3523,00
1146,47	3538,00
1152,26	3278,00
1158,05	3303,00
1163,83	3361,00
1169,60	3351,00
1175,37	3415,00
1181,13	3182,00
1186,89	3264,00
1192,64	3304,00
1198,38	3199,00
1204,12	3238,00
1209,85	3293,00
1215,58	3332,00
1221,30	3392,00
1227,02	3294,00
1232,72	3441,00
1238,43	3263,00
1244,12	3338,00
1249,81	3318,00
1255,50	3285,00
1261,17	3261,00
1266,85	3592,00
1272,51	3369,00
1278,17	3456,00
1283,83	3615,00
1289,47	3912,00
1295,12	4354,00
1300,75	4088,00
1306,38	3842,00
1312,01	3588,00
1317,63	3514,00
1323,24	3504,00
1328,85	3391,00
1334,45	3488,00
1340,04	3255,00
1345,63	3360,00
1351,22	3469,00
1356,80	3424,00
1362,37	3371,00
1367,93	3364,00
1373,49	3511,00
1379,05	3368,00
1384,60	3633,00
1390,14	3470,00
1395,68	3444,00
1401,21	3408,00
1406,74	3503,00
1412,26	3794,00
1417,77	3741,00
1423,28	3972,00
1428,78	3828,00
1434,28	4098,00
1439,77	4266,00
1445,26	4247,00
1450,74	4149,00
1456,22	4060,00
1461,68	3994,00
1467,15	3895,00
1472,61	3764,00
1478,06	3756,00
1483,51	3410,00
1488,95	3386,00
1494,38	3415,00
1499,81	3354,00
1505,24	3237,00
1510,65	3236,00
1516,07	3277,00
1521,48	3345,00
1526,88	3270,00
1532,27	3274,00
1537,67	3261,00
1543,05	3364,00
1548,43	3124,00
1553,81	3125,00
1559,18	3160,00
1564,54	3280,00
1569,90	3268,00
1575,25	3199,00
1580,60	3277,00
1585,94	3163,00
1591,28	3316,00
1596,61	3110,00
1601,93	3249,00
1607,25	3262,00
1612,57	3232,00
1617,88	3069,00
1623,18	3147,00
1628,48	3184,00
1633,77	3181,00
1639,06	3097,00
1644,34	3101,00
1649,62	3143,00
1654,89	2996,00
1660,16	2978,00
1665,42	3149,00
1670,67	3043,00
1675,92	3038,00
1681,17	2953,00
1686,41	2938,00
1691,64	3070,00
1696,87	3062,00
1702,10	3051,00
1707,32	2984,00
1712,53	2968,00
1717,74	2944,00
1722,94	3135,00
1728,14	2920,00
1733,33	2948,00
1738,52	2901,00
1743,70	2942,00
1748,88	3049,00
1754,05	2918,00
1759,22	2899,00
1764,38	2882,00
1769,53	2809,00
1774,69	2817,00
1779,83	2737,00
1784,97	2941,00
1790,11	2839,00
1795,24	2837,00
1800,36	2707,00
1805,48	2680,00
1810,60	2856,00
1815,71	2707,00
1820,82	2683,00
1825,92	2796,00
1831,01	2815,00
1836,10	2755,00
1841,19	2910,00
1846,26	2741,00
1851,34	2846,00
1856,41	2706,00
1861,47	2814,00
1866,53	2795,00
1871,59	2654,00
1876,64	2821,00
1881,68	2659,00
1886,72	2802,00
1891,76	2570,00
1896,79	2735,00
1901,81	2743,00
1906,83	2582,00
1911,85	2659,00
1916,86	2597,00
1921,86	2599,00
1926,86	2608,00
1931,86	2492,00
1936,85	2511,00
1941,83	2501,00
1946,81	2528,00
1951,79	2526,00
1956,76	2527,00
1961,72	2513,00
1966,68	2578,00
1971,64	2402,00
1976,59	2564,00
1981,54	2503,00
1986,48	2432,00
1991,42	2309,00
1996,35	2495,00
2001,27	2525,00
2006,20	2528,00
2011,11	2416,00
2016,03	2406,00
2020,93	2401,00
2025,84	2518,00
2030,73	2441,00
2035,63	2406,00
2040,52	2458,00
2045,40	2314,00
2050,28	2427,00
2055,15	2296,00
2060,02	2386,00
2064,89	2416,00
2069,75	2256,00
2074,60	2371,00
2079,46	2380,00
2084,30	2428,00
2089,14	2372,00
2093,98	2410,00
2098,81	2249,00
2103,64	2286,00
2108,46	2345,00
2113,28	2227,00
2118,09	2314,00
2122,90	2286,00
2127,70	2312,00
2132,50	2419,00
2137,30	2361,00
2142,09	2228,00
2146,87	2350,00
2151,66	2269,00
2156,43	2328,00
2161,20	2305,00
2165,97	2273,00
2170,73	2211,00
2175,49	2190,00
2180,24	2212,00
2184,99	2279,00
2189,74	2191,00
2194,48	2082,00
2199,21	2159,00
2203,94	2075,00
2208,67	2206,00
2213,39	2118,00
2218,11	2102,00
2222,82	2125,00
2227,53	2105,00
2232,23	2244,00
2236,93	2146,00
2241,63	2134,00
2246,32	2093,00
2251,00	2166,00
2255,68	2022,00
2260,36	2054,00
2265,03	2051,00
2269,70	2129,00
2274,36	2131,00
2279,02	2041,00
2283,68	2059,00
2288,33	1933,00
2292,97	1963,00
2297,61	1949,00
2302,25	2046,00
2306,88	1937,00
2311,51	1940,00
2316,14	1921,00
2320,75	2030,00
2325,37	1922,00
2329,98	2038,00
2334,59	1970,00
2339,19	1934,00
2343,79	1920,00
2348,38	1964,00
2352,97	1862,00
2357,55	1958,00
2362,13	1865,00
2366,71	1933,00
2371,28	2025,00
2375,85	1836,00
2380,41	1838,00
2384,97	1699,00
2389,52	1736,00
2394,07	1835,00
2398,62	1801,00
2403,16	1743,00
2407,70	1736,00
2412,23	1599,00
2416,76	1774,00
2421,29	1688,00
2425,81	1769,00
2430,32	1735,00
2434,84	1645,00
2439,34	1808,00
2443,85	1716,00
2448,35	1651,00
2452,84	1649,00
2457,33	1623,00
2461,82	1704,00
2466,30	1662,00
2470,78	1553,00
2475,25	1606,00
2479,72	1601,00
2484,19	1509,00
2488,65	1471,00
2493,11	1593,00
2497,56	1489,00
2502,01	1523,00
2506,46	1588,00
2510,90	1515,00
2515,34	1617,00
2519,77	1414,00
2524,20	1551,00
2528,62	1533,00
2533,04	1500,00
2537,46	1464,00
2541,87	1486,00
2546,28	1441,00
2550,68	1502,00
2555,08	1479,00
2559,48	1531,00
2563,87	1380,00
2568,26	1328,00
2572,64	1426,00
2577,02	1450,00
2581,40	1418,00
2585,77	1380,00
2590,14	1284,00
2594,50	1364,00
2598,86	1302,00
2603,22	1280,00
2607,57	1300,00
2611,92	1225,00
2616,26	1180,00
2620,60	1304,00
2624,94	1421,00
2629,27	1366,00
2633,60	1156,00
2637,92	1467,00
2642,24	1275,00
2646,56	1440,00
2650,87	1214,00
2655,18	1204,00
2659,48	1253,00
2663,78	1267,00
2668,08	1250,00
2672,37	1198,00
2676,66	1274,00
2680,95	1312,00
2685,23	1299,00
2689,50	1137,00
2693,78	1176,00
2698,05	1323,00
2702,31	1287,00
2706,57	1284,00
2710,83	1281,00
2715,08	1164,00
2719,33	1409,00
2723,58	1309,00
2727,82	1440,00
2732,06	1351,00
2736,29	1249,00
2740,53	1346,00
2744,75	1133,00
2748,97	1211,00
2753,19	1208,00
2757,41	1240,00
2761,62	1136,00
2765,83	1188,00
2770,03	1169,00
2774,23	1179,00
2778,43	1173,00
2782,62	1286,00
2786,81	1119,00
2791,00	1079,00
2795,18	1156,00
2799,35	1210,00
2803,53	1197,00
2807,70	1135,00
2811,86	1231,00
2816,03	1405,00
2820,19	1167,00
2824,34	1361,00
2828,49	1247,00
2832,64	1508,00
2836,78	1689,00
2840,92	1746,00
2845,06	2058,00
2849,19	2406,00
2853,32	2250,00
2857,45	2283,00
2861,57	2204,00
2865,69	2164,00
2869,80	2153,00
2873,91	2118,00
2878,02	2241,00
2882,12	2401,00
2886,22	2332,00
2890,32	2132,00
2894,41	2163,00
2898,50	2041,00
2902,58	1767,00
2906,67	1750,00
2910,74	1649,00
2914,82	1725,00
2918,89	1612,00
2922,96	1482,00
2927,02	1444,00
2931,08	1273,00
2935,13	1403,00
2939,19	1215,00
2943,24	1282,00
2947,28	1204,00
2951,32	1008,00
2955,36	939,00
2959,40	1022,00
2963,43	1028,00
2967,46	1082,00
2971,48	890,00
2975,50	838,00
2979,52	873,00
2983,53	889,00
2987,54	806,00
2991,55	925,00
2995,55	820,00
2999,55	807,00
3003,54	761,00
3007,54	690,00
3011,53	753,00
3015,51	664,00
3019,49	773,00
3023,47	727,00
3027,45	744,00
3031,42	738,00
3035,39	646,00
3039,35	659,00
3043,31	729,00
3047,27	728,00
3051,22	640,00
3055,17	576,00
3059,12	710,00
3063,06	689,00
3067,00	668,00
3070,94	565,00
3074,87	668,00
3078,80	564,00
3082,73	576,00
3086,65	729,00
3090,57	573,00
3094,49	500,00
3098,40	534,00
3102,31	625,00
3106,22	634,00
3110,12	593,00
3114,02	483,00
3117,92	532,00
3121,81	610,00
3125,70	538,00
3129,58	515,00
3133,47	498,00
3137,34	577,00
3141,22	503,00
3145,09	504,00
3148,96	493,00
3152,83	439,00
3156,69	554,00
3160,55	461,00
3164,40	437,00
3168,26	422,00
3172,10	395,00
3175,95	469,00
3179,79	447,00
3183,63	479,00
3187,47	520,00
3191,30	441,00
3195,13	485,00
3198,95	484,00
3202,78	473,00
3206,60	330,00
3210,41	409,00
3214,23	390,00
3218,03	365,00
3221,84	473,00
3225,64	427,00
3229,44	393,00
3233,24	458,00
3237,03	421,00
3240,82	296,00
3244,61	337,00
3248,39	385,00
3252,17	454,00
3255,95	470,00
3259,72	410,00
3263,49	404,00
3267,26	433,00
3271,03	268,00
3274,79	330,00
3278,54	441,00
3282,30	314,00
3286,05	357,00
3289,80	472,00
3293,54	324,00
3297,29	359,00
3301,02	370,00
3304,76	393,00
3308,49	494,00
3312,22	290,00
3315,95	408,00
3319,67	316,00
3323,39	345,00
3327,10	314,00
3330,82	302,00
3334,53	347,00
3338,24	362,00
3341,94	327,00
3345,64	316,00
3349,34	324,00
3353,03	283,00
3356,72	294,00
3360,41	287,00
3364,10	250,00
3367,78	251,00
3371,46	257,00
3375,13	285,00
3378,81	399,00
3382,48	361,00
3386,14	219,00
3389,81	472,00
3393,47	288,00
3397,12	288,00
3400,78	284,00
3404,43	275,00
3408,08	336,00
3411,72	185,00
3415,36	230,00
3419,00	233,00
3422,64	168,00
3426,27	336,00
3429,90	319,00
3433,53	312,00
3437,15	267,00
3440,77	278,00
3444,39	255,00
3448,00	244,00
3451,62	251,00
3455,22	222,00
3458,83	279,00
3462,43	238,00
3466,03	233,00
3469,63	288,00
3473,22	321,00
3476,81	317,00
3480,40	300,00
3483,99	261,00
3487,57	189,00
3491,15	189,00
3494,72	290,00
3498,29	248,00
3501,86	170,00
3505,43	164,00
3508,99	154,00
3512,56	233,00
3516,11	264,00
3519,67	156,00
3523,22	276,00
3526,77	238,00
3530,32	173,00
3533,86	265,00
3537,40	144,00
3540,94	201,00
3544,47	303,00
3548,00	199,00
3551,53	172,00
3555,06	159,00
3558,58	163,00
3562,10	205,00
3565,62	137,00
3569,13	178,00
3572,64	190,00
3576,15	175,00
3579,66	283,00
3583,16	202,00
3586,66	286,00
3590,16	261,00
3593,65	253,00
3597,14	115,00
3600,63	191,00
3604,11	204,00
3607,60	188,00
3611,08	104,00
3614,55	76,00
3618,03	198,00
3621,50	255,00
3624,97	178,00
3628,43	94,00
3631,90	231,00
3635,36	144,00
3638,81	158,00
3642,27	179,00
3645,72	160,00
3649,17	128,00
3652,61	217,00
3656,06	161,00
3659,50	243,00
3662,93	195,00
3666,37	302,00
3669,80	171,00
3673,23	181,00
3676,65	296,00
3680,08	238,00
3683,50	80,00
3686,92	180,00
3690,33	33,00
3693,74	206,00
3697,15	175,00
3700,56	177,00
3703,96	80,00
3707,36	275,00
3710,76	63,00
3714,16	77,00
3717,55	109,00
3720,94	39,00
3724,33	204,00
3727,71	176,00
3731,10	30,00
3734,48	95,00
3737,85	187,00
3741,23	131,00
3744,60	89,00
3747,97	130,00
3751,33	88,00
3754,69	241,00
3758,05	83,00
3761,41	156,00
3764,77	95,00
3768,12	205,00
3771,47	25,00
3774,82	199,00
3778,16	-4,00
3781,50	4,00
3784,84	1,00
3788,18	-4,00
>>>>>End Processed Spectral Data<<<<<
