SpectraSuite Data File
++++++++++++++++++++++++++++++++++++
Date: Mon Mar 09 14:49:44 ICT 2026
User: Administrator
Dark Spectrum Present: Yes
Reference Spectrum Present: No
Number of Sampled Component Spectra: 1
Spectrometers: MAYP113682
Integration Time (usec): 3000000 (MAYP113682)
Spectra Averaged: 1 (MAYP113682)
Boxcar Smoothing: 0 (MAYP113682)
Correct for Electrical Dark: No (MAYP113682)
Strobe/Lamp Enabled: No (MAYP113682)
Correct for Detector Non-linearity: No (MAYP113682)
Correct for Stray Light: No (MAYP113682)
Number of Pixels in Processed Spectrum: 2068
>>>>>Begin Processed Spectral Data<<<<<
-37534,58	39,00
-37414,56	2,00
-37295,11	8,00
-37176,24	9,00
-37057,95	773,00
-36940,22	697,00
-36823,05	822,00
-36706,45	917,00
-36590,40	819,00
-36474,90	841,00
-36359,95	903,00
-36245,55	937,00
-36131,68	927,00
-36018,35	920,00
-35905,55	884,00
-35793,29	949,00
-35681,54	936,00
-35570,32	876,00
-35459,62	892,00
-35349,43	900,00
-35239,75	894,00
-35130,58	861,00
-35021,91	895,00
-34913,74	942,00
-34806,07	901,00
-34698,89	1087,00
-34592,20	862,00
-34486,00	1111,00
-34380,28	897,00
-34275,04	887,00
-34170,27	876,00
-34065,98	972,00
-33962,16	982,00
-33858,81	885,00
-33755,92	960,00
-33653,49	1094,00
-33551,52	1065,00
-33450,01	931,00
-33348,94	1042,00
-33248,33	1007,00
-33148,16	878,00
-33048,43	979,00
-32949,14	1096,00
-32850,29	1045,00
-32751,87	901,00
-32653,89	1030,00
-32556,33	1033,00
-32459,20	1063,00
-32362,49	983,00
-32266,19	979,00
-32170,32	983,00
-32074,86	1002,00
-31979,82	1115,00
-31885,18	1160,00
-31790,95	1108,00
-31697,12	930,00
-31603,69	1078,00
-31510,67	1063,00
-31418,04	976,00
-31325,80	959,00
-31233,95	1025,00
-31142,49	979,00
-31051,42	1063,00
-30960,73	1102,00
-30870,43	1176,00
-30780,50	928,00
-30690,95	992,00
-30601,77	1189,00
-30512,97	992,00
-30424,53	1057,00
-30336,46	1011,00
-30248,76	1027,00
-30161,42	1078,00
-30074,44	985,00
-29987,81	991,00
-29901,55	1148,00
-29815,63	881,00
-29730,07	983,00
-29644,86	1097,00
-29560,00	1092,00
-29475,48	973,00
-29391,30	1063,00
-29307,47	872,00
-29223,97	958,00
-29140,81	1032,00
-29057,99	1119,00
-28975,50	1020,00
-28893,34	1134,00
-28811,51	912,00
-28730,00	1056,00
-28648,82	950,00
-28567,97	1065,00
-28487,43	990,00
-28407,21	1006,00
-28327,32	973,00
-28247,73	1183,00
-28168,46	914,00
-28089,50	995,00
-28010,85	963,00
-27932,51	830,00
-27854,48	1050,00
-27776,75	958,00
-27699,32	1040,00
-27622,19	1118,00
-27545,37	991,00
-27468,84	985,00
-27392,60	1096,00
-27316,66	985,00
-27241,01	1034,00
-27165,66	1050,00
-27090,59	1027,00
-27015,81	1086,00
-26941,31	1133,00
-26867,10	992,00
-26793,17	1185,00
-26719,52	1085,00
-26646,15	996,00
-26573,06	1063,00
-26500,24	1040,00
-26427,70	972,00
-26355,43	1069,00
-26283,43	1072,00
-26211,71	1139,00
-26140,25	1015,00
-26069,06	1255,00
-25998,13	802,00
-25927,46	977,00
-25857,06	1061,00
-25786,92	999,00
-25717,04	891,00
-25647,42	1116,00
-25578,05	970,00
-25508,94	1079,00
-25440,09	972,00
-25371,48	966,00
-25303,13	899,00
-25235,02	988,00
-25167,17	1048,00
-25099,56	1092,00
-25032,19	950,00
-24965,07	1000,00
-24898,20	967,00
-24831,56	1022,00
-24765,17	914,00
-24699,01	937,00
-24633,10	1036,00
-24567,41	953,00
-24501,97	1030,00
-24436,75	981,00
-24371,77	988,00
-24307,03	929,00
-24242,51	862,00
-24178,22	1182,00
-24114,16	857,00
-24050,32	1056,00
-23986,71	993,00
-23923,32	1055,00
-23860,16	864,00
-23797,22	940,00
-23734,50	1093,00
-23672,00	942,00
-23609,71	898,00
-23547,65	914,00
-23485,80	990,00
-23424,16	988,00
-23362,74	1134,00
-23301,53	987,00
-23240,54	864,00
-23179,75	972,00
-23119,17	987,00
-23058,80	1003,00
-22998,64	1048,00
-22938,68	926,00
-22878,93	878,00
-22819,39	985,00
-22760,04	948,00
-22700,90	1064,00
-22641,96	1014,00
-22583,22	1001,00
-22524,68	993,00
-22466,33	888,00
-22408,19	1034,00
-22350,23	1008,00
-22292,48	1118,00
-22234,92	979,00
-22177,55	1065,00
-22120,37	1171,00
-22063,38	1002,00
-22006,58	986,00
-21949,98	934,00
-21893,56	770,00
-21837,33	963,00
-21781,28	1029,00
-21725,42	946,00
-21669,74	1035,00
-21614,25	985,00
-21558,94	931,00
-21503,81	978,00
-21448,86	1119,00
-21394,10	966,00
-21339,51	933,00
-21285,10	906,00
-21230,86	913,00
-21176,81	945,00
-21122,93	963,00
-21069,22	1025,00
-21015,69	947,00
-20962,33	1115,00
-20909,14	908,00
-20856,13	984,00
-20803,28	1007,00
-20750,61	907,00
-20698,10	928,00
-20645,76	1004,00
-20593,59	1117,00
-20541,59	1062,00
-20489,75	1031,00
-20438,07	978,00
-20386,56	1106,00
-20335,22	927,00
-20284,03	933,00
-20233,01	937,00
-20182,15	895,00
-20131,45	935,00
-20080,91	926,00
-20030,52	918,00
-19980,30	933,00
-19930,23	893,00
-19880,32	1123,00
-19830,56	1037,00
-19780,96	846,00
-19731,52	969,00
-19682,23	999,00
-19633,09	913,00
-19584,10	915,00
-19535,26	991,00
-19486,58	1101,00
-19438,04	938,00
-19389,66	955,00
-19341,42	958,00
-19293,33	943,00
-19245,39	1012,00
-19197,60	900,00
-19149,95	967,00
-19102,45	1077,00
-19055,09	937,00
-19007,87	1068,00
-18960,80	1023,00
-18913,87	975,00
-18867,09	1022,00
-18820,44	1098,00
-18773,94	1034,00
-18727,57	841,00
-18681,35	900,00
-18635,26	1013,00
-18589,31	864,00
-18543,50	883,00
-18497,83	1005,00
-18452,29	967,00
-18406,89	908,00
-18361,63	1088,00
-18316,50	974,00
-18271,50	958,00
-18226,63	1024,00
-18181,90	1063,00
-18137,30	1103,00
-18092,84	942,00
-18048,50	1026,00
-18004,29	923,00
-17960,22	918,00
-17916,27	882,00
-17872,45	942,00
-17828,76	1038,00
-17785,20	1075,00
-17741,77	969,00
-17698,46	957,00
-17655,28	904,00
-17612,22	958,00
-17569,29	962,00
-17526,48	912,00
-17483,79	947,00
-17441,23	978,00
-17398,79	931,00
-17356,48	959,00
-17314,28	1228,00
-17272,21	1007,00
-17230,26	947,00
-17188,42	1051,00
-17146,71	991,00
-17105,12	970,00
-17063,64	988,00
-17022,28	944,00
-16981,04	1000,00
-16939,92	987,00
-16898,91	1081,00
-16858,02	1001,00
-16817,25	896,00
-16776,59	873,00
-16736,04	986,00
-16695,61	988,00
-16655,29	946,00
-16615,09	1000,00
-16574,99	1001,00
-16535,01	876,00
-16495,15	1042,00
-16455,39	1004,00
-16415,74	1000,00
-16376,21	941,00
-16336,78	876,00
-16297,46	917,00
-16258,26	977,00
-16219,16	931,00
-16180,17	949,00
-16141,28	1030,00
-16102,51	1079,00
-16063,84	950,00
-16025,27	1059,00
-15986,82	899,00
-15948,46	857,00
-15910,22	964,00
-15872,07	912,00
-15834,04	938,00
-15796,10	908,00
-15758,27	1087,00
-15720,54	921,00
-15682,91	984,00
-15645,39	1025,00
-15607,97	972,00
-15570,64	908,00
-15533,42	974,00
-15496,30	1001,00
-15459,28	969,00
-15422,36	894,00
-15385,54	882,00
-15348,82	991,00
-15312,19	1063,00
-15275,66	950,00
-15239,23	926,00
-15202,90	968,00
-15166,67	898,00
-15130,53	1043,00
-15094,48	905,00
-15058,54	971,00
-15022,68	851,00
-14986,93	945,00
-14951,26	981,00
-14915,69	869,00
-14880,22	912,00
-14844,84	921,00
-14809,55	991,00
-14774,35	984,00
-14739,25	1065,00
-14704,24	1012,00
-14669,32	1004,00
-14634,49	926,00
-14599,75	1020,00
-14565,10	874,00
-14530,55	1014,00
-14496,08	1065,00
-14461,70	893,00
-14427,41	873,00
-14393,21	867,00
-14359,10	956,00
-14325,07	1027,00
-14291,14	1033,00
-14257,29	1082,00
-14223,52	968,00
-14189,85	1203,00
-14156,26	999,00
-14122,76	972,00
-14089,34	937,00
-14056,01	957,00
-14022,76	979,00
-13989,60	1015,00
-13956,52	1017,00
-13923,53	1089,00
-13890,62	957,00
-13857,79	845,00
-13825,05	1006,00
-13792,39	829,00
-13759,81	979,00
-13727,31	919,00
-13694,90	898,00
-13662,57	1022,00
-13630,31	1000,00
-13598,14	991,00
-13566,05	880,00
-13534,05	923,00
-13502,12	928,00
-13470,27	948,00
-13438,50	1061,00
-13406,80	842,00
-13375,19	914,00
-13343,66	963,00
-13312,20	965,00
-13280,83	860,00
-13249,53	944,00
-13218,30	842,00
-13187,16	930,00
-13156,09	1063,00
-13125,10	1013,00
-13094,18	1034,00
-13063,34	1030,00
-13032,58	860,00
-13001,89	1026,00
-12971,28	969,00
-12940,74	952,00
-12910,27	1053,00
-12879,88	898,00
-12849,57	1033,00
-12819,33	978,00
-12789,16	993,00
-12759,06	883,00
-12729,04	1040,00
-12699,09	1004,00
-12669,21	965,00
-12639,41	974,00
-12609,68	992,00
-12580,02	980,00
-12550,43	1069,00
-12520,91	806,00
-12491,46	914,00
-12462,08	873,00
-12432,77	974,00
-12403,54	977,00
-12374,37	940,00
-12345,27	981,00
-12316,24	939,00
-12287,29	1155,00
-12258,40	952,00
-12229,57	1037,00
-12200,82	995,00
-12172,14	930,00
-12143,52	882,00
-12114,97	880,00
-12086,49	1040,00
-12058,07	990,00
-12029,73	958,00
-12001,44	1177,00
-11973,23	909,00
-11945,08	1074,00
-11917,00	991,00
-11888,98	968,00
-11861,03	962,00
-11833,15	1029,00
-11805,32	918,00
-11777,57	956,00
-11749,88	958,00
-11722,25	906,00
-11694,69	997,00
-11667,19	946,00
-11639,75	989,00
-11612,38	1081,00
-11585,07	941,00
-11557,83	921,00
-11530,65	1025,00
-11503,53	1141,00
-11476,47	1109,00
-11449,48	916,00
-11422,54	1014,00
-11395,67	919,00
-11368,86	996,00
-11342,11	941,00
-11315,43	970,00
-11288,80	991,00
-11262,23	1039,00
-11235,73	966,00
-11209,28	929,00
-11182,90	1001,00
-11156,57	988,00
-11130,31	1123,00
-11104,10	1031,00
-11077,96	1048,00
-11051,87	981,00
-11025,84	1007,00
-10999,87	1052,00
-10973,96	1108,00
-10948,11	975,00
-10922,31	885,00
-10896,58	1036,00
-10870,90	1208,00
-10845,28	937,00
-10819,71	956,00
-10794,20	953,00
-10768,75	1046,00
-10743,36	945,00
-10718,02	1029,00
-10692,74	970,00
-10667,52	909,00
-10642,35	1046,00
-10617,24	1058,00
-10592,18	1043,00
-10567,18	953,00
-10542,23	1102,00
-10517,34	1127,00
-10492,51	1126,00
-10467,72	976,00
-10443,00	973,00
-10418,32	952,00
-10393,70	983,00
-10369,14	934,00
-10344,63	1022,00
-10320,17	1096,00
-10295,77	1033,00
-10271,42	1079,00
-10247,12	928,00
-10222,88	1146,00
-10198,68	919,00
-10174,54	1036,00
-10150,46	1088,00
-10126,42	1145,00
-10102,44	1067,00
-10078,51	1030,00
-10054,63	1087,00
-10030,80	1044,00
-10007,03	1254,00
-9983,30	1063,00
-9959,63	1044,00
-9936,01	1122,00
-9912,44	1091,00
-9888,92	1138,00
-9865,44	1114,00
-9842,02	1246,00
-9818,65	1177,00
-9795,33	1078,00
-9772,06	1166,00
-9748,84	1065,00
-9725,67	1190,00
-9702,55	1136,00
-9679,47	1359,00
-9656,45	1330,00
-9633,47	1203,00
-9610,55	1271,00
-9587,67	1380,00
-9564,84	1630,00
-9542,06	1437,00
-9519,32	1461,00
-9496,64	1566,00
-9474,00	1359,00
-9451,41	1422,00
-9428,87	1687,00
-9406,37	1693,00
-9383,92	1578,00
-9361,52	1606,00
-9339,17	1682,00
-9316,86	1584,00
-9294,60	1631,00
-9272,38	1928,00
-9250,21	1979,00
-9228,09	2008,00
-9206,01	1940,00
-9183,98	1778,00
-9162,00	1708,00
-9140,06	1845,00
-9118,16	1802,00
-9096,31	1833,00
-9074,51	1830,00
-9052,75	1908,00
-9031,04	1999,00
-9009,37	1632,00
-8987,74	1665,00
-8966,16	1796,00
-8944,63	1577,00
-8923,14	1678,00
-8901,69	1609,00
-8880,29	1576,00
-8858,93	1617,00
-8837,61	1731,00
-8816,34	1591,00
-8795,11	1674,00
-8773,92	1729,00
-8752,78	1621,00
-8731,68	1542,00
-8710,62	1573,00
-8689,61	1543,00
-8668,63	1491,00
-8647,70	1752,00
-8626,82	1673,00
-8605,97	1705,00
-8585,17	1542,00
-8564,41	1499,00
-8543,69	1532,00
-8523,01	1503,00
-8502,37	1684,00
-8481,78	1444,00
-8461,23	1286,00
-8440,71	1422,00
-8420,24	1443,00
-8399,81	1706,00
-8379,42	1595,00
-8359,08	1633,00
-8338,77	1541,00
-8318,50	1536,00
-8298,27	1358,00
-8278,09	1533,00
-8257,94	1384,00
-8237,83	1593,00
-8217,76	1638,00
-8197,74	1555,00
-8177,75	1510,00
-8157,80	1561,00
-8137,89	1493,00
-8118,02	1443,00
-8098,19	1501,00
-8078,40	1373,00
-8058,65	1386,00
-8038,93	1607,00
-8019,26	1446,00
-7999,62	1436,00
-7980,02	1393,00
-7960,46	1436,00
-7940,94	1363,00
-7921,46	1391,00
-7902,01	1253,00
-7882,60	1463,00
-7863,23	1425,00
-7843,90	1364,00
-7824,61	1331,00
-7805,35	1440,00
-7786,13	1432,00
-7766,95	1305,00
-7747,80	1398,00
-7728,69	1476,00
-7709,62	1361,00
-7690,59	1404,00
-7671,59	1433,00
-7652,63	1343,00
-7633,70	1366,00
-7614,81	1563,00
-7595,96	1326,00
-7577,15	1281,00
-7558,37	1250,00
-7539,62	1331,00
-7520,91	1346,00
-7502,24	1487,00
-7483,60	1419,00
-7465,00	1411,00
-7446,44	1360,00
-7427,91	1216,00
-7409,41	1326,00
-7390,95	1244,00
-7372,53	1128,00
-7354,14	1337,00
-7335,78	1226,00
-7317,46	1260,00
-7299,18	1329,00
-7280,92	1374,00
-7262,71	1529,00
-7244,52	1386,00
-7226,38	1315,00
-7208,26	1357,00
-7190,18	1331,00
-7172,14	1406,00
-7154,12	1288,00
-7136,15	1189,00
-7118,20	1333,00
-7100,29	1467,00
-7082,41	1442,00
-7064,57	1396,00
-7046,76	1325,00
-7028,98	1204,00
-7011,24	1533,00
-6993,53	1167,00
-6975,85	1119,00
-6958,20	1171,00
-6940,59	1220,00
-6923,01	1039,00
-6905,46	1370,00
-6887,94	1319,00
-6870,46	-736,00
-6853,01	1331,00
-6835,59	1306,00
-6818,21	1199,00
-6800,85	1293,00
-6783,53	1108,00
-6766,24	1110,00
-6748,98	1279,00
-6731,76	1156,00
-6714,56	1133,00
-6697,40	1022,00
-6680,26	983,00
-6663,16	1192,00
-6646,09	1264,00
-6629,05	1268,00
-6612,05	1285,00
-6595,07	1154,00
-6578,13	1292,00
-6561,21	1124,00
-6544,33	1100,00
-6527,47	1118,00
-6510,65	1117,00
-6493,86	1056,00
-6477,10	1058,00
-6460,36	1133,00
-6443,66	1088,00
-6426,99	1068,00
-6410,35	945,00
-6393,74	1199,00
-6377,16	1249,00
-6360,61	1085,00
-6344,09	1022,00
-6327,59	1084,00
-6311,13	1080,00
-6294,70	1240,00
-6278,29	1207,00
-6261,92	1088,00
-6245,58	1184,00
-6229,26	1297,00
-6212,97	1162,00
-6196,72	1126,00
-6180,49	1164,00
-6164,29	1045,00
-6148,12	1114,00
-6131,98	1083,00
-6115,86	1177,00
-6099,78	1039,00
-6083,72	928,00
-6067,69	1008,00
-6051,69	980,00
-6035,72	1093,00
-6019,78	1056,00
-6003,87	1137,00
-5987,98	1095,00
-5972,12	1155,00
-5956,29	1127,00
-5940,49	1063,00
-5924,71	1242,00
-5908,96	987,00
-5893,24	1040,00
-5877,55	1005,00
-5861,89	1031,00
-5846,25	1001,00
-5830,64	1105,00
-5815,05	1039,00
-5799,50	1068,00
-5783,97	1043,00
-5768,47	1200,00
-5752,99	1198,00
-5737,55	1087,00
-5722,12	1070,00
-5706,73	1141,00
-5691,36	1067,00
-5676,02	1032,00
-5660,71	1180,00
-5645,42	1005,00
-5630,16	1107,00
-5614,92	1132,00
-5599,71	985,00
-5584,53	1158,00
-5569,37	1021,00
-5554,24	2023,00
-5539,14	1058,00
-5524,06	1076,00
-5509,01	974,00
-5493,98	1143,00
-5478,98	1246,00
-5464,00	1155,00
-5449,05	921,00
-5434,13	1141,00
-5419,23	1017,00
-5404,36	947,00
-5389,51	1050,00
-5374,69	1130,00
-5359,89	1158,00
-5345,12	1251,00
-5330,37	1257,00
-5315,65	1271,00
-5300,95	1123,00
-5286,28	927,00
-5271,63	993,00
-5257,01	1030,00
-5242,41	1171,00
-5227,84	1073,00
-5213,29	1062,00
-5198,76	1015,00
-5184,26	961,00
-5169,79	1056,00
-5155,33	1115,00
-5140,91	1127,00
-5126,51	1017,00
-5112,13	1101,00
-5097,77	1217,00
-5083,44	1181,00
-5069,13	1017,00
-5054,85	1085,00
-5040,59	1000,00
-5026,36	1082,00
-5012,15	1165,00
-4997,96	1101,00
-4983,80	992,00
-4969,66	1056,00
-4955,54	978,00
-4941,44	1049,00
-4927,37	1098,00
-4913,33	1073,00
-4899,30	979,00
-4885,30	1130,00
-4871,33	1100,00
-4857,37	1009,00
-4843,44	1039,00
-4829,53	1224,00
-4815,65	1112,00
-4801,79	904,00
-4787,95	979,00
-4774,13	968,00
-4760,34	1015,00
-4746,56	1057,00
-4732,82	987,00
-4719,09	1098,00
-4705,38	1150,00
-4691,70	1147,00
-4678,04	1072,00
-4664,41	1051,00
-4650,79	1265,00
-4637,20	1087,00
-4623,63	934,00
-4610,08	1022,00
-4596,56	1145,00
-4583,05	1032,00
-4569,57	1058,00
-4556,11	1124,00
-4542,67	944,00
-4529,25	918,00
-4515,86	1108,00
-4502,49	1214,00
-4489,13	1143,00
-4475,80	1100,00
-4462,49	957,00
-4449,21	1257,00
-4435,94	991,00
-4422,70	1065,00
-4409,47	1024,00
-4396,27	1026,00
-4383,09	1056,00
-4369,93	985,00
-4356,79	1042,00
-4343,67	978,00
-4330,58	1038,00
-4317,50	930,00
-4304,45	986,00
-4291,41	1043,00
-4278,40	992,00
-4265,41	941,00
-4252,44	965,00
-4239,49	981,00
-4226,55	1089,00
-4213,65	1136,00
-4200,76	1026,00
-4187,89	1000,00
-4175,04	987,00
-4162,21	1064,00
-4149,40	982,00
-4136,61	993,00
-4123,85	1019,00
-4111,10	973,00
-4098,37	1056,00
-4085,66	1124,00
-4072,98	1033,00
-4060,31	907,00
-4047,66	1099,00
-4035,04	1121,00
-4022,43	1001,00
-4009,84	1142,00
-3997,27	993,00
-3984,72	978,00
-3972,19	1084,00
-3959,69	964,00
-3947,20	973,00
-3934,73	1049,00
-3922,27	875,00
-3909,84	945,00
-3897,43	884,00
-3885,04	1006,00
-3872,67	924,00
-3860,31	1011,00
-3847,98	998,00
-3835,66	960,00
-3823,36	957,00
-3811,09	898,00
-3798,83	926,00
-3786,59	1048,00
-3774,37	1041,00
-3762,17	892,00
-3749,98	927,00
-3737,82	960,00
-3725,67	1126,00
-3713,55	911,00
-3701,44	989,00
-3689,35	1043,00
-3677,28	1051,00
-3665,22	998,00
-3653,19	861,00
-3641,17	977,00
-3629,18	1005,00
-3617,20	962,00
-3605,24	999,00
-3593,30	1004,00
-3581,37	973,00
-3569,47	1084,00
-3557,58	1065,00
-3545,71	960,00
-3533,86	1032,00
-3522,02	998,00
-3510,21	1059,00
-3498,41	962,00
-3486,63	997,00
-3474,87	1009,00
-3463,12	909,00
-3451,40	1028,00
-3439,69	1041,00
-3428,00	1016,00
-3416,33	1062,00
-3404,67	918,00
-3393,03	1094,00
-3381,41	1088,00
-3369,81	1017,00
-3358,22	933,00
-3346,66	1017,00
-3335,10	928,00
-3323,57	962,00
-3312,06	1046,00
-3300,56	972,00
-3289,08	838,00
-3277,61	994,00
-3266,16	982,00
-3254,73	1037,00
-3243,32	1061,00
-3231,92	1009,00
-3220,55	983,00
-3209,18	1083,00
-3197,84	953,00
-3186,51	908,00
-3175,20	1010,00
-3163,90	988,00
-3152,63	994,00
-3141,36	1003,00
-3130,12	967,00
-3118,89	1106,00
-3107,68	1019,00
-3096,49	938,00
-3085,31	1018,00
-3074,15	893,00
-3063,00	1005,00
-3051,87	1084,00
-3040,76	1015,00
-3029,67	1006,00
-3018,59	1226,00
-3007,52	1034,00
-2996,48	1135,00
-2985,44	877,00
-2974,43	933,00
-2963,43	996,00
-2952,45	917,00
-2941,48	1012,00
-2930,53	1042,00
-2919,60	932,00
-2908,68	922,00
-2897,78	865,00
-2886,89	1131,00
-2876,02	940,00
-2865,17	976,00
-2854,33	966,00
-2843,50	944,00
-2832,70	1000,00
-2821,90	956,00
-2811,13	995,00
-2800,37	987,00
-2789,62	1040,00
-2778,89	1111,00
-2768,18	1043,00
-2757,48	1039,00
-2746,80	1098,00
-2736,13	1051,00
-2725,48	1013,00
-2714,84	1047,00
-2704,22	973,00
-2693,61	1023,00
-2683,02	951,00
-2672,45	941,00
-2661,89	1103,00
-2651,34	994,00
-2640,81	1040,00
-2630,30	1097,00
-2619,80	972,00
-2609,31	1119,00
-2598,84	901,00
-2588,39	952,00
-2577,95	970,00
-2567,52	902,00
-2557,11	993,00
-2546,71	1014,00
-2536,33	1076,00
-2525,97	997,00
-2515,62	927,00
-2505,28	964,00
-2494,96	950,00
-2484,65	884,00
-2474,36	1270,00
-2464,08	1029,00
-2453,82	1043,00
-2443,57	1080,00
-2433,33	904,00
-2423,11	941,00
-2412,91	968,00
-2402,72	951,00
-2392,54	989,00
-2382,38	952,00
-2372,23	1106,00
-2362,09	5507,00
-2351,97	831,00
-2341,87	927,00
-2331,78	1009,00
-2321,70	1106,00
-2311,64	1087,00
-2301,59	967,00
-2291,55	905,00
-2281,53	1026,00
-2271,53	896,00
-2261,53	1111,00
-2251,55	998,00
-2241,59	1014,00
-2231,64	1075,00
-2221,70	985,00
-2211,78	1000,00
-2201,87	1059,00
-2191,97	1030,00
-2182,09	906,00
-2172,22	1093,00
-2162,37	959,00
-2152,53	949,00
-2142,70	897,00
-2132,89	844,00
-2123,09	1082,00
-2113,30	1028,00
-2103,53	987,00
-2093,77	880,00
-2084,02	902,00
-2074,29	1074,00
-2064,57	999,00
-2054,86	1010,00
-2045,17	990,00
-2035,49	1045,00
-2025,82	936,00
-2016,17	962,00
-2006,53	1003,00
-1996,91	948,00
-1987,29	909,00
-1977,69	1010,00
-1968,11	1022,00
-1958,53	964,00
-1948,97	988,00
-1939,42	922,00
-1929,89	920,00
-1920,37	975,00
-1910,86	1021,00
-1901,36	1055,00
-1891,88	1032,00
-1882,41	946,00
-1872,95	999,00
-1863,51	961,00
-1854,08	1071,00
-1844,66	1079,00
-1835,26	1010,00
-1825,86	1040,00
-1816,48	932,00
-1807,11	1012,00
-1797,76	1027,00
-1788,42	941,00
-1779,09	1051,00
-1769,77	951,00
-1760,47	1205,00
-1751,17	982,00
-1741,89	1056,00
-1732,63	1047,00
-1723,37	1287,00
-1714,13	1158,00
-1704,90	902,00
-1695,68	1176,00
-1686,48	924,00
-1677,29	1010,00
-1668,11	1244,00
-1658,94	1016,00
-1649,78	1007,00
-1640,64	1008,00
-1631,51	1074,00
-1622,39	1061,00
-1613,28	1002,00
-1604,19	1179,00
-1595,10	977,00
-1586,03	858,00
-1576,97	1081,00
-1567,93	1001,00
-1558,89	1078,00
-1549,87	977,00
-1540,86	942,00
-1531,86	989,00
-1522,87	900,00
-1513,90	1212,00
-1504,93	985,00
-1495,98	1038,00
-1487,04	1221,00
-1478,12	1094,00
-1469,20	919,00
-1460,30	1023,00
-1451,40	1173,00
-1442,52	1020,00
-1433,65	1085,00
-1424,80	1025,00
-1415,95	966,00
-1407,12	1289,00
-1398,30	1001,00
-1389,48	910,00
-1380,69	942,00
-1371,90	1042,00
-1363,12	988,00
-1354,36	1207,00
-1345,60	948,00
-1336,86	1154,00
-1328,13	1220,00
-1319,41	1052,00
-1310,70	899,00
-1302,01	936,00
-1293,32	978,00
-1284,65	942,00
-1275,99	1096,00
-1267,33	1176,00
-1258,69	1008,00
-1250,06	1094,00
-1241,45	984,00
-1232,84	1097,00
-1224,25	1057,00
-1215,66	1078,00
-1207,09	1040,00
-1198,53	994,00
-1189,97	909,00
-1181,43	915,00
-1172,91	970,00
-1164,39	1055,00
-1155,88	942,00
-1147,38	809,00
-1138,90	1048,00
-1130,43	1040,00
-1121,96	999,00
-1113,51	1072,00
-1105,07	1021,00
-1096,64	954,00
-1088,22	1042,00
-1079,81	1024,00
-1071,41	1165,00
-1063,02	987,00
-1054,65	1127,00
-1046,28	949,00
-1037,92	1122,00
-1029,58	1002,00
-1021,24	1010,00
-1012,92	1354,00
-1004,61	1009,00
-996,30	1428,00
-988,01	911,00
-979,73	1050,00
-971,46	1161,00
-963,20	891,00
-954,95	923,00
-946,71	961,00
-938,48	994,00
-930,26	1152,00
-922,06	1105,00
-913,86	1117,00
-905,67	930,00
-897,49	1029,00
-889,33	930,00
-881,17	1058,00
-873,02	1047,00
-864,89	886,00
-856,76	980,00
-848,65	1005,00
-840,54	1120,00
-832,45	1100,00
-824,36	852,00
-816,29	927,00
-808,22	1061,00
-800,17	1034,00
-792,12	1112,00
-784,09	1145,00
-776,06	931,00
-768,05	998,00
-760,04	949,00
-752,05	934,00
-744,07	1196,00
-736,09	1100,00
-728,13	905,00
-720,17	985,00
-712,23	951,00
-704,29	1007,00
-696,37	1091,00
-688,45	986,00
-680,55	985,00
-672,65	975,00
-664,77	893,00
-656,89	975,00
-649,03	1009,00
-641,17	1100,00
-633,32	1140,00
-625,49	939,00
-617,66	1039,00
-609,84	1008,00
-602,03	872,00
-594,23	968,00
-586,45	1012,00
-578,67	1008,00
-570,90	906,00
-563,14	900,00
-555,39	1073,00
-547,65	1140,00
-539,91	1007,00
-532,19	957,00
-524,48	1089,00
-516,78	984,00
-509,08	1099,00
-501,40	974,00
-493,72	870,00
-486,06	944,00
-478,40	1208,00
-470,76	976,00
-463,12	909,00
-455,49	902,00
-447,87	909,00
-440,26	975,00
-432,66	946,00
-425,07	1093,00
-417,49	974,00
-409,92	918,00
-402,35	880,00
-394,80	982,00
-387,25	1039,00
-379,72	1078,00
-372,19	968,00
-364,67	991,00
-357,17	1001,00
-349,67	1024,00
-342,18	1030,00
-334,69	1020,00
-327,22	981,00
-319,76	975,00
-312,30	1134,00
-304,86	1063,00
-297,42	1008,00
-290,00	1032,00
-282,58	987,00
-275,17	1066,00
-267,77	1078,00
-260,37	954,00
-252,99	1055,00
-245,62	1050,00
-238,25	938,00
-230,90	989,00
-223,55	1109,00
-216,21	1025,00
-208,88	1091,00
-201,56	1050,00
-194,25	1080,00
-186,94	1046,00
-179,65	1101,00
-172,36	1160,00
-165,08	1055,00
-157,81	1291,00
-150,55	1216,00
-143,30	1182,00
-136,06	1201,00
-128,82	1157,00
-121,60	1193,00
-114,38	1317,00
-107,17	1400,00
-99,97	1392,00
-92,78	1455,00
-85,60	1448,00
-78,42	1523,00
-71,25	1664,00
-64,10	1777,00
-56,95	1862,00
-49,81	1920,00
-42,67	2405,00
-35,55	2557,00
-28,43	3200,00
-21,33	4676,00
-14,23	13216,00
-7,14	57775,00
-0,05	57564,00
7,02	57281,00
14,09	44328,00
21,14	12325,00
28,19	5407,00
35,23	3854,00
42,27	3280,00
49,29	2638,00
56,31	2600,00
63,32	2370,00
70,32	1988,00
77,31	1818,00
84,29	1603,00
91,27	1777,00
98,23	1732,00
105,19	1495,00
112,14	1678,00
119,09	2051,00
126,02	2729,00
132,95	2997,00
139,87	3077,00
146,78	3292,00
153,68	3133,00
160,58	3063,00
167,46	3004,00
174,34	3165,00
181,21	3220,00
188,08	3077,00
194,93	3288,00
201,78	3048,00
208,62	3011,00
215,45	3146,00
222,27	3058,00
229,09	3303,00
235,90	3052,00
242,70	3098,00
249,49	3265,00
256,27	3050,00
263,05	3026,00
269,82	3013,00
276,58	3177,00
283,33	3053,00
290,08	3099,00
296,82	3092,00
303,55	3012,00
310,27	2857,00
316,98	3036,00
323,69	2958,00
330,39	2971,00
337,08	3108,00
343,76	3055,00
350,44	3115,00
357,11	3023,00
363,77	2975,00
370,42	2946,00
377,07	3061,00
383,71	2963,00
390,34	3033,00
396,96	2968,00
403,58	2891,00
410,19	3099,00
416,79	3113,00
423,38	3129,00
429,97	2994,00
436,55	2874,00
443,12	3007,00
449,68	2901,00
456,24	2968,00
462,79	3012,00
469,33	3067,00
475,86	2975,00
482,39	2997,00
488,91	3130,00
495,42	2988,00
501,93	3015,00
508,42	2902,00
514,91	3004,00
521,40	2871,00
527,87	2960,00
534,34	2844,00
540,80	3099,00
547,25	2987,00
553,70	3009,00
560,14	2920,00
566,57	3015,00
573,00	2968,00
579,41	3000,00
585,83	2952,00
592,23	2944,00
598,62	3005,00
605,01	2857,00
611,40	3029,00
617,77	3089,00
624,14	3011,00
630,50	2922,00
636,85	2978,00
643,20	2967,00
649,54	2845,00
655,87	2908,00
662,20	3100,00
668,52	3035,00
674,83	2923,00
681,13	2967,00
687,43	2988,00
693,72	2985,00
700,00	2816,00
706,28	2915,00
712,55	2906,00
718,81	3009,00
725,07	2914,00
731,32	2936,00
737,56	3110,00
743,79	2913,00
750,02	3052,00
756,24	2918,00
762,46	2944,00
768,67	3269,00
774,87	3040,00
781,06	2980,00
787,25	3000,00
793,43	3081,00
799,60	2899,00
805,77	3070,00
811,93	2900,00
818,08	3025,00
824,23	3028,00
830,37	3263,00
836,50	3019,00
842,63	3084,00
848,75	3046,00
854,87	3136,00
860,97	3091,00
867,07	3106,00
873,17	3092,00
879,25	2980,00
885,33	2996,00
891,41	3087,00
897,47	3047,00
903,53	3025,00
909,59	3117,00
915,63	3168,00
921,67	3062,00
927,71	3189,00
933,74	3139,00
939,76	2934,00
945,77	3083,00
951,78	3121,00
957,78	3077,00
963,78	3169,00
969,77	3150,00
975,75	3105,00
981,72	3068,00
987,69	4631,00
993,66	3158,00
999,61	3168,00
1005,56	3164,00
1011,51	3113,00
1017,44	3047,00
1023,37	3180,00
1029,30	3188,00
1035,22	3218,00
1041,13	3072,00
1047,03	3165,00
1052,93	3334,00
1058,83	3602,00
1064,71	3815,00
1070,59	3623,00
1076,47	3429,00
1082,33	3317,00
1088,20	3254,00
1094,05	3315,00
1099,90	3109,00
1105,74	3216,00
1111,58	3208,00
1117,41	3398,00
1123,23	3529,00
1129,05	3918,00
1134,86	3796,00
1140,67	3485,00
1146,47	3353,00
1152,26	3333,00
1158,05	3110,00
1163,83	3293,00
1169,60	3364,00
1175,37	3322,00
1181,13	3320,00
1186,89	3330,00
1192,64	3276,00
1198,38	3352,00
1204,12	3271,00
1209,85	3278,00
1215,58	3240,00
1221,30	3455,00
1227,02	3457,00
1232,72	3317,00
1238,43	3177,00
1244,12	3385,00
1249,81	3335,00
1255,50	3362,00
1261,17	3312,00
1266,85	3296,00
1272,51	3408,00
1278,17	3572,00
1283,83	3363,00
1289,47	3712,00
1295,12	4271,00
1300,75	4038,00
1306,38	3715,00
1312,01	3470,00
1317,63	3445,00
1323,24	3375,00
1328,85	3551,00
1334,45	3470,00
1340,04	3312,00
1345,63	3232,00
1351,22	3601,00
1356,80	3397,00
1362,37	3472,00
1367,93	3368,00
1373,49	3486,00
1379,05	3308,00
1384,60	3435,00
1390,14	3459,00
1395,68	3432,00
1401,21	3356,00
1406,74	3440,00
1412,26	3693,00
1417,77	3820,00
1423,28	3627,00
1428,78	3795,00
1434,28	4097,00
1439,77	4219,00
1445,26	4272,00
1450,74	4135,00
1456,22	4016,00
1461,68	3970,00
1467,15	3837,00
1472,61	3632,00
1478,06	3738,00
1483,51	3506,00
1488,95	3481,00
1494,38	3400,00
1499,81	3191,00
1505,24	3164,00
1510,65	3413,00
1516,07	3344,00
1521,48	3267,00
1526,88	3104,00
1532,27	3207,00
1537,67	3195,00
1543,05	3378,00
1548,43	3090,00
1553,81	3290,00
1559,18	3097,00
1564,54	3166,00
1569,90	3135,00
1575,25	3092,00
1580,60	2984,00
1585,94	3185,00
1591,28	3133,00
1596,61	3101,00
1601,93	3238,00
1607,25	3309,00
1612,57	3216,00
1617,88	3224,00
1623,18	3119,00
1628,48	3181,00
1633,77	3055,00
1639,06	3187,00
1644,34	2976,00
1649,62	3076,00
1654,89	3260,00
1660,16	3046,00
1665,42	3125,00
1670,67	3059,00
1675,92	3099,00
1681,17	3005,00
1686,41	3171,00
1691,64	3216,00
1696,87	3045,00
1702,10	3026,00
1707,32	3231,00
1712,53	3103,00
1717,74	3077,00
1722,94	3013,00
1728,14	3050,00
1733,33	2915,00
1738,52	2983,00
1743,70	2944,00
1748,88	2912,00
1754,05	2905,00
1759,22	2918,00
1764,38	4305,00
1769,53	2943,00
1774,69	3012,00
1779,83	2928,00
1784,97	2882,00
1790,11	2962,00
1795,24	2942,00
1800,36	3025,00
1805,48	2851,00
1810,60	2833,00
1815,71	2923,00
1820,82	2911,00
1825,92	2905,00
1831,01	2864,00
1836,10	2865,00
1841,19	2864,00
1846,26	2822,00
1851,34	2857,00
1856,41	2922,00
1861,47	2976,00
1866,53	2880,00
1871,59	2894,00
1876,64	2776,00
1881,68	2896,00
1886,72	3049,00
1891,76	2827,00
1896,79	2871,00
1901,81	2692,00
1906,83	2846,00
1911,85	2702,00
1916,86	2745,00
1921,86	2719,00
1926,86	2777,00
1931,86	2709,00
1936,85	2706,00
1941,83	2702,00
1946,81	2729,00
1951,79	2718,00
1956,76	2653,00
1961,72	2530,00
1966,68	2577,00
1971,64	2583,00
1976,59	2643,00
1981,54	2699,00
1986,48	2598,00
1991,42	2601,00
1996,35	2874,00
2001,27	2622,00
2006,20	2533,00
2011,11	2671,00
2016,03	2673,00
2020,93	2630,00
2025,84	2572,00
2030,73	2549,00
2035,63	2435,00
2040,52	2667,00
2045,40	2565,00
2050,28	2585,00
2055,15	2580,00
2060,02	2458,00
2064,89	2553,00
2069,75	2548,00
2074,60	2646,00
2079,46	2552,00
2084,30	2511,00
2089,14	2493,00
2093,98	2667,00
2098,81	2569,00
2103,64	2616,00
2108,46	2587,00
2113,28	2524,00
2118,09	2588,00
2122,90	2532,00
2127,70	2418,00
2132,50	2642,00
2137,30	2501,00
2142,09	2430,00
2146,87	2423,00
2151,66	2547,00
2156,43	2572,00
2161,20	2522,00
2165,97	2506,00
2170,73	2421,00
2175,49	2539,00
2180,24	2393,00
2184,99	2496,00
2189,74	2501,00
2194,48	2459,00
2199,21	2513,00
2203,94	2240,00
2208,67	2258,00
2213,39	2233,00
2218,11	2295,00
2222,82	2413,00
2227,53	2279,00
2232,23	2443,00
2236,93	2359,00
2241,63	2414,00
2246,32	2331,00
2251,00	2341,00
2255,68	2349,00
2260,36	2332,00
2265,03	2516,00
2269,70	2529,00
2274,36	2165,00
2279,02	2263,00
2283,68	2406,00
2288,33	2276,00
2292,97	2316,00
2297,61	2328,00
2302,25	2263,00
2306,88	2216,00
2311,51	2222,00
2316,14	2220,00
2320,75	2360,00
2325,37	2181,00
2329,98	2384,00
2334,59	2115,00
2339,19	2214,00
2343,79	2091,00
2348,38	2298,00
2352,97	2175,00
2357,55	2375,00
2362,13	2302,00
2366,71	2020,00
2371,28	2270,00
2375,85	2214,00
2380,41	2234,00
2384,97	2240,00
2389,52	2211,00
2394,07	2219,00
2398,62	2267,00
2403,16	2158,00
2407,70	2125,00
2412,23	2186,00
2416,76	2234,00
2421,29	2239,00
2425,81	2141,00
2430,32	2219,00
2434,84	1861,00
2439,34	2100,00
2443,85	2248,00
2448,35	2070,00
2452,84	2024,00
2457,33	1977,00
2461,82	1997,00
2466,30	1975,00
2470,78	2127,00
2475,25	1891,00
2479,72	2023,00
2484,19	1972,00
2488,65	2062,00
2493,11	1949,00
2497,56	1971,00
2502,01	1777,00
2506,46	2108,00
2510,90	1928,00
2515,34	2060,00
2519,77	1997,00
2524,20	1846,00
2528,62	1928,00
2533,04	2046,00
2537,46	1886,00
2541,87	1908,00
2546,28	1898,00
2550,68	1955,00
2555,08	1855,00
2559,48	1949,00
2563,87	1798,00
2568,26	1874,00
2572,64	1970,00
2577,02	2019,00
2581,40	1732,00
2585,77	1851,00
2590,14	1779,00
2594,50	1730,00
2598,86	1779,00
2603,22	1841,00
2607,57	1820,00
2611,92	1862,00
2616,26	1766,00
2620,60	1922,00
2624,94	1726,00
2629,27	1944,00
2633,60	1731,00
2637,92	1901,00
2642,24	1892,00
2646,56	1737,00
2650,87	1816,00
2655,18	1957,00
2659,48	1645,00
2663,78	1748,00
2668,08	1804,00
2672,37	1848,00
2676,66	1844,00
2680,95	1829,00
2685,23	1798,00
2689,50	1740,00
2693,78	1833,00
2698,05	1620,00
2702,31	1752,00
2706,57	1817,00
2710,83	1936,00
2715,08	1744,00
2719,33	2014,00
2723,58	1935,00
2727,82	1936,00
2732,06	1871,00
2736,29	1715,00
2740,53	1883,00
2744,75	1734,00
2748,97	1824,00
2753,19	1841,00
2757,41	1877,00
2761,62	1870,00
2765,83	1896,00
2770,03	1730,00
2774,23	1694,00
2778,43	1691,00
2782,62	1776,00
2786,81	1716,00
2791,00	1772,00
2795,18	1825,00
2799,35	1804,00
2803,53	1886,00
2807,70	1846,00
2811,86	1628,00
2816,03	1991,00
2820,19	1888,00
2824,34	1822,00
2828,49	1925,00
2832,64	2057,00
2836,78	2169,00
2840,92	2272,00
2845,06	2597,00
2849,19	2633,00
2853,32	2803,00
2857,45	2833,00
2861,57	2632,00
2865,69	2666,00
2869,80	2526,00
2873,91	2539,00
2878,02	2752,00
2882,12	2892,00
2886,22	2720,00
2890,32	2802,00
2894,41	2690,00
2898,50	2475,00
2902,58	2449,00
2906,67	2450,00
2910,74	2220,00
2914,82	2165,00
2918,89	2315,00
2922,96	2047,00
2927,02	2050,00
2931,08	1852,00
2935,13	1881,00
2939,19	1977,00
2943,24	1875,00
2947,28	1772,00
2951,32	1581,00
2955,36	1569,00
2959,40	1683,00
2963,43	1763,00
2967,46	1485,00
2971,48	1454,00
2975,50	1701,00
2979,52	1643,00
2983,53	1631,00
2987,54	1478,00
2991,55	1541,00
2995,55	1507,00
2999,55	1403,00
3003,54	1333,00
3007,54	1525,00
3011,53	1442,00
3015,51	1444,00
3019,49	1579,00
3023,47	1422,00
3027,45	1365,00
3031,42	1401,00
3035,39	1380,00
3039,35	1336,00
3043,31	1463,00
3047,27	1482,00
3051,22	1460,00
3055,17	1364,00
3059,12	1269,00
3063,06	1416,00
3067,00	1197,00
3070,94	1303,00
3074,87	1406,00
3078,80	1379,00
3082,73	1314,00
3086,65	1306,00
3090,57	1211,00
3094,49	1325,00
3098,40	1278,00
3102,31	1231,00
3106,22	1378,00
3110,12	1321,00
3114,02	1329,00
3117,92	1352,00
3121,81	1120,00
3125,70	1266,00
3129,58	1204,00
3133,47	1285,00
3137,34	1310,00
3141,22	1241,00
3145,09	1367,00
3148,96	1218,00
3152,83	1154,00
3156,69	1337,00
3160,55	1193,00
3164,40	1275,00
3168,26	1146,00
3172,10	1324,00
3175,95	1280,00
3179,79	1267,00
3183,63	1213,00
3187,47	1118,00
3191,30	1163,00
3195,13	1372,00
3198,95	1083,00
3202,78	1258,00
3206,60	1126,00
3210,41	1130,00
3214,23	1128,00
3218,03	1205,00
3221,84	1144,00
3225,64	1114,00
3229,44	1236,00
3233,24	1212,00
3237,03	1158,00
3240,82	1029,00
3244,61	1107,00
3248,39	1166,00
3252,17	1242,00
3255,95	1245,00
3259,72	1192,00
3263,49	1338,00
3267,26	1008,00
3271,03	1096,00
3274,79	1081,00
3278,54	1114,00
3282,30	1019,00
3286,05	1046,00
3289,80	1155,00
3293,54	1099,00
3297,29	1114,00
3301,02	1036,00
3304,76	1175,00
3308,49	1183,00
3312,22	1076,00
3315,95	1106,00
3319,67	1128,00
3323,39	1224,00
3327,10	1189,00
3330,82	1135,00
3334,53	1069,00
3338,24	1058,00
3341,94	1140,00
3345,64	1033,00
3349,34	1122,00
3353,03	1084,00
3356,72	1096,00
3360,41	1131,00
3364,10	1165,00
3367,78	975,00
3371,46	1152,00
3375,13	1145,00
3378,81	1088,00
3382,48	1084,00
3386,14	1216,00
3389,81	1129,00
3393,47	1003,00
3397,12	1148,00
3400,78	1085,00
3404,43	1034,00
3408,08	1107,00
3411,72	1043,00
3415,36	1032,00
3419,00	994,00
3422,64	1024,00
3426,27	981,00
3429,90	1034,00
3433,53	1029,00
3437,15	1014,00
3440,77	954,00
3444,39	965,00
3448,00	1009,00
3451,62	943,00
3455,22	1003,00
3458,83	974,00
3462,43	1046,00
3466,03	1139,00
3469,63	1052,00
3473,22	1064,00
3476,81	991,00
3480,40	1063,00
3483,99	1001,00
3487,57	1096,00
3491,15	951,00
3494,72	1013,00
3498,29	1054,00
3501,86	956,00
3505,43	1050,00
3508,99	1005,00
3512,56	1046,00
3516,11	1080,00
3519,67	1073,00
3523,22	1048,00
3526,77	1119,00
3530,32	1002,00
3533,86	1038,00
3537,40	1096,00
3540,94	1043,00
3544,47	983,00
3548,00	925,00
3551,53	995,00
3555,06	985,00
3558,58	1135,00
3562,10	980,00
3565,62	979,00
3569,13	1024,00
3572,64	1029,00
3576,15	876,00
3579,66	1020,00
3583,16	985,00
3586,66	949,00
3590,16	944,00
3593,65	931,00
3597,14	896,00
3600,63	958,00
3604,11	1034,00
3607,60	1033,00
3611,08	997,00
3614,55	947,00
3618,03	870,00
3621,50	956,00
3624,97	934,00
3628,43	1129,00
3631,90	1030,00
3635,36	926,00
3638,81	946,00
3642,27	1016,00
3645,72	968,00
3649,17	1015,00
3652,61	909,00
3656,06	880,00
3659,50	856,00
3662,93	843,00
3666,37	927,00
3669,80	1073,00
3673,23	894,00
3676,65	991,00
3680,08	1013,00
3683,50	835,00
3686,92	911,00
3690,33	913,00
3693,74	929,00
3697,15	775,00
3700,56	960,00
3703,96	943,00
3707,36	810,00
3710,76	808,00
3714,16	761,00
3717,55	847,00
3720,94	951,00
3724,33	860,00
3727,71	950,00
3731,10	825,00
3734,48	837,00
3737,85	760,00
3741,23	762,00
3744,60	838,00
3747,97	816,00
3751,33	851,00
3754,69	829,00
3758,05	852,00
3761,41	824,00
3764,77	791,00
3768,12	715,00
3771,47	753,00
3774,82	877,00
3778,16	-10,00
3781,50	11,00
3784,84	2,00
3788,18	10,00
>>>>>End Processed Spectral Data<<<<<
