SpectraSuite Data File
++++++++++++++++++++++++++++++++++++
Date: Mon Mar 09 14:38:35 ICT 2026
User: Administrator
Dark Spectrum Present: Yes
Reference Spectrum Present: No
Number of Sampled Component Spectra: 1
Spectrometers: MAYP113682
Integration Time (usec): 3000000 (MAYP113682)
Spectra Averaged: 1 (MAYP113682)
Boxcar Smoothing: 0 (MAYP113682)
Correct for Electrical Dark: No (MAYP113682)
Strobe/Lamp Enabled: No (MAYP113682)
Correct for Detector Non-linearity: No (MAYP113682)
Correct for Stray Light: No (MAYP113682)
Number of Pixels in Processed Spectrum: 2068
>>>>>Begin Processed Spectral Data<<<<<
-37534,58	13,00
-37414,56	1,00
-37295,11	1,00
-37176,24	-5,00
-37057,95	220,00
-36940,22	199,00
-36823,05	228,00
-36706,45	251,00
-36590,40	150,00
-36474,90	265,00
-36359,95	238,00
-36245,55	230,00
-36131,68	336,00
-36018,35	225,00
-35905,55	226,00
-35793,29	208,00
-35681,54	243,00
-35570,32	235,00
-35459,62	217,00
-35349,43	338,00
-35239,75	169,00
-35130,58	260,00
-35021,91	200,00
-34913,74	333,00
-34806,07	221,00
-34698,89	273,00
-34592,20	277,00
-34486,00	358,00
-34380,28	233,00
-34275,04	257,00
-34170,27	164,00
-34065,98	201,00
-33962,16	220,00
-33858,81	205,00
-33755,92	170,00
-33653,49	311,00
-33551,52	341,00
-33450,01	202,00
-33348,94	258,00
-33248,33	244,00
-33148,16	242,00
-33048,43	257,00
-32949,14	289,00
-32850,29	284,00
-32751,87	198,00
-32653,89	262,00
-32556,33	293,00
-32459,20	186,00
-32362,49	243,00
-32266,19	257,00
-32170,32	289,00
-32074,86	260,00
-31979,82	258,00
-31885,18	385,00
-31790,95	369,00
-31697,12	214,00
-31603,69	244,00
-31510,67	260,00
-31418,04	207,00
-31325,80	288,00
-31233,95	285,00
-31142,49	203,00
-31051,42	326,00
-30960,73	269,00
-30870,43	277,00
-30780,50	221,00
-30690,95	257,00
-30601,77	375,00
-30512,97	189,00
-30424,53	299,00
-30336,46	320,00
-30248,76	300,00
-30161,42	257,00
-30074,44	256,00
-29987,81	212,00
-29901,55	368,00
-29815,63	246,00
-29730,07	250,00
-29644,86	265,00
-29560,00	264,00
-29475,48	231,00
-29391,30	293,00
-29307,47	218,00
-29223,97	334,00
-29140,81	216,00
-29057,99	339,00
-28975,50	294,00
-28893,34	285,00
-28811,51	289,00
-28730,00	253,00
-28648,82	221,00
-28567,97	292,00
-28487,43	248,00
-28407,21	294,00
-28327,32	195,00
-28247,73	299,00
-28168,46	220,00
-28089,50	279,00
-28010,85	208,00
-27932,51	169,00
-27854,48	398,00
-27776,75	215,00
-27699,32	272,00
-27622,19	295,00
-27545,37	245,00
-27468,84	278,00
-27392,60	317,00
-27316,66	275,00
-27241,01	212,00
-27165,66	344,00
-27090,59	235,00
-27015,81	203,00
-26941,31	260,00
-26867,10	247,00
-26793,17	320,00
-26719,52	285,00
-26646,15	229,00
-26573,06	321,00
-26500,24	235,00
-26427,70	256,00
-26355,43	343,00
-26283,43	265,00
-26211,71	273,00
-26140,25	224,00
-26069,06	358,00
-25998,13	234,00
-25927,46	211,00
-25857,06	374,00
-25786,92	269,00
-25717,04	246,00
-25647,42	221,00
-25578,05	316,00
-25508,94	256,00
-25440,09	228,00
-25371,48	217,00
-25303,13	162,00
-25235,02	265,00
-25167,17	334,00
-25099,56	256,00
-25032,19	210,00
-24965,07	268,00
-24898,20	211,00
-24831,56	204,00
-24765,17	250,00
-24699,01	202,00
-24633,10	330,00
-24567,41	207,00
-24501,97	257,00
-24436,75	301,00
-24371,77	278,00
-24307,03	251,00
-24242,51	131,00
-24178,22	357,00
-24114,16	223,00
-24050,32	163,00
-23986,71	319,00
-23923,32	199,00
-23860,16	311,00
-23797,22	247,00
-23734,50	320,00
-23672,00	245,00
-23609,71	242,00
-23547,65	198,00
-23485,80	263,00
-23424,16	260,00
-23362,74	284,00
-23301,53	229,00
-23240,54	316,00
-23179,75	261,00
-23119,17	230,00
-23058,80	328,00
-22998,64	219,00
-22938,68	259,00
-22878,93	216,00
-22819,39	274,00
-22760,04	313,00
-22700,90	199,00
-22641,96	282,00
-22583,22	263,00
-22524,68	244,00
-22466,33	216,00
-22408,19	320,00
-22350,23	253,00
-22292,48	224,00
-22234,92	184,00
-22177,55	309,00
-22120,37	280,00
-22063,38	194,00
-22006,58	218,00
-21949,98	319,00
-21893,56	187,00
-21837,33	257,00
-21781,28	213,00
-21725,42	288,00
-21669,74	255,00
-21614,25	261,00
-21558,94	221,00
-21503,81	162,00
-21448,86	235,00
-21394,10	261,00
-21339,51	196,00
-21285,10	208,00
-21230,86	205,00
-21176,81	210,00
-21122,93	239,00
-21069,22	317,00
-21015,69	207,00
-20962,33	275,00
-20909,14	265,00
-20856,13	251,00
-20803,28	208,00
-20750,61	240,00
-20698,10	240,00
-20645,76	252,00
-20593,59	315,00
-20541,59	178,00
-20489,75	306,00
-20438,07	292,00
-20386,56	319,00
-20335,22	353,00
-20284,03	237,00
-20233,01	231,00
-20182,15	158,00
-20131,45	188,00
-20080,91	263,00
-20030,52	289,00
-19980,30	167,00
-19930,23	191,00
-19880,32	267,00
-19830,56	238,00
-19780,96	193,00
-19731,52	233,00
-19682,23	261,00
-19633,09	193,00
-19584,10	255,00
-19535,26	233,00
-19486,58	219,00
-19438,04	173,00
-19389,66	199,00
-19341,42	286,00
-19293,33	184,00
-19245,39	274,00
-19197,60	206,00
-19149,95	276,00
-19102,45	254,00
-19055,09	236,00
-19007,87	260,00
-18960,80	257,00
-18913,87	271,00
-18867,09	317,00
-18820,44	326,00
-18773,94	277,00
-18727,57	162,00
-18681,35	229,00
-18635,26	271,00
-18589,31	225,00
-18543,50	181,00
-18497,83	328,00
-18452,29	184,00
-18406,89	201,00
-18361,63	267,00
-18316,50	250,00
-18271,50	195,00
-18226,63	252,00
-18181,90	265,00
-18137,30	236,00
-18092,84	188,00
-18048,50	347,00
-18004,29	174,00
-17960,22	234,00
-17916,27	219,00
-17872,45	244,00
-17828,76	243,00
-17785,20	319,00
-17741,77	264,00
-17698,46	269,00
-17655,28	231,00
-17612,22	214,00
-17569,29	208,00
-17526,48	237,00
-17483,79	244,00
-17441,23	231,00
-17398,79	219,00
-17356,48	264,00
-17314,28	362,00
-17272,21	240,00
-17230,26	250,00
-17188,42	231,00
-17146,71	268,00
-17105,12	238,00
-17063,64	278,00
-17022,28	245,00
-16981,04	278,00
-16939,92	236,00
-16898,91	312,00
-16858,02	330,00
-16817,25	222,00
-16776,59	209,00
-16736,04	297,00
-16695,61	163,00
-16655,29	269,00
-16615,09	281,00
-16574,99	267,00
-16535,01	200,00
-16495,15	271,00
-16455,39	298,00
-16415,74	196,00
-16376,21	251,00
-16336,78	196,00
-16297,46	297,00
-16258,26	295,00
-16219,16	289,00
-16180,17	256,00
-16141,28	365,00
-16102,51	229,00
-16063,84	291,00
-16025,27	356,00
-15986,82	225,00
-15948,46	227,00
-15910,22	358,00
-15872,07	341,00
-15834,04	218,00
-15796,10	276,00
-15758,27	395,00
-15720,54	277,00
-15682,91	241,00
-15645,39	201,00
-15607,97	201,00
-15570,64	240,00
-15533,42	293,00
-15496,30	244,00
-15459,28	178,00
-15422,36	172,00
-15385,54	199,00
-15348,82	247,00
-15312,19	306,00
-15275,66	254,00
-15239,23	211,00
-15202,90	249,00
-15166,67	243,00
-15130,53	253,00
-15094,48	276,00
-15058,54	239,00
-15022,68	210,00
-14986,93	288,00
-14951,26	272,00
-14915,69	91,00
-14880,22	172,00
-14844,84	284,00
-14809,55	261,00
-14774,35	253,00
-14739,25	329,00
-14704,24	241,00
-14669,32	302,00
-14634,49	228,00
-14599,75	234,00
-14565,10	169,00
-14530,55	271,00
-14496,08	238,00
-14461,70	261,00
-14427,41	257,00
-14393,21	258,00
-14359,10	274,00
-14325,07	312,00
-14291,14	219,00
-14257,29	234,00
-14223,52	192,00
-14189,85	316,00
-14156,26	294,00
-14122,76	275,00
-14089,34	194,00
-14056,01	165,00
-14022,76	252,00
-13989,60	321,00
-13956,52	221,00
-13923,53	248,00
-13890,62	249,00
-13857,79	175,00
-13825,05	292,00
-13792,39	201,00
-13759,81	216,00
-13727,31	240,00
-13694,90	227,00
-13662,57	217,00
-13630,31	236,00
-13598,14	203,00
-13566,05	273,00
-13534,05	284,00
-13502,12	269,00
-13470,27	278,00
-13438,50	327,00
-13406,80	203,00
-13375,19	199,00
-13343,66	295,00
-13312,20	132,00
-13280,83	160,00
-13249,53	250,00
-13218,30	234,00
-13187,16	193,00
-13156,09	276,00
-13125,10	295,00
-13094,18	256,00
-13063,34	299,00
-13032,58	205,00
-13001,89	316,00
-12971,28	236,00
-12940,74	264,00
-12910,27	304,00
-12879,88	194,00
-12849,57	281,00
-12819,33	151,00
-12789,16	211,00
-12759,06	113,00
-12729,04	259,00
-12699,09	532,00
-12669,21	195,00
-12639,41	295,00
-12609,68	267,00
-12580,02	202,00
-12550,43	239,00
-12520,91	133,00
-12491,46	312,00
-12462,08	237,00
-12432,77	189,00
-12403,54	294,00
-12374,37	227,00
-12345,27	260,00
-12316,24	270,00
-12287,29	392,00
-12258,40	194,00
-12229,57	280,00
-12200,82	350,00
-12172,14	101,00
-12143,52	215,00
-12114,97	175,00
-12086,49	230,00
-12058,07	300,00
-12029,73	247,00
-12001,44	350,00
-11973,23	263,00
-11945,08	269,00
-11917,00	283,00
-11888,98	250,00
-11861,03	262,00
-11833,15	311,00
-11805,32	233,00
-11777,57	256,00
-11749,88	278,00
-11722,25	203,00
-11694,69	252,00
-11667,19	243,00
-11639,75	168,00
-11612,38	231,00
-11585,07	249,00
-11557,83	288,00
-11530,65	297,00
-11503,53	314,00
-11476,47	342,00
-11449,48	267,00
-11422,54	179,00
-11395,67	261,00
-11368,86	276,00
-11342,11	264,00
-11315,43	212,00
-11288,80	231,00
-11262,23	328,00
-11235,73	256,00
-11209,28	195,00
-11182,90	224,00
-11156,57	314,00
-11130,31	249,00
-11104,10	288,00
-11077,96	258,00
-11051,87	236,00
-11025,84	278,00
-10999,87	237,00
-10973,96	322,00
-10948,11	260,00
-10922,31	306,00
-10896,58	284,00
-10870,90	270,00
-10845,28	184,00
-10819,71	230,00
-10794,20	162,00
-10768,75	318,00
-10743,36	280,00
-10718,02	285,00
-10692,74	240,00
-10667,52	201,00
-10642,35	354,00
-10617,24	288,00
-10592,18	251,00
-10567,18	228,00
-10542,23	220,00
-10517,34	276,00
-10492,51	292,00
-10467,72	242,00
-10443,00	270,00
-10418,32	267,00
-10393,70	238,00
-10369,14	136,00
-10344,63	287,00
-10320,17	177,00
-10295,77	260,00
-10271,42	328,00
-10247,12	236,00
-10222,88	412,00
-10198,68	216,00
-10174,54	279,00
-10150,46	286,00
-10126,42	290,00
-10102,44	198,00
-10078,51	319,00
-10054,63	273,00
-10030,80	224,00
-10007,03	287,00
-9983,30	324,00
-9959,63	270,00
-9936,01	280,00
-9912,44	375,00
-9888,92	323,00
-9865,44	247,00
-9842,02	243,00
-9818,65	231,00
-9795,33	379,00
-9772,06	285,00
-9748,84	281,00
-9725,67	306,00
-9702,55	310,00
-9679,47	409,00
-9656,45	265,00
-9633,47	242,00
-9610,55	347,00
-9587,67	356,00
-9564,84	409,00
-9542,06	366,00
-9519,32	421,00
-9496,64	427,00
-9474,00	361,00
-9451,41	429,00
-9428,87	433,00
-9406,37	418,00
-9383,92	436,00
-9361,52	334,00
-9339,17	378,00
-9316,86	354,00
-9294,60	394,00
-9272,38	496,00
-9250,21	412,00
-9228,09	480,00
-9206,01	469,00
-9183,98	381,00
-9162,00	381,00
-9140,06	365,00
-9118,16	351,00
-9096,31	478,00
-9074,51	407,00
-9052,75	545,00
-9031,04	510,00
-9009,37	354,00
-8987,74	298,00
-8966,16	325,00
-8944,63	296,00
-8923,14	319,00
-8901,69	329,00
-8880,29	369,00
-8858,93	385,00
-8837,61	459,00
-8816,34	505,00
-8795,11	398,00
-8773,92	496,00
-8752,78	467,00
-8731,68	381,00
-8710,62	356,00
-8689,61	331,00
-8668,63	396,00
-8647,70	462,00
-8626,82	396,00
-8605,97	430,00
-8585,17	422,00
-8564,41	359,00
-8543,69	441,00
-8523,01	318,00
-8502,37	360,00
-8481,78	328,00
-8461,23	257,00
-8440,71	360,00
-8420,24	352,00
-8399,81	422,00
-8379,42	447,00
-8359,08	423,00
-8338,77	339,00
-8318,50	496,00
-8298,27	358,00
-8278,09	443,00
-8257,94	365,00
-8237,83	481,00
-8217,76	369,00
-8197,74	373,00
-8177,75	493,00
-8157,80	408,00
-8137,89	407,00
-8118,02	365,00
-8098,19	432,00
-8078,40	332,00
-8058,65	342,00
-8038,93	438,00
-8019,26	433,00
-7999,62	427,00
-7980,02	359,00
-7960,46	413,00
-7940,94	398,00
-7921,46	360,00
-7902,01	317,00
-7882,60	392,00
-7863,23	356,00
-7843,90	373,00
-7824,61	412,00
-7805,35	375,00
-7786,13	464,00
-7766,95	330,00
-7747,80	367,00
-7728,69	391,00
-7709,62	432,00
-7690,59	342,00
-7671,59	380,00
-7652,63	432,00
-7633,70	288,00
-7614,81	391,00
-7595,96	349,00
-7577,15	312,00
-7558,37	369,00
-7539,62	296,00
-7520,91	290,00
-7502,24	322,00
-7483,60	368,00
-7465,00	402,00
-7446,44	318,00
-7427,91	407,00
-7409,41	343,00
-7390,95	366,00
-7372,53	243,00
-7354,14	310,00
-7335,78	340,00
-7317,46	364,00
-7299,18	323,00
-7280,92	251,00
-7262,71	391,00
-7244,52	324,00
-7226,38	386,00
-7208,26	479,00
-7190,18	312,00
-7172,14	354,00
-7154,12	337,00
-7136,15	342,00
-7118,20	273,00
-7100,29	344,00
-7082,41	451,00
-7064,57	376,00
-7046,76	318,00
-7028,98	289,00
-7011,24	370,00
-6993,53	200,00
-6975,85	191,00
-6958,20	259,00
-6940,59	241,00
-6923,01	309,00
-6905,46	371,00
-6887,94	317,00
-6870,46	379,00
-6853,01	302,00
-6835,59	301,00
-6818,21	277,00
-6800,85	382,00
-6783,53	273,00
-6766,24	254,00
-6748,98	238,00
-6731,76	205,00
-6714,56	191,00
-6697,40	236,00
-6680,26	170,00
-6663,16	214,00
-6646,09	264,00
-6629,05	277,00
-6612,05	350,00
-6595,07	253,00
-6578,13	300,00
-6561,21	284,00
-6544,33	217,00
-6527,47	256,00
-6510,65	246,00
-6493,86	228,00
-6477,10	197,00
-6460,36	265,00
-6443,66	267,00
-6426,99	328,00
-6410,35	295,00
-6393,74	338,00
-6377,16	269,00
-6360,61	160,00
-6344,09	199,00
-6327,59	247,00
-6311,13	122,00
-6294,70	366,00
-6278,29	304,00
-6261,92	294,00
-6245,58	315,00
-6229,26	362,00
-6212,97	305,00
-6196,72	299,00
-6180,49	296,00
-6164,29	219,00
-6148,12	315,00
-6131,98	150,00
-6115,86	224,00
-6099,78	238,00
-6083,72	197,00
-6067,69	228,00
-6051,69	214,00
-6035,72	288,00
-6019,78	259,00
-6003,87	335,00
-5987,98	191,00
-5972,12	367,00
-5956,29	284,00
-5940,49	215,00
-5924,71	276,00
-5908,96	290,00
-5893,24	283,00
-5877,55	221,00
-5861,89	235,00
-5846,25	228,00
-5830,64	246,00
-5815,05	134,00
-5799,50	275,00
-5783,97	236,00
-5768,47	301,00
-5752,99	331,00
-5737,55	231,00
-5722,12	200,00
-5706,73	175,00
-5691,36	280,00
-5676,02	228,00
-5660,71	297,00
-5645,42	219,00
-5630,16	228,00
-5614,92	168,00
-5599,71	168,00
-5584,53	238,00
-5569,37	209,00
-5554,24	958,00
-5539,14	251,00
-5524,06	248,00
-5509,01	228,00
-5493,98	212,00
-5478,98	253,00
-5464,00	155,00
-5449,05	143,00
-5434,13	292,00
-5419,23	299,00
-5404,36	222,00
-5389,51	287,00
-5374,69	275,00
-5359,89	221,00
-5345,12	361,00
-5330,37	314,00
-5315,65	399,00
-5300,95	313,00
-5286,28	204,00
-5271,63	192,00
-5257,01	265,00
-5242,41	229,00
-5227,84	273,00
-5213,29	231,00
-5198,76	229,00
-5184,26	160,00
-5169,79	276,00
-5155,33	312,00
-5140,91	314,00
-5126,51	241,00
-5112,13	342,00
-5097,77	339,00
-5083,44	342,00
-5069,13	194,00
-5054,85	247,00
-5040,59	111,00
-5026,36	291,00
-5012,15	234,00
-4997,96	197,00
-4983,80	255,00
-4969,66	271,00
-4955,54	334,00
-4941,44	277,00
-4927,37	266,00
-4913,33	357,00
-4899,30	212,00
-4885,30	326,00
-4871,33	254,00
-4857,37	252,00
-4843,44	345,00
-4829,53	313,00
-4815,65	211,00
-4801,79	176,00
-4787,95	177,00
-4774,13	115,00
-4760,34	193,00
-4746,56	313,00
-4732,82	277,00
-4719,09	217,00
-4705,38	212,00
-4691,70	313,00
-4678,04	231,00
-4664,41	289,00
-4650,79	269,00
-4637,20	336,00
-4623,63	231,00
-4610,08	282,00
-4596,56	268,00
-4583,05	291,00
-4569,57	253,00
-4556,11	316,00
-4542,67	230,00
-4529,25	187,00
-4515,86	365,00
-4502,49	316,00
-4489,13	275,00
-4475,80	235,00
-4462,49	183,00
-4449,21	371,00
-4435,94	203,00
-4422,70	257,00
-4409,47	176,00
-4396,27	343,00
-4383,09	213,00
-4369,93	216,00
-4356,79	310,00
-4343,67	243,00
-4330,58	294,00
-4317,50	115,00
-4304,45	263,00
-4291,41	253,00
-4278,40	266,00
-4265,41	213,00
-4252,44	252,00
-4239,49	246,00
-4226,55	333,00
-4213,65	357,00
-4200,76	263,00
-4187,89	216,00
-4175,04	274,00
-4162,21	350,00
-4149,40	263,00
-4136,61	128,00
-4123,85	228,00
-4111,10	289,00
-4098,37	323,00
-4085,66	270,00
-4072,98	295,00
-4060,31	187,00
-4047,66	226,00
-4035,04	284,00
-4022,43	231,00
-4009,84	276,00
-3997,27	207,00
-3984,72	308,00
-3972,19	276,00
-3959,69	199,00
-3947,20	285,00
-3934,73	340,00
-3922,27	303,00
-3909,84	230,00
-3897,43	252,00
-3885,04	232,00
-3872,67	267,00
-3860,31	313,00
-3847,98	252,00
-3835,66	127,00
-3823,36	293,00
-3811,09	213,00
-3798,83	228,00
-3786,59	290,00
-3774,37	255,00
-3762,17	269,00
-3749,98	170,00
-3737,82	200,00
-3725,67	201,00
-3713,55	194,00
-3701,44	235,00
-3689,35	268,00
-3677,28	246,00
-3665,22	180,00
-3653,19	316,00
-3641,17	219,00
-3629,18	294,00
-3617,20	220,00
-3605,24	165,00
-3593,30	194,00
-3581,37	247,00
-3569,47	235,00
-3557,58	249,00
-3545,71	165,00
-3533,86	334,00
-3522,02	241,00
-3510,21	275,00
-3498,41	274,00
-3486,63	236,00
-3474,87	304,00
-3463,12	209,00
-3451,40	276,00
-3439,69	344,00
-3428,00	293,00
-3416,33	333,00
-3404,67	180,00
-3393,03	277,00
-3381,41	232,00
-3369,81	206,00
-3358,22	209,00
-3346,66	222,00
-3335,10	253,00
-3323,57	213,00
-3312,06	225,00
-3300,56	196,00
-3289,08	150,00
-3277,61	273,00
-3266,16	295,00
-3254,73	288,00
-3243,32	253,00
-3231,92	234,00
-3220,55	224,00
-3209,18	305,00
-3197,84	232,00
-3186,51	211,00
-3175,20	164,00
-3163,90	235,00
-3152,63	297,00
-3141,36	226,00
-3130,12	174,00
-3118,89	261,00
-3107,68	242,00
-3096,49	280,00
-3085,31	324,00
-3074,15	204,00
-3063,00	226,00
-3051,87	274,00
-3040,76	358,00
-3029,67	296,00
-3018,59	279,00
-3007,52	237,00
-2996,48	354,00
-2985,44	200,00
-2974,43	166,00
-2963,43	303,00
-2952,45	140,00
-2941,48	173,00
-2930,53	265,00
-2919,60	171,00
-2908,68	200,00
-2897,78	233,00
-2886,89	287,00
-2876,02	241,00
-2865,17	167,00
-2854,33	200,00
-2843,50	232,00
-2832,70	151,00
-2821,90	247,00
-2811,13	245,00
-2800,37	227,00
-2789,62	282,00
-2778,89	300,00
-2768,18	264,00
-2757,48	267,00
-2746,80	250,00
-2736,13	259,00
-2725,48	198,00
-2714,84	226,00
-2704,22	216,00
-2693,61	143,00
-2683,02	259,00
-2672,45	232,00
-2661,89	327,00
-2651,34	244,00
-2640,81	197,00
-2630,30	292,00
-2619,80	300,00
-2609,31	287,00
-2598,84	202,00
-2588,39	295,00
-2577,95	218,00
-2567,52	215,00
-2557,11	306,00
-2546,71	257,00
-2536,33	328,00
-2525,97	210,00
-2515,62	200,00
-2505,28	237,00
-2494,96	264,00
-2484,65	105,00
-2474,36	332,00
-2464,08	260,00
-2453,82	294,00
-2443,57	272,00
-2433,33	187,00
-2423,11	230,00
-2412,91	246,00
-2402,72	172,00
-2392,54	320,00
-2382,38	234,00
-2372,23	286,00
-2362,09	245,00
-2351,97	293,00
-2341,87	176,00
-2331,78	235,00
-2321,70	287,00
-2311,64	337,00
-2301,59	172,00
-2291,55	224,00
-2281,53	325,00
-2271,53	206,00
-2261,53	274,00
-2251,55	172,00
-2241,59	224,00
-2231,64	249,00
-2221,70	181,00
-2211,78	266,00
-2201,87	306,00
-2191,97	297,00
-2182,09	264,00
-2172,22	377,00
-2162,37	187,00
-2152,53	251,00
-2142,70	201,00
-2132,89	212,00
-2123,09	308,00
-2113,30	240,00
-2103,53	269,00
-2093,77	189,00
-2084,02	178,00
-2074,29	261,00
-2064,57	254,00
-2054,86	242,00
-2045,17	276,00
-2035,49	328,00
-2025,82	220,00
-2016,17	200,00
-2006,53	265,00
-1996,91	232,00
-1987,29	150,00
-1977,69	260,00
-1968,11	256,00
-1958,53	169,00
-1948,97	275,00
-1939,42	254,00
-1929,89	226,00
-1920,37	314,00
-1910,86	258,00
-1901,36	270,00
-1891,88	241,00
-1882,41	307,00
-1872,95	291,00
-1863,51	229,00
-1854,08	215,00
-1844,66	274,00
-1835,26	227,00
-1825,86	317,00
-1816,48	211,00
-1807,11	217,00
-1797,76	277,00
-1788,42	247,00
-1779,09	298,00
-1769,77	202,00
-1760,47	278,00
-1751,17	330,00
-1741,89	298,00
-1732,63	321,00
-1723,37	399,00
-1714,13	358,00
-1704,90	199,00
-1695,68	351,00
-1686,48	188,00
-1677,29	231,00
-1668,11	285,00
-1658,94	284,00
-1649,78	316,00
-1640,64	258,00
-1631,51	276,00
-1622,39	319,00
-1613,28	336,00
-1604,19	346,00
-1595,10	228,00
-1586,03	223,00
-1576,97	357,00
-1567,93	265,00
-1558,89	390,00
-1549,87	279,00
-1540,86	214,00
-1531,86	215,00
-1522,87	221,00
-1513,90	267,00
-1504,93	239,00
-1495,98	227,00
-1487,04	306,00
-1478,12	307,00
-1469,20	155,00
-1460,30	298,00
-1451,40	262,00
-1442,52	218,00
-1433,65	298,00
-1424,80	272,00
-1415,95	303,00
-1407,12	320,00
-1398,30	192,00
-1389,48	199,00
-1380,69	285,00
-1371,90	229,00
-1363,12	336,00
-1354,36	373,00
-1345,60	246,00
-1336,86	236,00
-1328,13	292,00
-1319,41	290,00
-1310,70	240,00
-1302,01	289,00
-1293,32	230,00
-1284,65	237,00
-1275,99	265,00
-1267,33	311,00
-1258,69	288,00
-1250,06	304,00
-1241,45	270,00
-1232,84	317,00
-1224,25	262,00
-1215,66	339,00
-1207,09	235,00
-1198,53	297,00
-1189,97	202,00
-1181,43	265,00
-1172,91	321,00
-1164,39	248,00
-1155,88	332,00
-1147,38	172,00
-1138,90	276,00
-1130,43	259,00
-1121,96	225,00
-1113,51	342,00
-1105,07	213,00
-1096,64	144,00
-1088,22	222,00
-1079,81	250,00
-1071,41	305,00
-1063,02	326,00
-1054,65	263,00
-1046,28	269,00
-1037,92	327,00
-1029,58	230,00
-1021,24	292,00
-1012,92	305,00
-1004,61	329,00
-996,30	369,00
-988,01	216,00
-979,73	318,00
-971,46	209,00
-963,20	273,00
-954,95	152,00
-946,71	197,00
-938,48	278,00
-930,26	320,00
-922,06	313,00
-913,86	227,00
-905,67	213,00
-897,49	168,00
-889,33	337,00
-881,17	268,00
-873,02	346,00
-864,89	104,00
-856,76	205,00
-848,65	192,00
-840,54	289,00
-832,45	262,00
-824,36	214,00
-816,29	279,00
-808,22	299,00
-800,17	350,00
-792,12	250,00
-784,09	372,00
-776,06	220,00
-768,05	293,00
-760,04	249,00
-752,05	249,00
-744,07	337,00
-736,09	337,00
-728,13	235,00
-720,17	310,00
-712,23	313,00
-704,29	265,00
-696,37	235,00
-688,45	328,00
-680,55	198,00
-672,65	314,00
-664,77	225,00
-656,89	278,00
-649,03	191,00
-641,17	254,00
-633,32	339,00
-625,49	309,00
-617,66	351,00
-609,84	211,00
-602,03	209,00
-594,23	206,00
-586,45	279,00
-578,67	219,00
-570,90	212,00
-563,14	305,00
-555,39	323,00
-547,65	264,00
-539,91	332,00
-532,19	252,00
-524,48	294,00
-516,78	308,00
-509,08	294,00
-501,40	278,00
-493,72	218,00
-486,06	332,00
-478,40	373,00
-470,76	252,00
-463,12	313,00
-455,49	264,00
-447,87	251,00
-440,26	278,00
-432,66	205,00
-425,07	228,00
-417,49	258,00
-409,92	314,00
-402,35	199,00
-394,80	261,00
-387,25	285,00
-379,72	328,00
-372,19	207,00
-364,67	272,00
-357,17	270,00
-349,67	271,00
-342,18	186,00
-334,69	306,00
-327,22	297,00
-319,76	233,00
-312,30	314,00
-304,86	342,00
-297,42	326,00
-290,00	197,00
-282,58	251,00
-275,17	318,00
-267,77	297,00
-260,37	241,00
-252,99	339,00
-245,62	311,00
-238,25	270,00
-230,90	311,00
-223,55	339,00
-216,21	349,00
-208,88	301,00
-201,56	388,00
-194,25	358,00
-186,94	378,00
-179,65	342,00
-172,36	423,00
-165,08	408,00
-157,81	421,00
-150,55	416,00
-143,30	500,00
-136,06	478,00
-128,82	509,00
-121,60	502,00
-114,38	594,00
-107,17	578,00
-99,97	647,00
-92,78	645,00
-85,60	866,00
-78,42	798,00
-71,25	963,00
-64,10	1044,00
-56,95	1058,00
-49,81	1302,00
-42,67	1657,00
-35,55	1931,00
-28,43	2473,00
-21,33	3860,00
-14,23	11956,00
-7,14	57775,00
-0,05	57564,00
7,02	57281,00
14,09	43458,00
21,14	11275,00
28,19	4829,00
35,23	3190,00
42,27	2445,00
49,29	2089,00
56,31	1766,00
63,32	1517,00
70,32	1267,00
77,31	1024,00
84,29	955,00
91,27	1022,00
98,23	934,00
105,19	800,00
112,14	861,00
119,09	1194,00
126,02	1685,00
132,95	2105,00
139,87	2151,00
146,78	2141,00
153,68	2084,00
160,58	2016,00
167,46	2025,00
174,34	1967,00
181,21	2184,00
188,08	2058,00
194,93	2070,00
201,78	2045,00
208,62	1936,00
215,45	2009,00
222,27	2076,00
229,09	2069,00
235,90	2033,00
242,70	2060,00
249,49	2099,00
256,27	1984,00
263,05	1973,00
269,82	2033,00
276,58	2087,00
283,33	2014,00
290,08	1990,00
296,82	1918,00
303,55	1978,00
310,27	1832,00
316,98	1975,00
323,69	1826,00
330,39	1848,00
337,08	2020,00
343,76	1922,00
350,44	1909,00
357,11	1965,00
363,77	1846,00
370,42	1914,00
377,07	2030,00
383,71	1994,00
390,34	1877,00
396,96	1903,00
403,58	1944,00
410,19	1992,00
416,79	1913,00
423,38	1984,00
429,97	1954,00
436,55	1848,00
443,12	1911,00
449,68	1824,00
456,24	1876,00
462,79	1880,00
469,33	1861,00
475,86	1870,00
482,39	1837,00
488,91	1867,00
495,42	1881,00
501,93	1918,00
508,42	1854,00
514,91	1859,00
521,40	1790,00
527,87	1822,00
534,34	1714,00
540,80	1955,00
547,25	1814,00
553,70	1899,00
560,14	1785,00
566,57	1946,00
573,00	1792,00
579,41	1886,00
585,83	1931,00
592,23	1867,00
598,62	1817,00
605,01	1950,00
611,40	1872,00
617,77	1917,00
624,14	1891,00
630,50	1897,00
636,85	1922,00
643,20	1869,00
649,54	1879,00
655,87	1857,00
662,20	1927,00
668,52	1793,00
674,83	1870,00
681,13	1884,00
687,43	1845,00
693,72	1806,00
700,00	1763,00
706,28	1823,00
712,55	1786,00
718,81	1779,00
725,07	1792,00
731,32	1900,00
737,56	1914,00
743,79	1899,00
750,02	1917,00
756,24	1903,00
762,46	1860,00
768,67	1940,00
774,87	1985,00
781,06	1970,00
787,25	1929,00
793,43	1945,00
799,60	1842,00
805,77	1933,00
811,93	1833,00
818,08	1922,00
824,23	1924,00
830,37	2050,00
836,50	1940,00
842,63	1924,00
848,75	1899,00
854,87	2011,00
860,97	1960,00
867,07	1904,00
873,17	1927,00
879,25	1936,00
885,33	1884,00
891,41	1944,00
897,47	1928,00
903,53	1904,00
909,59	1949,00
915,63	1901,00
921,67	1909,00
927,71	1839,00
933,74	1886,00
939,76	1883,00
945,77	1923,00
951,78	1873,00
957,78	1857,00
963,78	1946,00
969,77	1966,00
975,75	2040,00
981,72	1846,00
987,69	2190,00
993,66	1926,00
999,61	1991,00
1005,56	2066,00
1011,51	1997,00
1017,44	2013,00
1023,37	2031,00
1029,30	1953,00
1035,22	2089,00
1041,13	2033,00
1047,03	2062,00
1052,93	2132,00
1058,83	2378,00
1064,71	2644,00
1070,59	2441,00
1076,47	2262,00
1082,33	2191,00
1088,20	2065,00
1094,05	2167,00
1099,90	2002,00
1105,74	2077,00
1111,58	2024,00
1117,41	2186,00
1123,23	2397,00
1129,05	2676,00
1134,86	2467,00
1140,67	2284,00
1146,47	2130,00
1152,26	2223,00
1158,05	1943,00
1163,83	2022,00
1169,60	2148,00
1175,37	2072,00
1181,13	2027,00
1186,89	2156,00
1192,64	1999,00
1198,38	2071,00
1204,12	2013,00
1209,85	2051,00
1215,58	2060,00
1221,30	2098,00
1227,02	2078,00
1232,72	2038,00
1238,43	2061,00
1244,12	2050,00
1249,81	2065,00
1255,50	2093,00
1261,17	2045,00
1266,85	2125,00
1272,51	2140,00
1278,17	2234,00
1283,83	2298,00
1289,47	2580,00
1295,12	2967,00
1300,75	2860,00
1306,38	2499,00
1312,01	2309,00
1317,63	2256,00
1323,24	2214,00
1328,85	2256,00
1334,45	2111,00
1340,04	2162,00
1345,63	2107,00
1351,22	2251,00
1356,80	2162,00
1362,37	2234,00
1367,93	2148,00
1373,49	2126,00
1379,05	2158,00
1384,60	2083,00
1390,14	2183,00
1395,68	2226,00
1401,21	2186,00
1406,74	2259,00
1412,26	2348,00
1417,77	2597,00
1423,28	2467,00
1428,78	2586,00
1434,28	2758,00
1439,77	2886,00
1445,26	2945,00
1450,74	2873,00
1456,22	2691,00
1461,68	2732,00
1467,15	2600,00
1472,61	2499,00
1478,06	2461,00
1483,51	2217,00
1488,95	2187,00
1494,38	2094,00
1499,81	2113,00
1505,24	2126,00
1510,65	2123,00
1516,07	2044,00
1521,48	2030,00
1526,88	1948,00
1532,27	2117,00
1537,67	1986,00
1543,05	2058,00
1548,43	2003,00
1553,81	2066,00
1559,18	1967,00
1564,54	2120,00
1569,90	1934,00
1575,25	2019,00
1580,60	1887,00
1585,94	1936,00
1591,28	2059,00
1596,61	2035,00
1601,93	1985,00
1607,25	2077,00
1612,57	1980,00
1617,88	1892,00
1623,18	1933,00
1628,48	1930,00
1633,77	1892,00
1639,06	1959,00
1644,34	1930,00
1649,62	1885,00
1654,89	2030,00
1660,16	1876,00
1665,42	1874,00
1670,67	1832,00
1675,92	1892,00
1681,17	1805,00
1686,41	1957,00
1691,64	2002,00
1696,87	1878,00
1702,10	1803,00
1707,32	1879,00
1712,53	1849,00
1717,74	1901,00
1722,94	1856,00
1728,14	1837,00
1733,33	1829,00
1738,52	1777,00
1743,70	1863,00
1748,88	1782,00
1754,05	1792,00
1759,22	1734,00
1764,38	2872,00
1769,53	1746,00
1774,69	1836,00
1779,83	1744,00
1784,97	1729,00
1790,11	1680,00
1795,24	1751,00
1800,36	1863,00
1805,48	1636,00
1810,60	1793,00
1815,71	1847,00
1820,82	1714,00
1825,92	1757,00
1831,01	1677,00
1836,10	1756,00
1841,19	1754,00
1846,26	1642,00
1851,34	1718,00
1856,41	1779,00
1861,47	1743,00
1866,53	1662,00
1871,59	1703,00
1876,64	1616,00
1881,68	1732,00
1886,72	1832,00
1891,76	1716,00
1896,79	1720,00
1901,81	1604,00
1906,83	1680,00
1911,85	1654,00
1916,86	1619,00
1921,86	1644,00
1926,86	1581,00
1931,86	1670,00
1936,85	1623,00
1941,83	1660,00
1946,81	1646,00
1951,79	1521,00
1956,76	1479,00
1961,72	1529,00
1966,68	1446,00
1971,64	1531,00
1976,59	1520,00
1981,54	1574,00
1986,48	1480,00
1991,42	1550,00
1996,35	1684,00
2001,27	1568,00
2006,20	1438,00
2011,11	1638,00
2016,03	1521,00
2020,93	1566,00
2025,84	1622,00
2030,73	1461,00
2035,63	1417,00
2040,52	1506,00
2045,40	1477,00
2050,28	1540,00
2055,15	1566,00
2060,02	1379,00
2064,89	1483,00
2069,75	1517,00
2074,60	1476,00
2079,46	1501,00
2084,30	1495,00
2089,14	1425,00
2093,98	1455,00
2098,81	1416,00
2103,64	1493,00
2108,46	1426,00
2113,28	1384,00
2118,09	1434,00
2122,90	1413,00
2127,70	1430,00
2132,50	1484,00
2137,30	1391,00
2142,09	1289,00
2146,87	1361,00
2151,66	1508,00
2156,43	1398,00
2161,20	1421,00
2165,97	1457,00
2170,73	1317,00
2175,49	1359,00
2180,24	1435,00
2184,99	1429,00
2189,74	1411,00
2194,48	1418,00
2199,21	1478,00
2203,94	1304,00
2208,67	1339,00
2213,39	1284,00
2218,11	1439,00
2222,82	1447,00
2227,53	1385,00
2232,23	1542,00
2236,93	1309,00
2241,63	1419,00
2246,32	1286,00
2251,00	1299,00
2255,68	1237,00
2260,36	1388,00
2265,03	1342,00
2269,70	1416,00
2274,36	1323,00
2279,02	1279,00
2283,68	1289,00
2288,33	1211,00
2292,97	1209,00
2297,61	1306,00
2302,25	1230,00
2306,88	1252,00
2311,51	1161,00
2316,14	1307,00
2320,75	1228,00
2325,37	1196,00
2329,98	1281,00
2334,59	1226,00
2339,19	1312,00
2343,79	1169,00
2348,38	1143,00
2352,97	1278,00
2357,55	1331,00
2362,13	1260,00
2366,71	1126,00
2371,28	1231,00
2375,85	1216,00
2380,41	1228,00
2384,97	1127,00
2389,52	1145,00
2394,07	1051,00
2398,62	1214,00
2403,16	1195,00
2407,70	1144,00
2412,23	1203,00
2416,76	1223,00
2421,29	1127,00
2425,81	1203,00
2430,32	1097,00
2434,84	1031,00
2439,34	1087,00
2443,85	1249,00
2448,35	1072,00
2452,84	1057,00
2457,33	1017,00
2461,82	1012,00
2466,30	1070,00
2470,78	1094,00
2475,25	1000,00
2479,72	968,00
2484,19	1022,00
2488,65	1014,00
2493,11	975,00
2497,56	1007,00
2502,01	992,00
2506,46	1076,00
2510,90	1065,00
2515,34	1000,00
2519,77	1045,00
2524,20	1011,00
2528,62	955,00
2533,04	967,00
2537,46	959,00
2541,87	947,00
2546,28	915,00
2550,68	1010,00
2555,08	880,00
2559,48	1010,00
2563,87	975,00
2568,26	850,00
2572,64	959,00
2577,02	929,00
2581,40	879,00
2585,77	858,00
2590,14	893,00
2594,50	910,00
2598,86	934,00
2603,22	929,00
2607,57	957,00
2611,92	874,00
2616,26	891,00
2620,60	955,00
2624,94	886,00
2629,27	1033,00
2633,60	850,00
2637,92	950,00
2642,24	864,00
2646,56	852,00
2650,87	924,00
2655,18	924,00
2659,48	908,00
2663,78	926,00
2668,08	826,00
2672,37	921,00
2676,66	963,00
2680,95	859,00
2685,23	889,00
2689,50	845,00
2693,78	917,00
2698,05	865,00
2702,31	927,00
2706,57	917,00
2710,83	1004,00
2715,08	916,00
2719,33	1058,00
2723,58	1021,00
2727,82	869,00
2732,06	983,00
2736,29	901,00
2740,53	1020,00
2744,75	878,00
2748,97	893,00
2753,19	912,00
2757,41	895,00
2761,62	1003,00
2765,83	1022,00
2770,03	958,00
2774,23	818,00
2778,43	845,00
2782,62	889,00
2786,81	900,00
2791,00	958,00
2795,18	987,00
2799,35	942,00
2803,53	1094,00
2807,70	942,00
2811,86	894,00
2816,03	980,00
2820,19	944,00
2824,34	1004,00
2828,49	1003,00
2832,64	1077,00
2836,78	1283,00
2840,92	1496,00
2845,06	1749,00
2849,19	1755,00
2853,32	1845,00
2857,45	1883,00
2861,57	1743,00
2865,69	1833,00
2869,80	1727,00
2873,91	1707,00
2878,02	1940,00
2882,12	1966,00
2886,22	1975,00
2890,32	1873,00
2894,41	1830,00
2898,50	1648,00
2902,58	1506,00
2906,67	1484,00
2910,74	1341,00
2914,82	1304,00
2918,89	1320,00
2922,96	1175,00
2927,02	1277,00
2931,08	1092,00
2935,13	1002,00
2939,19	1029,00
2943,24	967,00
2947,28	915,00
2951,32	843,00
2955,36	785,00
2959,40	838,00
2963,43	916,00
2967,46	810,00
2971,48	743,00
2975,50	748,00
2979,52	708,00
2983,53	728,00
2987,54	683,00
2991,55	693,00
2995,55	711,00
2999,55	632,00
3003,54	601,00
3007,54	686,00
3011,53	577,00
3015,51	587,00
3019,49	636,00
3023,47	573,00
3027,45	589,00
3031,42	613,00
3035,39	552,00
3039,35	506,00
3043,31	596,00
3047,27	600,00
3051,22	604,00
3055,17	469,00
3059,12	473,00
3063,06	553,00
3067,00	489,00
3070,94	502,00
3074,87	567,00
3078,80	588,00
3082,73	475,00
3086,65	571,00
3090,57	470,00
3094,49	573,00
3098,40	562,00
3102,31	427,00
3106,22	550,00
3110,12	523,00
3114,02	528,00
3117,92	468,00
3121,81	408,00
3125,70	462,00
3129,58	461,00
3133,47	436,00
3137,34	463,00
3141,22	479,00
3145,09	540,00
3148,96	350,00
3152,83	400,00
3156,69	459,00
3160,55	397,00
3164,40	502,00
3168,26	441,00
3172,10	572,00
3175,95	501,00
3179,79	445,00
3183,63	484,00
3187,47	442,00
3191,30	357,00
3195,13	535,00
3198,95	362,00
3202,78	543,00
3206,60	399,00
3210,41	455,00
3214,23	376,00
3218,03	493,00
3221,84	422,00
3225,64	297,00
3229,44	411,00
3233,24	465,00
3237,03	403,00
3240,82	392,00
3244,61	333,00
3248,39	371,00
3252,17	452,00
3255,95	299,00
3259,72	394,00
3263,49	384,00
3267,26	337,00
3271,03	364,00
3274,79	394,00
3278,54	449,00
3282,30	355,00
3286,05	361,00
3289,80	359,00
3293,54	431,00
3297,29	325,00
3301,02	442,00
3304,76	370,00
3308,49	391,00
3312,22	345,00
3315,95	309,00
3319,67	305,00
3323,39	432,00
3327,10	436,00
3330,82	318,00
3334,53	290,00
3338,24	318,00
3341,94	327,00
3345,64	300,00
3349,34	330,00
3353,03	336,00
3356,72	369,00
3360,41	397,00
3364,10	399,00
3367,78	356,00
3371,46	345,00
3375,13	370,00
3378,81	280,00
3382,48	361,00
3386,14	458,00
3389,81	424,00
3393,47	281,00
3397,12	319,00
3400,78	326,00
3404,43	377,00
3408,08	278,00
3411,72	334,00
3415,36	305,00
3419,00	228,00
3422,64	419,00
3426,27	330,00
3429,90	351,00
3433,53	308,00
3437,15	328,00
3440,77	278,00
3444,39	278,00
3448,00	346,00
3451,62	248,00
3455,22	254,00
3458,83	326,00
3462,43	336,00
3466,03	362,00
3469,63	366,00
3473,22	369,00
3476,81	250,00
3480,40	328,00
3483,99	350,00
3487,57	339,00
3491,15	332,00
3494,72	290,00
3498,29	323,00
3501,86	280,00
3505,43	330,00
3508,99	331,00
3512,56	291,00
3516,11	298,00
3519,67	344,00
3523,22	355,00
3526,77	259,00
3530,32	249,00
3533,86	284,00
3537,40	315,00
3540,94	284,00
3544,47	331,00
3548,00	243,00
3551,53	294,00
3555,06	264,00
3558,58	291,00
3562,10	275,00
3565,62	272,00
3569,13	258,00
3572,64	277,00
3576,15	197,00
3579,66	266,00
3583,16	228,00
3586,66	267,00
3590,16	280,00
3593,65	241,00
3597,14	275,00
3600,63	285,00
3604,11	336,00
3607,60	222,00
3611,08	279,00
3614,55	147,00
3618,03	161,00
3621,50	256,00
3624,97	261,00
3628,43	371,00
3631,90	276,00
3635,36	252,00
3638,81	293,00
3642,27	306,00
3645,72	278,00
3649,17	314,00
3652,61	218,00
3656,06	181,00
3659,50	279,00
3662,93	256,00
3666,37	291,00
3669,80	287,00
3673,23	302,00
3676,65	307,00
3680,08	293,00
3683,50	302,00
3686,92	299,00
3690,33	222,00
3693,74	227,00
3697,15	167,00
3700,56	269,00
3703,96	243,00
3707,36	153,00
3710,76	232,00
3714,16	251,00
3717,55	170,00
3720,94	302,00
3724,33	275,00
3727,71	279,00
3731,10	205,00
3734,48	159,00
3737,85	139,00
3741,23	152,00
3744,60	245,00
3747,97	197,00
3751,33	151,00
3754,69	263,00
3758,05	242,00
3761,41	182,00
3764,77	213,00
3768,12	180,00
3771,47	183,00
3774,82	208,00
3778,16	-3,00
3781,50	5,00
3784,84	7,00
3788,18	7,00
>>>>>End Processed Spectral Data<<<<<
