SpectraSuite Data File
++++++++++++++++++++++++++++++++++++
Date: Mon Mar 09 15:12:23 ICT 2026
User: Administrator
Dark Spectrum Present: Yes
Reference Spectrum Present: No
Number of Sampled Component Spectra: 1
Spectrometers: MAYP113682
Integration Time (usec): 3000000 (MAYP113682)
Spectra Averaged: 1 (MAYP113682)
Boxcar Smoothing: 0 (MAYP113682)
Correct for Electrical Dark: No (MAYP113682)
Strobe/Lamp Enabled: No (MAYP113682)
Correct for Detector Non-linearity: No (MAYP113682)
Correct for Stray Light: No (MAYP113682)
Number of Pixels in Processed Spectrum: 2068
>>>>>Begin Processed Spectral Data<<<<<
-37534,58	0,00
-37414,56	1,00
-37295,11	-3,00
-37176,24	6,00
-37057,95	146,00
-36940,22	258,00
-36823,05	138,00
-36706,45	213,00
-36590,40	226,00
-36474,90	152,00
-36359,95	239,00
-36245,55	205,00
-36131,68	79,00
-36018,35	194,00
-35905,55	121,00
-35793,29	217,00
-35681,54	167,00
-35570,32	97,00
-35459,62	217,00
-35349,43	223,00
-35239,75	345,00
-35130,58	45,00
-35021,91	148,00
-34913,74	150,00
-34806,07	168,00
-34698,89	249,00
-34592,20	176,00
-34486,00	176,00
-34380,28	205,00
-34275,04	217,00
-34170,27	195,00
-34065,98	153,00
-33962,16	109,00
-33858,81	110,00
-33755,92	227,00
-33653,49	188,00
-33551,52	215,00
-33450,01	241,00
-33348,94	235,00
-33248,33	181,00
-33148,16	197,00
-33048,43	220,00
-32949,14	301,00
-32850,29	132,00
-32751,87	156,00
-32653,89	129,00
-32556,33	158,00
-32459,20	237,00
-32362,49	214,00
-32266,19	177,00
-32170,32	216,00
-32074,86	305,00
-31979,82	179,00
-31885,18	266,00
-31790,95	127,00
-31697,12	276,00
-31603,69	175,00
-31510,67	272,00
-31418,04	113,00
-31325,80	195,00
-31233,95	219,00
-31142,49	131,00
-31051,42	194,00
-30960,73	205,00
-30870,43	184,00
-30780,50	194,00
-30690,95	146,00
-30601,77	269,00
-30512,97	183,00
-30424,53	164,00
-30336,46	118,00
-30248,76	200,00
-30161,42	224,00
-30074,44	138,00
-29987,81	242,00
-29901,55	275,00
-29815,63	136,00
-29730,07	203,00
-29644,86	165,00
-29560,00	101,00
-29475,48	324,00
-29391,30	164,00
-29307,47	181,00
-29223,97	167,00
-29140,81	150,00
-29057,99	181,00
-28975,50	180,00
-28893,34	222,00
-28811,51	126,00
-28730,00	286,00
-28648,82	148,00
-28567,97	219,00
-28487,43	240,00
-28407,21	324,00
-28327,32	96,00
-28247,73	205,00
-28168,46	114,00
-28089,50	171,00
-28010,85	182,00
-27932,51	156,00
-27854,48	112,00
-27776,75	211,00
-27699,32	44,00
-27622,19	155,00
-27545,37	229,00
-27468,84	126,00
-27392,60	169,00
-27316,66	132,00
-27241,01	190,00
-27165,66	194,00
-27090,59	148,00
-27015,81	220,00
-26941,31	189,00
-26867,10	201,00
-26793,17	179,00
-26719,52	69,00
-26646,15	252,00
-26573,06	189,00
-26500,24	140,00
-26427,70	321,00
-26355,43	98,00
-26283,43	257,00
-26211,71	230,00
-26140,25	203,00
-26069,06	316,00
-25998,13	154,00
-25927,46	192,00
-25857,06	-34,00
-25786,92	179,00
-25717,04	184,00
-25647,42	153,00
-25578,05	73,00
-25508,94	174,00
-25440,09	183,00
-25371,48	166,00
-25303,13	209,00
-25235,02	93,00
-25167,17	281,00
-25099,56	136,00
-25032,19	204,00
-24965,07	170,00
-24898,20	158,00
-24831,56	147,00
-24765,17	240,00
-24699,01	132,00
-24633,10	123,00
-24567,41	250,00
-24501,97	215,00
-24436,75	201,00
-24371,77	188,00
-24307,03	190,00
-24242,51	120,00
-24178,22	225,00
-24114,16	74,00
-24050,32	316,00
-23986,71	80,00
-23923,32	65,00
-23860,16	265,00
-23797,22	31,00
-23734,50	180,00
-23672,00	129,00
-23609,71	175,00
-23547,65	120,00
-23485,80	174,00
-23424,16	162,00
-23362,74	203,00
-23301,53	123,00
-23240,54	144,00
-23179,75	71,00
-23119,17	250,00
-23058,80	134,00
-22998,64	214,00
-22938,68	175,00
-22878,93	136,00
-22819,39	177,00
-22760,04	101,00
-22700,90	210,00
-22641,96	125,00
-22583,22	209,00
-22524,68	172,00
-22466,33	170,00
-22408,19	296,00
-22350,23	274,00
-22292,48	165,00
-22234,92	223,00
-22177,55	290,00
-22120,37	267,00
-22063,38	145,00
-22006,58	240,00
-21949,98	169,00
-21893,56	127,00
-21837,33	170,00
-21781,28	159,00
-21725,42	84,00
-21669,74	99,00
-21614,25	237,00
-21558,94	86,00
-21503,81	237,00
-21448,86	27,00
-21394,10	274,00
-21339,51	42,00
-21285,10	138,00
-21230,86	198,00
-21176,81	224,00
-21122,93	166,00
-21069,22	233,00
-21015,69	98,00
-20962,33	250,00
-20909,14	170,00
-20856,13	151,00
-20803,28	194,00
-20750,61	209,00
-20698,10	265,00
-20645,76	151,00
-20593,59	322,00
-20541,59	154,00
-20489,75	252,00
-20438,07	120,00
-20386,56	243,00
-20335,22	133,00
-20284,03	150,00
-20233,01	127,00
-20182,15	143,00
-20131,45	253,00
-20080,91	223,00
-20030,52	137,00
-19980,30	234,00
-19930,23	114,00
-19880,32	246,00
-19830,56	143,00
-19780,96	339,00
-19731,52	223,00
-19682,23	255,00
-19633,09	73,00
-19584,10	234,00
-19535,26	307,00
-19486,58	112,00
-19438,04	133,00
-19389,66	209,00
-19341,42	121,00
-19293,33	177,00
-19245,39	190,00
-19197,60	203,00
-19149,95	183,00
-19102,45	149,00
-19055,09	180,00
-19007,87	261,00
-18960,80	113,00
-18913,87	204,00
-18867,09	178,00
-18820,44	76,00
-18773,94	166,00
-18727,57	145,00
-18681,35	188,00
-18635,26	263,00
-18589,31	175,00
-18543,50	214,00
-18497,83	233,00
-18452,29	178,00
-18406,89	230,00
-18361,63	300,00
-18316,50	231,00
-18271,50	250,00
-18226,63	229,00
-18181,90	101,00
-18137,30	123,00
-18092,84	105,00
-18048,50	228,00
-18004,29	177,00
-17960,22	146,00
-17916,27	180,00
-17872,45	162,00
-17828,76	136,00
-17785,20	177,00
-17741,77	161,00
-17698,46	189,00
-17655,28	203,00
-17612,22	153,00
-17569,29	223,00
-17526,48	164,00
-17483,79	147,00
-17441,23	125,00
-17398,79	105,00
-17356,48	225,00
-17314,28	245,00
-17272,21	260,00
-17230,26	126,00
-17188,42	154,00
-17146,71	172,00
-17105,12	245,00
-17063,64	116,00
-17022,28	240,00
-16981,04	219,00
-16939,92	227,00
-16898,91	90,00
-16858,02	145,00
-16817,25	119,00
-16776,59	252,00
-16736,04	96,00
-16695,61	145,00
-16655,29	170,00
-16615,09	220,00
-16574,99	111,00
-16535,01	260,00
-16495,15	64,00
-16455,39	203,00
-16415,74	63,00
-16376,21	208,00
-16336,78	131,00
-16297,46	92,00
-16258,26	135,00
-16219,16	134,00
-16180,17	238,00
-16141,28	131,00
-16102,51	126,00
-16063,84	164,00
-16025,27	196,00
-15986,82	149,00
-15948,46	164,00
-15910,22	175,00
-15872,07	106,00
-15834,04	230,00
-15796,10	174,00
-15758,27	252,00
-15720,54	120,00
-15682,91	162,00
-15645,39	211,00
-15607,97	220,00
-15570,64	195,00
-15533,42	162,00
-15496,30	145,00
-15459,28	202,00
-15422,36	201,00
-15385,54	218,00
-15348,82	191,00
-15312,19	175,00
-15275,66	286,00
-15239,23	121,00
-15202,90	242,00
-15166,67	261,00
-15130,53	144,00
-15094,48	155,00
-15058,54	192,00
-15022,68	109,00
-14986,93	225,00
-14951,26	188,00
-14915,69	235,00
-14880,22	134,00
-14844,84	335,00
-14809,55	60,00
-14774,35	152,00
-14739,25	248,00
-14704,24	194,00
-14669,32	144,00
-14634,49	-26,00
-14599,75	168,00
-14565,10	212,00
-14530,55	183,00
-14496,08	263,00
-14461,70	160,00
-14427,41	219,00
-14393,21	233,00
-14359,10	107,00
-14325,07	152,00
-14291,14	151,00
-14257,29	122,00
-14223,52	207,00
-14189,85	274,00
-14156,26	223,00
-14122,76	209,00
-14089,34	188,00
-14056,01	338,00
-14022,76	150,00
-13989,60	212,00
-13956,52	164,00
-13923,53	156,00
-13890,62	249,00
-13857,79	117,00
-13825,05	235,00
-13792,39	141,00
-13759,81	355,00
-13727,31	159,00
-13694,90	259,00
-13662,57	66,00
-13630,31	245,00
-13598,14	130,00
-13566,05	227,00
-13534,05	205,00
-13502,12	135,00
-13470,27	173,00
-13438,50	208,00
-13406,80	126,00
-13375,19	163,00
-13343,66	163,00
-13312,20	158,00
-13280,83	231,00
-13249,53	226,00
-13218,30	132,00
-13187,16	148,00
-13156,09	253,00
-13125,10	140,00
-13094,18	212,00
-13063,34	140,00
-13032,58	307,00
-13001,89	165,00
-12971,28	115,00
-12940,74	178,00
-12910,27	127,00
-12879,88	220,00
-12849,57	115,00
-12819,33	96,00
-12789,16	103,00
-12759,06	173,00
-12729,04	104,00
-12699,09	308,00
-12669,21	271,00
-12639,41	227,00
-12609,68	146,00
-12580,02	183,00
-12550,43	163,00
-12520,91	101,00
-12491,46	192,00
-12462,08	116,00
-12432,77	219,00
-12403,54	67,00
-12374,37	146,00
-12345,27	231,00
-12316,24	210,00
-12287,29	161,00
-12258,40	193,00
-12229,57	193,00
-12200,82	225,00
-12172,14	161,00
-12143,52	264,00
-12114,97	214,00
-12086,49	197,00
-12058,07	64,00
-12029,73	218,00
-12001,44	144,00
-11973,23	182,00
-11945,08	140,00
-11917,00	148,00
-11888,98	189,00
-11861,03	143,00
-11833,15	289,00
-11805,32	303,00
-11777,57	133,00
-11749,88	180,00
-11722,25	196,00
-11694,69	94,00
-11667,19	126,00
-11639,75	183,00
-11612,38	160,00
-11585,07	253,00
-11557,83	226,00
-11530,65	49,00
-11503,53	169,00
-11476,47	124,00
-11449,48	104,00
-11422,54	127,00
-11395,67	182,00
-11368,86	224,00
-11342,11	218,00
-11315,43	341,00
-11288,80	111,00
-11262,23	246,00
-11235,73	186,00
-11209,28	129,00
-11182,90	210,00
-11156,57	101,00
-11130,31	205,00
-11104,10	266,00
-11077,96	327,00
-11051,87	226,00
-11025,84	105,00
-10999,87	262,00
-10973,96	212,00
-10948,11	178,00
-10922,31	118,00
-10896,58	259,00
-10870,90	205,00
-10845,28	222,00
-10819,71	134,00
-10794,20	252,00
-10768,75	193,00
-10743,36	164,00
-10718,02	185,00
-10692,74	118,00
-10667,52	141,00
-10642,35	142,00
-10617,24	189,00
-10592,18	168,00
-10567,18	146,00
-10542,23	246,00
-10517,34	136,00
-10492,51	205,00
-10467,72	105,00
-10443,00	169,00
-10418,32	161,00
-10393,70	250,00
-10369,14	267,00
-10344,63	125,00
-10320,17	239,00
-10295,77	159,00
-10271,42	115,00
-10247,12	175,00
-10222,88	80,00
-10198,68	192,00
-10174,54	217,00
-10150,46	266,00
-10126,42	90,00
-10102,44	216,00
-10078,51	88,00
-10054,63	173,00
-10030,80	51,00
-10007,03	332,00
-9983,30	178,00
-9959,63	120,00
-9936,01	244,00
-9912,44	183,00
-9888,92	74,00
-9865,44	193,00
-9842,02	116,00
-9818,65	133,00
-9795,33	45,00
-9772,06	128,00
-9748,84	160,00
-9725,67	-27,00
-9702,55	186,00
-9679,47	181,00
-9656,45	132,00
-9633,47	129,00
-9610,55	71,00
-9587,67	85,00
-9564,84	92,00
-9542,06	56,00
-9519,32	27,00
-9496,64	188,00
-9474,00	111,00
-9451,41	90,00
-9428,87	-23,00
-9406,37	-41,00
-9383,92	-187,00
-9361,52	-259,00
-9339,17	-234,00
-9316,86	-111,00
-9294,60	-26,00
-9272,38	-82,00
-9250,21	-3,00
-9228,09	76,00
-9206,01	-99,00
-9183,98	-40,00
-9162,00	-234,00
-9140,06	-119,00
-9118,16	-266,00
-9096,31	-51,00
-9074,51	-178,00
-9052,75	-36,00
-9031,04	-101,00
-9009,37	-37,00
-8987,74	-136,00
-8966,16	-134,00
-8944,63	-63,00
-8923,14	-241,00
-8901,69	-205,00
-8880,29	-25,00
-8858,93	58,00
-8837,61	-15,00
-8816,34	117,00
-8795,11	69,00
-8773,92	130,00
-8752,78	114,00
-8731,68	50,00
-8710,62	179,00
-8689,61	0,00
-8668,63	115,00
-8647,70	113,00
-8626,82	196,00
-8605,97	232,00
-8585,17	72,00
-8564,41	-6,00
-8543,69	-5,00
-8523,01	-55,00
-8502,37	-37,00
-8481,78	14,00
-8461,23	139,00
-8440,71	165,00
-8420,24	51,00
-8399,81	265,00
-8379,42	140,00
-8359,08	-6,00
-8338,77	236,00
-8318,50	151,00
-8298,27	56,00
-8278,09	117,00
-8257,94	234,00
-8237,83	213,00
-8217,76	241,00
-8197,74	222,00
-8177,75	340,00
-8157,80	298,00
-8137,89	160,00
-8118,02	264,00
-8098,19	205,00
-8078,40	277,00
-8058,65	234,00
-8038,93	170,00
-8019,26	411,00
-7999,62	312,00
-7980,02	231,00
-7960,46	212,00
-7940,94	258,00
-7921,46	153,00
-7902,01	183,00
-7882,60	156,00
-7863,23	239,00
-7843,90	114,00
-7824,61	256,00
-7805,35	307,00
-7786,13	368,00
-7766,95	250,00
-7747,80	221,00
-7728,69	215,00
-7709,62	209,00
-7690,59	279,00
-7671,59	337,00
-7652,63	220,00
-7633,70	338,00
-7614,81	317,00
-7595,96	344,00
-7577,15	246,00
-7558,37	309,00
-7539,62	260,00
-7520,91	307,00
-7502,24	227,00
-7483,60	271,00
-7465,00	262,00
-7446,44	241,00
-7427,91	166,00
-7409,41	95,00
-7390,95	131,00
-7372,53	116,00
-7354,14	46,00
-7335,78	241,00
-7317,46	225,00
-7299,18	58,00
-7280,92	222,00
-7262,71	358,00
-7244,52	327,00
-7226,38	140,00
-7208,26	230,00
-7190,18	269,00
-7172,14	156,00
-7154,12	147,00
-7136,15	189,00
-7118,20	195,00
-7100,29	166,00
-7082,41	134,00
-7064,57	246,00
-7046,76	349,00
-7028,98	55,00
-7011,24	163,00
-6993,53	-22,00
-6975,85	121,00
-6958,20	-52,00
-6940,59	-1,00
-6923,01	22,00
-6905,46	65,00
-6887,94	33,00
-6870,46	140,00
-6853,01	119,00
-6835,59	65,00
-6818,21	199,00
-6800,85	103,00
-6783,53	112,00
-6766,24	2,00
-6748,98	8,00
-6731,76	-89,00
-6714,56	-3,00
-6697,40	-82,00
-6680,26	-107,00
-6663,16	76,00
-6646,09	16,00
-6629,05	-12,00
-6612,05	107,00
-6595,07	63,00
-6578,13	99,00
-6561,21	-17,00
-6544,33	19,00
-6527,47	-20,00
-6510,65	-102,00
-6493,86	-135,00
-6477,10	-125,00
-6460,36	-102,00
-6443,66	65,00
-6426,99	-103,00
-6410,35	-9,00
-6393,74	-59,00
-6377,16	122,00
-6360,61	37,00
-6344,09	22,00
-6327,59	15,00
-6311,13	129,00
-6294,70	236,00
-6278,29	47,00
-6261,92	144,00
-6245,58	106,00
-6229,26	65,00
-6212,97	122,00
-6196,72	38,00
-6180,49	-67,00
-6164,29	-30,00
-6148,12	29,00
-6131,98	-54,00
-6115,86	-70,00
-6099,78	-69,00
-6083,72	-112,00
-6067,69	-90,00
-6051,69	-100,00
-6035,72	25,00
-6019,78	54,00
-6003,87	10,00
-5987,98	-25,00
-5972,12	97,00
-5956,29	41,00
-5940,49	102,00
-5924,71	184,00
-5908,96	-19,00
-5893,24	46,00
-5877,55	26,00
-5861,89	-28,00
-5846,25	-91,00
-5830,64	2,00
-5815,05	1,00
-5799,50	-62,00
-5783,97	163,00
-5768,47	97,00
-5752,99	-3,00
-5737,55	28,00
-5722,12	160,00
-5706,73	90,00
-5691,36	99,00
-5676,02	79,00
-5660,71	68,00
-5645,42	20,00
-5630,16	82,00
-5614,92	113,00
-5599,71	43,00
-5584,53	135,00
-5569,37	-8,00
-5554,24	168,00
-5539,14	76,00
-5524,06	70,00
-5509,01	-24,00
-5493,98	15,00
-5478,98	-41,00
-5464,00	-101,00
-5449,05	7,00
-5434,13	-45,00
-5419,23	161,00
-5404,36	75,00
-5389,51	117,00
-5374,69	55,00
-5359,89	115,00
-5345,12	29,00
-5330,37	156,00
-5315,65	147,00
-5300,95	224,00
-5286,28	187,00
-5271,63	45,00
-5257,01	-10,00
-5242,41	66,00
-5227,84	-17,00
-5213,29	30,00
-5198,76	10,00
-5184,26	119,00
-5169,79	23,00
-5155,33	5,00
-5140,91	3,00
-5126,51	9,00
-5112,13	13,00
-5097,77	148,00
-5083,44	123,00
-5069,13	155,00
-5054,85	-49,00
-5040,59	69,00
-5026,36	18,00
-5012,15	-11,00
-4997,96	-71,00
-4983,80	-29,00
-4969,66	7,00
-4955,54	94,00
-4941,44	133,00
-4927,37	141,00
-4913,33	166,00
-4899,30	204,00
-4885,30	202,00
-4871,33	116,00
-4857,37	331,00
-4843,44	30,00
-4829,53	119,00
-4815,65	-72,00
-4801,79	-83,00
-4787,95	-49,00
-4774,13	42,00
-4760,34	215,00
-4746,56	30,00
-4732,82	200,00
-4719,09	90,00
-4705,38	80,00
-4691,70	143,00
-4678,04	60,00
-4664,41	225,00
-4650,79	338,00
-4637,20	74,00
-4623,63	114,00
-4610,08	97,00
-4596,56	136,00
-4583,05	77,00
-4569,57	204,00
-4556,11	155,00
-4542,67	169,00
-4529,25	89,00
-4515,86	163,00
-4502,49	63,00
-4489,13	91,00
-4475,80	236,00
-4462,49	249,00
-4449,21	171,00
-4435,94	177,00
-4422,70	60,00
-4409,47	116,00
-4396,27	149,00
-4383,09	134,00
-4369,93	192,00
-4356,79	169,00
-4343,67	111,00
-4330,58	158,00
-4317,50	81,00
-4304,45	202,00
-4291,41	114,00
-4278,40	195,00
-4265,41	205,00
-4252,44	244,00
-4239,49	182,00
-4226,55	214,00
-4213,65	143,00
-4200,76	132,00
-4187,89	211,00
-4175,04	136,00
-4162,21	133,00
-4149,40	172,00
-4136,61	203,00
-4123,85	228,00
-4111,10	150,00
-4098,37	262,00
-4085,66	190,00
-4072,98	139,00
-4060,31	164,00
-4047,66	222,00
-4035,04	222,00
-4022,43	131,00
-4009,84	260,00
-3997,27	121,00
-3984,72	223,00
-3972,19	310,00
-3959,69	78,00
-3947,20	232,00
-3934,73	109,00
-3922,27	182,00
-3909,84	130,00
-3897,43	277,00
-3885,04	155,00
-3872,67	150,00
-3860,31	171,00
-3847,98	107,00
-3835,66	257,00
-3823,36	142,00
-3811,09	121,00
-3798,83	155,00
-3786,59	256,00
-3774,37	87,00
-3762,17	180,00
-3749,98	58,00
-3737,82	181,00
-3725,67	153,00
-3713,55	251,00
-3701,44	21,00
-3689,35	251,00
-3677,28	161,00
-3665,22	136,00
-3653,19	213,00
-3641,17	188,00
-3629,18	171,00
-3617,20	263,00
-3605,24	196,00
-3593,30	91,00
-3581,37	95,00
-3569,47	139,00
-3557,58	255,00
-3545,71	84,00
-3533,86	167,00
-3522,02	268,00
-3510,21	186,00
-3498,41	163,00
-3486,63	229,00
-3474,87	268,00
-3463,12	156,00
-3451,40	96,00
-3439,69	105,00
-3428,00	242,00
-3416,33	216,00
-3404,67	133,00
-3393,03	293,00
-3381,41	168,00
-3369,81	180,00
-3358,22	132,00
-3346,66	58,00
-3335,10	173,00
-3323,57	191,00
-3312,06	146,00
-3300,56	276,00
-3289,08	194,00
-3277,61	223,00
-3266,16	161,00
-3254,73	180,00
-3243,32	169,00
-3231,92	105,00
-3220,55	227,00
-3209,18	96,00
-3197,84	171,00
-3186,51	199,00
-3175,20	151,00
-3163,90	202,00
-3152,63	192,00
-3141,36	252,00
-3130,12	129,00
-3118,89	295,00
-3107,68	201,00
-3096,49	207,00
-3085,31	206,00
-3074,15	162,00
-3063,00	144,00
-3051,87	192,00
-3040,76	65,00
-3029,67	193,00
-3018,59	131,00
-3007,52	203,00
-2996,48	166,00
-2985,44	256,00
-2974,43	219,00
-2963,43	176,00
-2952,45	253,00
-2941,48	-9,00
-2930,53	143,00
-2919,60	305,00
-2908,68	233,00
-2897,78	204,00
-2886,89	243,00
-2876,02	101,00
-2865,17	174,00
-2854,33	189,00
-2843,50	167,00
-2832,70	253,00
-2821,90	157,00
-2811,13	246,00
-2800,37	209,00
-2789,62	242,00
-2778,89	136,00
-2768,18	190,00
-2757,48	225,00
-2746,80	217,00
-2736,13	126,00
-2725,48	280,00
-2714,84	254,00
-2704,22	245,00
-2693,61	241,00
-2683,02	152,00
-2672,45	207,00
-2661,89	102,00
-2651,34	223,00
-2640,81	139,00
-2630,30	252,00
-2619,80	173,00
-2609,31	255,00
-2598,84	153,00
-2588,39	64,00
-2577,95	73,00
-2567,52	149,00
-2557,11	210,00
-2546,71	210,00
-2536,33	267,00
-2525,97	172,00
-2515,62	168,00
-2505,28	186,00
-2494,96	163,00
-2484,65	263,00
-2474,36	236,00
-2464,08	228,00
-2453,82	139,00
-2443,57	262,00
-2433,33	206,00
-2423,11	130,00
-2412,91	162,00
-2402,72	115,00
-2392,54	195,00
-2382,38	167,00
-2372,23	236,00
-2362,09	281,00
-2351,97	118,00
-2341,87	256,00
-2331,78	256,00
-2321,70	150,00
-2311,64	295,00
-2301,59	181,00
-2291,55	229,00
-2281,53	145,00
-2271,53	219,00
-2261,53	245,00
-2251,55	245,00
-2241,59	191,00
-2231,64	227,00
-2221,70	195,00
-2211,78	165,00
-2201,87	187,00
-2191,97	204,00
-2182,09	27,00
-2172,22	167,00
-2162,37	258,00
-2152,53	217,00
-2142,70	211,00
-2132,89	223,00
-2123,09	182,00
-2113,30	204,00
-2103,53	54,00
-2093,77	168,00
-2084,02	213,00
-2074,29	270,00
-2064,57	220,00
-2054,86	158,00
-2045,17	251,00
-2035,49	200,00
-2025,82	174,00
-2016,17	160,00
-2006,53	220,00
-1996,91	244,00
-1987,29	153,00
-1977,69	316,00
-1968,11	278,00
-1958,53	148,00
-1948,97	193,00
-1939,42	202,00
-1929,89	267,00
-1920,37	175,00
-1910,86	95,00
-1901,36	165,00
-1891,88	222,00
-1882,41	272,00
-1872,95	148,00
-1863,51	141,00
-1854,08	245,00
-1844,66	209,00
-1835,26	331,00
-1825,86	151,00
-1816,48	220,00
-1807,11	192,00
-1797,76	173,00
-1788,42	105,00
-1779,09	23,00
-1769,77	166,00
-1760,47	220,00
-1751,17	119,00
-1741,89	187,00
-1732,63	211,00
-1723,37	262,00
-1714,13	248,00
-1704,90	30,00
-1695,68	137,00
-1686,48	241,00
-1677,29	235,00
-1668,11	180,00
-1658,94	298,00
-1649,78	266,00
-1640,64	171,00
-1631,51	262,00
-1622,39	145,00
-1613,28	239,00
-1604,19	180,00
-1595,10	163,00
-1586,03	119,00
-1576,97	176,00
-1567,93	264,00
-1558,89	182,00
-1549,87	165,00
-1540,86	86,00
-1531,86	134,00
-1522,87	185,00
-1513,90	197,00
-1504,93	118,00
-1495,98	242,00
-1487,04	153,00
-1478,12	233,00
-1469,20	218,00
-1460,30	160,00
-1451,40	294,00
-1442,52	146,00
-1433,65	242,00
-1424,80	296,00
-1415,95	162,00
-1407,12	193,00
-1398,30	88,00
-1389,48	180,00
-1380,69	217,00
-1371,90	135,00
-1363,12	255,00
-1354,36	251,00
-1345,60	168,00
-1336,86	197,00
-1328,13	186,00
-1319,41	121,00
-1310,70	172,00
-1302,01	260,00
-1293,32	125,00
-1284,65	95,00
-1275,99	176,00
-1267,33	240,00
-1258,69	140,00
-1250,06	193,00
-1241,45	110,00
-1232,84	93,00
-1224,25	148,00
-1215,66	180,00
-1207,09	29,00
-1198,53	238,00
-1189,97	91,00
-1181,43	122,00
-1172,91	166,00
-1164,39	198,00
-1155,88	149,00
-1147,38	237,00
-1138,90	255,00
-1130,43	264,00
-1121,96	258,00
-1113,51	161,00
-1105,07	251,00
-1096,64	212,00
-1088,22	326,00
-1079,81	97,00
-1071,41	121,00
-1063,02	106,00
-1054,65	283,00
-1046,28	170,00
-1037,92	200,00
-1029,58	214,00
-1021,24	257,00
-1012,92	293,00
-1004,61	165,00
-996,30	282,00
-988,01	223,00
-979,73	155,00
-971,46	266,00
-963,20	137,00
-954,95	141,00
-946,71	61,00
-938,48	136,00
-930,26	190,00
-922,06	254,00
-913,86	181,00
-905,67	135,00
-897,49	215,00
-889,33	168,00
-881,17	271,00
-873,02	315,00
-864,89	202,00
-856,76	177,00
-848,65	105,00
-840,54	230,00
-832,45	70,00
-824,36	191,00
-816,29	240,00
-808,22	176,00
-800,17	177,00
-792,12	149,00
-784,09	197,00
-776,06	58,00
-768,05	209,00
-760,04	231,00
-752,05	246,00
-744,07	123,00
-736,09	190,00
-728,13	156,00
-720,17	245,00
-712,23	191,00
-704,29	226,00
-696,37	78,00
-688,45	212,00
-680,55	179,00
-672,65	9,00
-664,77	212,00
-656,89	269,00
-649,03	227,00
-641,17	150,00
-633,32	165,00
-625,49	122,00
-617,66	219,00
-609,84	175,00
-602,03	121,00
-594,23	166,00
-586,45	156,00
-578,67	186,00
-570,90	176,00
-563,14	192,00
-555,39	121,00
-547,65	103,00
-539,91	379,00
-532,19	26,00
-524,48	129,00
-516,78	163,00
-509,08	222,00
-501,40	180,00
-493,72	228,00
-486,06	117,00
-478,40	85,00
-470,76	211,00
-463,12	244,00
-455,49	156,00
-447,87	120,00
-440,26	229,00
-432,66	340,00
-425,07	236,00
-417,49	209,00
-409,92	98,00
-402,35	279,00
-394,80	205,00
-387,25	177,00
-379,72	165,00
-372,19	132,00
-364,67	202,00
-357,17	145,00
-349,67	225,00
-342,18	115,00
-334,69	258,00
-327,22	208,00
-319,76	175,00
-312,30	248,00
-304,86	220,00
-297,42	192,00
-290,00	252,00
-282,58	271,00
-275,17	237,00
-267,77	178,00
-260,37	222,00
-252,99	288,00
-245,62	194,00
-238,25	178,00
-230,90	208,00
-223,55	172,00
-216,21	237,00
-208,88	178,00
-201,56	392,00
-194,25	287,00
-186,94	313,00
-179,65	367,00
-172,36	328,00
-165,08	364,00
-157,81	307,00
-150,55	338,00
-143,30	343,00
-136,06	415,00
-128,82	382,00
-121,60	447,00
-114,38	484,00
-107,17	554,00
-99,97	551,00
-92,78	612,00
-85,60	720,00
-78,42	790,00
-71,25	889,00
-64,10	895,00
-56,95	1073,00
-49,81	1287,00
-42,67	1525,00
-35,55	1858,00
-28,43	2418,00
-21,33	4123,00
-14,23	13174,00
-7,14	56139,00
-0,05	55888,00
7,02	55558,00
14,09	41770,00
21,14	11089,00
28,19	4773,00
35,23	3076,00
42,27	2401,00
49,29	2023,00
56,31	1698,00
63,32	1342,00
70,32	1212,00
77,31	1074,00
84,29	951,00
91,27	862,00
98,23	775,00
105,19	752,00
112,14	914,00
119,09	1406,00
126,02	2219,00
132,95	2662,00
139,87	2858,00
146,78	2809,00
153,68	2864,00
160,58	2766,00
167,46	2719,00
174,34	2778,00
181,21	2839,00
188,08	2763,00
194,93	2908,00
201,78	2770,00
208,62	2894,00
215,45	2778,00
222,27	2780,00
229,09	2878,00
235,90	2901,00
242,70	2871,00
249,49	2786,00
256,27	2793,00
263,05	2765,00
269,82	2804,00
276,58	2829,00
283,33	2850,00
290,08	2782,00
296,82	2673,00
303,55	2724,00
310,27	2652,00
316,98	2793,00
323,69	2757,00
330,39	2737,00
337,08	2668,00
343,76	2834,00
350,44	2669,00
357,11	2642,00
363,77	2687,00
370,42	2757,00
377,07	2600,00
383,71	2753,00
390,34	2780,00
396,96	2768,00
403,58	2853,00
410,19	2894,00
416,79	2869,00
423,38	2938,00
429,97	2707,00
436,55	2790,00
443,12	2722,00
449,68	2852,00
456,24	2788,00
462,79	2740,00
469,33	2858,00
475,86	2831,00
482,39	2787,00
488,91	2825,00
495,42	2784,00
501,93	2792,00
508,42	2769,00
514,91	2742,00
521,40	2781,00
527,87	2624,00
534,34	2864,00
540,80	2770,00
547,25	2912,00
553,70	2824,00
560,14	2807,00
566,57	2767,00
573,00	2801,00
579,41	2820,00
585,83	2694,00
592,23	2701,00
598,62	2838,00
605,01	2838,00
611,40	2896,00
617,77	2689,00
624,14	2780,00
630,50	2795,00
636,85	2802,00
643,20	2722,00
649,54	2722,00
655,87	2714,00
662,20	2844,00
668,52	2623,00
674,83	2811,00
681,13	2805,00
687,43	2745,00
693,72	2749,00
700,00	2719,00
706,28	2688,00
712,55	2857,00
718,81	2897,00
725,07	2735,00
731,32	2664,00
737,56	2770,00
743,79	2818,00
750,02	2903,00
756,24	2786,00
762,46	2875,00
768,67	2888,00
774,87	2957,00
781,06	2807,00
787,25	2900,00
793,43	2857,00
799,60	2866,00
805,77	2793,00
811,93	2831,00
818,08	2889,00
824,23	2785,00
830,37	2910,00
836,50	2970,00
842,63	2913,00
848,75	2969,00
854,87	2891,00
860,97	2963,00
867,07	2766,00
873,17	2816,00
879,25	2928,00
885,33	2843,00
891,41	2848,00
897,47	2944,00
903,53	2915,00
909,59	2972,00
915,63	2917,00
921,67	2912,00
927,71	2926,00
933,74	2996,00
939,76	2892,00
945,77	2758,00
951,78	2790,00
957,78	2840,00
963,78	2804,00
969,77	2906,00
975,75	2937,00
981,72	3052,00
987,69	2987,00
993,66	2933,00
999,61	2887,00
1005,56	2996,00
1011,51	2889,00
1017,44	2974,00
1023,37	2955,00
1029,30	3078,00
1035,22	3007,00
1041,13	3005,00
1047,03	3102,00
1052,93	3231,00
1058,83	3528,00
1064,71	3643,00
1070,59	3472,00
1076,47	3260,00
1082,33	3255,00
1088,20	3256,00
1094,05	3168,00
1099,90	2963,00
1105,74	3207,00
1111,58	3114,00
1117,41	3258,00
1123,23	3673,00
1129,05	3835,00
1134,86	3721,00
1140,67	3405,00
1146,47	3374,00
1152,26	3285,00
1158,05	3221,00
1163,83	3308,00
1169,60	3236,00
1175,37	3104,00
1181,13	3137,00
1186,89	3009,00
1192,64	3060,00
1198,38	3076,00
1204,12	3037,00
1209,85	3110,00
1215,58	3248,00
1221,30	3205,00
1227,02	3161,00
1232,72	3410,00
1238,43	3288,00
1244,12	3283,00
1249,81	3182,00
1255,50	3243,00
1261,17	3246,00
1266,85	3368,00
1272,51	3351,00
1278,17	3318,00
1283,83	3445,00
1289,47	3757,00
1295,12	4183,00
1300,75	4071,00
1306,38	3676,00
1312,01	3427,00
1317,63	3408,00
1323,24	3311,00
1328,85	3343,00
1334,45	3449,00
1340,04	3152,00
1345,63	3200,00
1351,22	3340,00
1356,80	3529,00
1362,37	3327,00
1367,93	3246,00
1373,49	3361,00
1379,05	3253,00
1384,60	3323,00
1390,14	3294,00
1395,68	3382,00
1401,21	3378,00
1406,74	3453,00
1412,26	3692,00
1417,77	3668,00
1423,28	3765,00
1428,78	3631,00
1434,28	3969,00
1439,77	4161,00
1445,26	4217,00
1450,74	4038,00
1456,22	3949,00
1461,68	3967,00
1467,15	3732,00
1472,61	3738,00
1478,06	3686,00
1483,51	3254,00
1488,95	3343,00
1494,38	3333,00
1499,81	3098,00
1505,24	3216,00
1510,65	3096,00
1516,07	3202,00
1521,48	3215,00
1526,88	3186,00
1532,27	3104,00
1537,67	3264,00
1543,05	3143,00
1548,43	3049,00
1553,81	3237,00
1559,18	3024,00
1564,54	3149,00
1569,90	3116,00
1575,25	3146,00
1580,60	3125,00
1585,94	3103,00
1591,28	3154,00
1596,61	3067,00
1601,93	3043,00
1607,25	3035,00
1612,57	3009,00
1617,88	2891,00
1623,18	3120,00
1628,48	2958,00
1633,77	3009,00
1639,06	2988,00
1644,34	2915,00
1649,62	2821,00
1654,89	2849,00
1660,16	2954,00
1665,42	3022,00
1670,67	3045,00
1675,92	2849,00
1681,17	2916,00
1686,41	2908,00
1691,64	2915,00
1696,87	2916,00
1702,10	2881,00
1707,32	2859,00
1712,53	2872,00
1717,74	2948,00
1722,94	2935,00
1728,14	2830,00
1733,33	2852,00
1738,52	2861,00
1743,70	2897,00
1748,88	2866,00
1754,05	2751,00
1759,22	2859,00
1764,38	1459,00
1769,53	2788,00
1774,69	2712,00
1779,83	2657,00
1784,97	2871,00
1790,11	2717,00
1795,24	2748,00
1800,36	2719,00
1805,48	2728,00
1810,60	2727,00
1815,71	2677,00
1820,82	2651,00
1825,92	2667,00
1831,01	2741,00
1836,10	2683,00
1841,19	2807,00
1846,26	2634,00
1851,34	2742,00
1856,41	2696,00
1861,47	2654,00
1866,53	2626,00
1871,59	2663,00
1876,64	2701,00
1881,68	2673,00
1886,72	2626,00
1891,76	2579,00
1896,79	2655,00
1901,81	2660,00
1906,83	2552,00
1911,85	2488,00
1916,86	2591,00
1921,86	2568,00
1926,86	2478,00
1931,86	2419,00
1936,85	2434,00
1941,83	2440,00
1946,81	2450,00
1951,79	2381,00
1956,76	2427,00
1961,72	2311,00
1966,68	2515,00
1971,64	2356,00
1976,59	2425,00
1981,54	2307,00
1986,48	2325,00
1991,42	2354,00
1996,35	2346,00
2001,27	2409,00
2006,20	2440,00
2011,11	2287,00
2016,03	2274,00
2020,93	2332,00
2025,84	2380,00
2030,73	2313,00
2035,63	2350,00
2040,52	2436,00
2045,40	2268,00
2050,28	2307,00
2055,15	2202,00
2060,02	2263,00
2064,89	2328,00
2069,75	2187,00
2074,60	2283,00
2079,46	2364,00
2084,30	2324,00
2089,14	2337,00
2093,98	2240,00
2098,81	2165,00
2103,64	2314,00
2108,46	2252,00
2113,28	2220,00
2118,09	2198,00
2122,90	2307,00
2127,70	2121,00
2132,50	2323,00
2137,30	2188,00
2142,09	2298,00
2146,87	2287,00
2151,66	2214,00
2156,43	2156,00
2161,20	2270,00
2165,97	2219,00
2170,73	2138,00
2175,49	2103,00
2180,24	2087,00
2184,99	2184,00
2189,74	2133,00
2194,48	2143,00
2199,21	2069,00
2203,94	2081,00
2208,67	2076,00
2213,39	2031,00
2218,11	2077,00
2222,82	2071,00
2227,53	2029,00
2232,23	2109,00
2236,93	2134,00
2241,63	2060,00
2246,32	2065,00
2251,00	1962,00
2255,68	2015,00
2260,36	1906,00
2265,03	1945,00
2269,70	2032,00
2274,36	2004,00
2279,02	1910,00
2283,68	2118,00
2288,33	1874,00
2292,97	1939,00
2297,61	1979,00
2302,25	1938,00
2306,88	1872,00
2311,51	1913,00
2316,14	1895,00
2320,75	1903,00
2325,37	1970,00
2329,98	1903,00
2334,59	1889,00
2339,19	1788,00
2343,79	1947,00
2348,38	1912,00
2352,97	1744,00
2357,55	1879,00
2362,13	1966,00
2366,71	1725,00
2371,28	2009,00
2375,85	1781,00
2380,41	1822,00
2384,97	1707,00
2389,52	1760,00
2394,07	1799,00
2398,62	1821,00
2403,16	1664,00
2407,70	1642,00
2412,23	1679,00
2416,76	1808,00
2421,29	1781,00
2425,81	1685,00
2430,32	1716,00
2434,84	1540,00
2439,34	1711,00
2443,85	1511,00
2448,35	1681,00
2452,84	1618,00
2457,33	1585,00
2461,82	1540,00
2466,30	1574,00
2470,78	1566,00
2475,25	1548,00
2479,72	1577,00
2484,19	1574,00
2488,65	1456,00
2493,11	1660,00
2497,56	1494,00
2502,01	1403,00
2506,46	1550,00
2510,90	1587,00
2515,34	1622,00
2519,77	1516,00
2524,20	1407,00
2528,62	1528,00
2533,04	1504,00
2537,46	1513,00
2541,87	1420,00
2546,28	1452,00
2550,68	1587,00
2555,08	1469,00
2559,48	1466,00
2563,87	1375,00
2568,26	1277,00
2572,64	1346,00
2577,02	1434,00
2581,40	1384,00
2585,77	1344,00
2590,14	1319,00
2594,50	1328,00
2598,86	1386,00
2603,22	1384,00
2607,57	1349,00
2611,92	1278,00
2616,26	1235,00
2620,60	1316,00
2624,94	1393,00
2629,27	1360,00
2633,60	1204,00
2637,92	1417,00
2642,24	1330,00
2646,56	1369,00
2650,87	1194,00
2655,18	1253,00
2659,48	1259,00
2663,78	1217,00
2668,08	1318,00
2672,37	1209,00
2676,66	1434,00
2680,95	1261,00
2685,23	1318,00
2689,50	1207,00
2693,78	1256,00
2698,05	1283,00
2702,31	1387,00
2706,57	1256,00
2710,83	1170,00
2715,08	1292,00
2719,33	1381,00
2723,58	1320,00
2727,82	1454,00
2732,06	1360,00
2736,29	1181,00
2740,53	1268,00
2744,75	1143,00
2748,97	1298,00
2753,19	1237,00
2757,41	1208,00
2761,62	1185,00
2765,83	1071,00
2770,03	1275,00
2774,23	1185,00
2778,43	1225,00
2782,62	1220,00
2786,81	1208,00
2791,00	1052,00
2795,18	1130,00
2799,35	1263,00
2803,53	1173,00
2807,70	1141,00
2811,86	1241,00
2816,03	1185,00
2820,19	1192,00
2824,34	1315,00
2828,49	1346,00
2832,64	1589,00
2836,78	1660,00
2840,92	1829,00
2845,06	1938,00
2849,19	2272,00
2853,32	2181,00
2857,45	2278,00
2861,57	2235,00
2865,69	2288,00
2869,80	2032,00
2873,91	2207,00
2878,02	2305,00
2882,12	2384,00
2886,22	2340,00
2890,32	2181,00
2894,41	2102,00
2898,50	2032,00
2902,58	1837,00
2906,67	1735,00
2910,74	1724,00
2914,82	1738,00
2918,89	1589,00
2922,96	1562,00
2927,02	1404,00
2931,08	1345,00
2935,13	1328,00
2939,19	1271,00
2943,24	1297,00
2947,28	1165,00
2951,32	1043,00
2955,36	939,00
2959,40	1046,00
2963,43	1066,00
2967,46	989,00
2971,48	994,00
2975,50	879,00
2979,52	855,00
2983,53	869,00
2987,54	892,00
2991,55	855,00
2995,55	952,00
2999,55	727,00
3003,54	768,00
3007,54	719,00
3011,53	836,00
3015,51	763,00
3019,49	827,00
3023,47	777,00
3027,45	792,00
3031,42	820,00
3035,39	743,00
3039,35	702,00
3043,31	728,00
3047,27	622,00
3051,22	757,00
3055,17	642,00
3059,12	716,00
3063,06	751,00
3067,00	656,00
3070,94	559,00
3074,87	709,00
3078,80	606,00
3082,73	596,00
3086,65	659,00
3090,57	631,00
3094,49	605,00
3098,40	621,00
3102,31	602,00
3106,22	603,00
3110,12	638,00
3114,02	599,00
3117,92	545,00
3121,81	611,00
3125,70	606,00
3129,58	554,00
3133,47	558,00
3137,34	537,00
3141,22	564,00
3145,09	623,00
3148,96	527,00
3152,83	472,00
3156,69	633,00
3160,55	520,00
3164,40	531,00
3168,26	533,00
3172,10	557,00
3175,95	586,00
3179,79	398,00
3183,63	413,00
3187,47	552,00
3191,30	389,00
3195,13	586,00
3198,95	450,00
3202,78	550,00
3206,60	483,00
3210,41	400,00
3214,23	522,00
3218,03	476,00
3221,84	461,00
3225,64	457,00
3229,44	437,00
3233,24	430,00
3237,03	424,00
3240,82	356,00
3244,61	341,00
3248,39	413,00
3252,17	466,00
3255,95	459,00
3259,72	449,00
3263,49	403,00
3267,26	366,00
3271,03	377,00
3274,79	465,00
3278,54	453,00
3282,30	424,00
3286,05	411,00
3289,80	413,00
3293,54	404,00
3297,29	302,00
3301,02	402,00
3304,76	386,00
3308,49	534,00
3312,22	291,00
3315,95	385,00
3319,67	370,00
3323,39	449,00
3327,10	421,00
3330,82	440,00
3334,53	308,00
3338,24	467,00
3341,94	353,00
3345,64	342,00
3349,34	387,00
3353,03	335,00
3356,72	365,00
3360,41	401,00
3364,10	312,00
3367,78	346,00
3371,46	290,00
3375,13	262,00
3378,81	392,00
3382,48	477,00
3386,14	331,00
3389,81	354,00
3393,47	300,00
3397,12	429,00
3400,78	233,00
3404,43	352,00
3408,08	397,00
3411,72	318,00
3415,36	295,00
3419,00	301,00
3422,64	329,00
3426,27	327,00
3429,90	356,00
3433,53	291,00
3437,15	280,00
3440,77	313,00
3444,39	319,00
3448,00	258,00
3451,62	396,00
3455,22	304,00
3458,83	249,00
3462,43	306,00
3466,03	292,00
3469,63	350,00
3473,22	339,00
3476,81	290,00
3480,40	316,00
3483,99	197,00
3487,57	265,00
3491,15	255,00
3494,72	281,00
3498,29	335,00
3501,86	222,00
3505,43	251,00
3508,99	209,00
3512,56	267,00
3516,11	217,00
3519,67	193,00
3523,22	223,00
3526,77	248,00
3530,32	374,00
3533,86	321,00
3537,40	210,00
3540,94	172,00
3544,47	231,00
3548,00	202,00
3551,53	247,00
3555,06	234,00
3558,58	239,00
3562,10	247,00
3565,62	207,00
3569,13	197,00
3572,64	189,00
3576,15	248,00
3579,66	326,00
3583,16	245,00
3586,66	268,00
3590,16	246,00
3593,65	181,00
3597,14	178,00
3600,63	228,00
3604,11	181,00
3607,60	143,00
3611,08	182,00
3614,55	83,00
3618,03	229,00
3621,50	314,00
3624,97	216,00
3628,43	141,00
3631,90	283,00
3635,36	194,00
3638,81	216,00
3642,27	202,00
3645,72	222,00
3649,17	193,00
3652,61	154,00
3656,06	206,00
3659,50	157,00
3662,93	270,00
3666,37	311,00
3669,80	135,00
3673,23	236,00
3676,65	288,00
3680,08	175,00
3683,50	162,00
3686,92	205,00
3690,33	149,00
3693,74	190,00
3697,15	281,00
3700,56	243,00
3703,96	180,00
3707,36	336,00
3710,76	197,00
3714,16	191,00
3717,55	136,00
3720,94	108,00
3724,33	158,00
3727,71	210,00
3731,10	82,00
3734,48	121,00
3737,85	255,00
3741,23	211,00
3744,60	150,00
3747,97	117,00
3751,33	220,00
3754,69	201,00
3758,05	153,00
3761,41	133,00
3764,77	177,00
3768,12	223,00
3771,47	83,00
3774,82	246,00
3778,16	-11,00
3781,50	4,00
3784,84	3,00
3788,18	-1,00
>>>>>End Processed Spectral Data<<<<<
