SpectraSuite Data File
++++++++++++++++++++++++++++++++++++
Date: Mon Mar 09 14:36:26 ICT 2026
User: Administrator
Dark Spectrum Present: Yes
Reference Spectrum Present: No
Number of Sampled Component Spectra: 1
Spectrometers: MAYP113682
Integration Time (usec): 3000000 (MAYP113682)
Spectra Averaged: 1 (MAYP113682)
Boxcar Smoothing: 0 (MAYP113682)
Correct for Electrical Dark: No (MAYP113682)
Strobe/Lamp Enabled: No (MAYP113682)
Correct for Detector Non-linearity: No (MAYP113682)
Correct for Stray Light: No (MAYP113682)
Number of Pixels in Processed Spectrum: 2068
>>>>>Begin Processed Spectral Data<<<<<
-37534,58	4,00
-37414,56	-6,00
-37295,11	-1,00
-37176,24	-6,00
-37057,95	70,00
-36940,22	97,00
-36823,05	132,00
-36706,45	113,00
-36590,40	-2,00
-36474,90	124,00
-36359,95	102,00
-36245,55	196,00
-36131,68	102,00
-36018,35	106,00
-35905,55	133,00
-35793,29	54,00
-35681,54	76,00
-35570,32	15,00
-35459,62	126,00
-35349,43	103,00
-35239,75	61,00
-35130,58	65,00
-35021,91	83,00
-34913,74	104,00
-34806,07	85,00
-34698,89	197,00
-34592,20	95,00
-34486,00	55,00
-34380,28	91,00
-34275,04	130,00
-34170,27	122,00
-34065,98	93,00
-33962,16	114,00
-33858,81	80,00
-33755,92	48,00
-33653,49	198,00
-33551,52	78,00
-33450,01	44,00
-33348,94	124,00
-33248,33	140,00
-33148,16	57,00
-33048,43	135,00
-32949,14	126,00
-32850,29	104,00
-32751,87	48,00
-32653,89	138,00
-32556,33	108,00
-32459,20	70,00
-32362,49	97,00
-32266,19	59,00
-32170,32	57,00
-32074,86	149,00
-31979,82	171,00
-31885,18	161,00
-31790,95	125,00
-31697,12	59,00
-31603,69	148,00
-31510,67	162,00
-31418,04	69,00
-31325,80	158,00
-31233,95	142,00
-31142,49	57,00
-31051,42	97,00
-30960,73	106,00
-30870,43	127,00
-30780,50	97,00
-30690,95	183,00
-30601,77	185,00
-30512,97	90,00
-30424,53	30,00
-30336,46	120,00
-30248,76	205,00
-30161,42	158,00
-30074,44	91,00
-29987,81	72,00
-29901,55	166,00
-29815,63	81,00
-29730,07	50,00
-29644,86	127,00
-29560,00	183,00
-29475,48	98,00
-29391,30	106,00
-29307,47	84,00
-29223,97	119,00
-29140,81	44,00
-29057,99	198,00
-28975,50	95,00
-28893,34	171,00
-28811,51	108,00
-28730,00	113,00
-28648,82	88,00
-28567,97	77,00
-28487,43	116,00
-28407,21	92,00
-28327,32	43,00
-28247,73	248,00
-28168,46	66,00
-28089,50	183,00
-28010,85	25,00
-27932,51	49,00
-27854,48	98,00
-27776,75	118,00
-27699,32	54,00
-27622,19	102,00
-27545,37	107,00
-27468,84	163,00
-27392,60	61,00
-27316,66	111,00
-27241,01	98,00
-27165,66	111,00
-27090,59	113,00
-27015,81	96,00
-26941,31	121,00
-26867,10	231,00
-26793,17	67,00
-26719,52	100,00
-26646,15	77,00
-26573,06	180,00
-26500,24	64,00
-26427,70	94,00
-26355,43	137,00
-26283,43	76,00
-26211,71	133,00
-26140,25	145,00
-26069,06	185,00
-25998,13	59,00
-25927,46	118,00
-25857,06	172,00
-25786,92	71,00
-25717,04	107,00
-25647,42	59,00
-25578,05	162,00
-25508,94	27,00
-25440,09	126,00
-25371,48	113,00
-25303,13	7,00
-25235,02	138,00
-25167,17	188,00
-25099,56	125,00
-25032,19	82,00
-24965,07	168,00
-24898,20	115,00
-24831,56	103,00
-24765,17	102,00
-24699,01	46,00
-24633,10	97,00
-24567,41	102,00
-24501,97	96,00
-24436,75	128,00
-24371,77	98,00
-24307,03	90,00
-24242,51	35,00
-24178,22	185,00
-24114,16	161,00
-24050,32	84,00
-23986,71	114,00
-23923,32	83,00
-23860,16	111,00
-23797,22	50,00
-23734,50	160,00
-23672,00	37,00
-23609,71	33,00
-23547,65	45,00
-23485,80	115,00
-23424,16	64,00
-23362,74	158,00
-23301,53	89,00
-23240,54	62,00
-23179,75	145,00
-23119,17	13,00
-23058,80	121,00
-22998,64	109,00
-22938,68	45,00
-22878,93	72,00
-22819,39	150,00
-22760,04	102,00
-22700,90	103,00
-22641,96	86,00
-22583,22	94,00
-22524,68	104,00
-22466,33	0,00
-22408,19	188,00
-22350,23	64,00
-22292,48	118,00
-22234,92	86,00
-22177,55	123,00
-22120,37	70,00
-22063,38	75,00
-22006,58	131,00
-21949,98	110,00
-21893,56	53,00
-21837,33	137,00
-21781,28	82,00
-21725,42	112,00
-21669,74	137,00
-21614,25	76,00
-21558,94	45,00
-21503,81	95,00
-21448,86	83,00
-21394,10	13,00
-21339,51	144,00
-21285,10	54,00
-21230,86	62,00
-21176,81	100,00
-21122,93	133,00
-21069,22	181,00
-21015,69	131,00
-20962,33	99,00
-20909,14	213,00
-20856,13	10,00
-20803,28	71,00
-20750,61	74,00
-20698,10	58,00
-20645,76	140,00
-20593,59	178,00
-20541,59	77,00
-20489,75	170,00
-20438,07	92,00
-20386,56	94,00
-20335,22	170,00
-20284,03	71,00
-20233,01	103,00
-20182,15	8,00
-20131,45	46,00
-20080,91	61,00
-20030,52	86,00
-19980,30	28,00
-19930,23	71,00
-19880,32	153,00
-19830,56	164,00
-19780,96	137,00
-19731,52	155,00
-19682,23	131,00
-19633,09	114,00
-19584,10	76,00
-19535,26	81,00
-19486,58	60,00
-19438,04	105,00
-19389,66	21,00
-19341,42	80,00
-19293,33	49,00
-19245,39	91,00
-19197,60	69,00
-19149,95	107,00
-19102,45	157,00
-19055,09	147,00
-19007,87	156,00
-18960,80	119,00
-18913,87	103,00
-18867,09	114,00
-18820,44	124,00
-18773,94	50,00
-18727,57	91,00
-18681,35	64,00
-18635,26	136,00
-18589,31	84,00
-18543,50	75,00
-18497,83	103,00
-18452,29	190,00
-18406,89	137,00
-18361,63	102,00
-18316,50	126,00
-18271,50	120,00
-18226,63	32,00
-18181,90	55,00
-18137,30	99,00
-18092,84	46,00
-18048,50	52,00
-18004,29	51,00
-17960,22	77,00
-17916,27	124,00
-17872,45	60,00
-17828,76	70,00
-17785,20	149,00
-17741,77	155,00
-17698,46	53,00
-17655,28	28,00
-17612,22	111,00
-17569,29	93,00
-17526,48	133,00
-17483,79	96,00
-17441,23	85,00
-17398,79	109,00
-17356,48	81,00
-17314,28	182,00
-17272,21	133,00
-17230,26	39,00
-17188,42	90,00
-17146,71	11,00
-17105,12	120,00
-17063,64	135,00
-17022,28	51,00
-16981,04	147,00
-16939,92	35,00
-16898,91	166,00
-16858,02	176,00
-16817,25	10,00
-16776,59	37,00
-16736,04	94,00
-16695,61	52,00
-16655,29	85,00
-16615,09	127,00
-16574,99	111,00
-16535,01	95,00
-16495,15	62,00
-16455,39	137,00
-16415,74	100,00
-16376,21	31,00
-16336,78	21,00
-16297,46	120,00
-16258,26	175,00
-16219,16	165,00
-16180,17	102,00
-16141,28	223,00
-16102,51	157,00
-16063,84	35,00
-16025,27	164,00
-15986,82	69,00
-15948,46	55,00
-15910,22	41,00
-15872,07	137,00
-15834,04	79,00
-15796,10	55,00
-15758,27	93,00
-15720,54	100,00
-15682,91	128,00
-15645,39	64,00
-15607,97	77,00
-15570,64	69,00
-15533,42	45,00
-15496,30	113,00
-15459,28	44,00
-15422,36	19,00
-15385,54	113,00
-15348,82	92,00
-15312,19	140,00
-15275,66	52,00
-15239,23	82,00
-15202,90	55,00
-15166,67	51,00
-15130,53	95,00
-15094,48	165,00
-15058,54	112,00
-15022,68	-8,00
-14986,93	132,00
-14951,26	150,00
-14915,69	-18,00
-14880,22	67,00
-14844,84	123,00
-14809,55	37,00
-14774,35	58,00
-14739,25	182,00
-14704,24	88,00
-14669,32	178,00
-14634,49	168,00
-14599,75	47,00
-14565,10	5,00
-14530,55	94,00
-14496,08	146,00
-14461,70	135,00
-14427,41	83,00
-14393,21	107,00
-14359,10	92,00
-14325,07	181,00
-14291,14	110,00
-14257,29	54,00
-14223,52	112,00
-14189,85	153,00
-14156,26	125,00
-14122,76	104,00
-14089,34	67,00
-14056,01	80,00
-14022,76	147,00
-13989,60	120,00
-13956,52	98,00
-13923,53	128,00
-13890,62	108,00
-13857,79	81,00
-13825,05	96,00
-13792,39	77,00
-13759,81	171,00
-13727,31	79,00
-13694,90	94,00
-13662,57	89,00
-13630,31	13,00
-13598,14	61,00
-13566,05	51,00
-13534,05	191,00
-13502,12	16,00
-13470,27	99,00
-13438,50	83,00
-13406,80	175,00
-13375,19	35,00
-13343,66	123,00
-13312,20	-24,00
-13280,83	37,00
-13249,53	71,00
-13218,30	87,00
-13187,16	58,00
-13156,09	130,00
-13125,10	168,00
-13094,18	119,00
-13063,34	140,00
-13032,58	53,00
-13001,89	168,00
-12971,28	91,00
-12940,74	128,00
-12910,27	97,00
-12879,88	99,00
-12849,57	24,00
-12819,33	-3,00
-12789,16	138,00
-12759,06	31,00
-12729,04	125,00
-12699,09	-831,00
-12669,21	128,00
-12639,41	80,00
-12609,68	121,00
-12580,02	83,00
-12550,43	127,00
-12520,91	1,00
-12491,46	125,00
-12462,08	26,00
-12432,77	94,00
-12403,54	77,00
-12374,37	42,00
-12345,27	89,00
-12316,24	98,00
-12287,29	151,00
-12258,40	95,00
-12229,57	135,00
-12200,82	127,00
-12172,14	52,00
-12143,52	57,00
-12114,97	12,00
-12086,49	83,00
-12058,07	58,00
-12029,73	105,00
-12001,44	154,00
-11973,23	104,00
-11945,08	108,00
-11917,00	4,00
-11888,98	80,00
-11861,03	72,00
-11833,15	107,00
-11805,32	36,00
-11777,57	85,00
-11749,88	83,00
-11722,25	-14,00
-11694,69	118,00
-11667,19	122,00
-11639,75	20,00
-11612,38	134,00
-11585,07	65,00
-11557,83	187,00
-11530,65	158,00
-11503,53	199,00
-11476,47	188,00
-11449,48	92,00
-11422,54	136,00
-11395,67	64,00
-11368,86	106,00
-11342,11	134,00
-11315,43	34,00
-11288,80	41,00
-11262,23	182,00
-11235,73	131,00
-11209,28	85,00
-11182,90	32,00
-11156,57	80,00
-11130,31	143,00
-11104,10	112,00
-11077,96	123,00
-11051,87	51,00
-11025,84	115,00
-10999,87	140,00
-10973,96	174,00
-10948,11	45,00
-10922,31	23,00
-10896,58	139,00
-10870,90	157,00
-10845,28	88,00
-10819,71	112,00
-10794,20	11,00
-10768,75	137,00
-10743,36	72,00
-10718,02	129,00
-10692,74	89,00
-10667,52	65,00
-10642,35	129,00
-10617,24	151,00
-10592,18	155,00
-10567,18	76,00
-10542,23	107,00
-10517,34	108,00
-10492,51	131,00
-10467,72	119,00
-10443,00	105,00
-10418,32	78,00
-10393,70	93,00
-10369,14	0,00
-10344,63	176,00
-10320,17	100,00
-10295,77	110,00
-10271,42	172,00
-10247,12	144,00
-10222,88	215,00
-10198,68	44,00
-10174,54	60,00
-10150,46	102,00
-10126,42	153,00
-10102,44	193,00
-10078,51	157,00
-10054,63	188,00
-10030,80	109,00
-10007,03	196,00
-9983,30	133,00
-9959,63	108,00
-9936,01	129,00
-9912,44	137,00
-9888,92	196,00
-9865,44	132,00
-9842,02	231,00
-9818,65	130,00
-9795,33	212,00
-9772,06	168,00
-9748,84	155,00
-9725,67	173,00
-9702,55	184,00
-9679,47	240,00
-9656,45	104,00
-9633,47	296,00
-9610,55	269,00
-9587,67	256,00
-9564,84	235,00
-9542,06	246,00
-9519,32	257,00
-9496,64	209,00
-9474,00	257,00
-9451,41	310,00
-9428,87	275,00
-9406,37	342,00
-9383,92	371,00
-9361,52	381,00
-9339,17	355,00
-9316,86	363,00
-9294,60	333,00
-9272,38	508,00
-9250,21	342,00
-9228,09	514,00
-9206,01	408,00
-9183,98	439,00
-9162,00	320,00
-9140,06	388,00
-9118,16	340,00
-9096,31	579,00
-9074,51	392,00
-9052,75	539,00
-9031,04	496,00
-9009,37	385,00
-8987,74	416,00
-8966,16	318,00
-8944,63	201,00
-8923,14	286,00
-8901,69	325,00
-8880,29	336,00
-8858,93	350,00
-8837,61	461,00
-8816,34	429,00
-8795,11	314,00
-8773,92	382,00
-8752,78	346,00
-8731,68	260,00
-8710,62	256,00
-8689,61	272,00
-8668,63	241,00
-8647,70	378,00
-8626,82	380,00
-8605,97	331,00
-8585,17	290,00
-8564,41	285,00
-8543,69	153,00
-8523,01	292,00
-8502,37	306,00
-8481,78	240,00
-8461,23	146,00
-8440,71	289,00
-8420,24	267,00
-8399,81	324,00
-8379,42	295,00
-8359,08	398,00
-8338,77	340,00
-8318,50	363,00
-8298,27	234,00
-8278,09	291,00
-8257,94	244,00
-8237,83	354,00
-8217,76	342,00
-8197,74	351,00
-8177,75	318,00
-8157,80	327,00
-8137,89	291,00
-8118,02	241,00
-8098,19	276,00
-8078,40	278,00
-8058,65	219,00
-8038,93	322,00
-8019,26	316,00
-7999,62	276,00
-7980,02	279,00
-7960,46	321,00
-7940,94	221,00
-7921,46	310,00
-7902,01	189,00
-7882,60	285,00
-7863,23	265,00
-7843,90	240,00
-7824,61	261,00
-7805,35	222,00
-7786,13	239,00
-7766,95	151,00
-7747,80	213,00
-7728,69	280,00
-7709,62	193,00
-7690,59	246,00
-7671,59	243,00
-7652,63	275,00
-7633,70	276,00
-7614,81	132,00
-7595,96	216,00
-7577,15	220,00
-7558,37	268,00
-7539,62	151,00
-7520,91	271,00
-7502,24	275,00
-7483,60	307,00
-7465,00	245,00
-7446,44	289,00
-7427,91	237,00
-7409,41	192,00
-7390,95	285,00
-7372,53	197,00
-7354,14	234,00
-7335,78	141,00
-7317,46	200,00
-7299,18	289,00
-7280,92	249,00
-7262,71	245,00
-7244,52	167,00
-7226,38	266,00
-7208,26	303,00
-7190,18	230,00
-7172,14	257,00
-7154,12	339,00
-7136,15	163,00
-7118,20	251,00
-7100,29	290,00
-7082,41	234,00
-7064,57	229,00
-7046,76	241,00
-7028,98	150,00
-7011,24	413,00
-6993,53	115,00
-6975,85	200,00
-6958,20	160,00
-6940,59	193,00
-6923,01	128,00
-6905,46	266,00
-6887,94	299,00
-6870,46	-1820,00
-6853,01	211,00
-6835,59	243,00
-6818,21	209,00
-6800,85	230,00
-6783,53	190,00
-6766,24	185,00
-6748,98	196,00
-6731,76	167,00
-6714,56	78,00
-6697,40	223,00
-6680,26	119,00
-6663,16	169,00
-6646,09	255,00
-6629,05	221,00
-6612,05	288,00
-6595,07	222,00
-6578,13	242,00
-6561,21	142,00
-6544,33	56,00
-6527,47	204,00
-6510,65	232,00
-6493,86	222,00
-6477,10	34,00
-6460,36	152,00
-6443,66	55,00
-6426,99	212,00
-6410,35	40,00
-6393,74	150,00
-6377,16	238,00
-6360,61	153,00
-6344,09	134,00
-6327,59	186,00
-6311,13	74,00
-6294,70	179,00
-6278,29	201,00
-6261,92	237,00
-6245,58	148,00
-6229,26	197,00
-6212,97	129,00
-6196,72	178,00
-6180,49	182,00
-6164,29	122,00
-6148,12	171,00
-6131,98	90,00
-6115,86	92,00
-6099,78	195,00
-6083,72	59,00
-6067,69	102,00
-6051,69	179,00
-6035,72	155,00
-6019,78	131,00
-6003,87	145,00
-5987,98	146,00
-5972,12	207,00
-5956,29	128,00
-5940,49	146,00
-5924,71	188,00
-5908,96	172,00
-5893,24	152,00
-5877,55	71,00
-5861,89	196,00
-5846,25	199,00
-5830,64	165,00
-5815,05	70,00
-5799,50	126,00
-5783,97	175,00
-5768,47	185,00
-5752,99	146,00
-5737,55	128,00
-5722,12	108,00
-5706,73	238,00
-5691,36	171,00
-5676,02	110,00
-5660,71	179,00
-5645,42	127,00
-5630,16	188,00
-5614,92	69,00
-5599,71	28,00
-5584,53	161,00
-5569,37	98,00
-5554,24	844,00
-5539,14	138,00
-5524,06	220,00
-5509,01	151,00
-5493,98	95,00
-5478,98	242,00
-5464,00	153,00
-5449,05	-14,00
-5434,13	242,00
-5419,23	183,00
-5404,36	91,00
-5389,51	179,00
-5374,69	142,00
-5359,89	125,00
-5345,12	242,00
-5330,37	188,00
-5315,65	232,00
-5300,95	144,00
-5286,28	63,00
-5271,63	81,00
-5257,01	165,00
-5242,41	163,00
-5227,84	156,00
-5213,29	29,00
-5198,76	148,00
-5184,26	23,00
-5169,79	135,00
-5155,33	194,00
-5140,91	151,00
-5126,51	111,00
-5112,13	221,00
-5097,77	206,00
-5083,44	136,00
-5069,13	87,00
-5054,85	165,00
-5040,59	97,00
-5026,36	104,00
-5012,15	162,00
-4997,96	154,00
-4983,80	174,00
-4969,66	107,00
-4955,54	229,00
-4941,44	152,00
-4927,37	121,00
-4913,33	156,00
-4899,30	109,00
-4885,30	121,00
-4871,33	195,00
-4857,37	146,00
-4843,44	112,00
-4829,53	122,00
-4815,65	41,00
-4801,79	115,00
-4787,95	68,00
-4774,13	117,00
-4760,34	72,00
-4746,56	141,00
-4732,82	109,00
-4719,09	222,00
-4705,38	164,00
-4691,70	152,00
-4678,04	74,00
-4664,41	247,00
-4650,79	173,00
-4637,20	164,00
-4623,63	158,00
-4610,08	128,00
-4596,56	140,00
-4583,05	137,00
-4569,57	173,00
-4556,11	128,00
-4542,67	121,00
-4529,25	59,00
-4515,86	267,00
-4502,49	235,00
-4489,13	90,00
-4475,80	223,00
-4462,49	128,00
-4449,21	212,00
-4435,94	105,00
-4422,70	241,00
-4409,47	121,00
-4396,27	117,00
-4383,09	113,00
-4369,93	31,00
-4356,79	230,00
-4343,67	100,00
-4330,58	183,00
-4317,50	14,00
-4304,45	129,00
-4291,41	169,00
-4278,40	80,00
-4265,41	163,00
-4252,44	147,00
-4239,49	118,00
-4226,55	66,00
-4213,65	164,00
-4200,76	113,00
-4187,89	82,00
-4175,04	165,00
-4162,21	157,00
-4149,40	126,00
-4136,61	-8,00
-4123,85	49,00
-4111,10	114,00
-4098,37	218,00
-4085,66	134,00
-4072,98	162,00
-4060,31	-27,00
-4047,66	115,00
-4035,04	129,00
-4022,43	103,00
-4009,84	158,00
-3997,27	82,00
-3984,72	106,00
-3972,19	100,00
-3959,69	118,00
-3947,20	96,00
-3934,73	200,00
-3922,27	133,00
-3909,84	75,00
-3897,43	61,00
-3885,04	77,00
-3872,67	76,00
-3860,31	85,00
-3847,98	202,00
-3835,66	49,00
-3823,36	183,00
-3811,09	20,00
-3798,83	103,00
-3786,59	124,00
-3774,37	116,00
-3762,17	106,00
-3749,98	90,00
-3737,82	110,00
-3725,67	56,00
-3713,55	103,00
-3701,44	197,00
-3689,35	155,00
-3677,28	97,00
-3665,22	106,00
-3653,19	40,00
-3641,17	118,00
-3629,18	93,00
-3617,20	123,00
-3605,24	120,00
-3593,30	100,00
-3581,37	164,00
-3569,47	85,00
-3557,58	50,00
-3545,71	100,00
-3533,86	120,00
-3522,02	93,00
-3510,21	140,00
-3498,41	85,00
-3486,63	109,00
-3474,87	122,00
-3463,12	23,00
-3451,40	68,00
-3439,69	170,00
-3428,00	89,00
-3416,33	117,00
-3404,67	90,00
-3393,03	185,00
-3381,41	127,00
-3369,81	139,00
-3358,22	57,00
-3346,66	48,00
-3335,10	143,00
-3323,57	65,00
-3312,06	83,00
-3300,56	72,00
-3289,08	83,00
-3277,61	77,00
-3266,16	94,00
-3254,73	127,00
-3243,32	145,00
-3231,92	114,00
-3220,55	120,00
-3209,18	124,00
-3197,84	70,00
-3186,51	82,00
-3175,20	117,00
-3163,90	102,00
-3152,63	75,00
-3141,36	86,00
-3130,12	37,00
-3118,89	84,00
-3107,68	126,00
-3096,49	156,00
-3085,31	39,00
-3074,15	114,00
-3063,00	17,00
-3051,87	115,00
-3040,76	115,00
-3029,67	62,00
-3018,59	143,00
-3007,52	116,00
-2996,48	150,00
-2985,44	43,00
-2974,43	31,00
-2963,43	150,00
-2952,45	72,00
-2941,48	46,00
-2930,53	159,00
-2919,60	71,00
-2908,68	48,00
-2897,78	84,00
-2886,89	115,00
-2876,02	124,00
-2865,17	107,00
-2854,33	32,00
-2843,50	7,00
-2832,70	-4,00
-2821,90	190,00
-2811,13	96,00
-2800,37	109,00
-2789,62	32,00
-2778,89	40,00
-2768,18	104,00
-2757,48	137,00
-2746,80	105,00
-2736,13	153,00
-2725,48	93,00
-2714,84	74,00
-2704,22	-12,00
-2693,61	106,00
-2683,02	73,00
-2672,45	81,00
-2661,89	112,00
-2651,34	27,00
-2640,81	-21,00
-2630,30	82,00
-2619,80	67,00
-2609,31	148,00
-2598,84	122,00
-2588,39	39,00
-2577,95	30,00
-2567,52	55,00
-2557,11	136,00
-2546,71	64,00
-2536,33	86,00
-2525,97	83,00
-2515,62	94,00
-2505,28	128,00
-2494,96	112,00
-2484,65	81,00
-2474,36	152,00
-2464,08	98,00
-2453,82	149,00
-2443,57	124,00
-2433,33	112,00
-2423,11	53,00
-2412,91	-5,00
-2402,72	66,00
-2392,54	101,00
-2382,38	145,00
-2372,23	117,00
-2362,09	3602,00
-2351,97	25,00
-2341,87	64,00
-2331,78	47,00
-2321,70	189,00
-2311,64	110,00
-2301,59	105,00
-2291,55	108,00
-2281,53	134,00
-2271,53	94,00
-2261,53	207,00
-2251,55	-12,00
-2241,59	55,00
-2231,64	148,00
-2221,70	80,00
-2211,78	106,00
-2201,87	97,00
-2191,97	105,00
-2182,09	80,00
-2172,22	161,00
-2162,37	79,00
-2152,53	98,00
-2142,70	56,00
-2132,89	50,00
-2123,09	94,00
-2113,30	117,00
-2103,53	127,00
-2093,77	35,00
-2084,02	61,00
-2074,29	40,00
-2064,57	22,00
-2054,86	124,00
-2045,17	131,00
-2035,49	101,00
-2025,82	77,00
-2016,17	95,00
-2006,53	93,00
-1996,91	-16,00
-1987,29	25,00
-1977,69	82,00
-1968,11	108,00
-1958,53	10,00
-1948,97	92,00
-1939,42	77,00
-1929,89	88,00
-1920,37	107,00
-1910,86	120,00
-1901,36	45,00
-1891,88	106,00
-1882,41	114,00
-1872,95	62,00
-1863,51	33,00
-1854,08	87,00
-1844,66	53,00
-1835,26	12,00
-1825,86	101,00
-1816,48	69,00
-1807,11	77,00
-1797,76	32,00
-1788,42	54,00
-1779,09	109,00
-1769,77	105,00
-1760,47	168,00
-1751,17	121,00
-1741,89	145,00
-1732,63	134,00
-1723,37	257,00
-1714,13	71,00
-1704,90	65,00
-1695,68	176,00
-1686,48	65,00
-1677,29	32,00
-1668,11	153,00
-1658,94	107,00
-1649,78	103,00
-1640,64	84,00
-1631,51	125,00
-1622,39	88,00
-1613,28	112,00
-1604,19	98,00
-1595,10	63,00
-1586,03	43,00
-1576,97	174,00
-1567,93	116,00
-1558,89	157,00
-1549,87	73,00
-1540,86	92,00
-1531,86	72,00
-1522,87	88,00
-1513,90	103,00
-1504,93	35,00
-1495,98	89,00
-1487,04	112,00
-1478,12	174,00
-1469,20	22,00
-1460,30	97,00
-1451,40	133,00
-1442,52	101,00
-1433,65	114,00
-1424,80	157,00
-1415,95	120,00
-1407,12	156,00
-1398,30	48,00
-1389,48	36,00
-1380,69	141,00
-1371,90	104,00
-1363,12	66,00
-1354,36	146,00
-1345,60	45,00
-1336,86	24,00
-1328,13	219,00
-1319,41	109,00
-1310,70	201,00
-1302,01	127,00
-1293,32	81,00
-1284,65	120,00
-1275,99	97,00
-1267,33	190,00
-1258,69	152,00
-1250,06	141,00
-1241,45	106,00
-1232,84	89,00
-1224,25	67,00
-1215,66	51,00
-1207,09	135,00
-1198,53	97,00
-1189,97	74,00
-1181,43	103,00
-1172,91	141,00
-1164,39	133,00
-1155,88	160,00
-1147,38	28,00
-1138,90	90,00
-1130,43	32,00
-1121,96	70,00
-1113,51	112,00
-1105,07	128,00
-1096,64	69,00
-1088,22	97,00
-1079,81	43,00
-1071,41	148,00
-1063,02	88,00
-1054,65	123,00
-1046,28	131,00
-1037,92	107,00
-1029,58	73,00
-1021,24	64,00
-1012,92	227,00
-1004,61	92,00
-996,30	188,00
-988,01	141,00
-979,73	137,00
-971,46	85,00
-963,20	123,00
-954,95	55,00
-946,71	117,00
-938,48	-4,00
-930,26	215,00
-922,06	191,00
-913,86	182,00
-905,67	95,00
-897,49	75,00
-889,33	121,00
-881,17	166,00
-873,02	94,00
-864,89	-1,00
-856,76	96,00
-848,65	60,00
-840,54	77,00
-832,45	165,00
-824,36	74,00
-816,29	145,00
-808,22	77,00
-800,17	116,00
-792,12	125,00
-784,09	137,00
-776,06	85,00
-768,05	133,00
-760,04	76,00
-752,05	74,00
-744,07	175,00
-736,09	139,00
-728,13	118,00
-720,17	130,00
-712,23	102,00
-704,29	178,00
-696,37	99,00
-688,45	45,00
-680,55	138,00
-672,65	65,00
-664,77	15,00
-656,89	204,00
-649,03	104,00
-641,17	74,00
-633,32	153,00
-625,49	72,00
-617,66	130,00
-609,84	144,00
-602,03	56,00
-594,23	133,00
-586,45	61,00
-578,67	95,00
-570,90	41,00
-563,14	93,00
-555,39	119,00
-547,65	137,00
-539,91	112,00
-532,19	37,00
-524,48	37,00
-516,78	61,00
-509,08	130,00
-501,40	158,00
-493,72	107,00
-486,06	176,00
-478,40	250,00
-470,76	135,00
-463,12	57,00
-455,49	11,00
-447,87	110,00
-440,26	118,00
-432,66	90,00
-425,07	80,00
-417,49	-1,00
-409,92	165,00
-402,35	97,00
-394,80	68,00
-387,25	100,00
-379,72	161,00
-372,19	106,00
-364,67	161,00
-357,17	140,00
-349,67	148,00
-342,18	106,00
-334,69	117,00
-327,22	109,00
-319,76	72,00
-312,30	120,00
-304,86	205,00
-297,42	108,00
-290,00	7,00
-282,58	126,00
-275,17	181,00
-267,77	141,00
-260,37	98,00
-252,99	140,00
-245,62	194,00
-238,25	115,00
-230,90	171,00
-223,55	97,00
-216,21	203,00
-208,88	169,00
-201,56	261,00
-194,25	220,00
-186,94	197,00
-179,65	227,00
-172,36	230,00
-165,08	186,00
-157,81	292,00
-150,55	327,00
-143,30	251,00
-136,06	276,00
-128,82	315,00
-121,60	323,00
-114,38	415,00
-107,17	347,00
-99,97	513,00
-92,78	487,00
-85,60	657,00
-78,42	653,00
-71,25	824,00
-64,10	898,00
-56,95	966,00
-49,81	1128,00
-42,67	1544,00
-35,55	1770,00
-28,43	2356,00
-21,33	3790,00
-14,23	11878,00
-7,14	57775,00
-0,05	57564,00
7,02	57281,00
14,09	45260,00
21,14	11601,00
28,19	4714,00
35,23	3053,00
42,27	2288,00
49,29	1892,00
56,31	1622,00
63,32	1361,00
70,32	1094,00
77,31	937,00
84,29	800,00
91,27	795,00
98,23	824,00
105,19	628,00
112,14	764,00
119,09	990,00
126,02	1440,00
132,95	1828,00
139,87	1857,00
146,78	1838,00
153,68	1828,00
160,58	1789,00
167,46	1762,00
174,34	1661,00
181,21	1802,00
188,08	1739,00
194,93	1824,00
201,78	1647,00
208,62	1594,00
215,45	1750,00
222,27	1864,00
229,09	1791,00
235,90	1719,00
242,70	1697,00
249,49	1739,00
256,27	1688,00
263,05	1695,00
269,82	1673,00
276,58	1665,00
283,33	1695,00
290,08	1731,00
296,82	1729,00
303,55	1642,00
310,27	1557,00
316,98	1616,00
323,69	1581,00
330,39	1567,00
337,08	1649,00
343,76	1682,00
350,44	1624,00
357,11	1604,00
363,77	1576,00
370,42	1535,00
377,07	1625,00
383,71	1636,00
390,34	1612,00
396,96	1591,00
403,58	1463,00
410,19	1712,00
416,79	1673,00
423,38	1710,00
429,97	1702,00
436,55	1495,00
443,12	1471,00
449,68	1497,00
456,24	1520,00
462,79	1556,00
469,33	1501,00
475,86	1571,00
482,39	1575,00
488,91	1624,00
495,42	1455,00
501,93	1566,00
508,42	1470,00
514,91	1570,00
521,40	1550,00
527,87	1531,00
534,34	1474,00
540,80	1559,00
547,25	1487,00
553,70	1588,00
560,14	1438,00
566,57	1538,00
573,00	1528,00
579,41	1552,00
585,83	1446,00
592,23	1440,00
598,62	1489,00
605,01	1431,00
611,40	1447,00
617,77	1497,00
624,14	1481,00
630,50	1456,00
636,85	1555,00
643,20	1542,00
649,54	1481,00
655,87	1553,00
662,20	1617,00
668,52	1475,00
674,83	1431,00
681,13	1476,00
687,43	1485,00
693,72	1468,00
700,00	1449,00
706,28	1412,00
712,55	1389,00
718,81	1325,00
725,07	1448,00
731,32	1471,00
737,56	1499,00
743,79	1456,00
750,02	1449,00
756,24	1460,00
762,46	1448,00
768,67	1687,00
774,87	1529,00
781,06	1516,00
787,25	1501,00
793,43	1562,00
799,60	1362,00
805,77	1480,00
811,93	1440,00
818,08	1468,00
824,23	1454,00
830,37	1567,00
836,50	1569,00
842,63	1483,00
848,75	1461,00
854,87	1615,00
860,97	1433,00
867,07	1577,00
873,17	1512,00
879,25	1524,00
885,33	1506,00
891,41	1551,00
897,47	1436,00
903,53	1546,00
909,59	1448,00
915,63	1483,00
921,67	1476,00
927,71	1442,00
933,74	1494,00
939,76	1434,00
945,77	1545,00
951,78	1459,00
957,78	1499,00
963,78	1570,00
969,77	1560,00
975,75	1536,00
981,72	1483,00
987,69	1640,00
993,66	1510,00
999,61	1553,00
1005,56	1595,00
1011,51	1413,00
1017,44	1581,00
1023,37	1593,00
1029,30	1502,00
1035,22	1591,00
1041,13	1521,00
1047,03	1573,00
1052,93	1713,00
1058,83	1886,00
1064,71	2032,00
1070,59	1898,00
1076,47	1696,00
1082,33	1642,00
1088,20	1692,00
1094,05	1672,00
1099,90	1570,00
1105,74	1576,00
1111,58	1550,00
1117,41	1680,00
1123,23	1836,00
1129,05	2272,00
1134,86	2014,00
1140,67	1823,00
1146,47	1713,00
1152,26	1629,00
1158,05	1501,00
1163,83	1545,00
1169,60	1721,00
1175,37	1643,00
1181,13	1550,00
1186,89	1530,00
1192,64	1582,00
1198,38	1566,00
1204,12	1515,00
1209,85	1656,00
1215,58	1559,00
1221,30	1619,00
1227,02	1674,00
1232,72	1577,00
1238,43	1555,00
1244,12	1575,00
1249,81	1689,00
1255,50	1664,00
1261,17	1669,00
1266,85	1689,00
1272,51	1757,00
1278,17	1765,00
1283,83	1685,00
1289,47	2017,00
1295,12	2389,00
1300,75	2269,00
1306,38	1997,00
1312,01	1811,00
1317,63	1750,00
1323,24	1733,00
1328,85	1820,00
1334,45	1714,00
1340,04	1658,00
1345,63	1627,00
1351,22	1755,00
1356,80	1729,00
1362,37	1626,00
1367,93	1736,00
1373,49	1631,00
1379,05	1649,00
1384,60	1752,00
1390,14	1572,00
1395,68	1707,00
1401,21	1737,00
1406,74	1738,00
1412,26	1959,00
1417,77	2032,00
1423,28	1946,00
1428,78	1922,00
1434,28	2277,00
1439,77	2411,00
1445,26	2407,00
1450,74	2239,00
1456,22	2218,00
1461,68	2191,00
1467,15	2076,00
1472,61	1944,00
1478,06	1919,00
1483,51	1820,00
1488,95	1748,00
1494,38	1725,00
1499,81	1718,00
1505,24	1591,00
1510,65	1656,00
1516,07	1637,00
1521,48	1596,00
1526,88	1537,00
1532,27	1703,00
1537,67	1486,00
1543,05	1550,00
1548,43	1521,00
1553,81	1545,00
1559,18	1516,00
1564,54	1643,00
1569,90	1558,00
1575,25	1555,00
1580,60	1455,00
1585,94	1465,00
1591,28	1514,00
1596,61	1521,00
1601,93	1475,00
1607,25	1568,00
1612,57	1528,00
1617,88	1497,00
1623,18	1476,00
1628,48	1534,00
1633,77	1417,00
1639,06	1539,00
1644,34	1443,00
1649,62	1520,00
1654,89	1503,00
1660,16	1445,00
1665,42	1419,00
1670,67	1436,00
1675,92	1524,00
1681,17	1456,00
1686,41	1410,00
1691,64	1538,00
1696,87	1424,00
1702,10	1447,00
1707,32	1443,00
1712,53	1401,00
1717,74	1446,00
1722,94	1370,00
1728,14	1449,00
1733,33	1370,00
1738,52	1403,00
1743,70	1371,00
1748,88	1343,00
1754,05	1344,00
1759,22	1345,00
1764,38	2390,00
1769,53	1313,00
1774,69	1365,00
1779,83	1252,00
1784,97	1230,00
1790,11	1347,00
1795,24	1351,00
1800,36	1267,00
1805,48	1299,00
1810,60	1275,00
1815,71	1334,00
1820,82	1285,00
1825,92	1359,00
1831,01	1302,00
1836,10	1213,00
1841,19	1246,00
1846,26	1166,00
1851,34	1230,00
1856,41	1276,00
1861,47	1337,00
1866,53	1329,00
1871,59	1174,00
1876,64	1208,00
1881,68	1252,00
1886,72	1349,00
1891,76	1234,00
1896,79	1234,00
1901,81	1210,00
1906,83	1236,00
1911,85	1225,00
1916,86	1222,00
1921,86	1248,00
1926,86	1192,00
1931,86	1224,00
1936,85	1183,00
1941,83	1238,00
1946,81	1211,00
1951,79	1202,00
1956,76	1101,00
1961,72	1106,00
1966,68	1188,00
1971,64	1122,00
1976,59	1143,00
1981,54	1210,00
1986,48	1044,00
1991,42	1065,00
1996,35	1226,00
2001,27	1132,00
2006,20	1068,00
2011,11	1233,00
2016,03	1169,00
2020,93	1193,00
2025,84	1177,00
2030,73	1049,00
2035,63	1010,00
2040,52	1140,00
2045,40	1101,00
2050,28	1049,00
2055,15	1115,00
2060,02	965,00
2064,89	1137,00
2069,75	1106,00
2074,60	1083,00
2079,46	1059,00
2084,30	1068,00
2089,14	1010,00
2093,98	1104,00
2098,81	1068,00
2103,64	1194,00
2108,46	1073,00
2113,28	1040,00
2118,09	1053,00
2122,90	1150,00
2127,70	1005,00
2132,50	1118,00
2137,30	988,00
2142,09	1073,00
2146,87	1012,00
2151,66	1092,00
2156,43	1016,00
2161,20	1020,00
2165,97	1056,00
2170,73	999,00
2175,49	1028,00
2180,24	992,00
2184,99	1140,00
2189,74	1014,00
2194,48	1044,00
2199,21	999,00
2203,94	1083,00
2208,67	945,00
2213,39	952,00
2218,11	1015,00
2222,82	1027,00
2227,53	999,00
2232,23	1057,00
2236,93	947,00
2241,63	987,00
2246,32	911,00
2251,00	979,00
2255,68	939,00
2260,36	976,00
2265,03	1047,00
2269,70	996,00
2274,36	965,00
2279,02	912,00
2283,68	906,00
2288,33	875,00
2292,97	987,00
2297,61	989,00
2302,25	925,00
2306,88	871,00
2311,51	903,00
2316,14	944,00
2320,75	939,00
2325,37	861,00
2329,98	870,00
2334,59	860,00
2339,19	957,00
2343,79	827,00
2348,38	841,00
2352,97	860,00
2357,55	855,00
2362,13	880,00
2366,71	804,00
2371,28	813,00
2375,85	823,00
2380,41	892,00
2384,97	738,00
2389,52	770,00
2394,07	751,00
2398,62	848,00
2403,16	827,00
2407,70	866,00
2412,23	926,00
2416,76	866,00
2421,29	873,00
2425,81	852,00
2430,32	787,00
2434,84	762,00
2439,34	856,00
2443,85	790,00
2448,35	779,00
2452,84	800,00
2457,33	745,00
2461,82	846,00
2466,30	758,00
2470,78	785,00
2475,25	670,00
2479,72	652,00
2484,19	729,00
2488,65	749,00
2493,11	713,00
2497,56	715,00
2502,01	689,00
2506,46	731,00
2510,90	751,00
2515,34	759,00
2519,77	784,00
2524,20	687,00
2528,62	744,00
2533,04	795,00
2537,46	586,00
2541,87	716,00
2546,28	622,00
2550,68	691,00
2555,08	681,00
2559,48	601,00
2563,87	679,00
2568,26	713,00
2572,64	704,00
2577,02	669,00
2581,40	577,00
2585,77	656,00
2590,14	725,00
2594,50	643,00
2598,86	679,00
2603,22	721,00
2607,57	626,00
2611,92	687,00
2616,26	578,00
2620,60	735,00
2624,94	695,00
2629,27	744,00
2633,60	560,00
2637,92	685,00
2642,24	663,00
2646,56	549,00
2650,87	708,00
2655,18	605,00
2659,48	633,00
2663,78	636,00
2668,08	583,00
2672,37	594,00
2676,66	672,00
2680,95	598,00
2685,23	629,00
2689,50	613,00
2693,78	560,00
2698,05	661,00
2702,31	610,00
2706,57	666,00
2710,83	717,00
2715,08	638,00
2719,33	667,00
2723,58	750,00
2727,82	587,00
2732,06	656,00
2736,29	560,00
2740,53	649,00
2744,75	568,00
2748,97	664,00
2753,19	676,00
2757,41	629,00
2761,62	632,00
2765,83	716,00
2770,03	640,00
2774,23	599,00
2778,43	587,00
2782,62	566,00
2786,81	547,00
2791,00	654,00
2795,18	675,00
2799,35	663,00
2803,53	707,00
2807,70	640,00
2811,86	618,00
2816,03	752,00
2820,19	744,00
2824,34	760,00
2828,49	727,00
2832,64	824,00
2836,78	967,00
2840,92	1132,00
2845,06	1289,00
2849,19	1375,00
2853,32	1496,00
2857,45	1383,00
2861,57	1453,00
2865,69	1339,00
2869,80	1320,00
2873,91	1377,00
2878,02	1392,00
2882,12	1572,00
2886,22	1661,00
2890,32	1391,00
2894,41	1393,00
2898,50	1218,00
2902,58	1222,00
2906,67	1126,00
2910,74	939,00
2914,82	1045,00
2918,89	970,00
2922,96	877,00
2927,02	943,00
2931,08	787,00
2935,13	744,00
2939,19	670,00
2943,24	802,00
2947,28	601,00
2951,32	646,00
2955,36	520,00
2959,40	598,00
2963,43	600,00
2967,46	495,00
2971,48	495,00
2975,50	500,00
2979,52	524,00
2983,53	496,00
2987,54	417,00
2991,55	448,00
2995,55	423,00
2999,55	437,00
3003,54	383,00
3007,54	465,00
3011,53	422,00
3015,51	427,00
3019,49	359,00
3023,47	415,00
3027,45	321,00
3031,42	370,00
3035,39	351,00
3039,35	375,00
3043,31	356,00
3047,27	363,00
3051,22	392,00
3055,17	285,00
3059,12	286,00
3063,06	291,00
3067,00	325,00
3070,94	350,00
3074,87	249,00
3078,80	364,00
3082,73	316,00
3086,65	232,00
3090,57	340,00
3094,49	343,00
3098,40	299,00
3102,31	221,00
3106,22	378,00
3110,12	275,00
3114,02	346,00
3117,92	257,00
3121,81	201,00
3125,70	235,00
3129,58	279,00
3133,47	325,00
3137,34	327,00
3141,22	304,00
3145,09	321,00
3148,96	282,00
3152,83	249,00
3156,69	264,00
3160,55	280,00
3164,40	256,00
3168,26	277,00
3172,10	314,00
3175,95	290,00
3179,79	247,00
3183,63	228,00
3187,47	172,00
3191,30	162,00
3195,13	331,00
3198,95	185,00
3202,78	300,00
3206,60	225,00
3210,41	165,00
3214,23	242,00
3218,03	213,00
3221,84	147,00
3225,64	176,00
3229,44	236,00
3233,24	241,00
3237,03	269,00
3240,82	178,00
3244,61	312,00
3248,39	252,00
3252,17	224,00
3255,95	207,00
3259,72	263,00
3263,49	241,00
3267,26	140,00
3271,03	226,00
3274,79	254,00
3278,54	247,00
3282,30	174,00
3286,05	195,00
3289,80	163,00
3293,54	246,00
3297,29	217,00
3301,02	220,00
3304,76	176,00
3308,49	313,00
3312,22	222,00
3315,95	184,00
3319,67	130,00
3323,39	216,00
3327,10	238,00
3330,82	144,00
3334,53	239,00
3338,24	140,00
3341,94	137,00
3345,64	53,00
3349,34	258,00
3353,03	176,00
3356,72	181,00
3360,41	215,00
3364,10	167,00
3367,78	123,00
3371,46	217,00
3375,13	246,00
3378,81	136,00
3382,48	211,00
3386,14	225,00
3389,81	209,00
3393,47	158,00
3397,12	173,00
3400,78	241,00
3404,43	137,00
3408,08	134,00
3411,72	180,00
3415,36	146,00
3419,00	141,00
3422,64	167,00
3426,27	125,00
3429,90	171,00
3433,53	130,00
3437,15	98,00
3440,77	98,00
3444,39	99,00
3448,00	235,00
3451,62	93,00
3455,22	133,00
3458,83	207,00
3462,43	157,00
3466,03	244,00
3469,63	184,00
3473,22	162,00
3476,81	112,00
3480,40	171,00
3483,99	189,00
3487,57	145,00
3491,15	181,00
3494,72	196,00
3498,29	136,00
3501,86	188,00
3505,43	201,00
3508,99	164,00
3512,56	106,00
3516,11	112,00
3519,67	55,00
3523,22	164,00
3526,77	109,00
3530,32	107,00
3533,86	206,00
3537,40	114,00
3540,94	181,00
3544,47	76,00
3548,00	76,00
3551,53	129,00
3555,06	98,00
3558,58	119,00
3562,10	107,00
3565,62	153,00
3569,13	169,00
3572,64	90,00
3576,15	114,00
3579,66	44,00
3583,16	126,00
3586,66	131,00
3590,16	65,00
3593,65	145,00
3597,14	59,00
3600,63	182,00
3604,11	136,00
3607,60	138,00
3611,08	67,00
3614,55	47,00
3618,03	30,00
3621,50	133,00
3624,97	95,00
3628,43	164,00
3631,90	156,00
3635,36	75,00
3638,81	130,00
3642,27	216,00
3645,72	78,00
3649,17	185,00
3652,61	91,00
3656,06	35,00
3659,50	117,00
3662,93	105,00
3666,37	48,00
3669,80	147,00
3673,23	43,00
3676,65	162,00
3680,08	134,00
3683,50	115,00
3686,92	121,00
3690,33	68,00
3693,74	134,00
3697,15	72,00
3700,56	37,00
3703,96	107,00
3707,36	115,00
3710,76	55,00
3714,16	158,00
3717,55	55,00
3720,94	73,00
3724,33	134,00
3727,71	154,00
3731,10	-40,00
3734,48	69,00
3737,85	104,00
3741,23	21,00
3744,60	126,00
3747,97	108,00
3751,33	30,00
3754,69	140,00
3758,05	56,00
3761,41	74,00
3764,77	14,00
3768,12	8,00
3771,47	87,00
3774,82	77,00
3778,16	0,00
3781,50	5,00
3784,84	0,00
3788,18	-2,00
>>>>>End Processed Spectral Data<<<<<
