SpectraSuite Data File
++++++++++++++++++++++++++++++++++++
Date: Mon Mar 09 14:52:23 ICT 2026
User: Administrator
Dark Spectrum Present: Yes
Reference Spectrum Present: No
Number of Sampled Component Spectra: 1
Spectrometers: MAYP113682
Integration Time (usec): 3000000 (MAYP113682)
Spectra Averaged: 1 (MAYP113682)
Boxcar Smoothing: 0 (MAYP113682)
Correct for Electrical Dark: No (MAYP113682)
Strobe/Lamp Enabled: No (MAYP113682)
Correct for Detector Non-linearity: No (MAYP113682)
Correct for Stray Light: No (MAYP113682)
Number of Pixels in Processed Spectrum: 2068
>>>>>Begin Processed Spectral Data<<<<<
-37534,58	47,00
-37414,56	11,00
-37295,11	6,00
-37176,24	7,00
-37057,95	867,00
-36940,22	841,00
-36823,05	960,00
-36706,45	1124,00
-36590,40	881,00
-36474,90	1044,00
-36359,95	1075,00
-36245,55	1036,00
-36131,68	1009,00
-36018,35	1031,00
-35905,55	1084,00
-35793,29	1099,00
-35681,54	1079,00
-35570,32	942,00
-35459,62	1047,00
-35349,43	1141,00
-35239,75	1077,00
-35130,58	970,00
-35021,91	1139,00
-34913,74	1093,00
-34806,07	1085,00
-34698,89	1204,00
-34592,20	1040,00
-34486,00	1192,00
-34380,28	1016,00
-34275,04	1044,00
-34170,27	1017,00
-34065,98	1079,00
-33962,16	1113,00
-33858,81	1079,00
-33755,92	1095,00
-33653,49	1211,00
-33551,52	1236,00
-33450,01	1080,00
-33348,94	1111,00
-33248,33	1147,00
-33148,16	1023,00
-33048,43	1136,00
-32949,14	1246,00
-32850,29	1220,00
-32751,87	1110,00
-32653,89	1206,00
-32556,33	1251,00
-32459,20	1204,00
-32362,49	1075,00
-32266,19	1080,00
-32170,32	1205,00
-32074,86	1234,00
-31979,82	1243,00
-31885,18	1314,00
-31790,95	1348,00
-31697,12	1124,00
-31603,69	1295,00
-31510,67	1092,00
-31418,04	1118,00
-31325,80	1208,00
-31233,95	1208,00
-31142,49	1046,00
-31051,42	1233,00
-30960,73	1288,00
-30870,43	1303,00
-30780,50	1137,00
-30690,95	1199,00
-30601,77	1239,00
-30512,97	1113,00
-30424,53	1181,00
-30336,46	1151,00
-30248,76	1248,00
-30161,42	1142,00
-30074,44	1157,00
-29987,81	1254,00
-29901,55	1338,00
-29815,63	1116,00
-29730,07	1208,00
-29644,86	1321,00
-29560,00	1218,00
-29475,48	1151,00
-29391,30	1160,00
-29307,47	1034,00
-29223,97	1167,00
-29140,81	1192,00
-29057,99	1282,00
-28975,50	1071,00
-28893,34	1351,00
-28811,51	1091,00
-28730,00	1124,00
-28648,82	1137,00
-28567,97	1176,00
-28487,43	1213,00
-28407,21	1148,00
-28327,32	1030,00
-28247,73	1282,00
-28168,46	1140,00
-28089,50	1178,00
-28010,85	1040,00
-27932,51	1154,00
-27854,48	1347,00
-27776,75	1144,00
-27699,32	1215,00
-27622,19	1303,00
-27545,37	1174,00
-27468,84	1167,00
-27392,60	1271,00
-27316,66	1098,00
-27241,01	1122,00
-27165,66	1154,00
-27090,59	1142,00
-27015,81	1171,00
-26941,31	1301,00
-26867,10	1180,00
-26793,17	1220,00
-26719,52	1145,00
-26646,15	1154,00
-26573,06	1196,00
-26500,24	1146,00
-26427,70	1078,00
-26355,43	1231,00
-26283,43	1111,00
-26211,71	1210,00
-26140,25	1198,00
-26069,06	1496,00
-25998,13	929,00
-25927,46	1121,00
-25857,06	1201,00
-25786,92	1147,00
-25717,04	1132,00
-25647,42	1116,00
-25578,05	1130,00
-25508,94	1172,00
-25440,09	1141,00
-25371,48	1128,00
-25303,13	1148,00
-25235,02	1237,00
-25167,17	1242,00
-25099,56	1290,00
-25032,19	1163,00
-24965,07	1138,00
-24898,20	1031,00
-24831,56	1192,00
-24765,17	1169,00
-24699,01	1096,00
-24633,10	1072,00
-24567,41	1152,00
-24501,97	1364,00
-24436,75	1152,00
-24371,77	1175,00
-24307,03	1156,00
-24242,51	1074,00
-24178,22	1265,00
-24114,16	1101,00
-24050,32	1182,00
-23986,71	1110,00
-23923,32	1104,00
-23860,16	1033,00
-23797,22	1083,00
-23734,50	1147,00
-23672,00	1071,00
-23609,71	1101,00
-23547,65	995,00
-23485,80	1088,00
-23424,16	1098,00
-23362,74	1359,00
-23301,53	1107,00
-23240,54	1155,00
-23179,75	1166,00
-23119,17	1182,00
-23058,80	1231,00
-22998,64	1110,00
-22938,68	1084,00
-22878,93	1155,00
-22819,39	1184,00
-22760,04	1110,00
-22700,90	1197,00
-22641,96	1121,00
-22583,22	1180,00
-22524,68	1171,00
-22466,33	1056,00
-22408,19	1125,00
-22350,23	1128,00
-22292,48	1216,00
-22234,92	1173,00
-22177,55	1223,00
-22120,37	1323,00
-22063,38	1183,00
-22006,58	1056,00
-21949,98	1116,00
-21893,56	947,00
-21837,33	1076,00
-21781,28	1170,00
-21725,42	1072,00
-21669,74	1120,00
-21614,25	1171,00
-21558,94	1044,00
-21503,81	1179,00
-21448,86	1173,00
-21394,10	1111,00
-21339,51	1055,00
-21285,10	1104,00
-21230,86	1034,00
-21176,81	1050,00
-21122,93	1128,00
-21069,22	1163,00
-21015,69	1052,00
-20962,33	1170,00
-20909,14	1073,00
-20856,13	1035,00
-20803,28	1224,00
-20750,61	1042,00
-20698,10	1062,00
-20645,76	1167,00
-20593,59	1288,00
-20541,59	1193,00
-20489,75	1164,00
-20438,07	1079,00
-20386,56	1193,00
-20335,22	1103,00
-20284,03	1047,00
-20233,01	1043,00
-20182,15	1059,00
-20131,45	1139,00
-20080,91	1043,00
-20030,52	1120,00
-19980,30	1083,00
-19930,23	1090,00
-19880,32	1219,00
-19830,56	1176,00
-19780,96	1102,00
-19731,52	1194,00
-19682,23	1145,00
-19633,09	1025,00
-19584,10	1063,00
-19535,26	1052,00
-19486,58	1302,00
-19438,04	1115,00
-19389,66	1152,00
-19341,42	1101,00
-19293,33	1099,00
-19245,39	1136,00
-19197,60	1140,00
-19149,95	1151,00
-19102,45	1242,00
-19055,09	1175,00
-19007,87	1165,00
-18960,80	1176,00
-18913,87	1162,00
-18867,09	1150,00
-18820,44	1194,00
-18773,94	1146,00
-18727,57	1079,00
-18681,35	1060,00
-18635,26	1140,00
-18589,31	951,00
-18543,50	932,00
-18497,83	1119,00
-18452,29	1130,00
-18406,89	1062,00
-18361,63	1238,00
-18316,50	1131,00
-18271,50	1095,00
-18226,63	1167,00
-18181,90	1197,00
-18137,30	1255,00
-18092,84	1125,00
-18048,50	1176,00
-18004,29	1007,00
-17960,22	1144,00
-17916,27	1077,00
-17872,45	1120,00
-17828,76	1168,00
-17785,20	1264,00
-17741,77	1141,00
-17698,46	1162,00
-17655,28	1021,00
-17612,22	1166,00
-17569,29	1127,00
-17526,48	1107,00
-17483,79	1022,00
-17441,23	1105,00
-17398,79	1048,00
-17356,48	1131,00
-17314,28	1395,00
-17272,21	1151,00
-17230,26	1007,00
-17188,42	1158,00
-17146,71	1138,00
-17105,12	1215,00
-17063,64	1186,00
-17022,28	1066,00
-16981,04	1101,00
-16939,92	1126,00
-16898,91	1322,00
-16858,02	1179,00
-16817,25	1154,00
-16776,59	918,00
-16736,04	1176,00
-16695,61	1042,00
-16655,29	1046,00
-16615,09	1200,00
-16574,99	1114,00
-16535,01	1064,00
-16495,15	1191,00
-16455,39	1155,00
-16415,74	1102,00
-16376,21	1056,00
-16336,78	1045,00
-16297,46	1135,00
-16258,26	1150,00
-16219,16	1160,00
-16180,17	1107,00
-16141,28	1270,00
-16102,51	1176,00
-16063,84	1129,00
-16025,27	1171,00
-15986,82	943,00
-15948,46	982,00
-15910,22	1111,00
-15872,07	1107,00
-15834,04	1158,00
-15796,10	1063,00
-15758,27	1344,00
-15720,54	1134,00
-15682,91	1046,00
-15645,39	1202,00
-15607,97	1097,00
-15570,64	1084,00
-15533,42	1157,00
-15496,30	1078,00
-15459,28	1115,00
-15422,36	1083,00
-15385,54	1117,00
-15348,82	1097,00
-15312,19	1305,00
-15275,66	976,00
-15239,23	1132,00
-15202,90	1068,00
-15166,67	1036,00
-15130,53	1087,00
-15094,48	1111,00
-15058,54	1171,00
-15022,68	1113,00
-14986,93	1077,00
-14951,26	1140,00
-14915,69	960,00
-14880,22	1067,00
-14844,84	1053,00
-14809,55	1089,00
-14774,35	1100,00
-14739,25	1280,00
-14704,24	1137,00
-14669,32	1101,00
-14634,49	1155,00
-14599,75	1104,00
-14565,10	992,00
-14530,55	1208,00
-14496,08	1108,00
-14461,70	1180,00
-14427,41	943,00
-14393,21	1069,00
-14359,10	1112,00
-14325,07	1207,00
-14291,14	1116,00
-14257,29	1152,00
-14223,52	1109,00
-14189,85	1315,00
-14156,26	1076,00
-14122,76	1086,00
-14089,34	1059,00
-14056,01	1074,00
-14022,76	1201,00
-13989,60	1166,00
-13956,52	1091,00
-13923,53	1134,00
-13890,62	1086,00
-13857,79	1044,00
-13825,05	1083,00
-13792,39	932,00
-13759,81	1134,00
-13727,31	1026,00
-13694,90	1074,00
-13662,57	1195,00
-13630,31	1143,00
-13598,14	1072,00
-13566,05	1083,00
-13534,05	1136,00
-13502,12	1041,00
-13470,27	1161,00
-13438,50	1202,00
-13406,80	1085,00
-13375,19	1040,00
-13343,66	1121,00
-13312,20	1061,00
-13280,83	1023,00
-13249,53	1015,00
-13218,30	1084,00
-13187,16	1056,00
-13156,09	1252,00
-13125,10	1234,00
-13094,18	1182,00
-13063,34	1245,00
-13032,58	950,00
-13001,89	1137,00
-12971,28	1232,00
-12940,74	1120,00
-12910,27	1090,00
-12879,88	1104,00
-12849,57	1196,00
-12819,33	1166,00
-12789,16	1094,00
-12759,06	1170,00
-12729,04	1204,00
-12699,09	2517,00
-12669,21	1059,00
-12639,41	1166,00
-12609,68	1122,00
-12580,02	1174,00
-12550,43	1254,00
-12520,91	971,00
-12491,46	1088,00
-12462,08	1080,00
-12432,77	1094,00
-12403,54	1092,00
-12374,37	1166,00
-12345,27	1172,00
-12316,24	1080,00
-12287,29	1194,00
-12258,40	1051,00
-12229,57	1074,00
-12200,82	1089,00
-12172,14	1114,00
-12143,52	1049,00
-12114,97	1043,00
-12086,49	1107,00
-12058,07	1081,00
-12029,73	1151,00
-12001,44	1230,00
-11973,23	1055,00
-11945,08	1205,00
-11917,00	1133,00
-11888,98	1137,00
-11861,03	1038,00
-11833,15	1149,00
-11805,32	1163,00
-11777,57	1156,00
-11749,88	1207,00
-11722,25	1055,00
-11694,69	1045,00
-11667,19	1120,00
-11639,75	1128,00
-11612,38	1138,00
-11585,07	1099,00
-11557,83	1145,00
-11530,65	1312,00
-11503,53	1147,00
-11476,47	1243,00
-11449,48	1022,00
-11422,54	1190,00
-11395,67	1202,00
-11368,86	1137,00
-11342,11	1126,00
-11315,43	1126,00
-11288,80	922,00
-11262,23	1199,00
-11235,73	1086,00
-11209,28	1116,00
-11182,90	1225,00
-11156,57	1169,00
-11130,31	1208,00
-11104,10	1112,00
-11077,96	1113,00
-11051,87	1144,00
-11025,84	1140,00
-10999,87	1088,00
-10973,96	1227,00
-10948,11	1060,00
-10922,31	1091,00
-10896,58	1167,00
-10870,90	1364,00
-10845,28	1097,00
-10819,71	1003,00
-10794,20	1172,00
-10768,75	1170,00
-10743,36	1158,00
-10718,02	1065,00
-10692,74	1193,00
-10667,52	995,00
-10642,35	1225,00
-10617,24	1242,00
-10592,18	1265,00
-10567,18	1010,00
-10542,23	1136,00
-10517,34	1180,00
-10492,51	1235,00
-10467,72	1094,00
-10443,00	1057,00
-10418,32	1138,00
-10393,70	1051,00
-10369,14	1004,00
-10344,63	1136,00
-10320,17	1200,00
-10295,77	1063,00
-10271,42	1140,00
-10247,12	1148,00
-10222,88	1278,00
-10198,68	1012,00
-10174,54	1050,00
-10150,46	1219,00
-10126,42	1217,00
-10102,44	1167,00
-10078,51	1167,00
-10054,63	1245,00
-10030,80	1139,00
-10007,03	1266,00
-9983,30	1076,00
-9959,63	1054,00
-9936,01	1105,00
-9912,44	1158,00
-9888,92	1152,00
-9865,44	1041,00
-9842,02	1148,00
-9818,65	1067,00
-9795,33	1167,00
-9772,06	1080,00
-9748,84	1048,00
-9725,67	1081,00
-9702,55	1059,00
-9679,47	1233,00
-9656,45	1102,00
-9633,47	993,00
-9610,55	1131,00
-9587,67	1112,00
-9564,84	1324,00
-9542,06	1108,00
-9519,32	1170,00
-9496,64	1151,00
-9474,00	986,00
-9451,41	1040,00
-9428,87	1104,00
-9406,37	1015,00
-9383,92	1008,00
-9361,52	1050,00
-9339,17	1082,00
-9316,86	899,00
-9294,60	901,00
-9272,38	1157,00
-9250,21	1106,00
-9228,09	1087,00
-9206,01	1090,00
-9183,98	974,00
-9162,00	939,00
-9140,06	1044,00
-9118,16	949,00
-9096,31	1002,00
-9074,51	909,00
-9052,75	1196,00
-9031,04	1180,00
-9009,37	964,00
-8987,74	1050,00
-8966,16	1207,00
-8944,63	978,00
-8923,14	1111,00
-8901,69	937,00
-8880,29	1001,00
-8858,93	1084,00
-8837,61	1107,00
-8816,34	1024,00
-8795,11	1025,00
-8773,92	1156,00
-8752,78	1076,00
-8731,68	1010,00
-8710,62	1160,00
-8689,61	885,00
-8668,63	1004,00
-8647,70	1210,00
-8626,82	1030,00
-8605,97	1208,00
-8585,17	1079,00
-8564,41	1040,00
-8543,69	1093,00
-8523,01	1032,00
-8502,37	1254,00
-8481,78	1029,00
-8461,23	881,00
-8440,71	908,00
-8420,24	1007,00
-8399,81	1128,00
-8379,42	1125,00
-8359,08	1153,00
-8338,77	1026,00
-8318,50	1089,00
-8298,27	949,00
-8278,09	1035,00
-8257,94	893,00
-8237,83	1062,00
-8217,76	1078,00
-8197,74	1020,00
-8177,75	999,00
-8157,80	1071,00
-8137,89	1117,00
-8118,02	1019,00
-8098,19	1182,00
-8078,40	1043,00
-8058,65	1011,00
-8038,93	1155,00
-8019,26	1117,00
-7999,62	1087,00
-7980,02	1083,00
-7960,46	1113,00
-7940,94	940,00
-7921,46	1223,00
-7902,01	1011,00
-7882,60	1210,00
-7863,23	1134,00
-7843,90	1114,00
-7824,61	1117,00
-7805,35	1290,00
-7786,13	1157,00
-7766,95	1037,00
-7747,80	1110,00
-7728,69	1222,00
-7709,62	1105,00
-7690,59	1104,00
-7671,59	1146,00
-7652,63	1066,00
-7633,70	1101,00
-7614,81	1209,00
-7595,96	1119,00
-7577,15	1065,00
-7558,37	1006,00
-7539,62	1116,00
-7520,91	1078,00
-7502,24	1186,00
-7483,60	1131,00
-7465,00	1175,00
-7446,44	1124,00
-7427,91	985,00
-7409,41	1210,00
-7390,95	1213,00
-7372,53	1035,00
-7354,14	1095,00
-7335,78	1054,00
-7317,46	1092,00
-7299,18	1093,00
-7280,92	1123,00
-7262,71	1298,00
-7244,52	1062,00
-7226,38	1032,00
-7208,26	1086,00
-7190,18	1112,00
-7172,14	1163,00
-7154,12	1103,00
-7136,15	1011,00
-7118,20	1124,00
-7100,29	1212,00
-7082,41	1192,00
-7064,57	1067,00
-7046,76	1069,00
-7028,98	909,00
-7011,24	1371,00
-6993,53	885,00
-6975,85	1180,00
-6958,20	1055,00
-6940,59	1093,00
-6923,01	941,00
-6905,46	1207,00
-6887,94	1010,00
-6870,46	1448,00
-6853,01	1139,00
-6835,59	1093,00
-6818,21	935,00
-6800,85	1167,00
-6783,53	1087,00
-6766,24	1006,00
-6748,98	964,00
-6731,76	996,00
-6714,56	998,00
-6697,40	918,00
-6680,26	845,00
-6663,16	1046,00
-6646,09	1204,00
-6629,05	1046,00
-6612,05	1137,00
-6595,07	986,00
-6578,13	1137,00
-6561,21	982,00
-6544,33	978,00
-6527,47	1108,00
-6510,65	1033,00
-6493,86	1093,00
-6477,10	974,00
-6460,36	1178,00
-6443,66	1031,00
-6426,99	1005,00
-6410,35	961,00
-6393,74	1160,00
-6377,16	1058,00
-6360,61	1086,00
-6344,09	938,00
-6327,59	978,00
-6311,13	908,00
-6294,70	1111,00
-6278,29	1193,00
-6261,92	1049,00
-6245,58	1088,00
-6229,26	1032,00
-6212,97	1086,00
-6196,72	995,00
-6180,49	1221,00
-6164,29	972,00
-6148,12	1124,00
-6131,98	1062,00
-6115,86	1102,00
-6099,78	970,00
-6083,72	986,00
-6067,69	966,00
-6051,69	1060,00
-6035,72	1111,00
-6019,78	1044,00
-6003,87	1114,00
-5987,98	1078,00
-5972,12	1047,00
-5956,29	1080,00
-5940,49	959,00
-5924,71	1138,00
-5908,96	967,00
-5893,24	1006,00
-5877,55	1046,00
-5861,89	1109,00
-5846,25	1000,00
-5830,64	1037,00
-5815,05	1065,00
-5799,50	1088,00
-5783,97	1115,00
-5768,47	1184,00
-5752,99	1253,00
-5737,55	931,00
-5722,12	1053,00
-5706,73	1051,00
-5691,36	1119,00
-5676,02	1056,00
-5660,71	1235,00
-5645,42	1125,00
-5630,16	1074,00
-5614,92	1082,00
-5599,71	965,00
-5584,53	1100,00
-5569,37	931,00
-5554,24	2115,00
-5539,14	1061,00
-5524,06	1156,00
-5509,01	1020,00
-5493,98	1035,00
-5478,98	1201,00
-5464,00	1052,00
-5449,05	981,00
-5434,13	1088,00
-5419,23	1127,00
-5404,36	955,00
-5389,51	1056,00
-5374,69	1025,00
-5359,89	1074,00
-5345,12	1084,00
-5330,37	1269,00
-5315,65	1232,00
-5300,95	1118,00
-5286,28	979,00
-5271,63	993,00
-5257,01	1079,00
-5242,41	1039,00
-5227,84	1024,00
-5213,29	1078,00
-5198,76	1137,00
-5184,26	1079,00
-5169,79	1121,00
-5155,33	1092,00
-5140,91	1085,00
-5126,51	1044,00
-5112,13	1143,00
-5097,77	1146,00
-5083,44	1221,00
-5069,13	993,00
-5054,85	1085,00
-5040,59	1023,00
-5026,36	1135,00
-5012,15	1241,00
-4997,96	1104,00
-4983,80	1090,00
-4969,66	1137,00
-4955,54	1044,00
-4941,44	1126,00
-4927,37	994,00
-4913,33	1101,00
-4899,30	870,00
-4885,30	1020,00
-4871,33	1043,00
-4857,37	1107,00
-4843,44	1161,00
-4829,53	1206,00
-4815,65	1176,00
-4801,79	888,00
-4787,95	1070,00
-4774,13	1066,00
-4760,34	1055,00
-4746,56	1159,00
-4732,82	1029,00
-4719,09	1058,00
-4705,38	1144,00
-4691,70	1191,00
-4678,04	1110,00
-4664,41	1146,00
-4650,79	1350,00
-4637,20	1171,00
-4623,63	1090,00
-4610,08	1033,00
-4596,56	1153,00
-4583,05	971,00
-4569,57	1070,00
-4556,11	1140,00
-4542,67	963,00
-4529,25	1023,00
-4515,86	1197,00
-4502,49	1163,00
-4489,13	1117,00
-4475,80	1098,00
-4462,49	976,00
-4449,21	1327,00
-4435,94	1020,00
-4422,70	1224,00
-4409,47	963,00
-4396,27	1072,00
-4383,09	1037,00
-4369,93	1035,00
-4356,79	1131,00
-4343,67	1152,00
-4330,58	1100,00
-4317,50	1097,00
-4304,45	1026,00
-4291,41	1147,00
-4278,40	1078,00
-4265,41	941,00
-4252,44	1148,00
-4239,49	1001,00
-4226,55	1195,00
-4213,65	1265,00
-4200,76	1308,00
-4187,89	993,00
-4175,04	1079,00
-4162,21	1181,00
-4149,40	1118,00
-4136,61	1096,00
-4123,85	1117,00
-4111,10	1097,00
-4098,37	1224,00
-4085,66	1195,00
-4072,98	1264,00
-4060,31	1042,00
-4047,66	1271,00
-4035,04	1219,00
-4022,43	1098,00
-4009,84	1240,00
-3997,27	1082,00
-3984,72	1116,00
-3972,19	1154,00
-3959,69	986,00
-3947,20	1071,00
-3934,73	1211,00
-3922,27	1058,00
-3909,84	1160,00
-3897,43	1172,00
-3885,04	1089,00
-3872,67	1075,00
-3860,31	1148,00
-3847,98	1189,00
-3835,66	1101,00
-3823,36	1168,00
-3811,09	1007,00
-3798,83	1125,00
-3786,59	1306,00
-3774,37	1271,00
-3762,17	1015,00
-3749,98	1080,00
-3737,82	1040,00
-3725,67	1344,00
-3713,55	1072,00
-3701,44	1197,00
-3689,35	1196,00
-3677,28	1154,00
-3665,22	1068,00
-3653,19	1069,00
-3641,17	1110,00
-3629,18	1234,00
-3617,20	1127,00
-3605,24	1186,00
-3593,30	1235,00
-3581,37	1193,00
-3569,47	1320,00
-3557,58	1264,00
-3545,71	1171,00
-3533,86	1223,00
-3522,02	1166,00
-3510,21	1151,00
-3498,41	1198,00
-3486,63	1132,00
-3474,87	1162,00
-3463,12	1080,00
-3451,40	1133,00
-3439,69	1213,00
-3428,00	1221,00
-3416,33	1265,00
-3404,67	1114,00
-3393,03	1243,00
-3381,41	1191,00
-3369,81	1221,00
-3358,22	1093,00
-3346,66	1162,00
-3335,10	1141,00
-3323,57	1103,00
-3312,06	1225,00
-3300,56	1153,00
-3289,08	1040,00
-3277,61	1055,00
-3266,16	1242,00
-3254,73	1197,00
-3243,32	1156,00
-3231,92	1147,00
-3220,55	1191,00
-3209,18	1197,00
-3197,84	1074,00
-3186,51	1072,00
-3175,20	1099,00
-3163,90	1144,00
-3152,63	1164,00
-3141,36	1211,00
-3130,12	1164,00
-3118,89	1240,00
-3107,68	1217,00
-3096,49	1148,00
-3085,31	1222,00
-3074,15	1084,00
-3063,00	1157,00
-3051,87	1199,00
-3040,76	1086,00
-3029,67	1163,00
-3018,59	1449,00
-3007,52	1125,00
-2996,48	1339,00
-2985,44	1062,00
-2974,43	1152,00
-2963,43	1112,00
-2952,45	990,00
-2941,48	1185,00
-2930,53	1264,00
-2919,60	1146,00
-2908,68	1041,00
-2897,78	1196,00
-2886,89	1270,00
-2876,02	1148,00
-2865,17	1120,00
-2854,33	1128,00
-2843,50	1023,00
-2832,70	1143,00
-2821,90	1158,00
-2811,13	1161,00
-2800,37	1135,00
-2789,62	1235,00
-2778,89	1214,00
-2768,18	1142,00
-2757,48	1213,00
-2746,80	1240,00
-2736,13	1177,00
-2725,48	1149,00
-2714,84	1169,00
-2704,22	1128,00
-2693,61	1122,00
-2683,02	1200,00
-2672,45	1127,00
-2661,89	1244,00
-2651,34	1169,00
-2640,81	1149,00
-2630,30	1328,00
-2619,80	1156,00
-2609,31	1331,00
-2598,84	992,00
-2588,39	1157,00
-2577,95	1094,00
-2567,52	1024,00
-2557,11	1158,00
-2546,71	1130,00
-2536,33	1268,00
-2525,97	1130,00
-2515,62	1137,00
-2505,28	1180,00
-2494,96	1114,00
-2484,65	1198,00
-2474,36	1476,00
-2464,08	1139,00
-2453,82	1188,00
-2443,57	1245,00
-2433,33	1061,00
-2423,11	1138,00
-2412,91	1097,00
-2402,72	1015,00
-2392,54	1165,00
-2382,38	1156,00
-2372,23	1214,00
-2362,09	6019,00
-2351,97	1038,00
-2341,87	1066,00
-2331,78	1170,00
-2321,70	1234,00
-2311,64	1166,00
-2301,59	1112,00
-2291,55	1067,00
-2281,53	1179,00
-2271,53	1078,00
-2261,53	1271,00
-2251,55	1122,00
-2241,59	1198,00
-2231,64	1218,00
-2221,70	1125,00
-2211,78	1315,00
-2201,87	1180,00
-2191,97	1168,00
-2182,09	1117,00
-2172,22	1256,00
-2162,37	1086,00
-2152,53	1086,00
-2142,70	1123,00
-2132,89	1110,00
-2123,09	1157,00
-2113,30	1176,00
-2103,53	1249,00
-2093,77	1126,00
-2084,02	1074,00
-2074,29	1316,00
-2064,57	1216,00
-2054,86	1172,00
-2045,17	1180,00
-2035,49	1191,00
-2025,82	1095,00
-2016,17	1099,00
-2006,53	1166,00
-1996,91	1166,00
-1987,29	1099,00
-1977,69	1192,00
-1968,11	1154,00
-1958,53	1185,00
-1948,97	1185,00
-1939,42	1099,00
-1929,89	1051,00
-1920,37	1138,00
-1910,86	1151,00
-1901,36	1195,00
-1891,88	1182,00
-1882,41	1197,00
-1872,95	1155,00
-1863,51	1101,00
-1854,08	1263,00
-1844,66	1252,00
-1835,26	1106,00
-1825,86	1162,00
-1816,48	1130,00
-1807,11	1210,00
-1797,76	1281,00
-1788,42	1218,00
-1779,09	1268,00
-1769,77	1078,00
-1760,47	1368,00
-1751,17	1110,00
-1741,89	1206,00
-1732,63	1216,00
-1723,37	1380,00
-1714,13	1326,00
-1704,90	1071,00
-1695,68	1309,00
-1686,48	1023,00
-1677,29	1136,00
-1668,11	1381,00
-1658,94	1197,00
-1649,78	1192,00
-1640,64	1158,00
-1631,51	1139,00
-1622,39	1229,00
-1613,28	1165,00
-1604,19	1383,00
-1595,10	1236,00
-1586,03	1120,00
-1576,97	1152,00
-1567,93	1143,00
-1558,89	1275,00
-1549,87	1227,00
-1540,86	1142,00
-1531,86	1128,00
-1522,87	1155,00
-1513,90	1341,00
-1504,93	1141,00
-1495,98	1248,00
-1487,04	1272,00
-1478,12	1109,00
-1469,20	1079,00
-1460,30	1249,00
-1451,40	1315,00
-1442,52	1118,00
-1433,65	1312,00
-1424,80	1130,00
-1415,95	1158,00
-1407,12	1433,00
-1398,30	1181,00
-1389,48	1123,00
-1380,69	1202,00
-1371,90	1230,00
-1363,12	1211,00
-1354,36	1352,00
-1345,60	1091,00
-1336,86	1277,00
-1328,13	1389,00
-1319,41	1190,00
-1310,70	1088,00
-1302,01	1120,00
-1293,32	1101,00
-1284,65	1170,00
-1275,99	1172,00
-1267,33	1317,00
-1258,69	1140,00
-1250,06	1265,00
-1241,45	1149,00
-1232,84	1289,00
-1224,25	1197,00
-1215,66	1177,00
-1207,09	1289,00
-1198,53	1105,00
-1189,97	1040,00
-1181,43	1141,00
-1172,91	1310,00
-1164,39	1306,00
-1155,88	1073,00
-1147,38	1046,00
-1138,90	1151,00
-1130,43	1131,00
-1121,96	1144,00
-1113,51	1271,00
-1105,07	1158,00
-1096,64	1150,00
-1088,22	1136,00
-1079,81	1363,00
-1071,41	1334,00
-1063,02	1219,00
-1054,65	1268,00
-1046,28	1143,00
-1037,92	1243,00
-1029,58	1083,00
-1021,24	1136,00
-1012,92	1475,00
-1004,61	1197,00
-996,30	1521,00
-988,01	1051,00
-979,73	1161,00
-971,46	1211,00
-963,20	1135,00
-954,95	1042,00
-946,71	1090,00
-938,48	1116,00
-930,26	1272,00
-922,06	1230,00
-913,86	1091,00
-905,67	1100,00
-897,49	1109,00
-889,33	1083,00
-881,17	1290,00
-873,02	1219,00
-864,89	948,00
-856,76	1128,00
-848,65	1136,00
-840,54	1222,00
-832,45	1244,00
-824,36	959,00
-816,29	1193,00
-808,22	1138,00
-800,17	1165,00
-792,12	1234,00
-784,09	1285,00
-776,06	1066,00
-768,05	1241,00
-760,04	1120,00
-752,05	1085,00
-744,07	1253,00
-736,09	1359,00
-728,13	1102,00
-720,17	1127,00
-712,23	1108,00
-704,29	1166,00
-696,37	1183,00
-688,45	1159,00
-680,55	1090,00
-672,65	1073,00
-664,77	1133,00
-656,89	1225,00
-649,03	1042,00
-641,17	1198,00
-633,32	1229,00
-625,49	1046,00
-617,66	1168,00
-609,84	1147,00
-602,03	1013,00
-594,23	1067,00
-586,45	1145,00
-578,67	1076,00
-570,90	1032,00
-563,14	1083,00
-555,39	1133,00
-547,65	1236,00
-539,91	1200,00
-532,19	1138,00
-524,48	1292,00
-516,78	1084,00
-509,08	1061,00
-501,40	1019,00
-493,72	1082,00
-486,06	1136,00
-478,40	1395,00
-470,76	1193,00
-463,12	1155,00
-455,49	1085,00
-447,87	1153,00
-440,26	1098,00
-432,66	1066,00
-425,07	1301,00
-417,49	1135,00
-409,92	1069,00
-402,35	1050,00
-394,80	1134,00
-387,25	1223,00
-379,72	1189,00
-372,19	1113,00
-364,67	1195,00
-357,17	1117,00
-349,67	1129,00
-342,18	1119,00
-334,69	1217,00
-327,22	1129,00
-319,76	1144,00
-312,30	1198,00
-304,86	1200,00
-297,42	1259,00
-290,00	1089,00
-282,58	1099,00
-275,17	1166,00
-267,77	1240,00
-260,37	1143,00
-252,99	1296,00
-245,62	1168,00
-238,25	1104,00
-230,90	1162,00
-223,55	1389,00
-216,21	1153,00
-208,88	1339,00
-201,56	1229,00
-194,25	1172,00
-186,94	1209,00
-179,65	1265,00
-172,36	1315,00
-165,08	1199,00
-157,81	1347,00
-150,55	1308,00
-143,30	1413,00
-136,06	1409,00
-128,82	1412,00
-121,60	1353,00
-114,38	1474,00
-107,17	1467,00
-99,97	1587,00
-92,78	1510,00
-85,60	1660,00
-78,42	1743,00
-71,25	1762,00
-64,10	1864,00
-56,95	1981,00
-49,81	2165,00
-42,67	2579,00
-35,55	2822,00
-28,43	3316,00
-21,33	4927,00
-14,23	13652,00
-7,14	57775,00
-0,05	57564,00
7,02	57281,00
14,09	44215,00
21,14	12286,00
28,19	5673,00
35,23	4036,00
42,27	3300,00
49,29	2905,00
56,31	2647,00
63,32	2507,00
70,32	2185,00
77,31	1891,00
84,29	1839,00
91,27	1943,00
98,23	1915,00
105,19	1732,00
112,14	1919,00
119,09	2191,00
126,02	3045,00
132,95	3274,00
139,87	3436,00
146,78	3612,00
153,68	3371,00
160,58	3401,00
167,46	3299,00
174,34	3492,00
181,21	3574,00
188,08	3433,00
194,93	3648,00
201,78	3444,00
208,62	3383,00
215,45	3492,00
222,27	3497,00
229,09	3735,00
235,90	3374,00
242,70	3367,00
249,49	3592,00
256,27	3427,00
263,05	3434,00
269,82	3425,00
276,58	3556,00
283,33	3435,00
290,08	3458,00
296,82	3370,00
303,55	3306,00
310,27	3288,00
316,98	3332,00
323,69	3437,00
330,39	3201,00
337,08	3440,00
343,76	3398,00
350,44	3291,00
357,11	3389,00
363,77	3199,00
370,42	3140,00
377,07	3418,00
383,71	3283,00
390,34	3301,00
396,96	3303,00
403,58	3312,00
410,19	3398,00
416,79	3474,00
423,38	3502,00
429,97	3356,00
436,55	3165,00
443,12	3304,00
449,68	3229,00
456,24	3265,00
462,79	3323,00
469,33	3331,00
475,86	3171,00
482,39	3335,00
488,91	3446,00
495,42	3220,00
501,93	3230,00
508,42	3154,00
514,91	3388,00
521,40	3116,00
527,87	3217,00
534,34	3145,00
540,80	3377,00
547,25	3271,00
553,70	3349,00
560,14	3297,00
566,57	3291,00
573,00	3368,00
579,41	3335,00
585,83	3282,00
592,23	3287,00
598,62	3298,00
605,01	3118,00
611,40	3330,00
617,77	3381,00
624,14	3204,00
630,50	3320,00
636,85	3339,00
643,20	3157,00
649,54	3117,00
655,87	3253,00
662,20	3383,00
668,52	3303,00
674,83	3343,00
681,13	3355,00
687,43	3207,00
693,72	3196,00
700,00	3164,00
706,28	3238,00
712,55	3279,00
718,81	3313,00
725,07	3184,00
731,32	3078,00
737,56	3280,00
743,79	3363,00
750,02	3320,00
756,24	3208,00
762,46	3244,00
768,67	3561,00
774,87	3337,00
781,06	3259,00
787,25	3321,00
793,43	3269,00
799,60	3090,00
805,77	3363,00
811,93	3172,00
818,08	3233,00
824,23	3240,00
830,37	3622,00
836,50	3306,00
842,63	3315,00
848,75	3255,00
854,87	3371,00
860,97	3206,00
867,07	3352,00
873,17	3251,00
879,25	3290,00
885,33	3247,00
891,41	3327,00
897,47	3288,00
903,53	3384,00
909,59	3365,00
915,63	3364,00
921,67	3322,00
927,71	3397,00
933,74	3399,00
939,76	3114,00
945,77	3241,00
951,78	3363,00
957,78	3303,00
963,78	3436,00
969,77	3339,00
975,75	3315,00
981,72	3233,00
987,69	4830,00
993,66	3452,00
999,61	3410,00
1005,56	3468,00
1011,51	3366,00
1017,44	3365,00
1023,37	3396,00
1029,30	3330,00
1035,22	3538,00
1041,13	3332,00
1047,03	3402,00
1052,93	3481,00
1058,83	3888,00
1064,71	4004,00
1070,59	3881,00
1076,47	3648,00
1082,33	3579,00
1088,20	3574,00
1094,05	3640,00
1099,90	3393,00
1105,74	3498,00
1111,58	3462,00
1117,41	3533,00
1123,23	3809,00
1129,05	4212,00
1134,86	3976,00
1140,67	3833,00
1146,47	3532,00
1152,26	3579,00
1158,05	3335,00
1163,83	3634,00
1169,60	3637,00
1175,37	3496,00
1181,13	3514,00
1186,89	3558,00
1192,64	3495,00
1198,38	3628,00
1204,12	3463,00
1209,85	3565,00
1215,58	3660,00
1221,30	3623,00
1227,02	3629,00
1232,72	3528,00
1238,43	3441,00
1244,12	3573,00
1249,81	3490,00
1255,50	3654,00
1261,17	3526,00
1266,85	3593,00
1272,51	3727,00
1278,17	3784,00
1283,83	3654,00
1289,47	4061,00
1295,12	4465,00
1300,75	4224,00
1306,38	3959,00
1312,01	3693,00
1317,63	3602,00
1323,24	3724,00
1328,85	3663,00
1334,45	3643,00
1340,04	3550,00
1345,63	3433,00
1351,22	3754,00
1356,80	3561,00
1362,37	3631,00
1367,93	3487,00
1373,49	3593,00
1379,05	3537,00
1384,60	3553,00
1390,14	3640,00
1395,68	3675,00
1401,21	3626,00
1406,74	3824,00
1412,26	3812,00
1417,77	4157,00
1423,28	3900,00
1428,78	4049,00
1434,28	4378,00
1439,77	4488,00
1445,26	4207,00
1450,74	4355,00
1456,22	4268,00
1461,68	4294,00
1467,15	4178,00
1472,61	3914,00
1478,06	4098,00
1483,51	3680,00
1488,95	3686,00
1494,38	3647,00
1499,81	3462,00
1505,24	3472,00
1510,65	3664,00
1516,07	3668,00
1521,48	3420,00
1526,88	3282,00
1532,27	3402,00
1537,67	3435,00
1543,05	3610,00
1548,43	3333,00
1553,81	3538,00
1559,18	3330,00
1564,54	3454,00
1569,90	3291,00
1575,25	3265,00
1580,60	3203,00
1585,94	3438,00
1591,28	3415,00
1596,61	3277,00
1601,93	3387,00
1607,25	3443,00
1612,57	3418,00
1617,88	3384,00
1623,18	3318,00
1628,48	3440,00
1633,77	3233,00
1639,06	3396,00
1644,34	3280,00
1649,62	3220,00
1654,89	3404,00
1660,16	3185,00
1665,42	3393,00
1670,67	3272,00
1675,92	3334,00
1681,17	3327,00
1686,41	3302,00
1691,64	3465,00
1696,87	3190,00
1702,10	3211,00
1707,32	3330,00
1712,53	3359,00
1717,74	3335,00
1722,94	3298,00
1728,14	3210,00
1733,33	3126,00
1738,52	3099,00
1743,70	3234,00
1748,88	3069,00
1754,05	3237,00
1759,22	2964,00
1764,38	4682,00
1769,53	3161,00
1774,69	3208,00
1779,83	3085,00
1784,97	3091,00
1790,11	3123,00
1795,24	3125,00
1800,36	3171,00
1805,48	3017,00
1810,60	3025,00
1815,71	3007,00
1820,82	3037,00
1825,92	3150,00
1831,01	3041,00
1836,10	2952,00
1841,19	3008,00
1846,26	2896,00
1851,34	3048,00
1856,41	3105,00
1861,47	3069,00
1866,53	3030,00
1871,59	3134,00
1876,64	3072,00
1881,68	2982,00
1886,72	3204,00
1891,76	2944,00
1896,79	3037,00
1901,81	2944,00
1906,83	2937,00
1911,85	2850,00
1916,86	2918,00
1921,86	3082,00
1926,86	3011,00
1931,86	2945,00
1936,85	2961,00
1941,83	2950,00
1946,81	2901,00
1951,79	2864,00
1956,76	2849,00
1961,72	2717,00
1966,68	2839,00
1971,64	2780,00
1976,59	2860,00
1981,54	2811,00
1986,48	2805,00
1991,42	2763,00
1996,35	3158,00
2001,27	2882,00
2006,20	2779,00
2011,11	2856,00
2016,03	2959,00
2020,93	2726,00
2025,84	2831,00
2030,73	2719,00
2035,63	2599,00
2040,52	2791,00
2045,40	2698,00
2050,28	2797,00
2055,15	2855,00
2060,02	2606,00
2064,89	2851,00
2069,75	2802,00
2074,60	2758,00
2079,46	2790,00
2084,30	2750,00
2089,14	2575,00
2093,98	2759,00
2098,81	2753,00
2103,64	2700,00
2108,46	2742,00
2113,28	2635,00
2118,09	2748,00
2122,90	2664,00
2127,70	2659,00
2132,50	2809,00
2137,30	2639,00
2142,09	2528,00
2146,87	2543,00
2151,66	2672,00
2156,43	2704,00
2161,20	2556,00
2165,97	2816,00
2170,73	2677,00
2175,49	2795,00
2180,24	2631,00
2184,99	2630,00
2189,74	2704,00
2194,48	2645,00
2199,21	2798,00
2203,94	2453,00
2208,67	2445,00
2213,39	2448,00
2218,11	2652,00
2222,82	2531,00
2227,53	2435,00
2232,23	2652,00
2236,93	2540,00
2241,63	2613,00
2246,32	2409,00
2251,00	2464,00
2255,68	2554,00
2260,36	2520,00
2265,03	2539,00
2269,70	2568,00
2274,36	2481,00
2279,02	2508,00
2283,68	2481,00
2288,33	2425,00
2292,97	2569,00
2297,61	2560,00
2302,25	2489,00
2306,88	2284,00
2311,51	2321,00
2316,14	2520,00
2320,75	2423,00
2325,37	2322,00
2329,98	2512,00
2334,59	2323,00
2339,19	2486,00
2343,79	2271,00
2348,38	2382,00
2352,97	2374,00
2357,55	2464,00
2362,13	2399,00
2366,71	2248,00
2371,28	2384,00
2375,85	2434,00
2380,41	2456,00
2384,97	2349,00
2389,52	2421,00
2394,07	2300,00
2398,62	2354,00
2403,16	2326,00
2407,70	2215,00
2412,23	2338,00
2416,76	2342,00
2421,29	2350,00
2425,81	2322,00
2430,32	2326,00
2434,84	2140,00
2439,34	2384,00
2443,85	2388,00
2448,35	2182,00
2452,84	2063,00
2457,33	2162,00
2461,82	2075,00
2466,30	2084,00
2470,78	2290,00
2475,25	2160,00
2479,72	2200,00
2484,19	2203,00
2488,65	2219,00
2493,11	2046,00
2497,56	2213,00
2502,01	2034,00
2506,46	2287,00
2510,90	2203,00
2515,34	2220,00
2519,77	2212,00
2524,20	1988,00
2528,62	2072,00
2533,04	2182,00
2537,46	2046,00
2541,87	1960,00
2546,28	2043,00
2550,68	2137,00
2555,08	2010,00
2559,48	2113,00
2563,87	2008,00
2568,26	2091,00
2572,64	2118,00
2577,02	2072,00
2581,40	1868,00
2585,77	1990,00
2590,14	1960,00
2594,50	1840,00
2598,86	2003,00
2603,22	1962,00
2607,57	2053,00
2611,92	2074,00
2616,26	1952,00
2620,60	2126,00
2624,94	1819,00
2629,27	2075,00
2633,60	1830,00
2637,92	2129,00
2642,24	2039,00
2646,56	1925,00
2650,87	1967,00
2655,18	2078,00
2659,48	1876,00
2663,78	1946,00
2668,08	1870,00
2672,37	1946,00
2676,66	1967,00
2680,95	2003,00
2685,23	1888,00
2689,50	1896,00
2693,78	1853,00
2698,05	1912,00
2702,31	2025,00
2706,57	1922,00
2710,83	2122,00
2715,08	1914,00
2719,33	2112,00
2723,58	2019,00
2727,82	2058,00
2732,06	1951,00
2736,29	1935,00
2740,53	2081,00
2744,75	1898,00
2748,97	2101,00
2753,19	2056,00
2757,41	1933,00
2761,62	2040,00
2765,83	2112,00
2770,03	1849,00
2774,23	1826,00
2778,43	1831,00
2782,62	2003,00
2786,81	1834,00
2791,00	1911,00
2795,18	2071,00
2799,35	1928,00
2803,53	2113,00
2807,70	2030,00
2811,86	1887,00
2816,03	2205,00
2820,19	2032,00
2824,34	2028,00
2828,49	2036,00
2832,64	2267,00
2836,78	2331,00
2840,92	2478,00
2845,06	2815,00
2849,19	2882,00
2853,32	2963,00
2857,45	2888,00
2861,57	2801,00
2865,69	2860,00
2869,80	2696,00
2873,91	2780,00
2878,02	2977,00
2882,12	3167,00
2886,22	2932,00
2890,32	3036,00
2894,41	2820,00
2898,50	2632,00
2902,58	2610,00
2906,67	2784,00
2910,74	2470,00
2914,82	2381,00
2918,89	2463,00
2922,96	2227,00
2927,02	2222,00
2931,08	1981,00
2935,13	1910,00
2939,19	2200,00
2943,24	2025,00
2947,28	2019,00
2951,32	1767,00
2955,36	1683,00
2959,40	1877,00
2963,43	1879,00
2967,46	1692,00
2971,48	1655,00
2975,50	1772,00
2979,52	1721,00
2983,53	1781,00
2987,54	1692,00
2991,55	1787,00
2995,55	1630,00
2999,55	1576,00
3003,54	1562,00
3007,54	1699,00
3011,53	1546,00
3015,51	1624,00
3019,49	1655,00
3023,47	1512,00
3027,45	1558,00
3031,42	1469,00
3035,39	1528,00
3039,35	1596,00
3043,31	1596,00
3047,27	1571,00
3051,22	1601,00
3055,17	1421,00
3059,12	1404,00
3063,06	1553,00
3067,00	1339,00
3070,94	1440,00
3074,87	1473,00
3078,80	1497,00
3082,73	1528,00
3086,65	1518,00
3090,57	1413,00
3094,49	1397,00
3098,40	1437,00
3102,31	1377,00
3106,22	1466,00
3110,12	1503,00
3114,02	1532,00
3117,92	1498,00
3121,81	1318,00
3125,70	1374,00
3129,58	1393,00
3133,47	1403,00
3137,34	1411,00
3141,22	1421,00
3145,09	1579,00
3148,96	1372,00
3152,83	1339,00
3156,69	1469,00
3160,55	1369,00
3164,40	1446,00
3168,26	1274,00
3172,10	1464,00
3175,95	1396,00
3179,79	1422,00
3183,63	1359,00
3187,47	1311,00
3191,30	1243,00
3195,13	1364,00
3198,95	1196,00
3202,78	1432,00
3206,60	1270,00
3210,41	1276,00
3214,23	1228,00
3218,03	1372,00
3221,84	1274,00
3225,64	1238,00
3229,44	1262,00
3233,24	1361,00
3237,03	1353,00
3240,82	1286,00
3244,61	1334,00
3248,39	1202,00
3252,17	1361,00
3255,95	1403,00
3259,72	1424,00
3263,49	1532,00
3267,26	1198,00
3271,03	1220,00
3274,79	1271,00
3278,54	1264,00
3282,30	1230,00
3286,05	1277,00
3289,80	1319,00
3293,54	1304,00
3297,29	1307,00
3301,02	1209,00
3304,76	1234,00
3308,49	1333,00
3312,22	1209,00
3315,95	1232,00
3319,67	1237,00
3323,39	1314,00
3327,10	1356,00
3330,82	1199,00
3334,53	1232,00
3338,24	1180,00
3341,94	1245,00
3345,64	1161,00
3349,34	1220,00
3353,03	1298,00
3356,72	1264,00
3360,41	1381,00
3364,10	1304,00
3367,78	1188,00
3371,46	1285,00
3375,13	1293,00
3378,81	1232,00
3382,48	1190,00
3386,14	1340,00
3389,81	1250,00
3393,47	1193,00
3397,12	1365,00
3400,78	1234,00
3404,43	1240,00
3408,08	1222,00
3411,72	1179,00
3415,36	1154,00
3419,00	1137,00
3422,64	1174,00
3426,27	1173,00
3429,90	1170,00
3433,53	1292,00
3437,15	1171,00
3440,77	1030,00
3444,39	1210,00
3448,00	1164,00
3451,62	1161,00
3455,22	1152,00
3458,83	1095,00
3462,43	1204,00
3466,03	1304,00
3469,63	1187,00
3473,22	1168,00
3476,81	1199,00
3480,40	1182,00
3483,99	1198,00
3487,57	1234,00
3491,15	1133,00
3494,72	1186,00
3498,29	1114,00
3501,86	1148,00
3505,43	1255,00
3508,99	1164,00
3512,56	1052,00
3516,11	1164,00
3519,67	1138,00
3523,22	1335,00
3526,77	1234,00
3530,32	1232,00
3533,86	1274,00
3537,40	1234,00
3540,94	1255,00
3544,47	1180,00
3548,00	1069,00
3551,53	1167,00
3555,06	1088,00
3558,58	1237,00
3562,10	1171,00
3565,62	1158,00
3569,13	1110,00
3572,64	1161,00
3576,15	1026,00
3579,66	1062,00
3583,16	1190,00
3586,66	1023,00
3590,16	1126,00
3593,65	1022,00
3597,14	1104,00
3600,63	1095,00
3604,11	1260,00
3607,60	1046,00
3611,08	1185,00
3614,55	1036,00
3618,03	1003,00
3621,50	1075,00
3624,97	1077,00
3628,43	1264,00
3631,90	1166,00
3635,36	1080,00
3638,81	1107,00
3642,27	1201,00
3645,72	1205,00
3649,17	1197,00
3652,61	1055,00
3656,06	1009,00
3659,50	920,00
3662,93	1085,00
3666,37	1052,00
3669,80	1257,00
3673,23	1076,00
3676,65	1170,00
3680,08	1220,00
3683,50	1015,00
3686,92	1143,00
3690,33	1025,00
3693,74	1048,00
3697,15	917,00
3700,56	995,00
3703,96	1077,00
3707,36	972,00
3710,76	921,00
3714,16	1018,00
3717,55	986,00
3720,94	1108,00
3724,33	986,00
3727,71	1119,00
3731,10	962,00
3734,48	953,00
3737,85	899,00
3741,23	939,00
3744,60	1018,00
3747,97	937,00
3751,33	954,00
3754,69	1014,00
3758,05	966,00
3761,41	942,00
3764,77	887,00
3768,12	807,00
3771,47	956,00
3774,82	998,00
3778,16	-16,00
3781,50	14,00
3784,84	9,00
3788,18	13,00
>>>>>End Processed Spectral Data<<<<<
