SpectraSuite Data File
++++++++++++++++++++++++++++++++++++
Date: Mon Mar 09 14:50:08 ICT 2026
User: Administrator
Dark Spectrum Present: Yes
Reference Spectrum Present: No
Number of Sampled Component Spectra: 1
Spectrometers: MAYP113682
Integration Time (usec): 3000000 (MAYP113682)
Spectra Averaged: 1 (MAYP113682)
Boxcar Smoothing: 0 (MAYP113682)
Correct for Electrical Dark: No (MAYP113682)
Strobe/Lamp Enabled: No (MAYP113682)
Correct for Detector Non-linearity: No (MAYP113682)
Correct for Stray Light: No (MAYP113682)
Number of Pixels in Processed Spectrum: 2068
>>>>>Begin Processed Spectral Data<<<<<
-37534,58	40,00
-37414,56	5,00
-37295,11	8,00
-37176,24	10,00
-37057,95	780,00
-36940,22	808,00
-36823,05	853,00
-36706,45	954,00
-36590,40	832,00
-36474,90	888,00
-36359,95	935,00
-36245,55	882,00
-36131,68	953,00
-36018,35	954,00
-35905,55	910,00
-35793,29	937,00
-35681,54	994,00
-35570,32	842,00
-35459,62	918,00
-35349,43	950,00
-35239,75	928,00
-35130,58	860,00
-35021,91	994,00
-34913,74	976,00
-34806,07	937,00
-34698,89	1070,00
-34592,20	954,00
-34486,00	1013,00
-34380,28	866,00
-34275,04	909,00
-34170,27	894,00
-34065,98	905,00
-33962,16	991,00
-33858,81	833,00
-33755,92	916,00
-33653,49	1123,00
-33551,52	1079,00
-33450,01	889,00
-33348,94	957,00
-33248,33	1030,00
-33148,16	970,00
-33048,43	983,00
-32949,14	1103,00
-32850,29	1065,00
-32751,87	896,00
-32653,89	982,00
-32556,33	1121,00
-32459,20	1065,00
-32362,49	982,00
-32266,19	1024,00
-32170,32	991,00
-32074,86	1005,00
-31979,82	1096,00
-31885,18	1132,00
-31790,95	1113,00
-31697,12	997,00
-31603,69	1181,00
-31510,67	1077,00
-31418,04	1019,00
-31325,80	1061,00
-31233,95	1003,00
-31142,49	1033,00
-31051,42	1068,00
-30960,73	1147,00
-30870,43	1143,00
-30780,50	1065,00
-30690,95	1025,00
-30601,77	1195,00
-30512,97	974,00
-30424,53	1083,00
-30336,46	1045,00
-30248,76	1079,00
-30161,42	1042,00
-30074,44	983,00
-29987,81	1132,00
-29901,55	1195,00
-29815,63	978,00
-29730,07	1061,00
-29644,86	1068,00
-29560,00	1078,00
-29475,48	971,00
-29391,30	1064,00
-29307,47	934,00
-29223,97	982,00
-29140,81	1000,00
-29057,99	1150,00
-28975,50	979,00
-28893,34	1159,00
-28811,51	958,00
-28730,00	992,00
-28648,82	1019,00
-28567,97	1132,00
-28487,43	1048,00
-28407,21	1012,00
-28327,32	966,00
-28247,73	1183,00
-28168,46	937,00
-28089,50	1073,00
-28010,85	911,00
-27932,51	885,00
-27854,48	1168,00
-27776,75	960,00
-27699,32	1018,00
-27622,19	1093,00
-27545,37	1151,00
-27468,84	1079,00
-27392,60	1168,00
-27316,66	996,00
-27241,01	1076,00
-27165,66	1097,00
-27090,59	971,00
-27015,81	1042,00
-26941,31	1175,00
-26867,10	1094,00
-26793,17	1113,00
-26719,52	1131,00
-26646,15	1022,00
-26573,06	1134,00
-26500,24	975,00
-26427,70	943,00
-26355,43	1097,00
-26283,43	1072,00
-26211,71	1127,00
-26140,25	1031,00
-26069,06	1386,00
-25998,13	902,00
-25927,46	975,00
-25857,06	1149,00
-25786,92	994,00
-25717,04	959,00
-25647,42	1009,00
-25578,05	1004,00
-25508,94	1008,00
-25440,09	973,00
-25371,48	957,00
-25303,13	1003,00
-25235,02	1072,00
-25167,17	1106,00
-25099,56	1112,00
-25032,19	972,00
-24965,07	1024,00
-24898,20	919,00
-24831,56	1167,00
-24765,17	957,00
-24699,01	1028,00
-24633,10	1058,00
-24567,41	970,00
-24501,97	1088,00
-24436,75	991,00
-24371,77	1022,00
-24307,03	1052,00
-24242,51	987,00
-24178,22	1178,00
-24114,16	935,00
-24050,32	1067,00
-23986,71	1012,00
-23923,32	1044,00
-23860,16	926,00
-23797,22	991,00
-23734,50	968,00
-23672,00	940,00
-23609,71	935,00
-23547,65	868,00
-23485,80	1035,00
-23424,16	963,00
-23362,74	1165,00
-23301,53	1001,00
-23240,54	929,00
-23179,75	996,00
-23119,17	948,00
-23058,80	1066,00
-22998,64	1034,00
-22938,68	981,00
-22878,93	956,00
-22819,39	1008,00
-22760,04	938,00
-22700,90	1018,00
-22641,96	937,00
-22583,22	1010,00
-22524,68	1016,00
-22466,33	939,00
-22408,19	1080,00
-22350,23	1065,00
-22292,48	1037,00
-22234,92	1032,00
-22177,55	1100,00
-22120,37	1150,00
-22063,38	985,00
-22006,58	947,00
-21949,98	934,00
-21893,56	758,00
-21837,33	977,00
-21781,28	998,00
-21725,42	988,00
-21669,74	1066,00
-21614,25	997,00
-21558,94	968,00
-21503,81	1039,00
-21448,86	1108,00
-21394,10	1009,00
-21339,51	963,00
-21285,10	948,00
-21230,86	897,00
-21176,81	906,00
-21122,93	917,00
-21069,22	1057,00
-21015,69	955,00
-20962,33	1072,00
-20909,14	974,00
-20856,13	944,00
-20803,28	963,00
-20750,61	940,00
-20698,10	951,00
-20645,76	1014,00
-20593,59	1097,00
-20541,59	1019,00
-20489,75	1072,00
-20438,07	974,00
-20386,56	1071,00
-20335,22	975,00
-20284,03	885,00
-20233,01	946,00
-20182,15	884,00
-20131,45	962,00
-20080,91	870,00
-20030,52	898,00
-19980,30	934,00
-19930,23	917,00
-19880,32	1059,00
-19830,56	1073,00
-19780,96	923,00
-19731,52	1035,00
-19682,23	1063,00
-19633,09	975,00
-19584,10	947,00
-19535,26	978,00
-19486,58	1085,00
-19438,04	989,00
-19389,66	964,00
-19341,42	959,00
-19293,33	964,00
-19245,39	920,00
-19197,60	982,00
-19149,95	1001,00
-19102,45	1041,00
-19055,09	932,00
-19007,87	1104,00
-18960,80	1088,00
-18913,87	1050,00
-18867,09	1066,00
-18820,44	1055,00
-18773,94	968,00
-18727,57	915,00
-18681,35	932,00
-18635,26	1074,00
-18589,31	884,00
-18543,50	923,00
-18497,83	1097,00
-18452,29	1060,00
-18406,89	919,00
-18361,63	1116,00
-18316,50	952,00
-18271,50	997,00
-18226,63	958,00
-18181,90	1043,00
-18137,30	1096,00
-18092,84	934,00
-18048,50	1116,00
-18004,29	921,00
-17960,22	960,00
-17916,27	962,00
-17872,45	1021,00
-17828,76	1008,00
-17785,20	1198,00
-17741,77	953,00
-17698,46	960,00
-17655,28	904,00
-17612,22	977,00
-17569,29	933,00
-17526,48	1039,00
-17483,79	934,00
-17441,23	985,00
-17398,79	996,00
-17356,48	1022,00
-17314,28	1280,00
-17272,21	923,00
-17230,26	925,00
-17188,42	1049,00
-17146,71	1025,00
-17105,12	1083,00
-17063,64	1010,00
-17022,28	988,00
-16981,04	975,00
-16939,92	946,00
-16898,91	1215,00
-16858,02	1081,00
-16817,25	888,00
-16776,59	910,00
-16736,04	1051,00
-16695,61	958,00
-16655,29	927,00
-16615,09	1092,00
-16574,99	938,00
-16535,01	946,00
-16495,15	997,00
-16455,39	952,00
-16415,74	1042,00
-16376,21	880,00
-16336,78	928,00
-16297,46	914,00
-16258,26	1064,00
-16219,16	994,00
-16180,17	963,00
-16141,28	1077,00
-16102,51	1006,00
-16063,84	1067,00
-16025,27	1079,00
-15986,82	900,00
-15948,46	916,00
-15910,22	974,00
-15872,07	984,00
-15834,04	955,00
-15796,10	1008,00
-15758,27	1138,00
-15720,54	1024,00
-15682,91	1000,00
-15645,39	1041,00
-15607,97	975,00
-15570,64	905,00
-15533,42	1035,00
-15496,30	882,00
-15459,28	961,00
-15422,36	959,00
-15385,54	928,00
-15348,82	1005,00
-15312,19	1120,00
-15275,66	928,00
-15239,23	1010,00
-15202,90	1014,00
-15166,67	811,00
-15130,53	1041,00
-15094,48	993,00
-15058,54	968,00
-15022,68	891,00
-14986,93	927,00
-14951,26	973,00
-14915,69	886,00
-14880,22	917,00
-14844,84	978,00
-14809,55	1044,00
-14774,35	1007,00
-14739,25	1194,00
-14704,24	980,00
-14669,32	1013,00
-14634,49	987,00
-14599,75	1018,00
-14565,10	843,00
-14530,55	1136,00
-14496,08	1124,00
-14461,70	1040,00
-14427,41	837,00
-14393,21	928,00
-14359,10	914,00
-14325,07	1092,00
-14291,14	1109,00
-14257,29	1054,00
-14223,52	982,00
-14189,85	1164,00
-14156,26	977,00
-14122,76	942,00
-14089,34	954,00
-14056,01	985,00
-14022,76	1024,00
-13989,60	1055,00
-13956,52	1026,00
-13923,53	996,00
-13890,62	968,00
-13857,79	914,00
-13825,05	1029,00
-13792,39	858,00
-13759,81	997,00
-13727,31	911,00
-13694,90	895,00
-13662,57	1034,00
-13630,31	1032,00
-13598,14	953,00
-13566,05	958,00
-13534,05	1113,00
-13502,12	850,00
-13470,27	940,00
-13438,50	1026,00
-13406,80	954,00
-13375,19	959,00
-13343,66	981,00
-13312,20	949,00
-13280,83	865,00
-13249,53	886,00
-13218,30	885,00
-13187,16	857,00
-13156,09	1096,00
-13125,10	1070,00
-13094,18	1080,00
-13063,34	1105,00
-13032,58	943,00
-13001,89	1053,00
-12971,28	933,00
-12940,74	918,00
-12910,27	1047,00
-12879,88	980,00
-12849,57	1141,00
-12819,33	1040,00
-12789,16	999,00
-12759,06	1015,00
-12729,04	1090,00
-12699,09	2267,00
-12669,21	976,00
-12639,41	998,00
-12609,68	982,00
-12580,02	1009,00
-12550,43	1123,00
-12520,91	926,00
-12491,46	952,00
-12462,08	917,00
-12432,77	981,00
-12403,54	1001,00
-12374,37	984,00
-12345,27	1077,00
-12316,24	1004,00
-12287,29	1090,00
-12258,40	998,00
-12229,57	1035,00
-12200,82	1083,00
-12172,14	1009,00
-12143,52	826,00
-12114,97	894,00
-12086,49	1010,00
-12058,07	992,00
-12029,73	983,00
-12001,44	1130,00
-11973,23	965,00
-11945,08	1081,00
-11917,00	1044,00
-11888,98	945,00
-11861,03	960,00
-11833,15	1011,00
-11805,32	995,00
-11777,57	966,00
-11749,88	974,00
-11722,25	969,00
-11694,69	928,00
-11667,19	995,00
-11639,75	1068,00
-11612,38	968,00
-11585,07	1070,00
-11557,83	992,00
-11530,65	1119,00
-11503,53	1051,00
-11476,47	1086,00
-11449,48	979,00
-11422,54	1079,00
-11395,67	949,00
-11368,86	1080,00
-11342,11	960,00
-11315,43	977,00
-11288,80	882,00
-11262,23	1039,00
-11235,73	951,00
-11209,28	1080,00
-11182,90	1069,00
-11156,57	1104,00
-11130,31	1033,00
-11104,10	1046,00
-11077,96	996,00
-11051,87	1053,00
-11025,84	1057,00
-10999,87	1016,00
-10973,96	1086,00
-10948,11	1027,00
-10922,31	908,00
-10896,58	1108,00
-10870,90	1268,00
-10845,28	996,00
-10819,71	917,00
-10794,20	1022,00
-10768,75	1128,00
-10743,36	1036,00
-10718,02	936,00
-10692,74	985,00
-10667,52	871,00
-10642,35	1059,00
-10617,24	1081,00
-10592,18	1066,00
-10567,18	1018,00
-10542,23	1019,00
-10517,34	1078,00
-10492,51	1034,00
-10467,72	932,00
-10443,00	991,00
-10418,32	1090,00
-10393,70	995,00
-10369,14	898,00
-10344,63	981,00
-10320,17	1101,00
-10295,77	1008,00
-10271,42	1062,00
-10247,12	1044,00
-10222,88	1135,00
-10198,68	924,00
-10174,54	1047,00
-10150,46	1101,00
-10126,42	1171,00
-10102,44	1061,00
-10078,51	1067,00
-10054,63	1076,00
-10030,80	1023,00
-10007,03	1175,00
-9983,30	999,00
-9959,63	1103,00
-9936,01	1121,00
-9912,44	1131,00
-9888,92	1077,00
-9865,44	975,00
-9842,02	1215,00
-9818,65	1068,00
-9795,33	1096,00
-9772,06	1115,00
-9748,84	1071,00
-9725,67	1121,00
-9702,55	1020,00
-9679,47	1282,00
-9656,45	1244,00
-9633,47	1121,00
-9610,55	1221,00
-9587,67	1269,00
-9564,84	1468,00
-9542,06	1295,00
-9519,32	1427,00
-9496,64	1430,00
-9474,00	1198,00
-9451,41	1168,00
-9428,87	1473,00
-9406,37	1397,00
-9383,92	1330,00
-9361,52	1383,00
-9339,17	1483,00
-9316,86	1415,00
-9294,60	1452,00
-9272,38	1668,00
-9250,21	1605,00
-9228,09	1605,00
-9206,01	1553,00
-9183,98	1505,00
-9162,00	1506,00
-9140,06	1539,00
-9118,16	1366,00
-9096,31	1535,00
-9074,51	1526,00
-9052,75	1734,00
-9031,04	1693,00
-9009,37	1367,00
-8987,74	1477,00
-8966,16	1432,00
-8944,63	1364,00
-8923,14	1291,00
-8901,69	1358,00
-8880,29	1337,00
-8858,93	1394,00
-8837,61	1518,00
-8816,34	1576,00
-8795,11	1412,00
-8773,92	1449,00
-8752,78	1502,00
-8731,68	1350,00
-8710,62	1372,00
-8689,61	1264,00
-8668,63	1284,00
-8647,70	1511,00
-8626,82	1446,00
-8605,97	1504,00
-8585,17	1355,00
-8564,41	1206,00
-8543,69	1325,00
-8523,01	1233,00
-8502,37	1543,00
-8481,78	1334,00
-8461,23	1180,00
-8440,71	1313,00
-8420,24	1446,00
-8399,81	1436,00
-8379,42	1481,00
-8359,08	1475,00
-8338,77	1339,00
-8318,50	1459,00
-8298,27	1256,00
-8278,09	1372,00
-8257,94	1247,00
-8237,83	1499,00
-8217,76	1450,00
-8197,74	1349,00
-8177,75	1436,00
-8157,80	1363,00
-8137,89	1439,00
-8118,02	1312,00
-8098,19	1419,00
-8078,40	1265,00
-8058,65	1264,00
-8038,93	1454,00
-8019,26	1387,00
-7999,62	1375,00
-7980,02	1322,00
-7960,46	1382,00
-7940,94	1256,00
-7921,46	1292,00
-7902,01	1142,00
-7882,60	1376,00
-7863,23	1313,00
-7843,90	1304,00
-7824,61	1208,00
-7805,35	1335,00
-7786,13	1289,00
-7766,95	1235,00
-7747,80	1284,00
-7728,69	1395,00
-7709,62	1341,00
-7690,59	1364,00
-7671,59	1310,00
-7652,63	1315,00
-7633,70	1297,00
-7614,81	1440,00
-7595,96	1223,00
-7577,15	1209,00
-7558,37	1235,00
-7539,62	1242,00
-7520,91	1190,00
-7502,24	1409,00
-7483,60	1311,00
-7465,00	1325,00
-7446,44	1203,00
-7427,91	1108,00
-7409,41	1265,00
-7390,95	1218,00
-7372,53	1040,00
-7354,14	1202,00
-7335,78	1108,00
-7317,46	1226,00
-7299,18	1213,00
-7280,92	1254,00
-7262,71	1408,00
-7244,52	1188,00
-7226,38	1234,00
-7208,26	1303,00
-7190,18	1280,00
-7172,14	1248,00
-7154,12	1280,00
-7136,15	1197,00
-7118,20	1267,00
-7100,29	1374,00
-7082,41	1425,00
-7064,57	1316,00
-7046,76	1295,00
-7028,98	1124,00
-7011,24	1446,00
-6993,53	951,00
-6975,85	1076,00
-6958,20	1035,00
-6940,59	1137,00
-6923,01	999,00
-6905,46	1256,00
-6887,94	1178,00
-6870,46	-855,00
-6853,01	1328,00
-6835,59	1248,00
-6818,21	1094,00
-6800,85	1272,00
-6783,53	1083,00
-6766,24	1006,00
-6748,98	1088,00
-6731,76	954,00
-6714,56	1070,00
-6697,40	953,00
-6680,26	949,00
-6663,16	1032,00
-6646,09	1216,00
-6629,05	1179,00
-6612,05	1237,00
-6595,07	1120,00
-6578,13	1184,00
-6561,21	1130,00
-6544,33	1065,00
-6527,47	1087,00
-6510,65	1077,00
-6493,86	1068,00
-6477,10	916,00
-6460,36	1004,00
-6443,66	936,00
-6426,99	1027,00
-6410,35	953,00
-6393,74	1124,00
-6377,16	1073,00
-6360,61	1089,00
-6344,09	914,00
-6327,59	993,00
-6311,13	894,00
-6294,70	1157,00
-6278,29	1248,00
-6261,92	1137,00
-6245,58	1194,00
-6229,26	1188,00
-6212,97	1149,00
-6196,72	1118,00
-6180,49	1125,00
-6164,29	926,00
-6148,12	1073,00
-6131,98	1077,00
-6115,86	1069,00
-6099,78	932,00
-6083,72	933,00
-6067,69	935,00
-6051,69	1087,00
-6035,72	989,00
-6019,78	1048,00
-6003,87	1128,00
-5987,98	1060,00
-5972,12	1149,00
-5956,29	1127,00
-5940,49	1093,00
-5924,71	1166,00
-5908,96	939,00
-5893,24	1059,00
-5877,55	960,00
-5861,89	1119,00
-5846,25	1019,00
-5830,64	1030,00
-5815,05	923,00
-5799,50	1033,00
-5783,97	1071,00
-5768,47	1152,00
-5752,99	1249,00
-5737,55	1050,00
-5722,12	1071,00
-5706,73	1055,00
-5691,36	1095,00
-5676,02	904,00
-5660,71	1047,00
-5645,42	936,00
-5630,16	1016,00
-5614,92	1047,00
-5599,71	1020,00
-5584,53	1139,00
-5569,37	958,00
-5554,24	1976,00
-5539,14	1065,00
-5524,06	1022,00
-5509,01	1015,00
-5493,98	981,00
-5478,98	1107,00
-5464,00	1024,00
-5449,05	872,00
-5434,13	1067,00
-5419,23	1153,00
-5404,36	913,00
-5389,51	994,00
-5374,69	1028,00
-5359,89	1059,00
-5345,12	1168,00
-5330,37	1193,00
-5315,65	1208,00
-5300,95	1104,00
-5286,28	943,00
-5271,63	941,00
-5257,01	1004,00
-5242,41	1141,00
-5227,84	1012,00
-5213,29	1104,00
-5198,76	1044,00
-5184,26	958,00
-5169,79	1012,00
-5155,33	1013,00
-5140,91	1047,00
-5126,51	1039,00
-5112,13	1084,00
-5097,77	1178,00
-5083,44	1107,00
-5069,13	944,00
-5054,85	1058,00
-5040,59	903,00
-5026,36	1118,00
-5012,15	1156,00
-4997,96	1083,00
-4983,80	1036,00
-4969,66	1059,00
-4955,54	957,00
-4941,44	1000,00
-4927,37	1098,00
-4913,33	1114,00
-4899,30	965,00
-4885,30	1158,00
-4871,33	1084,00
-4857,37	1067,00
-4843,44	960,00
-4829,53	1084,00
-4815,65	1143,00
-4801,79	885,00
-4787,95	974,00
-4774,13	946,00
-4760,34	1037,00
-4746,56	1135,00
-4732,82	993,00
-4719,09	934,00
-4705,38	1136,00
-4691,70	1146,00
-4678,04	1066,00
-4664,41	1067,00
-4650,79	1199,00
-4637,20	1066,00
-4623,63	969,00
-4610,08	1081,00
-4596,56	1060,00
-4583,05	986,00
-4569,57	1001,00
-4556,11	1094,00
-4542,67	945,00
-4529,25	958,00
-4515,86	1154,00
-4502,49	1231,00
-4489,13	1034,00
-4475,80	1092,00
-4462,49	940,00
-4449,21	1167,00
-4435,94	948,00
-4422,70	1089,00
-4409,47	1025,00
-4396,27	1019,00
-4383,09	974,00
-4369,93	1019,00
-4356,79	1036,00
-4343,67	1060,00
-4330,58	1062,00
-4317,50	1024,00
-4304,45	918,00
-4291,41	966,00
-4278,40	1013,00
-4265,41	892,00
-4252,44	1003,00
-4239,49	931,00
-4226,55	979,00
-4213,65	1160,00
-4200,76	1117,00
-4187,89	972,00
-4175,04	935,00
-4162,21	1074,00
-4149,40	929,00
-4136,61	952,00
-4123,85	1035,00
-4111,10	1065,00
-4098,37	1098,00
-4085,66	1078,00
-4072,98	1035,00
-4060,31	867,00
-4047,66	1088,00
-4035,04	1113,00
-4022,43	1030,00
-4009,84	1171,00
-3997,27	864,00
-3984,72	1000,00
-3972,19	1085,00
-3959,69	933,00
-3947,20	989,00
-3934,73	1009,00
-3922,27	1009,00
-3909,84	1072,00
-3897,43	1018,00
-3885,04	1051,00
-3872,67	895,00
-3860,31	960,00
-3847,98	1053,00
-3835,66	985,00
-3823,36	1046,00
-3811,09	982,00
-3798,83	1049,00
-3786,59	1076,00
-3774,37	1118,00
-3762,17	874,00
-3749,98	1049,00
-3737,82	918,00
-3725,67	1301,00
-3713,55	924,00
-3701,44	1048,00
-3689,35	974,00
-3677,28	1096,00
-3665,22	984,00
-3653,19	924,00
-3641,17	967,00
-3629,18	1030,00
-3617,20	1031,00
-3605,24	954,00
-3593,30	1086,00
-3581,37	1027,00
-3569,47	1027,00
-3557,58	1002,00
-3545,71	1073,00
-3533,86	1080,00
-3522,02	993,00
-3510,21	1043,00
-3498,41	1026,00
-3486,63	944,00
-3474,87	1021,00
-3463,12	909,00
-3451,40	1011,00
-3439,69	1074,00
-3428,00	1015,00
-3416,33	1097,00
-3404,67	896,00
-3393,03	1090,00
-3381,41	1083,00
-3369,81	983,00
-3358,22	1008,00
-3346,66	1104,00
-3335,10	1044,00
-3323,57	974,00
-3312,06	1032,00
-3300,56	964,00
-3289,08	862,00
-3277,61	1080,00
-3266,16	1091,00
-3254,73	972,00
-3243,32	961,00
-3231,92	986,00
-3220,55	1035,00
-3209,18	1089,00
-3197,84	939,00
-3186,51	860,00
-3175,20	916,00
-3163,90	998,00
-3152,63	1027,00
-3141,36	1047,00
-3130,12	1052,00
-3118,89	1155,00
-3107,68	1075,00
-3096,49	1088,00
-3085,31	1042,00
-3074,15	900,00
-3063,00	1026,00
-3051,87	1111,00
-3040,76	1051,00
-3029,67	1020,00
-3018,59	1207,00
-3007,52	1108,00
-2996,48	1124,00
-2985,44	973,00
-2974,43	996,00
-2963,43	1008,00
-2952,45	831,00
-2941,48	1085,00
-2930,53	1103,00
-2919,60	908,00
-2908,68	943,00
-2897,78	1043,00
-2886,89	1085,00
-2876,02	981,00
-2865,17	938,00
-2854,33	959,00
-2843,50	1024,00
-2832,70	939,00
-2821,90	1033,00
-2811,13	926,00
-2800,37	966,00
-2789,62	1033,00
-2778,89	1085,00
-2768,18	1119,00
-2757,48	1032,00
-2746,80	1230,00
-2736,13	1022,00
-2725,48	1037,00
-2714,84	1008,00
-2704,22	1079,00
-2693,61	952,00
-2683,02	947,00
-2672,45	944,00
-2661,89	1143,00
-2651,34	976,00
-2640,81	999,00
-2630,30	1137,00
-2619,80	1062,00
-2609,31	1149,00
-2598,84	991,00
-2588,39	1060,00
-2577,95	1015,00
-2567,52	934,00
-2557,11	1030,00
-2546,71	1063,00
-2536,33	1105,00
-2525,97	953,00
-2515,62	979,00
-2505,28	1038,00
-2494,96	918,00
-2484,65	1050,00
-2474,36	1303,00
-2464,08	1017,00
-2453,82	1120,00
-2443,57	1076,00
-2433,33	959,00
-2423,11	1007,00
-2412,91	996,00
-2402,72	925,00
-2392,54	1055,00
-2382,38	948,00
-2372,23	1074,00
-2362,09	5589,00
-2351,97	909,00
-2341,87	953,00
-2331,78	1021,00
-2321,70	1156,00
-2311,64	1036,00
-2301,59	942,00
-2291,55	929,00
-2281,53	1095,00
-2271,53	878,00
-2261,53	1131,00
-2251,55	958,00
-2241,59	1055,00
-2231,64	1074,00
-2221,70	999,00
-2211,78	1023,00
-2201,87	1037,00
-2191,97	1082,00
-2182,09	991,00
-2172,22	1050,00
-2162,37	929,00
-2152,53	864,00
-2142,70	884,00
-2132,89	874,00
-2123,09	1103,00
-2113,30	1056,00
-2103,53	946,00
-2093,77	965,00
-2084,02	922,00
-2074,29	1150,00
-2064,57	1074,00
-2054,86	1109,00
-2045,17	1075,00
-2035,49	1152,00
-2025,82	996,00
-2016,17	1029,00
-2006,53	1022,00
-1996,91	974,00
-1987,29	912,00
-1977,69	1010,00
-1968,11	1072,00
-1958,53	945,00
-1948,97	1125,00
-1939,42	975,00
-1929,89	909,00
-1920,37	1003,00
-1910,86	1089,00
-1901,36	1130,00
-1891,88	965,00
-1882,41	1017,00
-1872,95	1049,00
-1863,51	1057,00
-1854,08	1064,00
-1844,66	1085,00
-1835,26	938,00
-1825,86	1045,00
-1816,48	1001,00
-1807,11	1097,00
-1797,76	1059,00
-1788,42	1047,00
-1779,09	1171,00
-1769,77	945,00
-1760,47	1289,00
-1751,17	988,00
-1741,89	996,00
-1732,63	1078,00
-1723,37	1286,00
-1714,13	1155,00
-1704,90	895,00
-1695,68	1172,00
-1686,48	942,00
-1677,29	1022,00
-1668,11	1258,00
-1658,94	1089,00
-1649,78	1047,00
-1640,64	1055,00
-1631,51	1016,00
-1622,39	1121,00
-1613,28	1004,00
-1604,19	1172,00
-1595,10	1073,00
-1586,03	980,00
-1576,97	1045,00
-1567,93	960,00
-1558,89	1059,00
-1549,87	1025,00
-1540,86	986,00
-1531,86	1024,00
-1522,87	978,00
-1513,90	1065,00
-1504,93	1077,00
-1495,98	1036,00
-1487,04	1165,00
-1478,12	1102,00
-1469,20	1023,00
-1460,30	1083,00
-1451,40	1148,00
-1442,52	1016,00
-1433,65	1163,00
-1424,80	1006,00
-1415,95	991,00
-1407,12	1270,00
-1398,30	1086,00
-1389,48	998,00
-1380,69	1030,00
-1371,90	1082,00
-1363,12	1086,00
-1354,36	1237,00
-1345,60	966,00
-1336,86	1016,00
-1328,13	1240,00
-1319,41	1007,00
-1310,70	1007,00
-1302,01	942,00
-1293,32	1004,00
-1284,65	1027,00
-1275,99	1052,00
-1267,33	1122,00
-1258,69	1018,00
-1250,06	1068,00
-1241,45	981,00
-1232,84	1106,00
-1224,25	1082,00
-1215,66	1121,00
-1207,09	1092,00
-1198,53	1034,00
-1189,97	1007,00
-1181,43	1022,00
-1172,91	1105,00
-1164,39	1209,00
-1155,88	965,00
-1147,38	843,00
-1138,90	1027,00
-1130,43	1053,00
-1121,96	1008,00
-1113,51	1010,00
-1105,07	1028,00
-1096,64	1110,00
-1088,22	1067,00
-1079,81	1037,00
-1071,41	1174,00
-1063,02	978,00
-1054,65	1083,00
-1046,28	1012,00
-1037,92	969,00
-1029,58	1064,00
-1021,24	969,00
-1012,92	1445,00
-1004,61	1008,00
-996,30	1354,00
-988,01	936,00
-979,73	1103,00
-971,46	1106,00
-963,20	943,00
-954,95	825,00
-946,71	949,00
-938,48	949,00
-930,26	1099,00
-922,06	1062,00
-913,86	1083,00
-905,67	996,00
-897,49	1014,00
-889,33	902,00
-881,17	1137,00
-873,02	1063,00
-864,89	909,00
-856,76	1000,00
-848,65	999,00
-840,54	1048,00
-832,45	1164,00
-824,36	813,00
-816,29	1050,00
-808,22	1074,00
-800,17	1099,00
-792,12	1061,00
-784,09	1202,00
-776,06	977,00
-768,05	1056,00
-760,04	987,00
-752,05	992,00
-744,07	1165,00
-736,09	1107,00
-728,13	939,00
-720,17	1026,00
-712,23	956,00
-704,29	1110,00
-696,37	1019,00
-688,45	971,00
-680,55	993,00
-672,65	969,00
-664,77	946,00
-656,89	1044,00
-649,03	979,00
-641,17	1081,00
-633,32	1139,00
-625,49	1087,00
-617,66	1007,00
-609,84	1049,00
-602,03	929,00
-594,23	985,00
-586,45	1011,00
-578,67	1018,00
-570,90	934,00
-563,14	995,00
-555,39	1045,00
-547,65	1102,00
-539,91	1051,00
-532,19	1004,00
-524,48	1078,00
-516,78	1061,00
-509,08	1100,00
-501,40	1006,00
-493,72	938,00
-486,06	971,00
-478,40	1278,00
-470,76	947,00
-463,12	936,00
-455,49	959,00
-447,87	998,00
-440,26	921,00
-432,66	1005,00
-425,07	1001,00
-417,49	1051,00
-409,92	939,00
-402,35	883,00
-394,80	968,00
-387,25	1115,00
-379,72	1112,00
-372,19	1002,00
-364,67	1085,00
-357,17	994,00
-349,67	1007,00
-342,18	955,00
-334,69	1016,00
-327,22	1036,00
-319,76	984,00
-312,30	1092,00
-304,86	1143,00
-297,42	1056,00
-290,00	982,00
-282,58	982,00
-275,17	1038,00
-267,77	1139,00
-260,37	1005,00
-252,99	1075,00
-245,62	1061,00
-238,25	1017,00
-230,90	905,00
-223,55	1138,00
-216,21	1074,00
-208,88	1184,00
-201,56	1073,00
-194,25	1047,00
-186,94	1041,00
-179,65	1085,00
-172,36	1104,00
-165,08	1018,00
-157,81	1267,00
-150,55	1146,00
-143,30	1252,00
-136,06	1270,00
-128,82	1235,00
-121,60	1212,00
-114,38	1332,00
-107,17	1376,00
-99,97	1468,00
-92,78	1393,00
-85,60	1522,00
-78,42	1625,00
-71,25	1700,00
-64,10	1770,00
-56,95	1806,00
-49,81	1981,00
-42,67	2508,00
-35,55	2633,00
-28,43	3350,00
-21,33	4888,00
-14,23	13883,00
-7,14	57775,00
-0,05	57564,00
7,02	57281,00
14,09	45953,00
21,14	12698,00
28,19	5811,00
35,23	4019,00
42,27	3377,00
49,29	2908,00
56,31	2555,00
63,32	2407,00
70,32	2051,00
77,31	1780,00
84,29	1709,00
91,27	1779,00
98,23	1740,00
105,19	1562,00
112,14	1719,00
119,09	1941,00
126,02	2505,00
132,95	2682,00
139,87	2752,00
146,78	2824,00
153,68	2724,00
160,58	2696,00
167,46	2557,00
174,34	2734,00
181,21	2762,00
188,08	2769,00
194,93	2732,00
201,78	2637,00
208,62	2648,00
215,45	2662,00
222,27	2736,00
229,09	2920,00
235,90	2555,00
242,70	2710,00
249,49	2968,00
256,27	2595,00
263,05	2687,00
269,82	2613,00
276,58	2688,00
283,33	2637,00
290,08	2719,00
296,82	2566,00
303,55	2511,00
310,27	2445,00
316,98	2602,00
323,69	2499,00
330,39	2511,00
337,08	2708,00
343,76	2602,00
350,44	2625,00
357,11	2716,00
363,77	2464,00
370,42	2489,00
377,07	2587,00
383,71	2599,00
390,34	2551,00
396,96	2570,00
403,58	2435,00
410,19	2756,00
416,79	2727,00
423,38	2675,00
429,97	2612,00
436,55	2373,00
443,12	2559,00
449,68	2436,00
456,24	2543,00
462,79	2534,00
469,33	2530,00
475,86	2506,00
482,39	2431,00
488,91	2550,00
495,42	2436,00
501,93	2491,00
508,42	2353,00
514,91	2612,00
521,40	2416,00
527,87	2469,00
534,34	2304,00
540,80	2569,00
547,25	2485,00
553,70	2499,00
560,14	2523,00
566,57	2534,00
573,00	2445,00
579,41	2547,00
585,83	2491,00
592,23	2491,00
598,62	2438,00
605,01	2324,00
611,40	2463,00
617,77	2526,00
624,14	2492,00
630,50	2551,00
636,85	2452,00
643,20	2435,00
649,54	2424,00
655,87	2414,00
662,20	2540,00
668,52	2474,00
674,83	2547,00
681,13	2457,00
687,43	2539,00
693,72	2441,00
700,00	2255,00
706,28	2412,00
712,55	2445,00
718,81	2501,00
725,07	2409,00
731,32	2438,00
737,56	2561,00
743,79	2524,00
750,02	2476,00
756,24	2376,00
762,46	2347,00
768,67	2780,00
774,87	2481,00
781,06	2499,00
787,25	2495,00
793,43	2501,00
799,60	2299,00
805,77	2573,00
811,93	2418,00
818,08	2410,00
824,23	2433,00
830,37	2793,00
836,50	2419,00
842,63	2473,00
848,75	2397,00
854,87	2604,00
860,97	2410,00
867,07	2558,00
873,17	2460,00
879,25	2517,00
885,33	2442,00
891,41	2505,00
897,47	2436,00
903,53	2501,00
909,59	2585,00
915,63	2499,00
921,67	2487,00
927,71	2564,00
933,74	2544,00
939,76	2328,00
945,77	2420,00
951,78	2466,00
957,78	2443,00
963,78	2632,00
969,77	2481,00
975,75	2488,00
981,72	2515,00
987,69	4025,00
993,66	2592,00
999,61	2487,00
1005,56	2639,00
1011,51	2427,00
1017,44	2399,00
1023,37	2548,00
1029,30	2546,00
1035,22	2616,00
1041,13	2477,00
1047,03	2505,00
1052,93	2546,00
1058,83	2882,00
1064,71	2996,00
1070,59	2769,00
1076,47	2669,00
1082,33	2630,00
1088,20	2620,00
1094,05	2628,00
1099,90	2556,00
1105,74	2600,00
1111,58	2542,00
1117,41	2666,00
1123,23	2772,00
1129,05	3065,00
1134,86	3026,00
1140,67	2821,00
1146,47	2707,00
1152,26	2688,00
1158,05	2438,00
1163,83	2679,00
1169,60	2651,00
1175,37	2713,00
1181,13	2714,00
1186,89	2547,00
1192,64	2619,00
1198,38	2684,00
1204,12	2639,00
1209,85	2628,00
1215,58	2536,00
1221,30	2732,00
1227,02	2559,00
1232,72	2668,00
1238,43	2484,00
1244,12	2703,00
1249,81	2611,00
1255,50	2748,00
1261,17	2570,00
1266,85	2691,00
1272,51	2730,00
1278,17	2761,00
1283,83	2584,00
1289,47	2946,00
1295,12	3247,00
1300,75	3216,00
1306,38	2920,00
1312,01	2716,00
1317,63	2705,00
1323,24	2767,00
1328,85	2807,00
1334,45	2662,00
1340,04	2630,00
1345,63	2537,00
1351,22	2863,00
1356,80	2794,00
1362,37	2796,00
1367,93	2685,00
1373,49	2807,00
1379,05	2687,00
1384,60	2741,00
1390,14	2674,00
1395,68	2682,00
1401,21	2659,00
1406,74	2767,00
1412,26	2843,00
1417,77	2950,00
1423,28	2795,00
1428,78	2949,00
1434,28	3203,00
1439,77	3282,00
1445,26	3220,00
1450,74	3330,00
1456,22	3176,00
1461,68	3131,00
1467,15	2945,00
1472,61	2837,00
1478,06	2951,00
1483,51	2781,00
1488,95	2684,00
1494,38	2703,00
1499,81	2592,00
1505,24	2580,00
1510,65	2724,00
1516,07	2640,00
1521,48	2578,00
1526,88	2414,00
1532,27	2576,00
1537,67	2508,00
1543,05	2644,00
1548,43	2436,00
1553,81	2617,00
1559,18	2522,00
1564,54	2516,00
1569,90	2512,00
1575,25	2478,00
1580,60	2392,00
1585,94	2568,00
1591,28	2428,00
1596,61	2423,00
1601,93	2489,00
1607,25	2661,00
1612,57	2540,00
1617,88	2582,00
1623,18	2475,00
1628,48	2515,00
1633,77	2448,00
1639,06	2544,00
1644,34	2409,00
1649,62	2408,00
1654,89	2581,00
1660,16	2386,00
1665,42	2531,00
1670,67	2459,00
1675,92	2394,00
1681,17	2428,00
1686,41	2460,00
1691,64	2639,00
1696,87	2484,00
1702,10	2359,00
1707,32	2483,00
1712,53	2450,00
1717,74	2436,00
1722,94	2512,00
1728,14	2373,00
1733,33	2361,00
1738,52	2286,00
1743,70	2372,00
1748,88	2308,00
1754,05	2360,00
1759,22	2248,00
1764,38	3755,00
1769,53	2346,00
1774,69	2520,00
1779,83	2329,00
1784,97	2229,00
1790,11	2321,00
1795,24	2411,00
1800,36	2476,00
1805,48	2299,00
1810,60	2292,00
1815,71	2347,00
1820,82	2193,00
1825,92	2353,00
1831,01	2252,00
1836,10	2244,00
1841,19	2345,00
1846,26	2174,00
1851,34	2263,00
1856,41	2342,00
1861,47	2272,00
1866,53	2315,00
1871,59	2374,00
1876,64	2288,00
1881,68	2373,00
1886,72	2390,00
1891,76	2250,00
1896,79	2285,00
1901,81	2172,00
1906,83	2286,00
1911,85	2219,00
1916,86	2301,00
1921,86	2204,00
1926,86	2222,00
1931,86	2204,00
1936,85	2126,00
1941,83	2211,00
1946,81	2129,00
1951,79	2236,00
1956,76	2103,00
1961,72	1918,00
1966,68	2044,00
1971,64	2074,00
1976,59	2161,00
1981,54	2126,00
1986,48	2131,00
1991,42	2090,00
1996,35	2446,00
2001,27	2103,00
2006,20	2008,00
2011,11	2176,00
2016,03	2140,00
2020,93	2083,00
2025,84	2160,00
2030,73	2045,00
2035,63	1893,00
2040,52	2117,00
2045,40	2090,00
2050,28	2105,00
2055,15	2078,00
2060,02	1986,00
2064,89	2151,00
2069,75	2126,00
2074,60	2160,00
2079,46	2116,00
2084,30	2082,00
2089,14	2016,00
2093,98	2172,00
2098,81	2097,00
2103,64	2112,00
2108,46	2009,00
2113,28	1986,00
2118,09	2037,00
2122,90	2012,00
2127,70	1989,00
2132,50	2177,00
2137,30	1992,00
2142,09	1967,00
2146,87	1866,00
2151,66	2034,00
2156,43	2102,00
2161,20	2053,00
2165,97	2092,00
2170,73	2020,00
2175,49	1981,00
2180,24	2037,00
2184,99	2112,00
2189,74	2064,00
2194,48	1892,00
2199,21	2107,00
2203,94	1853,00
2208,67	1842,00
2213,39	1798,00
2218,11	1950,00
2222,82	1968,00
2227,53	1860,00
2232,23	2052,00
2236,93	1935,00
2241,63	2035,00
2246,32	1894,00
2251,00	1854,00
2255,68	2009,00
2260,36	1888,00
2265,03	2002,00
2269,70	2033,00
2274,36	1808,00
2279,02	1941,00
2283,68	1931,00
2288,33	1786,00
2292,97	2013,00
2297,61	1937,00
2302,25	1926,00
2306,88	1830,00
2311,51	1765,00
2316,14	1878,00
2320,75	1826,00
2325,37	1732,00
2329,98	2041,00
2334,59	1840,00
2339,19	1851,00
2343,79	1792,00
2348,38	1824,00
2352,97	1831,00
2357,55	1949,00
2362,13	1873,00
2366,71	1692,00
2371,28	1936,00
2375,85	1872,00
2380,41	1939,00
2384,97	1771,00
2389,52	1835,00
2394,07	1893,00
2398,62	1917,00
2403,16	1737,00
2407,70	1696,00
2412,23	1822,00
2416,76	1830,00
2421,29	1825,00
2425,81	1794,00
2430,32	1788,00
2434,84	1571,00
2439,34	1776,00
2443,85	1834,00
2448,35	1738,00
2452,84	1681,00
2457,33	1759,00
2461,82	1592,00
2466,30	1595,00
2470,78	1818,00
2475,25	1586,00
2479,72	1720,00
2484,19	1688,00
2488,65	1773,00
2493,11	1597,00
2497,56	1694,00
2502,01	1569,00
2506,46	1772,00
2510,90	1632,00
2515,34	1749,00
2519,77	1730,00
2524,20	1612,00
2528,62	1634,00
2533,04	1801,00
2537,46	1614,00
2541,87	1534,00
2546,28	1584,00
2550,68	1658,00
2555,08	1555,00
2559,48	1637,00
2563,87	1542,00
2568,26	1576,00
2572,64	1673,00
2577,02	1751,00
2581,40	1435,00
2585,77	1626,00
2590,14	1517,00
2594,50	1481,00
2598,86	1599,00
2603,22	1488,00
2607,57	1580,00
2611,92	1576,00
2616,26	1532,00
2620,60	1663,00
2624,94	1431,00
2629,27	1692,00
2633,60	1418,00
2637,92	1758,00
2642,24	1644,00
2646,56	1511,00
2650,87	1574,00
2655,18	1673,00
2659,48	1374,00
2663,78	1544,00
2668,08	1543,00
2672,37	1479,00
2676,66	1597,00
2680,95	1524,00
2685,23	1546,00
2689,50	1447,00
2693,78	1473,00
2698,05	1485,00
2702,31	1529,00
2706,57	1568,00
2710,83	1700,00
2715,08	1576,00
2719,33	1801,00
2723,58	1659,00
2727,82	1608,00
2732,06	1634,00
2736,29	1549,00
2740,53	1578,00
2744,75	1537,00
2748,97	1598,00
2753,19	1628,00
2757,41	1543,00
2761,62	1618,00
2765,83	1666,00
2770,03	1432,00
2774,23	1474,00
2778,43	1445,00
2782,62	1546,00
2786,81	1521,00
2791,00	1566,00
2795,18	1694,00
2799,35	1633,00
2803,53	1684,00
2807,70	1565,00
2811,86	1423,00
2816,03	1669,00
2820,19	1578,00
2824,34	1520,00
2828,49	1661,00
2832,64	1732,00
2836,78	1866,00
2840,92	1899,00
2845,06	2112,00
2849,19	2067,00
2853,32	2237,00
2857,45	2233,00
2861,57	2291,00
2865,69	2252,00
2869,80	2027,00
2873,91	2112,00
2878,02	2157,00
2882,12	2419,00
2886,22	2233,00
2890,32	2314,00
2894,41	2199,00
2898,50	2112,00
2902,58	1998,00
2906,67	1996,00
2910,74	1871,00
2914,82	1801,00
2918,89	1904,00
2922,96	1734,00
2927,02	1748,00
2931,08	1638,00
2935,13	1486,00
2939,19	1670,00
2943,24	1618,00
2947,28	1603,00
2951,32	1419,00
2955,36	1378,00
2959,40	1514,00
2963,43	1526,00
2967,46	1346,00
2971,48	1414,00
2975,50	1463,00
2979,52	1415,00
2983,53	1469,00
2987,54	1363,00
2991,55	1386,00
2995,55	1317,00
2999,55	1174,00
3003,54	1204,00
3007,54	1377,00
3011,53	1371,00
3015,51	1332,00
3019,49	1477,00
3023,47	1170,00
3027,45	1310,00
3031,42	1274,00
3035,39	1244,00
3039,35	1316,00
3043,31	1291,00
3047,27	1279,00
3051,22	1403,00
3055,17	1172,00
3059,12	1150,00
3063,06	1251,00
3067,00	1157,00
3070,94	1287,00
3074,87	1286,00
3078,80	1200,00
3082,73	1172,00
3086,65	1241,00
3090,57	1123,00
3094,49	1183,00
3098,40	1181,00
3102,31	1174,00
3106,22	1245,00
3110,12	1259,00
3114,02	1190,00
3117,92	1276,00
3121,81	1092,00
3125,70	1162,00
3129,58	1144,00
3133,47	1144,00
3137,34	1205,00
3141,22	1213,00
3145,09	1275,00
3148,96	1168,00
3152,83	1148,00
3156,69	1248,00
3160,55	1177,00
3164,40	1243,00
3168,26	1101,00
3172,10	1284,00
3175,95	1157,00
3179,79	1166,00
3183,63	1148,00
3187,47	1117,00
3191,30	1040,00
3195,13	1225,00
3198,95	1034,00
3202,78	1236,00
3206,60	1074,00
3210,41	1061,00
3214,23	1067,00
3218,03	1278,00
3221,84	1114,00
3225,64	1139,00
3229,44	1180,00
3233,24	1083,00
3237,03	1098,00
3240,82	1096,00
3244,61	1038,00
3248,39	1073,00
3252,17	1092,00
3255,95	1219,00
3259,72	1194,00
3263,49	1309,00
3267,26	1009,00
3271,03	995,00
3274,79	1137,00
3278,54	1118,00
3282,30	1035,00
3286,05	999,00
3289,80	1085,00
3293,54	1114,00
3297,29	1074,00
3301,02	1077,00
3304,76	1071,00
3308,49	1179,00
3312,22	1026,00
3315,95	1078,00
3319,67	1067,00
3323,39	1229,00
3327,10	1198,00
3330,82	1056,00
3334,53	978,00
3338,24	1119,00
3341,94	1095,00
3345,64	1025,00
3349,34	1099,00
3353,03	1126,00
3356,72	1179,00
3360,41	1223,00
3364,10	1210,00
3367,78	1014,00
3371,46	1055,00
3375,13	1079,00
3378,81	1088,00
3382,48	1053,00
3386,14	1153,00
3389,81	1074,00
3393,47	1055,00
3397,12	1234,00
3400,78	1106,00
3404,43	1034,00
3408,08	1083,00
3411,72	1080,00
3415,36	1021,00
3419,00	997,00
3422,64	1048,00
3426,27	965,00
3429,90	1009,00
3433,53	1098,00
3437,15	978,00
3440,77	1003,00
3444,39	1032,00
3448,00	1028,00
3451,62	999,00
3455,22	1042,00
3458,83	1064,00
3462,43	1014,00
3466,03	1148,00
3469,63	1013,00
3473,22	1055,00
3476,81	1019,00
3480,40	1105,00
3483,99	1008,00
3487,57	1116,00
3491,15	924,00
3494,72	969,00
3498,29	1028,00
3501,86	1010,00
3505,43	1072,00
3508,99	985,00
3512,56	977,00
3516,11	1129,00
3519,67	1011,00
3523,22	1135,00
3526,77	1041,00
3530,32	999,00
3533,86	1097,00
3537,40	1124,00
3540,94	1011,00
3544,47	1019,00
3548,00	965,00
3551,53	1100,00
3555,06	992,00
3558,58	1075,00
3562,10	1001,00
3565,62	980,00
3569,13	1048,00
3572,64	1025,00
3576,15	890,00
3579,66	1042,00
3583,16	988,00
3586,66	991,00
3590,16	944,00
3593,65	971,00
3597,14	874,00
3600,63	963,00
3604,11	1038,00
3607,60	1062,00
3611,08	1072,00
3614,55	953,00
3618,03	872,00
3621,50	956,00
3624,97	982,00
3628,43	1061,00
3631,90	1036,00
3635,36	887,00
3638,81	975,00
3642,27	1086,00
3645,72	997,00
3649,17	983,00
3652,61	922,00
3656,06	917,00
3659,50	913,00
3662,93	896,00
3666,37	936,00
3669,80	1179,00
3673,23	978,00
3676,65	1059,00
3680,08	1061,00
3683,50	895,00
3686,92	969,00
3690,33	896,00
3693,74	916,00
3697,15	814,00
3700,56	961,00
3703,96	1003,00
3707,36	849,00
3710,76	887,00
3714,16	835,00
3717,55	841,00
3720,94	947,00
3724,33	923,00
3727,71	1066,00
3731,10	945,00
3734,48	834,00
3737,85	831,00
3741,23	824,00
3744,60	900,00
3747,97	801,00
3751,33	800,00
3754,69	828,00
3758,05	859,00
3761,41	782,00
3764,77	774,00
3768,12	776,00
3771,47	803,00
3774,82	865,00
3778,16	-16,00
3781,50	13,00
3784,84	8,00
3788,18	9,00
>>>>>End Processed Spectral Data<<<<<
