SpectraSuite Data File
++++++++++++++++++++++++++++++++++++
Date: Mon Mar 09 14:39:41 ICT 2026
User: Administrator
Dark Spectrum Present: Yes
Reference Spectrum Present: No
Number of Sampled Component Spectra: 1
Spectrometers: MAYP113682
Integration Time (usec): 3000000 (MAYP113682)
Spectra Averaged: 1 (MAYP113682)
Boxcar Smoothing: 0 (MAYP113682)
Correct for Electrical Dark: No (MAYP113682)
Strobe/Lamp Enabled: No (MAYP113682)
Correct for Detector Non-linearity: No (MAYP113682)
Correct for Stray Light: No (MAYP113682)
Number of Pixels in Processed Spectrum: 2068
>>>>>Begin Processed Spectral Data<<<<<
-37534,58	15,00
-37414,56	-4,00
-37295,11	1,00
-37176,24	3,00
-37057,95	236,00
-36940,22	256,00
-36823,05	292,00
-36706,45	434,00
-36590,40	203,00
-36474,90	384,00
-36359,95	327,00
-36245,55	326,00
-36131,68	364,00
-36018,35	278,00
-35905,55	279,00
-35793,29	360,00
-35681,54	302,00
-35570,32	241,00
-35459,62	297,00
-35349,43	333,00
-35239,75	239,00
-35130,58	258,00
-35021,91	282,00
-34913,74	382,00
-34806,07	286,00
-34698,89	416,00
-34592,20	315,00
-34486,00	412,00
-34380,28	292,00
-34275,04	303,00
-34170,27	278,00
-34065,98	241,00
-33962,16	260,00
-33858,81	328,00
-33755,92	234,00
-33653,49	383,00
-33551,52	327,00
-33450,01	320,00
-33348,94	277,00
-33248,33	335,00
-33148,16	338,00
-33048,43	327,00
-32949,14	380,00
-32850,29	368,00
-32751,87	315,00
-32653,89	377,00
-32556,33	441,00
-32459,20	286,00
-32362,49	359,00
-32266,19	299,00
-32170,32	324,00
-32074,86	378,00
-31979,82	340,00
-31885,18	453,00
-31790,95	417,00
-31697,12	268,00
-31603,69	328,00
-31510,67	388,00
-31418,04	319,00
-31325,80	413,00
-31233,95	321,00
-31142,49	218,00
-31051,42	440,00
-30960,73	349,00
-30870,43	410,00
-30780,50	234,00
-30690,95	360,00
-30601,77	456,00
-30512,97	250,00
-30424,53	247,00
-30336,46	405,00
-30248,76	335,00
-30161,42	380,00
-30074,44	409,00
-29987,81	318,00
-29901,55	494,00
-29815,63	260,00
-29730,07	288,00
-29644,86	387,00
-29560,00	309,00
-29475,48	347,00
-29391,30	370,00
-29307,47	229,00
-29223,97	385,00
-29140,81	212,00
-29057,99	351,00
-28975,50	277,00
-28893,34	381,00
-28811,51	301,00
-28730,00	276,00
-28648,82	335,00
-28567,97	362,00
-28487,43	354,00
-28407,21	352,00
-28327,32	215,00
-28247,73	338,00
-28168,46	280,00
-28089,50	379,00
-28010,85	286,00
-27932,51	285,00
-27854,48	447,00
-27776,75	310,00
-27699,32	296,00
-27622,19	350,00
-27545,37	429,00
-27468,84	322,00
-27392,60	356,00
-27316,66	338,00
-27241,01	282,00
-27165,66	315,00
-27090,59	382,00
-27015,81	397,00
-26941,31	415,00
-26867,10	391,00
-26793,17	278,00
-26719,52	419,00
-26646,15	345,00
-26573,06	412,00
-26500,24	401,00
-26427,70	304,00
-26355,43	459,00
-26283,43	407,00
-26211,71	447,00
-26140,25	222,00
-26069,06	463,00
-25998,13	257,00
-25927,46	376,00
-25857,06	395,00
-25786,92	339,00
-25717,04	292,00
-25647,42	282,00
-25578,05	390,00
-25508,94	304,00
-25440,09	343,00
-25371,48	234,00
-25303,13	269,00
-25235,02	430,00
-25167,17	389,00
-25099,56	412,00
-25032,19	302,00
-24965,07	325,00
-24898,20	333,00
-24831,56	324,00
-24765,17	395,00
-24699,01	270,00
-24633,10	286,00
-24567,41	275,00
-24501,97	344,00
-24436,75	264,00
-24371,77	336,00
-24307,03	322,00
-24242,51	199,00
-24178,22	460,00
-24114,16	279,00
-24050,32	312,00
-23986,71	406,00
-23923,32	312,00
-23860,16	300,00
-23797,22	280,00
-23734,50	356,00
-23672,00	263,00
-23609,71	223,00
-23547,65	242,00
-23485,80	366,00
-23424,16	321,00
-23362,74	342,00
-23301,53	345,00
-23240,54	276,00
-23179,75	338,00
-23119,17	256,00
-23058,80	359,00
-22998,64	272,00
-22938,68	364,00
-22878,93	249,00
-22819,39	374,00
-22760,04	302,00
-22700,90	363,00
-22641,96	349,00
-22583,22	321,00
-22524,68	393,00
-22466,33	258,00
-22408,19	349,00
-22350,23	325,00
-22292,48	394,00
-22234,92	271,00
-22177,55	391,00
-22120,37	405,00
-22063,38	346,00
-22006,58	252,00
-21949,98	341,00
-21893,56	279,00
-21837,33	264,00
-21781,28	273,00
-21725,42	269,00
-21669,74	306,00
-21614,25	355,00
-21558,94	282,00
-21503,81	288,00
-21448,86	425,00
-21394,10	293,00
-21339,51	260,00
-21285,10	262,00
-21230,86	227,00
-21176,81	283,00
-21122,93	312,00
-21069,22	337,00
-21015,69	378,00
-20962,33	381,00
-20909,14	377,00
-20856,13	230,00
-20803,28	355,00
-20750,61	309,00
-20698,10	237,00
-20645,76	373,00
-20593,59	403,00
-20541,59	349,00
-20489,75	325,00
-20438,07	300,00
-20386,56	361,00
-20335,22	340,00
-20284,03	298,00
-20233,01	361,00
-20182,15	243,00
-20131,45	195,00
-20080,91	309,00
-20030,52	267,00
-19980,30	261,00
-19930,23	247,00
-19880,32	448,00
-19830,56	360,00
-19780,96	292,00
-19731,52	265,00
-19682,23	332,00
-19633,09	297,00
-19584,10	255,00
-19535,26	357,00
-19486,58	356,00
-19438,04	316,00
-19389,66	346,00
-19341,42	362,00
-19293,33	306,00
-19245,39	255,00
-19197,60	219,00
-19149,95	255,00
-19102,45	382,00
-19055,09	349,00
-19007,87	317,00
-18960,80	322,00
-18913,87	341,00
-18867,09	347,00
-18820,44	437,00
-18773,94	379,00
-18727,57	324,00
-18681,35	287,00
-18635,26	448,00
-18589,31	270,00
-18543,50	246,00
-18497,83	396,00
-18452,29	350,00
-18406,89	328,00
-18361,63	400,00
-18316,50	355,00
-18271,50	294,00
-18226,63	296,00
-18181,90	344,00
-18137,30	385,00
-18092,84	269,00
-18048,50	304,00
-18004,29	294,00
-17960,22	272,00
-17916,27	328,00
-17872,45	339,00
-17828,76	331,00
-17785,20	421,00
-17741,77	366,00
-17698,46	306,00
-17655,28	290,00
-17612,22	326,00
-17569,29	259,00
-17526,48	310,00
-17483,79	302,00
-17441,23	345,00
-17398,79	329,00
-17356,48	294,00
-17314,28	418,00
-17272,21	259,00
-17230,26	195,00
-17188,42	329,00
-17146,71	361,00
-17105,12	325,00
-17063,64	297,00
-17022,28	281,00
-16981,04	433,00
-16939,92	312,00
-16898,91	429,00
-16858,02	375,00
-16817,25	270,00
-16776,59	217,00
-16736,04	328,00
-16695,61	280,00
-16655,29	361,00
-16615,09	297,00
-16574,99	370,00
-16535,01	274,00
-16495,15	322,00
-16455,39	384,00
-16415,74	317,00
-16376,21	252,00
-16336,78	230,00
-16297,46	361,00
-16258,26	400,00
-16219,16	332,00
-16180,17	289,00
-16141,28	411,00
-16102,51	343,00
-16063,84	353,00
-16025,27	356,00
-15986,82	271,00
-15948,46	238,00
-15910,22	353,00
-15872,07	303,00
-15834,04	291,00
-15796,10	320,00
-15758,27	433,00
-15720,54	297,00
-15682,91	298,00
-15645,39	396,00
-15607,97	375,00
-15570,64	241,00
-15533,42	297,00
-15496,30	273,00
-15459,28	352,00
-15422,36	265,00
-15385,54	328,00
-15348,82	320,00
-15312,19	386,00
-15275,66	306,00
-15239,23	326,00
-15202,90	360,00
-15166,67	292,00
-15130,53	314,00
-15094,48	366,00
-15058,54	374,00
-15022,68	270,00
-14986,93	360,00
-14951,26	339,00
-14915,69	268,00
-14880,22	347,00
-14844,84	356,00
-14809,55	385,00
-14774,35	368,00
-14739,25	405,00
-14704,24	398,00
-14669,32	356,00
-14634,49	299,00
-14599,75	352,00
-14565,10	230,00
-14530,55	449,00
-14496,08	384,00
-14461,70	306,00
-14427,41	314,00
-14393,21	305,00
-14359,10	325,00
-14325,07	408,00
-14291,14	382,00
-14257,29	280,00
-14223,52	287,00
-14189,85	405,00
-14156,26	320,00
-14122,76	292,00
-14089,34	286,00
-14056,01	280,00
-14022,76	393,00
-13989,60	479,00
-13956,52	229,00
-13923,53	340,00
-13890,62	323,00
-13857,79	327,00
-13825,05	369,00
-13792,39	338,00
-13759,81	368,00
-13727,31	312,00
-13694,90	340,00
-13662,57	312,00
-13630,31	279,00
-13598,14	243,00
-13566,05	301,00
-13534,05	345,00
-13502,12	248,00
-13470,27	270,00
-13438,50	280,00
-13406,80	258,00
-13375,19	292,00
-13343,66	339,00
-13312,20	298,00
-13280,83	215,00
-13249,53	321,00
-13218,30	297,00
-13187,16	336,00
-13156,09	364,00
-13125,10	394,00
-13094,18	301,00
-13063,34	350,00
-13032,58	220,00
-13001,89	414,00
-12971,28	275,00
-12940,74	333,00
-12910,27	337,00
-12879,88	226,00
-12849,57	352,00
-12819,33	227,00
-12789,16	267,00
-12759,06	236,00
-12729,04	353,00
-12699,09	699,00
-12669,21	305,00
-12639,41	342,00
-12609,68	328,00
-12580,02	288,00
-12550,43	349,00
-12520,91	247,00
-12491,46	325,00
-12462,08	336,00
-12432,77	359,00
-12403,54	272,00
-12374,37	323,00
-12345,27	358,00
-12316,24	304,00
-12287,29	409,00
-12258,40	263,00
-12229,57	398,00
-12200,82	319,00
-12172,14	198,00
-12143,52	352,00
-12114,97	261,00
-12086,49	314,00
-12058,07	286,00
-12029,73	312,00
-12001,44	340,00
-11973,23	322,00
-11945,08	307,00
-11917,00	200,00
-11888,98	290,00
-11861,03	267,00
-11833,15	384,00
-11805,32	305,00
-11777,57	331,00
-11749,88	321,00
-11722,25	242,00
-11694,69	308,00
-11667,19	282,00
-11639,75	284,00
-11612,38	406,00
-11585,07	338,00
-11557,83	388,00
-11530,65	423,00
-11503,53	381,00
-11476,47	332,00
-11449,48	338,00
-11422,54	256,00
-11395,67	335,00
-11368,86	266,00
-11342,11	301,00
-11315,43	250,00
-11288,80	253,00
-11262,23	401,00
-11235,73	347,00
-11209,28	275,00
-11182,90	326,00
-11156,57	346,00
-11130,31	322,00
-11104,10	351,00
-11077,96	302,00
-11051,87	310,00
-11025,84	343,00
-10999,87	317,00
-10973,96	395,00
-10948,11	366,00
-10922,31	314,00
-10896,58	271,00
-10870,90	438,00
-10845,28	278,00
-10819,71	288,00
-10794,20	229,00
-10768,75	402,00
-10743,36	348,00
-10718,02	346,00
-10692,74	341,00
-10667,52	231,00
-10642,35	379,00
-10617,24	330,00
-10592,18	420,00
-10567,18	310,00
-10542,23	344,00
-10517,34	363,00
-10492,51	339,00
-10467,72	290,00
-10443,00	352,00
-10418,32	414,00
-10393,70	312,00
-10369,14	334,00
-10344,63	338,00
-10320,17	306,00
-10295,77	288,00
-10271,42	334,00
-10247,12	407,00
-10222,88	391,00
-10198,68	324,00
-10174,54	304,00
-10150,46	395,00
-10126,42	303,00
-10102,44	377,00
-10078,51	313,00
-10054,63	329,00
-10030,80	342,00
-10007,03	327,00
-9983,30	301,00
-9959,63	214,00
-9936,01	355,00
-9912,44	417,00
-9888,92	265,00
-9865,44	259,00
-9842,02	398,00
-9818,65	292,00
-9795,33	362,00
-9772,06	261,00
-9748,84	304,00
-9725,67	330,00
-9702,55	264,00
-9679,47	442,00
-9656,45	293,00
-9633,47	336,00
-9610,55	384,00
-9587,67	276,00
-9564,84	424,00
-9542,06	240,00
-9519,32	258,00
-9496,64	297,00
-9474,00	214,00
-9451,41	326,00
-9428,87	287,00
-9406,37	324,00
-9383,92	274,00
-9361,52	281,00
-9339,17	298,00
-9316,86	207,00
-9294,60	249,00
-9272,38	387,00
-9250,21	210,00
-9228,09	236,00
-9206,01	355,00
-9183,98	187,00
-9162,00	249,00
-9140,06	282,00
-9118,16	229,00
-9096,31	356,00
-9074,51	240,00
-9052,75	391,00
-9031,04	286,00
-9009,37	261,00
-8987,74	201,00
-8966,16	210,00
-8944,63	170,00
-8923,14	267,00
-8901,69	314,00
-8880,29	213,00
-8858,93	310,00
-8837,61	369,00
-8816,34	303,00
-8795,11	315,00
-8773,92	327,00
-8752,78	346,00
-8731,68	285,00
-8710,62	275,00
-8689,61	235,00
-8668,63	234,00
-8647,70	402,00
-8626,82	298,00
-8605,97	354,00
-8585,17	374,00
-8564,41	303,00
-8543,69	278,00
-8523,01	291,00
-8502,37	351,00
-8481,78	319,00
-8461,23	179,00
-8440,71	225,00
-8420,24	296,00
-8399,81	384,00
-8379,42	293,00
-8359,08	368,00
-8338,77	289,00
-8318,50	382,00
-8298,27	273,00
-8278,09	393,00
-8257,94	241,00
-8237,83	359,00
-8217,76	304,00
-8197,74	396,00
-8177,75	340,00
-8157,80	408,00
-8137,89	259,00
-8118,02	346,00
-8098,19	441,00
-8078,40	293,00
-8058,65	281,00
-8038,93	437,00
-8019,26	400,00
-7999,62	251,00
-7980,02	299,00
-7960,46	388,00
-7940,94	263,00
-7921,46	366,00
-7902,01	338,00
-7882,60	480,00
-7863,23	372,00
-7843,90	377,00
-7824,61	400,00
-7805,35	324,00
-7786,13	358,00
-7766,95	306,00
-7747,80	287,00
-7728,69	331,00
-7709,62	275,00
-7690,59	363,00
-7671,59	398,00
-7652,63	307,00
-7633,70	301,00
-7614,81	337,00
-7595,96	347,00
-7577,15	313,00
-7558,37	349,00
-7539,62	276,00
-7520,91	268,00
-7502,24	385,00
-7483,60	338,00
-7465,00	399,00
-7446,44	350,00
-7427,91	348,00
-7409,41	386,00
-7390,95	267,00
-7372,53	202,00
-7354,14	374,00
-7335,78	216,00
-7317,46	330,00
-7299,18	322,00
-7280,92	325,00
-7262,71	317,00
-7244,52	339,00
-7226,38	373,00
-7208,26	337,00
-7190,18	349,00
-7172,14	322,00
-7154,12	396,00
-7136,15	319,00
-7118,20	363,00
-7100,29	365,00
-7082,41	379,00
-7064,57	381,00
-7046,76	320,00
-7028,98	225,00
-7011,24	419,00
-6993,53	232,00
-6975,85	286,00
-6958,20	230,00
-6940,59	292,00
-6923,01	268,00
-6905,46	415,00
-6887,94	299,00
-6870,46	406,00
-6853,01	335,00
-6835,59	336,00
-6818,21	238,00
-6800,85	337,00
-6783,53	314,00
-6766,24	277,00
-6748,98	347,00
-6731,76	224,00
-6714,56	183,00
-6697,40	270,00
-6680,26	232,00
-6663,16	166,00
-6646,09	302,00
-6629,05	243,00
-6612,05	274,00
-6595,07	265,00
-6578,13	320,00
-6561,21	272,00
-6544,33	237,00
-6527,47	240,00
-6510,65	279,00
-6493,86	300,00
-6477,10	108,00
-6460,36	176,00
-6443,66	166,00
-6426,99	235,00
-6410,35	206,00
-6393,74	281,00
-6377,16	275,00
-6360,61	272,00
-6344,09	161,00
-6327,59	187,00
-6311,13	192,00
-6294,70	332,00
-6278,29	331,00
-6261,92	350,00
-6245,58	260,00
-6229,26	304,00
-6212,97	312,00
-6196,72	326,00
-6180,49	331,00
-6164,29	208,00
-6148,12	218,00
-6131,98	206,00
-6115,86	222,00
-6099,78	212,00
-6083,72	208,00
-6067,69	205,00
-6051,69	334,00
-6035,72	340,00
-6019,78	210,00
-6003,87	263,00
-5987,98	255,00
-5972,12	288,00
-5956,29	333,00
-5940,49	253,00
-5924,71	313,00
-5908,96	288,00
-5893,24	346,00
-5877,55	234,00
-5861,89	237,00
-5846,25	308,00
-5830,64	283,00
-5815,05	214,00
-5799,50	306,00
-5783,97	330,00
-5768,47	351,00
-5752,99	353,00
-5737,55	289,00
-5722,12	263,00
-5706,73	314,00
-5691,36	280,00
-5676,02	220,00
-5660,71	303,00
-5645,42	194,00
-5630,16	281,00
-5614,92	266,00
-5599,71	116,00
-5584,53	260,00
-5569,37	202,00
-5554,24	986,00
-5539,14	269,00
-5524,06	326,00
-5509,01	225,00
-5493,98	299,00
-5478,98	336,00
-5464,00	217,00
-5449,05	185,00
-5434,13	284,00
-5419,23	321,00
-5404,36	209,00
-5389,51	273,00
-5374,69	292,00
-5359,89	192,00
-5345,12	355,00
-5330,37	288,00
-5315,65	422,00
-5300,95	329,00
-5286,28	280,00
-5271,63	250,00
-5257,01	306,00
-5242,41	261,00
-5227,84	277,00
-5213,29	294,00
-5198,76	297,00
-5184,26	300,00
-5169,79	241,00
-5155,33	262,00
-5140,91	358,00
-5126,51	251,00
-5112,13	371,00
-5097,77	470,00
-5083,44	319,00
-5069,13	230,00
-5054,85	248,00
-5040,59	235,00
-5026,36	250,00
-5012,15	299,00
-4997,96	295,00
-4983,80	261,00
-4969,66	382,00
-4955,54	305,00
-4941,44	352,00
-4927,37	299,00
-4913,33	292,00
-4899,30	192,00
-4885,30	301,00
-4871,33	303,00
-4857,37	295,00
-4843,44	384,00
-4829,53	341,00
-4815,65	235,00
-4801,79	261,00
-4787,95	196,00
-4774,13	286,00
-4760,34	203,00
-4746,56	376,00
-4732,82	301,00
-4719,09	274,00
-4705,38	344,00
-4691,70	368,00
-4678,04	229,00
-4664,41	296,00
-4650,79	404,00
-4637,20	268,00
-4623,63	354,00
-4610,08	273,00
-4596,56	234,00
-4583,05	266,00
-4569,57	350,00
-4556,11	323,00
-4542,67	248,00
-4529,25	267,00
-4515,86	370,00
-4502,49	338,00
-4489,13	278,00
-4475,80	271,00
-4462,49	250,00
-4449,21	505,00
-4435,94	279,00
-4422,70	407,00
-4409,47	185,00
-4396,27	306,00
-4383,09	252,00
-4369,93	290,00
-4356,79	356,00
-4343,67	287,00
-4330,58	311,00
-4317,50	230,00
-4304,45	378,00
-4291,41	293,00
-4278,40	332,00
-4265,41	277,00
-4252,44	306,00
-4239,49	317,00
-4226,55	295,00
-4213,65	390,00
-4200,76	318,00
-4187,89	299,00
-4175,04	367,00
-4162,21	349,00
-4149,40	323,00
-4136,61	200,00
-4123,85	295,00
-4111,10	340,00
-4098,37	442,00
-4085,66	396,00
-4072,98	370,00
-4060,31	180,00
-4047,66	354,00
-4035,04	331,00
-4022,43	248,00
-4009,84	429,00
-3997,27	298,00
-3984,72	321,00
-3972,19	428,00
-3959,69	273,00
-3947,20	272,00
-3934,73	371,00
-3922,27	300,00
-3909,84	355,00
-3897,43	342,00
-3885,04	319,00
-3872,67	276,00
-3860,31	284,00
-3847,98	353,00
-3835,66	342,00
-3823,36	394,00
-3811,09	367,00
-3798,83	318,00
-3786,59	408,00
-3774,37	330,00
-3762,17	292,00
-3749,98	279,00
-3737,82	319,00
-3725,67	419,00
-3713,55	273,00
-3701,44	430,00
-3689,35	397,00
-3677,28	331,00
-3665,22	316,00
-3653,19	228,00
-3641,17	375,00
-3629,18	253,00
-3617,20	296,00
-3605,24	322,00
-3593,30	376,00
-3581,37	272,00
-3569,47	372,00
-3557,58	369,00
-3545,71	286,00
-3533,86	416,00
-3522,02	319,00
-3510,21	294,00
-3498,41	365,00
-3486,63	376,00
-3474,87	407,00
-3463,12	326,00
-3451,40	332,00
-3439,69	342,00
-3428,00	403,00
-3416,33	307,00
-3404,67	312,00
-3393,03	368,00
-3381,41	407,00
-3369,81	293,00
-3358,22	277,00
-3346,66	338,00
-3335,10	329,00
-3323,57	299,00
-3312,06	336,00
-3300,56	312,00
-3289,08	293,00
-3277,61	321,00
-3266,16	372,00
-3254,73	293,00
-3243,32	394,00
-3231,92	317,00
-3220,55	360,00
-3209,18	312,00
-3197,84	287,00
-3186,51	289,00
-3175,20	310,00
-3163,90	314,00
-3152,63	303,00
-3141,36	260,00
-3130,12	376,00
-3118,89	435,00
-3107,68	321,00
-3096,49	297,00
-3085,31	385,00
-3074,15	289,00
-3063,00	261,00
-3051,87	336,00
-3040,76	461,00
-3029,67	295,00
-3018,59	314,00
-3007,52	365,00
-2996,48	375,00
-2985,44	150,00
-2974,43	253,00
-2963,43	333,00
-2952,45	357,00
-2941,48	301,00
-2930,53	432,00
-2919,60	271,00
-2908,68	309,00
-2897,78	337,00
-2886,89	338,00
-2876,02	360,00
-2865,17	303,00
-2854,33	294,00
-2843,50	210,00
-2832,70	267,00
-2821,90	352,00
-2811,13	389,00
-2800,37	383,00
-2789,62	304,00
-2778,89	330,00
-2768,18	347,00
-2757,48	385,00
-2746,80	329,00
-2736,13	395,00
-2725,48	286,00
-2714,84	297,00
-2704,22	325,00
-2693,61	273,00
-2683,02	286,00
-2672,45	281,00
-2661,89	401,00
-2651,34	328,00
-2640,81	279,00
-2630,30	408,00
-2619,80	378,00
-2609,31	391,00
-2598,84	259,00
-2588,39	322,00
-2577,95	268,00
-2567,52	297,00
-2557,11	346,00
-2546,71	330,00
-2536,33	357,00
-2525,97	358,00
-2515,62	294,00
-2505,28	354,00
-2494,96	363,00
-2484,65	246,00
-2474,36	420,00
-2464,08	364,00
-2453,82	392,00
-2443,57	370,00
-2433,33	296,00
-2423,11	320,00
-2412,91	326,00
-2402,72	374,00
-2392,54	352,00
-2382,38	331,00
-2372,23	375,00
-2362,09	4269,00
-2351,97	248,00
-2341,87	303,00
-2331,78	325,00
-2321,70	331,00
-2311,64	446,00
-2301,59	293,00
-2291,55	297,00
-2281,53	426,00
-2271,53	334,00
-2261,53	407,00
-2251,55	316,00
-2241,59	339,00
-2231,64	451,00
-2221,70	254,00
-2211,78	368,00
-2201,87	340,00
-2191,97	264,00
-2182,09	317,00
-2172,22	460,00
-2162,37	270,00
-2152,53	322,00
-2142,70	178,00
-2132,89	335,00
-2123,09	308,00
-2113,30	384,00
-2103,53	375,00
-2093,77	314,00
-2084,02	277,00
-2074,29	341,00
-2064,57	266,00
-2054,86	328,00
-2045,17	290,00
-2035,49	350,00
-2025,82	384,00
-2016,17	314,00
-2006,53	336,00
-1996,91	275,00
-1987,29	253,00
-1977,69	376,00
-1968,11	344,00
-1958,53	253,00
-1948,97	405,00
-1939,42	315,00
-1929,89	340,00
-1920,37	391,00
-1910,86	347,00
-1901,36	286,00
-1891,88	336,00
-1882,41	371,00
-1872,95	358,00
-1863,51	375,00
-1854,08	303,00
-1844,66	319,00
-1835,26	276,00
-1825,86	344,00
-1816,48	280,00
-1807,11	310,00
-1797,76	312,00
-1788,42	298,00
-1779,09	399,00
-1769,77	277,00
-1760,47	412,00
-1751,17	362,00
-1741,89	405,00
-1732,63	378,00
-1723,37	496,00
-1714,13	385,00
-1704,90	225,00
-1695,68	382,00
-1686,48	249,00
-1677,29	322,00
-1668,11	326,00
-1658,94	287,00
-1649,78	330,00
-1640,64	331,00
-1631,51	371,00
-1622,39	362,00
-1613,28	392,00
-1604,19	412,00
-1595,10	383,00
-1586,03	273,00
-1576,97	388,00
-1567,93	237,00
-1558,89	376,00
-1549,87	388,00
-1540,86	296,00
-1531,86	357,00
-1522,87	273,00
-1513,90	417,00
-1504,93	384,00
-1495,98	396,00
-1487,04	363,00
-1478,12	343,00
-1469,20	322,00
-1460,30	393,00
-1451,40	448,00
-1442,52	332,00
-1433,65	396,00
-1424,80	304,00
-1415,95	386,00
-1407,12	387,00
-1398,30	331,00
-1389,48	285,00
-1380,69	361,00
-1371,90	280,00
-1363,12	392,00
-1354,36	402,00
-1345,60	258,00
-1336,86	359,00
-1328,13	396,00
-1319,41	350,00
-1310,70	326,00
-1302,01	340,00
-1293,32	248,00
-1284,65	251,00
-1275,99	374,00
-1267,33	405,00
-1258,69	352,00
-1250,06	373,00
-1241,45	318,00
-1232,84	423,00
-1224,25	308,00
-1215,66	341,00
-1207,09	336,00
-1198,53	306,00
-1189,97	221,00
-1181,43	324,00
-1172,91	371,00
-1164,39	275,00
-1155,88	360,00
-1147,38	209,00
-1138,90	359,00
-1130,43	381,00
-1121,96	314,00
-1113,51	420,00
-1105,07	329,00
-1096,64	263,00
-1088,22	329,00
-1079,81	348,00
-1071,41	457,00
-1063,02	390,00
-1054,65	339,00
-1046,28	282,00
-1037,92	408,00
-1029,58	318,00
-1021,24	291,00
-1012,92	416,00
-1004,61	362,00
-996,30	452,00
-988,01	280,00
-979,73	397,00
-971,46	381,00
-963,20	265,00
-954,95	276,00
-946,71	288,00
-938,48	244,00
-930,26	396,00
-922,06	354,00
-913,86	308,00
-905,67	355,00
-897,49	394,00
-889,33	355,00
-881,17	446,00
-873,02	357,00
-864,89	185,00
-856,76	311,00
-848,65	382,00
-840,54	291,00
-832,45	385,00
-824,36	243,00
-816,29	392,00
-808,22	344,00
-800,17	353,00
-792,12	372,00
-784,09	381,00
-776,06	288,00
-768,05	363,00
-760,04	254,00
-752,05	252,00
-744,07	376,00
-736,09	366,00
-728,13	274,00
-720,17	264,00
-712,23	266,00
-704,29	351,00
-696,37	317,00
-688,45	312,00
-680,55	345,00
-672,65	316,00
-664,77	226,00
-656,89	311,00
-649,03	306,00
-641,17	311,00
-633,32	448,00
-625,49	386,00
-617,66	342,00
-609,84	337,00
-602,03	273,00
-594,23	392,00
-586,45	301,00
-578,67	342,00
-570,90	321,00
-563,14	379,00
-555,39	351,00
-547,65	364,00
-539,91	341,00
-532,19	258,00
-524,48	358,00
-516,78	372,00
-509,08	374,00
-501,40	310,00
-493,72	276,00
-486,06	360,00
-478,40	488,00
-470,76	342,00
-463,12	365,00
-455,49	273,00
-447,87	354,00
-440,26	310,00
-432,66	343,00
-425,07	365,00
-417,49	342,00
-409,92	415,00
-402,35	262,00
-394,80	356,00
-387,25	361,00
-379,72	366,00
-372,19	311,00
-364,67	398,00
-357,17	340,00
-349,67	334,00
-342,18	350,00
-334,69	306,00
-327,22	493,00
-319,76	260,00
-312,30	361,00
-304,86	414,00
-297,42	457,00
-290,00	308,00
-282,58	339,00
-275,17	358,00
-267,77	426,00
-260,37	306,00
-252,99	427,00
-245,62	378,00
-238,25	329,00
-230,90	374,00
-223,55	365,00
-216,21	337,00
-208,88	413,00
-201,56	453,00
-194,25	377,00
-186,94	379,00
-179,65	440,00
-172,36	500,00
-165,08	446,00
-157,81	450,00
-150,55	552,00
-143,30	507,00
-136,06	548,00
-128,82	601,00
-121,60	486,00
-114,38	629,00
-107,17	633,00
-99,97	635,00
-92,78	757,00
-85,60	845,00
-78,42	869,00
-71,25	1052,00
-64,10	1133,00
-56,95	1242,00
-49,81	1386,00
-42,67	1680,00
-35,55	1959,00
-28,43	2579,00
-21,33	3958,00
-14,23	12327,00
-7,14	57775,00
-0,05	57564,00
7,02	57281,00
14,09	43335,00
21,14	11457,00
28,19	4988,00
35,23	3204,00
42,27	2512,00
49,29	2069,00
56,31	1917,00
63,32	1647,00
70,32	1415,00
77,31	1146,00
84,29	1009,00
91,27	1029,00
98,23	982,00
105,19	754,00
112,14	992,00
119,09	1176,00
126,02	1801,00
132,95	2078,00
139,87	2047,00
146,78	2115,00
153,68	2074,00
160,58	1985,00
167,46	1890,00
174,34	1928,00
181,21	2025,00
188,08	2046,00
194,93	2051,00
201,78	1892,00
208,62	1876,00
215,45	2034,00
222,27	1864,00
229,09	2100,00
235,90	1957,00
242,70	1988,00
249,49	1927,00
256,27	1984,00
263,05	1912,00
269,82	1894,00
276,58	1954,00
283,33	1878,00
290,08	1971,00
296,82	1880,00
303,55	1855,00
310,27	1816,00
316,98	1880,00
323,69	1796,00
330,39	1851,00
337,08	1992,00
343,76	1799,00
350,44	1845,00
357,11	1874,00
363,77	1767,00
370,42	1786,00
377,07	1757,00
383,71	1824,00
390,34	1920,00
396,96	1762,00
403,58	1885,00
410,19	1929,00
416,79	1987,00
423,38	1910,00
429,97	1773,00
436,55	1796,00
443,12	1800,00
449,68	1644,00
456,24	1793,00
462,79	1787,00
469,33	1770,00
475,86	1782,00
482,39	1837,00
488,91	1856,00
495,42	1735,00
501,93	1820,00
508,42	1713,00
514,91	1844,00
521,40	1651,00
527,87	1747,00
534,34	1718,00
540,80	1726,00
547,25	1811,00
553,70	1920,00
560,14	1776,00
566,57	1834,00
573,00	1756,00
579,41	1750,00
585,83	1770,00
592,23	1811,00
598,62	1832,00
605,01	1689,00
611,40	1808,00
617,77	1807,00
624,14	1783,00
630,50	1746,00
636,85	1810,00
643,20	1763,00
649,54	1704,00
655,87	1769,00
662,20	1853,00
668,52	1734,00
674,83	1832,00
681,13	1731,00
687,43	1755,00
693,72	1776,00
700,00	1665,00
706,28	1682,00
712,55	1746,00
718,81	1834,00
725,07	1747,00
731,32	1716,00
737,56	1762,00
743,79	1851,00
750,02	1837,00
756,24	1727,00
762,46	1699,00
768,67	1842,00
774,87	1797,00
781,06	1740,00
787,25	1894,00
793,43	1783,00
799,60	1681,00
805,77	1804,00
811,93	1729,00
818,08	1772,00
824,23	1781,00
830,37	1985,00
836,50	1884,00
842,63	1791,00
848,75	1821,00
854,87	1806,00
860,97	1784,00
867,07	1868,00
873,17	1826,00
879,25	1746,00
885,33	1849,00
891,41	1835,00
897,47	1822,00
903,53	1786,00
909,59	1854,00
915,63	1831,00
921,67	1742,00
927,71	1801,00
933,74	1787,00
939,76	1759,00
945,77	1751,00
951,78	1795,00
957,78	1754,00
963,78	1776,00
969,77	1829,00
975,75	1924,00
981,72	1755,00
987,69	2195,00
993,66	1727,00
999,61	1811,00
1005,56	1814,00
1011,51	1710,00
1017,44	1821,00
1023,37	1812,00
1029,30	1851,00
1035,22	1847,00
1041,13	1892,00
1047,03	1837,00
1052,93	2004,00
1058,83	2270,00
1064,71	2375,00
1070,59	2226,00
1076,47	2055,00
1082,33	1982,00
1088,20	1952,00
1094,05	1960,00
1099,90	1898,00
1105,74	1929,00
1111,58	1829,00
1117,41	1972,00
1123,23	2172,00
1129,05	2476,00
1134,86	2369,00
1140,67	2148,00
1146,47	1927,00
1152,26	1991,00
1158,05	1724,00
1163,83	1903,00
1169,60	1983,00
1175,37	1986,00
1181,13	1912,00
1186,89	1843,00
1192,64	1785,00
1198,38	1927,00
1204,12	1919,00
1209,85	1911,00
1215,58	1908,00
1221,30	1937,00
1227,02	1915,00
1232,72	1936,00
1238,43	1789,00
1244,12	1931,00
1249,81	1909,00
1255,50	1990,00
1261,17	1855,00
1266,85	1988,00
1272,51	2009,00
1278,17	2084,00
1283,83	2019,00
1289,47	2384,00
1295,12	2781,00
1300,75	2631,00
1306,38	2417,00
1312,01	2057,00
1317,63	2048,00
1323,24	2035,00
1328,85	2084,00
1334,45	1939,00
1340,04	2029,00
1345,63	1927,00
1351,22	2084,00
1356,80	2037,00
1362,37	2008,00
1367,93	1981,00
1373,49	1992,00
1379,05	1998,00
1384,60	1981,00
1390,14	1950,00
1395,68	2069,00
1401,21	2006,00
1406,74	2065,00
1412,26	2271,00
1417,77	2344,00
1423,28	2269,00
1428,78	2341,00
1434,28	2598,00
1439,77	2730,00
1445,26	2699,00
1450,74	2705,00
1456,22	2586,00
1461,68	2516,00
1467,15	2358,00
1472,61	2273,00
1478,06	2276,00
1483,51	2226,00
1488,95	2096,00
1494,38	1936,00
1499,81	1924,00
1505,24	1999,00
1510,65	1964,00
1516,07	2004,00
1521,48	1862,00
1526,88	1777,00
1532,27	1922,00
1537,67	1839,00
1543,05	1954,00
1548,43	1857,00
1553,81	1943,00
1559,18	1820,00
1564,54	1880,00
1569,90	1769,00
1575,25	1807,00
1580,60	1738,00
1585,94	1831,00
1591,28	1927,00
1596,61	1972,00
1601,93	1835,00
1607,25	1896,00
1612,57	1797,00
1617,88	1882,00
1623,18	1679,00
1628,48	1836,00
1633,77	1730,00
1639,06	1810,00
1644,34	1669,00
1649,62	1752,00
1654,89	1795,00
1660,16	1740,00
1665,42	1684,00
1670,67	1788,00
1675,92	1802,00
1681,17	1787,00
1686,41	1717,00
1691,64	1850,00
1696,87	1746,00
1702,10	1734,00
1707,32	1850,00
1712,53	1741,00
1717,74	1747,00
1722,94	1735,00
1728,14	1680,00
1733,33	1652,00
1738,52	1710,00
1743,70	1737,00
1748,88	1634,00
1754,05	1581,00
1759,22	1682,00
1764,38	2890,00
1769,53	1614,00
1774,69	1723,00
1779,83	1701,00
1784,97	1538,00
1790,11	1526,00
1795,24	1609,00
1800,36	1655,00
1805,48	1584,00
1810,60	1630,00
1815,71	1563,00
1820,82	1575,00
1825,92	1616,00
1831,01	1558,00
1836,10	1604,00
1841,19	1663,00
1846,26	1487,00
1851,34	1562,00
1856,41	1653,00
1861,47	1640,00
1866,53	1586,00
1871,59	1631,00
1876,64	1529,00
1881,68	1587,00
1886,72	1602,00
1891,76	1527,00
1896,79	1593,00
1901,81	1537,00
1906,83	1592,00
1911,85	1518,00
1916,86	1505,00
1921,86	1540,00
1926,86	1546,00
1931,86	1463,00
1936,85	1476,00
1941,83	1565,00
1946,81	1566,00
1951,79	1546,00
1956,76	1397,00
1961,72	1441,00
1966,68	1412,00
1971,64	1338,00
1976,59	1387,00
1981,54	1516,00
1986,48	1391,00
1991,42	1429,00
1996,35	1581,00
2001,27	1453,00
2006,20	1386,00
2011,11	1429,00
2016,03	1529,00
2020,93	1439,00
2025,84	1447,00
2030,73	1315,00
2035,63	1224,00
2040,52	1419,00
2045,40	1444,00
2050,28	1326,00
2055,15	1422,00
2060,02	1363,00
2064,89	1434,00
2069,75	1331,00
2074,60	1392,00
2079,46	1392,00
2084,30	1384,00
2089,14	1319,00
2093,98	1424,00
2098,81	1382,00
2103,64	1415,00
2108,46	1371,00
2113,28	1317,00
2118,09	1379,00
2122,90	1428,00
2127,70	1259,00
2132,50	1328,00
2137,30	1240,00
2142,09	1298,00
2146,87	1258,00
2151,66	1345,00
2156,43	1359,00
2161,20	1406,00
2165,97	1389,00
2170,73	1232,00
2175,49	1309,00
2180,24	1349,00
2184,99	1381,00
2189,74	1301,00
2194,48	1277,00
2199,21	1343,00
2203,94	1280,00
2208,67	1258,00
2213,39	1214,00
2218,11	1361,00
2222,82	1324,00
2227,53	1258,00
2232,23	1373,00
2236,93	1276,00
2241,63	1291,00
2246,32	1302,00
2251,00	1199,00
2255,68	1160,00
2260,36	1215,00
2265,03	1344,00
2269,70	1312,00
2274,36	1185,00
2279,02	1280,00
2283,68	1335,00
2288,33	1202,00
2292,97	1242,00
2297,61	1248,00
2302,25	1177,00
2306,88	1203,00
2311,51	1185,00
2316,14	1164,00
2320,75	1224,00
2325,37	1107,00
2329,98	1207,00
2334,59	1156,00
2339,19	1190,00
2343,79	1133,00
2348,38	1142,00
2352,97	1142,00
2357,55	1227,00
2362,13	1170,00
2366,71	1067,00
2371,28	1084,00
2375,85	1088,00
2380,41	1176,00
2384,97	1139,00
2389,52	1183,00
2394,07	1067,00
2398,62	1172,00
2403,16	1084,00
2407,70	999,00
2412,23	1210,00
2416,76	1166,00
2421,29	1126,00
2425,81	1126,00
2430,32	1060,00
2434,84	1041,00
2439,34	1103,00
2443,85	1181,00
2448,35	1029,00
2452,84	1019,00
2457,33	993,00
2461,82	1048,00
2466,30	945,00
2470,78	1112,00
2475,25	955,00
2479,72	997,00
2484,19	1063,00
2488,65	1023,00
2493,11	988,00
2497,56	984,00
2502,01	1013,00
2506,46	974,00
2510,90	994,00
2515,34	1015,00
2519,77	1018,00
2524,20	954,00
2528,62	928,00
2533,04	1026,00
2537,46	870,00
2541,87	939,00
2546,28	925,00
2550,68	926,00
2555,08	889,00
2559,48	941,00
2563,87	913,00
2568,26	909,00
2572,64	943,00
2577,02	912,00
2581,40	864,00
2585,77	909,00
2590,14	868,00
2594,50	881,00
2598,86	912,00
2603,22	836,00
2607,57	913,00
2611,92	940,00
2616,26	945,00
2620,60	985,00
2624,94	859,00
2629,27	1005,00
2633,60	788,00
2637,92	878,00
2642,24	848,00
2646,56	890,00
2650,87	828,00
2655,18	920,00
2659,48	884,00
2663,78	876,00
2668,08	858,00
2672,37	871,00
2676,66	958,00
2680,95	851,00
2685,23	817,00
2689,50	849,00
2693,78	872,00
2698,05	872,00
2702,31	898,00
2706,57	888,00
2710,83	1033,00
2715,08	912,00
2719,33	1003,00
2723,58	937,00
2727,82	996,00
2732,06	992,00
2736,29	906,00
2740,53	1023,00
2744,75	885,00
2748,97	989,00
2753,19	936,00
2757,41	948,00
2761,62	918,00
2765,83	964,00
2770,03	931,00
2774,23	807,00
2778,43	830,00
2782,62	907,00
2786,81	881,00
2791,00	895,00
2795,18	1008,00
2799,35	878,00
2803,53	1008,00
2807,70	955,00
2811,86	819,00
2816,03	1037,00
2820,19	970,00
2824,34	970,00
2828,49	1001,00
2832,64	1052,00
2836,78	1301,00
2840,92	1376,00
2845,06	1731,00
2849,19	1675,00
2853,32	1883,00
2857,45	1787,00
2861,57	1814,00
2865,69	1761,00
2869,80	1602,00
2873,91	1688,00
2878,02	1818,00
2882,12	1958,00
2886,22	1883,00
2890,32	1806,00
2894,41	1761,00
2898,50	1605,00
2902,58	1593,00
2906,67	1513,00
2910,74	1315,00
2914,82	1255,00
2918,89	1220,00
2922,96	1171,00
2927,02	1197,00
2931,08	1052,00
2935,13	1046,00
2939,19	982,00
2943,24	1105,00
2947,28	935,00
2951,32	814,00
2955,36	755,00
2959,40	859,00
2963,43	918,00
2967,46	778,00
2971,48	733,00
2975,50	804,00
2979,52	723,00
2983,53	825,00
2987,54	769,00
2991,55	781,00
2995,55	693,00
2999,55	678,00
3003,54	675,00
3007,54	670,00
3011,53	665,00
3015,51	735,00
3019,49	648,00
3023,47	608,00
3027,45	704,00
3031,42	653,00
3035,39	591,00
3039,35	549,00
3043,31	683,00
3047,27	582,00
3051,22	637,00
3055,17	565,00
3059,12	522,00
3063,06	599,00
3067,00	485,00
3070,94	569,00
3074,87	565,00
3078,80	589,00
3082,73	556,00
3086,65	500,00
3090,57	560,00
3094,49	535,00
3098,40	560,00
3102,31	364,00
3106,22	673,00
3110,12	566,00
3114,02	540,00
3117,92	503,00
3121,81	374,00
3125,70	471,00
3129,58	584,00
3133,47	515,00
3137,34	553,00
3141,22	519,00
3145,09	489,00
3148,96	407,00
3152,83	511,00
3156,69	504,00
3160,55	514,00
3164,40	555,00
3168,26	512,00
3172,10	580,00
3175,95	529,00
3179,79	517,00
3183,63	548,00
3187,47	431,00
3191,30	462,00
3195,13	538,00
3198,95	403,00
3202,78	567,00
3206,60	404,00
3210,41	452,00
3214,23	467,00
3218,03	451,00
3221,84	508,00
3225,64	347,00
3229,44	471,00
3233,24	457,00
3237,03	415,00
3240,82	489,00
3244,61	382,00
3248,39	444,00
3252,17	492,00
3255,95	421,00
3259,72	486,00
3263,49	512,00
3267,26	394,00
3271,03	443,00
3274,79	452,00
3278,54	488,00
3282,30	371,00
3286,05	491,00
3289,80	443,00
3293,54	452,00
3297,29	402,00
3301,02	411,00
3304,76	424,00
3308,49	459,00
3312,22	396,00
3315,95	357,00
3319,67	389,00
3323,39	489,00
3327,10	522,00
3330,82	350,00
3334,53	367,00
3338,24	393,00
3341,94	263,00
3345,64	354,00
3349,34	447,00
3353,03	407,00
3356,72	435,00
3360,41	463,00
3364,10	404,00
3367,78	409,00
3371,46	446,00
3375,13	414,00
3378,81	380,00
3382,48	425,00
3386,14	470,00
3389,81	490,00
3393,47	265,00
3397,12	452,00
3400,78	407,00
3404,43	407,00
3408,08	399,00
3411,72	292,00
3415,36	406,00
3419,00	283,00
3422,64	388,00
3426,27	286,00
3429,90	371,00
3433,53	473,00
3437,15	333,00
3440,77	300,00
3444,39	290,00
3448,00	478,00
3451,62	387,00
3455,22	352,00
3458,83	465,00
3462,43	381,00
3466,03	414,00
3469,63	386,00
3473,22	396,00
3476,81	278,00
3480,40	401,00
3483,99	363,00
3487,57	320,00
3491,15	410,00
3494,72	429,00
3498,29	343,00
3501,86	324,00
3505,43	347,00
3508,99	380,00
3512,56	363,00
3516,11	475,00
3519,67	333,00
3523,22	372,00
3526,77	348,00
3530,32	301,00
3533,86	387,00
3537,40	285,00
3540,94	407,00
3544,47	340,00
3548,00	332,00
3551,53	394,00
3555,06	382,00
3558,58	400,00
3562,10	335,00
3565,62	388,00
3569,13	337,00
3572,64	354,00
3576,15	271,00
3579,66	290,00
3583,16	312,00
3586,66	284,00
3590,16	287,00
3593,65	324,00
3597,14	332,00
3600,63	366,00
3604,11	380,00
3607,60	297,00
3611,08	364,00
3614,55	339,00
3618,03	248,00
3621,50	237,00
3624,97	314,00
3628,43	445,00
3631,90	316,00
3635,36	279,00
3638,81	354,00
3642,27	408,00
3645,72	305,00
3649,17	377,00
3652,61	285,00
3656,06	274,00
3659,50	256,00
3662,93	252,00
3666,37	314,00
3669,80	378,00
3673,23	251,00
3676,65	364,00
3680,08	293,00
3683,50	317,00
3686,92	354,00
3690,33	315,00
3693,74	300,00
3697,15	218,00
3700,56	242,00
3703,96	339,00
3707,36	241,00
3710,76	280,00
3714,16	311,00
3717,55	231,00
3720,94	298,00
3724,33	307,00
3727,71	318,00
3731,10	253,00
3734,48	206,00
3737,85	264,00
3741,23	216,00
3744,60	319,00
3747,97	278,00
3751,33	246,00
3754,69	284,00
3758,05	313,00
3761,41	255,00
3764,77	262,00
3768,12	246,00
3771,47	296,00
3774,82	351,00
3778,16	-8,00
3781,50	1,00
3784,84	-3,00
3788,18	3,00
>>>>>End Processed Spectral Data<<<<<
