SpectraSuite Data File
++++++++++++++++++++++++++++++++++++
Date: Mon Mar 09 14:46:11 ICT 2026
User: Administrator
Dark Spectrum Present: Yes
Reference Spectrum Present: No
Number of Sampled Component Spectra: 1
Spectrometers: MAYP113682
Integration Time (usec): 3000000 (MAYP113682)
Spectra Averaged: 1 (MAYP113682)
Boxcar Smoothing: 0 (MAYP113682)
Correct for Electrical Dark: No (MAYP113682)
Strobe/Lamp Enabled: No (MAYP113682)
Correct for Detector Non-linearity: No (MAYP113682)
Correct for Stray Light: No (MAYP113682)
Number of Pixels in Processed Spectrum: 2068
>>>>>Begin Processed Spectral Data<<<<<
-37534,58	36,00
-37414,56	2,00
-37295,11	1,00
-37176,24	9,00
-37057,95	526,00
-36940,22	554,00
-36823,05	641,00
-36706,45	777,00
-36590,40	630,00
-36474,90	610,00
-36359,95	765,00
-36245,55	666,00
-36131,68	800,00
-36018,35	639,00
-35905,55	693,00
-35793,29	710,00
-35681,54	691,00
-35570,32	668,00
-35459,62	711,00
-35349,43	713,00
-35239,75	682,00
-35130,58	625,00
-35021,91	721,00
-34913,74	732,00
-34806,07	707,00
-34698,89	819,00
-34592,20	626,00
-34486,00	901,00
-34380,28	642,00
-34275,04	737,00
-34170,27	713,00
-34065,98	759,00
-33962,16	699,00
-33858,81	687,00
-33755,92	749,00
-33653,49	921,00
-33551,52	861,00
-33450,01	698,00
-33348,94	700,00
-33248,33	749,00
-33148,16	779,00
-33048,43	753,00
-32949,14	762,00
-32850,29	844,00
-32751,87	760,00
-32653,89	843,00
-32556,33	859,00
-32459,20	778,00
-32362,49	831,00
-32266,19	740,00
-32170,32	711,00
-32074,86	805,00
-31979,82	801,00
-31885,18	843,00
-31790,95	881,00
-31697,12	757,00
-31603,69	856,00
-31510,67	776,00
-31418,04	699,00
-31325,80	879,00
-31233,95	768,00
-31142,49	759,00
-31051,42	822,00
-30960,73	840,00
-30870,43	892,00
-30780,50	769,00
-30690,95	751,00
-30601,77	883,00
-30512,97	686,00
-30424,53	752,00
-30336,46	782,00
-30248,76	852,00
-30161,42	809,00
-30074,44	755,00
-29987,81	820,00
-29901,55	888,00
-29815,63	694,00
-29730,07	776,00
-29644,86	774,00
-29560,00	832,00
-29475,48	815,00
-29391,30	832,00
-29307,47	584,00
-29223,97	757,00
-29140,81	746,00
-29057,99	886,00
-28975,50	766,00
-28893,34	909,00
-28811,51	792,00
-28730,00	780,00
-28648,82	718,00
-28567,97	883,00
-28487,43	810,00
-28407,21	764,00
-28327,32	739,00
-28247,73	805,00
-28168,46	730,00
-28089,50	870,00
-28010,85	656,00
-27932,51	642,00
-27854,48	863,00
-27776,75	667,00
-27699,32	778,00
-27622,19	823,00
-27545,37	834,00
-27468,84	798,00
-27392,60	843,00
-27316,66	759,00
-27241,01	704,00
-27165,66	770,00
-27090,59	720,00
-27015,81	824,00
-26941,31	872,00
-26867,10	801,00
-26793,17	791,00
-26719,52	872,00
-26646,15	705,00
-26573,06	866,00
-26500,24	802,00
-26427,70	774,00
-26355,43	784,00
-26283,43	858,00
-26211,71	989,00
-26140,25	823,00
-26069,06	1032,00
-25998,13	678,00
-25927,46	799,00
-25857,06	813,00
-25786,92	688,00
-25717,04	708,00
-25647,42	787,00
-25578,05	760,00
-25508,94	778,00
-25440,09	775,00
-25371,48	736,00
-25303,13	708,00
-25235,02	789,00
-25167,17	839,00
-25099,56	862,00
-25032,19	726,00
-24965,07	745,00
-24898,20	753,00
-24831,56	812,00
-24765,17	766,00
-24699,01	742,00
-24633,10	809,00
-24567,41	691,00
-24501,97	807,00
-24436,75	799,00
-24371,77	686,00
-24307,03	750,00
-24242,51	714,00
-24178,22	933,00
-24114,16	724,00
-24050,32	747,00
-23986,71	746,00
-23923,32	766,00
-23860,16	713,00
-23797,22	770,00
-23734,50	857,00
-23672,00	773,00
-23609,71	654,00
-23547,65	704,00
-23485,80	763,00
-23424,16	748,00
-23362,74	864,00
-23301,53	735,00
-23240,54	706,00
-23179,75	829,00
-23119,17	710,00
-23058,80	796,00
-22998,64	806,00
-22938,68	760,00
-22878,93	746,00
-22819,39	767,00
-22760,04	742,00
-22700,90	824,00
-22641,96	709,00
-22583,22	789,00
-22524,68	787,00
-22466,33	707,00
-22408,19	789,00
-22350,23	797,00
-22292,48	817,00
-22234,92	797,00
-22177,55	931,00
-22120,37	828,00
-22063,38	764,00
-22006,58	663,00
-21949,98	748,00
-21893,56	589,00
-21837,33	818,00
-21781,28	818,00
-21725,42	672,00
-21669,74	745,00
-21614,25	787,00
-21558,94	726,00
-21503,81	724,00
-21448,86	761,00
-21394,10	763,00
-21339,51	684,00
-21285,10	709,00
-21230,86	681,00
-21176,81	700,00
-21122,93	724,00
-21069,22	760,00
-21015,69	682,00
-20962,33	849,00
-20909,14	750,00
-20856,13	737,00
-20803,28	755,00
-20750,61	713,00
-20698,10	675,00
-20645,76	796,00
-20593,59	880,00
-20541,59	807,00
-20489,75	813,00
-20438,07	743,00
-20386,56	918,00
-20335,22	757,00
-20284,03	703,00
-20233,01	760,00
-20182,15	657,00
-20131,45	711,00
-20080,91	675,00
-20030,52	714,00
-19980,30	694,00
-19930,23	686,00
-19880,32	759,00
-19830,56	803,00
-19780,96	737,00
-19731,52	768,00
-19682,23	771,00
-19633,09	659,00
-19584,10	695,00
-19535,26	674,00
-19486,58	881,00
-19438,04	704,00
-19389,66	723,00
-19341,42	801,00
-19293,33	728,00
-19245,39	700,00
-19197,60	703,00
-19149,95	778,00
-19102,45	894,00
-19055,09	791,00
-19007,87	784,00
-18960,80	805,00
-18913,87	756,00
-18867,09	773,00
-18820,44	820,00
-18773,94	798,00
-18727,57	683,00
-18681,35	656,00
-18635,26	828,00
-18589,31	693,00
-18543,50	606,00
-18497,83	773,00
-18452,29	846,00
-18406,89	720,00
-18361,63	846,00
-18316,50	755,00
-18271,50	722,00
-18226,63	764,00
-18181,90	822,00
-18137,30	769,00
-18092,84	704,00
-18048,50	806,00
-18004,29	673,00
-17960,22	754,00
-17916,27	721,00
-17872,45	748,00
-17828,76	707,00
-17785,20	900,00
-17741,77	784,00
-17698,46	651,00
-17655,28	661,00
-17612,22	728,00
-17569,29	670,00
-17526,48	753,00
-17483,79	749,00
-17441,23	780,00
-17398,79	748,00
-17356,48	748,00
-17314,28	944,00
-17272,21	737,00
-17230,26	712,00
-17188,42	903,00
-17146,71	741,00
-17105,12	800,00
-17063,64	779,00
-17022,28	687,00
-16981,04	714,00
-16939,92	796,00
-16898,91	893,00
-16858,02	804,00
-16817,25	686,00
-16776,59	684,00
-16736,04	720,00
-16695,61	685,00
-16655,29	745,00
-16615,09	804,00
-16574,99	729,00
-16535,01	682,00
-16495,15	759,00
-16455,39	824,00
-16415,74	721,00
-16376,21	716,00
-16336,78	669,00
-16297,46	743,00
-16258,26	851,00
-16219,16	819,00
-16180,17	754,00
-16141,28	776,00
-16102,51	800,00
-16063,84	691,00
-16025,27	763,00
-15986,82	669,00
-15948,46	703,00
-15910,22	746,00
-15872,07	788,00
-15834,04	683,00
-15796,10	711,00
-15758,27	841,00
-15720,54	717,00
-15682,91	729,00
-15645,39	756,00
-15607,97	744,00
-15570,64	747,00
-15533,42	790,00
-15496,30	771,00
-15459,28	759,00
-15422,36	734,00
-15385,54	699,00
-15348,82	756,00
-15312,19	804,00
-15275,66	677,00
-15239,23	785,00
-15202,90	683,00
-15166,67	658,00
-15130,53	729,00
-15094,48	793,00
-15058,54	766,00
-15022,68	630,00
-14986,93	716,00
-14951,26	813,00
-14915,69	599,00
-14880,22	664,00
-14844,84	773,00
-14809,55	749,00
-14774,35	725,00
-14739,25	893,00
-14704,24	770,00
-14669,32	799,00
-14634,49	751,00
-14599,75	796,00
-14565,10	614,00
-14530,55	823,00
-14496,08	734,00
-14461,70	760,00
-14427,41	642,00
-14393,21	710,00
-14359,10	720,00
-14325,07	846,00
-14291,14	790,00
-14257,29	779,00
-14223,52	774,00
-14189,85	871,00
-14156,26	722,00
-14122,76	743,00
-14089,34	767,00
-14056,01	692,00
-14022,76	792,00
-13989,60	845,00
-13956,52	788,00
-13923,53	826,00
-13890,62	710,00
-13857,79	756,00
-13825,05	687,00
-13792,39	710,00
-13759,81	781,00
-13727,31	650,00
-13694,90	774,00
-13662,57	779,00
-13630,31	789,00
-13598,14	676,00
-13566,05	719,00
-13534,05	777,00
-13502,12	689,00
-13470,27	775,00
-13438,50	832,00
-13406,80	807,00
-13375,19	608,00
-13343,66	782,00
-13312,20	750,00
-13280,83	586,00
-13249,53	782,00
-13218,30	624,00
-13187,16	740,00
-13156,09	850,00
-13125,10	839,00
-13094,18	743,00
-13063,34	789,00
-13032,58	728,00
-13001,89	823,00
-12971,28	793,00
-12940,74	752,00
-12910,27	719,00
-12879,88	746,00
-12849,57	820,00
-12819,33	704,00
-12789,16	799,00
-12759,06	681,00
-12729,04	782,00
-12699,09	1736,00
-12669,21	772,00
-12639,41	778,00
-12609,68	849,00
-12580,02	834,00
-12550,43	885,00
-12520,91	614,00
-12491,46	780,00
-12462,08	710,00
-12432,77	707,00
-12403,54	680,00
-12374,37	760,00
-12345,27	829,00
-12316,24	713,00
-12287,29	884,00
-12258,40	722,00
-12229,57	793,00
-12200,82	879,00
-12172,14	796,00
-12143,52	624,00
-12114,97	678,00
-12086,49	723,00
-12058,07	762,00
-12029,73	760,00
-12001,44	834,00
-11973,23	678,00
-11945,08	778,00
-11917,00	728,00
-11888,98	717,00
-11861,03	727,00
-11833,15	811,00
-11805,32	712,00
-11777,57	783,00
-11749,88	709,00
-11722,25	668,00
-11694,69	728,00
-11667,19	756,00
-11639,75	721,00
-11612,38	819,00
-11585,07	759,00
-11557,83	804,00
-11530,65	934,00
-11503,53	815,00
-11476,47	854,00
-11449,48	772,00
-11422,54	787,00
-11395,67	764,00
-11368,86	830,00
-11342,11	738,00
-11315,43	762,00
-11288,80	656,00
-11262,23	849,00
-11235,73	695,00
-11209,28	796,00
-11182,90	750,00
-11156,57	783,00
-11130,31	737,00
-11104,10	779,00
-11077,96	773,00
-11051,87	736,00
-11025,84	862,00
-10999,87	698,00
-10973,96	875,00
-10948,11	779,00
-10922,31	710,00
-10896,58	814,00
-10870,90	985,00
-10845,28	777,00
-10819,71	637,00
-10794,20	766,00
-10768,75	839,00
-10743,36	782,00
-10718,02	719,00
-10692,74	807,00
-10667,52	640,00
-10642,35	802,00
-10617,24	802,00
-10592,18	853,00
-10567,18	710,00
-10542,23	735,00
-10517,34	750,00
-10492,51	809,00
-10467,72	762,00
-10443,00	730,00
-10418,32	814,00
-10393,70	694,00
-10369,14	730,00
-10344,63	811,00
-10320,17	807,00
-10295,77	760,00
-10271,42	841,00
-10247,12	759,00
-10222,88	866,00
-10198,68	610,00
-10174,54	754,00
-10150,46	717,00
-10126,42	838,00
-10102,44	841,00
-10078,51	741,00
-10054,63	862,00
-10030,80	702,00
-10007,03	835,00
-9983,30	796,00
-9959,63	716,00
-9936,01	877,00
-9912,44	773,00
-9888,92	761,00
-9865,44	715,00
-9842,02	817,00
-9818,65	795,00
-9795,33	764,00
-9772,06	843,00
-9748,84	691,00
-9725,67	784,00
-9702,55	688,00
-9679,47	876,00
-9656,45	797,00
-9633,47	712,00
-9610,55	791,00
-9587,67	880,00
-9564,84	898,00
-9542,06	784,00
-9519,32	876,00
-9496,64	890,00
-9474,00	677,00
-9451,41	758,00
-9428,87	880,00
-9406,37	716,00
-9383,92	789,00
-9361,52	853,00
-9339,17	783,00
-9316,86	725,00
-9294,60	686,00
-9272,38	944,00
-9250,21	861,00
-9228,09	857,00
-9206,01	891,00
-9183,98	788,00
-9162,00	727,00
-9140,06	760,00
-9118,16	738,00
-9096,31	846,00
-9074,51	819,00
-9052,75	891,00
-9031,04	944,00
-9009,37	646,00
-8987,74	723,00
-8966,16	772,00
-8944,63	681,00
-8923,14	798,00
-8901,69	703,00
-8880,29	668,00
-8858,93	710,00
-8837,61	865,00
-8816,34	822,00
-8795,11	775,00
-8773,92	849,00
-8752,78	940,00
-8731,68	781,00
-8710,62	785,00
-8689,61	693,00
-8668,63	734,00
-8647,70	971,00
-8626,82	757,00
-8605,97	954,00
-8585,17	859,00
-8564,41	739,00
-8543,69	803,00
-8523,01	727,00
-8502,37	1009,00
-8481,78	802,00
-8461,23	597,00
-8440,71	807,00
-8420,24	707,00
-8399,81	819,00
-8379,42	892,00
-8359,08	834,00
-8338,77	696,00
-8318,50	814,00
-8298,27	744,00
-8278,09	769,00
-8257,94	741,00
-8237,83	863,00
-8217,76	843,00
-8197,74	774,00
-8177,75	886,00
-8157,80	826,00
-8137,89	822,00
-8118,02	727,00
-8098,19	965,00
-8078,40	834,00
-8058,65	780,00
-8038,93	872,00
-8019,26	955,00
-7999,62	876,00
-7980,02	806,00
-7960,46	846,00
-7940,94	803,00
-7921,46	814,00
-7902,01	653,00
-7882,60	950,00
-7863,23	803,00
-7843,90	840,00
-7824,61	851,00
-7805,35	913,00
-7786,13	860,00
-7766,95	754,00
-7747,80	801,00
-7728,69	954,00
-7709,62	830,00
-7690,59	845,00
-7671,59	848,00
-7652,63	843,00
-7633,70	810,00
-7614,81	922,00
-7595,96	705,00
-7577,15	806,00
-7558,37	706,00
-7539,62	825,00
-7520,91	803,00
-7502,24	842,00
-7483,60	881,00
-7465,00	899,00
-7446,44	829,00
-7427,91	754,00
-7409,41	832,00
-7390,95	815,00
-7372,53	765,00
-7354,14	825,00
-7335,78	756,00
-7317,46	722,00
-7299,18	827,00
-7280,92	845,00
-7262,71	883,00
-7244,52	812,00
-7226,38	824,00
-7208,26	841,00
-7190,18	819,00
-7172,14	830,00
-7154,12	925,00
-7136,15	751,00
-7118,20	745,00
-7100,29	872,00
-7082,41	875,00
-7064,57	853,00
-7046,76	797,00
-7028,98	712,00
-7011,24	1114,00
-6993,53	623,00
-6975,85	708,00
-6958,20	675,00
-6940,59	751,00
-6923,01	685,00
-6905,46	838,00
-6887,94	799,00
-6870,46	1154,00
-6853,01	712,00
-6835,59	826,00
-6818,21	744,00
-6800,85	915,00
-6783,53	731,00
-6766,24	695,00
-6748,98	693,00
-6731,76	720,00
-6714,56	585,00
-6697,40	722,00
-6680,26	634,00
-6663,16	757,00
-6646,09	881,00
-6629,05	704,00
-6612,05	790,00
-6595,07	739,00
-6578,13	728,00
-6561,21	688,00
-6544,33	796,00
-6527,47	734,00
-6510,65	746,00
-6493,86	767,00
-6477,10	613,00
-6460,36	662,00
-6443,66	740,00
-6426,99	717,00
-6410,35	609,00
-6393,74	723,00
-6377,16	696,00
-6360,61	670,00
-6344,09	656,00
-6327,59	577,00
-6311,13	600,00
-6294,70	790,00
-6278,29	782,00
-6261,92	756,00
-6245,58	737,00
-6229,26	877,00
-6212,97	808,00
-6196,72	775,00
-6180,49	796,00
-6164,29	663,00
-6148,12	744,00
-6131,98	658,00
-6115,86	704,00
-6099,78	675,00
-6083,72	701,00
-6067,69	655,00
-6051,69	735,00
-6035,72	735,00
-6019,78	757,00
-6003,87	757,00
-5987,98	790,00
-5972,12	745,00
-5956,29	778,00
-5940,49	641,00
-5924,71	850,00
-5908,96	687,00
-5893,24	682,00
-5877,55	655,00
-5861,89	797,00
-5846,25	697,00
-5830,64	689,00
-5815,05	675,00
-5799,50	686,00
-5783,97	756,00
-5768,47	794,00
-5752,99	896,00
-5737,55	686,00
-5722,12	719,00
-5706,73	722,00
-5691,36	766,00
-5676,02	635,00
-5660,71	827,00
-5645,42	703,00
-5630,16	736,00
-5614,92	745,00
-5599,71	625,00
-5584,53	764,00
-5569,37	646,00
-5554,24	1612,00
-5539,14	715,00
-5524,06	812,00
-5509,01	699,00
-5493,98	691,00
-5478,98	769,00
-5464,00	682,00
-5449,05	625,00
-5434,13	767,00
-5419,23	851,00
-5404,36	632,00
-5389,51	707,00
-5374,69	677,00
-5359,89	737,00
-5345,12	790,00
-5330,37	912,00
-5315,65	962,00
-5300,95	821,00
-5286,28	661,00
-5271,63	575,00
-5257,01	655,00
-5242,41	772,00
-5227,84	797,00
-5213,29	735,00
-5198,76	767,00
-5184,26	690,00
-5169,79	776,00
-5155,33	794,00
-5140,91	799,00
-5126,51	723,00
-5112,13	721,00
-5097,77	857,00
-5083,44	853,00
-5069,13	625,00
-5054,85	716,00
-5040,59	690,00
-5026,36	749,00
-5012,15	782,00
-4997,96	699,00
-4983,80	719,00
-4969,66	791,00
-4955,54	731,00
-4941,44	715,00
-4927,37	757,00
-4913,33	830,00
-4899,30	630,00
-4885,30	687,00
-4871,33	765,00
-4857,37	797,00
-4843,44	768,00
-4829,53	859,00
-4815,65	883,00
-4801,79	619,00
-4787,95	696,00
-4774,13	679,00
-4760,34	717,00
-4746,56	828,00
-4732,82	669,00
-4719,09	726,00
-4705,38	848,00
-4691,70	764,00
-4678,04	709,00
-4664,41	765,00
-4650,79	946,00
-4637,20	754,00
-4623,63	707,00
-4610,08	756,00
-4596,56	780,00
-4583,05	685,00
-4569,57	789,00
-4556,11	786,00
-4542,67	661,00
-4529,25	694,00
-4515,86	871,00
-4502,49	762,00
-4489,13	779,00
-4475,80	753,00
-4462,49	717,00
-4449,21	892,00
-4435,94	794,00
-4422,70	831,00
-4409,47	626,00
-4396,27	758,00
-4383,09	729,00
-4369,93	744,00
-4356,79	813,00
-4343,67	763,00
-4330,58	738,00
-4317,50	715,00
-4304,45	772,00
-4291,41	757,00
-4278,40	741,00
-4265,41	699,00
-4252,44	683,00
-4239,49	678,00
-4226,55	727,00
-4213,65	832,00
-4200,76	810,00
-4187,89	720,00
-4175,04	776,00
-4162,21	873,00
-4149,40	763,00
-4136,61	768,00
-4123,85	761,00
-4111,10	754,00
-4098,37	836,00
-4085,66	845,00
-4072,98	821,00
-4060,31	660,00
-4047,66	851,00
-4035,04	820,00
-4022,43	738,00
-4009,84	862,00
-3997,27	717,00
-3984,72	762,00
-3972,19	863,00
-3959,69	650,00
-3947,20	693,00
-3934,73	792,00
-3922,27	693,00
-3909,84	755,00
-3897,43	797,00
-3885,04	774,00
-3872,67	716,00
-3860,31	773,00
-3847,98	882,00
-3835,66	721,00
-3823,36	909,00
-3811,09	672,00
-3798,83	792,00
-3786,59	843,00
-3774,37	813,00
-3762,17	678,00
-3749,98	682,00
-3737,82	645,00
-3725,67	974,00
-3713,55	651,00
-3701,44	846,00
-3689,35	752,00
-3677,28	846,00
-3665,22	762,00
-3653,19	724,00
-3641,17	763,00
-3629,18	864,00
-3617,20	792,00
-3605,24	728,00
-3593,30	800,00
-3581,37	719,00
-3569,47	810,00
-3557,58	746,00
-3545,71	780,00
-3533,86	856,00
-3522,02	754,00
-3510,21	749,00
-3498,41	748,00
-3486,63	848,00
-3474,87	729,00
-3463,12	709,00
-3451,40	701,00
-3439,69	793,00
-3428,00	822,00
-3416,33	810,00
-3404,67	704,00
-3393,03	854,00
-3381,41	865,00
-3369,81	796,00
-3358,22	724,00
-3346,66	785,00
-3335,10	762,00
-3323,57	691,00
-3312,06	824,00
-3300,56	737,00
-3289,08	682,00
-3277,61	686,00
-3266,16	841,00
-3254,73	785,00
-3243,32	767,00
-3231,92	776,00
-3220,55	837,00
-3209,18	788,00
-3197,84	755,00
-3186,51	673,00
-3175,20	668,00
-3163,90	679,00
-3152,63	714,00
-3141,36	777,00
-3130,12	787,00
-3118,89	826,00
-3107,68	866,00
-3096,49	841,00
-3085,31	794,00
-3074,15	741,00
-3063,00	797,00
-3051,87	867,00
-3040,76	749,00
-3029,67	705,00
-3018,59	971,00
-3007,52	897,00
-2996,48	881,00
-2985,44	688,00
-2974,43	788,00
-2963,43	796,00
-2952,45	697,00
-2941,48	795,00
-2930,53	896,00
-2919,60	649,00
-2908,68	710,00
-2897,78	803,00
-2886,89	861,00
-2876,02	801,00
-2865,17	788,00
-2854,33	753,00
-2843,50	606,00
-2832,70	765,00
-2821,90	823,00
-2811,13	770,00
-2800,37	809,00
-2789,62	755,00
-2778,89	753,00
-2768,18	875,00
-2757,48	830,00
-2746,80	801,00
-2736,13	813,00
-2725,48	785,00
-2714,84	788,00
-2704,22	692,00
-2693,61	739,00
-2683,02	751,00
-2672,45	698,00
-2661,89	790,00
-2651,34	811,00
-2640,81	751,00
-2630,30	878,00
-2619,80	795,00
-2609,31	839,00
-2598,84	647,00
-2588,39	772,00
-2577,95	722,00
-2567,52	677,00
-2557,11	811,00
-2546,71	721,00
-2536,33	887,00
-2525,97	766,00
-2515,62	760,00
-2505,28	763,00
-2494,96	678,00
-2484,65	718,00
-2474,36	958,00
-2464,08	695,00
-2453,82	833,00
-2443,57	783,00
-2433,33	646,00
-2423,11	782,00
-2412,91	793,00
-2402,72	656,00
-2392,54	831,00
-2382,38	734,00
-2372,23	871,00
-2362,09	4807,00
-2351,97	676,00
-2341,87	760,00
-2331,78	803,00
-2321,70	756,00
-2311,64	848,00
-2301,59	673,00
-2291,55	691,00
-2281,53	787,00
-2271,53	737,00
-2261,53	759,00
-2251,55	709,00
-2241,59	725,00
-2231,64	786,00
-2221,70	734,00
-2211,78	809,00
-2201,87	801,00
-2191,97	814,00
-2182,09	702,00
-2172,22	895,00
-2162,37	774,00
-2152,53	795,00
-2142,70	699,00
-2132,89	653,00
-2123,09	862,00
-2113,30	748,00
-2103,53	750,00
-2093,77	709,00
-2084,02	694,00
-2074,29	852,00
-2064,57	819,00
-2054,86	838,00
-2045,17	785,00
-2035,49	824,00
-2025,82	732,00
-2016,17	722,00
-2006,53	774,00
-1996,91	766,00
-1987,29	739,00
-1977,69	828,00
-1968,11	801,00
-1958,53	758,00
-1948,97	837,00
-1939,42	792,00
-1929,89	628,00
-1920,37	786,00
-1910,86	789,00
-1901,36	795,00
-1891,88	807,00
-1882,41	768,00
-1872,95	787,00
-1863,51	807,00
-1854,08	753,00
-1844,66	803,00
-1835,26	724,00
-1825,86	763,00
-1816,48	760,00
-1807,11	763,00
-1797,76	801,00
-1788,42	766,00
-1779,09	877,00
-1769,77	774,00
-1760,47	942,00
-1751,17	741,00
-1741,89	789,00
-1732,63	804,00
-1723,37	1037,00
-1714,13	844,00
-1704,90	738,00
-1695,68	849,00
-1686,48	713,00
-1677,29	807,00
-1668,11	936,00
-1658,94	860,00
-1649,78	778,00
-1640,64	861,00
-1631,51	748,00
-1622,39	825,00
-1613,28	789,00
-1604,19	901,00
-1595,10	800,00
-1586,03	642,00
-1576,97	839,00
-1567,93	766,00
-1558,89	825,00
-1549,87	804,00
-1540,86	701,00
-1531,86	773,00
-1522,87	764,00
-1513,90	829,00
-1504,93	791,00
-1495,98	875,00
-1487,04	889,00
-1478,12	844,00
-1469,20	775,00
-1460,30	794,00
-1451,40	934,00
-1442,52	746,00
-1433,65	800,00
-1424,80	796,00
-1415,95	794,00
-1407,12	859,00
-1398,30	722,00
-1389,48	746,00
-1380,69	797,00
-1371,90	804,00
-1363,12	873,00
-1354,36	943,00
-1345,60	771,00
-1336,86	769,00
-1328,13	947,00
-1319,41	846,00
-1310,70	759,00
-1302,01	728,00
-1293,32	693,00
-1284,65	691,00
-1275,99	790,00
-1267,33	820,00
-1258,69	782,00
-1250,06	890,00
-1241,45	770,00
-1232,84	913,00
-1224,25	796,00
-1215,66	853,00
-1207,09	854,00
-1198,53	776,00
-1189,97	710,00
-1181,43	812,00
-1172,91	853,00
-1164,39	850,00
-1155,88	789,00
-1147,38	600,00
-1138,90	764,00
-1130,43	741,00
-1121,96	777,00
-1113,51	888,00
-1105,07	749,00
-1096,64	746,00
-1088,22	796,00
-1079,81	844,00
-1071,41	860,00
-1063,02	766,00
-1054,65	862,00
-1046,28	740,00
-1037,92	888,00
-1029,58	724,00
-1021,24	775,00
-1012,92	1091,00
-1004,61	839,00
-996,30	1056,00
-988,01	681,00
-979,73	838,00
-971,46	850,00
-963,20	709,00
-954,95	770,00
-946,71	752,00
-938,48	709,00
-930,26	875,00
-922,06	789,00
-913,86	855,00
-905,67	737,00
-897,49	746,00
-889,33	725,00
-881,17	884,00
-873,02	806,00
-864,89	616,00
-856,76	711,00
-848,65	745,00
-840,54	877,00
-832,45	858,00
-824,36	711,00
-816,29	823,00
-808,22	757,00
-800,17	808,00
-792,12	896,00
-784,09	1036,00
-776,06	725,00
-768,05	893,00
-760,04	692,00
-752,05	806,00
-744,07	872,00
-736,09	951,00
-728,13	697,00
-720,17	768,00
-712,23	766,00
-704,29	812,00
-696,37	817,00
-688,45	802,00
-680,55	730,00
-672,65	753,00
-664,77	733,00
-656,89	845,00
-649,03	701,00
-641,17	808,00
-633,32	844,00
-625,49	717,00
-617,66	800,00
-609,84	766,00
-602,03	725,00
-594,23	752,00
-586,45	777,00
-578,67	704,00
-570,90	756,00
-563,14	708,00
-555,39	835,00
-547,65	856,00
-539,91	804,00
-532,19	730,00
-524,48	812,00
-516,78	823,00
-509,08	790,00
-501,40	737,00
-493,72	772,00
-486,06	768,00
-478,40	948,00
-470,76	765,00
-463,12	762,00
-455,49	774,00
-447,87	698,00
-440,26	728,00
-432,66	733,00
-425,07	799,00
-417,49	743,00
-409,92	725,00
-402,35	664,00
-394,80	759,00
-387,25	792,00
-379,72	843,00
-372,19	731,00
-364,67	814,00
-357,17	811,00
-349,67	769,00
-342,18	680,00
-334,69	842,00
-327,22	853,00
-319,76	807,00
-312,30	818,00
-304,86	825,00
-297,42	813,00
-290,00	783,00
-282,58	834,00
-275,17	861,00
-267,77	831,00
-260,37	669,00
-252,99	879,00
-245,62	859,00
-238,25	774,00
-230,90	757,00
-223,55	867,00
-216,21	839,00
-208,88	786,00
-201,56	916,00
-194,25	885,00
-186,94	835,00
-179,65	903,00
-172,36	931,00
-165,08	836,00
-157,81	1032,00
-150,55	954,00
-143,30	980,00
-136,06	980,00
-128,82	986,00
-121,60	943,00
-114,38	1063,00
-107,17	1057,00
-99,97	1202,00
-92,78	1177,00
-85,60	1337,00
-78,42	1303,00
-71,25	1465,00
-64,10	1452,00
-56,95	1629,00
-49,81	1787,00
-42,67	2266,00
-35,55	2414,00
-28,43	3108,00
-21,33	4609,00
-14,23	13429,00
-7,14	57775,00
-0,05	57564,00
7,02	57281,00
14,09	44754,00
21,14	12167,00
28,19	5429,00
35,23	3740,00
42,27	2980,00
49,29	2634,00
56,31	2405,00
63,32	2181,00
70,32	1780,00
77,31	1600,00
84,29	1436,00
91,27	1531,00
98,23	1562,00
105,19	1296,00
112,14	1442,00
119,09	1748,00
126,02	2185,00
132,95	2489,00
139,87	2608,00
146,78	2723,00
153,68	2484,00
160,58	2501,00
167,46	2419,00
174,34	2477,00
181,21	2561,00
188,08	2502,00
194,93	2544,00
201,78	2537,00
208,62	2452,00
215,45	2483,00
222,27	2501,00
229,09	2668,00
235,90	2496,00
242,70	2492,00
249,49	2652,00
256,27	2376,00
263,05	2519,00
269,82	2457,00
276,58	2575,00
283,33	2326,00
290,08	2396,00
296,82	2463,00
303,55	2337,00
310,27	2262,00
316,98	2385,00
323,69	2304,00
330,39	2301,00
337,08	2467,00
343,76	2452,00
350,44	2456,00
357,11	2386,00
363,77	2376,00
370,42	2241,00
377,07	2554,00
383,71	2329,00
390,34	2287,00
396,96	2380,00
403,58	2271,00
410,19	2458,00
416,79	2497,00
423,38	2476,00
429,97	2485,00
436,55	2218,00
443,12	2256,00
449,68	2244,00
456,24	2332,00
462,79	2420,00
469,33	2316,00
475,86	2258,00
482,39	2265,00
488,91	2352,00
495,42	2159,00
501,93	2395,00
508,42	2237,00
514,91	2348,00
521,40	2208,00
527,87	2262,00
534,34	2204,00
540,80	2312,00
547,25	2280,00
553,70	2345,00
560,14	2261,00
566,57	2333,00
573,00	2236,00
579,41	2344,00
585,83	2336,00
592,23	2259,00
598,62	2297,00
605,01	2215,00
611,40	2262,00
617,77	2337,00
624,14	2258,00
630,50	2328,00
636,85	2282,00
643,20	2269,00
649,54	2177,00
655,87	2206,00
662,20	2348,00
668,52	2267,00
674,83	2339,00
681,13	2280,00
687,43	2175,00
693,72	2261,00
700,00	2087,00
706,28	2252,00
712,55	2222,00
718,81	2308,00
725,07	2210,00
731,32	2215,00
737,56	2286,00
743,79	2308,00
750,02	2337,00
756,24	2130,00
762,46	2308,00
768,67	2611,00
774,87	2244,00
781,06	2285,00
787,25	2264,00
793,43	2331,00
799,60	2052,00
805,77	2389,00
811,93	2163,00
818,08	2184,00
824,23	2200,00
830,37	2499,00
836,50	2313,00
842,63	2281,00
848,75	2326,00
854,87	2339,00
860,97	2226,00
867,07	2253,00
873,17	2242,00
879,25	2270,00
885,33	2261,00
891,41	2280,00
897,47	2351,00
903,53	2322,00
909,59	2349,00
915,63	2273,00
921,67	2269,00
927,71	2352,00
933,74	2335,00
939,76	2183,00
945,77	2140,00
951,78	2296,00
957,78	2245,00
963,78	2275,00
969,77	2281,00
975,75	2342,00
981,72	2201,00
987,69	3306,00
993,66	2291,00
999,61	2382,00
1005,56	2372,00
1011,51	2207,00
1017,44	2283,00
1023,37	2274,00
1029,30	2343,00
1035,22	2395,00
1041,13	2400,00
1047,03	2316,00
1052,93	2452,00
1058,83	2708,00
1064,71	2935,00
1070,59	2689,00
1076,47	2575,00
1082,33	2500,00
1088,20	2511,00
1094,05	2449,00
1099,90	2343,00
1105,74	2359,00
1111,58	2391,00
1117,41	2510,00
1123,23	2715,00
1129,05	2833,00
1134,86	2835,00
1140,67	2661,00
1146,47	2468,00
1152,26	2438,00
1158,05	2250,00
1163,83	2302,00
1169,60	2435,00
1175,37	2463,00
1181,13	2393,00
1186,89	2403,00
1192,64	2387,00
1198,38	2585,00
1204,12	2280,00
1209,85	2412,00
1215,58	2467,00
1221,30	2402,00
1227,02	2490,00
1232,72	2348,00
1238,43	2288,00
1244,12	2401,00
1249,81	2410,00
1255,50	2487,00
1261,17	2427,00
1266,85	2425,00
1272,51	2507,00
1278,17	2534,00
1283,83	2483,00
1289,47	2819,00
1295,12	3272,00
1300,75	3062,00
1306,38	2770,00
1312,01	2573,00
1317,63	2646,00
1323,24	2497,00
1328,85	2642,00
1334,45	2452,00
1340,04	2564,00
1345,63	2447,00
1351,22	2631,00
1356,80	2505,00
1362,37	2531,00
1367,93	2432,00
1373,49	2603,00
1379,05	2421,00
1384,60	2425,00
1390,14	2534,00
1395,68	2603,00
1401,21	2456,00
1406,74	2550,00
1412,26	2664,00
1417,77	2959,00
1423,28	2677,00
1428,78	2803,00
1434,28	3102,00
1439,77	3171,00
1445,26	3143,00
1450,74	3121,00
1456,22	3049,00
1461,68	3033,00
1467,15	2972,00
1472,61	2684,00
1478,06	2829,00
1483,51	2716,00
1488,95	2502,00
1494,38	2530,00
1499,81	2478,00
1505,24	2336,00
1510,65	2530,00
1516,07	2532,00
1521,48	2380,00
1526,88	2252,00
1532,27	2417,00
1537,67	2330,00
1543,05	2462,00
1548,43	2293,00
1553,81	2467,00
1559,18	2258,00
1564,54	2366,00
1569,90	2401,00
1575,25	2302,00
1580,60	2166,00
1585,94	2308,00
1591,28	2347,00
1596,61	2293,00
1601,93	2367,00
1607,25	2405,00
1612,57	2366,00
1617,88	2376,00
1623,18	2209,00
1628,48	2362,00
1633,77	2318,00
1639,06	2354,00
1644,34	2277,00
1649,62	2232,00
1654,89	2376,00
1660,16	2232,00
1665,42	2330,00
1670,67	2155,00
1675,92	2316,00
1681,17	2156,00
1686,41	2234,00
1691,64	2417,00
1696,87	2233,00
1702,10	2212,00
1707,32	2357,00
1712,53	2276,00
1717,74	2264,00
1722,94	2221,00
1728,14	2214,00
1733,33	2096,00
1738,52	2209,00
1743,70	2258,00
1748,88	2102,00
1754,05	2113,00
1759,22	2104,00
1764,38	3501,00
1769,53	2114,00
1774,69	2150,00
1779,83	2160,00
1784,97	2062,00
1790,11	2112,00
1795,24	2128,00
1800,36	2187,00
1805,48	2158,00
1810,60	2021,00
1815,71	2052,00
1820,82	2064,00
1825,92	2165,00
1831,01	2114,00
1836,10	2071,00
1841,19	2080,00
1846,26	1994,00
1851,34	2093,00
1856,41	2149,00
1861,47	2054,00
1866,53	2045,00
1871,59	2128,00
1876,64	2097,00
1881,68	2073,00
1886,72	2141,00
1891,76	1983,00
1896,79	2117,00
1901,81	1975,00
1906,83	2036,00
1911,85	1943,00
1916,86	2007,00
1921,86	2064,00
1926,86	1937,00
1931,86	2003,00
1936,85	1999,00
1941,83	2003,00
1946,81	2032,00
1951,79	2013,00
1956,76	1898,00
1961,72	1825,00
1966,68	1837,00
1971,64	1813,00
1976,59	1902,00
1981,54	1925,00
1986,48	1888,00
1991,42	1817,00
1996,35	2191,00
2001,27	1992,00
2006,20	1878,00
2011,11	1873,00
2016,03	1931,00
2020,93	1877,00
2025,84	1842,00
2030,73	1842,00
2035,63	1740,00
2040,52	1891,00
2045,40	1857,00
2050,28	1902,00
2055,15	1834,00
2060,02	1741,00
2064,89	2012,00
2069,75	1821,00
2074,60	1945,00
2079,46	1875,00
2084,30	1772,00
2089,14	1851,00
2093,98	1884,00
2098,81	1912,00
2103,64	1934,00
2108,46	1946,00
2113,28	1795,00
2118,09	1850,00
2122,90	1861,00
2127,70	1770,00
2132,50	1983,00
2137,30	1737,00
2142,09	1778,00
2146,87	1723,00
2151,66	1802,00
2156,43	1939,00
2161,20	1774,00
2165,97	1940,00
2170,73	1712,00
2175,49	1917,00
2180,24	1795,00
2184,99	1893,00
2189,74	1782,00
2194,48	1760,00
2199,21	1777,00
2203,94	1680,00
2208,67	1632,00
2213,39	1652,00
2218,11	1727,00
2222,82	1778,00
2227,53	1687,00
2232,23	1872,00
2236,93	1736,00
2241,63	1761,00
2246,32	1624,00
2251,00	1730,00
2255,68	1676,00
2260,36	1702,00
2265,03	1640,00
2269,70	1780,00
2274,36	1679,00
2279,02	1709,00
2283,68	1711,00
2288,33	1572,00
2292,97	1658,00
2297,61	1733,00
2302,25	1605,00
2306,88	1592,00
2311,51	1580,00
2316,14	1682,00
2320,75	1685,00
2325,37	1613,00
2329,98	1674,00
2334,59	1584,00
2339,19	1667,00
2343,79	1465,00
2348,38	1585,00
2352,97	1634,00
2357,55	1743,00
2362,13	1682,00
2366,71	1457,00
2371,28	1690,00
2375,85	1563,00
2380,41	1663,00
2384,97	1569,00
2389,52	1688,00
2394,07	1640,00
2398,62	1666,00
2403,16	1603,00
2407,70	1484,00
2412,23	1579,00
2416,76	1687,00
2421,29	1580,00
2425,81	1655,00
2430,32	1542,00
2434,84	1376,00
2439,34	1486,00
2443,85	1634,00
2448,35	1528,00
2452,84	1480,00
2457,33	1555,00
2461,82	1350,00
2466,30	1441,00
2470,78	1564,00
2475,25	1373,00
2479,72	1432,00
2484,19	1478,00
2488,65	1528,00
2493,11	1346,00
2497,56	1449,00
2502,01	1363,00
2506,46	1528,00
2510,90	1444,00
2515,34	1601,00
2519,77	1539,00
2524,20	1437,00
2528,62	1357,00
2533,04	1517,00
2537,46	1410,00
2541,87	1303,00
2546,28	1354,00
2550,68	1436,00
2555,08	1379,00
2559,48	1402,00
2563,87	1377,00
2568,26	1449,00
2572,64	1420,00
2577,02	1441,00
2581,40	1295,00
2585,77	1316,00
2590,14	1369,00
2594,50	1216,00
2598,86	1374,00
2603,22	1387,00
2607,57	1345,00
2611,92	1431,00
2616,26	1357,00
2620,60	1449,00
2624,94	1284,00
2629,27	1454,00
2633,60	1212,00
2637,92	1521,00
2642,24	1387,00
2646,56	1284,00
2650,87	1319,00
2655,18	1348,00
2659,48	1208,00
2663,78	1347,00
2668,08	1312,00
2672,37	1257,00
2676,66	1448,00
2680,95	1302,00
2685,23	1288,00
2689,50	1259,00
2693,78	1346,00
2698,05	1240,00
2702,31	1300,00
2706,57	1385,00
2710,83	1483,00
2715,08	1311,00
2719,33	1567,00
2723,58	1357,00
2727,82	1459,00
2732,06	1408,00
2736,29	1313,00
2740,53	1507,00
2744,75	1302,00
2748,97	1410,00
2753,19	1460,00
2757,41	1460,00
2761,62	1335,00
2765,83	1479,00
2770,03	1267,00
2774,23	1247,00
2778,43	1297,00
2782,62	1312,00
2786,81	1335,00
2791,00	1350,00
2795,18	1467,00
2799,35	1375,00
2803,53	1457,00
2807,70	1393,00
2811,86	1306,00
2816,03	1534,00
2820,19	1459,00
2824,34	1355,00
2828,49	1340,00
2832,64	1527,00
2836,78	1672,00
2840,92	1716,00
2845,06	1964,00
2849,19	2017,00
2853,32	2153,00
2857,45	2111,00
2861,57	2045,00
2865,69	1913,00
2869,80	1904,00
2873,91	1971,00
2878,02	2044,00
2882,12	2221,00
2886,22	2259,00
2890,32	2131,00
2894,41	2023,00
2898,50	1926,00
2902,58	1880,00
2906,67	1915,00
2910,74	1655,00
2914,82	1639,00
2918,89	1653,00
2922,96	1591,00
2927,02	1570,00
2931,08	1346,00
2935,13	1376,00
2939,19	1475,00
2943,24	1425,00
2947,28	1382,00
2951,32	1233,00
2955,36	1051,00
2959,40	1410,00
2963,43	1376,00
2967,46	1165,00
2971,48	1196,00
2975,50	1250,00
2979,52	1225,00
2983,53	1229,00
2987,54	1097,00
2991,55	1191,00
2995,55	1155,00
2999,55	1053,00
3003,54	1091,00
3007,54	1127,00
3011,53	1100,00
3015,51	1166,00
3019,49	1147,00
3023,47	1032,00
3027,45	1042,00
3031,42	1018,00
3035,39	994,00
3039,35	1020,00
3043,31	1141,00
3047,27	1101,00
3051,22	1128,00
3055,17	933,00
3059,12	945,00
3063,06	1064,00
3067,00	949,00
3070,94	1017,00
3074,87	1063,00
3078,80	992,00
3082,73	989,00
3086,65	1052,00
3090,57	1018,00
3094,49	1028,00
3098,40	944,00
3102,31	907,00
3106,22	1066,00
3110,12	1043,00
3114,02	912,00
3117,92	1035,00
3121,81	905,00
3125,70	970,00
3129,58	1010,00
3133,47	937,00
3137,34	999,00
3141,22	1013,00
3145,09	1011,00
3148,96	885,00
3152,83	854,00
3156,69	1044,00
3160,55	863,00
3164,40	926,00
3168,26	948,00
3172,10	1067,00
3175,95	993,00
3179,79	892,00
3183,63	909,00
3187,47	899,00
3191,30	835,00
3195,13	1002,00
3198,95	849,00
3202,78	983,00
3206,60	871,00
3210,41	848,00
3214,23	888,00
3218,03	890,00
3221,84	843,00
3225,64	875,00
3229,44	890,00
3233,24	946,00
3237,03	902,00
3240,82	798,00
3244,61	803,00
3248,39	916,00
3252,17	914,00
3255,95	928,00
3259,72	1003,00
3263,49	1012,00
3267,26	801,00
3271,03	816,00
3274,79	906,00
3278,54	931,00
3282,30	745,00
3286,05	799,00
3289,80	893,00
3293,54	854,00
3297,29	889,00
3301,02	824,00
3304,76	861,00
3308,49	949,00
3312,22	822,00
3315,95	776,00
3319,67	786,00
3323,39	937,00
3327,10	859,00
3330,82	789,00
3334,53	816,00
3338,24	794,00
3341,94	826,00
3345,64	761,00
3349,34	840,00
3353,03	829,00
3356,72	857,00
3360,41	931,00
3364,10	896,00
3367,78	808,00
3371,46	892,00
3375,13	821,00
3378,81	878,00
3382,48	875,00
3386,14	927,00
3389,81	856,00
3393,47	779,00
3397,12	963,00
3400,78	760,00
3404,43	842,00
3408,08	889,00
3411,72	829,00
3415,36	766,00
3419,00	774,00
3422,64	859,00
3426,27	771,00
3429,90	787,00
3433,53	760,00
3437,15	746,00
3440,77	671,00
3444,39	739,00
3448,00	804,00
3451,62	801,00
3455,22	823,00
3458,83	814,00
3462,43	837,00
3466,03	869,00
3469,63	832,00
3473,22	878,00
3476,81	738,00
3480,40	784,00
3483,99	759,00
3487,57	881,00
3491,15	759,00
3494,72	800,00
3498,29	761,00
3501,86	737,00
3505,43	852,00
3508,99	855,00
3512,56	795,00
3516,11	801,00
3519,67	736,00
3523,22	813,00
3526,77	824,00
3530,32	719,00
3533,86	902,00
3537,40	816,00
3540,94	811,00
3544,47	694,00
3548,00	742,00
3551,53	775,00
3555,06	819,00
3558,58	811,00
3562,10	793,00
3565,62	784,00
3569,13	815,00
3572,64	744,00
3576,15	644,00
3579,66	651,00
3583,16	807,00
3586,66	645,00
3590,16	674,00
3593,65	702,00
3597,14	734,00
3600,63	686,00
3604,11	892,00
3607,60	753,00
3611,08	744,00
3614,55	723,00
3618,03	615,00
3621,50	699,00
3624,97	707,00
3628,43	848,00
3631,90	727,00
3635,36	709,00
3638,81	711,00
3642,27	828,00
3645,72	691,00
3649,17	817,00
3652,61	637,00
3656,06	675,00
3659,50	690,00
3662,93	715,00
3666,37	770,00
3669,80	898,00
3673,23	719,00
3676,65	774,00
3680,08	776,00
3683,50	638,00
3686,92	754,00
3690,33	651,00
3693,74	680,00
3697,15	598,00
3700,56	684,00
3703,96	710,00
3707,36	607,00
3710,76	643,00
3714,16	651,00
3717,55	635,00
3720,94	726,00
3724,33	719,00
3727,71	798,00
3731,10	688,00
3734,48	608,00
3737,85	555,00
3741,23	668,00
3744,60	672,00
3747,97	684,00
3751,33	587,00
3754,69	603,00
3758,05	604,00
3761,41	613,00
3764,77	638,00
3768,12	564,00
3771,47	593,00
3774,82	669,00
3778,16	-13,00
3781,50	12,00
3784,84	3,00
3788,18	13,00
>>>>>End Processed Spectral Data<<<<<
