SpectraSuite Data File
++++++++++++++++++++++++++++++++++++
Date: Mon Mar 09 14:46:44 ICT 2026
User: Administrator
Dark Spectrum Present: Yes
Reference Spectrum Present: No
Number of Sampled Component Spectra: 1
Spectrometers: MAYP113682
Integration Time (usec): 3000000 (MAYP113682)
Spectra Averaged: 1 (MAYP113682)
Boxcar Smoothing: 0 (MAYP113682)
Correct for Electrical Dark: No (MAYP113682)
Strobe/Lamp Enabled: No (MAYP113682)
Correct for Detector Non-linearity: No (MAYP113682)
Correct for Stray Light: No (MAYP113682)
Number of Pixels in Processed Spectrum: 2068
>>>>>Begin Processed Spectral Data<<<<<
-37534,58	33,00
-37414,56	1,00
-37295,11	5,00
-37176,24	4,00
-37057,95	618,00
-36940,22	537,00
-36823,05	649,00
-36706,45	761,00
-36590,40	618,00
-36474,90	740,00
-36359,95	811,00
-36245,55	697,00
-36131,68	727,00
-36018,35	712,00
-35905,55	688,00
-35793,29	744,00
-35681,54	740,00
-35570,32	746,00
-35459,62	715,00
-35349,43	750,00
-35239,75	723,00
-35130,58	666,00
-35021,91	774,00
-34913,74	735,00
-34806,07	712,00
-34698,89	882,00
-34592,20	776,00
-34486,00	892,00
-34380,28	716,00
-34275,04	744,00
-34170,27	808,00
-34065,98	780,00
-33962,16	748,00
-33858,81	688,00
-33755,92	767,00
-33653,49	959,00
-33551,52	753,00
-33450,01	759,00
-33348,94	772,00
-33248,33	911,00
-33148,16	791,00
-33048,43	801,00
-32949,14	917,00
-32850,29	826,00
-32751,87	768,00
-32653,89	788,00
-32556,33	891,00
-32459,20	818,00
-32362,49	756,00
-32266,19	738,00
-32170,32	776,00
-32074,86	843,00
-31979,82	902,00
-31885,18	941,00
-31790,95	837,00
-31697,12	763,00
-31603,69	869,00
-31510,67	861,00
-31418,04	820,00
-31325,80	898,00
-31233,95	815,00
-31142,49	808,00
-31051,42	781,00
-30960,73	873,00
-30870,43	910,00
-30780,50	782,00
-30690,95	831,00
-30601,77	988,00
-30512,97	804,00
-30424,53	852,00
-30336,46	764,00
-30248,76	916,00
-30161,42	818,00
-30074,44	836,00
-29987,81	866,00
-29901,55	910,00
-29815,63	741,00
-29730,07	854,00
-29644,86	857,00
-29560,00	885,00
-29475,48	846,00
-29391,30	844,00
-29307,47	739,00
-29223,97	801,00
-29140,81	825,00
-29057,99	775,00
-28975,50	806,00
-28893,34	948,00
-28811,51	674,00
-28730,00	742,00
-28648,82	803,00
-28567,97	862,00
-28487,43	810,00
-28407,21	713,00
-28327,32	749,00
-28247,73	896,00
-28168,46	758,00
-28089,50	819,00
-28010,85	726,00
-27932,51	822,00
-27854,48	937,00
-27776,75	782,00
-27699,32	817,00
-27622,19	827,00
-27545,37	814,00
-27468,84	893,00
-27392,60	886,00
-27316,66	775,00
-27241,01	820,00
-27165,66	911,00
-27090,59	781,00
-27015,81	813,00
-26941,31	916,00
-26867,10	846,00
-26793,17	817,00
-26719,52	794,00
-26646,15	845,00
-26573,06	898,00
-26500,24	788,00
-26427,70	766,00
-26355,43	906,00
-26283,43	812,00
-26211,71	883,00
-26140,25	811,00
-26069,06	1040,00
-25998,13	736,00
-25927,46	832,00
-25857,06	832,00
-25786,92	783,00
-25717,04	803,00
-25647,42	775,00
-25578,05	905,00
-25508,94	862,00
-25440,09	816,00
-25371,48	800,00
-25303,13	735,00
-25235,02	818,00
-25167,17	881,00
-25099,56	824,00
-25032,19	694,00
-24965,07	760,00
-24898,20	708,00
-24831,56	819,00
-24765,17	806,00
-24699,01	838,00
-24633,10	818,00
-24567,41	768,00
-24501,97	848,00
-24436,75	775,00
-24371,77	773,00
-24307,03	736,00
-24242,51	674,00
-24178,22	931,00
-24114,16	750,00
-24050,32	916,00
-23986,71	746,00
-23923,32	759,00
-23860,16	741,00
-23797,22	750,00
-23734,50	854,00
-23672,00	743,00
-23609,71	792,00
-23547,65	722,00
-23485,80	811,00
-23424,16	830,00
-23362,74	959,00
-23301,53	780,00
-23240,54	766,00
-23179,75	811,00
-23119,17	780,00
-23058,80	841,00
-22998,64	794,00
-22938,68	819,00
-22878,93	837,00
-22819,39	868,00
-22760,04	802,00
-22700,90	758,00
-22641,96	839,00
-22583,22	862,00
-22524,68	828,00
-22466,33	739,00
-22408,19	883,00
-22350,23	758,00
-22292,48	849,00
-22234,92	881,00
-22177,55	906,00
-22120,37	808,00
-22063,38	772,00
-22006,58	738,00
-21949,98	797,00
-21893,56	584,00
-21837,33	771,00
-21781,28	898,00
-21725,42	808,00
-21669,74	804,00
-21614,25	834,00
-21558,94	688,00
-21503,81	731,00
-21448,86	802,00
-21394,10	777,00
-21339,51	768,00
-21285,10	694,00
-21230,86	670,00
-21176,81	726,00
-21122,93	735,00
-21069,22	792,00
-21015,69	783,00
-20962,33	783,00
-20909,14	714,00
-20856,13	763,00
-20803,28	713,00
-20750,61	770,00
-20698,10	723,00
-20645,76	796,00
-20593,59	824,00
-20541,59	874,00
-20489,75	904,00
-20438,07	735,00
-20386,56	937,00
-20335,22	806,00
-20284,03	684,00
-20233,01	718,00
-20182,15	768,00
-20131,45	795,00
-20080,91	727,00
-20030,52	770,00
-19980,30	700,00
-19930,23	733,00
-19880,32	884,00
-19830,56	891,00
-19780,96	749,00
-19731,52	786,00
-19682,23	826,00
-19633,09	739,00
-19584,10	611,00
-19535,26	756,00
-19486,58	807,00
-19438,04	834,00
-19389,66	743,00
-19341,42	842,00
-19293,33	732,00
-19245,39	755,00
-19197,60	861,00
-19149,95	840,00
-19102,45	887,00
-19055,09	818,00
-19007,87	905,00
-18960,80	768,00
-18913,87	774,00
-18867,09	832,00
-18820,44	828,00
-18773,94	818,00
-18727,57	752,00
-18681,35	716,00
-18635,26	903,00
-18589,31	706,00
-18543,50	683,00
-18497,83	843,00
-18452,29	858,00
-18406,89	746,00
-18361,63	858,00
-18316,50	865,00
-18271,50	735,00
-18226,63	848,00
-18181,90	852,00
-18137,30	845,00
-18092,84	750,00
-18048,50	851,00
-18004,29	726,00
-17960,22	806,00
-17916,27	735,00
-17872,45	804,00
-17828,76	817,00
-17785,20	935,00
-17741,77	845,00
-17698,46	786,00
-17655,28	663,00
-17612,22	740,00
-17569,29	760,00
-17526,48	799,00
-17483,79	828,00
-17441,23	749,00
-17398,79	763,00
-17356,48	806,00
-17314,28	1006,00
-17272,21	719,00
-17230,26	702,00
-17188,42	864,00
-17146,71	791,00
-17105,12	807,00
-17063,64	729,00
-17022,28	831,00
-16981,04	801,00
-16939,92	781,00
-16898,91	862,00
-16858,02	757,00
-16817,25	716,00
-16776,59	666,00
-16736,04	794,00
-16695,61	750,00
-16655,29	742,00
-16615,09	776,00
-16574,99	834,00
-16535,01	706,00
-16495,15	776,00
-16455,39	807,00
-16415,74	783,00
-16376,21	730,00
-16336,78	763,00
-16297,46	744,00
-16258,26	858,00
-16219,16	850,00
-16180,17	771,00
-16141,28	907,00
-16102,51	842,00
-16063,84	753,00
-16025,27	844,00
-15986,82	695,00
-15948,46	667,00
-15910,22	815,00
-15872,07	760,00
-15834,04	797,00
-15796,10	719,00
-15758,27	921,00
-15720,54	829,00
-15682,91	781,00
-15645,39	799,00
-15607,97	776,00
-15570,64	774,00
-15533,42	773,00
-15496,30	793,00
-15459,28	715,00
-15422,36	794,00
-15385,54	763,00
-15348,82	754,00
-15312,19	877,00
-15275,66	671,00
-15239,23	794,00
-15202,90	765,00
-15166,67	740,00
-15130,53	793,00
-15094,48	804,00
-15058,54	797,00
-15022,68	726,00
-14986,93	779,00
-14951,26	783,00
-14915,69	670,00
-14880,22	777,00
-14844,84	699,00
-14809,55	796,00
-14774,35	736,00
-14739,25	944,00
-14704,24	774,00
-14669,32	780,00
-14634,49	806,00
-14599,75	851,00
-14565,10	746,00
-14530,55	859,00
-14496,08	802,00
-14461,70	802,00
-14427,41	731,00
-14393,21	708,00
-14359,10	764,00
-14325,07	825,00
-14291,14	839,00
-14257,29	807,00
-14223,52	778,00
-14189,85	900,00
-14156,26	779,00
-14122,76	773,00
-14089,34	806,00
-14056,01	723,00
-14022,76	876,00
-13989,60	858,00
-13956,52	729,00
-13923,53	800,00
-13890,62	776,00
-13857,79	762,00
-13825,05	733,00
-13792,39	731,00
-13759,81	882,00
-13727,31	739,00
-13694,90	661,00
-13662,57	825,00
-13630,31	765,00
-13598,14	781,00
-13566,05	807,00
-13534,05	884,00
-13502,12	690,00
-13470,27	790,00
-13438,50	829,00
-13406,80	767,00
-13375,19	715,00
-13343,66	761,00
-13312,20	690,00
-13280,83	720,00
-13249,53	754,00
-13218,30	687,00
-13187,16	756,00
-13156,09	822,00
-13125,10	790,00
-13094,18	795,00
-13063,34	836,00
-13032,58	708,00
-13001,89	850,00
-12971,28	890,00
-12940,74	763,00
-12910,27	831,00
-12879,88	757,00
-12849,57	802,00
-12819,33	726,00
-12789,16	746,00
-12759,06	670,00
-12729,04	791,00
-12699,09	1795,00
-12669,21	720,00
-12639,41	775,00
-12609,68	845,00
-12580,02	736,00
-12550,43	877,00
-12520,91	643,00
-12491,46	866,00
-12462,08	777,00
-12432,77	753,00
-12403,54	815,00
-12374,37	871,00
-12345,27	871,00
-12316,24	823,00
-12287,29	893,00
-12258,40	692,00
-12229,57	826,00
-12200,82	850,00
-12172,14	784,00
-12143,52	700,00
-12114,97	651,00
-12086,49	796,00
-12058,07	808,00
-12029,73	812,00
-12001,44	899,00
-11973,23	769,00
-11945,08	817,00
-11917,00	746,00
-11888,98	834,00
-11861,03	735,00
-11833,15	873,00
-11805,32	783,00
-11777,57	810,00
-11749,88	761,00
-11722,25	806,00
-11694,69	781,00
-11667,19	827,00
-11639,75	799,00
-11612,38	762,00
-11585,07	731,00
-11557,83	732,00
-11530,65	895,00
-11503,53	840,00
-11476,47	877,00
-11449,48	660,00
-11422,54	796,00
-11395,67	805,00
-11368,86	823,00
-11342,11	764,00
-11315,43	855,00
-11288,80	741,00
-11262,23	963,00
-11235,73	771,00
-11209,28	795,00
-11182,90	804,00
-11156,57	792,00
-11130,31	806,00
-11104,10	883,00
-11077,96	861,00
-11051,87	799,00
-11025,84	809,00
-10999,87	800,00
-10973,96	822,00
-10948,11	767,00
-10922,31	792,00
-10896,58	881,00
-10870,90	934,00
-10845,28	830,00
-10819,71	626,00
-10794,20	728,00
-10768,75	863,00
-10743,36	772,00
-10718,02	761,00
-10692,74	816,00
-10667,52	693,00
-10642,35	795,00
-10617,24	814,00
-10592,18	794,00
-10567,18	690,00
-10542,23	786,00
-10517,34	792,00
-10492,51	826,00
-10467,72	778,00
-10443,00	729,00
-10418,32	747,00
-10393,70	732,00
-10369,14	707,00
-10344,63	769,00
-10320,17	792,00
-10295,77	786,00
-10271,42	770,00
-10247,12	883,00
-10222,88	819,00
-10198,68	698,00
-10174,54	715,00
-10150,46	764,00
-10126,42	894,00
-10102,44	824,00
-10078,51	815,00
-10054,63	830,00
-10030,80	791,00
-10007,03	904,00
-9983,30	825,00
-9959,63	707,00
-9936,01	828,00
-9912,44	796,00
-9888,92	723,00
-9865,44	725,00
-9842,02	939,00
-9818,65	765,00
-9795,33	829,00
-9772,06	755,00
-9748,84	743,00
-9725,67	730,00
-9702,55	737,00
-9679,47	938,00
-9656,45	795,00
-9633,47	672,00
-9610,55	752,00
-9587,67	848,00
-9564,84	960,00
-9542,06	827,00
-9519,32	798,00
-9496,64	905,00
-9474,00	761,00
-9451,41	809,00
-9428,87	951,00
-9406,37	918,00
-9383,92	799,00
-9361,52	818,00
-9339,17	812,00
-9316,86	717,00
-9294,60	748,00
-9272,38	924,00
-9250,21	927,00
-9228,09	936,00
-9206,01	848,00
-9183,98	775,00
-9162,00	799,00
-9140,06	841,00
-9118,16	701,00
-9096,31	943,00
-9074,51	741,00
-9052,75	1032,00
-9031,04	976,00
-9009,37	734,00
-8987,74	839,00
-8966,16	969,00
-8944,63	803,00
-8923,14	849,00
-8901,69	862,00
-8880,29	769,00
-8858,93	798,00
-8837,61	919,00
-8816,34	902,00
-8795,11	900,00
-8773,92	854,00
-8752,78	936,00
-8731,68	764,00
-8710,62	825,00
-8689,61	729,00
-8668,63	715,00
-8647,70	1048,00
-8626,82	871,00
-8605,97	905,00
-8585,17	853,00
-8564,41	715,00
-8543,69	848,00
-8523,01	752,00
-8502,37	885,00
-8481,78	792,00
-8461,23	631,00
-8440,71	709,00
-8420,24	758,00
-8399,81	809,00
-8379,42	830,00
-8359,08	835,00
-8338,77	733,00
-8318,50	871,00
-8298,27	719,00
-8278,09	843,00
-8257,94	694,00
-8237,83	789,00
-8217,76	870,00
-8197,74	763,00
-8177,75	840,00
-8157,80	844,00
-8137,89	830,00
-8118,02	788,00
-8098,19	923,00
-8078,40	857,00
-8058,65	798,00
-8038,93	826,00
-8019,26	991,00
-7999,62	888,00
-7980,02	732,00
-7960,46	832,00
-7940,94	767,00
-7921,46	854,00
-7902,01	718,00
-7882,60	964,00
-7863,23	829,00
-7843,90	887,00
-7824,61	817,00
-7805,35	879,00
-7786,13	830,00
-7766,95	771,00
-7747,80	767,00
-7728,69	970,00
-7709,62	850,00
-7690,59	881,00
-7671,59	905,00
-7652,63	789,00
-7633,70	747,00
-7614,81	879,00
-7595,96	784,00
-7577,15	856,00
-7558,37	756,00
-7539,62	835,00
-7520,91	770,00
-7502,24	875,00
-7483,60	818,00
-7465,00	838,00
-7446,44	885,00
-7427,91	789,00
-7409,41	853,00
-7390,95	825,00
-7372,53	720,00
-7354,14	833,00
-7335,78	791,00
-7317,46	838,00
-7299,18	809,00
-7280,92	849,00
-7262,71	976,00
-7244,52	814,00
-7226,38	829,00
-7208,26	827,00
-7190,18	758,00
-7172,14	922,00
-7154,12	865,00
-7136,15	707,00
-7118,20	906,00
-7100,29	924,00
-7082,41	888,00
-7064,57	800,00
-7046,76	770,00
-7028,98	638,00
-7011,24	972,00
-6993,53	715,00
-6975,85	833,00
-6958,20	777,00
-6940,59	766,00
-6923,01	700,00
-6905,46	791,00
-6887,94	739,00
-6870,46	1106,00
-6853,01	847,00
-6835,59	754,00
-6818,21	797,00
-6800,85	901,00
-6783,53	745,00
-6766,24	759,00
-6748,98	757,00
-6731,76	713,00
-6714,56	792,00
-6697,40	591,00
-6680,26	768,00
-6663,16	771,00
-6646,09	837,00
-6629,05	702,00
-6612,05	806,00
-6595,07	738,00
-6578,13	810,00
-6561,21	729,00
-6544,33	746,00
-6527,47	749,00
-6510,65	827,00
-6493,86	693,00
-6477,10	776,00
-6460,36	824,00
-6443,66	649,00
-6426,99	753,00
-6410,35	655,00
-6393,74	848,00
-6377,16	782,00
-6360,61	640,00
-6344,09	648,00
-6327,59	721,00
-6311,13	564,00
-6294,70	803,00
-6278,29	844,00
-6261,92	699,00
-6245,58	786,00
-6229,26	829,00
-6212,97	732,00
-6196,72	784,00
-6180,49	913,00
-6164,29	705,00
-6148,12	758,00
-6131,98	777,00
-6115,86	760,00
-6099,78	734,00
-6083,72	683,00
-6067,69	798,00
-6051,69	731,00
-6035,72	771,00
-6019,78	768,00
-6003,87	890,00
-5987,98	738,00
-5972,12	825,00
-5956,29	738,00
-5940,49	714,00
-5924,71	875,00
-5908,96	758,00
-5893,24	711,00
-5877,55	735,00
-5861,89	798,00
-5846,25	699,00
-5830,64	815,00
-5815,05	721,00
-5799,50	793,00
-5783,97	818,00
-5768,47	834,00
-5752,99	902,00
-5737,55	684,00
-5722,12	743,00
-5706,73	789,00
-5691,36	809,00
-5676,02	688,00
-5660,71	775,00
-5645,42	733,00
-5630,16	773,00
-5614,92	825,00
-5599,71	717,00
-5584,53	757,00
-5569,37	677,00
-5554,24	935,00
-5539,14	761,00
-5524,06	752,00
-5509,01	727,00
-5493,98	669,00
-5478,98	864,00
-5464,00	764,00
-5449,05	651,00
-5434,13	767,00
-5419,23	844,00
-5404,36	752,00
-5389,51	725,00
-5374,69	792,00
-5359,89	766,00
-5345,12	718,00
-5330,37	874,00
-5315,65	826,00
-5300,95	856,00
-5286,28	639,00
-5271,63	752,00
-5257,01	831,00
-5242,41	761,00
-5227,84	753,00
-5213,29	728,00
-5198,76	889,00
-5184,26	783,00
-5169,79	851,00
-5155,33	843,00
-5140,91	830,00
-5126,51	826,00
-5112,13	841,00
-5097,77	881,00
-5083,44	894,00
-5069,13	698,00
-5054,85	767,00
-5040,59	635,00
-5026,36	794,00
-5012,15	934,00
-4997,96	751,00
-4983,80	771,00
-4969,66	777,00
-4955,54	751,00
-4941,44	815,00
-4927,37	826,00
-4913,33	816,00
-4899,30	742,00
-4885,30	806,00
-4871,33	808,00
-4857,37	863,00
-4843,44	796,00
-4829,53	810,00
-4815,65	802,00
-4801,79	668,00
-4787,95	706,00
-4774,13	670,00
-4760,34	764,00
-4746,56	811,00
-4732,82	797,00
-4719,09	763,00
-4705,38	876,00
-4691,70	781,00
-4678,04	738,00
-4664,41	723,00
-4650,79	1002,00
-4637,20	736,00
-4623,63	768,00
-4610,08	814,00
-4596,56	795,00
-4583,05	776,00
-4569,57	761,00
-4556,11	824,00
-4542,67	672,00
-4529,25	720,00
-4515,86	903,00
-4502,49	837,00
-4489,13	753,00
-4475,80	727,00
-4462,49	807,00
-4449,21	972,00
-4435,94	738,00
-4422,70	814,00
-4409,47	742,00
-4396,27	689,00
-4383,09	772,00
-4369,93	748,00
-4356,79	795,00
-4343,67	746,00
-4330,58	760,00
-4317,50	736,00
-4304,45	705,00
-4291,41	741,00
-4278,40	739,00
-4265,41	708,00
-4252,44	800,00
-4239,49	710,00
-4226,55	836,00
-4213,65	887,00
-4200,76	900,00
-4187,89	697,00
-4175,04	754,00
-4162,21	818,00
-4149,40	803,00
-4136,61	745,00
-4123,85	776,00
-4111,10	801,00
-4098,37	912,00
-4085,66	901,00
-4072,98	857,00
-4060,31	763,00
-4047,66	861,00
-4035,04	968,00
-4022,43	777,00
-4009,84	947,00
-3997,27	791,00
-3984,72	868,00
-3972,19	820,00
-3959,69	717,00
-3947,20	761,00
-3934,73	853,00
-3922,27	824,00
-3909,84	747,00
-3897,43	846,00
-3885,04	761,00
-3872,67	734,00
-3860,31	780,00
-3847,98	901,00
-3835,66	735,00
-3823,36	829,00
-3811,09	690,00
-3798,83	760,00
-3786,59	819,00
-3774,37	889,00
-3762,17	748,00
-3749,98	753,00
-3737,82	768,00
-3725,67	943,00
-3713,55	676,00
-3701,44	821,00
-3689,35	829,00
-3677,28	880,00
-3665,22	804,00
-3653,19	749,00
-3641,17	757,00
-3629,18	776,00
-3617,20	786,00
-3605,24	772,00
-3593,30	732,00
-3581,37	831,00
-3569,47	874,00
-3557,58	750,00
-3545,71	755,00
-3533,86	771,00
-3522,02	825,00
-3510,21	872,00
-3498,41	771,00
-3486,63	767,00
-3474,87	784,00
-3463,12	808,00
-3451,40	832,00
-3439,69	914,00
-3428,00	836,00
-3416,33	793,00
-3404,67	751,00
-3393,03	917,00
-3381,41	843,00
-3369,81	792,00
-3358,22	765,00
-3346,66	782,00
-3335,10	774,00
-3323,57	790,00
-3312,06	729,00
-3300,56	798,00
-3289,08	669,00
-3277,61	835,00
-3266,16	760,00
-3254,73	754,00
-3243,32	844,00
-3231,92	840,00
-3220,55	733,00
-3209,18	837,00
-3197,84	738,00
-3186,51	759,00
-3175,20	722,00
-3163,90	781,00
-3152,63	837,00
-3141,36	746,00
-3130,12	840,00
-3118,89	872,00
-3107,68	822,00
-3096,49	777,00
-3085,31	863,00
-3074,15	799,00
-3063,00	800,00
-3051,87	837,00
-3040,76	807,00
-3029,67	772,00
-3018,59	1024,00
-3007,52	849,00
-2996,48	924,00
-2985,44	721,00
-2974,43	848,00
-2963,43	791,00
-2952,45	717,00
-2941,48	858,00
-2930,53	850,00
-2919,60	790,00
-2908,68	727,00
-2897,78	784,00
-2886,89	884,00
-2876,02	831,00
-2865,17	797,00
-2854,33	755,00
-2843,50	697,00
-2832,70	815,00
-2821,90	802,00
-2811,13	729,00
-2800,37	781,00
-2789,62	784,00
-2778,89	837,00
-2768,18	799,00
-2757,48	865,00
-2746,80	956,00
-2736,13	816,00
-2725,48	799,00
-2714,84	829,00
-2704,22	824,00
-2693,61	864,00
-2683,02	763,00
-2672,45	812,00
-2661,89	873,00
-2651,34	849,00
-2640,81	735,00
-2630,30	834,00
-2619,80	823,00
-2609,31	893,00
-2598,84	703,00
-2588,39	823,00
-2577,95	794,00
-2567,52	719,00
-2557,11	963,00
-2546,71	728,00
-2536,33	870,00
-2525,97	783,00
-2515,62	814,00
-2505,28	786,00
-2494,96	833,00
-2484,65	744,00
-2474,36	1073,00
-2464,08	785,00
-2453,82	909,00
-2443,57	842,00
-2433,33	709,00
-2423,11	837,00
-2412,91	718,00
-2402,72	680,00
-2392,54	798,00
-2382,38	822,00
-2372,23	876,00
-2362,09	5187,00
-2351,97	745,00
-2341,87	786,00
-2331,78	787,00
-2321,70	817,00
-2311,64	817,00
-2301,59	738,00
-2291,55	778,00
-2281,53	822,00
-2271,53	722,00
-2261,53	906,00
-2251,55	815,00
-2241,59	821,00
-2231,64	794,00
-2221,70	741,00
-2211,78	946,00
-2201,87	880,00
-2191,97	835,00
-2182,09	744,00
-2172,22	860,00
-2162,37	736,00
-2152,53	767,00
-2142,70	761,00
-2132,89	688,00
-2123,09	845,00
-2113,30	787,00
-2103,53	775,00
-2093,77	732,00
-2084,02	686,00
-2074,29	846,00
-2064,57	760,00
-2054,86	849,00
-2045,17	818,00
-2035,49	884,00
-2025,82	706,00
-2016,17	756,00
-2006,53	766,00
-1996,91	766,00
-1987,29	737,00
-1977,69	782,00
-1968,11	742,00
-1958,53	755,00
-1948,97	850,00
-1939,42	790,00
-1929,89	680,00
-1920,37	802,00
-1910,86	801,00
-1901,36	876,00
-1891,88	764,00
-1882,41	800,00
-1872,95	803,00
-1863,51	765,00
-1854,08	832,00
-1844,66	850,00
-1835,26	670,00
-1825,86	794,00
-1816,48	786,00
-1807,11	792,00
-1797,76	892,00
-1788,42	844,00
-1779,09	905,00
-1769,77	743,00
-1760,47	979,00
-1751,17	800,00
-1741,89	854,00
-1732,63	883,00
-1723,37	1061,00
-1714,13	927,00
-1704,90	729,00
-1695,68	883,00
-1686,48	718,00
-1677,29	780,00
-1668,11	1040,00
-1658,94	804,00
-1649,78	824,00
-1640,64	837,00
-1631,51	868,00
-1622,39	869,00
-1613,28	935,00
-1604,19	888,00
-1595,10	907,00
-1586,03	708,00
-1576,97	833,00
-1567,93	762,00
-1558,89	932,00
-1549,87	919,00
-1540,86	779,00
-1531,86	740,00
-1522,87	747,00
-1513,90	822,00
-1504,93	924,00
-1495,98	880,00
-1487,04	934,00
-1478,12	808,00
-1469,20	784,00
-1460,30	859,00
-1451,40	972,00
-1442,52	852,00
-1433,65	902,00
-1424,80	781,00
-1415,95	751,00
-1407,12	1002,00
-1398,30	809,00
-1389,48	756,00
-1380,69	806,00
-1371,90	860,00
-1363,12	809,00
-1354,36	951,00
-1345,60	787,00
-1336,86	948,00
-1328,13	994,00
-1319,41	843,00
-1310,70	804,00
-1302,01	831,00
-1293,32	800,00
-1284,65	841,00
-1275,99	858,00
-1267,33	875,00
-1258,69	890,00
-1250,06	868,00
-1241,45	828,00
-1232,84	981,00
-1224,25	788,00
-1215,66	917,00
-1207,09	908,00
-1198,53	847,00
-1189,97	771,00
-1181,43	918,00
-1172,91	877,00
-1164,39	887,00
-1155,88	812,00
-1147,38	621,00
-1138,90	842,00
-1130,43	812,00
-1121,96	848,00
-1113,51	830,00
-1105,07	798,00
-1096,64	756,00
-1088,22	831,00
-1079,81	890,00
-1071,41	945,00
-1063,02	823,00
-1054,65	836,00
-1046,28	819,00
-1037,92	828,00
-1029,58	814,00
-1021,24	810,00
-1012,92	1098,00
-1004,61	772,00
-996,30	1076,00
-988,01	687,00
-979,73	797,00
-971,46	953,00
-963,20	754,00
-954,95	689,00
-946,71	798,00
-938,48	685,00
-930,26	932,00
-922,06	819,00
-913,86	815,00
-905,67	787,00
-897,49	697,00
-889,33	769,00
-881,17	870,00
-873,02	894,00
-864,89	630,00
-856,76	770,00
-848,65	796,00
-840,54	882,00
-832,45	915,00
-824,36	656,00
-816,29	851,00
-808,22	783,00
-800,17	918,00
-792,12	954,00
-784,09	979,00
-776,06	717,00
-768,05	787,00
-760,04	723,00
-752,05	763,00
-744,07	935,00
-736,09	937,00
-728,13	694,00
-720,17	807,00
-712,23	743,00
-704,29	856,00
-696,37	792,00
-688,45	799,00
-680,55	717,00
-672,65	780,00
-664,77	747,00
-656,89	831,00
-649,03	715,00
-641,17	856,00
-633,32	898,00
-625,49	833,00
-617,66	784,00
-609,84	858,00
-602,03	650,00
-594,23	784,00
-586,45	832,00
-578,67	819,00
-570,90	796,00
-563,14	709,00
-555,39	853,00
-547,65	846,00
-539,91	797,00
-532,19	737,00
-524,48	903,00
-516,78	848,00
-509,08	812,00
-501,40	767,00
-493,72	810,00
-486,06	742,00
-478,40	970,00
-470,76	779,00
-463,12	748,00
-455,49	789,00
-447,87	739,00
-440,26	776,00
-432,66	720,00
-425,07	830,00
-417,49	735,00
-409,92	779,00
-402,35	680,00
-394,80	733,00
-387,25	939,00
-379,72	867,00
-372,19	776,00
-364,67	833,00
-357,17	810,00
-349,67	881,00
-342,18	810,00
-334,69	926,00
-327,22	859,00
-319,76	762,00
-312,30	871,00
-304,86	915,00
-297,42	853,00
-290,00	828,00
-282,58	825,00
-275,17	899,00
-267,77	916,00
-260,37	742,00
-252,99	940,00
-245,62	812,00
-238,25	830,00
-230,90	846,00
-223,55	907,00
-216,21	818,00
-208,88	914,00
-201,56	924,00
-194,25	832,00
-186,94	823,00
-179,65	916,00
-172,36	1019,00
-165,08	833,00
-157,81	1128,00
-150,55	1014,00
-143,30	1081,00
-136,06	1000,00
-128,82	1058,00
-121,60	993,00
-114,38	1038,00
-107,17	1179,00
-99,97	1189,00
-92,78	1171,00
-85,60	1293,00
-78,42	1356,00
-71,25	1401,00
-64,10	1541,00
-56,95	1738,00
-49,81	1750,00
-42,67	2215,00
-35,55	2489,00
-28,43	2905,00
-21,33	4517,00
-14,23	13053,00
-7,14	57775,00
-0,05	57564,00
7,02	57281,00
14,09	43456,00
21,14	11783,00
28,19	5186,00
35,23	3685,00
42,27	2953,00
49,29	2470,00
56,31	2319,00
63,32	2189,00
70,32	1789,00
77,31	1698,00
84,29	1393,00
91,27	1504,00
98,23	1619,00
105,19	1297,00
112,14	1512,00
119,09	1758,00
126,02	2432,00
132,95	2815,00
139,87	2846,00
146,78	2975,00
153,68	2747,00
160,58	2732,00
167,46	2689,00
174,34	2874,00
181,21	2875,00
188,08	2889,00
194,93	2905,00
201,78	2760,00
208,62	2744,00
215,45	2869,00
222,27	2843,00
229,09	3018,00
235,90	2756,00
242,70	2764,00
249,49	2889,00
256,27	2762,00
263,05	2664,00
269,82	2671,00
276,58	2796,00
283,33	2669,00
290,08	2702,00
296,82	2629,00
303,55	2603,00
310,27	2532,00
316,98	2695,00
323,69	2626,00
330,39	2675,00
337,08	2691,00
343,76	2667,00
350,44	2552,00
357,11	2790,00
363,77	2584,00
370,42	2597,00
377,07	2649,00
383,71	2613,00
390,34	2651,00
396,96	2518,00
403,58	2566,00
410,19	2670,00
416,79	2724,00
423,38	2786,00
429,97	2669,00
436,55	2519,00
443,12	2535,00
449,68	2497,00
456,24	2566,00
462,79	2582,00
469,33	2571,00
475,86	2518,00
482,39	2471,00
488,91	2597,00
495,42	2484,00
501,93	2602,00
508,42	2403,00
514,91	2555,00
521,40	2454,00
527,87	2495,00
534,34	2450,00
540,80	2634,00
547,25	2559,00
553,70	2605,00
560,14	2525,00
566,57	2638,00
573,00	2483,00
579,41	2565,00
585,83	2448,00
592,23	2429,00
598,62	2545,00
605,01	2447,00
611,40	2549,00
617,77	2595,00
624,14	2448,00
630,50	2520,00
636,85	2595,00
643,20	2421,00
649,54	2465,00
655,87	2452,00
662,20	2635,00
668,52	2543,00
674,83	2484,00
681,13	2455,00
687,43	2493,00
693,72	2418,00
700,00	2401,00
706,28	2418,00
712,55	2389,00
718,81	2489,00
725,07	2451,00
731,32	2280,00
737,56	2611,00
743,79	2520,00
750,02	2481,00
756,24	2407,00
762,46	2483,00
768,67	2757,00
774,87	2516,00
781,06	2477,00
787,25	2554,00
793,43	2523,00
799,60	2456,00
805,77	2558,00
811,93	2409,00
818,08	2562,00
824,23	2511,00
830,37	2657,00
836,50	2492,00
842,63	2497,00
848,75	2425,00
854,87	2514,00
860,97	2594,00
867,07	2569,00
873,17	2564,00
879,25	2523,00
885,33	2535,00
891,41	2586,00
897,47	2497,00
903,53	2556,00
909,59	2607,00
915,63	2613,00
921,67	2555,00
927,71	2549,00
933,74	2613,00
939,76	2453,00
945,77	2516,00
951,78	2483,00
957,78	2474,00
963,78	2536,00
969,77	2504,00
975,75	2524,00
981,72	2516,00
987,69	3624,00
993,66	2639,00
999,61	2600,00
1005,56	2541,00
1011,51	2490,00
1017,44	2523,00
1023,37	2645,00
1029,30	2543,00
1035,22	2634,00
1041,13	2570,00
1047,03	2628,00
1052,93	2745,00
1058,83	3085,00
1064,71	3198,00
1070,59	2979,00
1076,47	2760,00
1082,33	2726,00
1088,20	2762,00
1094,05	2746,00
1099,90	2687,00
1105,74	2658,00
1111,58	2632,00
1117,41	2722,00
1123,23	2979,00
1129,05	3334,00
1134,86	3186,00
1140,67	2868,00
1146,47	2752,00
1152,26	2691,00
1158,05	2507,00
1163,83	2681,00
1169,60	2703,00
1175,37	2732,00
1181,13	2540,00
1186,89	2685,00
1192,64	2607,00
1198,38	2673,00
1204,12	2630,00
1209,85	2664,00
1215,58	2669,00
1221,30	2683,00
1227,02	2662,00
1232,72	2681,00
1238,43	2514,00
1244,12	2723,00
1249,81	2686,00
1255,50	2798,00
1261,17	2687,00
1266,85	2572,00
1272,51	2788,00
1278,17	2901,00
1283,83	2770,00
1289,47	3225,00
1295,12	3651,00
1300,75	3361,00
1306,38	3130,00
1312,01	2882,00
1317,63	2817,00
1323,24	2757,00
1328,85	2794,00
1334,45	2747,00
1340,04	2737,00
1345,63	2570,00
1351,22	2951,00
1356,80	2766,00
1362,37	2818,00
1367,93	2763,00
1373,49	2781,00
1379,05	2721,00
1384,60	2799,00
1390,14	2690,00
1395,68	2791,00
1401,21	2771,00
1406,74	2808,00
1412,26	3044,00
1417,77	3205,00
1423,28	2927,00
1428,78	3147,00
1434,28	3461,00
1439,77	3614,00
1445,26	3551,00
1450,74	3532,00
1456,22	3408,00
1461,68	3420,00
1467,15	3242,00
1472,61	3007,00
1478,06	3136,00
1483,51	2850,00
1488,95	2771,00
1494,38	2798,00
1499,81	2615,00
1505,24	2588,00
1510,65	2629,00
1516,07	2651,00
1521,48	2596,00
1526,88	2460,00
1532,27	2560,00
1537,67	2530,00
1543,05	2684,00
1548,43	2530,00
1553,81	2696,00
1559,18	2486,00
1564,54	2573,00
1569,90	2528,00
1575,25	2463,00
1580,60	2379,00
1585,94	2568,00
1591,28	2482,00
1596,61	2585,00
1601,93	2505,00
1607,25	2560,00
1612,57	2483,00
1617,88	2557,00
1623,18	2487,00
1628,48	2513,00
1633,77	2472,00
1639,06	2532,00
1644,34	2426,00
1649,62	2386,00
1654,89	2533,00
1660,16	2384,00
1665,42	2512,00
1670,67	2316,00
1675,92	2461,00
1681,17	2424,00
1686,41	2457,00
1691,64	2626,00
1696,87	2363,00
1702,10	2315,00
1707,32	2415,00
1712,53	2443,00
1717,74	2500,00
1722,94	2485,00
1728,14	2345,00
1733,33	2244,00
1738,52	2307,00
1743,70	2528,00
1748,88	2313,00
1754,05	2379,00
1759,22	2242,00
1764,38	3711,00
1769,53	2262,00
1774,69	2401,00
1779,83	2392,00
1784,97	2238,00
1790,11	2337,00
1795,24	2338,00
1800,36	2363,00
1805,48	2244,00
1810,60	2225,00
1815,71	2360,00
1820,82	2226,00
1825,92	2285,00
1831,01	2188,00
1836,10	2287,00
1841,19	2362,00
1846,26	2189,00
1851,34	2311,00
1856,41	2318,00
1861,47	2309,00
1866,53	2235,00
1871,59	2207,00
1876,64	2230,00
1881,68	2183,00
1886,72	2387,00
1891,76	2202,00
1896,79	2226,00
1901,81	2129,00
1906,83	2224,00
1911,85	2104,00
1916,86	2214,00
1921,86	2210,00
1926,86	2173,00
1931,86	2102,00
1936,85	2081,00
1941,83	2182,00
1946,81	2098,00
1951,79	2073,00
1956,76	2009,00
1961,72	1986,00
1966,68	2057,00
1971,64	2053,00
1976,59	2090,00
1981,54	2024,00
1986,48	2044,00
1991,42	2082,00
1996,35	2250,00
2001,27	2046,00
2006,20	1911,00
2011,11	2146,00
2016,03	2049,00
2020,93	1966,00
2025,84	2150,00
2030,73	1942,00
2035,63	1927,00
2040,52	2092,00
2045,40	2051,00
2050,28	1982,00
2055,15	2092,00
2060,02	1880,00
2064,89	2091,00
2069,75	2056,00
2074,60	2050,00
2079,46	1948,00
2084,30	1973,00
2089,14	1938,00
2093,98	2125,00
2098,81	2111,00
2103,64	2003,00
2108,46	2043,00
2113,28	1884,00
2118,09	2015,00
2122,90	2018,00
2127,70	1896,00
2132,50	2012,00
2137,30	2060,00
2142,09	1949,00
2146,87	1830,00
2151,66	1948,00
2156,43	1994,00
2161,20	1900,00
2165,97	2052,00
2170,73	1899,00
2175,49	2059,00
2180,24	1885,00
2184,99	1987,00
2189,74	1961,00
2194,48	1883,00
2199,21	1956,00
2203,94	1826,00
2208,67	1774,00
2213,39	1736,00
2218,11	1835,00
2222,82	1880,00
2227,53	1822,00
2232,23	2070,00
2236,93	1768,00
2241,63	1917,00
2246,32	1826,00
2251,00	1916,00
2255,68	1955,00
2260,36	1824,00
2265,03	1962,00
2269,70	2016,00
2274,36	1742,00
2279,02	1830,00
2283,68	1842,00
2288,33	1796,00
2292,97	1842,00
2297,61	1806,00
2302,25	1820,00
2306,88	1795,00
2311,51	1694,00
2316,14	1807,00
2320,75	1784,00
2325,37	1684,00
2329,98	1887,00
2334,59	1680,00
2339,19	1744,00
2343,79	1586,00
2348,38	1728,00
2352,97	1724,00
2357,55	1822,00
2362,13	1810,00
2366,71	1645,00
2371,28	1719,00
2375,85	1729,00
2380,41	1797,00
2384,97	1692,00
2389,52	1640,00
2394,07	1635,00
2398,62	1851,00
2403,16	1675,00
2407,70	1609,00
2412,23	1776,00
2416,76	1773,00
2421,29	1655,00
2425,81	1695,00
2430,32	1708,00
2434,84	1570,00
2439,34	1632,00
2443,85	1743,00
2448,35	1580,00
2452,84	1567,00
2457,33	1635,00
2461,82	1572,00
2466,30	1536,00
2470,78	1697,00
2475,25	1505,00
2479,72	1517,00
2484,19	1623,00
2488,65	1620,00
2493,11	1432,00
2497,56	1559,00
2502,01	1411,00
2506,46	1607,00
2510,90	1594,00
2515,34	1579,00
2519,77	1623,00
2524,20	1520,00
2528,62	1493,00
2533,04	1629,00
2537,46	1440,00
2541,87	1377,00
2546,28	1448,00
2550,68	1477,00
2555,08	1426,00
2559,48	1503,00
2563,87	1456,00
2568,26	1440,00
2572,64	1567,00
2577,02	1502,00
2581,40	1366,00
2585,77	1466,00
2590,14	1417,00
2594,50	1429,00
2598,86	1520,00
2603,22	1438,00
2607,57	1411,00
2611,92	1431,00
2616,26	1426,00
2620,60	1498,00
2624,94	1371,00
2629,27	1504,00
2633,60	1357,00
2637,92	1469,00
2642,24	1467,00
2646,56	1391,00
2650,87	1455,00
2655,18	1542,00
2659,48	1390,00
2663,78	1403,00
2668,08	1424,00
2672,37	1410,00
2676,66	1488,00
2680,95	1434,00
2685,23	1456,00
2689,50	1403,00
2693,78	1472,00
2698,05	1356,00
2702,31	1475,00
2706,57	1429,00
2710,83	1537,00
2715,08	1501,00
2719,33	1659,00
2723,58	1559,00
2727,82	1482,00
2732,06	1508,00
2736,29	1418,00
2740,53	1475,00
2744,75	1398,00
2748,97	1495,00
2753,19	1454,00
2757,41	1506,00
2761,62	1510,00
2765,83	1532,00
2770,03	1399,00
2774,23	1407,00
2778,43	1412,00
2782,62	1458,00
2786,81	1430,00
2791,00	1502,00
2795,18	1504,00
2799,35	1507,00
2803,53	1590,00
2807,70	1540,00
2811,86	1305,00
2816,03	1616,00
2820,19	1584,00
2824,34	1617,00
2828,49	1608,00
2832,64	1735,00
2836,78	1920,00
2840,92	2112,00
2845,06	2321,00
2849,19	2428,00
2853,32	2564,00
2857,45	2515,00
2861,57	2452,00
2865,69	2393,00
2869,80	2232,00
2873,91	2404,00
2878,02	2544,00
2882,12	2715,00
2886,22	2582,00
2890,32	2653,00
2894,41	2388,00
2898,50	2248,00
2902,58	2194,00
2906,67	2204,00
2910,74	2078,00
2914,82	1959,00
2918,89	1998,00
2922,96	1871,00
2927,02	1757,00
2931,08	1593,00
2935,13	1484,00
2939,19	1631,00
2943,24	1536,00
2947,28	1512,00
2951,32	1337,00
2955,36	1332,00
2959,40	1457,00
2963,43	1447,00
2967,46	1232,00
2971,48	1231,00
2975,50	1387,00
2979,52	1331,00
2983,53	1285,00
2987,54	1215,00
2991,55	1261,00
2995,55	1234,00
2999,55	1113,00
3003,54	1109,00
3007,54	1204,00
3011,53	1146,00
3015,51	1186,00
3019,49	1250,00
3023,47	1079,00
3027,45	1089,00
3031,42	1154,00
3035,39	1091,00
3039,35	1090,00
3043,31	1140,00
3047,27	1174,00
3051,22	1188,00
3055,17	995,00
3059,12	1019,00
3063,06	1217,00
3067,00	1015,00
3070,94	1109,00
3074,87	1147,00
3078,80	975,00
3082,73	1045,00
3086,65	1036,00
3090,57	1028,00
3094,49	1011,00
3098,40	1074,00
3102,31	988,00
3106,22	1140,00
3110,12	1114,00
3114,02	1034,00
3117,92	1134,00
3121,81	916,00
3125,70	978,00
3129,58	1015,00
3133,47	964,00
3137,34	1088,00
3141,22	1029,00
3145,09	1210,00
3148,96	943,00
3152,83	965,00
3156,69	1066,00
3160,55	1009,00
3164,40	969,00
3168,26	901,00
3172,10	1114,00
3175,95	1066,00
3179,79	1021,00
3183,63	982,00
3187,47	939,00
3191,30	897,00
3195,13	1082,00
3198,95	923,00
3202,78	1042,00
3206,60	938,00
3210,41	854,00
3214,23	918,00
3218,03	1052,00
3221,84	946,00
3225,64	884,00
3229,44	960,00
3233,24	977,00
3237,03	934,00
3240,82	883,00
3244,61	946,00
3248,39	961,00
3252,17	870,00
3255,95	940,00
3259,72	941,00
3263,49	1136,00
3267,26	809,00
3271,03	921,00
3274,79	913,00
3278,54	879,00
3282,30	796,00
3286,05	876,00
3289,80	949,00
3293,54	970,00
3297,29	922,00
3301,02	819,00
3304,76	889,00
3308,49	1007,00
3312,22	856,00
3315,95	924,00
3319,67	802,00
3323,39	985,00
3327,10	1032,00
3330,82	846,00
3334,53	945,00
3338,24	864,00
3341,94	859,00
3345,64	883,00
3349,34	875,00
3353,03	907,00
3356,72	886,00
3360,41	1031,00
3364,10	907,00
3367,78	842,00
3371,46	915,00
3375,13	875,00
3378,81	863,00
3382,48	889,00
3386,14	1029,00
3389,81	919,00
3393,47	839,00
3397,12	1066,00
3400,78	905,00
3404,43	819,00
3408,08	902,00
3411,72	858,00
3415,36	812,00
3419,00	819,00
3422,64	887,00
3426,27	827,00
3429,90	859,00
3433,53	901,00
3437,15	840,00
3440,77	758,00
3444,39	805,00
3448,00	797,00
3451,62	773,00
3455,22	816,00
3458,83	859,00
3462,43	818,00
3466,03	880,00
3469,63	877,00
3473,22	870,00
3476,81	802,00
3480,40	936,00
3483,99	775,00
3487,57	838,00
3491,15	809,00
3494,72	745,00
3498,29	819,00
3501,86	779,00
3505,43	803,00
3508,99	859,00
3512,56	815,00
3516,11	886,00
3519,67	807,00
3523,22	896,00
3526,77	884,00
3530,32	840,00
3533,86	834,00
3537,40	853,00
3540,94	936,00
3544,47	786,00
3548,00	783,00
3551,53	847,00
3555,06	766,00
3558,58	927,00
3562,10	820,00
3565,62	799,00
3569,13	745,00
3572,64	869,00
3576,15	706,00
3579,66	708,00
3583,16	796,00
3586,66	807,00
3590,16	783,00
3593,65	707,00
3597,14	810,00
3600,63	810,00
3604,11	868,00
3607,60	745,00
3611,08	813,00
3614,55	794,00
3618,03	750,00
3621,50	770,00
3624,97	805,00
3628,43	957,00
3631,90	852,00
3635,36	759,00
3638,81	771,00
3642,27	891,00
3645,72	760,00
3649,17	802,00
3652,61	719,00
3656,06	662,00
3659,50	708,00
3662,93	728,00
3666,37	720,00
3669,80	898,00
3673,23	762,00
3676,65	861,00
3680,08	745,00
3683,50	745,00
3686,92	785,00
3690,33	686,00
3693,74	738,00
3697,15	628,00
3700,56	725,00
3703,96	789,00
3707,36	676,00
3710,76	668,00
3714,16	677,00
3717,55	715,00
3720,94	836,00
3724,33	740,00
3727,71	788,00
3731,10	720,00
3734,48	612,00
3737,85	670,00
3741,23	588,00
3744,60	710,00
3747,97	589,00
3751,33	685,00
3754,69	718,00
3758,05	713,00
3761,41	630,00
3764,77	622,00
3768,12	597,00
3771,47	697,00
3774,82	678,00
3778,16	-16,00
3781,50	13,00
3784,84	-1,00
3788,18	11,00
>>>>>End Processed Spectral Data<<<<<
