SpectraSuite Data File
++++++++++++++++++++++++++++++++++++
Date: Mon Mar 09 15:07:59 ICT 2026
User: Administrator
Dark Spectrum Present: Yes
Reference Spectrum Present: No
Number of Sampled Component Spectra: 1
Spectrometers: MAYP113682
Integration Time (usec): 3000000 (MAYP113682)
Spectra Averaged: 1 (MAYP113682)
Boxcar Smoothing: 0 (MAYP113682)
Correct for Electrical Dark: No (MAYP113682)
Strobe/Lamp Enabled: No (MAYP113682)
Correct for Detector Non-linearity: No (MAYP113682)
Correct for Stray Light: No (MAYP113682)
Number of Pixels in Processed Spectrum: 2068
>>>>>Begin Processed Spectral Data<<<<<
-37534,58	2,00
-37414,56	0,00
-37295,11	-2,00
-37176,24	4,00
-37057,95	68,00
-36940,22	132,00
-36823,05	65,00
-36706,45	79,00
-36590,40	24,00
-36474,90	-56,00
-36359,95	171,00
-36245,55	10,00
-36131,68	-26,00
-36018,35	52,00
-35905,55	-48,00
-35793,29	72,00
-35681,54	-76,00
-35570,32	48,00
-35459,62	126,00
-35349,43	73,00
-35239,75	148,00
-35130,58	45,00
-35021,91	-20,00
-34913,74	13,00
-34806,07	1,00
-34698,89	35,00
-34592,20	57,00
-34486,00	14,00
-34380,28	112,00
-34275,04	28,00
-34170,27	100,00
-34065,98	94,00
-33962,16	-26,00
-33858,81	20,00
-33755,92	6,00
-33653,49	206,00
-33551,52	-9,00
-33450,01	99,00
-33348,94	35,00
-33248,33	78,00
-33148,16	-23,00
-33048,43	63,00
-32949,14	8,00
-32850,29	1,00
-32751,87	34,00
-32653,89	49,00
-32556,33	-9,00
-32459,20	97,00
-32362,49	36,00
-32266,19	18,00
-32170,32	106,00
-32074,86	132,00
-31979,82	-8,00
-31885,18	83,00
-31790,95	-3,00
-31697,12	86,00
-31603,69	26,00
-31510,67	132,00
-31418,04	46,00
-31325,80	18,00
-31233,95	77,00
-31142,49	54,00
-31051,42	49,00
-30960,73	113,00
-30870,43	25,00
-30780,50	74,00
-30690,95	62,00
-30601,77	69,00
-30512,97	50,00
-30424,53	104,00
-30336,46	33,00
-30248,76	40,00
-30161,42	105,00
-30074,44	-91,00
-29987,81	46,00
-29901,55	69,00
-29815,63	45,00
-29730,07	132,00
-29644,86	67,00
-29560,00	65,00
-29475,48	161,00
-29391,30	22,00
-29307,47	64,00
-29223,97	-44,00
-29140,81	61,00
-29057,99	133,00
-28975,50	28,00
-28893,34	-7,00
-28811,51	30,00
-28730,00	86,00
-28648,82	-17,00
-28567,97	22,00
-28487,43	71,00
-28407,21	194,00
-28327,32	24,00
-28247,73	43,00
-28168,46	36,00
-28089,50	32,00
-28010,85	42,00
-27932,51	43,00
-27854,48	-72,00
-27776,75	141,00
-27699,32	60,00
-27622,19	19,00
-27545,37	81,00
-27468,84	-2,00
-27392,60	54,00
-27316,66	-15,00
-27241,01	15,00
-27165,66	22,00
-27090,59	20,00
-27015,81	78,00
-26941,31	-16,00
-26867,10	-35,00
-26793,17	18,00
-26719,52	-24,00
-26646,15	123,00
-26573,06	45,00
-26500,24	75,00
-26427,70	161,00
-26355,43	134,00
-26283,43	107,00
-26211,71	100,00
-26140,25	31,00
-26069,06	120,00
-25998,13	50,00
-25927,46	24,00
-25857,06	-81,00
-25786,92	-67,00
-25717,04	52,00
-25647,42	23,00
-25578,05	-53,00
-25508,94	91,00
-25440,09	114,00
-25371,48	47,00
-25303,13	61,00
-25235,02	-3,00
-25167,17	86,00
-25099,56	80,00
-25032,19	96,00
-24965,07	35,00
-24898,20	62,00
-24831,56	9,00
-24765,17	102,00
-24699,01	-66,00
-24633,10	138,00
-24567,41	140,00
-24501,97	152,00
-24436,75	-13,00
-24371,77	-47,00
-24307,03	48,00
-24242,51	-27,00
-24178,22	133,00
-24114,16	-29,00
-24050,32	136,00
-23986,71	20,00
-23923,32	33,00
-23860,16	64,00
-23797,22	-30,00
-23734,50	23,00
-23672,00	88,00
-23609,71	-44,00
-23547,65	28,00
-23485,80	8,00
-23424,16	102,00
-23362,74	-15,00
-23301,53	4,00
-23240,54	67,00
-23179,75	6,00
-23119,17	47,00
-23058,80	59,00
-22998,64	132,00
-22938,68	-60,00
-22878,93	53,00
-22819,39	7,00
-22760,04	49,00
-22700,90	86,00
-22641,96	46,00
-22583,22	34,00
-22524,68	59,00
-22466,33	-32,00
-22408,19	64,00
-22350,23	114,00
-22292,48	46,00
-22234,92	153,00
-22177,55	103,00
-22120,37	190,00
-22063,38	-51,00
-22006,58	89,00
-21949,98	40,00
-21893,56	-14,00
-21837,33	80,00
-21781,28	32,00
-21725,42	35,00
-21669,74	-5,00
-21614,25	89,00
-21558,94	131,00
-21503,81	164,00
-21448,86	-12,00
-21394,10	97,00
-21339,51	36,00
-21285,10	33,00
-21230,86	47,00
-21176,81	60,00
-21122,93	31,00
-21069,22	103,00
-21015,69	-134,00
-20962,33	128,00
-20909,14	102,00
-20856,13	-62,00
-20803,28	6,00
-20750,61	47,00
-20698,10	135,00
-20645,76	58,00
-20593,59	201,00
-20541,59	53,00
-20489,75	127,00
-20438,07	-34,00
-20386,56	47,00
-20335,22	10,00
-20284,03	14,00
-20233,01	111,00
-20182,15	1,00
-20131,45	55,00
-20080,91	-56,00
-20030,52	-35,00
-19980,30	61,00
-19930,23	-19,00
-19880,32	88,00
-19830,56	14,00
-19780,96	182,00
-19731,52	92,00
-19682,23	22,00
-19633,09	-2,00
-19584,10	89,00
-19535,26	45,00
-19486,58	73,00
-19438,04	-27,00
-19389,66	133,00
-19341,42	42,00
-19293,33	21,00
-19245,39	40,00
-19197,60	32,00
-19149,95	-39,00
-19102,45	79,00
-19055,09	29,00
-19007,87	63,00
-18960,80	-6,00
-18913,87	37,00
-18867,09	152,00
-18820,44	104,00
-18773,94	43,00
-18727,57	112,00
-18681,35	45,00
-18635,26	75,00
-18589,31	89,00
-18543,50	24,00
-18497,83	-30,00
-18452,29	46,00
-18406,89	50,00
-18361,63	59,00
-18316,50	100,00
-18271,50	-49,00
-18226,63	26,00
-18181,90	-60,00
-18137,30	-38,00
-18092,84	-8,00
-18048,50	77,00
-18004,29	81,00
-17960,22	-70,00
-17916,27	4,00
-17872,45	12,00
-17828,76	0,00
-17785,20	52,00
-17741,77	18,00
-17698,46	62,00
-17655,28	97,00
-17612,22	41,00
-17569,29	92,00
-17526,48	44,00
-17483,79	87,00
-17441,23	77,00
-17398,79	25,00
-17356,48	74,00
-17314,28	85,00
-17272,21	29,00
-17230,26	-16,00
-17188,42	35,00
-17146,71	63,00
-17105,12	92,00
-17063,64	27,00
-17022,28	111,00
-16981,04	111,00
-16939,92	85,00
-16898,91	-109,00
-16858,02	-8,00
-16817,25	64,00
-16776,59	61,00
-16736,04	44,00
-16695,61	90,00
-16655,29	60,00
-16615,09	131,00
-16574,99	70,00
-16535,01	80,00
-16495,15	-34,00
-16455,39	111,00
-16415,74	-50,00
-16376,21	113,00
-16336,78	69,00
-16297,46	35,00
-16258,26	38,00
-16219,16	-21,00
-16180,17	75,00
-16141,28	22,00
-16102,51	-51,00
-16063,84	46,00
-16025,27	7,00
-15986,82	49,00
-15948,46	-21,00
-15910,22	118,00
-15872,07	51,00
-15834,04	85,00
-15796,10	13,00
-15758,27	147,00
-15720,54	-18,00
-15682,91	91,00
-15645,39	60,00
-15607,97	90,00
-15570,64	139,00
-15533,42	156,00
-15496,30	-5,00
-15459,28	114,00
-15422,36	132,00
-15385,54	63,00
-15348,82	-56,00
-15312,19	3,00
-15275,66	-3,00
-15239,23	-27,00
-15202,90	145,00
-15166,67	106,00
-15130,53	-11,00
-15094,48	-9,00
-15058,54	58,00
-15022,68	83,00
-14986,93	78,00
-14951,26	51,00
-14915,69	0,00
-14880,22	115,00
-14844,84	118,00
-14809,55	-32,00
-14774,35	146,00
-14739,25	102,00
-14704,24	8,00
-14669,32	85,00
-14634,49	-204,00
-14599,75	82,00
-14565,10	69,00
-14530,55	66,00
-14496,08	128,00
-14461,70	83,00
-14427,41	154,00
-14393,21	71,00
-14359,10	40,00
-14325,07	54,00
-14291,14	44,00
-14257,29	72,00
-14223,52	46,00
-14189,85	167,00
-14156,26	159,00
-14122,76	44,00
-14089,34	135,00
-14056,01	47,00
-14022,76	-29,00
-13989,60	76,00
-13956,52	-21,00
-13923,53	6,00
-13890,62	114,00
-13857,79	31,00
-13825,05	55,00
-13792,39	54,00
-13759,81	42,00
-13727,31	35,00
-13694,90	79,00
-13662,57	-73,00
-13630,31	106,00
-13598,14	22,00
-13566,05	142,00
-13534,05	74,00
-13502,12	69,00
-13470,27	70,00
-13438,50	154,00
-13406,80	61,00
-13375,19	87,00
-13343,66	39,00
-13312,20	55,00
-13280,83	21,00
-13249,53	56,00
-13218,30	56,00
-13187,16	63,00
-13156,09	66,00
-13125,10	47,00
-13094,18	93,00
-13063,34	26,00
-13032,58	192,00
-13001,89	-11,00
-12971,28	-71,00
-12940,74	6,00
-12910,27	-15,00
-12879,88	94,00
-12849,57	-27,00
-12819,33	-21,00
-12789,16	24,00
-12759,06	37,00
-12729,04	6,00
-12699,09	-1143,00
-12669,21	85,00
-12639,41	74,00
-12609,68	46,00
-12580,02	-44,00
-12550,43	19,00
-12520,91	42,00
-12491,46	66,00
-12462,08	-27,00
-12432,77	100,00
-12403,54	-66,00
-12374,37	15,00
-12345,27	116,00
-12316,24	50,00
-12287,29	0,00
-12258,40	-21,00
-12229,57	5,00
-12200,82	87,00
-12172,14	96,00
-12143,52	18,00
-12114,97	36,00
-12086,49	1,00
-12058,07	75,00
-12029,73	35,00
-12001,44	79,00
-11973,23	35,00
-11945,08	18,00
-11917,00	48,00
-11888,98	65,00
-11861,03	75,00
-11833,15	14,00
-11805,32	157,00
-11777,57	115,00
-11749,88	-51,00
-11722,25	116,00
-11694,69	26,00
-11667,19	39,00
-11639,75	77,00
-11612,38	28,00
-11585,07	30,00
-11557,83	106,00
-11530,65	-88,00
-11503,53	73,00
-11476,47	72,00
-11449,48	-48,00
-11422,54	-55,00
-11395,67	29,00
-11368,86	74,00
-11342,11	67,00
-11315,43	94,00
-11288,80	-1,00
-11262,23	90,00
-11235,73	29,00
-11209,28	17,00
-11182,90	63,00
-11156,57	-14,00
-11130,31	172,00
-11104,10	10,00
-11077,96	153,00
-11051,87	128,00
-11025,84	21,00
-10999,87	71,00
-10973,96	88,00
-10948,11	-41,00
-10922,31	17,00
-10896,58	110,00
-10870,90	37,00
-10845,28	-27,00
-10819,71	54,00
-10794,20	106,00
-10768,75	-2,00
-10743,36	53,00
-10718,02	-5,00
-10692,74	36,00
-10667,52	136,00
-10642,35	-13,00
-10617,24	70,00
-10592,18	128,00
-10567,18	74,00
-10542,23	160,00
-10517,34	47,00
-10492,51	146,00
-10467,72	60,00
-10443,00	107,00
-10418,32	57,00
-10393,70	15,00
-10369,14	135,00
-10344,63	87,00
-10320,17	116,00
-10295,77	9,00
-10271,42	96,00
-10247,12	66,00
-10222,88	16,00
-10198,68	150,00
-10174,54	132,00
-10150,46	138,00
-10126,42	31,00
-10102,44	166,00
-10078,51	23,00
-10054,63	131,00
-10030,80	-2,00
-10007,03	43,00
-9983,30	75,00
-9959,63	203,00
-9936,01	102,00
-9912,44	134,00
-9888,92	28,00
-9865,44	163,00
-9842,02	162,00
-9818,65	68,00
-9795,33	104,00
-9772,06	16,00
-9748,84	80,00
-9725,67	95,00
-9702,55	153,00
-9679,47	40,00
-9656,45	229,00
-9633,47	211,00
-9610,55	130,00
-9587,67	170,00
-9564,84	114,00
-9542,06	147,00
-9519,32	200,00
-9496,64	293,00
-9474,00	205,00
-9451,41	294,00
-9428,87	141,00
-9406,37	150,00
-9383,92	7,00
-9361,52	-39,00
-9339,17	139,00
-9316,86	186,00
-9294,60	249,00
-9272,38	369,00
-9250,21	487,00
-9228,09	464,00
-9206,01	463,00
-9183,98	201,00
-9162,00	197,00
-9140,06	165,00
-9118,16	24,00
-9096,31	275,00
-9074,51	359,00
-9052,75	459,00
-9031,04	233,00
-9009,37	315,00
-8987,74	230,00
-8966,16	68,00
-8944,63	54,00
-8923,14	46,00
-8901,69	101,00
-8880,29	229,00
-8858,93	286,00
-8837,61	229,00
-8816,34	494,00
-8795,11	443,00
-8773,92	412,00
-8752,78	306,00
-8731,68	255,00
-8710,62	255,00
-8689,61	268,00
-8668,63	401,00
-8647,70	437,00
-8626,82	543,00
-8605,97	495,00
-8585,17	311,00
-8564,41	243,00
-8543,69	191,00
-8523,01	131,00
-8502,37	98,00
-8481,78	182,00
-8461,23	412,00
-8440,71	431,00
-8420,24	257,00
-8399,81	419,00
-8379,42	405,00
-8359,08	214,00
-8338,77	341,00
-8318,50	348,00
-8298,27	336,00
-8278,09	372,00
-8257,94	451,00
-8237,83	460,00
-8217,76	524,00
-8197,74	434,00
-8177,75	412,00
-8157,80	409,00
-8137,89	295,00
-8118,02	404,00
-8098,19	390,00
-8078,40	415,00
-8058,65	402,00
-8038,93	318,00
-8019,26	465,00
-7999,62	529,00
-7980,02	386,00
-7960,46	363,00
-7940,94	331,00
-7921,46	377,00
-7902,01	320,00
-7882,60	267,00
-7863,23	344,00
-7843,90	286,00
-7824,61	303,00
-7805,35	340,00
-7786,13	384,00
-7766,95	385,00
-7747,80	392,00
-7728,69	326,00
-7709,62	313,00
-7690,59	376,00
-7671,59	488,00
-7652,63	442,00
-7633,70	438,00
-7614,81	408,00
-7595,96	426,00
-7577,15	257,00
-7558,37	475,00
-7539,62	381,00
-7520,91	332,00
-7502,24	406,00
-7483,60	361,00
-7465,00	380,00
-7446,44	265,00
-7427,91	199,00
-7409,41	160,00
-7390,95	151,00
-7372,53	170,00
-7354,14	107,00
-7335,78	223,00
-7317,46	215,00
-7299,18	197,00
-7280,92	243,00
-7262,71	346,00
-7244,52	366,00
-7226,38	295,00
-7208,26	379,00
-7190,18	408,00
-7172,14	184,00
-7154,12	258,00
-7136,15	236,00
-7118,20	209,00
-7100,29	258,00
-7082,41	255,00
-7064,57	442,00
-7046,76	317,00
-7028,98	151,00
-7011,24	140,00
-6993,53	111,00
-6975,85	86,00
-6958,20	-35,00
-6940,59	59,00
-6923,01	-38,00
-6905,46	149,00
-6887,94	42,00
-6870,46	2706,00
-6853,01	84,00
-6835,59	177,00
-6818,21	339,00
-6800,85	144,00
-6783,53	-16,00
-6766,24	-39,00
-6748,98	52,00
-6731,76	-68,00
-6714,56	-59,00
-6697,40	-101,00
-6680,26	-6,00
-6663,16	-62,00
-6646,09	47,00
-6629,05	59,00
-6612,05	223,00
-6595,07	30,00
-6578,13	100,00
-6561,21	60,00
-6544,33	9,00
-6527,47	30,00
-6510,65	-66,00
-6493,86	-210,00
-6477,10	-220,00
-6460,36	-89,00
-6443,66	-22,00
-6426,99	-36,00
-6410,35	17,00
-6393,74	-24,00
-6377,16	-4,00
-6360,61	93,00
-6344,09	41,00
-6327,59	14,00
-6311,13	99,00
-6294,70	174,00
-6278,29	153,00
-6261,92	144,00
-6245,58	89,00
-6229,26	144,00
-6212,97	185,00
-6196,72	55,00
-6180,49	-74,00
-6164,29	-57,00
-6148,12	-24,00
-6131,98	-212,00
-6115,86	-133,00
-6099,78	-148,00
-6083,72	-152,00
-6067,69	-217,00
-6051,69	-144,00
-6035,72	-53,00
-6019,78	68,00
-6003,87	-24,00
-5987,98	-4,00
-5972,12	147,00
-5956,29	89,00
-5940,49	35,00
-5924,71	68,00
-5908,96	2,00
-5893,24	-26,00
-5877,55	-66,00
-5861,89	-187,00
-5846,25	-62,00
-5830,64	-52,00
-5815,05	-112,00
-5799,50	-32,00
-5783,97	77,00
-5768,47	144,00
-5752,99	103,00
-5737,55	57,00
-5722,12	181,00
-5706,73	-22,00
-5691,36	63,00
-5676,02	14,00
-5660,71	-44,00
-5645,42	-118,00
-5630,16	44,00
-5614,92	-23,00
-5599,71	-3,00
-5584,53	111,00
-5569,37	40,00
-5554,24	80,00
-5539,14	-16,00
-5524,06	13,00
-5509,01	-73,00
-5493,98	-87,00
-5478,98	-200,00
-5464,00	-106,00
-5449,05	-45,00
-5434,13	-96,00
-5419,23	2,00
-5404,36	-26,00
-5389,51	80,00
-5374,69	10,00
-5359,89	173,00
-5345,12	47,00
-5330,37	64,00
-5315,65	88,00
-5300,95	99,00
-5286,28	153,00
-5271,63	-115,00
-5257,01	-18,00
-5242,41	1,00
-5227,84	-120,00
-5213,29	-17,00
-5198,76	-54,00
-5184,26	102,00
-5169,79	-22,00
-5155,33	-129,00
-5140,91	-62,00
-5126,51	-11,00
-5112,13	9,00
-5097,77	40,00
-5083,44	-24,00
-5069,13	57,00
-5054,85	-154,00
-5040,59	86,00
-5026,36	-167,00
-5012,15	-116,00
-4997,96	5,00
-4983,80	-102,00
-4969,66	16,00
-4955,54	9,00
-4941,44	34,00
-4927,37	6,00
-4913,33	79,00
-4899,30	152,00
-4885,30	132,00
-4871,33	5,00
-4857,37	159,00
-4843,44	-11,00
-4829,53	-9,00
-4815,65	51,00
-4801,79	-99,00
-4787,95	-85,00
-4774,13	16,00
-4760,34	32,00
-4746,56	54,00
-4732,82	100,00
-4719,09	-16,00
-4705,38	-42,00
-4691,70	120,00
-4678,04	80,00
-4664,41	55,00
-4650,79	241,00
-4637,20	-5,00
-4623,63	-72,00
-4610,08	71,00
-4596,56	105,00
-4583,05	47,00
-4569,57	83,00
-4556,11	87,00
-4542,67	86,00
-4529,25	41,00
-4515,86	105,00
-4502,49	-3,00
-4489,13	42,00
-4475,80	164,00
-4462,49	131,00
-4449,21	58,00
-4435,94	110,00
-4422,70	74,00
-4409,47	171,00
-4396,27	19,00
-4383,09	2,00
-4369,93	-3,00
-4356,79	60,00
-4343,67	-12,00
-4330,58	13,00
-4317,50	49,00
-4304,45	122,00
-4291,41	64,00
-4278,40	120,00
-4265,41	171,00
-4252,44	177,00
-4239,49	187,00
-4226,55	109,00
-4213,65	60,00
-4200,76	65,00
-4187,89	43,00
-4175,04	-22,00
-4162,21	4,00
-4149,40	68,00
-4136,61	108,00
-4123,85	132,00
-4111,10	55,00
-4098,37	37,00
-4085,66	-44,00
-4072,98	-14,00
-4060,31	0,00
-4047,66	68,00
-4035,04	71,00
-4022,43	96,00
-4009,84	8,00
-3997,27	35,00
-3984,72	65,00
-3972,19	119,00
-3959,69	10,00
-3947,20	122,00
-3934,73	15,00
-3922,27	34,00
-3909,84	0,00
-3897,43	149,00
-3885,04	38,00
-3872,67	38,00
-3860,31	40,00
-3847,98	-60,00
-3835,66	84,00
-3823,36	19,00
-3811,09	72,00
-3798,83	66,00
-3786,59	82,00
-3774,37	-51,00
-3762,17	120,00
-3749,98	5,00
-3737,82	100,00
-3725,67	112,00
-3713,55	169,00
-3701,44	-23,00
-3689,35	94,00
-3677,28	20,00
-3665,22	-18,00
-3653,19	117,00
-3641,17	54,00
-3629,18	92,00
-3617,20	172,00
-3605,24	49,00
-3593,30	-20,00
-3581,37	3,00
-3569,47	-16,00
-3557,58	121,00
-3545,71	-2,00
-3533,86	85,00
-3522,02	159,00
-3510,21	48,00
-3498,41	1,00
-3486,63	99,00
-3474,87	121,00
-3463,12	25,00
-3451,40	-44,00
-3439,69	29,00
-3428,00	72,00
-3416,33	122,00
-3404,67	24,00
-3393,03	182,00
-3381,41	-50,00
-3369,81	106,00
-3358,22	-27,00
-3346,66	17,00
-3335,10	31,00
-3323,57	109,00
-3312,06	80,00
-3300,56	8,00
-3289,08	101,00
-3277,61	77,00
-3266,16	33,00
-3254,73	22,00
-3243,32	129,00
-3231,92	-12,00
-3220,55	139,00
-3209,18	41,00
-3197,84	13,00
-3186,51	15,00
-3175,20	112,00
-3163,90	77,00
-3152,63	80,00
-3141,36	124,00
-3130,12	9,00
-3118,89	146,00
-3107,68	111,00
-3096,49	33,00
-3085,31	147,00
-3074,15	67,00
-3063,00	55,00
-3051,87	79,00
-3040,76	-14,00
-3029,67	75,00
-3018,59	2,00
-3007,52	46,00
-2996,48	7,00
-2985,44	13,00
-2974,43	22,00
-2963,43	19,00
-2952,45	85,00
-2941,48	-139,00
-2930,53	72,00
-2919,60	53,00
-2908,68	83,00
-2897,78	186,00
-2886,89	29,00
-2876,02	-49,00
-2865,17	141,00
-2854,33	118,00
-2843,50	65,00
-2832,70	7,00
-2821,90	15,00
-2811,13	16,00
-2800,37	33,00
-2789,62	183,00
-2778,89	4,00
-2768,18	137,00
-2757,48	211,00
-2746,80	43,00
-2736,13	-18,00
-2725,48	16,00
-2714,84	44,00
-2704,22	23,00
-2693,61	87,00
-2683,02	50,00
-2672,45	63,00
-2661,89	-16,00
-2651,34	-45,00
-2640,81	-15,00
-2630,30	180,00
-2619,80	36,00
-2609,31	133,00
-2598,84	111,00
-2588,39	-5,00
-2577,95	-19,00
-2567,52	-6,00
-2557,11	80,00
-2546,71	68,00
-2536,33	75,00
-2525,97	74,00
-2515,62	48,00
-2505,28	129,00
-2494,96	20,00
-2484,65	110,00
-2474,36	65,00
-2464,08	71,00
-2453,82	99,00
-2443,57	32,00
-2433,33	57,00
-2423,11	94,00
-2412,91	27,00
-2402,72	140,00
-2392,54	102,00
-2382,38	44,00
-2372,23	60,00
-2362,09	-4193,00
-2351,97	-15,00
-2341,87	30,00
-2331,78	92,00
-2321,70	46,00
-2311,64	62,00
-2301,59	122,00
-2291,55	124,00
-2281,53	14,00
-2271,53	71,00
-2261,53	101,00
-2251,55	58,00
-2241,59	43,00
-2231,64	39,00
-2221,70	127,00
-2211,78	-68,00
-2201,87	116,00
-2191,97	83,00
-2182,09	23,00
-2172,22	62,00
-2162,37	91,00
-2152,53	80,00
-2142,70	110,00
-2132,89	50,00
-2123,09	87,00
-2113,30	65,00
-2103,53	74,00
-2093,77	58,00
-2084,02	58,00
-2074,29	23,00
-2064,57	91,00
-2054,86	19,00
-2045,17	94,00
-2035,49	93,00
-2025,82	-58,00
-2016,17	128,00
-2006,53	-37,00
-1996,91	113,00
-1987,29	46,00
-1977,69	51,00
-1968,11	100,00
-1958,53	80,00
-1948,97	-4,00
-1939,42	59,00
-1929,89	74,00
-1920,37	57,00
-1910,86	-63,00
-1901,36	50,00
-1891,88	18,00
-1882,41	26,00
-1872,95	36,00
-1863,51	16,00
-1854,08	170,00
-1844,66	64,00
-1835,26	149,00
-1825,86	56,00
-1816,48	108,00
-1807,11	63,00
-1797,76	106,00
-1788,42	-29,00
-1779,09	-36,00
-1769,77	31,00
-1760,47	23,00
-1751,17	-26,00
-1741,89	-29,00
-1732,63	23,00
-1723,37	94,00
-1714,13	38,00
-1704,90	-60,00
-1695,68	44,00
-1686,48	40,00
-1677,29	208,00
-1668,11	-3,00
-1658,94	152,00
-1649,78	75,00
-1640,64	83,00
-1631,51	117,00
-1622,39	79,00
-1613,28	-24,00
-1604,19	82,00
-1595,10	-56,00
-1586,03	-45,00
-1576,97	35,00
-1567,93	163,00
-1558,89	92,00
-1549,87	40,00
-1540,86	32,00
-1531,86	44,00
-1522,87	90,00
-1513,90	25,00
-1504,93	-50,00
-1495,98	92,00
-1487,04	-50,00
-1478,12	-74,00
-1469,20	105,00
-1460,30	14,00
-1451,40	69,00
-1442,52	-55,00
-1433,65	60,00
-1424,80	41,00
-1415,95	13,00
-1407,12	6,00
-1398,30	6,00
-1389,48	142,00
-1380,69	1,00
-1371,90	13,00
-1363,12	38,00
-1354,36	73,00
-1345,60	79,00
-1336,86	-73,00
-1328,13	73,00
-1319,41	-35,00
-1310,70	39,00
-1302,01	59,00
-1293,32	68,00
-1284,65	14,00
-1275,99	-9,00
-1267,33	48,00
-1258,69	203,00
-1250,06	38,00
-1241,45	29,00
-1232,84	-19,00
-1224,25	3,00
-1215,66	-23,00
-1207,09	-102,00
-1198,53	26,00
-1189,97	8,00
-1181,43	-29,00
-1172,91	-84,00
-1164,39	45,00
-1155,88	41,00
-1147,38	97,00
-1138,90	127,00
-1130,43	71,00
-1121,96	-35,00
-1113,51	102,00
-1105,07	91,00
-1096,64	58,00
-1088,22	110,00
-1079,81	37,00
-1071,41	16,00
-1063,02	-32,00
-1054,65	97,00
-1046,28	-2,00
-1037,92	63,00
-1029,58	97,00
-1021,24	18,00
-1012,92	-1,00
-1004,61	-10,00
-996,30	27,00
-988,01	90,00
-979,73	92,00
-971,46	62,00
-963,20	64,00
-954,95	39,00
-946,71	-57,00
-938,48	24,00
-930,26	60,00
-922,06	108,00
-913,86	-16,00
-905,67	61,00
-897,49	130,00
-889,33	38,00
-881,17	105,00
-873,02	173,00
-864,89	37,00
-856,76	44,00
-848,65	-16,00
-840,54	105,00
-832,45	-44,00
-824,36	-11,00
-816,29	58,00
-808,22	26,00
-800,17	150,00
-792,12	11,00
-784,09	16,00
-776,06	12,00
-768,05	71,00
-760,04	106,00
-752,05	69,00
-744,07	6,00
-736,09	29,00
-728,13	65,00
-720,17	146,00
-712,23	51,00
-704,29	165,00
-696,37	48,00
-688,45	44,00
-680,55	103,00
-672,65	-20,00
-664,77	65,00
-656,89	103,00
-649,03	41,00
-641,17	21,00
-633,32	1,00
-625,49	48,00
-617,66	-48,00
-609,84	56,00
-602,03	60,00
-594,23	123,00
-586,45	60,00
-578,67	80,00
-570,90	13,00
-563,14	36,00
-555,39	7,00
-547,65	-47,00
-539,91	88,00
-532,19	-67,00
-524,48	-35,00
-516,78	10,00
-509,08	92,00
-501,40	107,00
-493,72	153,00
-486,06	-42,00
-478,40	5,00
-470,76	5,00
-463,12	101,00
-455,49	17,00
-447,87	72,00
-440,26	157,00
-432,66	119,00
-425,07	39,00
-417,49	73,00
-409,92	-13,00
-402,35	55,00
-394,80	136,00
-387,25	0,00
-379,72	110,00
-372,19	28,00
-364,67	131,00
-357,17	119,00
-349,67	159,00
-342,18	0,00
-334,69	59,00
-327,22	48,00
-319,76	98,00
-312,30	-6,00
-304,86	133,00
-297,42	52,00
-290,00	177,00
-282,58	109,00
-275,17	198,00
-267,77	50,00
-260,37	135,00
-252,99	153,00
-245,62	72,00
-238,25	65,00
-230,90	130,00
-223,55	28,00
-216,21	102,00
-208,88	53,00
-201,56	170,00
-194,25	209,00
-186,94	160,00
-179,65	236,00
-172,36	174,00
-165,08	194,00
-157,81	117,00
-150,55	300,00
-143,30	279,00
-136,06	259,00
-128,82	252,00
-121,60	421,00
-114,38	354,00
-107,17	385,00
-99,97	455,00
-92,78	467,00
-85,60	585,00
-78,42	661,00
-71,25	747,00
-64,10	695,00
-56,95	948,00
-49,81	1187,00
-42,67	1410,00
-35,55	1784,00
-28,43	2378,00
-21,33	4109,00
-14,23	13629,00
-7,14	56139,00
-0,05	55888,00
7,02	55558,00
14,09	44263,00
21,14	11700,00
28,19	4833,00
35,23	3097,00
42,27	2376,00
49,29	1990,00
56,31	1658,00
63,32	1256,00
70,32	1108,00
77,31	1025,00
84,29	841,00
91,27	844,00
98,23	697,00
105,19	646,00
112,14	764,00
119,09	1336,00
126,02	2098,00
132,95	2563,00
139,87	2806,00
146,78	2580,00
153,68	2884,00
160,58	2709,00
167,46	2691,00
174,34	2725,00
181,21	2749,00
188,08	2705,00
194,93	2694,00
201,78	2700,00
208,62	2764,00
215,45	2636,00
222,27	2677,00
229,09	2760,00
235,90	2775,00
242,70	2711,00
249,49	2659,00
256,27	2709,00
263,05	2616,00
269,82	2563,00
276,58	2734,00
283,33	2821,00
290,08	2676,00
296,82	2728,00
303,55	2633,00
310,27	2511,00
316,98	2690,00
323,69	2689,00
330,39	2612,00
337,08	2567,00
343,76	2626,00
350,44	2565,00
357,11	2658,00
363,77	2581,00
370,42	2574,00
377,07	2438,00
383,71	2748,00
390,34	2626,00
396,96	2623,00
403,58	2650,00
410,19	2695,00
416,79	2760,00
423,38	2850,00
429,97	2654,00
436,55	2681,00
443,12	2594,00
449,68	2658,00
456,24	2654,00
462,79	2655,00
469,33	2625,00
475,86	2628,00
482,39	2605,00
488,91	2534,00
495,42	2759,00
501,93	2607,00
508,42	2689,00
514,91	2602,00
521,40	2688,00
527,87	2524,00
534,34	2806,00
540,80	2515,00
547,25	2680,00
553,70	2652,00
560,14	2736,00
566,57	2561,00
573,00	2678,00
579,41	2612,00
585,83	2706,00
592,23	2572,00
598,62	2783,00
605,01	2756,00
611,40	2725,00
617,77	2597,00
624,14	2767,00
630,50	2572,00
636,85	2563,00
643,20	2658,00
649,54	2653,00
655,87	2615,00
662,20	2680,00
668,52	2536,00
674,83	2551,00
681,13	2572,00
687,43	2656,00
693,72	2666,00
700,00	2672,00
706,28	2561,00
712,55	2737,00
718,81	2590,00
725,07	2715,00
731,32	2581,00
737,56	2743,00
743,79	2730,00
750,02	2798,00
756,24	2736,00
762,46	2811,00
768,67	2726,00
774,87	2799,00
781,06	2809,00
787,25	2771,00
793,43	2696,00
799,60	2737,00
805,77	2705,00
811,93	2688,00
818,08	2861,00
824,23	2739,00
830,37	2754,00
836,50	2835,00
842,63	2791,00
848,75	2983,00
854,87	2865,00
860,97	2820,00
867,07	2741,00
873,17	2707,00
879,25	2829,00
885,33	2799,00
891,41	2706,00
897,47	2786,00
903,53	2699,00
909,59	2826,00
915,63	2839,00
921,67	2857,00
927,71	2780,00
933,74	2778,00
939,76	2828,00
945,77	2696,00
951,78	2700,00
957,78	2833,00
963,78	2806,00
969,77	2873,00
975,75	2903,00
981,72	2932,00
987,69	2721,00
993,66	2907,00
999,61	2803,00
1005,56	2904,00
1011,51	2837,00
1017,44	2844,00
1023,37	2940,00
1029,30	3037,00
1035,22	2822,00
1041,13	2976,00
1047,03	2988,00
1052,93	3156,00
1058,83	3457,00
1064,71	3666,00
1070,59	3313,00
1076,47	3138,00
1082,33	3113,00
1088,20	3213,00
1094,05	3079,00
1099,90	2979,00
1105,74	3151,00
1111,58	3109,00
1117,41	3249,00
1123,23	3581,00
1129,05	3776,00
1134,86	3554,00
1140,67	3363,00
1146,47	3241,00
1152,26	3034,00
1158,05	3044,00
1163,83	3127,00
1169,60	3119,00
1175,37	3120,00
1181,13	3105,00
1186,89	2919,00
1192,64	3065,00
1198,38	2940,00
1204,12	2975,00
1209,85	3036,00
1215,58	3131,00
1221,30	3116,00
1227,02	3127,00
1232,72	3210,00
1238,43	3241,00
1244,12	3226,00
1249,81	3168,00
1255,50	3141,00
1261,17	3144,00
1266,85	3329,00
1272,51	3303,00
1278,17	3303,00
1283,83	3510,00
1289,47	3703,00
1295,12	4175,00
1300,75	3990,00
1306,38	3682,00
1312,01	3421,00
1317,63	3200,00
1323,24	3311,00
1328,85	3351,00
1334,45	3275,00
1340,04	3203,00
1345,63	3206,00
1351,22	3223,00
1356,80	3240,00
1362,37	3149,00
1367,93	3244,00
1373,49	3363,00
1379,05	3148,00
1384,60	3310,00
1390,14	3264,00
1395,68	3283,00
1401,21	3250,00
1406,74	3350,00
1412,26	3516,00
1417,77	3604,00
1423,28	3594,00
1428,78	3582,00
1434,28	3838,00
1439,77	4088,00
1445,26	4050,00
1450,74	3952,00
1456,22	4016,00
1461,68	3831,00
1467,15	3663,00
1472,61	3550,00
1478,06	3516,00
1483,51	3186,00
1488,95	3330,00
1494,38	3252,00
1499,81	3088,00
1505,24	3179,00
1510,65	2949,00
1516,07	3056,00
1521,48	3191,00
1526,88	3156,00
1532,27	3025,00
1537,67	3112,00
1543,05	3091,00
1548,43	2982,00
1553,81	3054,00
1559,18	3011,00
1564,54	2989,00
1569,90	3048,00
1575,25	3002,00
1580,60	2922,00
1585,94	2970,00
1591,28	3170,00
1596,61	2954,00
1601,93	3064,00
1607,25	2993,00
1612,57	2838,00
1617,88	2952,00
1623,18	2945,00
1628,48	2971,00
1633,77	2957,00
1639,06	2924,00
1644,34	2923,00
1649,62	2877,00
1654,89	2821,00
1660,16	2887,00
1665,42	2912,00
1670,67	2862,00
1675,92	2770,00
1681,17	2757,00
1686,41	2790,00
1691,64	2823,00
1696,87	2784,00
1702,10	2785,00
1707,32	2866,00
1712,53	2846,00
1717,74	2702,00
1722,94	2858,00
1728,14	2734,00
1733,33	2776,00
1738,52	2723,00
1743,70	2694,00
1748,88	2831,00
1754,05	2718,00
1759,22	2685,00
1764,38	2674,00
1769,53	2663,00
1774,69	2714,00
1779,83	2680,00
1784,97	2663,00
1790,11	2564,00
1795,24	2619,00
1800,36	2581,00
1805,48	2536,00
1810,60	2607,00
1815,71	2625,00
1820,82	2610,00
1825,92	2618,00
1831,01	2646,00
1836,10	2568,00
1841,19	2741,00
1846,26	2603,00
1851,34	2618,00
1856,41	2563,00
1861,47	2599,00
1866,53	2525,00
1871,59	2494,00
1876,64	2508,00
1881,68	2590,00
1886,72	2638,00
1891,76	2466,00
1896,79	2469,00
1901,81	2579,00
1906,83	2391,00
1911,85	2482,00
1916,86	2461,00
1921,86	2512,00
1926,86	2414,00
1931,86	2294,00
1936,85	2309,00
1941,83	2407,00
1946,81	2362,00
1951,79	2302,00
1956,76	2375,00
1961,72	2334,00
1966,68	2366,00
1971,64	2234,00
1976,59	2325,00
1981,54	2252,00
1986,48	2267,00
1991,42	2315,00
1996,35	2249,00
2001,27	2401,00
2006,20	2377,00
2011,11	2247,00
2016,03	2301,00
2020,93	2219,00
2025,84	2270,00
2030,73	2368,00
2035,63	2326,00
2040,52	2173,00
2045,40	2173,00
2050,28	2324,00
2055,15	2138,00
2060,02	2216,00
2064,89	2272,00
2069,75	2179,00
2074,60	2193,00
2079,46	2260,00
2084,30	2314,00
2089,14	2232,00
2093,98	2269,00
2098,81	2062,00
2103,64	2188,00
2108,46	2248,00
2113,28	2117,00
2118,09	2067,00
2122,90	2149,00
2127,70	2107,00
2132,50	2150,00
2137,30	2252,00
2142,09	2106,00
2146,87	2076,00
2151,66	2044,00
2156,43	2154,00
2161,20	2039,00
2165,97	2015,00
2170,73	2093,00
2175,49	2028,00
2180,24	1998,00
2184,99	2100,00
2189,74	2021,00
2194,48	2052,00
2199,21	2087,00
2203,94	1973,00
2208,67	2051,00
2213,39	1969,00
2218,11	1919,00
2222,82	1982,00
2227,53	1970,00
2232,23	2003,00
2236,93	2010,00
2241,63	2008,00
2246,32	1981,00
2251,00	1990,00
2255,68	1942,00
2260,36	1860,00
2265,03	1969,00
2269,70	2027,00
2274,36	1970,00
2279,02	1920,00
2283,68	1894,00
2288,33	1842,00
2292,97	1731,00
2297,61	1871,00
2302,25	1848,00
2306,88	1790,00
2311,51	1784,00
2316,14	1815,00
2320,75	1943,00
2325,37	1818,00
2329,98	1922,00
2334,59	1766,00
2339,19	1707,00
2343,79	1732,00
2348,38	1821,00
2352,97	1764,00
2357,55	1691,00
2362,13	1809,00
2366,71	1640,00
2371,28	1817,00
2375,85	1642,00
2380,41	1747,00
2384,97	1614,00
2389,52	1608,00
2394,07	1628,00
2398,62	1623,00
2403,16	1581,00
2407,70	1619,00
2412,23	1469,00
2416,76	1708,00
2421,29	1509,00
2425,81	1515,00
2430,32	1597,00
2434,84	1452,00
2439,34	1534,00
2443,85	1540,00
2448,35	1552,00
2452,84	1616,00
2457,33	1567,00
2461,82	1471,00
2466,30	1472,00
2470,78	1504,00
2475,25	1441,00
2479,72	1561,00
2484,19	1412,00
2488,65	1367,00
2493,11	1521,00
2497,56	1356,00
2502,01	1368,00
2506,46	1424,00
2510,90	1414,00
2515,34	1438,00
2519,77	1269,00
2524,20	1407,00
2528,62	1331,00
2533,04	1435,00
2537,46	1358,00
2541,87	1322,00
2546,28	1371,00
2550,68	1442,00
2555,08	1345,00
2559,48	1413,00
2563,87	1329,00
2568,26	1207,00
2572,64	1308,00
2577,02	1331,00
2581,40	1316,00
2585,77	1229,00
2590,14	1143,00
2594,50	1225,00
2598,86	1217,00
2603,22	1157,00
2607,57	1278,00
2611,92	1086,00
2616,26	1142,00
2620,60	1127,00
2624,94	1336,00
2629,27	1275,00
2633,60	1105,00
2637,92	1234,00
2642,24	1149,00
2646,56	1151,00
2650,87	1092,00
2655,18	1057,00
2659,48	1078,00
2663,78	1224,00
2668,08	1153,00
2672,37	1128,00
2676,66	1223,00
2680,95	1161,00
2685,23	1165,00
2689,50	1019,00
2693,78	1148,00
2698,05	1107,00
2702,31	1165,00
2706,57	1167,00
2710,83	1176,00
2715,08	1151,00
2719,33	1236,00
2723,58	1195,00
2727,82	1373,00
2732,06	1151,00
2736,29	1077,00
2740,53	1183,00
2744,75	1061,00
2748,97	1154,00
2753,19	1123,00
2757,41	1045,00
2761,62	1090,00
2765,83	1100,00
2770,03	1158,00
2774,23	995,00
2778,43	1011,00
2782,62	1122,00
2786,81	1039,00
2791,00	1034,00
2795,18	998,00
2799,35	1168,00
2803,53	1027,00
2807,70	1022,00
2811,86	1111,00
2816,03	1170,00
2820,19	1176,00
2824,34	1284,00
2828,49	1198,00
2832,64	1397,00
2836,78	1548,00
2840,92	1796,00
2845,06	1970,00
2849,19	2277,00
2853,32	2065,00
2857,45	2156,00
2861,57	2083,00
2865,69	2089,00
2869,80	2037,00
2873,91	2021,00
2878,02	2163,00
2882,12	2426,00
2886,22	2306,00
2890,32	2155,00
2894,41	2100,00
2898,50	1969,00
2902,58	1786,00
2906,67	1673,00
2910,74	1623,00
2914,82	1667,00
2918,89	1472,00
2922,96	1366,00
2927,02	1270,00
2931,08	1194,00
2935,13	1325,00
2939,19	1101,00
2943,24	1102,00
2947,28	1080,00
2951,32	935,00
2955,36	829,00
2959,40	972,00
2963,43	945,00
2967,46	951,00
2971,48	853,00
2975,50	760,00
2979,52	781,00
2983,53	696,00
2987,54	731,00
2991,55	700,00
2995,55	887,00
2999,55	666,00
3003,54	669,00
3007,54	640,00
3011,53	674,00
3015,51	664,00
3019,49	656,00
3023,47	611,00
3027,45	627,00
3031,42	645,00
3035,39	526,00
3039,35	542,00
3043,31	607,00
3047,27	515,00
3051,22	594,00
3055,17	480,00
3059,12	572,00
3063,06	590,00
3067,00	569,00
3070,94	444,00
3074,87	640,00
3078,80	476,00
3082,73	325,00
3086,65	522,00
3090,57	438,00
3094,49	527,00
3098,40	382,00
3102,31	441,00
3106,22	425,00
3110,12	449,00
3114,02	465,00
3117,92	503,00
3121,81	540,00
3125,70	388,00
3129,58	434,00
3133,47	358,00
3137,34	384,00
3141,22	447,00
3145,09	358,00
3148,96	438,00
3152,83	319,00
3156,69	470,00
3160,55	418,00
3164,40	265,00
3168,26	418,00
3172,10	341,00
3175,95	408,00
3179,79	458,00
3183,63	327,00
3187,47	407,00
3191,30	369,00
3195,13	394,00
3198,95	382,00
3202,78	394,00
3206,60	317,00
3210,41	249,00
3214,23	314,00
3218,03	354,00
3221,84	376,00
3225,64	332,00
3229,44	406,00
3233,24	399,00
3237,03	326,00
3240,82	277,00
3244,61	272,00
3248,39	281,00
3252,17	307,00
3255,95	316,00
3259,72	269,00
3263,49	203,00
3267,26	285,00
3271,03	299,00
3274,79	297,00
3278,54	407,00
3282,30	244,00
3286,05	207,00
3289,80	268,00
3293,54	169,00
3297,29	292,00
3301,02	240,00
3304,76	297,00
3308,49	352,00
3312,22	276,00
3315,95	395,00
3319,67	232,00
3323,39	262,00
3327,10	245,00
3330,82	294,00
3334,53	272,00
3338,24	320,00
3341,94	223,00
3345,64	278,00
3349,34	144,00
3353,03	156,00
3356,72	235,00
3360,41	197,00
3364,10	131,00
3367,78	240,00
3371,46	186,00
3375,13	146,00
3378,81	220,00
3382,48	323,00
3386,14	99,00
3389,81	342,00
3393,47	175,00
3397,12	212,00
3400,78	162,00
3404,43	208,00
3408,08	212,00
3411,72	179,00
3415,36	185,00
3419,00	123,00
3422,64	104,00
3426,27	219,00
3429,90	159,00
3433,53	205,00
3437,15	157,00
3440,77	201,00
3444,39	209,00
3448,00	222,00
3451,62	194,00
3455,22	132,00
3458,83	194,00
3462,43	149,00
3466,03	158,00
3469,63	159,00
3473,22	213,00
3476,81	223,00
3480,40	100,00
3483,99	166,00
3487,57	141,00
3491,15	74,00
3494,72	168,00
3498,29	222,00
3501,86	95,00
3505,43	52,00
3508,99	75,00
3512,56	107,00
3516,11	76,00
3519,67	70,00
3523,22	164,00
3526,77	120,00
3530,32	80,00
3533,86	172,00
3537,40	96,00
3540,94	96,00
3544,47	155,00
3548,00	151,00
3551,53	25,00
3555,06	52,00
3558,58	51,00
3562,10	12,00
3565,62	148,00
3569,13	54,00
3572,64	-25,00
3576,15	194,00
3579,66	163,00
3583,16	-8,00
3586,66	166,00
3590,16	130,00
3593,65	91,00
3597,14	133,00
3600,63	170,00
3604,11	79,00
3607,60	85,00
3611,08	32,00
3614,55	-58,00
3618,03	90,00
3621,50	156,00
3624,97	96,00
3628,43	-33,00
3631,90	246,00
3635,36	95,00
3638,81	88,00
3642,27	32,00
3645,72	95,00
3649,17	138,00
3652,61	34,00
3656,06	45,00
3659,50	106,00
3662,93	114,00
3666,37	187,00
3669,80	33,00
3673,23	36,00
3676,65	85,00
3680,08	152,00
3683,50	93,00
3686,92	108,00
3690,33	-51,00
3693,74	53,00
3697,15	137,00
3700,56	8,00
3703,96	30,00
3707,36	138,00
3710,76	97,00
3714,16	131,00
3717,55	38,00
3720,94	-17,00
3724,33	125,00
3727,71	87,00
3731,10	-20,00
3734,48	-70,00
3737,85	62,00
3741,23	103,00
3744,60	-52,00
3747,97	72,00
3751,33	11,00
3754,69	9,00
3758,05	30,00
3761,41	51,00
3764,77	117,00
3768,12	189,00
3771,47	-18,00
3774,82	164,00
3778,16	-1,00
3781,50	4,00
3784,84	7,00
3788,18	-9,00
>>>>>End Processed Spectral Data<<<<<
