SpectraSuite Data File
++++++++++++++++++++++++++++++++++++
Date: Mon Mar 09 14:35:59 ICT 2026
User: Administrator
Dark Spectrum Present: Yes
Reference Spectrum Present: No
Number of Sampled Component Spectra: 1
Spectrometers: MAYP113682
Integration Time (usec): 3000000 (MAYP113682)
Spectra Averaged: 1 (MAYP113682)
Boxcar Smoothing: 0 (MAYP113682)
Correct for Electrical Dark: No (MAYP113682)
Strobe/Lamp Enabled: No (MAYP113682)
Correct for Detector Non-linearity: No (MAYP113682)
Correct for Stray Light: No (MAYP113682)
Number of Pixels in Processed Spectrum: 2068
>>>>>Begin Processed Spectral Data<<<<<
-37534,58	7,00
-37414,56	-5,00
-37295,11	-4,00
-37176,24	-2,00
-37057,95	68,00
-36940,22	56,00
-36823,05	73,00
-36706,45	104,00
-36590,40	-6,00
-36474,90	184,00
-36359,95	157,00
-36245,55	61,00
-36131,68	72,00
-36018,35	139,00
-35905,55	94,00
-35793,29	2,00
-35681,54	17,00
-35570,32	88,00
-35459,62	42,00
-35349,43	126,00
-35239,75	-55,00
-35130,58	20,00
-35021,91	52,00
-34913,74	90,00
-34806,07	52,00
-34698,89	92,00
-34592,20	92,00
-34486,00	143,00
-34380,28	53,00
-34275,04	84,00
-34170,27	62,00
-34065,98	12,00
-33962,16	41,00
-33858,81	-10,00
-33755,92	4,00
-33653,49	121,00
-33551,52	144,00
-33450,01	-48,00
-33348,94	65,00
-33248,33	117,00
-33148,16	135,00
-33048,43	100,00
-32949,14	24,00
-32850,29	116,00
-32751,87	64,00
-32653,89	72,00
-32556,33	107,00
-32459,20	122,00
-32362,49	108,00
-32266,19	83,00
-32170,32	33,00
-32074,86	50,00
-31979,82	95,00
-31885,18	132,00
-31790,95	188,00
-31697,12	32,00
-31603,69	106,00
-31510,67	37,00
-31418,04	-10,00
-31325,80	138,00
-31233,95	99,00
-31142,49	43,00
-31051,42	205,00
-30960,73	86,00
-30870,43	84,00
-30780,50	38,00
-30690,95	71,00
-30601,77	162,00
-30512,97	71,00
-30424,53	71,00
-30336,46	50,00
-30248,76	102,00
-30161,42	56,00
-30074,44	96,00
-29987,81	25,00
-29901,55	114,00
-29815,63	13,00
-29730,07	1,00
-29644,86	89,00
-29560,00	131,00
-29475,48	34,00
-29391,30	112,00
-29307,47	28,00
-29223,97	79,00
-29140,81	24,00
-29057,99	100,00
-28975,50	106,00
-28893,34	62,00
-28811,51	32,00
-28730,00	87,00
-28648,82	33,00
-28567,97	19,00
-28487,43	130,00
-28407,21	89,00
-28327,32	36,00
-28247,73	106,00
-28168,46	95,00
-28089,50	43,00
-28010,85	-10,00
-27932,51	-6,00
-27854,48	1,00
-27776,75	43,00
-27699,32	86,00
-27622,19	78,00
-27545,37	101,00
-27468,84	9,00
-27392,60	52,00
-27316,66	74,00
-27241,01	5,00
-27165,66	167,00
-27090,59	22,00
-27015,81	70,00
-26941,31	82,00
-26867,10	104,00
-26793,17	47,00
-26719,52	47,00
-26646,15	86,00
-26573,06	148,00
-26500,24	131,00
-26427,70	100,00
-26355,43	139,00
-26283,43	94,00
-26211,71	165,00
-26140,25	72,00
-26069,06	80,00
-25998,13	-41,00
-25927,46	137,00
-25857,06	207,00
-25786,92	51,00
-25717,04	89,00
-25647,42	31,00
-25578,05	150,00
-25508,94	42,00
-25440,09	101,00
-25371,48	69,00
-25303,13	21,00
-25235,02	142,00
-25167,17	108,00
-25099,56	72,00
-25032,19	103,00
-24965,07	110,00
-24898,20	77,00
-24831,56	-39,00
-24765,17	129,00
-24699,01	107,00
-24633,10	92,00
-24567,41	-1,00
-24501,97	65,00
-24436,75	4,00
-24371,77	61,00
-24307,03	85,00
-24242,51	33,00
-24178,22	129,00
-24114,16	34,00
-24050,32	7,00
-23986,71	2,00
-23923,32	151,00
-23860,16	6,00
-23797,22	22,00
-23734,50	72,00
-23672,00	101,00
-23609,71	67,00
-23547,65	25,00
-23485,80	61,00
-23424,16	64,00
-23362,74	106,00
-23301,53	52,00
-23240,54	87,00
-23179,75	103,00
-23119,17	49,00
-23058,80	121,00
-22998,64	70,00
-22938,68	17,00
-22878,93	94,00
-22819,39	86,00
-22760,04	150,00
-22700,90	80,00
-22641,96	36,00
-22583,22	42,00
-22524,68	67,00
-22466,33	-7,00
-22408,19	127,00
-22350,23	57,00
-22292,48	147,00
-22234,92	59,00
-22177,55	106,00
-22120,37	53,00
-22063,38	-7,00
-22006,58	35,00
-21949,98	66,00
-21893,56	-23,00
-21837,33	64,00
-21781,28	57,00
-21725,42	35,00
-21669,74	-1,00
-21614,25	107,00
-21558,94	-31,00
-21503,81	-3,00
-21448,86	55,00
-21394,10	109,00
-21339,51	17,00
-21285,10	-26,00
-21230,86	-9,00
-21176,81	88,00
-21122,93	38,00
-21069,22	73,00
-21015,69	102,00
-20962,33	74,00
-20909,14	38,00
-20856,13	13,00
-20803,28	109,00
-20750,61	39,00
-20698,10	86,00
-20645,76	45,00
-20593,59	72,00
-20541,59	45,00
-20489,75	118,00
-20438,07	65,00
-20386,56	98,00
-20335,22	118,00
-20284,03	11,00
-20233,01	96,00
-20182,15	13,00
-20131,45	7,00
-20080,91	10,00
-20030,52	51,00
-19980,30	-5,00
-19930,23	66,00
-19880,32	80,00
-19830,56	88,00
-19780,96	-15,00
-19731,52	149,00
-19682,23	42,00
-19633,09	33,00
-19584,10	51,00
-19535,26	45,00
-19486,58	33,00
-19438,04	6,00
-19389,66	19,00
-19341,42	104,00
-19293,33	19,00
-19245,39	56,00
-19197,60	-17,00
-19149,95	79,00
-19102,45	54,00
-19055,09	20,00
-19007,87	37,00
-18960,80	136,00
-18913,87	-4,00
-18867,09	155,00
-18820,44	77,00
-18773,94	74,00
-18727,57	66,00
-18681,35	17,00
-18635,26	63,00
-18589,31	43,00
-18543,50	-3,00
-18497,83	139,00
-18452,29	96,00
-18406,89	85,00
-18361,63	68,00
-18316,50	152,00
-18271,50	29,00
-18226,63	-9,00
-18181,90	39,00
-18137,30	32,00
-18092,84	67,00
-18048,50	121,00
-18004,29	23,00
-17960,22	104,00
-17916,27	92,00
-17872,45	17,00
-17828,76	46,00
-17785,20	78,00
-17741,77	122,00
-17698,46	79,00
-17655,28	122,00
-17612,22	49,00
-17569,29	-11,00
-17526,48	27,00
-17483,79	134,00
-17441,23	113,00
-17398,79	51,00
-17356,48	112,00
-17314,28	114,00
-17272,21	113,00
-17230,26	5,00
-17188,42	74,00
-17146,71	-25,00
-17105,12	33,00
-17063,64	49,00
-17022,28	83,00
-16981,04	62,00
-16939,92	64,00
-16898,91	32,00
-16858,02	95,00
-16817,25	52,00
-16776,59	-19,00
-16736,04	107,00
-16695,61	55,00
-16655,29	89,00
-16615,09	141,00
-16574,99	46,00
-16535,01	-19,00
-16495,15	31,00
-16455,39	104,00
-16415,74	151,00
-16376,21	27,00
-16336,78	69,00
-16297,46	103,00
-16258,26	127,00
-16219,16	22,00
-16180,17	46,00
-16141,28	40,00
-16102,51	99,00
-16063,84	88,00
-16025,27	151,00
-15986,82	51,00
-15948,46	22,00
-15910,22	144,00
-15872,07	96,00
-15834,04	76,00
-15796,10	92,00
-15758,27	132,00
-15720,54	39,00
-15682,91	143,00
-15645,39	36,00
-15607,97	68,00
-15570,64	0,00
-15533,42	6,00
-15496,30	76,00
-15459,28	-32,00
-15422,36	16,00
-15385,54	56,00
-15348,82	65,00
-15312,19	117,00
-15275,66	-5,00
-15239,23	62,00
-15202,90	92,00
-15166,67	62,00
-15130,53	101,00
-15094,48	117,00
-15058,54	68,00
-15022,68	62,00
-14986,93	52,00
-14951,26	92,00
-14915,69	-108,00
-14880,22	20,00
-14844,84	49,00
-14809,55	67,00
-14774,35	-56,00
-14739,25	183,00
-14704,24	29,00
-14669,32	156,00
-14634,49	62,00
-14599,75	12,00
-14565,10	36,00
-14530,55	116,00
-14496,08	192,00
-14461,70	44,00
-14427,41	117,00
-14393,21	64,00
-14359,10	48,00
-14325,07	139,00
-14291,14	67,00
-14257,29	48,00
-14223,52	30,00
-14189,85	61,00
-14156,26	78,00
-14122,76	70,00
-14089,34	90,00
-14056,01	48,00
-14022,76	26,00
-13989,60	241,00
-13956,52	40,00
-13923,53	154,00
-13890,62	127,00
-13857,79	9,00
-13825,05	75,00
-13792,39	94,00
-13759,81	134,00
-13727,31	15,00
-13694,90	26,00
-13662,57	63,00
-13630,31	44,00
-13598,14	28,00
-13566,05	63,00
-13534,05	37,00
-13502,12	8,00
-13470,27	92,00
-13438,50	27,00
-13406,80	35,00
-13375,19	116,00
-13343,66	37,00
-13312,20	29,00
-13280,83	-33,00
-13249,53	69,00
-13218,30	23,00
-13187,16	75,00
-13156,09	46,00
-13125,10	89,00
-13094,18	110,00
-13063,34	106,00
-13032,58	-24,00
-13001,89	100,00
-12971,28	50,00
-12940,74	82,00
-12910,27	59,00
-12879,88	43,00
-12849,57	56,00
-12819,33	-67,00
-12789,16	72,00
-12759,06	-26,00
-12729,04	92,00
-12699,09	178,00
-12669,21	38,00
-12639,41	68,00
-12609,68	119,00
-12580,02	32,00
-12550,43	94,00
-12520,91	25,00
-12491,46	10,00
-12462,08	5,00
-12432,77	4,00
-12403,54	-12,00
-12374,37	29,00
-12345,27	101,00
-12316,24	65,00
-12287,29	112,00
-12258,40	106,00
-12229,57	40,00
-12200,82	106,00
-12172,14	58,00
-12143,52	66,00
-12114,97	5,00
-12086,49	24,00
-12058,07	87,00
-12029,73	81,00
-12001,44	165,00
-11973,23	64,00
-11945,08	89,00
-11917,00	58,00
-11888,98	54,00
-11861,03	35,00
-11833,15	92,00
-11805,32	28,00
-11777,57	58,00
-11749,88	40,00
-11722,25	31,00
-11694,69	47,00
-11667,19	128,00
-11639,75	69,00
-11612,38	123,00
-11585,07	12,00
-11557,83	94,00
-11530,65	144,00
-11503,53	170,00
-11476,47	96,00
-11449,48	78,00
-11422,54	-20,00
-11395,67	-3,00
-11368,86	62,00
-11342,11	83,00
-11315,43	-76,00
-11288,80	53,00
-11262,23	45,00
-11235,73	69,00
-11209,28	34,00
-11182,90	-26,00
-11156,57	56,00
-11130,31	58,00
-11104,10	48,00
-11077,96	133,00
-11051,87	64,00
-11025,84	62,00
-10999,87	103,00
-10973,96	185,00
-10948,11	134,00
-10922,31	24,00
-10896,58	103,00
-10870,90	-18,00
-10845,28	47,00
-10819,71	116,00
-10794,20	-3,00
-10768,75	139,00
-10743,36	5,00
-10718,02	68,00
-10692,74	55,00
-10667,52	49,00
-10642,35	89,00
-10617,24	119,00
-10592,18	159,00
-10567,18	28,00
-10542,23	32,00
-10517,34	37,00
-10492,51	122,00
-10467,72	-1,00
-10443,00	72,00
-10418,32	80,00
-10393,70	4,00
-10369,14	10,00
-10344,63	138,00
-10320,17	58,00
-10295,77	74,00
-10271,42	50,00
-10247,12	28,00
-10222,88	150,00
-10198,68	-6,00
-10174,54	42,00
-10150,46	78,00
-10126,42	38,00
-10102,44	64,00
-10078,51	89,00
-10054,63	-5,00
-10030,80	35,00
-10007,03	66,00
-9983,30	5,00
-9959,63	23,00
-9936,01	8,00
-9912,44	72,00
-9888,92	58,00
-9865,44	23,00
-9842,02	89,00
-9818,65	-12,00
-9795,33	71,00
-9772,06	21,00
-9748,84	-36,00
-9725,67	18,00
-9702,55	-70,00
-9679,47	-17,00
-9656,45	-37,00
-9633,47	-55,00
-9610,55	-19,00
-9587,67	-10,00
-9564,84	-34,00
-9542,06	-68,00
-9519,32	-43,00
-9496,64	-59,00
-9474,00	-171,00
-9451,41	-71,00
-9428,87	-106,00
-9406,37	-73,00
-9383,92	-66,00
-9361,52	-145,00
-9339,17	-122,00
-9316,86	-224,00
-9294,60	-257,00
-9272,38	-184,00
-9250,21	-327,00
-9228,09	-241,00
-9206,01	-290,00
-9183,98	-204,00
-9162,00	-217,00
-9140,06	-256,00
-9118,16	-270,00
-9096,31	-127,00
-9074,51	-213,00
-9052,75	-114,00
-9031,04	-125,00
-9009,37	-232,00
-8987,74	-229,00
-8966,16	-172,00
-8944,63	-182,00
-8923,14	-273,00
-8901,69	-161,00
-8880,29	-149,00
-8858,93	-155,00
-8837,61	-61,00
-8816,34	-148,00
-8795,11	-98,00
-8773,92	-63,00
-8752,78	-63,00
-8731,68	-196,00
-8710,62	-218,00
-8689,61	-246,00
-8668,63	-85,00
-8647,70	-116,00
-8626,82	-100,00
-8605,97	-115,00
-8585,17	-114,00
-8564,41	-135,00
-8543,69	-177,00
-8523,01	-89,00
-8502,37	-68,00
-8481,78	-169,00
-8461,23	-237,00
-8440,71	-208,00
-8420,24	-173,00
-8399,81	-118,00
-8379,42	-93,00
-8359,08	-128,00
-8338,77	-114,00
-8318,50	-95,00
-8298,27	-82,00
-8278,09	-95,00
-8257,94	-189,00
-8237,83	-61,00
-8217,76	-87,00
-8197,74	-27,00
-8177,75	-70,00
-8157,80	-124,00
-8137,89	-57,00
-8118,02	-142,00
-8098,19	13,00
-8078,40	-27,00
-8058,65	-82,00
-8038,93	2,00
-8019,26	92,00
-7999,62	-37,00
-7980,02	-78,00
-7960,46	20,00
-7940,94	-45,00
-7921,46	52,00
-7902,01	-88,00
-7882,60	-63,00
-7863,23	-6,00
-7843,90	-27,00
-7824,61	-101,00
-7805,35	0,00
-7786,13	-41,00
-7766,95	-101,00
-7747,80	37,00
-7728,69	-11,00
-7709,62	-4,00
-7690,59	14,00
-7671,59	-2,00
-7652,63	-23,00
-7633,70	-12,00
-7614,81	-68,00
-7595,96	-52,00
-7577,15	-77,00
-7558,37	-36,00
-7539,62	-131,00
-7520,91	-98,00
-7502,24	-47,00
-7483,60	-73,00
-7465,00	-10,00
-7446,44	-39,00
-7427,91	80,00
-7409,41	-108,00
-7390,95	41,00
-7372,53	-27,00
-7354,14	-9,00
-7335,78	14,00
-7317,46	-64,00
-7299,18	4,00
-7280,92	-21,00
-7262,71	-16,00
-7244,52	-87,00
-7226,38	-55,00
-7208,26	-67,00
-7190,18	-29,00
-7172,14	-24,00
-7154,12	-16,00
-7136,15	-104,00
-7118,20	-73,00
-7100,29	6,00
-7082,41	45,00
-7064,57	-66,00
-7046,76	-57,00
-7028,98	-50,00
-7011,24	78,00
-6993,53	-109,00
-6975,85	-33,00
-6958,20	-125,00
-6940,59	-92,00
-6923,01	-87,00
-6905,46	-18,00
-6887,94	2,00
-6870,46	70,00
-6853,01	-138,00
-6835,59	-89,00
-6818,21	-40,00
-6800,85	-91,00
-6783,53	-46,00
-6766,24	-10,00
-6748,98	-22,00
-6731,76	-25,00
-6714,56	-106,00
-6697,40	-53,00
-6680,26	-17,00
-6663,16	-37,00
-6646,09	-74,00
-6629,05	-83,00
-6612,05	14,00
-6595,07	-133,00
-6578,13	-103,00
-6561,21	-48,00
-6544,33	-27,00
-6527,47	-104,00
-6510,65	22,00
-6493,86	13,00
-6477,10	-78,00
-6460,36	-35,00
-6443,66	-45,00
-6426,99	-28,00
-6410,35	-79,00
-6393,74	-41,00
-6377,16	-17,00
-6360,61	-79,00
-6344,09	-155,00
-6327,59	-9,00
-6311,13	-123,00
-6294,70	-32,00
-6278,29	4,00
-6261,92	81,00
-6245,58	-7,00
-6229,26	15,00
-6212,97	-96,00
-6196,72	-34,00
-6180,49	15,00
-6164,29	0,00
-6148,12	-76,00
-6131,98	-68,00
-6115,86	11,00
-6099,78	-27,00
-6083,72	-61,00
-6067,69	-10,00
-6051,69	15,00
-6035,72	-8,00
-6019,78	-2,00
-6003,87	71,00
-5987,98	16,00
-5972,12	-12,00
-5956,29	-32,00
-5940,49	-9,00
-5924,71	-3,00
-5908,96	6,00
-5893,24	45,00
-5877,55	-67,00
-5861,89	27,00
-5846,25	-65,00
-5830,64	-25,00
-5815,05	-42,00
-5799,50	46,00
-5783,97	29,00
-5768,47	102,00
-5752,99	27,00
-5737,55	-6,00
-5722,12	-116,00
-5706,73	6,00
-5691,36	-24,00
-5676,02	-69,00
-5660,71	31,00
-5645,42	-10,00
-5630,16	1,00
-5614,92	45,00
-5599,71	-45,00
-5584,53	-46,00
-5569,37	-101,00
-5554,24	135,00
-5539,14	72,00
-5524,06	30,00
-5509,01	-79,00
-5493,98	-81,00
-5478,98	19,00
-5464,00	-55,00
-5449,05	-83,00
-5434,13	49,00
-5419,23	43,00
-5404,36	-79,00
-5389,51	49,00
-5374,69	-95,00
-5359,89	-135,00
-5345,12	-4,00
-5330,37	46,00
-5315,65	60,00
-5300,95	33,00
-5286,28	-84,00
-5271,63	-69,00
-5257,01	-9,00
-5242,41	38,00
-5227,84	-16,00
-5213,29	-33,00
-5198,76	44,00
-5184,26	-16,00
-5169,79	2,00
-5155,33	75,00
-5140,91	-9,00
-5126,51	-85,00
-5112,13	98,00
-5097,77	49,00
-5083,44	36,00
-5069,13	-5,00
-5054,85	26,00
-5040,59	-4,00
-5026,36	21,00
-5012,15	41,00
-4997,96	-21,00
-4983,80	80,00
-4969,66	38,00
-4955,54	58,00
-4941,44	51,00
-4927,37	44,00
-4913,33	24,00
-4899,30	-107,00
-4885,30	-29,00
-4871,33	36,00
-4857,37	23,00
-4843,44	92,00
-4829,53	64,00
-4815,65	-37,00
-4801,79	-21,00
-4787,95	-161,00
-4774,13	10,00
-4760,34	0,00
-4746,56	60,00
-4732,82	62,00
-4719,09	-64,00
-4705,38	0,00
-4691,70	12,00
-4678,04	-85,00
-4664,41	38,00
-4650,79	-26,00
-4637,20	72,00
-4623,63	77,00
-4610,08	39,00
-4596,56	-42,00
-4583,05	-12,00
-4569,57	-3,00
-4556,11	8,00
-4542,67	40,00
-4529,25	-35,00
-4515,86	89,00
-4502,49	61,00
-4489,13	19,00
-4475,80	21,00
-4462,49	38,00
-4449,21	53,00
-4435,94	148,00
-4422,70	180,00
-4409,47	-16,00
-4396,27	-12,00
-4383,09	41,00
-4369,93	-41,00
-4356,79	131,00
-4343,67	-13,00
-4330,58	-11,00
-4317,50	-73,00
-4304,45	37,00
-4291,41	1,00
-4278,40	3,00
-4265,41	32,00
-4252,44	80,00
-4239,49	71,00
-4226,55	-14,00
-4213,65	17,00
-4200,76	99,00
-4187,89	60,00
-4175,04	84,00
-4162,21	16,00
-4149,40	74,00
-4136,61	-65,00
-4123,85	44,00
-4111,10	64,00
-4098,37	138,00
-4085,66	46,00
-4072,98	72,00
-4060,31	-38,00
-4047,66	129,00
-4035,04	104,00
-4022,43	-32,00
-4009,84	109,00
-3997,27	40,00
-3984,72	137,00
-3972,19	77,00
-3959,69	32,00
-3947,20	128,00
-3934,73	140,00
-3922,27	76,00
-3909,84	56,00
-3897,43	91,00
-3885,04	-10,00
-3872,67	16,00
-3860,31	104,00
-3847,98	120,00
-3835,66	157,00
-3823,36	127,00
-3811,09	43,00
-3798,83	56,00
-3786,59	112,00
-3774,37	138,00
-3762,17	-28,00
-3749,98	40,00
-3737,82	21,00
-3725,67	18,00
-3713,55	5,00
-3701,44	106,00
-3689,35	61,00
-3677,28	92,00
-3665,22	-21,00
-3653,19	-28,00
-3641,17	82,00
-3629,18	36,00
-3617,20	-9,00
-3605,24	62,00
-3593,30	13,00
-3581,37	49,00
-3569,47	41,00
-3557,58	142,00
-3545,71	24,00
-3533,86	128,00
-3522,02	72,00
-3510,21	137,00
-3498,41	46,00
-3486,63	43,00
-3474,87	48,00
-3463,12	86,00
-3451,40	-40,00
-3439,69	50,00
-3428,00	22,00
-3416,33	4,00
-3404,67	116,00
-3393,03	63,00
-3381,41	-61,00
-3369,81	-4,00
-3358,22	68,00
-3346,66	-1,00
-3335,10	111,00
-3323,57	-17,00
-3312,06	71,00
-3300,56	111,00
-3289,08	48,00
-3277,61	3,00
-3266,16	68,00
-3254,73	72,00
-3243,32	49,00
-3231,92	104,00
-3220,55	62,00
-3209,18	97,00
-3197,84	88,00
-3186,51	4,00
-3175,20	67,00
-3163,90	29,00
-3152,63	145,00
-3141,36	61,00
-3130,12	17,00
-3118,89	62,00
-3107,68	100,00
-3096,49	99,00
-3085,31	44,00
-3074,15	62,00
-3063,00	28,00
-3051,87	132,00
-3040,76	143,00
-3029,67	-5,00
-3018,59	138,00
-3007,52	58,00
-2996,48	130,00
-2985,44	-63,00
-2974,43	-9,00
-2963,43	42,00
-2952,45	62,00
-2941,48	105,00
-2930,53	125,00
-2919,60	-13,00
-2908,68	67,00
-2897,78	57,00
-2886,89	86,00
-2876,02	87,00
-2865,17	-8,00
-2854,33	60,00
-2843,50	15,00
-2832,70	-86,00
-2821,90	86,00
-2811,13	138,00
-2800,37	44,00
-2789,62	59,00
-2778,89	45,00
-2768,18	6,00
-2757,48	98,00
-2746,80	85,00
-2736,13	176,00
-2725,48	22,00
-2714,84	87,00
-2704,22	-12,00
-2693,61	3,00
-2683,02	-32,00
-2672,45	84,00
-2661,89	81,00
-2651,34	51,00
-2640,81	49,00
-2630,30	29,00
-2619,80	96,00
-2609,31	120,00
-2598,84	69,00
-2588,39	148,00
-2577,95	56,00
-2567,52	6,00
-2557,11	83,00
-2546,71	10,00
-2536,33	68,00
-2525,97	177,00
-2515,62	26,00
-2505,28	68,00
-2494,96	98,00
-2484,65	16,00
-2474,36	52,00
-2464,08	83,00
-2453,82	122,00
-2443,57	106,00
-2433,33	48,00
-2423,11	14,00
-2412,91	5,00
-2402,72	73,00
-2392,54	47,00
-2382,38	72,00
-2372,23	148,00
-2362,09	3605,00
-2351,97	42,00
-2341,87	48,00
-2331,78	8,00
-2321,70	74,00
-2311,64	99,00
-2301,59	59,00
-2291,55	44,00
-2281,53	54,00
-2271,53	79,00
-2261,53	117,00
-2251,55	32,00
-2241,59	79,00
-2231,64	82,00
-2221,70	10,00
-2211,78	115,00
-2201,87	43,00
-2191,97	-23,00
-2182,09	-11,00
-2172,22	106,00
-2162,37	102,00
-2152,53	65,00
-2142,70	11,00
-2132,89	42,00
-2123,09	91,00
-2113,30	156,00
-2103,53	89,00
-2093,77	24,00
-2084,02	59,00
-2074,29	10,00
-2064,57	55,00
-2054,86	42,00
-2045,17	53,00
-2035,49	91,00
-2025,82	107,00
-2016,17	41,00
-2006,53	88,00
-1996,91	75,00
-1987,29	-14,00
-1977,69	148,00
-1968,11	67,00
-1958,53	72,00
-1948,97	117,00
-1939,42	31,00
-1929,89	3,00
-1920,37	124,00
-1910,86	91,00
-1901,36	18,00
-1891,88	53,00
-1882,41	112,00
-1872,95	83,00
-1863,51	63,00
-1854,08	110,00
-1844,66	52,00
-1835,26	24,00
-1825,86	69,00
-1816,48	-12,00
-1807,11	84,00
-1797,76	118,00
-1788,42	-18,00
-1779,09	91,00
-1769,77	81,00
-1760,47	64,00
-1751,17	90,00
-1741,89	121,00
-1732,63	129,00
-1723,37	114,00
-1714,13	117,00
-1704,90	-1,00
-1695,68	127,00
-1686,48	22,00
-1677,29	36,00
-1668,11	40,00
-1658,94	83,00
-1649,78	60,00
-1640,64	36,00
-1631,51	-18,00
-1622,39	34,00
-1613,28	98,00
-1604,19	194,00
-1595,10	30,00
-1586,03	62,00
-1576,97	129,00
-1567,93	92,00
-1558,89	203,00
-1549,87	118,00
-1540,86	88,00
-1531,86	86,00
-1522,87	48,00
-1513,90	34,00
-1504,93	112,00
-1495,98	38,00
-1487,04	144,00
-1478,12	124,00
-1469,20	63,00
-1460,30	74,00
-1451,40	193,00
-1442,52	-1,00
-1433,65	79,00
-1424,80	70,00
-1415,95	90,00
-1407,12	151,00
-1398,30	84,00
-1389,48	-17,00
-1380,69	89,00
-1371,90	4,00
-1363,12	79,00
-1354,36	96,00
-1345,60	75,00
-1336,86	6,00
-1328,13	75,00
-1319,41	114,00
-1310,70	94,00
-1302,01	137,00
-1293,32	-77,00
-1284,65	54,00
-1275,99	55,00
-1267,33	157,00
-1258,69	143,00
-1250,06	141,00
-1241,45	109,00
-1232,84	113,00
-1224,25	134,00
-1215,66	66,00
-1207,09	125,00
-1198,53	50,00
-1189,97	52,00
-1181,43	100,00
-1172,91	45,00
-1164,39	8,00
-1155,88	102,00
-1147,38	7,00
-1138,90	123,00
-1130,43	18,00
-1121,96	106,00
-1113,51	126,00
-1105,07	97,00
-1096,64	41,00
-1088,22	19,00
-1079,81	80,00
-1071,41	173,00
-1063,02	95,00
-1054,65	59,00
-1046,28	90,00
-1037,92	97,00
-1029,58	16,00
-1021,24	83,00
-1012,92	163,00
-1004,61	144,00
-996,30	81,00
-988,01	49,00
-979,73	104,00
-971,46	35,00
-963,20	48,00
-954,95	8,00
-946,71	29,00
-938,48	55,00
-930,26	106,00
-922,06	81,00
-913,86	162,00
-905,67	102,00
-897,49	0,00
-889,33	72,00
-881,17	88,00
-873,02	126,00
-864,89	-29,00
-856,76	31,00
-848,65	69,00
-840,54	44,00
-832,45	91,00
-824,36	32,00
-816,29	73,00
-808,22	58,00
-800,17	102,00
-792,12	140,00
-784,09	179,00
-776,06	100,00
-768,05	147,00
-760,04	29,00
-752,05	54,00
-744,07	62,00
-736,09	136,00
-728,13	67,00
-720,17	164,00
-712,23	71,00
-704,29	50,00
-696,37	125,00
-688,45	47,00
-680,55	19,00
-672,65	9,00
-664,77	100,00
-656,89	78,00
-649,03	53,00
-641,17	30,00
-633,32	158,00
-625,49	62,00
-617,66	97,00
-609,84	37,00
-602,03	23,00
-594,23	80,00
-586,45	82,00
-578,67	99,00
-570,90	72,00
-563,14	129,00
-555,39	131,00
-547,65	96,00
-539,91	101,00
-532,19	81,00
-524,48	79,00
-516,78	54,00
-509,08	91,00
-501,40	58,00
-493,72	32,00
-486,06	122,00
-478,40	81,00
-470,76	84,00
-463,12	-36,00
-455,49	1,00
-447,87	129,00
-440,26	73,00
-432,66	115,00
-425,07	176,00
-417,49	55,00
-409,92	121,00
-402,35	-63,00
-394,80	84,00
-387,25	35,00
-379,72	117,00
-372,19	95,00
-364,67	86,00
-357,17	104,00
-349,67	55,00
-342,18	67,00
-334,69	78,00
-327,22	119,00
-319,76	-1,00
-312,30	130,00
-304,86	150,00
-297,42	171,00
-290,00	42,00
-282,58	79,00
-275,17	102,00
-267,77	94,00
-260,37	88,00
-252,99	155,00
-245,62	62,00
-238,25	56,00
-230,90	144,00
-223,55	175,00
-216,21	136,00
-208,88	105,00
-201,56	220,00
-194,25	140,00
-186,94	157,00
-179,65	202,00
-172,36	217,00
-165,08	123,00
-157,81	247,00
-150,55	246,00
-143,30	280,00
-136,06	238,00
-128,82	292,00
-121,60	338,00
-114,38	321,00
-107,17	381,00
-99,97	480,00
-92,78	426,00
-85,60	569,00
-78,42	638,00
-71,25	744,00
-64,10	842,00
-56,95	861,00
-49,81	1077,00
-42,67	1511,00
-35,55	1735,00
-28,43	2242,00
-21,33	3630,00
-14,23	11711,00
-7,14	57775,00
-0,05	57564,00
7,02	57281,00
14,09	45110,00
21,14	11472,00
28,19	4807,00
35,23	3052,00
42,27	2270,00
49,29	1795,00
56,31	1608,00
63,32	1371,00
70,32	1062,00
77,31	915,00
84,29	815,00
91,27	803,00
98,23	720,00
105,19	624,00
112,14	755,00
119,09	1052,00
126,02	1558,00
132,95	2093,00
139,87	2085,00
146,78	2105,00
153,68	2097,00
160,58	1954,00
167,46	1980,00
174,34	1994,00
181,21	2078,00
188,08	2104,00
194,93	2083,00
201,78	1933,00
208,62	1970,00
215,45	2056,00
222,27	2049,00
229,09	2097,00
235,90	2010,00
242,70	1968,00
249,49	2015,00
256,27	1891,00
263,05	1953,00
269,82	1925,00
276,58	1967,00
283,33	1931,00
290,08	1941,00
296,82	1921,00
303,55	1969,00
310,27	1804,00
316,98	1919,00
323,69	1936,00
330,39	1835,00
337,08	1891,00
343,76	1942,00
350,44	1888,00
357,11	1930,00
363,77	1877,00
370,42	1884,00
377,07	1953,00
383,71	1811,00
390,34	1964,00
396,96	1946,00
403,58	1904,00
410,19	2007,00
416,79	1953,00
423,38	1935,00
429,97	1904,00
436,55	1790,00
443,12	1828,00
449,68	1816,00
456,24	1897,00
462,79	1868,00
469,33	1885,00
475,86	1920,00
482,39	1881,00
488,91	1864,00
495,42	1878,00
501,93	1878,00
508,42	1885,00
514,91	1845,00
521,40	1805,00
527,87	1891,00
534,34	1768,00
540,80	1861,00
547,25	1862,00
553,70	1947,00
560,14	1814,00
566,57	1872,00
573,00	1839,00
579,41	1887,00
585,83	1860,00
592,23	1832,00
598,62	1899,00
605,01	1753,00
611,40	1810,00
617,77	1925,00
624,14	1869,00
630,50	1827,00
636,85	1807,00
643,20	1918,00
649,54	1804,00
655,87	1814,00
662,20	1964,00
668,52	1898,00
674,83	1883,00
681,13	1848,00
687,43	1850,00
693,72	1786,00
700,00	1768,00
706,28	1849,00
712,55	1775,00
718,81	1844,00
725,07	1805,00
731,32	1879,00
737,56	1822,00
743,79	1831,00
750,02	1821,00
756,24	1863,00
762,46	1827,00
768,67	1857,00
774,87	1968,00
781,06	1909,00
787,25	1894,00
793,43	2014,00
799,60	1819,00
805,77	1906,00
811,93	1871,00
818,08	1900,00
824,23	1867,00
830,37	1960,00
836,50	1932,00
842,63	1888,00
848,75	1942,00
854,87	2009,00
860,97	1869,00
867,07	1962,00
873,17	1856,00
879,25	1987,00
885,33	1910,00
891,41	1926,00
897,47	1921,00
903,53	1955,00
909,59	1934,00
915,63	1834,00
921,67	1920,00
927,71	1909,00
933,74	1883,00
939,76	1905,00
945,77	1863,00
951,78	1878,00
957,78	1951,00
963,78	1941,00
969,77	1944,00
975,75	2045,00
981,72	1886,00
987,69	1942,00
993,66	1837,00
999,61	2015,00
1005,56	1960,00
1011,51	1969,00
1017,44	2015,00
1023,37	1941,00
1029,30	1993,00
1035,22	2095,00
1041,13	1986,00
1047,03	2059,00
1052,93	2159,00
1058,83	2456,00
1064,71	2615,00
1070,59	2335,00
1076,47	2149,00
1082,33	2155,00
1088,20	2059,00
1094,05	2160,00
1099,90	2054,00
1105,74	2166,00
1111,58	2014,00
1117,41	2237,00
1123,23	2384,00
1129,05	2775,00
1134,86	2455,00
1140,67	2349,00
1146,47	2182,00
1152,26	2131,00
1158,05	1981,00
1163,83	2102,00
1169,60	2160,00
1175,37	2132,00
1181,13	2047,00
1186,89	2081,00
1192,64	1988,00
1198,38	2128,00
1204,12	1984,00
1209,85	2087,00
1215,58	2075,00
1221,30	2044,00
1227,02	2068,00
1232,72	2084,00
1238,43	2072,00
1244,12	2203,00
1249,81	2149,00
1255,50	2081,00
1261,17	2146,00
1266,85	2131,00
1272,51	2240,00
1278,17	2198,00
1283,83	2207,00
1289,47	2537,00
1295,12	2880,00
1300,75	2876,00
1306,38	2532,00
1312,01	2341,00
1317,63	2219,00
1323,24	2293,00
1328,85	2291,00
1334,45	2232,00
1340,04	2073,00
1345,63	2174,00
1351,22	2215,00
1356,80	2171,00
1362,37	2172,00
1367,93	2114,00
1373,49	2306,00
1379,05	2145,00
1384,60	2200,00
1390,14	2215,00
1395,68	2227,00
1401,21	2201,00
1406,74	2281,00
1412,26	2495,00
1417,77	2593,00
1423,28	2572,00
1428,78	2607,00
1434,28	2797,00
1439,77	2894,00
1445,26	3021,00
1450,74	2878,00
1456,22	2798,00
1461,68	2721,00
1467,15	2650,00
1472,61	2512,00
1478,06	2351,00
1483,51	2352,00
1488,95	2309,00
1494,38	2115,00
1499,81	2202,00
1505,24	2058,00
1510,65	2177,00
1516,07	2202,00
1521,48	2054,00
1526,88	1937,00
1532,27	2216,00
1537,67	1946,00
1543,05	2080,00
1548,43	1906,00
1553,81	2023,00
1559,18	1989,00
1564,54	2053,00
1569,90	2020,00
1575,25	2015,00
1580,60	1889,00
1585,94	2017,00
1591,28	2095,00
1596,61	2139,00
1601,93	2011,00
1607,25	1953,00
1612,57	1988,00
1617,88	1941,00
1623,18	1884,00
1628,48	1942,00
1633,77	1885,00
1639,06	1930,00
1644,34	1935,00
1649,62	1946,00
1654,89	1937,00
1660,16	1851,00
1665,42	1958,00
1670,67	1856,00
1675,92	2014,00
1681,17	1925,00
1686,41	1916,00
1691,64	1958,00
1696,87	1855,00
1702,10	1871,00
1707,32	1908,00
1712,53	1905,00
1717,74	1830,00
1722,94	1825,00
1728,14	1799,00
1733,33	1831,00
1738,52	1791,00
1743,70	1847,00
1748,88	1809,00
1754,05	1715,00
1759,22	1712,00
1764,38	2930,00
1769,53	1760,00
1774,69	1795,00
1779,83	1830,00
1784,97	1752,00
1790,11	1721,00
1795,24	1732,00
1800,36	1708,00
1805,48	1697,00
1810,60	1772,00
1815,71	1723,00
1820,82	1690,00
1825,92	1717,00
1831,01	1765,00
1836,10	1712,00
1841,19	1674,00
1846,26	1684,00
1851,34	1669,00
1856,41	1770,00
1861,47	1800,00
1866,53	1712,00
1871,59	1646,00
1876,64	1766,00
1881,68	1715,00
1886,72	1797,00
1891,76	1689,00
1896,79	1629,00
1901,81	1674,00
1906,83	1632,00
1911,85	1641,00
1916,86	1597,00
1921,86	1605,00
1926,86	1577,00
1931,86	1604,00
1936,85	1645,00
1941,83	1627,00
1946,81	1530,00
1951,79	1563,00
1956,76	1466,00
1961,72	1545,00
1966,68	1572,00
1971,64	1554,00
1976,59	1532,00
1981,54	1613,00
1986,48	1450,00
1991,42	1539,00
1996,35	1534,00
2001,27	1537,00
2006,20	1502,00
2011,11	1520,00
2016,03	1554,00
2020,93	1567,00
2025,84	1499,00
2030,73	1508,00
2035,63	1410,00
2040,52	1419,00
2045,40	1562,00
2050,28	1437,00
2055,15	1492,00
2060,02	1420,00
2064,89	1501,00
2069,75	1447,00
2074,60	1378,00
2079,46	1314,00
2084,30	1396,00
2089,14	1404,00
2093,98	1467,00
2098,81	1495,00
2103,64	1454,00
2108,46	1415,00
2113,28	1415,00
2118,09	1522,00
2122,90	1439,00
2127,70	1421,00
2132,50	1432,00
2137,30	1433,00
2142,09	1390,00
2146,87	1382,00
2151,66	1483,00
2156,43	1427,00
2161,20	1421,00
2165,97	1313,00
2170,73	1332,00
2175,49	1375,00
2180,24	1316,00
2184,99	1389,00
2189,74	1260,00
2194,48	1367,00
2199,21	1355,00
2203,94	1329,00
2208,67	1267,00
2213,39	1252,00
2218,11	1345,00
2222,82	1314,00
2227,53	1353,00
2232,23	1318,00
2236,93	1260,00
2241,63	1257,00
2246,32	1215,00
2251,00	1298,00
2255,68	1251,00
2260,36	1325,00
2265,03	1288,00
2269,70	1278,00
2274,36	1226,00
2279,02	1183,00
2283,68	1181,00
2288,33	1223,00
2292,97	1179,00
2297,61	1242,00
2302,25	1113,00
2306,88	1161,00
2311,51	1185,00
2316,14	1259,00
2320,75	1203,00
2325,37	1141,00
2329,98	1192,00
2334,59	1129,00
2339,19	1148,00
2343,79	1144,00
2348,38	1177,00
2352,97	1165,00
2357,55	1088,00
2362,13	1231,00
2366,71	1098,00
2371,28	1136,00
2375,85	1064,00
2380,41	1159,00
2384,97	1156,00
2389,52	1086,00
2394,07	1006,00
2398,62	1166,00
2403,16	1097,00
2407,70	1104,00
2412,23	1105,00
2416,76	1089,00
2421,29	1055,00
2425,81	1039,00
2430,32	1004,00
2434,84	1017,00
2439,34	984,00
2443,85	1092,00
2448,35	1007,00
2452,84	1041,00
2457,33	988,00
2461,82	1034,00
2466,30	954,00
2470,78	979,00
2475,25	986,00
2479,72	942,00
2484,19	966,00
2488,65	890,00
2493,11	977,00
2497,56	879,00
2502,01	962,00
2506,46	963,00
2510,90	1002,00
2515,34	972,00
2519,77	1040,00
2524,20	899,00
2528,62	938,00
2533,04	996,00
2537,46	894,00
2541,87	836,00
2546,28	891,00
2550,68	860,00
2555,08	777,00
2559,48	881,00
2563,87	824,00
2568,26	853,00
2572,64	836,00
2577,02	874,00
2581,40	781,00
2585,77	867,00
2590,14	776,00
2594,50	880,00
2598,86	863,00
2603,22	844,00
2607,57	857,00
2611,92	845,00
2616,26	649,00
2620,60	867,00
2624,94	812,00
2629,27	834,00
2633,60	740,00
2637,92	887,00
2642,24	686,00
2646,56	830,00
2650,87	834,00
2655,18	797,00
2659,48	747,00
2663,78	821,00
2668,08	738,00
2672,37	874,00
2676,66	758,00
2680,95	742,00
2685,23	746,00
2689,50	798,00
2693,78	783,00
2698,05	774,00
2702,31	788,00
2706,57	797,00
2710,83	901,00
2715,08	741,00
2719,33	842,00
2723,58	883,00
2727,82	779,00
2732,06	864,00
2736,29	752,00
2740,53	928,00
2744,75	787,00
2748,97	763,00
2753,19	890,00
2757,41	779,00
2761,62	745,00
2765,83	841,00
2770,03	795,00
2774,23	767,00
2778,43	732,00
2782,62	742,00
2786,81	759,00
2791,00	801,00
2795,18	822,00
2799,35	749,00
2803,53	846,00
2807,70	835,00
2811,86	758,00
2816,03	997,00
2820,19	796,00
2824,34	881,00
2828,49	899,00
2832,64	945,00
2836,78	1085,00
2840,92	1460,00
2845,06	1540,00
2849,19	1696,00
2853,32	1772,00
2857,45	1749,00
2861,57	1713,00
2865,69	1561,00
2869,80	1571,00
2873,91	1642,00
2878,02	1721,00
2882,12	1893,00
2886,22	1963,00
2890,32	1680,00
2894,41	1705,00
2898,50	1507,00
2902,58	1432,00
2906,67	1297,00
2910,74	1228,00
2914,82	1209,00
2918,89	1102,00
2922,96	1124,00
2927,02	1078,00
2931,08	928,00
2935,13	876,00
2939,19	923,00
2943,24	881,00
2947,28	782,00
2951,32	758,00
2955,36	672,00
2959,40	676,00
2963,43	735,00
2967,46	627,00
2971,48	583,00
2975,50	600,00
2979,52	593,00
2983,53	588,00
2987,54	562,00
2991,55	562,00
2995,55	535,00
2999,55	526,00
3003,54	453,00
3007,54	501,00
3011,53	471,00
3015,51	483,00
3019,49	442,00
3023,47	441,00
3027,45	466,00
3031,42	464,00
3035,39	425,00
3039,35	349,00
3043,31	486,00
3047,27	385,00
3051,22	404,00
3055,17	393,00
3059,12	331,00
3063,06	424,00
3067,00	344,00
3070,94	421,00
3074,87	398,00
3078,80	311,00
3082,73	341,00
3086,65	327,00
3090,57	353,00
3094,49	327,00
3098,40	471,00
3102,31	310,00
3106,22	477,00
3110,12	303,00
3114,02	390,00
3117,92	277,00
3121,81	102,00
3125,70	272,00
3129,58	352,00
3133,47	293,00
3137,34	314,00
3141,22	334,00
3145,09	339,00
3148,96	258,00
3152,83	240,00
3156,69	336,00
3160,55	190,00
3164,40	354,00
3168,26	332,00
3172,10	331,00
3175,95	318,00
3179,79	352,00
3183,63	294,00
3187,47	225,00
3191,30	224,00
3195,13	332,00
3198,95	225,00
3202,78	374,00
3206,60	274,00
3210,41	258,00
3214,23	214,00
3218,03	277,00
3221,84	184,00
3225,64	199,00
3229,44	243,00
3233,24	251,00
3237,03	215,00
3240,82	180,00
3244,61	241,00
3248,39	260,00
3252,17	212,00
3255,95	178,00
3259,72	211,00
3263,49	178,00
3267,26	148,00
3271,03	256,00
3274,79	271,00
3278,54	266,00
3282,30	170,00
3286,05	293,00
3289,80	226,00
3293,54	278,00
3297,29	142,00
3301,02	200,00
3304,76	188,00
3308,49	266,00
3312,22	162,00
3315,95	194,00
3319,67	163,00
3323,39	224,00
3327,10	233,00
3330,82	104,00
3334,53	226,00
3338,24	187,00
3341,94	209,00
3345,64	53,00
3349,34	209,00
3353,03	235,00
3356,72	181,00
3360,41	258,00
3364,10	156,00
3367,78	160,00
3371,46	234,00
3375,13	179,00
3378,81	134,00
3382,48	197,00
3386,14	165,00
3389,81	233,00
3393,47	61,00
3397,12	208,00
3400,78	187,00
3404,43	158,00
3408,08	186,00
3411,72	135,00
3415,36	198,00
3419,00	66,00
3422,64	166,00
3426,27	26,00
3429,90	150,00
3433,53	133,00
3437,15	162,00
3440,77	78,00
3444,39	84,00
3448,00	215,00
3451,62	103,00
3455,22	159,00
3458,83	191,00
3462,43	181,00
3466,03	186,00
3469,63	143,00
3473,22	161,00
3476,81	47,00
3480,40	134,00
3483,99	206,00
3487,57	99,00
3491,15	173,00
3494,72	145,00
3498,29	131,00
3501,86	122,00
3505,43	134,00
3508,99	144,00
3512,56	126,00
3516,11	116,00
3519,67	92,00
3523,22	196,00
3526,77	186,00
3530,32	98,00
3533,86	235,00
3537,40	64,00
3540,94	126,00
3544,47	133,00
3548,00	65,00
3551,53	94,00
3555,06	84,00
3558,58	97,00
3562,10	159,00
3565,62	151,00
3569,13	66,00
3572,64	40,00
3576,15	93,00
3579,66	36,00
3583,16	76,00
3586,66	26,00
3590,16	29,00
3593,65	62,00
3597,14	105,00
3600,63	99,00
3604,11	187,00
3607,60	24,00
3611,08	63,00
3614,55	93,00
3618,03	41,00
3621,50	24,00
3624,97	112,00
3628,43	99,00
3631,90	110,00
3635,36	63,00
3638,81	91,00
3642,27	132,00
3645,72	36,00
3649,17	131,00
3652,61	112,00
3656,06	33,00
3659,50	102,00
3662,93	52,00
3666,37	19,00
3669,80	73,00
3673,23	72,00
3676,65	96,00
3680,08	39,00
3683,50	72,00
3686,92	161,00
3690,33	43,00
3693,74	82,00
3697,15	15,00
3700,56	59,00
3703,96	58,00
3707,36	93,00
3710,76	73,00
3714,16	100,00
3717,55	54,00
3720,94	133,00
3724,33	78,00
3727,71	82,00
3731,10	24,00
3734,48	6,00
3737,85	56,00
3741,23	-46,00
3744,60	159,00
3747,97	86,00
3751,33	0,00
3754,69	111,00
3758,05	2,00
3761,41	102,00
3764,77	23,00
3768,12	-12,00
3771,47	99,00
3774,82	86,00
3778,16	-2,00
3781,50	1,00
3784,84	-1,00
3788,18	3,00
>>>>>End Processed Spectral Data<<<<<
