SpectraSuite Data File
++++++++++++++++++++++++++++++++++++
Date: Mon Mar 09 14:53:32 ICT 2026
User: Administrator
Dark Spectrum Present: Yes
Reference Spectrum Present: No
Number of Sampled Component Spectra: 1
Spectrometers: MAYP113682
Integration Time (usec): 3000000 (MAYP113682)
Spectra Averaged: 1 (MAYP113682)
Boxcar Smoothing: 0 (MAYP113682)
Correct for Electrical Dark: No (MAYP113682)
Strobe/Lamp Enabled: No (MAYP113682)
Correct for Detector Non-linearity: No (MAYP113682)
Correct for Stray Light: No (MAYP113682)
Number of Pixels in Processed Spectrum: 2068
>>>>>Begin Processed Spectral Data<<<<<
-37534,58	47,00
-37414,56	6,00
-37295,11	7,00
-37176,24	7,00
-37057,95	996,00
-36940,22	891,00
-36823,05	971,00
-36706,45	1137,00
-36590,40	952,00
-36474,90	1072,00
-36359,95	1204,00
-36245,55	1092,00
-36131,68	1124,00
-36018,35	1058,00
-35905,55	1183,00
-35793,29	1123,00
-35681,54	1137,00
-35570,32	1032,00
-35459,62	1035,00
-35349,43	1158,00
-35239,75	1079,00
-35130,58	1066,00
-35021,91	1126,00
-34913,74	1108,00
-34806,07	1107,00
-34698,89	1204,00
-34592,20	1093,00
-34486,00	1274,00
-34380,28	1016,00
-34275,04	1098,00
-34170,27	1186,00
-34065,98	1172,00
-33962,16	1155,00
-33858,81	1100,00
-33755,92	1214,00
-33653,49	1404,00
-33551,52	1298,00
-33450,01	1099,00
-33348,94	1178,00
-33248,33	1119,00
-33148,16	1092,00
-33048,43	1214,00
-32949,14	1373,00
-32850,29	1274,00
-32751,87	1184,00
-32653,89	1217,00
-32556,33	1293,00
-32459,20	1269,00
-32362,49	1232,00
-32266,19	1127,00
-32170,32	1224,00
-32074,86	1268,00
-31979,82	1200,00
-31885,18	1350,00
-31790,95	1382,00
-31697,12	1276,00
-31603,69	1297,00
-31510,67	1231,00
-31418,04	1153,00
-31325,80	1304,00
-31233,95	1231,00
-31142,49	1191,00
-31051,42	1279,00
-30960,73	1281,00
-30870,43	1372,00
-30780,50	1209,00
-30690,95	1239,00
-30601,77	1416,00
-30512,97	1201,00
-30424,53	1224,00
-30336,46	1247,00
-30248,76	1328,00
-30161,42	1397,00
-30074,44	1204,00
-29987,81	1299,00
-29901,55	1293,00
-29815,63	1177,00
-29730,07	1243,00
-29644,86	1274,00
-29560,00	1316,00
-29475,48	1180,00
-29391,30	1258,00
-29307,47	1091,00
-29223,97	1252,00
-29140,81	1189,00
-29057,99	1392,00
-28975,50	1169,00
-28893,34	1374,00
-28811,51	1146,00
-28730,00	1242,00
-28648,82	1184,00
-28567,97	1333,00
-28487,43	1271,00
-28407,21	1173,00
-28327,32	1157,00
-28247,73	1498,00
-28168,46	1185,00
-28089,50	1306,00
-28010,85	1117,00
-27932,51	1106,00
-27854,48	1304,00
-27776,75	1135,00
-27699,32	1197,00
-27622,19	1227,00
-27545,37	1334,00
-27468,84	1258,00
-27392,60	1292,00
-27316,66	1257,00
-27241,01	1197,00
-27165,66	1332,00
-27090,59	1213,00
-27015,81	1218,00
-26941,31	1351,00
-26867,10	1266,00
-26793,17	1315,00
-26719,52	1259,00
-26646,15	1203,00
-26573,06	1298,00
-26500,24	1154,00
-26427,70	1179,00
-26355,43	1326,00
-26283,43	1299,00
-26211,71	1401,00
-26140,25	1232,00
-26069,06	1574,00
-25998,13	1034,00
-25927,46	1181,00
-25857,06	1233,00
-25786,92	1195,00
-25717,04	1121,00
-25647,42	1269,00
-25578,05	1188,00
-25508,94	1322,00
-25440,09	1171,00
-25371,48	1217,00
-25303,13	1204,00
-25235,02	1314,00
-25167,17	1334,00
-25099,56	1367,00
-25032,19	1139,00
-24965,07	1210,00
-24898,20	1107,00
-24831,56	1227,00
-24765,17	1242,00
-24699,01	1177,00
-24633,10	1246,00
-24567,41	1228,00
-24501,97	1283,00
-24436,75	1179,00
-24371,77	1197,00
-24307,03	1265,00
-24242,51	1057,00
-24178,22	1303,00
-24114,16	1232,00
-24050,32	1280,00
-23986,71	1288,00
-23923,32	1167,00
-23860,16	1137,00
-23797,22	1150,00
-23734,50	1278,00
-23672,00	1207,00
-23609,71	1214,00
-23547,65	1104,00
-23485,80	1218,00
-23424,16	1139,00
-23362,74	1326,00
-23301,53	1233,00
-23240,54	1172,00
-23179,75	1127,00
-23119,17	1213,00
-23058,80	1229,00
-22998,64	1303,00
-22938,68	1172,00
-22878,93	1212,00
-22819,39	1210,00
-22760,04	1168,00
-22700,90	1323,00
-22641,96	1179,00
-22583,22	1142,00
-22524,68	1230,00
-22466,33	1141,00
-22408,19	1220,00
-22350,23	1265,00
-22292,48	1217,00
-22234,92	1156,00
-22177,55	1389,00
-22120,37	1342,00
-22063,38	1159,00
-22006,58	1117,00
-21949,98	1175,00
-21893,56	1010,00
-21837,33	1196,00
-21781,28	1294,00
-21725,42	1218,00
-21669,74	1163,00
-21614,25	1148,00
-21558,94	1212,00
-21503,81	1225,00
-21448,86	1257,00
-21394,10	1125,00
-21339,51	1128,00
-21285,10	1116,00
-21230,86	1125,00
-21176,81	1102,00
-21122,93	1141,00
-21069,22	1224,00
-21015,69	1207,00
-20962,33	1315,00
-20909,14	1156,00
-20856,13	1203,00
-20803,28	1130,00
-20750,61	1132,00
-20698,10	1042,00
-20645,76	1287,00
-20593,59	1310,00
-20541,59	1240,00
-20489,75	1259,00
-20438,07	1151,00
-20386,56	1271,00
-20335,22	1219,00
-20284,03	1219,00
-20233,01	1155,00
-20182,15	1137,00
-20131,45	1184,00
-20080,91	1137,00
-20030,52	1181,00
-19980,30	1118,00
-19930,23	1118,00
-19880,32	1245,00
-19830,56	1310,00
-19780,96	1067,00
-19731,52	1212,00
-19682,23	1147,00
-19633,09	1158,00
-19584,10	1095,00
-19535,26	1124,00
-19486,58	1319,00
-19438,04	1231,00
-19389,66	1142,00
-19341,42	1151,00
-19293,33	1170,00
-19245,39	1156,00
-19197,60	1168,00
-19149,95	1240,00
-19102,45	1261,00
-19055,09	1235,00
-19007,87	1215,00
-18960,80	1150,00
-18913,87	1222,00
-18867,09	1244,00
-18820,44	1276,00
-18773,94	1248,00
-18727,57	1160,00
-18681,35	1154,00
-18635,26	1151,00
-18589,31	1083,00
-18543,50	1082,00
-18497,83	1211,00
-18452,29	1278,00
-18406,89	1165,00
-18361,63	1296,00
-18316,50	1188,00
-18271,50	1195,00
-18226,63	1320,00
-18181,90	1288,00
-18137,30	1369,00
-18092,84	1173,00
-18048,50	1281,00
-18004,29	1055,00
-17960,22	1143,00
-17916,27	1110,00
-17872,45	1227,00
-17828,76	1235,00
-17785,20	1307,00
-17741,77	1244,00
-17698,46	1175,00
-17655,28	1057,00
-17612,22	1123,00
-17569,29	1088,00
-17526,48	1201,00
-17483,79	1153,00
-17441,23	1119,00
-17398,79	1103,00
-17356,48	1106,00
-17314,28	1530,00
-17272,21	1190,00
-17230,26	1144,00
-17188,42	1217,00
-17146,71	1204,00
-17105,12	1206,00
-17063,64	1234,00
-17022,28	1131,00
-16981,04	1239,00
-16939,92	1214,00
-16898,91	1348,00
-16858,02	1195,00
-16817,25	1131,00
-16776,59	1100,00
-16736,04	1225,00
-16695,61	1123,00
-16655,29	1214,00
-16615,09	1254,00
-16574,99	1237,00
-16535,01	1152,00
-16495,15	1202,00
-16455,39	1251,00
-16415,74	1199,00
-16376,21	1140,00
-16336,78	1065,00
-16297,46	1068,00
-16258,26	1184,00
-16219,16	1205,00
-16180,17	1144,00
-16141,28	1262,00
-16102,51	1240,00
-16063,84	1137,00
-16025,27	1224,00
-15986,82	1089,00
-15948,46	1160,00
-15910,22	1156,00
-15872,07	1155,00
-15834,04	1104,00
-15796,10	1132,00
-15758,27	1401,00
-15720,54	1241,00
-15682,91	1120,00
-15645,39	1272,00
-15607,97	1179,00
-15570,64	1155,00
-15533,42	1311,00
-15496,30	1212,00
-15459,28	1210,00
-15422,36	1082,00
-15385,54	1191,00
-15348,82	1146,00
-15312,19	1305,00
-15275,66	1100,00
-15239,23	1087,00
-15202,90	1161,00
-15166,67	1010,00
-15130,53	1159,00
-15094,48	1153,00
-15058,54	1203,00
-15022,68	1130,00
-14986,93	1129,00
-14951,26	1225,00
-14915,69	1050,00
-14880,22	1145,00
-14844,84	1161,00
-14809,55	1221,00
-14774,35	1251,00
-14739,25	1331,00
-14704,24	1207,00
-14669,32	1150,00
-14634,49	1108,00
-14599,75	1249,00
-14565,10	1096,00
-14530,55	1293,00
-14496,08	1152,00
-14461,70	1157,00
-14427,41	1092,00
-14393,21	1080,00
-14359,10	1088,00
-14325,07	1237,00
-14291,14	1173,00
-14257,29	1167,00
-14223,52	1114,00
-14189,85	1369,00
-14156,26	1198,00
-14122,76	1085,00
-14089,34	1191,00
-14056,01	1079,00
-14022,76	1274,00
-13989,60	1239,00
-13956,52	1231,00
-13923,53	1143,00
-13890,62	1169,00
-13857,79	1075,00
-13825,05	1147,00
-13792,39	1048,00
-13759,81	1206,00
-13727,31	1112,00
-13694,90	1137,00
-13662,57	1238,00
-13630,31	1217,00
-13598,14	1186,00
-13566,05	1118,00
-13534,05	1279,00
-13502,12	1152,00
-13470,27	1237,00
-13438,50	1263,00
-13406,80	1081,00
-13375,19	1127,00
-13343,66	1240,00
-13312,20	1261,00
-13280,83	1094,00
-13249,53	1105,00
-13218,30	1055,00
-13187,16	1048,00
-13156,09	1268,00
-13125,10	1248,00
-13094,18	1241,00
-13063,34	1351,00
-13032,58	1035,00
-13001,89	1255,00
-12971,28	1218,00
-12940,74	1253,00
-12910,27	1249,00
-12879,88	1164,00
-12849,57	1264,00
-12819,33	1174,00
-12789,16	1123,00
-12759,06	1164,00
-12729,04	1225,00
-12699,09	2653,00
-12669,21	1095,00
-12639,41	1187,00
-12609,68	1185,00
-12580,02	1145,00
-12550,43	1269,00
-12520,91	1042,00
-12491,46	1134,00
-12462,08	1088,00
-12432,77	1121,00
-12403,54	1232,00
-12374,37	1192,00
-12345,27	1262,00
-12316,24	1119,00
-12287,29	1322,00
-12258,40	1131,00
-12229,57	1199,00
-12200,82	1291,00
-12172,14	1028,00
-12143,52	1179,00
-12114,97	1117,00
-12086,49	1156,00
-12058,07	1253,00
-12029,73	1206,00
-12001,44	1320,00
-11973,23	1135,00
-11945,08	1222,00
-11917,00	1269,00
-11888,98	1224,00
-11861,03	1251,00
-11833,15	1192,00
-11805,32	1120,00
-11777,57	1249,00
-11749,88	1173,00
-11722,25	1073,00
-11694,69	1159,00
-11667,19	1155,00
-11639,75	1293,00
-11612,38	1192,00
-11585,07	1149,00
-11557,83	1160,00
-11530,65	1273,00
-11503,53	1255,00
-11476,47	1260,00
-11449,48	1212,00
-11422,54	1195,00
-11395,67	1128,00
-11368,86	1293,00
-11342,11	1116,00
-11315,43	1164,00
-11288,80	1062,00
-11262,23	1338,00
-11235,73	1136,00
-11209,28	1211,00
-11182,90	1238,00
-11156,57	1234,00
-11130,31	1368,00
-11104,10	1322,00
-11077,96	1220,00
-11051,87	1282,00
-11025,84	1253,00
-10999,87	1172,00
-10973,96	1249,00
-10948,11	1145,00
-10922,31	1085,00
-10896,58	1196,00
-10870,90	1343,00
-10845,28	1195,00
-10819,71	1137,00
-10794,20	1196,00
-10768,75	1289,00
-10743,36	1177,00
-10718,02	1114,00
-10692,74	1180,00
-10667,52	1058,00
-10642,35	1304,00
-10617,24	1250,00
-10592,18	1234,00
-10567,18	1151,00
-10542,23	1177,00
-10517,34	1246,00
-10492,51	1294,00
-10467,72	1200,00
-10443,00	1185,00
-10418,32	1305,00
-10393,70	1130,00
-10369,14	1112,00
-10344,63	1174,00
-10320,17	1273,00
-10295,77	1224,00
-10271,42	1244,00
-10247,12	1231,00
-10222,88	1302,00
-10198,68	1117,00
-10174,54	1194,00
-10150,46	1238,00
-10126,42	1265,00
-10102,44	1280,00
-10078,51	1190,00
-10054,63	1248,00
-10030,80	1110,00
-10007,03	1414,00
-9983,30	1213,00
-9959,63	1201,00
-9936,01	1223,00
-9912,44	1245,00
-9888,92	1281,00
-9865,44	1227,00
-9842,02	1258,00
-9818,65	1339,00
-9795,33	1183,00
-9772,06	1284,00
-9748,84	1266,00
-9725,67	1257,00
-9702,55	1214,00
-9679,47	1355,00
-9656,45	1321,00
-9633,47	1164,00
-9610,55	1276,00
-9587,67	1388,00
-9564,84	1510,00
-9542,06	1306,00
-9519,32	1401,00
-9496,64	1521,00
-9474,00	1256,00
-9451,41	1292,00
-9428,87	1414,00
-9406,37	1430,00
-9383,92	1324,00
-9361,52	1413,00
-9339,17	1418,00
-9316,86	1280,00
-9294,60	1389,00
-9272,38	1747,00
-9250,21	1596,00
-9228,09	1567,00
-9206,01	1539,00
-9183,98	1423,00
-9162,00	1360,00
-9140,06	1493,00
-9118,16	1415,00
-9096,31	1517,00
-9074,51	1424,00
-9052,75	1662,00
-9031,04	1589,00
-9009,37	1368,00
-8987,74	1445,00
-8966,16	1486,00
-8944,63	1373,00
-8923,14	1195,00
-8901,69	1263,00
-8880,29	1249,00
-8858,93	1369,00
-8837,61	1514,00
-8816,34	1513,00
-8795,11	1504,00
-8773,92	1479,00
-8752,78	1450,00
-8731,68	1343,00
-8710,62	1369,00
-8689,61	1320,00
-8668,63	1371,00
-8647,70	1594,00
-8626,82	1432,00
-8605,97	1518,00
-8585,17	1524,00
-8564,41	1236,00
-8543,69	1483,00
-8523,01	1258,00
-8502,37	1555,00
-8481,78	1301,00
-8461,23	1155,00
-8440,71	1347,00
-8420,24	1410,00
-8399,81	1478,00
-8379,42	1497,00
-8359,08	1589,00
-8338,77	1422,00
-8318,50	1445,00
-8298,27	1338,00
-8278,09	1398,00
-8257,94	1272,00
-8237,83	1528,00
-8217,76	1481,00
-8197,74	1335,00
-8177,75	1379,00
-8157,80	1484,00
-8137,89	1475,00
-8118,02	1360,00
-8098,19	1616,00
-8078,40	1371,00
-8058,65	1376,00
-8038,93	1490,00
-8019,26	1430,00
-7999,62	1376,00
-7980,02	1374,00
-7960,46	1392,00
-7940,94	1291,00
-7921,46	1425,00
-7902,01	1200,00
-7882,60	1541,00
-7863,23	1344,00
-7843,90	1372,00
-7824,61	1291,00
-7805,35	1479,00
-7786,13	1384,00
-7766,95	1328,00
-7747,80	1347,00
-7728,69	1550,00
-7709,62	1367,00
-7690,59	1433,00
-7671,59	1403,00
-7652,63	1353,00
-7633,70	1276,00
-7614,81	1467,00
-7595,96	1339,00
-7577,15	1350,00
-7558,37	1348,00
-7539,62	1418,00
-7520,91	1290,00
-7502,24	1392,00
-7483,60	1443,00
-7465,00	1485,00
-7446,44	1419,00
-7427,91	1230,00
-7409,41	1463,00
-7390,95	1287,00
-7372,53	1155,00
-7354,14	1201,00
-7335,78	1186,00
-7317,46	1319,00
-7299,18	1352,00
-7280,92	1381,00
-7262,71	1500,00
-7244,52	1320,00
-7226,38	1287,00
-7208,26	1376,00
-7190,18	1368,00
-7172,14	1449,00
-7154,12	1366,00
-7136,15	1238,00
-7118,20	1384,00
-7100,29	1410,00
-7082,41	1370,00
-7064,57	1330,00
-7046,76	1267,00
-7028,98	1184,00
-7011,24	1525,00
-6993,53	1050,00
-6975,85	1214,00
-6958,20	1203,00
-6940,59	1150,00
-6923,01	1077,00
-6905,46	1326,00
-6887,94	1260,00
-6870,46	1727,00
-6853,01	1372,00
-6835,59	1249,00
-6818,21	1165,00
-6800,85	1406,00
-6783,53	1226,00
-6766,24	1107,00
-6748,98	1186,00
-6731,76	973,00
-6714,56	1088,00
-6697,40	1033,00
-6680,26	953,00
-6663,16	1173,00
-6646,09	1353,00
-6629,05	1176,00
-6612,05	1324,00
-6595,07	1236,00
-6578,13	1293,00
-6561,21	1079,00
-6544,33	1310,00
-6527,47	1150,00
-6510,65	1158,00
-6493,86	1102,00
-6477,10	1141,00
-6460,36	1136,00
-6443,66	1138,00
-6426,99	1207,00
-6410,35	1055,00
-6393,74	1294,00
-6377,16	1232,00
-6360,61	1141,00
-6344,09	1077,00
-6327,59	1036,00
-6311,13	1022,00
-6294,70	1297,00
-6278,29	1254,00
-6261,92	1178,00
-6245,58	1199,00
-6229,26	1239,00
-6212,97	1232,00
-6196,72	1198,00
-6180,49	1241,00
-6164,29	1137,00
-6148,12	1278,00
-6131,98	1111,00
-6115,86	1170,00
-6099,78	1027,00
-6083,72	1018,00
-6067,69	1043,00
-6051,69	1146,00
-6035,72	1127,00
-6019,78	1134,00
-6003,87	1283,00
-5987,98	1238,00
-5972,12	1214,00
-5956,29	1270,00
-5940,49	1148,00
-5924,71	1364,00
-5908,96	1058,00
-5893,24	1250,00
-5877,55	1130,00
-5861,89	1142,00
-5846,25	1108,00
-5830,64	1137,00
-5815,05	989,00
-5799,50	1141,00
-5783,97	1207,00
-5768,47	1319,00
-5752,99	1311,00
-5737,55	1187,00
-5722,12	1137,00
-5706,73	1121,00
-5691,36	1262,00
-5676,02	1164,00
-5660,71	1331,00
-5645,42	1060,00
-5630,16	1177,00
-5614,92	1252,00
-5599,71	1122,00
-5584,53	1198,00
-5569,37	1032,00
-5554,24	2230,00
-5539,14	1125,00
-5524,06	1127,00
-5509,01	1084,00
-5493,98	1099,00
-5478,98	1224,00
-5464,00	1126,00
-5449,05	1073,00
-5434,13	1171,00
-5419,23	1268,00
-5404,36	1025,00
-5389,51	1205,00
-5374,69	1178,00
-5359,89	1270,00
-5345,12	1256,00
-5330,37	1335,00
-5315,65	1327,00
-5300,95	1292,00
-5286,28	1007,00
-5271,63	1103,00
-5257,01	1222,00
-5242,41	1245,00
-5227,84	1098,00
-5213,29	1174,00
-5198,76	1268,00
-5184,26	1145,00
-5169,79	1184,00
-5155,33	1262,00
-5140,91	1182,00
-5126,51	1194,00
-5112,13	1148,00
-5097,77	1280,00
-5083,44	1283,00
-5069,13	1132,00
-5054,85	1194,00
-5040,59	1000,00
-5026,36	1196,00
-5012,15	1291,00
-4997,96	1226,00
-4983,80	1108,00
-4969,66	1206,00
-4955,54	1190,00
-4941,44	1205,00
-4927,37	1223,00
-4913,33	1311,00
-4899,30	1074,00
-4885,30	1159,00
-4871,33	1253,00
-4857,37	1189,00
-4843,44	1157,00
-4829,53	1278,00
-4815,65	1274,00
-4801,79	1125,00
-4787,95	1135,00
-4774,13	1021,00
-4760,34	1113,00
-4746,56	1251,00
-4732,82	1191,00
-4719,09	1159,00
-4705,38	1196,00
-4691,70	1351,00
-4678,04	1173,00
-4664,41	1191,00
-4650,79	1435,00
-4637,20	1141,00
-4623,63	1189,00
-4610,08	1175,00
-4596,56	1266,00
-4583,05	1208,00
-4569,57	1146,00
-4556,11	1318,00
-4542,67	1124,00
-4529,25	1079,00
-4515,86	1267,00
-4502,49	1247,00
-4489,13	1235,00
-4475,80	1199,00
-4462,49	1104,00
-4449,21	1435,00
-4435,94	1128,00
-4422,70	1245,00
-4409,47	1024,00
-4396,27	1164,00
-4383,09	1174,00
-4369,93	1053,00
-4356,79	1204,00
-4343,67	1195,00
-4330,58	1194,00
-4317,50	1158,00
-4304,45	1165,00
-4291,41	1173,00
-4278,40	1194,00
-4265,41	1103,00
-4252,44	1168,00
-4239,49	1068,00
-4226,55	1211,00
-4213,65	1331,00
-4200,76	1280,00
-4187,89	1103,00
-4175,04	1141,00
-4162,21	1259,00
-4149,40	1158,00
-4136,61	1214,00
-4123,85	1106,00
-4111,10	1266,00
-4098,37	1298,00
-4085,66	1280,00
-4072,98	1304,00
-4060,31	1143,00
-4047,66	1270,00
-4035,04	1425,00
-4022,43	1207,00
-4009,84	1378,00
-3997,27	1133,00
-3984,72	1272,00
-3972,19	1296,00
-3959,69	1074,00
-3947,20	1173,00
-3934,73	1246,00
-3922,27	1233,00
-3909,84	1273,00
-3897,43	1165,00
-3885,04	1224,00
-3872,67	1128,00
-3860,31	1138,00
-3847,98	1338,00
-3835,66	1114,00
-3823,36	1201,00
-3811,09	1085,00
-3798,83	1109,00
-3786,59	1300,00
-3774,37	1305,00
-3762,17	1095,00
-3749,98	1143,00
-3737,82	1096,00
-3725,67	1449,00
-3713,55	1080,00
-3701,44	1231,00
-3689,35	1192,00
-3677,28	1307,00
-3665,22	1152,00
-3653,19	1149,00
-3641,17	1157,00
-3629,18	1237,00
-3617,20	1138,00
-3605,24	1226,00
-3593,30	1258,00
-3581,37	1116,00
-3569,47	1329,00
-3557,58	1220,00
-3545,71	1263,00
-3533,86	1266,00
-3522,02	1181,00
-3510,21	1177,00
-3498,41	1201,00
-3486,63	1158,00
-3474,87	1224,00
-3463,12	1114,00
-3451,40	1280,00
-3439,69	1309,00
-3428,00	1229,00
-3416,33	1275,00
-3404,67	1138,00
-3393,03	1266,00
-3381,41	1262,00
-3369,81	1240,00
-3358,22	1156,00
-3346,66	1369,00
-3335,10	1214,00
-3323,57	1156,00
-3312,06	1237,00
-3300,56	1205,00
-3289,08	1013,00
-3277,61	1221,00
-3266,16	1269,00
-3254,73	1297,00
-3243,32	1193,00
-3231,92	1211,00
-3220,55	1225,00
-3209,18	1205,00
-3197,84	1114,00
-3186,51	1032,00
-3175,20	1126,00
-3163,90	1237,00
-3152,63	1192,00
-3141,36	1174,00
-3130,12	1185,00
-3118,89	1263,00
-3107,68	1202,00
-3096,49	1225,00
-3085,31	1285,00
-3074,15	1154,00
-3063,00	1259,00
-3051,87	1223,00
-3040,76	1185,00
-3029,67	1224,00
-3018,59	1526,00
-3007,52	1305,00
-2996,48	1302,00
-2985,44	1063,00
-2974,43	1223,00
-2963,43	1156,00
-2952,45	1070,00
-2941,48	1194,00
-2930,53	1263,00
-2919,60	1100,00
-2908,68	1161,00
-2897,78	1307,00
-2886,89	1315,00
-2876,02	1136,00
-2865,17	1218,00
-2854,33	1108,00
-2843,50	1160,00
-2832,70	1111,00
-2821,90	1226,00
-2811,13	1217,00
-2800,37	1201,00
-2789,62	1277,00
-2778,89	1401,00
-2768,18	1286,00
-2757,48	1302,00
-2746,80	1326,00
-2736,13	1194,00
-2725,48	1206,00
-2714,84	1285,00
-2704,22	1096,00
-2693,61	1207,00
-2683,02	1189,00
-2672,45	1110,00
-2661,89	1365,00
-2651,34	1211,00
-2640,81	1141,00
-2630,30	1281,00
-2619,80	1168,00
-2609,31	1355,00
-2598,84	1053,00
-2588,39	1147,00
-2577,95	1287,00
-2567,52	1171,00
-2557,11	1298,00
-2546,71	1170,00
-2536,33	1330,00
-2525,97	1181,00
-2515,62	1160,00
-2505,28	1287,00
-2494,96	1140,00
-2484,65	1240,00
-2474,36	1489,00
-2464,08	1210,00
-2453,82	1276,00
-2443,57	1168,00
-2433,33	1071,00
-2423,11	1202,00
-2412,91	1153,00
-2402,72	1128,00
-2392,54	1328,00
-2382,38	1186,00
-2372,23	1264,00
-2362,09	6105,00
-2351,97	1154,00
-2341,87	1125,00
-2331,78	1246,00
-2321,70	1259,00
-2311,64	1193,00
-2301,59	1130,00
-2291,55	1091,00
-2281,53	1268,00
-2271,53	1102,00
-2261,53	1389,00
-2251,55	1228,00
-2241,59	1246,00
-2231,64	1358,00
-2221,70	1150,00
-2211,78	1366,00
-2201,87	1249,00
-2191,97	1222,00
-2182,09	1247,00
-2172,22	1274,00
-2162,37	1099,00
-2152,53	1110,00
-2142,70	1108,00
-2132,89	1064,00
-2123,09	1285,00
-2113,30	1290,00
-2103,53	1183,00
-2093,77	1207,00
-2084,02	1106,00
-2074,29	1365,00
-2064,57	1315,00
-2054,86	1196,00
-2045,17	1264,00
-2035,49	1327,00
-2025,82	1162,00
-2016,17	1065,00
-2006,53	1205,00
-1996,91	1267,00
-1987,29	1149,00
-1977,69	1265,00
-1968,11	1182,00
-1958,53	1106,00
-1948,97	1298,00
-1939,42	1108,00
-1929,89	1074,00
-1920,37	1264,00
-1910,86	1273,00
-1901,36	1266,00
-1891,88	1182,00
-1882,41	1183,00
-1872,95	1200,00
-1863,51	1228,00
-1854,08	1275,00
-1844,66	1358,00
-1835,26	1112,00
-1825,86	1240,00
-1816,48	1177,00
-1807,11	1210,00
-1797,76	1318,00
-1788,42	1234,00
-1779,09	1314,00
-1769,77	1274,00
-1760,47	1484,00
-1751,17	1198,00
-1741,89	1247,00
-1732,63	1306,00
-1723,37	1564,00
-1714,13	1451,00
-1704,90	1079,00
-1695,68	1423,00
-1686,48	1115,00
-1677,29	1217,00
-1668,11	1505,00
-1658,94	1210,00
-1649,78	1226,00
-1640,64	1232,00
-1631,51	1193,00
-1622,39	1230,00
-1613,28	1298,00
-1604,19	1385,00
-1595,10	1234,00
-1586,03	1194,00
-1576,97	1236,00
-1567,93	1225,00
-1558,89	1331,00
-1549,87	1252,00
-1540,86	1195,00
-1531,86	1181,00
-1522,87	1116,00
-1513,90	1412,00
-1504,93	1285,00
-1495,98	1254,00
-1487,04	1441,00
-1478,12	1247,00
-1469,20	1156,00
-1460,30	1324,00
-1451,40	1373,00
-1442,52	1107,00
-1433,65	1310,00
-1424,80	1205,00
-1415,95	1245,00
-1407,12	1499,00
-1398,30	1206,00
-1389,48	1156,00
-1380,69	1195,00
-1371,90	1280,00
-1363,12	1195,00
-1354,36	1410,00
-1345,60	1174,00
-1336,86	1237,00
-1328,13	1405,00
-1319,41	1247,00
-1310,70	1197,00
-1302,01	1245,00
-1293,32	1110,00
-1284,65	1206,00
-1275,99	1233,00
-1267,33	1365,00
-1258,69	1224,00
-1250,06	1222,00
-1241,45	1225,00
-1232,84	1366,00
-1224,25	1334,00
-1215,66	1332,00
-1207,09	1314,00
-1198,53	1153,00
-1189,97	1200,00
-1181,43	1141,00
-1172,91	1325,00
-1164,39	1361,00
-1155,88	1149,00
-1147,38	1081,00
-1138,90	1194,00
-1130,43	1144,00
-1121,96	1275,00
-1113,51	1292,00
-1105,07	1229,00
-1096,64	1219,00
-1088,22	1371,00
-1079,81	1243,00
-1071,41	1414,00
-1063,02	1278,00
-1054,65	1340,00
-1046,28	1205,00
-1037,92	1245,00
-1029,58	1210,00
-1021,24	1194,00
-1012,92	1678,00
-1004,61	1319,00
-996,30	1632,00
-988,01	1074,00
-979,73	1296,00
-971,46	1334,00
-963,20	1053,00
-954,95	1012,00
-946,71	1200,00
-938,48	1198,00
-930,26	1275,00
-922,06	1245,00
-913,86	1317,00
-905,67	1140,00
-897,49	1288,00
-889,33	1159,00
-881,17	1315,00
-873,02	1266,00
-864,89	1071,00
-856,76	1202,00
-848,65	1245,00
-840,54	1237,00
-832,45	1350,00
-824,36	1013,00
-816,29	1245,00
-808,22	1277,00
-800,17	1193,00
-792,12	1302,00
-784,09	1471,00
-776,06	1183,00
-768,05	1203,00
-760,04	1098,00
-752,05	1215,00
-744,07	1385,00
-736,09	1406,00
-728,13	1056,00
-720,17	1241,00
-712,23	1184,00
-704,29	1223,00
-696,37	1313,00
-688,45	1259,00
-680,55	1112,00
-672,65	1170,00
-664,77	1122,00
-656,89	1214,00
-649,03	1191,00
-641,17	1232,00
-633,32	1274,00
-625,49	1232,00
-617,66	1208,00
-609,84	1242,00
-602,03	1093,00
-594,23	1154,00
-586,45	1181,00
-578,67	1177,00
-570,90	1080,00
-563,14	1183,00
-555,39	1379,00
-547,65	1374,00
-539,91	1278,00
-532,19	1157,00
-524,48	1311,00
-516,78	1268,00
-509,08	1213,00
-501,40	1097,00
-493,72	1133,00
-486,06	1146,00
-478,40	1515,00
-470,76	1206,00
-463,12	1177,00
-455,49	1167,00
-447,87	1071,00
-440,26	1208,00
-432,66	1178,00
-425,07	1249,00
-417,49	1265,00
-409,92	1125,00
-402,35	1043,00
-394,80	1098,00
-387,25	1312,00
-379,72	1244,00
-372,19	1175,00
-364,67	1306,00
-357,17	1267,00
-349,67	1230,00
-342,18	1216,00
-334,69	1261,00
-327,22	1217,00
-319,76	1194,00
-312,30	1271,00
-304,86	1252,00
-297,42	1177,00
-290,00	1239,00
-282,58	1234,00
-275,17	1254,00
-267,77	1301,00
-260,37	1155,00
-252,99	1317,00
-245,62	1255,00
-238,25	1119,00
-230,90	1149,00
-223,55	1380,00
-216,21	1232,00
-208,88	1433,00
-201,56	1265,00
-194,25	1263,00
-186,94	1244,00
-179,65	1325,00
-172,36	1338,00
-165,08	1173,00
-157,81	1481,00
-150,55	1507,00
-143,30	1462,00
-136,06	1481,00
-128,82	1417,00
-121,60	1386,00
-114,38	1524,00
-107,17	1490,00
-99,97	1624,00
-92,78	1573,00
-85,60	1711,00
-78,42	1831,00
-71,25	1852,00
-64,10	1994,00
-56,95	2114,00
-49,81	2140,00
-42,67	2627,00
-35,55	2850,00
-28,43	3474,00
-21,33	4916,00
-14,23	13767,00
-7,14	57775,00
-0,05	57564,00
7,02	57281,00
14,09	44307,00
21,14	12278,00
28,19	5737,00
35,23	4178,00
42,27	3457,00
49,29	2986,00
56,31	2719,00
63,32	2571,00
70,32	2232,00
77,31	2048,00
84,29	1840,00
91,27	2055,00
98,23	1970,00
105,19	1773,00
112,14	1924,00
119,09	2260,00
126,02	3077,00
132,95	3203,00
139,87	3403,00
146,78	3535,00
153,68	3426,00
160,58	3269,00
167,46	3214,00
174,34	3295,00
181,21	3430,00
188,08	3394,00
194,93	3446,00
201,78	3416,00
208,62	3365,00
215,45	3333,00
222,27	3457,00
229,09	3618,00
235,90	3397,00
242,70	3333,00
249,49	3537,00
256,27	3289,00
263,05	3387,00
269,82	3318,00
276,58	3578,00
283,33	3373,00
290,08	3407,00
296,82	3291,00
303,55	3207,00
310,27	3082,00
316,98	3331,00
323,69	3286,00
330,39	3176,00
337,08	3430,00
343,76	3323,00
350,44	3274,00
357,11	3355,00
363,77	3228,00
370,42	3186,00
377,07	3441,00
383,71	3359,00
390,34	3264,00
396,96	3221,00
403,58	3181,00
410,19	3475,00
416,79	3465,00
423,38	3420,00
429,97	3332,00
436,55	3184,00
443,12	3245,00
449,68	3212,00
456,24	3298,00
462,79	3367,00
469,33	3274,00
475,86	3335,00
482,39	3256,00
488,91	3440,00
495,42	3186,00
501,93	3233,00
508,42	2990,00
514,91	3408,00
521,40	3097,00
527,87	3307,00
534,34	3142,00
540,80	3331,00
547,25	3347,00
553,70	3280,00
560,14	3202,00
566,57	3342,00
573,00	3271,00
579,41	3323,00
585,83	3274,00
592,23	3319,00
598,62	3172,00
605,01	3166,00
611,40	3285,00
617,77	3346,00
624,14	3167,00
630,50	3328,00
636,85	3325,00
643,20	3293,00
649,54	3174,00
655,87	3165,00
662,20	3349,00
668,52	3318,00
674,83	3339,00
681,13	3204,00
687,43	3292,00
693,72	3164,00
700,00	3130,00
706,28	3191,00
712,55	3171,00
718,81	3354,00
725,07	3170,00
731,32	3191,00
737,56	3351,00
743,79	3231,00
750,02	3316,00
756,24	3268,00
762,46	3261,00
768,67	3612,00
774,87	3371,00
781,06	3330,00
787,25	3361,00
793,43	3366,00
799,60	3176,00
805,77	3419,00
811,93	3271,00
818,08	3259,00
824,23	3265,00
830,37	3552,00
836,50	3301,00
842,63	3259,00
848,75	3371,00
854,87	3365,00
860,97	3266,00
867,07	3408,00
873,17	3343,00
879,25	3380,00
885,33	3375,00
891,41	3422,00
897,47	3309,00
903,53	3391,00
909,59	3425,00
915,63	3389,00
921,67	3347,00
927,71	3426,00
933,74	3473,00
939,76	3236,00
945,77	3241,00
951,78	3478,00
957,78	3238,00
963,78	3481,00
969,77	3421,00
975,75	3368,00
981,72	3375,00
987,69	5148,00
993,66	3406,00
999,61	3510,00
1005,56	3439,00
1011,51	3375,00
1017,44	3346,00
1023,37	3499,00
1029,30	3528,00
1035,22	3515,00
1041,13	3430,00
1047,03	3484,00
1052,93	3546,00
1058,83	3920,00
1064,71	4051,00
1070,59	3875,00
1076,47	3760,00
1082,33	3578,00
1088,20	3585,00
1094,05	3627,00
1099,90	3427,00
1105,74	3542,00
1111,58	3482,00
1117,41	3601,00
1123,23	3788,00
1129,05	4252,00
1134,86	4073,00
1140,67	3852,00
1146,47	3623,00
1152,26	3579,00
1158,05	3392,00
1163,83	3603,00
1169,60	3551,00
1175,37	3669,00
1181,13	3572,00
1186,89	3516,00
1192,64	3619,00
1198,38	3636,00
1204,12	3469,00
1209,85	3579,00
1215,58	3559,00
1221,30	3716,00
1227,02	3696,00
1232,72	3576,00
1238,43	3467,00
1244,12	3707,00
1249,81	3460,00
1255,50	3746,00
1261,17	3621,00
1266,85	3648,00
1272,51	3712,00
1278,17	3729,00
1283,83	3683,00
1289,47	4000,00
1295,12	4510,00
1300,75	4220,00
1306,38	3922,00
1312,01	3781,00
1317,63	3745,00
1323,24	3653,00
1328,85	3785,00
1334,45	3579,00
1340,04	3657,00
1345,63	3553,00
1351,22	3928,00
1356,80	3752,00
1362,37	3750,00
1367,93	3756,00
1373,49	3675,00
1379,05	3610,00
1384,60	3650,00
1390,14	3631,00
1395,68	3754,00
1401,21	3622,00
1406,74	3731,00
1412,26	3918,00
1417,77	4077,00
1423,28	3825,00
1428,78	4031,00
1434,28	4282,00
1439,77	4472,00
1445,26	4354,00
1450,74	4507,00
1456,22	4252,00
1461,68	4207,00
1467,15	4178,00
1472,61	3925,00
1478,06	4066,00
1483,51	3854,00
1488,95	3712,00
1494,38	3796,00
1499,81	3586,00
1505,24	3528,00
1510,65	3618,00
1516,07	3725,00
1521,48	3409,00
1526,88	3400,00
1532,27	3575,00
1537,67	3495,00
1543,05	3709,00
1548,43	3408,00
1553,81	3518,00
1559,18	3436,00
1564,54	3458,00
1569,90	3445,00
1575,25	3329,00
1580,60	3294,00
1585,94	3543,00
1591,28	3414,00
1596,61	3265,00
1601,93	3371,00
1607,25	3640,00
1612,57	3552,00
1617,88	3472,00
1623,18	3430,00
1628,48	3402,00
1633,77	3512,00
1639,06	3439,00
1644,34	3246,00
1649,62	3322,00
1654,89	3473,00
1660,16	3302,00
1665,42	3529,00
1670,67	3309,00
1675,92	3474,00
1681,17	3367,00
1686,41	3369,00
1691,64	3487,00
1696,87	3317,00
1702,10	3342,00
1707,32	3401,00
1712,53	3408,00
1717,74	3312,00
1722,94	3372,00
1728,14	3408,00
1733,33	3217,00
1738,52	3203,00
1743,70	3283,00
1748,88	3229,00
1754,05	3322,00
1759,22	3040,00
1764,38	4708,00
1769,53	3220,00
1774,69	3339,00
1779,83	3227,00
1784,97	3095,00
1790,11	3187,00
1795,24	3184,00
1800,36	3256,00
1805,48	3186,00
1810,60	3161,00
1815,71	3128,00
1820,82	3092,00
1825,92	3228,00
1831,01	3153,00
1836,10	3144,00
1841,19	3248,00
1846,26	3008,00
1851,34	3162,00
1856,41	3256,00
1861,47	3303,00
1866,53	3123,00
1871,59	3138,00
1876,64	3106,00
1881,68	3112,00
1886,72	3240,00
1891,76	3086,00
1896,79	3077,00
1901,81	2948,00
1906,83	3084,00
1911,85	3085,00
1916,86	3018,00
1921,86	3048,00
1926,86	3117,00
1931,86	2964,00
1936,85	2987,00
1941,83	3027,00
1946,81	3027,00
1951,79	2974,00
1956,76	2875,00
1961,72	2818,00
1966,68	2848,00
1971,64	2890,00
1976,59	2910,00
1981,54	2875,00
1986,48	2800,00
1991,42	2848,00
1996,35	3226,00
2001,27	2852,00
2006,20	2891,00
2011,11	2983,00
2016,03	2898,00
2020,93	2852,00
2025,84	2814,00
2030,73	2794,00
2035,63	2726,00
2040,52	2900,00
2045,40	2787,00
2050,28	2816,00
2055,15	2885,00
2060,02	2677,00
2064,89	2981,00
2069,75	2874,00
2074,60	2847,00
2079,46	2820,00
2084,30	2779,00
2089,14	2756,00
2093,98	2921,00
2098,81	2927,00
2103,64	2992,00
2108,46	2877,00
2113,28	2682,00
2118,09	2827,00
2122,90	2822,00
2127,70	2677,00
2132,50	2866,00
2137,30	2693,00
2142,09	2573,00
2146,87	2647,00
2151,66	2790,00
2156,43	2768,00
2161,20	2699,00
2165,97	2825,00
2170,73	2748,00
2175,49	2764,00
2180,24	2667,00
2184,99	2882,00
2189,74	2817,00
2194,48	2695,00
2199,21	2823,00
2203,94	2587,00
2208,67	2655,00
2213,39	2490,00
2218,11	2667,00
2222,82	2696,00
2227,53	2612,00
2232,23	2787,00
2236,93	2673,00
2241,63	2728,00
2246,32	2580,00
2251,00	2571,00
2255,68	2667,00
2260,36	2655,00
2265,03	2729,00
2269,70	2742,00
2274,36	2483,00
2279,02	2632,00
2283,68	2599,00
2288,33	2510,00
2292,97	2600,00
2297,61	2613,00
2302,25	2538,00
2306,88	2418,00
2311,51	2401,00
2316,14	2596,00
2320,75	2485,00
2325,37	2414,00
2329,98	2634,00
2334,59	2355,00
2339,19	2464,00
2343,79	2374,00
2348,38	2478,00
2352,97	2489,00
2357,55	2575,00
2362,13	2582,00
2366,71	2248,00
2371,28	2541,00
2375,85	2504,00
2380,41	2532,00
2384,97	2446,00
2389,52	2505,00
2394,07	2426,00
2398,62	2520,00
2403,16	2377,00
2407,70	2288,00
2412,23	2470,00
2416,76	2447,00
2421,29	2434,00
2425,81	2461,00
2430,32	2377,00
2434,84	2223,00
2439,34	2338,00
2443,85	2528,00
2448,35	2359,00
2452,84	2300,00
2457,33	2275,00
2461,82	2148,00
2466,30	2206,00
2470,78	2357,00
2475,25	2198,00
2479,72	2252,00
2484,19	2280,00
2488,65	2311,00
2493,11	2130,00
2497,56	2334,00
2502,01	2042,00
2506,46	2401,00
2510,90	2182,00
2515,34	2263,00
2519,77	2259,00
2524,20	2115,00
2528,62	2218,00
2533,04	2271,00
2537,46	2103,00
2541,87	2053,00
2546,28	2075,00
2550,68	2241,00
2555,08	1993,00
2559,48	2196,00
2563,87	2054,00
2568,26	2029,00
2572,64	2123,00
2577,02	2129,00
2581,40	1920,00
2585,77	2133,00
2590,14	1995,00
2594,50	1940,00
2598,86	2111,00
2603,22	2100,00
2607,57	2046,00
2611,92	2036,00
2616,26	2160,00
2620,60	2179,00
2624,94	1992,00
2629,27	2111,00
2633,60	1967,00
2637,92	2120,00
2642,24	2184,00
2646,56	1983,00
2650,87	1957,00
2655,18	2148,00
2659,48	1853,00
2663,78	2047,00
2668,08	2002,00
2672,37	2055,00
2676,66	2041,00
2680,95	2015,00
2685,23	2007,00
2689,50	1963,00
2693,78	1991,00
2698,05	1906,00
2702,31	2112,00
2706,57	1996,00
2710,83	2227,00
2715,08	2010,00
2719,33	2331,00
2723,58	2055,00
2727,82	2142,00
2732,06	2061,00
2736,29	2035,00
2740,53	2114,00
2744,75	1955,00
2748,97	2186,00
2753,19	2075,00
2757,41	2032,00
2761,62	2116,00
2765,83	2174,00
2770,03	1928,00
2774,23	1951,00
2778,43	1953,00
2782,62	1948,00
2786,81	1847,00
2791,00	2068,00
2795,18	2064,00
2799,35	2056,00
2803,53	2052,00
2807,70	2086,00
2811,86	1923,00
2816,03	2140,00
2820,19	2099,00
2824,34	2040,00
2828,49	2003,00
2832,64	2157,00
2836,78	2413,00
2840,92	2488,00
2845,06	2665,00
2849,19	2899,00
2853,32	2978,00
2857,45	2922,00
2861,57	2816,00
2865,69	2824,00
2869,80	2685,00
2873,91	2784,00
2878,02	2932,00
2882,12	3023,00
2886,22	2928,00
2890,32	2930,00
2894,41	2840,00
2898,50	2648,00
2902,58	2707,00
2906,67	2585,00
2910,74	2437,00
2914,82	2375,00
2918,89	2420,00
2922,96	2241,00
2927,02	2236,00
2931,08	2038,00
2935,13	2029,00
2939,19	2134,00
2943,24	2089,00
2947,28	2021,00
2951,32	1904,00
2955,36	1746,00
2959,40	1992,00
2963,43	1951,00
2967,46	1695,00
2971,48	1745,00
2975,50	1872,00
2979,52	1879,00
2983,53	1916,00
2987,54	1738,00
2991,55	1781,00
2995,55	1649,00
2999,55	1625,00
3003,54	1623,00
3007,54	1770,00
3011,53	1657,00
3015,51	1674,00
3019,49	1787,00
3023,47	1605,00
3027,45	1638,00
3031,42	1664,00
3035,39	1590,00
3039,35	1536,00
3043,31	1664,00
3047,27	1526,00
3051,22	1737,00
3055,17	1391,00
3059,12	1489,00
3063,06	1539,00
3067,00	1452,00
3070,94	1428,00
3074,87	1621,00
3078,80	1526,00
3082,73	1543,00
3086,65	1499,00
3090,57	1514,00
3094,49	1471,00
3098,40	1472,00
3102,31	1422,00
3106,22	1553,00
3110,12	1537,00
3114,02	1439,00
3117,92	1582,00
3121,81	1468,00
3125,70	1515,00
3129,58	1487,00
3133,47	1351,00
3137,34	1544,00
3141,22	1473,00
3145,09	1604,00
3148,96	1442,00
3152,83	1450,00
3156,69	1592,00
3160,55	1364,00
3164,40	1517,00
3168,26	1357,00
3172,10	1672,00
3175,95	1544,00
3179,79	1496,00
3183,63	1463,00
3187,47	1417,00
3191,30	1333,00
3195,13	1519,00
3198,95	1314,00
3202,78	1534,00
3206,60	1357,00
3210,41	1342,00
3214,23	1377,00
3218,03	1392,00
3221,84	1401,00
3225,64	1313,00
3229,44	1439,00
3233,24	1413,00
3237,03	1356,00
3240,82	1296,00
3244,61	1320,00
3248,39	1372,00
3252,17	1321,00
3255,95	1502,00
3259,72	1512,00
3263,49	1669,00
3267,26	1236,00
3271,03	1264,00
3274,79	1287,00
3278,54	1363,00
3282,30	1213,00
3286,05	1284,00
3289,80	1316,00
3293,54	1314,00
3297,29	1347,00
3301,02	1314,00
3304,76	1318,00
3308,49	1407,00
3312,22	1331,00
3315,95	1262,00
3319,67	1303,00
3323,39	1462,00
3327,10	1490,00
3330,82	1321,00
3334,53	1290,00
3338,24	1259,00
3341,94	1278,00
3345,64	1257,00
3349,34	1333,00
3353,03	1369,00
3356,72	1248,00
3360,41	1384,00
3364,10	1371,00
3367,78	1206,00
3371,46	1278,00
3375,13	1322,00
3378,81	1382,00
3382,48	1317,00
3386,14	1437,00
3389,81	1343,00
3393,47	1187,00
3397,12	1414,00
3400,78	1295,00
3404,43	1265,00
3408,08	1233,00
3411,72	1273,00
3415,36	1232,00
3419,00	1208,00
3422,64	1220,00
3426,27	1256,00
3429,90	1233,00
3433,53	1333,00
3437,15	1185,00
3440,77	1160,00
3444,39	1190,00
3448,00	1249,00
3451,62	1259,00
3455,22	1266,00
3458,83	1211,00
3462,43	1234,00
3466,03	1327,00
3469,63	1296,00
3473,22	1278,00
3476,81	1202,00
3480,40	1291,00
3483,99	1183,00
3487,57	1349,00
3491,15	1173,00
3494,72	1171,00
3498,29	1310,00
3501,86	1177,00
3505,43	1229,00
3508,99	1200,00
3512,56	1165,00
3516,11	1302,00
3519,67	1180,00
3523,22	1333,00
3526,77	1309,00
3530,32	1233,00
3533,86	1197,00
3537,40	1357,00
3540,94	1330,00
3544,47	1156,00
3548,00	1153,00
3551,53	1388,00
3555,06	1112,00
3558,58	1416,00
3562,10	1251,00
3565,62	1233,00
3569,13	1163,00
3572,64	1281,00
3576,15	1048,00
3579,66	1196,00
3583,16	1280,00
3586,66	1161,00
3590,16	1184,00
3593,65	1122,00
3597,14	1091,00
3600,63	1151,00
3604,11	1280,00
3607,60	1106,00
3611,08	1114,00
3614,55	1139,00
3618,03	1042,00
3621,50	1113,00
3624,97	1082,00
3628,43	1299,00
3631,90	1147,00
3635,36	1003,00
3638,81	1159,00
3642,27	1249,00
3645,72	1139,00
3649,17	1180,00
3652,61	1115,00
3656,06	1088,00
3659,50	1048,00
3662,93	1125,00
3666,37	1101,00
3669,80	1391,00
3673,23	1129,00
3676,65	1223,00
3680,08	1233,00
3683,50	1046,00
3686,92	1161,00
3690,33	1007,00
3693,74	1089,00
3697,15	930,00
3700,56	1130,00
3703,96	1135,00
3707,36	1053,00
3710,76	1025,00
3714,16	1011,00
3717,55	983,00
3720,94	1125,00
3724,33	1018,00
3727,71	1147,00
3731,10	1116,00
3734,48	965,00
3737,85	950,00
3741,23	908,00
3744,60	1033,00
3747,97	1004,00
3751,33	1017,00
3754,69	1035,00
3758,05	1057,00
3761,41	896,00
3764,77	932,00
3768,12	938,00
3771,47	920,00
3774,82	1006,00
3778,16	-13,00
3781,50	11,00
3784,84	10,00
3788,18	11,00
>>>>>End Processed Spectral Data<<<<<
