SpectraSuite Data File
++++++++++++++++++++++++++++++++++++
Date: Mon Mar 09 14:54:17 ICT 2026
User: Administrator
Dark Spectrum Present: Yes
Reference Spectrum Present: No
Number of Sampled Component Spectra: 1
Spectrometers: MAYP113682
Integration Time (usec): 3000000 (MAYP113682)
Spectra Averaged: 1 (MAYP113682)
Boxcar Smoothing: 0 (MAYP113682)
Correct for Electrical Dark: No (MAYP113682)
Strobe/Lamp Enabled: No (MAYP113682)
Correct for Detector Non-linearity: No (MAYP113682)
Correct for Stray Light: No (MAYP113682)
Number of Pixels in Processed Spectrum: 2068
>>>>>Begin Processed Spectral Data<<<<<
-37534,58	46,00
-37414,56	-2,00
-37295,11	13,00
-37176,24	4,00
-37057,95	951,00
-36940,22	835,00
-36823,05	988,00
-36706,45	1173,00
-36590,40	1048,00
-36474,90	1114,00
-36359,95	1123,00
-36245,55	1154,00
-36131,68	1150,00
-36018,35	1055,00
-35905,55	1144,00
-35793,29	1204,00
-35681,54	1153,00
-35570,32	1086,00
-35459,62	1124,00
-35349,43	1149,00
-35239,75	1177,00
-35130,58	1108,00
-35021,91	1130,00
-34913,74	1151,00
-34806,07	1203,00
-34698,89	1226,00
-34592,20	1221,00
-34486,00	1339,00
-34380,28	1162,00
-34275,04	1192,00
-34170,27	1145,00
-34065,98	1289,00
-33962,16	1171,00
-33858,81	1176,00
-33755,92	1246,00
-33653,49	1330,00
-33551,52	1265,00
-33450,01	1165,00
-33348,94	1192,00
-33248,33	1203,00
-33148,16	1190,00
-33048,43	1252,00
-32949,14	1291,00
-32850,29	1218,00
-32751,87	1237,00
-32653,89	1334,00
-32556,33	1408,00
-32459,20	1336,00
-32362,49	1233,00
-32266,19	1188,00
-32170,32	1199,00
-32074,86	1282,00
-31979,82	1277,00
-31885,18	1484,00
-31790,95	1262,00
-31697,12	1268,00
-31603,69	1331,00
-31510,67	1375,00
-31418,04	1246,00
-31325,80	1309,00
-31233,95	1390,00
-31142,49	1280,00
-31051,42	1380,00
-30960,73	1402,00
-30870,43	1407,00
-30780,50	1214,00
-30690,95	1291,00
-30601,77	1460,00
-30512,97	1199,00
-30424,53	1331,00
-30336,46	1287,00
-30248,76	1305,00
-30161,42	1334,00
-30074,44	1218,00
-29987,81	1396,00
-29901,55	1353,00
-29815,63	1266,00
-29730,07	1288,00
-29644,86	1366,00
-29560,00	1392,00
-29475,48	1215,00
-29391,30	1262,00
-29307,47	1114,00
-29223,97	1246,00
-29140,81	1362,00
-29057,99	1387,00
-28975,50	1269,00
-28893,34	1411,00
-28811,51	1253,00
-28730,00	1314,00
-28648,82	1175,00
-28567,97	1454,00
-28487,43	1222,00
-28407,21	1272,00
-28327,32	1242,00
-28247,73	1507,00
-28168,46	1259,00
-28089,50	1267,00
-28010,85	1129,00
-27932,51	1130,00
-27854,48	1383,00
-27776,75	1190,00
-27699,32	1168,00
-27622,19	1367,00
-27545,37	1321,00
-27468,84	1373,00
-27392,60	1316,00
-27316,66	1158,00
-27241,01	1297,00
-27165,66	1391,00
-27090,59	1301,00
-27015,81	1282,00
-26941,31	1454,00
-26867,10	1345,00
-26793,17	1333,00
-26719,52	1267,00
-26646,15	1246,00
-26573,06	1355,00
-26500,24	1298,00
-26427,70	1162,00
-26355,43	1376,00
-26283,43	1246,00
-26211,71	1384,00
-26140,25	1293,00
-26069,06	1614,00
-25998,13	1138,00
-25927,46	1207,00
-25857,06	1283,00
-25786,92	1288,00
-25717,04	1151,00
-25647,42	1297,00
-25578,05	1210,00
-25508,94	1291,00
-25440,09	1271,00
-25371,48	1207,00
-25303,13	1276,00
-25235,02	1274,00
-25167,17	1347,00
-25099,56	1434,00
-25032,19	1143,00
-24965,07	1192,00
-24898,20	1184,00
-24831,56	1306,00
-24765,17	1237,00
-24699,01	1176,00
-24633,10	1301,00
-24567,41	1319,00
-24501,97	1287,00
-24436,75	1320,00
-24371,77	1181,00
-24307,03	1258,00
-24242,51	1059,00
-24178,22	1425,00
-24114,16	1199,00
-24050,32	1366,00
-23986,71	1155,00
-23923,32	1212,00
-23860,16	1177,00
-23797,22	1189,00
-23734,50	1298,00
-23672,00	1117,00
-23609,71	1203,00
-23547,65	1128,00
-23485,80	1331,00
-23424,16	1177,00
-23362,74	1383,00
-23301,53	1290,00
-23240,54	1166,00
-23179,75	1260,00
-23119,17	1195,00
-23058,80	1220,00
-22998,64	1313,00
-22938,68	1226,00
-22878,93	1336,00
-22819,39	1272,00
-22760,04	1291,00
-22700,90	1295,00
-22641,96	1214,00
-22583,22	1315,00
-22524,68	1234,00
-22466,33	1199,00
-22408,19	1225,00
-22350,23	1257,00
-22292,48	1260,00
-22234,92	1345,00
-22177,55	1319,00
-22120,37	1445,00
-22063,38	1256,00
-22006,58	1133,00
-21949,98	1302,00
-21893,56	1101,00
-21837,33	1194,00
-21781,28	1267,00
-21725,42	1208,00
-21669,74	1292,00
-21614,25	1301,00
-21558,94	1241,00
-21503,81	1224,00
-21448,86	1311,00
-21394,10	1151,00
-21339,51	1170,00
-21285,10	1130,00
-21230,86	1121,00
-21176,81	1182,00
-21122,93	1210,00
-21069,22	1248,00
-21015,69	1191,00
-20962,33	1324,00
-20909,14	1225,00
-20856,13	1165,00
-20803,28	1279,00
-20750,61	1126,00
-20698,10	1208,00
-20645,76	1304,00
-20593,59	1383,00
-20541,59	1216,00
-20489,75	1308,00
-20438,07	1174,00
-20386,56	1375,00
-20335,22	1248,00
-20284,03	1132,00
-20233,01	1179,00
-20182,15	1153,00
-20131,45	1174,00
-20080,91	1150,00
-20030,52	1224,00
-19980,30	1235,00
-19930,23	1068,00
-19880,32	1389,00
-19830,56	1365,00
-19780,96	1227,00
-19731,52	1293,00
-19682,23	1231,00
-19633,09	1097,00
-19584,10	1180,00
-19535,26	1217,00
-19486,58	1374,00
-19438,04	1280,00
-19389,66	1246,00
-19341,42	1230,00
-19293,33	1238,00
-19245,39	1208,00
-19197,60	1250,00
-19149,95	1251,00
-19102,45	1266,00
-19055,09	1190,00
-19007,87	1332,00
-18960,80	1280,00
-18913,87	1206,00
-18867,09	1246,00
-18820,44	1325,00
-18773,94	1222,00
-18727,57	1193,00
-18681,35	1107,00
-18635,26	1303,00
-18589,31	1141,00
-18543,50	1185,00
-18497,83	1301,00
-18452,29	1310,00
-18406,89	1225,00
-18361,63	1362,00
-18316,50	1265,00
-18271,50	1178,00
-18226,63	1288,00
-18181,90	1306,00
-18137,30	1314,00
-18092,84	1173,00
-18048,50	1276,00
-18004,29	1115,00
-17960,22	1211,00
-17916,27	1154,00
-17872,45	1266,00
-17828,76	1218,00
-17785,20	1321,00
-17741,77	1281,00
-17698,46	1226,00
-17655,28	1103,00
-17612,22	1233,00
-17569,29	1164,00
-17526,48	1227,00
-17483,79	1148,00
-17441,23	1248,00
-17398,79	1147,00
-17356,48	1144,00
-17314,28	1484,00
-17272,21	1190,00
-17230,26	1237,00
-17188,42	1323,00
-17146,71	1174,00
-17105,12	1227,00
-17063,64	1253,00
-17022,28	1194,00
-16981,04	1225,00
-16939,92	1240,00
-16898,91	1297,00
-16858,02	1199,00
-16817,25	1222,00
-16776,59	1099,00
-16736,04	1206,00
-16695,61	1181,00
-16655,29	1120,00
-16615,09	1286,00
-16574,99	1293,00
-16535,01	1124,00
-16495,15	1225,00
-16455,39	1266,00
-16415,74	1246,00
-16376,21	1156,00
-16336,78	1160,00
-16297,46	1139,00
-16258,26	1195,00
-16219,16	1219,00
-16180,17	1192,00
-16141,28	1310,00
-16102,51	1277,00
-16063,84	1237,00
-16025,27	1270,00
-15986,82	1089,00
-15948,46	1144,00
-15910,22	1255,00
-15872,07	1234,00
-15834,04	1161,00
-15796,10	1188,00
-15758,27	1418,00
-15720,54	1200,00
-15682,91	1172,00
-15645,39	1295,00
-15607,97	1226,00
-15570,64	1136,00
-15533,42	1195,00
-15496,30	1257,00
-15459,28	1232,00
-15422,36	1126,00
-15385,54	1120,00
-15348,82	1156,00
-15312,19	1399,00
-15275,66	1184,00
-15239,23	1096,00
-15202,90	1172,00
-15166,67	1099,00
-15130,53	1290,00
-15094,48	1263,00
-15058,54	1227,00
-15022,68	1137,00
-14986,93	1156,00
-14951,26	1215,00
-14915,69	1122,00
-14880,22	1139,00
-14844,84	1162,00
-14809,55	1271,00
-14774,35	1217,00
-14739,25	1342,00
-14704,24	1177,00
-14669,32	1228,00
-14634,49	1259,00
-14599,75	1273,00
-14565,10	1108,00
-14530,55	1336,00
-14496,08	1323,00
-14461,70	1151,00
-14427,41	1075,00
-14393,21	1161,00
-14359,10	1178,00
-14325,07	1312,00
-14291,14	1228,00
-14257,29	1286,00
-14223,52	1254,00
-14189,85	1335,00
-14156,26	1210,00
-14122,76	1197,00
-14089,34	1169,00
-14056,01	1292,00
-14022,76	1299,00
-13989,60	1315,00
-13956,52	1226,00
-13923,53	1283,00
-13890,62	1226,00
-13857,79	1172,00
-13825,05	1127,00
-13792,39	1127,00
-13759,81	1307,00
-13727,31	1208,00
-13694,90	1210,00
-13662,57	1240,00
-13630,31	1277,00
-13598,14	1239,00
-13566,05	1195,00
-13534,05	1198,00
-13502,12	1172,00
-13470,27	1223,00
-13438,50	1302,00
-13406,80	1111,00
-13375,19	1130,00
-13343,66	1283,00
-13312,20	1226,00
-13280,83	1133,00
-13249,53	1169,00
-13218,30	1092,00
-13187,16	1133,00
-13156,09	1311,00
-13125,10	1221,00
-13094,18	1236,00
-13063,34	1380,00
-13032,58	1028,00
-13001,89	1232,00
-12971,28	1286,00
-12940,74	1234,00
-12910,27	1310,00
-12879,88	1264,00
-12849,57	1280,00
-12819,33	1306,00
-12789,16	1249,00
-12759,06	1193,00
-12729,04	1299,00
-12699,09	2779,00
-12669,21	1183,00
-12639,41	1247,00
-12609,68	1223,00
-12580,02	1152,00
-12550,43	1367,00
-12520,91	1074,00
-12491,46	1216,00
-12462,08	1157,00
-12432,77	1218,00
-12403,54	1273,00
-12374,37	1237,00
-12345,27	1286,00
-12316,24	1200,00
-12287,29	1345,00
-12258,40	1163,00
-12229,57	1226,00
-12200,82	1363,00
-12172,14	1176,00
-12143,52	1140,00
-12114,97	1046,00
-12086,49	1256,00
-12058,07	1223,00
-12029,73	1232,00
-12001,44	1299,00
-11973,23	1230,00
-11945,08	1232,00
-11917,00	1271,00
-11888,98	1194,00
-11861,03	1178,00
-11833,15	1228,00
-11805,32	1224,00
-11777,57	1323,00
-11749,88	1200,00
-11722,25	1205,00
-11694,69	1230,00
-11667,19	1233,00
-11639,75	1335,00
-11612,38	1327,00
-11585,07	1170,00
-11557,83	1269,00
-11530,65	1374,00
-11503,53	1249,00
-11476,47	1341,00
-11449,48	1131,00
-11422,54	1257,00
-11395,67	1197,00
-11368,86	1356,00
-11342,11	1274,00
-11315,43	1273,00
-11288,80	1055,00
-11262,23	1365,00
-11235,73	1223,00
-11209,28	1376,00
-11182,90	1364,00
-11156,57	1277,00
-11130,31	1297,00
-11104,10	1262,00
-11077,96	1202,00
-11051,87	1288,00
-11025,84	1297,00
-10999,87	1154,00
-10973,96	1311,00
-10948,11	1188,00
-10922,31	1133,00
-10896,58	1301,00
-10870,90	1420,00
-10845,28	1164,00
-10819,71	1061,00
-10794,20	1212,00
-10768,75	1402,00
-10743,36	1115,00
-10718,02	1127,00
-10692,74	1199,00
-10667,52	1026,00
-10642,35	1236,00
-10617,24	1308,00
-10592,18	1303,00
-10567,18	1165,00
-10542,23	1200,00
-10517,34	1265,00
-10492,51	1250,00
-10467,72	1215,00
-10443,00	1135,00
-10418,32	1294,00
-10393,70	1154,00
-10369,14	1146,00
-10344,63	1163,00
-10320,17	1277,00
-10295,77	1152,00
-10271,42	1264,00
-10247,12	1220,00
-10222,88	1385,00
-10198,68	1071,00
-10174,54	1170,00
-10150,46	1269,00
-10126,42	1210,00
-10102,44	1303,00
-10078,51	1178,00
-10054,63	1271,00
-10030,80	1273,00
-10007,03	1356,00
-9983,30	1175,00
-9959,63	1027,00
-9936,01	1280,00
-9912,44	1190,00
-9888,92	1155,00
-9865,44	1213,00
-9842,02	1223,00
-9818,65	1202,00
-9795,33	1126,00
-9772,06	1157,00
-9748,84	1109,00
-9725,67	1066,00
-9702,55	1124,00
-9679,47	1302,00
-9656,45	1154,00
-9633,47	926,00
-9610,55	1100,00
-9587,67	1221,00
-9564,84	1426,00
-9542,06	1070,00
-9519,32	1173,00
-9496,64	1211,00
-9474,00	896,00
-9451,41	959,00
-9428,87	1169,00
-9406,37	1122,00
-9383,92	983,00
-9361,52	1066,00
-9339,17	1147,00
-9316,86	981,00
-9294,60	823,00
-9272,38	1066,00
-9250,21	950,00
-9228,09	962,00
-9206,01	1031,00
-9183,98	872,00
-9162,00	873,00
-9140,06	1000,00
-9118,16	868,00
-9096,31	941,00
-9074,51	972,00
-9052,75	1167,00
-9031,04	1111,00
-9009,37	830,00
-8987,74	998,00
-8966,16	1065,00
-8944,63	1017,00
-8923,14	1071,00
-8901,69	1033,00
-8880,29	947,00
-8858,93	1070,00
-8837,61	956,00
-8816,34	952,00
-8795,11	984,00
-8773,92	982,00
-8752,78	1031,00
-8731,68	1044,00
-8710,62	1180,00
-8689,61	884,00
-8668,63	1000,00
-8647,70	1263,00
-8626,82	986,00
-8605,97	1192,00
-8585,17	1050,00
-8564,41	975,00
-8543,69	1174,00
-8523,01	938,00
-8502,37	1286,00
-8481,78	900,00
-8461,23	839,00
-8440,71	930,00
-8420,24	888,00
-8399,81	1045,00
-8379,42	1097,00
-8359,08	1194,00
-8338,77	955,00
-8318,50	1126,00
-8298,27	1001,00
-8278,09	1055,00
-8257,94	903,00
-8237,83	1096,00
-8217,76	1078,00
-8197,74	980,00
-8177,75	1143,00
-8157,80	1022,00
-8137,89	1010,00
-8118,02	1102,00
-8098,19	1236,00
-8078,40	1164,00
-8058,65	942,00
-8038,93	1134,00
-8019,26	1059,00
-7999,62	1155,00
-7980,02	1128,00
-7960,46	1060,00
-7940,94	1114,00
-7921,46	1119,00
-7902,01	1009,00
-7882,60	1189,00
-7863,23	1120,00
-7843,90	1128,00
-7824,61	1008,00
-7805,35	1183,00
-7786,13	1148,00
-7766,95	1056,00
-7747,80	1104,00
-7728,69	1271,00
-7709,62	1119,00
-7690,59	1094,00
-7671,59	1151,00
-7652,63	1033,00
-7633,70	1024,00
-7614,81	1197,00
-7595,96	1018,00
-7577,15	1167,00
-7558,37	1015,00
-7539,62	1203,00
-7520,91	1110,00
-7502,24	1158,00
-7483,60	1218,00
-7465,00	1191,00
-7446,44	1122,00
-7427,91	1030,00
-7409,41	1223,00
-7390,95	1173,00
-7372,53	1043,00
-7354,14	1192,00
-7335,78	1114,00
-7317,46	1103,00
-7299,18	1054,00
-7280,92	1106,00
-7262,71	1205,00
-7244,52	1057,00
-7226,38	1043,00
-7208,26	1149,00
-7190,18	1155,00
-7172,14	1100,00
-7154,12	1150,00
-7136,15	1014,00
-7118,20	1163,00
-7100,29	1242,00
-7082,41	1204,00
-7064,57	1196,00
-7046,76	1180,00
-7028,98	912,00
-7011,24	1418,00
-6993,53	930,00
-6975,85	1191,00
-6958,20	1115,00
-6940,59	1054,00
-6923,01	980,00
-6905,46	1249,00
-6887,94	1108,00
-6870,46	1509,00
-6853,01	1112,00
-6835,59	1067,00
-6818,21	1102,00
-6800,85	1290,00
-6783,53	1179,00
-6766,24	1114,00
-6748,98	1151,00
-6731,76	1048,00
-6714,56	1148,00
-6697,40	984,00
-6680,26	936,00
-6663,16	1104,00
-6646,09	1246,00
-6629,05	1059,00
-6612,05	1121,00
-6595,07	1036,00
-6578,13	1253,00
-6561,21	1074,00
-6544,33	1104,00
-6527,47	1140,00
-6510,65	1075,00
-6493,86	1143,00
-6477,10	1085,00
-6460,36	1242,00
-6443,66	1161,00
-6426,99	1125,00
-6410,35	1049,00
-6393,74	1217,00
-6377,16	1076,00
-6360,61	1072,00
-6344,09	970,00
-6327,59	1000,00
-6311,13	972,00
-6294,70	1211,00
-6278,29	1190,00
-6261,92	1076,00
-6245,58	1066,00
-6229,26	1174,00
-6212,97	1169,00
-6196,72	1102,00
-6180,49	1278,00
-6164,29	1069,00
-6148,12	1278,00
-6131,98	1227,00
-6115,86	1244,00
-6099,78	1063,00
-6083,72	1054,00
-6067,69	1075,00
-6051,69	1171,00
-6035,72	1189,00
-6019,78	1131,00
-6003,87	1266,00
-5987,98	1188,00
-5972,12	1191,00
-5956,29	1191,00
-5940,49	1096,00
-5924,71	1263,00
-5908,96	1092,00
-5893,24	1159,00
-5877,55	1200,00
-5861,89	1130,00
-5846,25	1168,00
-5830,64	1207,00
-5815,05	1127,00
-5799,50	1059,00
-5783,97	1176,00
-5768,47	1262,00
-5752,99	1387,00
-5737,55	1076,00
-5722,12	1100,00
-5706,73	1080,00
-5691,36	1112,00
-5676,02	1014,00
-5660,71	1251,00
-5645,42	1114,00
-5630,16	1199,00
-5614,92	1210,00
-5599,71	1010,00
-5584,53	1129,00
-5569,37	984,00
-5554,24	1321,00
-5539,14	1123,00
-5524,06	1104,00
-5509,01	1032,00
-5493,98	1151,00
-5478,98	1268,00
-5464,00	1129,00
-5449,05	1079,00
-5434,13	1204,00
-5419,23	1298,00
-5404,36	1110,00
-5389,51	1080,00
-5374,69	1164,00
-5359,89	1128,00
-5345,12	1231,00
-5330,37	1288,00
-5315,65	1236,00
-5300,95	1162,00
-5286,28	1081,00
-5271,63	1022,00
-5257,01	1234,00
-5242,41	1176,00
-5227,84	1187,00
-5213,29	1106,00
-5198,76	1207,00
-5184,26	1162,00
-5169,79	1220,00
-5155,33	1181,00
-5140,91	1261,00
-5126,51	1119,00
-5112,13	1121,00
-5097,77	1286,00
-5083,44	1224,00
-5069,13	1081,00
-5054,85	1225,00
-5040,59	1086,00
-5026,36	1209,00
-5012,15	1324,00
-4997,96	1138,00
-4983,80	1200,00
-4969,66	1185,00
-4955,54	1147,00
-4941,44	1155,00
-4927,37	1194,00
-4913,33	1153,00
-4899,30	972,00
-4885,30	1111,00
-4871,33	1134,00
-4857,37	1234,00
-4843,44	1276,00
-4829,53	1234,00
-4815,65	1316,00
-4801,79	1040,00
-4787,95	1106,00
-4774,13	1077,00
-4760,34	1189,00
-4746,56	1350,00
-4732,82	1205,00
-4719,09	1129,00
-4705,38	1244,00
-4691,70	1220,00
-4678,04	1177,00
-4664,41	1156,00
-4650,79	1445,00
-4637,20	1224,00
-4623,63	1202,00
-4610,08	1156,00
-4596,56	1269,00
-4583,05	1170,00
-4569,57	1100,00
-4556,11	1388,00
-4542,67	1155,00
-4529,25	1016,00
-4515,86	1312,00
-4502,49	1238,00
-4489,13	1221,00
-4475,80	1160,00
-4462,49	1034,00
-4449,21	1416,00
-4435,94	1116,00
-4422,70	1255,00
-4409,47	1054,00
-4396,27	1154,00
-4383,09	1266,00
-4369,93	1206,00
-4356,79	1207,00
-4343,67	1264,00
-4330,58	1239,00
-4317,50	1114,00
-4304,45	1180,00
-4291,41	1200,00
-4278,40	1217,00
-4265,41	1141,00
-4252,44	1160,00
-4239,49	1051,00
-4226,55	1211,00
-4213,65	1391,00
-4200,76	1291,00
-4187,89	1171,00
-4175,04	1168,00
-4162,21	1268,00
-4149,40	1208,00
-4136,61	1170,00
-4123,85	1200,00
-4111,10	1212,00
-4098,37	1343,00
-4085,66	1265,00
-4072,98	1255,00
-4060,31	1188,00
-4047,66	1407,00
-4035,04	1451,00
-4022,43	1173,00
-4009,84	1448,00
-3997,27	1133,00
-3984,72	1220,00
-3972,19	1276,00
-3959,69	1142,00
-3947,20	1216,00
-3934,73	1320,00
-3922,27	1188,00
-3909,84	1208,00
-3897,43	1228,00
-3885,04	1241,00
-3872,67	1137,00
-3860,31	1335,00
-3847,98	1328,00
-3835,66	1193,00
-3823,36	1265,00
-3811,09	1118,00
-3798,83	1261,00
-3786,59	1362,00
-3774,37	1346,00
-3762,17	1102,00
-3749,98	1203,00
-3737,82	1206,00
-3725,67	1541,00
-3713,55	1200,00
-3701,44	1368,00
-3689,35	1276,00
-3677,28	1372,00
-3665,22	1259,00
-3653,19	1107,00
-3641,17	1157,00
-3629,18	1310,00
-3617,20	1175,00
-3605,24	1199,00
-3593,30	1186,00
-3581,37	1187,00
-3569,47	1364,00
-3557,58	1331,00
-3545,71	1273,00
-3533,86	1233,00
-3522,02	1239,00
-3510,21	1241,00
-3498,41	1309,00
-3486,63	1215,00
-3474,87	1355,00
-3463,12	1168,00
-3451,40	1294,00
-3439,69	1319,00
-3428,00	1346,00
-3416,33	1278,00
-3404,67	1164,00
-3393,03	1368,00
-3381,41	1291,00
-3369,81	1224,00
-3358,22	1224,00
-3346,66	1387,00
-3335,10	1282,00
-3323,57	1217,00
-3312,06	1349,00
-3300,56	1276,00
-3289,08	1123,00
-3277,61	1200,00
-3266,16	1287,00
-3254,73	1261,00
-3243,32	1285,00
-3231,92	1329,00
-3220,55	1193,00
-3209,18	1300,00
-3197,84	1189,00
-3186,51	1028,00
-3175,20	1190,00
-3163,90	1148,00
-3152,63	1251,00
-3141,36	1244,00
-3130,12	1317,00
-3118,89	1248,00
-3107,68	1296,00
-3096,49	1291,00
-3085,31	1314,00
-3074,15	1216,00
-3063,00	1308,00
-3051,87	1322,00
-3040,76	1229,00
-3029,67	1283,00
-3018,59	1533,00
-3007,52	1278,00
-2996,48	1403,00
-2985,44	1189,00
-2974,43	1231,00
-2963,43	1293,00
-2952,45	1065,00
-2941,48	1317,00
-2930,53	1260,00
-2919,60	1194,00
-2908,68	1212,00
-2897,78	1212,00
-2886,89	1315,00
-2876,02	1186,00
-2865,17	1239,00
-2854,33	1252,00
-2843,50	1148,00
-2832,70	1203,00
-2821,90	1259,00
-2811,13	1223,00
-2800,37	1243,00
-2789,62	1238,00
-2778,89	1214,00
-2768,18	1459,00
-2757,48	1280,00
-2746,80	1370,00
-2736,13	1314,00
-2725,48	1180,00
-2714,84	1327,00
-2704,22	1171,00
-2693,61	1289,00
-2683,02	1241,00
-2672,45	1191,00
-2661,89	1306,00
-2651,34	1372,00
-2640,81	1208,00
-2630,30	1341,00
-2619,80	1263,00
-2609,31	1457,00
-2598,84	1129,00
-2588,39	1251,00
-2577,95	1143,00
-2567,52	1152,00
-2557,11	1302,00
-2546,71	1277,00
-2536,33	1358,00
-2525,97	1225,00
-2515,62	1172,00
-2505,28	1281,00
-2494,96	1145,00
-2484,65	1241,00
-2474,36	1516,00
-2464,08	1248,00
-2453,82	1380,00
-2443,57	1348,00
-2433,33	1155,00
-2423,11	1182,00
-2412,91	1145,00
-2402,72	1045,00
-2392,54	1290,00
-2382,38	1218,00
-2372,23	1377,00
-2362,09	6107,00
-2351,97	1155,00
-2341,87	1181,00
-2331,78	1283,00
-2321,70	1330,00
-2311,64	1263,00
-2301,59	1136,00
-2291,55	1140,00
-2281,53	1225,00
-2271,53	1220,00
-2261,53	1372,00
-2251,55	1246,00
-2241,59	1330,00
-2231,64	1318,00
-2221,70	1176,00
-2211,78	1360,00
-2201,87	1227,00
-2191,97	1253,00
-2182,09	1225,00
-2172,22	1367,00
-2162,37	1218,00
-2152,53	1154,00
-2142,70	1165,00
-2132,89	1193,00
-2123,09	1355,00
-2113,30	1268,00
-2103,53	1264,00
-2093,77	1209,00
-2084,02	1091,00
-2074,29	1286,00
-2064,57	1233,00
-2054,86	1246,00
-2045,17	1250,00
-2035,49	1382,00
-2025,82	1204,00
-2016,17	1172,00
-2006,53	1251,00
-1996,91	1221,00
-1987,29	1154,00
-1977,69	1271,00
-1968,11	1277,00
-1958,53	1245,00
-1948,97	1401,00
-1939,42	1171,00
-1929,89	1100,00
-1920,37	1354,00
-1910,86	1353,00
-1901,36	1341,00
-1891,88	1310,00
-1882,41	1286,00
-1872,95	1250,00
-1863,51	1292,00
-1854,08	1374,00
-1844,66	1301,00
-1835,26	1219,00
-1825,86	1316,00
-1816,48	1253,00
-1807,11	1240,00
-1797,76	1322,00
-1788,42	1308,00
-1779,09	1352,00
-1769,77	1220,00
-1760,47	1456,00
-1751,17	1225,00
-1741,89	1296,00
-1732,63	1335,00
-1723,37	1540,00
-1714,13	1472,00
-1704,90	1130,00
-1695,68	1435,00
-1686,48	1200,00
-1677,29	1278,00
-1668,11	1600,00
-1658,94	1328,00
-1649,78	1241,00
-1640,64	1343,00
-1631,51	1244,00
-1622,39	1342,00
-1613,28	1309,00
-1604,19	1530,00
-1595,10	1193,00
-1586,03	1260,00
-1576,97	1354,00
-1567,93	1261,00
-1558,89	1433,00
-1549,87	1291,00
-1540,86	1253,00
-1531,86	1221,00
-1522,87	1179,00
-1513,90	1384,00
-1504,93	1327,00
-1495,98	1278,00
-1487,04	1376,00
-1478,12	1395,00
-1469,20	1182,00
-1460,30	1322,00
-1451,40	1443,00
-1442,52	1272,00
-1433,65	1307,00
-1424,80	1313,00
-1415,95	1262,00
-1407,12	1437,00
-1398,30	1269,00
-1389,48	1178,00
-1380,69	1235,00
-1371,90	1304,00
-1363,12	1279,00
-1354,36	1471,00
-1345,60	1320,00
-1336,86	1308,00
-1328,13	1513,00
-1319,41	1224,00
-1310,70	1268,00
-1302,01	1274,00
-1293,32	1186,00
-1284,65	1302,00
-1275,99	1312,00
-1267,33	1340,00
-1258,69	1278,00
-1250,06	1319,00
-1241,45	1261,00
-1232,84	1467,00
-1224,25	1304,00
-1215,66	1321,00
-1207,09	1369,00
-1198,53	1250,00
-1189,97	1185,00
-1181,43	1235,00
-1172,91	1361,00
-1164,39	1467,00
-1155,88	1179,00
-1147,38	1088,00
-1138,90	1212,00
-1130,43	1135,00
-1121,96	1323,00
-1113,51	1428,00
-1105,07	1284,00
-1096,64	1308,00
-1088,22	1325,00
-1079,81	1334,00
-1071,41	1390,00
-1063,02	1194,00
-1054,65	1266,00
-1046,28	1244,00
-1037,92	1356,00
-1029,58	1272,00
-1021,24	1260,00
-1012,92	1706,00
-1004,61	1313,00
-996,30	1700,00
-988,01	1092,00
-979,73	1343,00
-971,46	1338,00
-963,20	1213,00
-954,95	1108,00
-946,71	1194,00
-938,48	1281,00
-930,26	1399,00
-922,06	1298,00
-913,86	1334,00
-905,67	1221,00
-897,49	1287,00
-889,33	1160,00
-881,17	1327,00
-873,02	1281,00
-864,89	1105,00
-856,76	1281,00
-848,65	1311,00
-840,54	1318,00
-832,45	1360,00
-824,36	1019,00
-816,29	1287,00
-808,22	1384,00
-800,17	1335,00
-792,12	1354,00
-784,09	1452,00
-776,06	1158,00
-768,05	1307,00
-760,04	1204,00
-752,05	1245,00
-744,07	1416,00
-736,09	1402,00
-728,13	1108,00
-720,17	1269,00
-712,23	1168,00
-704,29	1334,00
-696,37	1319,00
-688,45	1248,00
-680,55	1213,00
-672,65	1195,00
-664,77	1239,00
-656,89	1246,00
-649,03	1208,00
-641,17	1261,00
-633,32	1433,00
-625,49	1272,00
-617,66	1348,00
-609,84	1368,00
-602,03	1098,00
-594,23	1216,00
-586,45	1274,00
-578,67	1156,00
-570,90	1162,00
-563,14	1182,00
-555,39	1274,00
-547,65	1441,00
-539,91	1254,00
-532,19	1186,00
-524,48	1319,00
-516,78	1205,00
-509,08	1224,00
-501,40	1178,00
-493,72	1326,00
-486,06	1148,00
-478,40	1566,00
-470,76	1214,00
-463,12	1208,00
-455,49	1168,00
-447,87	1164,00
-440,26	1151,00
-432,66	1181,00
-425,07	1318,00
-417,49	1274,00
-409,92	1163,00
-402,35	1066,00
-394,80	1150,00
-387,25	1412,00
-379,72	1291,00
-372,19	1192,00
-364,67	1335,00
-357,17	1270,00
-349,67	1208,00
-342,18	1314,00
-334,69	1338,00
-327,22	1240,00
-319,76	1275,00
-312,30	1342,00
-304,86	1297,00
-297,42	1292,00
-290,00	1284,00
-282,58	1326,00
-275,17	1392,00
-267,77	1343,00
-260,37	1221,00
-252,99	1346,00
-245,62	1301,00
-238,25	1138,00
-230,90	1247,00
-223,55	1366,00
-216,21	1335,00
-208,88	1477,00
-201,56	1291,00
-194,25	1325,00
-186,94	1364,00
-179,65	1351,00
-172,36	1386,00
-165,08	1268,00
-157,81	1535,00
-150,55	1510,00
-143,30	1578,00
-136,06	1431,00
-128,82	1390,00
-121,60	1416,00
-114,38	1590,00
-107,17	1532,00
-99,97	1649,00
-92,78	1683,00
-85,60	1729,00
-78,42	1837,00
-71,25	1965,00
-64,10	2032,00
-56,95	2139,00
-49,81	2253,00
-42,67	2732,00
-35,55	2890,00
-28,43	3473,00
-21,33	4959,00
-14,23	14003,00
-7,14	57775,00
-0,05	57564,00
7,02	57281,00
14,09	43949,00
21,14	12408,00
28,19	5713,00
35,23	4088,00
42,27	3462,00
49,29	2946,00
56,31	2826,00
63,32	2732,00
70,32	2273,00
77,31	2080,00
84,29	1918,00
91,27	1984,00
98,23	1987,00
105,19	1767,00
112,14	1975,00
119,09	2456,00
126,02	3302,00
132,95	3677,00
139,87	3841,00
146,78	4112,00
153,68	3848,00
160,58	3786,00
167,46	3737,00
174,34	3943,00
181,21	3897,00
188,08	3863,00
194,93	3963,00
201,78	3899,00
208,62	3931,00
215,45	3942,00
222,27	3925,00
229,09	4121,00
235,90	3853,00
242,70	3836,00
249,49	4139,00
256,27	3835,00
263,05	3811,00
269,82	3831,00
276,58	3859,00
283,33	3840,00
290,08	4027,00
296,82	3842,00
303,55	3829,00
310,27	3705,00
316,98	3819,00
323,69	3665,00
330,39	3639,00
337,08	3886,00
343,76	3834,00
350,44	3809,00
357,11	3815,00
363,77	3752,00
370,42	3742,00
377,07	3966,00
383,71	3735,00
390,34	3824,00
396,96	3830,00
403,58	3721,00
410,19	3966,00
416,79	3942,00
423,38	3927,00
429,97	3910,00
436,55	3660,00
443,12	3857,00
449,68	3656,00
456,24	3779,00
462,79	3839,00
469,33	3825,00
475,86	3741,00
482,39	3810,00
488,91	3890,00
495,42	3581,00
501,93	3898,00
508,42	3720,00
514,91	3837,00
521,40	3735,00
527,87	3693,00
534,34	3620,00
540,80	3943,00
547,25	3769,00
553,70	3855,00
560,14	3786,00
566,57	3934,00
573,00	3767,00
579,41	3801,00
585,83	3821,00
592,23	3749,00
598,62	3742,00
605,01	3691,00
611,40	3762,00
617,77	3826,00
624,14	3835,00
630,50	3801,00
636,85	3918,00
643,20	3838,00
649,54	3678,00
655,87	3747,00
662,20	3912,00
668,52	3758,00
674,83	3752,00
681,13	3768,00
687,43	3777,00
693,72	3695,00
700,00	3642,00
706,28	3710,00
712,55	3698,00
718,81	3803,00
725,07	3727,00
731,32	3660,00
737,56	3860,00
743,79	3813,00
750,02	3839,00
756,24	3785,00
762,46	3689,00
768,67	4169,00
774,87	3824,00
781,06	3793,00
787,25	3918,00
793,43	3857,00
799,60	3669,00
805,77	3996,00
811,93	3786,00
818,08	3814,00
824,23	3863,00
830,37	4088,00
836,50	3868,00
842,63	3859,00
848,75	3818,00
854,87	3923,00
860,97	3814,00
867,07	3855,00
873,17	3897,00
879,25	3755,00
885,33	3863,00
891,41	3785,00
897,47	3881,00
903,53	3834,00
909,59	3951,00
915,63	3914,00
921,67	3908,00
927,71	3846,00
933,74	3941,00
939,76	3789,00
945,77	3824,00
951,78	3907,00
957,78	3729,00
963,78	3925,00
969,77	3955,00
975,75	3948,00
981,72	3734,00
987,69	5835,00
993,66	4077,00
999,61	4040,00
1005,56	3942,00
1011,51	3932,00
1017,44	4015,00
1023,37	3999,00
1029,30	3937,00
1035,22	4061,00
1041,13	3932,00
1047,03	3965,00
1052,93	4073,00
1058,83	4439,00
1064,71	4601,00
1070,59	4476,00
1076,47	4093,00
1082,33	4094,00
1088,20	4114,00
1094,05	4172,00
1099,90	4017,00
1105,74	4050,00
1111,58	3992,00
1117,41	4155,00
1123,23	4469,00
1129,05	4677,00
1134,86	4617,00
1140,67	4325,00
1146,47	4261,00
1152,26	4117,00
1158,05	4051,00
1163,83	4071,00
1169,60	4206,00
1175,37	4267,00
1181,13	4180,00
1186,89	4211,00
1192,64	4099,00
1198,38	4226,00
1204,12	4038,00
1209,85	4094,00
1215,58	4198,00
1221,30	4228,00
1227,02	4201,00
1232,72	4206,00
1238,43	4090,00
1244,12	4107,00
1249,81	4049,00
1255,50	4330,00
1261,17	4226,00
1266,85	4261,00
1272,51	4279,00
1278,17	4308,00
1283,83	4288,00
1289,47	4633,00
1295,12	5076,00
1300,75	4828,00
1306,38	4518,00
1312,01	4229,00
1317,63	4336,00
1323,24	4207,00
1328,85	4403,00
1334,45	4207,00
1340,04	4241,00
1345,63	4089,00
1351,22	4419,00
1356,80	4202,00
1362,37	4278,00
1367,93	4237,00
1373,49	4222,00
1379,05	4188,00
1384,60	4171,00
1390,14	4180,00
1395,68	4234,00
1401,21	4176,00
1406,74	4331,00
1412,26	4512,00
1417,77	4735,00
1423,28	4493,00
1428,78	4541,00
1434,28	4896,00
1439,77	4965,00
1445,26	5065,00
1450,74	5086,00
1456,22	4840,00
1461,68	4781,00
1467,15	4742,00
1472,61	4520,00
1478,06	4688,00
1483,51	4385,00
1488,95	4228,00
1494,38	4298,00
1499,81	4104,00
1505,24	4171,00
1510,65	4195,00
1516,07	4176,00
1521,48	4034,00
1526,88	3938,00
1532,27	4100,00
1537,67	3911,00
1543,05	4196,00
1548,43	3939,00
1553,81	4099,00
1559,18	3877,00
1564,54	3939,00
1569,90	3997,00
1575,25	3931,00
1580,60	3777,00
1585,94	4048,00
1591,28	4002,00
1596,61	3892,00
1601,93	3996,00
1607,25	4043,00
1612,57	4032,00
1617,88	4013,00
1623,18	3869,00
1628,48	3971,00
1633,77	3972,00
1639,06	3986,00
1644,34	3780,00
1649,62	3883,00
1654,89	4035,00
1660,16	3777,00
1665,42	4016,00
1670,67	3845,00
1675,92	3903,00
1681,17	3838,00
1686,41	3820,00
1691,64	4096,00
1696,87	3817,00
1702,10	3827,00
1707,32	3903,00
1712,53	3899,00
1717,74	3870,00
1722,94	3852,00
1728,14	3787,00
1733,33	3717,00
1738,52	3699,00
1743,70	3827,00
1748,88	3645,00
1754,05	3832,00
1759,22	3667,00
1764,38	5296,00
1769,53	3583,00
1774,69	3832,00
1779,83	3721,00
1784,97	3649,00
1790,11	3689,00
1795,24	3691,00
1800,36	3714,00
1805,48	3524,00
1810,60	3546,00
1815,71	3616,00
1820,82	3506,00
1825,92	3754,00
1831,01	3615,00
1836,10	3642,00
1841,19	3584,00
1846,26	3419,00
1851,34	3586,00
1856,41	3684,00
1861,47	3549,00
1866,53	3642,00
1871,59	3678,00
1876,64	3577,00
1881,68	3655,00
1886,72	3658,00
1891,76	3586,00
1896,79	3537,00
1901,81	3416,00
1906,83	3607,00
1911,85	3374,00
1916,86	3479,00
1921,86	3536,00
1926,86	3496,00
1931,86	3443,00
1936,85	3517,00
1941,83	3428,00
1946,81	3426,00
1951,79	3476,00
1956,76	3331,00
1961,72	3171,00
1966,68	3313,00
1971,64	3275,00
1976,59	3308,00
1981,54	3358,00
1986,48	3372,00
1991,42	3269,00
1996,35	3595,00
2001,27	3308,00
2006,20	3236,00
2011,11	3428,00
2016,03	3324,00
2020,93	3238,00
2025,84	3280,00
2030,73	3180,00
2035,63	3113,00
2040,52	3356,00
2045,40	3244,00
2050,28	3259,00
2055,15	3350,00
2060,02	3213,00
2064,89	3267,00
2069,75	3302,00
2074,60	3244,00
2079,46	3252,00
2084,30	3117,00
2089,14	3110,00
2093,98	3262,00
2098,81	3217,00
2103,64	3237,00
2108,46	3229,00
2113,28	3123,00
2118,09	3093,00
2122,90	3164,00
2127,70	3158,00
2132,50	3304,00
2137,30	2978,00
2142,09	3020,00
2146,87	2993,00
2151,66	3208,00
2156,43	3122,00
2161,20	3045,00
2165,97	3316,00
2170,73	3014,00
2175,49	3149,00
2180,24	2979,00
2184,99	3138,00
2189,74	3155,00
2194,48	3045,00
2199,21	3215,00
2203,94	2928,00
2208,67	2923,00
2213,39	2752,00
2218,11	3080,00
2222,82	3049,00
2227,53	2904,00
2232,23	3089,00
2236,93	2928,00
2241,63	2993,00
2246,32	2941,00
2251,00	2946,00
2255,68	2984,00
2260,36	2876,00
2265,03	3034,00
2269,70	3150,00
2274,36	2837,00
2279,02	2939,00
2283,68	2954,00
2288,33	2821,00
2292,97	2948,00
2297,61	2878,00
2302,25	2813,00
2306,88	2812,00
2311,51	2619,00
2316,14	2905,00
2320,75	2868,00
2325,37	2664,00
2329,98	2984,00
2334,59	2675,00
2339,19	2843,00
2343,79	2671,00
2348,38	2799,00
2352,97	2684,00
2357,55	2830,00
2362,13	2808,00
2366,71	2662,00
2371,28	2769,00
2375,85	2806,00
2380,41	2839,00
2384,97	2696,00
2389,52	2788,00
2394,07	2800,00
2398,62	2796,00
2403,16	2632,00
2407,70	2573,00
2412,23	2695,00
2416,76	2794,00
2421,29	2561,00
2425,81	2733,00
2430,32	2719,00
2434,84	2422,00
2439,34	2632,00
2443,85	2738,00
2448,35	2562,00
2452,84	2526,00
2457,33	2628,00
2461,82	2392,00
2466,30	2498,00
2470,78	2557,00
2475,25	2446,00
2479,72	2491,00
2484,19	2474,00
2488,65	2688,00
2493,11	2417,00
2497,56	2575,00
2502,01	2371,00
2506,46	2649,00
2510,90	2512,00
2515,34	2554,00
2519,77	2553,00
2524,20	2397,00
2528,62	2457,00
2533,04	2512,00
2537,46	2303,00
2541,87	2368,00
2546,28	2269,00
2550,68	2434,00
2555,08	2288,00
2559,48	2479,00
2563,87	2284,00
2568,26	2238,00
2572,64	2304,00
2577,02	2517,00
2581,40	2191,00
2585,77	2200,00
2590,14	2167,00
2594,50	2142,00
2598,86	2354,00
2603,22	2279,00
2607,57	2316,00
2611,92	2317,00
2616,26	2281,00
2620,60	2436,00
2624,94	2104,00
2629,27	2464,00
2633,60	2128,00
2637,92	2356,00
2642,24	2313,00
2646,56	2228,00
2650,87	2126,00
2655,18	2383,00
2659,48	2071,00
2663,78	2231,00
2668,08	2224,00
2672,37	2340,00
2676,66	2349,00
2680,95	2271,00
2685,23	2124,00
2689,50	2146,00
2693,78	2143,00
2698,05	2021,00
2702,31	2298,00
2706,57	2150,00
2710,83	2356,00
2715,08	2235,00
2719,33	2491,00
2723,58	2306,00
2727,82	2316,00
2732,06	2284,00
2736,29	2269,00
2740,53	2350,00
2744,75	2150,00
2748,97	2332,00
2753,19	2247,00
2757,41	2363,00
2761,62	2304,00
2765,83	2406,00
2770,03	1986,00
2774,23	2155,00
2778,43	2096,00
2782,62	2218,00
2786,81	2151,00
2791,00	2233,00
2795,18	2344,00
2799,35	2161,00
2803,53	2338,00
2807,70	2186,00
2811,86	2072,00
2816,03	2224,00
2820,19	2232,00
2824,34	2298,00
2828,49	2238,00
2832,64	2508,00
2836,78	2588,00
2840,92	2693,00
2845,06	2929,00
2849,19	2952,00
2853,32	3079,00
2857,45	3133,00
2861,57	3033,00
2865,69	3027,00
2869,80	2950,00
2873,91	2881,00
2878,02	3079,00
2882,12	3312,00
2886,22	3190,00
2890,32	3119,00
2894,41	2950,00
2898,50	2851,00
2902,58	2841,00
2906,67	2772,00
2910,74	2595,00
2914,82	2539,00
2918,89	2640,00
2922,96	2391,00
2927,02	2396,00
2931,08	2176,00
2935,13	2112,00
2939,19	2292,00
2943,24	2236,00
2947,28	2139,00
2951,32	2004,00
2955,36	1966,00
2959,40	2138,00
2963,43	2147,00
2967,46	1925,00
2971,48	1898,00
2975,50	1959,00
2979,52	1989,00
2983,53	1847,00
2987,54	1805,00
2991,55	1891,00
2995,55	1830,00
2999,55	1698,00
3003,54	1619,00
3007,54	1813,00
3011,53	1733,00
3015,51	1772,00
3019,49	1930,00
3023,47	1659,00
3027,45	1733,00
3031,42	1742,00
3035,39	1678,00
3039,35	1687,00
3043,31	1778,00
3047,27	1729,00
3051,22	1830,00
3055,17	1620,00
3059,12	1618,00
3063,06	1685,00
3067,00	1573,00
3070,94	1625,00
3074,87	1790,00
3078,80	1732,00
3082,73	1631,00
3086,65	1628,00
3090,57	1555,00
3094,49	1564,00
3098,40	1605,00
3102,31	1546,00
3106,22	1727,00
3110,12	1672,00
3114,02	1541,00
3117,92	1721,00
3121,81	1384,00
3125,70	1580,00
3129,58	1580,00
3133,47	1520,00
3137,34	1627,00
3141,22	1520,00
3145,09	1706,00
3148,96	1464,00
3152,83	1521,00
3156,69	1611,00
3160,55	1575,00
3164,40	1581,00
3168,26	1518,00
3172,10	1775,00
3175,95	1596,00
3179,79	1587,00
3183,63	1471,00
3187,47	1608,00
3191,30	1466,00
3195,13	1622,00
3198,95	1384,00
3202,78	1482,00
3206,60	1419,00
3210,41	1362,00
3214,23	1454,00
3218,03	1432,00
3221,84	1473,00
3225,64	1454,00
3229,44	1439,00
3233,24	1454,00
3237,03	1377,00
3240,82	1440,00
3244,61	1420,00
3248,39	1408,00
3252,17	1454,00
3255,95	1556,00
3259,72	1579,00
3263,49	1730,00
3267,26	1346,00
3271,03	1441,00
3274,79	1427,00
3278,54	1433,00
3282,30	1310,00
3286,05	1423,00
3289,80	1461,00
3293,54	1432,00
3297,29	1463,00
3301,02	1385,00
3304,76	1372,00
3308,49	1441,00
3312,22	1361,00
3315,95	1329,00
3319,67	1373,00
3323,39	1506,00
3327,10	1463,00
3330,82	1341,00
3334,53	1317,00
3338,24	1308,00
3341,94	1398,00
3345,64	1304,00
3349,34	1428,00
3353,03	1332,00
3356,72	1405,00
3360,41	1447,00
3364,10	1439,00
3367,78	1323,00
3371,46	1417,00
3375,13	1426,00
3378,81	1411,00
3382,48	1369,00
3386,14	1547,00
3389,81	1420,00
3393,47	1310,00
3397,12	1525,00
3400,78	1315,00
3404,43	1353,00
3408,08	1440,00
3411,72	1213,00
3415,36	1294,00
3419,00	1275,00
3422,64	1245,00
3426,27	1251,00
3429,90	1305,00
3433,53	1352,00
3437,15	1252,00
3440,77	1124,00
3444,39	1258,00
3448,00	1327,00
3451,62	1295,00
3455,22	1269,00
3458,83	1321,00
3462,43	1303,00
3466,03	1401,00
3469,63	1288,00
3473,22	1344,00
3476,81	1313,00
3480,40	1320,00
3483,99	1314,00
3487,57	1398,00
3491,15	1229,00
3494,72	1312,00
3498,29	1323,00
3501,86	1168,00
3505,43	1270,00
3508,99	1287,00
3512,56	1283,00
3516,11	1369,00
3519,67	1238,00
3523,22	1333,00
3526,77	1340,00
3530,32	1256,00
3533,86	1354,00
3537,40	1343,00
3540,94	1347,00
3544,47	1220,00
3548,00	1173,00
3551,53	1333,00
3555,06	1198,00
3558,58	1415,00
3562,10	1251,00
3565,62	1316,00
3569,13	1289,00
3572,64	1288,00
3576,15	1077,00
3579,66	1160,00
3583,16	1257,00
3586,66	1159,00
3590,16	1238,00
3593,65	1206,00
3597,14	1219,00
3600,63	1154,00
3604,11	1369,00
3607,60	1246,00
3611,08	1247,00
3614,55	1212,00
3618,03	1058,00
3621,50	1225,00
3624,97	1140,00
3628,43	1398,00
3631,90	1256,00
3635,36	1092,00
3638,81	1215,00
3642,27	1284,00
3645,72	1261,00
3649,17	1250,00
3652,61	1082,00
3656,06	1120,00
3659,50	1218,00
3662,93	1125,00
3666,37	1173,00
3669,80	1332,00
3673,23	1156,00
3676,65	1296,00
3680,08	1174,00
3683,50	1169,00
3686,92	1212,00
3690,33	1118,00
3693,74	1144,00
3697,15	954,00
3700,56	1171,00
3703,96	1186,00
3707,36	1116,00
3710,76	1061,00
3714,16	1136,00
3717,55	1058,00
3720,94	1179,00
3724,33	1106,00
3727,71	1199,00
3731,10	1070,00
3734,48	1018,00
3737,85	953,00
3741,23	1087,00
3744,60	1128,00
3747,97	984,00
3751,33	1091,00
3754,69	1079,00
3758,05	1066,00
3761,41	973,00
3764,77	1098,00
3768,12	919,00
3771,47	1012,00
3774,82	1128,00
3778,16	-16,00
3781,50	17,00
3784,84	4,00
3788,18	9,00
>>>>>End Processed Spectral Data<<<<<
