SpectraSuite Data File
++++++++++++++++++++++++++++++++++++
Date: Mon Mar 09 14:52:11 ICT 2026
User: Administrator
Dark Spectrum Present: Yes
Reference Spectrum Present: No
Number of Sampled Component Spectra: 1
Spectrometers: MAYP113682
Integration Time (usec): 3000000 (MAYP113682)
Spectra Averaged: 1 (MAYP113682)
Boxcar Smoothing: 0 (MAYP113682)
Correct for Electrical Dark: No (MAYP113682)
Strobe/Lamp Enabled: No (MAYP113682)
Correct for Detector Non-linearity: No (MAYP113682)
Correct for Stray Light: No (MAYP113682)
Number of Pixels in Processed Spectrum: 2068
>>>>>Begin Processed Spectral Data<<<<<
-37534,58	42,00
-37414,56	3,00
-37295,11	8,00
-37176,24	6,00
-37057,95	904,00
-36940,22	868,00
-36823,05	972,00
-36706,45	1062,00
-36590,40	857,00
-36474,90	986,00
-36359,95	1035,00
-36245,55	1044,00
-36131,68	1088,00
-36018,35	1055,00
-35905,55	1010,00
-35793,29	1060,00
-35681,54	1014,00
-35570,32	986,00
-35459,62	980,00
-35349,43	1171,00
-35239,75	1045,00
-35130,58	970,00
-35021,91	1083,00
-34913,74	998,00
-34806,07	1038,00
-34698,89	1187,00
-34592,20	1021,00
-34486,00	1209,00
-34380,28	990,00
-34275,04	1038,00
-34170,27	1012,00
-34065,98	1096,00
-33962,16	1042,00
-33858,81	1007,00
-33755,92	1114,00
-33653,49	1206,00
-33551,52	1138,00
-33450,01	1084,00
-33348,94	1002,00
-33248,33	1120,00
-33148,16	1039,00
-33048,43	1177,00
-32949,14	1320,00
-32850,29	1159,00
-32751,87	1101,00
-32653,89	1219,00
-32556,33	1293,00
-32459,20	1204,00
-32362,49	1115,00
-32266,19	1029,00
-32170,32	1140,00
-32074,86	1111,00
-31979,82	1214,00
-31885,18	1364,00
-31790,95	1229,00
-31697,12	1156,00
-31603,69	1295,00
-31510,67	1221,00
-31418,04	1138,00
-31325,80	1117,00
-31233,95	1178,00
-31142,49	1208,00
-31051,42	1138,00
-30960,73	1241,00
-30870,43	1274,00
-30780,50	1130,00
-30690,95	1218,00
-30601,77	1351,00
-30512,97	1185,00
-30424,53	1215,00
-30336,46	1130,00
-30248,76	1177,00
-30161,42	1235,00
-30074,44	1128,00
-29987,81	1204,00
-29901,55	1293,00
-29815,63	1152,00
-29730,07	1165,00
-29644,86	1277,00
-29560,00	1208,00
-29475,48	1116,00
-29391,30	1171,00
-29307,47	1008,00
-29223,97	1203,00
-29140,81	1156,00
-29057,99	1237,00
-28975,50	1117,00
-28893,34	1287,00
-28811,51	1028,00
-28730,00	1141,00
-28648,82	1139,00
-28567,97	1198,00
-28487,43	1159,00
-28407,21	1058,00
-28327,32	1090,00
-28247,73	1318,00
-28168,46	1086,00
-28089,50	1189,00
-28010,85	1080,00
-27932,51	990,00
-27854,48	1243,00
-27776,75	1071,00
-27699,32	1119,00
-27622,19	1196,00
-27545,37	1165,00
-27468,84	1183,00
-27392,60	1233,00
-27316,66	1098,00
-27241,01	1143,00
-27165,66	1206,00
-27090,59	1134,00
-27015,81	1253,00
-26941,31	1285,00
-26867,10	1192,00
-26793,17	1164,00
-26719,52	1249,00
-26646,15	1103,00
-26573,06	1177,00
-26500,24	1239,00
-26427,70	1058,00
-26355,43	1210,00
-26283,43	1188,00
-26211,71	1286,00
-26140,25	1155,00
-26069,06	1489,00
-25998,13	1000,00
-25927,46	1185,00
-25857,06	1179,00
-25786,92	1095,00
-25717,04	1056,00
-25647,42	1222,00
-25578,05	1082,00
-25508,94	1225,00
-25440,09	1163,00
-25371,48	1119,00
-25303,13	1069,00
-25235,02	1184,00
-25167,17	1339,00
-25099,56	1269,00
-25032,19	1149,00
-24965,07	1125,00
-24898,20	1066,00
-24831,56	1208,00
-24765,17	1203,00
-24699,01	1096,00
-24633,10	1156,00
-24567,41	1066,00
-24501,97	1158,00
-24436,75	1160,00
-24371,77	1193,00
-24307,03	1104,00
-24242,51	1057,00
-24178,22	1235,00
-24114,16	1180,00
-24050,32	1173,00
-23986,71	1122,00
-23923,32	1120,00
-23860,16	1045,00
-23797,22	1095,00
-23734,50	1157,00
-23672,00	1095,00
-23609,71	1142,00
-23547,65	966,00
-23485,80	1153,00
-23424,16	1136,00
-23362,74	1231,00
-23301,53	1142,00
-23240,54	1041,00
-23179,75	1154,00
-23119,17	1136,00
-23058,80	1091,00
-22998,64	1147,00
-22938,68	1062,00
-22878,93	1147,00
-22819,39	1136,00
-22760,04	1158,00
-22700,90	1108,00
-22641,96	1125,00
-22583,22	1144,00
-22524,68	1145,00
-22466,33	1029,00
-22408,19	1115,00
-22350,23	1163,00
-22292,48	1181,00
-22234,92	1243,00
-22177,55	1212,00
-22120,37	1326,00
-22063,38	1080,00
-22006,58	1124,00
-21949,98	1145,00
-21893,56	855,00
-21837,33	1102,00
-21781,28	1216,00
-21725,42	1060,00
-21669,74	1099,00
-21614,25	1117,00
-21558,94	1084,00
-21503,81	1103,00
-21448,86	1237,00
-21394,10	1129,00
-21339,51	1040,00
-21285,10	974,00
-21230,86	1042,00
-21176,81	1076,00
-21122,93	992,00
-21069,22	1110,00
-21015,69	1123,00
-20962,33	1221,00
-20909,14	1027,00
-20856,13	1117,00
-20803,28	1109,00
-20750,61	1005,00
-20698,10	1019,00
-20645,76	1129,00
-20593,59	1305,00
-20541,59	1232,00
-20489,75	1236,00
-20438,07	1065,00
-20386,56	1253,00
-20335,22	1087,00
-20284,03	1045,00
-20233,01	1026,00
-20182,15	1092,00
-20131,45	1093,00
-20080,91	1055,00
-20030,52	1126,00
-19980,30	1012,00
-19930,23	1065,00
-19880,32	1240,00
-19830,56	1278,00
-19780,96	986,00
-19731,52	1091,00
-19682,23	1105,00
-19633,09	1136,00
-19584,10	1039,00
-19535,26	1136,00
-19486,58	1179,00
-19438,04	1175,00
-19389,66	1102,00
-19341,42	1111,00
-19293,33	1115,00
-19245,39	1083,00
-19197,60	1138,00
-19149,95	1121,00
-19102,45	1134,00
-19055,09	1092,00
-19007,87	1323,00
-18960,80	1205,00
-18913,87	1283,00
-18867,09	1135,00
-18820,44	1235,00
-18773,94	1108,00
-18727,57	1048,00
-18681,35	1014,00
-18635,26	1135,00
-18589,31	964,00
-18543,50	1060,00
-18497,83	1127,00
-18452,29	1112,00
-18406,89	1112,00
-18361,63	1193,00
-18316,50	1196,00
-18271,50	1146,00
-18226,63	1133,00
-18181,90	1114,00
-18137,30	1224,00
-18092,84	1000,00
-18048,50	1143,00
-18004,29	1018,00
-17960,22	1095,00
-17916,27	1054,00
-17872,45	1185,00
-17828,76	1184,00
-17785,20	1178,00
-17741,77	1074,00
-17698,46	1129,00
-17655,28	966,00
-17612,22	1160,00
-17569,29	1042,00
-17526,48	1138,00
-17483,79	1120,00
-17441,23	1123,00
-17398,79	954,00
-17356,48	1175,00
-17314,28	1328,00
-17272,21	1084,00
-17230,26	987,00
-17188,42	1077,00
-17146,71	1085,00
-17105,12	1151,00
-17063,64	1190,00
-17022,28	1055,00
-16981,04	1079,00
-16939,92	1112,00
-16898,91	1257,00
-16858,02	1062,00
-16817,25	1044,00
-16776,59	1027,00
-16736,04	1069,00
-16695,61	1036,00
-16655,29	1050,00
-16615,09	1173,00
-16574,99	1111,00
-16535,01	1073,00
-16495,15	1181,00
-16455,39	1145,00
-16415,74	1096,00
-16376,21	1045,00
-16336,78	951,00
-16297,46	1105,00
-16258,26	1155,00
-16219,16	1086,00
-16180,17	1025,00
-16141,28	1243,00
-16102,51	1208,00
-16063,84	1053,00
-16025,27	1081,00
-15986,82	1033,00
-15948,46	1020,00
-15910,22	1138,00
-15872,07	1108,00
-15834,04	1046,00
-15796,10	1144,00
-15758,27	1294,00
-15720,54	1099,00
-15682,91	1088,00
-15645,39	1141,00
-15607,97	1082,00
-15570,64	1038,00
-15533,42	1144,00
-15496,30	1177,00
-15459,28	1059,00
-15422,36	1039,00
-15385,54	1148,00
-15348,82	1012,00
-15312,19	1226,00
-15275,66	1092,00
-15239,23	993,00
-15202,90	1039,00
-15166,67	975,00
-15130,53	1167,00
-15094,48	1174,00
-15058,54	1133,00
-15022,68	1097,00
-14986,93	1134,00
-14951,26	1203,00
-14915,69	1041,00
-14880,22	1027,00
-14844,84	1043,00
-14809,55	1180,00
-14774,35	1124,00
-14739,25	1252,00
-14704,24	1161,00
-14669,32	1088,00
-14634,49	1132,00
-14599,75	1076,00
-14565,10	989,00
-14530,55	1248,00
-14496,08	1197,00
-14461,70	1114,00
-14427,41	959,00
-14393,21	1000,00
-14359,10	1052,00
-14325,07	1120,00
-14291,14	1150,00
-14257,29	1128,00
-14223,52	1088,00
-14189,85	1259,00
-14156,26	1092,00
-14122,76	1084,00
-14089,34	1054,00
-14056,01	1116,00
-14022,76	1180,00
-13989,60	1196,00
-13956,52	1079,00
-13923,53	1078,00
-13890,62	1130,00
-13857,79	1033,00
-13825,05	1076,00
-13792,39	990,00
-13759,81	1133,00
-13727,31	1009,00
-13694,90	1062,00
-13662,57	1200,00
-13630,31	1068,00
-13598,14	1108,00
-13566,05	1023,00
-13534,05	1156,00
-13502,12	1026,00
-13470,27	1085,00
-13438,50	1160,00
-13406,80	1074,00
-13375,19	988,00
-13343,66	1214,00
-13312,20	1149,00
-13280,83	1037,00
-13249,53	1054,00
-13218,30	977,00
-13187,16	1038,00
-13156,09	1202,00
-13125,10	1180,00
-13094,18	1081,00
-13063,34	1245,00
-13032,58	982,00
-13001,89	1123,00
-12971,28	1141,00
-12940,74	1116,00
-12910,27	1088,00
-12879,88	1006,00
-12849,57	1131,00
-12819,33	1122,00
-12789,16	1124,00
-12759,06	1028,00
-12729,04	1224,00
-12699,09	2419,00
-12669,21	1036,00
-12639,41	1120,00
-12609,68	1113,00
-12580,02	1062,00
-12550,43	1187,00
-12520,91	889,00
-12491,46	1092,00
-12462,08	1060,00
-12432,77	1071,00
-12403,54	1093,00
-12374,37	1146,00
-12345,27	1112,00
-12316,24	1102,00
-12287,29	1247,00
-12258,40	1089,00
-12229,57	1172,00
-12200,82	1128,00
-12172,14	1028,00
-12143,52	1096,00
-12114,97	1012,00
-12086,49	1071,00
-12058,07	1150,00
-12029,73	1037,00
-12001,44	1233,00
-11973,23	1088,00
-11945,08	1103,00
-11917,00	1150,00
-11888,98	1077,00
-11861,03	1091,00
-11833,15	1038,00
-11805,32	1118,00
-11777,57	1076,00
-11749,88	1052,00
-11722,25	1022,00
-11694,69	1126,00
-11667,19	1092,00
-11639,75	1121,00
-11612,38	1148,00
-11585,07	1079,00
-11557,83	1144,00
-11530,65	1240,00
-11503,53	1179,00
-11476,47	1183,00
-11449,48	1130,00
-11422,54	1169,00
-11395,67	1035,00
-11368,86	1066,00
-11342,11	1046,00
-11315,43	1209,00
-11288,80	1047,00
-11262,23	1219,00
-11235,73	1011,00
-11209,28	1157,00
-11182,90	1238,00
-11156,57	1136,00
-11130,31	1186,00
-11104,10	1141,00
-11077,96	1157,00
-11051,87	1185,00
-11025,84	1180,00
-10999,87	1079,00
-10973,96	1175,00
-10948,11	1067,00
-10922,31	1055,00
-10896,58	1255,00
-10870,90	1402,00
-10845,28	1139,00
-10819,71	1056,00
-10794,20	1151,00
-10768,75	1242,00
-10743,36	1104,00
-10718,02	1080,00
-10692,74	1148,00
-10667,52	1038,00
-10642,35	1167,00
-10617,24	1191,00
-10592,18	1143,00
-10567,18	1053,00
-10542,23	1171,00
-10517,34	1239,00
-10492,51	1163,00
-10467,72	1146,00
-10443,00	1051,00
-10418,32	1221,00
-10393,70	1075,00
-10369,14	1073,00
-10344,63	1147,00
-10320,17	1201,00
-10295,77	1145,00
-10271,42	1164,00
-10247,12	1103,00
-10222,88	1292,00
-10198,68	1082,00
-10174,54	1191,00
-10150,46	1278,00
-10126,42	1308,00
-10102,44	1299,00
-10078,51	1150,00
-10054,63	1249,00
-10030,80	1175,00
-10007,03	1390,00
-9983,30	1196,00
-9959,63	1114,00
-9936,01	1232,00
-9912,44	1252,00
-9888,92	1171,00
-9865,44	1245,00
-9842,02	1304,00
-9818,65	1342,00
-9795,33	1172,00
-9772,06	1229,00
-9748,84	1204,00
-9725,67	1338,00
-9702,55	1236,00
-9679,47	1531,00
-9656,45	1410,00
-9633,47	1212,00
-9610,55	1430,00
-9587,67	1489,00
-9564,84	1768,00
-9542,06	1471,00
-9519,32	1604,00
-9496,64	1639,00
-9474,00	1556,00
-9451,41	1662,00
-9428,87	1767,00
-9406,37	1731,00
-9383,92	1728,00
-9361,52	1680,00
-9339,17	1796,00
-9316,86	1692,00
-9294,60	1774,00
-9272,38	2081,00
-9250,21	2048,00
-9228,09	1936,00
-9206,01	1970,00
-9183,98	1858,00
-9162,00	1754,00
-9140,06	1794,00
-9118,16	1840,00
-9096,31	1941,00
-9074,51	1878,00
-9052,75	2128,00
-9031,04	1986,00
-9009,37	1858,00
-8987,74	1870,00
-8966,16	1838,00
-8944,63	1684,00
-8923,14	1573,00
-8901,69	1667,00
-8880,29	1618,00
-8858,93	1718,00
-8837,61	1866,00
-8816,34	1838,00
-8795,11	1851,00
-8773,92	1817,00
-8752,78	1715,00
-8731,68	1589,00
-8710,62	1747,00
-8689,61	1570,00
-8668,63	1602,00
-8647,70	1819,00
-8626,82	1724,00
-8605,97	1844,00
-8585,17	1694,00
-8564,41	1522,00
-8543,69	1691,00
-8523,01	1467,00
-8502,37	1846,00
-8481,78	1604,00
-8461,23	1407,00
-8440,71	1616,00
-8420,24	1645,00
-8399,81	1782,00
-8379,42	1813,00
-8359,08	1742,00
-8338,77	1659,00
-8318,50	1717,00
-8298,27	1506,00
-8278,09	1562,00
-8257,94	1480,00
-8237,83	1640,00
-8217,76	1698,00
-8197,74	1609,00
-8177,75	1719,00
-8157,80	1649,00
-8137,89	1543,00
-8118,02	1579,00
-8098,19	1622,00
-8078,40	1558,00
-8058,65	1524,00
-8038,93	1737,00
-8019,26	1500,00
-7999,62	1603,00
-7980,02	1496,00
-7960,46	1509,00
-7940,94	1384,00
-7921,46	1503,00
-7902,01	1285,00
-7882,60	1637,00
-7863,23	1406,00
-7843,90	1467,00
-7824,61	1456,00
-7805,35	1648,00
-7786,13	1576,00
-7766,95	1557,00
-7747,80	1548,00
-7728,69	1618,00
-7709,62	1457,00
-7690,59	1551,00
-7671,59	1625,00
-7652,63	1401,00
-7633,70	1496,00
-7614,81	1596,00
-7595,96	1424,00
-7577,15	1449,00
-7558,37	1406,00
-7539,62	1567,00
-7520,91	1450,00
-7502,24	1591,00
-7483,60	1550,00
-7465,00	1524,00
-7446,44	1497,00
-7427,91	1334,00
-7409,41	1523,00
-7390,95	1467,00
-7372,53	1305,00
-7354,14	1364,00
-7335,78	1286,00
-7317,46	1490,00
-7299,18	1411,00
-7280,92	1504,00
-7262,71	1678,00
-7244,52	1491,00
-7226,38	1449,00
-7208,26	1570,00
-7190,18	1443,00
-7172,14	1476,00
-7154,12	1472,00
-7136,15	1358,00
-7118,20	1473,00
-7100,29	1567,00
-7082,41	1541,00
-7064,57	1462,00
-7046,76	1427,00
-7028,98	1330,00
-7011,24	1590,00
-6993,53	1151,00
-6975,85	1337,00
-6958,20	1334,00
-6940,59	1261,00
-6923,01	1166,00
-6905,46	1485,00
-6887,94	1376,00
-6870,46	1773,00
-6853,01	1533,00
-6835,59	1436,00
-6818,21	1304,00
-6800,85	1533,00
-6783,53	1353,00
-6766,24	1324,00
-6748,98	1264,00
-6731,76	1213,00
-6714,56	1257,00
-6697,40	1134,00
-6680,26	1158,00
-6663,16	1242,00
-6646,09	1419,00
-6629,05	1322,00
-6612,05	1420,00
-6595,07	1292,00
-6578,13	1476,00
-6561,21	1187,00
-6544,33	1248,00
-6527,47	1233,00
-6510,65	1234,00
-6493,86	1300,00
-6477,10	1255,00
-6460,36	1363,00
-6443,66	1163,00
-6426,99	1248,00
-6410,35	1140,00
-6393,74	1315,00
-6377,16	1219,00
-6360,61	1239,00
-6344,09	1140,00
-6327,59	1137,00
-6311,13	1100,00
-6294,70	1375,00
-6278,29	1347,00
-6261,92	1233,00
-6245,58	1326,00
-6229,26	1401,00
-6212,97	1380,00
-6196,72	1289,00
-6180,49	1367,00
-6164,29	1127,00
-6148,12	1329,00
-6131,98	1225,00
-6115,86	1221,00
-6099,78	1073,00
-6083,72	1118,00
-6067,69	1189,00
-6051,69	1312,00
-6035,72	1211,00
-6019,78	1140,00
-6003,87	1338,00
-5987,98	1288,00
-5972,12	1221,00
-5956,29	1292,00
-5940,49	1128,00
-5924,71	1369,00
-5908,96	1129,00
-5893,24	1166,00
-5877,55	1210,00
-5861,89	1287,00
-5846,25	1175,00
-5830,64	1225,00
-5815,05	1136,00
-5799,50	1180,00
-5783,97	1157,00
-5768,47	1388,00
-5752,99	1443,00
-5737,55	1269,00
-5722,12	1236,00
-5706,73	1214,00
-5691,36	1359,00
-5676,02	1136,00
-5660,71	1363,00
-5645,42	1096,00
-5630,16	1246,00
-5614,92	1252,00
-5599,71	1105,00
-5584,53	1303,00
-5569,37	1155,00
-5554,24	2172,00
-5539,14	1177,00
-5524,06	1218,00
-5509,01	1134,00
-5493,98	1246,00
-5478,98	1380,00
-5464,00	1196,00
-5449,05	1049,00
-5434,13	1216,00
-5419,23	1205,00
-5404,36	1095,00
-5389,51	1287,00
-5374,69	1210,00
-5359,89	1270,00
-5345,12	1310,00
-5330,37	1364,00
-5315,65	1375,00
-5300,95	1232,00
-5286,28	1076,00
-5271,63	1033,00
-5257,01	1340,00
-5242,41	1288,00
-5227,84	1183,00
-5213,29	1285,00
-5198,76	1259,00
-5184,26	1112,00
-5169,79	1285,00
-5155,33	1249,00
-5140,91	1245,00
-5126,51	1239,00
-5112,13	1309,00
-5097,77	1392,00
-5083,44	1233,00
-5069,13	1163,00
-5054,85	1202,00
-5040,59	1146,00
-5026,36	1340,00
-5012,15	1399,00
-4997,96	1298,00
-4983,80	1220,00
-4969,66	1254,00
-4955,54	1134,00
-4941,44	1100,00
-4927,37	1258,00
-4913,33	1328,00
-4899,30	1065,00
-4885,30	1202,00
-4871,33	1167,00
-4857,37	1234,00
-4843,44	1236,00
-4829,53	1260,00
-4815,65	1245,00
-4801,79	1066,00
-4787,95	1174,00
-4774,13	1127,00
-4760,34	1209,00
-4746,56	1243,00
-4732,82	1123,00
-4719,09	1174,00
-4705,38	1287,00
-4691,70	1267,00
-4678,04	1219,00
-4664,41	1155,00
-4650,79	1385,00
-4637,20	1156,00
-4623,63	1121,00
-4610,08	1231,00
-4596,56	1252,00
-4583,05	1157,00
-4569,57	1157,00
-4556,11	1282,00
-4542,67	995,00
-4529,25	1077,00
-4515,86	1191,00
-4502,49	1278,00
-4489,13	1240,00
-4475,80	1261,00
-4462,49	1038,00
-4449,21	1443,00
-4435,94	1030,00
-4422,70	1185,00
-4409,47	1081,00
-4396,27	1111,00
-4383,09	1180,00
-4369,93	1116,00
-4356,79	1084,00
-4343,67	1176,00
-4330,58	1166,00
-4317,50	1097,00
-4304,45	1132,00
-4291,41	1106,00
-4278,40	1129,00
-4265,41	1112,00
-4252,44	1160,00
-4239,49	1022,00
-4226,55	1247,00
-4213,65	1266,00
-4200,76	1268,00
-4187,89	1037,00
-4175,04	1167,00
-4162,21	1252,00
-4149,40	1173,00
-4136,61	1109,00
-4123,85	1115,00
-4111,10	1085,00
-4098,37	1205,00
-4085,66	1191,00
-4072,98	1138,00
-4060,31	1049,00
-4047,66	1258,00
-4035,04	1286,00
-4022,43	1073,00
-4009,84	1296,00
-3997,27	1014,00
-3984,72	1125,00
-3972,19	1176,00
-3959,69	1107,00
-3947,20	1142,00
-3934,73	1154,00
-3922,27	1081,00
-3909,84	1127,00
-3897,43	1133,00
-3885,04	1141,00
-3872,67	1100,00
-3860,31	1131,00
-3847,98	1202,00
-3835,66	1041,00
-3823,36	1199,00
-3811,09	990,00
-3798,83	1115,00
-3786,59	1225,00
-3774,37	1290,00
-3762,17	1090,00
-3749,98	1048,00
-3737,82	1033,00
-3725,67	1358,00
-3713,55	1063,00
-3701,44	1193,00
-3689,35	1163,00
-3677,28	1168,00
-3665,22	1080,00
-3653,19	1020,00
-3641,17	1068,00
-3629,18	1085,00
-3617,20	1143,00
-3605,24	1153,00
-3593,30	1184,00
-3581,37	1047,00
-3569,47	1239,00
-3557,58	1241,00
-3545,71	1217,00
-3533,86	1148,00
-3522,02	1178,00
-3510,21	1125,00
-3498,41	1159,00
-3486,63	1060,00
-3474,87	1133,00
-3463,12	1054,00
-3451,40	1062,00
-3439,69	1286,00
-3428,00	1193,00
-3416,33	1183,00
-3404,67	1048,00
-3393,03	1189,00
-3381,41	1284,00
-3369,81	1176,00
-3358,22	1115,00
-3346,66	1218,00
-3335,10	1140,00
-3323,57	1088,00
-3312,06	1174,00
-3300,56	1193,00
-3289,08	956,00
-3277,61	1093,00
-3266,16	1240,00
-3254,73	1203,00
-3243,32	1184,00
-3231,92	1112,00
-3220,55	1125,00
-3209,18	1178,00
-3197,84	1066,00
-3186,51	1036,00
-3175,20	1050,00
-3163,90	1072,00
-3152,63	1088,00
-3141,36	1148,00
-3130,12	1229,00
-3118,89	1192,00
-3107,68	1208,00
-3096,49	1217,00
-3085,31	1216,00
-3074,15	1090,00
-3063,00	1117,00
-3051,87	1240,00
-3040,76	1206,00
-3029,67	1156,00
-3018,59	1476,00
-3007,52	1149,00
-2996,48	1253,00
-2985,44	992,00
-2974,43	1173,00
-2963,43	1058,00
-2952,45	935,00
-2941,48	1099,00
-2930,53	1184,00
-2919,60	1084,00
-2908,68	1074,00
-2897,78	1140,00
-2886,89	1208,00
-2876,02	1069,00
-2865,17	1112,00
-2854,33	1139,00
-2843,50	1017,00
-2832,70	1135,00
-2821,90	1173,00
-2811,13	1179,00
-2800,37	1103,00
-2789,62	1173,00
-2778,89	1149,00
-2768,18	1339,00
-2757,48	1187,00
-2746,80	1346,00
-2736,13	1192,00
-2725,48	1189,00
-2714,84	1225,00
-2704,22	1104,00
-2693,61	1155,00
-2683,02	1150,00
-2672,45	1070,00
-2661,89	1220,00
-2651,34	1190,00
-2640,81	1099,00
-2630,30	1245,00
-2619,80	1126,00
-2609,31	1315,00
-2598,84	1004,00
-2588,39	1106,00
-2577,95	1082,00
-2567,52	987,00
-2557,11	1134,00
-2546,71	1195,00
-2536,33	1270,00
-2525,97	1093,00
-2515,62	1010,00
-2505,28	1144,00
-2494,96	1083,00
-2484,65	1091,00
-2474,36	1408,00
-2464,08	1134,00
-2453,82	1227,00
-2443,57	1258,00
-2433,33	1066,00
-2423,11	1132,00
-2412,91	1074,00
-2402,72	1083,00
-2392,54	1107,00
-2382,38	1099,00
-2372,23	1250,00
-2362,09	5721,00
-2351,97	1028,00
-2341,87	1027,00
-2331,78	1135,00
-2321,70	1176,00
-2311,64	1143,00
-2301,59	1038,00
-2291,55	1105,00
-2281,53	1107,00
-2271,53	1049,00
-2261,53	1232,00
-2251,55	1133,00
-2241,59	1104,00
-2231,64	1168,00
-2221,70	1016,00
-2211,78	1186,00
-2201,87	1133,00
-2191,97	1178,00
-2182,09	1120,00
-2172,22	1249,00
-2162,37	1064,00
-2152,53	1050,00
-2142,70	1028,00
-2132,89	1022,00
-2123,09	1213,00
-2113,30	1166,00
-2103,53	1127,00
-2093,77	1104,00
-2084,02	1043,00
-2074,29	1248,00
-2064,57	1171,00
-2054,86	1211,00
-2045,17	1182,00
-2035,49	1307,00
-2025,82	1049,00
-2016,17	1083,00
-2006,53	1253,00
-1996,91	1117,00
-1987,29	1028,00
-1977,69	1196,00
-1968,11	1119,00
-1958,53	1032,00
-1948,97	1207,00
-1939,42	1043,00
-1929,89	1062,00
-1920,37	1181,00
-1910,86	1198,00
-1901,36	1192,00
-1891,88	1139,00
-1882,41	1098,00
-1872,95	1165,00
-1863,51	1121,00
-1854,08	1213,00
-1844,66	1171,00
-1835,26	1036,00
-1825,86	1144,00
-1816,48	1108,00
-1807,11	1107,00
-1797,76	1287,00
-1788,42	1140,00
-1779,09	1204,00
-1769,77	1207,00
-1760,47	1347,00
-1751,17	1126,00
-1741,89	1150,00
-1732,63	1232,00
-1723,37	1428,00
-1714,13	1326,00
-1704,90	1063,00
-1695,68	1338,00
-1686,48	1050,00
-1677,29	1141,00
-1668,11	1441,00
-1658,94	1208,00
-1649,78	1195,00
-1640,64	1100,00
-1631,51	1211,00
-1622,39	1212,00
-1613,28	1171,00
-1604,19	1344,00
-1595,10	1099,00
-1586,03	1053,00
-1576,97	1211,00
-1567,93	1146,00
-1558,89	1268,00
-1549,87	1193,00
-1540,86	1015,00
-1531,86	1157,00
-1522,87	1109,00
-1513,90	1254,00
-1504,93	1243,00
-1495,98	1257,00
-1487,04	1354,00
-1478,12	1189,00
-1469,20	1115,00
-1460,30	1295,00
-1451,40	1370,00
-1442,52	1148,00
-1433,65	1206,00
-1424,80	1147,00
-1415,95	1172,00
-1407,12	1351,00
-1398,30	1190,00
-1389,48	1105,00
-1380,69	1214,00
-1371,90	1086,00
-1363,12	1218,00
-1354,36	1331,00
-1345,60	1070,00
-1336,86	1217,00
-1328,13	1418,00
-1319,41	1137,00
-1310,70	1094,00
-1302,01	1185,00
-1293,32	1031,00
-1284,65	1149,00
-1275,99	1118,00
-1267,33	1280,00
-1258,69	1177,00
-1250,06	1135,00
-1241,45	1138,00
-1232,84	1252,00
-1224,25	1233,00
-1215,66	1245,00
-1207,09	1248,00
-1198,53	1089,00
-1189,97	1064,00
-1181,43	1112,00
-1172,91	1116,00
-1164,39	1247,00
-1155,88	1078,00
-1147,38	966,00
-1138,90	1123,00
-1130,43	1137,00
-1121,96	1208,00
-1113,51	1217,00
-1105,07	1179,00
-1096,64	1183,00
-1088,22	1157,00
-1079,81	1171,00
-1071,41	1206,00
-1063,02	1082,00
-1054,65	1231,00
-1046,28	1136,00
-1037,92	1202,00
-1029,58	1160,00
-1021,24	1160,00
-1012,92	1614,00
-1004,61	1152,00
-996,30	1505,00
-988,01	989,00
-979,73	1174,00
-971,46	1206,00
-963,20	1082,00
-954,95	1028,00
-946,71	1084,00
-938,48	1054,00
-930,26	1155,00
-922,06	1196,00
-913,86	1173,00
-905,67	1040,00
-897,49	1179,00
-889,33	1081,00
-881,17	1251,00
-873,02	1237,00
-864,89	978,00
-856,76	1146,00
-848,65	1083,00
-840,54	1245,00
-832,45	1272,00
-824,36	1022,00
-816,29	1202,00
-808,22	1233,00
-800,17	1174,00
-792,12	1206,00
-784,09	1228,00
-776,06	1054,00
-768,05	1171,00
-760,04	1077,00
-752,05	1124,00
-744,07	1280,00
-736,09	1278,00
-728,13	1024,00
-720,17	1108,00
-712,23	1039,00
-704,29	1185,00
-696,37	1154,00
-688,45	1036,00
-680,55	1066,00
-672,65	1179,00
-664,77	1052,00
-656,89	1142,00
-649,03	1066,00
-641,17	1166,00
-633,32	1267,00
-625,49	1088,00
-617,66	1165,00
-609,84	1124,00
-602,03	959,00
-594,23	1061,00
-586,45	1125,00
-578,67	1116,00
-570,90	1062,00
-563,14	1117,00
-555,39	1186,00
-547,65	1196,00
-539,91	1208,00
-532,19	1080,00
-524,48	1238,00
-516,78	1142,00
-509,08	1165,00
-501,40	1063,00
-493,72	1068,00
-486,06	1102,00
-478,40	1341,00
-470,76	1133,00
-463,12	1081,00
-455,49	982,00
-447,87	1143,00
-440,26	1025,00
-432,66	1023,00
-425,07	1166,00
-417,49	1122,00
-409,92	1028,00
-402,35	983,00
-394,80	1119,00
-387,25	1226,00
-379,72	1185,00
-372,19	1114,00
-364,67	1222,00
-357,17	1160,00
-349,67	1103,00
-342,18	1090,00
-334,69	1227,00
-327,22	1185,00
-319,76	1131,00
-312,30	1202,00
-304,86	1171,00
-297,42	1195,00
-290,00	1098,00
-282,58	1127,00
-275,17	1208,00
-267,77	1233,00
-260,37	1095,00
-252,99	1187,00
-245,62	1190,00
-238,25	1056,00
-230,90	1129,00
-223,55	1324,00
-216,21	1238,00
-208,88	1267,00
-201,56	1187,00
-194,25	1175,00
-186,94	1154,00
-179,65	1248,00
-172,36	1325,00
-165,08	1192,00
-157,81	1462,00
-150,55	1358,00
-143,30	1407,00
-136,06	1431,00
-128,82	1306,00
-121,60	1336,00
-114,38	1373,00
-107,17	1435,00
-99,97	1548,00
-92,78	1555,00
-85,60	1624,00
-78,42	1688,00
-71,25	1876,00
-64,10	1904,00
-56,95	1974,00
-49,81	2101,00
-42,67	2594,00
-35,55	2712,00
-28,43	3428,00
-21,33	4852,00
-14,23	13605,00
-7,14	57775,00
-0,05	57564,00
7,02	57281,00
14,09	44383,00
21,14	12211,00
28,19	5621,00
35,23	4068,00
42,27	3407,00
49,29	2857,00
56,31	2675,00
63,32	2488,00
70,32	2098,00
77,31	1919,00
84,29	1757,00
91,27	1883,00
98,23	1806,00
105,19	1747,00
112,14	1831,00
119,09	2238,00
126,02	2871,00
132,95	3087,00
139,87	3277,00
146,78	3430,00
153,68	3169,00
160,58	3144,00
167,46	2994,00
174,34	3223,00
181,21	3288,00
188,08	3165,00
194,93	3264,00
201,78	3136,00
208,62	3180,00
215,45	3205,00
222,27	3267,00
229,09	3409,00
235,90	3066,00
242,70	3254,00
249,49	3380,00
256,27	3065,00
263,05	3284,00
269,82	3015,00
276,58	3252,00
283,33	3104,00
290,08	3157,00
296,82	3119,00
303,55	2993,00
310,27	2995,00
316,98	3153,00
323,69	3057,00
330,39	3047,00
337,08	3115,00
343,76	3128,00
350,44	3050,00
357,11	3160,00
363,77	2974,00
370,42	2924,00
377,07	3174,00
383,71	3062,00
390,34	3051,00
396,96	2920,00
403,58	2950,00
410,19	3148,00
416,79	3234,00
423,38	3093,00
429,97	3116,00
436,55	3006,00
443,12	3036,00
449,68	2924,00
456,24	3054,00
462,79	3062,00
469,33	2931,00
475,86	3002,00
482,39	2987,00
488,91	3072,00
495,42	2972,00
501,93	3025,00
508,42	2884,00
514,91	3101,00
521,40	2893,00
527,87	3079,00
534,34	2804,00
540,80	3104,00
547,25	3034,00
553,70	3011,00
560,14	2999,00
566,57	3033,00
573,00	2975,00
579,41	2969,00
585,83	2975,00
592,23	3039,00
598,62	2967,00
605,01	2784,00
611,40	3036,00
617,77	3135,00
624,14	2960,00
630,50	2970,00
636,85	3036,00
643,20	2984,00
649,54	2824,00
655,87	2897,00
662,20	3065,00
668,52	2965,00
674,83	3001,00
681,13	2957,00
687,43	3022,00
693,72	2860,00
700,00	2826,00
706,28	2917,00
712,55	2995,00
718,81	3091,00
725,07	2968,00
731,32	2894,00
737,56	3061,00
743,79	2943,00
750,02	2959,00
756,24	2914,00
762,46	3055,00
768,67	3254,00
774,87	3035,00
781,06	2917,00
787,25	3073,00
793,43	3022,00
799,60	2885,00
805,77	3118,00
811,93	2867,00
818,08	3007,00
824,23	2976,00
830,37	3194,00
836,50	3008,00
842,63	3017,00
848,75	2923,00
854,87	3064,00
860,97	2951,00
867,07	2995,00
873,17	3083,00
879,25	3019,00
885,33	3035,00
891,41	3039,00
897,47	3025,00
903,53	3008,00
909,59	3065,00
915,63	3029,00
921,67	3022,00
927,71	3093,00
933,74	3153,00
939,76	2884,00
945,77	2904,00
951,78	3092,00
957,78	2979,00
963,78	3160,00
969,77	3009,00
975,75	3149,00
981,72	2964,00
987,69	4634,00
993,66	3063,00
999,61	3199,00
1005,56	3142,00
1011,51	3036,00
1017,44	3008,00
1023,37	3107,00
1029,30	3192,00
1035,22	3206,00
1041,13	2997,00
1047,03	3247,00
1052,93	3217,00
1058,83	3538,00
1064,71	3730,00
1070,59	3441,00
1076,47	3321,00
1082,33	3223,00
1088,20	3234,00
1094,05	3318,00
1099,90	3065,00
1105,74	3170,00
1111,58	3098,00
1117,41	3376,00
1123,23	3510,00
1129,05	3769,00
1134,86	3689,00
1140,67	3454,00
1146,47	3238,00
1152,26	3222,00
1158,05	3024,00
1163,83	3209,00
1169,60	3261,00
1175,37	3274,00
1181,13	3185,00
1186,89	3272,00
1192,64	3167,00
1198,38	3209,00
1204,12	3063,00
1209,85	3186,00
1215,58	3293,00
1221,30	3279,00
1227,02	3342,00
1232,72	3179,00
1238,43	3109,00
1244,12	3212,00
1249,81	3167,00
1255,50	3323,00
1261,17	3160,00
1266,85	3259,00
1272,51	3321,00
1278,17	3342,00
1283,83	3404,00
1289,47	3653,00
1295,12	4049,00
1300,75	3821,00
1306,38	3507,00
1312,01	3285,00
1317,63	3360,00
1323,24	3389,00
1328,85	3413,00
1334,45	3246,00
1340,04	3292,00
1345,63	3223,00
1351,22	3527,00
1356,80	3258,00
1362,37	3339,00
1367,93	3239,00
1373,49	3400,00
1379,05	3282,00
1384,60	3288,00
1390,14	3184,00
1395,68	3325,00
1401,21	3281,00
1406,74	3384,00
1412,26	3503,00
1417,77	3813,00
1423,28	3534,00
1428,78	3657,00
1434,28	3826,00
1439,77	4002,00
1445,26	3987,00
1450,74	4132,00
1456,22	3982,00
1461,68	3806,00
1467,15	3725,00
1472,61	3482,00
1478,06	3754,00
1483,51	3393,00
1488,95	3303,00
1494,38	3453,00
1499,81	3076,00
1505,24	3151,00
1510,65	3299,00
1516,07	3343,00
1521,48	3132,00
1526,88	2979,00
1532,27	3176,00
1537,67	2968,00
1543,05	3284,00
1548,43	3030,00
1553,81	3160,00
1559,18	3038,00
1564,54	3044,00
1569,90	3060,00
1575,25	2981,00
1580,60	2863,00
1585,94	3172,00
1591,28	3050,00
1596,61	2975,00
1601,93	3052,00
1607,25	3136,00
1612,57	3110,00
1617,88	3083,00
1623,18	3010,00
1628,48	3090,00
1633,77	3000,00
1639,06	3073,00
1644,34	2927,00
1649,62	2919,00
1654,89	3220,00
1660,16	2857,00
1665,42	3066,00
1670,67	2869,00
1675,92	2944,00
1681,17	2927,00
1686,41	2973,00
1691,64	3104,00
1696,87	2984,00
1702,10	2910,00
1707,32	2963,00
1712,53	3057,00
1717,74	2996,00
1722,94	2995,00
1728,14	2908,00
1733,33	2818,00
1738,52	2842,00
1743,70	2960,00
1748,88	2810,00
1754,05	2855,00
1759,22	2719,00
1764,38	4256,00
1769,53	2836,00
1774,69	2959,00
1779,83	2869,00
1784,97	2819,00
1790,11	2830,00
1795,24	2756,00
1800,36	2897,00
1805,48	2752,00
1810,60	2828,00
1815,71	2748,00
1820,82	2778,00
1825,92	2828,00
1831,01	2739,00
1836,10	2712,00
1841,19	2879,00
1846,26	2603,00
1851,34	2773,00
1856,41	2864,00
1861,47	2783,00
1866,53	2798,00
1871,59	2714,00
1876,64	2792,00
1881,68	2833,00
1886,72	2857,00
1891,76	2790,00
1896,79	2717,00
1901,81	2620,00
1906,83	2715,00
1911,85	2681,00
1916,86	2675,00
1921,86	2754,00
1926,86	2636,00
1931,86	2646,00
1936,85	2675,00
1941,83	2700,00
1946,81	2616,00
1951,79	2680,00
1956,76	2549,00
1961,72	2422,00
1966,68	2507,00
1971,64	2376,00
1976,59	2516,00
1981,54	2584,00
1986,48	2552,00
1991,42	2538,00
1996,35	2934,00
2001,27	2517,00
2006,20	2465,00
2011,11	2701,00
2016,03	2622,00
2020,93	2548,00
2025,84	2506,00
2030,73	2451,00
2035,63	2344,00
2040,52	2505,00
2045,40	2448,00
2050,28	2484,00
2055,15	2583,00
2060,02	2390,00
2064,89	2564,00
2069,75	2533,00
2074,60	2607,00
2079,46	2466,00
2084,30	2384,00
2089,14	2511,00
2093,98	2499,00
2098,81	2471,00
2103,64	2504,00
2108,46	2554,00
2113,28	2380,00
2118,09	2446,00
2122,90	2531,00
2127,70	2389,00
2132,50	2526,00
2137,30	2426,00
2142,09	2328,00
2146,87	2353,00
2151,66	2478,00
2156,43	2504,00
2161,20	2456,00
2165,97	2488,00
2170,73	2351,00
2175,49	2513,00
2180,24	2404,00
2184,99	2518,00
2189,74	2526,00
2194,48	2413,00
2199,21	2472,00
2203,94	2305,00
2208,67	2280,00
2213,39	2262,00
2218,11	2364,00
2222,82	2285,00
2227,53	2292,00
2232,23	2406,00
2236,93	2383,00
2241,63	2455,00
2246,32	2308,00
2251,00	2263,00
2255,68	2381,00
2260,36	2427,00
2265,03	2350,00
2269,70	2504,00
2274,36	2220,00
2279,02	2325,00
2283,68	2337,00
2288,33	2205,00
2292,97	2340,00
2297,61	2260,00
2302,25	2203,00
2306,88	2156,00
2311,51	2145,00
2316,14	2278,00
2320,75	2290,00
2325,37	2053,00
2329,98	2288,00
2334,59	2187,00
2339,19	2210,00
2343,79	1945,00
2348,38	2182,00
2352,97	2188,00
2357,55	2325,00
2362,13	2231,00
2366,71	2067,00
2371,28	2278,00
2375,85	2254,00
2380,41	2291,00
2384,97	2089,00
2389,52	2216,00
2394,07	2183,00
2398,62	2312,00
2403,16	2115,00
2407,70	2026,00
2412,23	2208,00
2416,76	2147,00
2421,29	2233,00
2425,81	2186,00
2430,32	2172,00
2434,84	1892,00
2439,34	2039,00
2443,85	2236,00
2448,35	2051,00
2452,84	2066,00
2457,33	2063,00
2461,82	1968,00
2466,30	1936,00
2470,78	2060,00
2475,25	1956,00
2479,72	1998,00
2484,19	1981,00
2488,65	2108,00
2493,11	1911,00
2497,56	1978,00
2502,01	1844,00
2506,46	2068,00
2510,90	2047,00
2515,34	2052,00
2519,77	2005,00
2524,20	2049,00
2528,62	1941,00
2533,04	2063,00
2537,46	1912,00
2541,87	1885,00
2546,28	1847,00
2550,68	1913,00
2555,08	1833,00
2559,48	1920,00
2563,87	1934,00
2568,26	1742,00
2572,64	1919,00
2577,02	2008,00
2581,40	1796,00
2585,77	1897,00
2590,14	1821,00
2594,50	1717,00
2598,86	1940,00
2603,22	1870,00
2607,57	1929,00
2611,92	1935,00
2616,26	1839,00
2620,60	1997,00
2624,94	1808,00
2629,27	1983,00
2633,60	1698,00
2637,92	2021,00
2642,24	1952,00
2646,56	1833,00
2650,87	1807,00
2655,18	1908,00
2659,48	1725,00
2663,78	1837,00
2668,08	1702,00
2672,37	1823,00
2676,66	1882,00
2680,95	1774,00
2685,23	1840,00
2689,50	1777,00
2693,78	1788,00
2698,05	1720,00
2702,31	1895,00
2706,57	1852,00
2710,83	2053,00
2715,08	1841,00
2719,33	2119,00
2723,58	1943,00
2727,82	1966,00
2732,06	1893,00
2736,29	1902,00
2740,53	1986,00
2744,75	1742,00
2748,97	1925,00
2753,19	1863,00
2757,41	1868,00
2761,62	1847,00
2765,83	1970,00
2770,03	1742,00
2774,23	1721,00
2778,43	1708,00
2782,62	1794,00
2786,81	1803,00
2791,00	1839,00
2795,18	1938,00
2799,35	1899,00
2803,53	1870,00
2807,70	1989,00
2811,86	1647,00
2816,03	1928,00
2820,19	1827,00
2824,34	1928,00
2828,49	1919,00
2832,64	1973,00
2836,78	2291,00
2840,92	2394,00
2845,06	2604,00
2849,19	2623,00
2853,32	2773,00
2857,45	2907,00
2861,57	2938,00
2865,69	2670,00
2869,80	2604,00
2873,91	2614,00
2878,02	2835,00
2882,12	2967,00
2886,22	2838,00
2890,32	2806,00
2894,41	2764,00
2898,50	2572,00
2902,58	2445,00
2906,67	2540,00
2910,74	2220,00
2914,82	2247,00
2918,89	2272,00
2922,96	2138,00
2927,02	2069,00
2931,08	1949,00
2935,13	1892,00
2939,19	1993,00
2943,24	1833,00
2947,28	1750,00
2951,32	1679,00
2955,36	1645,00
2959,40	1816,00
2963,43	1835,00
2967,46	1581,00
2971,48	1587,00
2975,50	1676,00
2979,52	1781,00
2983,53	1699,00
2987,54	1582,00
2991,55	1754,00
2995,55	1525,00
2999,55	1491,00
3003,54	1494,00
3007,54	1581,00
3011,53	1511,00
3015,51	1539,00
3019,49	1692,00
3023,47	1451,00
3027,45	1504,00
3031,42	1404,00
3035,39	1366,00
3039,35	1420,00
3043,31	1441,00
3047,27	1431,00
3051,22	1569,00
3055,17	1372,00
3059,12	1420,00
3063,06	1444,00
3067,00	1257,00
3070,94	1353,00
3074,87	1506,00
3078,80	1469,00
3082,73	1390,00
3086,65	1448,00
3090,57	1331,00
3094,49	1450,00
3098,40	1410,00
3102,31	1300,00
3106,22	1393,00
3110,12	1407,00
3114,02	1381,00
3117,92	1511,00
3121,81	1256,00
3125,70	1398,00
3129,58	1403,00
3133,47	1333,00
3137,34	1412,00
3141,22	1403,00
3145,09	1477,00
3148,96	1243,00
3152,83	1300,00
3156,69	1410,00
3160,55	1214,00
3164,40	1403,00
3168,26	1297,00
3172,10	1551,00
3175,95	1387,00
3179,79	1377,00
3183,63	1272,00
3187,47	1352,00
3191,30	1251,00
3195,13	1490,00
3198,95	1233,00
3202,78	1379,00
3206,60	1228,00
3210,41	1203,00
3214,23	1252,00
3218,03	1280,00
3221,84	1351,00
3225,64	1269,00
3229,44	1329,00
3233,24	1265,00
3237,03	1280,00
3240,82	1243,00
3244,61	1224,00
3248,39	1211,00
3252,17	1257,00
3255,95	1379,00
3259,72	1326,00
3263,49	1523,00
3267,26	1110,00
3271,03	1219,00
3274,79	1270,00
3278,54	1194,00
3282,30	1110,00
3286,05	1250,00
3289,80	1306,00
3293,54	1314,00
3297,29	1244,00
3301,02	1220,00
3304,76	1287,00
3308,49	1354,00
3312,22	1164,00
3315,95	1256,00
3319,67	1138,00
3323,39	1395,00
3327,10	1374,00
3330,82	1212,00
3334,53	1196,00
3338,24	1226,00
3341,94	1231,00
3345,64	1036,00
3349,34	1227,00
3353,03	1176,00
3356,72	1206,00
3360,41	1269,00
3364,10	1274,00
3367,78	1157,00
3371,46	1120,00
3375,13	1187,00
3378,81	1264,00
3382,48	1251,00
3386,14	1301,00
3389,81	1248,00
3393,47	1141,00
3397,12	1384,00
3400,78	1188,00
3404,43	1159,00
3408,08	1226,00
3411,72	1162,00
3415,36	1185,00
3419,00	1116,00
3422,64	1209,00
3426,27	1120,00
3429,90	1155,00
3433,53	1204,00
3437,15	1161,00
3440,77	1021,00
3444,39	1078,00
3448,00	1169,00
3451,62	1133,00
3455,22	1190,00
3458,83	1108,00
3462,43	1173,00
3466,03	1245,00
3469,63	1238,00
3473,22	1114,00
3476,81	1128,00
3480,40	1195,00
3483,99	1105,00
3487,57	1188,00
3491,15	1167,00
3494,72	1061,00
3498,29	1136,00
3501,86	1072,00
3505,43	1192,00
3508,99	1177,00
3512,56	1144,00
3516,11	1216,00
3519,67	1159,00
3523,22	1226,00
3526,77	1221,00
3530,32	1212,00
3533,86	1217,00
3537,40	1261,00
3540,94	1206,00
3544,47	1095,00
3548,00	1039,00
3551,53	1166,00
3555,06	1053,00
3558,58	1209,00
3562,10	1163,00
3565,62	1219,00
3569,13	1141,00
3572,64	1175,00
3576,15	923,00
3579,66	1041,00
3583,16	1184,00
3586,66	1007,00
3590,16	1160,00
3593,65	1026,00
3597,14	1083,00
3600,63	1130,00
3604,11	1217,00
3607,60	1087,00
3611,08	1045,00
3614,55	1090,00
3618,03	1037,00
3621,50	1024,00
3624,97	1130,00
3628,43	1184,00
3631,90	1132,00
3635,36	1020,00
3638,81	1054,00
3642,27	1214,00
3645,72	1137,00
3649,17	1219,00
3652,61	924,00
3656,06	930,00
3659,50	1005,00
3662,93	997,00
3666,37	1078,00
3669,80	1248,00
3673,23	1098,00
3676,65	1122,00
3680,08	1178,00
3683,50	957,00
3686,92	1146,00
3690,33	1025,00
3693,74	1007,00
3697,15	931,00
3700,56	1108,00
3703,96	1082,00
3707,36	935,00
3710,76	952,00
3714,16	914,00
3717,55	901,00
3720,94	1107,00
3724,33	1006,00
3727,71	1095,00
3731,10	1006,00
3734,48	1001,00
3737,85	863,00
3741,23	850,00
3744,60	1006,00
3747,97	884,00
3751,33	1010,00
3754,69	970,00
3758,05	1036,00
3761,41	846,00
3764,77	925,00
3768,12	844,00
3771,47	907,00
3774,82	1026,00
3778,16	-19,00
3781,50	18,00
3784,84	9,00
3788,18	14,00
>>>>>End Processed Spectral Data<<<<<
