SpectraSuite Data File
++++++++++++++++++++++++++++++++++++
Date: Mon Mar 09 15:10:32 ICT 2026
User: Administrator
Dark Spectrum Present: Yes
Reference Spectrum Present: No
Number of Sampled Component Spectra: 1
Spectrometers: MAYP113682
Integration Time (usec): 3000000 (MAYP113682)
Spectra Averaged: 1 (MAYP113682)
Boxcar Smoothing: 0 (MAYP113682)
Correct for Electrical Dark: No (MAYP113682)
Strobe/Lamp Enabled: No (MAYP113682)
Correct for Detector Non-linearity: No (MAYP113682)
Correct for Stray Light: No (MAYP113682)
Number of Pixels in Processed Spectrum: 2068
>>>>>Begin Processed Spectral Data<<<<<
-37534,58	5,00
-37414,56	1,00
-37295,11	-5,00
-37176,24	-1,00
-37057,95	108,00
-36940,22	143,00
-36823,05	73,00
-36706,45	147,00
-36590,40	131,00
-36474,90	126,00
-36359,95	162,00
-36245,55	149,00
-36131,68	5,00
-36018,35	157,00
-35905,55	79,00
-35793,29	115,00
-35681,54	58,00
-35570,32	-5,00
-35459,62	114,00
-35349,43	160,00
-35239,75	221,00
-35130,58	96,00
-35021,91	110,00
-34913,74	156,00
-34806,07	113,00
-34698,89	126,00
-34592,20	54,00
-34486,00	153,00
-34380,28	144,00
-34275,04	96,00
-34170,27	119,00
-34065,98	91,00
-33962,16	115,00
-33858,81	147,00
-33755,92	144,00
-33653,49	176,00
-33551,52	141,00
-33450,01	44,00
-33348,94	219,00
-33248,33	183,00
-33148,16	30,00
-33048,43	90,00
-32949,14	113,00
-32850,29	102,00
-32751,87	128,00
-32653,89	110,00
-32556,33	181,00
-32459,20	132,00
-32362,49	191,00
-32266,19	180,00
-32170,32	87,00
-32074,86	130,00
-31979,82	127,00
-31885,18	132,00
-31790,95	-2,00
-31697,12	139,00
-31603,69	186,00
-31510,67	178,00
-31418,04	162,00
-31325,80	139,00
-31233,95	128,00
-31142,49	108,00
-31051,42	30,00
-30960,73	72,00
-30870,43	192,00
-30780,50	41,00
-30690,95	130,00
-30601,77	110,00
-30512,97	95,00
-30424,53	94,00
-30336,46	101,00
-30248,76	19,00
-30161,42	195,00
-30074,44	29,00
-29987,81	126,00
-29901,55	116,00
-29815,63	90,00
-29730,07	162,00
-29644,86	182,00
-29560,00	93,00
-29475,48	174,00
-29391,30	113,00
-29307,47	92,00
-29223,97	91,00
-29140,81	126,00
-29057,99	79,00
-28975,50	41,00
-28893,34	129,00
-28811,51	91,00
-28730,00	212,00
-28648,82	65,00
-28567,97	105,00
-28487,43	221,00
-28407,21	115,00
-28327,32	93,00
-28247,73	132,00
-28168,46	75,00
-28089,50	212,00
-28010,85	77,00
-27932,51	44,00
-27854,48	67,00
-27776,75	145,00
-27699,32	53,00
-27622,19	89,00
-27545,37	235,00
-27468,84	54,00
-27392,60	138,00
-27316,66	132,00
-27241,01	238,00
-27165,66	129,00
-27090,59	91,00
-27015,81	158,00
-26941,31	88,00
-26867,10	36,00
-26793,17	16,00
-26719,52	127,00
-26646,15	52,00
-26573,06	171,00
-26500,24	185,00
-26427,70	260,00
-26355,43	144,00
-26283,43	199,00
-26211,71	210,00
-26140,25	185,00
-26069,06	234,00
-25998,13	61,00
-25927,46	95,00
-25857,06	41,00
-25786,92	78,00
-25717,04	155,00
-25647,42	122,00
-25578,05	91,00
-25508,94	62,00
-25440,09	136,00
-25371,48	164,00
-25303,13	170,00
-25235,02	122,00
-25167,17	195,00
-25099,56	184,00
-25032,19	128,00
-24965,07	143,00
-24898,20	86,00
-24831,56	57,00
-24765,17	189,00
-24699,01	-34,00
-24633,10	129,00
-24567,41	213,00
-24501,97	157,00
-24436,75	196,00
-24371,77	40,00
-24307,03	133,00
-24242,51	94,00
-24178,22	148,00
-24114,16	-35,00
-24050,32	133,00
-23986,71	12,00
-23923,32	173,00
-23860,16	134,00
-23797,22	57,00
-23734,50	151,00
-23672,00	85,00
-23609,71	109,00
-23547,65	98,00
-23485,80	41,00
-23424,16	53,00
-23362,74	125,00
-23301,53	72,00
-23240,54	106,00
-23179,75	108,00
-23119,17	145,00
-23058,80	101,00
-22998,64	124,00
-22938,68	74,00
-22878,93	53,00
-22819,39	201,00
-22760,04	145,00
-22700,90	196,00
-22641,96	146,00
-22583,22	197,00
-22524,68	184,00
-22466,33	104,00
-22408,19	40,00
-22350,23	220,00
-22292,48	183,00
-22234,92	264,00
-22177,55	203,00
-22120,37	187,00
-22063,38	63,00
-22006,58	121,00
-21949,98	67,00
-21893,56	70,00
-21837,33	206,00
-21781,28	159,00
-21725,42	77,00
-21669,74	108,00
-21614,25	100,00
-21558,94	246,00
-21503,81	171,00
-21448,86	30,00
-21394,10	157,00
-21339,51	115,00
-21285,10	186,00
-21230,86	204,00
-21176,81	150,00
-21122,93	154,00
-21069,22	80,00
-21015,69	77,00
-20962,33	91,00
-20909,14	138,00
-20856,13	57,00
-20803,28	135,00
-20750,61	132,00
-20698,10	145,00
-20645,76	106,00
-20593,59	228,00
-20541,59	86,00
-20489,75	94,00
-20438,07	68,00
-20386,56	85,00
-20335,22	101,00
-20284,03	127,00
-20233,01	115,00
-20182,15	111,00
-20131,45	242,00
-20080,91	52,00
-20030,52	145,00
-19980,30	174,00
-19930,23	34,00
-19880,32	144,00
-19830,56	127,00
-19780,96	211,00
-19731,52	191,00
-19682,23	161,00
-19633,09	93,00
-19584,10	114,00
-19535,26	138,00
-19486,58	161,00
-19438,04	212,00
-19389,66	144,00
-19341,42	159,00
-19293,33	151,00
-19245,39	148,00
-19197,60	236,00
-19149,95	145,00
-19102,45	162,00
-19055,09	158,00
-19007,87	181,00
-18960,80	36,00
-18913,87	201,00
-18867,09	130,00
-18820,44	110,00
-18773,94	188,00
-18727,57	134,00
-18681,35	123,00
-18635,26	135,00
-18589,31	133,00
-18543,50	144,00
-18497,83	134,00
-18452,29	109,00
-18406,89	88,00
-18361,63	158,00
-18316,50	109,00
-18271,50	6,00
-18226,63	72,00
-18181,90	78,00
-18137,30	107,00
-18092,84	15,00
-18048,50	177,00
-18004,29	50,00
-17960,22	13,00
-17916,27	170,00
-17872,45	114,00
-17828,76	45,00
-17785,20	131,00
-17741,77	127,00
-17698,46	158,00
-17655,28	143,00
-17612,22	99,00
-17569,29	103,00
-17526,48	81,00
-17483,79	69,00
-17441,23	122,00
-17398,79	30,00
-17356,48	148,00
-17314,28	171,00
-17272,21	189,00
-17230,26	142,00
-17188,42	55,00
-17146,71	185,00
-17105,12	85,00
-17063,64	82,00
-17022,28	190,00
-16981,04	148,00
-16939,92	200,00
-16898,91	89,00
-16858,02	95,00
-16817,25	133,00
-16776,59	160,00
-16736,04	64,00
-16695,61	171,00
-16655,29	136,00
-16615,09	163,00
-16574,99	100,00
-16535,01	182,00
-16495,15	32,00
-16455,39	127,00
-16415,74	26,00
-16376,21	210,00
-16336,78	52,00
-16297,46	76,00
-16258,26	150,00
-16219,16	38,00
-16180,17	179,00
-16141,28	123,00
-16102,51	121,00
-16063,84	174,00
-16025,27	121,00
-15986,82	123,00
-15948,46	198,00
-15910,22	148,00
-15872,07	174,00
-15834,04	173,00
-15796,10	179,00
-15758,27	187,00
-15720,54	164,00
-15682,91	80,00
-15645,39	119,00
-15607,97	139,00
-15570,64	181,00
-15533,42	88,00
-15496,30	131,00
-15459,28	151,00
-15422,36	195,00
-15385,54	201,00
-15348,82	121,00
-15312,19	-70,00
-15275,66	181,00
-15239,23	89,00
-15202,90	144,00
-15166,67	148,00
-15130,53	93,00
-15094,48	60,00
-15058,54	187,00
-15022,68	65,00
-14986,93	207,00
-14951,26	177,00
-14915,69	128,00
-14880,22	80,00
-14844,84	201,00
-14809,55	71,00
-14774,35	143,00
-14739,25	150,00
-14704,24	158,00
-14669,32	68,00
-14634,49	-70,00
-14599,75	121,00
-14565,10	167,00
-14530,55	121,00
-14496,08	210,00
-14461,70	173,00
-14427,41	186,00
-14393,21	260,00
-14359,10	12,00
-14325,07	64,00
-14291,14	61,00
-14257,29	90,00
-14223,52	36,00
-14189,85	225,00
-14156,26	248,00
-14122,76	184,00
-14089,34	-10,00
-14056,01	151,00
-14022,76	72,00
-13989,60	148,00
-13956,52	93,00
-13923,53	135,00
-13890,62	91,00
-13857,79	84,00
-13825,05	77,00
-13792,39	91,00
-13759,81	205,00
-13727,31	45,00
-13694,90	190,00
-13662,57	-12,00
-13630,31	178,00
-13598,14	84,00
-13566,05	191,00
-13534,05	157,00
-13502,12	55,00
-13470,27	124,00
-13438,50	162,00
-13406,80	87,00
-13375,19	137,00
-13343,66	169,00
-13312,20	81,00
-13280,83	132,00
-13249,53	174,00
-13218,30	125,00
-13187,16	137,00
-13156,09	150,00
-13125,10	104,00
-13094,18	174,00
-13063,34	52,00
-13032,58	239,00
-13001,89	94,00
-12971,28	56,00
-12940,74	73,00
-12910,27	156,00
-12879,88	103,00
-12849,57	60,00
-12819,33	145,00
-12789,16	142,00
-12759,06	43,00
-12729,04	118,00
-12699,09	-1122,00
-12669,21	265,00
-12639,41	184,00
-12609,68	16,00
-12580,02	128,00
-12550,43	100,00
-12520,91	104,00
-12491,46	142,00
-12462,08	127,00
-12432,77	230,00
-12403,54	30,00
-12374,37	164,00
-12345,27	139,00
-12316,24	28,00
-12287,29	58,00
-12258,40	124,00
-12229,57	94,00
-12200,82	249,00
-12172,14	124,00
-12143,52	154,00
-12114,97	140,00
-12086,49	121,00
-12058,07	40,00
-12029,73	115,00
-12001,44	104,00
-11973,23	118,00
-11945,08	99,00
-11917,00	157,00
-11888,98	61,00
-11861,03	150,00
-11833,15	42,00
-11805,32	266,00
-11777,57	172,00
-11749,88	198,00
-11722,25	184,00
-11694,69	25,00
-11667,19	173,00
-11639,75	58,00
-11612,38	110,00
-11585,07	184,00
-11557,83	85,00
-11530,65	62,00
-11503,53	110,00
-11476,47	95,00
-11449,48	94,00
-11422,54	36,00
-11395,67	167,00
-11368,86	177,00
-11342,11	47,00
-11315,43	232,00
-11288,80	154,00
-11262,23	216,00
-11235,73	134,00
-11209,28	125,00
-11182,90	195,00
-11156,57	111,00
-11130,31	67,00
-11104,10	114,00
-11077,96	253,00
-11051,87	187,00
-11025,84	99,00
-10999,87	181,00
-10973,96	255,00
-10948,11	77,00
-10922,31	93,00
-10896,58	193,00
-10870,90	70,00
-10845,28	150,00
-10819,71	112,00
-10794,20	198,00
-10768,75	143,00
-10743,36	103,00
-10718,02	33,00
-10692,74	14,00
-10667,52	101,00
-10642,35	150,00
-10617,24	208,00
-10592,18	167,00
-10567,18	72,00
-10542,23	203,00
-10517,34	68,00
-10492,51	268,00
-10467,72	46,00
-10443,00	104,00
-10418,32	213,00
-10393,70	144,00
-10369,14	124,00
-10344,63	53,00
-10320,17	100,00
-10295,77	30,00
-10271,42	54,00
-10247,12	190,00
-10222,88	82,00
-10198,68	92,00
-10174,54	93,00
-10150,46	272,00
-10126,42	91,00
-10102,44	155,00
-10078,51	82,00
-10054,63	169,00
-10030,80	37,00
-10007,03	124,00
-9983,30	109,00
-9959,63	142,00
-9936,01	93,00
-9912,44	124,00
-9888,92	150,00
-9865,44	168,00
-9842,02	72,00
-9818,65	141,00
-9795,33	-65,00
-9772,06	102,00
-9748,84	30,00
-9725,67	-62,00
-9702,55	68,00
-9679,47	110,00
-9656,45	95,00
-9633,47	-30,00
-9610,55	8,00
-9587,67	15,00
-9564,84	52,00
-9542,06	-63,00
-9519,32	6,00
-9496,64	73,00
-9474,00	-28,00
-9451,41	27,00
-9428,87	-76,00
-9406,37	-239,00
-9383,92	-248,00
-9361,52	-394,00
-9339,17	-306,00
-9316,86	-312,00
-9294,60	-247,00
-9272,38	-110,00
-9250,21	-39,00
-9228,09	-8,00
-9206,01	-212,00
-9183,98	-215,00
-9162,00	-302,00
-9140,06	-248,00
-9118,16	-439,00
-9096,31	-240,00
-9074,51	-243,00
-9052,75	-155,00
-9031,04	-170,00
-9009,37	-176,00
-8987,74	-259,00
-8966,16	-222,00
-8944,63	-287,00
-8923,14	-333,00
-8901,69	-368,00
-8880,29	-74,00
-8858,93	-85,00
-8837,61	-124,00
-8816,34	50,00
-8795,11	51,00
-8773,92	86,00
-8752,78	-31,00
-8731,68	-133,00
-8710,62	-27,00
-8689,61	-72,00
-8668,63	91,00
-8647,70	123,00
-8626,82	33,00
-8605,97	150,00
-8585,17	68,00
-8564,41	-108,00
-8543,69	-27,00
-8523,01	-129,00
-8502,37	-49,00
-8481,78	-157,00
-8461,23	-14,00
-8440,71	99,00
-8420,24	110,00
-8399,81	219,00
-8379,42	-19,00
-8359,08	-47,00
-8338,77	19,00
-8318,50	141,00
-8298,27	-3,00
-8278,09	-9,00
-8257,94	180,00
-8237,83	164,00
-8217,76	80,00
-8197,74	215,00
-8177,75	295,00
-8157,80	265,00
-8137,89	66,00
-8118,02	148,00
-8098,19	227,00
-8078,40	167,00
-8058,65	193,00
-8038,93	152,00
-8019,26	234,00
-7999,62	371,00
-7980,02	221,00
-7960,46	143,00
-7940,94	143,00
-7921,46	114,00
-7902,01	123,00
-7882,60	40,00
-7863,23	173,00
-7843,90	73,00
-7824,61	203,00
-7805,35	249,00
-7786,13	220,00
-7766,95	179,00
-7747,80	202,00
-7728,69	198,00
-7709,62	189,00
-7690,59	335,00
-7671,59	234,00
-7652,63	177,00
-7633,70	271,00
-7614,81	214,00
-7595,96	240,00
-7577,15	79,00
-7558,37	342,00
-7539,62	104,00
-7520,91	236,00
-7502,24	181,00
-7483,60	254,00
-7465,00	116,00
-7446,44	173,00
-7427,91	140,00
-7409,41	14,00
-7390,95	9,00
-7372,53	3,00
-7354,14	-4,00
-7335,78	86,00
-7317,46	97,00
-7299,18	39,00
-7280,92	186,00
-7262,71	242,00
-7244,52	136,00
-7226,38	186,00
-7208,26	167,00
-7190,18	198,00
-7172,14	37,00
-7154,12	172,00
-7136,15	51,00
-7118,20	100,00
-7100,29	146,00
-7082,41	68,00
-7064,57	253,00
-7046,76	237,00
-7028,98	58,00
-7011,24	17,00
-6993,53	-122,00
-6975,85	-37,00
-6958,20	-71,00
-6940,59	31,00
-6923,01	-129,00
-6905,46	-39,00
-6887,94	-119,00
-6870,46	2661,00
-6853,01	-87,00
-6835,59	109,00
-6818,21	130,00
-6800,85	47,00
-6783,53	-148,00
-6766,24	-78,00
-6748,98	-135,00
-6731,76	-145,00
-6714,56	-173,00
-6697,40	-163,00
-6680,26	-86,00
-6663,16	-44,00
-6646,09	8,00
-6629,05	15,00
-6612,05	29,00
-6595,07	-39,00
-6578,13	-52,00
-6561,21	-33,00
-6544,33	-60,00
-6527,47	-78,00
-6510,65	-156,00
-6493,86	-207,00
-6477,10	-310,00
-6460,36	-191,00
-6443,66	-145,00
-6426,99	-250,00
-6410,35	-86,00
-6393,74	-183,00
-6377,16	-53,00
-6360,61	-91,00
-6344,09	-85,00
-6327,59	-129,00
-6311,13	-47,00
-6294,70	108,00
-6278,29	9,00
-6261,92	76,00
-6245,58	84,00
-6229,26	-13,00
-6212,97	-23,00
-6196,72	-22,00
-6180,49	-76,00
-6164,29	-111,00
-6148,12	-132,00
-6131,98	-13,00
-6115,86	-143,00
-6099,78	-233,00
-6083,72	-213,00
-6067,69	-248,00
-6051,69	-59,00
-6035,72	18,00
-6019,78	5,00
-6003,87	-128,00
-5987,98	-49,00
-5972,12	14,00
-5956,29	2,00
-5940,49	-21,00
-5924,71	30,00
-5908,96	6,00
-5893,24	21,00
-5877,55	-25,00
-5861,89	-124,00
-5846,25	-111,00
-5830,64	-105,00
-5815,05	-120,00
-5799,50	-80,00
-5783,97	73,00
-5768,47	85,00
-5752,99	-22,00
-5737,55	65,00
-5722,12	58,00
-5706,73	-42,00
-5691,36	-64,00
-5676,02	38,00
-5660,71	-45,00
-5645,42	7,00
-5630,16	46,00
-5614,92	25,00
-5599,71	-93,00
-5584,53	48,00
-5569,37	-91,00
-5554,24	4,00
-5539,14	70,00
-5524,06	-79,00
-5509,01	-116,00
-5493,98	-84,00
-5478,98	-51,00
-5464,00	-227,00
-5449,05	-114,00
-5434,13	-79,00
-5419,23	-5,00
-5404,36	25,00
-5389,51	54,00
-5374,69	-59,00
-5359,89	55,00
-5345,12	-117,00
-5330,37	59,00
-5315,65	110,00
-5300,95	117,00
-5286,28	97,00
-5271,63	-81,00
-5257,01	-161,00
-5242,41	-99,00
-5227,84	-116,00
-5213,29	-63,00
-5198,76	-35,00
-5184,26	108,00
-5169,79	-158,00
-5155,33	-112,00
-5140,91	-1,00
-5126,51	-59,00
-5112,13	-32,00
-5097,77	30,00
-5083,44	-95,00
-5069,13	43,00
-5054,85	36,00
-5040,59	12,00
-5026,36	-137,00
-5012,15	-128,00
-4997,96	-162,00
-4983,80	-99,00
-4969,66	-66,00
-4955,54	99,00
-4941,44	48,00
-4927,37	21,00
-4913,33	67,00
-4899,30	67,00
-4885,30	97,00
-4871,33	70,00
-4857,37	196,00
-4843,44	42,00
-4829,53	101,00
-4815,65	-48,00
-4801,79	-132,00
-4787,95	-79,00
-4774,13	-76,00
-4760,34	147,00
-4746,56	39,00
-4732,82	104,00
-4719,09	10,00
-4705,38	51,00
-4691,70	-6,00
-4678,04	63,00
-4664,41	60,00
-4650,79	199,00
-4637,20	108,00
-4623,63	-11,00
-4610,08	66,00
-4596,56	71,00
-4583,05	61,00
-4569,57	20,00
-4556,11	52,00
-4542,67	76,00
-4529,25	81,00
-4515,86	59,00
-4502,49	-18,00
-4489,13	115,00
-4475,80	84,00
-4462,49	140,00
-4449,21	144,00
-4435,94	182,00
-4422,70	40,00
-4409,47	27,00
-4396,27	60,00
-4383,09	48,00
-4369,93	74,00
-4356,79	251,00
-4343,67	42,00
-4330,58	38,00
-4317,50	33,00
-4304,45	86,00
-4291,41	99,00
-4278,40	123,00
-4265,41	241,00
-4252,44	157,00
-4239,49	125,00
-4226,55	73,00
-4213,65	75,00
-4200,76	119,00
-4187,89	191,00
-4175,04	1,00
-4162,21	136,00
-4149,40	112,00
-4136,61	37,00
-4123,85	175,00
-4111,10	40,00
-4098,37	206,00
-4085,66	92,00
-4072,98	11,00
-4060,31	112,00
-4047,66	181,00
-4035,04	138,00
-4022,43	149,00
-4009,84	112,00
-3997,27	30,00
-3984,72	146,00
-3972,19	206,00
-3959,69	85,00
-3947,20	155,00
-3934,73	83,00
-3922,27	94,00
-3909,84	88,00
-3897,43	235,00
-3885,04	131,00
-3872,67	108,00
-3860,31	109,00
-3847,98	70,00
-3835,66	179,00
-3823,36	131,00
-3811,09	76,00
-3798,83	22,00
-3786,59	179,00
-3774,37	-60,00
-3762,17	111,00
-3749,98	127,00
-3737,82	142,00
-3725,67	230,00
-3713,55	229,00
-3701,44	-16,00
-3689,35	99,00
-3677,28	177,00
-3665,22	138,00
-3653,19	80,00
-3641,17	136,00
-3629,18	108,00
-3617,20	187,00
-3605,24	29,00
-3593,30	108,00
-3581,37	73,00
-3569,47	135,00
-3557,58	278,00
-3545,71	109,00
-3533,86	101,00
-3522,02	144,00
-3510,21	145,00
-3498,41	90,00
-3486,63	226,00
-3474,87	151,00
-3463,12	5,00
-3451,40	94,00
-3439,69	141,00
-3428,00	161,00
-3416,33	185,00
-3404,67	31,00
-3393,03	302,00
-3381,41	63,00
-3369,81	259,00
-3358,22	110,00
-3346,66	166,00
-3335,10	107,00
-3323,57	161,00
-3312,06	33,00
-3300,56	144,00
-3289,08	209,00
-3277,61	169,00
-3266,16	114,00
-3254,73	192,00
-3243,32	95,00
-3231,92	159,00
-3220,55	172,00
-3209,18	171,00
-3197,84	126,00
-3186,51	118,00
-3175,20	210,00
-3163,90	117,00
-3152,63	121,00
-3141,36	258,00
-3130,12	131,00
-3118,89	195,00
-3107,68	102,00
-3096,49	190,00
-3085,31	182,00
-3074,15	118,00
-3063,00	96,00
-3051,87	19,00
-3040,76	34,00
-3029,67	155,00
-3018,59	85,00
-3007,52	119,00
-2996,48	165,00
-2985,44	209,00
-2974,43	155,00
-2963,43	117,00
-2952,45	156,00
-2941,48	29,00
-2930,53	54,00
-2919,60	143,00
-2908,68	221,00
-2897,78	142,00
-2886,89	189,00
-2876,02	51,00
-2865,17	147,00
-2854,33	167,00
-2843,50	187,00
-2832,70	178,00
-2821,90	65,00
-2811,13	112,00
-2800,37	150,00
-2789,62	177,00
-2778,89	62,00
-2768,18	184,00
-2757,48	231,00
-2746,80	157,00
-2736,13	101,00
-2725,48	176,00
-2714,84	224,00
-2704,22	205,00
-2693,61	204,00
-2683,02	157,00
-2672,45	158,00
-2661,89	120,00
-2651,34	154,00
-2640,81	99,00
-2630,30	223,00
-2619,80	83,00
-2609,31	106,00
-2598,84	196,00
-2588,39	62,00
-2577,95	186,00
-2567,52	90,00
-2557,11	151,00
-2546,71	194,00
-2536,33	146,00
-2525,97	77,00
-2515,62	162,00
-2505,28	152,00
-2494,96	118,00
-2484,65	123,00
-2474,36	160,00
-2464,08	184,00
-2453,82	148,00
-2443,57	186,00
-2433,33	48,00
-2423,11	117,00
-2412,91	147,00
-2402,72	136,00
-2392,54	145,00
-2382,38	82,00
-2372,23	149,00
-2362,09	147,00
-2351,97	72,00
-2341,87	209,00
-2331,78	90,00
-2321,70	54,00
-2311,64	205,00
-2301,59	160,00
-2291,55	200,00
-2281,53	132,00
-2271,53	254,00
-2261,53	106,00
-2251,55	195,00
-2241,59	89,00
-2231,64	129,00
-2221,70	239,00
-2211,78	-28,00
-2201,87	141,00
-2191,97	165,00
-2182,09	39,00
-2172,22	70,00
-2162,37	133,00
-2152,53	132,00
-2142,70	126,00
-2132,89	185,00
-2123,09	47,00
-2113,30	134,00
-2103,53	93,00
-2093,77	189,00
-2084,02	165,00
-2074,29	148,00
-2064,57	197,00
-2054,86	148,00
-2045,17	175,00
-2035,49	182,00
-2025,82	3,00
-2016,17	127,00
-2006,53	86,00
-1996,91	121,00
-1987,29	142,00
-1977,69	166,00
-1968,11	178,00
-1958,53	130,00
-1948,97	96,00
-1939,42	215,00
-1929,89	179,00
-1920,37	147,00
-1910,86	33,00
-1901,36	119,00
-1891,88	80,00
-1882,41	165,00
-1872,95	117,00
-1863,51	128,00
-1854,08	167,00
-1844,66	36,00
-1835,26	216,00
-1825,86	40,00
-1816,48	212,00
-1807,11	142,00
-1797,76	90,00
-1788,42	189,00
-1779,09	85,00
-1769,77	73,00
-1760,47	200,00
-1751,17	11,00
-1741,89	62,00
-1732,63	146,00
-1723,37	127,00
-1714,13	242,00
-1704,90	88,00
-1695,68	148,00
-1686,48	166,00
-1677,29	229,00
-1668,11	152,00
-1658,94	229,00
-1649,78	97,00
-1640,64	172,00
-1631,51	137,00
-1622,39	155,00
-1613,28	140,00
-1604,19	159,00
-1595,10	110,00
-1586,03	0,00
-1576,97	141,00
-1567,93	197,00
-1558,89	156,00
-1549,87	130,00
-1540,86	48,00
-1531,86	103,00
-1522,87	239,00
-1513,90	79,00
-1504,93	67,00
-1495,98	186,00
-1487,04	105,00
-1478,12	36,00
-1469,20	221,00
-1460,30	151,00
-1451,40	299,00
-1442,52	33,00
-1433,65	196,00
-1424,80	192,00
-1415,95	159,00
-1407,12	129,00
-1398,30	122,00
-1389,48	101,00
-1380,69	46,00
-1371,90	86,00
-1363,12	159,00
-1354,36	154,00
-1345,60	92,00
-1336,86	-10,00
-1328,13	115,00
-1319,41	40,00
-1310,70	159,00
-1302,01	206,00
-1293,32	126,00
-1284,65	152,00
-1275,99	60,00
-1267,33	43,00
-1258,69	215,00
-1250,06	141,00
-1241,45	130,00
-1232,84	89,00
-1224,25	119,00
-1215,66	169,00
-1207,09	36,00
-1198,53	139,00
-1189,97	129,00
-1181,43	98,00
-1172,91	92,00
-1164,39	152,00
-1155,88	158,00
-1147,38	116,00
-1138,90	124,00
-1130,43	114,00
-1121,96	179,00
-1113,51	138,00
-1105,07	90,00
-1096,64	114,00
-1088,22	160,00
-1079,81	86,00
-1071,41	57,00
-1063,02	93,00
-1054,65	182,00
-1046,28	73,00
-1037,92	146,00
-1029,58	247,00
-1021,24	139,00
-1012,92	125,00
-1004,61	42,00
-996,30	158,00
-988,01	83,00
-979,73	38,00
-971,46	100,00
-963,20	86,00
-954,95	82,00
-946,71	77,00
-938,48	144,00
-930,26	145,00
-922,06	196,00
-913,86	90,00
-905,67	145,00
-897,49	172,00
-889,33	178,00
-881,17	132,00
-873,02	208,00
-864,89	166,00
-856,76	110,00
-848,65	101,00
-840,54	174,00
-832,45	68,00
-824,36	82,00
-816,29	35,00
-808,22	146,00
-800,17	202,00
-792,12	88,00
-784,09	90,00
-776,06	34,00
-768,05	186,00
-760,04	100,00
-752,05	104,00
-744,07	149,00
-736,09	156,00
-728,13	77,00
-720,17	150,00
-712,23	160,00
-704,29	134,00
-696,37	207,00
-688,45	45,00
-680,55	126,00
-672,65	124,00
-664,77	95,00
-656,89	97,00
-649,03	188,00
-641,17	76,00
-633,32	198,00
-625,49	82,00
-617,66	27,00
-609,84	156,00
-602,03	141,00
-594,23	141,00
-586,45	128,00
-578,67	175,00
-570,90	158,00
-563,14	192,00
-555,39	78,00
-547,65	35,00
-539,91	215,00
-532,19	62,00
-524,48	72,00
-516,78	65,00
-509,08	156,00
-501,40	213,00
-493,72	136,00
-486,06	35,00
-478,40	136,00
-470,76	68,00
-463,12	229,00
-455,49	41,00
-447,87	207,00
-440,26	205,00
-432,66	281,00
-425,07	198,00
-417,49	146,00
-409,92	110,00
-402,35	221,00
-394,80	124,00
-387,25	109,00
-379,72	168,00
-372,19	117,00
-364,67	114,00
-357,17	146,00
-349,67	239,00
-342,18	28,00
-334,69	198,00
-327,22	100,00
-319,76	164,00
-312,30	87,00
-304,86	154,00
-297,42	228,00
-290,00	133,00
-282,58	247,00
-275,17	225,00
-267,77	157,00
-260,37	195,00
-252,99	158,00
-245,62	189,00
-238,25	185,00
-230,90	189,00
-223,55	135,00
-216,21	267,00
-208,88	65,00
-201,56	306,00
-194,25	235,00
-186,94	250,00
-179,65	288,00
-172,36	194,00
-165,08	151,00
-157,81	341,00
-150,55	313,00
-143,30	302,00
-136,06	365,00
-128,82	411,00
-121,60	382,00
-114,38	396,00
-107,17	439,00
-99,97	480,00
-92,78	521,00
-85,60	615,00
-78,42	750,00
-71,25	851,00
-64,10	786,00
-56,95	1032,00
-49,81	1261,00
-42,67	1520,00
-35,55	1930,00
-28,43	2483,00
-21,33	4000,00
-14,23	13286,00
-7,14	56139,00
-0,05	55888,00
7,02	55558,00
14,09	42720,00
21,14	11237,00
28,19	4794,00
35,23	3065,00
42,27	2353,00
49,29	1948,00
56,31	1738,00
63,32	1318,00
70,32	1131,00
77,31	985,00
84,29	868,00
91,27	913,00
98,23	713,00
105,19	792,00
112,14	886,00
119,09	1385,00
126,02	2238,00
132,95	2802,00
139,87	2782,00
146,78	3040,00
153,68	2892,00
160,58	2864,00
167,46	2767,00
174,34	2778,00
181,21	2825,00
188,08	2826,00
194,93	2849,00
201,78	2781,00
208,62	2914,00
215,45	2866,00
222,27	2844,00
229,09	2864,00
235,90	2963,00
242,70	2840,00
249,49	2766,00
256,27	2858,00
263,05	2879,00
269,82	2969,00
276,58	2966,00
283,33	2843,00
290,08	2845,00
296,82	2812,00
303,55	2784,00
310,27	2618,00
316,98	2894,00
323,69	2736,00
330,39	2812,00
337,08	2671,00
343,76	2811,00
350,44	2673,00
357,11	2786,00
363,77	2765,00
370,42	2808,00
377,07	2737,00
383,71	2870,00
390,34	2856,00
396,96	2739,00
403,58	2864,00
410,19	2913,00
416,79	2989,00
423,38	2917,00
429,97	2811,00
436,55	2800,00
443,12	2772,00
449,68	2793,00
456,24	2737,00
462,79	2744,00
469,33	2863,00
475,86	2770,00
482,39	2721,00
488,91	2889,00
495,42	2765,00
501,93	2788,00
508,42	2770,00
514,91	2801,00
521,40	2829,00
527,87	2632,00
534,34	2871,00
540,80	2731,00
547,25	2841,00
553,70	2829,00
560,14	2860,00
566,57	2803,00
573,00	2799,00
579,41	2783,00
585,83	2926,00
592,23	2760,00
598,62	2898,00
605,01	2868,00
611,40	2943,00
617,77	2760,00
624,14	2881,00
630,50	2748,00
636,85	2811,00
643,20	2902,00
649,54	2716,00
655,87	2711,00
662,20	2877,00
668,52	2713,00
674,83	2772,00
681,13	2764,00
687,43	2703,00
693,72	2776,00
700,00	2823,00
706,28	2748,00
712,55	2849,00
718,81	2813,00
725,07	2795,00
731,32	2808,00
737,56	2780,00
743,79	2901,00
750,02	3047,00
756,24	2897,00
762,46	2882,00
768,67	2969,00
774,87	2978,00
781,06	2834,00
787,25	2932,00
793,43	2960,00
799,60	3053,00
805,77	2837,00
811,93	2926,00
818,08	2958,00
824,23	2809,00
830,37	3026,00
836,50	2915,00
842,63	2966,00
848,75	2968,00
854,87	2955,00
860,97	2891,00
867,07	2883,00
873,17	2847,00
879,25	2873,00
885,33	2876,00
891,41	2955,00
897,47	2917,00
903,53	2890,00
909,59	2970,00
915,63	3074,00
921,67	2991,00
927,71	2866,00
933,74	2894,00
939,76	2988,00
945,77	3002,00
951,78	2794,00
957,78	2967,00
963,78	2987,00
969,77	3020,00
975,75	2999,00
981,72	3114,00
987,69	2979,00
993,66	3144,00
999,61	2927,00
1005,56	3066,00
1011,51	2938,00
1017,44	3025,00
1023,37	3117,00
1029,30	3171,00
1035,22	3110,00
1041,13	3060,00
1047,03	3170,00
1052,93	3360,00
1058,83	3545,00
1064,71	3755,00
1070,59	3533,00
1076,47	3430,00
1082,33	3307,00
1088,20	3339,00
1094,05	3306,00
1099,90	3140,00
1105,74	3407,00
1111,58	3167,00
1117,41	3396,00
1123,23	3705,00
1129,05	4018,00
1134,86	3838,00
1140,67	3420,00
1146,47	3458,00
1152,26	3403,00
1158,05	3136,00
1163,83	3279,00
1169,60	3343,00
1175,37	3308,00
1181,13	3252,00
1186,89	3274,00
1192,64	3135,00
1198,38	3182,00
1204,12	3171,00
1209,85	3221,00
1215,58	3318,00
1221,30	3289,00
1227,02	3392,00
1232,72	3408,00
1238,43	3336,00
1244,12	3298,00
1249,81	3266,00
1255,50	3365,00
1261,17	3266,00
1266,85	3517,00
1272,51	3425,00
1278,17	3445,00
1283,83	3566,00
1289,47	3853,00
1295,12	4361,00
1300,75	4172,00
1306,38	3808,00
1312,01	3598,00
1317,63	3443,00
1323,24	3467,00
1328,85	3456,00
1334,45	3446,00
1340,04	3325,00
1345,63	3287,00
1351,22	3444,00
1356,80	3378,00
1362,37	3406,00
1367,93	3401,00
1373,49	3446,00
1379,05	3408,00
1384,60	3437,00
1390,14	3403,00
1395,68	3460,00
1401,21	3422,00
1406,74	3462,00
1412,26	3745,00
1417,77	3676,00
1423,28	3853,00
1428,78	3818,00
1434,28	4003,00
1439,77	4238,00
1445,26	4157,00
1450,74	4168,00
1456,22	4102,00
1461,68	4108,00
1467,15	3758,00
1472,61	3748,00
1478,06	3588,00
1483,51	3424,00
1488,95	3417,00
1494,38	3443,00
1499,81	3239,00
1505,24	3227,00
1510,65	3053,00
1516,07	3262,00
1521,48	3281,00
1526,88	3200,00
1532,27	3156,00
1537,67	3253,00
1543,05	3226,00
1548,43	3174,00
1553,81	3156,00
1559,18	3230,00
1564,54	3172,00
1569,90	3184,00
1575,25	3229,00
1580,60	3203,00
1585,94	3172,00
1591,28	3198,00
1596,61	3052,00
1601,93	3190,00
1607,25	3131,00
1612,57	3129,00
1617,88	3060,00
1623,18	3218,00
1628,48	3066,00
1633,77	3026,00
1639,06	3148,00
1644,34	2972,00
1649,62	2965,00
1654,89	3082,00
1660,16	3002,00
1665,42	3099,00
1670,67	3040,00
1675,92	2872,00
1681,17	2977,00
1686,41	2937,00
1691,64	2920,00
1696,87	2927,00
1702,10	2899,00
1707,32	2899,00
1712,53	2940,00
1717,74	2905,00
1722,94	2964,00
1728,14	2897,00
1733,33	2939,00
1738,52	2797,00
1743,70	2873,00
1748,88	2958,00
1754,05	2864,00
1759,22	2867,00
1764,38	2894,00
1769,53	2812,00
1774,69	2887,00
1779,83	2750,00
1784,97	2837,00
1790,11	2808,00
1795,24	2781,00
1800,36	2721,00
1805,48	2719,00
1810,60	2802,00
1815,71	2831,00
1820,82	2747,00
1825,92	2773,00
1831,01	2896,00
1836,10	2822,00
1841,19	2874,00
1846,26	2683,00
1851,34	2712,00
1856,41	2747,00
1861,47	2741,00
1866,53	2825,00
1871,59	2720,00
1876,64	2760,00
1881,68	2712,00
1886,72	2762,00
1891,76	2613,00
1896,79	2594,00
1901,81	2733,00
1906,83	2543,00
1911,85	2526,00
1916,86	2572,00
1921,86	2573,00
1926,86	2575,00
1931,86	2528,00
1936,85	2503,00
1941,83	2475,00
1946,81	2494,00
1951,79	2426,00
1956,76	2494,00
1961,72	2501,00
1966,68	2473,00
1971,64	2463,00
1976,59	2461,00
1981,54	2420,00
1986,48	2445,00
1991,42	2357,00
1996,35	2431,00
2001,27	2410,00
2006,20	2443,00
2011,11	2449,00
2016,03	2336,00
2020,93	2318,00
2025,84	2428,00
2030,73	2434,00
2035,63	2421,00
2040,52	2448,00
2045,40	2384,00
2050,28	2368,00
2055,15	2269,00
2060,02	2309,00
2064,89	2314,00
2069,75	2281,00
2074,60	2403,00
2079,46	2376,00
2084,30	2359,00
2089,14	2311,00
2093,98	2347,00
2098,81	2197,00
2103,64	2446,00
2108,46	2364,00
2113,28	2249,00
2118,09	2202,00
2122,90	2252,00
2127,70	2236,00
2132,50	2249,00
2137,30	2292,00
2142,09	2223,00
2146,87	2223,00
2151,66	2211,00
2156,43	2238,00
2161,20	2196,00
2165,97	2156,00
2170,73	2201,00
2175,49	2210,00
2180,24	2101,00
2184,99	2228,00
2189,74	2176,00
2194,48	2190,00
2199,21	2099,00
2203,94	2118,00
2208,67	2171,00
2213,39	2096,00
2218,11	2018,00
2222,82	2188,00
2227,53	2092,00
2232,23	2151,00
2236,93	2137,00
2241,63	2169,00
2246,32	2231,00
2251,00	2078,00
2255,68	2115,00
2260,36	2004,00
2265,03	2013,00
2269,70	2235,00
2274,36	2137,00
2279,02	2016,00
2283,68	2000,00
2288,33	1921,00
2292,97	1895,00
2297,61	2033,00
2302,25	1964,00
2306,88	1804,00
2311,51	1937,00
2316,14	1902,00
2320,75	2044,00
2325,37	2023,00
2329,98	2040,00
2334,59	1968,00
2339,19	1929,00
2343,79	1904,00
2348,38	1860,00
2352,97	1767,00
2357,55	1821,00
2362,13	1834,00
2366,71	1708,00
2371,28	1911,00
2375,85	1787,00
2380,41	1834,00
2384,97	1781,00
2389,52	1762,00
2394,07	1857,00
2398,62	1819,00
2403,16	1752,00
2407,70	1701,00
2412,23	1651,00
2416,76	1771,00
2421,29	1684,00
2425,81	1709,00
2430,32	1760,00
2434,84	1656,00
2439,34	1688,00
2443,85	1540,00
2448,35	1624,00
2452,84	1623,00
2457,33	1594,00
2461,82	1537,00
2466,30	1673,00
2470,78	1653,00
2475,25	1631,00
2479,72	1571,00
2484,19	1417,00
2488,65	1519,00
2493,11	1572,00
2497,56	1526,00
2502,01	1528,00
2506,46	1488,00
2510,90	1492,00
2515,34	1532,00
2519,77	1457,00
2524,20	1542,00
2528,62	1526,00
2533,04	1543,00
2537,46	1431,00
2541,87	1481,00
2546,28	1506,00
2550,68	1493,00
2555,08	1461,00
2559,48	1473,00
2563,87	1441,00
2568,26	1211,00
2572,64	1345,00
2577,02	1496,00
2581,40	1368,00
2585,77	1356,00
2590,14	1307,00
2594,50	1345,00
2598,86	1282,00
2603,22	1280,00
2607,57	1410,00
2611,92	1199,00
2616,26	1225,00
2620,60	1269,00
2624,94	1249,00
2629,27	1375,00
2633,60	1182,00
2637,92	1354,00
2642,24	1333,00
2646,56	1368,00
2650,87	1232,00
2655,18	1270,00
2659,48	1253,00
2663,78	1246,00
2668,08	1162,00
2672,37	1228,00
2676,66	1331,00
2680,95	1308,00
2685,23	1271,00
2689,50	1217,00
2693,78	1173,00
2698,05	1295,00
2702,31	1262,00
2706,57	1256,00
2710,83	1162,00
2715,08	1259,00
2719,33	1273,00
2723,58	1223,00
2727,82	1405,00
2732,06	1278,00
2736,29	1181,00
2740,53	1327,00
2744,75	1144,00
2748,97	1168,00
2753,19	1264,00
2757,41	1190,00
2761,62	1177,00
2765,83	1149,00
2770,03	1149,00
2774,23	1186,00
2778,43	1198,00
2782,62	1156,00
2786,81	1226,00
2791,00	1098,00
2795,18	1149,00
2799,35	1323,00
2803,53	1217,00
2807,70	1115,00
2811,86	1194,00
2816,03	1335,00
2820,19	1311,00
2824,34	1337,00
2828,49	1351,00
2832,64	1476,00
2836,78	1588,00
2840,92	1903,00
2845,06	2042,00
2849,19	2316,00
2853,32	2159,00
2857,45	2278,00
2861,57	2177,00
2865,69	2172,00
2869,80	2135,00
2873,91	2192,00
2878,02	2244,00
2882,12	2414,00
2886,22	2345,00
2890,32	2239,00
2894,41	2101,00
2898,50	1987,00
2902,58	1751,00
2906,67	1802,00
2910,74	1707,00
2914,82	1712,00
2918,89	1590,00
2922,96	1470,00
2927,02	1377,00
2931,08	1263,00
2935,13	1328,00
2939,19	1259,00
2943,24	1270,00
2947,28	1175,00
2951,32	1089,00
2955,36	1001,00
2959,40	931,00
2963,43	1067,00
2967,46	972,00
2971,48	900,00
2975,50	875,00
2979,52	837,00
2983,53	766,00
2987,54	762,00
2991,55	811,00
2995,55	809,00
2999,55	814,00
3003,54	788,00
3007,54	672,00
3011,53	663,00
3015,51	771,00
3019,49	752,00
3023,47	709,00
3027,45	687,00
3031,42	805,00
3035,39	622,00
3039,35	673,00
3043,31	626,00
3047,27	621,00
3051,22	668,00
3055,17	616,00
3059,12	698,00
3063,06	726,00
3067,00	633,00
3070,94	562,00
3074,87	676,00
3078,80	560,00
3082,73	526,00
3086,65	649,00
3090,57	593,00
3094,49	498,00
3098,40	557,00
3102,31	520,00
3106,22	545,00
3110,12	639,00
3114,02	572,00
3117,92	579,00
3121,81	591,00
3125,70	533,00
3129,58	490,00
3133,47	449,00
3137,34	580,00
3141,22	469,00
3145,09	585,00
3148,96	409,00
3152,83	352,00
3156,69	552,00
3160,55	576,00
3164,40	427,00
3168,26	429,00
3172,10	479,00
3175,95	551,00
3179,79	379,00
3183,63	444,00
3187,47	560,00
3191,30	412,00
3195,13	500,00
3198,95	433,00
3202,78	459,00
3206,60	394,00
3210,41	394,00
3214,23	391,00
3218,03	477,00
3221,84	430,00
3225,64	446,00
3229,44	353,00
3233,24	448,00
3237,03	446,00
3240,82	345,00
3244,61	387,00
3248,39	393,00
3252,17	394,00
3255,95	328,00
3259,72	397,00
3263,49	399,00
3267,26	327,00
3271,03	330,00
3274,79	381,00
3278,54	496,00
3282,30	270,00
3286,05	468,00
3289,80	305,00
3293,54	299,00
3297,29	310,00
3301,02	247,00
3304,76	473,00
3308,49	330,00
3312,22	300,00
3315,95	350,00
3319,67	361,00
3323,39	357,00
3327,10	325,00
3330,82	305,00
3334,53	210,00
3338,24	318,00
3341,94	247,00
3345,64	328,00
3349,34	289,00
3353,03	178,00
3356,72	289,00
3360,41	298,00
3364,10	199,00
3367,78	341,00
3371,46	178,00
3375,13	239,00
3378,81	321,00
3382,48	383,00
3386,14	297,00
3389,81	311,00
3393,47	305,00
3397,12	287,00
3400,78	191,00
3404,43	296,00
3408,08	249,00
3411,72	230,00
3415,36	290,00
3419,00	336,00
3422,64	210,00
3426,27	267,00
3429,90	371,00
3433,53	268,00
3437,15	234,00
3440,77	255,00
3444,39	386,00
3448,00	286,00
3451,62	254,00
3455,22	182,00
3458,83	168,00
3462,43	165,00
3466,03	270,00
3469,63	249,00
3473,22	283,00
3476,81	345,00
3480,40	287,00
3483,99	239,00
3487,57	269,00
3491,15	112,00
3494,72	216,00
3498,29	310,00
3501,86	159,00
3505,43	235,00
3508,99	112,00
3512,56	310,00
3516,11	255,00
3519,67	229,00
3523,22	267,00
3526,77	200,00
3530,32	226,00
3533,86	245,00
3537,40	125,00
3540,94	152,00
3544,47	188,00
3548,00	190,00
3551,53	145,00
3555,06	150,00
3558,58	144,00
3562,10	164,00
3565,62	144,00
3569,13	168,00
3572,64	213,00
3576,15	219,00
3579,66	210,00
3583,16	149,00
3586,66	287,00
3590,16	195,00
3593,65	154,00
3597,14	158,00
3600,63	238,00
3604,11	84,00
3607,60	122,00
3611,08	140,00
3614,55	77,00
3618,03	284,00
3621,50	247,00
3624,97	204,00
3628,43	87,00
3631,90	245,00
3635,36	137,00
3638,81	89,00
3642,27	127,00
3645,72	278,00
3649,17	200,00
3652,61	171,00
3656,06	183,00
3659,50	215,00
3662,93	204,00
3666,37	234,00
3669,80	71,00
3673,23	81,00
3676,65	252,00
3680,08	174,00
3683,50	128,00
3686,92	158,00
3690,33	73,00
3693,74	227,00
3697,15	151,00
3700,56	174,00
3703,96	76,00
3707,36	202,00
3710,76	124,00
3714,16	101,00
3717,55	113,00
3720,94	95,00
3724,33	81,00
3727,71	78,00
3731,10	124,00
3734,48	99,00
3737,85	174,00
3741,23	142,00
3744,60	99,00
3747,97	107,00
3751,33	97,00
3754,69	73,00
3758,05	149,00
3761,41	59,00
3764,77	158,00
3768,12	129,00
3771,47	50,00
3774,82	228,00
3778,16	-5,00
3781,50	2,00
3784,84	3,00
3788,18	-4,00
>>>>>End Processed Spectral Data<<<<<
