SpectraSuite Data File
++++++++++++++++++++++++++++++++++++
Date: Wed Feb 11 16:59:23 ICT 2026
User: Administrator
Dark Spectrum Present: Yes
Reference Spectrum Present: No
Number of Sampled Component Spectra: 1
Spectrometers: MAYP113682
Integration Time (usec): 3000000 (MAYP113682)
Spectra Averaged: 1 (MAYP113682)
Boxcar Smoothing: 0 (MAYP113682)
Correct for Electrical Dark: No (MAYP113682)
Strobe/Lamp Enabled: No (MAYP113682)
Correct for Detector Non-linearity: No (MAYP113682)
Correct for Stray Light: No (MAYP113682)
Number of Pixels in Processed Spectrum: 2068
>>>>>Begin Processed Spectral Data<<<<<
-37534,58	3,00
-37414,56	-4,00
-37295,11	1,00
-37176,24	-4,00
-37057,95	30,00
-36940,22	-55,00
-36823,05	25,00
-36706,45	47,00
-36590,40	78,00
-36474,90	-1,00
-36359,95	-109,00
-36245,55	76,00
-36131,68	-51,00
-36018,35	-19,00
-35905,55	136,00
-35793,29	26,00
-35681,54	-38,00
-35570,32	51,00
-35459,62	58,00
-35349,43	-30,00
-35239,75	77,00
-35130,58	63,00
-35021,91	-41,00
-34913,74	-18,00
-34806,07	-42,00
-34698,89	26,00
-34592,20	-46,00
-34486,00	64,00
-34380,28	69,00
-34275,04	-96,00
-34170,27	-2,00
-34065,98	-97,00
-33962,16	-52,00
-33858,81	81,00
-33755,92	-9,00
-33653,49	-71,00
-33551,52	64,00
-33450,01	-48,00
-33348,94	38,00
-33248,33	-69,00
-33148,16	20,00
-33048,43	-12,00
-32949,14	-51,00
-32850,29	-51,00
-32751,87	45,00
-32653,89	-84,00
-32556,33	-28,00
-32459,20	35,00
-32362,49	1,00
-32266,19	-35,00
-32170,32	30,00
-32074,86	10,00
-31979,82	-2,00
-31885,18	22,00
-31790,95	7,00
-31697,12	-110,00
-31603,69	-55,00
-31510,67	-33,00
-31418,04	29,00
-31325,80	56,00
-31233,95	196,00
-31142,49	-89,00
-31051,42	-80,00
-30960,73	59,00
-30870,43	-61,00
-30780,50	2,00
-30690,95	52,00
-30601,77	10,00
-30512,97	-28,00
-30424,53	72,00
-30336,46	-97,00
-30248,76	6,00
-30161,42	-20,00
-30074,44	62,00
-29987,81	-42,00
-29901,55	75,00
-29815,63	127,00
-29730,07	17,00
-29644,86	-37,00
-29560,00	-33,00
-29475,48	31,00
-29391,30	-93,00
-29307,47	8,00
-29223,97	76,00
-29140,81	-58,00
-29057,99	20,00
-28975,50	66,00
-28893,34	-66,00
-28811,51	11,00
-28730,00	-11,00
-28648,82	30,00
-28567,97	117,00
-28487,43	-39,00
-28407,21	-51,00
-28327,32	-44,00
-28247,73	23,00
-28168,46	118,00
-28089,50	-20,00
-28010,85	-14,00
-27932,51	-23,00
-27854,48	-9,00
-27776,75	23,00
-27699,32	-3,00
-27622,19	66,00
-27545,37	-39,00
-27468,84	-30,00
-27392,60	94,00
-27316,66	-1,00
-27241,01	29,00
-27165,66	-12,00
-27090,59	-34,00
-27015,81	-5,00
-26941,31	70,00
-26867,10	-29,00
-26793,17	55,00
-26719,52	6,00
-26646,15	-93,00
-26573,06	29,00
-26500,24	-5,00
-26427,70	0,00
-26355,43	-1,00
-26283,43	-12,00
-26211,71	-75,00
-26140,25	114,00
-26069,06	6,00
-25998,13	-35,00
-25927,46	-101,00
-25857,06	-68,00
-25786,92	71,00
-25717,04	-3,00
-25647,42	104,00
-25578,05	20,00
-25508,94	-77,00
-25440,09	-20,00
-25371,48	-9,00
-25303,13	79,00
-25235,02	-2,00
-25167,17	129,00
-25099,56	-3,00
-25032,19	90,00
-24965,07	-29,00
-24898,20	-2,00
-24831,56	86,00
-24765,17	-106,00
-24699,01	102,00
-24633,10	26,00
-24567,41	-4,00
-24501,97	-24,00
-24436,75	17,00
-24371,77	-46,00
-24307,03	31,00
-24242,51	-53,00
-24178,22	-54,00
-24114,16	44,00
-24050,32	81,00
-23986,71	13,00
-23923,32	49,00
-23860,16	-98,00
-23797,22	-16,00
-23734,50	79,00
-23672,00	52,00
-23609,71	-109,00
-23547,65	-16,00
-23485,80	119,00
-23424,16	-25,00
-23362,74	16,00
-23301,53	-114,00
-23240,54	97,00
-23179,75	19,00
-23119,17	21,00
-23058,80	82,00
-22998,64	43,00
-22938,68	13,00
-22878,93	-20,00
-22819,39	-15,00
-22760,04	-14,00
-22700,90	-94,00
-22641,96	73,00
-22583,22	2,00
-22524,68	-84,00
-22466,33	-44,00
-22408,19	60,00
-22350,23	-15,00
-22292,48	27,00
-22234,92	-37,00
-22177,55	-58,00
-22120,37	9,00
-22063,38	80,00
-22006,58	88,00
-21949,98	41,00
-21893,56	0,00
-21837,33	10,00
-21781,28	-59,00
-21725,42	8,00
-21669,74	111,00
-21614,25	75,00
-21558,94	-16,00
-21503,81	44,00
-21448,86	-25,00
-21394,10	115,00
-21339,51	78,00
-21285,10	59,00
-21230,86	18,00
-21176,81	-43,00
-21122,93	-28,00
-21069,22	29,00
-21015,69	123,00
-20962,33	14,00
-20909,14	-27,00
-20856,13	143,00
-20803,28	91,00
-20750,61	39,00
-20698,10	61,00
-20645,76	-46,00
-20593,59	60,00
-20541,59	5,00
-20489,75	62,00
-20438,07	1,00
-20386,56	6,00
-20335,22	-44,00
-20284,03	50,00
-20233,01	66,00
-20182,15	-39,00
-20131,45	-125,00
-20080,91	-44,00
-20030,52	1,00
-19980,30	-39,00
-19930,23	-37,00
-19880,32	0,00
-19830,56	-6,00
-19780,96	63,00
-19731,52	19,00
-19682,23	70,00
-19633,09	-161,00
-19584,10	33,00
-19535,26	5,00
-19486,58	40,00
-19438,04	153,00
-19389,66	27,00
-19341,42	77,00
-19293,33	-96,00
-19245,39	-49,00
-19197,60	-23,00
-19149,95	-13,00
-19102,45	60,00
-19055,09	87,00
-19007,87	15,00
-18960,80	116,00
-18913,87	89,00
-18867,09	-39,00
-18820,44	58,00
-18773,94	23,00
-18727,57	-168,00
-18681,35	126,00
-18635,26	56,00
-18589,31	-57,00
-18543,50	-25,00
-18497,83	84,00
-18452,29	-12,00
-18406,89	5,00
-18361,63	-15,00
-18316,50	-14,00
-18271,50	22,00
-18226,63	-37,00
-18181,90	65,00
-18137,30	79,00
-18092,84	119,00
-18048,50	16,00
-18004,29	-45,00
-17960,22	21,00
-17916,27	8,00
-17872,45	57,00
-17828,76	26,00
-17785,20	99,00
-17741,77	9,00
-17698,46	-51,00
-17655,28	-26,00
-17612,22	1,00
-17569,29	-64,00
-17526,48	46,00
-17483,79	61,00
-17441,23	-105,00
-17398,79	39,00
-17356,48	100,00
-17314,28	-3,00
-17272,21	81,00
-17230,26	-54,00
-17188,42	-1,00
-17146,71	-34,00
-17105,12	-24,00
-17063,64	23,00
-17022,28	-49,00
-16981,04	17,00
-16939,92	22,00
-16898,91	20,00
-16858,02	17,00
-16817,25	-89,00
-16776,59	41,00
-16736,04	-60,00
-16695,61	-31,00
-16655,29	-64,00
-16615,09	-4,00
-16574,99	12,00
-16535,01	-55,00
-16495,15	-10,00
-16455,39	67,00
-16415,74	-36,00
-16376,21	-16,00
-16336,78	38,00
-16297,46	40,00
-16258,26	31,00
-16219,16	16,00
-16180,17	-47,00
-16141,28	25,00
-16102,51	6,00
-16063,84	47,00
-16025,27	-9,00
-15986,82	140,00
-15948,46	75,00
-15910,22	111,00
-15872,07	12,00
-15834,04	-142,00
-15796,10	47,00
-15758,27	70,00
-15720,54	38,00
-15682,91	140,00
-15645,39	-10,00
-15607,97	36,00
-15570,64	83,00
-15533,42	-7,00
-15496,30	-47,00
-15459,28	59,00
-15422,36	27,00
-15385,54	-35,00
-15348,82	111,00
-15312,19	-51,00
-15275,66	79,00
-15239,23	49,00
-15202,90	-40,00
-15166,67	-62,00
-15130,53	-79,00
-15094,48	22,00
-15058,54	31,00
-15022,68	37,00
-14986,93	47,00
-14951,26	-6,00
-14915,69	-4,00
-14880,22	130,00
-14844,84	-34,00
-14809,55	112,00
-14774,35	-42,00
-14739,25	-25,00
-14704,24	12,00
-14669,32	-100,00
-14634,49	-67,00
-14599,75	58,00
-14565,10	-62,00
-14530,55	-116,00
-14496,08	-98,00
-14461,70	79,00
-14427,41	11,00
-14393,21	-29,00
-14359,10	-47,00
-14325,07	-23,00
-14291,14	-8,00
-14257,29	65,00
-14223,52	19,00
-14189,85	-119,00
-14156,26	69,00
-14122,76	25,00
-14089,34	78,00
-14056,01	-117,00
-14022,76	-8,00
-13989,60	-36,00
-13956,52	-7,00
-13923,53	-36,00
-13890,62	12,00
-13857,79	-50,00
-13825,05	2,00
-13792,39	-60,00
-13759,81	20,00
-13727,31	44,00
-13694,90	82,00
-13662,57	46,00
-13630,31	-34,00
-13598,14	18,00
-13566,05	40,00
-13534,05	-25,00
-13502,12	24,00
-13470,27	68,00
-13438,50	-79,00
-13406,80	19,00
-13375,19	4,00
-13343,66	47,00
-13312,20	99,00
-13280,83	-85,00
-13249,53	81,00
-13218,30	-91,00
-13187,16	-16,00
-13156,09	90,00
-13125,10	72,00
-13094,18	13,00
-13063,34	-73,00
-13032,58	34,00
-13001,89	-2,00
-12971,28	32,00
-12940,74	-54,00
-12910,27	54,00
-12879,88	-19,00
-12849,57	40,00
-12819,33	-5,00
-12789,16	151,00
-12759,06	40,00
-12729,04	-31,00
-12699,09	-58,00
-12669,21	-27,00
-12639,41	-113,00
-12609,68	43,00
-12580,02	73,00
-12550,43	-118,00
-12520,91	77,00
-12491,46	40,00
-12462,08	88,00
-12432,77	-104,00
-12403,54	44,00
-12374,37	140,00
-12345,27	-79,00
-12316,24	29,00
-12287,29	5,00
-12258,40	18,00
-12229,57	59,00
-12200,82	-23,00
-12172,14	-22,00
-12143,52	8,00
-12114,97	86,00
-12086,49	44,00
-12058,07	3,00
-12029,73	111,00
-12001,44	30,00
-11973,23	26,00
-11945,08	-67,00
-11917,00	136,00
-11888,98	38,00
-11861,03	42,00
-11833,15	19,00
-11805,32	6,00
-11777,57	-75,00
-11749,88	54,00
-11722,25	-77,00
-11694,69	40,00
-11667,19	-121,00
-11639,75	11,00
-11612,38	35,00
-11585,07	-47,00
-11557,83	27,00
-11530,65	-70,00
-11503,53	-20,00
-11476,47	39,00
-11449,48	-75,00
-11422,54	36,00
-11395,67	-19,00
-11368,86	77,00
-11342,11	-61,00
-11315,43	10,00
-11288,80	-40,00
-11262,23	48,00
-11235,73	-4,00
-11209,28	29,00
-11182,90	-31,00
-11156,57	21,00
-11130,31	64,00
-11104,10	29,00
-11077,96	22,00
-11051,87	-17,00
-11025,84	14,00
-10999,87	47,00
-10973,96	-7,00
-10948,11	4,00
-10922,31	60,00
-10896,58	61,00
-10870,90	7,00
-10845,28	159,00
-10819,71	128,00
-10794,20	3,00
-10768,75	75,00
-10743,36	13,00
-10718,02	73,00
-10692,74	61,00
-10667,52	-101,00
-10642,35	124,00
-10617,24	64,00
-10592,18	168,00
-10567,18	73,00
-10542,23	43,00
-10517,34	31,00
-10492,51	11,00
-10467,72	106,00
-10443,00	38,00
-10418,32	162,00
-10393,70	105,00
-10369,14	123,00
-10344,63	134,00
-10320,17	166,00
-10295,77	165,00
-10271,42	111,00
-10247,12	250,00
-10222,88	131,00
-10198,68	221,00
-10174,54	265,00
-10150,46	193,00
-10126,42	227,00
-10102,44	256,00
-10078,51	345,00
-10054,63	262,00
-10030,80	354,00
-10007,03	347,00
-9983,30	231,00
-9959,63	347,00
-9936,01	295,00
-9912,44	393,00
-9888,92	348,00
-9865,44	383,00
-9842,02	388,00
-9818,65	479,00
-9795,33	623,00
-9772,06	574,00
-9748,84	505,00
-9725,67	616,00
-9702,55	629,00
-9679,47	788,00
-9656,45	840,00
-9633,47	875,00
-9610,55	889,00
-9587,67	1053,00
-9564,84	1076,00
-9542,06	1223,00
-9519,32	1307,00
-9496,64	1440,00
-9474,00	1728,00
-9451,41	1731,00
-9428,87	1561,00
-9406,37	1765,00
-9383,92	1573,00
-9361,52	1595,00
-9339,17	1645,00
-9316,86	1967,00
-9294,60	2273,00
-9272,38	2458,00
-9250,21	2822,00
-9228,09	2954,00
-9206,01	2967,00
-9183,98	2656,00
-9162,00	2369,00
-9140,06	2313,00
-9118,16	2362,00
-9096,31	2432,00
-9074,51	2494,00
-9052,75	2701,00
-9031,04	2581,00
-9009,37	2286,00
-8987,74	1947,00
-8966,16	1722,00
-8944,63	1640,00
-8923,14	1600,00
-8901,69	1576,00
-8880,29	1734,00
-8858,93	1991,00
-8837,61	2079,00
-8816,34	2296,00
-8795,11	2352,00
-8773,92	2034,00
-8752,78	1898,00
-8731,68	1866,00
-8710,62	1798,00
-8689,61	1932,00
-8668,63	1997,00
-8647,70	2133,00
-8626,82	2169,00
-8605,97	2085,00
-8585,17	1921,00
-8564,41	1670,00
-8543,69	1700,00
-8523,01	1603,00
-8502,37	1507,00
-8481,78	1728,00
-8461,23	1924,00
-8440,71	1859,00
-8420,24	2132,00
-8399,81	2076,00
-8379,42	2193,00
-8359,08	1918,00
-8338,77	1791,00
-8318,50	1698,00
-8298,27	1591,00
-8278,09	1615,00
-8257,94	1740,00
-8237,83	1981,00
-8217,76	1895,00
-8197,74	2076,00
-8177,75	1871,00
-8157,80	1834,00
-8137,89	1595,00
-8118,02	1453,00
-8098,19	1561,00
-8078,40	1659,00
-8058,65	1595,00
-8038,93	1694,00
-8019,26	1691,00
-7999,62	1529,00
-7980,02	1461,00
-7960,46	1296,00
-7940,94	1312,00
-7921,46	1357,00
-7902,01	1382,00
-7882,60	1178,00
-7863,23	1291,00
-7843,90	1335,00
-7824,61	1368,00
-7805,35	1528,00
-7786,13	1351,00
-7766,95	1420,00
-7747,80	1443,00
-7728,69	1195,00
-7709,62	1268,00
-7690,59	1352,00
-7671,59	1591,00
-7652,63	1572,00
-7633,70	1467,00
-7614,81	1515,00
-7595,96	1218,00
-7577,15	1261,00
-7558,37	1258,00
-7539,62	1160,00
-7520,91	1365,00
-7502,24	1524,00
-7483,60	1379,00
-7465,00	1367,00
-7446,44	1170,00
-7427,91	1097,00
-7409,41	856,00
-7390,95	908,00
-7372,53	779,00
-7354,14	807,00
-7335,78	815,00
-7317,46	897,00
-7299,18	980,00
-7280,92	1084,00
-7262,71	1213,00
-7244,52	1282,00
-7226,38	1327,00
-7208,26	1269,00
-7190,18	1220,00
-7172,14	1095,00
-7154,12	1100,00
-7136,15	1154,00
-7118,20	1278,00
-7100,29	1251,00
-7082,41	1225,00
-7064,57	1314,00
-7046,76	1038,00
-7028,98	890,00
-7011,24	828,00
-6993,53	863,00
-6975,85	848,00
-6958,20	604,00
-6940,59	686,00
-6923,01	617,00
-6905,46	808,00
-6887,94	799,00
-6870,46	3557,00
-6853,01	1201,00
-6835,59	1149,00
-6818,21	1010,00
-6800,85	842,00
-6783,53	676,00
-6766,24	515,00
-6748,98	464,00
-6731,76	527,00
-6714,56	420,00
-6697,40	585,00
-6680,26	450,00
-6663,16	553,00
-6646,09	702,00
-6629,05	813,00
-6612,05	893,00
-6595,07	951,00
-6578,13	730,00
-6561,21	640,00
-6544,33	503,00
-6527,47	366,00
-6510,65	451,00
-6493,86	408,00
-6477,10	290,00
-6460,36	524,00
-6443,66	451,00
-6426,99	338,00
-6410,35	384,00
-6393,74	327,00
-6377,16	521,00
-6360,61	520,00
-6344,09	721,00
-6327,59	618,00
-6311,13	698,00
-6294,70	644,00
-6278,29	715,00
-6261,92	840,00
-6245,58	732,00
-6229,26	864,00
-6212,97	701,00
-6196,72	680,00
-6180,49	438,00
-6164,29	186,00
-6148,12	169,00
-6131,98	160,00
-6115,86	222,00
-6099,78	117,00
-6083,72	155,00
-6067,69	165,00
-6051,69	210,00
-6035,72	93,00
-6019,78	371,00
-6003,87	465,00
-5987,98	545,00
-5972,12	672,00
-5956,29	571,00
-5940,49	484,00
-5924,71	442,00
-5908,96	188,00
-5893,24	184,00
-5877,55	272,00
-5861,89	217,00
-5846,25	246,00
-5830,64	324,00
-5815,05	154,00
-5799,50	268,00
-5783,97	342,00
-5768,47	331,00
-5752,99	492,00
-5737,55	525,00
-5722,12	530,00
-5706,73	668,00
-5691,36	429,00
-5676,02	261,00
-5660,71	154,00
-5645,42	239,00
-5630,16	263,00
-5614,92	371,00
-5599,71	436,00
-5584,53	408,00
-5569,37	444,00
-5554,24	1164,00
-5539,14	400,00
-5524,06	307,00
-5509,01	229,00
-5493,98	439,00
-5478,98	434,00
-5464,00	283,00
-5449,05	426,00
-5434,13	271,00
-5419,23	158,00
-5404,36	198,00
-5389,51	366,00
-5374,69	463,00
-5359,89	645,00
-5345,12	766,00
-5330,37	597,00
-5315,65	533,00
-5300,95	509,00
-5286,28	346,00
-5271,63	321,00
-5257,01	333,00
-5242,41	286,00
-5227,84	334,00
-5213,29	229,00
-5198,76	159,00
-5184,26	68,00
-5169,79	147,00
-5155,33	252,00
-5140,91	271,00
-5126,51	364,00
-5112,13	419,00
-5097,77	310,00
-5083,44	183,00
-5069,13	144,00
-5054,85	247,00
-5040,59	372,00
-5026,36	234,00
-5012,15	377,00
-4997,96	363,00
-4983,80	292,00
-4969,66	185,00
-4955,54	124,00
-4941,44	309,00
-4927,37	509,00
-4913,33	644,00
-4899,30	748,00
-4885,30	685,00
-4871,33	366,00
-4857,37	241,00
-4843,44	138,00
-4829,53	120,00
-4815,65	449,00
-4801,79	269,00
-4787,95	291,00
-4774,13	232,00
-4760,34	133,00
-4746,56	-8,00
-4732,82	151,00
-4719,09	142,00
-4705,38	416,00
-4691,70	500,00
-4678,04	537,00
-4664,41	355,00
-4650,79	239,00
-4637,20	196,00
-4623,63	209,00
-4610,08	189,00
-4596,56	269,00
-4583,05	337,00
-4569,57	362,00
-4556,11	108,00
-4542,67	181,00
-4529,25	224,00
-4515,86	296,00
-4502,49	489,00
-4489,13	498,00
-4475,80	357,00
-4462,49	227,00
-4449,21	281,00
-4435,94	73,00
-4422,70	264,00
-4409,47	305,00
-4396,27	295,00
-4383,09	208,00
-4369,93	108,00
-4356,79	79,00
-4343,67	67,00
-4330,58	153,00
-4317,50	309,00
-4304,45	120,00
-4291,41	170,00
-4278,40	82,00
-4265,41	114,00
-4252,44	216,00
-4239,49	199,00
-4226,55	257,00
-4213,65	266,00
-4200,76	72,00
-4187,89	90,00
-4175,04	180,00
-4162,21	82,00
-4149,40	112,00
-4136,61	36,00
-4123,85	72,00
-4111,10	22,00
-4098,37	-31,00
-4085,66	134,00
-4072,98	70,00
-4060,31	-3,00
-4047,66	-28,00
-4035,04	25,00
-4022,43	-2,00
-4009,84	88,00
-3997,27	-2,00
-3984,72	66,00
-3972,19	66,00
-3959,69	-20,00
-3947,20	72,00
-3934,73	8,00
-3922,27	46,00
-3909,84	-68,00
-3897,43	-36,00
-3885,04	130,00
-3872,67	-59,00
-3860,31	26,00
-3847,98	-26,00
-3835,66	20,00
-3823,36	47,00
-3811,09	16,00
-3798,83	72,00
-3786,59	-76,00
-3774,37	-38,00
-3762,17	52,00
-3749,98	4,00
-3737,82	148,00
-3725,67	30,00
-3713,55	9,00
-3701,44	7,00
-3689,35	27,00
-3677,28	44,00
-3665,22	64,00
-3653,19	-106,00
-3641,17	-36,00
-3629,18	-98,00
-3617,20	-15,00
-3605,24	68,00
-3593,30	-2,00
-3581,37	-78,00
-3569,47	-24,00
-3557,58	-36,00
-3545,71	-33,00
-3533,86	78,00
-3522,02	3,00
-3510,21	22,00
-3498,41	117,00
-3486,63	-39,00
-3474,87	-37,00
-3463,12	-24,00
-3451,40	83,00
-3439,69	44,00
-3428,00	57,00
-3416,33	-63,00
-3404,67	-22,00
-3393,03	-95,00
-3381,41	5,00
-3369,81	-18,00
-3358,22	-95,00
-3346,66	0,00
-3335,10	54,00
-3323,57	91,00
-3312,06	58,00
-3300,56	14,00
-3289,08	-16,00
-3277,61	-89,00
-3266,16	-71,00
-3254,73	55,00
-3243,32	95,00
-3231,92	4,00
-3220,55	23,00
-3209,18	89,00
-3197,84	-8,00
-3186,51	-133,00
-3175,20	-111,00
-3163,90	-40,00
-3152,63	8,00
-3141,36	26,00
-3130,12	51,00
-3118,89	73,00
-3107,68	-24,00
-3096,49	26,00
-3085,31	42,00
-3074,15	-17,00
-3063,00	10,00
-3051,87	57,00
-3040,76	-1,00
-3029,67	53,00
-3018,59	4,00
-3007,52	-55,00
-2996,48	-27,00
-2985,44	74,00
-2974,43	64,00
-2963,43	-10,00
-2952,45	32,00
-2941,48	58,00
-2930,53	113,00
-2919,60	97,00
-2908,68	-45,00
-2897,78	-52,00
-2886,89	32,00
-2876,02	-87,00
-2865,17	-36,00
-2854,33	-28,00
-2843,50	12,00
-2832,70	113,00
-2821,90	102,00
-2811,13	3,00
-2800,37	14,00
-2789,62	25,00
-2778,89	26,00
-2768,18	142,00
-2757,48	46,00
-2746,80	57,00
-2736,13	-17,00
-2725,48	6,00
-2714,84	-100,00
-2704,22	-39,00
-2693,61	13,00
-2683,02	-68,00
-2672,45	-38,00
-2661,89	89,00
-2651,34	112,00
-2640,81	-38,00
-2630,30	-5,00
-2619,80	0,00
-2609,31	-8,00
-2598,84	-40,00
-2588,39	42,00
-2577,95	-76,00
-2567,52	-9,00
-2557,11	-86,00
-2546,71	65,00
-2536,33	5,00
-2525,97	-13,00
-2515,62	21,00
-2505,28	26,00
-2494,96	-100,00
-2484,65	-7,00
-2474,36	46,00
-2464,08	11,00
-2453,82	147,00
-2443,57	15,00
-2433,33	44,00
-2423,11	19,00
-2412,91	78,00
-2402,72	-91,00
-2392,54	-35,00
-2382,38	-1,00
-2372,23	23,00
-2362,09	4125,00
-2351,97	-11,00
-2341,87	119,00
-2331,78	34,00
-2321,70	2,00
-2311,64	6,00
-2301,59	96,00
-2291,55	-3,00
-2281,53	-80,00
-2271,53	-18,00
-2261,53	-51,00
-2251,55	107,00
-2241,59	29,00
-2231,64	86,00
-2221,70	1,00
-2211,78	-54,00
-2201,87	-58,00
-2191,97	60,00
-2182,09	-19,00
-2172,22	33,00
-2162,37	-126,00
-2152,53	-11,00
-2142,70	-11,00
-2132,89	105,00
-2123,09	-74,00
-2113,30	41,00
-2103,53	26,00
-2093,77	-17,00
-2084,02	7,00
-2074,29	7,00
-2064,57	-6,00
-2054,86	-40,00
-2045,17	65,00
-2035,49	-82,00
-2025,82	13,00
-2016,17	75,00
-2006,53	8,00
-1996,91	-38,00
-1987,29	-61,00
-1977,69	29,00
-1968,11	107,00
-1958,53	25,00
-1948,97	137,00
-1939,42	53,00
-1929,89	-4,00
-1920,37	113,00
-1910,86	33,00
-1901,36	-76,00
-1891,88	-11,00
-1882,41	-53,00
-1872,95	-74,00
-1863,51	84,00
-1854,08	-26,00
-1844,66	-46,00
-1835,26	-55,00
-1825,86	24,00
-1816,48	72,00
-1807,11	43,00
-1797,76	-88,00
-1788,42	76,00
-1779,09	1,00
-1769,77	70,00
-1760,47	-29,00
-1751,17	13,00
-1741,89	30,00
-1732,63	81,00
-1723,37	33,00
-1714,13	10,00
-1704,90	17,00
-1695,68	128,00
-1686,48	7,00
-1677,29	-9,00
-1668,11	60,00
-1658,94	84,00
-1649,78	44,00
-1640,64	-71,00
-1631,51	72,00
-1622,39	-46,00
-1613,28	85,00
-1604,19	-74,00
-1595,10	104,00
-1586,03	-68,00
-1576,97	84,00
-1567,93	-68,00
-1558,89	-23,00
-1549,87	-30,00
-1540,86	-16,00
-1531,86	48,00
-1522,87	-20,00
-1513,90	-24,00
-1504,93	14,00
-1495,98	0,00
-1487,04	-2,00
-1478,12	99,00
-1469,20	-66,00
-1460,30	33,00
-1451,40	61,00
-1442,52	74,00
-1433,65	100,00
-1424,80	-3,00
-1415,95	4,00
-1407,12	32,00
-1398,30	-40,00
-1389,48	-148,00
-1380,69	-20,00
-1371,90	-18,00
-1363,12	-19,00
-1354,36	122,00
-1345,60	-51,00
-1336,86	69,00
-1328,13	35,00
-1319,41	-10,00
-1310,70	-45,00
-1302,01	-112,00
-1293,32	20,00
-1284,65	-122,00
-1275,99	-72,00
-1267,33	55,00
-1258,69	81,00
-1250,06	94,00
-1241,45	19,00
-1232,84	6,00
-1224,25	10,00
-1215,66	24,00
-1207,09	35,00
-1198,53	148,00
-1189,97	33,00
-1181,43	46,00
-1172,91	-12,00
-1164,39	16,00
-1155,88	-76,00
-1147,38	165,00
-1138,90	74,00
-1130,43	-3,00
-1121,96	35,00
-1113,51	6,00
-1105,07	73,00
-1096,64	7,00
-1088,22	42,00
-1079,81	115,00
-1071,41	-70,00
-1063,02	47,00
-1054,65	84,00
-1046,28	42,00
-1037,92	-78,00
-1029,58	-69,00
-1021,24	-39,00
-1012,92	-24,00
-1004,61	97,00
-996,30	105,00
-988,01	132,00
-979,73	50,00
-971,46	-9,00
-963,20	-81,00
-954,95	25,00
-946,71	19,00
-938,48	-33,00
-930,26	27,00
-922,06	83,00
-913,86	17,00
-905,67	46,00
-897,49	92,00
-889,33	-133,00
-881,17	30,00
-873,02	66,00
-864,89	-69,00
-856,76	-25,00
-848,65	58,00
-840,54	39,00
-832,45	110,00
-824,36	41,00
-816,29	124,00
-808,22	-73,00
-800,17	37,00
-792,12	124,00
-784,09	-36,00
-776,06	-63,00
-768,05	-60,00
-760,04	125,00
-752,05	-2,00
-744,07	75,00
-736,09	20,00
-728,13	122,00
-720,17	-9,00
-712,23	-65,00
-704,29	137,00
-696,37	-2,00
-688,45	-56,00
-680,55	82,00
-672,65	112,00
-664,77	71,00
-656,89	19,00
-649,03	-39,00
-641,17	-73,00
-633,32	3,00
-625,49	51,00
-617,66	-31,00
-609,84	32,00
-602,03	9,00
-594,23	-24,00
-586,45	-31,00
-578,67	-69,00
-570,90	51,00
-563,14	69,00
-555,39	-100,00
-547,65	-59,00
-539,91	-49,00
-532,19	48,00
-524,48	-11,00
-516,78	-99,00
-509,08	-1,00
-501,40	-43,00
-493,72	117,00
-486,06	65,00
-478,40	-56,00
-470,76	97,00
-463,12	8,00
-455,49	56,00
-447,87	38,00
-440,26	-21,00
-432,66	42,00
-425,07	94,00
-417,49	-97,00
-409,92	28,00
-402,35	-19,00
-394,80	20,00
-387,25	-12,00
-379,72	65,00
-372,19	10,00
-364,67	90,00
-357,17	70,00
-349,67	14,00
-342,18	31,00
-334,69	148,00
-327,22	205,00
-319,76	9,00
-312,30	95,00
-304,86	1,00
-297,42	45,00
-290,00	86,00
-282,58	19,00
-275,17	109,00
-267,77	57,00
-260,37	47,00
-252,99	-6,00
-245,62	132,00
-238,25	14,00
-230,90	37,00
-223,55	105,00
-216,21	151,00
-208,88	178,00
-201,56	130,00
-194,25	148,00
-186,94	300,00
-179,65	268,00
-172,36	195,00
-165,08	279,00
-157,81	284,00
-150,55	190,00
-143,30	375,00
-136,06	250,00
-128,82	323,00
-121,60	378,00
-114,38	427,00
-107,17	422,00
-99,97	469,00
-92,78	674,00
-85,60	581,00
-78,42	956,00
-71,25	1078,00
-64,10	1193,00
-56,95	1447,00
-49,81	1660,00
-42,67	1898,00
-35,55	2522,00
-28,43	3247,00
-21,33	5446,00
-14,23	17131,00
-7,14	56043,00
-0,05	55763,00
7,02	55513,00
14,09	55717,00
21,14	17733,00
28,19	7169,00
35,23	4383,00
42,27	3296,00
49,29	2624,00
56,31	2322,00
63,32	1949,00
70,32	1502,00
77,31	1320,00
84,29	1125,00
91,27	933,00
98,23	967,00
105,19	903,00
112,14	881,00
119,09	1374,00
126,02	2280,00
132,95	2639,00
139,87	2673,00
146,78	2625,00
153,68	2777,00
160,58	2672,00
167,46	2677,00
174,34	2604,00
181,21	2578,00
188,08	2641,00
194,93	2487,00
201,78	2703,00
208,62	2630,00
215,45	2594,00
222,27	2581,00
229,09	2619,00
235,90	2609,00
242,70	2653,00
249,49	2661,00
256,27	2466,00
263,05	2400,00
269,82	2524,00
276,58	2507,00
283,33	2485,00
290,08	2526,00
296,82	2348,00
303,55	2391,00
310,27	2360,00
316,98	2384,00
323,69	2351,00
330,39	2240,00
337,08	2271,00
343,76	2333,00
350,44	2313,00
357,11	2309,00
363,77	2349,00
370,42	2362,00
377,07	2195,00
383,71	2392,00
390,34	2321,00
396,96	2303,00
403,58	2287,00
410,19	2391,00
416,79	2365,00
423,38	2503,00
429,97	2286,00
436,55	2155,00
443,12	2162,00
449,68	2149,00
456,24	2191,00
462,79	2218,00
469,33	2188,00
475,86	2143,00
482,39	2206,00
488,91	2206,00
495,42	2066,00
501,93	2050,00
508,42	2036,00
514,91	2043,00
521,40	1979,00
527,87	2033,00
534,34	1984,00
540,80	1958,00
547,25	1909,00
553,70	2047,00
560,14	1970,00
566,57	1918,00
573,00	1995,00
579,41	1908,00
585,83	2027,00
592,23	2003,00
598,62	1882,00
605,01	1818,00
611,40	1947,00
617,77	1998,00
624,14	1765,00
630,50	1937,00
636,85	1948,00
643,20	1773,00
649,54	1866,00
655,87	1960,00
662,20	1772,00
668,52	1783,00
674,83	1938,00
681,13	1771,00
687,43	1775,00
693,72	1756,00
700,00	1795,00
706,28	1780,00
712,55	1829,00
718,81	1728,00
725,07	1733,00
731,32	1778,00
737,56	1851,00
743,79	1853,00
750,02	1833,00
756,24	1843,00
762,46	1862,00
768,67	1778,00
774,87	1706,00
781,06	1891,00
787,25	1737,00
793,43	1807,00
799,60	1694,00
805,77	1799,00
811,93	1660,00
818,08	1745,00
824,23	1798,00
830,37	1764,00
836,50	1620,00
842,63	1641,00
848,75	1753,00
854,87	1688,00
860,97	1583,00
867,07	1782,00
873,17	1622,00
879,25	1524,00
885,33	1724,00
891,41	1674,00
897,47	1494,00
903,53	1583,00
909,59	1472,00
915,63	1560,00
921,67	1623,00
927,71	1698,00
933,74	1536,00
939,76	1576,00
945,77	1586,00
951,78	1524,00
957,78	1529,00
963,78	1485,00
969,77	1475,00
975,75	1510,00
981,72	1609,00
987,69	1738,00
993,66	1547,00
999,61	1577,00
1005,56	1459,00
1011,51	1674,00
1017,44	1504,00
1023,37	1450,00
1029,30	1382,00
1035,22	1573,00
1041,13	1488,00
1047,03	1588,00
1052,93	1632,00
1058,83	2051,00
1064,71	2190,00
1070,59	2060,00
1076,47	1660,00
1082,33	1561,00
1088,20	1514,00
1094,05	1432,00
1099,90	1495,00
1105,74	1453,00
1111,58	1530,00
1117,41	1594,00
1123,23	1711,00
1129,05	2148,00
1134,86	2026,00
1140,67	1629,00
1146,47	1517,00
1152,26	1544,00
1158,05	1341,00
1163,83	1396,00
1169,60	1519,00
1175,37	1392,00
1181,13	1414,00
1186,89	1364,00
1192,64	1373,00
1198,38	1360,00
1204,12	1385,00
1209,85	1331,00
1215,58	1220,00
1221,30	1380,00
1227,02	1340,00
1232,72	1401,00
1238,43	1385,00
1244,12	1334,00
1249,81	1262,00
1255,50	1485,00
1261,17	1376,00
1266,85	1419,00
1272,51	1490,00
1278,17	1422,00
1283,83	1619,00
1289,47	1958,00
1295,12	2378,00
1300,75	2100,00
1306,38	1874,00
1312,01	1592,00
1317,63	1524,00
1323,24	1466,00
1328,85	1506,00
1334,45	1438,00
1340,04	1484,00
1345,63	1422,00
1351,22	1355,00
1356,80	1470,00
1362,37	1508,00
1367,93	1647,00
1373,49	1526,00
1379,05	1664,00
1384,60	1507,00
1390,14	1495,00
1395,68	1455,00
1401,21	1535,00
1406,74	1597,00
1412,26	1634,00
1417,77	1789,00
1423,28	1874,00
1428,78	1995,00
1434,28	2137,00
1439,77	2319,00
1445,26	2283,00
1450,74	2207,00
1456,22	2057,00
1461,68	2050,00
1467,15	1973,00
1472,61	1720,00
1478,06	1690,00
1483,51	1471,00
1488,95	1525,00
1494,38	1401,00
1499,81	1378,00
1505,24	1435,00
1510,65	1246,00
1516,07	1268,00
1521,48	1272,00
1526,88	1222,00
1532,27	1294,00
1537,67	1135,00
1543,05	1308,00
1548,43	1230,00
1553,81	1234,00
1559,18	1073,00
1564,54	1214,00
1569,90	1240,00
1575,25	1211,00
1580,60	1131,00
1585,94	1245,00
1591,28	1138,00
1596,61	1167,00
1601,93	1293,00
1607,25	1162,00
1612,57	1142,00
1617,88	1109,00
1623,18	1218,00
1628,48	1147,00
1633,77	1160,00
1639,06	1178,00
1644,34	1075,00
1649,62	1186,00
1654,89	1067,00
1660,16	1113,00
1665,42	1101,00
1670,67	1110,00
1675,92	1062,00
1681,17	1006,00
1686,41	1030,00
1691,64	1027,00
1696,87	1112,00
1702,10	926,00
1707,32	1097,00
1712,53	995,00
1717,74	890,00
1722,94	1075,00
1728,14	922,00
1733,33	940,00
1738,52	912,00
1743,70	935,00
1748,88	944,00
1754,05	855,00
1759,22	979,00
1764,38	858,00
1769,53	887,00
1774,69	781,00
1779,83	941,00
1784,97	953,00
1790,11	871,00
1795,24	945,00
1800,36	780,00
1805,48	920,00
1810,60	907,00
1815,71	877,00
1820,82	843,00
1825,92	733,00
1831,01	799,00
1836,10	870,00
1841,19	829,00
1846,26	739,00
1851,34	750,00
1856,41	848,00
1861,47	804,00
1866,53	772,00
1871,59	711,00
1876,64	784,00
1881,68	844,00
1886,72	805,00
1891,76	728,00
1896,79	833,00
1901,81	702,00
1906,83	720,00
1911,85	780,00
1916,86	871,00
1921,86	801,00
1926,86	735,00
1931,86	618,00
1936,85	641,00
1941,83	658,00
1946,81	684,00
1951,79	715,00
1956,76	748,00
1961,72	655,00
1966,68	636,00
1971,64	551,00
1976,59	647,00
1981,54	564,00
1986,48	660,00
1991,42	653,00
1996,35	593,00
2001,27	648,00
2006,20	578,00
2011,11	568,00
2016,03	626,00
2020,93	567,00
2025,84	525,00
2030,73	662,00
2035,63	534,00
2040,52	519,00
2045,40	646,00
2050,28	555,00
2055,15	556,00
2060,02	588,00
2064,89	567,00
2069,75	440,00
2074,60	635,00
2079,46	477,00
2084,30	590,00
2089,14	555,00
2093,98	404,00
2098,81	565,00
2103,64	536,00
2108,46	563,00
2113,28	577,00
2118,09	561,00
2122,90	499,00
2127,70	585,00
2132,50	632,00
2137,30	400,00
2142,09	520,00
2146,87	611,00
2151,66	506,00
2156,43	437,00
2161,20	539,00
2165,97	479,00
2170,73	525,00
2175,49	466,00
2180,24	546,00
2184,99	561,00
2189,74	395,00
2194,48	501,00
2199,21	492,00
2203,94	398,00
2208,67	511,00
2213,39	348,00
2218,11	423,00
2222,82	407,00
2227,53	462,00
2232,23	344,00
2236,93	466,00
2241,63	446,00
2246,32	567,00
2251,00	412,00
2255,68	423,00
2260,36	428,00
2265,03	421,00
2269,70	443,00
2274,36	441,00
2279,02	433,00
2283,68	303,00
2288,33	437,00
2292,97	505,00
2297,61	379,00
2302,25	317,00
2306,88	433,00
2311,51	496,00
2316,14	378,00
2320,75	271,00
2325,37	368,00
2329,98	460,00
2334,59	409,00
2339,19	460,00
2343,79	245,00
2348,38	361,00
2352,97	332,00
2357,55	360,00
2362,13	300,00
2366,71	368,00
2371,28	417,00
2375,85	250,00
2380,41	402,00
2384,97	411,00
2389,52	276,00
2394,07	283,00
2398,62	340,00
2403,16	250,00
2407,70	385,00
2412,23	268,00
2416,76	383,00
2421,29	255,00
2425,81	187,00
2430,32	439,00
2434,84	330,00
2439,34	324,00
2443,85	366,00
2448,35	368,00
2452,84	384,00
2457,33	345,00
2461,82	354,00
2466,30	319,00
2470,78	365,00
2475,25	281,00
2479,72	239,00
2484,19	280,00
2488,65	254,00
2493,11	296,00
2497,56	307,00
2502,01	251,00
2506,46	309,00
2510,90	217,00
2515,34	284,00
2519,77	368,00
2524,20	313,00
2528,62	266,00
2533,04	257,00
2537,46	327,00
2541,87	320,00
2546,28	279,00
2550,68	232,00
2555,08	290,00
2559,48	291,00
2563,87	280,00
2568,26	364,00
2572,64	211,00
2577,02	316,00
2581,40	338,00
2585,77	266,00
2590,14	306,00
2594,50	281,00
2598,86	302,00
2603,22	237,00
2607,57	260,00
2611,92	195,00
2616,26	244,00
2620,60	356,00
2624,94	376,00
2629,27	223,00
2633,60	229,00
2637,92	271,00
2642,24	210,00
2646,56	209,00
2650,87	233,00
2655,18	296,00
2659,48	241,00
2663,78	326,00
2668,08	193,00
2672,37	276,00
2676,66	317,00
2680,95	344,00
2685,23	265,00
2689,50	189,00
2693,78	312,00
2698,05	347,00
2702,31	160,00
2706,57	361,00
2710,83	166,00
2715,08	410,00
2719,33	351,00
2723,58	305,00
2727,82	397,00
2732,06	396,00
2736,29	292,00
2740,53	340,00
2744,75	300,00
2748,97	406,00
2753,19	335,00
2757,41	294,00
2761,62	277,00
2765,83	281,00
2770,03	234,00
2774,23	214,00
2778,43	274,00
2782,62	266,00
2786,81	223,00
2791,00	298,00
2795,18	371,00
2799,35	271,00
2803,53	422,00
2807,70	319,00
2811,86	387,00
2816,03	381,00
2820,19	489,00
2824,34	454,00
2828,49	543,00
2832,64	539,00
2836,78	778,00
2840,92	862,00
2845,06	1142,00
2849,19	1323,00
2853,32	1351,00
2857,45	1263,00
2861,57	1193,00
2865,69	1220,00
2869,80	1191,00
2873,91	1245,00
2878,02	1262,00
2882,12	1424,00
2886,22	1546,00
2890,32	1281,00
2894,41	1213,00
2898,50	1038,00
2902,58	1179,00
2906,67	1014,00
2910,74	906,00
2914,82	850,00
2918,89	733,00
2922,96	752,00
2927,02	733,00
2931,08	613,00
2935,13	564,00
2939,19	572,00
2943,24	515,00
2947,28	439,00
2951,32	367,00
2955,36	408,00
2959,40	345,00
2963,43	323,00
2967,46	236,00
2971,48	360,00
2975,50	362,00
2979,52	168,00
2983,53	377,00
2987,54	141,00
2991,55	157,00
2995,55	198,00
2999,55	159,00
3003,54	179,00
3007,54	49,00
3011,53	99,00
3015,51	173,00
3019,49	262,00
3023,47	127,00
3027,45	132,00
3031,42	216,00
3035,39	213,00
3039,35	80,00
3043,31	4,00
3047,27	157,00
3051,22	112,00
3055,17	251,00
3059,12	206,00
3063,06	103,00
3067,00	247,00
3070,94	111,00
3074,87	208,00
3078,80	20,00
3082,73	172,00
3086,65	91,00
3090,57	33,00
3094,49	149,00
3098,40	107,00
3102,31	92,00
3106,22	133,00
3110,12	69,00
3114,02	65,00
3117,92	21,00
3121,81	150,00
3125,70	155,00
3129,58	60,00
3133,47	95,00
3137,34	95,00
3141,22	42,00
3145,09	61,00
3148,96	134,00
3152,83	183,00
3156,69	42,00
3160,55	158,00
3164,40	86,00
3168,26	156,00
3172,10	125,00
3175,95	149,00
3179,79	108,00
3183,63	68,00
3187,47	125,00
3191,30	-15,00
3195,13	-24,00
3198,95	114,00
3202,78	130,00
3206,60	135,00
3210,41	80,00
3214,23	55,00
3218,03	192,00
3221,84	24,00
3225,64	44,00
3229,44	129,00
3233,24	89,00
3237,03	75,00
3240,82	85,00
3244,61	119,00
3248,39	103,00
3252,17	135,00
3255,95	54,00
3259,72	162,00
3263,49	52,00
3267,26	160,00
3271,03	151,00
3274,79	62,00
3278,54	116,00
3282,30	52,00
3286,05	163,00
3289,80	23,00
3293,54	84,00
3297,29	65,00
3301,02	140,00
3304,76	56,00
3308,49	3,00
3312,22	159,00
3315,95	127,00
3319,67	-2,00
3323,39	88,00
3327,10	35,00
3330,82	188,00
3334,53	5,00
3338,24	103,00
3341,94	78,00
3345,64	38,00
3349,34	153,00
3353,03	110,00
3356,72	43,00
3360,41	55,00
3364,10	64,00
3367,78	108,00
3371,46	97,00
3375,13	82,00
3378,81	162,00
3382,48	71,00
3386,14	85,00
3389,81	116,00
3393,47	2,00
3397,12	130,00
3400,78	-21,00
3404,43	122,00
3408,08	-31,00
3411,72	71,00
3415,36	93,00
3419,00	68,00
3422,64	116,00
3426,27	114,00
3429,90	152,00
3433,53	43,00
3437,15	-84,00
3440,77	10,00
3444,39	48,00
3448,00	118,00
3451,62	13,00
3455,22	44,00
3458,83	20,00
3462,43	51,00
3466,03	15,00
3469,63	21,00
3473,22	64,00
3476,81	74,00
3480,40	-18,00
3483,99	65,00
3487,57	67,00
3491,15	33,00
3494,72	115,00
3498,29	20,00
3501,86	126,00
3505,43	-8,00
3508,99	-34,00
3512,56	6,00
3516,11	127,00
3519,67	79,00
3523,22	-84,00
3526,77	-60,00
3530,32	-30,00
3533,86	86,00
3537,40	-31,00
3540,94	52,00
3544,47	69,00
3548,00	120,00
3551,53	-20,00
3555,06	-1,00
3558,58	36,00
3562,10	19,00
3565,62	91,00
3569,13	-87,00
3572,64	43,00
3576,15	103,00
3579,66	-7,00
3583,16	15,00
3586,66	49,00
3590,16	40,00
3593,65	-17,00
3597,14	72,00
3600,63	38,00
3604,11	-28,00
3607,60	88,00
3611,08	30,00
3614,55	169,00
3618,03	-10,00
3621,50	-54,00
3624,97	12,00
3628,43	48,00
3631,90	99,00
3635,36	33,00
3638,81	25,00
3642,27	19,00
3645,72	61,00
3649,17	-32,00
3652,61	6,00
3656,06	-66,00
3659,50	-26,00
3662,93	-30,00
3666,37	32,00
3669,80	54,00
3673,23	86,00
3676,65	19,00
3680,08	-68,00
3683,50	76,00
3686,92	51,00
3690,33	42,00
3693,74	86,00
3697,15	35,00
3700,56	44,00
3703,96	10,00
3707,36	-33,00
3710,76	9,00
3714,16	25,00
3717,55	129,00
3720,94	15,00
3724,33	-21,00
3727,71	-25,00
3731,10	-16,00
3734,48	-32,00
3737,85	-21,00
3741,23	-3,00
3744,60	30,00
3747,97	7,00
3751,33	40,00
3754,69	1,00
3758,05	-6,00
3761,41	44,00
3764,77	25,00
3768,12	21,00
3771,47	71,00
3774,82	7,00
3778,16	1,00
3781,50	5,00
3784,84	1,00
3788,18	-2,00
>>>>>End Processed Spectral Data<<<<<
