SpectraSuite Data File
++++++++++++++++++++++++++++++++++++
Date: Wed Feb 11 16:55:38 ICT 2026
User: Administrator
Dark Spectrum Present: Yes
Reference Spectrum Present: No
Number of Sampled Component Spectra: 1
Spectrometers: MAYP113682
Integration Time (usec): 3000000 (MAYP113682)
Spectra Averaged: 1 (MAYP113682)
Boxcar Smoothing: 0 (MAYP113682)
Correct for Electrical Dark: No (MAYP113682)
Strobe/Lamp Enabled: No (MAYP113682)
Correct for Detector Non-linearity: No (MAYP113682)
Correct for Stray Light: No (MAYP113682)
Number of Pixels in Processed Spectrum: 2068
>>>>>Begin Processed Spectral Data<<<<<
-37534,58	6,00
-37414,56	-4,00
-37295,11	0,00
-37176,24	5,00
-37057,95	44,00
-36940,22	-46,00
-36823,05	-6,00
-36706,45	-17,00
-36590,40	51,00
-36474,90	64,00
-36359,95	-50,00
-36245,55	-34,00
-36131,68	-44,00
-36018,35	-30,00
-35905,55	79,00
-35793,29	25,00
-35681,54	-6,00
-35570,32	-4,00
-35459,62	71,00
-35349,43	-5,00
-35239,75	-19,00
-35130,58	-20,00
-35021,91	-85,00
-34913,74	11,00
-34806,07	-99,00
-34698,89	31,00
-34592,20	12,00
-34486,00	19,00
-34380,28	-10,00
-34275,04	-91,00
-34170,27	-103,00
-34065,98	-85,00
-33962,16	-47,00
-33858,81	-20,00
-33755,92	-14,00
-33653,49	-73,00
-33551,52	-46,00
-33450,01	-94,00
-33348,94	-14,00
-33248,33	66,00
-33148,16	-14,00
-33048,43	-82,00
-32949,14	18,00
-32850,29	-40,00
-32751,87	29,00
-32653,89	-48,00
-32556,33	-185,00
-32459,20	-68,00
-32362,49	40,00
-32266,19	-128,00
-32170,32	-23,00
-32074,86	2,00
-31979,82	7,00
-31885,18	63,00
-31790,95	-30,00
-31697,12	27,00
-31603,69	-41,00
-31510,67	-94,00
-31418,04	-17,00
-31325,80	-40,00
-31233,95	66,00
-31142,49	19,00
-31051,42	-25,00
-30960,73	45,00
-30870,43	25,00
-30780,50	44,00
-30690,95	20,00
-30601,77	6,00
-30512,97	-56,00
-30424,53	-15,00
-30336,46	-113,00
-30248,76	13,00
-30161,42	31,00
-30074,44	37,00
-29987,81	-76,00
-29901,55	58,00
-29815,63	10,00
-29730,07	-39,00
-29644,86	1,00
-29560,00	-74,00
-29475,48	-83,00
-29391,30	-96,00
-29307,47	-63,00
-29223,97	-63,00
-29140,81	-47,00
-29057,99	-24,00
-28975,50	32,00
-28893,34	-70,00
-28811,51	-8,00
-28730,00	62,00
-28648,82	-40,00
-28567,97	22,00
-28487,43	-53,00
-28407,21	-86,00
-28327,32	-30,00
-28247,73	6,00
-28168,46	24,00
-28089,50	-40,00
-28010,85	-99,00
-27932,51	-76,00
-27854,48	17,00
-27776,75	-108,00
-27699,32	-14,00
-27622,19	24,00
-27545,37	-31,00
-27468,84	-48,00
-27392,60	50,00
-27316,66	-12,00
-27241,01	-20,00
-27165,66	15,00
-27090,59	-110,00
-27015,81	-60,00
-26941,31	-32,00
-26867,10	-53,00
-26793,17	28,00
-26719,52	53,00
-26646,15	-15,00
-26573,06	-54,00
-26500,24	-87,00
-26427,70	-62,00
-26355,43	-52,00
-26283,43	2,00
-26211,71	-104,00
-26140,25	63,00
-26069,06	22,00
-25998,13	91,00
-25927,46	-57,00
-25857,06	-54,00
-25786,92	63,00
-25717,04	-90,00
-25647,42	-29,00
-25578,05	56,00
-25508,94	-54,00
-25440,09	-15,00
-25371,48	-116,00
-25303,13	-22,00
-25235,02	-40,00
-25167,17	20,00
-25099,56	27,00
-25032,19	56,00
-24965,07	-120,00
-24898,20	61,00
-24831,56	-32,00
-24765,17	-63,00
-24699,01	-79,00
-24633,10	68,00
-24567,41	-20,00
-24501,97	-29,00
-24436,75	-55,00
-24371,77	-15,00
-24307,03	-10,00
-24242,51	-45,00
-24178,22	-87,00
-24114,16	9,00
-24050,32	20,00
-23986,71	-12,00
-23923,32	2,00
-23860,16	-71,00
-23797,22	-15,00
-23734,50	-9,00
-23672,00	27,00
-23609,71	-60,00
-23547,65	-63,00
-23485,80	57,00
-23424,16	0,00
-23362,74	-2,00
-23301,53	-178,00
-23240,54	-17,00
-23179,75	-28,00
-23119,17	-16,00
-23058,80	14,00
-22998,64	10,00
-22938,68	33,00
-22878,93	-51,00
-22819,39	-129,00
-22760,04	15,00
-22700,90	-92,00
-22641,96	58,00
-22583,22	-17,00
-22524,68	-41,00
-22466,33	-53,00
-22408,19	-4,00
-22350,23	-56,00
-22292,48	23,00
-22234,92	-122,00
-22177,55	-131,00
-22120,37	-22,00
-22063,38	-51,00
-22006,58	15,00
-21949,98	-76,00
-21893,56	96,00
-21837,33	-14,00
-21781,28	-45,00
-21725,42	-10,00
-21669,74	-8,00
-21614,25	-93,00
-21558,94	-44,00
-21503,81	-33,00
-21448,86	-60,00
-21394,10	107,00
-21339,51	-117,00
-21285,10	-49,00
-21230,86	-55,00
-21176,81	15,00
-21122,93	-52,00
-21069,22	-39,00
-21015,69	91,00
-20962,33	-110,00
-20909,14	-45,00
-20856,13	-64,00
-20803,28	24,00
-20750,61	-31,00
-20698,10	38,00
-20645,76	-14,00
-20593,59	50,00
-20541,59	49,00
-20489,75	34,00
-20438,07	-6,00
-20386,56	135,00
-20335,22	30,00
-20284,03	-51,00
-20233,01	10,00
-20182,15	-55,00
-20131,45	-106,00
-20080,91	-56,00
-20030,52	-44,00
-19980,30	-77,00
-19930,23	-15,00
-19880,32	31,00
-19830,56	-85,00
-19780,96	12,00
-19731,52	-54,00
-19682,23	50,00
-19633,09	-168,00
-19584,10	11,00
-19535,26	62,00
-19486,58	27,00
-19438,04	90,00
-19389,66	-68,00
-19341,42	36,00
-19293,33	-111,00
-19245,39	-72,00
-19197,60	-141,00
-19149,95	-59,00
-19102,45	56,00
-19055,09	-38,00
-19007,87	-28,00
-18960,80	37,00
-18913,87	-63,00
-18867,09	-50,00
-18820,44	-42,00
-18773,94	51,00
-18727,57	-64,00
-18681,35	32,00
-18635,26	-6,00
-18589,31	-3,00
-18543,50	29,00
-18497,83	9,00
-18452,29	-80,00
-18406,89	-138,00
-18361,63	-38,00
-18316,50	-27,00
-18271,50	-74,00
-18226,63	-95,00
-18181,90	-19,00
-18137,30	98,00
-18092,84	-4,00
-18048,50	-22,00
-18004,29	3,00
-17960,22	66,00
-17916,27	-92,00
-17872,45	-17,00
-17828,76	36,00
-17785,20	-44,00
-17741,77	30,00
-17698,46	30,00
-17655,28	-16,00
-17612,22	-53,00
-17569,29	-102,00
-17526,48	57,00
-17483,79	-6,00
-17441,23	-157,00
-17398,79	-49,00
-17356,48	57,00
-17314,28	-39,00
-17272,21	85,00
-17230,26	-171,00
-17188,42	-17,00
-17146,71	-29,00
-17105,12	-29,00
-17063,64	-4,00
-17022,28	10,00
-16981,04	33,00
-16939,92	-78,00
-16898,91	32,00
-16858,02	-32,00
-16817,25	-154,00
-16776,59	-69,00
-16736,04	-32,00
-16695,61	-105,00
-16655,29	39,00
-16615,09	-26,00
-16574,99	48,00
-16535,01	-35,00
-16495,15	-95,00
-16455,39	2,00
-16415,74	-65,00
-16376,21	-57,00
-16336,78	-13,00
-16297,46	-30,00
-16258,26	-31,00
-16219,16	-15,00
-16180,17	59,00
-16141,28	-11,00
-16102,51	-31,00
-16063,84	26,00
-16025,27	28,00
-15986,82	-4,00
-15948,46	-10,00
-15910,22	-25,00
-15872,07	54,00
-15834,04	-126,00
-15796,10	27,00
-15758,27	-1,00
-15720,54	-45,00
-15682,91	-7,00
-15645,39	-47,00
-15607,97	6,00
-15570,64	-50,00
-15533,42	-79,00
-15496,30	-167,00
-15459,28	16,00
-15422,36	16,00
-15385,54	-23,00
-15348,82	-40,00
-15312,19	21,00
-15275,66	-30,00
-15239,23	-6,00
-15202,90	-79,00
-15166,67	-90,00
-15130,53	-1,00
-15094,48	-12,00
-15058,54	73,00
-15022,68	53,00
-14986,93	25,00
-14951,26	-141,00
-14915,69	-74,00
-14880,22	45,00
-14844,84	-48,00
-14809,55	144,00
-14774,35	-28,00
-14739,25	-55,00
-14704,24	-23,00
-14669,32	19,00
-14634,49	-30,00
-14599,75	-16,00
-14565,10	-29,00
-14530,55	-55,00
-14496,08	-24,00
-14461,70	4,00
-14427,41	-30,00
-14393,21	-130,00
-14359,10	-106,00
-14325,07	5,00
-14291,14	65,00
-14257,29	71,00
-14223,52	38,00
-14189,85	-127,00
-14156,26	-29,00
-14122,76	21,00
-14089,34	90,00
-14056,01	-142,00
-14022,76	-173,00
-13989,60	-73,00
-13956,52	-136,00
-13923,53	-16,00
-13890,62	-69,00
-13857,79	-144,00
-13825,05	-20,00
-13792,39	-7,00
-13759,81	12,00
-13727,31	-18,00
-13694,90	-12,00
-13662,57	45,00
-13630,31	-31,00
-13598,14	-36,00
-13566,05	-48,00
-13534,05	-62,00
-13502,12	-61,00
-13470,27	-2,00
-13438,50	-30,00
-13406,80	63,00
-13375,19	-50,00
-13343,66	3,00
-13312,20	2,00
-13280,83	-10,00
-13249,53	48,00
-13218,30	-45,00
-13187,16	-40,00
-13156,09	47,00
-13125,10	-65,00
-13094,18	14,00
-13063,34	-30,00
-13032,58	-17,00
-13001,89	-2,00
-12971,28	-39,00
-12940,74	-100,00
-12910,27	36,00
-12879,88	-102,00
-12849,57	-17,00
-12819,33	-75,00
-12789,16	14,00
-12759,06	17,00
-12729,04	21,00
-12699,09	-200,00
-12669,21	6,00
-12639,41	9,00
-12609,68	10,00
-12580,02	-1,00
-12550,43	-85,00
-12520,91	-111,00
-12491,46	-61,00
-12462,08	-14,00
-12432,77	-108,00
-12403,54	-25,00
-12374,37	41,00
-12345,27	-38,00
-12316,24	22,00
-12287,29	66,00
-12258,40	33,00
-12229,57	35,00
-12200,82	68,00
-12172,14	-58,00
-12143,52	2,00
-12114,97	-31,00
-12086,49	-31,00
-12058,07	-32,00
-12029,73	130,00
-12001,44	-5,00
-11973,23	-38,00
-11945,08	-57,00
-11917,00	23,00
-11888,98	11,00
-11861,03	-18,00
-11833,15	-13,00
-11805,32	0,00
-11777,57	23,00
-11749,88	74,00
-11722,25	-75,00
-11694,69	3,00
-11667,19	-119,00
-11639,75	48,00
-11612,38	-19,00
-11585,07	-158,00
-11557,83	13,00
-11530,65	-73,00
-11503,53	6,00
-11476,47	42,00
-11449,48	-50,00
-11422,54	-2,00
-11395,67	-19,00
-11368,86	-96,00
-11342,11	-77,00
-11315,43	47,00
-11288,80	-27,00
-11262,23	4,00
-11235,73	-36,00
-11209,28	24,00
-11182,90	-50,00
-11156,57	-16,00
-11130,31	6,00
-11104,10	54,00
-11077,96	71,00
-11051,87	-46,00
-11025,84	1,00
-10999,87	-89,00
-10973,96	-118,00
-10948,11	-8,00
-10922,31	23,00
-10896,58	159,00
-10870,90	-88,00
-10845,28	27,00
-10819,71	44,00
-10794,20	14,00
-10768,75	20,00
-10743,36	-58,00
-10718,02	-27,00
-10692,74	37,00
-10667,52	-88,00
-10642,35	-39,00
-10617,24	-10,00
-10592,18	-36,00
-10567,18	5,00
-10542,23	-19,00
-10517,34	2,00
-10492,51	23,00
-10467,72	18,00
-10443,00	6,00
-10418,32	68,00
-10393,70	-22,00
-10369,14	49,00
-10344,63	74,00
-10320,17	159,00
-10295,77	55,00
-10271,42	65,00
-10247,12	145,00
-10222,88	160,00
-10198,68	179,00
-10174,54	101,00
-10150,46	116,00
-10126,42	82,00
-10102,44	167,00
-10078,51	152,00
-10054,63	27,00
-10030,80	140,00
-10007,03	158,00
-9983,30	101,00
-9959,63	251,00
-9936,01	171,00
-9912,44	199,00
-9888,92	199,00
-9865,44	238,00
-9842,02	321,00
-9818,65	266,00
-9795,33	339,00
-9772,06	331,00
-9748,84	262,00
-9725,67	275,00
-9702,55	427,00
-9679,47	516,00
-9656,45	501,00
-9633,47	467,00
-9610,55	577,00
-9587,67	697,00
-9564,84	615,00
-9542,06	846,00
-9519,32	884,00
-9496,64	934,00
-9474,00	1106,00
-9451,41	1103,00
-9428,87	1059,00
-9406,37	1164,00
-9383,92	1026,00
-9361,52	1054,00
-9339,17	1165,00
-9316,86	1286,00
-9294,60	1409,00
-9272,38	1547,00
-9250,21	1802,00
-9228,09	1918,00
-9206,01	1889,00
-9183,98	1671,00
-9162,00	1532,00
-9140,06	1541,00
-9118,16	1465,00
-9096,31	1492,00
-9074,51	1752,00
-9052,75	1685,00
-9031,04	1657,00
-9009,37	1441,00
-8987,74	1332,00
-8966,16	1191,00
-8944,63	1003,00
-8923,14	913,00
-8901,69	1033,00
-8880,29	1139,00
-8858,93	1170,00
-8837,61	1364,00
-8816,34	1472,00
-8795,11	1504,00
-8773,92	1280,00
-8752,78	1093,00
-8731,68	1163,00
-8710,62	1139,00
-8689,61	1207,00
-8668,63	1341,00
-8647,70	1438,00
-8626,82	1354,00
-8605,97	1340,00
-8585,17	1182,00
-8564,41	1100,00
-8543,69	1025,00
-8523,01	1017,00
-8502,37	999,00
-8481,78	1133,00
-8461,23	1171,00
-8440,71	1242,00
-8420,24	1394,00
-8399,81	1432,00
-8379,42	1432,00
-8359,08	1195,00
-8338,77	1179,00
-8318,50	1118,00
-8298,27	1012,00
-8278,09	1040,00
-8257,94	1132,00
-8237,83	1267,00
-8217,76	1259,00
-8197,74	1359,00
-8177,75	1269,00
-8157,80	1168,00
-8137,89	1048,00
-8118,02	988,00
-8098,19	1020,00
-8078,40	1066,00
-8058,65	1024,00
-8038,93	1148,00
-8019,26	1099,00
-7999,62	1048,00
-7980,02	882,00
-7960,46	866,00
-7940,94	900,00
-7921,46	823,00
-7902,01	797,00
-7882,60	767,00
-7863,23	783,00
-7843,90	861,00
-7824,61	822,00
-7805,35	991,00
-7786,13	858,00
-7766,95	1010,00
-7747,80	903,00
-7728,69	772,00
-7709,62	870,00
-7690,59	816,00
-7671,59	931,00
-7652,63	1059,00
-7633,70	937,00
-7614,81	1007,00
-7595,96	841,00
-7577,15	689,00
-7558,37	775,00
-7539,62	757,00
-7520,91	937,00
-7502,24	896,00
-7483,60	922,00
-7465,00	867,00
-7446,44	701,00
-7427,91	735,00
-7409,41	530,00
-7390,95	576,00
-7372,53	567,00
-7354,14	404,00
-7335,78	523,00
-7317,46	508,00
-7299,18	603,00
-7280,92	675,00
-7262,71	852,00
-7244,52	847,00
-7226,38	885,00
-7208,26	878,00
-7190,18	915,00
-7172,14	689,00
-7154,12	660,00
-7136,15	770,00
-7118,20	837,00
-7100,29	847,00
-7082,41	919,00
-7064,57	863,00
-7046,76	717,00
-7028,98	689,00
-7011,24	461,00
-6993,53	552,00
-6975,85	402,00
-6958,20	416,00
-6940,59	399,00
-6923,01	452,00
-6905,46	511,00
-6887,94	546,00
-6870,46	639,00
-6853,01	871,00
-6835,59	814,00
-6818,21	695,00
-6800,85	518,00
-6783,53	457,00
-6766,24	348,00
-6748,98	294,00
-6731,76	372,00
-6714,56	276,00
-6697,40	309,00
-6680,26	241,00
-6663,16	371,00
-6646,09	431,00
-6629,05	502,00
-6612,05	599,00
-6595,07	614,00
-6578,13	541,00
-6561,21	396,00
-6544,33	365,00
-6527,47	184,00
-6510,65	464,00
-6493,86	150,00
-6477,10	169,00
-6460,36	316,00
-6443,66	375,00
-6426,99	174,00
-6410,35	236,00
-6393,74	217,00
-6377,16	320,00
-6360,61	326,00
-6344,09	500,00
-6327,59	358,00
-6311,13	360,00
-6294,70	359,00
-6278,29	459,00
-6261,92	570,00
-6245,58	476,00
-6229,26	551,00
-6212,97	396,00
-6196,72	442,00
-6180,49	256,00
-6164,29	91,00
-6148,12	191,00
-6131,98	141,00
-6115,86	107,00
-6099,78	89,00
-6083,72	60,00
-6067,69	1,00
-6051,69	190,00
-6035,72	69,00
-6019,78	409,00
-6003,87	232,00
-5987,98	290,00
-5972,12	462,00
-5956,29	325,00
-5940,49	383,00
-5924,71	150,00
-5908,96	167,00
-5893,24	72,00
-5877,55	163,00
-5861,89	149,00
-5846,25	167,00
-5830,64	175,00
-5815,05	100,00
-5799,50	235,00
-5783,97	175,00
-5768,47	301,00
-5752,99	383,00
-5737,55	320,00
-5722,12	354,00
-5706,73	451,00
-5691,36	294,00
-5676,02	94,00
-5660,71	139,00
-5645,42	137,00
-5630,16	119,00
-5614,92	231,00
-5599,71	338,00
-5584,53	264,00
-5569,37	302,00
-5554,24	176,00
-5539,14	190,00
-5524,06	234,00
-5509,01	183,00
-5493,98	343,00
-5478,98	179,00
-5464,00	294,00
-5449,05	305,00
-5434,13	114,00
-5419,23	77,00
-5404,36	169,00
-5389,51	226,00
-5374,69	256,00
-5359,89	346,00
-5345,12	447,00
-5330,37	396,00
-5315,65	361,00
-5300,95	244,00
-5286,28	284,00
-5271,63	108,00
-5257,01	225,00
-5242,41	130,00
-5227,84	105,00
-5213,29	244,00
-5198,76	33,00
-5184,26	-16,00
-5169,79	78,00
-5155,33	71,00
-5140,91	133,00
-5126,51	255,00
-5112,13	248,00
-5097,77	90,00
-5083,44	130,00
-5069,13	36,00
-5054,85	194,00
-5040,59	215,00
-5026,36	138,00
-5012,15	191,00
-4997,96	276,00
-4983,80	146,00
-4969,66	76,00
-4955,54	-13,00
-4941,44	176,00
-4927,37	261,00
-4913,33	403,00
-4899,30	486,00
-4885,30	486,00
-4871,33	158,00
-4857,37	57,00
-4843,44	82,00
-4829,53	57,00
-4815,65	212,00
-4801,79	162,00
-4787,95	138,00
-4774,13	72,00
-4760,34	45,00
-4746,56	-36,00
-4732,82	152,00
-4719,09	-9,00
-4705,38	269,00
-4691,70	394,00
-4678,04	379,00
-4664,41	226,00
-4650,79	70,00
-4637,20	107,00
-4623,63	134,00
-4610,08	136,00
-4596,56	201,00
-4583,05	157,00
-4569,57	242,00
-4556,11	-14,00
-4542,67	108,00
-4529,25	46,00
-4515,86	235,00
-4502,49	304,00
-4489,13	177,00
-4475,80	180,00
-4462,49	95,00
-4449,21	125,00
-4435,94	42,00
-4422,70	253,00
-4409,47	215,00
-4396,27	186,00
-4383,09	62,00
-4369,93	77,00
-4356,79	-56,00
-4343,67	101,00
-4330,58	45,00
-4317,50	148,00
-4304,45	166,00
-4291,41	-7,00
-4278,40	41,00
-4265,41	78,00
-4252,44	89,00
-4239,49	139,00
-4226,55	212,00
-4213,65	92,00
-4200,76	87,00
-4187,89	50,00
-4175,04	127,00
-4162,21	-24,00
-4149,40	65,00
-4136,61	-28,00
-4123,85	-29,00
-4111,10	44,00
-4098,37	9,00
-4085,66	6,00
-4072,98	-22,00
-4060,31	50,00
-4047,66	-74,00
-4035,04	8,00
-4022,43	-88,00
-4009,84	5,00
-3997,27	-34,00
-3984,72	4,00
-3972,19	-13,00
-3959,69	-46,00
-3947,20	11,00
-3934,73	-20,00
-3922,27	63,00
-3909,84	-81,00
-3897,43	125,00
-3885,04	143,00
-3872,67	-110,00
-3860,31	3,00
-3847,98	-23,00
-3835,66	7,00
-3823,36	-85,00
-3811,09	31,00
-3798,83	58,00
-3786,59	-62,00
-3774,37	-64,00
-3762,17	41,00
-3749,98	-51,00
-3737,82	32,00
-3725,67	-8,00
-3713,55	-9,00
-3701,44	43,00
-3689,35	-65,00
-3677,28	7,00
-3665,22	52,00
-3653,19	-139,00
-3641,17	90,00
-3629,18	-40,00
-3617,20	-42,00
-3605,24	-30,00
-3593,30	-58,00
-3581,37	-21,00
-3569,47	-95,00
-3557,58	-32,00
-3545,71	-84,00
-3533,86	15,00
-3522,02	-18,00
-3510,21	-101,00
-3498,41	-95,00
-3486,63	-153,00
-3474,87	-52,00
-3463,12	-19,00
-3451,40	97,00
-3439,69	-27,00
-3428,00	-4,00
-3416,33	-83,00
-3404,67	-23,00
-3393,03	16,00
-3381,41	-43,00
-3369,81	-19,00
-3358,22	-45,00
-3346,66	-10,00
-3335,10	-17,00
-3323,57	43,00
-3312,06	24,00
-3300,56	-89,00
-3289,08	-31,00
-3277,61	-91,00
-3266,16	-68,00
-3254,73	15,00
-3243,32	-22,00
-3231,92	-63,00
-3220,55	-14,00
-3209,18	96,00
-3197,84	-35,00
-3186,51	-87,00
-3175,20	-131,00
-3163,90	-33,00
-3152,63	-49,00
-3141,36	-38,00
-3130,12	-24,00
-3118,89	-4,00
-3107,68	-11,00
-3096,49	-14,00
-3085,31	-28,00
-3074,15	-28,00
-3063,00	40,00
-3051,87	40,00
-3040,76	-51,00
-3029,67	-54,00
-3018,59	-31,00
-3007,52	14,00
-2996,48	-123,00
-2985,44	-3,00
-2974,43	-20,00
-2963,43	-42,00
-2952,45	-14,00
-2941,48	53,00
-2930,53	34,00
-2919,60	40,00
-2908,68	-63,00
-2897,78	29,00
-2886,89	33,00
-2876,02	-38,00
-2865,17	-71,00
-2854,33	26,00
-2843,50	-4,00
-2832,70	117,00
-2821,90	33,00
-2811,13	-72,00
-2800,37	-8,00
-2789,62	6,00
-2778,89	17,00
-2768,18	-44,00
-2757,48	26,00
-2746,80	-19,00
-2736,13	53,00
-2725,48	46,00
-2714,84	-57,00
-2704,22	-76,00
-2693,61	61,00
-2683,02	6,00
-2672,45	50,00
-2661,89	-109,00
-2651,34	90,00
-2640,81	-21,00
-2630,30	10,00
-2619,80	5,00
-2609,31	-23,00
-2598,84	11,00
-2588,39	37,00
-2577,95	-37,00
-2567,52	-105,00
-2557,11	-64,00
-2546,71	-88,00
-2536,33	-22,00
-2525,97	-45,00
-2515,62	-38,00
-2505,28	-38,00
-2494,96	-172,00
-2484,65	-41,00
-2474,36	-28,00
-2464,08	128,00
-2453,82	-1,00
-2443,57	-82,00
-2433,33	4,00
-2423,11	-31,00
-2412,91	25,00
-2402,72	-84,00
-2392,54	-79,00
-2382,38	-55,00
-2372,23	-18,00
-2362,09	3929,00
-2351,97	-29,00
-2341,87	99,00
-2331,78	-60,00
-2321,70	55,00
-2311,64	-24,00
-2301,59	36,00
-2291,55	-50,00
-2281,53	-105,00
-2271,53	-23,00
-2261,53	-70,00
-2251,55	74,00
-2241,59	-119,00
-2231,64	46,00
-2221,70	-7,00
-2211,78	-76,00
-2201,87	-41,00
-2191,97	-62,00
-2182,09	-13,00
-2172,22	-39,00
-2162,37	-126,00
-2152,53	-21,00
-2142,70	-187,00
-2132,89	5,00
-2123,09	-101,00
-2113,30	23,00
-2103,53	20,00
-2093,77	-45,00
-2084,02	20,00
-2074,29	16,00
-2064,57	-69,00
-2054,86	-115,00
-2045,17	-17,00
-2035,49	-71,00
-2025,82	-37,00
-2016,17	-19,00
-2006,53	-64,00
-1996,91	-61,00
-1987,29	-1,00
-1977,69	107,00
-1968,11	162,00
-1958,53	-59,00
-1948,97	-109,00
-1939,42	-85,00
-1929,89	-21,00
-1920,37	35,00
-1910,86	35,00
-1901,36	-37,00
-1891,88	14,00
-1882,41	-77,00
-1872,95	-8,00
-1863,51	113,00
-1854,08	-141,00
-1844,66	70,00
-1835,26	57,00
-1825,86	6,00
-1816,48	-21,00
-1807,11	-32,00
-1797,76	-36,00
-1788,42	-46,00
-1779,09	-76,00
-1769,77	37,00
-1760,47	-79,00
-1751,17	33,00
-1741,89	89,00
-1732,63	-82,00
-1723,37	99,00
-1714,13	-94,00
-1704,90	32,00
-1695,68	98,00
-1686,48	-34,00
-1677,29	84,00
-1668,11	20,00
-1658,94	60,00
-1649,78	-17,00
-1640,64	-81,00
-1631,51	63,00
-1622,39	-109,00
-1613,28	122,00
-1604,19	6,00
-1595,10	86,00
-1586,03	-104,00
-1576,97	61,00
-1567,93	-43,00
-1558,89	-51,00
-1549,87	-135,00
-1540,86	-53,00
-1531,86	-70,00
-1522,87	-100,00
-1513,90	-80,00
-1504,93	-81,00
-1495,98	-28,00
-1487,04	7,00
-1478,12	106,00
-1469,20	-90,00
-1460,30	62,00
-1451,40	-82,00
-1442,52	28,00
-1433,65	-57,00
-1424,80	31,00
-1415,95	-12,00
-1407,12	86,00
-1398,30	-42,00
-1389,48	-138,00
-1380,69	-54,00
-1371,90	-35,00
-1363,12	-36,00
-1354,36	46,00
-1345,60	-45,00
-1336,86	-65,00
-1328,13	-20,00
-1319,41	-24,00
-1310,70	19,00
-1302,01	-70,00
-1293,32	-102,00
-1284,65	-109,00
-1275,99	-54,00
-1267,33	-83,00
-1258,69	-22,00
-1250,06	-22,00
-1241,45	68,00
-1232,84	31,00
-1224,25	-54,00
-1215,66	7,00
-1207,09	-123,00
-1198,53	142,00
-1189,97	-147,00
-1181,43	63,00
-1172,91	-86,00
-1164,39	-52,00
-1155,88	-2,00
-1147,38	61,00
-1138,90	-70,00
-1130,43	-15,00
-1121,96	31,00
-1113,51	-24,00
-1105,07	25,00
-1096,64	25,00
-1088,22	-16,00
-1079,81	98,00
-1071,41	-7,00
-1063,02	-3,00
-1054,65	-41,00
-1046,28	-50,00
-1037,92	-98,00
-1029,58	-8,00
-1021,24	-9,00
-1012,92	49,00
-1004,61	-15,00
-996,30	-75,00
-988,01	57,00
-979,73	-138,00
-971,46	62,00
-963,20	-77,00
-954,95	77,00
-946,71	36,00
-938,48	-83,00
-930,26	-41,00
-922,06	-33,00
-913,86	-21,00
-905,67	-36,00
-897,49	-42,00
-889,33	13,00
-881,17	-65,00
-873,02	2,00
-864,89	-120,00
-856,76	-67,00
-848,65	33,00
-840,54	-113,00
-832,45	87,00
-824,36	-4,00
-816,29	73,00
-808,22	-145,00
-800,17	10,00
-792,12	30,00
-784,09	-92,00
-776,06	-51,00
-768,05	-3,00
-760,04	68,00
-752,05	-53,00
-744,07	-71,00
-736,09	2,00
-728,13	54,00
-720,17	-63,00
-712,23	23,00
-704,29	36,00
-696,37	-56,00
-688,45	-107,00
-680,55	-19,00
-672,65	62,00
-664,77	-9,00
-656,89	-119,00
-649,03	-34,00
-641,17	-38,00
-633,32	29,00
-625,49	-19,00
-617,66	22,00
-609,84	39,00
-602,03	76,00
-594,23	-6,00
-586,45	15,00
-578,67	-6,00
-570,90	35,00
-563,14	-19,00
-555,39	-89,00
-547,65	-6,00
-539,91	-102,00
-532,19	54,00
-524,48	-46,00
-516,78	-130,00
-509,08	-49,00
-501,40	-41,00
-493,72	-21,00
-486,06	69,00
-478,40	-59,00
-470,76	59,00
-463,12	-24,00
-455,49	56,00
-447,87	14,00
-440,26	9,00
-432,66	-85,00
-425,07	-9,00
-417,49	-19,00
-409,92	3,00
-402,35	-33,00
-394,80	40,00
-387,25	-46,00
-379,72	43,00
-372,19	-35,00
-364,67	105,00
-357,17	-106,00
-349,67	68,00
-342,18	33,00
-334,69	33,00
-327,22	88,00
-319,76	-12,00
-312,30	-18,00
-304,86	-37,00
-297,42	18,00
-290,00	84,00
-282,58	68,00
-275,17	74,00
-267,77	1,00
-260,37	98,00
-252,99	-128,00
-245,62	74,00
-238,25	-89,00
-230,90	119,00
-223,55	129,00
-216,21	148,00
-208,88	126,00
-201,56	151,00
-194,25	123,00
-186,94	233,00
-179,65	181,00
-172,36	167,00
-165,08	269,00
-157,81	245,00
-150,55	198,00
-143,30	350,00
-136,06	264,00
-128,82	363,00
-121,60	436,00
-114,38	443,00
-107,17	541,00
-99,97	455,00
-92,78	709,00
-85,60	767,00
-78,42	1020,00
-71,25	1130,00
-64,10	1238,00
-56,95	1447,00
-49,81	1764,00
-42,67	2142,00
-35,55	2759,00
-28,43	3624,00
-21,33	5951,00
-14,23	19157,00
-7,14	56043,00
-0,05	55763,00
7,02	55513,00
14,09	55717,00
21,14	19552,00
28,19	7963,00
35,23	4954,00
42,27	3591,00
49,29	2954,00
56,31	2595,00
63,32	2127,00
70,32	1704,00
77,31	1535,00
84,29	1221,00
91,27	1104,00
98,23	1020,00
105,19	1043,00
112,14	1108,00
119,09	1939,00
126,02	3493,00
132,95	4423,00
139,87	4728,00
146,78	4464,00
153,68	4635,00
160,58	4564,00
167,46	4413,00
174,34	4511,00
181,21	4491,00
188,08	4542,00
194,93	4457,00
201,78	4501,00
208,62	4517,00
215,45	4478,00
222,27	4529,00
229,09	4426,00
235,90	4500,00
242,70	4350,00
249,49	4405,00
256,27	4390,00
263,05	4432,00
269,82	4382,00
276,58	4312,00
283,33	4309,00
290,08	4322,00
296,82	4265,00
303,55	4272,00
310,27	4275,00
316,98	4123,00
323,69	4102,00
330,39	4208,00
337,08	4134,00
343,76	4358,00
350,44	4333,00
357,11	4199,00
363,77	4165,00
370,42	4326,00
377,07	4107,00
383,71	4323,00
390,34	4295,00
396,96	4315,00
403,58	4227,00
410,19	4340,00
416,79	4353,00
423,38	4485,00
429,97	4297,00
436,55	4328,00
443,12	4229,00
449,68	4259,00
456,24	4326,00
462,79	4163,00
469,33	4241,00
475,86	4226,00
482,39	4426,00
488,91	4439,00
495,42	4216,00
501,93	4298,00
508,42	4217,00
514,91	4243,00
521,40	4244,00
527,87	4192,00
534,34	4088,00
540,80	4220,00
547,25	4183,00
553,70	4330,00
560,14	4112,00
566,57	4293,00
573,00	4268,00
579,41	4220,00
585,83	4304,00
592,23	4277,00
598,62	4125,00
605,01	4147,00
611,40	4231,00
617,77	4269,00
624,14	4180,00
630,50	4278,00
636,85	4120,00
643,20	4274,00
649,54	4215,00
655,87	4258,00
662,20	4151,00
668,52	4351,00
674,83	4306,00
681,13	4258,00
687,43	4073,00
693,72	4186,00
700,00	4169,00
706,28	4242,00
712,55	4308,00
718,81	4137,00
725,07	4220,00
731,32	4202,00
737,56	4288,00
743,79	4329,00
750,02	4402,00
756,24	4377,00
762,46	4334,00
768,67	4245,00
774,87	4366,00
781,06	4540,00
787,25	4421,00
793,43	4400,00
799,60	4413,00
805,77	4392,00
811,93	4396,00
818,08	4425,00
824,23	4538,00
830,37	4393,00
836,50	4432,00
842,63	4519,00
848,75	4502,00
854,87	4464,00
860,97	4385,00
867,07	4466,00
873,17	4416,00
879,25	4349,00
885,33	4470,00
891,41	4435,00
897,47	4372,00
903,53	4401,00
909,59	4263,00
915,63	4499,00
921,67	4351,00
927,71	4491,00
933,74	4503,00
939,76	4413,00
945,77	4414,00
951,78	4465,00
957,78	4489,00
963,78	4468,00
969,77	4546,00
975,75	4549,00
981,72	4525,00
987,69	4458,00
993,66	4620,00
999,61	4721,00
1005,56	4675,00
1011,51	4654,00
1017,44	4666,00
1023,37	4718,00
1029,30	4771,00
1035,22	4718,00
1041,13	4764,00
1047,03	4951,00
1052,93	5188,00
1058,83	5849,00
1064,71	6320,00
1070,59	5785,00
1076,47	5192,00
1082,33	4949,00
1088,20	5065,00
1094,05	4982,00
1099,90	5017,00
1105,74	5001,00
1111,58	5096,00
1117,41	5120,00
1123,23	5773,00
1129,05	6531,00
1134,86	6177,00
1140,67	5699,00
1146,47	5223,00
1152,26	5113,00
1158,05	4967,00
1163,83	4988,00
1169,60	5174,00
1175,37	4905,00
1181,13	4934,00
1186,89	4887,00
1192,64	4722,00
1198,38	4870,00
1204,12	4832,00
1209,85	4775,00
1215,58	4760,00
1221,30	5019,00
1227,02	4996,00
1232,72	5060,00
1238,43	5056,00
1244,12	5021,00
1249,81	5068,00
1255,50	4956,00
1261,17	5179,00
1266,85	5113,00
1272,51	5238,00
1278,17	5273,00
1283,83	5782,00
1289,47	6408,00
1295,12	7319,00
1300,75	6998,00
1306,38	6168,00
1312,01	5855,00
1317,63	5316,00
1323,24	5339,00
1328,85	5261,00
1334,45	5323,00
1340,04	5222,00
1345,63	5227,00
1351,22	5250,00
1356,80	5242,00
1362,37	5237,00
1367,93	5326,00
1373,49	5285,00
1379,05	5493,00
1384,60	5296,00
1390,14	5271,00
1395,68	5333,00
1401,21	5476,00
1406,74	5549,00
1412,26	5845,00
1417,77	6033,00
1423,28	6106,00
1428,78	6375,00
1434,28	6765,00
1439,77	7315,00
1445,26	7253,00
1450,74	7060,00
1456,22	6824,00
1461,68	6695,00
1467,15	6448,00
1472,61	6084,00
1478,06	5734,00
1483,51	5498,00
1488,95	5406,00
1494,38	5243,00
1499,81	5248,00
1505,24	5145,00
1510,65	5129,00
1516,07	5024,00
1521,48	4991,00
1526,88	4960,00
1532,27	4891,00
1537,67	4948,00
1543,05	4896,00
1548,43	4896,00
1553,81	4944,00
1559,18	4821,00
1564,54	4857,00
1569,90	4824,00
1575,25	4776,00
1580,60	4702,00
1585,94	4898,00
1591,28	4795,00
1596,61	4774,00
1601,93	4879,00
1607,25	4780,00
1612,57	4645,00
1617,88	4686,00
1623,18	4816,00
1628,48	4686,00
1633,77	4591,00
1639,06	4680,00
1644,34	4629,00
1649,62	4670,00
1654,89	4661,00
1660,16	4575,00
1665,42	4551,00
1670,67	4554,00
1675,92	4606,00
1681,17	4572,00
1686,41	4548,00
1691,64	4514,00
1696,87	4575,00
1702,10	4470,00
1707,32	4551,00
1712,53	4461,00
1717,74	4423,00
1722,94	4524,00
1728,14	4408,00
1733,33	4392,00
1738,52	4358,00
1743,70	4364,00
1748,88	4334,00
1754,05	4202,00
1759,22	4462,00
1764,38	4327,00
1769,53	4268,00
1774,69	4019,00
1779,83	4301,00
1784,97	4139,00
1790,11	4133,00
1795,24	4039,00
1800,36	4084,00
1805,48	4227,00
1810,60	4263,00
1815,71	4158,00
1820,82	4113,00
1825,92	4063,00
1831,01	4104,00
1836,10	4156,00
1841,19	4121,00
1846,26	3997,00
1851,34	4020,00
1856,41	4165,00
1861,47	3989,00
1866,53	3949,00
1871,59	3917,00
1876,64	3977,00
1881,68	4118,00
1886,72	3996,00
1891,76	4081,00
1896,79	4074,00
1901,81	3812,00
1906,83	3850,00
1911,85	3900,00
1916,86	3978,00
1921,86	3886,00
1926,86	3755,00
1931,86	3717,00
1936,85	3616,00
1941,83	3800,00
1946,81	3695,00
1951,79	3732,00
1956,76	3703,00
1961,72	3686,00
1966,68	3783,00
1971,64	3672,00
1976,59	3686,00
1981,54	3689,00
1986,48	3617,00
1991,42	3642,00
1996,35	3598,00
2001,27	3536,00
2006,20	3533,00
2011,11	3450,00
2016,03	3475,00
2020,93	3417,00
2025,84	3442,00
2030,73	3529,00
2035,63	3441,00
2040,52	3465,00
2045,40	3396,00
2050,28	3315,00
2055,15	3464,00
2060,02	3339,00
2064,89	3351,00
2069,75	3222,00
2074,60	3409,00
2079,46	3274,00
2084,30	3317,00
2089,14	3335,00
2093,98	3359,00
2098,81	3229,00
2103,64	3354,00
2108,46	3366,00
2113,28	3447,00
2118,09	3224,00
2122,90	3351,00
2127,70	3301,00
2132,50	3380,00
2137,30	3157,00
2142,09	3257,00
2146,87	3351,00
2151,66	3188,00
2156,43	3251,00
2161,20	3271,00
2165,97	3146,00
2170,73	3144,00
2175,49	3201,00
2180,24	3174,00
2184,99	3258,00
2189,74	3084,00
2194,48	3120,00
2199,21	3141,00
2203,94	3141,00
2208,67	3123,00
2213,39	3091,00
2218,11	3105,00
2222,82	3131,00
2227,53	3082,00
2232,23	3085,00
2236,93	3192,00
2241,63	3053,00
2246,32	3107,00
2251,00	2927,00
2255,68	2998,00
2260,36	3049,00
2265,03	2935,00
2269,70	2903,00
2274,36	2980,00
2279,02	2898,00
2283,68	2772,00
2288,33	2895,00
2292,97	2952,00
2297,61	2866,00
2302,25	2795,00
2306,88	2872,00
2311,51	2738,00
2316,14	2884,00
2320,75	2816,00
2325,37	2709,00
2329,98	2793,00
2334,59	2765,00
2339,19	2762,00
2343,79	2604,00
2348,38	2730,00
2352,97	2599,00
2357,55	2597,00
2362,13	2715,00
2366,71	2537,00
2371,28	2603,00
2375,85	2545,00
2380,41	2620,00
2384,97	2553,00
2389,52	2546,00
2394,07	2399,00
2398,62	2444,00
2403,16	2473,00
2407,70	2463,00
2412,23	2481,00
2416,76	2509,00
2421,29	2425,00
2425,81	2306,00
2430,32	2527,00
2434,84	2467,00
2439,34	2411,00
2443,85	2424,00
2448,35	2495,00
2452,84	2419,00
2457,33	2324,00
2461,82	2330,00
2466,30	2325,00
2470,78	2275,00
2475,25	2232,00
2479,72	2231,00
2484,19	2266,00
2488,65	2148,00
2493,11	2266,00
2497,56	2232,00
2502,01	2262,00
2506,46	2194,00
2510,90	2132,00
2515,34	2216,00
2519,77	2234,00
2524,20	2176,00
2528,62	2129,00
2533,04	2141,00
2537,46	2061,00
2541,87	2069,00
2546,28	2067,00
2550,68	2096,00
2555,08	2020,00
2559,48	2069,00
2563,87	2147,00
2568,26	2054,00
2572,64	2009,00
2577,02	1975,00
2581,40	1994,00
2585,77	1886,00
2590,14	1883,00
2594,50	1892,00
2598,86	1877,00
2603,22	1773,00
2607,57	1854,00
2611,92	1755,00
2616,26	1828,00
2620,60	1813,00
2624,94	1786,00
2629,27	1727,00
2633,60	1840,00
2637,92	1753,00
2642,24	1709,00
2646,56	1743,00
2650,87	1708,00
2655,18	1792,00
2659,48	1778,00
2663,78	1737,00
2668,08	1737,00
2672,37	1779,00
2676,66	1716,00
2680,95	1834,00
2685,23	1715,00
2689,50	1750,00
2693,78	1780,00
2698,05	1846,00
2702,31	1701,00
2706,57	1907,00
2710,83	1866,00
2715,08	2046,00
2719,33	1898,00
2723,58	1977,00
2727,82	1914,00
2732,06	1903,00
2736,29	1868,00
2740,53	1844,00
2744,75	1750,00
2748,97	1883,00
2753,19	1879,00
2757,41	1827,00
2761,62	1762,00
2765,83	1758,00
2770,03	1709,00
2774,23	1633,00
2778,43	1689,00
2782,62	1695,00
2786,81	1711,00
2791,00	1693,00
2795,18	1722,00
2799,35	1743,00
2803,53	1797,00
2807,70	1868,00
2811,86	1780,00
2816,03	1935,00
2820,19	1990,00
2824,34	2059,00
2828,49	2226,00
2832,64	2356,00
2836,78	2749,00
2840,92	3161,00
2845,06	3679,00
2849,19	4173,00
2853,32	4167,00
2857,45	4169,00
2861,57	3960,00
2865,69	3798,00
2869,80	3741,00
2873,91	3843,00
2878,02	4051,00
2882,12	4419,00
2886,22	4543,00
2890,32	4213,00
2894,41	3877,00
2898,50	3456,00
2902,58	3330,00
2906,67	3212,00
2910,74	3024,00
2914,82	2801,00
2918,89	2648,00
2922,96	2511,00
2927,02	2454,00
2931,08	2333,00
2935,13	2054,00
2939,19	2049,00
2943,24	1989,00
2947,28	1865,00
2951,32	1661,00
2955,36	1608,00
2959,40	1355,00
2963,43	1412,00
2967,46	1343,00
2971,48	1412,00
2975,50	1370,00
2979,52	1161,00
2983,53	1233,00
2987,54	1117,00
2991,55	1093,00
2995,55	1076,00
2999,55	991,00
3003,54	1038,00
3007,54	925,00
3011,53	855,00
3015,51	962,00
3019,49	1019,00
3023,47	910,00
3027,45	853,00
3031,42	938,00
3035,39	885,00
3039,35	852,00
3043,31	841,00
3047,27	891,00
3051,22	861,00
3055,17	874,00
3059,12	882,00
3063,06	802,00
3067,00	931,00
3070,94	767,00
3074,87	775,00
3078,80	695,00
3082,73	797,00
3086,65	672,00
3090,57	664,00
3094,49	761,00
3098,40	718,00
3102,31	597,00
3106,22	686,00
3110,12	704,00
3114,02	549,00
3117,92	573,00
3121,81	620,00
3125,70	633,00
3129,58	669,00
3133,47	617,00
3137,34	568,00
3141,22	536,00
3145,09	561,00
3148,96	563,00
3152,83	616,00
3156,69	560,00
3160,55	687,00
3164,40	570,00
3168,26	583,00
3172,10	593,00
3175,95	587,00
3179,79	548,00
3183,63	511,00
3187,47	564,00
3191,30	325,00
3195,13	524,00
3198,95	452,00
3202,78	582,00
3206,60	453,00
3210,41	490,00
3214,23	488,00
3218,03	454,00
3221,84	429,00
3225,64	485,00
3229,44	476,00
3233,24	371,00
3237,03	369,00
3240,82	475,00
3244,61	403,00
3248,39	436,00
3252,17	444,00
3255,95	365,00
3259,72	465,00
3263,49	332,00
3267,26	406,00
3271,03	413,00
3274,79	325,00
3278,54	396,00
3282,30	342,00
3286,05	454,00
3289,80	323,00
3293,54	403,00
3297,29	377,00
3301,02	398,00
3304,76	470,00
3308,49	330,00
3312,22	365,00
3315,95	307,00
3319,67	309,00
3323,39	327,00
3327,10	319,00
3330,82	432,00
3334,53	315,00
3338,24	284,00
3341,94	328,00
3345,64	345,00
3349,34	262,00
3353,03	316,00
3356,72	251,00
3360,41	195,00
3364,10	241,00
3367,78	253,00
3371,46	177,00
3375,13	222,00
3378,81	376,00
3382,48	283,00
3386,14	267,00
3389,81	224,00
3393,47	191,00
3397,12	162,00
3400,78	110,00
3404,43	271,00
3408,08	200,00
3411,72	251,00
3415,36	246,00
3419,00	198,00
3422,64	210,00
3426,27	267,00
3429,90	219,00
3433,53	89,00
3437,15	64,00
3440,77	113,00
3444,39	167,00
3448,00	220,00
3451,62	130,00
3455,22	241,00
3458,83	96,00
3462,43	255,00
3466,03	196,00
3469,63	200,00
3473,22	167,00
3476,81	104,00
3480,40	28,00
3483,99	211,00
3487,57	142,00
3491,15	148,00
3494,72	159,00
3498,29	161,00
3501,86	149,00
3505,43	42,00
3508,99	133,00
3512,56	128,00
3516,11	151,00
3519,67	120,00
3523,22	123,00
3526,77	106,00
3530,32	66,00
3533,86	208,00
3537,40	-7,00
3540,94	90,00
3544,47	2,00
3548,00	128,00
3551,53	145,00
3555,06	45,00
3558,58	151,00
3562,10	35,00
3565,62	80,00
3569,13	29,00
3572,64	91,00
3576,15	141,00
3579,66	1,00
3583,16	104,00
3586,66	21,00
3590,16	83,00
3593,65	-2,00
3597,14	88,00
3600,63	12,00
3604,11	28,00
3607,60	26,00
3611,08	8,00
3614,55	137,00
3618,03	38,00
3621,50	-28,00
3624,97	62,00
3628,43	9,00
3631,90	37,00
3635,36	70,00
3638,81	66,00
3642,27	13,00
3645,72	105,00
3649,17	36,00
3652,61	9,00
3656,06	50,00
3659,50	-26,00
3662,93	-53,00
3666,37	82,00
3669,80	117,00
3673,23	130,00
3676,65	17,00
3680,08	24,00
3683,50	62,00
3686,92	50,00
3690,33	-11,00
3693,74	-6,00
3697,15	21,00
3700,56	-9,00
3703,96	73,00
3707,36	-51,00
3710,76	15,00
3714,16	58,00
3717,55	97,00
3720,94	95,00
3724,33	-48,00
3727,71	-55,00
3731,10	-104,00
3734,48	65,00
3737,85	-44,00
3741,23	-66,00
3744,60	-20,00
3747,97	23,00
3751,33	-8,00
3754,69	41,00
3758,05	-50,00
3761,41	86,00
3764,77	54,00
3768,12	-24,00
3771,47	-11,00
3774,82	31,00
3778,16	4,00
3781,50	8,00
3784,84	6,00
3788,18	2,00
>>>>>End Processed Spectral Data<<<<<
