SpectraSuite Data File
++++++++++++++++++++++++++++++++++++
Date: Wed Feb 11 17:00:59 ICT 2026
User: Administrator
Dark Spectrum Present: Yes
Reference Spectrum Present: No
Number of Sampled Component Spectra: 1
Spectrometers: MAYP113682
Integration Time (usec): 3000000 (MAYP113682)
Spectra Averaged: 1 (MAYP113682)
Boxcar Smoothing: 0 (MAYP113682)
Correct for Electrical Dark: No (MAYP113682)
Strobe/Lamp Enabled: No (MAYP113682)
Correct for Detector Non-linearity: No (MAYP113682)
Correct for Stray Light: No (MAYP113682)
Number of Pixels in Processed Spectrum: 2068
>>>>>Begin Processed Spectral Data<<<<<
-37534,58	12,00
-37414,56	5,00
-37295,11	1,00
-37176,24	2,00
-37057,95	102,00
-36940,22	-71,00
-36823,05	18,00
-36706,45	57,00
-36590,40	31,00
-36474,90	32,00
-36359,95	-32,00
-36245,55	-1,00
-36131,68	-27,00
-36018,35	46,00
-35905,55	101,00
-35793,29	83,00
-35681,54	37,00
-35570,32	83,00
-35459,62	144,00
-35349,43	25,00
-35239,75	64,00
-35130,58	63,00
-35021,91	13,00
-34913,74	-22,00
-34806,07	-23,00
-34698,89	29,00
-34592,20	119,00
-34486,00	13,00
-34380,28	83,00
-34275,04	39,00
-34170,27	22,00
-34065,98	-51,00
-33962,16	-22,00
-33858,81	126,00
-33755,92	30,00
-33653,49	-30,00
-33551,52	-31,00
-33450,01	-53,00
-33348,94	-18,00
-33248,33	-12,00
-33148,16	-4,00
-33048,43	35,00
-32949,14	-10,00
-32850,29	-41,00
-32751,87	16,00
-32653,89	12,00
-32556,33	-160,00
-32459,20	-8,00
-32362,49	72,00
-32266,19	-11,00
-32170,32	17,00
-32074,86	-7,00
-31979,82	-25,00
-31885,18	2,00
-31790,95	10,00
-31697,12	32,00
-31603,69	3,00
-31510,67	5,00
-31418,04	163,00
-31325,80	0,00
-31233,95	126,00
-31142,49	13,00
-31051,42	15,00
-30960,73	10,00
-30870,43	90,00
-30780,50	51,00
-30690,95	-11,00
-30601,77	63,00
-30512,97	23,00
-30424,53	48,00
-30336,46	44,00
-30248,76	108,00
-30161,42	70,00
-30074,44	-5,00
-29987,81	-45,00
-29901,55	85,00
-29815,63	68,00
-29730,07	42,00
-29644,86	-33,00
-29560,00	73,00
-29475,48	22,00
-29391,30	51,00
-29307,47	26,00
-29223,97	7,00
-29140,81	-31,00
-29057,99	12,00
-28975,50	100,00
-28893,34	26,00
-28811,51	-8,00
-28730,00	71,00
-28648,82	99,00
-28567,97	2,00
-28487,43	36,00
-28407,21	-34,00
-28327,32	-1,00
-28247,73	28,00
-28168,46	114,00
-28089,50	25,00
-28010,85	-34,00
-27932,51	20,00
-27854,48	59,00
-27776,75	-2,00
-27699,32	26,00
-27622,19	48,00
-27545,37	-49,00
-27468,84	143,00
-27392,60	13,00
-27316,66	-47,00
-27241,01	49,00
-27165,66	49,00
-27090,59	-74,00
-27015,81	56,00
-26941,31	91,00
-26867,10	55,00
-26793,17	79,00
-26719,52	42,00
-26646,15	-81,00
-26573,06	92,00
-26500,24	-16,00
-26427,70	11,00
-26355,43	20,00
-26283,43	29,00
-26211,71	22,00
-26140,25	106,00
-26069,06	86,00
-25998,13	37,00
-25927,46	-35,00
-25857,06	-40,00
-25786,92	32,00
-25717,04	35,00
-25647,42	18,00
-25578,05	119,00
-25508,94	-17,00
-25440,09	24,00
-25371,48	-4,00
-25303,13	48,00
-25235,02	82,00
-25167,17	43,00
-25099,56	-17,00
-25032,19	2,00
-24965,07	6,00
-24898,20	69,00
-24831,56	-3,00
-24765,17	3,00
-24699,01	-9,00
-24633,10	56,00
-24567,41	72,00
-24501,97	-50,00
-24436,75	52,00
-24371,77	-2,00
-24307,03	-59,00
-24242,51	20,00
-24178,22	-17,00
-24114,16	51,00
-24050,32	94,00
-23986,71	38,00
-23923,32	84,00
-23860,16	-1,00
-23797,22	22,00
-23734,50	20,00
-23672,00	20,00
-23609,71	2,00
-23547,65	45,00
-23485,80	22,00
-23424,16	-36,00
-23362,74	71,00
-23301,53	-58,00
-23240,54	4,00
-23179,75	81,00
-23119,17	63,00
-23058,80	-19,00
-22998,64	64,00
-22938,68	-3,00
-22878,93	-21,00
-22819,39	32,00
-22760,04	-66,00
-22700,90	-135,00
-22641,96	68,00
-22583,22	20,00
-22524,68	-74,00
-22466,33	-60,00
-22408,19	48,00
-22350,23	-37,00
-22292,48	-15,00
-22234,92	4,00
-22177,55	-54,00
-22120,37	38,00
-22063,38	65,00
-22006,58	147,00
-21949,98	46,00
-21893,56	43,00
-21837,33	102,00
-21781,28	11,00
-21725,42	1,00
-21669,74	13,00
-21614,25	36,00
-21558,94	-49,00
-21503,81	85,00
-21448,86	-2,00
-21394,10	133,00
-21339,51	53,00
-21285,10	104,00
-21230,86	-20,00
-21176,81	56,00
-21122,93	27,00
-21069,22	-28,00
-21015,69	-4,00
-20962,33	34,00
-20909,14	22,00
-20856,13	149,00
-20803,28	-23,00
-20750,61	57,00
-20698,10	-11,00
-20645,76	13,00
-20593,59	-29,00
-20541,59	20,00
-20489,75	49,00
-20438,07	20,00
-20386,56	167,00
-20335,22	13,00
-20284,03	-39,00
-20233,01	42,00
-20182,15	12,00
-20131,45	7,00
-20080,91	-8,00
-20030,52	-10,00
-19980,30	-36,00
-19930,23	78,00
-19880,32	29,00
-19830,56	-50,00
-19780,96	33,00
-19731,52	100,00
-19682,23	109,00
-19633,09	-68,00
-19584,10	-70,00
-19535,26	54,00
-19486,58	55,00
-19438,04	54,00
-19389,66	34,00
-19341,42	51,00
-19293,33	-109,00
-19245,39	13,00
-19197,60	-4,00
-19149,95	0,00
-19102,45	105,00
-19055,09	72,00
-19007,87	46,00
-18960,80	86,00
-18913,87	133,00
-18867,09	-66,00
-18820,44	69,00
-18773,94	40,00
-18727,57	4,00
-18681,35	59,00
-18635,26	40,00
-18589,31	21,00
-18543,50	86,00
-18497,83	18,00
-18452,29	100,00
-18406,89	7,00
-18361,63	35,00
-18316,50	-21,00
-18271,50	-108,00
-18226,63	-78,00
-18181,90	47,00
-18137,30	136,00
-18092,84	2,00
-18048,50	71,00
-18004,29	-14,00
-17960,22	71,00
-17916,27	-7,00
-17872,45	77,00
-17828,76	-42,00
-17785,20	11,00
-17741,77	36,00
-17698,46	-6,00
-17655,28	118,00
-17612,22	28,00
-17569,29	-76,00
-17526,48	71,00
-17483,79	27,00
-17441,23	-56,00
-17398,79	30,00
-17356,48	99,00
-17314,28	129,00
-17272,21	92,00
-17230,26	-49,00
-17188,42	47,00
-17146,71	6,00
-17105,12	62,00
-17063,64	86,00
-17022,28	-80,00
-16981,04	152,00
-16939,92	64,00
-16898,91	37,00
-16858,02	-6,00
-16817,25	-102,00
-16776,59	27,00
-16736,04	-34,00
-16695,61	-31,00
-16655,29	-70,00
-16615,09	22,00
-16574,99	12,00
-16535,01	53,00
-16495,15	46,00
-16455,39	77,00
-16415,74	-13,00
-16376,21	99,00
-16336,78	92,00
-16297,46	80,00
-16258,26	-6,00
-16219,16	-31,00
-16180,17	3,00
-16141,28	-17,00
-16102,51	-8,00
-16063,84	137,00
-16025,27	13,00
-15986,82	-81,00
-15948,46	91,00
-15910,22	13,00
-15872,07	54,00
-15834,04	-44,00
-15796,10	75,00
-15758,27	36,00
-15720,54	-29,00
-15682,91	84,00
-15645,39	47,00
-15607,97	69,00
-15570,64	49,00
-15533,42	-21,00
-15496,30	18,00
-15459,28	70,00
-15422,36	7,00
-15385,54	-3,00
-15348,82	127,00
-15312,19	-84,00
-15275,66	9,00
-15239,23	-26,00
-15202,90	-33,00
-15166,67	-14,00
-15130,53	-64,00
-15094,48	45,00
-15058,54	64,00
-15022,68	89,00
-14986,93	70,00
-14951,26	42,00
-14915,69	-62,00
-14880,22	49,00
-14844,84	-6,00
-14809,55	15,00
-14774,35	-40,00
-14739,25	17,00
-14704,24	-49,00
-14669,32	-3,00
-14634,49	-23,00
-14599,75	10,00
-14565,10	-25,00
-14530,55	-6,00
-14496,08	-26,00
-14461,70	91,00
-14427,41	79,00
-14393,21	-14,00
-14359,10	6,00
-14325,07	48,00
-14291,14	35,00
-14257,29	39,00
-14223,52	23,00
-14189,85	-48,00
-14156,26	181,00
-14122,76	83,00
-14089,34	58,00
-14056,01	-124,00
-14022,76	-23,00
-13989,60	-23,00
-13956,52	-19,00
-13923,53	20,00
-13890,62	17,00
-13857,79	-44,00
-13825,05	-52,00
-13792,39	69,00
-13759,81	25,00
-13727,31	-16,00
-13694,90	3,00
-13662,57	-12,00
-13630,31	-18,00
-13598,14	68,00
-13566,05	39,00
-13534,05	20,00
-13502,12	21,00
-13470,27	197,00
-13438,50	74,00
-13406,80	68,00
-13375,19	76,00
-13343,66	2,00
-13312,20	88,00
-13280,83	-17,00
-13249,53	87,00
-13218,30	-125,00
-13187,16	57,00
-13156,09	83,00
-13125,10	0,00
-13094,18	-46,00
-13063,34	-8,00
-13032,58	91,00
-13001,89	2,00
-12971,28	-26,00
-12940,74	29,00
-12910,27	52,00
-12879,88	45,00
-12849,57	8,00
-12819,33	-37,00
-12789,16	151,00
-12759,06	76,00
-12729,04	-5,00
-12699,09	0,00
-12669,21	-68,00
-12639,41	18,00
-12609,68	124,00
-12580,02	-11,00
-12550,43	-102,00
-12520,91	44,00
-12491,46	15,00
-12462,08	20,00
-12432,77	-39,00
-12403,54	-19,00
-12374,37	61,00
-12345,27	12,00
-12316,24	79,00
-12287,29	103,00
-12258,40	42,00
-12229,57	97,00
-12200,82	40,00
-12172,14	41,00
-12143,52	40,00
-12114,97	-8,00
-12086,49	75,00
-12058,07	-51,00
-12029,73	176,00
-12001,44	57,00
-11973,23	10,00
-11945,08	-44,00
-11917,00	76,00
-11888,98	27,00
-11861,03	-89,00
-11833,15	80,00
-11805,32	52,00
-11777,57	71,00
-11749,88	-9,00
-11722,25	5,00
-11694,69	93,00
-11667,19	-49,00
-11639,75	28,00
-11612,38	69,00
-11585,07	-51,00
-11557,83	100,00
-11530,65	-84,00
-11503,53	22,00
-11476,47	71,00
-11449,48	-13,00
-11422,54	58,00
-11395,67	11,00
-11368,86	115,00
-11342,11	-73,00
-11315,43	41,00
-11288,80	16,00
-11262,23	-6,00
-11235,73	7,00
-11209,28	94,00
-11182,90	44,00
-11156,57	-2,00
-11130,31	50,00
-11104,10	42,00
-11077,96	74,00
-11051,87	-11,00
-11025,84	71,00
-10999,87	16,00
-10973,96	62,00
-10948,11	-21,00
-10922,31	135,00
-10896,58	89,00
-10870,90	6,00
-10845,28	172,00
-10819,71	97,00
-10794,20	75,00
-10768,75	54,00
-10743,36	2,00
-10718,02	126,00
-10692,74	17,00
-10667,52	2,00
-10642,35	108,00
-10617,24	33,00
-10592,18	60,00
-10567,18	86,00
-10542,23	91,00
-10517,34	73,00
-10492,51	64,00
-10467,72	93,00
-10443,00	65,00
-10418,32	197,00
-10393,70	108,00
-10369,14	26,00
-10344,63	90,00
-10320,17	27,00
-10295,77	121,00
-10271,42	133,00
-10247,12	303,00
-10222,88	221,00
-10198,68	232,00
-10174,54	254,00
-10150,46	218,00
-10126,42	246,00
-10102,44	241,00
-10078,51	304,00
-10054,63	214,00
-10030,80	310,00
-10007,03	349,00
-9983,30	272,00
-9959,63	365,00
-9936,01	357,00
-9912,44	379,00
-9888,92	304,00
-9865,44	427,00
-9842,02	450,00
-9818,65	516,00
-9795,33	484,00
-9772,06	539,00
-9748,84	402,00
-9725,67	548,00
-9702,55	595,00
-9679,47	787,00
-9656,45	786,00
-9633,47	802,00
-9610,55	840,00
-9587,67	1000,00
-9564,84	1032,00
-9542,06	1150,00
-9519,32	1312,00
-9496,64	1389,00
-9474,00	1728,00
-9451,41	1599,00
-9428,87	1729,00
-9406,37	1748,00
-9383,92	1566,00
-9361,52	1628,00
-9339,17	1694,00
-9316,86	1896,00
-9294,60	2171,00
-9272,38	2484,00
-9250,21	2708,00
-9228,09	2898,00
-9206,01	2812,00
-9183,98	2687,00
-9162,00	2372,00
-9140,06	2234,00
-9118,16	2244,00
-9096,31	2369,00
-9074,51	2607,00
-9052,75	2526,00
-9031,04	2507,00
-9009,37	2103,00
-8987,74	1883,00
-8966,16	1849,00
-8944,63	1650,00
-8923,14	1502,00
-8901,69	1614,00
-8880,29	1766,00
-8858,93	2042,00
-8837,61	2097,00
-8816,34	2184,00
-8795,11	2233,00
-8773,92	2083,00
-8752,78	1831,00
-8731,68	1778,00
-8710,62	1793,00
-8689,61	1852,00
-8668,63	1895,00
-8647,70	2115,00
-8626,82	2118,00
-8605,97	1956,00
-8585,17	1813,00
-8564,41	1713,00
-8543,69	1703,00
-8523,01	1429,00
-8502,37	1533,00
-8481,78	1777,00
-8461,23	1960,00
-8440,71	1884,00
-8420,24	2194,00
-8399,81	2055,00
-8379,42	2081,00
-8359,08	1825,00
-8338,77	1871,00
-8318,50	1739,00
-8298,27	1627,00
-8278,09	1591,00
-8257,94	1827,00
-8237,83	2086,00
-8217,76	1920,00
-8197,74	1981,00
-8177,75	1984,00
-8157,80	1794,00
-8137,89	1644,00
-8118,02	1529,00
-8098,19	1528,00
-8078,40	1615,00
-8058,65	1656,00
-8038,93	1736,00
-8019,26	1537,00
-7999,62	1517,00
-7980,02	1460,00
-7960,46	1424,00
-7940,94	1360,00
-7921,46	1365,00
-7902,01	1335,00
-7882,60	1205,00
-7863,23	1281,00
-7843,90	1259,00
-7824,61	1246,00
-7805,35	1490,00
-7786,13	1527,00
-7766,95	1467,00
-7747,80	1352,00
-7728,69	1251,00
-7709,62	1319,00
-7690,59	1358,00
-7671,59	1502,00
-7652,63	1543,00
-7633,70	1518,00
-7614,81	1516,00
-7595,96	1310,00
-7577,15	1218,00
-7558,37	1192,00
-7539,62	1157,00
-7520,91	1306,00
-7502,24	1481,00
-7483,60	1440,00
-7465,00	1411,00
-7446,44	1237,00
-7427,91	1017,00
-7409,41	860,00
-7390,95	936,00
-7372,53	905,00
-7354,14	786,00
-7335,78	758,00
-7317,46	883,00
-7299,18	1002,00
-7280,92	1160,00
-7262,71	1257,00
-7244,52	1247,00
-7226,38	1301,00
-7208,26	1272,00
-7190,18	1158,00
-7172,14	1129,00
-7154,12	1150,00
-7136,15	1265,00
-7118,20	1299,00
-7100,29	1347,00
-7082,41	1335,00
-7064,57	1181,00
-7046,76	1059,00
-7028,98	1054,00
-7011,24	792,00
-6993,53	868,00
-6975,85	780,00
-6958,20	607,00
-6940,59	615,00
-6923,01	697,00
-6905,46	884,00
-6887,94	829,00
-6870,46	1246,00
-6853,01	1244,00
-6835,59	1227,00
-6818,21	1064,00
-6800,85	962,00
-6783,53	686,00
-6766,24	550,00
-6748,98	531,00
-6731,76	533,00
-6714,56	414,00
-6697,40	519,00
-6680,26	461,00
-6663,16	629,00
-6646,09	698,00
-6629,05	841,00
-6612,05	957,00
-6595,07	888,00
-6578,13	833,00
-6561,21	619,00
-6544,33	569,00
-6527,47	398,00
-6510,65	451,00
-6493,86	388,00
-6477,10	285,00
-6460,36	368,00
-6443,66	428,00
-6426,99	368,00
-6410,35	412,00
-6393,74	436,00
-6377,16	543,00
-6360,61	554,00
-6344,09	610,00
-6327,59	600,00
-6311,13	526,00
-6294,70	657,00
-6278,29	643,00
-6261,92	742,00
-6245,58	782,00
-6229,26	854,00
-6212,97	732,00
-6196,72	639,00
-6180,49	508,00
-6164,29	191,00
-6148,12	186,00
-6131,98	248,00
-6115,86	298,00
-6099,78	172,00
-6083,72	188,00
-6067,69	120,00
-6051,69	238,00
-6035,72	218,00
-6019,78	397,00
-6003,87	365,00
-5987,98	444,00
-5972,12	612,00
-5956,29	615,00
-5940,49	531,00
-5924,71	330,00
-5908,96	237,00
-5893,24	124,00
-5877,55	355,00
-5861,89	155,00
-5846,25	326,00
-5830,64	282,00
-5815,05	248,00
-5799,50	304,00
-5783,97	235,00
-5768,47	354,00
-5752,99	569,00
-5737,55	538,00
-5722,12	627,00
-5706,73	618,00
-5691,36	460,00
-5676,02	295,00
-5660,71	300,00
-5645,42	240,00
-5630,16	225,00
-5614,92	332,00
-5599,71	391,00
-5584,53	368,00
-5569,37	529,00
-5554,24	1235,00
-5539,14	427,00
-5524,06	324,00
-5509,01	302,00
-5493,98	530,00
-5478,98	457,00
-5464,00	390,00
-5449,05	417,00
-5434,13	299,00
-5419,23	190,00
-5404,36	215,00
-5389,51	391,00
-5374,69	440,00
-5359,89	575,00
-5345,12	708,00
-5330,37	537,00
-5315,65	504,00
-5300,95	445,00
-5286,28	364,00
-5271,63	350,00
-5257,01	334,00
-5242,41	223,00
-5227,84	138,00
-5213,29	292,00
-5198,76	149,00
-5184,26	103,00
-5169,79	163,00
-5155,33	305,00
-5140,91	368,00
-5126,51	413,00
-5112,13	501,00
-5097,77	286,00
-5083,44	237,00
-5069,13	164,00
-5054,85	290,00
-5040,59	460,00
-5026,36	291,00
-5012,15	351,00
-4997,96	426,00
-4983,80	343,00
-4969,66	228,00
-4955,54	169,00
-4941,44	213,00
-4927,37	527,00
-4913,33	608,00
-4899,30	699,00
-4885,30	663,00
-4871,33	359,00
-4857,37	300,00
-4843,44	112,00
-4829,53	124,00
-4815,65	325,00
-4801,79	295,00
-4787,95	318,00
-4774,13	165,00
-4760,34	109,00
-4746,56	40,00
-4732,82	174,00
-4719,09	142,00
-4705,38	487,00
-4691,70	557,00
-4678,04	593,00
-4664,41	295,00
-4650,79	262,00
-4637,20	136,00
-4623,63	175,00
-4610,08	277,00
-4596,56	310,00
-4583,05	321,00
-4569,57	345,00
-4556,11	138,00
-4542,67	178,00
-4529,25	203,00
-4515,86	354,00
-4502,49	545,00
-4489,13	413,00
-4475,80	393,00
-4462,49	242,00
-4449,21	247,00
-4435,94	111,00
-4422,70	242,00
-4409,47	298,00
-4396,27	358,00
-4383,09	194,00
-4369,93	134,00
-4356,79	66,00
-4343,67	88,00
-4330,58	134,00
-4317,50	195,00
-4304,45	235,00
-4291,41	103,00
-4278,40	165,00
-4265,41	84,00
-4252,44	236,00
-4239,49	230,00
-4226,55	360,00
-4213,65	162,00
-4200,76	121,00
-4187,89	59,00
-4175,04	150,00
-4162,21	76,00
-4149,40	118,00
-4136,61	126,00
-4123,85	128,00
-4111,10	12,00
-4098,37	81,00
-4085,66	100,00
-4072,98	75,00
-4060,31	80,00
-4047,66	-50,00
-4035,04	135,00
-4022,43	33,00
-4009,84	79,00
-3997,27	91,00
-3984,72	113,00
-3972,19	18,00
-3959,69	-37,00
-3947,20	79,00
-3934,73	9,00
-3922,27	111,00
-3909,84	-19,00
-3897,43	63,00
-3885,04	99,00
-3872,67	-37,00
-3860,31	17,00
-3847,98	74,00
-3835,66	30,00
-3823,36	48,00
-3811,09	-4,00
-3798,83	63,00
-3786,59	-52,00
-3774,37	-37,00
-3762,17	125,00
-3749,98	-63,00
-3737,82	0,00
-3725,67	62,00
-3713,55	72,00
-3701,44	66,00
-3689,35	28,00
-3677,28	69,00
-3665,22	89,00
-3653,19	-116,00
-3641,17	-11,00
-3629,18	9,00
-3617,20	-41,00
-3605,24	95,00
-3593,30	11,00
-3581,37	32,00
-3569,47	-142,00
-3557,58	-7,00
-3545,71	23,00
-3533,86	90,00
-3522,02	40,00
-3510,21	-4,00
-3498,41	32,00
-3486,63	-55,00
-3474,87	22,00
-3463,12	149,00
-3451,40	-4,00
-3439,69	57,00
-3428,00	35,00
-3416,33	101,00
-3404,67	25,00
-3393,03	-27,00
-3381,41	62,00
-3369,81	40,00
-3358,22	-56,00
-3346,66	117,00
-3335,10	32,00
-3323,57	167,00
-3312,06	100,00
-3300,56	45,00
-3289,08	-19,00
-3277,61	-145,00
-3266,16	-48,00
-3254,73	9,00
-3243,32	62,00
-3231,92	23,00
-3220,55	83,00
-3209,18	71,00
-3197,84	64,00
-3186,51	27,00
-3175,20	-64,00
-3163,90	54,00
-3152,63	21,00
-3141,36	33,00
-3130,12	8,00
-3118,89	107,00
-3107,68	26,00
-3096,49	13,00
-3085,31	51,00
-3074,15	7,00
-3063,00	30,00
-3051,87	111,00
-3040,76	92,00
-3029,67	-18,00
-3018,59	96,00
-3007,52	45,00
-2996,48	-97,00
-2985,44	38,00
-2974,43	103,00
-2963,43	59,00
-2952,45	-52,00
-2941,48	80,00
-2930,53	99,00
-2919,60	147,00
-2908,68	-17,00
-2897,78	68,00
-2886,89	-62,00
-2876,02	-15,00
-2865,17	-14,00
-2854,33	33,00
-2843,50	-109,00
-2832,70	103,00
-2821,90	95,00
-2811,13	18,00
-2800,37	97,00
-2789,62	91,00
-2778,89	30,00
-2768,18	113,00
-2757,48	37,00
-2746,80	115,00
-2736,13	-54,00
-2725,48	52,00
-2714,84	-37,00
-2704,22	-80,00
-2693,61	96,00
-2683,02	-49,00
-2672,45	7,00
-2661,89	11,00
-2651,34	23,00
-2640,81	-78,00
-2630,30	94,00
-2619,80	89,00
-2609,31	-1,00
-2598,84	27,00
-2588,39	13,00
-2577,95	38,00
-2567,52	82,00
-2557,11	-26,00
-2546,71	1,00
-2536,33	86,00
-2525,97	-33,00
-2515,62	8,00
-2505,28	66,00
-2494,96	-102,00
-2484,65	-50,00
-2474,36	78,00
-2464,08	51,00
-2453,82	27,00
-2443,57	-2,00
-2433,33	98,00
-2423,11	15,00
-2412,91	2,00
-2402,72	-96,00
-2392,54	10,00
-2382,38	60,00
-2372,23	-45,00
-2362,09	-236,00
-2351,97	45,00
-2341,87	103,00
-2331,78	34,00
-2321,70	54,00
-2311,64	-15,00
-2301,59	125,00
-2291,55	57,00
-2281,53	-46,00
-2271,53	103,00
-2261,53	23,00
-2251,55	103,00
-2241,59	-87,00
-2231,64	140,00
-2221,70	33,00
-2211,78	17,00
-2201,87	-45,00
-2191,97	50,00
-2182,09	44,00
-2172,22	22,00
-2162,37	-34,00
-2152,53	31,00
-2142,70	-14,00
-2132,89	73,00
-2123,09	36,00
-2113,30	55,00
-2103,53	-49,00
-2093,77	-40,00
-2084,02	98,00
-2074,29	35,00
-2064,57	-80,00
-2054,86	130,00
-2045,17	41,00
-2035,49	59,00
-2025,82	61,00
-2016,17	81,00
-2006,53	24,00
-1996,91	54,00
-1987,29	-13,00
-1977,69	134,00
-1968,11	151,00
-1958,53	-13,00
-1948,97	46,00
-1939,42	95,00
-1929,89	-27,00
-1920,37	99,00
-1910,86	77,00
-1901,36	55,00
-1891,88	82,00
-1882,41	-26,00
-1872,95	92,00
-1863,51	145,00
-1854,08	25,00
-1844,66	25,00
-1835,26	47,00
-1825,86	-40,00
-1816,48	94,00
-1807,11	83,00
-1797,76	-56,00
-1788,42	111,00
-1779,09	-28,00
-1769,77	163,00
-1760,47	-26,00
-1751,17	75,00
-1741,89	100,00
-1732,63	8,00
-1723,37	137,00
-1714,13	-15,00
-1704,90	59,00
-1695,68	47,00
-1686,48	47,00
-1677,29	133,00
-1668,11	-16,00
-1658,94	89,00
-1649,78	44,00
-1640,64	55,00
-1631,51	95,00
-1622,39	-31,00
-1613,28	21,00
-1604,19	103,00
-1595,10	79,00
-1586,03	6,00
-1576,97	132,00
-1567,93	42,00
-1558,89	13,00
-1549,87	11,00
-1540,86	30,00
-1531,86	109,00
-1522,87	-47,00
-1513,90	58,00
-1504,93	-44,00
-1495,98	57,00
-1487,04	76,00
-1478,12	138,00
-1469,20	-36,00
-1460,30	74,00
-1451,40	-25,00
-1442,52	-3,00
-1433,65	16,00
-1424,80	64,00
-1415,95	-82,00
-1407,12	157,00
-1398,30	-2,00
-1389,48	-142,00
-1380,69	-23,00
-1371,90	-4,00
-1363,12	-52,00
-1354,36	109,00
-1345,60	-43,00
-1336,86	-35,00
-1328,13	102,00
-1319,41	70,00
-1310,70	-32,00
-1302,01	44,00
-1293,32	-59,00
-1284,65	-2,00
-1275,99	-10,00
-1267,33	65,00
-1258,69	20,00
-1250,06	98,00
-1241,45	102,00
-1232,84	35,00
-1224,25	-19,00
-1215,66	76,00
-1207,09	16,00
-1198,53	96,00
-1189,97	17,00
-1181,43	134,00
-1172,91	2,00
-1164,39	90,00
-1155,88	26,00
-1147,38	28,00
-1138,90	11,00
-1130,43	21,00
-1121,96	107,00
-1113,51	17,00
-1105,07	92,00
-1096,64	93,00
-1088,22	74,00
-1079,81	29,00
-1071,41	-75,00
-1063,02	8,00
-1054,65	46,00
-1046,28	66,00
-1037,92	32,00
-1029,58	16,00
-1021,24	14,00
-1012,92	-9,00
-1004,61	75,00
-996,30	68,00
-988,01	71,00
-979,73	47,00
-971,46	85,00
-963,20	-42,00
-954,95	89,00
-946,71	51,00
-938,48	-53,00
-930,26	33,00
-922,06	94,00
-913,86	123,00
-905,67	28,00
-897,49	17,00
-889,33	10,00
-881,17	10,00
-873,02	136,00
-864,89	-70,00
-856,76	42,00
-848,65	153,00
-840,54	73,00
-832,45	50,00
-824,36	49,00
-816,29	81,00
-808,22	-49,00
-800,17	77,00
-792,12	90,00
-784,09	-29,00
-776,06	28,00
-768,05	-33,00
-760,04	100,00
-752,05	41,00
-744,07	-58,00
-736,09	-6,00
-728,13	89,00
-720,17	-1,00
-712,23	-35,00
-704,29	6,00
-696,37	31,00
-688,45	-2,00
-680,55	32,00
-672,65	36,00
-664,77	87,00
-656,89	5,00
-649,03	-24,00
-641,17	-23,00
-633,32	108,00
-625,49	22,00
-617,66	-32,00
-609,84	-22,00
-602,03	-1,00
-594,23	30,00
-586,45	93,00
-578,67	47,00
-570,90	97,00
-563,14	18,00
-555,39	-103,00
-547,65	80,00
-539,91	-108,00
-532,19	158,00
-524,48	-65,00
-516,78	-67,00
-509,08	35,00
-501,40	-23,00
-493,72	25,00
-486,06	86,00
-478,40	36,00
-470,76	205,00
-463,12	-7,00
-455,49	3,00
-447,87	96,00
-440,26	38,00
-432,66	55,00
-425,07	82,00
-417,49	38,00
-409,92	25,00
-402,35	83,00
-394,80	67,00
-387,25	53,00
-379,72	88,00
-372,19	51,00
-364,67	107,00
-357,17	-60,00
-349,67	93,00
-342,18	72,00
-334,69	10,00
-327,22	110,00
-319,76	83,00
-312,30	31,00
-304,86	36,00
-297,42	95,00
-290,00	113,00
-282,58	2,00
-275,17	52,00
-267,77	4,00
-260,37	87,00
-252,99	-68,00
-245,62	118,00
-238,25	6,00
-230,90	111,00
-223,55	161,00
-216,21	146,00
-208,88	218,00
-201,56	170,00
-194,25	225,00
-186,94	277,00
-179,65	249,00
-172,36	216,00
-165,08	257,00
-157,81	312,00
-150,55	250,00
-143,30	290,00
-136,06	300,00
-128,82	403,00
-121,60	412,00
-114,38	421,00
-107,17	525,00
-99,97	568,00
-92,78	725,00
-85,60	699,00
-78,42	964,00
-71,25	1087,00
-64,10	1134,00
-56,95	1305,00
-49,81	1601,00
-42,67	2045,00
-35,55	2589,00
-28,43	3313,00
-21,33	5489,00
-14,23	17417,00
-7,14	56043,00
-0,05	55763,00
7,02	55513,00
14,09	55717,00
21,14	17858,00
28,19	7100,00
35,23	4607,00
42,27	3377,00
49,29	2868,00
56,31	2406,00
63,32	1909,00
70,32	1759,00
77,31	1487,00
84,29	1203,00
91,27	932,00
98,23	986,00
105,19	930,00
112,14	1016,00
119,09	1826,00
126,02	3176,00
132,95	3780,00
139,87	4111,00
146,78	4085,00
153,68	4108,00
160,58	4049,00
167,46	4062,00
174,34	3956,00
181,21	3979,00
188,08	3909,00
194,93	3847,00
201,78	4168,00
208,62	4033,00
215,45	4007,00
222,27	4107,00
229,09	4076,00
235,90	4043,00
242,70	4001,00
249,49	3932,00
256,27	3965,00
263,05	3772,00
269,82	3973,00
276,58	4028,00
283,33	3826,00
290,08	3903,00
296,82	3799,00
303,55	3824,00
310,27	3815,00
316,98	3610,00
323,69	3704,00
330,39	3729,00
337,08	3753,00
343,76	3733,00
350,44	3881,00
357,11	3769,00
363,77	3630,00
370,42	3800,00
377,07	3661,00
383,71	3762,00
390,34	3801,00
396,96	3773,00
403,58	3714,00
410,19	3790,00
416,79	3770,00
423,38	3793,00
429,97	3650,00
436,55	3625,00
443,12	3588,00
449,68	3556,00
456,24	3533,00
462,79	3607,00
469,33	3456,00
475,86	3557,00
482,39	3634,00
488,91	3603,00
495,42	3495,00
501,93	3443,00
508,42	3464,00
514,91	3587,00
521,40	3423,00
527,87	3407,00
534,34	3385,00
540,80	3237,00
547,25	3350,00
553,70	3285,00
560,14	3401,00
566,57	3365,00
573,00	3264,00
579,41	3419,00
585,83	3463,00
592,23	3283,00
598,62	3182,00
605,01	3229,00
611,40	3306,00
617,77	3281,00
624,14	3229,00
630,50	3250,00
636,85	3085,00
643,20	3110,00
649,54	3155,00
655,87	3197,00
662,20	3134,00
668,52	2996,00
674,83	3248,00
681,13	3138,00
687,43	3106,00
693,72	2966,00
700,00	2970,00
706,28	3013,00
712,55	3085,00
718,81	2989,00
725,07	2999,00
731,32	2965,00
737,56	2966,00
743,79	3020,00
750,02	3012,00
756,24	3021,00
762,46	3091,00
768,67	2918,00
774,87	2795,00
781,06	3036,00
787,25	2944,00
793,43	2854,00
799,60	2929,00
805,77	2894,00
811,93	2850,00
818,08	2869,00
824,23	2967,00
830,37	2982,00
836,50	2785,00
842,63	2828,00
848,75	2863,00
854,87	2780,00
860,97	2877,00
867,07	2694,00
873,17	2642,00
879,25	2663,00
885,33	2817,00
891,41	2790,00
897,47	2722,00
903,53	2615,00
909,59	2638,00
915,63	2700,00
921,67	2704,00
927,71	2757,00
933,74	2689,00
939,76	2625,00
945,77	2490,00
951,78	2563,00
957,78	2535,00
963,78	2714,00
969,77	2562,00
975,75	2577,00
981,72	2664,00
987,69	2404,00
993,66	2603,00
999,61	2587,00
1005,56	2523,00
1011,51	2669,00
1017,44	2614,00
1023,37	2555,00
1029,30	2560,00
1035,22	2589,00
1041,13	2474,00
1047,03	2621,00
1052,93	2709,00
1058,83	2963,00
1064,71	3209,00
1070,59	2964,00
1076,47	2746,00
1082,33	2568,00
1088,20	2483,00
1094,05	2518,00
1099,90	2422,00
1105,74	2483,00
1111,58	2639,00
1117,41	2588,00
1123,23	2755,00
1129,05	3134,00
1134,86	2973,00
1140,67	2599,00
1146,47	2434,00
1152,26	2384,00
1158,05	2337,00
1163,83	2499,00
1169,60	2442,00
1175,37	2313,00
1181,13	2307,00
1186,89	2318,00
1192,64	2376,00
1198,38	2375,00
1204,12	2330,00
1209,85	2271,00
1215,58	2122,00
1221,30	2274,00
1227,02	2262,00
1232,72	2274,00
1238,43	2325,00
1244,12	2227,00
1249,81	2235,00
1255,50	2304,00
1261,17	2243,00
1266,85	2302,00
1272,51	2398,00
1278,17	2216,00
1283,83	2560,00
1289,47	2899,00
1295,12	3303,00
1300,75	3133,00
1306,38	2733,00
1312,01	2515,00
1317,63	2401,00
1323,24	2401,00
1328,85	2378,00
1334,45	2474,00
1340,04	2312,00
1345,63	2273,00
1351,22	2321,00
1356,80	2370,00
1362,37	2378,00
1367,93	2440,00
1373,49	2410,00
1379,05	2528,00
1384,60	2464,00
1390,14	2432,00
1395,68	2285,00
1401,21	2434,00
1406,74	2534,00
1412,26	2568,00
1417,77	2723,00
1423,28	2749,00
1428,78	2778,00
1434,28	3011,00
1439,77	3238,00
1445,26	3173,00
1450,74	3038,00
1456,22	3027,00
1461,68	2906,00
1467,15	2806,00
1472,61	2617,00
1478,06	2528,00
1483,51	2288,00
1488,95	2318,00
1494,38	2233,00
1499,81	2198,00
1505,24	2234,00
1510,65	2133,00
1516,07	2058,00
1521,48	2044,00
1526,88	2009,00
1532,27	2073,00
1537,67	1981,00
1543,05	2072,00
1548,43	1967,00
1553,81	2022,00
1559,18	1857,00
1564,54	1993,00
1569,90	2020,00
1575,25	1883,00
1580,60	1873,00
1585,94	1893,00
1591,28	1868,00
1596,61	1963,00
1601,93	1991,00
1607,25	1785,00
1612,57	1925,00
1617,88	1975,00
1623,18	1978,00
1628,48	1811,00
1633,77	1839,00
1639,06	1959,00
1644,34	1736,00
1649,62	1825,00
1654,89	1757,00
1660,16	1745,00
1665,42	1843,00
1670,67	1804,00
1675,92	1788,00
1681,17	1849,00
1686,41	1732,00
1691,64	1598,00
1696,87	1910,00
1702,10	1558,00
1707,32	1740,00
1712,53	1722,00
1717,74	1573,00
1722,94	1689,00
1728,14	1611,00
1733,33	1624,00
1738,52	1565,00
1743,70	1577,00
1748,88	1594,00
1754,05	1440,00
1759,22	1610,00
1764,38	158,00
1769,53	1563,00
1774,69	1406,00
1779,83	1548,00
1784,97	1574,00
1790,11	1542,00
1795,24	1541,00
1800,36	1406,00
1805,48	1494,00
1810,60	1568,00
1815,71	1402,00
1820,82	1401,00
1825,92	1406,00
1831,01	1440,00
1836,10	1541,00
1841,19	1389,00
1846,26	1288,00
1851,34	1325,00
1856,41	1382,00
1861,47	1460,00
1866,53	1305,00
1871,59	1343,00
1876,64	1348,00
1881,68	1401,00
1886,72	1334,00
1891,76	1356,00
1896,79	1438,00
1901,81	1264,00
1906,83	1283,00
1911,85	1248,00
1916,86	1305,00
1921,86	1302,00
1926,86	1290,00
1931,86	1217,00
1936,85	1250,00
1941,83	1205,00
1946,81	1194,00
1951,79	1242,00
1956,76	1285,00
1961,72	1116,00
1966,68	1164,00
1971,64	1103,00
1976,59	1092,00
1981,54	1099,00
1986,48	1117,00
1991,42	1123,00
1996,35	1188,00
2001,27	1078,00
2006,20	1137,00
2011,11	1050,00
2016,03	1152,00
2020,93	1096,00
2025,84	926,00
2030,73	1104,00
2035,63	1013,00
2040,52	992,00
2045,40	964,00
2050,28	1049,00
2055,15	968,00
2060,02	892,00
2064,89	1085,00
2069,75	910,00
2074,60	1052,00
2079,46	841,00
2084,30	986,00
2089,14	957,00
2093,98	843,00
2098,81	968,00
2103,64	1011,00
2108,46	939,00
2113,28	1000,00
2118,09	888,00
2122,90	924,00
2127,70	1005,00
2132,50	964,00
2137,30	802,00
2142,09	909,00
2146,87	936,00
2151,66	914,00
2156,43	782,00
2161,20	944,00
2165,97	841,00
2170,73	785,00
2175,49	866,00
2180,24	920,00
2184,99	899,00
2189,74	774,00
2194,48	848,00
2199,21	890,00
2203,94	748,00
2208,67	835,00
2213,39	804,00
2218,11	735,00
2222,82	872,00
2227,53	720,00
2232,23	768,00
2236,93	866,00
2241,63	728,00
2246,32	789,00
2251,00	689,00
2255,68	760,00
2260,36	770,00
2265,03	662,00
2269,70	766,00
2274,36	805,00
2279,02	682,00
2283,68	597,00
2288,33	726,00
2292,97	767,00
2297,61	647,00
2302,25	664,00
2306,88	786,00
2311,51	642,00
2316,14	754,00
2320,75	610,00
2325,37	671,00
2329,98	656,00
2334,59	736,00
2339,19	661,00
2343,79	505,00
2348,38	755,00
2352,97	643,00
2357,55	651,00
2362,13	617,00
2366,71	588,00
2371,28	692,00
2375,85	636,00
2380,41	588,00
2384,97	625,00
2389,52	602,00
2394,07	636,00
2398,62	540,00
2403,16	568,00
2407,70	570,00
2412,23	526,00
2416,76	656,00
2421,29	514,00
2425,81	447,00
2430,32	685,00
2434,84	583,00
2439,34	541,00
2443,85	598,00
2448,35	668,00
2452,84	576,00
2457,33	476,00
2461,82	611,00
2466,30	562,00
2470,78	394,00
2475,25	504,00
2479,72	463,00
2484,19	521,00
2488,65	563,00
2493,11	498,00
2497,56	480,00
2502,01	507,00
2506,46	528,00
2510,90	444,00
2515,34	440,00
2519,77	491,00
2524,20	410,00
2528,62	522,00
2533,04	349,00
2537,46	514,00
2541,87	473,00
2546,28	490,00
2550,68	487,00
2555,08	399,00
2559,48	526,00
2563,87	471,00
2568,26	416,00
2572,64	447,00
2577,02	437,00
2581,40	511,00
2585,77	413,00
2590,14	530,00
2594,50	391,00
2598,86	418,00
2603,22	346,00
2607,57	404,00
2611,92	423,00
2616,26	445,00
2620,60	477,00
2624,94	475,00
2629,27	364,00
2633,60	378,00
2637,92	482,00
2642,24	453,00
2646,56	439,00
2650,87	357,00
2655,18	433,00
2659,48	438,00
2663,78	440,00
2668,08	452,00
2672,37	502,00
2676,66	421,00
2680,95	582,00
2685,23	348,00
2689,50	420,00
2693,78	427,00
2698,05	548,00
2702,31	417,00
2706,57	414,00
2710,83	394,00
2715,08	598,00
2719,33	490,00
2723,58	415,00
2727,82	499,00
2732,06	524,00
2736,29	430,00
2740,53	532,00
2744,75	424,00
2748,97	536,00
2753,19	483,00
2757,41	508,00
2761,62	385,00
2765,83	490,00
2770,03	394,00
2774,23	358,00
2778,43	403,00
2782,62	473,00
2786,81	402,00
2791,00	422,00
2795,18	513,00
2799,35	526,00
2803,53	561,00
2807,70	566,00
2811,86	441,00
2816,03	443,00
2820,19	547,00
2824,34	602,00
2828,49	663,00
2832,64	741,00
2836,78	970,00
2840,92	1089,00
2845,06	1408,00
2849,19	1531,00
2853,32	1620,00
2857,45	1465,00
2861,57	1390,00
2865,69	1384,00
2869,80	1411,00
2873,91	1357,00
2878,02	1548,00
2882,12	1677,00
2886,22	1688,00
2890,32	1551,00
2894,41	1448,00
2898,50	1197,00
2902,58	1153,00
2906,67	1211,00
2910,74	1178,00
2914,82	954,00
2918,89	870,00
2922,96	819,00
2927,02	897,00
2931,08	811,00
2935,13	629,00
2939,19	708,00
2943,24	694,00
2947,28	585,00
2951,32	471,00
2955,36	445,00
2959,40	349,00
2963,43	411,00
2967,46	271,00
2971,48	381,00
2975,50	414,00
2979,52	375,00
2983,53	452,00
2987,54	299,00
2991,55	214,00
2995,55	302,00
2999,55	231,00
3003,54	297,00
3007,54	257,00
3011,53	192,00
3015,51	237,00
3019,49	327,00
3023,47	171,00
3027,45	181,00
3031,42	335,00
3035,39	222,00
3039,35	138,00
3043,31	210,00
3047,27	136,00
3051,22	110,00
3055,17	241,00
3059,12	299,00
3063,06	194,00
3067,00	275,00
3070,94	174,00
3074,87	213,00
3078,80	98,00
3082,73	251,00
3086,65	272,00
3090,57	201,00
3094,49	215,00
3098,40	144,00
3102,31	177,00
3106,22	223,00
3110,12	94,00
3114,02	127,00
3117,92	150,00
3121,81	184,00
3125,70	118,00
3129,58	48,00
3133,47	175,00
3137,34	223,00
3141,22	81,00
3145,09	223,00
3148,96	111,00
3152,83	238,00
3156,69	117,00
3160,55	230,00
3164,40	130,00
3168,26	223,00
3172,10	214,00
3175,95	98,00
3179,79	251,00
3183,63	149,00
3187,47	146,00
3191,30	30,00
3195,13	115,00
3198,95	141,00
3202,78	117,00
3206,60	74,00
3210,41	111,00
3214,23	143,00
3218,03	151,00
3221,84	65,00
3225,64	115,00
3229,44	97,00
3233,24	120,00
3237,03	108,00
3240,82	186,00
3244,61	126,00
3248,39	147,00
3252,17	166,00
3255,95	161,00
3259,72	146,00
3263,49	120,00
3267,26	134,00
3271,03	168,00
3274,79	104,00
3278,54	142,00
3282,30	180,00
3286,05	231,00
3289,80	89,00
3293,54	121,00
3297,29	64,00
3301,02	227,00
3304,76	90,00
3308,49	31,00
3312,22	164,00
3315,95	57,00
3319,67	67,00
3323,39	114,00
3327,10	63,00
3330,82	177,00
3334,53	103,00
3338,24	124,00
3341,94	111,00
3345,64	198,00
3349,34	132,00
3353,03	149,00
3356,72	137,00
3360,41	138,00
3364,10	68,00
3367,78	72,00
3371,46	67,00
3375,13	124,00
3378,81	228,00
3382,48	35,00
3386,14	79,00
3389,81	116,00
3393,47	90,00
3397,12	62,00
3400,78	34,00
3404,43	112,00
3408,08	68,00
3411,72	73,00
3415,36	83,00
3419,00	94,00
3422,64	164,00
3426,27	233,00
3429,90	209,00
3433,53	26,00
3437,15	28,00
3440,77	-13,00
3444,39	86,00
3448,00	119,00
3451,62	67,00
3455,22	101,00
3458,83	7,00
3462,43	37,00
3466,03	62,00
3469,63	140,00
3473,22	2,00
3476,81	63,00
3480,40	58,00
3483,99	74,00
3487,57	127,00
3491,15	13,00
3494,72	58,00
3498,29	50,00
3501,86	122,00
3505,43	28,00
3508,99	95,00
3512,56	37,00
3516,11	118,00
3519,67	42,00
3523,22	68,00
3526,77	59,00
3530,32	-50,00
3533,86	97,00
3537,40	-1,00
3540,94	67,00
3544,47	-19,00
3548,00	91,00
3551,53	17,00
3555,06	-73,00
3558,58	97,00
3562,10	67,00
3565,62	101,00
3569,13	9,00
3572,64	69,00
3576,15	40,00
3579,66	80,00
3583,16	110,00
3586,66	-9,00
3590,16	9,00
3593,65	-65,00
3597,14	8,00
3600,63	40,00
3604,11	38,00
3607,60	53,00
3611,08	14,00
3614,55	51,00
3618,03	54,00
3621,50	30,00
3624,97	22,00
3628,43	-42,00
3631,90	71,00
3635,36	60,00
3638,81	75,00
3642,27	41,00
3645,72	33,00
3649,17	0,00
3652,61	11,00
3656,06	-49,00
3659,50	-46,00
3662,93	47,00
3666,37	125,00
3669,80	66,00
3673,23	96,00
3676,65	-75,00
3680,08	-47,00
3683,50	81,00
3686,92	18,00
3690,33	-13,00
3693,74	131,00
3697,15	46,00
3700,56	31,00
3703,96	2,00
3707,36	-19,00
3710,76	7,00
3714,16	143,00
3717,55	112,00
3720,94	76,00
3724,33	76,00
3727,71	-30,00
3731,10	-15,00
3734,48	78,00
3737,85	-2,00
3741,23	-21,00
3744,60	71,00
3747,97	96,00
3751,33	51,00
3754,69	-81,00
3758,05	-3,00
3761,41	75,00
3764,77	56,00
3768,12	-49,00
3771,47	1,00
3774,82	42,00
3778,16	-3,00
3781,50	5,00
3784,84	6,00
3788,18	-1,00
>>>>>End Processed Spectral Data<<<<<
