SpectraSuite Data File
++++++++++++++++++++++++++++++++++++
Date: Wed Feb 11 16:56:44 ICT 2026
User: Administrator
Dark Spectrum Present: Yes
Reference Spectrum Present: No
Number of Sampled Component Spectra: 1
Spectrometers: MAYP113682
Integration Time (usec): 3000000 (MAYP113682)
Spectra Averaged: 1 (MAYP113682)
Boxcar Smoothing: 0 (MAYP113682)
Correct for Electrical Dark: No (MAYP113682)
Strobe/Lamp Enabled: No (MAYP113682)
Correct for Detector Non-linearity: No (MAYP113682)
Correct for Stray Light: No (MAYP113682)
Number of Pixels in Processed Spectrum: 2068
>>>>>Begin Processed Spectral Data<<<<<
-37534,58	5,00
-37414,56	0,00
-37295,11	-2,00
-37176,24	8,00
-37057,95	76,00
-36940,22	-65,00
-36823,05	-59,00
-36706,45	16,00
-36590,40	82,00
-36474,90	52,00
-36359,95	-86,00
-36245,55	35,00
-36131,68	-43,00
-36018,35	-60,00
-35905,55	141,00
-35793,29	-20,00
-35681,54	39,00
-35570,32	32,00
-35459,62	42,00
-35349,43	-14,00
-35239,75	-14,00
-35130,58	13,00
-35021,91	-43,00
-34913,74	42,00
-34806,07	-37,00
-34698,89	-42,00
-34592,20	20,00
-34486,00	23,00
-34380,28	5,00
-34275,04	-80,00
-34170,27	18,00
-34065,98	-157,00
-33962,16	-9,00
-33858,81	13,00
-33755,92	-1,00
-33653,49	-145,00
-33551,52	-64,00
-33450,01	-57,00
-33348,94	-22,00
-33248,33	-15,00
-33148,16	8,00
-33048,43	-63,00
-32949,14	-33,00
-32850,29	-89,00
-32751,87	87,00
-32653,89	4,00
-32556,33	-78,00
-32459,20	17,00
-32362,49	33,00
-32266,19	18,00
-32170,32	0,00
-32074,86	-8,00
-31979,82	-27,00
-31885,18	-3,00
-31790,95	-4,00
-31697,12	-24,00
-31603,69	-9,00
-31510,67	-61,00
-31418,04	23,00
-31325,80	58,00
-31233,95	143,00
-31142,49	-58,00
-31051,42	-105,00
-30960,73	-11,00
-30870,43	-48,00
-30780,50	-61,00
-30690,95	9,00
-30601,77	46,00
-30512,97	32,00
-30424,53	8,00
-30336,46	-86,00
-30248,76	12,00
-30161,42	22,00
-30074,44	-38,00
-29987,81	-62,00
-29901,55	-41,00
-29815,63	102,00
-29730,07	-48,00
-29644,86	21,00
-29560,00	-15,00
-29475,48	4,00
-29391,30	-55,00
-29307,47	40,00
-29223,97	-21,00
-29140,81	-51,00
-29057,99	-12,00
-28975,50	-47,00
-28893,34	-23,00
-28811,51	-5,00
-28730,00	-6,00
-28648,82	25,00
-28567,97	92,00
-28487,43	11,00
-28407,21	-72,00
-28327,32	39,00
-28247,73	-10,00
-28168,46	-14,00
-28089,50	-26,00
-28010,85	-141,00
-27932,51	37,00
-27854,48	0,00
-27776,75	-19,00
-27699,32	25,00
-27622,19	132,00
-27545,37	-6,00
-27468,84	-37,00
-27392,60	56,00
-27316,66	2,00
-27241,01	3,00
-27165,66	7,00
-27090,59	-21,00
-27015,81	-3,00
-26941,31	58,00
-26867,10	-52,00
-26793,17	-35,00
-26719,52	77,00
-26646,15	-17,00
-26573,06	40,00
-26500,24	-107,00
-26427,70	83,00
-26355,43	14,00
-26283,43	-3,00
-26211,71	33,00
-26140,25	-5,00
-26069,06	61,00
-25998,13	42,00
-25927,46	-3,00
-25857,06	-51,00
-25786,92	53,00
-25717,04	-70,00
-25647,42	62,00
-25578,05	10,00
-25508,94	-41,00
-25440,09	-78,00
-25371,48	4,00
-25303,13	-35,00
-25235,02	-18,00
-25167,17	23,00
-25099,56	-76,00
-25032,19	-45,00
-24965,07	-64,00
-24898,20	-92,00
-24831,56	36,00
-24765,17	60,00
-24699,01	-4,00
-24633,10	18,00
-24567,41	-23,00
-24501,97	-27,00
-24436,75	-34,00
-24371,77	-33,00
-24307,03	-15,00
-24242,51	-46,00
-24178,22	-117,00
-24114,16	10,00
-24050,32	13,00
-23986,71	49,00
-23923,32	81,00
-23860,16	-55,00
-23797,22	-86,00
-23734,50	-38,00
-23672,00	27,00
-23609,71	-35,00
-23547,65	38,00
-23485,80	54,00
-23424,16	-51,00
-23362,74	-27,00
-23301,53	-95,00
-23240,54	124,00
-23179,75	59,00
-23119,17	8,00
-23058,80	-60,00
-22998,64	-18,00
-22938,68	-11,00
-22878,93	-80,00
-22819,39	-17,00
-22760,04	-47,00
-22700,90	-18,00
-22641,96	-30,00
-22583,22	-38,00
-22524,68	-124,00
-22466,33	-47,00
-22408,19	39,00
-22350,23	-24,00
-22292,48	-2,00
-22234,92	7,00
-22177,55	-95,00
-22120,37	-48,00
-22063,38	-56,00
-22006,58	31,00
-21949,98	59,00
-21893,56	1,00
-21837,33	12,00
-21781,28	-4,00
-21725,42	26,00
-21669,74	4,00
-21614,25	21,00
-21558,94	-20,00
-21503,81	-28,00
-21448,86	-30,00
-21394,10	22,00
-21339,51	-45,00
-21285,10	78,00
-21230,86	-62,00
-21176,81	36,00
-21122,93	-103,00
-21069,22	-10,00
-21015,69	69,00
-20962,33	10,00
-20909,14	-5,00
-20856,13	66,00
-20803,28	48,00
-20750,61	73,00
-20698,10	-3,00
-20645,76	45,00
-20593,59	-54,00
-20541,59	52,00
-20489,75	58,00
-20438,07	-7,00
-20386,56	87,00
-20335,22	26,00
-20284,03	13,00
-20233,01	76,00
-20182,15	-27,00
-20131,45	-60,00
-20080,91	-38,00
-20030,52	-58,00
-19980,30	-16,00
-19930,23	-38,00
-19880,32	-22,00
-19830,56	-101,00
-19780,96	3,00
-19731,52	-55,00
-19682,23	47,00
-19633,09	-198,00
-19584,10	-17,00
-19535,26	-12,00
-19486,58	54,00
-19438,04	14,00
-19389,66	45,00
-19341,42	7,00
-19293,33	-156,00
-19245,39	-33,00
-19197,60	-98,00
-19149,95	-83,00
-19102,45	32,00
-19055,09	-73,00
-19007,87	17,00
-18960,80	48,00
-18913,87	9,00
-18867,09	-53,00
-18820,44	35,00
-18773,94	-16,00
-18727,57	-34,00
-18681,35	20,00
-18635,26	107,00
-18589,31	-52,00
-18543,50	-48,00
-18497,83	-5,00
-18452,29	46,00
-18406,89	-72,00
-18361,63	-59,00
-18316,50	35,00
-18271,50	-101,00
-18226,63	-81,00
-18181,90	-27,00
-18137,30	118,00
-18092,84	-39,00
-18048,50	67,00
-18004,29	16,00
-17960,22	26,00
-17916,27	-53,00
-17872,45	-13,00
-17828,76	-2,00
-17785,20	37,00
-17741,77	-44,00
-17698,46	-7,00
-17655,28	20,00
-17612,22	-4,00
-17569,29	-22,00
-17526,48	48,00
-17483,79	22,00
-17441,23	-154,00
-17398,79	16,00
-17356,48	38,00
-17314,28	20,00
-17272,21	151,00
-17230,26	-74,00
-17188,42	20,00
-17146,71	-28,00
-17105,12	6,00
-17063,64	0,00
-17022,28	-8,00
-16981,04	-23,00
-16939,92	-62,00
-16898,91	56,00
-16858,02	-55,00
-16817,25	-216,00
-16776,59	22,00
-16736,04	-105,00
-16695,61	33,00
-16655,29	-80,00
-16615,09	-33,00
-16574,99	-113,00
-16535,01	-15,00
-16495,15	-72,00
-16455,39	19,00
-16415,74	-41,00
-16376,21	-57,00
-16336,78	-39,00
-16297,46	18,00
-16258,26	-31,00
-16219,16	-19,00
-16180,17	-11,00
-16141,28	-39,00
-16102,51	-4,00
-16063,84	29,00
-16025,27	10,00
-15986,82	-15,00
-15948,46	64,00
-15910,22	9,00
-15872,07	30,00
-15834,04	-92,00
-15796,10	-10,00
-15758,27	-42,00
-15720,54	-28,00
-15682,91	8,00
-15645,39	37,00
-15607,97	-29,00
-15570,64	89,00
-15533,42	-82,00
-15496,30	-172,00
-15459,28	88,00
-15422,36	-68,00
-15385,54	-3,00
-15348,82	58,00
-15312,19	-43,00
-15275,66	26,00
-15239,23	-41,00
-15202,90	-27,00
-15166,67	-64,00
-15130,53	-47,00
-15094,48	11,00
-15058,54	31,00
-15022,68	19,00
-14986,93	72,00
-14951,26	-77,00
-14915,69	-31,00
-14880,22	54,00
-14844,84	0,00
-14809,55	-4,00
-14774,35	-75,00
-14739,25	16,00
-14704,24	-98,00
-14669,32	-14,00
-14634,49	-70,00
-14599,75	22,00
-14565,10	-39,00
-14530,55	-60,00
-14496,08	-110,00
-14461,70	-26,00
-14427,41	-39,00
-14393,21	-130,00
-14359,10	-38,00
-14325,07	7,00
-14291,14	-42,00
-14257,29	-22,00
-14223,52	-74,00
-14189,85	-72,00
-14156,26	88,00
-14122,76	-35,00
-14089,34	-19,00
-14056,01	-164,00
-14022,76	-26,00
-13989,60	-12,00
-13956,52	-80,00
-13923,53	38,00
-13890,62	-57,00
-13857,79	-62,00
-13825,05	-89,00
-13792,39	-4,00
-13759,81	-24,00
-13727,31	-25,00
-13694,90	-38,00
-13662,57	-13,00
-13630,31	-38,00
-13598,14	-1,00
-13566,05	6,00
-13534,05	-158,00
-13502,12	45,00
-13470,27	51,00
-13438,50	-16,00
-13406,80	16,00
-13375,19	-8,00
-13343,66	46,00
-13312,20	-39,00
-13280,83	-22,00
-13249,53	52,00
-13218,30	-41,00
-13187,16	8,00
-13156,09	-47,00
-13125,10	-39,00
-13094,18	-101,00
-13063,34	-19,00
-13032,58	51,00
-13001,89	-56,00
-12971,28	-17,00
-12940,74	-63,00
-12910,27	51,00
-12879,88	65,00
-12849,57	44,00
-12819,33	-54,00
-12789,16	27,00
-12759,06	-75,00
-12729,04	24,00
-12699,09	-853,00
-12669,21	-32,00
-12639,41	-14,00
-12609,68	-3,00
-12580,02	18,00
-12550,43	-117,00
-12520,91	-48,00
-12491,46	-50,00
-12462,08	7,00
-12432,77	-35,00
-12403,54	-69,00
-12374,37	54,00
-12345,27	-61,00
-12316,24	63,00
-12287,29	104,00
-12258,40	-33,00
-12229,57	81,00
-12200,82	-32,00
-12172,14	-31,00
-12143,52	43,00
-12114,97	5,00
-12086,49	81,00
-12058,07	-55,00
-12029,73	38,00
-12001,44	-39,00
-11973,23	-51,00
-11945,08	-38,00
-11917,00	13,00
-11888,98	-40,00
-11861,03	-46,00
-11833,15	-23,00
-11805,32	40,00
-11777,57	9,00
-11749,88	15,00
-11722,25	19,00
-11694,69	30,00
-11667,19	-132,00
-11639,75	67,00
-11612,38	-6,00
-11585,07	4,00
-11557,83	24,00
-11530,65	-97,00
-11503,53	-15,00
-11476,47	78,00
-11449,48	-33,00
-11422,54	-19,00
-11395,67	69,00
-11368,86	6,00
-11342,11	-101,00
-11315,43	12,00
-11288,80	-43,00
-11262,23	21,00
-11235,73	-67,00
-11209,28	69,00
-11182,90	11,00
-11156,57	-46,00
-11130,31	-48,00
-11104,10	22,00
-11077,96	78,00
-11051,87	-67,00
-11025,84	132,00
-10999,87	-49,00
-10973,96	-24,00
-10948,11	-18,00
-10922,31	-108,00
-10896,58	51,00
-10870,90	5,00
-10845,28	101,00
-10819,71	30,00
-10794,20	14,00
-10768,75	-4,00
-10743,36	-127,00
-10718,02	18,00
-10692,74	35,00
-10667,52	-91,00
-10642,35	83,00
-10617,24	-43,00
-10592,18	100,00
-10567,18	-14,00
-10542,23	-29,00
-10517,34	-149,00
-10492,51	-31,00
-10467,72	-43,00
-10443,00	-35,00
-10418,32	18,00
-10393,70	-33,00
-10369,14	-65,00
-10344,63	-8,00
-10320,17	67,00
-10295,77	112,00
-10271,42	48,00
-10247,12	63,00
-10222,88	131,00
-10198,68	147,00
-10174,54	123,00
-10150,46	40,00
-10126,42	26,00
-10102,44	91,00
-10078,51	47,00
-10054,63	118,00
-10030,80	121,00
-10007,03	42,00
-9983,30	48,00
-9959,63	250,00
-9936,01	81,00
-9912,44	217,00
-9888,92	187,00
-9865,44	205,00
-9842,02	262,00
-9818,65	245,00
-9795,33	267,00
-9772,06	281,00
-9748,84	201,00
-9725,67	245,00
-9702,55	227,00
-9679,47	408,00
-9656,45	338,00
-9633,47	356,00
-9610,55	428,00
-9587,67	486,00
-9564,84	479,00
-9542,06	607,00
-9519,32	558,00
-9496,64	676,00
-9474,00	754,00
-9451,41	733,00
-9428,87	795,00
-9406,37	759,00
-9383,92	781,00
-9361,52	730,00
-9339,17	831,00
-9316,86	903,00
-9294,60	986,00
-9272,38	1242,00
-9250,21	1253,00
-9228,09	1407,00
-9206,01	1363,00
-9183,98	1213,00
-9162,00	1037,00
-9140,06	982,00
-9118,16	1065,00
-9096,31	1067,00
-9074,51	1197,00
-9052,75	1216,00
-9031,04	1220,00
-9009,37	1047,00
-8987,74	842,00
-8966,16	784,00
-8944,63	697,00
-8923,14	742,00
-8901,69	745,00
-8880,29	673,00
-8858,93	876,00
-8837,61	946,00
-8816,34	1028,00
-8795,11	1124,00
-8773,92	902,00
-8752,78	785,00
-8731,68	769,00
-8710,62	895,00
-8689,61	987,00
-8668,63	953,00
-8647,70	965,00
-8626,82	1038,00
-8605,97	867,00
-8585,17	888,00
-8564,41	790,00
-8543,69	824,00
-8523,01	758,00
-8502,37	668,00
-8481,78	858,00
-8461,23	917,00
-8440,71	930,00
-8420,24	1119,00
-8399,81	1126,00
-8379,42	1061,00
-8359,08	914,00
-8338,77	749,00
-8318,50	805,00
-8298,27	810,00
-8278,09	782,00
-8257,94	869,00
-8237,83	984,00
-8217,76	1004,00
-8197,74	1087,00
-8177,75	926,00
-8157,80	887,00
-8137,89	787,00
-8118,02	677,00
-8098,19	721,00
-8078,40	769,00
-8058,65	741,00
-8038,93	856,00
-8019,26	760,00
-7999,62	740,00
-7980,02	730,00
-7960,46	604,00
-7940,94	621,00
-7921,46	555,00
-7902,01	602,00
-7882,60	669,00
-7863,23	580,00
-7843,90	715,00
-7824,61	639,00
-7805,35	728,00
-7786,13	643,00
-7766,95	703,00
-7747,80	669,00
-7728,69	628,00
-7709,62	692,00
-7690,59	675,00
-7671,59	782,00
-7652,63	844,00
-7633,70	751,00
-7614,81	757,00
-7595,96	655,00
-7577,15	511,00
-7558,37	607,00
-7539,62	576,00
-7520,91	717,00
-7502,24	749,00
-7483,60	724,00
-7465,00	680,00
-7446,44	529,00
-7427,91	486,00
-7409,41	351,00
-7390,95	506,00
-7372,53	436,00
-7354,14	350,00
-7335,78	364,00
-7317,46	498,00
-7299,18	387,00
-7280,92	542,00
-7262,71	579,00
-7244,52	663,00
-7226,38	657,00
-7208,26	645,00
-7190,18	579,00
-7172,14	482,00
-7154,12	589,00
-7136,15	622,00
-7118,20	574,00
-7100,29	735,00
-7082,41	618,00
-7064,57	567,00
-7046,76	535,00
-7028,98	489,00
-7011,24	264,00
-6993,53	403,00
-6975,85	324,00
-6958,20	208,00
-6940,59	271,00
-6923,01	367,00
-6905,46	325,00
-6887,94	423,00
-6870,46	465,00
-6853,01	753,00
-6835,59	563,00
-6818,21	509,00
-6800,85	443,00
-6783,53	237,00
-6766,24	192,00
-6748,98	179,00
-6731,76	272,00
-6714,56	179,00
-6697,40	167,00
-6680,26	159,00
-6663,16	181,00
-6646,09	291,00
-6629,05	399,00
-6612,05	384,00
-6595,07	530,00
-6578,13	354,00
-6561,21	301,00
-6544,33	230,00
-6527,47	90,00
-6510,65	181,00
-6493,86	110,00
-6477,10	66,00
-6460,36	169,00
-6443,66	185,00
-6426,99	174,00
-6410,35	201,00
-6393,74	178,00
-6377,16	258,00
-6360,61	173,00
-6344,09	365,00
-6327,59	220,00
-6311,13	226,00
-6294,70	320,00
-6278,29	230,00
-6261,92	434,00
-6245,58	353,00
-6229,26	340,00
-6212,97	314,00
-6196,72	338,00
-6180,49	206,00
-6164,29	-29,00
-6148,12	44,00
-6131,98	35,00
-6115,86	104,00
-6099,78	-52,00
-6083,72	-36,00
-6067,69	-81,00
-6051,69	86,00
-6035,72	35,00
-6019,78	213,00
-6003,87	159,00
-5987,98	93,00
-5972,12	319,00
-5956,29	239,00
-5940,49	285,00
-5924,71	230,00
-5908,96	30,00
-5893,24	34,00
-5877,55	59,00
-5861,89	-11,00
-5846,25	82,00
-5830,64	105,00
-5815,05	-39,00
-5799,50	152,00
-5783,97	72,00
-5768,47	120,00
-5752,99	273,00
-5737,55	293,00
-5722,12	239,00
-5706,73	282,00
-5691,36	94,00
-5676,02	56,00
-5660,71	108,00
-5645,42	18,00
-5630,16	0,00
-5614,92	43,00
-5599,71	240,00
-5584,53	33,00
-5569,37	176,00
-5554,24	161,00
-5539,14	184,00
-5524,06	179,00
-5509,01	115,00
-5493,98	154,00
-5478,98	83,00
-5464,00	163,00
-5449,05	256,00
-5434,13	154,00
-5419,23	42,00
-5404,36	4,00
-5389,51	157,00
-5374,69	164,00
-5359,89	290,00
-5345,12	373,00
-5330,37	319,00
-5315,65	263,00
-5300,95	208,00
-5286,28	110,00
-5271,63	141,00
-5257,01	57,00
-5242,41	83,00
-5227,84	66,00
-5213,29	143,00
-5198,76	27,00
-5184,26	-25,00
-5169,79	14,00
-5155,33	109,00
-5140,91	105,00
-5126,51	157,00
-5112,13	245,00
-5097,77	119,00
-5083,44	-19,00
-5069,13	-17,00
-5054,85	121,00
-5040,59	224,00
-5026,36	47,00
-5012,15	168,00
-4997,96	169,00
-4983,80	158,00
-4969,66	122,00
-4955,54	87,00
-4941,44	143,00
-4927,37	173,00
-4913,33	354,00
-4899,30	328,00
-4885,30	360,00
-4871,33	161,00
-4857,37	75,00
-4843,44	65,00
-4829,53	-5,00
-4815,65	181,00
-4801,79	226,00
-4787,95	59,00
-4774,13	30,00
-4760,34	77,00
-4746,56	-64,00
-4732,82	57,00
-4719,09	39,00
-4705,38	187,00
-4691,70	223,00
-4678,04	334,00
-4664,41	101,00
-4650,79	108,00
-4637,20	31,00
-4623,63	42,00
-4610,08	58,00
-4596,56	87,00
-4583,05	143,00
-4569,57	166,00
-4556,11	-20,00
-4542,67	-5,00
-4529,25	44,00
-4515,86	79,00
-4502,49	215,00
-4489,13	164,00
-4475,80	169,00
-4462,49	107,00
-4449,21	78,00
-4435,94	49,00
-4422,70	25,00
-4409,47	111,00
-4396,27	124,00
-4383,09	116,00
-4369,93	-6,00
-4356,79	5,00
-4343,67	71,00
-4330,58	72,00
-4317,50	111,00
-4304,45	144,00
-4291,41	-10,00
-4278,40	-14,00
-4265,41	59,00
-4252,44	74,00
-4239,49	65,00
-4226,55	60,00
-4213,65	167,00
-4200,76	74,00
-4187,89	89,00
-4175,04	124,00
-4162,21	-41,00
-4149,40	-38,00
-4136,61	9,00
-4123,85	77,00
-4111,10	91,00
-4098,37	31,00
-4085,66	104,00
-4072,98	4,00
-4060,31	50,00
-4047,66	-41,00
-4035,04	44,00
-4022,43	-17,00
-4009,84	-20,00
-3997,27	-32,00
-3984,72	-7,00
-3972,19	0,00
-3959,69	-5,00
-3947,20	-50,00
-3934,73	1,00
-3922,27	42,00
-3909,84	-86,00
-3897,43	51,00
-3885,04	112,00
-3872,67	-39,00
-3860,31	50,00
-3847,98	56,00
-3835,66	49,00
-3823,36	-60,00
-3811,09	-9,00
-3798,83	113,00
-3786,59	-19,00
-3774,37	-67,00
-3762,17	112,00
-3749,98	-70,00
-3737,82	44,00
-3725,67	-72,00
-3713,55	12,00
-3701,44	-19,00
-3689,35	9,00
-3677,28	-95,00
-3665,22	125,00
-3653,19	-105,00
-3641,17	-8,00
-3629,18	27,00
-3617,20	-77,00
-3605,24	66,00
-3593,30	6,00
-3581,37	26,00
-3569,47	-76,00
-3557,58	-39,00
-3545,71	-30,00
-3533,86	72,00
-3522,02	-6,00
-3510,21	-30,00
-3498,41	-70,00
-3486,63	-184,00
-3474,87	-11,00
-3463,12	43,00
-3451,40	17,00
-3439,69	61,00
-3428,00	73,00
-3416,33	-19,00
-3404,67	-51,00
-3393,03	-48,00
-3381,41	-120,00
-3369,81	-46,00
-3358,22	-104,00
-3346,66	63,00
-3335,10	25,00
-3323,57	67,00
-3312,06	0,00
-3300,56	26,00
-3289,08	-44,00
-3277,61	-137,00
-3266,16	-24,00
-3254,73	1,00
-3243,32	56,00
-3231,92	63,00
-3220,55	-20,00
-3209,18	28,00
-3197,84	12,00
-3186,51	-149,00
-3175,20	-48,00
-3163,90	0,00
-3152,63	11,00
-3141,36	-46,00
-3130,12	33,00
-3118,89	4,00
-3107,68	20,00
-3096,49	8,00
-3085,31	-5,00
-3074,15	-54,00
-3063,00	47,00
-3051,87	-3,00
-3040,76	-37,00
-3029,67	-15,00
-3018,59	-47,00
-3007,52	-11,00
-2996,48	-142,00
-2985,44	-60,00
-2974,43	125,00
-2963,43	56,00
-2952,45	-53,00
-2941,48	51,00
-2930,53	17,00
-2919,60	-15,00
-2908,68	-4,00
-2897,78	-25,00
-2886,89	-122,00
-2876,02	3,00
-2865,17	-30,00
-2854,33	30,00
-2843,50	-169,00
-2832,70	-4,00
-2821,90	-15,00
-2811,13	-68,00
-2800,37	65,00
-2789,62	110,00
-2778,89	36,00
-2768,18	49,00
-2757,48	27,00
-2746,80	10,00
-2736,13	-35,00
-2725,48	45,00
-2714,84	-209,00
-2704,22	-87,00
-2693,61	16,00
-2683,02	20,00
-2672,45	15,00
-2661,89	-96,00
-2651,34	105,00
-2640,81	-118,00
-2630,30	-7,00
-2619,80	4,00
-2609,31	-90,00
-2598,84	-30,00
-2588,39	-46,00
-2577,95	10,00
-2567,52	-58,00
-2557,11	-135,00
-2546,71	-9,00
-2536,33	47,00
-2525,97	-115,00
-2515,62	33,00
-2505,28	45,00
-2494,96	-104,00
-2484,65	-41,00
-2474,36	-55,00
-2464,08	47,00
-2453,82	63,00
-2443,57	-101,00
-2433,33	56,00
-2423,11	-17,00
-2412,91	-71,00
-2402,72	-25,00
-2392,54	-165,00
-2382,38	8,00
-2372,23	-81,00
-2362,09	-192,00
-2351,97	33,00
-2341,87	93,00
-2331,78	-16,00
-2321,70	15,00
-2311,64	-68,00
-2301,59	105,00
-2291,55	-24,00
-2281,53	-73,00
-2271,53	-29,00
-2261,53	-87,00
-2251,55	73,00
-2241,59	-107,00
-2231,64	127,00
-2221,70	-6,00
-2211,78	-66,00
-2201,87	-12,00
-2191,97	-79,00
-2182,09	8,00
-2172,22	-32,00
-2162,37	-54,00
-2152,53	21,00
-2142,70	-107,00
-2132,89	-7,00
-2123,09	-26,00
-2113,30	65,00
-2103,53	43,00
-2093,77	0,00
-2084,02	-20,00
-2074,29	-15,00
-2064,57	-150,00
-2054,86	-10,00
-2045,17	-82,00
-2035,49	64,00
-2025,82	16,00
-2016,17	-17,00
-2006,53	4,00
-1996,91	-65,00
-1987,29	-50,00
-1977,69	30,00
-1968,11	-27,00
-1958,53	-36,00
-1948,97	-24,00
-1939,42	-42,00
-1929,89	-22,00
-1920,37	24,00
-1910,86	-13,00
-1901,36	-32,00
-1891,88	-41,00
-1882,41	-23,00
-1872,95	-33,00
-1863,51	124,00
-1854,08	-59,00
-1844,66	138,00
-1835,26	21,00
-1825,86	-137,00
-1816,48	59,00
-1807,11	-59,00
-1797,76	-128,00
-1788,42	-26,00
-1779,09	-79,00
-1769,77	71,00
-1760,47	-23,00
-1751,17	-40,00
-1741,89	-12,00
-1732,63	7,00
-1723,37	118,00
-1714,13	-84,00
-1704,90	-19,00
-1695,68	4,00
-1686,48	-66,00
-1677,29	50,00
-1668,11	5,00
-1658,94	54,00
-1649,78	4,00
-1640,64	-61,00
-1631,51	54,00
-1622,39	-142,00
-1613,28	39,00
-1604,19	37,00
-1595,10	117,00
-1586,03	-36,00
-1576,97	108,00
-1567,93	76,00
-1558,89	-32,00
-1549,87	-35,00
-1540,86	20,00
-1531,86	75,00
-1522,87	-94,00
-1513,90	-57,00
-1504,93	-34,00
-1495,98	26,00
-1487,04	-52,00
-1478,12	122,00
-1469,20	-149,00
-1460,30	-18,00
-1451,40	-4,00
-1442,52	23,00
-1433,65	17,00
-1424,80	31,00
-1415,95	-34,00
-1407,12	153,00
-1398,30	-20,00
-1389,48	-104,00
-1380,69	-70,00
-1371,90	-26,00
-1363,12	-86,00
-1354,36	39,00
-1345,60	-33,00
-1336,86	54,00
-1328,13	49,00
-1319,41	3,00
-1310,70	-73,00
-1302,01	11,00
-1293,32	-89,00
-1284,65	36,00
-1275,99	-17,00
-1267,33	-13,00
-1258,69	41,00
-1250,06	33,00
-1241,45	37,00
-1232,84	10,00
-1224,25	-81,00
-1215,66	9,00
-1207,09	-45,00
-1198,53	40,00
-1189,97	-98,00
-1181,43	73,00
-1172,91	-1,00
-1164,39	-84,00
-1155,88	24,00
-1147,38	4,00
-1138,90	68,00
-1130,43	-58,00
-1121,96	57,00
-1113,51	-8,00
-1105,07	24,00
-1096,64	-23,00
-1088,22	34,00
-1079,81	-4,00
-1071,41	-71,00
-1063,02	38,00
-1054,65	-67,00
-1046,28	12,00
-1037,92	-40,00
-1029,58	-16,00
-1021,24	-64,00
-1012,92	-16,00
-1004,61	37,00
-996,30	34,00
-988,01	41,00
-979,73	8,00
-971,46	26,00
-963,20	-153,00
-954,95	49,00
-946,71	11,00
-938,48	23,00
-930,26	-12,00
-922,06	52,00
-913,86	17,00
-905,67	15,00
-897,49	32,00
-889,33	1,00
-881,17	22,00
-873,02	54,00
-864,89	-106,00
-856,76	-47,00
-848,65	44,00
-840,54	-21,00
-832,45	9,00
-824,36	61,00
-816,29	-24,00
-808,22	-92,00
-800,17	-27,00
-792,12	84,00
-784,09	-105,00
-776,06	-18,00
-768,05	-69,00
-760,04	88,00
-752,05	-3,00
-744,07	29,00
-736,09	-53,00
-728,13	45,00
-720,17	-18,00
-712,23	-14,00
-704,29	68,00
-696,37	-39,00
-688,45	-83,00
-680,55	46,00
-672,65	-9,00
-664,77	-79,00
-656,89	4,00
-649,03	-66,00
-641,17	-43,00
-633,32	57,00
-625,49	6,00
-617,66	-19,00
-609,84	-38,00
-602,03	-54,00
-594,23	-19,00
-586,45	1,00
-578,67	-114,00
-570,90	49,00
-563,14	54,00
-555,39	-6,00
-547,65	60,00
-539,91	0,00
-532,19	108,00
-524,48	65,00
-516,78	-60,00
-509,08	-48,00
-501,40	-55,00
-493,72	-26,00
-486,06	30,00
-478,40	-4,00
-470,76	84,00
-463,12	-56,00
-455,49	24,00
-447,87	18,00
-440,26	-58,00
-432,66	13,00
-425,07	12,00
-417,49	17,00
-409,92	-64,00
-402,35	36,00
-394,80	188,00
-387,25	-32,00
-379,72	84,00
-372,19	71,00
-364,67	83,00
-357,17	-42,00
-349,67	74,00
-342,18	66,00
-334,69	79,00
-327,22	44,00
-319,76	57,00
-312,30	-16,00
-304,86	15,00
-297,42	113,00
-290,00	90,00
-282,58	11,00
-275,17	108,00
-267,77	7,00
-260,37	9,00
-252,99	24,00
-245,62	62,00
-238,25	20,00
-230,90	198,00
-223,55	47,00
-216,21	144,00
-208,88	114,00
-201,56	207,00
-194,25	132,00
-186,94	335,00
-179,65	194,00
-172,36	251,00
-165,08	271,00
-157,81	306,00
-150,55	305,00
-143,30	445,00
-136,06	313,00
-128,82	435,00
-121,60	475,00
-114,38	572,00
-107,17	617,00
-99,97	643,00
-92,78	806,00
-85,60	878,00
-78,42	1285,00
-71,25	1244,00
-64,10	1526,00
-56,95	1678,00
-49,81	2068,00
-42,67	2550,00
-35,55	3089,00
-28,43	4088,00
-21,33	6755,00
-14,23	21496,00
-7,14	56043,00
-0,05	55763,00
7,02	55513,00
14,09	55717,00
21,14	22194,00
28,19	8801,00
35,23	5448,00
42,27	4077,00
49,29	3302,00
56,31	2866,00
63,32	2413,00
70,32	1916,00
77,31	1625,00
84,29	1394,00
91,27	1159,00
98,23	1088,00
105,19	1126,00
112,14	1060,00
119,09	1626,00
126,02	2749,00
132,95	3241,00
139,87	3445,00
146,78	3272,00
153,68	3291,00
160,58	3131,00
167,46	3238,00
174,34	3206,00
181,21	3152,00
188,08	3194,00
194,93	3037,00
201,78	3100,00
208,62	3221,00
215,45	3099,00
222,27	3168,00
229,09	3159,00
235,90	3157,00
242,70	3107,00
249,49	2921,00
256,27	3011,00
263,05	3090,00
269,82	3066,00
276,58	3008,00
283,33	2968,00
290,08	3018,00
296,82	2909,00
303,55	2917,00
310,27	2938,00
316,98	2839,00
323,69	2795,00
330,39	2874,00
337,08	2935,00
343,76	2904,00
350,44	2909,00
357,11	2941,00
363,77	2883,00
370,42	2934,00
377,07	2834,00
383,71	3031,00
390,34	2922,00
396,96	3060,00
403,58	2899,00
410,19	2908,00
416,79	3013,00
423,38	3057,00
429,97	2947,00
436,55	2752,00
443,12	2796,00
449,68	2837,00
456,24	2810,00
462,79	2860,00
469,33	2930,00
475,86	2863,00
482,39	2952,00
488,91	2923,00
495,42	2818,00
501,93	2759,00
508,42	2750,00
514,91	2803,00
521,40	2780,00
527,87	2718,00
534,34	2745,00
540,80	2693,00
547,25	2804,00
553,70	2893,00
560,14	2737,00
566,57	2837,00
573,00	2809,00
579,41	2836,00
585,83	2936,00
592,23	2931,00
598,62	2739,00
605,01	2809,00
611,40	2856,00
617,77	2838,00
624,14	2750,00
630,50	2897,00
636,85	2833,00
643,20	2807,00
649,54	2838,00
655,87	2801,00
662,20	2804,00
668,52	2834,00
674,83	2817,00
681,13	2811,00
687,43	2704,00
693,72	2657,00
700,00	2778,00
706,28	2891,00
712,55	2738,00
718,81	2643,00
725,07	2777,00
731,32	2788,00
737,56	2903,00
743,79	2874,00
750,02	2802,00
756,24	2975,00
762,46	2898,00
768,67	2867,00
774,87	2812,00
781,06	3011,00
787,25	2787,00
793,43	2919,00
799,60	2880,00
805,77	2924,00
811,93	2924,00
818,08	2999,00
824,23	3000,00
830,37	2871,00
836,50	2834,00
842,63	2990,00
848,75	3047,00
854,87	2920,00
860,97	2927,00
867,07	2986,00
873,17	2911,00
879,25	2702,00
885,33	2983,00
891,41	2887,00
897,47	2869,00
903,53	2840,00
909,59	2855,00
915,63	2999,00
921,67	2866,00
927,71	2955,00
933,74	2940,00
939,76	2823,00
945,77	2905,00
951,78	2820,00
957,78	2966,00
963,78	2947,00
969,77	2914,00
975,75	2968,00
981,72	2938,00
987,69	2871,00
993,66	2996,00
999,61	3007,00
1005,56	3025,00
1011,51	3135,00
1017,44	3005,00
1023,37	3119,00
1029,30	3151,00
1035,22	3043,00
1041,13	2971,00
1047,03	3276,00
1052,93	3376,00
1058,83	3852,00
1064,71	4056,00
1070,59	3667,00
1076,47	3347,00
1082,33	3302,00
1088,20	3196,00
1094,05	3227,00
1099,90	3121,00
1105,74	3223,00
1111,58	3263,00
1117,41	3340,00
1123,23	3622,00
1129,05	4230,00
1134,86	3948,00
1140,67	3533,00
1146,47	3277,00
1152,26	3276,00
1158,05	3171,00
1163,83	3220,00
1169,60	3309,00
1175,37	3044,00
1181,13	3175,00
1186,89	3240,00
1192,64	3097,00
1198,38	3124,00
1204,12	3271,00
1209,85	3111,00
1215,58	3045,00
1221,30	3133,00
1227,02	3194,00
1232,72	3185,00
1238,43	3268,00
1244,12	3289,00
1249,81	3123,00
1255,50	3253,00
1261,17	3294,00
1266,85	3305,00
1272,51	3418,00
1278,17	3247,00
1283,83	3605,00
1289,47	4094,00
1295,12	4607,00
1300,75	4380,00
1306,38	4052,00
1312,01	3693,00
1317,63	3404,00
1323,24	3520,00
1328,85	3413,00
1334,45	3532,00
1340,04	3410,00
1345,63	3406,00
1351,22	3378,00
1356,80	3358,00
1362,37	3366,00
1367,93	3507,00
1373,49	3430,00
1379,05	3618,00
1384,60	3335,00
1390,14	3422,00
1395,68	3367,00
1401,21	3448,00
1406,74	3600,00
1412,26	3746,00
1417,77	3921,00
1423,28	3939,00
1428,78	4095,00
1434,28	4274,00
1439,77	4738,00
1445,26	4583,00
1450,74	4412,00
1456,22	4260,00
1461,68	4339,00
1467,15	4170,00
1472,61	3920,00
1478,06	3703,00
1483,51	3507,00
1488,95	3458,00
1494,38	3536,00
1499,81	3440,00
1505,24	3373,00
1510,65	3367,00
1516,07	3215,00
1521,48	3218,00
1526,88	3159,00
1532,27	3199,00
1537,67	3109,00
1543,05	3282,00
1548,43	3195,00
1553,81	3223,00
1559,18	2994,00
1564,54	3108,00
1569,90	3180,00
1575,25	3052,00
1580,60	3104,00
1585,94	3209,00
1591,28	3147,00
1596,61	3142,00
1601,93	3190,00
1607,25	3122,00
1612,57	3032,00
1617,88	3024,00
1623,18	3050,00
1628,48	2993,00
1633,77	3045,00
1639,06	3049,00
1644,34	3021,00
1649,62	2931,00
1654,89	3048,00
1660,16	2944,00
1665,42	2910,00
1670,67	2940,00
1675,92	3002,00
1681,17	2980,00
1686,41	2773,00
1691,64	3007,00
1696,87	2925,00
1702,10	2783,00
1707,32	2922,00
1712,53	2817,00
1717,74	2793,00
1722,94	3046,00
1728,14	2782,00
1733,33	2854,00
1738,52	2788,00
1743,70	2885,00
1748,88	2743,00
1754,05	2815,00
1759,22	2865,00
1764,38	2691,00
1769,53	2804,00
1774,69	2551,00
1779,83	2720,00
1784,97	2714,00
1790,11	2771,00
1795,24	2736,00
1800,36	2629,00
1805,48	2749,00
1810,60	2658,00
1815,71	2555,00
1820,82	2568,00
1825,92	2529,00
1831,01	2623,00
1836,10	2664,00
1841,19	2641,00
1846,26	2583,00
1851,34	2618,00
1856,41	2701,00
1861,47	2568,00
1866,53	2439,00
1871,59	2664,00
1876,64	2521,00
1881,68	2597,00
1886,72	2549,00
1891,76	2555,00
1896,79	2566,00
1901,81	2370,00
1906,83	2452,00
1911,85	2422,00
1916,86	2501,00
1921,86	2476,00
1926,86	2461,00
1931,86	2401,00
1936,85	2292,00
1941,83	2313,00
1946,81	2255,00
1951,79	2415,00
1956,76	2371,00
1961,72	2314,00
1966,68	2342,00
1971,64	2208,00
1976,59	2330,00
1981,54	2258,00
1986,48	2250,00
1991,42	2342,00
1996,35	2233,00
2001,27	2301,00
2006,20	2263,00
2011,11	2163,00
2016,03	2194,00
2020,93	2164,00
2025,84	2141,00
2030,73	2159,00
2035,63	2251,00
2040,52	2145,00
2045,40	2197,00
2050,28	2101,00
2055,15	2150,00
2060,02	2082,00
2064,89	2161,00
2069,75	2120,00
2074,60	2202,00
2079,46	2098,00
2084,30	2144,00
2089,14	2112,00
2093,98	2022,00
2098,81	2110,00
2103,64	2147,00
2108,46	2169,00
2113,28	2196,00
2118,09	2108,00
2122,90	2176,00
2127,70	2087,00
2132,50	2102,00
2137,30	1996,00
2142,09	2070,00
2146,87	2170,00
2151,66	2084,00
2156,43	2020,00
2161,20	2114,00
2165,97	1960,00
2170,73	2097,00
2175,49	2068,00
2180,24	2067,00
2184,99	2050,00
2189,74	2051,00
2194,48	2018,00
2199,21	1891,00
2203,94	1906,00
2208,67	1929,00
2213,39	1877,00
2218,11	1981,00
2222,82	1911,00
2227,53	1830,00
2232,23	1891,00
2236,93	1975,00
2241,63	1918,00
2246,32	1904,00
2251,00	1834,00
2255,68	1913,00
2260,36	1898,00
2265,03	1797,00
2269,70	1865,00
2274,36	1902,00
2279,02	1867,00
2283,68	1679,00
2288,33	1810,00
2292,97	1929,00
2297,61	1783,00
2302,25	1716,00
2306,88	1836,00
2311,51	1810,00
2316,14	1765,00
2320,75	1679,00
2325,37	1760,00
2329,98	1721,00
2334,59	1680,00
2339,19	1781,00
2343,79	1607,00
2348,38	1789,00
2352,97	1690,00
2357,55	1677,00
2362,13	1627,00
2366,71	1658,00
2371,28	1755,00
2375,85	1621,00
2380,41	1642,00
2384,97	1587,00
2389,52	1657,00
2394,07	1478,00
2398,62	1565,00
2403,16	1594,00
2407,70	1529,00
2412,23	1494,00
2416,76	1655,00
2421,29	1447,00
2425,81	1429,00
2430,32	1644,00
2434,84	1413,00
2439,34	1486,00
2443,85	1489,00
2448,35	1524,00
2452,84	1557,00
2457,33	1535,00
2461,82	1488,00
2466,30	1481,00
2470,78	1313,00
2475,25	1455,00
2479,72	1380,00
2484,19	1358,00
2488,65	1330,00
2493,11	1353,00
2497,56	1468,00
2502,01	1337,00
2506,46	1397,00
2510,90	1257,00
2515,34	1349,00
2519,77	1383,00
2524,20	1362,00
2528,62	1306,00
2533,04	1161,00
2537,46	1354,00
2541,87	1324,00
2546,28	1208,00
2550,68	1211,00
2555,08	1215,00
2559,48	1323,00
2563,87	1303,00
2568,26	1199,00
2572,64	1219,00
2577,02	1242,00
2581,40	1268,00
2585,77	1184,00
2590,14	1205,00
2594,50	1298,00
2598,86	1144,00
2603,22	1047,00
2607,57	1129,00
2611,92	964,00
2616,26	1059,00
2620,60	1126,00
2624,94	1241,00
2629,27	960,00
2633,60	1123,00
2637,92	1124,00
2642,24	1187,00
2646,56	1087,00
2650,87	1184,00
2655,18	1117,00
2659,48	1102,00
2663,78	1082,00
2668,08	1069,00
2672,37	1099,00
2676,66	1110,00
2680,95	1209,00
2685,23	1114,00
2689,50	1012,00
2693,78	1156,00
2698,05	1149,00
2702,31	1058,00
2706,57	1151,00
2710,83	1048,00
2715,08	1312,00
2719,33	1202,00
2723,58	1107,00
2727,82	1263,00
2732,06	1147,00
2736,29	1080,00
2740,53	1159,00
2744,75	1123,00
2748,97	1200,00
2753,19	1110,00
2757,41	1176,00
2761,62	1099,00
2765,83	1108,00
2770,03	982,00
2774,23	937,00
2778,43	923,00
2782,62	1103,00
2786,81	1041,00
2791,00	1030,00
2795,18	1211,00
2799,35	1083,00
2803,53	1131,00
2807,70	1110,00
2811,86	1111,00
2816,03	1165,00
2820,19	1205,00
2824,34	1238,00
2828,49	1415,00
2832,64	1372,00
2836,78	1598,00
2840,92	1830,00
2845,06	2216,00
2849,19	2621,00
2853,32	2502,00
2857,45	2507,00
2861,57	2385,00
2865,69	2392,00
2869,80	2268,00
2873,91	2263,00
2878,02	2451,00
2882,12	2656,00
2886,22	2694,00
2890,32	2432,00
2894,41	2375,00
2898,50	2194,00
2902,58	1979,00
2906,67	1947,00
2910,74	1798,00
2914,82	1727,00
2918,89	1530,00
2922,96	1543,00
2927,02	1444,00
2931,08	1353,00
2935,13	1270,00
2939,19	1199,00
2943,24	1236,00
2947,28	1119,00
2951,32	1023,00
2955,36	914,00
2959,40	820,00
2963,43	885,00
2967,46	746,00
2971,48	832,00
2975,50	868,00
2979,52	744,00
2983,53	869,00
2987,54	779,00
2991,55	585,00
2995,55	720,00
2999,55	663,00
3003,54	638,00
3007,54	478,00
3011,53	585,00
3015,51	472,00
3019,49	720,00
3023,47	547,00
3027,45	542,00
3031,42	662,00
3035,39	586,00
3039,35	467,00
3043,31	381,00
3047,27	636,00
3051,22	580,00
3055,17	485,00
3059,12	620,00
3063,06	410,00
3067,00	573,00
3070,94	527,00
3074,87	538,00
3078,80	308,00
3082,73	494,00
3086,65	459,00
3090,57	437,00
3094,49	498,00
3098,40	469,00
3102,31	397,00
3106,22	447,00
3110,12	453,00
3114,02	333,00
3117,92	448,00
3121,81	378,00
3125,70	423,00
3129,58	396,00
3133,47	399,00
3137,34	406,00
3141,22	373,00
3145,09	435,00
3148,96	302,00
3152,83	476,00
3156,69	382,00
3160,55	310,00
3164,40	371,00
3168,26	390,00
3172,10	446,00
3175,95	365,00
3179,79	380,00
3183,63	402,00
3187,47	441,00
3191,30	193,00
3195,13	309,00
3198,95	352,00
3202,78	302,00
3206,60	375,00
3210,41	215,00
3214,23	313,00
3218,03	292,00
3221,84	219,00
3225,64	288,00
3229,44	203,00
3233,24	248,00
3237,03	355,00
3240,82	323,00
3244,61	273,00
3248,39	248,00
3252,17	359,00
3255,95	240,00
3259,72	241,00
3263,49	192,00
3267,26	290,00
3271,03	275,00
3274,79	255,00
3278,54	208,00
3282,30	240,00
3286,05	392,00
3289,80	129,00
3293,54	266,00
3297,29	159,00
3301,02	333,00
3304,76	195,00
3308,49	175,00
3312,22	252,00
3315,95	277,00
3319,67	219,00
3323,39	159,00
3327,10	248,00
3330,82	208,00
3334,53	187,00
3338,24	181,00
3341,94	186,00
3345,64	196,00
3349,34	246,00
3353,03	173,00
3356,72	202,00
3360,41	136,00
3364,10	110,00
3367,78	198,00
3371,46	175,00
3375,13	120,00
3378,81	224,00
3382,48	182,00
3386,14	179,00
3389,81	200,00
3393,47	154,00
3397,12	219,00
3400,78	142,00
3404,43	188,00
3408,08	143,00
3411,72	157,00
3415,36	248,00
3419,00	204,00
3422,64	189,00
3426,27	169,00
3429,90	213,00
3433,53	146,00
3437,15	-44,00
3440,77	69,00
3444,39	137,00
3448,00	132,00
3451,62	74,00
3455,22	137,00
3458,83	43,00
3462,43	144,00
3466,03	34,00
3469,63	114,00
3473,22	138,00
3476,81	86,00
3480,40	166,00
3483,99	97,00
3487,57	157,00
3491,15	105,00
3494,72	129,00
3498,29	27,00
3501,86	128,00
3505,43	101,00
3508,99	57,00
3512,56	142,00
3516,11	208,00
3519,67	4,00
3523,22	88,00
3526,77	93,00
3530,32	-5,00
3533,86	175,00
3537,40	4,00
3540,94	58,00
3544,47	-7,00
3548,00	38,00
3551,53	-7,00
3555,06	6,00
3558,58	-4,00
3562,10	60,00
3565,62	67,00
3569,13	-42,00
3572,64	59,00
3576,15	59,00
3579,66	-34,00
3583,16	87,00
3586,66	65,00
3590,16	12,00
3593,65	21,00
3597,14	79,00
3600,63	46,00
3604,11	85,00
3607,60	-58,00
3611,08	21,00
3614,55	65,00
3618,03	0,00
3621,50	-40,00
3624,97	17,00
3628,43	51,00
3631,90	33,00
3635,36	44,00
3638,81	78,00
3642,27	20,00
3645,72	7,00
3649,17	58,00
3652,61	55,00
3656,06	-18,00
3659,50	1,00
3662,93	-77,00
3666,37	75,00
3669,80	-28,00
3673,23	185,00
3676,65	11,00
3680,08	-7,00
3683,50	21,00
3686,92	-10,00
3690,33	-129,00
3693,74	43,00
3697,15	45,00
3700,56	-115,00
3703,96	11,00
3707,36	-148,00
3710,76	-20,00
3714,16	123,00
3717,55	36,00
3720,94	29,00
3724,33	0,00
3727,71	-132,00
3731,10	-94,00
3734,48	90,00
3737,85	-29,00
3741,23	-50,00
3744,60	61,00
3747,97	12,00
3751,33	2,00
3754,69	0,00
3758,05	-50,00
3761,41	37,00
3764,77	43,00
3768,12	-33,00
3771,47	-7,00
3774,82	70,00
3778,16	-1,00
3781,50	5,00
3784,84	7,00
3788,18	-3,00
>>>>>End Processed Spectral Data<<<<<
