SpectraSuite Data File
++++++++++++++++++++++++++++++++++++
Date: Wed Feb 11 16:56:32 ICT 2026
User: Administrator
Dark Spectrum Present: Yes
Reference Spectrum Present: No
Number of Sampled Component Spectra: 1
Spectrometers: MAYP113682
Integration Time (usec): 3000000 (MAYP113682)
Spectra Averaged: 1 (MAYP113682)
Boxcar Smoothing: 0 (MAYP113682)
Correct for Electrical Dark: No (MAYP113682)
Strobe/Lamp Enabled: No (MAYP113682)
Correct for Detector Non-linearity: No (MAYP113682)
Correct for Stray Light: No (MAYP113682)
Number of Pixels in Processed Spectrum: 2068
>>>>>Begin Processed Spectral Data<<<<<
-37534,58	5,00
-37414,56	-1,00
-37295,11	3,00
-37176,24	7,00
-37057,95	100,00
-36940,22	-94,00
-36823,05	-18,00
-36706,45	53,00
-36590,40	40,00
-36474,90	28,00
-36359,95	-44,00
-36245,55	-14,00
-36131,68	-42,00
-36018,35	30,00
-35905,55	51,00
-35793,29	38,00
-35681,54	-11,00
-35570,32	-35,00
-35459,62	65,00
-35349,43	37,00
-35239,75	21,00
-35130,58	31,00
-35021,91	20,00
-34913,74	-31,00
-34806,07	-40,00
-34698,89	-27,00
-34592,20	35,00
-34486,00	-15,00
-34380,28	86,00
-34275,04	-67,00
-34170,27	-68,00
-34065,98	-55,00
-33962,16	-38,00
-33858,81	104,00
-33755,92	-63,00
-33653,49	-70,00
-33551,52	-49,00
-33450,01	-85,00
-33348,94	-36,00
-33248,33	-65,00
-33148,16	-10,00
-33048,43	1,00
-32949,14	-34,00
-32850,29	-56,00
-32751,87	63,00
-32653,89	4,00
-32556,33	-154,00
-32459,20	36,00
-32362,49	13,00
-32266,19	-79,00
-32170,32	-2,00
-32074,86	-40,00
-31979,82	-27,00
-31885,18	28,00
-31790,95	38,00
-31697,12	-29,00
-31603,69	23,00
-31510,67	-152,00
-31418,04	27,00
-31325,80	16,00
-31233,95	79,00
-31142,49	-113,00
-31051,42	-19,00
-30960,73	-32,00
-30870,43	-26,00
-30780,50	-30,00
-30690,95	67,00
-30601,77	99,00
-30512,97	-81,00
-30424,53	34,00
-30336,46	-58,00
-30248,76	58,00
-30161,42	30,00
-30074,44	-10,00
-29987,81	-86,00
-29901,55	-11,00
-29815,63	70,00
-29730,07	4,00
-29644,86	-79,00
-29560,00	-54,00
-29475,48	-12,00
-29391,30	-56,00
-29307,47	-18,00
-29223,97	33,00
-29140,81	-61,00
-29057,99	-57,00
-28975,50	19,00
-28893,34	-48,00
-28811,51	-47,00
-28730,00	-34,00
-28648,82	5,00
-28567,97	-49,00
-28487,43	-130,00
-28407,21	-55,00
-28327,32	-72,00
-28247,73	-70,00
-28168,46	84,00
-28089,50	-36,00
-28010,85	-85,00
-27932,51	53,00
-27854,48	-82,00
-27776,75	-45,00
-27699,32	-92,00
-27622,19	65,00
-27545,37	-1,00
-27468,84	-11,00
-27392,60	46,00
-27316,66	-82,00
-27241,01	-5,00
-27165,66	47,00
-27090,59	-52,00
-27015,81	17,00
-26941,31	-21,00
-26867,10	-96,00
-26793,17	35,00
-26719,52	50,00
-26646,15	-37,00
-26573,06	49,00
-26500,24	-39,00
-26427,70	-39,00
-26355,43	34,00
-26283,43	95,00
-26211,71	-66,00
-26140,25	-4,00
-26069,06	-13,00
-25998,13	23,00
-25927,46	-11,00
-25857,06	-57,00
-25786,92	-8,00
-25717,04	17,00
-25647,42	-88,00
-25578,05	17,00
-25508,94	-35,00
-25440,09	-44,00
-25371,48	-62,00
-25303,13	34,00
-25235,02	-38,00
-25167,17	4,00
-25099,56	29,00
-25032,19	38,00
-24965,07	-25,00
-24898,20	108,00
-24831,56	4,00
-24765,17	-27,00
-24699,01	-31,00
-24633,10	16,00
-24567,41	25,00
-24501,97	-56,00
-24436,75	-4,00
-24371,77	-71,00
-24307,03	-56,00
-24242,51	-44,00
-24178,22	-30,00
-24114,16	-24,00
-24050,32	88,00
-23986,71	-13,00
-23923,32	-26,00
-23860,16	-17,00
-23797,22	-88,00
-23734,50	-30,00
-23672,00	-28,00
-23609,71	-22,00
-23547,65	-31,00
-23485,80	58,00
-23424,16	-34,00
-23362,74	29,00
-23301,53	-156,00
-23240,54	-19,00
-23179,75	-2,00
-23119,17	-9,00
-23058,80	-99,00
-22998,64	-46,00
-22938,68	-15,00
-22878,93	-5,00
-22819,39	-52,00
-22760,04	-14,00
-22700,90	-86,00
-22641,96	-24,00
-22583,22	42,00
-22524,68	-29,00
-22466,33	-61,00
-22408,19	-42,00
-22350,23	-13,00
-22292,48	57,00
-22234,92	-42,00
-22177,55	-109,00
-22120,37	-14,00
-22063,38	10,00
-22006,58	-11,00
-21949,98	-10,00
-21893,56	100,00
-21837,33	-6,00
-21781,28	-37,00
-21725,42	0,00
-21669,74	45,00
-21614,25	23,00
-21558,94	41,00
-21503,81	6,00
-21448,86	-172,00
-21394,10	39,00
-21339,51	-79,00
-21285,10	-4,00
-21230,86	-86,00
-21176,81	-11,00
-21122,93	22,00
-21069,22	-90,00
-21015,69	27,00
-20962,33	-47,00
-20909,14	22,00
-20856,13	6,00
-20803,28	46,00
-20750,61	11,00
-20698,10	18,00
-20645,76	-16,00
-20593,59	27,00
-20541,59	32,00
-20489,75	37,00
-20438,07	71,00
-20386,56	71,00
-20335,22	46,00
-20284,03	15,00
-20233,01	87,00
-20182,15	-55,00
-20131,45	-1,00
-20080,91	-122,00
-20030,52	-99,00
-19980,30	-86,00
-19930,23	-19,00
-19880,32	62,00
-19830,56	-34,00
-19780,96	0,00
-19731,52	-58,00
-19682,23	90,00
-19633,09	-200,00
-19584,10	-37,00
-19535,26	46,00
-19486,58	-79,00
-19438,04	134,00
-19389,66	-49,00
-19341,42	71,00
-19293,33	-53,00
-19245,39	4,00
-19197,60	-111,00
-19149,95	-107,00
-19102,45	31,00
-19055,09	55,00
-19007,87	-77,00
-18960,80	43,00
-18913,87	64,00
-18867,09	-154,00
-18820,44	-24,00
-18773,94	58,00
-18727,57	-79,00
-18681,35	29,00
-18635,26	50,00
-18589,31	-65,00
-18543,50	40,00
-18497,83	-56,00
-18452,29	7,00
-18406,89	-82,00
-18361,63	-49,00
-18316,50	-62,00
-18271,50	-109,00
-18226,63	-65,00
-18181,90	17,00
-18137,30	41,00
-18092,84	-39,00
-18048,50	27,00
-18004,29	-55,00
-17960,22	84,00
-17916,27	-18,00
-17872,45	-24,00
-17828,76	-32,00
-17785,20	20,00
-17741,77	31,00
-17698,46	54,00
-17655,28	13,00
-17612,22	4,00
-17569,29	-78,00
-17526,48	12,00
-17483,79	68,00
-17441,23	-198,00
-17398,79	-4,00
-17356,48	-44,00
-17314,28	-5,00
-17272,21	78,00
-17230,26	-56,00
-17188,42	-10,00
-17146,71	16,00
-17105,12	-56,00
-17063,64	-14,00
-17022,28	-122,00
-16981,04	63,00
-16939,92	-60,00
-16898,91	15,00
-16858,02	-44,00
-16817,25	-132,00
-16776,59	-32,00
-16736,04	-163,00
-16695,61	-105,00
-16655,29	-47,00
-16615,09	-28,00
-16574,99	61,00
-16535,01	-29,00
-16495,15	-80,00
-16455,39	29,00
-16415,74	-71,00
-16376,21	-85,00
-16336,78	20,00
-16297,46	-14,00
-16258,26	60,00
-16219,16	56,00
-16180,17	32,00
-16141,28	-24,00
-16102,51	-20,00
-16063,84	-20,00
-16025,27	-49,00
-15986,82	44,00
-15948,46	92,00
-15910,22	-31,00
-15872,07	-10,00
-15834,04	-63,00
-15796,10	55,00
-15758,27	-51,00
-15720,54	-72,00
-15682,91	-17,00
-15645,39	34,00
-15607,97	10,00
-15570,64	22,00
-15533,42	44,00
-15496,30	-146,00
-15459,28	59,00
-15422,36	-22,00
-15385,54	-4,00
-15348,82	42,00
-15312,19	-40,00
-15275,66	-85,00
-15239,23	-19,00
-15202,90	10,00
-15166,67	-57,00
-15130,53	-4,00
-15094,48	90,00
-15058,54	60,00
-15022,68	22,00
-14986,93	16,00
-14951,26	-8,00
-14915,69	-163,00
-14880,22	27,00
-14844,84	-51,00
-14809,55	8,00
-14774,35	-16,00
-14739,25	-63,00
-14704,24	-84,00
-14669,32	-16,00
-14634,49	-66,00
-14599,75	-9,00
-14565,10	-72,00
-14530,55	-168,00
-14496,08	-19,00
-14461,70	26,00
-14427,41	-23,00
-14393,21	-16,00
-14359,10	-73,00
-14325,07	-15,00
-14291,14	38,00
-14257,29	33,00
-14223,52	-60,00
-14189,85	-85,00
-14156,26	60,00
-14122,76	-79,00
-14089,34	6,00
-14056,01	-122,00
-14022,76	48,00
-13989,60	15,00
-13956,52	-94,00
-13923,53	-16,00
-13890,62	-28,00
-13857,79	-115,00
-13825,05	-88,00
-13792,39	88,00
-13759,81	-95,00
-13727,31	-73,00
-13694,90	-13,00
-13662,57	-18,00
-13630,31	-134,00
-13598,14	80,00
-13566,05	16,00
-13534,05	-57,00
-13502,12	25,00
-13470,27	-1,00
-13438,50	-45,00
-13406,80	7,00
-13375,19	-1,00
-13343,66	-57,00
-13312,20	50,00
-13280,83	33,00
-13249,53	97,00
-13218,30	-106,00
-13187,16	-44,00
-13156,09	14,00
-13125,10	39,00
-13094,18	-36,00
-13063,34	42,00
-13032,58	-5,00
-13001,89	66,00
-12971,28	-47,00
-12940,74	-73,00
-12910,27	48,00
-12879,88	20,00
-12849,57	-21,00
-12819,33	-60,00
-12789,16	38,00
-12759,06	-18,00
-12729,04	52,00
-12699,09	-142,00
-12669,21	-22,00
-12639,41	-87,00
-12609,68	0,00
-12580,02	33,00
-12550,43	-65,00
-12520,91	-13,00
-12491,46	39,00
-12462,08	35,00
-12432,77	-28,00
-12403,54	14,00
-12374,37	-23,00
-12345,27	45,00
-12316,24	39,00
-12287,29	44,00
-12258,40	-8,00
-12229,57	52,00
-12200,82	61,00
-12172,14	41,00
-12143,52	43,00
-12114,97	-14,00
-12086,49	-20,00
-12058,07	-49,00
-12029,73	71,00
-12001,44	-27,00
-11973,23	33,00
-11945,08	-37,00
-11917,00	84,00
-11888,98	85,00
-11861,03	22,00
-11833,15	52,00
-11805,32	56,00
-11777,57	-26,00
-11749,88	40,00
-11722,25	-84,00
-11694,69	66,00
-11667,19	-157,00
-11639,75	-54,00
-11612,38	-59,00
-11585,07	-29,00
-11557,83	0,00
-11530,65	-114,00
-11503,53	-25,00
-11476,47	64,00
-11449,48	-47,00
-11422,54	32,00
-11395,67	25,00
-11368,86	-55,00
-11342,11	-80,00
-11315,43	-62,00
-11288,80	-24,00
-11262,23	-32,00
-11235,73	-11,00
-11209,28	12,00
-11182,90	26,00
-11156,57	-9,00
-11130,31	-72,00
-11104,10	-24,00
-11077,96	-21,00
-11051,87	2,00
-11025,84	-20,00
-10999,87	28,00
-10973,96	-103,00
-10948,11	19,00
-10922,31	-36,00
-10896,58	-14,00
-10870,90	-118,00
-10845,28	88,00
-10819,71	37,00
-10794,20	-23,00
-10768,75	-17,00
-10743,36	-64,00
-10718,02	-56,00
-10692,74	9,00
-10667,52	31,00
-10642,35	20,00
-10617,24	-91,00
-10592,18	-2,00
-10567,18	35,00
-10542,23	-35,00
-10517,34	18,00
-10492,51	-20,00
-10467,72	-38,00
-10443,00	-27,00
-10418,32	108,00
-10393,70	-7,00
-10369,14	6,00
-10344,63	114,00
-10320,17	90,00
-10295,77	124,00
-10271,42	63,00
-10247,12	120,00
-10222,88	97,00
-10198,68	76,00
-10174,54	91,00
-10150,46	19,00
-10126,42	87,00
-10102,44	106,00
-10078,51	49,00
-10054,63	70,00
-10030,80	102,00
-10007,03	50,00
-9983,30	147,00
-9959,63	254,00
-9936,01	106,00
-9912,44	83,00
-9888,92	116,00
-9865,44	109,00
-9842,02	159,00
-9818,65	259,00
-9795,33	169,00
-9772,06	176,00
-9748,84	157,00
-9725,67	228,00
-9702,55	246,00
-9679,47	431,00
-9656,45	348,00
-9633,47	365,00
-9610,55	383,00
-9587,67	494,00
-9564,84	489,00
-9542,06	587,00
-9519,32	572,00
-9496,64	520,00
-9474,00	843,00
-9451,41	690,00
-9428,87	696,00
-9406,37	789,00
-9383,92	593,00
-9361,52	730,00
-9339,17	795,00
-9316,86	859,00
-9294,60	996,00
-9272,38	1119,00
-9250,21	1212,00
-9228,09	1305,00
-9206,01	1233,00
-9183,98	1237,00
-9162,00	1084,00
-9140,06	950,00
-9118,16	955,00
-9096,31	998,00
-9074,51	1211,00
-9052,75	1208,00
-9031,04	1133,00
-9009,37	998,00
-8987,74	859,00
-8966,16	676,00
-8944,63	626,00
-8923,14	639,00
-8901,69	699,00
-8880,29	882,00
-8858,93	935,00
-8837,61	1017,00
-8816,34	1023,00
-8795,11	1135,00
-8773,92	924,00
-8752,78	802,00
-8731,68	809,00
-8710,62	828,00
-8689,61	888,00
-8668,63	893,00
-8647,70	947,00
-8626,82	1103,00
-8605,97	944,00
-8585,17	789,00
-8564,41	832,00
-8543,69	822,00
-8523,01	682,00
-8502,37	656,00
-8481,78	774,00
-8461,23	961,00
-8440,71	873,00
-8420,24	1043,00
-8399,81	1024,00
-8379,42	1013,00
-8359,08	921,00
-8338,77	848,00
-8318,50	752,00
-8298,27	781,00
-8278,09	704,00
-8257,94	883,00
-8237,83	1000,00
-8217,76	844,00
-8197,74	1029,00
-8177,75	901,00
-8157,80	840,00
-8137,89	802,00
-8118,02	638,00
-8098,19	725,00
-8078,40	854,00
-8058,65	841,00
-8038,93	808,00
-8019,26	773,00
-7999,62	790,00
-7980,02	710,00
-7960,46	645,00
-7940,94	689,00
-7921,46	654,00
-7902,01	631,00
-7882,60	459,00
-7863,23	513,00
-7843,90	633,00
-7824,61	578,00
-7805,35	720,00
-7786,13	703,00
-7766,95	601,00
-7747,80	731,00
-7728,69	601,00
-7709,62	670,00
-7690,59	676,00
-7671,59	770,00
-7652,63	790,00
-7633,70	684,00
-7614,81	783,00
-7595,96	637,00
-7577,15	595,00
-7558,37	606,00
-7539,62	595,00
-7520,91	570,00
-7502,24	742,00
-7483,60	722,00
-7465,00	608,00
-7446,44	494,00
-7427,91	536,00
-7409,41	301,00
-7390,95	434,00
-7372,53	281,00
-7354,14	399,00
-7335,78	435,00
-7317,46	475,00
-7299,18	431,00
-7280,92	534,00
-7262,71	581,00
-7244,52	660,00
-7226,38	631,00
-7208,26	637,00
-7190,18	639,00
-7172,14	517,00
-7154,12	541,00
-7136,15	607,00
-7118,20	563,00
-7100,29	540,00
-7082,41	708,00
-7064,57	574,00
-7046,76	491,00
-7028,98	435,00
-7011,24	329,00
-6993,53	425,00
-6975,85	382,00
-6958,20	214,00
-6940,59	273,00
-6923,01	294,00
-6905,46	484,00
-6887,94	329,00
-6870,46	447,00
-6853,01	530,00
-6835,59	534,00
-6818,21	543,00
-6800,85	421,00
-6783,53	237,00
-6766,24	216,00
-6748,98	115,00
-6731,76	232,00
-6714,56	118,00
-6697,40	199,00
-6680,26	150,00
-6663,16	212,00
-6646,09	311,00
-6629,05	398,00
-6612,05	397,00
-6595,07	420,00
-6578,13	321,00
-6561,21	271,00
-6544,33	306,00
-6527,47	47,00
-6510,65	243,00
-6493,86	50,00
-6477,10	64,00
-6460,36	145,00
-6443,66	244,00
-6426,99	88,00
-6410,35	234,00
-6393,74	137,00
-6377,16	245,00
-6360,61	173,00
-6344,09	249,00
-6327,59	291,00
-6311,13	232,00
-6294,70	349,00
-6278,29	292,00
-6261,92	356,00
-6245,58	329,00
-6229,26	409,00
-6212,97	331,00
-6196,72	299,00
-6180,49	132,00
-6164,29	4,00
-6148,12	129,00
-6131,98	12,00
-6115,86	73,00
-6099,78	-113,00
-6083,72	-147,00
-6067,69	3,00
-6051,69	50,00
-6035,72	42,00
-6019,78	142,00
-6003,87	67,00
-5987,98	244,00
-5972,12	284,00
-5956,29	229,00
-5940,49	214,00
-5924,71	92,00
-5908,96	45,00
-5893,24	80,00
-5877,55	103,00
-5861,89	4,00
-5846,25	80,00
-5830,64	149,00
-5815,05	-60,00
-5799,50	189,00
-5783,97	17,00
-5768,47	148,00
-5752,99	208,00
-5737,55	246,00
-5722,12	226,00
-5706,73	284,00
-5691,36	196,00
-5676,02	-27,00
-5660,71	100,00
-5645,42	164,00
-5630,16	0,00
-5614,92	124,00
-5599,71	206,00
-5584,53	162,00
-5569,37	108,00
-5554,24	78,00
-5539,14	186,00
-5524,06	100,00
-5509,01	82,00
-5493,98	145,00
-5478,98	198,00
-5464,00	59,00
-5449,05	170,00
-5434,13	15,00
-5419,23	112,00
-5404,36	83,00
-5389,51	111,00
-5374,69	117,00
-5359,89	253,00
-5345,12	292,00
-5330,37	166,00
-5315,65	274,00
-5300,95	179,00
-5286,28	152,00
-5271,63	18,00
-5257,01	109,00
-5242,41	93,00
-5227,84	91,00
-5213,29	155,00
-5198,76	-54,00
-5184,26	-93,00
-5169,79	122,00
-5155,33	53,00
-5140,91	69,00
-5126,51	160,00
-5112,13	188,00
-5097,77	91,00
-5083,44	-43,00
-5069,13	-12,00
-5054,85	85,00
-5040,59	154,00
-5026,36	107,00
-5012,15	119,00
-4997,96	193,00
-4983,80	146,00
-4969,66	164,00
-4955,54	4,00
-4941,44	101,00
-4927,37	134,00
-4913,33	354,00
-4899,30	341,00
-4885,30	261,00
-4871,33	68,00
-4857,37	177,00
-4843,44	-51,00
-4829,53	-11,00
-4815,65	78,00
-4801,79	140,00
-4787,95	81,00
-4774,13	89,00
-4760,34	66,00
-4746,56	-118,00
-4732,82	46,00
-4719,09	12,00
-4705,38	197,00
-4691,70	246,00
-4678,04	215,00
-4664,41	129,00
-4650,79	102,00
-4637,20	62,00
-4623,63	58,00
-4610,08	35,00
-4596,56	121,00
-4583,05	109,00
-4569,57	208,00
-4556,11	-55,00
-4542,67	58,00
-4529,25	69,00
-4515,86	34,00
-4502,49	219,00
-4489,13	163,00
-4475,80	212,00
-4462,49	86,00
-4449,21	96,00
-4435,94	9,00
-4422,70	160,00
-4409,47	177,00
-4396,27	133,00
-4383,09	51,00
-4369,93	-20,00
-4356,79	-36,00
-4343,67	49,00
-4330,58	-1,00
-4317,50	100,00
-4304,45	94,00
-4291,41	-18,00
-4278,40	62,00
-4265,41	64,00
-4252,44	10,00
-4239,49	161,00
-4226,55	137,00
-4213,65	110,00
-4200,76	65,00
-4187,89	104,00
-4175,04	54,00
-4162,21	-65,00
-4149,40	15,00
-4136,61	-1,00
-4123,85	12,00
-4111,10	-19,00
-4098,37	-10,00
-4085,66	22,00
-4072,98	-24,00
-4060,31	9,00
-4047,66	-25,00
-4035,04	-49,00
-4022,43	1,00
-4009,84	-75,00
-3997,27	-42,00
-3984,72	42,00
-3972,19	-42,00
-3959,69	4,00
-3947,20	-44,00
-3934,73	13,00
-3922,27	56,00
-3909,84	-98,00
-3897,43	53,00
-3885,04	109,00
-3872,67	-24,00
-3860,31	29,00
-3847,98	-5,00
-3835,66	-18,00
-3823,36	-20,00
-3811,09	7,00
-3798,83	34,00
-3786,59	21,00
-3774,37	-72,00
-3762,17	33,00
-3749,98	-132,00
-3737,82	3,00
-3725,67	-69,00
-3713,55	2,00
-3701,44	-34,00
-3689,35	-63,00
-3677,28	-13,00
-3665,22	31,00
-3653,19	-151,00
-3641,17	-28,00
-3629,18	-29,00
-3617,20	-101,00
-3605,24	39,00
-3593,30	-56,00
-3581,37	-26,00
-3569,47	-109,00
-3557,58	-79,00
-3545,71	-27,00
-3533,86	-34,00
-3522,02	60,00
-3510,21	-54,00
-3498,41	-71,00
-3486,63	-100,00
-3474,87	-54,00
-3463,12	-40,00
-3451,40	-60,00
-3439,69	18,00
-3428,00	-1,00
-3416,33	-58,00
-3404,67	-59,00
-3393,03	-29,00
-3381,41	-79,00
-3369,81	50,00
-3358,22	-15,00
-3346,66	31,00
-3335,10	-2,00
-3323,57	119,00
-3312,06	52,00
-3300,56	-73,00
-3289,08	-2,00
-3277,61	-136,00
-3266,16	-117,00
-3254,73	-49,00
-3243,32	15,00
-3231,92	2,00
-3220,55	48,00
-3209,18	34,00
-3197,84	-24,00
-3186,51	-115,00
-3175,20	-83,00
-3163,90	61,00
-3152,63	-117,00
-3141,36	-34,00
-3130,12	-113,00
-3118,89	37,00
-3107,68	-17,00
-3096,49	-38,00
-3085,31	10,00
-3074,15	-8,00
-3063,00	44,00
-3051,87	7,00
-3040,76	29,00
-3029,67	-6,00
-3018,59	-39,00
-3007,52	-60,00
-2996,48	-39,00
-2985,44	-4,00
-2974,43	33,00
-2963,43	-20,00
-2952,45	-7,00
-2941,48	18,00
-2930,53	-43,00
-2919,60	41,00
-2908,68	-47,00
-2897,78	-31,00
-2886,89	-95,00
-2876,02	104,00
-2865,17	-71,00
-2854,33	53,00
-2843,50	-66,00
-2832,70	98,00
-2821,90	94,00
-2811,13	24,00
-2800,37	37,00
-2789,62	9,00
-2778,89	66,00
-2768,18	43,00
-2757,48	-5,00
-2746,80	21,00
-2736,13	-26,00
-2725,48	54,00
-2714,84	-113,00
-2704,22	-76,00
-2693,61	60,00
-2683,02	4,00
-2672,45	24,00
-2661,89	-55,00
-2651,34	13,00
-2640,81	-111,00
-2630,30	-37,00
-2619,80	-49,00
-2609,31	-30,00
-2598,84	-104,00
-2588,39	11,00
-2577,95	-38,00
-2567,52	-90,00
-2557,11	-118,00
-2546,71	-35,00
-2536,33	12,00
-2525,97	-126,00
-2515,62	-1,00
-2505,28	-4,00
-2494,96	-122,00
-2484,65	-176,00
-2474,36	-111,00
-2464,08	5,00
-2453,82	50,00
-2443,57	-64,00
-2433,33	30,00
-2423,11	-35,00
-2412,91	-3,00
-2402,72	13,00
-2392,54	-25,00
-2382,38	-19,00
-2372,23	-16,00
-2362,09	-359,00
-2351,97	53,00
-2341,87	52,00
-2331,78	11,00
-2321,70	-6,00
-2311,64	19,00
-2301,59	58,00
-2291,55	-31,00
-2281,53	-20,00
-2271,53	-29,00
-2261,53	-23,00
-2251,55	49,00
-2241,59	-69,00
-2231,64	121,00
-2221,70	-31,00
-2211,78	-174,00
-2201,87	-71,00
-2191,97	-5,00
-2182,09	3,00
-2172,22	-7,00
-2162,37	-83,00
-2152,53	-60,00
-2142,70	4,00
-2132,89	14,00
-2123,09	-55,00
-2113,30	92,00
-2103,53	44,00
-2093,77	14,00
-2084,02	-52,00
-2074,29	39,00
-2064,57	-77,00
-2054,86	35,00
-2045,17	-12,00
-2035,49	-94,00
-2025,82	8,00
-2016,17	-40,00
-2006,53	20,00
-1996,91	-36,00
-1987,29	-87,00
-1977,69	28,00
-1968,11	83,00
-1958,53	0,00
-1948,97	-45,00
-1939,42	-19,00
-1929,89	-86,00
-1920,37	-45,00
-1910,86	-7,00
-1901,36	-84,00
-1891,88	55,00
-1882,41	30,00
-1872,95	-42,00
-1863,51	80,00
-1854,08	-164,00
-1844,66	87,00
-1835,26	37,00
-1825,86	-15,00
-1816,48	-38,00
-1807,11	32,00
-1797,76	-127,00
-1788,42	-66,00
-1779,09	-96,00
-1769,77	23,00
-1760,47	-38,00
-1751,17	-9,00
-1741,89	-5,00
-1732,63	-53,00
-1723,37	99,00
-1714,13	-81,00
-1704,90	-22,00
-1695,68	8,00
-1686,48	36,00
-1677,29	-62,00
-1668,11	-43,00
-1658,94	47,00
-1649,78	40,00
-1640,64	-166,00
-1631,51	31,00
-1622,39	-34,00
-1613,28	31,00
-1604,19	86,00
-1595,10	45,00
-1586,03	-36,00
-1576,97	161,00
-1567,93	20,00
-1558,89	40,00
-1549,87	-74,00
-1540,86	-125,00
-1531,86	58,00
-1522,87	-48,00
-1513,90	-11,00
-1504,93	-59,00
-1495,98	-17,00
-1487,04	-35,00
-1478,12	128,00
-1469,20	-53,00
-1460,30	-39,00
-1451,40	-52,00
-1442,52	-17,00
-1433,65	-29,00
-1424,80	-32,00
-1415,95	-55,00
-1407,12	122,00
-1398,30	-44,00
-1389,48	-67,00
-1380,69	-44,00
-1371,90	6,00
-1363,12	-76,00
-1354,36	59,00
-1345,60	-15,00
-1336,86	-65,00
-1328,13	70,00
-1319,41	50,00
-1310,70	16,00
-1302,01	-137,00
-1293,32	-5,00
-1284,65	-111,00
-1275,99	-51,00
-1267,33	-15,00
-1258,69	80,00
-1250,06	122,00
-1241,45	51,00
-1232,84	117,00
-1224,25	-15,00
-1215,66	11,00
-1207,09	-11,00
-1198,53	8,00
-1189,97	-22,00
-1181,43	21,00
-1172,91	20,00
-1164,39	-44,00
-1155,88	24,00
-1147,38	49,00
-1138,90	23,00
-1130,43	-121,00
-1121,96	52,00
-1113,51	-4,00
-1105,07	98,00
-1096,64	-91,00
-1088,22	-11,00
-1079,81	35,00
-1071,41	-56,00
-1063,02	-31,00
-1054,65	-102,00
-1046,28	-2,00
-1037,92	-59,00
-1029,58	-36,00
-1021,24	-34,00
-1012,92	56,00
-1004,61	-33,00
-996,30	122,00
-988,01	27,00
-979,73	41,00
-971,46	2,00
-963,20	-99,00
-954,95	2,00
-946,71	-4,00
-938,48	-49,00
-930,26	24,00
-922,06	-44,00
-913,86	-21,00
-905,67	29,00
-897,49	61,00
-889,33	-11,00
-881,17	-141,00
-873,02	84,00
-864,89	-67,00
-856,76	44,00
-848,65	99,00
-840,54	-20,00
-832,45	59,00
-824,36	-6,00
-816,29	117,00
-808,22	-113,00
-800,17	6,00
-792,12	40,00
-784,09	-23,00
-776,06	-100,00
-768,05	22,00
-760,04	87,00
-752,05	-26,00
-744,07	-25,00
-736,09	-53,00
-728,13	51,00
-720,17	-54,00
-712,23	-44,00
-704,29	-31,00
-696,37	-24,00
-688,45	-131,00
-680,55	84,00
-672,65	64,00
-664,77	79,00
-656,89	-36,00
-649,03	-48,00
-641,17	-58,00
-633,32	32,00
-625,49	0,00
-617,66	-45,00
-609,84	12,00
-602,03	-31,00
-594,23	68,00
-586,45	-28,00
-578,67	50,00
-570,90	0,00
-563,14	-29,00
-555,39	-78,00
-547,65	-10,00
-539,91	-91,00
-532,19	51,00
-524,48	-13,00
-516,78	-68,00
-509,08	-22,00
-501,40	-60,00
-493,72	8,00
-486,06	8,00
-478,40	17,00
-470,76	85,00
-463,12	-59,00
-455,49	-62,00
-447,87	15,00
-440,26	-50,00
-432,66	-91,00
-425,07	43,00
-417,49	-22,00
-409,92	-3,00
-402,35	28,00
-394,80	120,00
-387,25	49,00
-379,72	118,00
-372,19	-53,00
-364,67	145,00
-357,17	58,00
-349,67	47,00
-342,18	104,00
-334,69	97,00
-327,22	29,00
-319,76	45,00
-312,30	65,00
-304,86	27,00
-297,42	66,00
-290,00	112,00
-282,58	106,00
-275,17	69,00
-267,77	86,00
-260,37	95,00
-252,99	3,00
-245,62	127,00
-238,25	3,00
-230,90	66,00
-223,55	107,00
-216,21	115,00
-208,88	177,00
-201,56	116,00
-194,25	185,00
-186,94	250,00
-179,65	193,00
-172,36	115,00
-165,08	321,00
-157,81	237,00
-150,55	233,00
-143,30	394,00
-136,06	289,00
-128,82	437,00
-121,60	504,00
-114,38	484,00
-107,17	638,00
-99,97	664,00
-92,78	781,00
-85,60	865,00
-78,42	1133,00
-71,25	1317,00
-64,10	1364,00
-56,95	1702,00
-49,81	2022,00
-42,67	2515,00
-35,55	3214,00
-28,43	4080,00
-21,33	6800,00
-14,23	21637,00
-7,14	56043,00
-0,05	55763,00
7,02	55513,00
14,09	55717,00
21,14	22673,00
28,19	8996,00
35,23	5487,00
42,27	4028,00
49,29	3267,00
56,31	2887,00
63,32	2407,00
70,32	2000,00
77,31	1679,00
84,29	1457,00
91,27	1245,00
98,23	1182,00
105,19	1059,00
112,14	1177,00
119,09	1787,00
126,02	2937,00
132,95	3588,00
139,87	3728,00
146,78	3685,00
153,68	3655,00
160,58	3600,00
167,46	3516,00
174,34	3549,00
181,21	3485,00
188,08	3604,00
194,93	3444,00
201,78	3682,00
208,62	3557,00
215,45	3516,00
222,27	3534,00
229,09	3421,00
235,90	3491,00
242,70	3347,00
249,49	3370,00
256,27	3386,00
263,05	3416,00
269,82	3439,00
276,58	3441,00
283,33	3415,00
290,08	3397,00
296,82	3289,00
303,55	3285,00
310,27	3337,00
316,98	3300,00
323,69	3200,00
330,39	3306,00
337,08	3185,00
343,76	3227,00
350,44	3225,00
357,11	3133,00
363,77	3160,00
370,42	3265,00
377,07	3077,00
383,71	3205,00
390,34	3262,00
396,96	3319,00
403,58	3302,00
410,19	3276,00
416,79	3459,00
423,38	3500,00
429,97	3291,00
436,55	3217,00
443,12	3167,00
449,68	3212,00
456,24	3275,00
462,79	3289,00
469,33	3149,00
475,86	3195,00
482,39	3335,00
488,91	3393,00
495,42	3305,00
501,93	3210,00
508,42	3131,00
514,91	3269,00
521,40	3195,00
527,87	3191,00
534,34	3224,00
540,80	2998,00
547,25	3133,00
553,70	3274,00
560,14	3027,00
566,57	3238,00
573,00	3119,00
579,41	3185,00
585,83	3317,00
592,23	3227,00
598,62	3189,00
605,01	3155,00
611,40	3176,00
617,77	3243,00
624,14	3185,00
630,50	3277,00
636,85	3225,00
643,20	3230,00
649,54	3210,00
655,87	3202,00
662,20	3219,00
668,52	3175,00
674,83	3283,00
681,13	3157,00
687,43	3289,00
693,72	3087,00
700,00	3190,00
706,28	3196,00
712,55	3271,00
718,81	3274,00
725,07	3149,00
731,32	3229,00
737,56	3273,00
743,79	3400,00
750,02	3388,00
756,24	3364,00
762,46	3259,00
768,67	3335,00
774,87	3190,00
781,06	3499,00
787,25	3360,00
793,43	3345,00
799,60	3469,00
805,77	3370,00
811,93	3358,00
818,08	3383,00
824,23	3492,00
830,37	3379,00
836,50	3279,00
842,63	3398,00
848,75	3393,00
854,87	3309,00
860,97	3385,00
867,07	3379,00
873,17	3385,00
879,25	3246,00
885,33	3447,00
891,41	3386,00
897,47	3384,00
903,53	3428,00
909,59	3240,00
915,63	3420,00
921,67	3514,00
927,71	3448,00
933,74	3406,00
939,76	3404,00
945,77	3433,00
951,78	3446,00
957,78	3427,00
963,78	3510,00
969,77	3443,00
975,75	3580,00
981,72	3502,00
987,69	3392,00
993,66	3589,00
999,61	3551,00
1005,56	3499,00
1011,51	3650,00
1017,44	3538,00
1023,37	3556,00
1029,30	3446,00
1035,22	3732,00
1041,13	3525,00
1047,03	3634,00
1052,93	3963,00
1058,83	4530,00
1064,71	4801,00
1070,59	4416,00
1076,47	4013,00
1082,33	3847,00
1088,20	3773,00
1094,05	3810,00
1099,90	3691,00
1105,74	3665,00
1111,58	3851,00
1117,41	3856,00
1123,23	4336,00
1129,05	4967,00
1134,86	4630,00
1140,67	4098,00
1146,47	3924,00
1152,26	3867,00
1158,05	3841,00
1163,83	3838,00
1169,60	3896,00
1175,37	3804,00
1181,13	3739,00
1186,89	3702,00
1192,64	3680,00
1198,38	3756,00
1204,12	3832,00
1209,85	3668,00
1215,58	3628,00
1221,30	3792,00
1227,02	3719,00
1232,72	3776,00
1238,43	3912,00
1244,12	3786,00
1249,81	3881,00
1255,50	3880,00
1261,17	3914,00
1266,85	3911,00
1272,51	4018,00
1278,17	3903,00
1283,83	4231,00
1289,47	4853,00
1295,12	5445,00
1300,75	5281,00
1306,38	4704,00
1312,01	4431,00
1317,63	4118,00
1323,24	4104,00
1328,85	4048,00
1334,45	3966,00
1340,04	3972,00
1345,63	3899,00
1351,22	3885,00
1356,80	3969,00
1362,37	4051,00
1367,93	4179,00
1373,49	4042,00
1379,05	4128,00
1384,60	4050,00
1390,14	3991,00
1395,68	4014,00
1401,21	4156,00
1406,74	4165,00
1412,26	4427,00
1417,77	4612,00
1423,28	4713,00
1428,78	4872,00
1434,28	5198,00
1439,77	5703,00
1445,26	5544,00
1450,74	5291,00
1456,22	5133,00
1461,68	5114,00
1467,15	4959,00
1472,61	4763,00
1478,06	4435,00
1483,51	4177,00
1488,95	4213,00
1494,38	4109,00
1499,81	3951,00
1505,24	4056,00
1510,65	3832,00
1516,07	3802,00
1521,48	3758,00
1526,88	3770,00
1532,27	3728,00
1537,67	3804,00
1543,05	3801,00
1548,43	3725,00
1553,81	3808,00
1559,18	3532,00
1564,54	3636,00
1569,90	3670,00
1575,25	3738,00
1580,60	3661,00
1585,94	3662,00
1591,28	3594,00
1596,61	3679,00
1601,93	3675,00
1607,25	3594,00
1612,57	3661,00
1617,88	3539,00
1623,18	3593,00
1628,48	3535,00
1633,77	3540,00
1639,06	3724,00
1644,34	3500,00
1649,62	3574,00
1654,89	3488,00
1660,16	3438,00
1665,42	3582,00
1670,67	3521,00
1675,92	3566,00
1681,17	3551,00
1686,41	3390,00
1691,64	3446,00
1696,87	3566,00
1702,10	3356,00
1707,32	3372,00
1712,53	3355,00
1717,74	3342,00
1722,94	3459,00
1728,14	3418,00
1733,33	3363,00
1738,52	3293,00
1743,70	3151,00
1748,88	3406,00
1754,05	3168,00
1759,22	3299,00
1764,38	3359,00
1769,53	3287,00
1774,69	3099,00
1779,83	3260,00
1784,97	3246,00
1790,11	3171,00
1795,24	3203,00
1800,36	3052,00
1805,48	3190,00
1810,60	3162,00
1815,71	3177,00
1820,82	3063,00
1825,92	2989,00
1831,01	3085,00
1836,10	3178,00
1841,19	3131,00
1846,26	2999,00
1851,34	3046,00
1856,41	3119,00
1861,47	3085,00
1866,53	3032,00
1871,59	3048,00
1876,64	3112,00
1881,68	3021,00
1886,72	3034,00
1891,76	2964,00
1896,79	3146,00
1901,81	2910,00
1906,83	2887,00
1911,85	2970,00
1916,86	3000,00
1921,86	2900,00
1926,86	2986,00
1931,86	2911,00
1936,85	2742,00
1941,83	2834,00
1946,81	2708,00
1951,79	2938,00
1956,76	2781,00
1961,72	2812,00
1966,68	2799,00
1971,64	2756,00
1976,59	2624,00
1981,54	2756,00
1986,48	2797,00
1991,42	2864,00
1996,35	2645,00
2001,27	2732,00
2006,20	2712,00
2011,11	2645,00
2016,03	2666,00
2020,93	2572,00
2025,84	2608,00
2030,73	2693,00
2035,63	2621,00
2040,52	2585,00
2045,40	2698,00
2050,28	2589,00
2055,15	2525,00
2060,02	2470,00
2064,89	2626,00
2069,75	2414,00
2074,60	2501,00
2079,46	2495,00
2084,30	2505,00
2089,14	2548,00
2093,98	2301,00
2098,81	2523,00
2103,64	2601,00
2108,46	2548,00
2113,28	2637,00
2118,09	2475,00
2122,90	2514,00
2127,70	2540,00
2132,50	2663,00
2137,30	2445,00
2142,09	2510,00
2146,87	2621,00
2151,66	2471,00
2156,43	2409,00
2161,20	2526,00
2165,97	2423,00
2170,73	2413,00
2175,49	2319,00
2180,24	2485,00
2184,99	2393,00
2189,74	2295,00
2194,48	2348,00
2199,21	2380,00
2203,94	2333,00
2208,67	2354,00
2213,39	2322,00
2218,11	2290,00
2222,82	2338,00
2227,53	2195,00
2232,23	2303,00
2236,93	2412,00
2241,63	2340,00
2246,32	2339,00
2251,00	2185,00
2255,68	2210,00
2260,36	2241,00
2265,03	2142,00
2269,70	2170,00
2274,36	2125,00
2279,02	2194,00
2283,68	2035,00
2288,33	2245,00
2292,97	2151,00
2297,61	2214,00
2302,25	2066,00
2306,88	2080,00
2311,51	2110,00
2316,14	2063,00
2320,75	2043,00
2325,37	2164,00
2329,98	2071,00
2334,59	2103,00
2339,19	2100,00
2343,79	1988,00
2348,38	1988,00
2352,97	2063,00
2357,55	2060,00
2362,13	2000,00
2366,71	1942,00
2371,28	2020,00
2375,85	1936,00
2380,41	1918,00
2384,97	2045,00
2389,52	1957,00
2394,07	1942,00
2398,62	1835,00
2403,16	1890,00
2407,70	1870,00
2412,23	1843,00
2416,76	1937,00
2421,29	1771,00
2425,81	1790,00
2430,32	2003,00
2434,84	1812,00
2439,34	1874,00
2443,85	1844,00
2448,35	1961,00
2452,84	1825,00
2457,33	1678,00
2461,82	1767,00
2466,30	1731,00
2470,78	1675,00
2475,25	1756,00
2479,72	1700,00
2484,19	1883,00
2488,65	1596,00
2493,11	1659,00
2497,56	1770,00
2502,01	1715,00
2506,46	1587,00
2510,90	1613,00
2515,34	1595,00
2519,77	1680,00
2524,20	1630,00
2528,62	1665,00
2533,04	1447,00
2537,46	1600,00
2541,87	1596,00
2546,28	1530,00
2550,68	1555,00
2555,08	1499,00
2559,48	1453,00
2563,87	1516,00
2568,26	1482,00
2572,64	1358,00
2577,02	1483,00
2581,40	1457,00
2585,77	1460,00
2590,14	1494,00
2594,50	1359,00
2598,86	1463,00
2603,22	1294,00
2607,57	1386,00
2611,92	1323,00
2616,26	1244,00
2620,60	1429,00
2624,94	1320,00
2629,27	1313,00
2633,60	1372,00
2637,92	1373,00
2642,24	1330,00
2646,56	1283,00
2650,87	1369,00
2655,18	1453,00
2659,48	1305,00
2663,78	1321,00
2668,08	1347,00
2672,37	1477,00
2676,66	1380,00
2680,95	1447,00
2685,23	1220,00
2689,50	1347,00
2693,78	1255,00
2698,05	1454,00
2702,31	1271,00
2706,57	1322,00
2710,83	1377,00
2715,08	1515,00
2719,33	1400,00
2723,58	1433,00
2727,82	1483,00
2732,06	1421,00
2736,29	1388,00
2740,53	1358,00
2744,75	1335,00
2748,97	1443,00
2753,19	1402,00
2757,41	1256,00
2761,62	1263,00
2765,83	1359,00
2770,03	1205,00
2774,23	1267,00
2778,43	1269,00
2782,62	1245,00
2786,81	1157,00
2791,00	1231,00
2795,18	1369,00
2799,35	1374,00
2803,53	1337,00
2807,70	1377,00
2811,86	1343,00
2816,03	1388,00
2820,19	1470,00
2824,34	1465,00
2828,49	1616,00
2832,64	1621,00
2836,78	2035,00
2840,92	2323,00
2845,06	2743,00
2849,19	2967,00
2853,32	3152,00
2857,45	2962,00
2861,57	2896,00
2865,69	2795,00
2869,80	2756,00
2873,91	2726,00
2878,02	3029,00
2882,12	3175,00
2886,22	3259,00
2890,32	2975,00
2894,41	2823,00
2898,50	2580,00
2902,58	2422,00
2906,67	2266,00
2910,74	2221,00
2914,82	2021,00
2918,89	1911,00
2922,96	1869,00
2927,02	1738,00
2931,08	1733,00
2935,13	1568,00
2939,19	1442,00
2943,24	1490,00
2947,28	1401,00
2951,32	1193,00
2955,36	1192,00
2959,40	937,00
2963,43	1153,00
2967,46	880,00
2971,48	1032,00
2975,50	1006,00
2979,52	924,00
2983,53	924,00
2987,54	789,00
2991,55	763,00
2995,55	734,00
2999,55	667,00
3003,54	814,00
3007,54	718,00
3011,53	756,00
3015,51	687,00
3019,49	827,00
3023,47	608,00
3027,45	756,00
3031,42	710,00
3035,39	693,00
3039,35	624,00
3043,31	639,00
3047,27	664,00
3051,22	641,00
3055,17	765,00
3059,12	669,00
3063,06	688,00
3067,00	702,00
3070,94	614,00
3074,87	536,00
3078,80	528,00
3082,73	624,00
3086,65	583,00
3090,57	485,00
3094,49	562,00
3098,40	512,00
3102,31	559,00
3106,22	558,00
3110,12	485,00
3114,02	432,00
3117,92	428,00
3121,81	465,00
3125,70	546,00
3129,58	445,00
3133,47	459,00
3137,34	388,00
3141,22	425,00
3145,09	423,00
3148,96	375,00
3152,83	453,00
3156,69	375,00
3160,55	487,00
3164,40	450,00
3168,26	450,00
3172,10	457,00
3175,95	410,00
3179,79	455,00
3183,63	401,00
3187,47	370,00
3191,30	334,00
3195,13	380,00
3198,95	347,00
3202,78	400,00
3206,60	393,00
3210,41	380,00
3214,23	437,00
3218,03	416,00
3221,84	258,00
3225,64	319,00
3229,44	317,00
3233,24	342,00
3237,03	287,00
3240,82	394,00
3244,61	305,00
3248,39	323,00
3252,17	334,00
3255,95	292,00
3259,72	301,00
3263,49	317,00
3267,26	346,00
3271,03	323,00
3274,79	284,00
3278,54	272,00
3282,30	247,00
3286,05	337,00
3289,80	175,00
3293,54	275,00
3297,29	258,00
3301,02	367,00
3304,76	230,00
3308,49	225,00
3312,22	340,00
3315,95	290,00
3319,67	255,00
3323,39	216,00
3327,10	139,00
3330,82	353,00
3334,53	252,00
3338,24	229,00
3341,94	231,00
3345,64	218,00
3349,34	319,00
3353,03	254,00
3356,72	226,00
3360,41	249,00
3364,10	171,00
3367,78	227,00
3371,46	195,00
3375,13	190,00
3378,81	202,00
3382,48	220,00
3386,14	150,00
3389,81	204,00
3393,47	163,00
3397,12	177,00
3400,78	150,00
3404,43	234,00
3408,08	158,00
3411,72	163,00
3415,36	140,00
3419,00	176,00
3422,64	215,00
3426,27	219,00
3429,90	253,00
3433,53	134,00
3437,15	28,00
3440,77	59,00
3444,39	156,00
3448,00	178,00
3451,62	24,00
3455,22	213,00
3458,83	53,00
3462,43	88,00
3466,03	223,00
3469,63	171,00
3473,22	126,00
3476,81	107,00
3480,40	61,00
3483,99	198,00
3487,57	103,00
3491,15	58,00
3494,72	153,00
3498,29	141,00
3501,86	99,00
3505,43	37,00
3508,99	7,00
3512,56	161,00
3516,11	165,00
3519,67	26,00
3523,22	122,00
3526,77	73,00
3530,32	26,00
3533,86	60,00
3537,40	30,00
3540,94	8,00
3544,47	11,00
3548,00	74,00
3551,53	-10,00
3555,06	27,00
3558,58	96,00
3562,10	67,00
3565,62	70,00
3569,13	-34,00
3572,64	46,00
3576,15	34,00
3579,66	12,00
3583,16	102,00
3586,66	-21,00
3590,16	-6,00
3593,65	-15,00
3597,14	49,00
3600,63	-47,00
3604,11	10,00
3607,60	-33,00
3611,08	11,00
3614,55	138,00
3618,03	-12,00
3621,50	-53,00
3624,97	-8,00
3628,43	-20,00
3631,90	110,00
3635,36	137,00
3638,81	75,00
3642,27	77,00
3645,72	84,00
3649,17	1,00
3652,61	-5,00
3656,06	15,00
3659,50	-26,00
3662,93	-2,00
3666,37	98,00
3669,80	13,00
3673,23	35,00
3676,65	27,00
3680,08	11,00
3683,50	112,00
3686,92	24,00
3690,33	3,00
3693,74	-69,00
3697,15	51,00
3700,56	57,00
3703,96	8,00
3707,36	-78,00
3710,76	49,00
3714,16	85,00
3717,55	108,00
3720,94	16,00
3724,33	108,00
3727,71	-39,00
3731,10	-66,00
3734,48	-39,00
3737,85	-17,00
3741,23	30,00
3744,60	-16,00
3747,97	99,00
3751,33	27,00
3754,69	13,00
3758,05	-81,00
3761,41	20,00
3764,77	61,00
3768,12	-65,00
3771,47	-48,00
3774,82	54,00
3778,16	-3,00
3781,50	8,00
3784,84	8,00
3788,18	-2,00
>>>>>End Processed Spectral Data<<<<<
