SpectraSuite Data File
++++++++++++++++++++++++++++++++++++
Date: Wed Feb 11 16:56:05 ICT 2026
User: Administrator
Dark Spectrum Present: Yes
Reference Spectrum Present: No
Number of Sampled Component Spectra: 1
Spectrometers: MAYP113682
Integration Time (usec): 3000000 (MAYP113682)
Spectra Averaged: 1 (MAYP113682)
Boxcar Smoothing: 0 (MAYP113682)
Correct for Electrical Dark: No (MAYP113682)
Strobe/Lamp Enabled: No (MAYP113682)
Correct for Detector Non-linearity: No (MAYP113682)
Correct for Stray Light: No (MAYP113682)
Number of Pixels in Processed Spectrum: 2068
>>>>>Begin Processed Spectral Data<<<<<
-37534,58	4,00
-37414,56	5,00
-37295,11	3,00
-37176,24	0,00
-37057,95	69,00
-36940,22	-66,00
-36823,05	-17,00
-36706,45	-22,00
-36590,40	65,00
-36474,90	9,00
-36359,95	-14,00
-36245,55	-18,00
-36131,68	-129,00
-36018,35	2,00
-35905,55	164,00
-35793,29	44,00
-35681,54	-27,00
-35570,32	-52,00
-35459,62	9,00
-35349,43	-12,00
-35239,75	18,00
-35130,58	23,00
-35021,91	-44,00
-34913,74	-98,00
-34806,07	-33,00
-34698,89	53,00
-34592,20	31,00
-34486,00	-40,00
-34380,28	39,00
-34275,04	-33,00
-34170,27	-44,00
-34065,98	-84,00
-33962,16	-77,00
-33858,81	109,00
-33755,92	-12,00
-33653,49	-22,00
-33551,52	-100,00
-33450,01	-144,00
-33348,94	-58,00
-33248,33	-12,00
-33148,16	33,00
-33048,43	-28,00
-32949,14	-29,00
-32850,29	-84,00
-32751,87	49,00
-32653,89	10,00
-32556,33	-164,00
-32459,20	-55,00
-32362,49	41,00
-32266,19	15,00
-32170,32	-8,00
-32074,86	-12,00
-31979,82	-33,00
-31885,18	74,00
-31790,95	-64,00
-31697,12	-3,00
-31603,69	-53,00
-31510,67	-46,00
-31418,04	17,00
-31325,80	-55,00
-31233,95	135,00
-31142,49	-59,00
-31051,42	-48,00
-30960,73	22,00
-30870,43	-10,00
-30780,50	-34,00
-30690,95	-10,00
-30601,77	-10,00
-30512,97	-82,00
-30424,53	8,00
-30336,46	-22,00
-30248,76	51,00
-30161,42	0,00
-30074,44	-6,00
-29987,81	-33,00
-29901,55	-10,00
-29815,63	22,00
-29730,07	18,00
-29644,86	-50,00
-29560,00	-50,00
-29475,48	-109,00
-29391,30	-114,00
-29307,47	-71,00
-29223,97	-7,00
-29140,81	-100,00
-29057,99	49,00
-28975,50	-20,00
-28893,34	-109,00
-28811,51	-38,00
-28730,00	-73,00
-28648,82	82,00
-28567,97	82,00
-28487,43	3,00
-28407,21	-67,00
-28327,32	8,00
-28247,73	13,00
-28168,46	63,00
-28089,50	-72,00
-28010,85	-127,00
-27932,51	31,00
-27854,48	-14,00
-27776,75	-86,00
-27699,32	14,00
-27622,19	53,00
-27545,37	-52,00
-27468,84	45,00
-27392,60	13,00
-27316,66	-124,00
-27241,01	107,00
-27165,66	37,00
-27090,59	-100,00
-27015,81	-6,00
-26941,31	26,00
-26867,10	-7,00
-26793,17	-5,00
-26719,52	49,00
-26646,15	-73,00
-26573,06	-32,00
-26500,24	-16,00
-26427,70	18,00
-26355,43	39,00
-26283,43	-2,00
-26211,71	-84,00
-26140,25	63,00
-26069,06	-34,00
-25998,13	-10,00
-25927,46	13,00
-25857,06	-168,00
-25786,92	2,00
-25717,04	33,00
-25647,42	-90,00
-25578,05	-11,00
-25508,94	-65,00
-25440,09	-20,00
-25371,48	27,00
-25303,13	-19,00
-25235,02	34,00
-25167,17	22,00
-25099,56	-121,00
-25032,19	39,00
-24965,07	-100,00
-24898,20	32,00
-24831,56	16,00
-24765,17	59,00
-24699,01	-48,00
-24633,10	96,00
-24567,41	-57,00
-24501,97	-104,00
-24436,75	-90,00
-24371,77	12,00
-24307,03	18,00
-24242,51	-29,00
-24178,22	-74,00
-24114,16	33,00
-24050,32	144,00
-23986,71	-85,00
-23923,32	76,00
-23860,16	15,00
-23797,22	19,00
-23734,50	-91,00
-23672,00	-11,00
-23609,71	-50,00
-23547,65	-43,00
-23485,80	39,00
-23424,16	16,00
-23362,74	-28,00
-23301,53	-110,00
-23240,54	-50,00
-23179,75	-81,00
-23119,17	-46,00
-23058,80	-79,00
-22998,64	2,00
-22938,68	-28,00
-22878,93	-10,00
-22819,39	16,00
-22760,04	-38,00
-22700,90	-36,00
-22641,96	16,00
-22583,22	15,00
-22524,68	-77,00
-22466,33	-149,00
-22408,19	8,00
-22350,23	-21,00
-22292,48	70,00
-22234,92	-76,00
-22177,55	-186,00
-22120,37	3,00
-22063,38	11,00
-22006,58	40,00
-21949,98	25,00
-21893,56	-35,00
-21837,33	11,00
-21781,28	-94,00
-21725,42	15,00
-21669,74	-59,00
-21614,25	-52,00
-21558,94	-29,00
-21503,81	-54,00
-21448,86	-11,00
-21394,10	46,00
-21339,51	-95,00
-21285,10	-19,00
-21230,86	-30,00
-21176,81	24,00
-21122,93	-30,00
-21069,22	-68,00
-21015,69	-21,00
-20962,33	-95,00
-20909,14	-49,00
-20856,13	25,00
-20803,28	97,00
-20750,61	6,00
-20698,10	-72,00
-20645,76	49,00
-20593,59	13,00
-20541,59	16,00
-20489,75	41,00
-20438,07	-23,00
-20386,56	93,00
-20335,22	-16,00
-20284,03	17,00
-20233,01	-12,00
-20182,15	-80,00
-20131,45	-22,00
-20080,91	-33,00
-20030,52	-13,00
-19980,30	-23,00
-19930,23	25,00
-19880,32	62,00
-19830,56	-58,00
-19780,96	-12,00
-19731,52	-49,00
-19682,23	79,00
-19633,09	-176,00
-19584,10	-102,00
-19535,26	103,00
-19486,58	20,00
-19438,04	77,00
-19389,66	-70,00
-19341,42	17,00
-19293,33	-160,00
-19245,39	-34,00
-19197,60	-9,00
-19149,95	-104,00
-19102,45	6,00
-19055,09	-4,00
-19007,87	-37,00
-18960,80	-18,00
-18913,87	-22,00
-18867,09	-71,00
-18820,44	-11,00
-18773,94	30,00
-18727,57	-68,00
-18681,35	79,00
-18635,26	3,00
-18589,31	-32,00
-18543,50	-45,00
-18497,83	-32,00
-18452,29	-4,00
-18406,89	-66,00
-18361,63	50,00
-18316,50	-23,00
-18271,50	-35,00
-18226,63	-113,00
-18181,90	24,00
-18137,30	54,00
-18092,84	6,00
-18048,50	-10,00
-18004,29	26,00
-17960,22	44,00
-17916,27	-22,00
-17872,45	-2,00
-17828,76	-22,00
-17785,20	119,00
-17741,77	45,00
-17698,46	-45,00
-17655,28	-55,00
-17612,22	-68,00
-17569,29	-96,00
-17526,48	120,00
-17483,79	48,00
-17441,23	-86,00
-17398,79	-58,00
-17356,48	-30,00
-17314,28	82,00
-17272,21	62,00
-17230,26	-70,00
-17188,42	-14,00
-17146,71	-78,00
-17105,12	-30,00
-17063,64	30,00
-17022,28	-112,00
-16981,04	55,00
-16939,92	-34,00
-16898,91	1,00
-16858,02	-26,00
-16817,25	-134,00
-16776,59	-19,00
-16736,04	-102,00
-16695,61	-15,00
-16655,29	-84,00
-16615,09	29,00
-16574,99	-20,00
-16535,01	11,00
-16495,15	24,00
-16455,39	23,00
-16415,74	-53,00
-16376,21	-17,00
-16336,78	-61,00
-16297,46	31,00
-16258,26	41,00
-16219,16	17,00
-16180,17	31,00
-16141,28	-63,00
-16102,51	62,00
-16063,84	102,00
-16025,27	-18,00
-15986,82	-98,00
-15948,46	81,00
-15910,22	-47,00
-15872,07	13,00
-15834,04	-119,00
-15796,10	52,00
-15758,27	-54,00
-15720,54	-8,00
-15682,91	-48,00
-15645,39	-22,00
-15607,97	-17,00
-15570,64	5,00
-15533,42	-20,00
-15496,30	-202,00
-15459,28	9,00
-15422,36	5,00
-15385,54	36,00
-15348,82	108,00
-15312,19	-69,00
-15275,66	4,00
-15239,23	-57,00
-15202,90	-48,00
-15166,67	-50,00
-15130,53	-15,00
-15094,48	21,00
-15058,54	74,00
-15022,68	42,00
-14986,93	17,00
-14951,26	-11,00
-14915,69	-84,00
-14880,22	74,00
-14844,84	19,00
-14809,55	-6,00
-14774,35	-67,00
-14739,25	-24,00
-14704,24	-75,00
-14669,32	20,00
-14634,49	-48,00
-14599,75	-28,00
-14565,10	-62,00
-14530,55	-197,00
-14496,08	-73,00
-14461,70	-83,00
-14427,41	-49,00
-14393,21	-177,00
-14359,10	-131,00
-14325,07	49,00
-14291,14	-67,00
-14257,29	8,00
-14223,52	40,00
-14189,85	-149,00
-14156,26	14,00
-14122,76	42,00
-14089,34	-22,00
-14056,01	-123,00
-14022,76	-145,00
-13989,60	-56,00
-13956,52	-35,00
-13923,53	-30,00
-13890,62	-3,00
-13857,79	-95,00
-13825,05	-110,00
-13792,39	-17,00
-13759,81	-50,00
-13727,31	-47,00
-13694,90	-42,00
-13662,57	9,00
-13630,31	-45,00
-13598,14	-9,00
-13566,05	-6,00
-13534,05	-12,00
-13502,12	-5,00
-13470,27	32,00
-13438,50	-56,00
-13406,80	46,00
-13375,19	-7,00
-13343,66	5,00
-13312,20	64,00
-13280,83	-20,00
-13249,53	-42,00
-13218,30	-69,00
-13187,16	0,00
-13156,09	-97,00
-13125,10	-76,00
-13094,18	-3,00
-13063,34	-28,00
-13032,58	51,00
-13001,89	-119,00
-12971,28	0,00
-12940,74	-68,00
-12910,27	-12,00
-12879,88	41,00
-12849,57	-76,00
-12819,33	-74,00
-12789,16	75,00
-12759,06	-29,00
-12729,04	29,00
-12699,09	26,00
-12669,21	-57,00
-12639,41	4,00
-12609,68	-55,00
-12580,02	-64,00
-12550,43	-107,00
-12520,91	-44,00
-12491,46	-2,00
-12462,08	37,00
-12432,77	-54,00
-12403,54	-8,00
-12374,37	23,00
-12345,27	-57,00
-12316,24	22,00
-12287,29	3,00
-12258,40	-48,00
-12229,57	54,00
-12200,82	116,00
-12172,14	18,00
-12143,52	-73,00
-12114,97	-88,00
-12086,49	94,00
-12058,07	-10,00
-12029,73	30,00
-12001,44	16,00
-11973,23	77,00
-11945,08	-75,00
-11917,00	90,00
-11888,98	46,00
-11861,03	-7,00
-11833,15	-34,00
-11805,32	-7,00
-11777,57	30,00
-11749,88	28,00
-11722,25	-58,00
-11694,69	69,00
-11667,19	-60,00
-11639,75	68,00
-11612,38	-83,00
-11585,07	-133,00
-11557,83	-14,00
-11530,65	-100,00
-11503,53	-46,00
-11476,47	4,00
-11449,48	-72,00
-11422,54	-1,00
-11395,67	-20,00
-11368,86	53,00
-11342,11	-22,00
-11315,43	-77,00
-11288,80	-81,00
-11262,23	96,00
-11235,73	-117,00
-11209,28	45,00
-11182,90	40,00
-11156,57	46,00
-11130,31	8,00
-11104,10	42,00
-11077,96	-3,00
-11051,87	-9,00
-11025,84	99,00
-10999,87	-12,00
-10973,96	5,00
-10948,11	-45,00
-10922,31	14,00
-10896,58	-49,00
-10870,90	-14,00
-10845,28	38,00
-10819,71	20,00
-10794,20	-24,00
-10768,75	-109,00
-10743,36	-73,00
-10718,02	-18,00
-10692,74	0,00
-10667,52	-59,00
-10642,35	9,00
-10617,24	-51,00
-10592,18	24,00
-10567,18	16,00
-10542,23	114,00
-10517,34	33,00
-10492,51	58,00
-10467,72	0,00
-10443,00	-38,00
-10418,32	131,00
-10393,70	15,00
-10369,14	20,00
-10344,63	33,00
-10320,17	-17,00
-10295,77	29,00
-10271,42	-8,00
-10247,12	47,00
-10222,88	119,00
-10198,68	87,00
-10174,54	90,00
-10150,46	88,00
-10126,42	45,00
-10102,44	192,00
-10078,51	98,00
-10054,63	46,00
-10030,80	108,00
-10007,03	167,00
-9983,30	-15,00
-9959,63	273,00
-9936,01	92,00
-9912,44	152,00
-9888,92	65,00
-9865,44	232,00
-9842,02	167,00
-9818,65	268,00
-9795,33	292,00
-9772,06	274,00
-9748,84	210,00
-9725,67	274,00
-9702,55	260,00
-9679,47	355,00
-9656,45	276,00
-9633,47	303,00
-9610,55	446,00
-9587,67	565,00
-9564,84	425,00
-9542,06	628,00
-9519,32	633,00
-9496,64	665,00
-9474,00	798,00
-9451,41	670,00
-9428,87	702,00
-9406,37	866,00
-9383,92	661,00
-9361,52	746,00
-9339,17	846,00
-9316,86	922,00
-9294,60	1013,00
-9272,38	1096,00
-9250,21	1277,00
-9228,09	1350,00
-9206,01	1365,00
-9183,98	1169,00
-9162,00	1022,00
-9140,06	928,00
-9118,16	972,00
-9096,31	1093,00
-9074,51	1106,00
-9052,75	1164,00
-9031,04	1204,00
-9009,37	996,00
-8987,74	944,00
-8966,16	785,00
-8944,63	660,00
-8923,14	604,00
-8901,69	754,00
-8880,29	729,00
-8858,93	905,00
-8837,61	957,00
-8816,34	1015,00
-8795,11	1133,00
-8773,92	948,00
-8752,78	807,00
-8731,68	812,00
-8710,62	821,00
-8689,61	968,00
-8668,63	875,00
-8647,70	980,00
-8626,82	1003,00
-8605,97	807,00
-8585,17	897,00
-8564,41	722,00
-8543,69	856,00
-8523,01	813,00
-8502,37	678,00
-8481,78	724,00
-8461,23	881,00
-8440,71	897,00
-8420,24	1062,00
-8399,81	1031,00
-8379,42	1043,00
-8359,08	961,00
-8338,77	863,00
-8318,50	757,00
-8298,27	814,00
-8278,09	715,00
-8257,94	761,00
-8237,83	927,00
-8217,76	862,00
-8197,74	978,00
-8177,75	927,00
-8157,80	907,00
-8137,89	770,00
-8118,02	709,00
-8098,19	783,00
-8078,40	757,00
-8058,65	865,00
-8038,93	787,00
-8019,26	766,00
-7999,62	746,00
-7980,02	715,00
-7960,46	565,00
-7940,94	655,00
-7921,46	621,00
-7902,01	688,00
-7882,60	484,00
-7863,23	509,00
-7843,90	638,00
-7824,61	615,00
-7805,35	789,00
-7786,13	636,00
-7766,95	760,00
-7747,80	684,00
-7728,69	585,00
-7709,62	551,00
-7690,59	647,00
-7671,59	756,00
-7652,63	817,00
-7633,70	789,00
-7614,81	767,00
-7595,96	693,00
-7577,15	509,00
-7558,37	630,00
-7539,62	532,00
-7520,91	598,00
-7502,24	721,00
-7483,60	754,00
-7465,00	610,00
-7446,44	588,00
-7427,91	557,00
-7409,41	285,00
-7390,95	448,00
-7372,53	431,00
-7354,14	316,00
-7335,78	349,00
-7317,46	484,00
-7299,18	499,00
-7280,92	580,00
-7262,71	607,00
-7244,52	651,00
-7226,38	676,00
-7208,26	626,00
-7190,18	522,00
-7172,14	469,00
-7154,12	546,00
-7136,15	527,00
-7118,20	665,00
-7100,29	615,00
-7082,41	630,00
-7064,57	664,00
-7046,76	558,00
-7028,98	479,00
-7011,24	278,00
-6993,53	409,00
-6975,85	366,00
-6958,20	321,00
-6940,59	276,00
-6923,01	389,00
-6905,46	373,00
-6887,94	270,00
-6870,46	468,00
-6853,01	686,00
-6835,59	508,00
-6818,21	539,00
-6800,85	367,00
-6783,53	308,00
-6766,24	220,00
-6748,98	235,00
-6731,76	299,00
-6714,56	126,00
-6697,40	200,00
-6680,26	177,00
-6663,16	285,00
-6646,09	313,00
-6629,05	358,00
-6612,05	464,00
-6595,07	440,00
-6578,13	401,00
-6561,21	208,00
-6544,33	269,00
-6527,47	144,00
-6510,65	167,00
-6493,86	143,00
-6477,10	42,00
-6460,36	191,00
-6443,66	244,00
-6426,99	102,00
-6410,35	83,00
-6393,74	166,00
-6377,16	226,00
-6360,61	260,00
-6344,09	409,00
-6327,59	213,00
-6311,13	394,00
-6294,70	255,00
-6278,29	250,00
-6261,92	357,00
-6245,58	346,00
-6229,26	383,00
-6212,97	334,00
-6196,72	326,00
-6180,49	121,00
-6164,29	89,00
-6148,12	97,00
-6131,98	-15,00
-6115,86	163,00
-6099,78	-11,00
-6083,72	-24,00
-6067,69	-10,00
-6051,69	62,00
-6035,72	-93,00
-6019,78	111,00
-6003,87	100,00
-5987,98	154,00
-5972,12	310,00
-5956,29	303,00
-5940,49	255,00
-5924,71	162,00
-5908,96	38,00
-5893,24	3,00
-5877,55	84,00
-5861,89	38,00
-5846,25	121,00
-5830,64	24,00
-5815,05	-14,00
-5799,50	94,00
-5783,97	31,00
-5768,47	170,00
-5752,99	163,00
-5737,55	244,00
-5722,12	382,00
-5706,73	240,00
-5691,36	159,00
-5676,02	-19,00
-5660,71	72,00
-5645,42	134,00
-5630,16	56,00
-5614,92	142,00
-5599,71	132,00
-5584,53	146,00
-5569,37	110,00
-5554,24	81,00
-5539,14	246,00
-5524,06	91,00
-5509,01	115,00
-5493,98	183,00
-5478,98	173,00
-5464,00	33,00
-5449,05	270,00
-5434,13	73,00
-5419,23	108,00
-5404,36	50,00
-5389,51	138,00
-5374,69	97,00
-5359,89	216,00
-5345,12	369,00
-5330,37	170,00
-5315,65	236,00
-5300,95	147,00
-5286,28	123,00
-5271,63	111,00
-5257,01	89,00
-5242,41	30,00
-5227,84	-21,00
-5213,29	159,00
-5198,76	-2,00
-5184,26	73,00
-5169,79	24,00
-5155,33	138,00
-5140,91	72,00
-5126,51	98,00
-5112,13	170,00
-5097,77	38,00
-5083,44	18,00
-5069,13	5,00
-5054,85	67,00
-5040,59	191,00
-5026,36	79,00
-5012,15	98,00
-4997,96	219,00
-4983,80	171,00
-4969,66	72,00
-4955,54	-21,00
-4941,44	124,00
-4927,37	268,00
-4913,33	324,00
-4899,30	381,00
-4885,30	296,00
-4871,33	165,00
-4857,37	66,00
-4843,44	69,00
-4829,53	-49,00
-4815,65	167,00
-4801,79	125,00
-4787,95	130,00
-4774,13	113,00
-4760,34	45,00
-4746,56	-184,00
-4732,82	19,00
-4719,09	-18,00
-4705,38	118,00
-4691,70	348,00
-4678,04	247,00
-4664,41	98,00
-4650,79	88,00
-4637,20	102,00
-4623,63	97,00
-4610,08	82,00
-4596,56	171,00
-4583,05	63,00
-4569,57	167,00
-4556,11	49,00
-4542,67	55,00
-4529,25	-13,00
-4515,86	65,00
-4502,49	254,00
-4489,13	138,00
-4475,80	104,00
-4462,49	86,00
-4449,21	165,00
-4435,94	-41,00
-4422,70	73,00
-4409,47	168,00
-4396,27	212,00
-4383,09	58,00
-4369,93	41,00
-4356,79	-5,00
-4343,67	28,00
-4330,58	77,00
-4317,50	127,00
-4304,45	26,00
-4291,41	-1,00
-4278,40	-3,00
-4265,41	37,00
-4252,44	81,00
-4239,49	117,00
-4226,55	122,00
-4213,65	84,00
-4200,76	-10,00
-4187,89	43,00
-4175,04	144,00
-4162,21	-46,00
-4149,40	-2,00
-4136,61	25,00
-4123,85	3,00
-4111,10	-18,00
-4098,37	-36,00
-4085,66	-31,00
-4072,98	62,00
-4060,31	62,00
-4047,66	-16,00
-4035,04	-2,00
-4022,43	-63,00
-4009,84	72,00
-3997,27	18,00
-3984,72	-36,00
-3972,19	-53,00
-3959,69	-69,00
-3947,20	45,00
-3934,73	20,00
-3922,27	3,00
-3909,84	-143,00
-3897,43	-3,00
-3885,04	171,00
-3872,67	-33,00
-3860,31	40,00
-3847,98	3,00
-3835,66	-40,00
-3823,36	-27,00
-3811,09	41,00
-3798,83	32,00
-3786,59	4,00
-3774,37	-83,00
-3762,17	88,00
-3749,98	-95,00
-3737,82	29,00
-3725,67	-43,00
-3713,55	27,00
-3701,44	-75,00
-3689,35	5,00
-3677,28	-24,00
-3665,22	49,00
-3653,19	-143,00
-3641,17	-77,00
-3629,18	-76,00
-3617,20	-83,00
-3605,24	49,00
-3593,30	-108,00
-3581,37	-13,00
-3569,47	-83,00
-3557,58	-157,00
-3545,71	-61,00
-3533,86	39,00
-3522,02	68,00
-3510,21	-8,00
-3498,41	-17,00
-3486,63	-7,00
-3474,87	-20,00
-3463,12	-63,00
-3451,40	-49,00
-3439,69	37,00
-3428,00	43,00
-3416,33	41,00
-3404,67	-90,00
-3393,03	-29,00
-3381,41	-35,00
-3369,81	-49,00
-3358,22	-87,00
-3346,66	46,00
-3335,10	-42,00
-3323,57	27,00
-3312,06	-4,00
-3300,56	40,00
-3289,08	-69,00
-3277,61	-35,00
-3266,16	-118,00
-3254,73	-55,00
-3243,32	65,00
-3231,92	-25,00
-3220,55	45,00
-3209,18	32,00
-3197,84	-47,00
-3186,51	-107,00
-3175,20	-57,00
-3163,90	6,00
-3152,63	-80,00
-3141,36	0,00
-3130,12	35,00
-3118,89	58,00
-3107,68	56,00
-3096,49	-20,00
-3085,31	36,00
-3074,15	-101,00
-3063,00	31,00
-3051,87	-6,00
-3040,76	-83,00
-3029,67	-36,00
-3018,59	-16,00
-3007,52	-27,00
-2996,48	-82,00
-2985,44	-99,00
-2974,43	-2,00
-2963,43	4,00
-2952,45	-58,00
-2941,48	33,00
-2930,53	-53,00
-2919,60	92,00
-2908,68	-81,00
-2897,78	-2,00
-2886,89	-100,00
-2876,02	44,00
-2865,17	35,00
-2854,33	-19,00
-2843,50	-73,00
-2832,70	2,00
-2821,90	64,00
-2811,13	-34,00
-2800,37	15,00
-2789,62	29,00
-2778,89	3,00
-2768,18	96,00
-2757,48	-37,00
-2746,80	-28,00
-2736,13	15,00
-2725,48	12,00
-2714,84	-117,00
-2704,22	-130,00
-2693,61	68,00
-2683,02	-19,00
-2672,45	-20,00
-2661,89	-140,00
-2651,34	79,00
-2640,81	-113,00
-2630,30	10,00
-2619,80	-5,00
-2609,31	2,00
-2598,84	-140,00
-2588,39	43,00
-2577,95	40,00
-2567,52	-61,00
-2557,11	-52,00
-2546,71	-56,00
-2536,33	-55,00
-2525,97	-34,00
-2515,62	-45,00
-2505,28	-50,00
-2494,96	-144,00
-2484,65	-104,00
-2474,36	13,00
-2464,08	-14,00
-2453,82	67,00
-2443,57	-89,00
-2433,33	-1,00
-2423,11	5,00
-2412,91	8,00
-2402,72	-16,00
-2392,54	-19,00
-2382,38	31,00
-2372,23	8,00
-2362,09	3957,00
-2351,97	-35,00
-2341,87	56,00
-2331,78	-70,00
-2321,70	-47,00
-2311,64	15,00
-2301,59	64,00
-2291,55	-54,00
-2281,53	-91,00
-2271,53	-55,00
-2261,53	-28,00
-2251,55	39,00
-2241,59	-128,00
-2231,64	75,00
-2221,70	33,00
-2211,78	-72,00
-2201,87	-31,00
-2191,97	-45,00
-2182,09	-14,00
-2172,22	-7,00
-2162,37	-133,00
-2152,53	-29,00
-2142,70	-38,00
-2132,89	-11,00
-2123,09	-121,00
-2113,30	97,00
-2103,53	15,00
-2093,77	-39,00
-2084,02	14,00
-2074,29	64,00
-2064,57	-48,00
-2054,86	-75,00
-2045,17	1,00
-2035,49	-52,00
-2025,82	-9,00
-2016,17	68,00
-2006,53	-1,00
-1996,91	-69,00
-1987,29	-91,00
-1977,69	35,00
-1968,11	65,00
-1958,53	-59,00
-1948,97	-72,00
-1939,42	-64,00
-1929,89	-33,00
-1920,37	12,00
-1910,86	-12,00
-1901,36	-16,00
-1891,88	-10,00
-1882,41	-17,00
-1872,95	-46,00
-1863,51	94,00
-1854,08	-81,00
-1844,66	-19,00
-1835,26	-65,00
-1825,86	-21,00
-1816,48	16,00
-1807,11	-42,00
-1797,76	3,00
-1788,42	-10,00
-1779,09	-3,00
-1769,77	67,00
-1760,47	-116,00
-1751,17	29,00
-1741,89	-27,00
-1732,63	32,00
-1723,37	73,00
-1714,13	-44,00
-1704,90	-39,00
-1695,68	40,00
-1686,48	2,00
-1677,29	12,00
-1668,11	-42,00
-1658,94	1,00
-1649,78	-26,00
-1640,64	-112,00
-1631,51	54,00
-1622,39	-105,00
-1613,28	81,00
-1604,19	-3,00
-1595,10	33,00
-1586,03	-107,00
-1576,97	88,00
-1567,93	-18,00
-1558,89	-81,00
-1549,87	-31,00
-1540,86	-103,00
-1531,86	43,00
-1522,87	-130,00
-1513,90	-161,00
-1504,93	-82,00
-1495,98	-39,00
-1487,04	-33,00
-1478,12	79,00
-1469,20	0,00
-1460,30	2,00
-1451,40	-60,00
-1442,52	30,00
-1433,65	29,00
-1424,80	3,00
-1415,95	18,00
-1407,12	197,00
-1398,30	-111,00
-1389,48	-111,00
-1380,69	-50,00
-1371,90	15,00
-1363,12	-115,00
-1354,36	90,00
-1345,60	-91,00
-1336,86	-31,00
-1328,13	43,00
-1319,41	-51,00
-1310,70	0,00
-1302,01	-22,00
-1293,32	-106,00
-1284,65	-96,00
-1275,99	-26,00
-1267,33	-40,00
-1258,69	-29,00
-1250,06	34,00
-1241,45	0,00
-1232,84	23,00
-1224,25	-54,00
-1215,66	-66,00
-1207,09	-106,00
-1198,53	38,00
-1189,97	-109,00
-1181,43	41,00
-1172,91	18,00
-1164,39	46,00
-1155,88	22,00
-1147,38	128,00
-1138,90	-1,00
-1130,43	-59,00
-1121,96	33,00
-1113,51	56,00
-1105,07	86,00
-1096,64	-50,00
-1088,22	-2,00
-1079,81	20,00
-1071,41	-162,00
-1063,02	38,00
-1054,65	-46,00
-1046,28	-2,00
-1037,92	-28,00
-1029,58	-88,00
-1021,24	-55,00
-1012,92	96,00
-1004,61	3,00
-996,30	-28,00
-988,01	-7,00
-979,73	9,00
-971,46	23,00
-963,20	-94,00
-954,95	63,00
-946,71	49,00
-938,48	-4,00
-930,26	-3,00
-922,06	-38,00
-913,86	15,00
-905,67	-10,00
-897,49	50,00
-889,33	-107,00
-881,17	-142,00
-873,02	26,00
-864,89	-146,00
-856,76	-18,00
-848,65	69,00
-840,54	40,00
-832,45	98,00
-824,36	28,00
-816,29	10,00
-808,22	-96,00
-800,17	-26,00
-792,12	71,00
-784,09	-24,00
-776,06	-92,00
-768,05	-36,00
-760,04	83,00
-752,05	52,00
-744,07	-64,00
-736,09	-165,00
-728,13	129,00
-720,17	34,00
-712,23	-87,00
-704,29	20,00
-696,37	-64,00
-688,45	-64,00
-680,55	64,00
-672,65	7,00
-664,77	41,00
-656,89	-19,00
-649,03	-79,00
-641,17	-72,00
-633,32	5,00
-625,49	-3,00
-617,66	-2,00
-609,84	-75,00
-602,03	-42,00
-594,23	46,00
-586,45	90,00
-578,67	14,00
-570,90	47,00
-563,14	-2,00
-555,39	-48,00
-547,65	-24,00
-539,91	-97,00
-532,19	-13,00
-524,48	-85,00
-516,78	-41,00
-509,08	-29,00
-501,40	-55,00
-493,72	-42,00
-486,06	17,00
-478,40	-61,00
-470,76	85,00
-463,12	5,00
-455,49	76,00
-447,87	-14,00
-440,26	40,00
-432,66	-51,00
-425,07	-64,00
-417,49	53,00
-409,92	-13,00
-402,35	-30,00
-394,80	54,00
-387,25	4,00
-379,72	35,00
-372,19	56,00
-364,67	78,00
-357,17	-98,00
-349,67	13,00
-342,18	83,00
-334,69	-25,00
-327,22	68,00
-319,76	27,00
-312,30	5,00
-304,86	104,00
-297,42	68,00
-290,00	74,00
-282,58	8,00
-275,17	158,00
-267,77	-2,00
-260,37	134,00
-252,99	-26,00
-245,62	91,00
-238,25	-29,00
-230,90	91,00
-223,55	2,00
-216,21	149,00
-208,88	186,00
-201,56	169,00
-194,25	95,00
-186,94	224,00
-179,65	222,00
-172,36	238,00
-165,08	257,00
-157,81	233,00
-150,55	241,00
-143,30	406,00
-136,06	235,00
-128,82	426,00
-121,60	370,00
-114,38	445,00
-107,17	610,00
-99,97	596,00
-92,78	727,00
-85,60	763,00
-78,42	980,00
-71,25	1132,00
-64,10	1350,00
-56,95	1448,00
-49,81	1802,00
-42,67	2338,00
-35,55	2868,00
-28,43	3717,00
-21,33	6229,00
-14,23	19625,00
-7,14	56043,00
-0,05	55763,00
7,02	55513,00
14,09	55717,00
21,14	20315,00
28,19	8141,00
35,23	5066,00
42,27	3646,00
49,29	3130,00
56,31	2675,00
63,32	2128,00
70,32	1835,00
77,31	1508,00
84,29	1308,00
91,27	1169,00
98,23	1112,00
105,19	983,00
112,14	1134,00
119,09	1871,00
126,02	3465,00
132,95	4246,00
139,87	4432,00
146,78	4223,00
153,68	4441,00
160,58	4412,00
167,46	4301,00
174,34	4170,00
181,21	4293,00
188,08	4382,00
194,93	4305,00
201,78	4375,00
208,62	4320,00
215,45	4330,00
222,27	4363,00
229,09	4317,00
235,90	4375,00
242,70	4349,00
249,49	4205,00
256,27	4177,00
263,05	4167,00
269,82	4134,00
276,58	4226,00
283,33	4076,00
290,08	4220,00
296,82	3999,00
303,55	4117,00
310,27	4119,00
316,98	3919,00
323,69	3979,00
330,39	3950,00
337,08	3977,00
343,76	3954,00
350,44	4116,00
357,11	4032,00
363,77	3959,00
370,42	4049,00
377,07	3988,00
383,71	4118,00
390,34	4028,00
396,96	4152,00
403,58	4139,00
410,19	4132,00
416,79	4190,00
423,38	4151,00
429,97	4098,00
436,55	3929,00
443,12	4029,00
449,68	3909,00
456,24	4027,00
462,79	3958,00
469,33	4060,00
475,86	4037,00
482,39	4191,00
488,91	4011,00
495,42	4050,00
501,93	3966,00
508,42	4011,00
514,91	4120,00
521,40	3997,00
527,87	4037,00
534,34	4044,00
540,80	3968,00
547,25	4005,00
553,70	4147,00
560,14	3982,00
566,57	4056,00
573,00	3979,00
579,41	3935,00
585,83	4119,00
592,23	4118,00
598,62	3904,00
605,01	4026,00
611,40	4074,00
617,77	4051,00
624,14	3940,00
630,50	4053,00
636,85	4097,00
643,20	3958,00
649,54	4071,00
655,87	4115,00
662,20	3948,00
668,52	4004,00
674,83	3963,00
681,13	4044,00
687,43	4001,00
693,72	3982,00
700,00	3983,00
706,28	4053,00
712,55	4076,00
718,81	4040,00
725,07	3989,00
731,32	4160,00
737,56	4093,00
743,79	4156,00
750,02	4112,00
756,24	4158,00
762,46	4192,00
768,67	4071,00
774,87	4046,00
781,06	4344,00
787,25	4091,00
793,43	4266,00
799,60	4257,00
805,77	4200,00
811,93	4302,00
818,08	4288,00
824,23	4363,00
830,37	4246,00
836,50	4161,00
842,63	4246,00
848,75	4387,00
854,87	4259,00
860,97	4259,00
867,07	4277,00
873,17	4212,00
879,25	4240,00
885,33	4387,00
891,41	4199,00
897,47	4264,00
903,53	4172,00
909,59	4191,00
915,63	4325,00
921,67	4268,00
927,71	4397,00
933,74	4318,00
939,76	4368,00
945,77	4243,00
951,78	4260,00
957,78	4313,00
963,78	4287,00
969,77	4282,00
975,75	4392,00
981,72	4345,00
987,69	4303,00
993,66	4440,00
999,61	4441,00
1005,56	4403,00
1011,51	4546,00
1017,44	4534,00
1023,37	4515,00
1029,30	4606,00
1035,22	4489,00
1041,13	4593,00
1047,03	4764,00
1052,93	4915,00
1058,83	5700,00
1064,71	6090,00
1070,59	5645,00
1076,47	4994,00
1082,33	4963,00
1088,20	4965,00
1094,05	4642,00
1099,90	4781,00
1105,74	4750,00
1111,58	4878,00
1117,41	4936,00
1123,23	5459,00
1129,05	6541,00
1134,86	5892,00
1140,67	5417,00
1146,47	5014,00
1152,26	4904,00
1158,05	4876,00
1163,83	4973,00
1169,60	4877,00
1175,37	4788,00
1181,13	4678,00
1186,89	4738,00
1192,64	4777,00
1198,38	4667,00
1204,12	4656,00
1209,85	4679,00
1215,58	4547,00
1221,30	4724,00
1227,02	4813,00
1232,72	4811,00
1238,43	4832,00
1244,12	4886,00
1249,81	4829,00
1255,50	4889,00
1261,17	4921,00
1266,85	4993,00
1272,51	5092,00
1278,17	5018,00
1283,83	5474,00
1289,47	6106,00
1295,12	7139,00
1300,75	6777,00
1306,38	6030,00
1312,01	5415,00
1317,63	5115,00
1323,24	5091,00
1328,85	5146,00
1334,45	5100,00
1340,04	4977,00
1345,63	5089,00
1351,22	4979,00
1356,80	5187,00
1362,37	5058,00
1367,93	5218,00
1373,49	5043,00
1379,05	5172,00
1384,60	5113,00
1390,14	5010,00
1395,68	5163,00
1401,21	5191,00
1406,74	5278,00
1412,26	5525,00
1417,77	5875,00
1423,28	5991,00
1428,78	6067,00
1434,28	6697,00
1439,77	7223,00
1445,26	7050,00
1450,74	6595,00
1456,22	6681,00
1461,68	6472,00
1467,15	6335,00
1472,61	6019,00
1478,06	5518,00
1483,51	5308,00
1488,95	5187,00
1494,38	4988,00
1499,81	5042,00
1505,24	5045,00
1510,65	4892,00
1516,07	4730,00
1521,48	4679,00
1526,88	4777,00
1532,27	4702,00
1537,67	4670,00
1543,05	4716,00
1548,43	4749,00
1553,81	4689,00
1559,18	4480,00
1564,54	4666,00
1569,90	4673,00
1575,25	4535,00
1580,60	4645,00
1585,94	4630,00
1591,28	4632,00
1596,61	4634,00
1601,93	4679,00
1607,25	4521,00
1612,57	4584,00
1617,88	4548,00
1623,18	4676,00
1628,48	4461,00
1633,77	4440,00
1639,06	4520,00
1644,34	4495,00
1649,62	4397,00
1654,89	4485,00
1660,16	4350,00
1665,42	4386,00
1670,67	4386,00
1675,92	4485,00
1681,17	4381,00
1686,41	4378,00
1691,64	4396,00
1696,87	4446,00
1702,10	4264,00
1707,32	4330,00
1712,53	4183,00
1717,74	4185,00
1722,94	4277,00
1728,14	4205,00
1733,33	4216,00
1738,52	4147,00
1743,70	4128,00
1748,88	4177,00
1754,05	3969,00
1759,22	4111,00
1764,38	4144,00
1769,53	4069,00
1774,69	3999,00
1779,83	3958,00
1784,97	4038,00
1790,11	3964,00
1795,24	3939,00
1800,36	4024,00
1805,48	4054,00
1810,60	4018,00
1815,71	3978,00
1820,82	3860,00
1825,92	3833,00
1831,01	3819,00
1836,10	3968,00
1841,19	3850,00
1846,26	3876,00
1851,34	3966,00
1856,41	3930,00
1861,47	3926,00
1866,53	3815,00
1871,59	3815,00
1876,64	3836,00
1881,68	3791,00
1886,72	3913,00
1891,76	3770,00
1896,79	3716,00
1901,81	3717,00
1906,83	3678,00
1911,85	3707,00
1916,86	3633,00
1921,86	3721,00
1926,86	3709,00
1931,86	3530,00
1936,85	3532,00
1941,83	3410,00
1946,81	3509,00
1951,79	3502,00
1956,76	3491,00
1961,72	3404,00
1966,68	3548,00
1971,64	3424,00
1976,59	3416,00
1981,54	3406,00
1986,48	3465,00
1991,42	3361,00
1996,35	3382,00
2001,27	3307,00
2006,20	3377,00
2011,11	3360,00
2016,03	3398,00
2020,93	3269,00
2025,84	3271,00
2030,73	3408,00
2035,63	3244,00
2040,52	3284,00
2045,40	3280,00
2050,28	3248,00
2055,15	3289,00
2060,02	3236,00
2064,89	3321,00
2069,75	3187,00
2074,60	3230,00
2079,46	3098,00
2084,30	3183,00
2089,14	3129,00
2093,98	3136,00
2098,81	3167,00
2103,64	3325,00
2108,46	3156,00
2113,28	3300,00
2118,09	3233,00
2122,90	3239,00
2127,70	3155,00
2132,50	3253,00
2137,30	3111,00
2142,09	3128,00
2146,87	3192,00
2151,66	3031,00
2156,43	3072,00
2161,20	3134,00
2165,97	3124,00
2170,73	2995,00
2175,49	3113,00
2180,24	3009,00
2184,99	3091,00
2189,74	3084,00
2194,48	2908,00
2199,21	3009,00
2203,94	2890,00
2208,67	2891,00
2213,39	2836,00
2218,11	2858,00
2222,82	2823,00
2227,53	2868,00
2232,23	2823,00
2236,93	2999,00
2241,63	2852,00
2246,32	2963,00
2251,00	2846,00
2255,68	2756,00
2260,36	2905,00
2265,03	2664,00
2269,70	2835,00
2274,36	2796,00
2279,02	2813,00
2283,68	2659,00
2288,33	2791,00
2292,97	2716,00
2297,61	2808,00
2302,25	2614,00
2306,88	2651,00
2311,51	2635,00
2316,14	2630,00
2320,75	2579,00
2325,37	2638,00
2329,98	2632,00
2334,59	2594,00
2339,19	2581,00
2343,79	2544,00
2348,38	2623,00
2352,97	2550,00
2357,55	2555,00
2362,13	2524,00
2366,71	2422,00
2371,28	2595,00
2375,85	2530,00
2380,41	2423,00
2384,97	2436,00
2389,52	2326,00
2394,07	2326,00
2398,62	2336,00
2403,16	2284,00
2407,70	2287,00
2412,23	2409,00
2416,76	2424,00
2421,29	2329,00
2425,81	2184,00
2430,32	2406,00
2434,84	2327,00
2439,34	2280,00
2443,85	2205,00
2448,35	2282,00
2452,84	2268,00
2457,33	2209,00
2461,82	2155,00
2466,30	2270,00
2470,78	2085,00
2475,25	2052,00
2479,72	2019,00
2484,19	2080,00
2488,65	2055,00
2493,11	2045,00
2497,56	2152,00
2502,01	2114,00
2506,46	1913,00
2510,90	2063,00
2515,34	1984,00
2519,77	2032,00
2524,20	2028,00
2528,62	2015,00
2533,04	1981,00
2537,46	1992,00
2541,87	1988,00
2546,28	1927,00
2550,68	1982,00
2555,08	1932,00
2559,48	2038,00
2563,87	1892,00
2568,26	1883,00
2572,64	1771,00
2577,02	1934,00
2581,40	2049,00
2585,77	1831,00
2590,14	1863,00
2594,50	1868,00
2598,86	1781,00
2603,22	1711,00
2607,57	1731,00
2611,92	1673,00
2616,26	1668,00
2620,60	1729,00
2624,94	1837,00
2629,27	1654,00
2633,60	1716,00
2637,92	1712,00
2642,24	1728,00
2646,56	1702,00
2650,87	1704,00
2655,18	1766,00
2659,48	1629,00
2663,78	1772,00
2668,08	1625,00
2672,37	1686,00
2676,66	1662,00
2680,95	1743,00
2685,23	1648,00
2689,50	1706,00
2693,78	1637,00
2698,05	1747,00
2702,31	1659,00
2706,57	1747,00
2710,83	1730,00
2715,08	1785,00
2719,33	1845,00
2723,58	1888,00
2727,82	1763,00
2732,06	1834,00
2736,29	1715,00
2740,53	1680,00
2744,75	1686,00
2748,97	1814,00
2753,19	1728,00
2757,41	1702,00
2761,62	1635,00
2765,83	1628,00
2770,03	1577,00
2774,23	1638,00
2778,43	1628,00
2782,62	1649,00
2786,81	1568,00
2791,00	1647,00
2795,18	1727,00
2799,35	1649,00
2803,53	1869,00
2807,70	1751,00
2811,86	1762,00
2816,03	1756,00
2820,19	1922,00
2824,34	1947,00
2828,49	2162,00
2832,64	2199,00
2836,78	2620,00
2840,92	2963,00
2845,06	3569,00
2849,19	4028,00
2853,32	4282,00
2857,45	4088,00
2861,57	3878,00
2865,69	3795,00
2869,80	3746,00
2873,91	3714,00
2878,02	4043,00
2882,12	4365,00
2886,22	4474,00
2890,32	4182,00
2894,41	3885,00
2898,50	3464,00
2902,58	3257,00
2906,67	3169,00
2910,74	2989,00
2914,82	2722,00
2918,89	2552,00
2922,96	2438,00
2927,02	2386,00
2931,08	2230,00
2935,13	2097,00
2939,19	2116,00
2943,24	1917,00
2947,28	1751,00
2951,32	1618,00
2955,36	1545,00
2959,40	1341,00
2963,43	1339,00
2967,46	1265,00
2971,48	1268,00
2975,50	1184,00
2979,52	1246,00
2983,53	1238,00
2987,54	1026,00
2991,55	1013,00
2995,55	1005,00
2999,55	973,00
3003,54	1032,00
3007,54	996,00
3011,53	913,00
3015,51	907,00
3019,49	938,00
3023,47	814,00
3027,45	790,00
3031,42	865,00
3035,39	854,00
3039,35	764,00
3043,31	773,00
3047,27	834,00
3051,22	760,00
3055,17	819,00
3059,12	677,00
3063,06	705,00
3067,00	843,00
3070,94	774,00
3074,87	691,00
3078,80	637,00
3082,73	688,00
3086,65	687,00
3090,57	628,00
3094,49	711,00
3098,40	619,00
3102,31	601,00
3106,22	710,00
3110,12	661,00
3114,02	603,00
3117,92	544,00
3121,81	583,00
3125,70	639,00
3129,58	513,00
3133,47	524,00
3137,34	535,00
3141,22	528,00
3145,09	702,00
3148,96	434,00
3152,83	595,00
3156,69	493,00
3160,55	600,00
3164,40	517,00
3168,26	532,00
3172,10	574,00
3175,95	521,00
3179,79	497,00
3183,63	449,00
3187,47	473,00
3191,30	379,00
3195,13	447,00
3198,95	499,00
3202,78	417,00
3206,60	522,00
3210,41	427,00
3214,23	384,00
3218,03	424,00
3221,84	405,00
3225,64	317,00
3229,44	422,00
3233,24	436,00
3237,03	452,00
3240,82	404,00
3244,61	413,00
3248,39	368,00
3252,17	415,00
3255,95	352,00
3259,72	341,00
3263,49	382,00
3267,26	409,00
3271,03	376,00
3274,79	304,00
3278,54	303,00
3282,30	397,00
3286,05	468,00
3289,80	268,00
3293,54	255,00
3297,29	345,00
3301,02	449,00
3304,76	318,00
3308,49	245,00
3312,22	339,00
3315,95	283,00
3319,67	273,00
3323,39	382,00
3327,10	242,00
3330,82	308,00
3334,53	254,00
3338,24	271,00
3341,94	241,00
3345,64	342,00
3349,34	248,00
3353,03	262,00
3356,72	338,00
3360,41	284,00
3364,10	261,00
3367,78	228,00
3371,46	209,00
3375,13	284,00
3378,81	298,00
3382,48	227,00
3386,14	151,00
3389,81	196,00
3393,47	225,00
3397,12	190,00
3400,78	144,00
3404,43	151,00
3408,08	191,00
3411,72	161,00
3415,36	297,00
3419,00	251,00
3422,64	193,00
3426,27	176,00
3429,90	221,00
3433,53	170,00
3437,15	59,00
3440,77	174,00
3444,39	209,00
3448,00	262,00
3451,62	130,00
3455,22	149,00
3458,83	75,00
3462,43	116,00
3466,03	110,00
3469,63	214,00
3473,22	147,00
3476,81	143,00
3480,40	82,00
3483,99	159,00
3487,57	195,00
3491,15	143,00
3494,72	120,00
3498,29	53,00
3501,86	127,00
3505,43	34,00
3508,99	124,00
3512,56	111,00
3516,11	130,00
3519,67	51,00
3523,22	59,00
3526,77	76,00
3530,32	68,00
3533,86	135,00
3537,40	106,00
3540,94	59,00
3544,47	101,00
3548,00	116,00
3551,53	7,00
3555,06	30,00
3558,58	32,00
3562,10	63,00
3565,62	68,00
3569,13	-38,00
3572,64	41,00
3576,15	83,00
3579,66	-19,00
3583,16	131,00
3586,66	37,00
3590,16	-12,00
3593,65	-10,00
3597,14	131,00
3600,63	14,00
3604,11	-68,00
3607,60	25,00
3611,08	-33,00
3614,55	89,00
3618,03	-7,00
3621,50	-9,00
3624,97	116,00
3628,43	55,00
3631,90	42,00
3635,36	48,00
3638,81	27,00
3642,27	-27,00
3645,72	47,00
3649,17	29,00
3652,61	-3,00
3656,06	-47,00
3659,50	-19,00
3662,93	-5,00
3666,37	87,00
3669,80	33,00
3673,23	80,00
3676,65	44,00
3680,08	23,00
3683,50	21,00
3686,92	31,00
3690,33	-7,00
3693,74	27,00
3697,15	40,00
3700,56	-79,00
3703,96	70,00
3707,36	-83,00
3710,76	33,00
3714,16	92,00
3717,55	102,00
3720,94	34,00
3724,33	41,00
3727,71	-71,00
3731,10	35,00
3734,48	20,00
3737,85	-33,00
3741,23	-100,00
3744,60	35,00
3747,97	48,00
3751,33	-13,00
3754,69	-48,00
3758,05	-7,00
3761,41	-50,00
3764,77	31,00
3768,12	-24,00
3771,47	11,00
3774,82	4,00
3778,16	-4,00
3781,50	0,00
3784,84	7,00
3788,18	-4,00
>>>>>End Processed Spectral Data<<<<<
