SpectraSuite Data File
++++++++++++++++++++++++++++++++++++
Date: Wed Feb 11 16:59:38 ICT 2026
User: Administrator
Dark Spectrum Present: Yes
Reference Spectrum Present: No
Number of Sampled Component Spectra: 1
Spectrometers: MAYP113682
Integration Time (usec): 3000000 (MAYP113682)
Spectra Averaged: 1 (MAYP113682)
Boxcar Smoothing: 0 (MAYP113682)
Correct for Electrical Dark: No (MAYP113682)
Strobe/Lamp Enabled: No (MAYP113682)
Correct for Detector Non-linearity: No (MAYP113682)
Correct for Stray Light: No (MAYP113682)
Number of Pixels in Processed Spectrum: 2068
>>>>>Begin Processed Spectral Data<<<<<
-37534,58	5,00
-37414,56	5,00
-37295,11	1,00
-37176,24	0,00
-37057,95	5,00
-36940,22	-30,00
-36823,05	17,00
-36706,45	74,00
-36590,40	55,00
-36474,90	24,00
-36359,95	-72,00
-36245,55	41,00
-36131,68	-51,00
-36018,35	59,00
-35905,55	50,00
-35793,29	10,00
-35681,54	52,00
-35570,32	39,00
-35459,62	41,00
-35349,43	-36,00
-35239,75	34,00
-35130,58	53,00
-35021,91	-53,00
-34913,74	-85,00
-34806,07	0,00
-34698,89	-43,00
-34592,20	25,00
-34486,00	32,00
-34380,28	65,00
-34275,04	24,00
-34170,27	-82,00
-34065,98	-47,00
-33962,16	-7,00
-33858,81	8,00
-33755,92	-22,00
-33653,49	-120,00
-33551,52	31,00
-33450,01	-72,00
-33348,94	34,00
-33248,33	30,00
-33148,16	36,00
-33048,43	36,00
-32949,14	-27,00
-32850,29	-72,00
-32751,87	-5,00
-32653,89	21,00
-32556,33	-118,00
-32459,20	-34,00
-32362,49	49,00
-32266,19	24,00
-32170,32	16,00
-32074,86	14,00
-31979,82	41,00
-31885,18	6,00
-31790,95	6,00
-31697,12	3,00
-31603,69	67,00
-31510,67	-61,00
-31418,04	129,00
-31325,80	12,00
-31233,95	132,00
-31142,49	40,00
-31051,42	-70,00
-30960,73	-31,00
-30870,43	-79,00
-30780,50	34,00
-30690,95	1,00
-30601,77	123,00
-30512,97	-69,00
-30424,53	18,00
-30336,46	-84,00
-30248,76	1,00
-30161,42	-61,00
-30074,44	8,00
-29987,81	-41,00
-29901,55	6,00
-29815,63	67,00
-29730,07	-37,00
-29644,86	19,00
-29560,00	48,00
-29475,48	47,00
-29391,30	-26,00
-29307,47	7,00
-29223,97	57,00
-29140,81	-87,00
-29057,99	84,00
-28975,50	75,00
-28893,34	48,00
-28811,51	-1,00
-28730,00	66,00
-28648,82	137,00
-28567,97	91,00
-28487,43	-53,00
-28407,21	-65,00
-28327,32	-74,00
-28247,73	-25,00
-28168,46	44,00
-28089,50	45,00
-28010,85	-123,00
-27932,51	27,00
-27854,48	-36,00
-27776,75	-54,00
-27699,32	85,00
-27622,19	19,00
-27545,37	-1,00
-27468,84	16,00
-27392,60	-11,00
-27316,66	-18,00
-27241,01	86,00
-27165,66	2,00
-27090,59	-116,00
-27015,81	-38,00
-26941,31	34,00
-26867,10	95,00
-26793,17	16,00
-26719,52	97,00
-26646,15	-8,00
-26573,06	22,00
-26500,24	-94,00
-26427,70	23,00
-26355,43	12,00
-26283,43	-30,00
-26211,71	-12,00
-26140,25	77,00
-26069,06	34,00
-25998,13	34,00
-25927,46	-102,00
-25857,06	-86,00
-25786,92	83,00
-25717,04	29,00
-25647,42	81,00
-25578,05	45,00
-25508,94	-51,00
-25440,09	-86,00
-25371,48	3,00
-25303,13	-11,00
-25235,02	-1,00
-25167,17	92,00
-25099,56	-16,00
-25032,19	24,00
-24965,07	-15,00
-24898,20	16,00
-24831,56	-6,00
-24765,17	-81,00
-24699,01	43,00
-24633,10	-28,00
-24567,41	67,00
-24501,97	-2,00
-24436,75	15,00
-24371,77	11,00
-24307,03	-5,00
-24242,51	12,00
-24178,22	-138,00
-24114,16	112,00
-24050,32	83,00
-23986,71	-96,00
-23923,32	53,00
-23860,16	-31,00
-23797,22	53,00
-23734,50	-31,00
-23672,00	-25,00
-23609,71	85,00
-23547,65	24,00
-23485,80	68,00
-23424,16	75,00
-23362,74	-72,00
-23301,53	-83,00
-23240,54	44,00
-23179,75	7,00
-23119,17	81,00
-23058,80	-29,00
-22998,64	-8,00
-22938,68	-23,00
-22878,93	46,00
-22819,39	-7,00
-22760,04	-46,00
-22700,90	-32,00
-22641,96	68,00
-22583,22	40,00
-22524,68	-19,00
-22466,33	-25,00
-22408,19	-2,00
-22350,23	-84,00
-22292,48	123,00
-22234,92	12,00
-22177,55	-135,00
-22120,37	-11,00
-22063,38	6,00
-22006,58	17,00
-21949,98	13,00
-21893,56	24,00
-21837,33	16,00
-21781,28	17,00
-21725,42	-21,00
-21669,74	122,00
-21614,25	17,00
-21558,94	-59,00
-21503,81	55,00
-21448,86	19,00
-21394,10	75,00
-21339,51	-40,00
-21285,10	18,00
-21230,86	-13,00
-21176,81	59,00
-21122,93	-1,00
-21069,22	56,00
-21015,69	68,00
-20962,33	36,00
-20909,14	-38,00
-20856,13	58,00
-20803,28	59,00
-20750,61	55,00
-20698,10	-64,00
-20645,76	45,00
-20593,59	-40,00
-20541,59	78,00
-20489,75	60,00
-20438,07	32,00
-20386,56	89,00
-20335,22	14,00
-20284,03	-3,00
-20233,01	63,00
-20182,15	-16,00
-20131,45	-40,00
-20080,91	15,00
-20030,52	-43,00
-19980,30	-11,00
-19930,23	-2,00
-19880,32	118,00
-19830,56	-1,00
-19780,96	-17,00
-19731,52	41,00
-19682,23	89,00
-19633,09	-63,00
-19584,10	-53,00
-19535,26	34,00
-19486,58	69,00
-19438,04	130,00
-19389,66	-19,00
-19341,42	59,00
-19293,33	-201,00
-19245,39	13,00
-19197,60	-174,00
-19149,95	35,00
-19102,45	74,00
-19055,09	-3,00
-19007,87	28,00
-18960,80	45,00
-18913,87	113,00
-18867,09	47,00
-18820,44	97,00
-18773,94	61,00
-18727,57	35,00
-18681,35	91,00
-18635,26	166,00
-18589,31	18,00
-18543,50	33,00
-18497,83	61,00
-18452,29	63,00
-18406,89	-93,00
-18361,63	4,00
-18316,50	39,00
-18271,50	-82,00
-18226,63	-75,00
-18181,90	36,00
-18137,30	101,00
-18092,84	62,00
-18048,50	123,00
-18004,29	-53,00
-17960,22	43,00
-17916,27	35,00
-17872,45	-5,00
-17828,76	43,00
-17785,20	73,00
-17741,77	9,00
-17698,46	31,00
-17655,28	-73,00
-17612,22	63,00
-17569,29	-94,00
-17526,48	57,00
-17483,79	75,00
-17441,23	-85,00
-17398,79	-74,00
-17356,48	-24,00
-17314,28	-36,00
-17272,21	-6,00
-17230,26	-88,00
-17188,42	90,00
-17146,71	-11,00
-17105,12	52,00
-17063,64	48,00
-17022,28	7,00
-16981,04	36,00
-16939,92	-24,00
-16898,91	-66,00
-16858,02	61,00
-16817,25	-96,00
-16776,59	38,00
-16736,04	-31,00
-16695,61	-7,00
-16655,29	-38,00
-16615,09	50,00
-16574,99	91,00
-16535,01	-2,00
-16495,15	6,00
-16455,39	89,00
-16415,74	-8,00
-16376,21	30,00
-16336,78	-1,00
-16297,46	41,00
-16258,26	115,00
-16219,16	14,00
-16180,17	6,00
-16141,28	-39,00
-16102,51	66,00
-16063,84	17,00
-16025,27	3,00
-15986,82	-18,00
-15948,46	96,00
-15910,22	10,00
-15872,07	95,00
-15834,04	-76,00
-15796,10	78,00
-15758,27	-17,00
-15720,54	77,00
-15682,91	72,00
-15645,39	17,00
-15607,97	43,00
-15570,64	68,00
-15533,42	0,00
-15496,30	-89,00
-15459,28	75,00
-15422,36	55,00
-15385,54	-75,00
-15348,82	17,00
-15312,19	25,00
-15275,66	-52,00
-15239,23	-7,00
-15202,90	-7,00
-15166,67	-55,00
-15130,53	-30,00
-15094,48	48,00
-15058,54	89,00
-15022,68	62,00
-14986,93	36,00
-14951,26	32,00
-14915,69	-13,00
-14880,22	65,00
-14844,84	34,00
-14809,55	23,00
-14774,35	45,00
-14739,25	1,00
-14704,24	-51,00
-14669,32	39,00
-14634,49	-23,00
-14599,75	46,00
-14565,10	-31,00
-14530,55	-16,00
-14496,08	-38,00
-14461,70	46,00
-14427,41	27,00
-14393,21	-18,00
-14359,10	-47,00
-14325,07	29,00
-14291,14	-34,00
-14257,29	-26,00
-14223,52	18,00
-14189,85	-3,00
-14156,26	-1,00
-14122,76	-52,00
-14089,34	69,00
-14056,01	-137,00
-14022,76	-60,00
-13989,60	-44,00
-13956,52	-6,00
-13923,53	-114,00
-13890,62	59,00
-13857,79	-73,00
-13825,05	-43,00
-13792,39	-3,00
-13759,81	19,00
-13727,31	-13,00
-13694,90	-7,00
-13662,57	16,00
-13630,31	-35,00
-13598,14	63,00
-13566,05	9,00
-13534,05	18,00
-13502,12	-43,00
-13470,27	6,00
-13438,50	6,00
-13406,80	70,00
-13375,19	3,00
-13343,66	-13,00
-13312,20	87,00
-13280,83	14,00
-13249,53	74,00
-13218,30	-22,00
-13187,16	10,00
-13156,09	13,00
-13125,10	-28,00
-13094,18	-40,00
-13063,34	18,00
-13032,58	53,00
-13001,89	18,00
-12971,28	98,00
-12940,74	-28,00
-12910,27	-30,00
-12879,88	18,00
-12849,57	36,00
-12819,33	31,00
-12789,16	60,00
-12759,06	91,00
-12729,04	-35,00
-12699,09	18,00
-12669,21	27,00
-12639,41	-18,00
-12609,68	12,00
-12580,02	-5,00
-12550,43	0,00
-12520,91	-13,00
-12491,46	27,00
-12462,08	-5,00
-12432,77	-32,00
-12403,54	55,00
-12374,37	100,00
-12345,27	48,00
-12316,24	66,00
-12287,29	34,00
-12258,40	-87,00
-12229,57	45,00
-12200,82	63,00
-12172,14	56,00
-12143,52	135,00
-12114,97	14,00
-12086,49	28,00
-12058,07	39,00
-12029,73	156,00
-12001,44	1,00
-11973,23	39,00
-11945,08	21,00
-11917,00	105,00
-11888,98	37,00
-11861,03	26,00
-11833,15	2,00
-11805,32	71,00
-11777,57	-29,00
-11749,88	-70,00
-11722,25	-135,00
-11694,69	5,00
-11667,19	-119,00
-11639,75	28,00
-11612,38	69,00
-11585,07	-24,00
-11557,83	84,00
-11530,65	-51,00
-11503,53	-1,00
-11476,47	54,00
-11449,48	-59,00
-11422,54	82,00
-11395,67	55,00
-11368,86	18,00
-11342,11	26,00
-11315,43	12,00
-11288,80	33,00
-11262,23	41,00
-11235,73	15,00
-11209,28	25,00
-11182,90	-30,00
-11156,57	12,00
-11130,31	58,00
-11104,10	81,00
-11077,96	79,00
-11051,87	-96,00
-11025,84	75,00
-10999,87	-3,00
-10973,96	-5,00
-10948,11	-68,00
-10922,31	-1,00
-10896,58	57,00
-10870,90	61,00
-10845,28	132,00
-10819,71	72,00
-10794,20	31,00
-10768,75	-4,00
-10743,36	57,00
-10718,02	-40,00
-10692,74	-15,00
-10667,52	-47,00
-10642,35	23,00
-10617,24	-27,00
-10592,18	81,00
-10567,18	56,00
-10542,23	4,00
-10517,34	120,00
-10492,51	15,00
-10467,72	50,00
-10443,00	73,00
-10418,32	80,00
-10393,70	24,00
-10369,14	49,00
-10344,63	108,00
-10320,17	247,00
-10295,77	129,00
-10271,42	153,00
-10247,12	120,00
-10222,88	250,00
-10198,68	165,00
-10174,54	222,00
-10150,46	191,00
-10126,42	178,00
-10102,44	147,00
-10078,51	188,00
-10054,63	203,00
-10030,80	281,00
-10007,03	300,00
-9983,30	218,00
-9959,63	345,00
-9936,01	248,00
-9912,44	329,00
-9888,92	371,00
-9865,44	344,00
-9842,02	392,00
-9818,65	472,00
-9795,33	437,00
-9772,06	498,00
-9748,84	419,00
-9725,67	615,00
-9702,55	592,00
-9679,47	771,00
-9656,45	693,00
-9633,47	772,00
-9610,55	801,00
-9587,67	915,00
-9564,84	893,00
-9542,06	1162,00
-9519,32	1198,00
-9496,64	1385,00
-9474,00	1471,00
-9451,41	1515,00
-9428,87	1456,00
-9406,37	1518,00
-9383,92	1353,00
-9361,52	1360,00
-9339,17	1543,00
-9316,86	1716,00
-9294,60	2020,00
-9272,38	2186,00
-9250,21	2469,00
-9228,09	2661,00
-9206,01	2594,00
-9183,98	2311,00
-9162,00	2202,00
-9140,06	2041,00
-9118,16	2117,00
-9096,31	2131,00
-9074,51	2213,00
-9052,75	2277,00
-9031,04	2260,00
-9009,37	2033,00
-8987,74	1753,00
-8966,16	1518,00
-8944,63	1325,00
-8923,14	1290,00
-8901,69	1471,00
-8880,29	1560,00
-8858,93	1766,00
-8837,61	2020,00
-8816,34	2059,00
-8795,11	2149,00
-8773,92	1898,00
-8752,78	1693,00
-8731,68	1647,00
-8710,62	1580,00
-8689,61	1686,00
-8668,63	1757,00
-8647,70	1888,00
-8626,82	1985,00
-8605,97	1853,00
-8585,17	1629,00
-8564,41	1474,00
-8543,69	1574,00
-8523,01	1410,00
-8502,37	1229,00
-8481,78	1536,00
-8461,23	1805,00
-8440,71	1815,00
-8420,24	2055,00
-8399,81	2021,00
-8379,42	1978,00
-8359,08	1677,00
-8338,77	1645,00
-8318,50	1508,00
-8298,27	1423,00
-8278,09	1542,00
-8257,94	1628,00
-8237,83	1767,00
-8217,76	1835,00
-8197,74	1871,00
-8177,75	1777,00
-8157,80	1659,00
-8137,89	1434,00
-8118,02	1418,00
-8098,19	1441,00
-8078,40	1506,00
-8058,65	1521,00
-8038,93	1598,00
-8019,26	1434,00
-7999,62	1333,00
-7980,02	1323,00
-7960,46	1197,00
-7940,94	1147,00
-7921,46	1214,00
-7902,01	1257,00
-7882,60	1107,00
-7863,23	1113,00
-7843,90	1281,00
-7824,61	1287,00
-7805,35	1391,00
-7786,13	1223,00
-7766,95	1417,00
-7747,80	1380,00
-7728,69	1082,00
-7709,62	1209,00
-7690,59	1230,00
-7671,59	1332,00
-7652,63	1480,00
-7633,70	1421,00
-7614,81	1425,00
-7595,96	1239,00
-7577,15	1084,00
-7558,37	1173,00
-7539,62	1191,00
-7520,91	1251,00
-7502,24	1335,00
-7483,60	1333,00
-7465,00	1146,00
-7446,44	1046,00
-7427,91	1068,00
-7409,41	702,00
-7390,95	780,00
-7372,53	653,00
-7354,14	696,00
-7335,78	756,00
-7317,46	720,00
-7299,18	909,00
-7280,92	1025,00
-7262,71	1116,00
-7244,52	1169,00
-7226,38	1263,00
-7208,26	1206,00
-7190,18	1100,00
-7172,14	994,00
-7154,12	925,00
-7136,15	1134,00
-7118,20	1094,00
-7100,29	1164,00
-7082,41	1212,00
-7064,57	1148,00
-7046,76	982,00
-7028,98	887,00
-7011,24	770,00
-6993,53	745,00
-6975,85	655,00
-6958,20	467,00
-6940,59	445,00
-6923,01	518,00
-6905,46	820,00
-6887,94	693,00
-6870,46	971,00
-6853,01	1119,00
-6835,59	999,00
-6818,21	916,00
-6800,85	806,00
-6783,53	692,00
-6766,24	348,00
-6748,98	390,00
-6731,76	508,00
-6714,56	271,00
-6697,40	403,00
-6680,26	353,00
-6663,16	441,00
-6646,09	660,00
-6629,05	760,00
-6612,05	780,00
-6595,07	906,00
-6578,13	752,00
-6561,21	587,00
-6544,33	498,00
-6527,47	251,00
-6510,65	315,00
-6493,86	255,00
-6477,10	246,00
-6460,36	447,00
-6443,66	342,00
-6426,99	258,00
-6410,35	349,00
-6393,74	278,00
-6377,16	533,00
-6360,61	534,00
-6344,09	582,00
-6327,59	485,00
-6311,13	573,00
-6294,70	572,00
-6278,29	602,00
-6261,92	707,00
-6245,58	703,00
-6229,26	753,00
-6212,97	737,00
-6196,72	567,00
-6180,49	323,00
-6164,29	156,00
-6148,12	144,00
-6131,98	147,00
-6115,86	74,00
-6099,78	58,00
-6083,72	80,00
-6067,69	41,00
-6051,69	144,00
-6035,72	114,00
-6019,78	419,00
-6003,87	397,00
-5987,98	361,00
-5972,12	603,00
-5956,29	524,00
-5940,49	524,00
-5924,71	286,00
-5908,96	106,00
-5893,24	122,00
-5877,55	186,00
-5861,89	160,00
-5846,25	190,00
-5830,64	232,00
-5815,05	61,00
-5799,50	278,00
-5783,97	241,00
-5768,47	254,00
-5752,99	467,00
-5737,55	473,00
-5722,12	481,00
-5706,73	510,00
-5691,36	412,00
-5676,02	180,00
-5660,71	169,00
-5645,42	195,00
-5630,16	118,00
-5614,92	324,00
-5599,71	271,00
-5584,53	358,00
-5569,37	347,00
-5554,24	1118,00
-5539,14	340,00
-5524,06	329,00
-5509,01	146,00
-5493,98	410,00
-5478,98	312,00
-5464,00	276,00
-5449,05	379,00
-5434,13	216,00
-5419,23	187,00
-5404,36	186,00
-5389,51	278,00
-5374,69	417,00
-5359,89	483,00
-5345,12	683,00
-5330,37	511,00
-5315,65	416,00
-5300,95	352,00
-5286,28	329,00
-5271,63	257,00
-5257,01	259,00
-5242,41	280,00
-5227,84	200,00
-5213,29	220,00
-5198,76	130,00
-5184,26	89,00
-5169,79	178,00
-5155,33	202,00
-5140,91	324,00
-5126,51	330,00
-5112,13	397,00
-5097,77	255,00
-5083,44	87,00
-5069,13	141,00
-5054,85	174,00
-5040,59	295,00
-5026,36	265,00
-5012,15	246,00
-4997,96	312,00
-4983,80	289,00
-4969,66	119,00
-4955,54	104,00
-4941,44	246,00
-4927,37	409,00
-4913,33	592,00
-4899,30	621,00
-4885,30	511,00
-4871,33	349,00
-4857,37	131,00
-4843,44	196,00
-4829,53	24,00
-4815,65	235,00
-4801,79	211,00
-4787,95	202,00
-4774,13	182,00
-4760,34	123,00
-4746,56	6,00
-4732,82	202,00
-4719,09	175,00
-4705,38	371,00
-4691,70	489,00
-4678,04	479,00
-4664,41	310,00
-4650,79	261,00
-4637,20	172,00
-4623,63	160,00
-4610,08	152,00
-4596,56	266,00
-4583,05	283,00
-4569,57	277,00
-4556,11	54,00
-4542,67	96,00
-4529,25	82,00
-4515,86	260,00
-4502,49	339,00
-4489,13	402,00
-4475,80	392,00
-4462,49	236,00
-4449,21	242,00
-4435,94	122,00
-4422,70	225,00
-4409,47	245,00
-4396,27	320,00
-4383,09	163,00
-4369,93	40,00
-4356,79	71,00
-4343,67	92,00
-4330,58	113,00
-4317,50	237,00
-4304,45	148,00
-4291,41	144,00
-4278,40	74,00
-4265,41	100,00
-4252,44	239,00
-4239,49	210,00
-4226,55	176,00
-4213,65	164,00
-4200,76	166,00
-4187,89	50,00
-4175,04	113,00
-4162,21	34,00
-4149,40	40,00
-4136,61	62,00
-4123,85	30,00
-4111,10	-59,00
-4098,37	44,00
-4085,66	99,00
-4072,98	18,00
-4060,31	32,00
-4047,66	-24,00
-4035,04	105,00
-4022,43	71,00
-4009,84	84,00
-3997,27	24,00
-3984,72	84,00
-3972,19	55,00
-3959,69	50,00
-3947,20	53,00
-3934,73	14,00
-3922,27	68,00
-3909,84	-32,00
-3897,43	150,00
-3885,04	155,00
-3872,67	-55,00
-3860,31	65,00
-3847,98	6,00
-3835,66	33,00
-3823,36	57,00
-3811,09	13,00
-3798,83	64,00
-3786,59	-50,00
-3774,37	-52,00
-3762,17	104,00
-3749,98	-24,00
-3737,82	79,00
-3725,67	-70,00
-3713,55	25,00
-3701,44	105,00
-3689,35	-23,00
-3677,28	79,00
-3665,22	30,00
-3653,19	-99,00
-3641,17	34,00
-3629,18	41,00
-3617,20	-63,00
-3605,24	80,00
-3593,30	95,00
-3581,37	-6,00
-3569,47	-63,00
-3557,58	-91,00
-3545,71	-49,00
-3533,86	115,00
-3522,02	47,00
-3510,21	-79,00
-3498,41	-20,00
-3486,63	37,00
-3474,87	-30,00
-3463,12	42,00
-3451,40	-10,00
-3439,69	70,00
-3428,00	12,00
-3416,33	24,00
-3404,67	51,00
-3393,03	-7,00
-3381,41	-47,00
-3369,81	13,00
-3358,22	-48,00
-3346,66	75,00
-3335,10	86,00
-3323,57	67,00
-3312,06	122,00
-3300,56	-19,00
-3289,08	5,00
-3277,61	-93,00
-3266,16	-35,00
-3254,73	-44,00
-3243,32	71,00
-3231,92	-9,00
-3220,55	96,00
-3209,18	168,00
-3197,84	3,00
-3186,51	-149,00
-3175,20	-54,00
-3163,90	-18,00
-3152,63	-36,00
-3141,36	20,00
-3130,12	-18,00
-3118,89	17,00
-3107,68	27,00
-3096,49	-76,00
-3085,31	-42,00
-3074,15	-47,00
-3063,00	52,00
-3051,87	39,00
-3040,76	66,00
-3029,67	-3,00
-3018,59	10,00
-3007,52	71,00
-2996,48	-19,00
-2985,44	42,00
-2974,43	32,00
-2963,43	-16,00
-2952,45	-42,00
-2941,48	24,00
-2930,53	7,00
-2919,60	95,00
-2908,68	0,00
-2897,78	-33,00
-2886,89	4,00
-2876,02	-49,00
-2865,17	-20,00
-2854,33	82,00
-2843,50	-29,00
-2832,70	144,00
-2821,90	67,00
-2811,13	-73,00
-2800,37	71,00
-2789,62	23,00
-2778,89	85,00
-2768,18	55,00
-2757,48	79,00
-2746,80	27,00
-2736,13	-36,00
-2725,48	121,00
-2714,84	-73,00
-2704,22	-55,00
-2693,61	35,00
-2683,02	-12,00
-2672,45	48,00
-2661,89	-47,00
-2651,34	124,00
-2640,81	29,00
-2630,30	132,00
-2619,80	45,00
-2609,31	-3,00
-2598,84	51,00
-2588,39	53,00
-2577,95	2,00
-2567,52	7,00
-2557,11	-63,00
-2546,71	-15,00
-2536,33	6,00
-2525,97	-47,00
-2515,62	57,00
-2505,28	31,00
-2494,96	-88,00
-2484,65	-23,00
-2474,36	77,00
-2464,08	97,00
-2453,82	35,00
-2443,57	-5,00
-2433,33	89,00
-2423,11	-59,00
-2412,91	14,00
-2402,72	-41,00
-2392,54	-164,00
-2382,38	27,00
-2372,23	92,00
-2362,09	4162,00
-2351,97	-63,00
-2341,87	160,00
-2331,78	-1,00
-2321,70	76,00
-2311,64	73,00
-2301,59	119,00
-2291,55	-59,00
-2281,53	-60,00
-2271,53	15,00
-2261,53	9,00
-2251,55	93,00
-2241,59	8,00
-2231,64	163,00
-2221,70	12,00
-2211,78	-26,00
-2201,87	-44,00
-2191,97	38,00
-2182,09	25,00
-2172,22	3,00
-2162,37	-128,00
-2152,53	-22,00
-2142,70	-42,00
-2132,89	34,00
-2123,09	-44,00
-2113,30	40,00
-2103,53	33,00
-2093,77	-79,00
-2084,02	50,00
-2074,29	57,00
-2064,57	-46,00
-2054,86	4,00
-2045,17	36,00
-2035,49	23,00
-2025,82	5,00
-2016,17	54,00
-2006,53	53,00
-1996,91	4,00
-1987,29	-104,00
-1977,69	42,00
-1968,11	-49,00
-1958,53	20,00
-1948,97	74,00
-1939,42	49,00
-1929,89	-148,00
-1920,37	48,00
-1910,86	45,00
-1901,36	29,00
-1891,88	-19,00
-1882,41	50,00
-1872,95	92,00
-1863,51	152,00
-1854,08	-72,00
-1844,66	59,00
-1835,26	6,00
-1825,86	59,00
-1816,48	4,00
-1807,11	-9,00
-1797,76	-85,00
-1788,42	78,00
-1779,09	32,00
-1769,77	16,00
-1760,47	2,00
-1751,17	100,00
-1741,89	149,00
-1732,63	55,00
-1723,37	86,00
-1714,13	25,00
-1704,90	-51,00
-1695,68	45,00
-1686,48	26,00
-1677,29	68,00
-1668,11	73,00
-1658,94	54,00
-1649,78	60,00
-1640,64	-31,00
-1631,51	104,00
-1622,39	-31,00
-1613,28	209,00
-1604,19	47,00
-1595,10	128,00
-1586,03	-82,00
-1576,97	147,00
-1567,93	90,00
-1558,89	-31,00
-1549,87	-18,00
-1540,86	-21,00
-1531,86	41,00
-1522,87	-82,00
-1513,90	-44,00
-1504,93	37,00
-1495,98	-1,00
-1487,04	42,00
-1478,12	180,00
-1469,20	-23,00
-1460,30	33,00
-1451,40	-24,00
-1442,52	95,00
-1433,65	97,00
-1424,80	1,00
-1415,95	-64,00
-1407,12	136,00
-1398,30	-45,00
-1389,48	-100,00
-1380,69	-65,00
-1371,90	-40,00
-1363,12	-22,00
-1354,36	136,00
-1345,60	-55,00
-1336,86	96,00
-1328,13	54,00
-1319,41	32,00
-1310,70	-20,00
-1302,01	-41,00
-1293,32	-19,00
-1284,65	-123,00
-1275,99	44,00
-1267,33	4,00
-1258,69	107,00
-1250,06	82,00
-1241,45	73,00
-1232,84	-117,00
-1224,25	98,00
-1215,66	62,00
-1207,09	10,00
-1198,53	60,00
-1189,97	-68,00
-1181,43	9,00
-1172,91	-25,00
-1164,39	-31,00
-1155,88	-29,00
-1147,38	123,00
-1138,90	133,00
-1130,43	14,00
-1121,96	91,00
-1113,51	0,00
-1105,07	10,00
-1096,64	-51,00
-1088,22	44,00
-1079,81	19,00
-1071,41	-22,00
-1063,02	65,00
-1054,65	12,00
-1046,28	41,00
-1037,92	-48,00
-1029,58	16,00
-1021,24	-79,00
-1012,92	64,00
-1004,61	9,00
-996,30	169,00
-988,01	22,00
-979,73	45,00
-971,46	30,00
-963,20	-60,00
-954,95	32,00
-946,71	68,00
-938,48	-80,00
-930,26	19,00
-922,06	32,00
-913,86	-18,00
-905,67	24,00
-897,49	29,00
-889,33	35,00
-881,17	-7,00
-873,02	44,00
-864,89	-30,00
-856,76	48,00
-848,65	37,00
-840,54	82,00
-832,45	88,00
-824,36	-58,00
-816,29	36,00
-808,22	-52,00
-800,17	77,00
-792,12	168,00
-784,09	32,00
-776,06	-33,00
-768,05	29,00
-760,04	102,00
-752,05	-45,00
-744,07	-56,00
-736,09	-13,00
-728,13	97,00
-720,17	-38,00
-712,23	-27,00
-704,29	30,00
-696,37	0,00
-688,45	-11,00
-680,55	88,00
-672,65	23,00
-664,77	-35,00
-656,89	68,00
-649,03	17,00
-641,17	47,00
-633,32	76,00
-625,49	76,00
-617,66	-56,00
-609,84	-20,00
-602,03	19,00
-594,23	18,00
-586,45	130,00
-578,67	92,00
-570,90	-12,00
-563,14	16,00
-555,39	-54,00
-547,65	37,00
-539,91	-55,00
-532,19	124,00
-524,48	-4,00
-516,78	-70,00
-509,08	26,00
-501,40	41,00
-493,72	-29,00
-486,06	73,00
-478,40	18,00
-470,76	45,00
-463,12	-56,00
-455,49	81,00
-447,87	32,00
-440,26	20,00
-432,66	2,00
-425,07	63,00
-417,49	86,00
-409,92	-27,00
-402,35	36,00
-394,80	28,00
-387,25	-27,00
-379,72	147,00
-372,19	9,00
-364,67	183,00
-357,17	-33,00
-349,67	93,00
-342,18	153,00
-334,69	66,00
-327,22	87,00
-319,76	47,00
-312,30	34,00
-304,86	82,00
-297,42	53,00
-290,00	81,00
-282,58	67,00
-275,17	116,00
-267,77	-24,00
-260,37	79,00
-252,99	-28,00
-245,62	151,00
-238,25	-43,00
-230,90	103,00
-223,55	30,00
-216,21	85,00
-208,88	213,00
-201,56	113,00
-194,25	169,00
-186,94	170,00
-179,65	224,00
-172,36	187,00
-165,08	328,00
-157,81	337,00
-150,55	212,00
-143,30	378,00
-136,06	238,00
-128,82	366,00
-121,60	345,00
-114,38	483,00
-107,17	564,00
-99,97	497,00
-92,78	773,00
-85,60	639,00
-78,42	882,00
-71,25	1020,00
-64,10	1150,00
-56,95	1366,00
-49,81	1556,00
-42,67	2000,00
-35,55	2526,00
-28,43	3244,00
-21,33	5311,00
-14,23	17028,00
-7,14	56043,00
-0,05	55763,00
7,02	55513,00
14,09	55717,00
21,14	17801,00
28,19	7060,00
35,23	4442,00
42,27	3306,00
49,29	2699,00
56,31	2281,00
63,32	1883,00
70,32	1504,00
77,31	1367,00
84,29	1122,00
91,27	972,00
98,23	919,00
105,19	916,00
112,14	776,00
119,09	1518,00
126,02	2513,00
132,95	2933,00
139,87	3242,00
146,78	3152,00
153,68	3198,00
160,58	3001,00
167,46	3107,00
174,34	3108,00
181,21	2970,00
188,08	3044,00
194,93	2835,00
201,78	3175,00
208,62	3085,00
215,45	3057,00
222,27	3067,00
229,09	3028,00
235,90	3115,00
242,70	2945,00
249,49	2878,00
256,27	2945,00
263,05	2943,00
269,82	2867,00
276,58	3000,00
283,33	2865,00
290,08	2852,00
296,82	2905,00
303,55	2886,00
310,27	2745,00
316,98	2773,00
323,69	2735,00
330,39	2773,00
337,08	2756,00
343,76	2757,00
350,44	2718,00
357,11	2730,00
363,77	2682,00
370,42	2827,00
377,07	2564,00
383,71	2811,00
390,34	2783,00
396,96	2893,00
403,58	2670,00
410,19	2733,00
416,79	2790,00
423,38	2769,00
429,97	2586,00
436,55	2580,00
443,12	2516,00
449,68	2623,00
456,24	2632,00
462,79	2469,00
469,33	2525,00
475,86	2504,00
482,39	2621,00
488,91	2573,00
495,42	2572,00
501,93	2483,00
508,42	2437,00
514,91	2399,00
521,40	2348,00
527,87	2447,00
534,34	2365,00
540,80	2336,00
547,25	2310,00
553,70	2396,00
560,14	2288,00
566,57	2460,00
573,00	2373,00
579,41	2309,00
585,83	2394,00
592,23	2420,00
598,62	2267,00
605,01	2315,00
611,40	2409,00
617,77	2361,00
624,14	2224,00
630,50	2298,00
636,85	2233,00
643,20	2291,00
649,54	2246,00
655,87	2290,00
662,20	2260,00
668,52	2249,00
674,83	2232,00
681,13	2191,00
687,43	2056,00
693,72	2086,00
700,00	2122,00
706,28	2128,00
712,55	2171,00
718,81	2107,00
725,07	2011,00
731,32	2033,00
737,56	2232,00
743,79	2185,00
750,02	2128,00
756,24	2178,00
762,46	2090,00
768,67	2058,00
774,87	2094,00
781,06	2251,00
787,25	1980,00
793,43	2089,00
799,60	1973,00
805,77	2042,00
811,93	1983,00
818,08	1988,00
824,23	2110,00
830,37	2054,00
836,50	1861,00
842,63	1964,00
848,75	1991,00
854,87	1900,00
860,97	1998,00
867,07	1926,00
873,17	1923,00
879,25	1940,00
885,33	1975,00
891,41	1969,00
897,47	1923,00
903,53	1789,00
909,59	1800,00
915,63	1855,00
921,67	1911,00
927,71	1905,00
933,74	1792,00
939,76	1802,00
945,77	1826,00
951,78	1805,00
957,78	1896,00
963,78	1859,00
969,77	1874,00
975,75	1808,00
981,72	1868,00
987,69	1993,00
993,66	1774,00
999,61	1792,00
1005,56	1741,00
1011,51	1830,00
1017,44	1759,00
1023,37	1817,00
1029,30	1773,00
1035,22	1854,00
1041,13	1765,00
1047,03	1893,00
1052,93	1955,00
1058,83	2194,00
1064,71	2333,00
1070,59	2196,00
1076,47	1903,00
1082,33	1695,00
1088,20	1771,00
1094,05	1731,00
1099,90	1741,00
1105,74	1667,00
1111,58	1764,00
1117,41	1768,00
1123,23	1980,00
1129,05	2361,00
1134,86	2205,00
1140,67	1851,00
1146,47	1821,00
1152,26	1730,00
1158,05	1673,00
1163,83	1702,00
1169,60	1658,00
1175,37	1590,00
1181,13	1553,00
1186,89	1634,00
1192,64	1561,00
1198,38	1607,00
1204,12	1604,00
1209,85	1507,00
1215,58	1421,00
1221,30	1546,00
1227,02	1551,00
1232,72	1705,00
1238,43	1614,00
1244,12	1562,00
1249,81	1610,00
1255,50	1722,00
1261,17	1555,00
1266,85	1670,00
1272,51	1706,00
1278,17	1553,00
1283,83	1779,00
1289,47	2145,00
1295,12	2342,00
1300,75	2271,00
1306,38	2122,00
1312,01	1792,00
1317,63	1645,00
1323,24	1703,00
1328,85	1694,00
1334,45	1730,00
1340,04	1639,00
1345,63	1572,00
1351,22	1593,00
1356,80	1690,00
1362,37	1769,00
1367,93	1784,00
1373,49	1701,00
1379,05	1889,00
1384,60	1729,00
1390,14	1667,00
1395,68	1716,00
1401,21	1732,00
1406,74	1833,00
1412,26	1939,00
1417,77	1955,00
1423,28	2028,00
1428,78	2052,00
1434,28	2289,00
1439,77	2437,00
1445,26	2320,00
1450,74	2298,00
1456,22	2160,00
1461,68	2172,00
1467,15	2125,00
1472,61	1983,00
1478,06	1813,00
1483,51	1731,00
1488,95	1641,00
1494,38	1653,00
1499,81	1559,00
1505,24	1506,00
1510,65	1574,00
1516,07	1417,00
1521,48	1411,00
1526,88	1433,00
1532,27	1388,00
1537,67	1324,00
1543,05	1414,00
1548,43	1447,00
1553,81	1355,00
1559,18	1264,00
1564,54	1402,00
1569,90	1402,00
1575,25	1318,00
1580,60	1384,00
1585,94	1345,00
1591,28	1297,00
1596,61	1330,00
1601,93	1350,00
1607,25	1306,00
1612,57	1289,00
1617,88	1327,00
1623,18	1254,00
1628,48	1302,00
1633,77	1244,00
1639,06	1412,00
1644,34	1219,00
1649,62	1285,00
1654,89	1281,00
1660,16	1248,00
1665,42	1188,00
1670,67	1213,00
1675,92	1194,00
1681,17	1243,00
1686,41	1161,00
1691,64	1248,00
1696,87	1259,00
1702,10	1065,00
1707,32	1208,00
1712,53	1165,00
1717,74	1137,00
1722,94	1318,00
1728,14	1198,00
1733,33	1097,00
1738,52	1082,00
1743,70	1073,00
1748,88	1196,00
1754,05	1060,00
1759,22	1209,00
1764,38	1121,00
1769,53	1024,00
1774,69	993,00
1779,83	1066,00
1784,97	1037,00
1790,11	1099,00
1795,24	1107,00
1800,36	982,00
1805,48	1059,00
1810,60	966,00
1815,71	979,00
1820,82	971,00
1825,92	846,00
1831,01	893,00
1836,10	1084,00
1841,19	910,00
1846,26	863,00
1851,34	838,00
1856,41	1010,00
1861,47	926,00
1866,53	924,00
1871,59	863,00
1876,64	838,00
1881,68	1082,00
1886,72	864,00
1891,76	853,00
1896,79	960,00
1901,81	807,00
1906,83	881,00
1911,85	756,00
1916,86	896,00
1921,86	908,00
1926,86	881,00
1931,86	732,00
1936,85	740,00
1941,83	796,00
1946,81	754,00
1951,79	873,00
1956,76	832,00
1961,72	696,00
1966,68	788,00
1971,64	752,00
1976,59	695,00
1981,54	673,00
1986,48	686,00
1991,42	741,00
1996,35	835,00
2001,27	695,00
2006,20	706,00
2011,11	609,00
2016,03	687,00
2020,93	755,00
2025,84	677,00
2030,73	683,00
2035,63	691,00
2040,52	596,00
2045,40	726,00
2050,28	645,00
2055,15	676,00
2060,02	634,00
2064,89	716,00
2069,75	524,00
2074,60	710,00
2079,46	601,00
2084,30	638,00
2089,14	609,00
2093,98	556,00
2098,81	640,00
2103,64	661,00
2108,46	622,00
2113,28	743,00
2118,09	580,00
2122,90	704,00
2127,70	630,00
2132,50	659,00
2137,30	583,00
2142,09	531,00
2146,87	618,00
2151,66	539,00
2156,43	555,00
2161,20	690,00
2165,97	484,00
2170,73	556,00
2175,49	547,00
2180,24	660,00
2184,99	552,00
2189,74	514,00
2194,48	479,00
2199,21	571,00
2203,94	495,00
2208,67	603,00
2213,39	458,00
2218,11	603,00
2222,82	540,00
2227,53	464,00
2232,23	591,00
2236,93	566,00
2241,63	527,00
2246,32	563,00
2251,00	543,00
2255,68	471,00
2260,36	577,00
2265,03	522,00
2269,70	525,00
2274,36	517,00
2279,02	571,00
2283,68	364,00
2288,33	398,00
2292,97	636,00
2297,61	408,00
2302,25	409,00
2306,88	513,00
2311,51	404,00
2316,14	458,00
2320,75	371,00
2325,37	451,00
2329,98	408,00
2334,59	447,00
2339,19	409,00
2343,79	322,00
2348,38	509,00
2352,97	400,00
2357,55	434,00
2362,13	406,00
2366,71	390,00
2371,28	559,00
2375,85	449,00
2380,41	458,00
2384,97	401,00
2389,52	378,00
2394,07	437,00
2398,62	306,00
2403,16	330,00
2407,70	358,00
2412,23	408,00
2416,76	410,00
2421,29	255,00
2425,81	315,00
2430,32	469,00
2434,84	355,00
2439,34	416,00
2443,85	401,00
2448,35	455,00
2452,84	491,00
2457,33	401,00
2461,82	397,00
2466,30	341,00
2470,78	272,00
2475,25	324,00
2479,72	277,00
2484,19	369,00
2488,65	290,00
2493,11	459,00
2497,56	303,00
2502,01	340,00
2506,46	352,00
2510,90	235,00
2515,34	211,00
2519,77	353,00
2524,20	302,00
2528,62	355,00
2533,04	295,00
2537,46	331,00
2541,87	320,00
2546,28	360,00
2550,68	327,00
2555,08	302,00
2559,48	387,00
2563,87	352,00
2568,26	386,00
2572,64	250,00
2577,02	354,00
2581,40	368,00
2585,77	281,00
2590,14	350,00
2594,50	277,00
2598,86	293,00
2603,22	183,00
2607,57	293,00
2611,92	240,00
2616,26	296,00
2620,60	257,00
2624,94	371,00
2629,27	273,00
2633,60	268,00
2637,92	290,00
2642,24	301,00
2646,56	263,00
2650,87	227,00
2655,18	334,00
2659,48	225,00
2663,78	349,00
2668,08	221,00
2672,37	328,00
2676,66	309,00
2680,95	369,00
2685,23	307,00
2689,50	307,00
2693,78	297,00
2698,05	301,00
2702,31	307,00
2706,57	334,00
2710,83	229,00
2715,08	453,00
2719,33	302,00
2723,58	413,00
2727,82	371,00
2732,06	445,00
2736,29	375,00
2740,53	361,00
2744,75	329,00
2748,97	355,00
2753,19	315,00
2757,41	497,00
2761,62	342,00
2765,83	424,00
2770,03	277,00
2774,23	261,00
2778,43	324,00
2782,62	285,00
2786,81	306,00
2791,00	274,00
2795,18	426,00
2799,35	294,00
2803,53	448,00
2807,70	386,00
2811,86	383,00
2816,03	426,00
2820,19	422,00
2824,34	469,00
2828,49	509,00
2832,64	504,00
2836,78	768,00
2840,92	889,00
2845,06	1155,00
2849,19	1343,00
2853,32	1331,00
2857,45	1277,00
2861,57	1154,00
2865,69	1084,00
2869,80	1121,00
2873,91	1136,00
2878,02	1228,00
2882,12	1499,00
2886,22	1412,00
2890,32	1322,00
2894,41	1207,00
2898,50	968,00
2902,58	1000,00
2906,67	959,00
2910,74	949,00
2914,82	779,00
2918,89	809,00
2922,96	773,00
2927,02	742,00
2931,08	676,00
2935,13	504,00
2939,19	625,00
2943,24	555,00
2947,28	588,00
2951,32	331,00
2955,36	335,00
2959,40	221,00
2963,43	421,00
2967,46	183,00
2971,48	267,00
2975,50	304,00
2979,52	279,00
2983,53	250,00
2987,54	252,00
2991,55	207,00
2995,55	185,00
2999,55	181,00
3003,54	229,00
3007,54	166,00
3011,53	141,00
3015,51	119,00
3019,49	304,00
3023,47	154,00
3027,45	108,00
3031,42	177,00
3035,39	178,00
3039,35	71,00
3043,31	66,00
3047,27	137,00
3051,22	115,00
3055,17	63,00
3059,12	149,00
3063,06	149,00
3067,00	222,00
3070,94	187,00
3074,87	200,00
3078,80	44,00
3082,73	139,00
3086,65	232,00
3090,57	85,00
3094,49	149,00
3098,40	145,00
3102,31	125,00
3106,22	69,00
3110,12	160,00
3114,02	44,00
3117,92	106,00
3121,81	132,00
3125,70	108,00
3129,58	90,00
3133,47	80,00
3137,34	1,00
3141,22	108,00
3145,09	217,00
3148,96	100,00
3152,83	213,00
3156,69	137,00
3160,55	119,00
3164,40	68,00
3168,26	152,00
3172,10	116,00
3175,95	49,00
3179,79	89,00
3183,63	76,00
3187,47	92,00
3191,30	-68,00
3195,13	41,00
3198,95	109,00
3202,78	101,00
3206,60	18,00
3210,41	59,00
3214,23	122,00
3218,03	116,00
3221,84	115,00
3225,64	123,00
3229,44	70,00
3233,24	42,00
3237,03	30,00
3240,82	79,00
3244,61	100,00
3248,39	144,00
3252,17	152,00
3255,95	41,00
3259,72	38,00
3263,49	99,00
3267,26	142,00
3271,03	175,00
3274,79	17,00
3278,54	145,00
3282,30	47,00
3286,05	71,00
3289,80	44,00
3293,54	96,00
3297,29	73,00
3301,02	134,00
3304,76	95,00
3308,49	34,00
3312,22	172,00
3315,95	66,00
3319,67	147,00
3323,39	140,00
3327,10	29,00
3330,82	76,00
3334,53	41,00
3338,24	148,00
3341,94	9,00
3345,64	123,00
3349,34	82,00
3353,03	78,00
3356,72	15,00
3360,41	51,00
3364,10	11,00
3367,78	157,00
3371,46	91,00
3375,13	-9,00
3378,81	153,00
3382,48	88,00
3386,14	6,00
3389,81	57,00
3393,47	96,00
3397,12	6,00
3400,78	10,00
3404,43	128,00
3408,08	29,00
3411,72	56,00
3415,36	100,00
3419,00	110,00
3422,64	124,00
3426,27	156,00
3429,90	144,00
3433,53	40,00
3437,15	-131,00
3440,77	58,00
3444,39	82,00
3448,00	88,00
3451,62	-38,00
3455,22	134,00
3458,83	43,00
3462,43	13,00
3466,03	9,00
3469,63	14,00
3473,22	48,00
3476,81	-9,00
3480,40	-61,00
3483,99	37,00
3487,57	93,00
3491,15	133,00
3494,72	98,00
3498,29	2,00
3501,86	56,00
3505,43	28,00
3508,99	4,00
3512,56	-45,00
3516,11	144,00
3519,67	-22,00
3523,22	-7,00
3526,77	64,00
3530,32	51,00
3533,86	32,00
3537,40	-22,00
3540,94	20,00
3544,47	17,00
3548,00	-89,00
3551,53	-29,00
3555,06	39,00
3558,58	74,00
3562,10	59,00
3565,62	78,00
3569,13	-128,00
3572,64	15,00
3576,15	100,00
3579,66	31,00
3583,16	99,00
3586,66	11,00
3590,16	51,00
3593,65	20,00
3597,14	14,00
3600,63	6,00
3604,11	49,00
3607,60	81,00
3611,08	-76,00
3614,55	81,00
3618,03	-42,00
3621,50	-40,00
3624,97	32,00
3628,43	32,00
3631,90	32,00
3635,36	42,00
3638,81	20,00
3642,27	29,00
3645,72	64,00
3649,17	23,00
3652,61	19,00
3656,06	-71,00
3659,50	-98,00
3662,93	-67,00
3666,37	70,00
3669,80	27,00
3673,23	34,00
3676,65	62,00
3680,08	-20,00
3683,50	90,00
3686,92	33,00
3690,33	-32,00
3693,74	4,00
3697,15	-102,00
3700,56	42,00
3703,96	94,00
3707,36	-67,00
3710,76	34,00
3714,16	70,00
3717,55	15,00
3720,94	-42,00
3724,33	-28,00
3727,71	-50,00
3731,10	-101,00
3734,48	81,00
3737,85	20,00
3741,23	-21,00
3744,60	23,00
3747,97	-10,00
3751,33	26,00
3754,69	17,00
3758,05	19,00
3761,41	38,00
3764,77	47,00
3768,12	13,00
3771,47	75,00
3774,82	41,00
3778,16	2,00
3781,50	2,00
3784,84	6,00
3788,18	-2,00
>>>>>End Processed Spectral Data<<<<<
