SpectraSuite Data File
++++++++++++++++++++++++++++++++++++
Date: Wed Feb 11 16:58:44 ICT 2026
User: Administrator
Dark Spectrum Present: Yes
Reference Spectrum Present: No
Number of Sampled Component Spectra: 1
Spectrometers: MAYP113682
Integration Time (usec): 3000000 (MAYP113682)
Spectra Averaged: 1 (MAYP113682)
Boxcar Smoothing: 0 (MAYP113682)
Correct for Electrical Dark: No (MAYP113682)
Strobe/Lamp Enabled: No (MAYP113682)
Correct for Detector Non-linearity: No (MAYP113682)
Correct for Stray Light: No (MAYP113682)
Number of Pixels in Processed Spectrum: 2068
>>>>>Begin Processed Spectral Data<<<<<
-37534,58	3,00
-37414,56	4,00
-37295,11	-1,00
-37176,24	0,00
-37057,95	68,00
-36940,22	-24,00
-36823,05	-17,00
-36706,45	6,00
-36590,40	88,00
-36474,90	63,00
-36359,95	-107,00
-36245,55	10,00
-36131,68	-10,00
-36018,35	62,00
-35905,55	128,00
-35793,29	113,00
-35681,54	7,00
-35570,32	57,00
-35459,62	159,00
-35349,43	45,00
-35239,75	8,00
-35130,58	88,00
-35021,91	-91,00
-34913,74	-49,00
-34806,07	-37,00
-34698,89	51,00
-34592,20	64,00
-34486,00	-35,00
-34380,28	91,00
-34275,04	-34,00
-34170,27	-10,00
-34065,98	-49,00
-33962,16	32,00
-33858,81	51,00
-33755,92	-30,00
-33653,49	-55,00
-33551,52	-47,00
-33450,01	-99,00
-33348,94	-20,00
-33248,33	-20,00
-33148,16	112,00
-33048,43	-10,00
-32949,14	-64,00
-32850,29	75,00
-32751,87	-33,00
-32653,89	31,00
-32556,33	-150,00
-32459,20	122,00
-32362,49	84,00
-32266,19	34,00
-32170,32	-27,00
-32074,86	13,00
-31979,82	-6,00
-31885,18	121,00
-31790,95	16,00
-31697,12	53,00
-31603,69	-52,00
-31510,67	-56,00
-31418,04	84,00
-31325,80	17,00
-31233,95	108,00
-31142,49	17,00
-31051,42	-15,00
-30960,73	31,00
-30870,43	-1,00
-30780,50	3,00
-30690,95	113,00
-30601,77	94,00
-30512,97	-47,00
-30424,53	39,00
-30336,46	80,00
-30248,76	74,00
-30161,42	14,00
-30074,44	47,00
-29987,81	-26,00
-29901,55	21,00
-29815,63	-58,00
-29730,07	16,00
-29644,86	-25,00
-29560,00	-103,00
-29475,48	-25,00
-29391,30	-93,00
-29307,47	10,00
-29223,97	12,00
-29140,81	-73,00
-29057,99	23,00
-28975,50	67,00
-28893,34	-9,00
-28811,51	-25,00
-28730,00	48,00
-28648,82	126,00
-28567,97	9,00
-28487,43	-42,00
-28407,21	-87,00
-28327,32	-13,00
-28247,73	-61,00
-28168,46	31,00
-28089,50	2,00
-28010,85	-16,00
-27932,51	33,00
-27854,48	-27,00
-27776,75	32,00
-27699,32	-3,00
-27622,19	51,00
-27545,37	-12,00
-27468,84	37,00
-27392,60	45,00
-27316,66	-63,00
-27241,01	-42,00
-27165,66	13,00
-27090,59	-62,00
-27015,81	9,00
-26941,31	18,00
-26867,10	7,00
-26793,17	-14,00
-26719,52	62,00
-26646,15	-25,00
-26573,06	-46,00
-26500,24	-32,00
-26427,70	-9,00
-26355,43	-28,00
-26283,43	12,00
-26211,71	-37,00
-26140,25	74,00
-26069,06	-24,00
-25998,13	30,00
-25927,46	-67,00
-25857,06	-104,00
-25786,92	15,00
-25717,04	45,00
-25647,42	-29,00
-25578,05	5,00
-25508,94	-33,00
-25440,09	-35,00
-25371,48	-30,00
-25303,13	89,00
-25235,02	40,00
-25167,17	106,00
-25099,56	-12,00
-25032,19	-16,00
-24965,07	-53,00
-24898,20	32,00
-24831,56	102,00
-24765,17	15,00
-24699,01	59,00
-24633,10	-44,00
-24567,41	-25,00
-24501,97	-56,00
-24436,75	-12,00
-24371,77	7,00
-24307,03	-21,00
-24242,51	5,00
-24178,22	-154,00
-24114,16	7,00
-24050,32	105,00
-23986,71	8,00
-23923,32	49,00
-23860,16	26,00
-23797,22	-78,00
-23734,50	-4,00
-23672,00	73,00
-23609,71	-14,00
-23547,65	-30,00
-23485,80	97,00
-23424,16	-45,00
-23362,74	27,00
-23301,53	-90,00
-23240,54	-98,00
-23179,75	95,00
-23119,17	92,00
-23058,80	-35,00
-22998,64	24,00
-22938,68	59,00
-22878,93	-17,00
-22819,39	-43,00
-22760,04	-10,00
-22700,90	-16,00
-22641,96	29,00
-22583,22	45,00
-22524,68	-3,00
-22466,33	-38,00
-22408,19	-12,00
-22350,23	-23,00
-22292,48	106,00
-22234,92	16,00
-22177,55	-108,00
-22120,37	85,00
-22063,38	77,00
-22006,58	-11,00
-21949,98	13,00
-21893,56	39,00
-21837,33	29,00
-21781,28	18,00
-21725,42	4,00
-21669,74	43,00
-21614,25	-30,00
-21558,94	-27,00
-21503,81	111,00
-21448,86	-77,00
-21394,10	161,00
-21339,51	123,00
-21285,10	-64,00
-21230,86	-25,00
-21176,81	59,00
-21122,93	-43,00
-21069,22	-34,00
-21015,69	45,00
-20962,33	-13,00
-20909,14	14,00
-20856,13	108,00
-20803,28	97,00
-20750,61	48,00
-20698,10	-31,00
-20645,76	22,00
-20593,59	84,00
-20541,59	-42,00
-20489,75	68,00
-20438,07	-19,00
-20386,56	132,00
-20335,22	76,00
-20284,03	-61,00
-20233,01	93,00
-20182,15	-37,00
-20131,45	52,00
-20080,91	-34,00
-20030,52	19,00
-19980,30	-2,00
-19930,23	58,00
-19880,32	103,00
-19830,56	86,00
-19780,96	-23,00
-19731,52	30,00
-19682,23	126,00
-19633,09	-146,00
-19584,10	-39,00
-19535,26	49,00
-19486,58	73,00
-19438,04	135,00
-19389,66	-18,00
-19341,42	58,00
-19293,33	-63,00
-19245,39	68,00
-19197,60	-14,00
-19149,95	-87,00
-19102,45	64,00
-19055,09	19,00
-19007,87	62,00
-18960,80	1,00
-18913,87	88,00
-18867,09	-27,00
-18820,44	-10,00
-18773,94	28,00
-18727,57	-17,00
-18681,35	92,00
-18635,26	70,00
-18589,31	20,00
-18543,50	4,00
-18497,83	-33,00
-18452,29	-64,00
-18406,89	-99,00
-18361,63	8,00
-18316,50	-47,00
-18271,50	-21,00
-18226,63	-104,00
-18181,90	-15,00
-18137,30	67,00
-18092,84	20,00
-18048,50	62,00
-18004,29	10,00
-17960,22	-16,00
-17916,27	-38,00
-17872,45	74,00
-17828,76	22,00
-17785,20	57,00
-17741,77	74,00
-17698,46	79,00
-17655,28	-19,00
-17612,22	-37,00
-17569,29	-56,00
-17526,48	0,00
-17483,79	72,00
-17441,23	-65,00
-17398,79	-15,00
-17356,48	11,00
-17314,28	99,00
-17272,21	135,00
-17230,26	-54,00
-17188,42	16,00
-17146,71	46,00
-17105,12	-6,00
-17063,64	-4,00
-17022,28	-59,00
-16981,04	92,00
-16939,92	-35,00
-16898,91	24,00
-16858,02	-13,00
-16817,25	-34,00
-16776,59	39,00
-16736,04	-81,00
-16695,61	-100,00
-16655,29	-61,00
-16615,09	-93,00
-16574,99	83,00
-16535,01	15,00
-16495,15	-35,00
-16455,39	20,00
-16415,74	-55,00
-16376,21	-39,00
-16336,78	-10,00
-16297,46	29,00
-16258,26	60,00
-16219,16	69,00
-16180,17	118,00
-16141,28	10,00
-16102,51	-15,00
-16063,84	8,00
-16025,27	41,00
-15986,82	25,00
-15948,46	70,00
-15910,22	-38,00
-15872,07	80,00
-15834,04	-44,00
-15796,10	20,00
-15758,27	15,00
-15720,54	36,00
-15682,91	18,00
-15645,39	3,00
-15607,97	5,00
-15570,64	-81,00
-15533,42	37,00
-15496,30	45,00
-15459,28	44,00
-15422,36	-52,00
-15385,54	8,00
-15348,82	93,00
-15312,19	-63,00
-15275,66	27,00
-15239,23	23,00
-15202,90	7,00
-15166,67	-10,00
-15130,53	-45,00
-15094,48	76,00
-15058,54	43,00
-15022,68	65,00
-14986,93	106,00
-14951,26	14,00
-14915,69	-62,00
-14880,22	108,00
-14844,84	-1,00
-14809,55	9,00
-14774,35	-36,00
-14739,25	109,00
-14704,24	-32,00
-14669,32	7,00
-14634,49	19,00
-14599,75	34,00
-14565,10	-78,00
-14530,55	-39,00
-14496,08	7,00
-14461,70	-18,00
-14427,41	-1,00
-14393,21	-163,00
-14359,10	-66,00
-14325,07	-40,00
-14291,14	-25,00
-14257,29	97,00
-14223,52	27,00
-14189,85	-69,00
-14156,26	75,00
-14122,76	26,00
-14089,34	30,00
-14056,01	-211,00
-14022,76	-21,00
-13989,60	-21,00
-13956,52	10,00
-13923,53	-33,00
-13890,62	26,00
-13857,79	-140,00
-13825,05	-71,00
-13792,39	3,00
-13759,81	60,00
-13727,31	-22,00
-13694,90	-13,00
-13662,57	-2,00
-13630,31	-19,00
-13598,14	84,00
-13566,05	-6,00
-13534,05	123,00
-13502,12	43,00
-13470,27	90,00
-13438,50	-25,00
-13406,80	118,00
-13375,19	-69,00
-13343,66	-15,00
-13312,20	17,00
-13280,83	20,00
-13249,53	37,00
-13218,30	-68,00
-13187,16	13,00
-13156,09	57,00
-13125,10	20,00
-13094,18	-42,00
-13063,34	109,00
-13032,58	-12,00
-13001,89	-54,00
-12971,28	60,00
-12940,74	19,00
-12910,27	51,00
-12879,88	27,00
-12849,57	10,00
-12819,33	-3,00
-12789,16	11,00
-12759,06	-48,00
-12729,04	36,00
-12699,09	51,00
-12669,21	24,00
-12639,41	-111,00
-12609,68	28,00
-12580,02	47,00
-12550,43	-59,00
-12520,91	-3,00
-12491,46	11,00
-12462,08	-26,00
-12432,77	35,00
-12403,54	75,00
-12374,37	57,00
-12345,27	-17,00
-12316,24	26,00
-12287,29	5,00
-12258,40	88,00
-12229,57	44,00
-12200,82	54,00
-12172,14	22,00
-12143,52	88,00
-12114,97	40,00
-12086,49	121,00
-12058,07	-2,00
-12029,73	49,00
-12001,44	80,00
-11973,23	32,00
-11945,08	-2,00
-11917,00	0,00
-11888,98	-54,00
-11861,03	-26,00
-11833,15	64,00
-11805,32	26,00
-11777,57	45,00
-11749,88	93,00
-11722,25	-62,00
-11694,69	24,00
-11667,19	-116,00
-11639,75	69,00
-11612,38	54,00
-11585,07	-35,00
-11557,83	74,00
-11530,65	-74,00
-11503,53	-6,00
-11476,47	62,00
-11449,48	-14,00
-11422,54	58,00
-11395,67	52,00
-11368,86	82,00
-11342,11	-10,00
-11315,43	30,00
-11288,80	-36,00
-11262,23	39,00
-11235,73	-50,00
-11209,28	-47,00
-11182,90	65,00
-11156,57	84,00
-11130,31	-10,00
-11104,10	-18,00
-11077,96	75,00
-11051,87	-72,00
-11025,84	78,00
-10999,87	43,00
-10973,96	-20,00
-10948,11	-20,00
-10922,31	26,00
-10896,58	56,00
-10870,90	-92,00
-10845,28	101,00
-10819,71	37,00
-10794,20	-12,00
-10768,75	115,00
-10743,36	-21,00
-10718,02	36,00
-10692,74	49,00
-10667,52	9,00
-10642,35	28,00
-10617,24	-21,00
-10592,18	28,00
-10567,18	-27,00
-10542,23	-10,00
-10517,34	-89,00
-10492,51	138,00
-10467,72	89,00
-10443,00	-10,00
-10418,32	194,00
-10393,70	33,00
-10369,14	68,00
-10344,63	39,00
-10320,17	141,00
-10295,77	128,00
-10271,42	0,00
-10247,12	192,00
-10222,88	107,00
-10198,68	137,00
-10174,54	162,00
-10150,46	128,00
-10126,42	147,00
-10102,44	90,00
-10078,51	203,00
-10054,63	112,00
-10030,80	183,00
-10007,03	189,00
-9983,30	174,00
-9959,63	341,00
-9936,01	273,00
-9912,44	213,00
-9888,92	255,00
-9865,44	189,00
-9842,02	341,00
-9818,65	388,00
-9795,33	424,00
-9772,06	322,00
-9748,84	378,00
-9725,67	439,00
-9702,55	492,00
-9679,47	582,00
-9656,45	657,00
-9633,47	532,00
-9610,55	699,00
-9587,67	782,00
-9564,84	713,00
-9542,06	907,00
-9519,32	918,00
-9496,64	1006,00
-9474,00	1130,00
-9451,41	1096,00
-9428,87	1083,00
-9406,37	1101,00
-9383,92	1064,00
-9361,52	1204,00
-9339,17	1148,00
-9316,86	1364,00
-9294,60	1598,00
-9272,38	1735,00
-9250,21	2012,00
-9228,09	2065,00
-9206,01	2081,00
-9183,98	1826,00
-9162,00	1668,00
-9140,06	1588,00
-9118,16	1519,00
-9096,31	1766,00
-9074,51	1877,00
-9052,75	1791,00
-9031,04	1797,00
-9009,37	1540,00
-8987,74	1348,00
-8966,16	1216,00
-8944,63	1179,00
-8923,14	1110,00
-8901,69	1193,00
-8880,29	1248,00
-8858,93	1402,00
-8837,61	1502,00
-8816,34	1583,00
-8795,11	1605,00
-8773,92	1403,00
-8752,78	1306,00
-8731,68	1291,00
-8710,62	1297,00
-8689,61	1384,00
-8668,63	1446,00
-8647,70	1542,00
-8626,82	1511,00
-8605,97	1464,00
-8585,17	1338,00
-8564,41	1201,00
-8543,69	1076,00
-8523,01	1167,00
-8502,37	1019,00
-8481,78	1212,00
-8461,23	1427,00
-8440,71	1355,00
-8420,24	1550,00
-8399,81	1519,00
-8379,42	1550,00
-8359,08	1444,00
-8338,77	1289,00
-8318,50	1221,00
-8298,27	1164,00
-8278,09	1151,00
-8257,94	1244,00
-8237,83	1452,00
-8217,76	1374,00
-8197,74	1421,00
-8177,75	1352,00
-8157,80	1355,00
-8137,89	1156,00
-8118,02	1132,00
-8098,19	1184,00
-8078,40	1224,00
-8058,65	1235,00
-8038,93	1214,00
-8019,26	1155,00
-7999,62	1243,00
-7980,02	1137,00
-7960,46	897,00
-7940,94	913,00
-7921,46	770,00
-7902,01	1013,00
-7882,60	773,00
-7863,23	905,00
-7843,90	867,00
-7824,61	996,00
-7805,35	1116,00
-7786,13	1012,00
-7766,95	1023,00
-7747,80	1006,00
-7728,69	831,00
-7709,62	962,00
-7690,59	973,00
-7671,59	1090,00
-7652,63	1236,00
-7633,70	1208,00
-7614,81	1051,00
-7595,96	981,00
-7577,15	862,00
-7558,37	844,00
-7539,62	891,00
-7520,91	881,00
-7502,24	1066,00
-7483,60	1067,00
-7465,00	898,00
-7446,44	842,00
-7427,91	823,00
-7409,41	567,00
-7390,95	631,00
-7372,53	597,00
-7354,14	560,00
-7335,78	506,00
-7317,46	601,00
-7299,18	719,00
-7280,92	853,00
-7262,71	933,00
-7244,52	892,00
-7226,38	945,00
-7208,26	948,00
-7190,18	800,00
-7172,14	832,00
-7154,12	702,00
-7136,15	850,00
-7118,20	964,00
-7100,29	957,00
-7082,41	952,00
-7064,57	925,00
-7046,76	770,00
-7028,98	665,00
-7011,24	618,00
-6993,53	564,00
-6975,85	546,00
-6958,20	351,00
-6940,59	384,00
-6923,01	480,00
-6905,46	542,00
-6887,94	588,00
-6870,46	3302,00
-6853,01	913,00
-6835,59	866,00
-6818,21	673,00
-6800,85	562,00
-6783,53	491,00
-6766,24	393,00
-6748,98	309,00
-6731,76	308,00
-6714,56	312,00
-6697,40	255,00
-6680,26	296,00
-6663,16	488,00
-6646,09	600,00
-6629,05	589,00
-6612,05	679,00
-6595,07	646,00
-6578,13	647,00
-6561,21	381,00
-6544,33	377,00
-6527,47	261,00
-6510,65	319,00
-6493,86	237,00
-6477,10	238,00
-6460,36	252,00
-6443,66	174,00
-6426,99	185,00
-6410,35	254,00
-6393,74	228,00
-6377,16	377,00
-6360,61	374,00
-6344,09	509,00
-6327,59	389,00
-6311,13	426,00
-6294,70	462,00
-6278,29	374,00
-6261,92	617,00
-6245,58	559,00
-6229,26	620,00
-6212,97	431,00
-6196,72	526,00
-6180,49	267,00
-6164,29	130,00
-6148,12	216,00
-6131,98	111,00
-6115,86	213,00
-6099,78	54,00
-6083,72	52,00
-6067,69	119,00
-6051,69	99,00
-6035,72	30,00
-6019,78	278,00
-6003,87	244,00
-5987,98	270,00
-5972,12	402,00
-5956,29	347,00
-5940,49	426,00
-5924,71	233,00
-5908,96	103,00
-5893,24	151,00
-5877,55	213,00
-5861,89	52,00
-5846,25	155,00
-5830,64	166,00
-5815,05	170,00
-5799,50	247,00
-5783,97	147,00
-5768,47	237,00
-5752,99	339,00
-5737,55	348,00
-5722,12	448,00
-5706,73	429,00
-5691,36	352,00
-5676,02	173,00
-5660,71	131,00
-5645,42	149,00
-5630,16	163,00
-5614,92	197,00
-5599,71	287,00
-5584,53	193,00
-5569,37	290,00
-5554,24	1054,00
-5539,14	290,00
-5524,06	243,00
-5509,01	260,00
-5493,98	308,00
-5478,98	288,00
-5464,00	225,00
-5449,05	348,00
-5434,13	89,00
-5419,23	143,00
-5404,36	91,00
-5389,51	203,00
-5374,69	347,00
-5359,89	450,00
-5345,12	534,00
-5330,37	374,00
-5315,65	377,00
-5300,95	261,00
-5286,28	261,00
-5271,63	198,00
-5257,01	164,00
-5242,41	181,00
-5227,84	95,00
-5213,29	241,00
-5198,76	133,00
-5184,26	26,00
-5169,79	82,00
-5155,33	149,00
-5140,91	214,00
-5126,51	365,00
-5112,13	327,00
-5097,77	130,00
-5083,44	69,00
-5069,13	90,00
-5054,85	129,00
-5040,59	191,00
-5026,36	263,00
-5012,15	290,00
-4997,96	290,00
-4983,80	237,00
-4969,66	208,00
-4955,54	122,00
-4941,44	137,00
-4927,37	261,00
-4913,33	477,00
-4899,30	476,00
-4885,30	524,00
-4871,33	243,00
-4857,37	144,00
-4843,44	104,00
-4829,53	131,00
-4815,65	301,00
-4801,79	197,00
-4787,95	163,00
-4774,13	132,00
-4760,34	201,00
-4746,56	-70,00
-4732,82	91,00
-4719,09	105,00
-4705,38	253,00
-4691,70	348,00
-4678,04	428,00
-4664,41	282,00
-4650,79	195,00
-4637,20	65,00
-4623,63	107,00
-4610,08	199,00
-4596,56	198,00
-4583,05	275,00
-4569,57	198,00
-4556,11	18,00
-4542,67	17,00
-4529,25	115,00
-4515,86	229,00
-4502,49	200,00
-4489,13	326,00
-4475,80	276,00
-4462,49	97,00
-4449,21	261,00
-4435,94	113,00
-4422,70	249,00
-4409,47	305,00
-4396,27	208,00
-4383,09	67,00
-4369,93	61,00
-4356,79	109,00
-4343,67	55,00
-4330,58	63,00
-4317,50	144,00
-4304,45	157,00
-4291,41	171,00
-4278,40	62,00
-4265,41	23,00
-4252,44	178,00
-4239,49	184,00
-4226,55	245,00
-4213,65	282,00
-4200,76	11,00
-4187,89	20,00
-4175,04	160,00
-4162,21	89,00
-4149,40	76,00
-4136,61	32,00
-4123,85	22,00
-4111,10	78,00
-4098,37	65,00
-4085,66	85,00
-4072,98	43,00
-4060,31	86,00
-4047,66	-130,00
-4035,04	0,00
-4022,43	83,00
-4009,84	-15,00
-3997,27	-35,00
-3984,72	-39,00
-3972,19	23,00
-3959,69	-27,00
-3947,20	-2,00
-3934,73	69,00
-3922,27	24,00
-3909,84	-75,00
-3897,43	86,00
-3885,04	82,00
-3872,67	-131,00
-3860,31	97,00
-3847,98	-7,00
-3835,66	71,00
-3823,36	1,00
-3811,09	20,00
-3798,83	61,00
-3786,59	-43,00
-3774,37	-54,00
-3762,17	91,00
-3749,98	-5,00
-3737,82	32,00
-3725,67	16,00
-3713,55	-9,00
-3701,44	82,00
-3689,35	-11,00
-3677,28	128,00
-3665,22	75,00
-3653,19	-81,00
-3641,17	2,00
-3629,18	-68,00
-3617,20	-23,00
-3605,24	102,00
-3593,30	-48,00
-3581,37	-15,00
-3569,47	-51,00
-3557,58	11,00
-3545,71	-45,00
-3533,86	80,00
-3522,02	38,00
-3510,21	-28,00
-3498,41	24,00
-3486,63	-115,00
-3474,87	-55,00
-3463,12	80,00
-3451,40	-55,00
-3439,69	-24,00
-3428,00	-99,00
-3416,33	31,00
-3404,67	-48,00
-3393,03	-13,00
-3381,41	0,00
-3369,81	-20,00
-3358,22	-54,00
-3346,66	38,00
-3335,10	8,00
-3323,57	51,00
-3312,06	155,00
-3300,56	-7,00
-3289,08	-8,00
-3277,61	-60,00
-3266,16	-71,00
-3254,73	26,00
-3243,32	53,00
-3231,92	-72,00
-3220,55	100,00
-3209,18	69,00
-3197,84	-4,00
-3186,51	-51,00
-3175,20	-54,00
-3163,90	1,00
-3152,63	-92,00
-3141,36	-6,00
-3130,12	14,00
-3118,89	79,00
-3107,68	-8,00
-3096,49	-19,00
-3085,31	-22,00
-3074,15	-92,00
-3063,00	76,00
-3051,87	107,00
-3040,76	73,00
-3029,67	56,00
-3018,59	2,00
-3007,52	28,00
-2996,48	-7,00
-2985,44	-22,00
-2974,43	26,00
-2963,43	6,00
-2952,45	26,00
-2941,48	38,00
-2930,53	108,00
-2919,60	169,00
-2908,68	-87,00
-2897,78	-28,00
-2886,89	-101,00
-2876,02	-8,00
-2865,17	-58,00
-2854,33	34,00
-2843,50	-63,00
-2832,70	107,00
-2821,90	42,00
-2811,13	17,00
-2800,37	61,00
-2789,62	78,00
-2778,89	32,00
-2768,18	74,00
-2757,48	36,00
-2746,80	63,00
-2736,13	-21,00
-2725,48	52,00
-2714,84	-106,00
-2704,22	-10,00
-2693,61	42,00
-2683,02	-42,00
-2672,45	77,00
-2661,89	-72,00
-2651,34	38,00
-2640,81	-14,00
-2630,30	-4,00
-2619,80	-3,00
-2609,31	-35,00
-2598,84	-7,00
-2588,39	31,00
-2577,95	16,00
-2567,52	-58,00
-2557,11	23,00
-2546,71	-38,00
-2536,33	44,00
-2525,97	-27,00
-2515,62	3,00
-2505,28	50,00
-2494,96	-81,00
-2484,65	-39,00
-2474,36	1,00
-2464,08	-47,00
-2453,82	106,00
-2443,57	-59,00
-2433,33	29,00
-2423,11	5,00
-2412,91	43,00
-2402,72	-58,00
-2392,54	-86,00
-2382,38	90,00
-2372,23	63,00
-2362,09	3952,00
-2351,97	-29,00
-2341,87	72,00
-2331,78	16,00
-2321,70	138,00
-2311,64	35,00
-2301,59	82,00
-2291,55	-47,00
-2281,53	-8,00
-2271,53	-52,00
-2261,53	9,00
-2251,55	97,00
-2241,59	-7,00
-2231,64	51,00
-2221,70	13,00
-2211,78	-108,00
-2201,87	18,00
-2191,97	-7,00
-2182,09	-18,00
-2172,22	-19,00
-2162,37	-39,00
-2152,53	-33,00
-2142,70	-71,00
-2132,89	-51,00
-2123,09	-43,00
-2113,30	69,00
-2103,53	44,00
-2093,77	-82,00
-2084,02	-36,00
-2074,29	-52,00
-2064,57	-50,00
-2054,86	0,00
-2045,17	-3,00
-2035,49	-50,00
-2025,82	-20,00
-2016,17	127,00
-2006,53	27,00
-1996,91	-56,00
-1987,29	-87,00
-1977,69	52,00
-1968,11	54,00
-1958,53	-22,00
-1948,97	58,00
-1939,42	-27,00
-1929,89	-60,00
-1920,37	40,00
-1910,86	-16,00
-1901,36	-69,00
-1891,88	-74,00
-1882,41	-17,00
-1872,95	2,00
-1863,51	129,00
-1854,08	-34,00
-1844,66	50,00
-1835,26	26,00
-1825,86	-9,00
-1816,48	42,00
-1807,11	3,00
-1797,76	-33,00
-1788,42	56,00
-1779,09	86,00
-1769,77	142,00
-1760,47	46,00
-1751,17	62,00
-1741,89	7,00
-1732,63	77,00
-1723,37	117,00
-1714,13	-27,00
-1704,90	66,00
-1695,68	66,00
-1686,48	-68,00
-1677,29	50,00
-1668,11	-11,00
-1658,94	108,00
-1649,78	-15,00
-1640,64	20,00
-1631,51	20,00
-1622,39	-45,00
-1613,28	25,00
-1604,19	30,00
-1595,10	63,00
-1586,03	-31,00
-1576,97	80,00
-1567,93	60,00
-1558,89	-15,00
-1549,87	11,00
-1540,86	-43,00
-1531,86	30,00
-1522,87	-32,00
-1513,90	-56,00
-1504,93	-34,00
-1495,98	85,00
-1487,04	19,00
-1478,12	153,00
-1469,20	-23,00
-1460,30	59,00
-1451,40	29,00
-1442,52	-7,00
-1433,65	-65,00
-1424,80	103,00
-1415,95	9,00
-1407,12	109,00
-1398,30	-6,00
-1389,48	-107,00
-1380,69	-111,00
-1371,90	-22,00
-1363,12	-74,00
-1354,36	6,00
-1345,60	-63,00
-1336,86	61,00
-1328,13	24,00
-1319,41	-1,00
-1310,70	-6,00
-1302,01	-39,00
-1293,32	-82,00
-1284,65	-24,00
-1275,99	20,00
-1267,33	54,00
-1258,69	2,00
-1250,06	63,00
-1241,45	47,00
-1232,84	57,00
-1224,25	-46,00
-1215,66	11,00
-1207,09	0,00
-1198,53	118,00
-1189,97	-72,00
-1181,43	80,00
-1172,91	11,00
-1164,39	10,00
-1155,88	8,00
-1147,38	-9,00
-1138,90	80,00
-1130,43	-49,00
-1121,96	48,00
-1113,51	-42,00
-1105,07	-25,00
-1096,64	46,00
-1088,22	75,00
-1079,81	-3,00
-1071,41	-21,00
-1063,02	58,00
-1054,65	-16,00
-1046,28	53,00
-1037,92	-9,00
-1029,58	-100,00
-1021,24	-22,00
-1012,92	17,00
-1004,61	58,00
-996,30	220,00
-988,01	82,00
-979,73	7,00
-971,46	78,00
-963,20	-72,00
-954,95	21,00
-946,71	72,00
-938,48	-60,00
-930,26	23,00
-922,06	59,00
-913,86	27,00
-905,67	46,00
-897,49	2,00
-889,33	-48,00
-881,17	2,00
-873,02	-5,00
-864,89	-69,00
-856,76	48,00
-848,65	83,00
-840,54	53,00
-832,45	78,00
-824,36	6,00
-816,29	78,00
-808,22	-34,00
-800,17	122,00
-792,12	94,00
-784,09	33,00
-776,06	-5,00
-768,05	46,00
-760,04	79,00
-752,05	-36,00
-744,07	3,00
-736,09	-69,00
-728,13	125,00
-720,17	47,00
-712,23	-30,00
-704,29	50,00
-696,37	-83,00
-688,45	8,00
-680,55	-68,00
-672,65	46,00
-664,77	49,00
-656,89	-13,00
-649,03	-43,00
-641,17	18,00
-633,32	54,00
-625,49	28,00
-617,66	17,00
-609,84	51,00
-602,03	6,00
-594,23	55,00
-586,45	-5,00
-578,67	0,00
-570,90	83,00
-563,14	-11,00
-555,39	-8,00
-547,65	-60,00
-539,91	-91,00
-532,19	40,00
-524,48	-32,00
-516,78	-56,00
-509,08	-80,00
-501,40	9,00
-493,72	62,00
-486,06	1,00
-478,40	-8,00
-470,76	160,00
-463,12	-13,00
-455,49	40,00
-447,87	26,00
-440,26	43,00
-432,66	-72,00
-425,07	110,00
-417,49	36,00
-409,92	-5,00
-402,35	30,00
-394,80	33,00
-387,25	-17,00
-379,72	25,00
-372,19	80,00
-364,67	131,00
-357,17	31,00
-349,67	48,00
-342,18	94,00
-334,69	111,00
-327,22	69,00
-319,76	75,00
-312,30	-15,00
-304,86	52,00
-297,42	83,00
-290,00	160,00
-282,58	-14,00
-275,17	92,00
-267,77	81,00
-260,37	95,00
-252,99	20,00
-245,62	31,00
-238,25	101,00
-230,90	72,00
-223,55	95,00
-216,21	221,00
-208,88	227,00
-201,56	180,00
-194,25	177,00
-186,94	203,00
-179,65	241,00
-172,36	257,00
-165,08	268,00
-157,81	255,00
-150,55	263,00
-143,30	391,00
-136,06	173,00
-128,82	429,00
-121,60	441,00
-114,38	376,00
-107,17	503,00
-99,97	627,00
-92,78	605,00
-85,60	718,00
-78,42	986,00
-71,25	1142,00
-64,10	1206,00
-56,95	1400,00
-49,81	1726,00
-42,67	2063,00
-35,55	2645,00
-28,43	3443,00
-21,33	5645,00
-14,23	17971,00
-7,14	56043,00
-0,05	55763,00
7,02	55513,00
14,09	55717,00
21,14	18211,00
28,19	7449,00
35,23	4699,00
42,27	3454,00
49,29	2792,00
56,31	2472,00
63,32	1976,00
70,32	1688,00
77,31	1429,00
84,29	1146,00
91,27	1166,00
98,23	1039,00
105,19	929,00
112,14	1020,00
119,09	1649,00
126,02	2704,00
132,95	3354,00
139,87	3516,00
146,78	3555,00
153,68	3562,00
160,58	3475,00
167,46	3405,00
174,34	3384,00
181,21	3388,00
188,08	3453,00
194,93	3357,00
201,78	3428,00
208,62	3359,00
215,45	3394,00
222,27	3539,00
229,09	3401,00
235,90	3435,00
242,70	3342,00
249,49	3379,00
256,27	3388,00
263,05	3258,00
269,82	3402,00
276,58	3306,00
283,33	3235,00
290,08	3341,00
296,82	3197,00
303,55	3258,00
310,27	3140,00
316,98	3019,00
323,69	3087,00
330,39	3095,00
337,08	3039,00
343,76	3132,00
350,44	3204,00
357,11	3029,00
363,77	3099,00
370,42	3222,00
377,07	2963,00
383,71	3213,00
390,34	3120,00
396,96	3208,00
403,58	3108,00
410,19	2961,00
416,79	3061,00
423,38	3209,00
429,97	3077,00
436,55	3084,00
443,12	3008,00
449,68	3040,00
456,24	2999,00
462,79	2909,00
469,33	2950,00
475,86	2961,00
482,39	2983,00
488,91	3001,00
495,42	2886,00
501,93	2790,00
508,42	2910,00
514,91	2847,00
521,40	2809,00
527,87	2729,00
534,34	2765,00
540,80	2717,00
547,25	2650,00
553,70	2737,00
560,14	2777,00
566,57	2802,00
573,00	2676,00
579,41	2798,00
585,83	2822,00
592,23	2628,00
598,62	2656,00
605,01	2723,00
611,40	2647,00
617,77	2711,00
624,14	2576,00
630,50	2695,00
636,85	2643,00
643,20	2582,00
649,54	2590,00
655,87	2651,00
662,20	2502,00
668,52	2627,00
674,83	2606,00
681,13	2571,00
687,43	2465,00
693,72	2359,00
700,00	2369,00
706,28	2539,00
712,55	2467,00
718,81	2421,00
725,07	2448,00
731,32	2421,00
737,56	2532,00
743,79	2473,00
750,02	2459,00
756,24	2510,00
762,46	2514,00
768,67	2463,00
774,87	2363,00
781,06	2508,00
787,25	2398,00
793,43	2493,00
799,60	2374,00
805,77	2379,00
811,93	2372,00
818,08	2319,00
824,23	2379,00
830,37	2311,00
836,50	2270,00
842,63	2327,00
848,75	2363,00
854,87	2229,00
860,97	2320,00
867,07	2312,00
873,17	2149,00
879,25	2193,00
885,33	2328,00
891,41	2247,00
897,47	2226,00
903,53	2202,00
909,59	2017,00
915,63	2266,00
921,67	2168,00
927,71	2207,00
933,74	2231,00
939,76	2139,00
945,77	2178,00
951,78	2053,00
957,78	2113,00
963,78	2197,00
969,77	2138,00
975,75	2093,00
981,72	2159,00
987,69	2125,00
993,66	2162,00
999,61	2108,00
1005,56	2007,00
1011,51	2233,00
1017,44	2059,00
1023,37	2019,00
1029,30	2039,00
1035,22	2062,00
1041,13	2072,00
1047,03	2166,00
1052,93	2261,00
1058,83	2558,00
1064,71	2713,00
1070,59	2484,00
1076,47	2170,00
1082,33	2056,00
1088,20	2056,00
1094,05	2010,00
1099,90	2060,00
1105,74	2016,00
1111,58	2059,00
1117,41	2125,00
1123,23	2286,00
1129,05	2666,00
1134,86	2442,00
1140,67	2126,00
1146,47	1980,00
1152,26	1925,00
1158,05	1995,00
1163,83	1986,00
1169,60	2070,00
1175,37	1814,00
1181,13	1946,00
1186,89	1933,00
1192,64	1768,00
1198,38	1844,00
1204,12	1844,00
1209,85	1878,00
1215,58	1749,00
1221,30	1921,00
1227,02	1772,00
1232,72	1857,00
1238,43	1809,00
1244,12	1806,00
1249,81	1852,00
1255,50	1859,00
1261,17	1901,00
1266,85	2033,00
1272,51	1975,00
1278,17	1795,00
1283,83	2102,00
1289,47	2422,00
1295,12	2723,00
1300,75	2542,00
1306,38	2311,00
1312,01	1941,00
1317,63	1862,00
1323,24	1940,00
1328,85	1958,00
1334,45	1964,00
1340,04	2008,00
1345,63	1907,00
1351,22	1852,00
1356,80	1859,00
1362,37	2019,00
1367,93	1941,00
1373,49	1980,00
1379,05	1989,00
1384,60	1996,00
1390,14	1948,00
1395,68	1959,00
1401,21	1956,00
1406,74	2206,00
1412,26	2221,00
1417,77	2343,00
1423,28	2419,00
1428,78	2365,00
1434,28	2681,00
1439,77	2919,00
1445,26	2726,00
1450,74	2625,00
1456,22	2453,00
1461,68	2442,00
1467,15	2400,00
1472,61	2206,00
1478,06	2129,00
1483,51	1870,00
1488,95	1928,00
1494,38	1920,00
1499,81	1791,00
1505,24	1804,00
1510,65	1817,00
1516,07	1657,00
1521,48	1710,00
1526,88	1695,00
1532,27	1713,00
1537,67	1530,00
1543,05	1697,00
1548,43	1681,00
1553,81	1588,00
1559,18	1418,00
1564,54	1565,00
1569,90	1637,00
1575,25	1585,00
1580,60	1557,00
1585,94	1666,00
1591,28	1580,00
1596,61	1623,00
1601,93	1611,00
1607,25	1531,00
1612,57	1551,00
1617,88	1602,00
1623,18	1632,00
1628,48	1543,00
1633,77	1574,00
1639,06	1681,00
1644,34	1427,00
1649,62	1466,00
1654,89	1512,00
1660,16	1454,00
1665,42	1467,00
1670,67	1415,00
1675,92	1505,00
1681,17	1545,00
1686,41	1421,00
1691,64	1359,00
1696,87	1513,00
1702,10	1265,00
1707,32	1413,00
1712,53	1375,00
1717,74	1223,00
1722,94	1478,00
1728,14	1245,00
1733,33	1278,00
1738,52	1315,00
1743,70	1224,00
1748,88	1388,00
1754,05	1180,00
1759,22	1402,00
1764,38	1363,00
1769,53	1316,00
1774,69	954,00
1779,83	1295,00
1784,97	1276,00
1790,11	1233,00
1795,24	1221,00
1800,36	1167,00
1805,48	1251,00
1810,60	1144,00
1815,71	1138,00
1820,82	1149,00
1825,92	1098,00
1831,01	1035,00
1836,10	1137,00
1841,19	1083,00
1846,26	1003,00
1851,34	1021,00
1856,41	1181,00
1861,47	1135,00
1866,53	1019,00
1871,59	999,00
1876,64	1053,00
1881,68	1123,00
1886,72	1067,00
1891,76	1118,00
1896,79	1126,00
1901,81	972,00
1906,83	991,00
1911,85	989,00
1916,86	1015,00
1921,86	1074,00
1926,86	1091,00
1931,86	911,00
1936,85	920,00
1941,83	964,00
1946,81	858,00
1951,79	970,00
1956,76	943,00
1961,72	880,00
1966,68	934,00
1971,64	920,00
1976,59	879,00
1981,54	876,00
1986,48	933,00
1991,42	877,00
1996,35	944,00
2001,27	857,00
2006,20	835,00
2011,11	809,00
2016,03	911,00
2020,93	830,00
2025,84	761,00
2030,73	940,00
2035,63	758,00
2040,52	744,00
2045,40	787,00
2050,28	755,00
2055,15	871,00
2060,02	678,00
2064,89	820,00
2069,75	702,00
2074,60	919,00
2079,46	731,00
2084,30	768,00
2089,14	707,00
2093,98	674,00
2098,81	718,00
2103,64	764,00
2108,46	769,00
2113,28	804,00
2118,09	660,00
2122,90	737,00
2127,70	775,00
2132,50	823,00
2137,30	669,00
2142,09	662,00
2146,87	754,00
2151,66	644,00
2156,43	690,00
2161,20	783,00
2165,97	675,00
2170,73	707,00
2175,49	727,00
2180,24	692,00
2184,99	735,00
2189,74	650,00
2194,48	691,00
2199,21	596,00
2203,94	580,00
2208,67	670,00
2213,39	530,00
2218,11	679,00
2222,82	563,00
2227,53	575,00
2232,23	699,00
2236,93	695,00
2241,63	583,00
2246,32	621,00
2251,00	577,00
2255,68	580,00
2260,36	590,00
2265,03	540,00
2269,70	579,00
2274,36	541,00
2279,02	561,00
2283,68	456,00
2288,33	627,00
2292,97	629,00
2297,61	598,00
2302,25	528,00
2306,88	581,00
2311,51	488,00
2316,14	514,00
2320,75	510,00
2325,37	529,00
2329,98	529,00
2334,59	548,00
2339,19	485,00
2343,79	499,00
2348,38	558,00
2352,97	506,00
2357,55	463,00
2362,13	524,00
2366,71	518,00
2371,28	499,00
2375,85	468,00
2380,41	512,00
2384,97	433,00
2389,52	572,00
2394,07	401,00
2398,62	454,00
2403,16	391,00
2407,70	462,00
2412,23	400,00
2416,76	548,00
2421,29	423,00
2425,81	369,00
2430,32	538,00
2434,84	441,00
2439,34	383,00
2443,85	575,00
2448,35	523,00
2452,84	424,00
2457,33	463,00
2461,82	445,00
2466,30	440,00
2470,78	400,00
2475,25	457,00
2479,72	339,00
2484,19	445,00
2488,65	426,00
2493,11	422,00
2497,56	421,00
2502,01	422,00
2506,46	401,00
2510,90	345,00
2515,34	448,00
2519,77	408,00
2524,20	360,00
2528,62	440,00
2533,04	300,00
2537,46	383,00
2541,87	473,00
2546,28	429,00
2550,68	321,00
2555,08	396,00
2559,48	411,00
2563,87	388,00
2568,26	383,00
2572,64	261,00
2577,02	373,00
2581,40	392,00
2585,77	253,00
2590,14	385,00
2594,50	317,00
2598,86	392,00
2603,22	293,00
2607,57	386,00
2611,92	186,00
2616,26	211,00
2620,60	338,00
2624,94	368,00
2629,27	272,00
2633,60	302,00
2637,92	351,00
2642,24	285,00
2646,56	330,00
2650,87	261,00
2655,18	281,00
2659,48	328,00
2663,78	290,00
2668,08	340,00
2672,37	323,00
2676,66	322,00
2680,95	432,00
2685,23	286,00
2689,50	287,00
2693,78	268,00
2698,05	445,00
2702,31	413,00
2706,57	333,00
2710,83	334,00
2715,08	445,00
2719,33	320,00
2723,58	443,00
2727,82	353,00
2732,06	440,00
2736,29	295,00
2740,53	389,00
2744,75	346,00
2748,97	410,00
2753,19	522,00
2757,41	417,00
2761,62	294,00
2765,83	464,00
2770,03	246,00
2774,23	229,00
2778,43	278,00
2782,62	343,00
2786,81	217,00
2791,00	406,00
2795,18	423,00
2799,35	409,00
2803,53	482,00
2807,70	483,00
2811,86	397,00
2816,03	480,00
2820,19	462,00
2824,34	488,00
2828,49	638,00
2832,64	607,00
2836,78	803,00
2840,92	1006,00
2845,06	1239,00
2849,19	1320,00
2853,32	1406,00
2857,45	1384,00
2861,57	1292,00
2865,69	1318,00
2869,80	1184,00
2873,91	1199,00
2878,02	1432,00
2882,12	1523,00
2886,22	1522,00
2890,32	1441,00
2894,41	1291,00
2898,50	1064,00
2902,58	1001,00
2906,67	987,00
2910,74	948,00
2914,82	878,00
2918,89	727,00
2922,96	800,00
2927,02	838,00
2931,08	705,00
2935,13	558,00
2939,19	574,00
2943,24	490,00
2947,28	477,00
2951,32	422,00
2955,36	388,00
2959,40	209,00
2963,43	360,00
2967,46	253,00
2971,48	288,00
2975,50	392,00
2979,52	244,00
2983,53	395,00
2987,54	298,00
2991,55	239,00
2995,55	295,00
2999,55	184,00
3003,54	177,00
3007,54	229,00
3011,53	206,00
3015,51	109,00
3019,49	271,00
3023,47	125,00
3027,45	99,00
3031,42	222,00
3035,39	135,00
3039,35	145,00
3043,31	113,00
3047,27	177,00
3051,22	125,00
3055,17	244,00
3059,12	204,00
3063,06	163,00
3067,00	211,00
3070,94	194,00
3074,87	161,00
3078,80	43,00
3082,73	232,00
3086,65	126,00
3090,57	171,00
3094,49	198,00
3098,40	139,00
3102,31	75,00
3106,22	81,00
3110,12	141,00
3114,02	70,00
3117,92	87,00
3121,81	152,00
3125,70	189,00
3129,58	73,00
3133,47	121,00
3137,34	94,00
3141,22	88,00
3145,09	192,00
3148,96	-48,00
3152,83	212,00
3156,69	-3,00
3160,55	161,00
3164,40	165,00
3168,26	201,00
3172,10	172,00
3175,95	51,00
3179,79	105,00
3183,63	122,00
3187,47	128,00
3191,30	7,00
3195,13	68,00
3198,95	61,00
3202,78	85,00
3206,60	66,00
3210,41	113,00
3214,23	103,00
3218,03	50,00
3221,84	49,00
3225,64	150,00
3229,44	106,00
3233,24	24,00
3237,03	19,00
3240,82	129,00
3244,61	102,00
3248,39	78,00
3252,17	103,00
3255,95	-16,00
3259,72	19,00
3263,49	63,00
3267,26	88,00
3271,03	106,00
3274,79	35,00
3278,54	98,00
3282,30	144,00
3286,05	166,00
3289,80	-68,00
3293,54	97,00
3297,29	26,00
3301,02	165,00
3304,76	107,00
3308,49	51,00
3312,22	31,00
3315,95	62,00
3319,67	99,00
3323,39	134,00
3327,10	79,00
3330,82	117,00
3334,53	88,00
3338,24	63,00
3341,94	-31,00
3345,64	89,00
3349,34	151,00
3353,03	48,00
3356,72	109,00
3360,41	51,00
3364,10	5,00
3367,78	77,00
3371,46	43,00
3375,13	135,00
3378,81	76,00
3382,48	37,00
3386,14	51,00
3389,81	92,00
3393,47	52,00
3397,12	53,00
3400,78	-13,00
3404,43	70,00
3408,08	44,00
3411,72	74,00
3415,36	62,00
3419,00	84,00
3422,64	110,00
3426,27	120,00
3429,90	210,00
3433,53	20,00
3437,15	43,00
3440,77	27,00
3444,39	76,00
3448,00	229,00
3451,62	47,00
3455,22	144,00
3458,83	8,00
3462,43	-24,00
3466,03	39,00
3469,63	55,00
3473,22	106,00
3476,81	52,00
3480,40	13,00
3483,99	-31,00
3487,57	61,00
3491,15	85,00
3494,72	17,00
3498,29	25,00
3501,86	4,00
3505,43	12,00
3508,99	-2,00
3512,56	44,00
3516,11	43,00
3519,67	-12,00
3523,22	-52,00
3526,77	42,00
3530,32	-42,00
3533,86	156,00
3537,40	-62,00
3540,94	-49,00
3544,47	5,00
3548,00	-7,00
3551,53	68,00
3555,06	-5,00
3558,58	53,00
3562,10	22,00
3565,62	26,00
3569,13	-71,00
3572,64	63,00
3576,15	101,00
3579,66	-15,00
3583,16	78,00
3586,66	-38,00
3590,16	16,00
3593,65	-10,00
3597,14	55,00
3600,63	20,00
3604,11	29,00
3607,60	23,00
3611,08	3,00
3614,55	52,00
3618,03	32,00
3621,50	-64,00
3624,97	5,00
3628,43	-71,00
3631,90	31,00
3635,36	87,00
3638,81	-17,00
3642,27	40,00
3645,72	66,00
3649,17	-19,00
3652,61	18,00
3656,06	-103,00
3659,50	7,00
3662,93	24,00
3666,37	75,00
3669,80	9,00
3673,23	83,00
3676,65	17,00
3680,08	-68,00
3683,50	6,00
3686,92	58,00
3690,33	-104,00
3693,74	-2,00
3697,15	10,00
3700,56	1,00
3703,96	56,00
3707,36	-94,00
3710,76	7,00
3714,16	80,00
3717,55	117,00
3720,94	78,00
3724,33	29,00
3727,71	-1,00
3731,10	-20,00
3734,48	61,00
3737,85	9,00
3741,23	-74,00
3744,60	35,00
3747,97	7,00
3751,33	-43,00
3754,69	-51,00
3758,05	38,00
3761,41	76,00
3764,77	8,00
3768,12	54,00
3771,47	29,00
3774,82	-17,00
3778,16	2,00
3781,50	8,00
3784,84	5,00
3788,18	1,00
>>>>>End Processed Spectral Data<<<<<
