SpectraSuite Data File
++++++++++++++++++++++++++++++++++++
Date: Wed Feb 11 16:57:08 ICT 2026
User: Administrator
Dark Spectrum Present: Yes
Reference Spectrum Present: No
Number of Sampled Component Spectra: 1
Spectrometers: MAYP113682
Integration Time (usec): 3000000 (MAYP113682)
Spectra Averaged: 1 (MAYP113682)
Boxcar Smoothing: 0 (MAYP113682)
Correct for Electrical Dark: No (MAYP113682)
Strobe/Lamp Enabled: No (MAYP113682)
Correct for Detector Non-linearity: No (MAYP113682)
Correct for Stray Light: No (MAYP113682)
Number of Pixels in Processed Spectrum: 2068
>>>>>Begin Processed Spectral Data<<<<<
-37534,58	9,00
-37414,56	3,00
-37295,11	-2,00
-37176,24	4,00
-37057,95	43,00
-36940,22	-73,00
-36823,05	-28,00
-36706,45	54,00
-36590,40	60,00
-36474,90	-18,00
-36359,95	-19,00
-36245,55	-28,00
-36131,68	-42,00
-36018,35	-31,00
-35905,55	112,00
-35793,29	-4,00
-35681,54	-36,00
-35570,32	43,00
-35459,62	101,00
-35349,43	66,00
-35239,75	73,00
-35130,58	37,00
-35021,91	16,00
-34913,74	-8,00
-34806,07	-56,00
-34698,89	-47,00
-34592,20	6,00
-34486,00	-54,00
-34380,28	31,00
-34275,04	-172,00
-34170,27	-68,00
-34065,98	-121,00
-33962,16	-51,00
-33858,81	52,00
-33755,92	6,00
-33653,49	-89,00
-33551,52	47,00
-33450,01	-165,00
-33348,94	-26,00
-33248,33	-49,00
-33148,16	-76,00
-33048,43	-10,00
-32949,14	-35,00
-32850,29	-22,00
-32751,87	-35,00
-32653,89	16,00
-32556,33	-128,00
-32459,20	37,00
-32362,49	20,00
-32266,19	-76,00
-32170,32	31,00
-32074,86	-34,00
-31979,82	-9,00
-31885,18	-16,00
-31790,95	-38,00
-31697,12	-90,00
-31603,69	-54,00
-31510,67	6,00
-31418,04	81,00
-31325,80	-54,00
-31233,95	91,00
-31142,49	-1,00
-31051,42	1,00
-30960,73	-5,00
-30870,43	-35,00
-30780,50	-71,00
-30690,95	76,00
-30601,77	21,00
-30512,97	-62,00
-30424,53	30,00
-30336,46	-67,00
-30248,76	88,00
-30161,42	26,00
-30074,44	16,00
-29987,81	-78,00
-29901,55	-65,00
-29815,63	35,00
-29730,07	-9,00
-29644,86	8,00
-29560,00	43,00
-29475,48	40,00
-29391,30	-127,00
-29307,47	-68,00
-29223,97	22,00
-29140,81	-42,00
-29057,99	76,00
-28975,50	77,00
-28893,34	-75,00
-28811,51	39,00
-28730,00	-2,00
-28648,82	137,00
-28567,97	101,00
-28487,43	-73,00
-28407,21	-152,00
-28327,32	0,00
-28247,73	-13,00
-28168,46	117,00
-28089,50	8,00
-28010,85	-84,00
-27932,51	-54,00
-27854,48	-8,00
-27776,75	18,00
-27699,32	-38,00
-27622,19	37,00
-27545,37	-7,00
-27468,84	-34,00
-27392,60	76,00
-27316,66	5,00
-27241,01	-11,00
-27165,66	79,00
-27090,59	-67,00
-27015,81	-9,00
-26941,31	15,00
-26867,10	50,00
-26793,17	32,00
-26719,52	134,00
-26646,15	-99,00
-26573,06	19,00
-26500,24	-60,00
-26427,70	63,00
-26355,43	47,00
-26283,43	7,00
-26211,71	-55,00
-26140,25	9,00
-26069,06	129,00
-25998,13	23,00
-25927,46	-5,00
-25857,06	-97,00
-25786,92	2,00
-25717,04	-90,00
-25647,42	38,00
-25578,05	46,00
-25508,94	-47,00
-25440,09	-3,00
-25371,48	-102,00
-25303,13	35,00
-25235,02	84,00
-25167,17	40,00
-25099,56	37,00
-25032,19	-49,00
-24965,07	-36,00
-24898,20	-32,00
-24831,56	-23,00
-24765,17	12,00
-24699,01	-30,00
-24633,10	41,00
-24567,41	-12,00
-24501,97	-33,00
-24436,75	1,00
-24371,77	-78,00
-24307,03	4,00
-24242,51	-74,00
-24178,22	-17,00
-24114,16	-98,00
-24050,32	28,00
-23986,71	-27,00
-23923,32	30,00
-23860,16	3,00
-23797,22	-9,00
-23734,50	12,00
-23672,00	51,00
-23609,71	4,00
-23547,65	-53,00
-23485,80	12,00
-23424,16	-25,00
-23362,74	79,00
-23301,53	-50,00
-23240,54	27,00
-23179,75	14,00
-23119,17	-89,00
-23058,80	-80,00
-22998,64	16,00
-22938,68	-30,00
-22878,93	-26,00
-22819,39	-47,00
-22760,04	29,00
-22700,90	-107,00
-22641,96	15,00
-22583,22	85,00
-22524,68	-51,00
-22466,33	-38,00
-22408,19	-42,00
-22350,23	-62,00
-22292,48	100,00
-22234,92	-97,00
-22177,55	-81,00
-22120,37	27,00
-22063,38	2,00
-22006,58	47,00
-21949,98	67,00
-21893,56	8,00
-21837,33	-7,00
-21781,28	-16,00
-21725,42	-11,00
-21669,74	34,00
-21614,25	-20,00
-21558,94	55,00
-21503,81	-21,00
-21448,86	-65,00
-21394,10	150,00
-21339,51	-3,00
-21285,10	60,00
-21230,86	-48,00
-21176,81	39,00
-21122,93	13,00
-21069,22	-58,00
-21015,69	57,00
-20962,33	-24,00
-20909,14	-30,00
-20856,13	108,00
-20803,28	71,00
-20750,61	-2,00
-20698,10	-105,00
-20645,76	-42,00
-20593,59	35,00
-20541,59	-101,00
-20489,75	20,00
-20438,07	-15,00
-20386,56	-2,00
-20335,22	61,00
-20284,03	-6,00
-20233,01	30,00
-20182,15	-137,00
-20131,45	-14,00
-20080,91	-51,00
-20030,52	6,00
-19980,30	19,00
-19930,23	-48,00
-19880,32	20,00
-19830,56	13,00
-19780,96	16,00
-19731,52	58,00
-19682,23	34,00
-19633,09	-176,00
-19584,10	-8,00
-19535,26	9,00
-19486,58	-12,00
-19438,04	76,00
-19389,66	24,00
-19341,42	19,00
-19293,33	-101,00
-19245,39	-36,00
-19197,60	-145,00
-19149,95	15,00
-19102,45	4,00
-19055,09	-52,00
-19007,87	88,00
-18960,80	73,00
-18913,87	45,00
-18867,09	-77,00
-18820,44	-102,00
-18773,94	-6,00
-18727,57	-38,00
-18681,35	49,00
-18635,26	166,00
-18589,31	-3,00
-18543,50	15,00
-18497,83	26,00
-18452,29	67,00
-18406,89	-64,00
-18361,63	-31,00
-18316,50	-15,00
-18271,50	-78,00
-18226,63	-50,00
-18181,90	-20,00
-18137,30	140,00
-18092,84	21,00
-18048,50	14,00
-18004,29	-12,00
-17960,22	65,00
-17916,27	-5,00
-17872,45	-3,00
-17828,76	-80,00
-17785,20	61,00
-17741,77	26,00
-17698,46	52,00
-17655,28	-13,00
-17612,22	-47,00
-17569,29	17,00
-17526,48	60,00
-17483,79	130,00
-17441,23	-143,00
-17398,79	-18,00
-17356,48	-75,00
-17314,28	-49,00
-17272,21	57,00
-17230,26	-158,00
-17188,42	-86,00
-17146,71	-29,00
-17105,12	-38,00
-17063,64	75,00
-17022,28	-48,00
-16981,04	35,00
-16939,92	30,00
-16898,91	16,00
-16858,02	-44,00
-16817,25	-102,00
-16776,59	-8,00
-16736,04	-5,00
-16695,61	-42,00
-16655,29	-59,00
-16615,09	-20,00
-16574,99	-22,00
-16535,01	-67,00
-16495,15	17,00
-16455,39	41,00
-16415,74	19,00
-16376,21	18,00
-16336,78	41,00
-16297,46	8,00
-16258,26	54,00
-16219,16	39,00
-16180,17	-58,00
-16141,28	-6,00
-16102,51	5,00
-16063,84	-8,00
-16025,27	33,00
-15986,82	-76,00
-15948,46	43,00
-15910,22	-6,00
-15872,07	3,00
-15834,04	-69,00
-15796,10	79,00
-15758,27	-2,00
-15720,54	-28,00
-15682,91	-46,00
-15645,39	-1,00
-15607,97	-15,00
-15570,64	7,00
-15533,42	36,00
-15496,30	-118,00
-15459,28	-19,00
-15422,36	40,00
-15385,54	-18,00
-15348,82	71,00
-15312,19	3,00
-15275,66	-67,00
-15239,23	-57,00
-15202,90	-47,00
-15166,67	-114,00
-15130,53	-22,00
-15094,48	87,00
-15058,54	31,00
-15022,68	37,00
-14986,93	84,00
-14951,26	-27,00
-14915,69	-63,00
-14880,22	139,00
-14844,84	-96,00
-14809,55	113,00
-14774,35	-128,00
-14739,25	-44,00
-14704,24	-40,00
-14669,32	-13,00
-14634,49	48,00
-14599,75	-94,00
-14565,10	-90,00
-14530,55	-43,00
-14496,08	-134,00
-14461,70	-12,00
-14427,41	58,00
-14393,21	-70,00
-14359,10	-108,00
-14325,07	11,00
-14291,14	-38,00
-14257,29	67,00
-14223,52	-64,00
-14189,85	-29,00
-14156,26	-1,00
-14122,76	61,00
-14089,34	9,00
-14056,01	-95,00
-14022,76	-84,00
-13989,60	-54,00
-13956,52	-7,00
-13923,53	27,00
-13890,62	-9,00
-13857,79	-103,00
-13825,05	-67,00
-13792,39	-1,00
-13759,81	-38,00
-13727,31	-63,00
-13694,90	-73,00
-13662,57	41,00
-13630,31	-84,00
-13598,14	-16,00
-13566,05	24,00
-13534,05	-70,00
-13502,12	38,00
-13470,27	7,00
-13438,50	-38,00
-13406,80	-42,00
-13375,19	-21,00
-13343,66	-19,00
-13312,20	148,00
-13280,83	1,00
-13249,53	-7,00
-13218,30	-51,00
-13187,16	17,00
-13156,09	-9,00
-13125,10	-8,00
-13094,18	41,00
-13063,34	22,00
-13032,58	59,00
-13001,89	-22,00
-12971,28	-21,00
-12940,74	-51,00
-12910,27	-29,00
-12879,88	-15,00
-12849,57	104,00
-12819,33	-41,00
-12789,16	76,00
-12759,06	-19,00
-12729,04	-5,00
-12699,09	-39,00
-12669,21	-26,00
-12639,41	-41,00
-12609,68	-22,00
-12580,02	4,00
-12550,43	-127,00
-12520,91	26,00
-12491,46	61,00
-12462,08	-22,00
-12432,77	-112,00
-12403,54	-43,00
-12374,37	32,00
-12345,27	-19,00
-12316,24	-1,00
-12287,29	2,00
-12258,40	-23,00
-12229,57	51,00
-12200,82	98,00
-12172,14	-3,00
-12143,52	96,00
-12114,97	52,00
-12086,49	5,00
-12058,07	-25,00
-12029,73	30,00
-12001,44	25,00
-11973,23	41,00
-11945,08	-42,00
-11917,00	-21,00
-11888,98	-56,00
-11861,03	-78,00
-11833,15	33,00
-11805,32	10,00
-11777,57	26,00
-11749,88	78,00
-11722,25	-124,00
-11694,69	9,00
-11667,19	-60,00
-11639,75	-70,00
-11612,38	-61,00
-11585,07	-98,00
-11557,83	71,00
-11530,65	-107,00
-11503,53	9,00
-11476,47	-65,00
-11449,48	-21,00
-11422,54	33,00
-11395,67	-27,00
-11368,86	37,00
-11342,11	-59,00
-11315,43	17,00
-11288,80	-24,00
-11262,23	23,00
-11235,73	-72,00
-11209,28	22,00
-11182,90	63,00
-11156,57	-7,00
-11130,31	-14,00
-11104,10	-25,00
-11077,96	69,00
-11051,87	6,00
-11025,84	48,00
-10999,87	-35,00
-10973,96	-121,00
-10948,11	-44,00
-10922,31	-30,00
-10896,58	40,00
-10870,90	-42,00
-10845,28	31,00
-10819,71	13,00
-10794,20	20,00
-10768,75	7,00
-10743,36	24,00
-10718,02	-1,00
-10692,74	24,00
-10667,52	-17,00
-10642,35	25,00
-10617,24	-55,00
-10592,18	-16,00
-10567,18	26,00
-10542,23	7,00
-10517,34	-1,00
-10492,51	69,00
-10467,72	-7,00
-10443,00	13,00
-10418,32	151,00
-10393,70	51,00
-10369,14	2,00
-10344,63	97,00
-10320,17	77,00
-10295,77	93,00
-10271,42	9,00
-10247,12	131,00
-10222,88	133,00
-10198,68	122,00
-10174,54	37,00
-10150,46	147,00
-10126,42	138,00
-10102,44	108,00
-10078,51	133,00
-10054,63	52,00
-10030,80	35,00
-10007,03	222,00
-9983,30	68,00
-9959,63	182,00
-9936,01	117,00
-9912,44	212,00
-9888,92	144,00
-9865,44	285,00
-9842,02	213,00
-9818,65	267,00
-9795,33	327,00
-9772,06	364,00
-9748,84	153,00
-9725,67	355,00
-9702,55	345,00
-9679,47	462,00
-9656,45	388,00
-9633,47	386,00
-9610,55	406,00
-9587,67	613,00
-9564,84	593,00
-9542,06	707,00
-9519,32	776,00
-9496,64	759,00
-9474,00	949,00
-9451,41	891,00
-9428,87	876,00
-9406,37	900,00
-9383,92	766,00
-9361,52	910,00
-9339,17	918,00
-9316,86	1075,00
-9294,60	1179,00
-9272,38	1380,00
-9250,21	1520,00
-9228,09	1534,00
-9206,01	1562,00
-9183,98	1438,00
-9162,00	1265,00
-9140,06	1227,00
-9118,16	1314,00
-9096,31	1347,00
-9074,51	1351,00
-9052,75	1444,00
-9031,04	1319,00
-9009,37	1171,00
-8987,74	1056,00
-8966,16	799,00
-8944,63	851,00
-8923,14	706,00
-8901,69	819,00
-8880,29	867,00
-8858,93	1008,00
-8837,61	1221,00
-8816,34	1302,00
-8795,11	1267,00
-8773,92	1146,00
-8752,78	963,00
-8731,68	919,00
-8710,62	971,00
-8689,61	1011,00
-8668,63	1104,00
-8647,70	1195,00
-8626,82	1271,00
-8605,97	1173,00
-8585,17	990,00
-8564,41	952,00
-8543,69	869,00
-8523,01	779,00
-8502,37	847,00
-8481,78	849,00
-8461,23	987,00
-8440,71	1012,00
-8420,24	1195,00
-8399,81	1072,00
-8379,42	1311,00
-8359,08	981,00
-8338,77	965,00
-8318,50	928,00
-8298,27	846,00
-8278,09	892,00
-8257,94	1017,00
-8237,83	1055,00
-8217,76	1100,00
-8197,74	1157,00
-8177,75	1126,00
-8157,80	1001,00
-8137,89	936,00
-8118,02	832,00
-8098,19	910,00
-8078,40	972,00
-8058,65	806,00
-8038,93	919,00
-8019,26	833,00
-7999,62	793,00
-7980,02	839,00
-7960,46	695,00
-7940,94	727,00
-7921,46	730,00
-7902,01	757,00
-7882,60	653,00
-7863,23	640,00
-7843,90	723,00
-7824,61	707,00
-7805,35	865,00
-7786,13	767,00
-7766,95	844,00
-7747,80	722,00
-7728,69	608,00
-7709,62	749,00
-7690,59	751,00
-7671,59	848,00
-7652,63	936,00
-7633,70	825,00
-7614,81	849,00
-7595,96	732,00
-7577,15	622,00
-7558,37	728,00
-7539,62	704,00
-7520,91	743,00
-7502,24	818,00
-7483,60	810,00
-7465,00	766,00
-7446,44	583,00
-7427,91	629,00
-7409,41	410,00
-7390,95	552,00
-7372,53	498,00
-7354,14	372,00
-7335,78	429,00
-7317,46	492,00
-7299,18	541,00
-7280,92	638,00
-7262,71	715,00
-7244,52	732,00
-7226,38	759,00
-7208,26	729,00
-7190,18	699,00
-7172,14	549,00
-7154,12	496,00
-7136,15	696,00
-7118,20	650,00
-7100,29	710,00
-7082,41	780,00
-7064,57	773,00
-7046,76	596,00
-7028,98	486,00
-7011,24	406,00
-6993,53	489,00
-6975,85	394,00
-6958,20	181,00
-6940,59	215,00
-6923,01	350,00
-6905,46	517,00
-6887,94	324,00
-6870,46	2957,00
-6853,01	660,00
-6835,59	646,00
-6818,21	457,00
-6800,85	556,00
-6783,53	307,00
-6766,24	225,00
-6748,98	171,00
-6731,76	262,00
-6714,56	117,00
-6697,40	130,00
-6680,26	216,00
-6663,16	272,00
-6646,09	373,00
-6629,05	376,00
-6612,05	462,00
-6595,07	484,00
-6578,13	432,00
-6561,21	331,00
-6544,33	316,00
-6527,47	43,00
-6510,65	232,00
-6493,86	145,00
-6477,10	71,00
-6460,36	143,00
-6443,66	188,00
-6426,99	185,00
-6410,35	189,00
-6393,74	184,00
-6377,16	297,00
-6360,61	206,00
-6344,09	381,00
-6327,59	312,00
-6311,13	298,00
-6294,70	318,00
-6278,29	346,00
-6261,92	510,00
-6245,58	337,00
-6229,26	487,00
-6212,97	421,00
-6196,72	423,00
-6180,49	257,00
-6164,29	59,00
-6148,12	58,00
-6131,98	-5,00
-6115,86	171,00
-6099,78	-39,00
-6083,72	-53,00
-6067,69	-24,00
-6051,69	71,00
-6035,72	-20,00
-6019,78	228,00
-6003,87	175,00
-5987,98	185,00
-5972,12	338,00
-5956,29	248,00
-5940,49	265,00
-5924,71	184,00
-5908,96	34,00
-5893,24	99,00
-5877,55	130,00
-5861,89	0,00
-5846,25	190,00
-5830,64	106,00
-5815,05	-11,00
-5799,50	144,00
-5783,97	80,00
-5768,47	180,00
-5752,99	276,00
-5737,55	233,00
-5722,12	219,00
-5706,73	241,00
-5691,36	223,00
-5676,02	75,00
-5660,71	79,00
-5645,42	94,00
-5630,16	119,00
-5614,92	196,00
-5599,71	240,00
-5584,53	210,00
-5569,37	269,00
-5554,24	138,00
-5539,14	276,00
-5524,06	183,00
-5509,01	101,00
-5493,98	178,00
-5478,98	167,00
-5464,00	129,00
-5449,05	328,00
-5434,13	174,00
-5419,23	75,00
-5404,36	5,00
-5389,51	131,00
-5374,69	163,00
-5359,89	278,00
-5345,12	439,00
-5330,37	287,00
-5315,65	331,00
-5300,95	161,00
-5286,28	113,00
-5271,63	125,00
-5257,01	103,00
-5242,41	129,00
-5227,84	28,00
-5213,29	170,00
-5198,76	-22,00
-5184,26	44,00
-5169,79	49,00
-5155,33	127,00
-5140,91	-8,00
-5126,51	151,00
-5112,13	221,00
-5097,77	81,00
-5083,44	-38,00
-5069,13	47,00
-5054,85	92,00
-5040,59	204,00
-5026,36	87,00
-5012,15	124,00
-4997,96	232,00
-4983,80	200,00
-4969,66	81,00
-4955,54	71,00
-4941,44	110,00
-4927,37	243,00
-4913,33	346,00
-4899,30	375,00
-4885,30	399,00
-4871,33	117,00
-4857,37	121,00
-4843,44	123,00
-4829,53	40,00
-4815,65	181,00
-4801,79	126,00
-4787,95	85,00
-4774,13	35,00
-4760,34	33,00
-4746,56	-38,00
-4732,82	97,00
-4719,09	13,00
-4705,38	119,00
-4691,70	301,00
-4678,04	325,00
-4664,41	93,00
-4650,79	75,00
-4637,20	77,00
-4623,63	136,00
-4610,08	70,00
-4596,56	121,00
-4583,05	131,00
-4569,57	151,00
-4556,11	25,00
-4542,67	74,00
-4529,25	68,00
-4515,86	140,00
-4502,49	222,00
-4489,13	234,00
-4475,80	188,00
-4462,49	116,00
-4449,21	113,00
-4435,94	68,00
-4422,70	67,00
-4409,47	139,00
-4396,27	91,00
-4383,09	103,00
-4369,93	65,00
-4356,79	48,00
-4343,67	-30,00
-4330,58	151,00
-4317,50	73,00
-4304,45	99,00
-4291,41	105,00
-4278,40	95,00
-4265,41	19,00
-4252,44	135,00
-4239,49	175,00
-4226,55	110,00
-4213,65	136,00
-4200,76	60,00
-4187,89	46,00
-4175,04	129,00
-4162,21	-94,00
-4149,40	-25,00
-4136,61	20,00
-4123,85	92,00
-4111,10	-41,00
-4098,37	19,00
-4085,66	78,00
-4072,98	-26,00
-4060,31	51,00
-4047,66	-117,00
-4035,04	21,00
-4022,43	-45,00
-4009,84	33,00
-3997,27	-76,00
-3984,72	-57,00
-3972,19	-23,00
-3959,69	-53,00
-3947,20	143,00
-3934,73	-13,00
-3922,27	15,00
-3909,84	-96,00
-3897,43	4,00
-3885,04	133,00
-3872,67	-23,00
-3860,31	119,00
-3847,98	1,00
-3835,66	3,00
-3823,36	-53,00
-3811,09	2,00
-3798,83	20,00
-3786,59	-71,00
-3774,37	-58,00
-3762,17	77,00
-3749,98	-40,00
-3737,82	19,00
-3725,67	-4,00
-3713,55	-49,00
-3701,44	-114,00
-3689,35	45,00
-3677,28	31,00
-3665,22	32,00
-3653,19	-98,00
-3641,17	-65,00
-3629,18	-77,00
-3617,20	-11,00
-3605,24	114,00
-3593,30	-90,00
-3581,37	-3,00
-3569,47	0,00
-3557,58	-121,00
-3545,71	-41,00
-3533,86	95,00
-3522,02	-11,00
-3510,21	-108,00
-3498,41	-29,00
-3486,63	-24,00
-3474,87	-35,00
-3463,12	-29,00
-3451,40	-51,00
-3439,69	-9,00
-3428,00	23,00
-3416,33	-81,00
-3404,67	32,00
-3393,03	-28,00
-3381,41	-36,00
-3369,81	-48,00
-3358,22	-117,00
-3346,66	2,00
-3335,10	49,00
-3323,57	58,00
-3312,06	29,00
-3300,56	-64,00
-3289,08	31,00
-3277,61	-39,00
-3266,16	-61,00
-3254,73	-9,00
-3243,32	9,00
-3231,92	-40,00
-3220,55	-30,00
-3209,18	78,00
-3197,84	57,00
-3186,51	-94,00
-3175,20	-50,00
-3163,90	-27,00
-3152,63	-13,00
-3141,36	39,00
-3130,12	-12,00
-3118,89	12,00
-3107,68	-8,00
-3096,49	-36,00
-3085,31	-13,00
-3074,15	-20,00
-3063,00	58,00
-3051,87	39,00
-3040,76	11,00
-3029,67	-5,00
-3018,59	15,00
-3007,52	40,00
-2996,48	-35,00
-2985,44	3,00
-2974,43	-28,00
-2963,43	-54,00
-2952,45	-2,00
-2941,48	89,00
-2930,53	-2,00
-2919,60	64,00
-2908,68	-14,00
-2897,78	-50,00
-2886,89	59,00
-2876,02	26,00
-2865,17	-118,00
-2854,33	11,00
-2843,50	-80,00
-2832,70	46,00
-2821,90	28,00
-2811,13	-57,00
-2800,37	37,00
-2789,62	71,00
-2778,89	64,00
-2768,18	80,00
-2757,48	-20,00
-2746,80	-21,00
-2736,13	46,00
-2725,48	70,00
-2714,84	-107,00
-2704,22	-119,00
-2693,61	11,00
-2683,02	-39,00
-2672,45	-27,00
-2661,89	-31,00
-2651,34	-4,00
-2640,81	21,00
-2630,30	84,00
-2619,80	151,00
-2609,31	-88,00
-2598,84	-1,00
-2588,39	17,00
-2577,95	-3,00
-2567,52	-79,00
-2557,11	-109,00
-2546,71	-22,00
-2536,33	54,00
-2525,97	43,00
-2515,62	41,00
-2505,28	-11,00
-2494,96	-38,00
-2484,65	-52,00
-2474,36	14,00
-2464,08	90,00
-2453,82	20,00
-2443,57	-47,00
-2433,33	-7,00
-2423,11	-94,00
-2412,91	106,00
-2402,72	-26,00
-2392,54	24,00
-2382,38	13,00
-2372,23	2,00
-2362,09	-326,00
-2351,97	19,00
-2341,87	75,00
-2331,78	56,00
-2321,70	88,00
-2311,64	1,00
-2301,59	94,00
-2291,55	14,00
-2281,53	-88,00
-2271,53	2,00
-2261,53	-78,00
-2251,55	18,00
-2241,59	-42,00
-2231,64	165,00
-2221,70	-99,00
-2211,78	-55,00
-2201,87	-81,00
-2191,97	47,00
-2182,09	44,00
-2172,22	-48,00
-2162,37	-82,00
-2152,53	32,00
-2142,70	-10,00
-2132,89	77,00
-2123,09	-45,00
-2113,30	44,00
-2103,53	-16,00
-2093,77	-116,00
-2084,02	-28,00
-2074,29	-1,00
-2064,57	-58,00
-2054,86	-75,00
-2045,17	8,00
-2035,49	-13,00
-2025,82	-46,00
-2016,17	82,00
-2006,53	3,00
-1996,91	-21,00
-1987,29	-110,00
-1977,69	93,00
-1968,11	93,00
-1958,53	5,00
-1948,97	75,00
-1939,42	39,00
-1929,89	-60,00
-1920,37	114,00
-1910,86	-31,00
-1901,36	-70,00
-1891,88	10,00
-1882,41	77,00
-1872,95	-16,00
-1863,51	170,00
-1854,08	-111,00
-1844,66	95,00
-1835,26	-16,00
-1825,86	-10,00
-1816,48	-31,00
-1807,11	33,00
-1797,76	-61,00
-1788,42	34,00
-1779,09	-54,00
-1769,77	108,00
-1760,47	76,00
-1751,17	62,00
-1741,89	80,00
-1732,63	-14,00
-1723,37	25,00
-1714,13	-87,00
-1704,90	-18,00
-1695,68	37,00
-1686,48	26,00
-1677,29	9,00
-1668,11	10,00
-1658,94	28,00
-1649,78	-59,00
-1640,64	-73,00
-1631,51	45,00
-1622,39	-134,00
-1613,28	84,00
-1604,19	26,00
-1595,10	5,00
-1586,03	-54,00
-1576,97	123,00
-1567,93	26,00
-1558,89	54,00
-1549,87	-86,00
-1540,86	4,00
-1531,86	89,00
-1522,87	-80,00
-1513,90	-126,00
-1504,93	-35,00
-1495,98	40,00
-1487,04	6,00
-1478,12	139,00
-1469,20	-84,00
-1460,30	-10,00
-1451,40	74,00
-1442,52	-13,00
-1433,65	7,00
-1424,80	83,00
-1415,95	-44,00
-1407,12	213,00
-1398,30	-89,00
-1389,48	-94,00
-1380,69	-85,00
-1371,90	11,00
-1363,12	-60,00
-1354,36	12,00
-1345,60	-47,00
-1336,86	57,00
-1328,13	40,00
-1319,41	-65,00
-1310,70	-88,00
-1302,01	-7,00
-1293,32	-106,00
-1284,65	-68,00
-1275,99	64,00
-1267,33	-31,00
-1258,69	78,00
-1250,06	33,00
-1241,45	73,00
-1232,84	32,00
-1224,25	-89,00
-1215,66	-19,00
-1207,09	-26,00
-1198,53	94,00
-1189,97	-86,00
-1181,43	10,00
-1172,91	-123,00
-1164,39	-54,00
-1155,88	6,00
-1147,38	81,00
-1138,90	36,00
-1130,43	-66,00
-1121,96	-5,00
-1113,51	75,00
-1105,07	42,00
-1096,64	34,00
-1088,22	22,00
-1079,81	-30,00
-1071,41	-18,00
-1063,02	34,00
-1054,65	-11,00
-1046,28	34,00
-1037,92	-65,00
-1029,58	-11,00
-1021,24	-41,00
-1012,92	3,00
-1004,61	-47,00
-996,30	-4,00
-988,01	36,00
-979,73	29,00
-971,46	-51,00
-963,20	-40,00
-954,95	59,00
-946,71	43,00
-938,48	-30,00
-930,26	-69,00
-922,06	24,00
-913,86	-10,00
-905,67	2,00
-897,49	62,00
-889,33	14,00
-881,17	-39,00
-873,02	84,00
-864,89	-65,00
-856,76	-73,00
-848,65	99,00
-840,54	27,00
-832,45	50,00
-824,36	-63,00
-816,29	167,00
-808,22	-63,00
-800,17	18,00
-792,12	118,00
-784,09	2,00
-776,06	-64,00
-768,05	-19,00
-760,04	144,00
-752,05	15,00
-744,07	-48,00
-736,09	-50,00
-728,13	98,00
-720,17	-104,00
-712,23	-60,00
-704,29	103,00
-696,37	-89,00
-688,45	-72,00
-680,55	77,00
-672,65	187,00
-664,77	28,00
-656,89	-12,00
-649,03	-24,00
-641,17	-47,00
-633,32	100,00
-625,49	86,00
-617,66	6,00
-609,84	-3,00
-602,03	52,00
-594,23	32,00
-586,45	48,00
-578,67	43,00
-570,90	-10,00
-563,14	-33,00
-555,39	-139,00
-547,65	2,00
-539,91	-72,00
-532,19	66,00
-524,48	-36,00
-516,78	-48,00
-509,08	-37,00
-501,40	-101,00
-493,72	-8,00
-486,06	23,00
-478,40	70,00
-470,76	86,00
-463,12	-66,00
-455,49	22,00
-447,87	48,00
-440,26	73,00
-432,66	-17,00
-425,07	38,00
-417,49	-30,00
-409,92	12,00
-402,35	8,00
-394,80	22,00
-387,25	30,00
-379,72	92,00
-372,19	116,00
-364,67	35,00
-357,17	13,00
-349,67	-32,00
-342,18	107,00
-334,69	98,00
-327,22	84,00
-319,76	82,00
-312,30	42,00
-304,86	86,00
-297,42	74,00
-290,00	88,00
-282,58	47,00
-275,17	115,00
-267,77	-5,00
-260,37	92,00
-252,99	4,00
-245,62	93,00
-238,25	-31,00
-230,90	86,00
-223,55	61,00
-216,21	119,00
-208,88	124,00
-201,56	52,00
-194,25	91,00
-186,94	224,00
-179,65	191,00
-172,36	113,00
-165,08	237,00
-157,81	242,00
-150,55	235,00
-143,30	322,00
-136,06	268,00
-128,82	424,00
-121,60	472,00
-114,38	486,00
-107,17	503,00
-99,97	509,00
-92,78	763,00
-85,60	823,00
-78,42	963,00
-71,25	1076,00
-64,10	1238,00
-56,95	1576,00
-49,81	1759,00
-42,67	2163,00
-35,55	2721,00
-28,43	3504,00
-21,33	6017,00
-14,23	18838,00
-7,14	56043,00
-0,05	55763,00
7,02	55513,00
14,09	55717,00
21,14	19314,00
28,19	7732,00
35,23	4818,00
42,27	3507,00
49,29	2873,00
56,31	2565,00
63,32	1992,00
70,32	1708,00
77,31	1464,00
84,29	1276,00
91,27	1156,00
98,23	1065,00
105,19	981,00
112,14	1054,00
119,09	1704,00
126,02	2919,00
132,95	3505,00
139,87	3735,00
146,78	3566,00
153,68	3697,00
160,58	3535,00
167,46	3570,00
174,34	3462,00
181,21	3544,00
188,08	3468,00
194,93	3474,00
201,78	3624,00
208,62	3591,00
215,45	3582,00
222,27	3466,00
229,09	3586,00
235,90	3558,00
242,70	3571,00
249,49	3313,00
256,27	3300,00
263,05	3261,00
269,82	3518,00
276,58	3425,00
283,33	3357,00
290,08	3365,00
296,82	3272,00
303,55	3325,00
310,27	3256,00
316,98	3094,00
323,69	3263,00
330,39	3244,00
337,08	3251,00
343,76	3318,00
350,44	3277,00
357,11	3386,00
363,77	3279,00
370,42	3271,00
377,07	3204,00
383,71	3292,00
390,34	3352,00
396,96	3436,00
403,58	3284,00
410,19	3229,00
416,79	3351,00
423,38	3471,00
429,97	3390,00
436,55	3246,00
443,12	3162,00
449,68	3187,00
456,24	3174,00
462,79	3204,00
469,33	3192,00
475,86	3269,00
482,39	3306,00
488,91	3290,00
495,42	3131,00
501,93	3172,00
508,42	3163,00
514,91	3213,00
521,40	3124,00
527,87	3153,00
534,34	3211,00
540,80	3070,00
547,25	3171,00
553,70	3217,00
560,14	3086,00
566,57	3222,00
573,00	3181,00
579,41	3134,00
585,83	3334,00
592,23	3175,00
598,62	3042,00
605,01	3104,00
611,40	3091,00
617,77	3288,00
624,14	3158,00
630,50	3163,00
636,85	3247,00
643,20	3123,00
649,54	3278,00
655,87	3182,00
662,20	3194,00
668,52	3065,00
674,83	3217,00
681,13	3255,00
687,43	3091,00
693,72	3057,00
700,00	3065,00
706,28	3159,00
712,55	3189,00
718,81	3214,00
725,07	3137,00
731,32	3107,00
737,56	3261,00
743,79	3216,00
750,02	3204,00
756,24	3278,00
762,46	3260,00
768,67	3225,00
774,87	3159,00
781,06	3361,00
787,25	3259,00
793,43	3336,00
799,60	3319,00
805,77	3267,00
811,93	3310,00
818,08	3273,00
824,23	3451,00
830,37	3271,00
836,50	3228,00
842,63	3357,00
848,75	3449,00
854,87	3233,00
860,97	3342,00
867,07	3379,00
873,17	3317,00
879,25	3207,00
885,33	3340,00
891,41	3318,00
897,47	3354,00
903,53	3291,00
909,59	3294,00
915,63	3311,00
921,67	3276,00
927,71	3296,00
933,74	3292,00
939,76	3311,00
945,77	3230,00
951,78	3400,00
957,78	3379,00
963,78	3292,00
969,77	3382,00
975,75	3423,00
981,72	3332,00
987,69	3398,00
993,66	3410,00
999,61	3308,00
1005,56	3424,00
1011,51	3491,00
1017,44	3516,00
1023,37	3415,00
1029,30	3393,00
1035,22	3490,00
1041,13	3512,00
1047,03	3509,00
1052,93	3881,00
1058,83	4453,00
1064,71	4689,00
1070,59	4285,00
1076,47	3824,00
1082,33	3772,00
1088,20	3661,00
1094,05	3670,00
1099,90	3617,00
1105,74	3643,00
1111,58	3738,00
1117,41	3765,00
1123,23	4184,00
1129,05	4844,00
1134,86	4646,00
1140,67	4144,00
1146,47	3807,00
1152,26	3914,00
1158,05	3601,00
1163,83	3676,00
1169,60	3730,00
1175,37	3581,00
1181,13	3570,00
1186,89	3638,00
1192,64	3481,00
1198,38	3556,00
1204,12	3498,00
1209,85	3479,00
1215,58	3465,00
1221,30	3520,00
1227,02	3631,00
1232,72	3710,00
1238,43	3651,00
1244,12	3641,00
1249,81	3546,00
1255,50	3667,00
1261,17	3652,00
1266,85	3644,00
1272,51	3851,00
1278,17	3834,00
1283,83	4106,00
1289,47	4776,00
1295,12	5470,00
1300,75	5213,00
1306,38	4610,00
1312,01	4177,00
1317,63	3989,00
1323,24	3972,00
1328,85	3902,00
1334,45	3916,00
1340,04	3878,00
1345,63	3809,00
1351,22	3809,00
1356,80	3811,00
1362,37	3782,00
1367,93	4014,00
1373,49	3938,00
1379,05	4020,00
1384,60	3970,00
1390,14	3837,00
1395,68	3852,00
1401,21	4055,00
1406,74	4125,00
1412,26	4310,00
1417,77	4409,00
1423,28	4536,00
1428,78	4660,00
1434,28	5072,00
1439,77	5517,00
1445,26	5441,00
1450,74	5290,00
1456,22	4990,00
1461,68	4924,00
1467,15	4796,00
1472,61	4522,00
1478,06	4323,00
1483,51	3893,00
1488,95	3884,00
1494,38	3845,00
1499,81	3755,00
1505,24	3693,00
1510,65	3633,00
1516,07	3589,00
1521,48	3573,00
1526,88	3611,00
1532,27	3592,00
1537,67	3429,00
1543,05	3542,00
1548,43	3597,00
1553,81	3480,00
1559,18	3290,00
1564,54	3583,00
1569,90	3501,00
1575,25	3398,00
1580,60	3545,00
1585,94	3557,00
1591,28	3493,00
1596,61	3551,00
1601,93	3612,00
1607,25	3491,00
1612,57	3432,00
1617,88	3531,00
1623,18	3525,00
1628,48	3425,00
1633,77	3464,00
1639,06	3477,00
1644,34	3352,00
1649,62	3361,00
1654,89	3308,00
1660,16	3294,00
1665,42	3231,00
1670,67	3289,00
1675,92	3325,00
1681,17	3221,00
1686,41	3238,00
1691,64	3308,00
1696,87	3365,00
1702,10	3204,00
1707,32	3253,00
1712,53	3191,00
1717,74	3144,00
1722,94	3214,00
1728,14	3102,00
1733,33	3152,00
1738,52	3098,00
1743,70	3134,00
1748,88	3176,00
1754,05	3009,00
1759,22	3165,00
1764,38	2971,00
1769,53	3089,00
1774,69	2851,00
1779,83	3045,00
1784,97	2925,00
1790,11	3035,00
1795,24	2927,00
1800,36	2895,00
1805,48	2950,00
1810,60	2969,00
1815,71	2929,00
1820,82	2880,00
1825,92	2857,00
1831,01	2879,00
1836,10	3031,00
1841,19	3041,00
1846,26	2889,00
1851,34	2850,00
1856,41	2981,00
1861,47	2968,00
1866,53	2840,00
1871,59	2999,00
1876,64	2934,00
1881,68	2892,00
1886,72	2917,00
1891,76	2899,00
1896,79	2918,00
1901,81	2748,00
1906,83	2703,00
1911,85	2704,00
1916,86	2791,00
1921,86	2694,00
1926,86	2782,00
1931,86	2548,00
1936,85	2600,00
1941,83	2668,00
1946,81	2620,00
1951,79	2655,00
1956,76	2497,00
1961,72	2523,00
1966,68	2551,00
1971,64	2512,00
1976,59	2461,00
1981,54	2585,00
1986,48	2549,00
1991,42	2501,00
1996,35	2522,00
2001,27	2494,00
2006,20	2506,00
2011,11	2349,00
2016,03	2611,00
2020,93	2397,00
2025,84	2388,00
2030,73	2491,00
2035,63	2358,00
2040,52	2389,00
2045,40	2445,00
2050,28	2468,00
2055,15	2472,00
2060,02	2410,00
2064,89	2406,00
2069,75	2288,00
2074,60	2437,00
2079,46	2348,00
2084,30	2542,00
2089,14	2340,00
2093,98	2384,00
2098,81	2388,00
2103,64	2483,00
2108,46	2391,00
2113,28	2410,00
2118,09	2376,00
2122,90	2349,00
2127,70	2487,00
2132,50	2426,00
2137,30	2313,00
2142,09	2259,00
2146,87	2358,00
2151,66	2251,00
2156,43	2214,00
2161,20	2363,00
2165,97	2237,00
2170,73	2330,00
2175,49	2242,00
2180,24	2339,00
2184,99	2365,00
2189,74	2171,00
2194,48	2228,00
2199,21	2184,00
2203,94	2133,00
2208,67	2156,00
2213,39	2177,00
2218,11	2177,00
2222,82	2067,00
2227,53	2099,00
2232,23	2055,00
2236,93	2179,00
2241,63	2055,00
2246,32	2126,00
2251,00	1921,00
2255,68	2134,00
2260,36	2071,00
2265,03	1922,00
2269,70	2089,00
2274,36	2099,00
2279,02	2071,00
2283,68	1919,00
2288,33	2006,00
2292,97	2147,00
2297,61	1998,00
2302,25	1894,00
2306,88	1980,00
2311,51	1903,00
2316,14	2028,00
2320,75	1994,00
2325,37	1869,00
2329,98	1919,00
2334,59	1961,00
2339,19	1995,00
2343,79	1786,00
2348,38	1865,00
2352,97	1855,00
2357,55	1939,00
2362,13	1895,00
2366,71	1923,00
2371,28	1985,00
2375,85	1750,00
2380,41	1839,00
2384,97	1857,00
2389,52	1810,00
2394,07	1788,00
2398,62	1735,00
2403,16	1741,00
2407,70	1673,00
2412,23	1627,00
2416,76	1775,00
2421,29	1699,00
2425,81	1593,00
2430,32	1815,00
2434,84	1746,00
2439,34	1725,00
2443,85	1680,00
2448,35	1678,00
2452,84	1688,00
2457,33	1512,00
2461,82	1695,00
2466,30	1584,00
2470,78	1537,00
2475,25	1600,00
2479,72	1465,00
2484,19	1597,00
2488,65	1484,00
2493,11	1576,00
2497,56	1573,00
2502,01	1497,00
2506,46	1489,00
2510,90	1476,00
2515,34	1445,00
2519,77	1548,00
2524,20	1477,00
2528,62	1544,00
2533,04	1452,00
2537,46	1499,00
2541,87	1508,00
2546,28	1480,00
2550,68	1499,00
2555,08	1428,00
2559,48	1468,00
2563,87	1407,00
2568,26	1476,00
2572,64	1387,00
2577,02	1387,00
2581,40	1425,00
2585,77	1287,00
2590,14	1344,00
2594,50	1318,00
2598,86	1347,00
2603,22	1302,00
2607,57	1371,00
2611,92	1305,00
2616,26	1285,00
2620,60	1374,00
2624,94	1297,00
2629,27	1238,00
2633,60	1303,00
2637,92	1312,00
2642,24	1196,00
2646,56	1331,00
2650,87	1273,00
2655,18	1269,00
2659,48	1278,00
2663,78	1272,00
2668,08	1229,00
2672,37	1349,00
2676,66	1342,00
2680,95	1277,00
2685,23	1210,00
2689,50	1204,00
2693,78	1238,00
2698,05	1351,00
2702,31	1249,00
2706,57	1295,00
2710,83	1260,00
2715,08	1366,00
2719,33	1272,00
2723,58	1373,00
2727,82	1404,00
2732,06	1342,00
2736,29	1269,00
2740,53	1276,00
2744,75	1227,00
2748,97	1336,00
2753,19	1313,00
2757,41	1256,00
2761,62	1188,00
2765,83	1221,00
2770,03	1137,00
2774,23	1100,00
2778,43	1191,00
2782,62	1195,00
2786,81	1252,00
2791,00	1273,00
2795,18	1318,00
2799,35	1233,00
2803,53	1304,00
2807,70	1392,00
2811,86	1372,00
2816,03	1320,00
2820,19	1343,00
2824,34	1453,00
2828,49	1590,00
2832,64	1748,00
2836,78	1953,00
2840,92	2389,00
2845,06	2740,00
2849,19	3010,00
2853,32	3087,00
2857,45	2958,00
2861,57	2927,00
2865,69	2888,00
2869,80	2714,00
2873,91	2790,00
2878,02	3098,00
2882,12	3225,00
2886,22	3341,00
2890,32	3066,00
2894,41	2881,00
2898,50	2692,00
2902,58	2510,00
2906,67	2445,00
2910,74	2265,00
2914,82	2088,00
2918,89	1929,00
2922,96	1934,00
2927,02	1830,00
2931,08	1637,00
2935,13	1477,00
2939,19	1380,00
2943,24	1397,00
2947,28	1418,00
2951,32	1174,00
2955,36	1147,00
2959,40	966,00
2963,43	1036,00
2967,46	876,00
2971,48	922,00
2975,50	953,00
2979,52	788,00
2983,53	905,00
2987,54	769,00
2991,55	772,00
2995,55	750,00
2999,55	717,00
3003,54	728,00
3007,54	627,00
3011,53	628,00
3015,51	658,00
3019,49	829,00
3023,47	598,00
3027,45	665,00
3031,42	695,00
3035,39	582,00
3039,35	512,00
3043,31	496,00
3047,27	636,00
3051,22	525,00
3055,17	604,00
3059,12	595,00
3063,06	623,00
3067,00	665,00
3070,94	574,00
3074,87	517,00
3078,80	525,00
3082,73	588,00
3086,65	524,00
3090,57	481,00
3094,49	596,00
3098,40	533,00
3102,31	468,00
3106,22	522,00
3110,12	475,00
3114,02	367,00
3117,92	371,00
3121,81	497,00
3125,70	482,00
3129,58	430,00
3133,47	381,00
3137,34	391,00
3141,22	357,00
3145,09	540,00
3148,96	339,00
3152,83	462,00
3156,69	462,00
3160,55	387,00
3164,40	433,00
3168,26	487,00
3172,10	432,00
3175,95	422,00
3179,79	402,00
3183,63	426,00
3187,47	393,00
3191,30	187,00
3195,13	318,00
3198,95	372,00
3202,78	338,00
3206,60	321,00
3210,41	342,00
3214,23	314,00
3218,03	346,00
3221,84	245,00
3225,64	327,00
3229,44	271,00
3233,24	301,00
3237,03	357,00
3240,82	336,00
3244,61	233,00
3248,39	279,00
3252,17	273,00
3255,95	314,00
3259,72	308,00
3263,49	273,00
3267,26	281,00
3271,03	382,00
3274,79	275,00
3278,54	279,00
3282,30	294,00
3286,05	292,00
3289,80	198,00
3293,54	278,00
3297,29	279,00
3301,02	309,00
3304,76	229,00
3308,49	231,00
3312,22	290,00
3315,95	245,00
3319,67	253,00
3323,39	276,00
3327,10	153,00
3330,82	336,00
3334,53	218,00
3338,24	234,00
3341,94	209,00
3345,64	244,00
3349,34	233,00
3353,03	255,00
3356,72	297,00
3360,41	227,00
3364,10	167,00
3367,78	270,00
3371,46	227,00
3375,13	237,00
3378,81	267,00
3382,48	155,00
3386,14	119,00
3389,81	147,00
3393,47	118,00
3397,12	142,00
3400,78	104,00
3404,43	137,00
3408,08	106,00
3411,72	138,00
3415,36	180,00
3419,00	92,00
3422,64	260,00
3426,27	151,00
3429,90	265,00
3433,53	116,00
3437,15	-3,00
3440,77	119,00
3444,39	192,00
3448,00	182,00
3451,62	7,00
3455,22	109,00
3458,83	126,00
3462,43	56,00
3466,03	141,00
3469,63	137,00
3473,22	158,00
3476,81	131,00
3480,40	-30,00
3483,99	64,00
3487,57	114,00
3491,15	50,00
3494,72	126,00
3498,29	186,00
3501,86	108,00
3505,43	85,00
3508,99	38,00
3512,56	47,00
3516,11	73,00
3519,67	66,00
3523,22	65,00
3526,77	177,00
3530,32	61,00
3533,86	80,00
3537,40	-45,00
3540,94	54,00
3544,47	66,00
3548,00	95,00
3551,53	47,00
3555,06	-4,00
3558,58	142,00
3562,10	73,00
3565,62	115,00
3569,13	-37,00
3572,64	81,00
3576,15	74,00
3579,66	8,00
3583,16	77,00
3586,66	71,00
3590,16	47,00
3593,65	-50,00
3597,14	-7,00
3600,63	-2,00
3604,11	22,00
3607,60	-76,00
3611,08	-42,00
3614,55	40,00
3618,03	38,00
3621,50	-87,00
3624,97	1,00
3628,43	-9,00
3631,90	92,00
3635,36	30,00
3638,81	87,00
3642,27	54,00
3645,72	23,00
3649,17	62,00
3652,61	-9,00
3656,06	-5,00
3659,50	46,00
3662,93	39,00
3666,37	85,00
3669,80	13,00
3673,23	138,00
3676,65	38,00
3680,08	-43,00
3683,50	46,00
3686,92	11,00
3690,33	14,00
3693,74	17,00
3697,15	123,00
3700,56	-12,00
3703,96	41,00
3707,36	-79,00
3710,76	-30,00
3714,16	77,00
3717,55	127,00
3720,94	14,00
3724,33	42,00
3727,71	-125,00
3731,10	-24,00
3734,48	20,00
3737,85	-7,00
3741,23	-35,00
3744,60	45,00
3747,97	40,00
3751,33	-25,00
3754,69	-52,00
3758,05	18,00
3761,41	26,00
3764,77	69,00
3768,12	-43,00
3771,47	-18,00
3774,82	47,00
3778,16	3,00
3781,50	4,00
3784,84	9,00
3788,18	-3,00
>>>>>End Processed Spectral Data<<<<<
