SpectraSuite Data File
++++++++++++++++++++++++++++++++++++
Date: Wed Feb 11 17:00:29 ICT 2026
User: Administrator
Dark Spectrum Present: Yes
Reference Spectrum Present: No
Number of Sampled Component Spectra: 1
Spectrometers: MAYP113682
Integration Time (usec): 3000000 (MAYP113682)
Spectra Averaged: 1 (MAYP113682)
Boxcar Smoothing: 0 (MAYP113682)
Correct for Electrical Dark: No (MAYP113682)
Strobe/Lamp Enabled: No (MAYP113682)
Correct for Detector Non-linearity: No (MAYP113682)
Correct for Stray Light: No (MAYP113682)
Number of Pixels in Processed Spectrum: 2068
>>>>>Begin Processed Spectral Data<<<<<
-37534,58	6,00
-37414,56	1,00
-37295,11	2,00
-37176,24	5,00
-37057,95	64,00
-36940,22	-50,00
-36823,05	14,00
-36706,45	44,00
-36590,40	57,00
-36474,90	48,00
-36359,95	-70,00
-36245,55	25,00
-36131,68	10,00
-36018,35	51,00
-35905,55	137,00
-35793,29	107,00
-35681,54	29,00
-35570,32	71,00
-35459,62	41,00
-35349,43	-19,00
-35239,75	89,00
-35130,58	57,00
-35021,91	29,00
-34913,74	-65,00
-34806,07	-75,00
-34698,89	-129,00
-34592,20	18,00
-34486,00	17,00
-34380,28	56,00
-34275,04	-105,00
-34170,27	-60,00
-34065,98	-72,00
-33962,16	-15,00
-33858,81	14,00
-33755,92	14,00
-33653,49	-61,00
-33551,52	-48,00
-33450,01	-39,00
-33348,94	40,00
-33248,33	-25,00
-33148,16	35,00
-33048,43	18,00
-32949,14	-19,00
-32850,29	-29,00
-32751,87	67,00
-32653,89	-37,00
-32556,33	-88,00
-32459,20	26,00
-32362,49	130,00
-32266,19	-98,00
-32170,32	-20,00
-32074,86	-40,00
-31979,82	33,00
-31885,18	81,00
-31790,95	7,00
-31697,12	65,00
-31603,69	4,00
-31510,67	-10,00
-31418,04	48,00
-31325,80	58,00
-31233,95	91,00
-31142,49	7,00
-31051,42	-16,00
-30960,73	32,00
-30870,43	25,00
-30780,50	10,00
-30690,95	3,00
-30601,77	74,00
-30512,97	-10,00
-30424,53	73,00
-30336,46	45,00
-30248,76	75,00
-30161,42	11,00
-30074,44	39,00
-29987,81	-2,00
-29901,55	25,00
-29815,63	22,00
-29730,07	80,00
-29644,86	4,00
-29560,00	48,00
-29475,48	-3,00
-29391,30	4,00
-29307,47	37,00
-29223,97	6,00
-29140,81	-74,00
-29057,99	81,00
-28975,50	35,00
-28893,34	-58,00
-28811,51	-63,00
-28730,00	50,00
-28648,82	24,00
-28567,97	94,00
-28487,43	-41,00
-28407,21	-126,00
-28327,32	-52,00
-28247,73	-24,00
-28168,46	50,00
-28089,50	-10,00
-28010,85	-14,00
-27932,51	32,00
-27854,48	-10,00
-27776,75	-5,00
-27699,32	-40,00
-27622,19	120,00
-27545,37	-8,00
-27468,84	-52,00
-27392,60	113,00
-27316,66	0,00
-27241,01	-2,00
-27165,66	67,00
-27090,59	-44,00
-27015,81	-44,00
-26941,31	57,00
-26867,10	57,00
-26793,17	-15,00
-26719,52	68,00
-26646,15	-43,00
-26573,06	32,00
-26500,24	-5,00
-26427,70	-69,00
-26355,43	96,00
-26283,43	53,00
-26211,71	3,00
-26140,25	87,00
-26069,06	111,00
-25998,13	92,00
-25927,46	-1,00
-25857,06	-35,00
-25786,92	71,00
-25717,04	41,00
-25647,42	-38,00
-25578,05	1,00
-25508,94	-67,00
-25440,09	-32,00
-25371,48	-7,00
-25303,13	60,00
-25235,02	35,00
-25167,17	51,00
-25099,56	62,00
-25032,19	39,00
-24965,07	-121,00
-24898,20	109,00
-24831,56	29,00
-24765,17	45,00
-24699,01	-2,00
-24633,10	8,00
-24567,41	-11,00
-24501,97	57,00
-24436,75	33,00
-24371,77	-18,00
-24307,03	52,00
-24242,51	-26,00
-24178,22	-53,00
-24114,16	14,00
-24050,32	29,00
-23986,71	28,00
-23923,32	44,00
-23860,16	-28,00
-23797,22	-30,00
-23734,50	23,00
-23672,00	79,00
-23609,71	5,00
-23547,65	64,00
-23485,80	89,00
-23424,16	0,00
-23362,74	-3,00
-23301,53	-26,00
-23240,54	-10,00
-23179,75	39,00
-23119,17	67,00
-23058,80	-19,00
-22998,64	48,00
-22938,68	-11,00
-22878,93	-5,00
-22819,39	-88,00
-22760,04	75,00
-22700,90	-46,00
-22641,96	38,00
-22583,22	9,00
-22524,68	10,00
-22466,33	-67,00
-22408,19	25,00
-22350,23	62,00
-22292,48	-16,00
-22234,92	38,00
-22177,55	-117,00
-22120,37	131,00
-22063,38	63,00
-22006,58	75,00
-21949,98	56,00
-21893,56	65,00
-21837,33	19,00
-21781,28	-76,00
-21725,42	24,00
-21669,74	30,00
-21614,25	108,00
-21558,94	57,00
-21503,81	11,00
-21448,86	-132,00
-21394,10	70,00
-21339,51	55,00
-21285,10	-43,00
-21230,86	-37,00
-21176,81	-30,00
-21122,93	25,00
-21069,22	-62,00
-21015,69	-23,00
-20962,33	52,00
-20909,14	-2,00
-20856,13	117,00
-20803,28	39,00
-20750,61	26,00
-20698,10	40,00
-20645,76	104,00
-20593,59	73,00
-20541,59	-25,00
-20489,75	119,00
-20438,07	21,00
-20386,56	92,00
-20335,22	0,00
-20284,03	33,00
-20233,01	109,00
-20182,15	56,00
-20131,45	-17,00
-20080,91	19,00
-20030,52	-42,00
-19980,30	-5,00
-19930,23	19,00
-19880,32	113,00
-19830,56	41,00
-19780,96	-35,00
-19731,52	68,00
-19682,23	126,00
-19633,09	-82,00
-19584,10	-34,00
-19535,26	49,00
-19486,58	161,00
-19438,04	125,00
-19389,66	-29,00
-19341,42	15,00
-19293,33	-79,00
-19245,39	51,00
-19197,60	-9,00
-19149,95	-15,00
-19102,45	4,00
-19055,09	50,00
-19007,87	-66,00
-18960,80	141,00
-18913,87	131,00
-18867,09	-3,00
-18820,44	23,00
-18773,94	47,00
-18727,57	-6,00
-18681,35	74,00
-18635,26	24,00
-18589,31	53,00
-18543,50	25,00
-18497,83	42,00
-18452,29	31,00
-18406,89	-14,00
-18361,63	-1,00
-18316,50	-25,00
-18271,50	-94,00
-18226,63	-46,00
-18181,90	154,00
-18137,30	78,00
-18092,84	84,00
-18048,50	109,00
-18004,29	48,00
-17960,22	59,00
-17916,27	49,00
-17872,45	10,00
-17828,76	12,00
-17785,20	81,00
-17741,77	52,00
-17698,46	-21,00
-17655,28	38,00
-17612,22	35,00
-17569,29	4,00
-17526,48	105,00
-17483,79	91,00
-17441,23	-43,00
-17398,79	-3,00
-17356,48	51,00
-17314,28	85,00
-17272,21	99,00
-17230,26	-22,00
-17188,42	56,00
-17146,71	20,00
-17105,12	-45,00
-17063,64	56,00
-17022,28	-17,00
-16981,04	121,00
-16939,92	-56,00
-16898,91	62,00
-16858,02	7,00
-16817,25	-152,00
-16776,59	37,00
-16736,04	-2,00
-16695,61	1,00
-16655,29	45,00
-16615,09	-45,00
-16574,99	109,00
-16535,01	4,00
-16495,15	57,00
-16455,39	101,00
-16415,74	-54,00
-16376,21	41,00
-16336,78	54,00
-16297,46	100,00
-16258,26	70,00
-16219,16	-35,00
-16180,17	31,00
-16141,28	-36,00
-16102,51	21,00
-16063,84	28,00
-16025,27	37,00
-15986,82	-39,00
-15948,46	81,00
-15910,22	-1,00
-15872,07	-12,00
-15834,04	-23,00
-15796,10	82,00
-15758,27	28,00
-15720,54	48,00
-15682,91	-37,00
-15645,39	30,00
-15607,97	-36,00
-15570,64	25,00
-15533,42	26,00
-15496,30	-53,00
-15459,28	19,00
-15422,36	22,00
-15385,54	-10,00
-15348,82	26,00
-15312,19	0,00
-15275,66	-49,00
-15239,23	0,00
-15202,90	8,00
-15166,67	-57,00
-15130,53	-73,00
-15094,48	-8,00
-15058,54	75,00
-15022,68	83,00
-14986,93	44,00
-14951,26	79,00
-14915,69	24,00
-14880,22	113,00
-14844,84	67,00
-14809,55	30,00
-14774,35	-8,00
-14739,25	-26,00
-14704,24	31,00
-14669,32	-25,00
-14634,49	102,00
-14599,75	64,00
-14565,10	-32,00
-14530,55	-6,00
-14496,08	10,00
-14461,70	-44,00
-14427,41	-28,00
-14393,21	-108,00
-14359,10	-13,00
-14325,07	5,00
-14291,14	65,00
-14257,29	-10,00
-14223,52	44,00
-14189,85	-66,00
-14156,26	89,00
-14122,76	18,00
-14089,34	27,00
-14056,01	-80,00
-14022,76	-3,00
-13989,60	-84,00
-13956,52	-72,00
-13923,53	4,00
-13890,62	2,00
-13857,79	-40,00
-13825,05	39,00
-13792,39	15,00
-13759,81	35,00
-13727,31	1,00
-13694,90	24,00
-13662,57	90,00
-13630,31	20,00
-13598,14	-23,00
-13566,05	75,00
-13534,05	3,00
-13502,12	93,00
-13470,27	-8,00
-13438,50	-18,00
-13406,80	42,00
-13375,19	-19,00
-13343,66	-50,00
-13312,20	44,00
-13280,83	-8,00
-13249,53	77,00
-13218,30	-27,00
-13187,16	0,00
-13156,09	-37,00
-13125,10	42,00
-13094,18	-14,00
-13063,34	-19,00
-13032,58	6,00
-13001,89	6,00
-12971,28	41,00
-12940,74	23,00
-12910,27	0,00
-12879,88	51,00
-12849,57	30,00
-12819,33	9,00
-12789,16	0,00
-12759,06	-14,00
-12729,04	74,00
-12699,09	0,00
-12669,21	61,00
-12639,41	2,00
-12609,68	-22,00
-12580,02	27,00
-12550,43	-80,00
-12520,91	43,00
-12491,46	28,00
-12462,08	12,00
-12432,77	27,00
-12403,54	-3,00
-12374,37	127,00
-12345,27	-40,00
-12316,24	102,00
-12287,29	45,00
-12258,40	21,00
-12229,57	76,00
-12200,82	34,00
-12172,14	38,00
-12143,52	73,00
-12114,97	-13,00
-12086,49	138,00
-12058,07	-18,00
-12029,73	58,00
-12001,44	80,00
-11973,23	28,00
-11945,08	-86,00
-11917,00	119,00
-11888,98	31,00
-11861,03	-63,00
-11833,15	98,00
-11805,32	111,00
-11777,57	61,00
-11749,88	12,00
-11722,25	-25,00
-11694,69	43,00
-11667,19	-46,00
-11639,75	58,00
-11612,38	23,00
-11585,07	-13,00
-11557,83	49,00
-11530,65	-75,00
-11503,53	103,00
-11476,47	-8,00
-11449,48	-43,00
-11422,54	26,00
-11395,67	37,00
-11368,86	87,00
-11342,11	5,00
-11315,43	46,00
-11288,80	-7,00
-11262,23	49,00
-11235,73	-14,00
-11209,28	43,00
-11182,90	106,00
-11156,57	104,00
-11130,31	48,00
-11104,10	64,00
-11077,96	58,00
-11051,87	21,00
-11025,84	39,00
-10999,87	-31,00
-10973,96	40,00
-10948,11	51,00
-10922,31	-2,00
-10896,58	103,00
-10870,90	-21,00
-10845,28	85,00
-10819,71	134,00
-10794,20	51,00
-10768,75	40,00
-10743,36	2,00
-10718,02	85,00
-10692,74	117,00
-10667,52	-31,00
-10642,35	59,00
-10617,24	59,00
-10592,18	81,00
-10567,18	133,00
-10542,23	160,00
-10517,34	120,00
-10492,51	157,00
-10467,72	67,00
-10443,00	87,00
-10418,32	253,00
-10393,70	132,00
-10369,14	137,00
-10344,63	138,00
-10320,17	225,00
-10295,77	276,00
-10271,42	226,00
-10247,12	235,00
-10222,88	321,00
-10198,68	278,00
-10174,54	320,00
-10150,46	326,00
-10126,42	307,00
-10102,44	276,00
-10078,51	277,00
-10054,63	329,00
-10030,80	370,00
-10007,03	344,00
-9983,30	384,00
-9959,63	553,00
-9936,01	418,00
-9912,44	435,00
-9888,92	451,00
-9865,44	507,00
-9842,02	592,00
-9818,65	679,00
-9795,33	654,00
-9772,06	648,00
-9748,84	616,00
-9725,67	725,00
-9702,55	858,00
-9679,47	984,00
-9656,45	1075,00
-9633,47	1006,00
-9610,55	1184,00
-9587,67	1327,00
-9564,84	1237,00
-9542,06	1622,00
-9519,32	1712,00
-9496,64	1885,00
-9474,00	2127,00
-9451,41	2060,00
-9428,87	2101,00
-9406,37	2102,00
-9383,92	1969,00
-9361,52	2066,00
-9339,17	2144,00
-9316,86	2543,00
-9294,60	2809,00
-9272,38	3140,00
-9250,21	3451,00
-9228,09	3624,00
-9206,01	3512,00
-9183,98	3338,00
-9162,00	2998,00
-9140,06	2977,00
-9118,16	2910,00
-9096,31	2996,00
-9074,51	3373,00
-9052,75	3287,00
-9031,04	3221,00
-9009,37	2798,00
-8987,74	2444,00
-8966,16	2244,00
-8944,63	1995,00
-8923,14	1845,00
-8901,69	2081,00
-8880,29	2263,00
-8858,93	2437,00
-8837,61	2601,00
-8816,34	2819,00
-8795,11	2852,00
-8773,92	2563,00
-8752,78	2314,00
-8731,68	2195,00
-8710,62	2247,00
-8689,61	2367,00
-8668,63	2536,00
-8647,70	2664,00
-8626,82	2729,00
-8605,97	2511,00
-8585,17	2282,00
-8564,41	2114,00
-8543,69	2054,00
-8523,01	1940,00
-8502,37	2013,00
-8481,78	2163,00
-8461,23	2329,00
-8440,71	2402,00
-8420,24	2655,00
-8399,81	2820,00
-8379,42	2685,00
-8359,08	2509,00
-8338,77	2230,00
-8318,50	2132,00
-8298,27	2079,00
-8278,09	2074,00
-8257,94	2217,00
-8237,83	2451,00
-8217,76	2462,00
-8197,74	2571,00
-8177,75	2418,00
-8157,80	2258,00
-8137,89	2048,00
-8118,02	1792,00
-8098,19	1938,00
-8078,40	2009,00
-8058,65	2008,00
-8038,93	2060,00
-8019,26	1934,00
-7999,62	1893,00
-7980,02	1821,00
-7960,46	1607,00
-7940,94	1639,00
-7921,46	1657,00
-7902,01	1654,00
-7882,60	1512,00
-7863,23	1543,00
-7843,90	1667,00
-7824,61	1689,00
-7805,35	1835,00
-7786,13	1872,00
-7766,95	1737,00
-7747,80	1679,00
-7728,69	1512,00
-7709,62	1625,00
-7690,59	1656,00
-7671,59	1908,00
-7652,63	1914,00
-7633,70	1880,00
-7614,81	1847,00
-7595,96	1573,00
-7577,15	1421,00
-7558,37	1479,00
-7539,62	1497,00
-7520,91	1599,00
-7502,24	1736,00
-7483,60	1833,00
-7465,00	1546,00
-7446,44	1360,00
-7427,91	1310,00
-7409,41	1062,00
-7390,95	1107,00
-7372,53	995,00
-7354,14	997,00
-7335,78	1027,00
-7317,46	1114,00
-7299,18	1201,00
-7280,92	1369,00
-7262,71	1611,00
-7244,52	1613,00
-7226,38	1667,00
-7208,26	1637,00
-7190,18	1587,00
-7172,14	1361,00
-7154,12	1342,00
-7136,15	1397,00
-7118,20	1558,00
-7100,29	1618,00
-7082,41	1622,00
-7064,57	1574,00
-7046,76	1428,00
-7028,98	1317,00
-7011,24	924,00
-6993,53	955,00
-6975,85	927,00
-6958,20	636,00
-6940,59	750,00
-6923,01	814,00
-6905,46	990,00
-6887,94	962,00
-6870,46	1293,00
-6853,01	1456,00
-6835,59	1472,00
-6818,21	1311,00
-6800,85	1076,00
-6783,53	825,00
-6766,24	695,00
-6748,98	633,00
-6731,76	639,00
-6714,56	436,00
-6697,40	594,00
-6680,26	504,00
-6663,16	661,00
-6646,09	757,00
-6629,05	992,00
-6612,05	1168,00
-6595,07	1091,00
-6578,13	1036,00
-6561,21	807,00
-6544,33	545,00
-6527,47	429,00
-6510,65	576,00
-6493,86	393,00
-6477,10	297,00
-6460,36	567,00
-6443,66	598,00
-6426,99	421,00
-6410,35	464,00
-6393,74	576,00
-6377,16	632,00
-6360,61	674,00
-6344,09	797,00
-6327,59	771,00
-6311,13	803,00
-6294,70	791,00
-6278,29	840,00
-6261,92	991,00
-6245,58	940,00
-6229,26	1096,00
-6212,97	911,00
-6196,72	750,00
-6180,49	503,00
-6164,29	315,00
-6148,12	266,00
-6131,98	177,00
-6115,86	357,00
-6099,78	187,00
-6083,72	172,00
-6067,69	242,00
-6051,69	277,00
-6035,72	224,00
-6019,78	449,00
-6003,87	479,00
-5987,98	599,00
-5972,12	720,00
-5956,29	777,00
-5940,49	602,00
-5924,71	465,00
-5908,96	269,00
-5893,24	240,00
-5877,55	284,00
-5861,89	316,00
-5846,25	319,00
-5830,64	323,00
-5815,05	263,00
-5799,50	395,00
-5783,97	302,00
-5768,47	483,00
-5752,99	557,00
-5737,55	633,00
-5722,12	772,00
-5706,73	732,00
-5691,36	681,00
-5676,02	345,00
-5660,71	281,00
-5645,42	294,00
-5630,16	210,00
-5614,92	401,00
-5599,71	609,00
-5584,53	549,00
-5569,37	529,00
-5554,24	1309,00
-5539,14	476,00
-5524,06	337,00
-5509,01	343,00
-5493,98	495,00
-5478,98	509,00
-5464,00	360,00
-5449,05	535,00
-5434,13	343,00
-5419,23	266,00
-5404,36	309,00
-5389,51	352,00
-5374,69	592,00
-5359,89	794,00
-5345,12	843,00
-5330,37	713,00
-5315,65	691,00
-5300,95	450,00
-5286,28	463,00
-5271,63	361,00
-5257,01	418,00
-5242,41	425,00
-5227,84	226,00
-5213,29	333,00
-5198,76	172,00
-5184,26	161,00
-5169,79	279,00
-5155,33	356,00
-5140,91	383,00
-5126,51	525,00
-5112,13	511,00
-5097,77	436,00
-5083,44	261,00
-5069,13	239,00
-5054,85	290,00
-5040,59	473,00
-5026,36	507,00
-5012,15	385,00
-4997,96	469,00
-4983,80	353,00
-4969,66	174,00
-4955,54	320,00
-4941,44	346,00
-4927,37	583,00
-4913,33	805,00
-4899,30	832,00
-4885,30	713,00
-4871,33	503,00
-4857,37	359,00
-4843,44	246,00
-4829,53	55,00
-4815,65	329,00
-4801,79	288,00
-4787,95	335,00
-4774,13	234,00
-4760,34	272,00
-4746,56	-6,00
-4732,82	170,00
-4719,09	258,00
-4705,38	522,00
-4691,70	674,00
-4678,04	724,00
-4664,41	449,00
-4650,79	301,00
-4637,20	180,00
-4623,63	272,00
-4610,08	280,00
-4596,56	376,00
-4583,05	462,00
-4569,57	393,00
-4556,11	145,00
-4542,67	139,00
-4529,25	225,00
-4515,86	340,00
-4502,49	593,00
-4489,13	556,00
-4475,80	431,00
-4462,49	300,00
-4449,21	266,00
-4435,94	54,00
-4422,70	291,00
-4409,47	315,00
-4396,27	383,00
-4383,09	226,00
-4369,93	199,00
-4356,79	113,00
-4343,67	149,00
-4330,58	148,00
-4317,50	388,00
-4304,45	210,00
-4291,41	180,00
-4278,40	189,00
-4265,41	180,00
-4252,44	189,00
-4239,49	254,00
-4226,55	323,00
-4213,65	362,00
-4200,76	205,00
-4187,89	118,00
-4175,04	225,00
-4162,21	22,00
-4149,40	93,00
-4136,61	97,00
-4123,85	39,00
-4111,10	46,00
-4098,37	110,00
-4085,66	84,00
-4072,98	156,00
-4060,31	97,00
-4047,66	-6,00
-4035,04	149,00
-4022,43	74,00
-4009,84	118,00
-3997,27	23,00
-3984,72	117,00
-3972,19	56,00
-3959,69	105,00
-3947,20	69,00
-3934,73	100,00
-3922,27	80,00
-3909,84	-96,00
-3897,43	28,00
-3885,04	136,00
-3872,67	-15,00
-3860,31	-32,00
-3847,98	34,00
-3835,66	78,00
-3823,36	93,00
-3811,09	15,00
-3798,83	23,00
-3786,59	53,00
-3774,37	-55,00
-3762,17	26,00
-3749,98	-83,00
-3737,82	53,00
-3725,67	-49,00
-3713,55	2,00
-3701,44	37,00
-3689,35	27,00
-3677,28	65,00
-3665,22	61,00
-3653,19	-158,00
-3641,17	31,00
-3629,18	-28,00
-3617,20	-25,00
-3605,24	88,00
-3593,30	-28,00
-3581,37	-1,00
-3569,47	2,00
-3557,58	15,00
-3545,71	-38,00
-3533,86	59,00
-3522,02	80,00
-3510,21	-41,00
-3498,41	43,00
-3486,63	43,00
-3474,87	-9,00
-3463,12	2,00
-3451,40	10,00
-3439,69	4,00
-3428,00	-33,00
-3416,33	-14,00
-3404,67	61,00
-3393,03	-2,00
-3381,41	-82,00
-3369,81	46,00
-3358,22	-23,00
-3346,66	68,00
-3335,10	-48,00
-3323,57	147,00
-3312,06	44,00
-3300,56	6,00
-3289,08	67,00
-3277,61	-36,00
-3266,16	42,00
-3254,73	29,00
-3243,32	134,00
-3231,92	51,00
-3220,55	134,00
-3209,18	135,00
-3197,84	28,00
-3186,51	2,00
-3175,20	-23,00
-3163,90	-65,00
-3152,63	-95,00
-3141,36	27,00
-3130,12	72,00
-3118,89	39,00
-3107,68	40,00
-3096,49	77,00
-3085,31	21,00
-3074,15	1,00
-3063,00	-13,00
-3051,87	7,00
-3040,76	74,00
-3029,67	52,00
-3018,59	-57,00
-3007,52	-20,00
-2996,48	0,00
-2985,44	75,00
-2974,43	99,00
-2963,43	-7,00
-2952,45	14,00
-2941,48	100,00
-2930,53	10,00
-2919,60	46,00
-2908,68	135,00
-2897,78	-66,00
-2886,89	9,00
-2876,02	-51,00
-2865,17	-52,00
-2854,33	33,00
-2843,50	-18,00
-2832,70	51,00
-2821,90	121,00
-2811,13	-40,00
-2800,37	78,00
-2789,62	85,00
-2778,89	14,00
-2768,18	66,00
-2757,48	164,00
-2746,80	152,00
-2736,13	-11,00
-2725,48	60,00
-2714,84	-102,00
-2704,22	-77,00
-2693,61	97,00
-2683,02	-55,00
-2672,45	34,00
-2661,89	-42,00
-2651,34	84,00
-2640,81	-15,00
-2630,30	52,00
-2619,80	1,00
-2609,31	19,00
-2598,84	-2,00
-2588,39	11,00
-2577,95	43,00
-2567,52	-61,00
-2557,11	55,00
-2546,71	4,00
-2536,33	-16,00
-2525,97	28,00
-2515,62	5,00
-2505,28	67,00
-2494,96	-122,00
-2484,65	-62,00
-2474,36	142,00
-2464,08	31,00
-2453,82	197,00
-2443,57	-51,00
-2433,33	46,00
-2423,11	-7,00
-2412,91	52,00
-2402,72	-2,00
-2392,54	-44,00
-2382,38	68,00
-2372,23	29,00
-2362,09	4009,00
-2351,97	-74,00
-2341,87	33,00
-2331,78	34,00
-2321,70	104,00
-2311,64	15,00
-2301,59	118,00
-2291,55	-4,00
-2281,53	-52,00
-2271,53	54,00
-2261,53	18,00
-2251,55	108,00
-2241,59	-44,00
-2231,64	115,00
-2221,70	15,00
-2211,78	1,00
-2201,87	-39,00
-2191,97	39,00
-2182,09	-8,00
-2172,22	-31,00
-2162,37	-172,00
-2152,53	1,00
-2142,70	-49,00
-2132,89	61,00
-2123,09	-75,00
-2113,30	50,00
-2103,53	39,00
-2093,77	45,00
-2084,02	31,00
-2074,29	52,00
-2064,57	-35,00
-2054,86	-30,00
-2045,17	46,00
-2035,49	82,00
-2025,82	29,00
-2016,17	59,00
-2006,53	7,00
-1996,91	10,00
-1987,29	6,00
-1977,69	63,00
-1968,11	134,00
-1958,53	18,00
-1948,97	123,00
-1939,42	-23,00
-1929,89	-33,00
-1920,37	55,00
-1910,86	31,00
-1901,36	-57,00
-1891,88	36,00
-1882,41	-32,00
-1872,95	-59,00
-1863,51	105,00
-1854,08	-62,00
-1844,66	62,00
-1835,26	-12,00
-1825,86	28,00
-1816,48	-12,00
-1807,11	-4,00
-1797,76	4,00
-1788,42	89,00
-1779,09	-7,00
-1769,77	142,00
-1760,47	62,00
-1751,17	21,00
-1741,89	86,00
-1732,63	-23,00
-1723,37	164,00
-1714,13	56,00
-1704,90	-72,00
-1695,68	59,00
-1686,48	-87,00
-1677,29	59,00
-1668,11	93,00
-1658,94	85,00
-1649,78	94,00
-1640,64	-77,00
-1631,51	114,00
-1622,39	-20,00
-1613,28	-55,00
-1604,19	23,00
-1595,10	116,00
-1586,03	-37,00
-1576,97	168,00
-1567,93	103,00
-1558,89	32,00
-1549,87	-44,00
-1540,86	5,00
-1531,86	104,00
-1522,87	-14,00
-1513,90	103,00
-1504,93	-10,00
-1495,98	5,00
-1487,04	67,00
-1478,12	217,00
-1469,20	-117,00
-1460,30	127,00
-1451,40	64,00
-1442,52	18,00
-1433,65	46,00
-1424,80	92,00
-1415,95	36,00
-1407,12	125,00
-1398,30	-41,00
-1389,48	-12,00
-1380,69	-31,00
-1371,90	3,00
-1363,12	-89,00
-1354,36	-35,00
-1345,60	14,00
-1336,86	69,00
-1328,13	-75,00
-1319,41	9,00
-1310,70	23,00
-1302,01	-4,00
-1293,32	48,00
-1284,65	-46,00
-1275,99	-30,00
-1267,33	31,00
-1258,69	35,00
-1250,06	142,00
-1241,45	115,00
-1232,84	-89,00
-1224,25	81,00
-1215,66	53,00
-1207,09	-68,00
-1198,53	165,00
-1189,97	-17,00
-1181,43	108,00
-1172,91	-44,00
-1164,39	-14,00
-1155,88	29,00
-1147,38	172,00
-1138,90	23,00
-1130,43	8,00
-1121,96	91,00
-1113,51	100,00
-1105,07	34,00
-1096,64	-27,00
-1088,22	41,00
-1079,81	24,00
-1071,41	30,00
-1063,02	156,00
-1054,65	-10,00
-1046,28	64,00
-1037,92	40,00
-1029,58	49,00
-1021,24	13,00
-1012,92	-7,00
-1004,61	66,00
-996,30	89,00
-988,01	12,00
-979,73	51,00
-971,46	119,00
-963,20	-38,00
-954,95	19,00
-946,71	57,00
-938,48	-48,00
-930,26	36,00
-922,06	119,00
-913,86	-67,00
-905,67	74,00
-897,49	-6,00
-889,33	-77,00
-881,17	-30,00
-873,02	65,00
-864,89	-61,00
-856,76	-18,00
-848,65	53,00
-840,54	62,00
-832,45	95,00
-824,36	-23,00
-816,29	80,00
-808,22	-111,00
-800,17	-1,00
-792,12	82,00
-784,09	32,00
-776,06	29,00
-768,05	61,00
-760,04	102,00
-752,05	65,00
-744,07	42,00
-736,09	6,00
-728,13	85,00
-720,17	-43,00
-712,23	14,00
-704,29	67,00
-696,37	42,00
-688,45	-49,00
-680,55	131,00
-672,65	95,00
-664,77	-29,00
-656,89	80,00
-649,03	-12,00
-641,17	-31,00
-633,32	164,00
-625,49	35,00
-617,66	-24,00
-609,84	9,00
-602,03	-21,00
-594,23	153,00
-586,45	90,00
-578,67	22,00
-570,90	47,00
-563,14	1,00
-555,39	-8,00
-547,65	6,00
-539,91	-63,00
-532,19	69,00
-524,48	109,00
-516,78	-19,00
-509,08	2,00
-501,40	-45,00
-493,72	96,00
-486,06	119,00
-478,40	18,00
-470,76	103,00
-463,12	-18,00
-455,49	104,00
-447,87	36,00
-440,26	29,00
-432,66	52,00
-425,07	115,00
-417,49	9,00
-409,92	-30,00
-402,35	2,00
-394,80	74,00
-387,25	-2,00
-379,72	136,00
-372,19	66,00
-364,67	93,00
-357,17	4,00
-349,67	155,00
-342,18	131,00
-334,69	162,00
-327,22	76,00
-319,76	83,00
-312,30	68,00
-304,86	128,00
-297,42	64,00
-290,00	110,00
-282,58	85,00
-275,17	152,00
-267,77	-4,00
-260,37	153,00
-252,99	-10,00
-245,62	118,00
-238,25	90,00
-230,90	64,00
-223,55	60,00
-216,21	183,00
-208,88	162,00
-201,56	79,00
-194,25	151,00
-186,94	205,00
-179,65	188,00
-172,36	191,00
-165,08	337,00
-157,81	336,00
-150,55	218,00
-143,30	506,00
-136,06	267,00
-128,82	361,00
-121,60	454,00
-114,38	422,00
-107,17	495,00
-99,97	630,00
-92,78	700,00
-85,60	635,00
-78,42	921,00
-71,25	1025,00
-64,10	1213,00
-56,95	1436,00
-49,81	1726,00
-42,67	1945,00
-35,55	2507,00
-28,43	3215,00
-21,33	5453,00
-14,23	16890,00
-7,14	56043,00
-0,05	55763,00
7,02	55513,00
14,09	55717,00
21,14	17259,00
28,19	6999,00
35,23	4404,00
42,27	3351,00
49,29	2673,00
56,31	2341,00
63,32	2004,00
70,32	1622,00
77,31	1395,00
84,29	1052,00
91,27	942,00
98,23	981,00
105,19	961,00
112,14	875,00
119,09	1658,00
126,02	2858,00
132,95	3351,00
139,87	3628,00
146,78	3486,00
153,68	3613,00
160,58	3515,00
167,46	3490,00
174,34	3472,00
181,21	3570,00
188,08	3623,00
194,93	3367,00
201,78	3617,00
208,62	3619,00
215,45	3545,00
222,27	3590,00
229,09	3496,00
235,90	3522,00
242,70	3510,00
249,49	3461,00
256,27	3363,00
263,05	3412,00
269,82	3390,00
276,58	3345,00
283,33	3355,00
290,08	3404,00
296,82	3354,00
303,55	3260,00
310,27	3382,00
316,98	3261,00
323,69	3184,00
330,39	3301,00
337,08	3247,00
343,76	3295,00
350,44	3282,00
357,11	3071,00
363,77	3263,00
370,42	3200,00
377,07	3146,00
383,71	3226,00
390,34	3242,00
396,96	3204,00
403,58	3175,00
410,19	3178,00
416,79	3238,00
423,38	3357,00
429,97	3155,00
436,55	2984,00
443,12	3114,00
449,68	3012,00
456,24	3146,00
462,79	3030,00
469,33	3052,00
475,86	3060,00
482,39	3131,00
488,91	3023,00
495,42	2941,00
501,93	3016,00
508,42	2903,00
514,91	2895,00
521,40	2888,00
527,87	2841,00
534,34	2889,00
540,80	2738,00
547,25	2690,00
553,70	2865,00
560,14	2789,00
566,57	2948,00
573,00	2752,00
579,41	2762,00
585,83	2858,00
592,23	2831,00
598,62	2658,00
605,01	2734,00
611,40	2719,00
617,77	2746,00
624,14	2598,00
630,50	2706,00
636,85	2735,00
643,20	2679,00
649,54	2670,00
655,87	2684,00
662,20	2635,00
668,52	2562,00
674,83	2622,00
681,13	2559,00
687,43	2556,00
693,72	2439,00
700,00	2525,00
706,28	2493,00
712,55	2555,00
718,81	2509,00
725,07	2381,00
731,32	2459,00
737,56	2610,00
743,79	2478,00
750,02	2457,00
756,24	2524,00
762,46	2485,00
768,67	2338,00
774,87	2454,00
781,06	2555,00
787,25	2418,00
793,43	2442,00
799,60	2352,00
805,77	2418,00
811,93	2378,00
818,08	2390,00
824,23	2387,00
830,37	2459,00
836,50	2263,00
842,63	2433,00
848,75	2325,00
854,87	2327,00
860,97	2135,00
867,07	2295,00
873,17	2223,00
879,25	2186,00
885,33	2314,00
891,41	2221,00
897,47	2221,00
903,53	2202,00
909,59	2146,00
915,63	2167,00
921,67	2217,00
927,71	2137,00
933,74	2103,00
939,76	2197,00
945,77	2062,00
951,78	2129,00
957,78	2119,00
963,78	2073,00
969,77	2134,00
975,75	2049,00
981,72	2151,00
987,69	2074,00
993,66	2101,00
999,61	2036,00
1005,56	2127,00
1011,51	2141,00
1017,44	2155,00
1023,37	2026,00
1029,30	2041,00
1035,22	2138,00
1041,13	1966,00
1047,03	2088,00
1052,93	2176,00
1058,83	2490,00
1064,71	2658,00
1070,59	2445,00
1076,47	2197,00
1082,33	2012,00
1088,20	2009,00
1094,05	1929,00
1099,90	1922,00
1105,74	1973,00
1111,58	2079,00
1117,41	1936,00
1123,23	2217,00
1129,05	2612,00
1134,86	2356,00
1140,67	2073,00
1146,47	2019,00
1152,26	2000,00
1158,05	1842,00
1163,83	1890,00
1169,60	1860,00
1175,37	1854,00
1181,13	1909,00
1186,89	1864,00
1192,64	1781,00
1198,38	1961,00
1204,12	1859,00
1209,85	1763,00
1215,58	1669,00
1221,30	1839,00
1227,02	1799,00
1232,72	1926,00
1238,43	1898,00
1244,12	1818,00
1249,81	1832,00
1255,50	1814,00
1261,17	1859,00
1266,85	1811,00
1272,51	1926,00
1278,17	1845,00
1283,83	2089,00
1289,47	2393,00
1295,12	2705,00
1300,75	2646,00
1306,38	2329,00
1312,01	2030,00
1317,63	1833,00
1323,24	1894,00
1328,85	1982,00
1334,45	1947,00
1340,04	1928,00
1345,63	1806,00
1351,22	1929,00
1356,80	1831,00
1362,37	2002,00
1367,93	2003,00
1373,49	1935,00
1379,05	2061,00
1384,60	1903,00
1390,14	1945,00
1395,68	1918,00
1401,21	2032,00
1406,74	2096,00
1412,26	2094,00
1417,77	2251,00
1423,28	2216,00
1428,78	2394,00
1434,28	2573,00
1439,77	2789,00
1445,26	2627,00
1450,74	2576,00
1456,22	2384,00
1461,68	2364,00
1467,15	2272,00
1472,61	2198,00
1478,06	2067,00
1483,51	1911,00
1488,95	1821,00
1494,38	1828,00
1499,81	1747,00
1505,24	1761,00
1510,65	1694,00
1516,07	1614,00
1521,48	1633,00
1526,88	1627,00
1532,27	1618,00
1537,67	1571,00
1543,05	1667,00
1548,43	1632,00
1553,81	1652,00
1559,18	1495,00
1564,54	1592,00
1569,90	1643,00
1575,25	1538,00
1580,60	1555,00
1585,94	1657,00
1591,28	1452,00
1596,61	1538,00
1601,93	1691,00
1607,25	1466,00
1612,57	1554,00
1617,88	1582,00
1623,18	1572,00
1628,48	1491,00
1633,77	1524,00
1639,06	1581,00
1644,34	1554,00
1649,62	1521,00
1654,89	1542,00
1660,16	1379,00
1665,42	1329,00
1670,67	1421,00
1675,92	1462,00
1681,17	1369,00
1686,41	1409,00
1691,64	1353,00
1696,87	1443,00
1702,10	1277,00
1707,32	1497,00
1712,53	1269,00
1717,74	1193,00
1722,94	1444,00
1728,14	1174,00
1733,33	1253,00
1738,52	1351,00
1743,70	1263,00
1748,88	1375,00
1754,05	1166,00
1759,22	1358,00
1764,38	1270,00
1769,53	1250,00
1774,69	985,00
1779,83	1153,00
1784,97	1164,00
1790,11	1269,00
1795,24	1233,00
1800,36	1049,00
1805,48	1179,00
1810,60	1150,00
1815,71	1132,00
1820,82	1082,00
1825,92	1004,00
1831,01	1065,00
1836,10	1121,00
1841,19	1149,00
1846,26	995,00
1851,34	1001,00
1856,41	1159,00
1861,47	1096,00
1866,53	1001,00
1871,59	1071,00
1876,64	1079,00
1881,68	1082,00
1886,72	1001,00
1891,76	1052,00
1896,79	1150,00
1901,81	995,00
1906,83	1026,00
1911,85	1001,00
1916,86	973,00
1921,86	1084,00
1926,86	1059,00
1931,86	887,00
1936,85	850,00
1941,83	953,00
1946,81	868,00
1951,79	922,00
1956,76	969,00
1961,72	850,00
1966,68	973,00
1971,64	944,00
1976,59	818,00
1981,54	902,00
1986,48	899,00
1991,42	911,00
1996,35	911,00
2001,27	864,00
2006,20	734,00
2011,11	841,00
2016,03	843,00
2020,93	868,00
2025,84	762,00
2030,73	884,00
2035,63	829,00
2040,52	730,00
2045,40	745,00
2050,28	741,00
2055,15	896,00
2060,02	700,00
2064,89	820,00
2069,75	782,00
2074,60	761,00
2079,46	665,00
2084,30	742,00
2089,14	678,00
2093,98	643,00
2098,81	776,00
2103,64	775,00
2108,46	702,00
2113,28	862,00
2118,09	675,00
2122,90	706,00
2127,70	713,00
2132,50	721,00
2137,30	482,00
2142,09	690,00
2146,87	753,00
2151,66	629,00
2156,43	758,00
2161,20	743,00
2165,97	681,00
2170,73	630,00
2175,49	675,00
2180,24	733,00
2184,99	669,00
2189,74	682,00
2194,48	629,00
2199,21	646,00
2203,94	615,00
2208,67	698,00
2213,39	586,00
2218,11	574,00
2222,82	580,00
2227,53	566,00
2232,23	574,00
2236,93	609,00
2241,63	608,00
2246,32	659,00
2251,00	478,00
2255,68	477,00
2260,36	647,00
2265,03	525,00
2269,70	573,00
2274,36	595,00
2279,02	571,00
2283,68	438,00
2288,33	576,00
2292,97	706,00
2297,61	591,00
2302,25	419,00
2306,88	501,00
2311,51	527,00
2316,14	586,00
2320,75	437,00
2325,37	575,00
2329,98	570,00
2334,59	590,00
2339,19	493,00
2343,79	442,00
2348,38	558,00
2352,97	488,00
2357,55	497,00
2362,13	471,00
2366,71	452,00
2371,28	532,00
2375,85	453,00
2380,41	536,00
2384,97	566,00
2389,52	463,00
2394,07	487,00
2398,62	369,00
2403,16	475,00
2407,70	418,00
2412,23	395,00
2416,76	494,00
2421,29	464,00
2425,81	277,00
2430,32	518,00
2434,84	450,00
2439,34	406,00
2443,85	451,00
2448,35	516,00
2452,84	427,00
2457,33	389,00
2461,82	445,00
2466,30	411,00
2470,78	348,00
2475,25	379,00
2479,72	393,00
2484,19	443,00
2488,65	406,00
2493,11	343,00
2497,56	461,00
2502,01	398,00
2506,46	325,00
2510,90	327,00
2515,34	385,00
2519,77	370,00
2524,20	465,00
2528,62	416,00
2533,04	286,00
2537,46	360,00
2541,87	367,00
2546,28	321,00
2550,68	311,00
2555,08	358,00
2559,48	411,00
2563,87	464,00
2568,26	368,00
2572,64	252,00
2577,02	456,00
2581,40	383,00
2585,77	352,00
2590,14	462,00
2594,50	327,00
2598,86	359,00
2603,22	172,00
2607,57	316,00
2611,92	278,00
2616,26	254,00
2620,60	338,00
2624,94	402,00
2629,27	298,00
2633,60	328,00
2637,92	383,00
2642,24	401,00
2646,56	311,00
2650,87	297,00
2655,18	369,00
2659,48	283,00
2663,78	358,00
2668,08	324,00
2672,37	361,00
2676,66	352,00
2680,95	426,00
2685,23	302,00
2689,50	336,00
2693,78	374,00
2698,05	382,00
2702,31	334,00
2706,57	334,00
2710,83	355,00
2715,08	480,00
2719,33	323,00
2723,58	395,00
2727,82	340,00
2732,06	428,00
2736,29	311,00
2740,53	353,00
2744,75	413,00
2748,97	416,00
2753,19	436,00
2757,41	411,00
2761,62	313,00
2765,83	364,00
2770,03	273,00
2774,23	236,00
2778,43	330,00
2782,62	367,00
2786,81	363,00
2791,00	477,00
2795,18	425,00
2799,35	371,00
2803,53	425,00
2807,70	439,00
2811,86	399,00
2816,03	485,00
2820,19	450,00
2824,34	420,00
2828,49	574,00
2832,64	627,00
2836,78	765,00
2840,92	890,00
2845,06	1193,00
2849,19	1419,00
2853,32	1377,00
2857,45	1286,00
2861,57	1234,00
2865,69	1176,00
2869,80	1170,00
2873,91	1208,00
2878,02	1308,00
2882,12	1423,00
2886,22	1516,00
2890,32	1324,00
2894,41	1144,00
2898,50	1012,00
2902,58	1009,00
2906,67	1070,00
2910,74	971,00
2914,82	786,00
2918,89	705,00
2922,96	749,00
2927,02	770,00
2931,08	653,00
2935,13	567,00
2939,19	545,00
2943,24	570,00
2947,28	508,00
2951,32	375,00
2955,36	392,00
2959,40	275,00
2963,43	412,00
2967,46	271,00
2971,48	283,00
2975,50	314,00
2979,52	340,00
2983,53	316,00
2987,54	203,00
2991,55	236,00
2995,55	216,00
2999,55	243,00
3003,54	239,00
3007,54	216,00
3011,53	130,00
3015,51	212,00
3019,49	307,00
3023,47	168,00
3027,45	122,00
3031,42	231,00
3035,39	155,00
3039,35	159,00
3043,31	78,00
3047,27	182,00
3051,22	152,00
3055,17	134,00
3059,12	266,00
3063,06	124,00
3067,00	233,00
3070,94	166,00
3074,87	145,00
3078,80	99,00
3082,73	190,00
3086,65	148,00
3090,57	107,00
3094,49	136,00
3098,40	105,00
3102,31	75,00
3106,22	137,00
3110,12	117,00
3114,02	13,00
3117,92	80,00
3121,81	110,00
3125,70	144,00
3129,58	40,00
3133,47	164,00
3137,34	86,00
3141,22	44,00
3145,09	154,00
3148,96	-17,00
3152,83	212,00
3156,69	91,00
3160,55	161,00
3164,40	86,00
3168,26	107,00
3172,10	264,00
3175,95	163,00
3179,79	174,00
3183,63	139,00
3187,47	188,00
3191,30	1,00
3195,13	68,00
3198,95	149,00
3202,78	125,00
3206,60	171,00
3210,41	68,00
3214,23	113,00
3218,03	128,00
3221,84	4,00
3225,64	161,00
3229,44	51,00
3233,24	79,00
3237,03	62,00
3240,82	80,00
3244,61	145,00
3248,39	66,00
3252,17	96,00
3255,95	60,00
3259,72	131,00
3263,49	72,00
3267,26	211,00
3271,03	113,00
3274,79	176,00
3278,54	146,00
3282,30	96,00
3286,05	204,00
3289,80	0,00
3293,54	119,00
3297,29	36,00
3301,02	206,00
3304,76	178,00
3308,49	126,00
3312,22	114,00
3315,95	133,00
3319,67	46,00
3323,39	118,00
3327,10	108,00
3330,82	97,00
3334,53	105,00
3338,24	11,00
3341,94	66,00
3345,64	134,00
3349,34	115,00
3353,03	64,00
3356,72	129,00
3360,41	71,00
3364,10	48,00
3367,78	93,00
3371,46	114,00
3375,13	46,00
3378,81	121,00
3382,48	76,00
3386,14	131,00
3389,81	73,00
3393,47	0,00
3397,12	96,00
3400,78	104,00
3404,43	140,00
3408,08	74,00
3411,72	106,00
3415,36	69,00
3419,00	94,00
3422,64	149,00
3426,27	128,00
3429,90	154,00
3433,53	-27,00
3437,15	-67,00
3440,77	65,00
3444,39	48,00
3448,00	105,00
3451,62	46,00
3455,22	169,00
3458,83	-12,00
3462,43	-17,00
3466,03	40,00
3469,63	65,00
3473,22	16,00
3476,81	59,00
3480,40	-23,00
3483,99	46,00
3487,57	157,00
3491,15	-18,00
3494,72	96,00
3498,29	57,00
3501,86	156,00
3505,43	-22,00
3508,99	73,00
3512,56	54,00
3516,11	8,00
3519,67	35,00
3523,22	53,00
3526,77	-44,00
3530,32	-9,00
3533,86	58,00
3537,40	-25,00
3540,94	19,00
3544,47	-17,00
3548,00	11,00
3551,53	57,00
3555,06	-1,00
3558,58	-43,00
3562,10	25,00
3565,62	138,00
3569,13	-40,00
3572,64	59,00
3576,15	54,00
3579,66	7,00
3583,16	186,00
3586,66	-33,00
3590,16	-51,00
3593,65	-41,00
3597,14	38,00
3600,63	39,00
3604,11	-45,00
3607,60	56,00
3611,08	-16,00
3614,55	168,00
3618,03	-1,00
3621,50	-48,00
3624,97	99,00
3628,43	-8,00
3631,90	42,00
3635,36	71,00
3638,81	5,00
3642,27	46,00
3645,72	62,00
3649,17	36,00
3652,61	11,00
3656,06	-17,00
3659,50	-31,00
3662,93	41,00
3666,37	33,00
3669,80	-16,00
3673,23	71,00
3676,65	102,00
3680,08	54,00
3683,50	104,00
3686,92	22,00
3690,33	53,00
3693,74	-61,00
3697,15	24,00
3700,56	-25,00
3703,96	78,00
3707,36	0,00
3710,76	47,00
3714,16	62,00
3717,55	124,00
3720,94	88,00
3724,33	55,00
3727,71	-48,00
3731,10	-36,00
3734,48	63,00
3737,85	33,00
3741,23	6,00
3744,60	19,00
3747,97	53,00
3751,33	-9,00
3754,69	18,00
3758,05	-30,00
3761,41	74,00
3764,77	106,00
3768,12	33,00
3771,47	36,00
3774,82	-3,00
3778,16	0,00
3781,50	8,00
3784,84	4,00
3788,18	4,00
>>>>>End Processed Spectral Data<<<<<
