SpectraSuite Data File
++++++++++++++++++++++++++++++++++++
Date: Mon Jan 05 16:34:40 ICT 2026
User: Administrator
Dark Spectrum Present: Yes
Reference Spectrum Present: No
Number of Sampled Component Spectra: 1
Spectrometers: MAYP113682
Integration Time (usec): 3000000 (MAYP113682)
Spectra Averaged: 1 (MAYP113682)
Boxcar Smoothing: 0 (MAYP113682)
Correct for Electrical Dark: No (MAYP113682)
Strobe/Lamp Enabled: No (MAYP113682)
Correct for Detector Non-linearity: No (MAYP113682)
Correct for Stray Light: No (MAYP113682)
Number of Pixels in Processed Spectrum: 2068
>>>>>Begin Processed Spectral Data<<<<<
-37534,58	28,00
-37414,56	14,00
-37295,11	10,00
-37176,24	2,00
-37057,95	629,00
-36940,22	715,00
-36823,05	780,00
-36706,45	859,00
-36590,40	838,00
-36474,90	830,00
-36359,95	806,00
-36245,55	911,00
-36131,68	782,00
-36018,35	791,00
-35905,55	841,00
-35793,29	930,00
-35681,54	793,00
-35570,32	858,00
-35459,62	844,00
-35349,43	883,00
-35239,75	892,00
-35130,58	831,00
-35021,91	848,00
-34913,74	837,00
-34806,07	860,00
-34698,89	993,00
-34592,20	730,00
-34486,00	893,00
-34380,28	883,00
-34275,04	824,00
-34170,27	822,00
-34065,98	1049,00
-33962,16	886,00
-33858,81	915,00
-33755,92	881,00
-33653,49	999,00
-33551,52	967,00
-33450,01	990,00
-33348,94	898,00
-33248,33	883,00
-33148,16	950,00
-33048,43	915,00
-32949,14	1111,00
-32850,29	1024,00
-32751,87	880,00
-32653,89	983,00
-32556,33	945,00
-32459,20	966,00
-32362,49	937,00
-32266,19	945,00
-32170,32	885,00
-32074,86	976,00
-31979,82	942,00
-31885,18	996,00
-31790,95	1042,00
-31697,12	1025,00
-31603,69	973,00
-31510,67	1010,00
-31418,04	912,00
-31325,80	888,00
-31233,95	1006,00
-31142,49	987,00
-31051,42	851,00
-30960,73	1157,00
-30870,43	1097,00
-30780,50	939,00
-30690,95	974,00
-30601,77	1093,00
-30512,97	995,00
-30424,53	1027,00
-30336,46	1002,00
-30248,76	918,00
-30161,42	1155,00
-30074,44	884,00
-29987,81	949,00
-29901,55	1014,00
-29815,63	943,00
-29730,07	1082,00
-29644,86	1003,00
-29560,00	948,00
-29475,48	1008,00
-29391,30	890,00
-29307,47	935,00
-29223,97	969,00
-29140,81	983,00
-29057,99	980,00
-28975,50	894,00
-28893,34	1103,00
-28811,51	837,00
-28730,00	986,00
-28648,82	984,00
-28567,97	1010,00
-28487,43	1014,00
-28407,21	960,00
-28327,32	889,00
-28247,73	1114,00
-28168,46	944,00
-28089,50	957,00
-28010,85	875,00
-27932,51	799,00
-27854,48	1003,00
-27776,75	904,00
-27699,32	951,00
-27622,19	990,00
-27545,37	933,00
-27468,84	981,00
-27392,60	921,00
-27316,66	958,00
-27241,01	952,00
-27165,66	948,00
-27090,59	832,00
-27015,81	961,00
-26941,31	1080,00
-26867,10	889,00
-26793,17	1033,00
-26719,52	980,00
-26646,15	968,00
-26573,06	815,00
-26500,24	952,00
-26427,70	943,00
-26355,43	930,00
-26283,43	1081,00
-26211,71	1010,00
-26140,25	1036,00
-26069,06	1027,00
-25998,13	839,00
-25927,46	901,00
-25857,06	900,00
-25786,92	973,00
-25717,04	919,00
-25647,42	951,00
-25578,05	795,00
-25508,94	887,00
-25440,09	949,00
-25371,48	953,00
-25303,13	1030,00
-25235,02	940,00
-25167,17	923,00
-25099,56	967,00
-25032,19	895,00
-24965,07	813,00
-24898,20	813,00
-24831,56	862,00
-24765,17	978,00
-24699,01	869,00
-24633,10	1054,00
-24567,41	984,00
-24501,97	972,00
-24436,75	936,00
-24371,77	931,00
-24307,03	868,00
-24242,51	958,00
-24178,22	898,00
-24114,16	950,00
-24050,32	1014,00
-23986,71	822,00
-23923,32	957,00
-23860,16	984,00
-23797,22	942,00
-23734,50	958,00
-23672,00	942,00
-23609,71	851,00
-23547,65	788,00
-23485,80	973,00
-23424,16	837,00
-23362,74	1185,00
-23301,53	932,00
-23240,54	802,00
-23179,75	791,00
-23119,17	901,00
-23058,80	887,00
-22998,64	1044,00
-22938,68	923,00
-22878,93	922,00
-22819,39	830,00
-22760,04	875,00
-22700,90	960,00
-22641,96	980,00
-22583,22	915,00
-22524,68	894,00
-22466,33	945,00
-22408,19	940,00
-22350,23	843,00
-22292,48	937,00
-22234,92	1013,00
-22177,55	1024,00
-22120,37	1064,00
-22063,38	854,00
-22006,58	952,00
-21949,98	924,00
-21893,56	809,00
-21837,33	933,00
-21781,28	982,00
-21725,42	909,00
-21669,74	974,00
-21614,25	895,00
-21558,94	886,00
-21503,81	1009,00
-21448,86	1009,00
-21394,10	899,00
-21339,51	892,00
-21285,10	885,00
-21230,86	885,00
-21176,81	871,00
-21122,93	808,00
-21069,22	810,00
-21015,69	860,00
-20962,33	1038,00
-20909,14	877,00
-20856,13	893,00
-20803,28	943,00
-20750,61	868,00
-20698,10	777,00
-20645,76	866,00
-20593,59	1008,00
-20541,59	1015,00
-20489,75	936,00
-20438,07	826,00
-20386,56	985,00
-20335,22	835,00
-20284,03	827,00
-20233,01	932,00
-20182,15	881,00
-20131,45	867,00
-20080,91	873,00
-20030,52	908,00
-19980,30	861,00
-19930,23	783,00
-19880,32	1056,00
-19830,56	971,00
-19780,96	925,00
-19731,52	877,00
-19682,23	882,00
-19633,09	858,00
-19584,10	887,00
-19535,26	786,00
-19486,58	991,00
-19438,04	850,00
-19389,66	993,00
-19341,42	851,00
-19293,33	825,00
-19245,39	985,00
-19197,60	1036,00
-19149,95	954,00
-19102,45	929,00
-19055,09	805,00
-19007,87	1017,00
-18960,80	932,00
-18913,87	969,00
-18867,09	948,00
-18820,44	995,00
-18773,94	926,00
-18727,57	970,00
-18681,35	854,00
-18635,26	931,00
-18589,31	861,00
-18543,50	915,00
-18497,83	949,00
-18452,29	945,00
-18406,89	893,00
-18361,63	985,00
-18316,50	926,00
-18271,50	880,00
-18226,63	1004,00
-18181,90	1024,00
-18137,30	982,00
-18092,84	892,00
-18048,50	996,00
-18004,29	854,00
-17960,22	884,00
-17916,27	880,00
-17872,45	1001,00
-17828,76	1040,00
-17785,20	989,00
-17741,77	946,00
-17698,46	984,00
-17655,28	890,00
-17612,22	889,00
-17569,29	868,00
-17526,48	939,00
-17483,79	907,00
-17441,23	825,00
-17398,79	957,00
-17356,48	825,00
-17314,28	1019,00
-17272,21	874,00
-17230,26	964,00
-17188,42	928,00
-17146,71	951,00
-17105,12	841,00
-17063,64	894,00
-17022,28	903,00
-16981,04	841,00
-16939,92	1008,00
-16898,91	1016,00
-16858,02	869,00
-16817,25	884,00
-16776,59	867,00
-16736,04	862,00
-16695,61	978,00
-16655,29	910,00
-16615,09	856,00
-16574,99	887,00
-16535,01	993,00
-16495,15	977,00
-16455,39	928,00
-16415,74	833,00
-16376,21	875,00
-16336,78	854,00
-16297,46	884,00
-16258,26	798,00
-16219,16	918,00
-16180,17	873,00
-16141,28	959,00
-16102,51	1011,00
-16063,84	866,00
-16025,27	900,00
-15986,82	858,00
-15948,46	826,00
-15910,22	978,00
-15872,07	810,00
-15834,04	932,00
-15796,10	916,00
-15758,27	1090,00
-15720,54	888,00
-15682,91	834,00
-15645,39	1076,00
-15607,97	888,00
-15570,64	881,00
-15533,42	1008,00
-15496,30	981,00
-15459,28	994,00
-15422,36	936,00
-15385,54	806,00
-15348,82	969,00
-15312,19	1053,00
-15275,66	801,00
-15239,23	960,00
-15202,90	813,00
-15166,67	905,00
-15130,53	995,00
-15094,48	924,00
-15058,54	879,00
-15022,68	846,00
-14986,93	813,00
-14951,26	953,00
-14915,69	997,00
-14880,22	833,00
-14844,84	860,00
-14809,55	939,00
-14774,35	932,00
-14739,25	786,00
-14704,24	955,00
-14669,32	869,00
-14634,49	815,00
-14599,75	1008,00
-14565,10	846,00
-14530,55	958,00
-14496,08	929,00
-14461,70	975,00
-14427,41	925,00
-14393,21	890,00
-14359,10	854,00
-14325,07	941,00
-14291,14	836,00
-14257,29	952,00
-14223,52	972,00
-14189,85	1040,00
-14156,26	931,00
-14122,76	806,00
-14089,34	855,00
-14056,01	885,00
-14022,76	907,00
-13989,60	925,00
-13956,52	1050,00
-13923,53	901,00
-13890,62	873,00
-13857,79	822,00
-13825,05	912,00
-13792,39	776,00
-13759,81	946,00
-13727,31	869,00
-13694,90	932,00
-13662,57	1064,00
-13630,31	973,00
-13598,14	963,00
-13566,05	958,00
-13534,05	943,00
-13502,12	800,00
-13470,27	888,00
-13438,50	1019,00
-13406,80	900,00
-13375,19	884,00
-13343,66	972,00
-13312,20	995,00
-13280,83	859,00
-13249,53	873,00
-13218,30	806,00
-13187,16	882,00
-13156,09	1140,00
-13125,10	946,00
-13094,18	912,00
-13063,34	976,00
-13032,58	776,00
-13001,89	1023,00
-12971,28	943,00
-12940,74	901,00
-12910,27	911,00
-12879,88	911,00
-12849,57	953,00
-12819,33	1027,00
-12789,16	959,00
-12759,06	915,00
-12729,04	874,00
-12699,09	2409,00
-12669,21	890,00
-12639,41	909,00
-12609,68	876,00
-12580,02	923,00
-12550,43	1004,00
-12520,91	788,00
-12491,46	936,00
-12462,08	821,00
-12432,77	912,00
-12403,54	871,00
-12374,37	846,00
-12345,27	1027,00
-12316,24	988,00
-12287,29	944,00
-12258,40	868,00
-12229,57	1018,00
-12200,82	833,00
-12172,14	961,00
-12143,52	750,00
-12114,97	884,00
-12086,49	1020,00
-12058,07	1048,00
-12029,73	886,00
-12001,44	1018,00
-11973,23	890,00
-11945,08	866,00
-11917,00	963,00
-11888,98	800,00
-11861,03	989,00
-11833,15	922,00
-11805,32	954,00
-11777,57	904,00
-11749,88	968,00
-11722,25	880,00
-11694,69	862,00
-11667,19	901,00
-11639,75	1078,00
-11612,38	841,00
-11585,07	901,00
-11557,83	853,00
-11530,65	1152,00
-11503,53	901,00
-11476,47	945,00
-11449,48	924,00
-11422,54	1050,00
-11395,67	941,00
-11368,86	959,00
-11342,11	888,00
-11315,43	873,00
-11288,80	916,00
-11262,23	928,00
-11235,73	966,00
-11209,28	1160,00
-11182,90	967,00
-11156,57	993,00
-11130,31	1078,00
-11104,10	891,00
-11077,96	912,00
-11051,87	982,00
-11025,84	917,00
-10999,87	933,00
-10973,96	908,00
-10948,11	870,00
-10922,31	966,00
-10896,58	944,00
-10870,90	1103,00
-10845,28	1013,00
-10819,71	808,00
-10794,20	977,00
-10768,75	1079,00
-10743,36	997,00
-10718,02	942,00
-10692,74	959,00
-10667,52	891,00
-10642,35	975,00
-10617,24	1016,00
-10592,18	971,00
-10567,18	930,00
-10542,23	1075,00
-10517,34	984,00
-10492,51	1096,00
-10467,72	988,00
-10443,00	1051,00
-10418,32	1064,00
-10393,70	1027,00
-10369,14	963,00
-10344,63	943,00
-10320,17	1094,00
-10295,77	1079,00
-10271,42	1132,00
-10247,12	1088,00
-10222,88	1260,00
-10198,68	996,00
-10174,54	1138,00
-10150,46	1262,00
-10126,42	1279,00
-10102,44	1144,00
-10078,51	1175,00
-10054,63	1296,00
-10030,80	1304,00
-10007,03	1396,00
-9983,30	1254,00
-9959,63	1333,00
-9936,01	1504,00
-9912,44	1414,00
-9888,92	1467,00
-9865,44	1324,00
-9842,02	1478,00
-9818,65	1571,00
-9795,33	1333,00
-9772,06	1480,00
-9748,84	1469,00
-9725,67	1558,00
-9702,55	1684,00
-9679,47	1853,00
-9656,45	1979,00
-9633,47	1851,00
-9610,55	1956,00
-9587,67	2154,00
-9564,84	2333,00
-9542,06	2395,00
-9519,32	2620,00
-9496,64	2777,00
-9474,00	2783,00
-9451,41	2896,00
-9428,87	2987,00
-9406,37	2974,00
-9383,92	2801,00
-9361,52	2749,00
-9339,17	3024,00
-9316,86	3307,00
-9294,60	3657,00
-9272,38	3967,00
-9250,21	4453,00
-9228,09	4460,00
-9206,01	4556,00
-9183,98	3953,00
-9162,00	3668,00
-9140,06	3803,00
-9118,16	3725,00
-9096,31	3836,00
-9074,51	4137,00
-9052,75	4213,00
-9031,04	3988,00
-9009,37	3771,00
-8987,74	3460,00
-8966,16	3201,00
-8944,63	2833,00
-8923,14	3036,00
-8901,69	2868,00
-8880,29	3011,00
-8858,93	3318,00
-8837,61	3553,00
-8816,34	3603,00
-8795,11	3733,00
-8773,92	3354,00
-8752,78	3164,00
-8731,68	2993,00
-8710,62	3159,00
-8689,61	3092,00
-8668,63	3314,00
-8647,70	3596,00
-8626,82	3401,00
-8605,97	3441,00
-8585,17	3187,00
-8564,41	3043,00
-8543,69	2879,00
-8523,01	2692,00
-8502,37	2951,00
-8481,78	2887,00
-8461,23	2997,00
-8440,71	3214,00
-8420,24	3356,00
-8399,81	3566,00
-8379,42	3456,00
-8359,08	3273,00
-8338,77	2994,00
-8318,50	2685,00
-8298,27	2719,00
-8278,09	2934,00
-8257,94	2958,00
-8237,83	3218,00
-8217,76	3319,00
-8197,74	3309,00
-8177,75	3342,00
-8157,80	3026,00
-8137,89	2689,00
-8118,02	2631,00
-8098,19	2797,00
-8078,40	2732,00
-8058,65	2648,00
-8038,93	2940,00
-8019,26	2854,00
-7999,62	2832,00
-7980,02	2565,00
-7960,46	2426,00
-7940,94	2336,00
-7921,46	2451,00
-7902,01	2333,00
-7882,60	2502,00
-7863,23	2300,00
-7843,90	2415,00
-7824,61	2562,00
-7805,35	2725,00
-7786,13	2685,00
-7766,95	2684,00
-7747,80	2593,00
-7728,69	2481,00
-7709,62	2404,00
-7690,59	2523,00
-7671,59	2758,00
-7652,63	2586,00
-7633,70	2750,00
-7614,81	2722,00
-7595,96	2454,00
-7577,15	2320,00
-7558,37	2224,00
-7539,62	2407,00
-7520,91	2412,00
-7502,24	2532,00
-7483,60	2608,00
-7465,00	2432,00
-7446,44	2332,00
-7427,91	1970,00
-7409,41	1978,00
-7390,95	1963,00
-7372,53	1907,00
-7354,14	1857,00
-7335,78	1774,00
-7317,46	2055,00
-7299,18	2032,00
-7280,92	2189,00
-7262,71	2461,00
-7244,52	2479,00
-7226,38	2418,00
-7208,26	2306,00
-7190,18	2267,00
-7172,14	2109,00
-7154,12	2230,00
-7136,15	2086,00
-7118,20	2365,00
-7100,29	2511,00
-7082,41	2498,00
-7064,57	2234,00
-7046,76	2237,00
-7028,98	1972,00
-7011,24	2015,00
-6993,53	1606,00
-6975,85	1583,00
-6958,20	1575,00
-6940,59	1485,00
-6923,01	1482,00
-6905,46	1752,00
-6887,94	1865,00
-6870,46	2330,00
-6853,01	2266,00
-6835,59	2250,00
-6818,21	1977,00
-6800,85	1943,00
-6783,53	1753,00
-6766,24	1510,00
-6748,98	1487,00
-6731,76	1423,00
-6714,56	1384,00
-6697,40	1243,00
-6680,26	1342,00
-6663,16	1452,00
-6646,09	1736,00
-6629,05	1805,00
-6612,05	1975,00
-6595,07	1767,00
-6578,13	1828,00
-6561,21	1558,00
-6544,33	1481,00
-6527,47	1255,00
-6510,65	1333,00
-6493,86	1178,00
-6477,10	1322,00
-6460,36	1318,00
-6443,66	1214,00
-6426,99	1110,00
-6410,35	1274,00
-6393,74	1490,00
-6377,16	1247,00
-6360,61	1498,00
-6344,09	1408,00
-6327,59	1498,00
-6311,13	1590,00
-6294,70	1576,00
-6278,29	1640,00
-6261,92	1730,00
-6245,58	1974,00
-6229,26	1876,00
-6212,97	1736,00
-6196,72	1507,00
-6180,49	1354,00
-6164,29	1176,00
-6148,12	1238,00
-6131,98	1230,00
-6115,86	1079,00
-6099,78	1012,00
-6083,72	1009,00
-6067,69	1033,00
-6051,69	999,00
-6035,72	1206,00
-6019,78	1099,00
-6003,87	1422,00
-5987,98	1477,00
-5972,12	1529,00
-5956,29	1510,00
-5940,49	1340,00
-5924,71	1498,00
-5908,96	1199,00
-5893,24	1175,00
-5877,55	1136,00
-5861,89	1150,00
-5846,25	954,00
-5830,64	1176,00
-5815,05	1131,00
-5799,50	1053,00
-5783,97	1164,00
-5768,47	1301,00
-5752,99	1485,00
-5737,55	1399,00
-5722,12	1495,00
-5706,73	1487,00
-5691,36	1445,00
-5676,02	1182,00
-5660,71	1113,00
-5645,42	1122,00
-5630,16	1183,00
-5614,92	1343,00
-5599,71	1229,00
-5584,53	1333,00
-5569,37	1239,00
-5554,24	2373,00
-5539,14	1160,00
-5524,06	1191,00
-5509,01	1169,00
-5493,98	1291,00
-5478,98	1300,00
-5464,00	1193,00
-5449,05	1262,00
-5434,13	1159,00
-5419,23	1117,00
-5404,36	1071,00
-5389,51	1204,00
-5374,69	1362,00
-5359,89	1460,00
-5345,12	1622,00
-5330,37	1710,00
-5315,65	1387,00
-5300,95	1421,00
-5286,28	1244,00
-5271,63	1144,00
-5257,01	1209,00
-5242,41	1235,00
-5227,84	1124,00
-5213,29	1161,00
-5198,76	1079,00
-5184,26	1074,00
-5169,79	1019,00
-5155,33	1110,00
-5140,91	1218,00
-5126,51	1300,00
-5112,13	1321,00
-5097,77	1219,00
-5083,44	1263,00
-5069,13	1040,00
-5054,85	1097,00
-5040,59	1120,00
-5026,36	1324,00
-5012,15	1393,00
-4997,96	1300,00
-4983,80	1194,00
-4969,66	1075,00
-4955,54	1020,00
-4941,44	1193,00
-4927,37	1270,00
-4913,33	1546,00
-4899,30	1497,00
-4885,30	1509,00
-4871,33	1185,00
-4857,37	1084,00
-4843,44	962,00
-4829,53	1167,00
-4815,65	1198,00
-4801,79	959,00
-4787,95	1252,00
-4774,13	1101,00
-4760,34	1018,00
-4746,56	1078,00
-4732,82	1032,00
-4719,09	1132,00
-4705,38	1452,00
-4691,70	1467,00
-4678,04	1581,00
-4664,41	1420,00
-4650,79	1357,00
-4637,20	1120,00
-4623,63	1037,00
-4610,08	1187,00
-4596,56	1265,00
-4583,05	1134,00
-4569,57	1114,00
-4556,11	1171,00
-4542,67	1020,00
-4529,25	997,00
-4515,86	1186,00
-4502,49	1369,00
-4489,13	1456,00
-4475,80	1379,00
-4462,49	1062,00
-4449,21	1179,00
-4435,94	1031,00
-4422,70	1026,00
-4409,47	1013,00
-4396,27	1236,00
-4383,09	1025,00
-4369,93	1007,00
-4356,79	950,00
-4343,67	1008,00
-4330,58	1097,00
-4317,50	1225,00
-4304,45	1080,00
-4291,41	1082,00
-4278,40	1008,00
-4265,41	934,00
-4252,44	985,00
-4239,49	1107,00
-4226,55	1194,00
-4213,65	1143,00
-4200,76	1114,00
-4187,89	1008,00
-4175,04	967,00
-4162,21	892,00
-4149,40	1046,00
-4136,61	934,00
-4123,85	1029,00
-4111,10	989,00
-4098,37	995,00
-4085,66	1074,00
-4072,98	1042,00
-4060,31	924,00
-4047,66	1110,00
-4035,04	1217,00
-4022,43	953,00
-4009,84	911,00
-3997,27	857,00
-3984,72	863,00
-3972,19	990,00
-3959,69	934,00
-3947,20	925,00
-3934,73	976,00
-3922,27	910,00
-3909,84	868,00
-3897,43	978,00
-3885,04	979,00
-3872,67	904,00
-3860,31	919,00
-3847,98	1060,00
-3835,66	842,00
-3823,36	919,00
-3811,09	900,00
-3798,83	963,00
-3786,59	986,00
-3774,37	1054,00
-3762,17	868,00
-3749,98	980,00
-3737,82	907,00
-3725,67	1224,00
-3713,55	855,00
-3701,44	1071,00
-3689,35	855,00
-3677,28	1139,00
-3665,22	942,00
-3653,19	905,00
-3641,17	914,00
-3629,18	961,00
-3617,20	941,00
-3605,24	935,00
-3593,30	938,00
-3581,37	944,00
-3569,47	898,00
-3557,58	934,00
-3545,71	1023,00
-3533,86	941,00
-3522,02	872,00
-3510,21	955,00
-3498,41	977,00
-3486,63	885,00
-3474,87	928,00
-3463,12	944,00
-3451,40	1005,00
-3439,69	918,00
-3428,00	900,00
-3416,33	983,00
-3404,67	837,00
-3393,03	948,00
-3381,41	1052,00
-3369,81	967,00
-3358,22	998,00
-3346,66	994,00
-3335,10	1039,00
-3323,57	938,00
-3312,06	1002,00
-3300,56	991,00
-3289,08	865,00
-3277,61	924,00
-3266,16	1031,00
-3254,73	973,00
-3243,32	901,00
-3231,92	925,00
-3220,55	995,00
-3209,18	1048,00
-3197,84	876,00
-3186,51	827,00
-3175,20	869,00
-3163,90	873,00
-3152,63	1014,00
-3141,36	948,00
-3130,12	979,00
-3118,89	946,00
-3107,68	939,00
-3096,49	911,00
-3085,31	979,00
-3074,15	926,00
-3063,00	942,00
-3051,87	921,00
-3040,76	885,00
-3029,67	1167,00
-3018,59	1237,00
-3007,52	1077,00
-2996,48	972,00
-2985,44	920,00
-2974,43	990,00
-2963,43	880,00
-2952,45	944,00
-2941,48	914,00
-2930,53	978,00
-2919,60	839,00
-2908,68	888,00
-2897,78	1007,00
-2886,89	1009,00
-2876,02	926,00
-2865,17	956,00
-2854,33	986,00
-2843,50	939,00
-2832,70	969,00
-2821,90	953,00
-2811,13	972,00
-2800,37	967,00
-2789,62	823,00
-2778,89	985,00
-2768,18	992,00
-2757,48	911,00
-2746,80	1011,00
-2736,13	854,00
-2725,48	1047,00
-2714,84	856,00
-2704,22	965,00
-2693,61	938,00
-2683,02	849,00
-2672,45	982,00
-2661,89	955,00
-2651,34	981,00
-2640,81	980,00
-2630,30	1054,00
-2619,80	803,00
-2609,31	1082,00
-2598,84	814,00
-2588,39	983,00
-2577,95	931,00
-2567,52	797,00
-2557,11	917,00
-2546,71	984,00
-2536,33	1090,00
-2525,97	992,00
-2515,62	1054,00
-2505,28	952,00
-2494,96	920,00
-2484,65	1049,00
-2474,36	1295,00
-2464,08	858,00
-2453,82	1092,00
-2443,57	911,00
-2433,33	815,00
-2423,11	1053,00
-2412,91	988,00
-2402,72	863,00
-2392,54	921,00
-2382,38	927,00
-2372,23	1030,00
-2362,09	2181,00
-2351,97	815,00
-2341,87	776,00
-2331,78	1017,00
-2321,70	932,00
-2311,64	966,00
-2301,59	904,00
-2291,55	911,00
-2281,53	983,00
-2271,53	866,00
-2261,53	1078,00
-2251,55	888,00
-2241,59	947,00
-2231,64	965,00
-2221,70	956,00
-2211,78	975,00
-2201,87	921,00
-2191,97	982,00
-2182,09	928,00
-2172,22	1035,00
-2162,37	960,00
-2152,53	806,00
-2142,70	937,00
-2132,89	879,00
-2123,09	1018,00
-2113,30	928,00
-2103,53	898,00
-2093,77	952,00
-2084,02	987,00
-2074,29	998,00
-2064,57	1000,00
-2054,86	1085,00
-2045,17	978,00
-2035,49	1062,00
-2025,82	864,00
-2016,17	1022,00
-2006,53	877,00
-1996,91	932,00
-1987,29	933,00
-1977,69	983,00
-1968,11	897,00
-1958,53	912,00
-1948,97	952,00
-1939,42	837,00
-1929,89	940,00
-1920,37	941,00
-1910,86	922,00
-1901,36	936,00
-1891,88	931,00
-1882,41	986,00
-1872,95	975,00
-1863,51	979,00
-1854,08	933,00
-1844,66	996,00
-1835,26	995,00
-1825,86	1020,00
-1816,48	862,00
-1807,11	1004,00
-1797,76	903,00
-1788,42	1039,00
-1779,09	969,00
-1769,77	1006,00
-1760,47	1113,00
-1751,17	830,00
-1741,89	864,00
-1732,63	1015,00
-1723,37	1117,00
-1714,13	1086,00
-1704,90	943,00
-1695,68	1012,00
-1686,48	909,00
-1677,29	908,00
-1668,11	1128,00
-1658,94	928,00
-1649,78	960,00
-1640,64	962,00
-1631,51	924,00
-1622,39	995,00
-1613,28	947,00
-1604,19	1061,00
-1595,10	967,00
-1586,03	988,00
-1576,97	983,00
-1567,93	975,00
-1558,89	994,00
-1549,87	1025,00
-1540,86	865,00
-1531,86	861,00
-1522,87	907,00
-1513,90	1047,00
-1504,93	1071,00
-1495,98	1021,00
-1487,04	1108,00
-1478,12	964,00
-1469,20	889,00
-1460,30	1001,00
-1451,40	1171,00
-1442,52	983,00
-1433,65	992,00
-1424,80	1035,00
-1415,95	895,00
-1407,12	1139,00
-1398,30	969,00
-1389,48	1006,00
-1380,69	888,00
-1371,90	883,00
-1363,12	976,00
-1354,36	1096,00
-1345,60	920,00
-1336,86	996,00
-1328,13	1032,00
-1319,41	903,00
-1310,70	905,00
-1302,01	950,00
-1293,32	891,00
-1284,65	933,00
-1275,99	1061,00
-1267,33	1121,00
-1258,69	1023,00
-1250,06	931,00
-1241,45	833,00
-1232,84	1025,00
-1224,25	994,00
-1215,66	968,00
-1207,09	1005,00
-1198,53	924,00
-1189,97	968,00
-1181,43	902,00
-1172,91	984,00
-1164,39	1055,00
-1155,88	871,00
-1147,38	812,00
-1138,90	908,00
-1130,43	857,00
-1121,96	941,00
-1113,51	901,00
-1105,07	987,00
-1096,64	1007,00
-1088,22	915,00
-1079,81	1063,00
-1071,41	1046,00
-1063,02	986,00
-1054,65	978,00
-1046,28	927,00
-1037,92	962,00
-1029,58	947,00
-1021,24	1050,00
-1012,92	1221,00
-1004,61	996,00
-996,30	1215,00
-988,01	832,00
-979,73	948,00
-971,46	976,00
-963,20	925,00
-954,95	839,00
-946,71	864,00
-938,48	956,00
-930,26	910,00
-922,06	867,00
-913,86	1048,00
-905,67	904,00
-897,49	980,00
-889,33	817,00
-881,17	1005,00
-873,02	1043,00
-864,89	823,00
-856,76	890,00
-848,65	993,00
-840,54	1044,00
-832,45	974,00
-824,36	808,00
-816,29	1044,00
-808,22	1046,00
-800,17	1026,00
-792,12	1073,00
-784,09	1041,00
-776,06	864,00
-768,05	947,00
-760,04	923,00
-752,05	1026,00
-744,07	980,00
-736,09	1007,00
-728,13	855,00
-720,17	963,00
-712,23	909,00
-704,29	907,00
-696,37	934,00
-688,45	1057,00
-680,55	907,00
-672,65	996,00
-664,77	873,00
-656,89	998,00
-649,03	810,00
-641,17	1016,00
-633,32	1003,00
-625,49	982,00
-617,66	876,00
-609,84	1012,00
-602,03	839,00
-594,23	1035,00
-586,45	947,00
-578,67	898,00
-570,90	967,00
-563,14	864,00
-555,39	1012,00
-547,65	1016,00
-539,91	876,00
-532,19	979,00
-524,48	978,00
-516,78	916,00
-509,08	1060,00
-501,40	993,00
-493,72	956,00
-486,06	878,00
-478,40	1054,00
-470,76	802,00
-463,12	893,00
-455,49	953,00
-447,87	908,00
-440,26	905,00
-432,66	951,00
-425,07	1022,00
-417,49	985,00
-409,92	830,00
-402,35	888,00
-394,80	855,00
-387,25	952,00
-379,72	1006,00
-372,19	979,00
-364,67	1096,00
-357,17	900,00
-349,67	1032,00
-342,18	960,00
-334,69	1056,00
-327,22	946,00
-319,76	948,00
-312,30	988,00
-304,86	953,00
-297,42	977,00
-290,00	886,00
-282,58	993,00
-275,17	1035,00
-267,77	1142,00
-260,37	1033,00
-252,99	1044,00
-245,62	988,00
-238,25	922,00
-230,90	911,00
-223,55	1088,00
-216,21	1019,00
-208,88	1182,00
-201,56	1030,00
-194,25	1105,00
-186,94	1078,00
-179,65	1147,00
-172,36	1215,00
-165,08	1154,00
-157,81	1246,00
-150,55	1285,00
-143,30	1296,00
-136,06	1256,00
-128,82	1319,00
-121,60	1348,00
-114,38	1505,00
-107,17	1591,00
-99,97	1799,00
-92,78	1724,00
-85,60	1878,00
-78,42	2004,00
-71,25	2198,00
-64,10	2347,00
-56,95	2663,00
-49,81	2837,00
-42,67	3590,00
-35,55	3964,00
-28,43	5142,00
-21,33	8049,00
-14,23	24416,00
-7,14	57498,00
-0,05	57284,00
7,02	57012,00
14,09	57319,00
21,14	20617,00
28,19	9229,00
35,23	6221,00
42,27	5196,00
49,29	4158,00
56,31	3610,00
63,32	3353,00
70,32	2882,00
77,31	2591,00
84,29	2272,00
91,27	2250,00
98,23	2165,00
105,19	2014,00
112,14	2216,00
119,09	3091,00
126,02	4450,00
132,95	5125,00
139,87	5212,00
146,78	5339,00
153,68	5253,00
160,58	4942,00
167,46	4901,00
174,34	5013,00
181,21	4979,00
188,08	4913,00
194,93	4941,00
201,78	4888,00
208,62	4924,00
215,45	4954,00
222,27	4971,00
229,09	5002,00
235,90	4691,00
242,70	4753,00
249,49	4888,00
256,27	4607,00
263,05	4551,00
269,82	4518,00
276,58	4469,00
283,33	4433,00
290,08	4364,00
296,82	4350,00
303,55	4133,00
310,27	4151,00
316,98	4215,00
323,69	4117,00
330,39	4165,00
337,08	4170,00
343,76	4184,00
350,44	4180,00
357,11	4088,00
363,77	3944,00
370,42	4063,00
377,07	4085,00
383,71	4160,00
390,34	3955,00
396,96	4087,00
403,58	3994,00
410,19	4171,00
416,79	4284,00
423,38	4326,00
429,97	4391,00
436,55	4236,00
443,12	4441,00
449,68	4460,00
456,24	4169,00
462,79	4159,00
469,33	3990,00
475,86	3876,00
482,39	3740,00
488,91	3742,00
495,42	3708,00
501,93	3709,00
508,42	3501,00
514,91	3547,00
521,40	3496,00
527,87	3543,00
534,34	3527,00
540,80	3508,00
547,25	3538,00
553,70	3496,00
560,14	3469,00
566,57	3551,00
573,00	3516,00
579,41	3695,00
585,83	3635,00
592,23	3667,00
598,62	3751,00
605,01	3671,00
611,40	3838,00
617,77	3854,00
624,14	3673,00
630,50	3547,00
636,85	3467,00
643,20	3370,00
649,54	3196,00
655,87	3292,00
662,20	3262,00
668,52	3194,00
674,83	3187,00
681,13	3161,00
687,43	3247,00
693,72	3076,00
700,00	3026,00
706,28	3051,00
712,55	3056,00
718,81	3229,00
725,07	3084,00
731,32	2969,00
737,56	3196,00
743,79	3016,00
750,02	3062,00
756,24	2924,00
762,46	2955,00
768,67	3305,00
774,87	2927,00
781,06	2931,00
787,25	2999,00
793,43	3033,00
799,60	2852,00
805,77	3094,00
811,93	2974,00
818,08	2982,00
824,23	3044,00
830,37	3226,00
836,50	2943,00
842,63	2945,00
848,75	3004,00
854,87	2929,00
860,97	3008,00
867,07	2992,00
873,17	3021,00
879,25	3039,00
885,33	3018,00
891,41	3119,00
897,47	3052,00
903,53	2775,00
909,59	2981,00
915,63	2854,00
921,67	2811,00
927,71	2885,00
933,74	2982,00
939,76	2708,00
945,77	2771,00
951,78	2846,00
957,78	2696,00
963,78	2827,00
969,77	2735,00
975,75	2757,00
981,72	2634,00
987,69	4177,00
993,66	2909,00
999,61	2928,00
1005,56	2795,00
1011,51	2652,00
1017,44	2831,00
1023,37	2881,00
1029,30	2935,00
1035,22	2844,00
1041,13	2811,00
1047,03	3039,00
1052,93	3629,00
1058,83	4917,00
1064,71	5410,00
1070,59	4602,00
1076,47	3839,00
1082,33	3574,00
1088,20	3429,00
1094,05	3220,00
1099,90	2989,00
1105,74	3033,00
1111,58	3005,00
1117,41	3346,00
1123,23	4271,00
1129,05	5224,00
1134,86	4676,00
1140,67	3743,00
1146,47	3050,00
1152,26	2960,00
1158,05	2832,00
1163,83	2920,00
1169,60	3074,00
1175,37	2924,00
1181,13	2843,00
1186,89	2637,00
1192,64	2651,00
1198,38	2812,00
1204,12	2436,00
1209,85	2589,00
1215,58	2591,00
1221,30	2691,00
1227,02	2674,00
1232,72	2615,00
1238,43	2548,00
1244,12	2591,00
1249,81	2584,00
1255,50	2731,00
1261,17	2801,00
1266,85	2801,00
1272,51	2944,00
1278,17	2997,00
1283,83	3309,00
1289,47	4856,00
1295,12	6497,00
1300,75	5688,00
1306,38	4549,00
1312,01	3621,00
1317,63	3195,00
1323,24	2998,00
1328,85	2921,00
1334,45	2715,00
1340,04	2761,00
1345,63	2684,00
1351,22	2914,00
1356,80	2799,00
1362,37	2976,00
1367,93	2872,00
1373,49	2978,00
1379,05	2818,00
1384,60	2707,00
1390,14	2742,00
1395,68	2768,00
1401,21	2867,00
1406,74	3073,00
1412,26	3652,00
1417,77	4242,00
1423,28	4046,00
1428,78	4530,00
1434,28	5561,00
1439,77	6327,00
1445,26	6135,00
1450,74	5773,00
1456,22	5253,00
1461,68	5152,00
1467,15	4858,00
1472,61	4183,00
1478,06	3716,00
1483,51	3205,00
1488,95	2864,00
1494,38	2915,00
1499,81	2686,00
1505,24	2560,00
1510,65	2570,00
1516,07	2539,00
1521,48	2435,00
1526,88	2367,00
1532,27	2413,00
1537,67	2454,00
1543,05	2365,00
1548,43	2268,00
1553,81	2368,00
1559,18	2334,00
1564,54	2347,00
1569,90	2294,00
1575,25	2225,00
1580,60	2121,00
1585,94	2303,00
1591,28	2215,00
1596,61	2179,00
1601,93	2244,00
1607,25	2328,00
1612,57	2177,00
1617,88	2148,00
1623,18	2171,00
1628,48	2157,00
1633,77	2172,00
1639,06	2287,00
1644,34	2098,00
1649,62	2031,00
1654,89	2157,00
1660,16	2089,00
1665,42	2248,00
1670,67	2096,00
1675,92	1953,00
1681,17	1974,00
1686,41	2002,00
1691,64	2017,00
1696,87	2064,00
1702,10	2054,00
1707,32	2068,00
1712,53	2120,00
1717,74	2038,00
1722,94	2064,00
1728,14	1983,00
1733,33	1923,00
1738,52	1832,00
1743,70	1955,00
1748,88	2008,00
1754,05	1985,00
1759,22	1868,00
1764,38	1084,00
1769,53	2011,00
1774,69	1853,00
1779,83	1853,00
1784,97	1894,00
1790,11	1842,00
1795,24	1862,00
1800,36	1824,00
1805,48	1826,00
1810,60	1874,00
1815,71	1811,00
1820,82	1788,00
1825,92	1896,00
1831,01	1812,00
1836,10	1726,00
1841,19	1903,00
1846,26	1644,00
1851,34	1814,00
1856,41	1837,00
1861,47	1707,00
1866,53	1880,00
1871,59	1796,00
1876,64	1819,00
1881,68	1712,00
1886,72	1828,00
1891,76	1656,00
1896,79	1707,00
1901,81	1630,00
1906,83	1657,00
1911,85	1589,00
1916,86	1788,00
1921,86	1632,00
1926,86	1524,00
1931,86	1747,00
1936,85	1624,00
1941,83	1646,00
1946,81	1613,00
1951,79	1592,00
1956,76	1554,00
1961,72	1492,00
1966,68	1592,00
1971,64	1571,00
1976,59	1627,00
1981,54	1637,00
1986,48	1622,00
1991,42	1439,00
1996,35	1836,00
2001,27	1592,00
2006,20	1542,00
2011,11	1558,00
2016,03	1570,00
2020,93	1537,00
2025,84	1529,00
2030,73	1539,00
2035,63	1427,00
2040,52	1603,00
2045,40	1483,00
2050,28	1592,00
2055,15	1644,00
2060,02	1428,00
2064,89	1558,00
2069,75	1555,00
2074,60	1498,00
2079,46	1452,00
2084,30	1439,00
2089,14	1357,00
2093,98	1602,00
2098,81	1475,00
2103,64	1504,00
2108,46	1484,00
2113,28	1665,00
2118,09	1537,00
2122,90	1412,00
2127,70	1458,00
2132,50	1593,00
2137,30	1433,00
2142,09	1366,00
2146,87	1384,00
2151,66	1452,00
2156,43	1426,00
2161,20	1460,00
2165,97	1586,00
2170,73	1455,00
2175,49	1584,00
2180,24	1562,00
2184,99	1667,00
2189,74	1683,00
2194,48	1587,00
2199,21	1611,00
2203,94	1416,00
2208,67	1354,00
2213,39	1268,00
2218,11	1489,00
2222,82	1405,00
2227,53	1400,00
2232,23	1457,00
2236,93	1395,00
2241,63	1407,00
2246,32	1475,00
2251,00	1526,00
2255,68	1469,00
2260,36	1430,00
2265,03	1483,00
2269,70	1523,00
2274,36	1292,00
2279,02	1515,00
2283,68	1425,00
2288,33	1303,00
2292,97	1458,00
2297,61	1424,00
2302,25	1450,00
2306,88	1276,00
2311,51	1305,00
2316,14	1357,00
2320,75	1247,00
2325,37	1311,00
2329,98	1410,00
2334,59	1358,00
2339,19	1336,00
2343,79	1230,00
2348,38	1253,00
2352,97	1273,00
2357,55	1425,00
2362,13	1321,00
2366,71	1239,00
2371,28	1453,00
2375,85	1327,00
2380,41	1431,00
2384,97	1338,00
2389,52	1298,00
2394,07	1451,00
2398,62	1273,00
2403,16	1424,00
2407,70	1192,00
2412,23	1224,00
2416,76	1318,00
2421,29	1399,00
2425,81	1447,00
2430,32	1403,00
2434,84	1223,00
2439,34	1242,00
2443,85	1395,00
2448,35	1366,00
2452,84	1199,00
2457,33	1367,00
2461,82	1133,00
2466,30	1198,00
2470,78	1339,00
2475,25	1245,00
2479,72	1287,00
2484,19	1358,00
2488,65	1342,00
2493,11	1203,00
2497,56	1428,00
2502,01	1153,00
2506,46	1359,00
2510,90	1217,00
2515,34	1204,00
2519,77	1245,00
2524,20	1206,00
2528,62	1275,00
2533,04	1268,00
2537,46	1238,00
2541,87	1329,00
2546,28	1213,00
2550,68	1351,00
2555,08	1243,00
2559,48	1245,00
2563,87	1256,00
2568,26	1195,00
2572,64	1334,00
2577,02	1319,00
2581,40	1146,00
2585,77	1307,00
2590,14	1236,00
2594,50	1207,00
2598,86	1381,00
2603,22	1318,00
2607,57	1196,00
2611,92	1322,00
2616,26	1442,00
2620,60	1389,00
2624,94	1270,00
2629,27	1355,00
2633,60	1259,00
2637,92	1460,00
2642,24	1460,00
2646,56	1284,00
2650,87	1220,00
2655,18	1399,00
2659,48	1167,00
2663,78	1294,00
2668,08	1236,00
2672,37	1337,00
2676,66	1261,00
2680,95	1318,00
2685,23	1436,00
2689,50	1408,00
2693,78	1343,00
2698,05	1311,00
2702,31	1488,00
2706,57	1513,00
2710,83	1610,00
2715,08	1611,00
2719,33	1684,00
2723,58	1585,00
2727,82	1708,00
2732,06	1637,00
2736,29	1539,00
2740,53	1558,00
2744,75	1481,00
2748,97	1519,00
2753,19	1484,00
2757,41	1446,00
2761,62	1501,00
2765,83	1425,00
2770,03	1457,00
2774,23	1424,00
2778,43	1379,00
2782,62	1482,00
2786,81	1606,00
2791,00	1553,00
2795,18	1561,00
2799,35	1637,00
2803,53	1715,00
2807,70	1785,00
2811,86	1728,00
2816,03	1937,00
2820,19	2011,00
2824,34	1966,00
2828,49	2187,00
2832,64	2342,00
2836,78	2921,00
2840,92	3213,00
2845,06	3909,00
2849,19	4258,00
2853,32	4478,00
2857,45	4397,00
2861,57	4308,00
2865,69	4252,00
2869,80	4143,00
2873,91	4284,00
2878,02	4777,00
2882,12	5163,00
2886,22	5144,00
2890,32	4930,00
2894,41	4559,00
2898,50	4232,00
2902,58	3939,00
2906,67	3667,00
2910,74	3421,00
2914,82	3122,00
2918,89	3222,00
2922,96	2750,00
2927,02	2680,00
2931,08	2556,00
2935,13	2373,00
2939,19	2340,00
2943,24	2070,00
2947,28	2151,00
2951,32	1869,00
2955,36	1702,00
2959,40	1740,00
2963,43	1647,00
2967,46	1561,00
2971,48	1506,00
2975,50	1438,00
2979,52	1466,00
2983,53	1486,00
2987,54	1345,00
2991,55	1378,00
2995,55	1331,00
2999,55	1267,00
3003,54	1213,00
3007,54	1232,00
3011,53	1293,00
3015,51	1219,00
3019,49	1285,00
3023,47	1150,00
3027,45	1199,00
3031,42	1146,00
3035,39	1160,00
3039,35	1108,00
3043,31	1233,00
3047,27	1156,00
3051,22	1136,00
3055,17	1064,00
3059,12	1024,00
3063,06	1108,00
3067,00	1040,00
3070,94	1042,00
3074,87	1152,00
3078,80	1104,00
3082,73	1098,00
3086,65	1100,00
3090,57	1056,00
3094,49	1056,00
3098,40	941,00
3102,31	1006,00
3106,22	1091,00
3110,12	1080,00
3114,02	930,00
3117,92	1048,00
3121,81	1014,00
3125,70	1003,00
3129,58	949,00
3133,47	956,00
3137,34	1069,00
3141,22	1056,00
3145,09	1070,00
3148,96	1128,00
3152,83	986,00
3156,69	1085,00
3160,55	954,00
3164,40	1103,00
3168,26	1003,00
3172,10	1142,00
3175,95	1045,00
3179,79	1058,00
3183,63	1077,00
3187,47	1048,00
3191,30	1005,00
3195,13	1001,00
3198,95	939,00
3202,78	1007,00
3206,60	953,00
3210,41	897,00
3214,23	961,00
3218,03	1038,00
3221,84	1038,00
3225,64	1009,00
3229,44	976,00
3233,24	912,00
3237,03	993,00
3240,82	913,00
3244,61	927,00
3248,39	909,00
3252,17	1015,00
3255,95	1135,00
3259,72	1082,00
3263,49	1125,00
3267,26	891,00
3271,03	884,00
3274,79	989,00
3278,54	974,00
3282,30	880,00
3286,05	1018,00
3289,80	1000,00
3293,54	850,00
3297,29	1051,00
3301,02	917,00
3304,76	923,00
3308,49	995,00
3312,22	900,00
3315,95	993,00
3319,67	933,00
3323,39	1124,00
3327,10	1066,00
3330,82	905,00
3334,53	948,00
3338,24	1002,00
3341,94	919,00
3345,64	949,00
3349,34	891,00
3353,03	1038,00
3356,72	946,00
3360,41	981,00
3364,10	876,00
3367,78	949,00
3371,46	859,00
3375,13	911,00
3378,81	1041,00
3382,48	932,00
3386,14	1086,00
3389,81	995,00
3393,47	963,00
3397,12	1123,00
3400,78	1075,00
3404,43	954,00
3408,08	1037,00
3411,72	922,00
3415,36	910,00
3419,00	998,00
3422,64	867,00
3426,27	1072,00
3429,90	1007,00
3433,53	956,00
3437,15	864,00
3440,77	845,00
3444,39	964,00
3448,00	957,00
3451,62	939,00
3455,22	955,00
3458,83	851,00
3462,43	894,00
3466,03	1010,00
3469,63	848,00
3473,22	865,00
3476,81	817,00
3480,40	1044,00
3483,99	892,00
3487,57	1036,00
3491,15	892,00
3494,72	967,00
3498,29	918,00
3501,86	869,00
3505,43	919,00
3508,99	841,00
3512,56	720,00
3516,11	923,00
3519,67	885,00
3523,22	893,00
3526,77	835,00
3530,32	1149,00
3533,86	917,00
3537,40	998,00
3540,94	880,00
3544,47	1003,00
3548,00	915,00
3551,53	975,00
3555,06	881,00
3558,58	1044,00
3562,10	961,00
3565,62	780,00
3569,13	974,00
3572,64	1113,00
3576,15	874,00
3579,66	869,00
3583,16	863,00
3586,66	856,00
3590,16	963,00
3593,65	896,00
3597,14	862,00
3600,63	934,00
3604,11	951,00
3607,60	928,00
3611,08	936,00
3614,55	943,00
3618,03	889,00
3621,50	845,00
3624,97	816,00
3628,43	921,00
3631,90	814,00
3635,36	797,00
3638,81	909,00
3642,27	939,00
3645,72	891,00
3649,17	813,00
3652,61	790,00
3656,06	820,00
3659,50	908,00
3662,93	812,00
3666,37	938,00
3669,80	1065,00
3673,23	954,00
3676,65	908,00
3680,08	964,00
3683,50	772,00
3686,92	846,00
3690,33	848,00
3693,74	770,00
3697,15	767,00
3700,56	956,00
3703,96	890,00
3707,36	774,00
3710,76	772,00
3714,16	883,00
3717,55	801,00
3720,94	788,00
3724,33	786,00
3727,71	893,00
3731,10	796,00
3734,48	851,00
3737,85	786,00
3741,23	737,00
3744,60	828,00
3747,97	752,00
3751,33	874,00
3754,69	771,00
3758,05	819,00
3761,41	730,00
3764,77	759,00
3768,12	727,00
3771,47	727,00
3774,82	869,00
3778,16	-16,00
3781,50	19,00
3784,84	1,00
3788,18	8,00
>>>>>End Processed Spectral Data<<<<<
