SpectraSuite Data File
++++++++++++++++++++++++++++++++++++
Date: Mon Jan 05 16:34:19 ICT 2026
User: Administrator
Dark Spectrum Present: Yes
Reference Spectrum Present: No
Number of Sampled Component Spectra: 1
Spectrometers: MAYP113682
Integration Time (usec): 3000000 (MAYP113682)
Spectra Averaged: 1 (MAYP113682)
Boxcar Smoothing: 0 (MAYP113682)
Correct for Electrical Dark: No (MAYP113682)
Strobe/Lamp Enabled: No (MAYP113682)
Correct for Detector Non-linearity: No (MAYP113682)
Correct for Stray Light: No (MAYP113682)
Number of Pixels in Processed Spectrum: 2068
>>>>>Begin Processed Spectral Data<<<<<
-37534,58	34,00
-37414,56	9,00
-37295,11	9,00
-37176,24	4,00
-37057,95	653,00
-36940,22	730,00
-36823,05	700,00
-36706,45	853,00
-36590,40	821,00
-36474,90	735,00
-36359,95	780,00
-36245,55	857,00
-36131,68	794,00
-36018,35	819,00
-35905,55	835,00
-35793,29	982,00
-35681,54	792,00
-35570,32	833,00
-35459,62	840,00
-35349,43	893,00
-35239,75	867,00
-35130,58	846,00
-35021,91	795,00
-34913,74	799,00
-34806,07	920,00
-34698,89	901,00
-34592,20	818,00
-34486,00	937,00
-34380,28	957,00
-34275,04	811,00
-34170,27	836,00
-34065,98	999,00
-33962,16	918,00
-33858,81	918,00
-33755,92	987,00
-33653,49	1002,00
-33551,52	970,00
-33450,01	968,00
-33348,94	898,00
-33248,33	824,00
-33148,16	836,00
-33048,43	820,00
-32949,14	1093,00
-32850,29	971,00
-32751,87	864,00
-32653,89	888,00
-32556,33	999,00
-32459,20	883,00
-32362,49	879,00
-32266,19	926,00
-32170,32	785,00
-32074,86	949,00
-31979,82	995,00
-31885,18	984,00
-31790,95	1038,00
-31697,12	1020,00
-31603,69	1005,00
-31510,67	1061,00
-31418,04	932,00
-31325,80	917,00
-31233,95	945,00
-31142,49	940,00
-31051,42	934,00
-30960,73	1026,00
-30870,43	1037,00
-30780,50	940,00
-30690,95	985,00
-30601,77	1099,00
-30512,97	1032,00
-30424,53	1019,00
-30336,46	903,00
-30248,76	976,00
-30161,42	1049,00
-30074,44	931,00
-29987,81	1053,00
-29901,55	1006,00
-29815,63	886,00
-29730,07	969,00
-29644,86	1028,00
-29560,00	972,00
-29475,48	934,00
-29391,30	997,00
-29307,47	865,00
-29223,97	924,00
-29140,81	991,00
-29057,99	1119,00
-28975,50	794,00
-28893,34	971,00
-28811,51	849,00
-28730,00	943,00
-28648,82	949,00
-28567,97	978,00
-28487,43	920,00
-28407,21	926,00
-28327,32	873,00
-28247,73	994,00
-28168,46	847,00
-28089,50	1010,00
-28010,85	879,00
-27932,51	822,00
-27854,48	971,00
-27776,75	859,00
-27699,32	923,00
-27622,19	965,00
-27545,37	979,00
-27468,84	1001,00
-27392,60	1024,00
-27316,66	1051,00
-27241,01	950,00
-27165,66	893,00
-27090,59	879,00
-27015,81	988,00
-26941,31	1018,00
-26867,10	914,00
-26793,17	950,00
-26719,52	956,00
-26646,15	939,00
-26573,06	891,00
-26500,24	906,00
-26427,70	899,00
-26355,43	829,00
-26283,43	942,00
-26211,71	1008,00
-26140,25	978,00
-26069,06	1029,00
-25998,13	781,00
-25927,46	843,00
-25857,06	872,00
-25786,92	902,00
-25717,04	891,00
-25647,42	1056,00
-25578,05	823,00
-25508,94	890,00
-25440,09	976,00
-25371,48	931,00
-25303,13	984,00
-25235,02	897,00
-25167,17	974,00
-25099,56	986,00
-25032,19	1005,00
-24965,07	839,00
-24898,20	901,00
-24831,56	937,00
-24765,17	968,00
-24699,01	897,00
-24633,10	937,00
-24567,41	950,00
-24501,97	885,00
-24436,75	890,00
-24371,77	882,00
-24307,03	943,00
-24242,51	847,00
-24178,22	931,00
-24114,16	912,00
-24050,32	893,00
-23986,71	923,00
-23923,32	899,00
-23860,16	884,00
-23797,22	888,00
-23734,50	925,00
-23672,00	923,00
-23609,71	920,00
-23547,65	824,00
-23485,80	903,00
-23424,16	758,00
-23362,74	1087,00
-23301,53	925,00
-23240,54	765,00
-23179,75	898,00
-23119,17	887,00
-23058,80	861,00
-22998,64	1023,00
-22938,68	927,00
-22878,93	965,00
-22819,39	888,00
-22760,04	916,00
-22700,90	923,00
-22641,96	887,00
-22583,22	828,00
-22524,68	859,00
-22466,33	919,00
-22408,19	935,00
-22350,23	895,00
-22292,48	925,00
-22234,92	892,00
-22177,55	993,00
-22120,37	1123,00
-22063,38	845,00
-22006,58	924,00
-21949,98	901,00
-21893,56	824,00
-21837,33	928,00
-21781,28	885,00
-21725,42	910,00
-21669,74	983,00
-21614,25	889,00
-21558,94	913,00
-21503,81	990,00
-21448,86	1046,00
-21394,10	868,00
-21339,51	798,00
-21285,10	860,00
-21230,86	807,00
-21176,81	897,00
-21122,93	987,00
-21069,22	767,00
-21015,69	852,00
-20962,33	923,00
-20909,14	914,00
-20856,13	833,00
-20803,28	1042,00
-20750,61	858,00
-20698,10	864,00
-20645,76	904,00
-20593,59	965,00
-20541,59	1007,00
-20489,75	888,00
-20438,07	797,00
-20386,56	916,00
-20335,22	824,00
-20284,03	843,00
-20233,01	939,00
-20182,15	869,00
-20131,45	946,00
-20080,91	804,00
-20030,52	905,00
-19980,30	896,00
-19930,23	809,00
-19880,32	935,00
-19830,56	998,00
-19780,96	883,00
-19731,52	884,00
-19682,23	983,00
-19633,09	861,00
-19584,10	858,00
-19535,26	888,00
-19486,58	999,00
-19438,04	914,00
-19389,66	967,00
-19341,42	937,00
-19293,33	838,00
-19245,39	954,00
-19197,60	963,00
-19149,95	980,00
-19102,45	894,00
-19055,09	738,00
-19007,87	979,00
-18960,80	937,00
-18913,87	954,00
-18867,09	870,00
-18820,44	1070,00
-18773,94	934,00
-18727,57	865,00
-18681,35	874,00
-18635,26	941,00
-18589,31	829,00
-18543,50	871,00
-18497,83	892,00
-18452,29	959,00
-18406,89	826,00
-18361,63	980,00
-18316,50	948,00
-18271,50	948,00
-18226,63	1035,00
-18181,90	919,00
-18137,30	893,00
-18092,84	899,00
-18048,50	1000,00
-18004,29	918,00
-17960,22	916,00
-17916,27	802,00
-17872,45	967,00
-17828,76	1028,00
-17785,20	909,00
-17741,77	866,00
-17698,46	950,00
-17655,28	882,00
-17612,22	984,00
-17569,29	880,00
-17526,48	909,00
-17483,79	1013,00
-17441,23	840,00
-17398,79	946,00
-17356,48	828,00
-17314,28	1091,00
-17272,21	951,00
-17230,26	918,00
-17188,42	899,00
-17146,71	916,00
-17105,12	904,00
-17063,64	910,00
-17022,28	872,00
-16981,04	802,00
-16939,92	860,00
-16898,91	1014,00
-16858,02	817,00
-16817,25	931,00
-16776,59	882,00
-16736,04	852,00
-16695,61	945,00
-16655,29	878,00
-16615,09	885,00
-16574,99	935,00
-16535,01	873,00
-16495,15	938,00
-16455,39	959,00
-16415,74	813,00
-16376,21	850,00
-16336,78	841,00
-16297,46	864,00
-16258,26	827,00
-16219,16	926,00
-16180,17	859,00
-16141,28	889,00
-16102,51	984,00
-16063,84	893,00
-16025,27	900,00
-15986,82	827,00
-15948,46	866,00
-15910,22	868,00
-15872,07	892,00
-15834,04	987,00
-15796,10	801,00
-15758,27	1094,00
-15720,54	934,00
-15682,91	875,00
-15645,39	1015,00
-15607,97	903,00
-15570,64	836,00
-15533,42	975,00
-15496,30	904,00
-15459,28	1008,00
-15422,36	816,00
-15385,54	844,00
-15348,82	932,00
-15312,19	1003,00
-15275,66	820,00
-15239,23	885,00
-15202,90	816,00
-15166,67	942,00
-15130,53	1001,00
-15094,48	915,00
-15058,54	837,00
-15022,68	852,00
-14986,93	841,00
-14951,26	984,00
-14915,69	979,00
-14880,22	876,00
-14844,84	868,00
-14809,55	886,00
-14774,35	914,00
-14739,25	874,00
-14704,24	988,00
-14669,32	934,00
-14634,49	856,00
-14599,75	925,00
-14565,10	888,00
-14530,55	942,00
-14496,08	907,00
-14461,70	832,00
-14427,41	860,00
-14393,21	818,00
-14359,10	842,00
-14325,07	902,00
-14291,14	790,00
-14257,29	923,00
-14223,52	914,00
-14189,85	1080,00
-14156,26	922,00
-14122,76	829,00
-14089,34	864,00
-14056,01	941,00
-14022,76	790,00
-13989,60	947,00
-13956,52	978,00
-13923,53	981,00
-13890,62	846,00
-13857,79	862,00
-13825,05	818,00
-13792,39	749,00
-13759,81	925,00
-13727,31	824,00
-13694,90	872,00
-13662,57	1031,00
-13630,31	999,00
-13598,14	956,00
-13566,05	833,00
-13534,05	904,00
-13502,12	880,00
-13470,27	788,00
-13438,50	939,00
-13406,80	806,00
-13375,19	878,00
-13343,66	949,00
-13312,20	925,00
-13280,83	856,00
-13249,53	880,00
-13218,30	740,00
-13187,16	860,00
-13156,09	1029,00
-13125,10	846,00
-13094,18	939,00
-13063,34	958,00
-13032,58	815,00
-13001,89	951,00
-12971,28	958,00
-12940,74	803,00
-12910,27	924,00
-12879,88	903,00
-12849,57	943,00
-12819,33	1026,00
-12789,16	905,00
-12759,06	911,00
-12729,04	826,00
-12699,09	2399,00
-12669,21	877,00
-12639,41	958,00
-12609,68	853,00
-12580,02	947,00
-12550,43	1062,00
-12520,91	776,00
-12491,46	838,00
-12462,08	841,00
-12432,77	904,00
-12403,54	896,00
-12374,37	880,00
-12345,27	997,00
-12316,24	841,00
-12287,29	844,00
-12258,40	793,00
-12229,57	916,00
-12200,82	815,00
-12172,14	906,00
-12143,52	782,00
-12114,97	862,00
-12086,49	911,00
-12058,07	936,00
-12029,73	905,00
-12001,44	960,00
-11973,23	928,00
-11945,08	923,00
-11917,00	959,00
-11888,98	833,00
-11861,03	979,00
-11833,15	948,00
-11805,32	904,00
-11777,57	856,00
-11749,88	966,00
-11722,25	844,00
-11694,69	838,00
-11667,19	921,00
-11639,75	1082,00
-11612,38	815,00
-11585,07	906,00
-11557,83	983,00
-11530,65	1029,00
-11503,53	849,00
-11476,47	814,00
-11449,48	863,00
-11422,54	1043,00
-11395,67	951,00
-11368,86	956,00
-11342,11	907,00
-11315,43	884,00
-11288,80	861,00
-11262,23	947,00
-11235,73	881,00
-11209,28	1160,00
-11182,90	888,00
-11156,57	852,00
-11130,31	983,00
-11104,10	916,00
-11077,96	887,00
-11051,87	903,00
-11025,84	834,00
-10999,87	900,00
-10973,96	899,00
-10948,11	878,00
-10922,31	936,00
-10896,58	942,00
-10870,90	1003,00
-10845,28	961,00
-10819,71	955,00
-10794,20	994,00
-10768,75	1031,00
-10743,36	962,00
-10718,02	855,00
-10692,74	881,00
-10667,52	909,00
-10642,35	892,00
-10617,24	1010,00
-10592,18	979,00
-10567,18	917,00
-10542,23	978,00
-10517,34	1018,00
-10492,51	1032,00
-10467,72	892,00
-10443,00	957,00
-10418,32	1050,00
-10393,70	1079,00
-10369,14	932,00
-10344,63	1024,00
-10320,17	1069,00
-10295,77	1036,00
-10271,42	1035,00
-10247,12	1048,00
-10222,88	1095,00
-10198,68	1026,00
-10174,54	1191,00
-10150,46	1230,00
-10126,42	1266,00
-10102,44	1075,00
-10078,51	1216,00
-10054,63	1219,00
-10030,80	1138,00
-10007,03	1328,00
-9983,30	1127,00
-9959,63	1249,00
-9936,01	1420,00
-9912,44	1347,00
-9888,92	1385,00
-9865,44	1347,00
-9842,02	1369,00
-9818,65	1409,00
-9795,33	1213,00
-9772,06	1548,00
-9748,84	1403,00
-9725,67	1544,00
-9702,55	1618,00
-9679,47	1829,00
-9656,45	1892,00
-9633,47	1796,00
-9610,55	1912,00
-9587,67	2066,00
-9564,84	2283,00
-9542,06	2280,00
-9519,32	2424,00
-9496,64	2666,00
-9474,00	2628,00
-9451,41	2709,00
-9428,87	2824,00
-9406,37	2768,00
-9383,92	2537,00
-9361,52	2512,00
-9339,17	2784,00
-9316,86	2941,00
-9294,60	3425,00
-9272,38	3718,00
-9250,21	4176,00
-9228,09	4189,00
-9206,01	4125,00
-9183,98	3796,00
-9162,00	3534,00
-9140,06	3503,00
-9118,16	3511,00
-9096,31	3516,00
-9074,51	3823,00
-9052,75	3882,00
-9031,04	3784,00
-9009,37	3352,00
-8987,74	3174,00
-8966,16	3051,00
-8944,63	2705,00
-8923,14	2776,00
-8901,69	2534,00
-8880,29	2845,00
-8858,93	3223,00
-8837,61	3398,00
-8816,34	3434,00
-8795,11	3408,00
-8773,92	3201,00
-8752,78	3028,00
-8731,68	2809,00
-8710,62	3024,00
-8689,61	2922,00
-8668,63	3110,00
-8647,70	3391,00
-8626,82	3304,00
-8605,97	3385,00
-8585,17	3068,00
-8564,41	2866,00
-8543,69	2642,00
-8523,01	2518,00
-8502,37	2835,00
-8481,78	2820,00
-8461,23	2706,00
-8440,71	3113,00
-8420,24	3240,00
-8399,81	3388,00
-8379,42	3194,00
-8359,08	3039,00
-8338,77	2795,00
-8318,50	2557,00
-8298,27	2590,00
-8278,09	2739,00
-8257,94	2859,00
-8237,83	3079,00
-8217,76	3075,00
-8197,74	3109,00
-8177,75	3111,00
-8157,80	2694,00
-8137,89	2575,00
-8118,02	2548,00
-8098,19	2588,00
-8078,40	2523,00
-8058,65	2666,00
-8038,93	2651,00
-8019,26	2657,00
-7999,62	2675,00
-7980,02	2327,00
-7960,46	2236,00
-7940,94	2267,00
-7921,46	2343,00
-7902,01	2192,00
-7882,60	2374,00
-7863,23	2248,00
-7843,90	2183,00
-7824,61	2342,00
-7805,35	2722,00
-7786,13	2560,00
-7766,95	2494,00
-7747,80	2424,00
-7728,69	2312,00
-7709,62	2235,00
-7690,59	2380,00
-7671,59	2574,00
-7652,63	2469,00
-7633,70	2505,00
-7614,81	2581,00
-7595,96	2244,00
-7577,15	2234,00
-7558,37	2080,00
-7539,62	2313,00
-7520,91	2261,00
-7502,24	2318,00
-7483,60	2382,00
-7465,00	2201,00
-7446,44	2282,00
-7427,91	1758,00
-7409,41	1940,00
-7390,95	1848,00
-7372,53	1698,00
-7354,14	1849,00
-7335,78	1765,00
-7317,46	1785,00
-7299,18	1814,00
-7280,92	2114,00
-7262,71	2288,00
-7244,52	2342,00
-7226,38	2254,00
-7208,26	2250,00
-7190,18	2093,00
-7172,14	2175,00
-7154,12	2072,00
-7136,15	2085,00
-7118,20	2293,00
-7100,29	2307,00
-7082,41	2368,00
-7064,57	2170,00
-7046,76	2138,00
-7028,98	1790,00
-7011,24	1959,00
-6993,53	1597,00
-6975,85	1611,00
-6958,20	1558,00
-6940,59	1394,00
-6923,01	1407,00
-6905,46	1650,00
-6887,94	1729,00
-6870,46	2209,00
-6853,01	2122,00
-6835,59	2031,00
-6818,21	1820,00
-6800,85	1872,00
-6783,53	1537,00
-6766,24	1432,00
-6748,98	1368,00
-6731,76	1315,00
-6714,56	1283,00
-6697,40	1176,00
-6680,26	1193,00
-6663,16	1388,00
-6646,09	1700,00
-6629,05	1720,00
-6612,05	1830,00
-6595,07	1768,00
-6578,13	1733,00
-6561,21	1479,00
-6544,33	1507,00
-6527,47	1188,00
-6510,65	1238,00
-6493,86	1094,00
-6477,10	1070,00
-6460,36	1323,00
-6443,66	1101,00
-6426,99	1205,00
-6410,35	1192,00
-6393,74	1365,00
-6377,16	1236,00
-6360,61	1400,00
-6344,09	1324,00
-6327,59	1331,00
-6311,13	1502,00
-6294,70	1461,00
-6278,29	1518,00
-6261,92	1498,00
-6245,58	1730,00
-6229,26	1771,00
-6212,97	1723,00
-6196,72	1415,00
-6180,49	1366,00
-6164,29	1013,00
-6148,12	1186,00
-6131,98	1133,00
-6115,86	971,00
-6099,78	1031,00
-6083,72	980,00
-6067,69	1011,00
-6051,69	1029,00
-6035,72	1075,00
-6019,78	1075,00
-6003,87	1403,00
-5987,98	1417,00
-5972,12	1416,00
-5956,29	1398,00
-5940,49	1183,00
-5924,71	1425,00
-5908,96	1175,00
-5893,24	1061,00
-5877,55	1036,00
-5861,89	1199,00
-5846,25	990,00
-5830,64	1124,00
-5815,05	995,00
-5799,50	1158,00
-5783,97	1164,00
-5768,47	1188,00
-5752,99	1357,00
-5737,55	1294,00
-5722,12	1435,00
-5706,73	1349,00
-5691,36	1337,00
-5676,02	1192,00
-5660,71	1109,00
-5645,42	1111,00
-5630,16	1227,00
-5614,92	1313,00
-5599,71	1223,00
-5584,53	1294,00
-5569,37	1218,00
-5554,24	2261,00
-5539,14	1128,00
-5524,06	1224,00
-5509,01	1131,00
-5493,98	1161,00
-5478,98	1160,00
-5464,00	1202,00
-5449,05	1108,00
-5434,13	1106,00
-5419,23	1084,00
-5404,36	1064,00
-5389,51	1130,00
-5374,69	1325,00
-5359,89	1442,00
-5345,12	1563,00
-5330,37	1532,00
-5315,65	1324,00
-5300,95	1223,00
-5286,28	1197,00
-5271,63	1045,00
-5257,01	1121,00
-5242,41	1183,00
-5227,84	1156,00
-5213,29	1079,00
-5198,76	1052,00
-5184,26	1130,00
-5169,79	984,00
-5155,33	1114,00
-5140,91	1189,00
-5126,51	1128,00
-5112,13	1236,00
-5097,77	1225,00
-5083,44	1140,00
-5069,13	966,00
-5054,85	1075,00
-5040,59	1160,00
-5026,36	1238,00
-5012,15	1308,00
-4997,96	1222,00
-4983,80	1194,00
-4969,66	1127,00
-4955,54	966,00
-4941,44	1197,00
-4927,37	1145,00
-4913,33	1421,00
-4899,30	1368,00
-4885,30	1385,00
-4871,33	1118,00
-4857,37	1009,00
-4843,44	952,00
-4829,53	1031,00
-4815,65	1190,00
-4801,79	1039,00
-4787,95	1246,00
-4774,13	1022,00
-4760,34	998,00
-4746,56	1077,00
-4732,82	976,00
-4719,09	1119,00
-4705,38	1324,00
-4691,70	1468,00
-4678,04	1476,00
-4664,41	1434,00
-4650,79	1358,00
-4637,20	1014,00
-4623,63	982,00
-4610,08	1247,00
-4596,56	1208,00
-4583,05	1035,00
-4569,57	1127,00
-4556,11	1164,00
-4542,67	949,00
-4529,25	979,00
-4515,86	1086,00
-4502,49	1341,00
-4489,13	1319,00
-4475,80	1358,00
-4462,49	974,00
-4449,21	1123,00
-4435,94	973,00
-4422,70	1006,00
-4409,47	919,00
-4396,27	1044,00
-4383,09	1068,00
-4369,93	1008,00
-4356,79	846,00
-4343,67	1053,00
-4330,58	1041,00
-4317,50	1199,00
-4304,45	978,00
-4291,41	1128,00
-4278,40	1019,00
-4265,41	946,00
-4252,44	1068,00
-4239,49	961,00
-4226,55	1058,00
-4213,65	1052,00
-4200,76	1070,00
-4187,89	999,00
-4175,04	855,00
-4162,21	903,00
-4149,40	1035,00
-4136,61	958,00
-4123,85	929,00
-4111,10	915,00
-4098,37	1028,00
-4085,66	1001,00
-4072,98	965,00
-4060,31	995,00
-4047,66	1110,00
-4035,04	1229,00
-4022,43	913,00
-4009,84	909,00
-3997,27	835,00
-3984,72	869,00
-3972,19	987,00
-3959,69	949,00
-3947,20	935,00
-3934,73	917,00
-3922,27	857,00
-3909,84	917,00
-3897,43	973,00
-3885,04	951,00
-3872,67	929,00
-3860,31	830,00
-3847,98	1089,00
-3835,66	900,00
-3823,36	946,00
-3811,09	939,00
-3798,83	895,00
-3786,59	1028,00
-3774,37	1005,00
-3762,17	883,00
-3749,98	945,00
-3737,82	914,00
-3725,67	1110,00
-3713,55	827,00
-3701,44	903,00
-3689,35	864,00
-3677,28	1058,00
-3665,22	937,00
-3653,19	934,00
-3641,17	876,00
-3629,18	999,00
-3617,20	880,00
-3605,24	960,00
-3593,30	1022,00
-3581,37	929,00
-3569,47	931,00
-3557,58	931,00
-3545,71	1031,00
-3533,86	1009,00
-3522,02	904,00
-3510,21	941,00
-3498,41	950,00
-3486,63	925,00
-3474,87	790,00
-3463,12	924,00
-3451,40	972,00
-3439,69	933,00
-3428,00	918,00
-3416,33	921,00
-3404,67	813,00
-3393,03	949,00
-3381,41	916,00
-3369,81	970,00
-3358,22	1005,00
-3346,66	1019,00
-3335,10	951,00
-3323,57	898,00
-3312,06	1012,00
-3300,56	981,00
-3289,08	852,00
-3277,61	916,00
-3266,16	962,00
-3254,73	886,00
-3243,32	872,00
-3231,92	876,00
-3220,55	954,00
-3209,18	1098,00
-3197,84	885,00
-3186,51	903,00
-3175,20	865,00
-3163,90	840,00
-3152,63	976,00
-3141,36	853,00
-3130,12	947,00
-3118,89	983,00
-3107,68	843,00
-3096,49	1027,00
-3085,31	872,00
-3074,15	884,00
-3063,00	1012,00
-3051,87	921,00
-3040,76	873,00
-3029,67	1079,00
-3018,59	1154,00
-3007,52	1131,00
-2996,48	959,00
-2985,44	917,00
-2974,43	884,00
-2963,43	873,00
-2952,45	931,00
-2941,48	959,00
-2930,53	925,00
-2919,60	810,00
-2908,68	863,00
-2897,78	856,00
-2886,89	1084,00
-2876,02	951,00
-2865,17	903,00
-2854,33	1048,00
-2843,50	916,00
-2832,70	916,00
-2821,90	928,00
-2811,13	1009,00
-2800,37	896,00
-2789,62	826,00
-2778,89	971,00
-2768,18	1011,00
-2757,48	919,00
-2746,80	1006,00
-2736,13	901,00
-2725,48	990,00
-2714,84	822,00
-2704,22	888,00
-2693,61	920,00
-2683,02	954,00
-2672,45	980,00
-2661,89	920,00
-2651,34	946,00
-2640,81	938,00
-2630,30	998,00
-2619,80	867,00
-2609,31	981,00
-2598,84	849,00
-2588,39	965,00
-2577,95	896,00
-2567,52	734,00
-2557,11	821,00
-2546,71	898,00
-2536,33	1066,00
-2525,97	948,00
-2515,62	1007,00
-2505,28	917,00
-2494,96	898,00
-2484,65	993,00
-2474,36	1397,00
-2464,08	837,00
-2453,82	1101,00
-2443,57	912,00
-2433,33	762,00
-2423,11	928,00
-2412,91	1062,00
-2402,72	897,00
-2392,54	912,00
-2382,38	907,00
-2372,23	971,00
-2362,09	2038,00
-2351,97	864,00
-2341,87	802,00
-2331,78	1026,00
-2321,70	991,00
-2311,64	904,00
-2301,59	955,00
-2291,55	873,00
-2281,53	989,00
-2271,53	859,00
-2261,53	1051,00
-2251,55	973,00
-2241,59	881,00
-2231,64	892,00
-2221,70	888,00
-2211,78	929,00
-2201,87	832,00
-2191,97	984,00
-2182,09	886,00
-2172,22	958,00
-2162,37	849,00
-2152,53	799,00
-2142,70	890,00
-2132,89	910,00
-2123,09	940,00
-2113,30	895,00
-2103,53	943,00
-2093,77	1015,00
-2084,02	945,00
-2074,29	978,00
-2064,57	887,00
-2054,86	994,00
-2045,17	1076,00
-2035,49	983,00
-2025,82	806,00
-2016,17	904,00
-2006,53	841,00
-1996,91	954,00
-1987,29	864,00
-1977,69	938,00
-1968,11	860,00
-1958,53	907,00
-1948,97	924,00
-1939,42	940,00
-1929,89	896,00
-1920,37	901,00
-1910,86	914,00
-1901,36	897,00
-1891,88	947,00
-1882,41	1018,00
-1872,95	948,00
-1863,51	976,00
-1854,08	849,00
-1844,66	955,00
-1835,26	1004,00
-1825,86	969,00
-1816,48	836,00
-1807,11	939,00
-1797,76	1024,00
-1788,42	932,00
-1779,09	967,00
-1769,77	930,00
-1760,47	1070,00
-1751,17	840,00
-1741,89	895,00
-1732,63	975,00
-1723,37	1098,00
-1714,13	968,00
-1704,90	867,00
-1695,68	1061,00
-1686,48	877,00
-1677,29	881,00
-1668,11	1084,00
-1658,94	913,00
-1649,78	916,00
-1640,64	1003,00
-1631,51	876,00
-1622,39	963,00
-1613,28	1031,00
-1604,19	1046,00
-1595,10	917,00
-1586,03	968,00
-1576,97	980,00
-1567,93	896,00
-1558,89	1010,00
-1549,87	1085,00
-1540,86	922,00
-1531,86	917,00
-1522,87	856,00
-1513,90	1004,00
-1504,93	967,00
-1495,98	1006,00
-1487,04	1016,00
-1478,12	930,00
-1469,20	859,00
-1460,30	948,00
-1451,40	1133,00
-1442,52	976,00
-1433,65	1057,00
-1424,80	911,00
-1415,95	821,00
-1407,12	1125,00
-1398,30	865,00
-1389,48	1004,00
-1380,69	910,00
-1371,90	935,00
-1363,12	948,00
-1354,36	1027,00
-1345,60	907,00
-1336,86	979,00
-1328,13	1027,00
-1319,41	919,00
-1310,70	943,00
-1302,01	917,00
-1293,32	799,00
-1284,65	913,00
-1275,99	1000,00
-1267,33	1102,00
-1258,69	952,00
-1250,06	1037,00
-1241,45	904,00
-1232,84	1111,00
-1224,25	968,00
-1215,66	968,00
-1207,09	1014,00
-1198,53	903,00
-1189,97	967,00
-1181,43	918,00
-1172,91	844,00
-1164,39	1165,00
-1155,88	797,00
-1147,38	833,00
-1138,90	946,00
-1130,43	905,00
-1121,96	912,00
-1113,51	923,00
-1105,07	964,00
-1096,64	1054,00
-1088,22	903,00
-1079,81	1017,00
-1071,41	1047,00
-1063,02	898,00
-1054,65	1037,00
-1046,28	932,00
-1037,92	906,00
-1029,58	871,00
-1021,24	1025,00
-1012,92	1325,00
-1004,61	1015,00
-996,30	1227,00
-988,01	783,00
-979,73	958,00
-971,46	1024,00
-963,20	875,00
-954,95	813,00
-946,71	903,00
-938,48	948,00
-930,26	985,00
-922,06	875,00
-913,86	914,00
-905,67	878,00
-897,49	969,00
-889,33	760,00
-881,17	1007,00
-873,02	951,00
-864,89	820,00
-856,76	923,00
-848,65	1021,00
-840,54	969,00
-832,45	1016,00
-824,36	741,00
-816,29	945,00
-808,22	989,00
-800,17	926,00
-792,12	935,00
-784,09	1032,00
-776,06	861,00
-768,05	982,00
-760,04	875,00
-752,05	945,00
-744,07	981,00
-736,09	964,00
-728,13	854,00
-720,17	973,00
-712,23	875,00
-704,29	912,00
-696,37	941,00
-688,45	981,00
-680,55	852,00
-672,65	973,00
-664,77	953,00
-656,89	946,00
-649,03	912,00
-641,17	948,00
-633,32	967,00
-625,49	975,00
-617,66	950,00
-609,84	940,00
-602,03	834,00
-594,23	919,00
-586,45	959,00
-578,67	857,00
-570,90	867,00
-563,14	807,00
-555,39	1039,00
-547,65	1017,00
-539,91	904,00
-532,19	943,00
-524,48	1001,00
-516,78	855,00
-509,08	901,00
-501,40	911,00
-493,72	984,00
-486,06	918,00
-478,40	1122,00
-470,76	892,00
-463,12	940,00
-455,49	950,00
-447,87	899,00
-440,26	887,00
-432,66	810,00
-425,07	971,00
-417,49	1038,00
-409,92	772,00
-402,35	803,00
-394,80	821,00
-387,25	975,00
-379,72	972,00
-372,19	932,00
-364,67	1064,00
-357,17	851,00
-349,67	987,00
-342,18	871,00
-334,69	998,00
-327,22	909,00
-319,76	1044,00
-312,30	957,00
-304,86	880,00
-297,42	972,00
-290,00	972,00
-282,58	922,00
-275,17	974,00
-267,77	1091,00
-260,37	1040,00
-252,99	1159,00
-245,62	978,00
-238,25	1009,00
-230,90	959,00
-223,55	1083,00
-216,21	1029,00
-208,88	1181,00
-201,56	1023,00
-194,25	1112,00
-186,94	1108,00
-179,65	1075,00
-172,36	1110,00
-165,08	1161,00
-157,81	1295,00
-150,55	1329,00
-143,30	1235,00
-136,06	1327,00
-128,82	1385,00
-121,60	1317,00
-114,38	1505,00
-107,17	1625,00
-99,97	1732,00
-92,78	1722,00
-85,60	1853,00
-78,42	2023,00
-71,25	2239,00
-64,10	2307,00
-56,95	2648,00
-49,81	2861,00
-42,67	3490,00
-35,55	4106,00
-28,43	5327,00
-21,33	8018,00
-14,23	24980,00
-7,14	57498,00
-0,05	57284,00
7,02	57012,00
14,09	57319,00
21,14	20872,00
28,19	9256,00
35,23	6173,00
42,27	5177,00
49,29	4186,00
56,31	3708,00
63,32	3365,00
70,32	2880,00
77,31	2603,00
84,29	2245,00
91,27	2286,00
98,23	2128,00
105,19	2093,00
112,14	2317,00
119,09	3005,00
126,02	4512,00
132,95	5143,00
139,87	5170,00
146,78	5301,00
153,68	5140,00
160,58	5039,00
167,46	4904,00
174,34	5010,00
181,21	5010,00
188,08	4929,00
194,93	5058,00
201,78	4990,00
208,62	4975,00
215,45	5047,00
222,27	4943,00
229,09	4989,00
235,90	4740,00
242,70	4772,00
249,49	4841,00
256,27	4607,00
263,05	4516,00
269,82	4500,00
276,58	4539,00
283,33	4334,00
290,08	4306,00
296,82	4339,00
303,55	4171,00
310,27	4156,00
316,98	4251,00
323,69	4140,00
330,39	4166,00
337,08	4193,00
343,76	4182,00
350,44	4170,00
357,11	4152,00
363,77	4042,00
370,42	4080,00
377,07	4055,00
383,71	3971,00
390,34	3982,00
396,96	4007,00
403,58	3965,00
410,19	4208,00
416,79	4211,00
423,38	4264,00
429,97	4365,00
436,55	4236,00
443,12	4399,00
449,68	4375,00
456,24	4291,00
462,79	4122,00
469,33	4004,00
475,86	3799,00
482,39	3661,00
488,91	3760,00
495,42	3609,00
501,93	3638,00
508,42	3491,00
514,91	3592,00
521,40	3523,00
527,87	3429,00
534,34	3464,00
540,80	3357,00
547,25	3509,00
553,70	3489,00
560,14	3480,00
566,57	3357,00
573,00	3536,00
579,41	3611,00
585,83	3566,00
592,23	3579,00
598,62	3765,00
605,01	3660,00
611,40	3761,00
617,77	3791,00
624,14	3704,00
630,50	3544,00
636,85	3484,00
643,20	3410,00
649,54	3226,00
655,87	3294,00
662,20	3267,00
668,52	3174,00
674,83	3073,00
681,13	3079,00
687,43	3178,00
693,72	2984,00
700,00	2961,00
706,28	3005,00
712,55	3153,00
718,81	3131,00
725,07	3120,00
731,32	3024,00
737,56	3080,00
743,79	3014,00
750,02	2996,00
756,24	2805,00
762,46	2948,00
768,67	3107,00
774,87	3036,00
781,06	2834,00
787,25	2920,00
793,43	3005,00
799,60	2863,00
805,77	3106,00
811,93	2901,00
818,08	2966,00
824,23	2872,00
830,37	3100,00
836,50	2875,00
842,63	2927,00
848,75	3001,00
854,87	2922,00
860,97	3063,00
867,07	2973,00
873,17	3006,00
879,25	2999,00
885,33	3023,00
891,41	3035,00
897,47	2981,00
903,53	2851,00
909,59	2893,00
915,63	2760,00
921,67	2871,00
927,71	2885,00
933,74	2887,00
939,76	2651,00
945,77	2765,00
951,78	2921,00
957,78	2602,00
963,78	2750,00
969,77	2682,00
975,75	2589,00
981,72	2659,00
987,69	4097,00
993,66	2797,00
999,61	2794,00
1005,56	2791,00
1011,51	2702,00
1017,44	2765,00
1023,37	2864,00
1029,30	2789,00
1035,22	2828,00
1041,13	2784,00
1047,03	3126,00
1052,93	3664,00
1058,83	4968,00
1064,71	5524,00
1070,59	4569,00
1076,47	3797,00
1082,33	3491,00
1088,20	3412,00
1094,05	3161,00
1099,90	2924,00
1105,74	2942,00
1111,58	2995,00
1117,41	3283,00
1123,23	4217,00
1129,05	5239,00
1134,86	4751,00
1140,67	3630,00
1146,47	2967,00
1152,26	2928,00
1158,05	2794,00
1163,83	2907,00
1169,60	3049,00
1175,37	3010,00
1181,13	2852,00
1186,89	2594,00
1192,64	2629,00
1198,38	2816,00
1204,12	2512,00
1209,85	2493,00
1215,58	2594,00
1221,30	2547,00
1227,02	2613,00
1232,72	2597,00
1238,43	2499,00
1244,12	2458,00
1249,81	2567,00
1255,50	2766,00
1261,17	2677,00
1266,85	2719,00
1272,51	2839,00
1278,17	3103,00
1283,83	3330,00
1289,47	4811,00
1295,12	6414,00
1300,75	5755,00
1306,38	4457,00
1312,01	3510,00
1317,63	3229,00
1323,24	2947,00
1328,85	2827,00
1334,45	2664,00
1340,04	2627,00
1345,63	2758,00
1351,22	2721,00
1356,80	2633,00
1362,37	2789,00
1367,93	2922,00
1373,49	2913,00
1379,05	2762,00
1384,60	2753,00
1390,14	2756,00
1395,68	2743,00
1401,21	2772,00
1406,74	3038,00
1412,26	3669,00
1417,77	4321,00
1423,28	4056,00
1428,78	4446,00
1434,28	5479,00
1439,77	6382,00
1445,26	6150,00
1450,74	5740,00
1456,22	5343,00
1461,68	5220,00
1467,15	4802,00
1472,61	4188,00
1478,06	3676,00
1483,51	3231,00
1488,95	2772,00
1494,38	2821,00
1499,81	2613,00
1505,24	2507,00
1510,65	2552,00
1516,07	2500,00
1521,48	2376,00
1526,88	2326,00
1532,27	2386,00
1537,67	2364,00
1543,05	2444,00
1548,43	2268,00
1553,81	2416,00
1559,18	2198,00
1564,54	2200,00
1569,90	2231,00
1575,25	2163,00
1580,60	2111,00
1585,94	2262,00
1591,28	2216,00
1596,61	2226,00
1601,93	2169,00
1607,25	2274,00
1612,57	2106,00
1617,88	2193,00
1623,18	2229,00
1628,48	2124,00
1633,77	2151,00
1639,06	2108,00
1644,34	2110,00
1649,62	2035,00
1654,89	2069,00
1660,16	1972,00
1665,42	2092,00
1670,67	1989,00
1675,92	1991,00
1681,17	1991,00
1686,41	2028,00
1691,64	2016,00
1696,87	1986,00
1702,10	1945,00
1707,32	1937,00
1712,53	1948,00
1717,74	1965,00
1722,94	2067,00
1728,14	1884,00
1733,33	1920,00
1738,52	1822,00
1743,70	1854,00
1748,88	1889,00
1754,05	1949,00
1759,22	1740,00
1764,38	1041,00
1769,53	2045,00
1774,69	1985,00
1779,83	1832,00
1784,97	1884,00
1790,11	1785,00
1795,24	1844,00
1800,36	1787,00
1805,48	1797,00
1810,60	1854,00
1815,71	1764,00
1820,82	1677,00
1825,92	1913,00
1831,01	1764,00
1836,10	1735,00
1841,19	1795,00
1846,26	1600,00
1851,34	1772,00
1856,41	1711,00
1861,47	1700,00
1866,53	1883,00
1871,59	1735,00
1876,64	1735,00
1881,68	1646,00
1886,72	1775,00
1891,76	1676,00
1896,79	1700,00
1901,81	1544,00
1906,83	1624,00
1911,85	1557,00
1916,86	1667,00
1921,86	1546,00
1926,86	1568,00
1931,86	1741,00
1936,85	1505,00
1941,83	1503,00
1946,81	1578,00
1951,79	1553,00
1956,76	1494,00
1961,72	1381,00
1966,68	1540,00
1971,64	1482,00
1976,59	1561,00
1981,54	1498,00
1986,48	1651,00
1991,42	1363,00
1996,35	1766,00
2001,27	1553,00
2006,20	1508,00
2011,11	1498,00
2016,03	1531,00
2020,93	1423,00
2025,84	1484,00
2030,73	1498,00
2035,63	1376,00
2040,52	1554,00
2045,40	1485,00
2050,28	1452,00
2055,15	1533,00
2060,02	1337,00
2064,89	1542,00
2069,75	1497,00
2074,60	1459,00
2079,46	1356,00
2084,30	1403,00
2089,14	1367,00
2093,98	1529,00
2098,81	1491,00
2103,64	1502,00
2108,46	1482,00
2113,28	1447,00
2118,09	1492,00
2122,90	1486,00
2127,70	1399,00
2132,50	1499,00
2137,30	1321,00
2142,09	1328,00
2146,87	1296,00
2151,66	1370,00
2156,43	1426,00
2161,20	1392,00
2165,97	1553,00
2170,73	1438,00
2175,49	1497,00
2180,24	1525,00
2184,99	1613,00
2189,74	1613,00
2194,48	1559,00
2199,21	1512,00
2203,94	1442,00
2208,67	1342,00
2213,39	1345,00
2218,11	1435,00
2222,82	1443,00
2227,53	1402,00
2232,23	1431,00
2236,93	1483,00
2241,63	1368,00
2246,32	1468,00
2251,00	1379,00
2255,68	1460,00
2260,36	1400,00
2265,03	1391,00
2269,70	1570,00
2274,36	1314,00
2279,02	1395,00
2283,68	1340,00
2288,33	1364,00
2292,97	1402,00
2297,61	1345,00
2302,25	1393,00
2306,88	1268,00
2311,51	1225,00
2316,14	1301,00
2320,75	1211,00
2325,37	1175,00
2329,98	1364,00
2334,59	1297,00
2339,19	1373,00
2343,79	1201,00
2348,38	1324,00
2352,97	1173,00
2357,55	1350,00
2362,13	1244,00
2366,71	1292,00
2371,28	1381,00
2375,85	1340,00
2380,41	1328,00
2384,97	1236,00
2389,52	1350,00
2394,07	1399,00
2398,62	1224,00
2403,16	1367,00
2407,70	1079,00
2412,23	1220,00
2416,76	1298,00
2421,29	1318,00
2425,81	1420,00
2430,32	1395,00
2434,84	1184,00
2439,34	1263,00
2443,85	1394,00
2448,35	1283,00
2452,84	1169,00
2457,33	1396,00
2461,82	1109,00
2466,30	1105,00
2470,78	1274,00
2475,25	1204,00
2479,72	1271,00
2484,19	1335,00
2488,65	1315,00
2493,11	1114,00
2497,56	1366,00
2502,01	1123,00
2506,46	1335,00
2510,90	1227,00
2515,34	1201,00
2519,77	1235,00
2524,20	1276,00
2528,62	1282,00
2533,04	1323,00
2537,46	1250,00
2541,87	1226,00
2546,28	1261,00
2550,68	1347,00
2555,08	1184,00
2559,48	1205,00
2563,87	1170,00
2568,26	1177,00
2572,64	1368,00
2577,02	1301,00
2581,40	1119,00
2585,77	1256,00
2590,14	1264,00
2594,50	1171,00
2598,86	1249,00
2603,22	1232,00
2607,57	1270,00
2611,92	1337,00
2616,26	1389,00
2620,60	1368,00
2624,94	1229,00
2629,27	1317,00
2633,60	1213,00
2637,92	1430,00
2642,24	1355,00
2646,56	1280,00
2650,87	1196,00
2655,18	1340,00
2659,48	1206,00
2663,78	1226,00
2668,08	1315,00
2672,37	1319,00
2676,66	1365,00
2680,95	1298,00
2685,23	1339,00
2689,50	1322,00
2693,78	1342,00
2698,05	1313,00
2702,31	1389,00
2706,57	1524,00
2710,83	1585,00
2715,08	1635,00
2719,33	1640,00
2723,58	1558,00
2727,82	1648,00
2732,06	1528,00
2736,29	1540,00
2740,53	1467,00
2744,75	1451,00
2748,97	1421,00
2753,19	1479,00
2757,41	1518,00
2761,62	1447,00
2765,83	1432,00
2770,03	1337,00
2774,23	1551,00
2778,43	1367,00
2782,62	1482,00
2786,81	1513,00
2791,00	1563,00
2795,18	1568,00
2799,35	1724,00
2803,53	1682,00
2807,70	1709,00
2811,86	1702,00
2816,03	1923,00
2820,19	1923,00
2824,34	1971,00
2828,49	2107,00
2832,64	2393,00
2836,78	2855,00
2840,92	3289,00
2845,06	3952,00
2849,19	4396,00
2853,32	4465,00
2857,45	4385,00
2861,57	4341,00
2865,69	4359,00
2869,80	4144,00
2873,91	4436,00
2878,02	4811,00
2882,12	5186,00
2886,22	5230,00
2890,32	4902,00
2894,41	4535,00
2898,50	4235,00
2902,58	3941,00
2906,67	3721,00
2910,74	3368,00
2914,82	3136,00
2918,89	3118,00
2922,96	2879,00
2927,02	2633,00
2931,08	2537,00
2935,13	2339,00
2939,19	2287,00
2943,24	2105,00
2947,28	2157,00
2951,32	1829,00
2955,36	1774,00
2959,40	1836,00
2963,43	1582,00
2967,46	1574,00
2971,48	1495,00
2975,50	1466,00
2979,52	1485,00
2983,53	1406,00
2987,54	1339,00
2991,55	1408,00
2995,55	1331,00
2999,55	1278,00
3003,54	1105,00
3007,54	1335,00
3011,53	1319,00
3015,51	1175,00
3019,49	1278,00
3023,47	1022,00
3027,45	1255,00
3031,42	1066,00
3035,39	1116,00
3039,35	1096,00
3043,31	1200,00
3047,27	1081,00
3051,22	1144,00
3055,17	1048,00
3059,12	1029,00
3063,06	1130,00
3067,00	1035,00
3070,94	1005,00
3074,87	1153,00
3078,80	949,00
3082,73	1033,00
3086,65	1075,00
3090,57	1140,00
3094,49	1040,00
3098,40	1025,00
3102,31	1018,00
3106,22	1054,00
3110,12	955,00
3114,02	851,00
3117,92	998,00
3121,81	960,00
3125,70	1036,00
3129,58	946,00
3133,47	929,00
3137,34	1082,00
3141,22	1118,00
3145,09	1069,00
3148,96	989,00
3152,83	1037,00
3156,69	1021,00
3160,55	945,00
3164,40	1042,00
3168,26	1059,00
3172,10	1110,00
3175,95	1012,00
3179,79	988,00
3183,63	988,00
3187,47	1019,00
3191,30	1093,00
3195,13	1043,00
3198,95	847,00
3202,78	1023,00
3206,60	971,00
3210,41	898,00
3214,23	870,00
3218,03	1069,00
3221,84	982,00
3225,64	931,00
3229,44	924,00
3233,24	1064,00
3237,03	930,00
3240,82	979,00
3244,61	921,00
3248,39	938,00
3252,17	933,00
3255,95	1053,00
3259,72	984,00
3263,49	1177,00
3267,26	982,00
3271,03	1002,00
3274,79	941,00
3278,54	946,00
3282,30	842,00
3286,05	987,00
3289,80	958,00
3293,54	1013,00
3297,29	1004,00
3301,02	945,00
3304,76	929,00
3308,49	962,00
3312,22	952,00
3315,95	960,00
3319,67	848,00
3323,39	1054,00
3327,10	1024,00
3330,82	996,00
3334,53	953,00
3338,24	928,00
3341,94	924,00
3345,64	954,00
3349,34	900,00
3353,03	1006,00
3356,72	998,00
3360,41	1074,00
3364,10	868,00
3367,78	905,00
3371,46	930,00
3375,13	933,00
3378,81	989,00
3382,48	994,00
3386,14	1006,00
3389,81	924,00
3393,47	995,00
3397,12	1062,00
3400,78	987,00
3404,43	958,00
3408,08	1044,00
3411,72	870,00
3415,36	936,00
3419,00	953,00
3422,64	932,00
3426,27	992,00
3429,90	905,00
3433,53	825,00
3437,15	906,00
3440,77	869,00
3444,39	923,00
3448,00	923,00
3451,62	914,00
3455,22	984,00
3458,83	859,00
3462,43	905,00
3466,03	1036,00
3469,63	799,00
3473,22	909,00
3476,81	871,00
3480,40	1003,00
3483,99	880,00
3487,57	938,00
3491,15	905,00
3494,72	1007,00
3498,29	1029,00
3501,86	825,00
3505,43	942,00
3508,99	870,00
3512,56	743,00
3516,11	939,00
3519,67	856,00
3523,22	1011,00
3526,77	897,00
3530,32	1024,00
3533,86	944,00
3537,40	958,00
3540,94	923,00
3544,47	951,00
3548,00	813,00
3551,53	922,00
3555,06	878,00
3558,58	961,00
3562,10	940,00
3565,62	844,00
3569,13	919,00
3572,64	993,00
3576,15	893,00
3579,66	903,00
3583,16	873,00
3586,66	917,00
3590,16	867,00
3593,65	861,00
3597,14	819,00
3600,63	880,00
3604,11	972,00
3607,60	875,00
3611,08	922,00
3614,55	940,00
3618,03	854,00
3621,50	820,00
3624,97	761,00
3628,43	843,00
3631,90	794,00
3635,36	755,00
3638,81	859,00
3642,27	813,00
3645,72	870,00
3649,17	839,00
3652,61	803,00
3656,06	772,00
3659,50	849,00
3662,93	874,00
3666,37	914,00
3669,80	1023,00
3673,23	871,00
3676,65	861,00
3680,08	986,00
3683,50	840,00
3686,92	842,00
3690,33	842,00
3693,74	837,00
3697,15	792,00
3700,56	945,00
3703,96	799,00
3707,36	683,00
3710,76	784,00
3714,16	762,00
3717,55	763,00
3720,94	804,00
3724,33	828,00
3727,71	876,00
3731,10	880,00
3734,48	842,00
3737,85	747,00
3741,23	814,00
3744,60	805,00
3747,97	693,00
3751,33	901,00
3754,69	781,00
3758,05	795,00
3761,41	695,00
3764,77	736,00
3768,12	670,00
3771,47	674,00
3774,82	759,00
3778,16	-11,00
3781,50	15,00
3784,84	5,00
3788,18	10,00
>>>>>End Processed Spectral Data<<<<<
