SpectraSuite Data File
++++++++++++++++++++++++++++++++++++
Date: Mon Jan 05 16:33:52 ICT 2026
User: Administrator
Dark Spectrum Present: Yes
Reference Spectrum Present: No
Number of Sampled Component Spectra: 1
Spectrometers: MAYP113682
Integration Time (usec): 3000000 (MAYP113682)
Spectra Averaged: 1 (MAYP113682)
Boxcar Smoothing: 0 (MAYP113682)
Correct for Electrical Dark: No (MAYP113682)
Strobe/Lamp Enabled: No (MAYP113682)
Correct for Detector Non-linearity: No (MAYP113682)
Correct for Stray Light: No (MAYP113682)
Number of Pixels in Processed Spectrum: 2068
>>>>>Begin Processed Spectral Data<<<<<
-37534,58	32,00
-37414,56	7,00
-37295,11	2,00
-37176,24	6,00
-37057,95	574,00
-36940,22	744,00
-36823,05	739,00
-36706,45	833,00
-36590,40	823,00
-36474,90	714,00
-36359,95	822,00
-36245,55	840,00
-36131,68	751,00
-36018,35	735,00
-35905,55	784,00
-35793,29	861,00
-35681,54	743,00
-35570,32	809,00
-35459,62	772,00
-35349,43	943,00
-35239,75	846,00
-35130,58	784,00
-35021,91	828,00
-34913,74	805,00
-34806,07	895,00
-34698,89	882,00
-34592,20	810,00
-34486,00	881,00
-34380,28	891,00
-34275,04	803,00
-34170,27	784,00
-34065,98	967,00
-33962,16	808,00
-33858,81	907,00
-33755,92	897,00
-33653,49	900,00
-33551,52	1023,00
-33450,01	850,00
-33348,94	930,00
-33248,33	840,00
-33148,16	765,00
-33048,43	840,00
-32949,14	1047,00
-32850,29	976,00
-32751,87	794,00
-32653,89	908,00
-32556,33	979,00
-32459,20	896,00
-32362,49	853,00
-32266,19	829,00
-32170,32	769,00
-32074,86	937,00
-31979,82	993,00
-31885,18	964,00
-31790,95	951,00
-31697,12	1021,00
-31603,69	962,00
-31510,67	950,00
-31418,04	928,00
-31325,80	862,00
-31233,95	870,00
-31142,49	889,00
-31051,42	856,00
-30960,73	1014,00
-30870,43	1073,00
-30780,50	854,00
-30690,95	937,00
-30601,77	990,00
-30512,97	906,00
-30424,53	928,00
-30336,46	883,00
-30248,76	977,00
-30161,42	1012,00
-30074,44	868,00
-29987,81	960,00
-29901,55	919,00
-29815,63	869,00
-29730,07	923,00
-29644,86	901,00
-29560,00	873,00
-29475,48	964,00
-29391,30	952,00
-29307,47	906,00
-29223,97	934,00
-29140,81	1005,00
-29057,99	1009,00
-28975,50	842,00
-28893,34	1059,00
-28811,51	855,00
-28730,00	969,00
-28648,82	911,00
-28567,97	1014,00
-28487,43	858,00
-28407,21	836,00
-28327,32	864,00
-28247,73	1068,00
-28168,46	839,00
-28089,50	979,00
-28010,85	818,00
-27932,51	865,00
-27854,48	979,00
-27776,75	879,00
-27699,32	934,00
-27622,19	970,00
-27545,37	864,00
-27468,84	934,00
-27392,60	1029,00
-27316,66	986,00
-27241,01	936,00
-27165,66	891,00
-27090,59	809,00
-27015,81	1027,00
-26941,31	1006,00
-26867,10	879,00
-26793,17	946,00
-26719,52	932,00
-26646,15	840,00
-26573,06	928,00
-26500,24	902,00
-26427,70	970,00
-26355,43	954,00
-26283,43	949,00
-26211,71	905,00
-26140,25	984,00
-26069,06	1056,00
-25998,13	844,00
-25927,46	816,00
-25857,06	853,00
-25786,92	861,00
-25717,04	803,00
-25647,42	996,00
-25578,05	835,00
-25508,94	902,00
-25440,09	861,00
-25371,48	936,00
-25303,13	975,00
-25235,02	874,00
-25167,17	952,00
-25099,56	943,00
-25032,19	858,00
-24965,07	814,00
-24898,20	813,00
-24831,56	878,00
-24765,17	947,00
-24699,01	878,00
-24633,10	1017,00
-24567,41	956,00
-24501,97	872,00
-24436,75	913,00
-24371,77	853,00
-24307,03	854,00
-24242,51	845,00
-24178,22	844,00
-24114,16	974,00
-24050,32	902,00
-23986,71	802,00
-23923,32	914,00
-23860,16	861,00
-23797,22	875,00
-23734,50	935,00
-23672,00	853,00
-23609,71	874,00
-23547,65	842,00
-23485,80	983,00
-23424,16	814,00
-23362,74	1091,00
-23301,53	887,00
-23240,54	775,00
-23179,75	792,00
-23119,17	884,00
-23058,80	835,00
-22998,64	928,00
-22938,68	877,00
-22878,93	882,00
-22819,39	782,00
-22760,04	913,00
-22700,90	895,00
-22641,96	865,00
-22583,22	903,00
-22524,68	910,00
-22466,33	898,00
-22408,19	856,00
-22350,23	825,00
-22292,48	901,00
-22234,92	1010,00
-22177,55	958,00
-22120,37	1053,00
-22063,38	854,00
-22006,58	767,00
-21949,98	883,00
-21893,56	749,00
-21837,33	899,00
-21781,28	886,00
-21725,42	960,00
-21669,74	927,00
-21614,25	913,00
-21558,94	921,00
-21503,81	971,00
-21448,86	987,00
-21394,10	908,00
-21339,51	870,00
-21285,10	715,00
-21230,86	791,00
-21176,81	853,00
-21122,93	810,00
-21069,22	773,00
-21015,69	816,00
-20962,33	937,00
-20909,14	950,00
-20856,13	929,00
-20803,28	945,00
-20750,61	859,00
-20698,10	805,00
-20645,76	834,00
-20593,59	959,00
-20541,59	898,00
-20489,75	871,00
-20438,07	808,00
-20386,56	929,00
-20335,22	838,00
-20284,03	823,00
-20233,01	889,00
-20182,15	832,00
-20131,45	839,00
-20080,91	867,00
-20030,52	942,00
-19980,30	867,00
-19930,23	786,00
-19880,32	1003,00
-19830,56	847,00
-19780,96	915,00
-19731,52	795,00
-19682,23	859,00
-19633,09	829,00
-19584,10	793,00
-19535,26	775,00
-19486,58	1041,00
-19438,04	879,00
-19389,66	955,00
-19341,42	817,00
-19293,33	850,00
-19245,39	925,00
-19197,60	952,00
-19149,95	908,00
-19102,45	848,00
-19055,09	848,00
-19007,87	896,00
-18960,80	910,00
-18913,87	927,00
-18867,09	849,00
-18820,44	1021,00
-18773,94	865,00
-18727,57	873,00
-18681,35	720,00
-18635,26	871,00
-18589,31	781,00
-18543,50	867,00
-18497,83	923,00
-18452,29	858,00
-18406,89	779,00
-18361,63	935,00
-18316,50	929,00
-18271,50	854,00
-18226,63	1016,00
-18181,90	870,00
-18137,30	960,00
-18092,84	844,00
-18048,50	940,00
-18004,29	900,00
-17960,22	802,00
-17916,27	840,00
-17872,45	986,00
-17828,76	1077,00
-17785,20	799,00
-17741,77	903,00
-17698,46	933,00
-17655,28	882,00
-17612,22	949,00
-17569,29	891,00
-17526,48	886,00
-17483,79	959,00
-17441,23	791,00
-17398,79	882,00
-17356,48	789,00
-17314,28	1070,00
-17272,21	942,00
-17230,26	909,00
-17188,42	903,00
-17146,71	915,00
-17105,12	831,00
-17063,64	864,00
-17022,28	842,00
-16981,04	813,00
-16939,92	881,00
-16898,91	1027,00
-16858,02	840,00
-16817,25	990,00
-16776,59	863,00
-16736,04	880,00
-16695,61	963,00
-16655,29	826,00
-16615,09	879,00
-16574,99	897,00
-16535,01	914,00
-16495,15	925,00
-16455,39	870,00
-16415,74	841,00
-16376,21	827,00
-16336,78	837,00
-16297,46	898,00
-16258,26	809,00
-16219,16	775,00
-16180,17	824,00
-16141,28	941,00
-16102,51	885,00
-16063,84	781,00
-16025,27	902,00
-15986,82	810,00
-15948,46	881,00
-15910,22	887,00
-15872,07	825,00
-15834,04	822,00
-15796,10	893,00
-15758,27	976,00
-15720,54	846,00
-15682,91	864,00
-15645,39	998,00
-15607,97	919,00
-15570,64	831,00
-15533,42	1071,00
-15496,30	875,00
-15459,28	957,00
-15422,36	843,00
-15385,54	736,00
-15348,82	889,00
-15312,19	1137,00
-15275,66	832,00
-15239,23	982,00
-15202,90	863,00
-15166,67	829,00
-15130,53	973,00
-15094,48	831,00
-15058,54	863,00
-15022,68	852,00
-14986,93	812,00
-14951,26	891,00
-14915,69	966,00
-14880,22	831,00
-14844,84	830,00
-14809,55	953,00
-14774,35	892,00
-14739,25	741,00
-14704,24	933,00
-14669,32	929,00
-14634,49	768,00
-14599,75	947,00
-14565,10	833,00
-14530,55	902,00
-14496,08	896,00
-14461,70	892,00
-14427,41	810,00
-14393,21	790,00
-14359,10	798,00
-14325,07	979,00
-14291,14	921,00
-14257,29	878,00
-14223,52	923,00
-14189,85	998,00
-14156,26	867,00
-14122,76	826,00
-14089,34	875,00
-14056,01	916,00
-14022,76	871,00
-13989,60	898,00
-13956,52	922,00
-13923,53	917,00
-13890,62	833,00
-13857,79	885,00
-13825,05	815,00
-13792,39	797,00
-13759,81	886,00
-13727,31	843,00
-13694,90	814,00
-13662,57	943,00
-13630,31	954,00
-13598,14	907,00
-13566,05	818,00
-13534,05	916,00
-13502,12	854,00
-13470,27	861,00
-13438,50	875,00
-13406,80	767,00
-13375,19	827,00
-13343,66	922,00
-13312,20	946,00
-13280,83	870,00
-13249,53	857,00
-13218,30	682,00
-13187,16	783,00
-13156,09	942,00
-13125,10	944,00
-13094,18	945,00
-13063,34	970,00
-13032,58	749,00
-13001,89	872,00
-12971,28	856,00
-12940,74	902,00
-12910,27	902,00
-12879,88	890,00
-12849,57	975,00
-12819,33	988,00
-12789,16	895,00
-12759,06	856,00
-12729,04	793,00
-12699,09	2443,00
-12669,21	838,00
-12639,41	918,00
-12609,68	881,00
-12580,02	910,00
-12550,43	983,00
-12520,91	773,00
-12491,46	924,00
-12462,08	775,00
-12432,77	878,00
-12403,54	837,00
-12374,37	734,00
-12345,27	962,00
-12316,24	913,00
-12287,29	815,00
-12258,40	839,00
-12229,57	872,00
-12200,82	809,00
-12172,14	913,00
-12143,52	750,00
-12114,97	850,00
-12086,49	881,00
-12058,07	934,00
-12029,73	883,00
-12001,44	968,00
-11973,23	946,00
-11945,08	915,00
-11917,00	868,00
-11888,98	853,00
-11861,03	975,00
-11833,15	840,00
-11805,32	939,00
-11777,57	924,00
-11749,88	948,00
-11722,25	822,00
-11694,69	823,00
-11667,19	852,00
-11639,75	1008,00
-11612,38	859,00
-11585,07	896,00
-11557,83	784,00
-11530,65	990,00
-11503,53	823,00
-11476,47	803,00
-11449,48	877,00
-11422,54	990,00
-11395,67	953,00
-11368,86	911,00
-11342,11	924,00
-11315,43	867,00
-11288,80	830,00
-11262,23	821,00
-11235,73	841,00
-11209,28	1079,00
-11182,90	804,00
-11156,57	814,00
-11130,31	1117,00
-11104,10	909,00
-11077,96	850,00
-11051,87	831,00
-11025,84	807,00
-10999,87	870,00
-10973,96	841,00
-10948,11	907,00
-10922,31	948,00
-10896,58	917,00
-10870,90	992,00
-10845,28	979,00
-10819,71	870,00
-10794,20	943,00
-10768,75	932,00
-10743,36	1018,00
-10718,02	856,00
-10692,74	892,00
-10667,52	852,00
-10642,35	862,00
-10617,24	885,00
-10592,18	981,00
-10567,18	814,00
-10542,23	927,00
-10517,34	877,00
-10492,51	1010,00
-10467,72	943,00
-10443,00	876,00
-10418,32	1030,00
-10393,70	991,00
-10369,14	892,00
-10344,63	862,00
-10320,17	946,00
-10295,77	1000,00
-10271,42	972,00
-10247,12	1027,00
-10222,88	1111,00
-10198,68	890,00
-10174,54	996,00
-10150,46	1231,00
-10126,42	1166,00
-10102,44	1051,00
-10078,51	986,00
-10054,63	1127,00
-10030,80	1102,00
-10007,03	1193,00
-9983,30	1083,00
-9959,63	1155,00
-9936,01	1230,00
-9912,44	1215,00
-9888,92	1223,00
-9865,44	1163,00
-9842,02	1193,00
-9818,65	1318,00
-9795,33	1063,00
-9772,06	1245,00
-9748,84	1176,00
-9725,67	1292,00
-9702,55	1348,00
-9679,47	1403,00
-9656,45	1498,00
-9633,47	1389,00
-9610,55	1524,00
-9587,67	1676,00
-9564,84	1890,00
-9542,06	1769,00
-9519,32	1965,00
-9496,64	2196,00
-9474,00	2035,00
-9451,41	2060,00
-9428,87	2075,00
-9406,37	2105,00
-9383,92	1878,00
-9361,52	1932,00
-9339,17	2162,00
-9316,86	2121,00
-9294,60	2529,00
-9272,38	2811,00
-9250,21	2906,00
-9228,09	2953,00
-9206,01	2991,00
-9183,98	2726,00
-9162,00	2549,00
-9140,06	2649,00
-9118,16	2432,00
-9096,31	2562,00
-9074,51	2742,00
-9052,75	2857,00
-9031,04	2751,00
-9009,37	2471,00
-8987,74	2365,00
-8966,16	2242,00
-8944,63	2090,00
-8923,14	2145,00
-8901,69	1960,00
-8880,29	2161,00
-8858,93	2399,00
-8837,61	2546,00
-8816,34	2648,00
-8795,11	2556,00
-8773,92	2419,00
-8752,78	2278,00
-8731,68	2065,00
-8710,62	2208,00
-8689,61	2134,00
-8668,63	2307,00
-8647,70	2503,00
-8626,82	2476,00
-8605,97	2497,00
-8585,17	2300,00
-8564,41	2083,00
-8543,69	2059,00
-8523,01	1918,00
-8502,37	2187,00
-8481,78	2084,00
-8461,23	1966,00
-8440,71	2312,00
-8420,24	2408,00
-8399,81	2547,00
-8379,42	2458,00
-8359,08	2444,00
-8338,77	2072,00
-8318,50	1985,00
-8298,27	1933,00
-8278,09	2044,00
-8257,94	2115,00
-8237,83	2324,00
-8217,76	2267,00
-8197,74	2306,00
-8177,75	2424,00
-8157,80	2049,00
-8137,89	1943,00
-8118,02	2006,00
-8098,19	2011,00
-8078,40	1913,00
-8058,65	1970,00
-8038,93	2089,00
-8019,26	2021,00
-7999,62	2006,00
-7980,02	1841,00
-7960,46	1898,00
-7940,94	1728,00
-7921,46	1640,00
-7902,01	1662,00
-7882,60	1936,00
-7863,23	1804,00
-7843,90	1873,00
-7824,61	1856,00
-7805,35	1979,00
-7786,13	1957,00
-7766,95	1944,00
-7747,80	1780,00
-7728,69	1890,00
-7709,62	1782,00
-7690,59	1869,00
-7671,59	2039,00
-7652,63	1803,00
-7633,70	1963,00
-7614,81	1991,00
-7595,96	1742,00
-7577,15	1738,00
-7558,37	1631,00
-7539,62	1862,00
-7520,91	1788,00
-7502,24	1878,00
-7483,60	1902,00
-7465,00	1782,00
-7446,44	1794,00
-7427,91	1421,00
-7409,41	1406,00
-7390,95	1469,00
-7372,53	1345,00
-7354,14	1469,00
-7335,78	1420,00
-7317,46	1578,00
-7299,18	1362,00
-7280,92	1551,00
-7262,71	1854,00
-7244,52	1770,00
-7226,38	1696,00
-7208,26	1734,00
-7190,18	1615,00
-7172,14	1563,00
-7154,12	1614,00
-7136,15	1637,00
-7118,20	1754,00
-7100,29	1762,00
-7082,41	1737,00
-7064,57	1579,00
-7046,76	1672,00
-7028,98	1440,00
-7011,24	1547,00
-6993,53	1292,00
-6975,85	1339,00
-6958,20	1233,00
-6940,59	1208,00
-6923,01	1058,00
-6905,46	1432,00
-6887,94	1452,00
-6870,46	1770,00
-6853,01	1688,00
-6835,59	1556,00
-6818,21	1424,00
-6800,85	1465,00
-6783,53	1237,00
-6766,24	1128,00
-6748,98	1193,00
-6731,76	1068,00
-6714,56	1085,00
-6697,40	969,00
-6680,26	1047,00
-6663,16	1175,00
-6646,09	1426,00
-6629,05	1447,00
-6612,05	1451,00
-6595,07	1327,00
-6578,13	1433,00
-6561,21	1269,00
-6544,33	1209,00
-6527,47	1021,00
-6510,65	1037,00
-6493,86	940,00
-6477,10	998,00
-6460,36	1172,00
-6443,66	976,00
-6426,99	986,00
-6410,35	1085,00
-6393,74	1105,00
-6377,16	1084,00
-6360,61	1163,00
-6344,09	1077,00
-6327,59	1146,00
-6311,13	1255,00
-6294,70	1338,00
-6278,29	1307,00
-6261,92	1218,00
-6245,58	1374,00
-6229,26	1400,00
-6212,97	1278,00
-6196,72	1054,00
-6180,49	1170,00
-6164,29	944,00
-6148,12	1143,00
-6131,98	1035,00
-6115,86	912,00
-6099,78	956,00
-6083,72	841,00
-6067,69	776,00
-6051,69	920,00
-6035,72	990,00
-6019,78	986,00
-6003,87	1252,00
-5987,98	1126,00
-5972,12	1205,00
-5956,29	1210,00
-5940,49	1023,00
-5924,71	1180,00
-5908,96	911,00
-5893,24	889,00
-5877,55	921,00
-5861,89	956,00
-5846,25	813,00
-5830,64	1023,00
-5815,05	984,00
-5799,50	907,00
-5783,97	975,00
-5768,47	1056,00
-5752,99	1182,00
-5737,55	1102,00
-5722,12	1212,00
-5706,73	1087,00
-5691,36	1102,00
-5676,02	1010,00
-5660,71	1053,00
-5645,42	891,00
-5630,16	949,00
-5614,92	1062,00
-5599,71	1011,00
-5584,53	1018,00
-5569,37	1027,00
-5554,24	1336,00
-5539,14	968,00
-5524,06	1154,00
-5509,01	947,00
-5493,98	1006,00
-5478,98	1089,00
-5464,00	986,00
-5449,05	957,00
-5434,13	906,00
-5419,23	890,00
-5404,36	840,00
-5389,51	1102,00
-5374,69	1118,00
-5359,89	1235,00
-5345,12	1255,00
-5330,37	1289,00
-5315,65	1102,00
-5300,95	1170,00
-5286,28	964,00
-5271,63	966,00
-5257,01	984,00
-5242,41	1089,00
-5227,84	854,00
-5213,29	1019,00
-5198,76	852,00
-5184,26	1007,00
-5169,79	897,00
-5155,33	1045,00
-5140,91	1024,00
-5126,51	1022,00
-5112,13	1024,00
-5097,77	1012,00
-5083,44	1014,00
-5069,13	797,00
-5054,85	944,00
-5040,59	994,00
-5026,36	1112,00
-5012,15	1061,00
-4997,96	1097,00
-4983,80	1059,00
-4969,66	866,00
-4955,54	898,00
-4941,44	1020,00
-4927,37	963,00
-4913,33	1124,00
-4899,30	1156,00
-4885,30	1130,00
-4871,33	1051,00
-4857,37	910,00
-4843,44	875,00
-4829,53	961,00
-4815,65	997,00
-4801,79	854,00
-4787,95	1120,00
-4774,13	891,00
-4760,34	917,00
-4746,56	1015,00
-4732,82	835,00
-4719,09	966,00
-4705,38	1154,00
-4691,70	1179,00
-4678,04	1395,00
-4664,41	1094,00
-4650,79	1220,00
-4637,20	1003,00
-4623,63	957,00
-4610,08	1087,00
-4596,56	1036,00
-4583,05	993,00
-4569,57	923,00
-4556,11	1045,00
-4542,67	910,00
-4529,25	920,00
-4515,86	944,00
-4502,49	1123,00
-4489,13	1094,00
-4475,80	1147,00
-4462,49	803,00
-4449,21	1018,00
-4435,94	917,00
-4422,70	850,00
-4409,47	890,00
-4396,27	1008,00
-4383,09	872,00
-4369,93	893,00
-4356,79	815,00
-4343,67	901,00
-4330,58	1058,00
-4317,50	996,00
-4304,45	966,00
-4291,41	1034,00
-4278,40	930,00
-4265,41	864,00
-4252,44	975,00
-4239,49	844,00
-4226,55	1003,00
-4213,65	1009,00
-4200,76	1079,00
-4187,89	886,00
-4175,04	889,00
-4162,21	812,00
-4149,40	917,00
-4136,61	881,00
-4123,85	846,00
-4111,10	919,00
-4098,37	896,00
-4085,66	979,00
-4072,98	1041,00
-4060,31	887,00
-4047,66	1066,00
-4035,04	1132,00
-4022,43	888,00
-4009,84	887,00
-3997,27	801,00
-3984,72	941,00
-3972,19	876,00
-3959,69	955,00
-3947,20	828,00
-3934,73	879,00
-3922,27	892,00
-3909,84	888,00
-3897,43	854,00
-3885,04	878,00
-3872,67	899,00
-3860,31	812,00
-3847,98	1014,00
-3835,66	918,00
-3823,36	924,00
-3811,09	885,00
-3798,83	921,00
-3786,59	875,00
-3774,37	957,00
-3762,17	877,00
-3749,98	965,00
-3737,82	878,00
-3725,67	1216,00
-3713,55	882,00
-3701,44	1009,00
-3689,35	878,00
-3677,28	904,00
-3665,22	857,00
-3653,19	948,00
-3641,17	887,00
-3629,18	946,00
-3617,20	938,00
-3605,24	879,00
-3593,30	947,00
-3581,37	894,00
-3569,47	921,00
-3557,58	904,00
-3545,71	985,00
-3533,86	944,00
-3522,02	843,00
-3510,21	859,00
-3498,41	903,00
-3486,63	901,00
-3474,87	908,00
-3463,12	841,00
-3451,40	920,00
-3439,69	917,00
-3428,00	872,00
-3416,33	894,00
-3404,67	855,00
-3393,03	899,00
-3381,41	974,00
-3369,81	934,00
-3358,22	893,00
-3346,66	968,00
-3335,10	936,00
-3323,57	859,00
-3312,06	1017,00
-3300,56	936,00
-3289,08	747,00
-3277,61	916,00
-3266,16	937,00
-3254,73	904,00
-3243,32	825,00
-3231,92	818,00
-3220,55	983,00
-3209,18	1066,00
-3197,84	797,00
-3186,51	790,00
-3175,20	831,00
-3163,90	892,00
-3152,63	992,00
-3141,36	830,00
-3130,12	990,00
-3118,89	978,00
-3107,68	803,00
-3096,49	999,00
-3085,31	846,00
-3074,15	856,00
-3063,00	982,00
-3051,87	915,00
-3040,76	840,00
-3029,67	1060,00
-3018,59	1051,00
-3007,52	1048,00
-2996,48	982,00
-2985,44	876,00
-2974,43	954,00
-2963,43	852,00
-2952,45	909,00
-2941,48	934,00
-2930,53	947,00
-2919,60	773,00
-2908,68	827,00
-2897,78	940,00
-2886,89	1000,00
-2876,02	859,00
-2865,17	846,00
-2854,33	968,00
-2843,50	861,00
-2832,70	873,00
-2821,90	911,00
-2811,13	1003,00
-2800,37	827,00
-2789,62	823,00
-2778,89	898,00
-2768,18	914,00
-2757,48	959,00
-2746,80	962,00
-2736,13	879,00
-2725,48	977,00
-2714,84	868,00
-2704,22	898,00
-2693,61	906,00
-2683,02	933,00
-2672,45	875,00
-2661,89	966,00
-2651,34	942,00
-2640,81	939,00
-2630,30	1015,00
-2619,80	843,00
-2609,31	949,00
-2598,84	811,00
-2588,39	953,00
-2577,95	841,00
-2567,52	852,00
-2557,11	881,00
-2546,71	924,00
-2536,33	1034,00
-2525,97	932,00
-2515,62	906,00
-2505,28	926,00
-2494,96	847,00
-2484,65	891,00
-2474,36	1255,00
-2464,08	868,00
-2453,82	1107,00
-2443,57	964,00
-2433,33	817,00
-2423,11	987,00
-2412,91	935,00
-2402,72	857,00
-2392,54	878,00
-2382,38	890,00
-2372,23	954,00
-2362,09	2117,00
-2351,97	765,00
-2341,87	854,00
-2331,78	1017,00
-2321,70	1013,00
-2311,64	953,00
-2301,59	903,00
-2291,55	875,00
-2281,53	893,00
-2271,53	843,00
-2261,53	1008,00
-2251,55	868,00
-2241,59	878,00
-2231,64	970,00
-2221,70	818,00
-2211,78	892,00
-2201,87	921,00
-2191,97	895,00
-2182,09	916,00
-2172,22	1015,00
-2162,37	829,00
-2152,53	804,00
-2142,70	816,00
-2132,89	833,00
-2123,09	1001,00
-2113,30	874,00
-2103,53	848,00
-2093,77	969,00
-2084,02	868,00
-2074,29	989,00
-2064,57	1005,00
-2054,86	893,00
-2045,17	965,00
-2035,49	920,00
-2025,82	835,00
-2016,17	901,00
-2006,53	811,00
-1996,91	912,00
-1987,29	814,00
-1977,69	849,00
-1968,11	752,00
-1958,53	924,00
-1948,97	933,00
-1939,42	836,00
-1929,89	916,00
-1920,37	911,00
-1910,86	804,00
-1901,36	868,00
-1891,88	912,00
-1882,41	911,00
-1872,95	959,00
-1863,51	973,00
-1854,08	964,00
-1844,66	949,00
-1835,26	1051,00
-1825,86	999,00
-1816,48	842,00
-1807,11	986,00
-1797,76	894,00
-1788,42	1008,00
-1779,09	916,00
-1769,77	901,00
-1760,47	1036,00
-1751,17	897,00
-1741,89	800,00
-1732,63	906,00
-1723,37	1092,00
-1714,13	969,00
-1704,90	880,00
-1695,68	1058,00
-1686,48	730,00
-1677,29	892,00
-1668,11	1061,00
-1658,94	908,00
-1649,78	889,00
-1640,64	899,00
-1631,51	910,00
-1622,39	947,00
-1613,28	854,00
-1604,19	1112,00
-1595,10	918,00
-1586,03	887,00
-1576,97	953,00
-1567,93	859,00
-1558,89	872,00
-1549,87	946,00
-1540,86	856,00
-1531,86	911,00
-1522,87	873,00
-1513,90	934,00
-1504,93	982,00
-1495,98	956,00
-1487,04	984,00
-1478,12	872,00
-1469,20	878,00
-1460,30	961,00
-1451,40	1156,00
-1442,52	955,00
-1433,65	963,00
-1424,80	941,00
-1415,95	863,00
-1407,12	1150,00
-1398,30	863,00
-1389,48	982,00
-1380,69	823,00
-1371,90	870,00
-1363,12	1007,00
-1354,36	1065,00
-1345,60	891,00
-1336,86	1012,00
-1328,13	1097,00
-1319,41	916,00
-1310,70	847,00
-1302,01	833,00
-1293,32	815,00
-1284,65	884,00
-1275,99	1025,00
-1267,33	1098,00
-1258,69	893,00
-1250,06	889,00
-1241,45	810,00
-1232,84	1073,00
-1224,25	923,00
-1215,66	933,00
-1207,09	1026,00
-1198,53	934,00
-1189,97	959,00
-1181,43	890,00
-1172,91	909,00
-1164,39	993,00
-1155,88	763,00
-1147,38	771,00
-1138,90	929,00
-1130,43	878,00
-1121,96	906,00
-1113,51	849,00
-1105,07	919,00
-1096,64	978,00
-1088,22	907,00
-1079,81	1018,00
-1071,41	963,00
-1063,02	806,00
-1054,65	1054,00
-1046,28	953,00
-1037,92	911,00
-1029,58	881,00
-1021,24	907,00
-1012,92	1193,00
-1004,61	884,00
-996,30	1122,00
-988,01	779,00
-979,73	877,00
-971,46	963,00
-963,20	834,00
-954,95	812,00
-946,71	967,00
-938,48	960,00
-930,26	954,00
-922,06	892,00
-913,86	902,00
-905,67	821,00
-897,49	963,00
-889,33	765,00
-881,17	970,00
-873,02	908,00
-864,89	840,00
-856,76	876,00
-848,65	999,00
-840,54	1008,00
-832,45	937,00
-824,36	791,00
-816,29	956,00
-808,22	1019,00
-800,17	913,00
-792,12	900,00
-784,09	985,00
-776,06	869,00
-768,05	898,00
-760,04	955,00
-752,05	885,00
-744,07	931,00
-736,09	1036,00
-728,13	781,00
-720,17	929,00
-712,23	867,00
-704,29	863,00
-696,37	939,00
-688,45	1045,00
-680,55	879,00
-672,65	960,00
-664,77	803,00
-656,89	955,00
-649,03	904,00
-641,17	983,00
-633,32	1026,00
-625,49	947,00
-617,66	964,00
-609,84	993,00
-602,03	845,00
-594,23	931,00
-586,45	861,00
-578,67	878,00
-570,90	847,00
-563,14	867,00
-555,39	947,00
-547,65	894,00
-539,91	926,00
-532,19	982,00
-524,48	924,00
-516,78	859,00
-509,08	1038,00
-501,40	862,00
-493,72	936,00
-486,06	842,00
-478,40	1063,00
-470,76	942,00
-463,12	882,00
-455,49	874,00
-447,87	899,00
-440,26	891,00
-432,66	831,00
-425,07	970,00
-417,49	947,00
-409,92	777,00
-402,35	857,00
-394,80	819,00
-387,25	965,00
-379,72	1058,00
-372,19	1003,00
-364,67	989,00
-357,17	946,00
-349,67	912,00
-342,18	875,00
-334,69	914,00
-327,22	952,00
-319,76	980,00
-312,30	900,00
-304,86	902,00
-297,42	902,00
-290,00	890,00
-282,58	862,00
-275,17	1080,00
-267,77	1037,00
-260,37	986,00
-252,99	1038,00
-245,62	919,00
-238,25	881,00
-230,90	911,00
-223,55	1007,00
-216,21	980,00
-208,88	1109,00
-201,56	942,00
-194,25	1077,00
-186,94	1074,00
-179,65	1050,00
-172,36	1079,00
-165,08	1126,00
-157,81	1158,00
-150,55	1355,00
-143,30	1304,00
-136,06	1225,00
-128,82	1323,00
-121,60	1293,00
-114,38	1405,00
-107,17	1616,00
-99,97	1808,00
-92,78	1686,00
-85,60	1799,00
-78,42	2029,00
-71,25	2167,00
-64,10	2262,00
-56,95	2579,00
-49,81	2884,00
-42,67	3583,00
-35,55	3996,00
-28,43	5123,00
-21,33	7910,00
-14,23	24630,00
-7,14	57498,00
-0,05	57284,00
7,02	57012,00
14,09	57319,00
21,14	20638,00
28,19	9162,00
35,23	6209,00
42,27	5079,00
49,29	4140,00
56,31	3653,00
63,32	3269,00
70,32	2837,00
77,31	2550,00
84,29	2224,00
91,27	2140,00
98,23	2170,00
105,19	2025,00
112,14	2254,00
119,09	2924,00
126,02	4122,00
132,95	4683,00
139,87	4830,00
146,78	4994,00
153,68	4820,00
160,58	4546,00
167,46	4497,00
174,34	4713,00
181,21	4540,00
188,08	4433,00
194,93	4557,00
201,78	4573,00
208,62	4684,00
215,45	4632,00
222,27	4530,00
229,09	4547,00
235,90	4283,00
242,70	4409,00
249,49	4434,00
256,27	4180,00
263,05	4174,00
269,82	4144,00
276,58	4227,00
283,33	4043,00
290,08	3925,00
296,82	3938,00
303,55	3682,00
310,27	3796,00
316,98	3760,00
323,69	3834,00
330,39	3728,00
337,08	3746,00
343,76	3782,00
350,44	3701,00
357,11	3682,00
363,77	3776,00
370,42	3625,00
377,07	3711,00
383,71	3663,00
390,34	3590,00
396,96	3728,00
403,58	3564,00
410,19	3763,00
416,79	3881,00
423,38	3998,00
429,97	3966,00
436,55	3877,00
443,12	3998,00
449,68	3975,00
456,24	3890,00
462,79	3750,00
469,33	3610,00
475,86	3426,00
482,39	3357,00
488,91	3354,00
495,42	3225,00
501,93	3227,00
508,42	3060,00
514,91	3191,00
521,40	3127,00
527,87	3093,00
534,34	2988,00
540,80	3029,00
547,25	3130,00
553,70	3035,00
560,14	3111,00
566,57	3130,00
573,00	3108,00
579,41	3197,00
585,83	3224,00
592,23	3293,00
598,62	3369,00
605,01	3355,00
611,40	3482,00
617,77	3454,00
624,14	3286,00
630,50	3146,00
636,85	3029,00
643,20	2955,00
649,54	2826,00
655,87	2866,00
662,20	2878,00
668,52	2874,00
674,83	2907,00
681,13	2676,00
687,43	2899,00
693,72	2715,00
700,00	2574,00
706,28	2736,00
712,55	2715,00
718,81	2803,00
725,07	2660,00
731,32	2652,00
737,56	2760,00
743,79	2754,00
750,02	2754,00
756,24	2558,00
762,46	2573,00
768,67	2851,00
774,87	2629,00
781,06	2500,00
787,25	2699,00
793,43	2582,00
799,60	2564,00
805,77	2721,00
811,93	2572,00
818,08	2695,00
824,23	2548,00
830,37	2913,00
836,50	2606,00
842,63	2651,00
848,75	2663,00
854,87	2619,00
860,97	2821,00
867,07	2623,00
873,17	2616,00
879,25	2643,00
885,33	2721,00
891,41	2690,00
897,47	2770,00
903,53	2591,00
909,59	2624,00
915,63	2555,00
921,67	2510,00
927,71	2570,00
933,74	2675,00
939,76	2388,00
945,77	2460,00
951,78	2566,00
957,78	2275,00
963,78	2490,00
969,77	2449,00
975,75	2365,00
981,72	2413,00
987,69	3699,00
993,66	2474,00
999,61	2533,00
1005,56	2446,00
1011,51	2482,00
1017,44	2481,00
1023,37	2465,00
1029,30	2483,00
1035,22	2570,00
1041,13	2423,00
1047,03	2826,00
1052,93	3352,00
1058,83	4731,00
1064,71	5191,00
1070,59	4327,00
1076,47	3519,00
1082,33	3240,00
1088,20	3113,00
1094,05	2900,00
1099,90	2725,00
1105,74	2701,00
1111,58	2700,00
1117,41	3088,00
1123,23	4006,00
1129,05	4913,00
1134,86	4571,00
1140,67	3372,00
1146,47	2779,00
1152,26	2675,00
1158,05	2590,00
1163,83	2737,00
1169,60	2802,00
1175,37	2797,00
1181,13	2573,00
1186,89	2430,00
1192,64	2346,00
1198,38	2475,00
1204,12	2305,00
1209,85	2333,00
1215,58	2285,00
1221,30	2312,00
1227,02	2350,00
1232,72	2390,00
1238,43	2259,00
1244,12	2338,00
1249,81	2446,00
1255,50	2562,00
1261,17	2476,00
1266,85	2593,00
1272,51	2628,00
1278,17	2779,00
1283,83	3057,00
1289,47	4538,00
1295,12	6141,00
1300,75	5532,00
1306,38	4216,00
1312,01	3364,00
1317,63	2969,00
1323,24	2751,00
1328,85	2612,00
1334,45	2393,00
1340,04	2492,00
1345,63	2401,00
1351,22	2511,00
1356,80	2592,00
1362,37	2556,00
1367,93	2641,00
1373,49	2723,00
1379,05	2586,00
1384,60	2529,00
1390,14	2480,00
1395,68	2512,00
1401,21	2476,00
1406,74	2833,00
1412,26	3353,00
1417,77	4128,00
1423,28	3795,00
1428,78	4421,00
1434,28	5332,00
1439,77	6220,00
1445,26	5988,00
1450,74	5453,00
1456,22	5073,00
1461,68	4883,00
1467,15	4711,00
1472,61	3868,00
1478,06	3566,00
1483,51	3006,00
1488,95	2586,00
1494,38	2603,00
1499,81	2371,00
1505,24	2243,00
1510,65	2355,00
1516,07	2310,00
1521,48	2270,00
1526,88	2120,00
1532,27	2177,00
1537,67	2047,00
1543,05	2172,00
1548,43	2052,00
1553,81	2208,00
1559,18	1968,00
1564,54	1973,00
1569,90	2085,00
1575,25	1861,00
1580,60	1917,00
1585,94	2060,00
1591,28	1984,00
1596,61	1910,00
1601,93	1906,00
1607,25	2038,00
1612,57	1906,00
1617,88	1962,00
1623,18	1998,00
1628,48	1942,00
1633,77	1905,00
1639,06	1976,00
1644,34	1860,00
1649,62	1794,00
1654,89	1832,00
1660,16	1684,00
1665,42	1943,00
1670,67	1771,00
1675,92	1731,00
1681,17	1772,00
1686,41	1776,00
1691,64	1892,00
1696,87	1777,00
1702,10	1783,00
1707,32	1864,00
1712,53	1732,00
1717,74	1760,00
1722,94	1891,00
1728,14	1681,00
1733,33	1657,00
1738,52	1724,00
1743,70	1747,00
1748,88	1697,00
1754,05	1802,00
1759,22	1568,00
1764,38	1957,00
1769,53	1741,00
1774,69	1736,00
1779,83	1666,00
1784,97	1635,00
1790,11	1684,00
1795,24	1567,00
1800,36	1630,00
1805,48	1627,00
1810,60	1726,00
1815,71	1620,00
1820,82	1529,00
1825,92	1646,00
1831,01	1661,00
1836,10	1629,00
1841,19	1679,00
1846,26	1468,00
1851,34	1563,00
1856,41	1662,00
1861,47	1582,00
1866,53	1703,00
1871,59	1660,00
1876,64	1547,00
1881,68	1572,00
1886,72	1582,00
1891,76	1493,00
1896,79	1563,00
1901,81	1447,00
1906,83	1564,00
1911,85	1457,00
1916,86	1664,00
1921,86	1458,00
1926,86	1484,00
1931,86	1540,00
1936,85	1519,00
1941,83	1460,00
1946,81	1463,00
1951,79	1447,00
1956,76	1322,00
1961,72	1284,00
1966,68	1375,00
1971,64	1412,00
1976,59	1432,00
1981,54	1403,00
1986,48	1431,00
1991,42	1247,00
1996,35	1584,00
2001,27	1383,00
2006,20	1316,00
2011,11	1469,00
2016,03	1351,00
2020,93	1326,00
2025,84	1380,00
2030,73	1372,00
2035,63	1274,00
2040,52	1373,00
2045,40	1335,00
2050,28	1352,00
2055,15	1294,00
2060,02	1262,00
2064,89	1497,00
2069,75	1424,00
2074,60	1430,00
2079,46	1235,00
2084,30	1261,00
2089,14	1187,00
2093,98	1345,00
2098,81	1330,00
2103,64	1407,00
2108,46	1297,00
2113,28	1489,00
2118,09	1371,00
2122,90	1282,00
2127,70	1306,00
2132,50	1378,00
2137,30	1323,00
2142,09	1187,00
2146,87	1177,00
2151,66	1372,00
2156,43	1282,00
2161,20	1293,00
2165,97	1395,00
2170,73	1257,00
2175,49	1406,00
2180,24	1393,00
2184,99	1470,00
2189,74	1601,00
2194,48	1422,00
2199,21	1470,00
2203,94	1336,00
2208,67	1272,00
2213,39	1154,00
2218,11	1335,00
2222,82	1253,00
2227,53	1263,00
2232,23	1263,00
2236,93	1370,00
2241,63	1280,00
2246,32	1331,00
2251,00	1271,00
2255,68	1228,00
2260,36	1300,00
2265,03	1359,00
2269,70	1358,00
2274,36	1275,00
2279,02	1314,00
2283,68	1325,00
2288,33	1259,00
2292,97	1420,00
2297,61	1241,00
2302,25	1329,00
2306,88	1222,00
2311,51	1139,00
2316,14	1207,00
2320,75	1128,00
2325,37	1174,00
2329,98	1272,00
2334,59	1211,00
2339,19	1168,00
2343,79	1140,00
2348,38	1253,00
2352,97	1210,00
2357,55	1211,00
2362,13	1141,00
2366,71	1143,00
2371,28	1336,00
2375,85	1223,00
2380,41	1217,00
2384,97	1244,00
2389,52	1339,00
2394,07	1259,00
2398,62	1203,00
2403,16	1239,00
2407,70	1096,00
2412,23	1114,00
2416,76	1254,00
2421,29	1218,00
2425,81	1305,00
2430,32	1346,00
2434,84	1042,00
2439,34	1139,00
2443,85	1377,00
2448,35	1140,00
2452,84	1155,00
2457,33	1200,00
2461,82	1020,00
2466,30	1110,00
2470,78	1277,00
2475,25	1157,00
2479,72	1131,00
2484,19	1179,00
2488,65	1252,00
2493,11	1121,00
2497,56	1299,00
2502,01	1046,00
2506,46	1223,00
2510,90	1132,00
2515,34	1183,00
2519,77	1195,00
2524,20	1182,00
2528,62	1142,00
2533,04	1231,00
2537,46	1117,00
2541,87	1172,00
2546,28	1147,00
2550,68	1271,00
2555,08	1223,00
2559,48	1153,00
2563,87	1078,00
2568,26	1130,00
2572,64	1199,00
2577,02	1195,00
2581,40	1064,00
2585,77	1224,00
2590,14	1131,00
2594,50	1139,00
2598,86	1279,00
2603,22	1157,00
2607,57	1149,00
2611,92	1213,00
2616,26	1283,00
2620,60	1361,00
2624,94	1146,00
2629,27	1265,00
2633,60	1098,00
2637,92	1300,00
2642,24	1302,00
2646,56	1192,00
2650,87	1115,00
2655,18	1322,00
2659,48	1196,00
2663,78	1231,00
2668,08	1270,00
2672,37	1306,00
2676,66	1232,00
2680,95	1175,00
2685,23	1333,00
2689,50	1253,00
2693,78	1334,00
2698,05	1254,00
2702,31	1350,00
2706,57	1447,00
2710,83	1573,00
2715,08	1642,00
2719,33	1633,00
2723,58	1548,00
2727,82	1573,00
2732,06	1501,00
2736,29	1551,00
2740,53	1447,00
2744,75	1389,00
2748,97	1483,00
2753,19	1420,00
2757,41	1374,00
2761,62	1381,00
2765,83	1383,00
2770,03	1306,00
2774,23	1503,00
2778,43	1321,00
2782,62	1436,00
2786,81	1455,00
2791,00	1404,00
2795,18	1445,00
2799,35	1571,00
2803,53	1629,00
2807,70	1597,00
2811,86	1675,00
2816,03	1790,00
2820,19	1854,00
2824,34	1855,00
2828,49	2100,00
2832,64	2360,00
2836,78	2843,00
2840,92	3219,00
2845,06	3932,00
2849,19	4391,00
2853,32	4477,00
2857,45	4409,00
2861,57	4361,00
2865,69	4234,00
2869,80	4035,00
2873,91	4319,00
2878,02	4697,00
2882,12	5217,00
2886,22	5075,00
2890,32	4920,00
2894,41	4503,00
2898,50	4121,00
2902,58	3875,00
2906,67	3599,00
2910,74	3362,00
2914,82	3022,00
2918,89	3093,00
2922,96	2721,00
2927,02	2565,00
2931,08	2425,00
2935,13	2310,00
2939,19	2244,00
2943,24	2084,00
2947,28	2117,00
2951,32	1797,00
2955,36	1671,00
2959,40	1772,00
2963,43	1493,00
2967,46	1537,00
2971,48	1563,00
2975,50	1371,00
2979,52	1470,00
2983,53	1416,00
2987,54	1280,00
2991,55	1409,00
2995,55	1307,00
2999,55	1204,00
3003,54	1120,00
3007,54	1294,00
3011,53	1244,00
3015,51	1174,00
3019,49	1248,00
3023,47	1073,00
3027,45	1164,00
3031,42	1067,00
3035,39	1016,00
3039,35	1097,00
3043,31	1165,00
3047,27	1074,00
3051,22	1259,00
3055,17	1058,00
3059,12	1023,00
3063,06	1106,00
3067,00	952,00
3070,94	964,00
3074,87	1211,00
3078,80	1064,00
3082,73	1003,00
3086,65	1021,00
3090,57	1011,00
3094,49	1064,00
3098,40	983,00
3102,31	988,00
3106,22	1020,00
3110,12	996,00
3114,02	867,00
3117,92	1005,00
3121,81	984,00
3125,70	964,00
3129,58	927,00
3133,47	857,00
3137,34	1065,00
3141,22	1031,00
3145,09	933,00
3148,96	1006,00
3152,83	1001,00
3156,69	1052,00
3160,55	901,00
3164,40	1035,00
3168,26	1038,00
3172,10	1070,00
3175,95	959,00
3179,79	1020,00
3183,63	972,00
3187,47	950,00
3191,30	1052,00
3195,13	987,00
3198,95	888,00
3202,78	925,00
3206,60	906,00
3210,41	896,00
3214,23	888,00
3218,03	989,00
3221,84	982,00
3225,64	883,00
3229,44	903,00
3233,24	979,00
3237,03	920,00
3240,82	809,00
3244,61	861,00
3248,39	972,00
3252,17	1000,00
3255,95	1051,00
3259,72	1025,00
3263,49	1189,00
3267,26	904,00
3271,03	926,00
3274,79	892,00
3278,54	887,00
3282,30	875,00
3286,05	939,00
3289,80	1012,00
3293,54	955,00
3297,29	987,00
3301,02	955,00
3304,76	903,00
3308,49	1003,00
3312,22	772,00
3315,95	930,00
3319,67	932,00
3323,39	1068,00
3327,10	913,00
3330,82	922,00
3334,53	910,00
3338,24	924,00
3341,94	802,00
3345,64	959,00
3349,34	888,00
3353,03	910,00
3356,72	862,00
3360,41	970,00
3364,10	903,00
3367,78	922,00
3371,46	854,00
3375,13	961,00
3378,81	1001,00
3382,48	795,00
3386,14	982,00
3389,81	948,00
3393,47	952,00
3397,12	1167,00
3400,78	892,00
3404,43	915,00
3408,08	1007,00
3411,72	851,00
3415,36	872,00
3419,00	927,00
3422,64	940,00
3426,27	893,00
3429,90	912,00
3433,53	853,00
3437,15	891,00
3440,77	789,00
3444,39	875,00
3448,00	875,00
3451,62	891,00
3455,22	844,00
3458,83	759,00
3462,43	881,00
3466,03	925,00
3469,63	892,00
3473,22	836,00
3476,81	833,00
3480,40	921,00
3483,99	882,00
3487,57	856,00
3491,15	822,00
3494,72	906,00
3498,29	935,00
3501,86	815,00
3505,43	857,00
3508,99	821,00
3512,56	728,00
3516,11	940,00
3519,67	854,00
3523,22	942,00
3526,77	817,00
3530,32	1038,00
3533,86	907,00
3537,40	993,00
3540,94	963,00
3544,47	847,00
3548,00	799,00
3551,53	1035,00
3555,06	850,00
3558,58	992,00
3562,10	928,00
3565,62	824,00
3569,13	918,00
3572,64	1018,00
3576,15	818,00
3579,66	888,00
3583,16	806,00
3586,66	838,00
3590,16	844,00
3593,65	782,00
3597,14	749,00
3600,63	894,00
3604,11	797,00
3607,60	886,00
3611,08	903,00
3614,55	905,00
3618,03	806,00
3621,50	783,00
3624,97	778,00
3628,43	853,00
3631,90	789,00
3635,36	842,00
3638,81	821,00
3642,27	856,00
3645,72	860,00
3649,17	753,00
3652,61	816,00
3656,06	819,00
3659,50	828,00
3662,93	787,00
3666,37	887,00
3669,80	988,00
3673,23	880,00
3676,65	874,00
3680,08	879,00
3683,50	775,00
3686,92	725,00
3690,33	897,00
3693,74	810,00
3697,15	754,00
3700,56	891,00
3703,96	885,00
3707,36	704,00
3710,76	789,00
3714,16	771,00
3717,55	837,00
3720,94	737,00
3724,33	780,00
3727,71	953,00
3731,10	762,00
3734,48	730,00
3737,85	783,00
3741,23	763,00
3744,60	733,00
3747,97	680,00
3751,33	895,00
3754,69	681,00
3758,05	771,00
3761,41	644,00
3764,77	819,00
3768,12	687,00
3771,47	672,00
3774,82	884,00
3778,16	-19,00
3781,50	15,00
3784,84	3,00
3788,18	12,00
>>>>>End Processed Spectral Data<<<<<
