SpectraSuite Data File
++++++++++++++++++++++++++++++++++++
Date: Mon Jan 05 16:34:43 ICT 2026
User: Administrator
Dark Spectrum Present: Yes
Reference Spectrum Present: No
Number of Sampled Component Spectra: 1
Spectrometers: MAYP113682
Integration Time (usec): 3000000 (MAYP113682)
Spectra Averaged: 1 (MAYP113682)
Boxcar Smoothing: 0 (MAYP113682)
Correct for Electrical Dark: No (MAYP113682)
Strobe/Lamp Enabled: No (MAYP113682)
Correct for Detector Non-linearity: No (MAYP113682)
Correct for Stray Light: No (MAYP113682)
Number of Pixels in Processed Spectrum: 2068
>>>>>Begin Processed Spectral Data<<<<<
-37534,58	30,00
-37414,56	2,00
-37295,11	5,00
-37176,24	6,00
-37057,95	606,00
-36940,22	704,00
-36823,05	784,00
-36706,45	768,00
-36590,40	778,00
-36474,90	732,00
-36359,95	854,00
-36245,55	828,00
-36131,68	825,00
-36018,35	853,00
-35905,55	848,00
-35793,29	913,00
-35681,54	832,00
-35570,32	848,00
-35459,62	869,00
-35349,43	980,00
-35239,75	920,00
-35130,58	852,00
-35021,91	819,00
-34913,74	914,00
-34806,07	948,00
-34698,89	912,00
-34592,20	793,00
-34486,00	891,00
-34380,28	889,00
-34275,04	836,00
-34170,27	763,00
-34065,98	1013,00
-33962,16	968,00
-33858,81	941,00
-33755,92	885,00
-33653,49	1053,00
-33551,52	970,00
-33450,01	933,00
-33348,94	786,00
-33248,33	878,00
-33148,16	861,00
-33048,43	873,00
-32949,14	1058,00
-32850,29	1050,00
-32751,87	927,00
-32653,89	943,00
-32556,33	976,00
-32459,20	916,00
-32362,49	970,00
-32266,19	972,00
-32170,32	905,00
-32074,86	973,00
-31979,82	1052,00
-31885,18	1072,00
-31790,95	985,00
-31697,12	983,00
-31603,69	1015,00
-31510,67	988,00
-31418,04	1006,00
-31325,80	873,00
-31233,95	875,00
-31142,49	987,00
-31051,42	946,00
-30960,73	1111,00
-30870,43	1038,00
-30780,50	959,00
-30690,95	973,00
-30601,77	1061,00
-30512,97	984,00
-30424,53	990,00
-30336,46	1000,00
-30248,76	938,00
-30161,42	1068,00
-30074,44	875,00
-29987,81	1016,00
-29901,55	1115,00
-29815,63	963,00
-29730,07	990,00
-29644,86	1025,00
-29560,00	1020,00
-29475,48	1008,00
-29391,30	1007,00
-29307,47	971,00
-29223,97	947,00
-29140,81	942,00
-29057,99	1031,00
-28975,50	905,00
-28893,34	1073,00
-28811,51	850,00
-28730,00	1044,00
-28648,82	912,00
-28567,97	986,00
-28487,43	886,00
-28407,21	852,00
-28327,32	838,00
-28247,73	1138,00
-28168,46	938,00
-28089,50	997,00
-28010,85	915,00
-27932,51	899,00
-27854,48	928,00
-27776,75	895,00
-27699,32	972,00
-27622,19	958,00
-27545,37	1013,00
-27468,84	987,00
-27392,60	966,00
-27316,66	1026,00
-27241,01	929,00
-27165,66	952,00
-27090,59	881,00
-27015,81	973,00
-26941,31	1109,00
-26867,10	870,00
-26793,17	1098,00
-26719,52	1004,00
-26646,15	874,00
-26573,06	856,00
-26500,24	996,00
-26427,70	918,00
-26355,43	842,00
-26283,43	976,00
-26211,71	995,00
-26140,25	998,00
-26069,06	1133,00
-25998,13	865,00
-25927,46	962,00
-25857,06	863,00
-25786,92	949,00
-25717,04	854,00
-25647,42	974,00
-25578,05	873,00
-25508,94	920,00
-25440,09	894,00
-25371,48	933,00
-25303,13	1082,00
-25235,02	916,00
-25167,17	961,00
-25099,56	933,00
-25032,19	949,00
-24965,07	888,00
-24898,20	801,00
-24831,56	936,00
-24765,17	977,00
-24699,01	792,00
-24633,10	972,00
-24567,41	974,00
-24501,97	925,00
-24436,75	974,00
-24371,77	923,00
-24307,03	894,00
-24242,51	903,00
-24178,22	875,00
-24114,16	975,00
-24050,32	1032,00
-23986,71	884,00
-23923,32	967,00
-23860,16	1017,00
-23797,22	936,00
-23734,50	1016,00
-23672,00	934,00
-23609,71	911,00
-23547,65	844,00
-23485,80	987,00
-23424,16	846,00
-23362,74	1073,00
-23301,53	1051,00
-23240,54	862,00
-23179,75	837,00
-23119,17	882,00
-23058,80	947,00
-22998,64	1111,00
-22938,68	840,00
-22878,93	899,00
-22819,39	947,00
-22760,04	958,00
-22700,90	869,00
-22641,96	980,00
-22583,22	915,00
-22524,68	935,00
-22466,33	889,00
-22408,19	953,00
-22350,23	895,00
-22292,48	991,00
-22234,92	940,00
-22177,55	951,00
-22120,37	1098,00
-22063,38	858,00
-22006,58	918,00
-21949,98	904,00
-21893,56	784,00
-21837,33	967,00
-21781,28	998,00
-21725,42	949,00
-21669,74	982,00
-21614,25	969,00
-21558,94	964,00
-21503,81	1020,00
-21448,86	1024,00
-21394,10	837,00
-21339,51	876,00
-21285,10	783,00
-21230,86	868,00
-21176,81	881,00
-21122,93	867,00
-21069,22	888,00
-21015,69	904,00
-20962,33	1030,00
-20909,14	854,00
-20856,13	844,00
-20803,28	1005,00
-20750,61	856,00
-20698,10	787,00
-20645,76	829,00
-20593,59	1076,00
-20541,59	940,00
-20489,75	1053,00
-20438,07	781,00
-20386,56	979,00
-20335,22	850,00
-20284,03	824,00
-20233,01	885,00
-20182,15	834,00
-20131,45	948,00
-20080,91	753,00
-20030,52	926,00
-19980,30	948,00
-19930,23	793,00
-19880,32	960,00
-19830,56	960,00
-19780,96	951,00
-19731,52	824,00
-19682,23	915,00
-19633,09	859,00
-19584,10	840,00
-19535,26	850,00
-19486,58	1111,00
-19438,04	951,00
-19389,66	1094,00
-19341,42	879,00
-19293,33	922,00
-19245,39	936,00
-19197,60	980,00
-19149,95	974,00
-19102,45	915,00
-19055,09	852,00
-19007,87	956,00
-18960,80	917,00
-18913,87	970,00
-18867,09	908,00
-18820,44	1005,00
-18773,94	898,00
-18727,57	965,00
-18681,35	885,00
-18635,26	961,00
-18589,31	836,00
-18543,50	861,00
-18497,83	954,00
-18452,29	945,00
-18406,89	747,00
-18361,63	978,00
-18316,50	1008,00
-18271,50	892,00
-18226,63	970,00
-18181,90	978,00
-18137,30	999,00
-18092,84	892,00
-18048,50	974,00
-18004,29	888,00
-17960,22	839,00
-17916,27	861,00
-17872,45	910,00
-17828,76	1010,00
-17785,20	912,00
-17741,77	926,00
-17698,46	965,00
-17655,28	914,00
-17612,22	949,00
-17569,29	880,00
-17526,48	983,00
-17483,79	1012,00
-17441,23	820,00
-17398,79	1005,00
-17356,48	836,00
-17314,28	1062,00
-17272,21	923,00
-17230,26	935,00
-17188,42	978,00
-17146,71	906,00
-17105,12	889,00
-17063,64	923,00
-17022,28	844,00
-16981,04	861,00
-16939,92	943,00
-16898,91	1120,00
-16858,02	830,00
-16817,25	952,00
-16776,59	933,00
-16736,04	867,00
-16695,61	1003,00
-16655,29	912,00
-16615,09	869,00
-16574,99	960,00
-16535,01	913,00
-16495,15	985,00
-16455,39	921,00
-16415,74	829,00
-16376,21	942,00
-16336,78	823,00
-16297,46	867,00
-16258,26	832,00
-16219,16	951,00
-16180,17	916,00
-16141,28	967,00
-16102,51	965,00
-16063,84	956,00
-16025,27	890,00
-15986,82	800,00
-15948,46	913,00
-15910,22	953,00
-15872,07	837,00
-15834,04	916,00
-15796,10	933,00
-15758,27	1061,00
-15720,54	954,00
-15682,91	815,00
-15645,39	1089,00
-15607,97	944,00
-15570,64	889,00
-15533,42	1007,00
-15496,30	907,00
-15459,28	961,00
-15422,36	961,00
-15385,54	827,00
-15348,82	956,00
-15312,19	1123,00
-15275,66	836,00
-15239,23	950,00
-15202,90	870,00
-15166,67	887,00
-15130,53	1061,00
-15094,48	930,00
-15058,54	919,00
-15022,68	879,00
-14986,93	845,00
-14951,26	954,00
-14915,69	1002,00
-14880,22	870,00
-14844,84	904,00
-14809,55	927,00
-14774,35	882,00
-14739,25	900,00
-14704,24	975,00
-14669,32	899,00
-14634,49	860,00
-14599,75	947,00
-14565,10	878,00
-14530,55	931,00
-14496,08	938,00
-14461,70	1015,00
-14427,41	863,00
-14393,21	856,00
-14359,10	793,00
-14325,07	894,00
-14291,14	811,00
-14257,29	971,00
-14223,52	905,00
-14189,85	1037,00
-14156,26	928,00
-14122,76	805,00
-14089,34	833,00
-14056,01	917,00
-14022,76	912,00
-13989,60	864,00
-13956,52	979,00
-13923,53	952,00
-13890,62	896,00
-13857,79	859,00
-13825,05	806,00
-13792,39	903,00
-13759,81	941,00
-13727,31	866,00
-13694,90	897,00
-13662,57	1083,00
-13630,31	1004,00
-13598,14	956,00
-13566,05	893,00
-13534,05	869,00
-13502,12	836,00
-13470,27	858,00
-13438,50	987,00
-13406,80	795,00
-13375,19	946,00
-13343,66	967,00
-13312,20	966,00
-13280,83	885,00
-13249,53	964,00
-13218,30	773,00
-13187,16	815,00
-13156,09	1072,00
-13125,10	991,00
-13094,18	1004,00
-13063,34	961,00
-13032,58	817,00
-13001,89	966,00
-12971,28	959,00
-12940,74	911,00
-12910,27	994,00
-12879,88	881,00
-12849,57	1020,00
-12819,33	1008,00
-12789,16	878,00
-12759,06	908,00
-12729,04	844,00
-12699,09	2441,00
-12669,21	836,00
-12639,41	947,00
-12609,68	868,00
-12580,02	924,00
-12550,43	1008,00
-12520,91	788,00
-12491,46	874,00
-12462,08	836,00
-12432,77	979,00
-12403,54	977,00
-12374,37	889,00
-12345,27	1043,00
-12316,24	966,00
-12287,29	1027,00
-12258,40	882,00
-12229,57	920,00
-12200,82	804,00
-12172,14	926,00
-12143,52	807,00
-12114,97	782,00
-12086,49	948,00
-12058,07	1031,00
-12029,73	890,00
-12001,44	1030,00
-11973,23	888,00
-11945,08	966,00
-11917,00	1093,00
-11888,98	850,00
-11861,03	1044,00
-11833,15	970,00
-11805,32	976,00
-11777,57	939,00
-11749,88	968,00
-11722,25	881,00
-11694,69	912,00
-11667,19	891,00
-11639,75	1036,00
-11612,38	902,00
-11585,07	861,00
-11557,83	1001,00
-11530,65	1116,00
-11503,53	840,00
-11476,47	914,00
-11449,48	829,00
-11422,54	1068,00
-11395,67	910,00
-11368,86	930,00
-11342,11	878,00
-11315,43	913,00
-11288,80	898,00
-11262,23	965,00
-11235,73	895,00
-11209,28	1154,00
-11182,90	915,00
-11156,57	844,00
-11130,31	1097,00
-11104,10	1006,00
-11077,96	969,00
-11051,87	867,00
-11025,84	868,00
-10999,87	872,00
-10973,96	955,00
-10948,11	804,00
-10922,31	984,00
-10896,58	960,00
-10870,90	1044,00
-10845,28	960,00
-10819,71	804,00
-10794,20	992,00
-10768,75	1002,00
-10743,36	959,00
-10718,02	887,00
-10692,74	861,00
-10667,52	847,00
-10642,35	902,00
-10617,24	986,00
-10592,18	975,00
-10567,18	918,00
-10542,23	1008,00
-10517,34	954,00
-10492,51	989,00
-10467,72	892,00
-10443,00	906,00
-10418,32	1037,00
-10393,70	990,00
-10369,14	977,00
-10344,63	846,00
-10320,17	949,00
-10295,77	981,00
-10271,42	927,00
-10247,12	984,00
-10222,88	1054,00
-10198,68	835,00
-10174,54	997,00
-10150,46	1162,00
-10126,42	1150,00
-10102,44	931,00
-10078,51	896,00
-10054,63	1027,00
-10030,80	1057,00
-10007,03	1179,00
-9983,30	993,00
-9959,63	1064,00
-9936,01	1170,00
-9912,44	1094,00
-9888,92	1069,00
-9865,44	957,00
-9842,02	1054,00
-9818,65	1165,00
-9795,33	871,00
-9772,06	1137,00
-9748,84	1006,00
-9725,67	1140,00
-9702,55	1152,00
-9679,47	1109,00
-9656,45	1224,00
-9633,47	953,00
-9610,55	1098,00
-9587,67	1306,00
-9564,84	1428,00
-9542,06	1314,00
-9519,32	1514,00
-9496,64	1407,00
-9474,00	1362,00
-9451,41	1400,00
-9428,87	1437,00
-9406,37	1408,00
-9383,92	1252,00
-9361,52	1238,00
-9339,17	1467,00
-9316,86	1454,00
-9294,60	1497,00
-9272,38	1683,00
-9250,21	1885,00
-9228,09	1750,00
-9206,01	1947,00
-9183,98	1674,00
-9162,00	1513,00
-9140,06	1637,00
-9118,16	1399,00
-9096,31	1503,00
-9074,51	1555,00
-9052,75	1730,00
-9031,04	1671,00
-9009,37	1511,00
-8987,74	1622,00
-8966,16	1466,00
-8944,63	1246,00
-8923,14	1445,00
-8901,69	1277,00
-8880,29	1238,00
-8858,93	1540,00
-8837,61	1576,00
-8816,34	1678,00
-8795,11	1729,00
-8773,92	1406,00
-8752,78	1527,00
-8731,68	1424,00
-8710,62	1574,00
-8689,61	1330,00
-8668,63	1479,00
-8647,70	1539,00
-8626,82	1531,00
-8605,97	1657,00
-8585,17	1532,00
-8564,41	1379,00
-8543,69	1393,00
-8523,01	1220,00
-8502,37	1552,00
-8481,78	1296,00
-8461,23	1308,00
-8440,71	1464,00
-8420,24	1488,00
-8399,81	1639,00
-8379,42	1597,00
-8359,08	1592,00
-8338,77	1429,00
-8318,50	1188,00
-8298,27	1269,00
-8278,09	1432,00
-8257,94	1356,00
-8237,83	1554,00
-8217,76	1523,00
-8197,74	1538,00
-8177,75	1629,00
-8157,80	1397,00
-8137,89	1334,00
-8118,02	1328,00
-8098,19	1395,00
-8078,40	1397,00
-8058,65	1375,00
-8038,93	1386,00
-8019,26	1446,00
-7999,62	1445,00
-7980,02	1315,00
-7960,46	1336,00
-7940,94	1230,00
-7921,46	1183,00
-7902,01	1222,00
-7882,60	1415,00
-7863,23	1211,00
-7843,90	1327,00
-7824,61	1337,00
-7805,35	1567,00
-7786,13	1399,00
-7766,95	1352,00
-7747,80	1397,00
-7728,69	1418,00
-7709,62	1369,00
-7690,59	1408,00
-7671,59	1411,00
-7652,63	1297,00
-7633,70	1368,00
-7614,81	1439,00
-7595,96	1263,00
-7577,15	1301,00
-7558,37	1140,00
-7539,62	1357,00
-7520,91	1249,00
-7502,24	1310,00
-7483,60	1334,00
-7465,00	1228,00
-7446,44	1327,00
-7427,91	1060,00
-7409,41	1227,00
-7390,95	1208,00
-7372,53	1022,00
-7354,14	1058,00
-7335,78	994,00
-7317,46	1103,00
-7299,18	1004,00
-7280,92	1149,00
-7262,71	1334,00
-7244,52	1354,00
-7226,38	1198,00
-7208,26	1215,00
-7190,18	1200,00
-7172,14	1099,00
-7154,12	1167,00
-7136,15	1122,00
-7118,20	1163,00
-7100,29	1373,00
-7082,41	1333,00
-7064,57	1168,00
-7046,76	1156,00
-7028,98	976,00
-7011,24	1057,00
-6993,53	886,00
-6975,85	976,00
-6958,20	997,00
-6940,59	905,00
-6923,01	872,00
-6905,46	1087,00
-6887,94	922,00
-6870,46	1324,00
-6853,01	1175,00
-6835,59	1160,00
-6818,21	1042,00
-6800,85	1174,00
-6783,53	944,00
-6766,24	878,00
-6748,98	922,00
-6731,76	805,00
-6714,56	783,00
-6697,40	652,00
-6680,26	757,00
-6663,16	867,00
-6646,09	1075,00
-6629,05	1040,00
-6612,05	1008,00
-6595,07	994,00
-6578,13	1097,00
-6561,21	984,00
-6544,33	964,00
-6527,47	844,00
-6510,65	865,00
-6493,86	705,00
-6477,10	738,00
-6460,36	875,00
-6443,66	744,00
-6426,99	809,00
-6410,35	721,00
-6393,74	1004,00
-6377,16	851,00
-6360,61	928,00
-6344,09	808,00
-6327,59	846,00
-6311,13	1071,00
-6294,70	906,00
-6278,29	961,00
-6261,92	951,00
-6245,58	1108,00
-6229,26	1093,00
-6212,97	1016,00
-6196,72	855,00
-6180,49	943,00
-6164,29	777,00
-6148,12	964,00
-6131,98	961,00
-6115,86	727,00
-6099,78	728,00
-6083,72	730,00
-6067,69	767,00
-6051,69	822,00
-6035,72	933,00
-6019,78	853,00
-6003,87	1049,00
-5987,98	939,00
-5972,12	927,00
-5956,29	895,00
-5940,49	736,00
-5924,71	992,00
-5908,96	848,00
-5893,24	943,00
-5877,55	833,00
-5861,89	932,00
-5846,25	699,00
-5830,64	870,00
-5815,05	829,00
-5799,50	801,00
-5783,97	863,00
-5768,47	920,00
-5752,99	1090,00
-5737,55	897,00
-5722,12	883,00
-5706,73	863,00
-5691,36	963,00
-5676,02	808,00
-5660,71	889,00
-5645,42	839,00
-5630,16	873,00
-5614,92	916,00
-5599,71	892,00
-5584,53	893,00
-5569,37	874,00
-5554,24	1996,00
-5539,14	743,00
-5524,06	945,00
-5509,01	843,00
-5493,98	836,00
-5478,98	892,00
-5464,00	745,00
-5449,05	773,00
-5434,13	827,00
-5419,23	841,00
-5404,36	729,00
-5389,51	827,00
-5374,69	878,00
-5359,89	962,00
-5345,12	996,00
-5330,37	1078,00
-5315,65	909,00
-5300,95	892,00
-5286,28	869,00
-5271,63	819,00
-5257,01	754,00
-5242,41	858,00
-5227,84	748,00
-5213,29	907,00
-5198,76	763,00
-5184,26	916,00
-5169,79	866,00
-5155,33	801,00
-5140,91	805,00
-5126,51	785,00
-5112,13	767,00
-5097,77	1040,00
-5083,44	943,00
-5069,13	855,00
-5054,85	883,00
-5040,59	908,00
-5026,36	911,00
-5012,15	939,00
-4997,96	958,00
-4983,80	857,00
-4969,66	934,00
-4955,54	847,00
-4941,44	1001,00
-4927,37	812,00
-4913,33	921,00
-4899,30	827,00
-4885,30	912,00
-4871,33	854,00
-4857,37	881,00
-4843,44	875,00
-4829,53	942,00
-4815,65	916,00
-4801,79	658,00
-4787,95	983,00
-4774,13	796,00
-4760,34	864,00
-4746,56	995,00
-4732,82	848,00
-4719,09	918,00
-4705,38	962,00
-4691,70	938,00
-4678,04	1141,00
-4664,41	983,00
-4650,79	1079,00
-4637,20	842,00
-4623,63	807,00
-4610,08	1062,00
-4596,56	865,00
-4583,05	854,00
-4569,57	893,00
-4556,11	930,00
-4542,67	879,00
-4529,25	861,00
-4515,86	955,00
-4502,49	893,00
-4489,13	916,00
-4475,80	991,00
-4462,49	773,00
-4449,21	1025,00
-4435,94	864,00
-4422,70	812,00
-4409,47	725,00
-4396,27	950,00
-4383,09	883,00
-4369,93	942,00
-4356,79	821,00
-4343,67	912,00
-4330,58	932,00
-4317,50	957,00
-4304,45	901,00
-4291,41	961,00
-4278,40	878,00
-4265,41	795,00
-4252,44	836,00
-4239,49	802,00
-4226,55	962,00
-4213,65	940,00
-4200,76	1081,00
-4187,89	955,00
-4175,04	885,00
-4162,21	816,00
-4149,40	980,00
-4136,61	958,00
-4123,85	912,00
-4111,10	905,00
-4098,37	1064,00
-4085,66	907,00
-4072,98	952,00
-4060,31	899,00
-4047,66	1058,00
-4035,04	1044,00
-4022,43	869,00
-4009,84	991,00
-3997,27	782,00
-3984,72	916,00
-3972,19	1054,00
-3959,69	956,00
-3947,20	872,00
-3934,73	933,00
-3922,27	908,00
-3909,84	870,00
-3897,43	976,00
-3885,04	936,00
-3872,67	939,00
-3860,31	874,00
-3847,98	1045,00
-3835,66	942,00
-3823,36	982,00
-3811,09	905,00
-3798,83	1015,00
-3786,59	966,00
-3774,37	995,00
-3762,17	772,00
-3749,98	943,00
-3737,82	931,00
-3725,67	1198,00
-3713,55	881,00
-3701,44	981,00
-3689,35	984,00
-3677,28	1025,00
-3665,22	867,00
-3653,19	889,00
-3641,17	904,00
-3629,18	1017,00
-3617,20	1012,00
-3605,24	942,00
-3593,30	963,00
-3581,37	974,00
-3569,47	1051,00
-3557,58	911,00
-3545,71	979,00
-3533,86	995,00
-3522,02	915,00
-3510,21	966,00
-3498,41	969,00
-3486,63	908,00
-3474,87	890,00
-3463,12	931,00
-3451,40	989,00
-3439,69	934,00
-3428,00	884,00
-3416,33	993,00
-3404,67	811,00
-3393,03	901,00
-3381,41	991,00
-3369,81	1059,00
-3358,22	1009,00
-3346,66	1068,00
-3335,10	1009,00
-3323,57	959,00
-3312,06	951,00
-3300,56	990,00
-3289,08	886,00
-3277,61	975,00
-3266,16	946,00
-3254,73	928,00
-3243,32	978,00
-3231,92	895,00
-3220,55	934,00
-3209,18	1157,00
-3197,84	918,00
-3186,51	847,00
-3175,20	872,00
-3163,90	888,00
-3152,63	1074,00
-3141,36	892,00
-3130,12	955,00
-3118,89	1036,00
-3107,68	875,00
-3096,49	966,00
-3085,31	882,00
-3074,15	899,00
-3063,00	919,00
-3051,87	984,00
-3040,76	856,00
-3029,67	1120,00
-3018,59	1201,00
-3007,52	1122,00
-2996,48	994,00
-2985,44	944,00
-2974,43	965,00
-2963,43	896,00
-2952,45	941,00
-2941,48	966,00
-2930,53	864,00
-2919,60	771,00
-2908,68	907,00
-2897,78	902,00
-2886,89	1051,00
-2876,02	948,00
-2865,17	869,00
-2854,33	961,00
-2843,50	911,00
-2832,70	977,00
-2821,90	895,00
-2811,13	936,00
-2800,37	888,00
-2789,62	853,00
-2778,89	987,00
-2768,18	992,00
-2757,48	942,00
-2746,80	994,00
-2736,13	896,00
-2725,48	968,00
-2714,84	836,00
-2704,22	940,00
-2693,61	907,00
-2683,02	952,00
-2672,45	1007,00
-2661,89	978,00
-2651,34	1030,00
-2640,81	913,00
-2630,30	1076,00
-2619,80	928,00
-2609,31	1027,00
-2598,84	915,00
-2588,39	955,00
-2577,95	936,00
-2567,52	848,00
-2557,11	844,00
-2546,71	984,00
-2536,33	1079,00
-2525,97	978,00
-2515,62	992,00
-2505,28	988,00
-2494,96	900,00
-2484,65	962,00
-2474,36	1204,00
-2464,08	882,00
-2453,82	1076,00
-2443,57	895,00
-2433,33	842,00
-2423,11	970,00
-2412,91	993,00
-2402,72	863,00
-2392,54	816,00
-2382,38	982,00
-2372,23	1023,00
-2362,09	2091,00
-2351,97	835,00
-2341,87	819,00
-2331,78	1051,00
-2321,70	1032,00
-2311,64	973,00
-2301,59	896,00
-2291,55	877,00
-2281,53	1023,00
-2271,53	830,00
-2261,53	1032,00
-2251,55	1074,00
-2241,59	942,00
-2231,64	906,00
-2221,70	940,00
-2211,78	943,00
-2201,87	978,00
-2191,97	1001,00
-2182,09	876,00
-2172,22	967,00
-2162,37	874,00
-2152,53	802,00
-2142,70	896,00
-2132,89	934,00
-2123,09	998,00
-2113,30	923,00
-2103,53	1019,00
-2093,77	992,00
-2084,02	906,00
-2074,29	950,00
-2064,57	992,00
-2054,86	1027,00
-2045,17	1022,00
-2035,49	949,00
-2025,82	863,00
-2016,17	840,00
-2006,53	925,00
-1996,91	983,00
-1987,29	927,00
-1977,69	926,00
-1968,11	898,00
-1958,53	922,00
-1948,97	755,00
-1939,42	869,00
-1929,89	912,00
-1920,37	980,00
-1910,86	945,00
-1901,36	992,00
-1891,88	986,00
-1882,41	992,00
-1872,95	982,00
-1863,51	936,00
-1854,08	1011,00
-1844,66	1036,00
-1835,26	1069,00
-1825,86	1043,00
-1816,48	852,00
-1807,11	1006,00
-1797,76	922,00
-1788,42	991,00
-1779,09	955,00
-1769,77	981,00
-1760,47	1132,00
-1751,17	911,00
-1741,89	922,00
-1732,63	946,00
-1723,37	1100,00
-1714,13	1042,00
-1704,90	928,00
-1695,68	1044,00
-1686,48	891,00
-1677,29	905,00
-1668,11	1176,00
-1658,94	898,00
-1649,78	973,00
-1640,64	949,00
-1631,51	974,00
-1622,39	983,00
-1613,28	925,00
-1604,19	1098,00
-1595,10	991,00
-1586,03	825,00
-1576,97	1032,00
-1567,93	938,00
-1558,89	934,00
-1549,87	1023,00
-1540,86	932,00
-1531,86	985,00
-1522,87	820,00
-1513,90	1020,00
-1504,93	985,00
-1495,98	1104,00
-1487,04	1059,00
-1478,12	908,00
-1469,20	953,00
-1460,30	1044,00
-1451,40	1156,00
-1442,52	929,00
-1433,65	1015,00
-1424,80	914,00
-1415,95	915,00
-1407,12	1093,00
-1398,30	946,00
-1389,48	904,00
-1380,69	941,00
-1371,90	893,00
-1363,12	1006,00
-1354,36	1085,00
-1345,60	924,00
-1336,86	975,00
-1328,13	1075,00
-1319,41	975,00
-1310,70	951,00
-1302,01	910,00
-1293,32	860,00
-1284,65	968,00
-1275,99	997,00
-1267,33	1115,00
-1258,69	966,00
-1250,06	978,00
-1241,45	833,00
-1232,84	1127,00
-1224,25	924,00
-1215,66	998,00
-1207,09	1017,00
-1198,53	941,00
-1189,97	925,00
-1181,43	911,00
-1172,91	931,00
-1164,39	1072,00
-1155,88	862,00
-1147,38	800,00
-1138,90	916,00
-1130,43	874,00
-1121,96	1057,00
-1113,51	880,00
-1105,07	966,00
-1096,64	1021,00
-1088,22	1062,00
-1079,81	1087,00
-1071,41	1070,00
-1063,02	911,00
-1054,65	1081,00
-1046,28	901,00
-1037,92	1040,00
-1029,58	975,00
-1021,24	993,00
-1012,92	1224,00
-1004,61	952,00
-996,30	1156,00
-988,01	770,00
-979,73	1013,00
-971,46	1035,00
-963,20	873,00
-954,95	820,00
-946,71	1030,00
-938,48	1011,00
-930,26	1050,00
-922,06	947,00
-913,86	941,00
-905,67	977,00
-897,49	1055,00
-889,33	864,00
-881,17	1000,00
-873,02	1013,00
-864,89	857,00
-856,76	1051,00
-848,65	1072,00
-840,54	1121,00
-832,45	989,00
-824,36	821,00
-816,29	935,00
-808,22	1058,00
-800,17	986,00
-792,12	925,00
-784,09	980,00
-776,06	922,00
-768,05	938,00
-760,04	1015,00
-752,05	990,00
-744,07	950,00
-736,09	1007,00
-728,13	751,00
-720,17	990,00
-712,23	945,00
-704,29	827,00
-696,37	977,00
-688,45	1048,00
-680,55	917,00
-672,65	932,00
-664,77	951,00
-656,89	912,00
-649,03	844,00
-641,17	1108,00
-633,32	905,00
-625,49	1041,00
-617,66	1004,00
-609,84	981,00
-602,03	895,00
-594,23	956,00
-586,45	993,00
-578,67	918,00
-570,90	959,00
-563,14	859,00
-555,39	960,00
-547,65	1066,00
-539,91	1009,00
-532,19	963,00
-524,48	1003,00
-516,78	1025,00
-509,08	998,00
-501,40	929,00
-493,72	900,00
-486,06	849,00
-478,40	1089,00
-470,76	877,00
-463,12	909,00
-455,49	922,00
-447,87	914,00
-440,26	937,00
-432,66	864,00
-425,07	1011,00
-417,49	1064,00
-409,92	727,00
-402,35	760,00
-394,80	855,00
-387,25	976,00
-379,72	1007,00
-372,19	1015,00
-364,67	1174,00
-357,17	899,00
-349,67	978,00
-342,18	1028,00
-334,69	1006,00
-327,22	904,00
-319,76	995,00
-312,30	924,00
-304,86	856,00
-297,42	948,00
-290,00	885,00
-282,58	914,00
-275,17	1030,00
-267,77	1012,00
-260,37	1005,00
-252,99	1016,00
-245,62	1092,00
-238,25	971,00
-230,90	964,00
-223,55	1022,00
-216,21	1036,00
-208,88	1285,00
-201,56	1013,00
-194,25	1112,00
-186,94	1143,00
-179,65	1111,00
-172,36	1177,00
-165,08	1190,00
-157,81	1232,00
-150,55	1279,00
-143,30	1268,00
-136,06	1285,00
-128,82	1353,00
-121,60	1290,00
-114,38	1471,00
-107,17	1672,00
-99,97	1823,00
-92,78	1686,00
-85,60	1824,00
-78,42	2059,00
-71,25	2153,00
-64,10	2305,00
-56,95	2595,00
-49,81	2938,00
-42,67	3479,00
-35,55	3958,00
-28,43	5268,00
-21,33	7976,00
-14,23	24258,00
-7,14	57498,00
-0,05	57284,00
7,02	57012,00
14,09	57319,00
21,14	20579,00
28,19	9070,00
35,23	6169,00
42,27	5123,00
49,29	4170,00
56,31	3592,00
63,32	3242,00
70,32	2854,00
77,31	2583,00
84,29	2202,00
91,27	2270,00
98,23	2172,00
105,19	2099,00
112,14	2324,00
119,09	3128,00
126,02	4563,00
132,95	5162,00
139,87	5345,00
146,78	5494,00
153,68	5306,00
160,58	5193,00
167,46	5049,00
174,34	5139,00
181,21	5010,00
188,08	4976,00
194,93	5088,00
201,78	4990,00
208,62	5104,00
215,45	5136,00
222,27	5054,00
229,09	5221,00
235,90	4935,00
242,70	4892,00
249,49	5001,00
256,27	4744,00
263,05	4729,00
269,82	4623,00
276,58	4710,00
283,33	4617,00
290,08	4492,00
296,82	4509,00
303,55	4363,00
310,27	4358,00
316,98	4308,00
323,69	4251,00
330,39	4250,00
337,08	4289,00
343,76	4319,00
350,44	4254,00
357,11	4240,00
363,77	4173,00
370,42	4191,00
377,07	4186,00
383,71	4237,00
390,34	4195,00
396,96	4223,00
403,58	4203,00
410,19	4458,00
416,79	4471,00
423,38	4513,00
429,97	4449,00
436,55	4344,00
443,12	4559,00
449,68	4470,00
456,24	4460,00
462,79	4266,00
469,33	4079,00
475,86	3928,00
482,39	3888,00
488,91	3911,00
495,42	3803,00
501,93	3842,00
508,42	3597,00
514,91	3740,00
521,40	3744,00
527,87	3674,00
534,34	3624,00
540,80	3615,00
547,25	3581,00
553,70	3645,00
560,14	3525,00
566,57	3692,00
573,00	3616,00
579,41	3767,00
585,83	3867,00
592,23	3895,00
598,62	3840,00
605,01	3864,00
611,40	3995,00
617,77	3868,00
624,14	3829,00
630,50	3623,00
636,85	3684,00
643,20	3483,00
649,54	3396,00
655,87	3448,00
662,20	3392,00
668,52	3358,00
674,83	3368,00
681,13	3263,00
687,43	3365,00
693,72	3197,00
700,00	3112,00
706,28	3150,00
712,55	3248,00
718,81	3349,00
725,07	3140,00
731,32	3264,00
737,56	3177,00
743,79	3213,00
750,02	3191,00
756,24	3075,00
762,46	3067,00
768,67	3387,00
774,87	3087,00
781,06	2957,00
787,25	3151,00
793,43	3127,00
799,60	3052,00
805,77	3162,00
811,93	3060,00
818,08	3136,00
824,23	2996,00
830,37	3314,00
836,50	2973,00
842,63	3126,00
848,75	3093,00
854,87	3043,00
860,97	3274,00
867,07	3128,00
873,17	3129,00
879,25	3075,00
885,33	3076,00
891,41	3159,00
897,47	3167,00
903,53	3044,00
909,59	3157,00
915,63	3040,00
921,67	2920,00
927,71	2981,00
933,74	3001,00
939,76	2832,00
945,77	2842,00
951,78	2959,00
957,78	2812,00
963,78	2829,00
969,77	2749,00
975,75	2768,00
981,72	2775,00
987,69	4206,00
993,66	2927,00
999,61	2906,00
1005,56	2816,00
1011,51	2885,00
1017,44	2904,00
1023,37	3009,00
1029,30	2887,00
1035,22	3030,00
1041,13	2911,00
1047,03	3145,00
1052,93	3740,00
1058,83	5074,00
1064,71	5552,00
1070,59	4704,00
1076,47	3927,00
1082,33	3628,00
1088,20	3495,00
1094,05	3355,00
1099,90	3120,00
1105,74	3150,00
1111,58	3185,00
1117,41	3371,00
1123,23	4375,00
1129,05	5319,00
1134,86	4783,00
1140,67	3742,00
1146,47	3124,00
1152,26	3045,00
1158,05	2904,00
1163,83	2978,00
1169,60	3220,00
1175,37	3057,00
1181,13	2931,00
1186,89	2748,00
1192,64	2749,00
1198,38	2978,00
1204,12	2643,00
1209,85	2704,00
1215,58	2692,00
1221,30	2777,00
1227,02	2846,00
1232,72	2750,00
1238,43	2769,00
1244,12	2653,00
1249,81	2699,00
1255,50	3021,00
1261,17	2833,00
1266,85	2887,00
1272,51	2958,00
1278,17	3086,00
1283,83	3440,00
1289,47	4821,00
1295,12	6369,00
1300,75	5726,00
1306,38	4572,00
1312,01	3667,00
1317,63	3256,00
1323,24	3042,00
1328,85	2991,00
1334,45	2811,00
1340,04	2744,00
1345,63	2893,00
1351,22	2927,00
1356,80	2765,00
1362,37	2956,00
1367,93	2961,00
1373,49	3059,00
1379,05	2856,00
1384,60	2823,00
1390,14	2868,00
1395,68	2891,00
1401,21	2900,00
1406,74	3108,00
1412,26	3722,00
1417,77	4286,00
1423,28	4105,00
1428,78	4684,00
1434,28	5593,00
1439,77	6392,00
1445,26	6245,00
1450,74	5813,00
1456,22	5417,00
1461,68	5195,00
1467,15	4894,00
1472,61	4203,00
1478,06	3845,00
1483,51	3348,00
1488,95	2967,00
1494,38	3042,00
1499,81	2715,00
1505,24	2691,00
1510,65	2592,00
1516,07	2639,00
1521,48	2425,00
1526,88	2430,00
1532,27	2414,00
1537,67	2423,00
1543,05	2439,00
1548,43	2405,00
1553,81	2615,00
1559,18	2242,00
1564,54	2361,00
1569,90	2322,00
1575,25	2220,00
1580,60	2167,00
1585,94	2293,00
1591,28	2232,00
1596,61	2278,00
1601,93	2282,00
1607,25	2320,00
1612,57	2287,00
1617,88	2222,00
1623,18	2300,00
1628,48	2202,00
1633,77	2191,00
1639,06	2350,00
1644,34	2192,00
1649,62	2113,00
1654,89	2124,00
1660,16	1956,00
1665,42	2171,00
1670,67	2099,00
1675,92	2025,00
1681,17	2138,00
1686,41	2171,00
1691,64	2098,00
1696,87	2162,00
1702,10	2171,00
1707,32	2162,00
1712,53	2080,00
1717,74	1985,00
1722,94	2167,00
1728,14	2012,00
1733,33	1994,00
1738,52	1869,00
1743,70	1985,00
1748,88	2037,00
1754,05	2073,00
1759,22	1854,00
1764,38	1229,00
1769,53	2063,00
1774,69	2090,00
1779,83	1861,00
1784,97	2003,00
1790,11	1921,00
1795,24	1970,00
1800,36	1880,00
1805,48	1805,00
1810,60	1932,00
1815,71	1892,00
1820,82	1899,00
1825,92	1951,00
1831,01	1904,00
1836,10	1842,00
1841,19	1923,00
1846,26	1757,00
1851,34	1870,00
1856,41	1844,00
1861,47	1870,00
1866,53	1912,00
1871,59	1773,00
1876,64	1787,00
1881,68	1827,00
1886,72	1850,00
1891,76	1776,00
1896,79	1707,00
1901,81	1626,00
1906,83	1816,00
1911,85	1643,00
1916,86	1692,00
1921,86	1734,00
1926,86	1710,00
1931,86	1774,00
1936,85	1669,00
1941,83	1705,00
1946,81	1676,00
1951,79	1576,00
1956,76	1682,00
1961,72	1547,00
1966,68	1561,00
1971,64	1579,00
1976,59	1678,00
1981,54	1604,00
1986,48	1648,00
1991,42	1477,00
1996,35	1858,00
2001,27	1588,00
2006,20	1542,00
2011,11	1546,00
2016,03	1577,00
2020,93	1554,00
2025,84	1657,00
2030,73	1527,00
2035,63	1497,00
2040,52	1562,00
2045,40	1564,00
2050,28	1584,00
2055,15	1607,00
2060,02	1472,00
2064,89	1619,00
2069,75	1579,00
2074,60	1586,00
2079,46	1388,00
2084,30	1433,00
2089,14	1445,00
2093,98	1628,00
2098,81	1551,00
2103,64	1577,00
2108,46	1512,00
2113,28	1519,00
2118,09	1535,00
2122,90	1610,00
2127,70	1466,00
2132,50	1591,00
2137,30	1428,00
2142,09	1387,00
2146,87	1431,00
2151,66	1527,00
2156,43	1501,00
2161,20	1503,00
2165,97	1549,00
2170,73	1486,00
2175,49	1545,00
2180,24	1613,00
2184,99	1710,00
2189,74	1707,00
2194,48	1578,00
2199,21	1557,00
2203,94	1413,00
2208,67	1452,00
2213,39	1411,00
2218,11	1539,00
2222,82	1420,00
2227,53	1500,00
2232,23	1461,00
2236,93	1500,00
2241,63	1474,00
2246,32	1503,00
2251,00	1407,00
2255,68	1385,00
2260,36	1357,00
2265,03	1496,00
2269,70	1580,00
2274,36	1400,00
2279,02	1483,00
2283,68	1407,00
2288,33	1456,00
2292,97	1512,00
2297,61	1440,00
2302,25	1529,00
2306,88	1431,00
2311,51	1309,00
2316,14	1381,00
2320,75	1264,00
2325,37	1352,00
2329,98	1412,00
2334,59	1313,00
2339,19	1380,00
2343,79	1198,00
2348,38	1415,00
2352,97	1255,00
2357,55	1332,00
2362,13	1347,00
2366,71	1289,00
2371,28	1453,00
2375,85	1335,00
2380,41	1463,00
2384,97	1345,00
2389,52	1411,00
2394,07	1386,00
2398,62	1338,00
2403,16	1429,00
2407,70	1245,00
2412,23	1265,00
2416,76	1332,00
2421,29	1400,00
2425,81	1486,00
2430,32	1447,00
2434,84	1229,00
2439,34	1260,00
2443,85	1468,00
2448,35	1280,00
2452,84	1296,00
2457,33	1359,00
2461,82	1243,00
2466,30	1198,00
2470,78	1401,00
2475,25	1244,00
2479,72	1267,00
2484,19	1281,00
2488,65	1268,00
2493,11	1243,00
2497,56	1436,00
2502,01	1205,00
2506,46	1392,00
2510,90	1309,00
2515,34	1235,00
2519,77	1242,00
2524,20	1380,00
2528,62	1330,00
2533,04	1343,00
2537,46	1226,00
2541,87	1235,00
2546,28	1279,00
2550,68	1406,00
2555,08	1350,00
2559,48	1333,00
2563,87	1245,00
2568,26	1153,00
2572,64	1323,00
2577,02	1386,00
2581,40	1100,00
2585,77	1325,00
2590,14	1221,00
2594,50	1224,00
2598,86	1312,00
2603,22	1336,00
2607,57	1264,00
2611,92	1355,00
2616,26	1475,00
2620,60	1399,00
2624,94	1302,00
2629,27	1408,00
2633,60	1155,00
2637,92	1464,00
2642,24	1468,00
2646,56	1311,00
2650,87	1260,00
2655,18	1465,00
2659,48	1215,00
2663,78	1279,00
2668,08	1306,00
2672,37	1458,00
2676,66	1394,00
2680,95	1292,00
2685,23	1366,00
2689,50	1343,00
2693,78	1389,00
2698,05	1379,00
2702,31	1445,00
2706,57	1536,00
2710,83	1626,00
2715,08	1701,00
2719,33	1725,00
2723,58	1661,00
2727,82	1689,00
2732,06	1597,00
2736,29	1580,00
2740,53	1555,00
2744,75	1428,00
2748,97	1444,00
2753,19	1546,00
2757,41	1494,00
2761,62	1477,00
2765,83	1511,00
2770,03	1427,00
2774,23	1541,00
2778,43	1399,00
2782,62	1573,00
2786,81	1462,00
2791,00	1610,00
2795,18	1558,00
2799,35	1634,00
2803,53	1630,00
2807,70	1664,00
2811,86	1714,00
2816,03	1891,00
2820,19	1929,00
2824,34	1956,00
2828,49	2070,00
2832,64	2442,00
2836,78	2799,00
2840,92	3296,00
2845,06	3835,00
2849,19	4418,00
2853,32	4463,00
2857,45	4353,00
2861,57	4328,00
2865,69	4176,00
2869,80	4109,00
2873,91	4232,00
2878,02	4724,00
2882,12	5114,00
2886,22	5029,00
2890,32	4804,00
2894,41	4538,00
2898,50	4214,00
2902,58	3837,00
2906,67	3690,00
2910,74	3359,00
2914,82	3019,00
2918,89	3079,00
2922,96	2748,00
2927,02	2544,00
2931,08	2521,00
2935,13	2326,00
2939,19	2304,00
2943,24	2173,00
2947,28	2088,00
2951,32	1853,00
2955,36	1644,00
2959,40	1826,00
2963,43	1767,00
2967,46	1572,00
2971,48	1450,00
2975,50	1452,00
2979,52	1526,00
2983,53	1494,00
2987,54	1417,00
2991,55	1398,00
2995,55	1336,00
2999,55	1251,00
3003,54	1263,00
3007,54	1302,00
3011,53	1264,00
3015,51	1217,00
3019,49	1321,00
3023,47	1123,00
3027,45	1228,00
3031,42	1127,00
3035,39	1203,00
3039,35	1117,00
3043,31	1184,00
3047,27	1079,00
3051,22	1206,00
3055,17	1051,00
3059,12	1062,00
3063,06	1172,00
3067,00	1014,00
3070,94	1055,00
3074,87	1140,00
3078,80	1096,00
3082,73	1130,00
3086,65	973,00
3090,57	1039,00
3094,49	1010,00
3098,40	1074,00
3102,31	1033,00
3106,22	1045,00
3110,12	1029,00
3114,02	1002,00
3117,92	1097,00
3121,81	1083,00
3125,70	1077,00
3129,58	992,00
3133,47	936,00
3137,34	1059,00
3141,22	1152,00
3145,09	1005,00
3148,96	1088,00
3152,83	1039,00
3156,69	1032,00
3160,55	964,00
3164,40	1064,00
3168,26	968,00
3172,10	1042,00
3175,95	1125,00
3179,79	1081,00
3183,63	1001,00
3187,47	967,00
3191,30	1056,00
3195,13	1037,00
3198,95	948,00
3202,78	1063,00
3206,60	1030,00
3210,41	960,00
3214,23	991,00
3218,03	1018,00
3221,84	1038,00
3225,64	1028,00
3229,44	970,00
3233,24	1023,00
3237,03	967,00
3240,82	959,00
3244,61	994,00
3248,39	977,00
3252,17	1028,00
3255,95	1118,00
3259,72	1035,00
3263,49	1261,00
3267,26	996,00
3271,03	939,00
3274,79	972,00
3278,54	957,00
3282,30	908,00
3286,05	988,00
3289,80	1024,00
3293,54	1051,00
3297,29	998,00
3301,02	949,00
3304,76	933,00
3308,49	979,00
3312,22	951,00
3315,95	969,00
3319,67	895,00
3323,39	1086,00
3327,10	1046,00
3330,82	909,00
3334,53	948,00
3338,24	1028,00
3341,94	859,00
3345,64	960,00
3349,34	925,00
3353,03	1054,00
3356,72	1034,00
3360,41	1067,00
3364,10	891,00
3367,78	946,00
3371,46	979,00
3375,13	935,00
3378,81	1027,00
3382,48	936,00
3386,14	992,00
3389,81	1021,00
3393,47	1064,00
3397,12	1099,00
3400,78	1004,00
3404,43	984,00
3408,08	1026,00
3411,72	922,00
3415,36	895,00
3419,00	980,00
3422,64	882,00
3426,27	1024,00
3429,90	978,00
3433,53	919,00
3437,15	963,00
3440,77	864,00
3444,39	973,00
3448,00	918,00
3451,62	942,00
3455,22	952,00
3458,83	922,00
3462,43	972,00
3466,03	999,00
3469,63	835,00
3473,22	925,00
3476,81	818,00
3480,40	1132,00
3483,99	850,00
3487,57	1014,00
3491,15	958,00
3494,72	960,00
3498,29	1101,00
3501,86	887,00
3505,43	940,00
3508,99	959,00
3512,56	836,00
3516,11	968,00
3519,67	874,00
3523,22	1006,00
3526,77	884,00
3530,32	1108,00
3533,86	981,00
3537,40	1043,00
3540,94	989,00
3544,47	927,00
3548,00	862,00
3551,53	1030,00
3555,06	913,00
3558,58	947,00
3562,10	952,00
3565,62	782,00
3569,13	968,00
3572,64	1054,00
3576,15	811,00
3579,66	937,00
3583,16	879,00
3586,66	898,00
3590,16	900,00
3593,65	866,00
3597,14	848,00
3600,63	974,00
3604,11	972,00
3607,60	943,00
3611,08	954,00
3614,55	947,00
3618,03	866,00
3621,50	817,00
3624,97	847,00
3628,43	889,00
3631,90	858,00
3635,36	795,00
3638,81	876,00
3642,27	867,00
3645,72	819,00
3649,17	878,00
3652,61	818,00
3656,06	850,00
3659,50	907,00
3662,93	875,00
3666,37	924,00
3669,80	1032,00
3673,23	1002,00
3676,65	917,00
3680,08	1019,00
3683,50	778,00
3686,92	925,00
3690,33	855,00
3693,74	919,00
3697,15	780,00
3700,56	936,00
3703,96	878,00
3707,36	657,00
3710,76	792,00
3714,16	782,00
3717,55	801,00
3720,94	799,00
3724,33	794,00
3727,71	959,00
3731,10	790,00
3734,48	877,00
3737,85	764,00
3741,23	751,00
3744,60	786,00
3747,97	713,00
3751,33	898,00
3754,69	812,00
3758,05	819,00
3761,41	744,00
3764,77	743,00
3768,12	724,00
3771,47	662,00
3774,82	842,00
3778,16	-7,00
3781,50	12,00
3784,84	3,00
3788,18	13,00
>>>>>End Processed Spectral Data<<<<<
