SpectraSuite Data File
++++++++++++++++++++++++++++++++++++
Date: Mon Jan 05 16:34:01 ICT 2026
User: Administrator
Dark Spectrum Present: Yes
Reference Spectrum Present: No
Number of Sampled Component Spectra: 1
Spectrometers: MAYP113682
Integration Time (usec): 3000000 (MAYP113682)
Spectra Averaged: 1 (MAYP113682)
Boxcar Smoothing: 0 (MAYP113682)
Correct for Electrical Dark: No (MAYP113682)
Strobe/Lamp Enabled: No (MAYP113682)
Correct for Detector Non-linearity: No (MAYP113682)
Correct for Stray Light: No (MAYP113682)
Number of Pixels in Processed Spectrum: 2068
>>>>>Begin Processed Spectral Data<<<<<
-37534,58	38,00
-37414,56	10,00
-37295,11	6,00
-37176,24	4,00
-37057,95	598,00
-36940,22	671,00
-36823,05	724,00
-36706,45	845,00
-36590,40	832,00
-36474,90	818,00
-36359,95	903,00
-36245,55	891,00
-36131,68	727,00
-36018,35	718,00
-35905,55	792,00
-35793,29	996,00
-35681,54	768,00
-35570,32	774,00
-35459,62	854,00
-35349,43	911,00
-35239,75	875,00
-35130,58	913,00
-35021,91	891,00
-34913,74	840,00
-34806,07	928,00
-34698,89	839,00
-34592,20	863,00
-34486,00	889,00
-34380,28	867,00
-34275,04	766,00
-34170,27	754,00
-34065,98	1019,00
-33962,16	888,00
-33858,81	962,00
-33755,92	816,00
-33653,49	981,00
-33551,52	935,00
-33450,01	918,00
-33348,94	977,00
-33248,33	879,00
-33148,16	886,00
-33048,43	919,00
-32949,14	1007,00
-32850,29	1016,00
-32751,87	801,00
-32653,89	955,00
-32556,33	915,00
-32459,20	893,00
-32362,49	906,00
-32266,19	876,00
-32170,32	898,00
-32074,86	880,00
-31979,82	1007,00
-31885,18	954,00
-31790,95	1011,00
-31697,12	967,00
-31603,69	944,00
-31510,67	994,00
-31418,04	894,00
-31325,80	929,00
-31233,95	928,00
-31142,49	879,00
-31051,42	838,00
-30960,73	1041,00
-30870,43	977,00
-30780,50	919,00
-30690,95	935,00
-30601,77	959,00
-30512,97	967,00
-30424,53	912,00
-30336,46	934,00
-30248,76	950,00
-30161,42	975,00
-30074,44	878,00
-29987,81	1011,00
-29901,55	1034,00
-29815,63	921,00
-29730,07	974,00
-29644,86	990,00
-29560,00	934,00
-29475,48	1027,00
-29391,30	931,00
-29307,47	888,00
-29223,97	937,00
-29140,81	996,00
-29057,99	1053,00
-28975,50	771,00
-28893,34	1068,00
-28811,51	843,00
-28730,00	1049,00
-28648,82	868,00
-28567,97	956,00
-28487,43	838,00
-28407,21	824,00
-28327,32	830,00
-28247,73	1061,00
-28168,46	844,00
-28089,50	999,00
-28010,85	862,00
-27932,51	820,00
-27854,48	1072,00
-27776,75	863,00
-27699,32	870,00
-27622,19	935,00
-27545,37	920,00
-27468,84	977,00
-27392,60	942,00
-27316,66	934,00
-27241,01	933,00
-27165,66	865,00
-27090,59	864,00
-27015,81	1027,00
-26941,31	971,00
-26867,10	850,00
-26793,17	1044,00
-26719,52	974,00
-26646,15	897,00
-26573,06	876,00
-26500,24	937,00
-26427,70	925,00
-26355,43	929,00
-26283,43	1034,00
-26211,71	924,00
-26140,25	981,00
-26069,06	1072,00
-25998,13	890,00
-25927,46	814,00
-25857,06	869,00
-25786,92	962,00
-25717,04	890,00
-25647,42	1001,00
-25578,05	883,00
-25508,94	902,00
-25440,09	917,00
-25371,48	888,00
-25303,13	921,00
-25235,02	860,00
-25167,17	864,00
-25099,56	985,00
-25032,19	914,00
-24965,07	830,00
-24898,20	810,00
-24831,56	842,00
-24765,17	988,00
-24699,01	908,00
-24633,10	952,00
-24567,41	886,00
-24501,97	890,00
-24436,75	849,00
-24371,77	861,00
-24307,03	902,00
-24242,51	855,00
-24178,22	839,00
-24114,16	857,00
-24050,32	932,00
-23986,71	875,00
-23923,32	903,00
-23860,16	888,00
-23797,22	902,00
-23734,50	907,00
-23672,00	846,00
-23609,71	919,00
-23547,65	839,00
-23485,80	1026,00
-23424,16	788,00
-23362,74	1049,00
-23301,53	818,00
-23240,54	802,00
-23179,75	732,00
-23119,17	838,00
-23058,80	874,00
-22998,64	976,00
-22938,68	894,00
-22878,93	932,00
-22819,39	820,00
-22760,04	854,00
-22700,90	924,00
-22641,96	827,00
-22583,22	865,00
-22524,68	926,00
-22466,33	845,00
-22408,19	912,00
-22350,23	893,00
-22292,48	922,00
-22234,92	1022,00
-22177,55	977,00
-22120,37	1099,00
-22063,38	796,00
-22006,58	845,00
-21949,98	880,00
-21893,56	768,00
-21837,33	949,00
-21781,28	924,00
-21725,42	838,00
-21669,74	932,00
-21614,25	865,00
-21558,94	876,00
-21503,81	910,00
-21448,86	916,00
-21394,10	827,00
-21339,51	888,00
-21285,10	843,00
-21230,86	825,00
-21176,81	832,00
-21122,93	856,00
-21069,22	773,00
-21015,69	863,00
-20962,33	895,00
-20909,14	852,00
-20856,13	873,00
-20803,28	937,00
-20750,61	904,00
-20698,10	757,00
-20645,76	860,00
-20593,59	969,00
-20541,59	915,00
-20489,75	906,00
-20438,07	780,00
-20386,56	999,00
-20335,22	819,00
-20284,03	781,00
-20233,01	856,00
-20182,15	816,00
-20131,45	816,00
-20080,91	819,00
-20030,52	950,00
-19980,30	876,00
-19930,23	863,00
-19880,32	988,00
-19830,56	923,00
-19780,96	885,00
-19731,52	862,00
-19682,23	928,00
-19633,09	753,00
-19584,10	876,00
-19535,26	838,00
-19486,58	1010,00
-19438,04	919,00
-19389,66	960,00
-19341,42	861,00
-19293,33	873,00
-19245,39	945,00
-19197,60	1008,00
-19149,95	962,00
-19102,45	908,00
-19055,09	796,00
-19007,87	868,00
-18960,80	937,00
-18913,87	973,00
-18867,09	871,00
-18820,44	979,00
-18773,94	851,00
-18727,57	890,00
-18681,35	826,00
-18635,26	937,00
-18589,31	818,00
-18543,50	862,00
-18497,83	894,00
-18452,29	840,00
-18406,89	766,00
-18361,63	951,00
-18316,50	1045,00
-18271,50	912,00
-18226,63	1016,00
-18181,90	894,00
-18137,30	925,00
-18092,84	825,00
-18048,50	947,00
-18004,29	820,00
-17960,22	761,00
-17916,27	899,00
-17872,45	935,00
-17828,76	970,00
-17785,20	825,00
-17741,77	862,00
-17698,46	872,00
-17655,28	859,00
-17612,22	903,00
-17569,29	910,00
-17526,48	888,00
-17483,79	892,00
-17441,23	863,00
-17398,79	884,00
-17356,48	753,00
-17314,28	979,00
-17272,21	935,00
-17230,26	945,00
-17188,42	942,00
-17146,71	920,00
-17105,12	875,00
-17063,64	890,00
-17022,28	826,00
-16981,04	870,00
-16939,92	913,00
-16898,91	1051,00
-16858,02	861,00
-16817,25	900,00
-16776,59	881,00
-16736,04	841,00
-16695,61	908,00
-16655,29	884,00
-16615,09	817,00
-16574,99	857,00
-16535,01	898,00
-16495,15	931,00
-16455,39	867,00
-16415,74	851,00
-16376,21	895,00
-16336,78	853,00
-16297,46	833,00
-16258,26	808,00
-16219,16	833,00
-16180,17	893,00
-16141,28	899,00
-16102,51	882,00
-16063,84	815,00
-16025,27	879,00
-15986,82	808,00
-15948,46	814,00
-15910,22	854,00
-15872,07	870,00
-15834,04	822,00
-15796,10	826,00
-15758,27	1097,00
-15720,54	786,00
-15682,91	876,00
-15645,39	1104,00
-15607,97	881,00
-15570,64	820,00
-15533,42	943,00
-15496,30	934,00
-15459,28	984,00
-15422,36	847,00
-15385,54	890,00
-15348,82	920,00
-15312,19	1007,00
-15275,66	789,00
-15239,23	927,00
-15202,90	974,00
-15166,67	865,00
-15130,53	1029,00
-15094,48	897,00
-15058,54	825,00
-15022,68	790,00
-14986,93	794,00
-14951,26	934,00
-14915,69	993,00
-14880,22	902,00
-14844,84	868,00
-14809,55	960,00
-14774,35	901,00
-14739,25	891,00
-14704,24	851,00
-14669,32	897,00
-14634,49	824,00
-14599,75	884,00
-14565,10	887,00
-14530,55	916,00
-14496,08	941,00
-14461,70	941,00
-14427,41	860,00
-14393,21	798,00
-14359,10	847,00
-14325,07	942,00
-14291,14	821,00
-14257,29	884,00
-14223,52	916,00
-14189,85	963,00
-14156,26	864,00
-14122,76	860,00
-14089,34	878,00
-14056,01	824,00
-14022,76	885,00
-13989,60	973,00
-13956,52	950,00
-13923,53	911,00
-13890,62	794,00
-13857,79	914,00
-13825,05	846,00
-13792,39	820,00
-13759,81	911,00
-13727,31	887,00
-13694,90	885,00
-13662,57	1006,00
-13630,31	926,00
-13598,14	962,00
-13566,05	870,00
-13534,05	950,00
-13502,12	813,00
-13470,27	829,00
-13438,50	971,00
-13406,80	845,00
-13375,19	874,00
-13343,66	888,00
-13312,20	923,00
-13280,83	802,00
-13249,53	871,00
-13218,30	774,00
-13187,16	853,00
-13156,09	1023,00
-13125,10	893,00
-13094,18	912,00
-13063,34	946,00
-13032,58	777,00
-13001,89	977,00
-12971,28	887,00
-12940,74	911,00
-12910,27	935,00
-12879,88	924,00
-12849,57	939,00
-12819,33	1024,00
-12789,16	989,00
-12759,06	914,00
-12729,04	848,00
-12699,09	2238,00
-12669,21	877,00
-12639,41	902,00
-12609,68	838,00
-12580,02	875,00
-12550,43	1009,00
-12520,91	758,00
-12491,46	859,00
-12462,08	765,00
-12432,77	915,00
-12403,54	843,00
-12374,37	798,00
-12345,27	889,00
-12316,24	766,00
-12287,29	889,00
-12258,40	819,00
-12229,57	920,00
-12200,82	937,00
-12172,14	932,00
-12143,52	716,00
-12114,97	769,00
-12086,49	911,00
-12058,07	985,00
-12029,73	880,00
-12001,44	953,00
-11973,23	914,00
-11945,08	879,00
-11917,00	846,00
-11888,98	826,00
-11861,03	992,00
-11833,15	874,00
-11805,32	889,00
-11777,57	886,00
-11749,88	908,00
-11722,25	844,00
-11694,69	858,00
-11667,19	963,00
-11639,75	971,00
-11612,38	804,00
-11585,07	868,00
-11557,83	892,00
-11530,65	1017,00
-11503,53	806,00
-11476,47	878,00
-11449,48	850,00
-11422,54	1018,00
-11395,67	963,00
-11368,86	977,00
-11342,11	792,00
-11315,43	944,00
-11288,80	822,00
-11262,23	921,00
-11235,73	902,00
-11209,28	1100,00
-11182,90	867,00
-11156,57	853,00
-11130,31	1164,00
-11104,10	934,00
-11077,96	835,00
-11051,87	860,00
-11025,84	860,00
-10999,87	869,00
-10973,96	902,00
-10948,11	854,00
-10922,31	923,00
-10896,58	908,00
-10870,90	962,00
-10845,28	975,00
-10819,71	850,00
-10794,20	1056,00
-10768,75	1008,00
-10743,36	961,00
-10718,02	876,00
-10692,74	843,00
-10667,52	863,00
-10642,35	897,00
-10617,24	1017,00
-10592,18	890,00
-10567,18	881,00
-10542,23	972,00
-10517,34	966,00
-10492,51	1054,00
-10467,72	909,00
-10443,00	915,00
-10418,32	939,00
-10393,70	1015,00
-10369,14	968,00
-10344,63	875,00
-10320,17	1058,00
-10295,77	978,00
-10271,42	937,00
-10247,12	1041,00
-10222,88	1135,00
-10198,68	922,00
-10174,54	1013,00
-10150,46	1245,00
-10126,42	1129,00
-10102,44	1017,00
-10078,51	1063,00
-10054,63	1095,00
-10030,80	1165,00
-10007,03	1238,00
-9983,30	1155,00
-9959,63	1157,00
-9936,01	1333,00
-9912,44	1194,00
-9888,92	1283,00
-9865,44	1159,00
-9842,02	1188,00
-9818,65	1312,00
-9795,33	1170,00
-9772,06	1263,00
-9748,84	1248,00
-9725,67	1249,00
-9702,55	1401,00
-9679,47	1490,00
-9656,45	1722,00
-9633,47	1424,00
-9610,55	1608,00
-9587,67	1728,00
-9564,84	2001,00
-9542,06	1874,00
-9519,32	2056,00
-9496,64	2282,00
-9474,00	2120,00
-9451,41	2260,00
-9428,87	2328,00
-9406,37	2237,00
-9383,92	2038,00
-9361,52	2056,00
-9339,17	2307,00
-9316,86	2469,00
-9294,60	2827,00
-9272,38	2957,00
-9250,21	3360,00
-9228,09	3190,00
-9206,01	3368,00
-9183,98	2929,00
-9162,00	2854,00
-9140,06	2846,00
-9118,16	2830,00
-9096,31	2912,00
-9074,51	3046,00
-9052,75	3226,00
-9031,04	3025,00
-9009,37	2759,00
-8987,74	2536,00
-8966,16	2411,00
-8944,63	2161,00
-8923,14	2173,00
-8901,69	2144,00
-8880,29	2223,00
-8858,93	2548,00
-8837,61	2774,00
-8816,34	2842,00
-8795,11	2941,00
-8773,92	2570,00
-8752,78	2577,00
-8731,68	2164,00
-8710,62	2347,00
-8689,61	2442,00
-8668,63	2542,00
-8647,70	2753,00
-8626,82	2744,00
-8605,97	2807,00
-8585,17	2604,00
-8564,41	2372,00
-8543,69	2250,00
-8523,01	2100,00
-8502,37	2406,00
-8481,78	2244,00
-8461,23	2259,00
-8440,71	2596,00
-8420,24	2608,00
-8399,81	2738,00
-8379,42	2679,00
-8359,08	2592,00
-8338,77	2261,00
-8318,50	2024,00
-8298,27	2126,00
-8278,09	2358,00
-8257,94	2310,00
-8237,83	2535,00
-8217,76	2566,00
-8197,74	2642,00
-8177,75	2670,00
-8157,80	2312,00
-8137,89	2145,00
-8118,02	2073,00
-8098,19	2210,00
-8078,40	2030,00
-8058,65	2210,00
-8038,93	2197,00
-8019,26	2251,00
-7999,62	2180,00
-7980,02	2097,00
-7960,46	1926,00
-7940,94	1910,00
-7921,46	1965,00
-7902,01	1766,00
-7882,60	2005,00
-7863,23	1929,00
-7843,90	1981,00
-7824,61	2074,00
-7805,35	2208,00
-7786,13	2202,00
-7766,95	2220,00
-7747,80	2132,00
-7728,69	2024,00
-7709,62	2060,00
-7690,59	2021,00
-7671,59	2178,00
-7652,63	2071,00
-7633,70	2137,00
-7614,81	2149,00
-7595,96	1970,00
-7577,15	1868,00
-7558,37	1822,00
-7539,62	1917,00
-7520,91	1896,00
-7502,24	1981,00
-7483,60	2014,00
-7465,00	1938,00
-7446,44	1942,00
-7427,91	1622,00
-7409,41	1532,00
-7390,95	1500,00
-7372,53	1440,00
-7354,14	1547,00
-7335,78	1464,00
-7317,46	1616,00
-7299,18	1597,00
-7280,92	1775,00
-7262,71	2074,00
-7244,52	1966,00
-7226,38	1908,00
-7208,26	1863,00
-7190,18	1825,00
-7172,14	1773,00
-7154,12	1812,00
-7136,15	1703,00
-7118,20	2000,00
-7100,29	1998,00
-7082,41	1893,00
-7064,57	1873,00
-7046,76	1788,00
-7028,98	1493,00
-7011,24	1601,00
-6993,53	1289,00
-6975,85	1284,00
-6958,20	1226,00
-6940,59	1266,00
-6923,01	1146,00
-6905,46	1415,00
-6887,94	1508,00
-6870,46	1866,00
-6853,01	1746,00
-6835,59	1762,00
-6818,21	1517,00
-6800,85	1491,00
-6783,53	1161,00
-6766,24	1134,00
-6748,98	1201,00
-6731,76	1169,00
-6714,56	1110,00
-6697,40	1007,00
-6680,26	1071,00
-6663,16	1076,00
-6646,09	1404,00
-6629,05	1480,00
-6612,05	1508,00
-6595,07	1415,00
-6578,13	1488,00
-6561,21	1217,00
-6544,33	1226,00
-6527,47	993,00
-6510,65	1075,00
-6493,86	963,00
-6477,10	985,00
-6460,36	1108,00
-6443,66	1084,00
-6426,99	1073,00
-6410,35	1095,00
-6393,74	1119,00
-6377,16	1097,00
-6360,61	1120,00
-6344,09	1071,00
-6327,59	1111,00
-6311,13	1360,00
-6294,70	1210,00
-6278,29	1299,00
-6261,92	1271,00
-6245,58	1445,00
-6229,26	1471,00
-6212,97	1425,00
-6196,72	1186,00
-6180,49	1105,00
-6164,29	902,00
-6148,12	1091,00
-6131,98	956,00
-6115,86	913,00
-6099,78	840,00
-6083,72	795,00
-6067,69	813,00
-6051,69	953,00
-6035,72	978,00
-6019,78	958,00
-6003,87	1183,00
-5987,98	1230,00
-5972,12	1204,00
-5956,29	1229,00
-5940,49	1009,00
-5924,71	1182,00
-5908,96	919,00
-5893,24	953,00
-5877,55	1025,00
-5861,89	987,00
-5846,25	764,00
-5830,64	938,00
-5815,05	889,00
-5799,50	1077,00
-5783,97	1013,00
-5768,47	1128,00
-5752,99	1206,00
-5737,55	1112,00
-5722,12	1181,00
-5706,73	1202,00
-5691,36	1220,00
-5676,02	1022,00
-5660,71	952,00
-5645,42	1052,00
-5630,16	1018,00
-5614,92	1121,00
-5599,71	1023,00
-5584,53	1039,00
-5569,37	1073,00
-5554,24	2109,00
-5539,14	982,00
-5524,06	1087,00
-5509,01	979,00
-5493,98	1010,00
-5478,98	1091,00
-5464,00	954,00
-5449,05	923,00
-5434,13	1061,00
-5419,23	973,00
-5404,36	980,00
-5389,51	999,00
-5374,69	1121,00
-5359,89	1237,00
-5345,12	1271,00
-5330,37	1425,00
-5315,65	1183,00
-5300,95	1099,00
-5286,28	993,00
-5271,63	968,00
-5257,01	973,00
-5242,41	1027,00
-5227,84	846,00
-5213,29	971,00
-5198,76	924,00
-5184,26	875,00
-5169,79	952,00
-5155,33	981,00
-5140,91	1024,00
-5126,51	1022,00
-5112,13	1081,00
-5097,77	991,00
-5083,44	1073,00
-5069,13	924,00
-5054,85	996,00
-5040,59	1021,00
-5026,36	1059,00
-5012,15	1096,00
-4997,96	1023,00
-4983,80	1016,00
-4969,66	927,00
-4955,54	896,00
-4941,44	958,00
-4927,37	1036,00
-4913,33	1238,00
-4899,30	1252,00
-4885,30	1202,00
-4871,33	1023,00
-4857,37	987,00
-4843,44	929,00
-4829,53	1040,00
-4815,65	1075,00
-4801,79	861,00
-4787,95	1032,00
-4774,13	946,00
-4760,34	882,00
-4746,56	1034,00
-4732,82	856,00
-4719,09	1040,00
-4705,38	1254,00
-4691,70	1200,00
-4678,04	1322,00
-4664,41	1231,00
-4650,79	1270,00
-4637,20	954,00
-4623,63	938,00
-4610,08	1036,00
-4596,56	1026,00
-4583,05	933,00
-4569,57	981,00
-4556,11	1051,00
-4542,67	907,00
-4529,25	791,00
-4515,86	1007,00
-4502,49	1111,00
-4489,13	1174,00
-4475,80	1213,00
-4462,49	943,00
-4449,21	1109,00
-4435,94	930,00
-4422,70	881,00
-4409,47	932,00
-4396,27	1037,00
-4383,09	879,00
-4369,93	953,00
-4356,79	844,00
-4343,67	986,00
-4330,58	1002,00
-4317,50	1041,00
-4304,45	983,00
-4291,41	952,00
-4278,40	927,00
-4265,41	864,00
-4252,44	964,00
-4239,49	995,00
-4226,55	960,00
-4213,65	1002,00
-4200,76	1003,00
-4187,89	916,00
-4175,04	840,00
-4162,21	788,00
-4149,40	956,00
-4136,61	879,00
-4123,85	866,00
-4111,10	887,00
-4098,37	945,00
-4085,66	937,00
-4072,98	1017,00
-4060,31	893,00
-4047,66	1027,00
-4035,04	1089,00
-4022,43	824,00
-4009,84	1009,00
-3997,27	775,00
-3984,72	934,00
-3972,19	981,00
-3959,69	905,00
-3947,20	875,00
-3934,73	878,00
-3922,27	876,00
-3909,84	767,00
-3897,43	1002,00
-3885,04	960,00
-3872,67	850,00
-3860,31	876,00
-3847,98	1092,00
-3835,66	949,00
-3823,36	901,00
-3811,09	887,00
-3798,83	944,00
-3786,59	904,00
-3774,37	1077,00
-3762,17	856,00
-3749,98	836,00
-3737,82	828,00
-3725,67	1158,00
-3713,55	842,00
-3701,44	984,00
-3689,35	939,00
-3677,28	987,00
-3665,22	872,00
-3653,19	846,00
-3641,17	865,00
-3629,18	1031,00
-3617,20	887,00
-3605,24	966,00
-3593,30	925,00
-3581,37	997,00
-3569,47	972,00
-3557,58	937,00
-3545,71	863,00
-3533,86	955,00
-3522,02	842,00
-3510,21	888,00
-3498,41	959,00
-3486,63	888,00
-3474,87	897,00
-3463,12	884,00
-3451,40	892,00
-3439,69	973,00
-3428,00	835,00
-3416,33	962,00
-3404,67	798,00
-3393,03	923,00
-3381,41	997,00
-3369,81	970,00
-3358,22	973,00
-3346,66	984,00
-3335,10	899,00
-3323,57	884,00
-3312,06	991,00
-3300,56	993,00
-3289,08	748,00
-3277,61	845,00
-3266,16	943,00
-3254,73	917,00
-3243,32	814,00
-3231,92	877,00
-3220,55	987,00
-3209,18	1011,00
-3197,84	841,00
-3186,51	899,00
-3175,20	871,00
-3163,90	815,00
-3152,63	1072,00
-3141,36	855,00
-3130,12	1035,00
-3118,89	984,00
-3107,68	838,00
-3096,49	909,00
-3085,31	893,00
-3074,15	843,00
-3063,00	879,00
-3051,87	906,00
-3040,76	864,00
-3029,67	1006,00
-3018,59	1091,00
-3007,52	1058,00
-2996,48	1025,00
-2985,44	975,00
-2974,43	862,00
-2963,43	807,00
-2952,45	964,00
-2941,48	966,00
-2930,53	950,00
-2919,60	834,00
-2908,68	817,00
-2897,78	853,00
-2886,89	985,00
-2876,02	950,00
-2865,17	837,00
-2854,33	907,00
-2843,50	951,00
-2832,70	805,00
-2821,90	893,00
-2811,13	968,00
-2800,37	880,00
-2789,62	861,00
-2778,89	990,00
-2768,18	934,00
-2757,48	978,00
-2746,80	945,00
-2736,13	858,00
-2725,48	1006,00
-2714,84	806,00
-2704,22	891,00
-2693,61	952,00
-2683,02	956,00
-2672,45	897,00
-2661,89	956,00
-2651,34	896,00
-2640,81	971,00
-2630,30	978,00
-2619,80	848,00
-2609,31	967,00
-2598,84	782,00
-2588,39	964,00
-2577,95	879,00
-2567,52	784,00
-2557,11	842,00
-2546,71	876,00
-2536,33	964,00
-2525,97	922,00
-2515,62	930,00
-2505,28	864,00
-2494,96	872,00
-2484,65	920,00
-2474,36	1212,00
-2464,08	809,00
-2453,82	1014,00
-2443,57	883,00
-2433,33	880,00
-2423,11	891,00
-2412,91	974,00
-2402,72	903,00
-2392,54	935,00
-2382,38	848,00
-2372,23	1001,00
-2362,09	2005,00
-2351,97	816,00
-2341,87	862,00
-2331,78	913,00
-2321,70	978,00
-2311,64	829,00
-2301,59	920,00
-2291,55	819,00
-2281,53	928,00
-2271,53	805,00
-2261,53	957,00
-2251,55	971,00
-2241,59	854,00
-2231,64	812,00
-2221,70	861,00
-2211,78	997,00
-2201,87	907,00
-2191,97	976,00
-2182,09	926,00
-2172,22	945,00
-2162,37	798,00
-2152,53	801,00
-2142,70	829,00
-2132,89	831,00
-2123,09	1034,00
-2113,30	959,00
-2103,53	914,00
-2093,77	942,00
-2084,02	916,00
-2074,29	1065,00
-2064,57	992,00
-2054,86	927,00
-2045,17	1080,00
-2035,49	889,00
-2025,82	794,00
-2016,17	946,00
-2006,53	873,00
-1996,91	872,00
-1987,29	862,00
-1977,69	921,00
-1968,11	866,00
-1958,53	838,00
-1948,97	932,00
-1939,42	912,00
-1929,89	832,00
-1920,37	943,00
-1910,86	913,00
-1901,36	893,00
-1891,88	936,00
-1882,41	920,00
-1872,95	941,00
-1863,51	953,00
-1854,08	936,00
-1844,66	904,00
-1835,26	978,00
-1825,86	910,00
-1816,48	840,00
-1807,11	965,00
-1797,76	988,00
-1788,42	901,00
-1779,09	982,00
-1769,77	903,00
-1760,47	1000,00
-1751,17	871,00
-1741,89	865,00
-1732,63	992,00
-1723,37	1074,00
-1714,13	1056,00
-1704,90	945,00
-1695,68	980,00
-1686,48	793,00
-1677,29	854,00
-1668,11	1096,00
-1658,94	876,00
-1649,78	894,00
-1640,64	902,00
-1631,51	870,00
-1622,39	958,00
-1613,28	971,00
-1604,19	999,00
-1595,10	903,00
-1586,03	897,00
-1576,97	921,00
-1567,93	904,00
-1558,89	963,00
-1549,87	975,00
-1540,86	826,00
-1531,86	1038,00
-1522,87	893,00
-1513,90	956,00
-1504,93	939,00
-1495,98	987,00
-1487,04	1007,00
-1478,12	979,00
-1469,20	881,00
-1460,30	960,00
-1451,40	1067,00
-1442,52	929,00
-1433,65	972,00
-1424,80	902,00
-1415,95	807,00
-1407,12	1154,00
-1398,30	922,00
-1389,48	910,00
-1380,69	850,00
-1371,90	870,00
-1363,12	1024,00
-1354,36	1062,00
-1345,60	881,00
-1336,86	905,00
-1328,13	1054,00
-1319,41	946,00
-1310,70	910,00
-1302,01	827,00
-1293,32	852,00
-1284,65	895,00
-1275,99	935,00
-1267,33	1066,00
-1258,69	1004,00
-1250,06	913,00
-1241,45	854,00
-1232,84	1104,00
-1224,25	940,00
-1215,66	1001,00
-1207,09	1003,00
-1198,53	935,00
-1189,97	892,00
-1181,43	855,00
-1172,91	897,00
-1164,39	986,00
-1155,88	742,00
-1147,38	788,00
-1138,90	955,00
-1130,43	853,00
-1121,96	927,00
-1113,51	947,00
-1105,07	940,00
-1096,64	995,00
-1088,22	1018,00
-1079,81	956,00
-1071,41	1003,00
-1063,02	917,00
-1054,65	928,00
-1046,28	927,00
-1037,92	1004,00
-1029,58	985,00
-1021,24	873,00
-1012,92	1276,00
-1004,61	981,00
-996,30	1221,00
-988,01	718,00
-979,73	1015,00
-971,46	1060,00
-963,20	904,00
-954,95	737,00
-946,71	909,00
-938,48	961,00
-930,26	902,00
-922,06	1000,00
-913,86	845,00
-905,67	816,00
-897,49	957,00
-889,33	803,00
-881,17	1010,00
-873,02	971,00
-864,89	844,00
-856,76	874,00
-848,65	957,00
-840,54	1030,00
-832,45	855,00
-824,36	737,00
-816,29	941,00
-808,22	1012,00
-800,17	952,00
-792,12	967,00
-784,09	993,00
-776,06	860,00
-768,05	919,00
-760,04	914,00
-752,05	896,00
-744,07	972,00
-736,09	993,00
-728,13	776,00
-720,17	907,00
-712,23	937,00
-704,29	903,00
-696,37	920,00
-688,45	1052,00
-680,55	883,00
-672,65	931,00
-664,77	953,00
-656,89	897,00
-649,03	824,00
-641,17	1023,00
-633,32	889,00
-625,49	1010,00
-617,66	881,00
-609,84	988,00
-602,03	828,00
-594,23	962,00
-586,45	937,00
-578,67	846,00
-570,90	867,00
-563,14	892,00
-555,39	987,00
-547,65	1043,00
-539,91	988,00
-532,19	967,00
-524,48	953,00
-516,78	941,00
-509,08	1023,00
-501,40	897,00
-493,72	912,00
-486,06	858,00
-478,40	1007,00
-470,76	905,00
-463,12	841,00
-455,49	918,00
-447,87	905,00
-440,26	848,00
-432,66	829,00
-425,07	890,00
-417,49	946,00
-409,92	775,00
-402,35	833,00
-394,80	911,00
-387,25	941,00
-379,72	1028,00
-372,19	1021,00
-364,67	1072,00
-357,17	951,00
-349,67	885,00
-342,18	891,00
-334,69	964,00
-327,22	970,00
-319,76	1050,00
-312,30	897,00
-304,86	972,00
-297,42	941,00
-290,00	946,00
-282,58	900,00
-275,17	1027,00
-267,77	1116,00
-260,37	929,00
-252,99	1104,00
-245,62	991,00
-238,25	916,00
-230,90	991,00
-223,55	1087,00
-216,21	1003,00
-208,88	1197,00
-201,56	1051,00
-194,25	1023,00
-186,94	1147,00
-179,65	1076,00
-172,36	1130,00
-165,08	1172,00
-157,81	1248,00
-150,55	1283,00
-143,30	1239,00
-136,06	1317,00
-128,82	1368,00
-121,60	1294,00
-114,38	1417,00
-107,17	1624,00
-99,97	1705,00
-92,78	1704,00
-85,60	1856,00
-78,42	2005,00
-71,25	2106,00
-64,10	2339,00
-56,95	2528,00
-49,81	2804,00
-42,67	3422,00
-35,55	3906,00
-28,43	5073,00
-21,33	7921,00
-14,23	23951,00
-7,14	57498,00
-0,05	57284,00
7,02	57012,00
14,09	57319,00
21,14	20302,00
28,19	8954,00
35,23	6088,00
42,27	5131,00
49,29	4200,00
56,31	3644,00
63,32	3349,00
70,32	2772,00
77,31	2615,00
84,29	2218,00
91,27	2241,00
98,23	2183,00
105,19	2181,00
112,14	2574,00
119,09	4069,00
126,02	6503,00
132,95	7795,00
139,87	8242,00
146,78	8508,00
153,68	8418,00
160,58	8313,00
167,46	8118,00
174,34	8384,00
181,21	8285,00
188,08	8241,00
194,93	8340,00
201,78	8309,00
208,62	8329,00
215,45	8532,00
222,27	8462,00
229,09	8397,00
235,90	8223,00
242,70	8222,00
249,49	8306,00
256,27	8211,00
263,05	8026,00
269,82	7927,00
276,58	8037,00
283,33	7933,00
290,08	7792,00
296,82	7706,00
303,55	7530,00
310,27	7492,00
316,98	7541,00
323,69	7514,00
330,39	7529,00
337,08	7555,00
343,76	7602,00
350,44	7504,00
357,11	7497,00
363,77	7475,00
370,42	7311,00
377,07	7463,00
383,71	7397,00
390,34	7439,00
396,96	7439,00
403,58	7452,00
410,19	7616,00
416,79	7599,00
423,38	7738,00
429,97	7610,00
436,55	7471,00
443,12	7527,00
449,68	7549,00
456,24	7420,00
462,79	7425,00
469,33	7146,00
475,86	7035,00
482,39	6835,00
488,91	6993,00
495,42	6915,00
501,93	6673,00
508,42	6684,00
514,91	6549,00
521,40	6592,00
527,87	6517,00
534,34	6506,00
540,80	6524,00
547,25	6629,00
553,70	6538,00
560,14	6525,00
566,57	6653,00
573,00	6588,00
579,41	6732,00
585,83	6630,00
592,23	6605,00
598,62	6659,00
605,01	6580,00
611,40	6806,00
617,77	6742,00
624,14	6427,00
630,50	6356,00
636,85	6318,00
643,20	6262,00
649,54	5932,00
655,87	6118,00
662,20	6119,00
668,52	6012,00
674,83	5910,00
681,13	5841,00
687,43	5982,00
693,72	5900,00
700,00	5668,00
706,28	5824,00
712,55	5696,00
718,81	5871,00
725,07	5701,00
731,32	5720,00
737,56	5756,00
743,79	5768,00
750,02	5769,00
756,24	5449,00
762,46	5603,00
768,67	5826,00
774,87	5670,00
781,06	5548,00
787,25	5641,00
793,43	5576,00
799,60	5498,00
805,77	5627,00
811,93	5423,00
818,08	5516,00
824,23	5487,00
830,37	5684,00
836,50	5394,00
842,63	5435,00
848,75	5510,00
854,87	5385,00
860,97	5429,00
867,07	5437,00
873,17	5367,00
879,25	5421,00
885,33	5303,00
891,41	5351,00
897,47	5348,00
903,53	5304,00
909,59	5276,00
915,63	5210,00
921,67	5230,00
927,71	5272,00
933,74	5143,00
939,76	5019,00
945,77	5024,00
951,78	5181,00
957,78	4940,00
963,78	5116,00
969,77	5030,00
975,75	5065,00
981,72	4998,00
987,69	6363,00
993,66	5141,00
999,61	5069,00
1005,56	5009,00
1011,51	5053,00
1017,44	5029,00
1023,37	5089,00
1029,30	5038,00
1035,22	5227,00
1041,13	5016,00
1047,03	5347,00
1052,93	5741,00
1058,83	7042,00
1064,71	7467,00
1070,59	6661,00
1076,47	5912,00
1082,33	5728,00
1088,20	5621,00
1094,05	5267,00
1099,90	5049,00
1105,74	5143,00
1111,58	5144,00
1117,41	5358,00
1123,23	6323,00
1129,05	7151,00
1134,86	6805,00
1140,67	5747,00
1146,47	5063,00
1152,26	5147,00
1158,05	4915,00
1163,83	5139,00
1169,60	5220,00
1175,37	5104,00
1181,13	4885,00
1186,89	4723,00
1192,64	4786,00
1198,38	4884,00
1204,12	4621,00
1209,85	4734,00
1215,58	4712,00
1221,30	4751,00
1227,02	4801,00
1232,72	4694,00
1238,43	4751,00
1244,12	4775,00
1249,81	4721,00
1255,50	4811,00
1261,17	4780,00
1266,85	4843,00
1272,51	4880,00
1278,17	5073,00
1283,83	5316,00
1289,47	6579,00
1295,12	8018,00
1300,75	7479,00
1306,38	6285,00
1312,01	5553,00
1317,63	5050,00
1323,24	4926,00
1328,85	4844,00
1334,45	4706,00
1340,04	4692,00
1345,63	4673,00
1351,22	4819,00
1356,80	4758,00
1362,37	4789,00
1367,93	4888,00
1373,49	4981,00
1379,05	4706,00
1384,60	4745,00
1390,14	4836,00
1395,68	4805,00
1401,21	4729,00
1406,74	5049,00
1412,26	5497,00
1417,77	6125,00
1423,28	5948,00
1428,78	6288,00
1434,28	7210,00
1439,77	7934,00
1445,26	7889,00
1450,74	7396,00
1456,22	7020,00
1461,68	6933,00
1467,15	6676,00
1472,61	5898,00
1478,06	5626,00
1483,51	5073,00
1488,95	4718,00
1494,38	4741,00
1499,81	4449,00
1505,24	4494,00
1510,65	4450,00
1516,07	4428,00
1521,48	4329,00
1526,88	4152,00
1532,27	4125,00
1537,67	4233,00
1543,05	4268,00
1548,43	4075,00
1553,81	4167,00
1559,18	3950,00
1564,54	4088,00
1569,90	4064,00
1575,25	3985,00
1580,60	3861,00
1585,94	4070,00
1591,28	3967,00
1596,61	3984,00
1601,93	3899,00
1607,25	3946,00
1612,57	4042,00
1617,88	3955,00
1623,18	4003,00
1628,48	3884,00
1633,77	3880,00
1639,06	3777,00
1644,34	3748,00
1649,62	3674,00
1654,89	3767,00
1660,16	3692,00
1665,42	3806,00
1670,67	3625,00
1675,92	3591,00
1681,17	3594,00
1686,41	3584,00
1691,64	3681,00
1696,87	3668,00
1702,10	3596,00
1707,32	3626,00
1712,53	3566,00
1717,74	3489,00
1722,94	3660,00
1728,14	3460,00
1733,33	3478,00
1738,52	3313,00
1743,70	3499,00
1748,88	3471,00
1754,05	3486,00
1759,22	3320,00
1764,38	2528,00
1769,53	3417,00
1774,69	3366,00
1779,83	3230,00
1784,97	3259,00
1790,11	3301,00
1795,24	3250,00
1800,36	3250,00
1805,48	3124,00
1810,60	3381,00
1815,71	3225,00
1820,82	3157,00
1825,92	3197,00
1831,01	3082,00
1836,10	3181,00
1841,19	3149,00
1846,26	3004,00
1851,34	3218,00
1856,41	3134,00
1861,47	3081,00
1866,53	3185,00
1871,59	3085,00
1876,64	3039,00
1881,68	3064,00
1886,72	2954,00
1891,76	2983,00
1896,79	3026,00
1901,81	2841,00
1906,83	2942,00
1911,85	2862,00
1916,86	2892,00
1921,86	2855,00
1926,86	2749,00
1931,86	2877,00
1936,85	2761,00
1941,83	2756,00
1946,81	2714,00
1951,79	2666,00
1956,76	2797,00
1961,72	2601,00
1966,68	2716,00
1971,64	2730,00
1976,59	2696,00
1981,54	2657,00
1986,48	2750,00
1991,42	2567,00
1996,35	2803,00
2001,27	2584,00
2006,20	2629,00
2011,11	2718,00
2016,03	2623,00
2020,93	2565,00
2025,84	2628,00
2030,73	2555,00
2035,63	2523,00
2040,52	2642,00
2045,40	2457,00
2050,28	2567,00
2055,15	2551,00
2060,02	2393,00
2064,89	2606,00
2069,75	2540,00
2074,60	2438,00
2079,46	2440,00
2084,30	2453,00
2089,14	2327,00
2093,98	2490,00
2098,81	2420,00
2103,64	2451,00
2108,46	2440,00
2113,28	2521,00
2118,09	2416,00
2122,90	2454,00
2127,70	2372,00
2132,50	2412,00
2137,30	2302,00
2142,09	2334,00
2146,87	2301,00
2151,66	2248,00
2156,43	2382,00
2161,20	2344,00
2165,97	2374,00
2170,73	2316,00
2175,49	2460,00
2180,24	2399,00
2184,99	2431,00
2189,74	2499,00
2194,48	2344,00
2199,21	2381,00
2203,94	2249,00
2208,67	2289,00
2213,39	2128,00
2218,11	2223,00
2222,82	2248,00
2227,53	2196,00
2232,23	2308,00
2236,93	2274,00
2241,63	2172,00
2246,32	2265,00
2251,00	2189,00
2255,68	2190,00
2260,36	2083,00
2265,03	2204,00
2269,70	2294,00
2274,36	2072,00
2279,02	2268,00
2283,68	2077,00
2288,33	2172,00
2292,97	2146,00
2297,61	2119,00
2302,25	2144,00
2306,88	2089,00
2311,51	1989,00
2316,14	2074,00
2320,75	1946,00
2325,37	1875,00
2329,98	1986,00
2334,59	2036,00
2339,19	1953,00
2343,79	1936,00
2348,38	1964,00
2352,97	1930,00
2357,55	1960,00
2362,13	1951,00
2366,71	1892,00
2371,28	2032,00
2375,85	1925,00
2380,41	1950,00
2384,97	1944,00
2389,52	1956,00
2394,07	2010,00
2398,62	1907,00
2403,16	1967,00
2407,70	1771,00
2412,23	1796,00
2416,76	1993,00
2421,29	1940,00
2425,81	2017,00
2430,32	1950,00
2434,84	1775,00
2439,34	1777,00
2443,85	1911,00
2448,35	1725,00
2452,84	1779,00
2457,33	1842,00
2461,82	1639,00
2466,30	1614,00
2470,78	1800,00
2475,25	1759,00
2479,72	1764,00
2484,19	1795,00
2488,65	1821,00
2493,11	1667,00
2497,56	1912,00
2502,01	1610,00
2506,46	1881,00
2510,90	1612,00
2515,34	1732,00
2519,77	1676,00
2524,20	1667,00
2528,62	1672,00
2533,04	1772,00
2537,46	1729,00
2541,87	1734,00
2546,28	1713,00
2550,68	1766,00
2555,08	1714,00
2559,48	1708,00
2563,87	1627,00
2568,26	1571,00
2572,64	1726,00
2577,02	1776,00
2581,40	1599,00
2585,77	1742,00
2590,14	1579,00
2594,50	1579,00
2598,86	1648,00
2603,22	1628,00
2607,57	1639,00
2611,92	1725,00
2616,26	1798,00
2620,60	1784,00
2624,94	1564,00
2629,27	1688,00
2633,60	1637,00
2637,92	1757,00
2642,24	1766,00
2646,56	1671,00
2650,87	1543,00
2655,18	1744,00
2659,48	1542,00
2663,78	1536,00
2668,08	1647,00
2672,37	1669,00
2676,66	1647,00
2680,95	1619,00
2685,23	1716,00
2689,50	1647,00
2693,78	1661,00
2698,05	1660,00
2702,31	1682,00
2706,57	1822,00
2710,83	1859,00
2715,08	1883,00
2719,33	2012,00
2723,58	1941,00
2727,82	1960,00
2732,06	1829,00
2736,29	1791,00
2740,53	1822,00
2744,75	1711,00
2748,97	1763,00
2753,19	1710,00
2757,41	1779,00
2761,62	1732,00
2765,83	1791,00
2770,03	1710,00
2774,23	1815,00
2778,43	1676,00
2782,62	1778,00
2786,81	1758,00
2791,00	1832,00
2795,18	1758,00
2799,35	1908,00
2803,53	1847,00
2807,70	1953,00
2811,86	1945,00
2816,03	2123,00
2820,19	2016,00
2824,34	2181,00
2828,49	2334,00
2832,64	2487,00
2836,78	2964,00
2840,92	3179,00
2845,06	3905,00
2849,19	4445,00
2853,32	4489,00
2857,45	4454,00
2861,57	4346,00
2865,69	4204,00
2869,80	4079,00
2873,91	4217,00
2878,02	4726,00
2882,12	5084,00
2886,22	5066,00
2890,32	4855,00
2894,41	4413,00
2898,50	4029,00
2902,58	3983,00
2906,67	3583,00
2910,74	3443,00
2914,82	3090,00
2918,89	3202,00
2922,96	2832,00
2927,02	2640,00
2931,08	2669,00
2935,13	2415,00
2939,19	2452,00
2943,24	2208,00
2947,28	2203,00
2951,32	1932,00
2955,36	1809,00
2959,40	1966,00
2963,43	1775,00
2967,46	1616,00
2971,48	1716,00
2975,50	1538,00
2979,52	1715,00
2983,53	1623,00
2987,54	1457,00
2991,55	1485,00
2995,55	1429,00
2999,55	1361,00
3003,54	1271,00
3007,54	1442,00
3011,53	1399,00
3015,51	1380,00
3019,49	1450,00
3023,47	1241,00
3027,45	1411,00
3031,42	1263,00
3035,39	1216,00
3039,35	1256,00
3043,31	1316,00
3047,27	1306,00
3051,22	1347,00
3055,17	1136,00
3059,12	1197,00
3063,06	1204,00
3067,00	1174,00
3070,94	1149,00
3074,87	1281,00
3078,80	1161,00
3082,73	1151,00
3086,65	1208,00
3090,57	1145,00
3094,49	1160,00
3098,40	1198,00
3102,31	1167,00
3106,22	1152,00
3110,12	1172,00
3114,02	1120,00
3117,92	1158,00
3121,81	1156,00
3125,70	1188,00
3129,58	1102,00
3133,47	945,00
3137,34	1199,00
3141,22	1116,00
3145,09	1100,00
3148,96	1150,00
3152,83	1120,00
3156,69	1189,00
3160,55	1019,00
3164,40	1093,00
3168,26	1118,00
3172,10	1221,00
3175,95	1156,00
3179,79	1078,00
3183,63	1061,00
3187,47	975,00
3191,30	1092,00
3195,13	1141,00
3198,95	953,00
3202,78	1106,00
3206,60	1003,00
3210,41	969,00
3214,23	1057,00
3218,03	1054,00
3221,84	1080,00
3225,64	1028,00
3229,44	960,00
3233,24	1058,00
3237,03	1061,00
3240,82	1040,00
3244,61	957,00
3248,39	922,00
3252,17	1032,00
3255,95	1172,00
3259,72	1058,00
3263,49	1239,00
3267,26	1000,00
3271,03	1093,00
3274,79	1005,00
3278,54	922,00
3282,30	964,00
3286,05	996,00
3289,80	1053,00
3293,54	1034,00
3297,29	1082,00
3301,02	1012,00
3304,76	1017,00
3308,49	1070,00
3312,22	933,00
3315,95	1011,00
3319,67	935,00
3323,39	1134,00
3327,10	1089,00
3330,82	980,00
3334,53	1043,00
3338,24	1017,00
3341,94	954,00
3345,64	1084,00
3349,34	936,00
3353,03	1062,00
3356,72	997,00
3360,41	1116,00
3364,10	863,00
3367,78	946,00
3371,46	879,00
3375,13	973,00
3378,81	1049,00
3382,48	927,00
3386,14	1052,00
3389,81	1049,00
3393,47	951,00
3397,12	1163,00
3400,78	1004,00
3404,43	941,00
3408,08	1006,00
3411,72	893,00
3415,36	905,00
3419,00	950,00
3422,64	1000,00
3426,27	992,00
3429,90	998,00
3433,53	910,00
3437,15	955,00
3440,77	960,00
3444,39	959,00
3448,00	1017,00
3451,62	940,00
3455,22	968,00
3458,83	890,00
3462,43	935,00
3466,03	983,00
3469,63	829,00
3473,22	850,00
3476,81	861,00
3480,40	1057,00
3483,99	872,00
3487,57	950,00
3491,15	915,00
3494,72	1019,00
3498,29	976,00
3501,86	837,00
3505,43	955,00
3508,99	875,00
3512,56	788,00
3516,11	982,00
3519,67	873,00
3523,22	984,00
3526,77	841,00
3530,32	1175,00
3533,86	910,00
3537,40	966,00
3540,94	896,00
3544,47	903,00
3548,00	845,00
3551,53	1012,00
3555,06	909,00
3558,58	1040,00
3562,10	910,00
3565,62	830,00
3569,13	918,00
3572,64	978,00
3576,15	885,00
3579,66	934,00
3583,16	860,00
3586,66	937,00
3590,16	879,00
3593,65	833,00
3597,14	873,00
3600,63	840,00
3604,11	933,00
3607,60	877,00
3611,08	936,00
3614,55	854,00
3618,03	830,00
3621,50	808,00
3624,97	792,00
3628,43	901,00
3631,90	805,00
3635,36	795,00
3638,81	787,00
3642,27	834,00
3645,72	872,00
3649,17	865,00
3652,61	763,00
3656,06	825,00
3659,50	828,00
3662,93	820,00
3666,37	930,00
3669,80	1053,00
3673,23	892,00
3676,65	895,00
3680,08	871,00
3683,50	831,00
3686,92	761,00
3690,33	800,00
3693,74	804,00
3697,15	805,00
3700,56	886,00
3703,96	863,00
3707,36	747,00
3710,76	799,00
3714,16	717,00
3717,55	811,00
3720,94	782,00
3724,33	746,00
3727,71	919,00
3731,10	772,00
3734,48	823,00
3737,85	716,00
3741,23	790,00
3744,60	725,00
3747,97	682,00
3751,33	805,00
3754,69	753,00
3758,05	794,00
3761,41	696,00
3764,77	732,00
3768,12	677,00
3771,47	640,00
3774,82	810,00
3778,16	-10,00
3781,50	12,00
3784,84	2,00
3788,18	12,00
>>>>>End Processed Spectral Data<<<<<
