SpectraSuite Data File
++++++++++++++++++++++++++++++++++++
Date: Mon Jan 05 16:33:01 ICT 2026
User: Administrator
Dark Spectrum Present: Yes
Reference Spectrum Present: No
Number of Sampled Component Spectra: 1
Spectrometers: MAYP113682
Integration Time (usec): 3000000 (MAYP113682)
Spectra Averaged: 1 (MAYP113682)
Boxcar Smoothing: 0 (MAYP113682)
Correct for Electrical Dark: No (MAYP113682)
Strobe/Lamp Enabled: No (MAYP113682)
Correct for Detector Non-linearity: No (MAYP113682)
Correct for Stray Light: No (MAYP113682)
Number of Pixels in Processed Spectrum: 2068
>>>>>Begin Processed Spectral Data<<<<<
-37534,58	29,00
-37414,56	6,00
-37295,11	6,00
-37176,24	6,00
-37057,95	597,00
-36940,22	643,00
-36823,05	781,00
-36706,45	734,00
-36590,40	744,00
-36474,90	740,00
-36359,95	834,00
-36245,55	787,00
-36131,68	788,00
-36018,35	751,00
-35905,55	724,00
-35793,29	800,00
-35681,54	703,00
-35570,32	770,00
-35459,62	766,00
-35349,43	864,00
-35239,75	799,00
-35130,58	782,00
-35021,91	784,00
-34913,74	772,00
-34806,07	781,00
-34698,89	795,00
-34592,20	756,00
-34486,00	841,00
-34380,28	820,00
-34275,04	747,00
-34170,27	694,00
-34065,98	879,00
-33962,16	865,00
-33858,81	789,00
-33755,92	826,00
-33653,49	842,00
-33551,52	832,00
-33450,01	902,00
-33348,94	806,00
-33248,33	897,00
-33148,16	751,00
-33048,43	908,00
-32949,14	1065,00
-32850,29	926,00
-32751,87	812,00
-32653,89	955,00
-32556,33	926,00
-32459,20	825,00
-32362,49	887,00
-32266,19	885,00
-32170,32	793,00
-32074,86	870,00
-31979,82	921,00
-31885,18	935,00
-31790,95	1004,00
-31697,12	924,00
-31603,69	839,00
-31510,67	986,00
-31418,04	887,00
-31325,80	853,00
-31233,95	825,00
-31142,49	909,00
-31051,42	820,00
-30960,73	997,00
-30870,43	979,00
-30780,50	927,00
-30690,95	786,00
-30601,77	1008,00
-30512,97	841,00
-30424,53	860,00
-30336,46	852,00
-30248,76	907,00
-30161,42	945,00
-30074,44	792,00
-29987,81	858,00
-29901,55	968,00
-29815,63	878,00
-29730,07	883,00
-29644,86	898,00
-29560,00	846,00
-29475,48	916,00
-29391,30	844,00
-29307,47	822,00
-29223,97	856,00
-29140,81	906,00
-29057,99	886,00
-28975,50	826,00
-28893,34	983,00
-28811,51	754,00
-28730,00	908,00
-28648,82	869,00
-28567,97	936,00
-28487,43	828,00
-28407,21	782,00
-28327,32	796,00
-28247,73	1040,00
-28168,46	880,00
-28089,50	909,00
-28010,85	759,00
-27932,51	786,00
-27854,48	865,00
-27776,75	794,00
-27699,32	872,00
-27622,19	880,00
-27545,37	815,00
-27468,84	865,00
-27392,60	955,00
-27316,66	838,00
-27241,01	905,00
-27165,66	794,00
-27090,59	840,00
-27015,81	935,00
-26941,31	985,00
-26867,10	837,00
-26793,17	972,00
-26719,52	973,00
-26646,15	791,00
-26573,06	861,00
-26500,24	868,00
-26427,70	884,00
-26355,43	747,00
-26283,43	868,00
-26211,71	862,00
-26140,25	863,00
-26069,06	997,00
-25998,13	777,00
-25927,46	798,00
-25857,06	890,00
-25786,92	840,00
-25717,04	792,00
-25647,42	989,00
-25578,05	792,00
-25508,94	781,00
-25440,09	844,00
-25371,48	822,00
-25303,13	978,00
-25235,02	856,00
-25167,17	777,00
-25099,56	918,00
-25032,19	825,00
-24965,07	705,00
-24898,20	749,00
-24831,56	826,00
-24765,17	847,00
-24699,01	788,00
-24633,10	855,00
-24567,41	906,00
-24501,97	833,00
-24436,75	894,00
-24371,77	776,00
-24307,03	849,00
-24242,51	745,00
-24178,22	816,00
-24114,16	820,00
-24050,32	950,00
-23986,71	883,00
-23923,32	889,00
-23860,16	834,00
-23797,22	870,00
-23734,50	818,00
-23672,00	870,00
-23609,71	849,00
-23547,65	839,00
-23485,80	913,00
-23424,16	701,00
-23362,74	948,00
-23301,53	894,00
-23240,54	752,00
-23179,75	824,00
-23119,17	765,00
-23058,80	870,00
-22998,64	916,00
-22938,68	824,00
-22878,93	820,00
-22819,39	800,00
-22760,04	821,00
-22700,90	797,00
-22641,96	808,00
-22583,22	891,00
-22524,68	862,00
-22466,33	827,00
-22408,19	950,00
-22350,23	839,00
-22292,48	844,00
-22234,92	976,00
-22177,55	935,00
-22120,37	1014,00
-22063,38	808,00
-22006,58	854,00
-21949,98	857,00
-21893,56	699,00
-21837,33	830,00
-21781,28	882,00
-21725,42	782,00
-21669,74	918,00
-21614,25	804,00
-21558,94	852,00
-21503,81	910,00
-21448,86	903,00
-21394,10	841,00
-21339,51	832,00
-21285,10	773,00
-21230,86	772,00
-21176,81	832,00
-21122,93	762,00
-21069,22	782,00
-21015,69	842,00
-20962,33	903,00
-20909,14	835,00
-20856,13	916,00
-20803,28	886,00
-20750,61	781,00
-20698,10	788,00
-20645,76	777,00
-20593,59	968,00
-20541,59	820,00
-20489,75	893,00
-20438,07	696,00
-20386,56	881,00
-20335,22	713,00
-20284,03	822,00
-20233,01	828,00
-20182,15	811,00
-20131,45	869,00
-20080,91	708,00
-20030,52	947,00
-19980,30	826,00
-19930,23	765,00
-19880,32	886,00
-19830,56	787,00
-19780,96	831,00
-19731,52	784,00
-19682,23	845,00
-19633,09	754,00
-19584,10	773,00
-19535,26	880,00
-19486,58	924,00
-19438,04	906,00
-19389,66	908,00
-19341,42	808,00
-19293,33	856,00
-19245,39	813,00
-19197,60	852,00
-19149,95	912,00
-19102,45	872,00
-19055,09	719,00
-19007,87	820,00
-18960,80	840,00
-18913,87	914,00
-18867,09	836,00
-18820,44	1000,00
-18773,94	863,00
-18727,57	919,00
-18681,35	746,00
-18635,26	886,00
-18589,31	709,00
-18543,50	851,00
-18497,83	833,00
-18452,29	783,00
-18406,89	702,00
-18361,63	937,00
-18316,50	926,00
-18271,50	849,00
-18226,63	940,00
-18181,90	927,00
-18137,30	837,00
-18092,84	823,00
-18048,50	897,00
-18004,29	895,00
-17960,22	767,00
-17916,27	765,00
-17872,45	876,00
-17828,76	965,00
-17785,20	830,00
-17741,77	839,00
-17698,46	910,00
-17655,28	804,00
-17612,22	864,00
-17569,29	782,00
-17526,48	829,00
-17483,79	897,00
-17441,23	805,00
-17398,79	774,00
-17356,48	787,00
-17314,28	995,00
-17272,21	803,00
-17230,26	871,00
-17188,42	859,00
-17146,71	828,00
-17105,12	809,00
-17063,64	833,00
-17022,28	805,00
-16981,04	778,00
-16939,92	832,00
-16898,91	977,00
-16858,02	738,00
-16817,25	916,00
-16776,59	818,00
-16736,04	847,00
-16695,61	830,00
-16655,29	807,00
-16615,09	843,00
-16574,99	838,00
-16535,01	870,00
-16495,15	872,00
-16455,39	875,00
-16415,74	780,00
-16376,21	818,00
-16336,78	769,00
-16297,46	808,00
-16258,26	788,00
-16219,16	748,00
-16180,17	772,00
-16141,28	897,00
-16102,51	834,00
-16063,84	753,00
-16025,27	890,00
-15986,82	789,00
-15948,46	828,00
-15910,22	819,00
-15872,07	815,00
-15834,04	843,00
-15796,10	785,00
-15758,27	963,00
-15720,54	837,00
-15682,91	900,00
-15645,39	933,00
-15607,97	823,00
-15570,64	784,00
-15533,42	929,00
-15496,30	777,00
-15459,28	867,00
-15422,36	848,00
-15385,54	741,00
-15348,82	898,00
-15312,19	967,00
-15275,66	693,00
-15239,23	893,00
-15202,90	730,00
-15166,67	823,00
-15130,53	910,00
-15094,48	881,00
-15058,54	823,00
-15022,68	901,00
-14986,93	786,00
-14951,26	838,00
-14915,69	842,00
-14880,22	803,00
-14844,84	859,00
-14809,55	888,00
-14774,35	894,00
-14739,25	787,00
-14704,24	852,00
-14669,32	868,00
-14634,49	796,00
-14599,75	880,00
-14565,10	840,00
-14530,55	897,00
-14496,08	837,00
-14461,70	857,00
-14427,41	873,00
-14393,21	646,00
-14359,10	863,00
-14325,07	818,00
-14291,14	778,00
-14257,29	825,00
-14223,52	931,00
-14189,85	912,00
-14156,26	770,00
-14122,76	780,00
-14089,34	713,00
-14056,01	850,00
-14022,76	859,00
-13989,60	821,00
-13956,52	855,00
-13923,53	880,00
-13890,62	702,00
-13857,79	820,00
-13825,05	757,00
-13792,39	800,00
-13759,81	868,00
-13727,31	798,00
-13694,90	800,00
-13662,57	938,00
-13630,31	865,00
-13598,14	827,00
-13566,05	788,00
-13534,05	812,00
-13502,12	846,00
-13470,27	859,00
-13438,50	971,00
-13406,80	765,00
-13375,19	789,00
-13343,66	821,00
-13312,20	839,00
-13280,83	798,00
-13249,53	919,00
-13218,30	684,00
-13187,16	831,00
-13156,09	970,00
-13125,10	873,00
-13094,18	880,00
-13063,34	878,00
-13032,58	736,00
-13001,89	842,00
-12971,28	885,00
-12940,74	829,00
-12910,27	903,00
-12879,88	846,00
-12849,57	934,00
-12819,33	881,00
-12789,16	819,00
-12759,06	839,00
-12729,04	832,00
-12699,09	2191,00
-12669,21	786,00
-12639,41	824,00
-12609,68	756,00
-12580,02	766,00
-12550,43	917,00
-12520,91	705,00
-12491,46	741,00
-12462,08	802,00
-12432,77	836,00
-12403,54	838,00
-12374,37	842,00
-12345,27	911,00
-12316,24	781,00
-12287,29	912,00
-12258,40	756,00
-12229,57	913,00
-12200,82	775,00
-12172,14	869,00
-12143,52	664,00
-12114,97	744,00
-12086,49	810,00
-12058,07	1020,00
-12029,73	848,00
-12001,44	851,00
-11973,23	814,00
-11945,08	792,00
-11917,00	872,00
-11888,98	772,00
-11861,03	911,00
-11833,15	782,00
-11805,32	904,00
-11777,57	872,00
-11749,88	844,00
-11722,25	806,00
-11694,69	763,00
-11667,19	871,00
-11639,75	960,00
-11612,38	820,00
-11585,07	762,00
-11557,83	874,00
-11530,65	966,00
-11503,53	814,00
-11476,47	828,00
-11449,48	736,00
-11422,54	936,00
-11395,67	823,00
-11368,86	915,00
-11342,11	773,00
-11315,43	807,00
-11288,80	867,00
-11262,23	907,00
-11235,73	857,00
-11209,28	994,00
-11182,90	808,00
-11156,57	709,00
-11130,31	994,00
-11104,10	824,00
-11077,96	794,00
-11051,87	838,00
-11025,84	788,00
-10999,87	880,00
-10973,96	844,00
-10948,11	820,00
-10922,31	905,00
-10896,58	862,00
-10870,90	985,00
-10845,28	847,00
-10819,71	715,00
-10794,20	924,00
-10768,75	865,00
-10743,36	798,00
-10718,02	752,00
-10692,74	771,00
-10667,52	769,00
-10642,35	840,00
-10617,24	887,00
-10592,18	922,00
-10567,18	797,00
-10542,23	910,00
-10517,34	885,00
-10492,51	964,00
-10467,72	836,00
-10443,00	865,00
-10418,32	1022,00
-10393,70	974,00
-10369,14	844,00
-10344,63	811,00
-10320,17	931,00
-10295,77	931,00
-10271,42	951,00
-10247,12	1010,00
-10222,88	982,00
-10198,68	929,00
-10174,54	1013,00
-10150,46	1033,00
-10126,42	1089,00
-10102,44	1032,00
-10078,51	972,00
-10054,63	1136,00
-10030,80	1163,00
-10007,03	1196,00
-9983,30	1159,00
-9959,63	1155,00
-9936,01	1233,00
-9912,44	1189,00
-9888,92	1172,00
-9865,44	1088,00
-9842,02	1170,00
-9818,65	1296,00
-9795,33	1087,00
-9772,06	1247,00
-9748,84	1219,00
-9725,67	1242,00
-9702,55	1380,00
-9679,47	1456,00
-9656,45	1640,00
-9633,47	1492,00
-9610,55	1559,00
-9587,67	1693,00
-9564,84	1893,00
-9542,06	1790,00
-9519,32	2034,00
-9496,64	2133,00
-9474,00	2090,00
-9451,41	2147,00
-9428,87	2205,00
-9406,37	2242,00
-9383,92	1986,00
-9361,52	1981,00
-9339,17	2253,00
-9316,86	2349,00
-9294,60	2645,00
-9272,38	2921,00
-9250,21	3218,00
-9228,09	3239,00
-9206,01	3254,00
-9183,98	2921,00
-9162,00	2640,00
-9140,06	2632,00
-9118,16	2701,00
-9096,31	2742,00
-9074,51	2842,00
-9052,75	3058,00
-9031,04	2901,00
-9009,37	2595,00
-8987,74	2475,00
-8966,16	2366,00
-8944,63	2065,00
-8923,14	2158,00
-8901,69	2053,00
-8880,29	2149,00
-8858,93	2438,00
-8837,61	2622,00
-8816,34	2661,00
-8795,11	2749,00
-8773,92	2443,00
-8752,78	2299,00
-8731,68	2262,00
-8710,62	2321,00
-8689,61	2209,00
-8668,63	2410,00
-8647,70	2648,00
-8626,82	2642,00
-8605,97	2597,00
-8585,17	2408,00
-8564,41	2248,00
-8543,69	2189,00
-8523,01	1970,00
-8502,37	2259,00
-8481,78	2198,00
-8461,23	2189,00
-8440,71	2422,00
-8420,24	2435,00
-8399,81	2658,00
-8379,42	2432,00
-8359,08	2553,00
-8338,77	2241,00
-8318,50	2045,00
-8298,27	1976,00
-8278,09	2274,00
-8257,94	2186,00
-8237,83	2335,00
-8217,76	2425,00
-8197,74	2405,00
-8177,75	2446,00
-8157,80	2183,00
-8137,89	2062,00
-8118,02	2039,00
-8098,19	2133,00
-8078,40	2064,00
-8058,65	2100,00
-8038,93	2103,00
-8019,26	2092,00
-7999,62	2201,00
-7980,02	1975,00
-7960,46	1926,00
-7940,94	1811,00
-7921,46	1845,00
-7902,01	1781,00
-7882,60	1842,00
-7863,23	1893,00
-7843,90	1883,00
-7824,61	1922,00
-7805,35	2056,00
-7786,13	2020,00
-7766,95	1967,00
-7747,80	2035,00
-7728,69	1974,00
-7709,62	1899,00
-7690,59	1867,00
-7671,59	2006,00
-7652,63	1964,00
-7633,70	1975,00
-7614,81	2079,00
-7595,96	1773,00
-7577,15	1850,00
-7558,37	1708,00
-7539,62	1846,00
-7520,91	1821,00
-7502,24	1943,00
-7483,60	1924,00
-7465,00	1873,00
-7446,44	1830,00
-7427,91	1487,00
-7409,41	1448,00
-7390,95	1530,00
-7372,53	1323,00
-7354,14	1437,00
-7335,78	1444,00
-7317,46	1431,00
-7299,18	1462,00
-7280,92	1581,00
-7262,71	1938,00
-7244,52	1812,00
-7226,38	1830,00
-7208,26	1815,00
-7190,18	1763,00
-7172,14	1626,00
-7154,12	1635,00
-7136,15	1572,00
-7118,20	1895,00
-7100,29	1880,00
-7082,41	1867,00
-7064,57	1833,00
-7046,76	1718,00
-7028,98	1431,00
-7011,24	1479,00
-6993,53	1227,00
-6975,85	1256,00
-6958,20	1156,00
-6940,59	1244,00
-6923,01	1111,00
-6905,46	1336,00
-6887,94	1407,00
-6870,46	1888,00
-6853,01	1667,00
-6835,59	1614,00
-6818,21	1527,00
-6800,85	1488,00
-6783,53	1195,00
-6766,24	1136,00
-6748,98	1098,00
-6731,76	1003,00
-6714,56	1038,00
-6697,40	982,00
-6680,26	1058,00
-6663,16	1091,00
-6646,09	1298,00
-6629,05	1445,00
-6612,05	1521,00
-6595,07	1305,00
-6578,13	1293,00
-6561,21	1189,00
-6544,33	1206,00
-6527,47	968,00
-6510,65	951,00
-6493,86	844,00
-6477,10	932,00
-6460,36	1089,00
-6443,66	948,00
-6426,99	925,00
-6410,35	920,00
-6393,74	1112,00
-6377,16	1076,00
-6360,61	1189,00
-6344,09	1070,00
-6327,59	1109,00
-6311,13	1233,00
-6294,70	1159,00
-6278,29	1225,00
-6261,92	1230,00
-6245,58	1361,00
-6229,26	1459,00
-6212,97	1426,00
-6196,72	1127,00
-6180,49	1076,00
-6164,29	869,00
-6148,12	986,00
-6131,98	950,00
-6115,86	897,00
-6099,78	716,00
-6083,72	784,00
-6067,69	789,00
-6051,69	869,00
-6035,72	908,00
-6019,78	938,00
-6003,87	1211,00
-5987,98	1210,00
-5972,12	1168,00
-5956,29	1111,00
-5940,49	1042,00
-5924,71	1189,00
-5908,96	977,00
-5893,24	913,00
-5877,55	943,00
-5861,89	1030,00
-5846,25	774,00
-5830,64	982,00
-5815,05	763,00
-5799,50	922,00
-5783,97	944,00
-5768,47	1029,00
-5752,99	1230,00
-5737,55	1091,00
-5722,12	1136,00
-5706,73	1195,00
-5691,36	1065,00
-5676,02	964,00
-5660,71	838,00
-5645,42	869,00
-5630,16	937,00
-5614,92	1048,00
-5599,71	888,00
-5584,53	1020,00
-5569,37	1045,00
-5554,24	1273,00
-5539,14	884,00
-5524,06	954,00
-5509,01	993,00
-5493,98	905,00
-5478,98	1018,00
-5464,00	879,00
-5449,05	926,00
-5434,13	978,00
-5419,23	923,00
-5404,36	967,00
-5389,51	1001,00
-5374,69	1061,00
-5359,89	1204,00
-5345,12	1348,00
-5330,37	1347,00
-5315,65	1136,00
-5300,95	1050,00
-5286,28	1033,00
-5271,63	824,00
-5257,01	967,00
-5242,41	991,00
-5227,84	888,00
-5213,29	871,00
-5198,76	812,00
-5184,26	897,00
-5169,79	842,00
-5155,33	904,00
-5140,91	1067,00
-5126,51	989,00
-5112,13	1097,00
-5097,77	1088,00
-5083,44	979,00
-5069,13	830,00
-5054,85	889,00
-5040,59	925,00
-5026,36	987,00
-5012,15	1091,00
-4997,96	1017,00
-4983,80	927,00
-4969,66	980,00
-4955,54	844,00
-4941,44	1004,00
-4927,37	971,00
-4913,33	1148,00
-4899,30	1204,00
-4885,30	1163,00
-4871,33	986,00
-4857,37	968,00
-4843,44	846,00
-4829,53	897,00
-4815,65	993,00
-4801,79	850,00
-4787,95	1014,00
-4774,13	946,00
-4760,34	800,00
-4746,56	955,00
-4732,82	807,00
-4719,09	879,00
-4705,38	1202,00
-4691,70	1145,00
-4678,04	1257,00
-4664,41	1193,00
-4650,79	1091,00
-4637,20	941,00
-4623,63	878,00
-4610,08	1053,00
-4596,56	997,00
-4583,05	1022,00
-4569,57	910,00
-4556,11	1022,00
-4542,67	881,00
-4529,25	872,00
-4515,86	874,00
-4502,49	1013,00
-4489,13	1085,00
-4475,80	1219,00
-4462,49	873,00
-4449,21	1017,00
-4435,94	957,00
-4422,70	799,00
-4409,47	871,00
-4396,27	1037,00
-4383,09	929,00
-4369,93	909,00
-4356,79	741,00
-4343,67	882,00
-4330,58	897,00
-4317,50	1008,00
-4304,45	991,00
-4291,41	932,00
-4278,40	900,00
-4265,41	823,00
-4252,44	915,00
-4239,49	787,00
-4226,55	987,00
-4213,65	933,00
-4200,76	1051,00
-4187,89	902,00
-4175,04	773,00
-4162,21	824,00
-4149,40	855,00
-4136,61	860,00
-4123,85	845,00
-4111,10	849,00
-4098,37	964,00
-4085,66	915,00
-4072,98	891,00
-4060,31	878,00
-4047,66	965,00
-4035,04	997,00
-4022,43	915,00
-4009,84	821,00
-3997,27	817,00
-3984,72	863,00
-3972,19	877,00
-3959,69	901,00
-3947,20	791,00
-3934,73	896,00
-3922,27	816,00
-3909,84	796,00
-3897,43	932,00
-3885,04	843,00
-3872,67	829,00
-3860,31	793,00
-3847,98	962,00
-3835,66	913,00
-3823,36	800,00
-3811,09	841,00
-3798,83	825,00
-3786,59	859,00
-3774,37	931,00
-3762,17	788,00
-3749,98	789,00
-3737,82	850,00
-3725,67	958,00
-3713,55	783,00
-3701,44	953,00
-3689,35	823,00
-3677,28	884,00
-3665,22	810,00
-3653,19	803,00
-3641,17	861,00
-3629,18	899,00
-3617,20	810,00
-3605,24	913,00
-3593,30	922,00
-3581,37	903,00
-3569,47	887,00
-3557,58	867,00
-3545,71	953,00
-3533,86	914,00
-3522,02	849,00
-3510,21	865,00
-3498,41	803,00
-3486,63	819,00
-3474,87	905,00
-3463,12	837,00
-3451,40	948,00
-3439,69	815,00
-3428,00	843,00
-3416,33	956,00
-3404,67	813,00
-3393,03	781,00
-3381,41	945,00
-3369,81	909,00
-3358,22	937,00
-3346,66	946,00
-3335,10	894,00
-3323,57	797,00
-3312,06	955,00
-3300,56	852,00
-3289,08	777,00
-3277,61	892,00
-3266,16	906,00
-3254,73	843,00
-3243,32	793,00
-3231,92	732,00
-3220,55	974,00
-3209,18	957,00
-3197,84	803,00
-3186,51	798,00
-3175,20	802,00
-3163,90	756,00
-3152,63	994,00
-3141,36	791,00
-3130,12	967,00
-3118,89	910,00
-3107,68	861,00
-3096,49	901,00
-3085,31	830,00
-3074,15	913,00
-3063,00	865,00
-3051,87	828,00
-3040,76	851,00
-3029,67	878,00
-3018,59	997,00
-3007,52	1030,00
-2996,48	942,00
-2985,44	873,00
-2974,43	929,00
-2963,43	797,00
-2952,45	866,00
-2941,48	894,00
-2930,53	905,00
-2919,60	756,00
-2908,68	726,00
-2897,78	872,00
-2886,89	929,00
-2876,02	854,00
-2865,17	786,00
-2854,33	786,00
-2843,50	861,00
-2832,70	888,00
-2821,90	865,00
-2811,13	940,00
-2800,37	873,00
-2789,62	779,00
-2778,89	939,00
-2768,18	1001,00
-2757,48	896,00
-2746,80	964,00
-2736,13	774,00
-2725,48	959,00
-2714,84	769,00
-2704,22	851,00
-2693,61	893,00
-2683,02	857,00
-2672,45	889,00
-2661,89	877,00
-2651,34	920,00
-2640,81	793,00
-2630,30	954,00
-2619,80	793,00
-2609,31	966,00
-2598,84	690,00
-2588,39	859,00
-2577,95	845,00
-2567,52	711,00
-2557,11	811,00
-2546,71	897,00
-2536,33	952,00
-2525,97	881,00
-2515,62	882,00
-2505,28	873,00
-2494,96	885,00
-2484,65	822,00
-2474,36	1132,00
-2464,08	774,00
-2453,82	1048,00
-2443,57	779,00
-2433,33	806,00
-2423,11	953,00
-2412,91	856,00
-2402,72	817,00
-2392,54	906,00
-2382,38	894,00
-2372,23	901,00
-2362,09	-1742,00
-2351,97	861,00
-2341,87	794,00
-2331,78	890,00
-2321,70	938,00
-2311,64	833,00
-2301,59	919,00
-2291,55	768,00
-2281,53	915,00
-2271,53	746,00
-2261,53	922,00
-2251,55	905,00
-2241,59	847,00
-2231,64	833,00
-2221,70	816,00
-2211,78	990,00
-2201,87	828,00
-2191,97	848,00
-2182,09	808,00
-2172,22	964,00
-2162,37	738,00
-2152,53	747,00
-2142,70	745,00
-2132,89	862,00
-2123,09	935,00
-2113,30	889,00
-2103,53	908,00
-2093,77	886,00
-2084,02	897,00
-2074,29	912,00
-2064,57	871,00
-2054,86	918,00
-2045,17	916,00
-2035,49	851,00
-2025,82	670,00
-2016,17	829,00
-2006,53	733,00
-1996,91	919,00
-1987,29	861,00
-1977,69	897,00
-1968,11	781,00
-1958,53	796,00
-1948,97	821,00
-1939,42	832,00
-1929,89	867,00
-1920,37	829,00
-1910,86	786,00
-1901,36	962,00
-1891,88	925,00
-1882,41	906,00
-1872,95	858,00
-1863,51	839,00
-1854,08	834,00
-1844,66	890,00
-1835,26	952,00
-1825,86	905,00
-1816,48	800,00
-1807,11	937,00
-1797,76	884,00
-1788,42	930,00
-1779,09	907,00
-1769,77	839,00
-1760,47	994,00
-1751,17	814,00
-1741,89	820,00
-1732,63	887,00
-1723,37	1081,00
-1714,13	1011,00
-1704,90	898,00
-1695,68	1043,00
-1686,48	797,00
-1677,29	797,00
-1668,11	1125,00
-1658,94	882,00
-1649,78	859,00
-1640,64	853,00
-1631,51	850,00
-1622,39	874,00
-1613,28	843,00
-1604,19	991,00
-1595,10	889,00
-1586,03	785,00
-1576,97	936,00
-1567,93	892,00
-1558,89	869,00
-1549,87	947,00
-1540,86	844,00
-1531,86	816,00
-1522,87	772,00
-1513,90	982,00
-1504,93	811,00
-1495,98	956,00
-1487,04	959,00
-1478,12	846,00
-1469,20	811,00
-1460,30	919,00
-1451,40	984,00
-1442,52	887,00
-1433,65	985,00
-1424,80	893,00
-1415,95	887,00
-1407,12	1067,00
-1398,30	833,00
-1389,48	927,00
-1380,69	764,00
-1371,90	791,00
-1363,12	914,00
-1354,36	1048,00
-1345,60	917,00
-1336,86	863,00
-1328,13	950,00
-1319,41	852,00
-1310,70	816,00
-1302,01	822,00
-1293,32	698,00
-1284,65	886,00
-1275,99	892,00
-1267,33	1021,00
-1258,69	901,00
-1250,06	846,00
-1241,45	760,00
-1232,84	1066,00
-1224,25	885,00
-1215,66	937,00
-1207,09	903,00
-1198,53	808,00
-1189,97	770,00
-1181,43	854,00
-1172,91	806,00
-1164,39	909,00
-1155,88	798,00
-1147,38	710,00
-1138,90	740,00
-1130,43	813,00
-1121,96	811,00
-1113,51	843,00
-1105,07	776,00
-1096,64	998,00
-1088,22	818,00
-1079,81	981,00
-1071,41	957,00
-1063,02	827,00
-1054,65	983,00
-1046,28	826,00
-1037,92	870,00
-1029,58	817,00
-1021,24	901,00
-1012,92	1220,00
-1004,61	908,00
-996,30	1024,00
-988,01	746,00
-979,73	883,00
-971,46	961,00
-963,20	766,00
-954,95	761,00
-946,71	898,00
-938,48	861,00
-930,26	980,00
-922,06	927,00
-913,86	856,00
-905,67	823,00
-897,49	933,00
-889,33	713,00
-881,17	1028,00
-873,02	915,00
-864,89	721,00
-856,76	824,00
-848,65	800,00
-840,54	960,00
-832,45	810,00
-824,36	742,00
-816,29	956,00
-808,22	941,00
-800,17	843,00
-792,12	804,00
-784,09	903,00
-776,06	794,00
-768,05	898,00
-760,04	836,00
-752,05	858,00
-744,07	900,00
-736,09	833,00
-728,13	766,00
-720,17	887,00
-712,23	789,00
-704,29	733,00
-696,37	855,00
-688,45	919,00
-680,55	846,00
-672,65	820,00
-664,77	851,00
-656,89	864,00
-649,03	782,00
-641,17	933,00
-633,32	894,00
-625,49	863,00
-617,66	859,00
-609,84	843,00
-602,03	768,00
-594,23	927,00
-586,45	935,00
-578,67	860,00
-570,90	843,00
-563,14	739,00
-555,39	960,00
-547,65	923,00
-539,91	938,00
-532,19	893,00
-524,48	910,00
-516,78	816,00
-509,08	943,00
-501,40	819,00
-493,72	852,00
-486,06	846,00
-478,40	1068,00
-470,76	788,00
-463,12	876,00
-455,49	752,00
-447,87	838,00
-440,26	825,00
-432,66	815,00
-425,07	969,00
-417,49	920,00
-409,92	772,00
-402,35	789,00
-394,80	807,00
-387,25	958,00
-379,72	819,00
-372,19	879,00
-364,67	936,00
-357,17	905,00
-349,67	864,00
-342,18	875,00
-334,69	901,00
-327,22	850,00
-319,76	855,00
-312,30	892,00
-304,86	845,00
-297,42	930,00
-290,00	849,00
-282,58	965,00
-275,17	873,00
-267,77	960,00
-260,37	871,00
-252,99	1023,00
-245,62	974,00
-238,25	918,00
-230,90	912,00
-223,55	926,00
-216,21	965,00
-208,88	1144,00
-201,56	1000,00
-194,25	1016,00
-186,94	930,00
-179,65	1016,00
-172,36	1126,00
-165,08	1081,00
-157,81	1151,00
-150,55	1164,00
-143,30	1208,00
-136,06	1286,00
-128,82	1272,00
-121,60	1284,00
-114,38	1327,00
-107,17	1528,00
-99,97	1697,00
-92,78	1695,00
-85,60	1760,00
-78,42	1990,00
-71,25	1994,00
-64,10	2363,00
-56,95	2470,00
-49,81	2806,00
-42,67	3402,00
-35,55	3976,00
-28,43	5109,00
-21,33	7863,00
-14,23	24207,00
-7,14	57498,00
-0,05	57284,00
7,02	57012,00
14,09	57319,00
21,14	20721,00
28,19	9100,00
35,23	6135,00
42,27	5092,00
49,29	4102,00
56,31	3652,00
63,32	3188,00
70,32	2724,00
77,31	2596,00
84,29	2214,00
91,27	2158,00
98,23	2063,00
105,19	1955,00
112,14	2172,00
119,09	2912,00
126,02	4479,00
132,95	4942,00
139,87	4925,00
146,78	5076,00
153,68	4834,00
160,58	4890,00
167,46	4712,00
174,34	4778,00
181,21	4718,00
188,08	4649,00
194,93	4790,00
201,78	4720,00
208,62	4755,00
215,45	4809,00
222,27	4646,00
229,09	4727,00
235,90	4540,00
242,70	4527,00
249,49	4581,00
256,27	4383,00
263,05	4414,00
269,82	4312,00
276,58	4336,00
283,33	4135,00
290,08	4117,00
296,82	4141,00
303,55	3968,00
310,27	3857,00
316,98	4089,00
323,69	3992,00
330,39	3907,00
337,08	3994,00
343,76	3914,00
350,44	3935,00
357,11	3925,00
363,77	3943,00
370,42	3871,00
377,07	3884,00
383,71	3880,00
390,34	3842,00
396,96	3819,00
403,58	3817,00
410,19	4059,00
416,79	4092,00
423,38	4243,00
429,97	4102,00
436,55	4026,00
443,12	4262,00
449,68	4121,00
456,24	3959,00
462,79	3947,00
469,33	3798,00
475,86	3675,00
482,39	3463,00
488,91	3569,00
495,42	3361,00
501,93	3367,00
508,42	3267,00
514,91	3395,00
521,40	3254,00
527,87	3299,00
534,34	3127,00
540,80	3283,00
547,25	3297,00
553,70	3228,00
560,14	3227,00
566,57	3251,00
573,00	3299,00
579,41	3393,00
585,83	3394,00
592,23	3439,00
598,62	3362,00
605,01	3574,00
611,40	3702,00
617,77	3682,00
624,14	3492,00
630,50	3347,00
636,85	3210,00
643,20	3192,00
649,54	3019,00
655,87	2965,00
662,20	2985,00
668,52	3002,00
674,83	2998,00
681,13	2936,00
687,43	2912,00
693,72	2855,00
700,00	2706,00
706,28	2836,00
712,55	2884,00
718,81	2948,00
725,07	2966,00
731,32	2933,00
737,56	2824,00
743,79	2741,00
750,02	2869,00
756,24	2730,00
762,46	2854,00
768,67	2898,00
774,87	2692,00
781,06	2649,00
787,25	2765,00
793,43	2803,00
799,60	2660,00
805,77	2893,00
811,93	2738,00
818,08	2799,00
824,23	2728,00
830,37	2852,00
836,50	2756,00
842,63	2758,00
848,75	2715,00
854,87	2675,00
860,97	2817,00
867,07	2696,00
873,17	2833,00
879,25	2811,00
885,33	2767,00
891,41	2855,00
897,47	2837,00
903,53	2683,00
909,59	2774,00
915,63	2697,00
921,67	2667,00
927,71	2577,00
933,74	2647,00
939,76	2429,00
945,77	2480,00
951,78	2678,00
957,78	2544,00
963,78	2502,00
969,77	2573,00
975,75	2563,00
981,72	2467,00
987,69	3789,00
993,66	2637,00
999,61	2623,00
1005,56	2563,00
1011,51	2452,00
1017,44	2638,00
1023,37	2633,00
1029,30	2579,00
1035,22	2679,00
1041,13	2702,00
1047,03	2827,00
1052,93	3295,00
1058,83	4797,00
1064,71	5286,00
1070,59	4349,00
1076,47	3562,00
1082,33	3224,00
1088,20	3172,00
1094,05	2953,00
1099,90	2779,00
1105,74	2835,00
1111,58	2774,00
1117,41	3085,00
1123,23	4005,00
1129,05	5028,00
1134,86	4550,00
1140,67	3442,00
1146,47	2842,00
1152,26	2762,00
1158,05	2550,00
1163,83	2678,00
1169,60	2909,00
1175,37	2720,00
1181,13	2509,00
1186,89	2469,00
1192,64	2393,00
1198,38	2533,00
1204,12	2373,00
1209,85	2373,00
1215,58	2466,00
1221,30	2555,00
1227,02	2457,00
1232,72	2379,00
1238,43	2352,00
1244,12	2388,00
1249,81	2385,00
1255,50	2617,00
1261,17	2448,00
1266,85	2580,00
1272,51	2650,00
1278,17	2880,00
1283,83	3082,00
1289,47	4555,00
1295,12	6218,00
1300,75	5434,00
1306,38	4261,00
1312,01	3405,00
1317,63	2981,00
1323,24	2769,00
1328,85	2697,00
1334,45	2475,00
1340,04	2497,00
1345,63	2459,00
1351,22	2567,00
1356,80	2501,00
1362,37	2662,00
1367,93	2702,00
1373,49	2737,00
1379,05	2571,00
1384,60	2477,00
1390,14	2522,00
1395,68	2495,00
1401,21	2542,00
1406,74	2760,00
1412,26	3412,00
1417,77	3953,00
1423,28	3842,00
1428,78	4225,00
1434,28	5355,00
1439,77	6104,00
1445,26	5935,00
1450,74	5487,00
1456,22	5087,00
1461,68	5011,00
1467,15	4577,00
1472,61	3928,00
1478,06	3597,00
1483,51	2985,00
1488,95	2662,00
1494,38	2731,00
1499,81	2403,00
1505,24	2313,00
1510,65	2441,00
1516,07	2325,00
1521,48	2268,00
1526,88	2153,00
1532,27	2181,00
1537,67	2153,00
1543,05	2217,00
1548,43	2079,00
1553,81	2208,00
1559,18	2022,00
1564,54	2060,00
1569,90	2134,00
1575,25	1911,00
1580,60	1895,00
1585,94	2048,00
1591,28	2028,00
1596,61	2006,00
1601,93	2040,00
1607,25	2087,00
1612,57	1986,00
1617,88	1918,00
1623,18	1957,00
1628,48	1941,00
1633,77	1981,00
1639,06	2078,00
1644,34	1887,00
1649,62	1813,00
1654,89	1939,00
1660,16	1845,00
1665,42	1994,00
1670,67	1850,00
1675,92	1777,00
1681,17	1856,00
1686,41	1821,00
1691,64	1873,00
1696,87	1895,00
1702,10	1831,00
1707,32	1777,00
1712,53	1815,00
1717,74	1804,00
1722,94	1872,00
1728,14	1668,00
1733,33	1731,00
1738,52	1706,00
1743,70	1740,00
1748,88	1753,00
1754,05	1779,00
1759,22	1644,00
1764,38	1980,00
1769,53	1782,00
1774,69	1827,00
1779,83	1671,00
1784,97	1716,00
1790,11	1672,00
1795,24	1643,00
1800,36	1647,00
1805,48	1685,00
1810,60	1672,00
1815,71	1677,00
1820,82	1557,00
1825,92	1689,00
1831,01	1575,00
1836,10	1587,00
1841,19	1687,00
1846,26	1489,00
1851,34	1643,00
1856,41	1610,00
1861,47	1605,00
1866,53	1649,00
1871,59	1585,00
1876,64	1656,00
1881,68	1598,00
1886,72	1630,00
1891,76	1479,00
1896,79	1639,00
1901,81	1457,00
1906,83	1620,00
1911,85	1473,00
1916,86	1505,00
1921,86	1484,00
1926,86	1449,00
1931,86	1590,00
1936,85	1486,00
1941,83	1404,00
1946,81	1489,00
1951,79	1400,00
1956,76	1502,00
1961,72	1285,00
1966,68	1456,00
1971,64	1428,00
1976,59	1536,00
1981,54	1434,00
1986,48	1479,00
1991,42	1338,00
1996,35	1587,00
2001,27	1427,00
2006,20	1374,00
2011,11	1515,00
2016,03	1460,00
2020,93	1345,00
2025,84	1448,00
2030,73	1363,00
2035,63	1222,00
2040,52	1399,00
2045,40	1344,00
2050,28	1423,00
2055,15	1331,00
2060,02	1306,00
2064,89	1398,00
2069,75	1442,00
2074,60	1411,00
2079,46	1268,00
2084,30	1318,00
2089,14	1322,00
2093,98	1452,00
2098,81	1442,00
2103,64	1476,00
2108,46	1458,00
2113,28	1558,00
2118,09	1478,00
2122,90	1545,00
2127,70	1351,00
2132,50	1316,00
2137,30	1341,00
2142,09	1249,00
2146,87	1279,00
2151,66	1351,00
2156,43	1242,00
2161,20	1307,00
2165,97	1499,00
2170,73	1346,00
2175,49	1456,00
2180,24	1301,00
2184,99	1541,00
2189,74	1544,00
2194,48	1380,00
2199,21	1403,00
2203,94	1237,00
2208,67	1160,00
2213,39	1188,00
2218,11	1295,00
2222,82	1190,00
2227,53	1320,00
2232,23	1260,00
2236,93	1375,00
2241,63	1212,00
2246,32	1365,00
2251,00	1305,00
2255,68	1306,00
2260,36	1215,00
2265,03	1343,00
2269,70	1387,00
2274,36	1236,00
2279,02	1226,00
2283,68	1216,00
2288,33	1275,00
2292,97	1341,00
2297,61	1260,00
2302,25	1265,00
2306,88	1202,00
2311,51	1153,00
2316,14	1244,00
2320,75	1155,00
2325,37	1105,00
2329,98	1309,00
2334,59	1259,00
2339,19	1153,00
2343,79	1100,00
2348,38	1251,00
2352,97	1191,00
2357,55	1256,00
2362,13	1144,00
2366,71	1103,00
2371,28	1205,00
2375,85	1185,00
2380,41	1208,00
2384,97	1096,00
2389,52	1333,00
2394,07	1231,00
2398,62	1169,00
2403,16	1225,00
2407,70	1088,00
2412,23	1088,00
2416,76	1233,00
2421,29	1246,00
2425,81	1244,00
2430,32	1246,00
2434,84	1075,00
2439,34	1129,00
2443,85	1328,00
2448,35	1087,00
2452,84	1102,00
2457,33	1225,00
2461,82	1064,00
2466,30	1034,00
2470,78	1183,00
2475,25	1128,00
2479,72	1164,00
2484,19	1237,00
2488,65	1168,00
2493,11	1062,00
2497,56	1250,00
2502,01	997,00
2506,46	1172,00
2510,90	1139,00
2515,34	1110,00
2519,77	1167,00
2524,20	1139,00
2528,62	1070,00
2533,04	1190,00
2537,46	1096,00
2541,87	1140,00
2546,28	1160,00
2550,68	1176,00
2555,08	1153,00
2559,48	1112,00
2563,87	1078,00
2568,26	1056,00
2572,64	1134,00
2577,02	1172,00
2581,40	1001,00
2585,77	1240,00
2590,14	1159,00
2594,50	1057,00
2598,86	1155,00
2603,22	1159,00
2607,57	1114,00
2611,92	1223,00
2616,26	1252,00
2620,60	1323,00
2624,94	1140,00
2629,27	1250,00
2633,60	1050,00
2637,92	1366,00
2642,24	1342,00
2646,56	1169,00
2650,87	1112,00
2655,18	1270,00
2659,48	1058,00
2663,78	1165,00
2668,08	1135,00
2672,37	1213,00
2676,66	1207,00
2680,95	1151,00
2685,23	1278,00
2689,50	1246,00
2693,78	1260,00
2698,05	1277,00
2702,31	1282,00
2706,57	1431,00
2710,83	1446,00
2715,08	1554,00
2719,33	1549,00
2723,58	1546,00
2727,82	1638,00
2732,06	1487,00
2736,29	1351,00
2740,53	1418,00
2744,75	1365,00
2748,97	1362,00
2753,19	1391,00
2757,41	1393,00
2761,62	1366,00
2765,83	1317,00
2770,03	1276,00
2774,23	1397,00
2778,43	1351,00
2782,62	1442,00
2786,81	1465,00
2791,00	1462,00
2795,18	1504,00
2799,35	1476,00
2803,53	1565,00
2807,70	1611,00
2811,86	1660,00
2816,03	1775,00
2820,19	1751,00
2824,34	1886,00
2828,49	2044,00
2832,64	2311,00
2836,78	2683,00
2840,92	3084,00
2845,06	3835,00
2849,19	4188,00
2853,32	4353,00
2857,45	4297,00
2861,57	4217,00
2865,69	4141,00
2869,80	3986,00
2873,91	4202,00
2878,02	4654,00
2882,12	5056,00
2886,22	5077,00
2890,32	4714,00
2894,41	4378,00
2898,50	3951,00
2902,58	3835,00
2906,67	3452,00
2910,74	3250,00
2914,82	2942,00
2918,89	2973,00
2922,96	2746,00
2927,02	2520,00
2931,08	2425,00
2935,13	2138,00
2939,19	2226,00
2943,24	2025,00
2947,28	1997,00
2951,32	1705,00
2955,36	1541,00
2959,40	1753,00
2963,43	1520,00
2967,46	1494,00
2971,48	1430,00
2975,50	1363,00
2979,52	1356,00
2983,53	1412,00
2987,54	1246,00
2991,55	1240,00
2995,55	1190,00
2999,55	1231,00
3003,54	1144,00
3007,54	1345,00
3011,53	1120,00
3015,51	1104,00
3019,49	1117,00
3023,47	1041,00
3027,45	1154,00
3031,42	1034,00
3035,39	1018,00
3039,35	1028,00
3043,31	1062,00
3047,27	998,00
3051,22	1102,00
3055,17	937,00
3059,12	919,00
3063,06	1077,00
3067,00	940,00
3070,94	946,00
3074,87	1111,00
3078,80	972,00
3082,73	1020,00
3086,65	981,00
3090,57	998,00
3094,49	914,00
3098,40	967,00
3102,31	950,00
3106,22	963,00
3110,12	951,00
3114,02	785,00
3117,92	1011,00
3121,81	965,00
3125,70	961,00
3129,58	829,00
3133,47	821,00
3137,34	941,00
3141,22	1016,00
3145,09	931,00
3148,96	950,00
3152,83	991,00
3156,69	978,00
3160,55	942,00
3164,40	966,00
3168,26	903,00
3172,10	968,00
3175,95	1008,00
3179,79	1023,00
3183,63	933,00
3187,47	892,00
3191,30	949,00
3195,13	950,00
3198,95	765,00
3202,78	956,00
3206,60	888,00
3210,41	849,00
3214,23	906,00
3218,03	952,00
3221,84	954,00
3225,64	898,00
3229,44	819,00
3233,24	948,00
3237,03	896,00
3240,82	870,00
3244,61	832,00
3248,39	937,00
3252,17	954,00
3255,95	975,00
3259,72	963,00
3263,49	1112,00
3267,26	930,00
3271,03	869,00
3274,79	780,00
3278,54	881,00
3282,30	780,00
3286,05	971,00
3289,80	976,00
3293,54	797,00
3297,29	927,00
3301,02	869,00
3304,76	974,00
3308,49	929,00
3312,22	832,00
3315,95	893,00
3319,67	911,00
3323,39	1015,00
3327,10	901,00
3330,82	928,00
3334,53	903,00
3338,24	876,00
3341,94	782,00
3345,64	847,00
3349,34	876,00
3353,03	982,00
3356,72	896,00
3360,41	865,00
3364,10	834,00
3367,78	822,00
3371,46	872,00
3375,13	889,00
3378,81	1003,00
3382,48	878,00
3386,14	991,00
3389,81	943,00
3393,47	893,00
3397,12	1014,00
3400,78	845,00
3404,43	825,00
3408,08	957,00
3411,72	760,00
3415,36	848,00
3419,00	859,00
3422,64	864,00
3426,27	889,00
3429,90	854,00
3433,53	813,00
3437,15	899,00
3440,77	791,00
3444,39	829,00
3448,00	881,00
3451,62	830,00
3455,22	898,00
3458,83	781,00
3462,43	855,00
3466,03	901,00
3469,63	820,00
3473,22	836,00
3476,81	780,00
3480,40	936,00
3483,99	714,00
3487,57	853,00
3491,15	820,00
3494,72	880,00
3498,29	908,00
3501,86	775,00
3505,43	802,00
3508,99	788,00
3512,56	716,00
3516,11	928,00
3519,67	884,00
3523,22	912,00
3526,77	769,00
3530,32	1023,00
3533,86	900,00
3537,40	971,00
3540,94	883,00
3544,47	879,00
3548,00	837,00
3551,53	919,00
3555,06	822,00
3558,58	864,00
3562,10	878,00
3565,62	761,00
3569,13	859,00
3572,64	912,00
3576,15	716,00
3579,66	836,00
3583,16	835,00
3586,66	817,00
3590,16	857,00
3593,65	806,00
3597,14	774,00
3600,63	790,00
3604,11	820,00
3607,60	765,00
3611,08	862,00
3614,55	853,00
3618,03	793,00
3621,50	739,00
3624,97	696,00
3628,43	808,00
3631,90	814,00
3635,36	765,00
3638,81	787,00
3642,27	782,00
3645,72	854,00
3649,17	774,00
3652,61	752,00
3656,06	780,00
3659,50	742,00
3662,93	778,00
3666,37	818,00
3669,80	985,00
3673,23	807,00
3676,65	827,00
3680,08	905,00
3683,50	735,00
3686,92	706,00
3690,33	819,00
3693,74	759,00
3697,15	709,00
3700,56	844,00
3703,96	807,00
3707,36	648,00
3710,76	686,00
3714,16	724,00
3717,55	766,00
3720,94	743,00
3724,33	757,00
3727,71	803,00
3731,10	752,00
3734,48	761,00
3737,85	698,00
3741,23	749,00
3744,60	734,00
3747,97	646,00
3751,33	803,00
3754,69	704,00
3758,05	820,00
3761,41	624,00
3764,77	711,00
3768,12	712,00
3771,47	639,00
3774,82	747,00
3778,16	-7,00
3781,50	15,00
3784,84	6,00
3788,18	10,00
>>>>>End Processed Spectral Data<<<<<
