SpectraSuite Data File
++++++++++++++++++++++++++++++++++++
Date: Mon Jan 05 16:33:31 ICT 2026
User: Administrator
Dark Spectrum Present: Yes
Reference Spectrum Present: No
Number of Sampled Component Spectra: 1
Spectrometers: MAYP113682
Integration Time (usec): 3000000 (MAYP113682)
Spectra Averaged: 1 (MAYP113682)
Boxcar Smoothing: 0 (MAYP113682)
Correct for Electrical Dark: No (MAYP113682)
Strobe/Lamp Enabled: No (MAYP113682)
Correct for Detector Non-linearity: No (MAYP113682)
Correct for Stray Light: No (MAYP113682)
Number of Pixels in Processed Spectrum: 2068
>>>>>Begin Processed Spectral Data<<<<<
-37534,58	27,00
-37414,56	9,00
-37295,11	5,00
-37176,24	2,00
-37057,95	578,00
-36940,22	719,00
-36823,05	768,00
-36706,45	705,00
-36590,40	744,00
-36474,90	758,00
-36359,95	788,00
-36245,55	793,00
-36131,68	677,00
-36018,35	788,00
-35905,55	759,00
-35793,29	797,00
-35681,54	761,00
-35570,32	744,00
-35459,62	790,00
-35349,43	912,00
-35239,75	830,00
-35130,58	824,00
-35021,91	899,00
-34913,74	827,00
-34806,07	898,00
-34698,89	856,00
-34592,20	866,00
-34486,00	825,00
-34380,28	879,00
-34275,04	751,00
-34170,27	721,00
-34065,98	928,00
-33962,16	778,00
-33858,81	943,00
-33755,92	845,00
-33653,49	933,00
-33551,52	958,00
-33450,01	922,00
-33348,94	846,00
-33248,33	851,00
-33148,16	852,00
-33048,43	832,00
-32949,14	1014,00
-32850,29	967,00
-32751,87	801,00
-32653,89	917,00
-32556,33	928,00
-32459,20	819,00
-32362,49	872,00
-32266,19	889,00
-32170,32	895,00
-32074,86	880,00
-31979,82	1009,00
-31885,18	1009,00
-31790,95	961,00
-31697,12	995,00
-31603,69	918,00
-31510,67	962,00
-31418,04	934,00
-31325,80	881,00
-31233,95	848,00
-31142,49	868,00
-31051,42	845,00
-30960,73	996,00
-30870,43	1031,00
-30780,50	945,00
-30690,95	908,00
-30601,77	983,00
-30512,97	861,00
-30424,53	984,00
-30336,46	948,00
-30248,76	928,00
-30161,42	988,00
-30074,44	883,00
-29987,81	994,00
-29901,55	1029,00
-29815,63	901,00
-29730,07	977,00
-29644,86	944,00
-29560,00	924,00
-29475,48	986,00
-29391,30	852,00
-29307,47	858,00
-29223,97	814,00
-29140,81	987,00
-29057,99	1063,00
-28975,50	778,00
-28893,34	1050,00
-28811,51	778,00
-28730,00	902,00
-28648,82	860,00
-28567,97	884,00
-28487,43	921,00
-28407,21	864,00
-28327,32	814,00
-28247,73	1107,00
-28168,46	848,00
-28089,50	1007,00
-28010,85	819,00
-27932,51	845,00
-27854,48	933,00
-27776,75	752,00
-27699,32	823,00
-27622,19	999,00
-27545,37	941,00
-27468,84	949,00
-27392,60	894,00
-27316,66	905,00
-27241,01	974,00
-27165,66	879,00
-27090,59	792,00
-27015,81	907,00
-26941,31	1000,00
-26867,10	785,00
-26793,17	954,00
-26719,52	920,00
-26646,15	882,00
-26573,06	919,00
-26500,24	872,00
-26427,70	911,00
-26355,43	833,00
-26283,43	892,00
-26211,71	949,00
-26140,25	952,00
-26069,06	992,00
-25998,13	828,00
-25927,46	806,00
-25857,06	800,00
-25786,92	895,00
-25717,04	770,00
-25647,42	947,00
-25578,05	851,00
-25508,94	868,00
-25440,09	844,00
-25371,48	893,00
-25303,13	947,00
-25235,02	858,00
-25167,17	947,00
-25099,56	976,00
-25032,19	901,00
-24965,07	808,00
-24898,20	738,00
-24831,56	820,00
-24765,17	928,00
-24699,01	823,00
-24633,10	906,00
-24567,41	910,00
-24501,97	840,00
-24436,75	911,00
-24371,77	901,00
-24307,03	787,00
-24242,51	887,00
-24178,22	783,00
-24114,16	899,00
-24050,32	966,00
-23986,71	849,00
-23923,32	881,00
-23860,16	897,00
-23797,22	914,00
-23734,50	907,00
-23672,00	805,00
-23609,71	893,00
-23547,65	804,00
-23485,80	949,00
-23424,16	771,00
-23362,74	1095,00
-23301,53	897,00
-23240,54	783,00
-23179,75	817,00
-23119,17	822,00
-23058,80	855,00
-22998,64	987,00
-22938,68	840,00
-22878,93	924,00
-22819,39	741,00
-22760,04	809,00
-22700,90	925,00
-22641,96	905,00
-22583,22	944,00
-22524,68	864,00
-22466,33	873,00
-22408,19	979,00
-22350,23	886,00
-22292,48	854,00
-22234,92	966,00
-22177,55	904,00
-22120,37	997,00
-22063,38	825,00
-22006,58	826,00
-21949,98	873,00
-21893,56	748,00
-21837,33	842,00
-21781,28	807,00
-21725,42	878,00
-21669,74	871,00
-21614,25	860,00
-21558,94	897,00
-21503,81	907,00
-21448,86	953,00
-21394,10	874,00
-21339,51	855,00
-21285,10	752,00
-21230,86	764,00
-21176,81	802,00
-21122,93	856,00
-21069,22	781,00
-21015,69	833,00
-20962,33	954,00
-20909,14	811,00
-20856,13	932,00
-20803,28	926,00
-20750,61	804,00
-20698,10	692,00
-20645,76	812,00
-20593,59	935,00
-20541,59	936,00
-20489,75	906,00
-20438,07	771,00
-20386,56	862,00
-20335,22	785,00
-20284,03	841,00
-20233,01	833,00
-20182,15	858,00
-20131,45	864,00
-20080,91	737,00
-20030,52	853,00
-19980,30	894,00
-19930,23	699,00
-19880,32	920,00
-19830,56	852,00
-19780,96	772,00
-19731,52	799,00
-19682,23	869,00
-19633,09	768,00
-19584,10	723,00
-19535,26	821,00
-19486,58	1022,00
-19438,04	845,00
-19389,66	897,00
-19341,42	777,00
-19293,33	798,00
-19245,39	804,00
-19197,60	964,00
-19149,95	888,00
-19102,45	845,00
-19055,09	783,00
-19007,87	897,00
-18960,80	864,00
-18913,87	902,00
-18867,09	879,00
-18820,44	945,00
-18773,94	841,00
-18727,57	903,00
-18681,35	783,00
-18635,26	873,00
-18589,31	801,00
-18543,50	854,00
-18497,83	914,00
-18452,29	930,00
-18406,89	797,00
-18361,63	961,00
-18316,50	953,00
-18271,50	904,00
-18226,63	974,00
-18181,90	831,00
-18137,30	941,00
-18092,84	781,00
-18048,50	961,00
-18004,29	796,00
-17960,22	735,00
-17916,27	799,00
-17872,45	993,00
-17828,76	899,00
-17785,20	825,00
-17741,77	868,00
-17698,46	914,00
-17655,28	796,00
-17612,22	883,00
-17569,29	780,00
-17526,48	915,00
-17483,79	864,00
-17441,23	798,00
-17398,79	837,00
-17356,48	783,00
-17314,28	995,00
-17272,21	958,00
-17230,26	919,00
-17188,42	863,00
-17146,71	938,00
-17105,12	875,00
-17063,64	839,00
-17022,28	832,00
-16981,04	830,00
-16939,92	901,00
-16898,91	1009,00
-16858,02	823,00
-16817,25	919,00
-16776,59	845,00
-16736,04	849,00
-16695,61	867,00
-16655,29	832,00
-16615,09	821,00
-16574,99	836,00
-16535,01	799,00
-16495,15	898,00
-16455,39	879,00
-16415,74	772,00
-16376,21	797,00
-16336,78	795,00
-16297,46	844,00
-16258,26	809,00
-16219,16	852,00
-16180,17	811,00
-16141,28	908,00
-16102,51	832,00
-16063,84	822,00
-16025,27	872,00
-15986,82	762,00
-15948,46	903,00
-15910,22	821,00
-15872,07	800,00
-15834,04	832,00
-15796,10	787,00
-15758,27	1022,00
-15720,54	853,00
-15682,91	780,00
-15645,39	975,00
-15607,97	907,00
-15570,64	871,00
-15533,42	957,00
-15496,30	865,00
-15459,28	912,00
-15422,36	819,00
-15385,54	804,00
-15348,82	920,00
-15312,19	1005,00
-15275,66	801,00
-15239,23	919,00
-15202,90	861,00
-15166,67	857,00
-15130,53	942,00
-15094,48	881,00
-15058,54	841,00
-15022,68	812,00
-14986,93	800,00
-14951,26	923,00
-14915,69	903,00
-14880,22	793,00
-14844,84	848,00
-14809,55	884,00
-14774,35	819,00
-14739,25	840,00
-14704,24	886,00
-14669,32	839,00
-14634,49	760,00
-14599,75	923,00
-14565,10	850,00
-14530,55	882,00
-14496,08	853,00
-14461,70	926,00
-14427,41	832,00
-14393,21	769,00
-14359,10	755,00
-14325,07	878,00
-14291,14	878,00
-14257,29	906,00
-14223,52	921,00
-14189,85	969,00
-14156,26	857,00
-14122,76	799,00
-14089,34	801,00
-14056,01	939,00
-14022,76	814,00
-13989,60	848,00
-13956,52	952,00
-13923,53	923,00
-13890,62	752,00
-13857,79	821,00
-13825,05	833,00
-13792,39	767,00
-13759,81	902,00
-13727,31	837,00
-13694,90	832,00
-13662,57	889,00
-13630,31	969,00
-13598,14	850,00
-13566,05	791,00
-13534,05	809,00
-13502,12	871,00
-13470,27	807,00
-13438,50	941,00
-13406,80	701,00
-13375,19	837,00
-13343,66	874,00
-13312,20	931,00
-13280,83	798,00
-13249,53	928,00
-13218,30	736,00
-13187,16	824,00
-13156,09	963,00
-13125,10	910,00
-13094,18	872,00
-13063,34	936,00
-13032,58	751,00
-13001,89	911,00
-12971,28	905,00
-12940,74	792,00
-12910,27	891,00
-12879,88	892,00
-12849,57	929,00
-12819,33	897,00
-12789,16	896,00
-12759,06	844,00
-12729,04	814,00
-12699,09	1694,00
-12669,21	849,00
-12639,41	877,00
-12609,68	757,00
-12580,02	839,00
-12550,43	967,00
-12520,91	792,00
-12491,46	840,00
-12462,08	756,00
-12432,77	829,00
-12403,54	801,00
-12374,37	797,00
-12345,27	910,00
-12316,24	882,00
-12287,29	860,00
-12258,40	793,00
-12229,57	963,00
-12200,82	800,00
-12172,14	831,00
-12143,52	673,00
-12114,97	847,00
-12086,49	908,00
-12058,07	983,00
-12029,73	839,00
-12001,44	910,00
-11973,23	864,00
-11945,08	877,00
-11917,00	895,00
-11888,98	765,00
-11861,03	928,00
-11833,15	907,00
-11805,32	952,00
-11777,57	847,00
-11749,88	880,00
-11722,25	760,00
-11694,69	795,00
-11667,19	825,00
-11639,75	1022,00
-11612,38	871,00
-11585,07	849,00
-11557,83	874,00
-11530,65	1018,00
-11503,53	802,00
-11476,47	871,00
-11449,48	804,00
-11422,54	994,00
-11395,67	901,00
-11368,86	911,00
-11342,11	806,00
-11315,43	829,00
-11288,80	871,00
-11262,23	922,00
-11235,73	906,00
-11209,28	1063,00
-11182,90	855,00
-11156,57	856,00
-11130,31	1027,00
-11104,10	824,00
-11077,96	872,00
-11051,87	808,00
-11025,84	822,00
-10999,87	885,00
-10973,96	816,00
-10948,11	806,00
-10922,31	930,00
-10896,58	850,00
-10870,90	981,00
-10845,28	935,00
-10819,71	794,00
-10794,20	972,00
-10768,75	953,00
-10743,36	903,00
-10718,02	813,00
-10692,74	896,00
-10667,52	871,00
-10642,35	860,00
-10617,24	956,00
-10592,18	919,00
-10567,18	912,00
-10542,23	869,00
-10517,34	981,00
-10492,51	1036,00
-10467,72	913,00
-10443,00	992,00
-10418,32	1060,00
-10393,70	994,00
-10369,14	932,00
-10344,63	917,00
-10320,17	1024,00
-10295,77	989,00
-10271,42	1018,00
-10247,12	962,00
-10222,88	1143,00
-10198,68	1028,00
-10174,54	1071,00
-10150,46	1162,00
-10126,42	1199,00
-10102,44	1021,00
-10078,51	1019,00
-10054,63	1231,00
-10030,80	1093,00
-10007,03	1260,00
-9983,30	1167,00
-9959,63	1223,00
-9936,01	1346,00
-9912,44	1246,00
-9888,92	1266,00
-9865,44	1229,00
-9842,02	1341,00
-9818,65	1318,00
-9795,33	1214,00
-9772,06	1395,00
-9748,84	1357,00
-9725,67	1352,00
-9702,55	1536,00
-9679,47	1668,00
-9656,45	1778,00
-9633,47	1612,00
-9610,55	1732,00
-9587,67	1956,00
-9564,84	2170,00
-9542,06	2021,00
-9519,32	2230,00
-9496,64	2456,00
-9474,00	2310,00
-9451,41	2438,00
-9428,87	2576,00
-9406,37	2480,00
-9383,92	2333,00
-9361,52	2285,00
-9339,17	2584,00
-9316,86	2769,00
-9294,60	3091,00
-9272,38	3415,00
-9250,21	3655,00
-9228,09	3801,00
-9206,01	3744,00
-9183,98	3633,00
-9162,00	3024,00
-9140,06	3144,00
-9118,16	3077,00
-9096,31	3272,00
-9074,51	3383,00
-9052,75	3420,00
-9031,04	3369,00
-9009,37	3030,00
-8987,74	2978,00
-8966,16	2650,00
-8944,63	2412,00
-8923,14	2498,00
-8901,69	2491,00
-8880,29	2588,00
-8858,93	2779,00
-8837,61	3055,00
-8816,34	3173,00
-8795,11	2957,00
-8773,92	2887,00
-8752,78	2678,00
-8731,68	2539,00
-8710,62	2678,00
-8689,61	2500,00
-8668,63	2734,00
-8647,70	2997,00
-8626,82	3012,00
-8605,97	2896,00
-8585,17	2887,00
-8564,41	2533,00
-8543,69	2396,00
-8523,01	2331,00
-8502,37	2438,00
-8481,78	2504,00
-8461,23	2554,00
-8440,71	2762,00
-8420,24	2980,00
-8399,81	3046,00
-8379,42	2950,00
-8359,08	2830,00
-8338,77	2510,00
-8318,50	2366,00
-8298,27	2229,00
-8278,09	2477,00
-8257,94	2620,00
-8237,83	2763,00
-8217,76	2843,00
-8197,74	2774,00
-8177,75	2872,00
-8157,80	2495,00
-8137,89	2345,00
-8118,02	2251,00
-8098,19	2444,00
-8078,40	2366,00
-8058,65	2462,00
-8038,93	2491,00
-8019,26	2426,00
-7999,62	2442,00
-7980,02	2299,00
-7960,46	2068,00
-7940,94	2041,00
-7921,46	1937,00
-7902,01	1963,00
-7882,60	2191,00
-7863,23	2062,00
-7843,90	2128,00
-7824,61	2200,00
-7805,35	2386,00
-7786,13	2329,00
-7766,95	2282,00
-7747,80	2304,00
-7728,69	2209,00
-7709,62	2105,00
-7690,59	2161,00
-7671,59	2329,00
-7652,63	2239,00
-7633,70	2351,00
-7614,81	2429,00
-7595,96	2066,00
-7577,15	2108,00
-7558,37	1994,00
-7539,62	2161,00
-7520,91	2054,00
-7502,24	2207,00
-7483,60	2199,00
-7465,00	2011,00
-7446,44	2088,00
-7427,91	1598,00
-7409,41	1799,00
-7390,95	1658,00
-7372,53	1559,00
-7354,14	1630,00
-7335,78	1584,00
-7317,46	1662,00
-7299,18	1664,00
-7280,92	1935,00
-7262,71	2201,00
-7244,52	2223,00
-7226,38	2057,00
-7208,26	2074,00
-7190,18	2052,00
-7172,14	1903,00
-7154,12	1855,00
-7136,15	1799,00
-7118,20	2033,00
-7100,29	2058,00
-7082,41	2170,00
-7064,57	1948,00
-7046,76	1899,00
-7028,98	1640,00
-7011,24	1692,00
-6993,53	1455,00
-6975,85	1382,00
-6958,20	1372,00
-6940,59	1404,00
-6923,01	1338,00
-6905,46	1591,00
-6887,94	1593,00
-6870,46	1979,00
-6853,01	1884,00
-6835,59	1878,00
-6818,21	1685,00
-6800,85	1627,00
-6783,53	1453,00
-6766,24	1261,00
-6748,98	1312,00
-6731,76	1226,00
-6714,56	1181,00
-6697,40	1078,00
-6680,26	1157,00
-6663,16	1332,00
-6646,09	1446,00
-6629,05	1631,00
-6612,05	1652,00
-6595,07	1519,00
-6578,13	1583,00
-6561,21	1348,00
-6544,33	1319,00
-6527,47	1054,00
-6510,65	1047,00
-6493,86	963,00
-6477,10	1062,00
-6460,36	1214,00
-6443,66	1020,00
-6426,99	1060,00
-6410,35	1087,00
-6393,74	1277,00
-6377,16	1228,00
-6360,61	1301,00
-6344,09	1164,00
-6327,59	1270,00
-6311,13	1415,00
-6294,70	1355,00
-6278,29	1469,00
-6261,92	1460,00
-6245,58	1637,00
-6229,26	1559,00
-6212,97	1530,00
-6196,72	1270,00
-6180,49	1286,00
-6164,29	1019,00
-6148,12	1046,00
-6131,98	1029,00
-6115,86	968,00
-6099,78	928,00
-6083,72	885,00
-6067,69	844,00
-6051,69	836,00
-6035,72	1056,00
-6019,78	1112,00
-6003,87	1275,00
-5987,98	1319,00
-5972,12	1290,00
-5956,29	1288,00
-5940,49	1135,00
-5924,71	1334,00
-5908,96	1094,00
-5893,24	1062,00
-5877,55	973,00
-5861,89	1076,00
-5846,25	903,00
-5830,64	1099,00
-5815,05	933,00
-5799,50	980,00
-5783,97	1088,00
-5768,47	1088,00
-5752,99	1382,00
-5737,55	1126,00
-5722,12	1379,00
-5706,73	1232,00
-5691,36	1314,00
-5676,02	1097,00
-5660,71	990,00
-5645,42	1053,00
-5630,16	1090,00
-5614,92	1246,00
-5599,71	1041,00
-5584,53	1164,00
-5569,37	1119,00
-5554,24	1383,00
-5539,14	1104,00
-5524,06	1137,00
-5509,01	1104,00
-5493,98	1058,00
-5478,98	1207,00
-5464,00	1064,00
-5449,05	1060,00
-5434,13	1004,00
-5419,23	986,00
-5404,36	968,00
-5389,51	1056,00
-5374,69	1200,00
-5359,89	1382,00
-5345,12	1420,00
-5330,37	1382,00
-5315,65	1276,00
-5300,95	1265,00
-5286,28	1097,00
-5271,63	1022,00
-5257,01	1165,00
-5242,41	1116,00
-5227,84	946,00
-5213,29	1013,00
-5198,76	912,00
-5184,26	980,00
-5169,79	871,00
-5155,33	992,00
-5140,91	1017,00
-5126,51	1072,00
-5112,13	1146,00
-5097,77	1124,00
-5083,44	1128,00
-5069,13	965,00
-5054,85	1005,00
-5040,59	1008,00
-5026,36	1139,00
-5012,15	1192,00
-4997,96	1092,00
-4983,80	1113,00
-4969,66	909,00
-4955,54	934,00
-4941,44	1087,00
-4927,37	1086,00
-4913,33	1292,00
-4899,30	1310,00
-4885,30	1359,00
-4871,33	1114,00
-4857,37	950,00
-4843,44	917,00
-4829,53	1004,00
-4815,65	1110,00
-4801,79	965,00
-4787,95	1119,00
-4774,13	1015,00
-4760,34	953,00
-4746,56	965,00
-4732,82	888,00
-4719,09	1093,00
-4705,38	1210,00
-4691,70	1301,00
-4678,04	1384,00
-4664,41	1266,00
-4650,79	1263,00
-4637,20	887,00
-4623,63	1008,00
-4610,08	1181,00
-4596,56	1107,00
-4583,05	1030,00
-4569,57	997,00
-4556,11	1071,00
-4542,67	900,00
-4529,25	955,00
-4515,86	1014,00
-4502,49	1172,00
-4489,13	1204,00
-4475,80	1201,00
-4462,49	959,00
-4449,21	1095,00
-4435,94	907,00
-4422,70	903,00
-4409,47	907,00
-4396,27	1039,00
-4383,09	989,00
-4369,93	984,00
-4356,79	832,00
-4343,67	938,00
-4330,58	1094,00
-4317,50	1046,00
-4304,45	1029,00
-4291,41	1031,00
-4278,40	913,00
-4265,41	902,00
-4252,44	959,00
-4239,49	928,00
-4226,55	1063,00
-4213,65	977,00
-4200,76	1035,00
-4187,89	869,00
-4175,04	842,00
-4162,21	819,00
-4149,40	1000,00
-4136,61	904,00
-4123,85	868,00
-4111,10	875,00
-4098,37	924,00
-4085,66	962,00
-4072,98	908,00
-4060,31	863,00
-4047,66	971,00
-4035,04	1136,00
-4022,43	928,00
-4009,84	917,00
-3997,27	705,00
-3984,72	858,00
-3972,19	949,00
-3959,69	868,00
-3947,20	843,00
-3934,73	814,00
-3922,27	792,00
-3909,84	849,00
-3897,43	924,00
-3885,04	969,00
-3872,67	857,00
-3860,31	846,00
-3847,98	972,00
-3835,66	850,00
-3823,36	899,00
-3811,09	780,00
-3798,83	854,00
-3786,59	866,00
-3774,37	1014,00
-3762,17	827,00
-3749,98	849,00
-3737,82	929,00
-3725,67	1094,00
-3713,55	849,00
-3701,44	984,00
-3689,35	910,00
-3677,28	959,00
-3665,22	785,00
-3653,19	831,00
-3641,17	801,00
-3629,18	893,00
-3617,20	949,00
-3605,24	891,00
-3593,30	902,00
-3581,37	885,00
-3569,47	928,00
-3557,58	961,00
-3545,71	877,00
-3533,86	863,00
-3522,02	829,00
-3510,21	956,00
-3498,41	906,00
-3486,63	897,00
-3474,87	916,00
-3463,12	858,00
-3451,40	864,00
-3439,69	829,00
-3428,00	906,00
-3416,33	945,00
-3404,67	780,00
-3393,03	847,00
-3381,41	981,00
-3369,81	897,00
-3358,22	861,00
-3346,66	1056,00
-3335,10	915,00
-3323,57	842,00
-3312,06	910,00
-3300,56	924,00
-3289,08	854,00
-3277,61	913,00
-3266,16	870,00
-3254,73	920,00
-3243,32	837,00
-3231,92	823,00
-3220,55	988,00
-3209,18	1107,00
-3197,84	893,00
-3186,51	803,00
-3175,20	826,00
-3163,90	800,00
-3152,63	897,00
-3141,36	888,00
-3130,12	899,00
-3118,89	899,00
-3107,68	881,00
-3096,49	960,00
-3085,31	847,00
-3074,15	874,00
-3063,00	890,00
-3051,87	868,00
-3040,76	894,00
-3029,67	1008,00
-3018,59	1077,00
-3007,52	1060,00
-2996,48	940,00
-2985,44	792,00
-2974,43	902,00
-2963,43	778,00
-2952,45	873,00
-2941,48	916,00
-2930,53	881,00
-2919,60	790,00
-2908,68	788,00
-2897,78	886,00
-2886,89	916,00
-2876,02	960,00
-2865,17	830,00
-2854,33	840,00
-2843,50	885,00
-2832,70	893,00
-2821,90	878,00
-2811,13	935,00
-2800,37	813,00
-2789,62	745,00
-2778,89	823,00
-2768,18	984,00
-2757,48	922,00
-2746,80	988,00
-2736,13	898,00
-2725,48	965,00
-2714,84	757,00
-2704,22	869,00
-2693,61	902,00
-2683,02	876,00
-2672,45	897,00
-2661,89	915,00
-2651,34	962,00
-2640,81	907,00
-2630,30	1034,00
-2619,80	825,00
-2609,31	852,00
-2598,84	839,00
-2588,39	869,00
-2577,95	802,00
-2567,52	795,00
-2557,11	808,00
-2546,71	858,00
-2536,33	996,00
-2525,97	912,00
-2515,62	843,00
-2505,28	828,00
-2494,96	941,00
-2484,65	898,00
-2474,36	1238,00
-2464,08	865,00
-2453,82	1009,00
-2443,57	830,00
-2433,33	826,00
-2423,11	918,00
-2412,91	1015,00
-2402,72	833,00
-2392,54	919,00
-2382,38	869,00
-2372,23	1041,00
-2362,09	-1742,00
-2351,97	888,00
-2341,87	784,00
-2331,78	951,00
-2321,70	920,00
-2311,64	829,00
-2301,59	893,00
-2291,55	860,00
-2281,53	888,00
-2271,53	803,00
-2261,53	932,00
-2251,55	871,00
-2241,59	924,00
-2231,64	891,00
-2221,70	812,00
-2211,78	885,00
-2201,87	880,00
-2191,97	923,00
-2182,09	901,00
-2172,22	970,00
-2162,37	866,00
-2152,53	760,00
-2142,70	813,00
-2132,89	859,00
-2123,09	988,00
-2113,30	866,00
-2103,53	871,00
-2093,77	903,00
-2084,02	867,00
-2074,29	945,00
-2064,57	878,00
-2054,86	921,00
-2045,17	920,00
-2035,49	962,00
-2025,82	842,00
-2016,17	868,00
-2006,53	845,00
-1996,91	887,00
-1987,29	836,00
-1977,69	851,00
-1968,11	850,00
-1958,53	817,00
-1948,97	883,00
-1939,42	948,00
-1929,89	844,00
-1920,37	844,00
-1910,86	864,00
-1901,36	870,00
-1891,88	976,00
-1882,41	856,00
-1872,95	947,00
-1863,51	931,00
-1854,08	908,00
-1844,66	969,00
-1835,26	909,00
-1825,86	1006,00
-1816,48	814,00
-1807,11	871,00
-1797,76	979,00
-1788,42	932,00
-1779,09	930,00
-1769,77	861,00
-1760,47	1027,00
-1751,17	850,00
-1741,89	919,00
-1732,63	966,00
-1723,37	1019,00
-1714,13	917,00
-1704,90	849,00
-1695,68	1027,00
-1686,48	735,00
-1677,29	916,00
-1668,11	1056,00
-1658,94	818,00
-1649,78	891,00
-1640,64	943,00
-1631,51	874,00
-1622,39	911,00
-1613,28	792,00
-1604,19	1024,00
-1595,10	838,00
-1586,03	925,00
-1576,97	910,00
-1567,93	846,00
-1558,89	1005,00
-1549,87	935,00
-1540,86	867,00
-1531,86	925,00
-1522,87	835,00
-1513,90	955,00
-1504,93	969,00
-1495,98	925,00
-1487,04	973,00
-1478,12	841,00
-1469,20	897,00
-1460,30	946,00
-1451,40	1007,00
-1442,52	917,00
-1433,65	992,00
-1424,80	878,00
-1415,95	828,00
-1407,12	1085,00
-1398,30	841,00
-1389,48	937,00
-1380,69	816,00
-1371,90	972,00
-1363,12	945,00
-1354,36	1066,00
-1345,60	877,00
-1336,86	935,00
-1328,13	1060,00
-1319,41	903,00
-1310,70	806,00
-1302,01	822,00
-1293,32	838,00
-1284,65	879,00
-1275,99	974,00
-1267,33	1052,00
-1258,69	952,00
-1250,06	925,00
-1241,45	765,00
-1232,84	1012,00
-1224,25	918,00
-1215,66	898,00
-1207,09	987,00
-1198,53	817,00
-1189,97	922,00
-1181,43	883,00
-1172,91	900,00
-1164,39	953,00
-1155,88	747,00
-1147,38	806,00
-1138,90	948,00
-1130,43	782,00
-1121,96	848,00
-1113,51	856,00
-1105,07	803,00
-1096,64	968,00
-1088,22	924,00
-1079,81	994,00
-1071,41	953,00
-1063,02	866,00
-1054,65	1013,00
-1046,28	857,00
-1037,92	888,00
-1029,58	973,00
-1021,24	903,00
-1012,92	1201,00
-1004,61	890,00
-996,30	1115,00
-988,01	822,00
-979,73	875,00
-971,46	962,00
-963,20	836,00
-954,95	770,00
-946,71	928,00
-938,48	945,00
-930,26	900,00
-922,06	969,00
-913,86	881,00
-905,67	771,00
-897,49	940,00
-889,33	732,00
-881,17	981,00
-873,02	920,00
-864,89	792,00
-856,76	874,00
-848,65	965,00
-840,54	1039,00
-832,45	978,00
-824,36	730,00
-816,29	977,00
-808,22	960,00
-800,17	978,00
-792,12	883,00
-784,09	1001,00
-776,06	788,00
-768,05	949,00
-760,04	777,00
-752,05	947,00
-744,07	931,00
-736,09	964,00
-728,13	720,00
-720,17	827,00
-712,23	819,00
-704,29	800,00
-696,37	923,00
-688,45	995,00
-680,55	856,00
-672,65	869,00
-664,77	898,00
-656,89	879,00
-649,03	798,00
-641,17	918,00
-633,32	882,00
-625,49	977,00
-617,66	876,00
-609,84	1023,00
-602,03	831,00
-594,23	916,00
-586,45	929,00
-578,67	929,00
-570,90	876,00
-563,14	844,00
-555,39	952,00
-547,65	943,00
-539,91	946,00
-532,19	902,00
-524,48	903,00
-516,78	826,00
-509,08	925,00
-501,40	869,00
-493,72	929,00
-486,06	837,00
-478,40	1030,00
-470,76	814,00
-463,12	885,00
-455,49	872,00
-447,87	852,00
-440,26	864,00
-432,66	872,00
-425,07	979,00
-417,49	986,00
-409,92	764,00
-402,35	761,00
-394,80	782,00
-387,25	951,00
-379,72	953,00
-372,19	911,00
-364,67	1037,00
-357,17	909,00
-349,67	974,00
-342,18	891,00
-334,69	959,00
-327,22	888,00
-319,76	890,00
-312,30	872,00
-304,86	896,00
-297,42	938,00
-290,00	895,00
-282,58	919,00
-275,17	979,00
-267,77	999,00
-260,37	916,00
-252,99	1037,00
-245,62	1054,00
-238,25	880,00
-230,90	937,00
-223,55	1027,00
-216,21	983,00
-208,88	1258,00
-201,56	957,00
-194,25	1024,00
-186,94	1070,00
-179,65	992,00
-172,36	1140,00
-165,08	1145,00
-157,81	1261,00
-150,55	1238,00
-143,30	1261,00
-136,06	1187,00
-128,82	1290,00
-121,60	1343,00
-114,38	1415,00
-107,17	1548,00
-99,97	1735,00
-92,78	1682,00
-85,60	1843,00
-78,42	2043,00
-71,25	2150,00
-64,10	2339,00
-56,95	2580,00
-49,81	2895,00
-42,67	3540,00
-35,55	4111,00
-28,43	5261,00
-21,33	8233,00
-14,23	25404,00
-7,14	57498,00
-0,05	57284,00
7,02	57012,00
14,09	57319,00
21,14	21432,00
28,19	9481,00
35,23	6331,00
42,27	5185,00
49,29	4327,00
56,31	3716,00
63,32	3402,00
70,32	2914,00
77,31	2648,00
84,29	2245,00
91,27	2142,00
98,23	2122,00
105,19	1968,00
112,14	2173,00
119,09	2848,00
126,02	4045,00
132,95	4478,00
139,87	4438,00
146,78	4676,00
153,68	4494,00
160,58	4344,00
167,46	4238,00
174,34	4374,00
181,21	4268,00
188,08	4133,00
194,93	4245,00
201,78	4247,00
208,62	4314,00
215,45	4229,00
222,27	4232,00
229,09	4270,00
235,90	4048,00
242,70	4010,00
249,49	4213,00
256,27	3897,00
263,05	3893,00
269,82	3787,00
276,58	3761,00
283,33	3658,00
290,08	3644,00
296,82	3665,00
303,55	3491,00
310,27	3410,00
316,98	3481,00
323,69	3501,00
330,39	3309,00
337,08	3426,00
343,76	3410,00
350,44	3421,00
357,11	3411,00
363,77	3451,00
370,42	3326,00
377,07	3359,00
383,71	3321,00
390,34	3341,00
396,96	3428,00
403,58	3320,00
410,19	3585,00
416,79	3654,00
423,38	3780,00
429,97	3645,00
436,55	3579,00
443,12	3755,00
449,68	3709,00
456,24	3548,00
462,79	3438,00
469,33	3325,00
475,86	3133,00
482,39	3068,00
488,91	3083,00
495,42	2880,00
501,93	2986,00
508,42	2860,00
514,91	2882,00
521,40	2916,00
527,87	2912,00
534,34	2761,00
540,80	2837,00
547,25	2864,00
553,70	2800,00
560,14	2904,00
566,57	2895,00
573,00	2905,00
579,41	2992,00
585,83	2992,00
592,23	3091,00
598,62	3118,00
605,01	3163,00
611,40	3177,00
617,77	3234,00
624,14	3048,00
630,50	2935,00
636,85	2937,00
643,20	2869,00
649,54	2674,00
655,87	2666,00
662,20	2637,00
668,52	2615,00
674,83	2699,00
681,13	2568,00
687,43	2614,00
693,72	2515,00
700,00	2455,00
706,28	2516,00
712,55	2560,00
718,81	2776,00
725,07	2560,00
731,32	2477,00
737,56	2596,00
743,79	2524,00
750,02	2560,00
756,24	2465,00
762,46	2400,00
768,67	2729,00
774,87	2565,00
781,06	2449,00
787,25	2490,00
793,43	2501,00
799,60	2412,00
805,77	2589,00
811,93	2385,00
818,08	2455,00
824,23	2421,00
830,37	2744,00
836,50	2497,00
842,63	2565,00
848,75	2481,00
854,87	2507,00
860,97	2607,00
867,07	2544,00
873,17	2550,00
879,25	2575,00
885,33	2607,00
891,41	2702,00
897,47	2626,00
903,53	2502,00
909,59	2555,00
915,63	2426,00
921,67	2439,00
927,71	2513,00
933,74	2568,00
939,76	2158,00
945,77	2315,00
951,78	2499,00
957,78	2318,00
963,78	2444,00
969,77	2313,00
975,75	2167,00
981,72	2290,00
987,69	3691,00
993,66	2397,00
999,61	2446,00
1005,56	2392,00
1011,51	2350,00
1017,44	2376,00
1023,37	2342,00
1029,30	2348,00
1035,22	2465,00
1041,13	2463,00
1047,03	2753,00
1052,93	3169,00
1058,83	4485,00
1064,71	4925,00
1070,59	4178,00
1076,47	3371,00
1082,33	3180,00
1088,20	3049,00
1094,05	2847,00
1099,90	2583,00
1105,74	2689,00
1111,58	2628,00
1117,41	2927,00
1123,23	3910,00
1129,05	4663,00
1134,86	4277,00
1140,67	3238,00
1146,47	2688,00
1152,26	2488,00
1158,05	2415,00
1163,83	2523,00
1169,60	2660,00
1175,37	2602,00
1181,13	2457,00
1186,89	2293,00
1192,64	2276,00
1198,38	2429,00
1204,12	2176,00
1209,85	2272,00
1215,58	2291,00
1221,30	2261,00
1227,02	2290,00
1232,72	2296,00
1238,43	2169,00
1244,12	2272,00
1249,81	2190,00
1255,50	2422,00
1261,17	2315,00
1266,85	2400,00
1272,51	2481,00
1278,17	2762,00
1283,83	2976,00
1289,47	4413,00
1295,12	5873,00
1300,75	5385,00
1306,38	4114,00
1312,01	3312,00
1317,63	2764,00
1323,24	2681,00
1328,85	2516,00
1334,45	2381,00
1340,04	2413,00
1345,63	2391,00
1351,22	2513,00
1356,80	2406,00
1362,37	2554,00
1367,93	2556,00
1373,49	2624,00
1379,05	2403,00
1384,60	2375,00
1390,14	2369,00
1395,68	2454,00
1401,21	2400,00
1406,74	2640,00
1412,26	3268,00
1417,77	3904,00
1423,28	3676,00
1428,78	4151,00
1434,28	5157,00
1439,77	5888,00
1445,26	5846,00
1450,74	5450,00
1456,22	5034,00
1461,68	4802,00
1467,15	4452,00
1472,61	3763,00
1478,06	3416,00
1483,51	2882,00
1488,95	2493,00
1494,38	2569,00
1499,81	2286,00
1505,24	2171,00
1510,65	2178,00
1516,07	2208,00
1521,48	2104,00
1526,88	2056,00
1532,27	2104,00
1537,67	1993,00
1543,05	2087,00
1548,43	1945,00
1553,81	2132,00
1559,18	1858,00
1564,54	2027,00
1569,90	1951,00
1575,25	1806,00
1580,60	1783,00
1585,94	1996,00
1591,28	1920,00
1596,61	1891,00
1601,93	1872,00
1607,25	1984,00
1612,57	1894,00
1617,88	1877,00
1623,18	1949,00
1628,48	1823,00
1633,77	1872,00
1639,06	1926,00
1644,34	1803,00
1649,62	1730,00
1654,89	1936,00
1660,16	1653,00
1665,42	1928,00
1670,67	1785,00
1675,92	1657,00
1681,17	1683,00
1686,41	1818,00
1691,64	1807,00
1696,87	1812,00
1702,10	1717,00
1707,32	1727,00
1712,53	1650,00
1717,74	1754,00
1722,94	1811,00
1728,14	1666,00
1733,33	1681,00
1738,52	1552,00
1743,70	1730,00
1748,88	1656,00
1754,05	1736,00
1759,22	1629,00
1764,38	2052,00
1769,53	1687,00
1774,69	1793,00
1779,83	1592,00
1784,97	1624,00
1790,11	1607,00
1795,24	1540,00
1800,36	1628,00
1805,48	1554,00
1810,60	1625,00
1815,71	1605,00
1820,82	1504,00
1825,92	1626,00
1831,01	1611,00
1836,10	1567,00
1841,19	1572,00
1846,26	1388,00
1851,34	1607,00
1856,41	1520,00
1861,47	1570,00
1866,53	1704,00
1871,59	1466,00
1876,64	1561,00
1881,68	1557,00
1886,72	1450,00
1891,76	1399,00
1896,79	1466,00
1901,81	1425,00
1906,83	1531,00
1911,85	1386,00
1916,86	1390,00
1921,86	1406,00
1926,86	1457,00
1931,86	1552,00
1936,85	1404,00
1941,83	1533,00
1946,81	1395,00
1951,79	1364,00
1956,76	1374,00
1961,72	1262,00
1966,68	1422,00
1971,64	1370,00
1976,59	1389,00
1981,54	1390,00
1986,48	1371,00
1991,42	1243,00
1996,35	1602,00
2001,27	1377,00
2006,20	1326,00
2011,11	1452,00
2016,03	1293,00
2020,93	1218,00
2025,84	1418,00
2030,73	1393,00
2035,63	1241,00
2040,52	1336,00
2045,40	1211,00
2050,28	1392,00
2055,15	1375,00
2060,02	1198,00
2064,89	1390,00
2069,75	1401,00
2074,60	1357,00
2079,46	1190,00
2084,30	1266,00
2089,14	1229,00
2093,98	1363,00
2098,81	1281,00
2103,64	1364,00
2108,46	1322,00
2113,28	1387,00
2118,09	1263,00
2122,90	1284,00
2127,70	1228,00
2132,50	1326,00
2137,30	1209,00
2142,09	1242,00
2146,87	1202,00
2151,66	1287,00
2156,43	1288,00
2161,20	1249,00
2165,97	1376,00
2170,73	1256,00
2175,49	1433,00
2180,24	1480,00
2184,99	1376,00
2189,74	1414,00
2194,48	1405,00
2199,21	1466,00
2203,94	1304,00
2208,67	1272,00
2213,39	1196,00
2218,11	1295,00
2222,82	1307,00
2227,53	1288,00
2232,23	1254,00
2236,93	1393,00
2241,63	1181,00
2246,32	1457,00
2251,00	1307,00
2255,68	1315,00
2260,36	1223,00
2265,03	1280,00
2269,70	1461,00
2274,36	1216,00
2279,02	1328,00
2283,68	1253,00
2288,33	1182,00
2292,97	1253,00
2297,61	1168,00
2302,25	1324,00
2306,88	1187,00
2311,51	1094,00
2316,14	1146,00
2320,75	1080,00
2325,37	1132,00
2329,98	1323,00
2334,59	1237,00
2339,19	1162,00
2343,79	1084,00
2348,38	1179,00
2352,97	1109,00
2357,55	1181,00
2362,13	1150,00
2366,71	1143,00
2371,28	1292,00
2375,85	1215,00
2380,41	1164,00
2384,97	1245,00
2389,52	1334,00
2394,07	1241,00
2398,62	1162,00
2403,16	1220,00
2407,70	1065,00
2412,23	1124,00
2416,76	1269,00
2421,29	1249,00
2425,81	1233,00
2430,32	1201,00
2434,84	1111,00
2439,34	1156,00
2443,85	1362,00
2448,35	1179,00
2452,84	1074,00
2457,33	1207,00
2461,82	1070,00
2466,30	1128,00
2470,78	1228,00
2475,25	1199,00
2479,72	1161,00
2484,19	1239,00
2488,65	1165,00
2493,11	1039,00
2497,56	1279,00
2502,01	1024,00
2506,46	1235,00
2510,90	1112,00
2515,34	1079,00
2519,77	1143,00
2524,20	1169,00
2528,62	1182,00
2533,04	1180,00
2537,46	1117,00
2541,87	1116,00
2546,28	1165,00
2550,68	1157,00
2555,08	1162,00
2559,48	1173,00
2563,87	1175,00
2568,26	1046,00
2572,64	1239,00
2577,02	1181,00
2581,40	1027,00
2585,77	1241,00
2590,14	1089,00
2594,50	1121,00
2598,86	1233,00
2603,22	1230,00
2607,57	1121,00
2611,92	1195,00
2616,26	1305,00
2620,60	1279,00
2624,94	1184,00
2629,27	1230,00
2633,60	1145,00
2637,92	1374,00
2642,24	1379,00
2646,56	1231,00
2650,87	1077,00
2655,18	1274,00
2659,48	1158,00
2663,78	1229,00
2668,08	1176,00
2672,37	1212,00
2676,66	1232,00
2680,95	1171,00
2685,23	1317,00
2689,50	1235,00
2693,78	1313,00
2698,05	1241,00
2702,31	1406,00
2706,57	1497,00
2710,83	1491,00
2715,08	1547,00
2719,33	1491,00
2723,58	1489,00
2727,82	1531,00
2732,06	1456,00
2736,29	1509,00
2740,53	1423,00
2744,75	1385,00
2748,97	1348,00
2753,19	1367,00
2757,41	1402,00
2761,62	1475,00
2765,83	1368,00
2770,03	1310,00
2774,23	1505,00
2778,43	1351,00
2782,62	1412,00
2786,81	1414,00
2791,00	1371,00
2795,18	1520,00
2799,35	1516,00
2803,53	1591,00
2807,70	1607,00
2811,86	1670,00
2816,03	1801,00
2820,19	1854,00
2824,34	1859,00
2828,49	1999,00
2832,64	2227,00
2836,78	2864,00
2840,92	3151,00
2845,06	3762,00
2849,19	4333,00
2853,32	4325,00
2857,45	4255,00
2861,57	4249,00
2865,69	4223,00
2869,80	4028,00
2873,91	4141,00
2878,02	4609,00
2882,12	5006,00
2886,22	4985,00
2890,32	4672,00
2894,41	4401,00
2898,50	4060,00
2902,58	3827,00
2906,67	3630,00
2910,74	3220,00
2914,82	3082,00
2918,89	3030,00
2922,96	2687,00
2927,02	2537,00
2931,08	2401,00
2935,13	2248,00
2939,19	2265,00
2943,24	1998,00
2947,28	2079,00
2951,32	1742,00
2955,36	1653,00
2959,40	1655,00
2963,43	1571,00
2967,46	1508,00
2971,48	1521,00
2975,50	1386,00
2979,52	1393,00
2983,53	1414,00
2987,54	1336,00
2991,55	1301,00
2995,55	1244,00
2999,55	1197,00
3003,54	1150,00
3007,54	1166,00
3011,53	1125,00
3015,51	1127,00
3019,49	1201,00
3023,47	974,00
3027,45	1176,00
3031,42	1109,00
3035,39	991,00
3039,35	984,00
3043,31	1166,00
3047,27	1056,00
3051,22	1058,00
3055,17	986,00
3059,12	961,00
3063,06	1084,00
3067,00	926,00
3070,94	1035,00
3074,87	1060,00
3078,80	986,00
3082,73	1032,00
3086,65	999,00
3090,57	957,00
3094,49	987,00
3098,40	977,00
3102,31	920,00
3106,22	983,00
3110,12	928,00
3114,02	869,00
3117,92	1012,00
3121,81	914,00
3125,70	974,00
3129,58	880,00
3133,47	862,00
3137,34	972,00
3141,22	1011,00
3145,09	994,00
3148,96	974,00
3152,83	975,00
3156,69	966,00
3160,55	919,00
3164,40	987,00
3168,26	919,00
3172,10	1027,00
3175,95	915,00
3179,79	982,00
3183,63	1035,00
3187,47	892,00
3191,30	966,00
3195,13	924,00
3198,95	872,00
3202,78	975,00
3206,60	884,00
3210,41	871,00
3214,23	936,00
3218,03	978,00
3221,84	1001,00
3225,64	920,00
3229,44	889,00
3233,24	957,00
3237,03	906,00
3240,82	818,00
3244,61	944,00
3248,39	895,00
3252,17	946,00
3255,95	1042,00
3259,72	939,00
3263,49	1109,00
3267,26	926,00
3271,03	961,00
3274,79	909,00
3278,54	976,00
3282,30	816,00
3286,05	952,00
3289,80	925,00
3293,54	933,00
3297,29	888,00
3301,02	924,00
3304,76	915,00
3308,49	934,00
3312,22	817,00
3315,95	906,00
3319,67	852,00
3323,39	1060,00
3327,10	916,00
3330,82	939,00
3334,53	874,00
3338,24	937,00
3341,94	891,00
3345,64	961,00
3349,34	900,00
3353,03	951,00
3356,72	936,00
3360,41	956,00
3364,10	833,00
3367,78	873,00
3371,46	807,00
3375,13	885,00
3378,81	972,00
3382,48	909,00
3386,14	1048,00
3389,81	959,00
3393,47	857,00
3397,12	997,00
3400,78	1009,00
3404,43	852,00
3408,08	938,00
3411,72	858,00
3415,36	802,00
3419,00	871,00
3422,64	865,00
3426,27	886,00
3429,90	985,00
3433,53	851,00
3437,15	983,00
3440,77	837,00
3444,39	873,00
3448,00	917,00
3451,62	907,00
3455,22	919,00
3458,83	858,00
3462,43	873,00
3466,03	994,00
3469,63	793,00
3473,22	808,00
3476,81	824,00
3480,40	950,00
3483,99	810,00
3487,57	925,00
3491,15	911,00
3494,72	1020,00
3498,29	922,00
3501,86	803,00
3505,43	849,00
3508,99	812,00
3512,56	729,00
3516,11	864,00
3519,67	883,00
3523,22	917,00
3526,77	773,00
3530,32	986,00
3533,86	944,00
3537,40	923,00
3540,94	837,00
3544,47	893,00
3548,00	825,00
3551,53	941,00
3555,06	849,00
3558,58	971,00
3562,10	908,00
3565,62	754,00
3569,13	859,00
3572,64	1027,00
3576,15	748,00
3579,66	893,00
3583,16	888,00
3586,66	833,00
3590,16	863,00
3593,65	813,00
3597,14	780,00
3600,63	870,00
3604,11	904,00
3607,60	821,00
3611,08	893,00
3614,55	891,00
3618,03	840,00
3621,50	829,00
3624,97	721,00
3628,43	798,00
3631,90	794,00
3635,36	714,00
3638,81	814,00
3642,27	854,00
3645,72	816,00
3649,17	776,00
3652,61	736,00
3656,06	763,00
3659,50	846,00
3662,93	803,00
3666,37	905,00
3669,80	1072,00
3673,23	765,00
3676,65	936,00
3680,08	877,00
3683,50	760,00
3686,92	794,00
3690,33	778,00
3693,74	758,00
3697,15	763,00
3700,56	780,00
3703,96	909,00
3707,36	754,00
3710,76	729,00
3714,16	758,00
3717,55	841,00
3720,94	750,00
3724,33	724,00
3727,71	772,00
3731,10	755,00
3734,48	873,00
3737,85	687,00
3741,23	729,00
3744,60	710,00
3747,97	652,00
3751,33	856,00
3754,69	738,00
3758,05	797,00
3761,41	702,00
3764,77	643,00
3768,12	710,00
3771,47	709,00
3774,82	716,00
3778,16	-3,00
3781,50	14,00
3784,84	8,00
3788,18	12,00
>>>>>End Processed Spectral Data<<<<<
