SpectraSuite Data File
++++++++++++++++++++++++++++++++++++
Date: Mon Jan 05 16:31:46 ICT 2026
User: Administrator
Dark Spectrum Present: Yes
Reference Spectrum Present: No
Number of Sampled Component Spectra: 1
Spectrometers: MAYP113682
Integration Time (usec): 3000000 (MAYP113682)
Spectra Averaged: 1 (MAYP113682)
Boxcar Smoothing: 0 (MAYP113682)
Correct for Electrical Dark: No (MAYP113682)
Strobe/Lamp Enabled: No (MAYP113682)
Correct for Detector Non-linearity: No (MAYP113682)
Correct for Stray Light: No (MAYP113682)
Number of Pixels in Processed Spectrum: 2068
>>>>>Begin Processed Spectral Data<<<<<
-37534,58	32,00
-37414,56	8,00
-37295,11	13,00
-37176,24	6,00
-37057,95	565,00
-36940,22	584,00
-36823,05	646,00
-36706,45	675,00
-36590,40	771,00
-36474,90	585,00
-36359,95	772,00
-36245,55	711,00
-36131,68	684,00
-36018,35	749,00
-35905,55	732,00
-35793,29	848,00
-35681,54	620,00
-35570,32	673,00
-35459,62	703,00
-35349,43	852,00
-35239,75	732,00
-35130,58	645,00
-35021,91	765,00
-34913,74	710,00
-34806,07	742,00
-34698,89	730,00
-34592,20	680,00
-34486,00	756,00
-34380,28	798,00
-34275,04	664,00
-34170,27	724,00
-34065,98	824,00
-33962,16	707,00
-33858,81	822,00
-33755,92	780,00
-33653,49	833,00
-33551,52	831,00
-33450,01	761,00
-33348,94	799,00
-33248,33	727,00
-33148,16	826,00
-33048,43	698,00
-32949,14	871,00
-32850,29	861,00
-32751,87	769,00
-32653,89	810,00
-32556,33	865,00
-32459,20	723,00
-32362,49	761,00
-32266,19	819,00
-32170,32	736,00
-32074,86	848,00
-31979,82	842,00
-31885,18	944,00
-31790,95	878,00
-31697,12	850,00
-31603,69	849,00
-31510,67	904,00
-31418,04	757,00
-31325,80	772,00
-31233,95	735,00
-31142,49	727,00
-31051,42	716,00
-30960,73	930,00
-30870,43	954,00
-30780,50	833,00
-30690,95	858,00
-30601,77	957,00
-30512,97	854,00
-30424,53	823,00
-30336,46	812,00
-30248,76	807,00
-30161,42	885,00
-30074,44	838,00
-29987,81	825,00
-29901,55	912,00
-29815,63	781,00
-29730,07	790,00
-29644,86	853,00
-29560,00	908,00
-29475,48	842,00
-29391,30	793,00
-29307,47	761,00
-29223,97	784,00
-29140,81	826,00
-29057,99	798,00
-28975,50	699,00
-28893,34	832,00
-28811,51	772,00
-28730,00	880,00
-28648,82	758,00
-28567,97	855,00
-28487,43	796,00
-28407,21	778,00
-28327,32	770,00
-28247,73	942,00
-28168,46	785,00
-28089,50	864,00
-28010,85	778,00
-27932,51	737,00
-27854,48	837,00
-27776,75	672,00
-27699,32	781,00
-27622,19	772,00
-27545,37	829,00
-27468,84	863,00
-27392,60	792,00
-27316,66	833,00
-27241,01	739,00
-27165,66	765,00
-27090,59	700,00
-27015,81	916,00
-26941,31	815,00
-26867,10	741,00
-26793,17	934,00
-26719,52	816,00
-26646,15	768,00
-26573,06	816,00
-26500,24	748,00
-26427,70	899,00
-26355,43	828,00
-26283,43	811,00
-26211,71	819,00
-26140,25	805,00
-26069,06	874,00
-25998,13	769,00
-25927,46	813,00
-25857,06	771,00
-25786,92	822,00
-25717,04	731,00
-25647,42	756,00
-25578,05	737,00
-25508,94	748,00
-25440,09	788,00
-25371,48	843,00
-25303,13	872,00
-25235,02	809,00
-25167,17	767,00
-25099,56	833,00
-25032,19	820,00
-24965,07	697,00
-24898,20	651,00
-24831,56	661,00
-24765,17	816,00
-24699,01	722,00
-24633,10	842,00
-24567,41	765,00
-24501,97	805,00
-24436,75	736,00
-24371,77	707,00
-24307,03	677,00
-24242,51	738,00
-24178,22	672,00
-24114,16	736,00
-24050,32	918,00
-23986,71	787,00
-23923,32	805,00
-23860,16	809,00
-23797,22	751,00
-23734,50	812,00
-23672,00	788,00
-23609,71	778,00
-23547,65	739,00
-23485,80	842,00
-23424,16	640,00
-23362,74	900,00
-23301,53	794,00
-23240,54	701,00
-23179,75	729,00
-23119,17	725,00
-23058,80	727,00
-22998,64	832,00
-22938,68	717,00
-22878,93	810,00
-22819,39	771,00
-22760,04	764,00
-22700,90	807,00
-22641,96	736,00
-22583,22	774,00
-22524,68	765,00
-22466,33	697,00
-22408,19	815,00
-22350,23	767,00
-22292,48	749,00
-22234,92	773,00
-22177,55	824,00
-22120,37	896,00
-22063,38	820,00
-22006,58	759,00
-21949,98	784,00
-21893,56	664,00
-21837,33	779,00
-21781,28	732,00
-21725,42	755,00
-21669,74	802,00
-21614,25	818,00
-21558,94	799,00
-21503,81	787,00
-21448,86	892,00
-21394,10	760,00
-21339,51	729,00
-21285,10	656,00
-21230,86	725,00
-21176,81	694,00
-21122,93	787,00
-21069,22	750,00
-21015,69	784,00
-20962,33	845,00
-20909,14	750,00
-20856,13	714,00
-20803,28	810,00
-20750,61	735,00
-20698,10	743,00
-20645,76	796,00
-20593,59	786,00
-20541,59	830,00
-20489,75	773,00
-20438,07	719,00
-20386,56	744,00
-20335,22	740,00
-20284,03	766,00
-20233,01	804,00
-20182,15	700,00
-20131,45	760,00
-20080,91	679,00
-20030,52	735,00
-19980,30	715,00
-19930,23	736,00
-19880,32	691,00
-19830,56	818,00
-19780,96	730,00
-19731,52	728,00
-19682,23	792,00
-19633,09	742,00
-19584,10	676,00
-19535,26	696,00
-19486,58	842,00
-19438,04	715,00
-19389,66	885,00
-19341,42	758,00
-19293,33	800,00
-19245,39	752,00
-19197,60	857,00
-19149,95	753,00
-19102,45	804,00
-19055,09	695,00
-19007,87	736,00
-18960,80	816,00
-18913,87	777,00
-18867,09	834,00
-18820,44	884,00
-18773,94	797,00
-18727,57	830,00
-18681,35	743,00
-18635,26	742,00
-18589,31	648,00
-18543,50	747,00
-18497,83	768,00
-18452,29	827,00
-18406,89	622,00
-18361,63	856,00
-18316,50	763,00
-18271,50	726,00
-18226,63	833,00
-18181,90	859,00
-18137,30	872,00
-18092,84	756,00
-18048,50	792,00
-18004,29	724,00
-17960,22	752,00
-17916,27	763,00
-17872,45	795,00
-17828,76	895,00
-17785,20	793,00
-17741,77	767,00
-17698,46	792,00
-17655,28	756,00
-17612,22	793,00
-17569,29	757,00
-17526,48	859,00
-17483,79	837,00
-17441,23	769,00
-17398,79	697,00
-17356,48	786,00
-17314,28	804,00
-17272,21	777,00
-17230,26	757,00
-17188,42	794,00
-17146,71	766,00
-17105,12	732,00
-17063,64	823,00
-17022,28	674,00
-16981,04	687,00
-16939,92	847,00
-16898,91	859,00
-16858,02	711,00
-16817,25	746,00
-16776,59	779,00
-16736,04	735,00
-16695,61	737,00
-16655,29	731,00
-16615,09	724,00
-16574,99	689,00
-16535,01	752,00
-16495,15	860,00
-16455,39	795,00
-16415,74	718,00
-16376,21	728,00
-16336,78	806,00
-16297,46	724,00
-16258,26	758,00
-16219,16	763,00
-16180,17	846,00
-16141,28	751,00
-16102,51	768,00
-16063,84	741,00
-16025,27	756,00
-15986,82	640,00
-15948,46	775,00
-15910,22	745,00
-15872,07	716,00
-15834,04	717,00
-15796,10	888,00
-15758,27	905,00
-15720,54	790,00
-15682,91	722,00
-15645,39	899,00
-15607,97	772,00
-15570,64	697,00
-15533,42	813,00
-15496,30	768,00
-15459,28	880,00
-15422,36	776,00
-15385,54	681,00
-15348,82	775,00
-15312,19	900,00
-15275,66	695,00
-15239,23	834,00
-15202,90	710,00
-15166,67	728,00
-15130,53	799,00
-15094,48	801,00
-15058,54	696,00
-15022,68	760,00
-14986,93	674,00
-14951,26	801,00
-14915,69	807,00
-14880,22	723,00
-14844,84	796,00
-14809,55	777,00
-14774,35	785,00
-14739,25	824,00
-14704,24	807,00
-14669,32	645,00
-14634,49	665,00
-14599,75	853,00
-14565,10	753,00
-14530,55	811,00
-14496,08	871,00
-14461,70	822,00
-14427,41	737,00
-14393,21	672,00
-14359,10	736,00
-14325,07	711,00
-14291,14	694,00
-14257,29	776,00
-14223,52	798,00
-14189,85	789,00
-14156,26	825,00
-14122,76	659,00
-14089,34	743,00
-14056,01	779,00
-14022,76	668,00
-13989,60	808,00
-13956,52	836,00
-13923,53	781,00
-13890,62	718,00
-13857,79	774,00
-13825,05	704,00
-13792,39	666,00
-13759,81	792,00
-13727,31	775,00
-13694,90	787,00
-13662,57	843,00
-13630,31	896,00
-13598,14	804,00
-13566,05	775,00
-13534,05	712,00
-13502,12	907,00
-13470,27	815,00
-13438,50	884,00
-13406,80	743,00
-13375,19	715,00
-13343,66	740,00
-13312,20	772,00
-13280,83	682,00
-13249,53	802,00
-13218,30	630,00
-13187,16	768,00
-13156,09	924,00
-13125,10	775,00
-13094,18	792,00
-13063,34	825,00
-13032,58	715,00
-13001,89	874,00
-12971,28	825,00
-12940,74	740,00
-12910,27	783,00
-12879,88	790,00
-12849,57	932,00
-12819,33	815,00
-12789,16	834,00
-12759,06	818,00
-12729,04	742,00
-12699,09	1997,00
-12669,21	758,00
-12639,41	750,00
-12609,68	703,00
-12580,02	806,00
-12550,43	796,00
-12520,91	739,00
-12491,46	778,00
-12462,08	671,00
-12432,77	794,00
-12403,54	718,00
-12374,37	686,00
-12345,27	907,00
-12316,24	746,00
-12287,29	829,00
-12258,40	712,00
-12229,57	871,00
-12200,82	687,00
-12172,14	839,00
-12143,52	658,00
-12114,97	727,00
-12086,49	780,00
-12058,07	888,00
-12029,73	718,00
-12001,44	837,00
-11973,23	858,00
-11945,08	795,00
-11917,00	833,00
-11888,98	738,00
-11861,03	753,00
-11833,15	739,00
-11805,32	840,00
-11777,57	730,00
-11749,88	824,00
-11722,25	695,00
-11694,69	695,00
-11667,19	790,00
-11639,75	889,00
-11612,38	665,00
-11585,07	704,00
-11557,83	763,00
-11530,65	933,00
-11503,53	664,00
-11476,47	831,00
-11449,48	761,00
-11422,54	912,00
-11395,67	762,00
-11368,86	829,00
-11342,11	728,00
-11315,43	763,00
-11288,80	747,00
-11262,23	831,00
-11235,73	711,00
-11209,28	904,00
-11182,90	752,00
-11156,57	741,00
-11130,31	949,00
-11104,10	729,00
-11077,96	723,00
-11051,87	751,00
-11025,84	676,00
-10999,87	787,00
-10973,96	718,00
-10948,11	662,00
-10922,31	839,00
-10896,58	850,00
-10870,90	894,00
-10845,28	817,00
-10819,71	719,00
-10794,20	871,00
-10768,75	840,00
-10743,36	809,00
-10718,02	761,00
-10692,74	755,00
-10667,52	742,00
-10642,35	785,00
-10617,24	920,00
-10592,18	891,00
-10567,18	806,00
-10542,23	877,00
-10517,34	843,00
-10492,51	903,00
-10467,72	809,00
-10443,00	900,00
-10418,32	910,00
-10393,70	921,00
-10369,14	889,00
-10344,63	852,00
-10320,17	972,00
-10295,77	958,00
-10271,42	948,00
-10247,12	927,00
-10222,88	989,00
-10198,68	889,00
-10174,54	989,00
-10150,46	1116,00
-10126,42	1124,00
-10102,44	981,00
-10078,51	981,00
-10054,63	1136,00
-10030,80	1060,00
-10007,03	1199,00
-9983,30	1196,00
-9959,63	1217,00
-9936,01	1270,00
-9912,44	1201,00
-9888,92	1261,00
-9865,44	1199,00
-9842,02	1281,00
-9818,65	1334,00
-9795,33	1265,00
-9772,06	1386,00
-9748,84	1321,00
-9725,67	1334,00
-9702,55	1533,00
-9679,47	1701,00
-9656,45	1773,00
-9633,47	1699,00
-9610,55	1780,00
-9587,67	1938,00
-9564,84	2216,00
-9542,06	2139,00
-9519,32	2338,00
-9496,64	2633,00
-9474,00	2594,00
-9451,41	2697,00
-9428,87	2730,00
-9406,37	2737,00
-9383,92	2537,00
-9361,52	2586,00
-9339,17	2768,00
-9316,86	3030,00
-9294,60	3512,00
-9272,38	3690,00
-9250,21	4015,00
-9228,09	4133,00
-9206,01	4246,00
-9183,98	3782,00
-9162,00	3512,00
-9140,06	3516,00
-9118,16	3443,00
-9096,31	3555,00
-9074,51	3827,00
-9052,75	3999,00
-9031,04	3789,00
-9009,37	3560,00
-8987,74	3166,00
-8966,16	3025,00
-8944,63	2667,00
-8923,14	2765,00
-8901,69	2672,00
-8880,29	2748,00
-8858,93	3195,00
-8837,61	3222,00
-8816,34	3386,00
-8795,11	3445,00
-8773,92	3011,00
-8752,78	3010,00
-8731,68	2729,00
-8710,62	2860,00
-8689,61	2751,00
-8668,63	3103,00
-8647,70	3236,00
-8626,82	3226,00
-8605,97	3151,00
-8585,17	3011,00
-8564,41	2777,00
-8543,69	2598,00
-8523,01	2468,00
-8502,37	2705,00
-8481,78	2676,00
-8461,23	2719,00
-8440,71	3080,00
-8420,24	3148,00
-8399,81	3319,00
-8379,42	3155,00
-8359,08	3174,00
-8338,77	2795,00
-8318,50	2563,00
-8298,27	2426,00
-8278,09	2625,00
-8257,94	2710,00
-8237,83	3029,00
-8217,76	2952,00
-8197,74	3065,00
-8177,75	3021,00
-8157,80	2642,00
-8137,89	2565,00
-8118,02	2438,00
-8098,19	2530,00
-8078,40	2541,00
-8058,65	2475,00
-8038,93	2624,00
-8019,26	2636,00
-7999,62	2585,00
-7980,02	2314,00
-7960,46	2218,00
-7940,94	2215,00
-7921,46	2191,00
-7902,01	2128,00
-7882,60	2276,00
-7863,23	2150,00
-7843,90	2224,00
-7824,61	2326,00
-7805,35	2508,00
-7786,13	2479,00
-7766,95	2437,00
-7747,80	2389,00
-7728,69	2222,00
-7709,62	2247,00
-7690,59	2368,00
-7671,59	2531,00
-7652,63	2349,00
-7633,70	2422,00
-7614,81	2430,00
-7595,96	2184,00
-7577,15	2087,00
-7558,37	2040,00
-7539,62	2215,00
-7520,91	2271,00
-7502,24	2310,00
-7483,60	2386,00
-7465,00	2253,00
-7446,44	2087,00
-7427,91	1839,00
-7409,41	1815,00
-7390,95	1734,00
-7372,53	1597,00
-7354,14	1764,00
-7335,78	1726,00
-7317,46	1852,00
-7299,18	1787,00
-7280,92	1964,00
-7262,71	2170,00
-7244,52	2228,00
-7226,38	2253,00
-7208,26	2063,00
-7190,18	2063,00
-7172,14	2007,00
-7154,12	1966,00
-7136,15	2010,00
-7118,20	2090,00
-7100,29	2255,00
-7082,41	2192,00
-7064,57	2185,00
-7046,76	2005,00
-7028,98	1762,00
-7011,24	1790,00
-6993,53	1456,00
-6975,85	1607,00
-6958,20	1397,00
-6940,59	1346,00
-6923,01	1324,00
-6905,46	1584,00
-6887,94	1657,00
-6870,46	1514,00
-6853,01	2006,00
-6835,59	2008,00
-6818,21	1771,00
-6800,85	1733,00
-6783,53	1510,00
-6766,24	1299,00
-6748,98	1367,00
-6731,76	1255,00
-6714,56	1175,00
-6697,40	1123,00
-6680,26	1118,00
-6663,16	1297,00
-6646,09	1511,00
-6629,05	1654,00
-6612,05	1795,00
-6595,07	1610,00
-6578,13	1716,00
-6561,21	1463,00
-6544,33	1357,00
-6527,47	1062,00
-6510,65	1164,00
-6493,86	944,00
-6477,10	1075,00
-6460,36	1266,00
-6443,66	1111,00
-6426,99	1117,00
-6410,35	1110,00
-6393,74	1211,00
-6377,16	1175,00
-6360,61	1344,00
-6344,09	1237,00
-6327,59	1354,00
-6311,13	1504,00
-6294,70	1414,00
-6278,29	1507,00
-6261,92	1429,00
-6245,58	1657,00
-6229,26	1702,00
-6212,97	1502,00
-6196,72	1266,00
-6180,49	1271,00
-6164,29	991,00
-6148,12	1055,00
-6131,98	1112,00
-6115,86	921,00
-6099,78	950,00
-6083,72	896,00
-6067,69	883,00
-6051,69	883,00
-6035,72	1033,00
-6019,78	1040,00
-6003,87	1304,00
-5987,98	1361,00
-5972,12	1392,00
-5956,29	1252,00
-5940,49	1135,00
-5924,71	1292,00
-5908,96	1112,00
-5893,24	1086,00
-5877,55	987,00
-5861,89	1062,00
-5846,25	829,00
-5830,64	1097,00
-5815,05	968,00
-5799,50	968,00
-5783,97	1019,00
-5768,47	1077,00
-5752,99	1311,00
-5737,55	1232,00
-5722,12	1361,00
-5706,73	1285,00
-5691,36	1315,00
-5676,02	1171,00
-5660,71	952,00
-5645,42	826,00
-5630,16	1111,00
-5614,92	1205,00
-5599,71	1115,00
-5584,53	1143,00
-5569,37	1177,00
-5554,24	2103,00
-5539,14	1126,00
-5524,06	1113,00
-5509,01	1106,00
-5493,98	1073,00
-5478,98	1146,00
-5464,00	1095,00
-5449,05	1023,00
-5434,13	1002,00
-5419,23	962,00
-5404,36	935,00
-5389,51	1099,00
-5374,69	1317,00
-5359,89	1399,00
-5345,12	1433,00
-5330,37	1414,00
-5315,65	1240,00
-5300,95	1277,00
-5286,28	1086,00
-5271,63	999,00
-5257,01	1081,00
-5242,41	1156,00
-5227,84	914,00
-5213,29	1043,00
-5198,76	853,00
-5184,26	976,00
-5169,79	855,00
-5155,33	1006,00
-5140,91	1052,00
-5126,51	1040,00
-5112,13	1177,00
-5097,77	1095,00
-5083,44	1128,00
-5069,13	920,00
-5054,85	1019,00
-5040,59	1048,00
-5026,36	1131,00
-5012,15	1194,00
-4997,96	1143,00
-4983,80	1025,00
-4969,66	882,00
-4955,54	783,00
-4941,44	1002,00
-4927,37	1118,00
-4913,33	1342,00
-4899,30	1372,00
-4885,30	1341,00
-4871,33	1087,00
-4857,37	958,00
-4843,44	808,00
-4829,53	964,00
-4815,65	1027,00
-4801,79	822,00
-4787,95	1105,00
-4774,13	955,00
-4760,34	913,00
-4746,56	942,00
-4732,82	903,00
-4719,09	963,00
-4705,38	1278,00
-4691,70	1301,00
-4678,04	1359,00
-4664,41	1236,00
-4650,79	1201,00
-4637,20	887,00
-4623,63	867,00
-4610,08	1028,00
-4596,56	1092,00
-4583,05	1034,00
-4569,57	1001,00
-4556,11	1025,00
-4542,67	816,00
-4529,25	894,00
-4515,86	886,00
-4502,49	1230,00
-4489,13	1189,00
-4475,80	1227,00
-4462,49	931,00
-4449,21	1039,00
-4435,94	881,00
-4422,70	823,00
-4409,47	931,00
-4396,27	1082,00
-4383,09	917,00
-4369,93	897,00
-4356,79	784,00
-4343,67	903,00
-4330,58	947,00
-4317,50	1061,00
-4304,45	920,00
-4291,41	944,00
-4278,40	849,00
-4265,41	765,00
-4252,44	938,00
-4239,49	782,00
-4226,55	1029,00
-4213,65	938,00
-4200,76	961,00
-4187,89	801,00
-4175,04	817,00
-4162,21	828,00
-4149,40	823,00
-4136,61	872,00
-4123,85	771,00
-4111,10	877,00
-4098,37	828,00
-4085,66	860,00
-4072,98	859,00
-4060,31	772,00
-4047,66	875,00
-4035,04	1025,00
-4022,43	873,00
-4009,84	801,00
-3997,27	691,00
-3984,72	847,00
-3972,19	891,00
-3959,69	807,00
-3947,20	747,00
-3934,73	756,00
-3922,27	759,00
-3909,84	835,00
-3897,43	804,00
-3885,04	862,00
-3872,67	800,00
-3860,31	759,00
-3847,98	850,00
-3835,66	760,00
-3823,36	794,00
-3811,09	722,00
-3798,83	766,00
-3786,59	778,00
-3774,37	879,00
-3762,17	713,00
-3749,98	782,00
-3737,82	717,00
-3725,67	973,00
-3713,55	768,00
-3701,44	857,00
-3689,35	780,00
-3677,28	871,00
-3665,22	706,00
-3653,19	731,00
-3641,17	849,00
-3629,18	833,00
-3617,20	853,00
-3605,24	832,00
-3593,30	844,00
-3581,37	858,00
-3569,47	785,00
-3557,58	814,00
-3545,71	905,00
-3533,86	804,00
-3522,02	712,00
-3510,21	883,00
-3498,41	800,00
-3486,63	853,00
-3474,87	822,00
-3463,12	766,00
-3451,40	815,00
-3439,69	863,00
-3428,00	856,00
-3416,33	868,00
-3404,67	755,00
-3393,03	799,00
-3381,41	845,00
-3369,81	792,00
-3358,22	767,00
-3346,66	904,00
-3335,10	831,00
-3323,57	720,00
-3312,06	925,00
-3300,56	864,00
-3289,08	732,00
-3277,61	760,00
-3266,16	814,00
-3254,73	812,00
-3243,32	784,00
-3231,92	718,00
-3220,55	839,00
-3209,18	931,00
-3197,84	713,00
-3186,51	699,00
-3175,20	739,00
-3163,90	768,00
-3152,63	810,00
-3141,36	725,00
-3130,12	825,00
-3118,89	836,00
-3107,68	713,00
-3096,49	832,00
-3085,31	767,00
-3074,15	816,00
-3063,00	880,00
-3051,87	827,00
-3040,76	753,00
-3029,67	919,00
-3018,59	1028,00
-3007,52	905,00
-2996,48	747,00
-2985,44	831,00
-2974,43	874,00
-2963,43	709,00
-2952,45	826,00
-2941,48	801,00
-2930,53	810,00
-2919,60	666,00
-2908,68	792,00
-2897,78	760,00
-2886,89	864,00
-2876,02	797,00
-2865,17	765,00
-2854,33	788,00
-2843,50	766,00
-2832,70	743,00
-2821,90	819,00
-2811,13	839,00
-2800,37	775,00
-2789,62	681,00
-2778,89	780,00
-2768,18	807,00
-2757,48	824,00
-2746,80	943,00
-2736,13	718,00
-2725,48	889,00
-2714,84	683,00
-2704,22	823,00
-2693,61	829,00
-2683,02	782,00
-2672,45	878,00
-2661,89	838,00
-2651,34	806,00
-2640,81	828,00
-2630,30	890,00
-2619,80	760,00
-2609,31	864,00
-2598,84	680,00
-2588,39	886,00
-2577,95	697,00
-2567,52	716,00
-2557,11	699,00
-2546,71	882,00
-2536,33	865,00
-2525,97	842,00
-2515,62	847,00
-2505,28	820,00
-2494,96	780,00
-2484,65	874,00
-2474,36	1148,00
-2464,08	693,00
-2453,82	984,00
-2443,57	734,00
-2433,33	755,00
-2423,11	828,00
-2412,91	808,00
-2402,72	742,00
-2392,54	786,00
-2382,38	757,00
-2372,23	865,00
-2362,09	1717,00
-2351,97	783,00
-2341,87	692,00
-2331,78	842,00
-2321,70	880,00
-2311,64	793,00
-2301,59	790,00
-2291,55	710,00
-2281,53	889,00
-2271,53	595,00
-2261,53	906,00
-2251,55	821,00
-2241,59	860,00
-2231,64	800,00
-2221,70	771,00
-2211,78	757,00
-2201,87	776,00
-2191,97	741,00
-2182,09	770,00
-2172,22	855,00
-2162,37	716,00
-2152,53	748,00
-2142,70	770,00
-2132,89	741,00
-2123,09	795,00
-2113,30	858,00
-2103,53	790,00
-2093,77	892,00
-2084,02	765,00
-2074,29	824,00
-2064,57	777,00
-2054,86	867,00
-2045,17	860,00
-2035,49	872,00
-2025,82	750,00
-2016,17	802,00
-2006,53	795,00
-1996,91	837,00
-1987,29	750,00
-1977,69	827,00
-1968,11	755,00
-1958,53	774,00
-1948,97	794,00
-1939,42	763,00
-1929,89	728,00
-1920,37	777,00
-1910,86	781,00
-1901,36	850,00
-1891,88	869,00
-1882,41	789,00
-1872,95	915,00
-1863,51	832,00
-1854,08	861,00
-1844,66	880,00
-1835,26	866,00
-1825,86	851,00
-1816,48	715,00
-1807,11	855,00
-1797,76	855,00
-1788,42	867,00
-1779,09	809,00
-1769,77	780,00
-1760,47	958,00
-1751,17	764,00
-1741,89	662,00
-1732,63	826,00
-1723,37	1009,00
-1714,13	920,00
-1704,90	771,00
-1695,68	976,00
-1686,48	717,00
-1677,29	764,00
-1668,11	841,00
-1658,94	735,00
-1649,78	728,00
-1640,64	837,00
-1631,51	765,00
-1622,39	845,00
-1613,28	805,00
-1604,19	855,00
-1595,10	859,00
-1586,03	828,00
-1576,97	812,00
-1567,93	721,00
-1558,89	831,00
-1549,87	893,00
-1540,86	673,00
-1531,86	808,00
-1522,87	812,00
-1513,90	894,00
-1504,93	829,00
-1495,98	863,00
-1487,04	911,00
-1478,12	734,00
-1469,20	805,00
-1460,30	820,00
-1451,40	947,00
-1442,52	834,00
-1433,65	920,00
-1424,80	819,00
-1415,95	790,00
-1407,12	952,00
-1398,30	789,00
-1389,48	838,00
-1380,69	690,00
-1371,90	748,00
-1363,12	823,00
-1354,36	870,00
-1345,60	819,00
-1336,86	827,00
-1328,13	976,00
-1319,41	810,00
-1310,70	688,00
-1302,01	830,00
-1293,32	648,00
-1284,65	740,00
-1275,99	876,00
-1267,33	908,00
-1258,69	870,00
-1250,06	833,00
-1241,45	755,00
-1232,84	986,00
-1224,25	723,00
-1215,66	824,00
-1207,09	887,00
-1198,53	744,00
-1189,97	818,00
-1181,43	784,00
-1172,91	804,00
-1164,39	943,00
-1155,88	747,00
-1147,38	661,00
-1138,90	799,00
-1130,43	802,00
-1121,96	779,00
-1113,51	760,00
-1105,07	869,00
-1096,64	867,00
-1088,22	733,00
-1079,81	864,00
-1071,41	934,00
-1063,02	751,00
-1054,65	897,00
-1046,28	816,00
-1037,92	833,00
-1029,58	777,00
-1021,24	841,00
-1012,92	1046,00
-1004,61	733,00
-996,30	972,00
-988,01	701,00
-979,73	846,00
-971,46	900,00
-963,20	750,00
-954,95	700,00
-946,71	841,00
-938,48	792,00
-930,26	858,00
-922,06	929,00
-913,86	742,00
-905,67	747,00
-897,49	907,00
-889,33	663,00
-881,17	831,00
-873,02	836,00
-864,89	755,00
-856,76	821,00
-848,65	895,00
-840,54	830,00
-832,45	855,00
-824,36	664,00
-816,29	824,00
-808,22	883,00
-800,17	767,00
-792,12	806,00
-784,09	862,00
-776,06	721,00
-768,05	779,00
-760,04	824,00
-752,05	773,00
-744,07	753,00
-736,09	879,00
-728,13	725,00
-720,17	774,00
-712,23	707,00
-704,29	656,00
-696,37	808,00
-688,45	923,00
-680,55	797,00
-672,65	785,00
-664,77	800,00
-656,89	832,00
-649,03	815,00
-641,17	775,00
-633,32	815,00
-625,49	855,00
-617,66	733,00
-609,84	930,00
-602,03	717,00
-594,23	838,00
-586,45	730,00
-578,67	869,00
-570,90	794,00
-563,14	806,00
-555,39	804,00
-547,65	881,00
-539,91	790,00
-532,19	751,00
-524,48	877,00
-516,78	728,00
-509,08	799,00
-501,40	776,00
-493,72	743,00
-486,06	734,00
-478,40	894,00
-470,76	756,00
-463,12	771,00
-455,49	812,00
-447,87	825,00
-440,26	757,00
-432,66	731,00
-425,07	804,00
-417,49	793,00
-409,92	676,00
-402,35	744,00
-394,80	673,00
-387,25	833,00
-379,72	814,00
-372,19	836,00
-364,67	873,00
-357,17	791,00
-349,67	846,00
-342,18	788,00
-334,69	832,00
-327,22	791,00
-319,76	817,00
-312,30	855,00
-304,86	804,00
-297,42	866,00
-290,00	840,00
-282,58	836,00
-275,17	897,00
-267,77	948,00
-260,37	923,00
-252,99	930,00
-245,62	927,00
-238,25	841,00
-230,90	771,00
-223,55	916,00
-216,21	889,00
-208,88	982,00
-201,56	842,00
-194,25	992,00
-186,94	851,00
-179,65	1049,00
-172,36	1029,00
-165,08	1047,00
-157,81	1068,00
-150,55	1125,00
-143,30	1154,00
-136,06	1087,00
-128,82	1252,00
-121,60	1168,00
-114,38	1349,00
-107,17	1476,00
-99,97	1569,00
-92,78	1680,00
-85,60	1699,00
-78,42	1878,00
-71,25	2023,00
-64,10	2209,00
-56,95	2507,00
-49,81	2819,00
-42,67	3429,00
-35,55	3998,00
-28,43	5064,00
-21,33	8016,00
-14,23	24581,00
-7,14	57498,00
-0,05	57284,00
7,02	57012,00
14,09	57319,00
21,14	21109,00
28,19	9164,00
35,23	6171,00
42,27	5054,00
49,29	4059,00
56,31	3531,00
63,32	3153,00
70,32	2750,00
77,31	2504,00
84,29	2192,00
91,27	2116,00
98,23	2047,00
105,19	1909,00
112,14	2124,00
119,09	2875,00
126,02	3990,00
132,95	4564,00
139,87	4751,00
146,78	4710,00
153,68	4649,00
160,58	4470,00
167,46	4274,00
174,34	4446,00
181,21	4352,00
188,08	4272,00
194,93	4372,00
201,78	4306,00
208,62	4355,00
215,45	4331,00
222,27	4309,00
229,09	4361,00
235,90	4063,00
242,70	4152,00
249,49	4198,00
256,27	3976,00
263,05	4019,00
269,82	3935,00
276,58	3904,00
283,33	3827,00
290,08	3733,00
296,82	3764,00
303,55	3575,00
310,27	3535,00
316,98	3593,00
323,69	3533,00
330,39	3536,00
337,08	3542,00
343,76	3590,00
350,44	3571,00
357,11	3473,00
363,77	3524,00
370,42	3453,00
377,07	3444,00
383,71	3395,00
390,34	3495,00
396,96	3455,00
403,58	3450,00
410,19	3619,00
416,79	3678,00
423,38	3768,00
429,97	3882,00
436,55	3680,00
443,12	3887,00
449,68	3861,00
456,24	3635,00
462,79	3678,00
469,33	3427,00
475,86	3394,00
482,39	3183,00
488,91	3252,00
495,42	3047,00
501,93	3038,00
508,42	3065,00
514,91	2987,00
521,40	2941,00
527,87	3000,00
534,34	2825,00
540,80	2933,00
547,25	2976,00
553,70	2830,00
560,14	3045,00
566,57	3585,00
573,00	3147,00
579,41	3100,00
585,83	3080,00
592,23	3147,00
598,62	3133,00
605,01	3164,00
611,40	3317,00
617,77	3265,00
624,14	3184,00
630,50	3014,00
636,85	2999,00
643,20	2825,00
649,54	2758,00
655,87	2834,00
662,20	2805,00
668,52	2682,00
674,83	2715,00
681,13	2589,00
687,43	2652,00
693,72	2558,00
700,00	2627,00
706,28	2610,00
712,55	2631,00
718,81	2639,00
725,07	2596,00
731,32	2604,00
737,56	2602,00
743,79	2621,00
750,02	2632,00
756,24	2555,00
762,46	2565,00
768,67	2826,00
774,87	2460,00
781,06	2453,00
787,25	2525,00
793,43	2577,00
799,60	2518,00
805,77	2648,00
811,93	2488,00
818,08	2575,00
824,23	2595,00
830,37	2797,00
836,50	2555,00
842,63	2629,00
848,75	2518,00
854,87	2600,00
860,97	2611,00
867,07	2604,00
873,17	2662,00
879,25	2520,00
885,33	2643,00
891,41	2599,00
897,47	2622,00
903,53	2550,00
909,59	2570,00
915,63	2486,00
921,67	2450,00
927,71	2563,00
933,74	2531,00
939,76	2305,00
945,77	2323,00
951,78	2479,00
957,78	2300,00
963,78	2491,00
969,77	2340,00
975,75	2306,00
981,72	2278,00
987,69	3636,00
993,66	2500,00
999,61	2384,00
1005,56	2404,00
1011,51	2372,00
1017,44	2409,00
1023,37	2481,00
1029,30	2481,00
1035,22	2492,00
1041,13	2499,00
1047,03	2747,00
1052,93	3210,00
1058,83	4550,00
1064,71	5063,00
1070,59	4226,00
1076,47	3354,00
1082,33	3147,00
1088,20	3081,00
1094,05	2886,00
1099,90	2647,00
1105,74	2646,00
1111,58	2699,00
1117,41	2904,00
1123,23	3817,00
1129,05	4726,00
1134,86	4278,00
1140,67	3283,00
1146,47	2735,00
1152,26	2614,00
1158,05	2482,00
1163,83	2572,00
1169,60	2760,00
1175,37	2554,00
1181,13	2433,00
1186,89	2348,00
1192,64	2265,00
1198,38	2404,00
1204,12	2268,00
1209,85	2218,00
1215,58	2320,00
1221,30	2239,00
1227,02	2360,00
1232,72	2325,00
1238,43	2165,00
1244,12	2229,00
1249,81	2342,00
1255,50	2506,00
1261,17	2412,00
1266,85	2475,00
1272,51	2524,00
1278,17	2674,00
1283,83	3015,00
1289,47	4368,00
1295,12	5930,00
1300,75	5366,00
1306,38	4142,00
1312,01	3425,00
1317,63	2942,00
1323,24	2741,00
1328,85	2549,00
1334,45	2513,00
1340,04	2325,00
1345,63	2362,00
1351,22	2492,00
1356,80	2407,00
1362,37	2568,00
1367,93	2568,00
1373,49	2676,00
1379,05	2412,00
1384,60	2408,00
1390,14	2455,00
1395,68	2485,00
1401,21	2465,00
1406,74	2745,00
1412,26	3228,00
1417,77	3884,00
1423,28	3774,00
1428,78	4168,00
1434,28	5252,00
1439,77	5945,00
1445,26	5899,00
1450,74	5417,00
1456,22	4962,00
1461,68	4795,00
1467,15	4471,00
1472,61	3864,00
1478,06	3361,00
1483,51	3041,00
1488,95	2566,00
1494,38	2531,00
1499,81	2355,00
1505,24	2236,00
1510,65	2247,00
1516,07	2199,00
1521,48	2149,00
1526,88	2013,00
1532,27	2117,00
1537,67	2066,00
1543,05	2100,00
1548,43	2050,00
1553,81	2142,00
1559,18	1848,00
1564,54	2017,00
1569,90	1997,00
1575,25	1933,00
1580,60	1856,00
1585,94	2027,00
1591,28	1774,00
1596,61	1952,00
1601,93	1972,00
1607,25	1879,00
1612,57	1887,00
1617,88	1864,00
1623,18	1958,00
1628,48	1853,00
1633,77	1813,00
1639,06	1862,00
1644,34	1746,00
1649,62	1760,00
1654,89	1857,00
1660,16	1632,00
1665,42	1870,00
1670,67	1859,00
1675,92	1681,00
1681,17	1784,00
1686,41	1768,00
1691,64	1819,00
1696,87	1822,00
1702,10	1773,00
1707,32	1668,00
1712,53	1708,00
1717,74	1643,00
1722,94	1783,00
1728,14	1685,00
1733,33	1717,00
1738,52	1576,00
1743,70	1722,00
1748,88	1706,00
1754,05	1693,00
1759,22	1556,00
1764,38	1978,00
1769,53	1656,00
1774,69	1763,00
1779,83	1613,00
1784,97	1654,00
1790,11	1643,00
1795,24	1593,00
1800,36	1550,00
1805,48	1553,00
1810,60	1667,00
1815,71	1561,00
1820,82	1445,00
1825,92	1608,00
1831,01	1565,00
1836,10	1565,00
1841,19	1673,00
1846,26	1438,00
1851,34	1522,00
1856,41	1559,00
1861,47	1480,00
1866,53	1579,00
1871,59	1436,00
1876,64	1552,00
1881,68	1584,00
1886,72	1510,00
1891,76	1520,00
1896,79	1390,00
1901,81	1474,00
1906,83	1497,00
1911,85	1364,00
1916,86	1549,00
1921,86	1426,00
1926,86	1440,00
1931,86	1466,00
1936,85	1427,00
1941,83	1378,00
1946,81	1410,00
1951,79	1355,00
1956,76	1434,00
1961,72	1237,00
1966,68	1382,00
1971,64	1349,00
1976,59	1398,00
1981,54	1361,00
1986,48	1434,00
1991,42	1218,00
1996,35	1573,00
2001,27	1373,00
2006,20	1273,00
2011,11	1322,00
2016,03	1244,00
2020,93	1226,00
2025,84	1278,00
2030,73	1272,00
2035,63	1134,00
2040,52	1352,00
2045,40	1265,00
2050,28	1375,00
2055,15	1300,00
2060,02	1122,00
2064,89	1374,00
2069,75	1318,00
2074,60	1343,00
2079,46	1177,00
2084,30	1236,00
2089,14	1169,00
2093,98	1381,00
2098,81	1428,00
2103,64	1264,00
2108,46	1300,00
2113,28	1370,00
2118,09	1343,00
2122,90	1299,00
2127,70	1225,00
2132,50	1236,00
2137,30	1239,00
2142,09	1184,00
2146,87	1155,00
2151,66	1278,00
2156,43	1292,00
2161,20	1268,00
2165,97	1316,00
2170,73	1272,00
2175,49	1302,00
2180,24	1294,00
2184,99	1460,00
2189,74	1416,00
2194,48	1314,00
2199,21	1378,00
2203,94	1184,00
2208,67	1209,00
2213,39	1122,00
2218,11	1312,00
2222,82	1194,00
2227,53	1255,00
2232,23	1179,00
2236,93	1250,00
2241,63	1178,00
2246,32	1244,00
2251,00	1170,00
2255,68	1221,00
2260,36	1213,00
2265,03	1256,00
2269,70	1351,00
2274,36	1190,00
2279,02	1190,00
2283,68	1288,00
2288,33	1234,00
2292,97	1239,00
2297,61	1110,00
2302,25	1227,00
2306,88	1139,00
2311,51	1075,00
2316,14	1176,00
2320,75	1053,00
2325,37	1083,00
2329,98	1202,00
2334,59	1116,00
2339,19	1061,00
2343,79	1048,00
2348,38	1167,00
2352,97	1048,00
2357,55	1144,00
2362,13	1103,00
2366,71	1101,00
2371,28	1222,00
2375,85	1209,00
2380,41	1134,00
2384,97	1047,00
2389,52	1231,00
2394,07	1172,00
2398,62	1099,00
2403,16	1244,00
2407,70	1023,00
2412,23	1041,00
2416,76	1162,00
2421,29	1131,00
2425,81	1224,00
2430,32	1193,00
2434,84	1034,00
2439,34	1172,00
2443,85	1251,00
2448,35	976,00
2452,84	1079,00
2457,33	1233,00
2461,82	944,00
2466,30	975,00
2470,78	1160,00
2475,25	1066,00
2479,72	1128,00
2484,19	1046,00
2488,65	1093,00
2493,11	1069,00
2497,56	1265,00
2502,01	1034,00
2506,46	1073,00
2510,90	1022,00
2515,34	1033,00
2519,77	1056,00
2524,20	1006,00
2528,62	1114,00
2533,04	1188,00
2537,46	1078,00
2541,87	1060,00
2546,28	1069,00
2550,68	1135,00
2555,08	1175,00
2559,48	1062,00
2563,87	991,00
2568,26	983,00
2572,64	1158,00
2577,02	1155,00
2581,40	967,00
2585,77	1147,00
2590,14	1107,00
2594,50	1036,00
2598,86	1163,00
2603,22	1146,00
2607,57	1028,00
2611,92	1080,00
2616,26	1253,00
2620,60	1215,00
2624,94	1035,00
2629,27	1155,00
2633,60	1053,00
2637,92	1254,00
2642,24	1158,00
2646,56	1169,00
2650,87	1006,00
2655,18	1289,00
2659,48	1040,00
2663,78	1153,00
2668,08	1147,00
2672,37	1190,00
2676,66	1235,00
2680,95	1118,00
2685,23	1286,00
2689,50	1218,00
2693,78	1169,00
2698,05	1224,00
2702,31	1263,00
2706,57	1381,00
2710,83	1398,00
2715,08	1469,00
2719,33	1508,00
2723,58	1450,00
2727,82	1524,00
2732,06	1369,00
2736,29	1406,00
2740,53	1345,00
2744,75	1311,00
2748,97	1252,00
2753,19	1246,00
2757,41	1325,00
2761,62	1329,00
2765,83	1306,00
2770,03	1221,00
2774,23	1366,00
2778,43	1236,00
2782,62	1305,00
2786,81	1302,00
2791,00	1425,00
2795,18	1396,00
2799,35	1503,00
2803,53	1472,00
2807,70	1492,00
2811,86	1615,00
2816,03	1819,00
2820,19	1688,00
2824,34	1785,00
2828,49	1969,00
2832,64	2186,00
2836,78	2638,00
2840,92	3065,00
2845,06	3778,00
2849,19	4103,00
2853,32	4194,00
2857,45	4184,00
2861,57	4191,00
2865,69	4001,00
2869,80	3988,00
2873,91	4111,00
2878,02	4611,00
2882,12	4816,00
2886,22	4981,00
2890,32	4655,00
2894,41	4377,00
2898,50	3924,00
2902,58	3725,00
2906,67	3465,00
2910,74	3247,00
2914,82	2925,00
2918,89	2878,00
2922,96	2693,00
2927,02	2417,00
2931,08	2362,00
2935,13	2162,00
2939,19	2154,00
2943,24	1929,00
2947,28	1947,00
2951,32	1653,00
2955,36	1519,00
2959,40	1570,00
2963,43	1521,00
2967,46	1486,00
2971,48	1337,00
2975,50	1260,00
2979,52	1414,00
2983,53	1268,00
2987,54	1181,00
2991,55	1230,00
2995,55	1161,00
2999,55	1152,00
3003,54	1058,00
3007,54	1126,00
3011,53	1106,00
3015,51	1102,00
3019,49	1055,00
3023,47	977,00
3027,45	1073,00
3031,42	1001,00
3035,39	943,00
3039,35	1028,00
3043,31	1015,00
3047,27	981,00
3051,22	1035,00
3055,17	946,00
3059,12	921,00
3063,06	990,00
3067,00	849,00
3070,94	823,00
3074,87	1032,00
3078,80	970,00
3082,73	890,00
3086,65	903,00
3090,57	879,00
3094,49	893,00
3098,40	869,00
3102,31	860,00
3106,22	906,00
3110,12	852,00
3114,02	867,00
3117,92	848,00
3121,81	896,00
3125,70	953,00
3129,58	853,00
3133,47	795,00
3137,34	883,00
3141,22	980,00
3145,09	905,00
3148,96	915,00
3152,83	888,00
3156,69	910,00
3160,55	903,00
3164,40	894,00
3168,26	833,00
3172,10	904,00
3175,95	836,00
3179,79	817,00
3183,63	843,00
3187,47	754,00
3191,30	951,00
3195,13	893,00
3198,95	791,00
3202,78	903,00
3206,60	862,00
3210,41	774,00
3214,23	788,00
3218,03	887,00
3221,84	840,00
3225,64	815,00
3229,44	749,00
3233,24	839,00
3237,03	891,00
3240,82	781,00
3244,61	730,00
3248,39	861,00
3252,17	885,00
3255,95	916,00
3259,72	873,00
3263,49	1097,00
3267,26	808,00
3271,03	869,00
3274,79	812,00
3278,54	786,00
3282,30	738,00
3286,05	843,00
3289,80	836,00
3293,54	871,00
3297,29	886,00
3301,02	856,00
3304,76	819,00
3308,49	934,00
3312,22	752,00
3315,95	797,00
3319,67	760,00
3323,39	987,00
3327,10	927,00
3330,82	784,00
3334,53	822,00
3338,24	890,00
3341,94	869,00
3345,64	819,00
3349,34	805,00
3353,03	826,00
3356,72	792,00
3360,41	883,00
3364,10	751,00
3367,78	879,00
3371,46	746,00
3375,13	867,00
3378,81	881,00
3382,48	820,00
3386,14	905,00
3389,81	870,00
3393,47	816,00
3397,12	886,00
3400,78	929,00
3404,43	805,00
3408,08	863,00
3411,72	791,00
3415,36	757,00
3419,00	877,00
3422,64	802,00
3426,27	792,00
3429,90	845,00
3433,53	810,00
3437,15	804,00
3440,77	687,00
3444,39	731,00
3448,00	805,00
3451,62	780,00
3455,22	857,00
3458,83	723,00
3462,43	752,00
3466,03	818,00
3469,63	754,00
3473,22	772,00
3476,81	761,00
3480,40	875,00
3483,99	770,00
3487,57	829,00
3491,15	772,00
3494,72	863,00
3498,29	803,00
3501,86	776,00
3505,43	834,00
3508,99	727,00
3512,56	660,00
3516,11	826,00
3519,67	762,00
3523,22	800,00
3526,77	617,00
3530,32	941,00
3533,86	855,00
3537,40	803,00
3540,94	844,00
3544,47	751,00
3548,00	701,00
3551,53	834,00
3555,06	782,00
3558,58	920,00
3562,10	833,00
3565,62	695,00
3569,13	733,00
3572,64	822,00
3576,15	721,00
3579,66	793,00
3583,16	717,00
3586,66	813,00
3590,16	820,00
3593,65	794,00
3597,14	705,00
3600,63	718,00
3604,11	812,00
3607,60	748,00
3611,08	739,00
3614,55	805,00
3618,03	705,00
3621,50	679,00
3624,97	638,00
3628,43	749,00
3631,90	763,00
3635,36	696,00
3638,81	705,00
3642,27	704,00
3645,72	669,00
3649,17	678,00
3652,61	726,00
3656,06	674,00
3659,50	733,00
3662,93	745,00
3666,37	768,00
3669,80	908,00
3673,23	825,00
3676,65	794,00
3680,08	849,00
3683,50	711,00
3686,92	662,00
3690,33	718,00
3693,74	714,00
3697,15	662,00
3700,56	787,00
3703,96	699,00
3707,36	632,00
3710,76	717,00
3714,16	655,00
3717,55	689,00
3720,94	638,00
3724,33	668,00
3727,71	734,00
3731,10	748,00
3734,48	704,00
3737,85	615,00
3741,23	602,00
3744,60	677,00
3747,97	571,00
3751,33	803,00
3754,69	651,00
3758,05	690,00
3761,41	640,00
3764,77	651,00
3768,12	564,00
3771,47	566,00
3774,82	716,00
3778,16	-14,00
3781,50	14,00
3784,84	9,00
3788,18	8,00
>>>>>End Processed Spectral Data<<<<<
