SpectraSuite Data File
++++++++++++++++++++++++++++++++++++
Date: Mon Jan 05 16:32:07 ICT 2026
User: Administrator
Dark Spectrum Present: Yes
Reference Spectrum Present: No
Number of Sampled Component Spectra: 1
Spectrometers: MAYP113682
Integration Time (usec): 3000000 (MAYP113682)
Spectra Averaged: 1 (MAYP113682)
Boxcar Smoothing: 0 (MAYP113682)
Correct for Electrical Dark: No (MAYP113682)
Strobe/Lamp Enabled: No (MAYP113682)
Correct for Detector Non-linearity: No (MAYP113682)
Correct for Stray Light: No (MAYP113682)
Number of Pixels in Processed Spectrum: 2068
>>>>>Begin Processed Spectral Data<<<<<
-37534,58	28,00
-37414,56	14,00
-37295,11	9,00
-37176,24	2,00
-37057,95	560,00
-36940,22	569,00
-36823,05	661,00
-36706,45	771,00
-36590,40	689,00
-36474,90	610,00
-36359,95	777,00
-36245,55	742,00
-36131,68	737,00
-36018,35	675,00
-35905,55	648,00
-35793,29	831,00
-35681,54	716,00
-35570,32	742,00
-35459,62	723,00
-35349,43	803,00
-35239,75	779,00
-35130,58	731,00
-35021,91	799,00
-34913,74	717,00
-34806,07	819,00
-34698,89	765,00
-34592,20	678,00
-34486,00	839,00
-34380,28	773,00
-34275,04	694,00
-34170,27	688,00
-34065,98	838,00
-33962,16	834,00
-33858,81	818,00
-33755,92	810,00
-33653,49	919,00
-33551,52	894,00
-33450,01	815,00
-33348,94	795,00
-33248,33	764,00
-33148,16	724,00
-33048,43	791,00
-32949,14	896,00
-32850,29	779,00
-32751,87	781,00
-32653,89	863,00
-32556,33	844,00
-32459,20	719,00
-32362,49	865,00
-32266,19	835,00
-32170,32	773,00
-32074,86	840,00
-31979,82	936,00
-31885,18	917,00
-31790,95	876,00
-31697,12	865,00
-31603,69	779,00
-31510,67	913,00
-31418,04	766,00
-31325,80	802,00
-31233,95	795,00
-31142,49	734,00
-31051,42	750,00
-30960,73	955,00
-30870,43	979,00
-30780,50	811,00
-30690,95	866,00
-30601,77	1057,00
-30512,97	800,00
-30424,53	870,00
-30336,46	875,00
-30248,76	786,00
-30161,42	904,00
-30074,44	765,00
-29987,81	893,00
-29901,55	896,00
-29815,63	864,00
-29730,07	868,00
-29644,86	837,00
-29560,00	831,00
-29475,48	904,00
-29391,30	811,00
-29307,47	792,00
-29223,97	852,00
-29140,81	856,00
-29057,99	949,00
-28975,50	723,00
-28893,34	904,00
-28811,51	809,00
-28730,00	833,00
-28648,82	833,00
-28567,97	867,00
-28487,43	808,00
-28407,21	882,00
-28327,32	769,00
-28247,73	951,00
-28168,46	847,00
-28089,50	898,00
-28010,85	786,00
-27932,51	747,00
-27854,48	782,00
-27776,75	765,00
-27699,32	844,00
-27622,19	802,00
-27545,37	882,00
-27468,84	852,00
-27392,60	920,00
-27316,66	818,00
-27241,01	784,00
-27165,66	772,00
-27090,59	752,00
-27015,81	883,00
-26941,31	962,00
-26867,10	779,00
-26793,17	856,00
-26719,52	868,00
-26646,15	779,00
-26573,06	807,00
-26500,24	814,00
-26427,70	838,00
-26355,43	771,00
-26283,43	792,00
-26211,71	827,00
-26140,25	887,00
-26069,06	950,00
-25998,13	738,00
-25927,46	814,00
-25857,06	734,00
-25786,92	787,00
-25717,04	692,00
-25647,42	918,00
-25578,05	781,00
-25508,94	756,00
-25440,09	816,00
-25371,48	783,00
-25303,13	926,00
-25235,02	818,00
-25167,17	851,00
-25099,56	819,00
-25032,19	802,00
-24965,07	746,00
-24898,20	709,00
-24831,56	724,00
-24765,17	741,00
-24699,01	708,00
-24633,10	825,00
-24567,41	782,00
-24501,97	740,00
-24436,75	829,00
-24371,77	779,00
-24307,03	801,00
-24242,51	854,00
-24178,22	761,00
-24114,16	707,00
-24050,32	840,00
-23986,71	785,00
-23923,32	833,00
-23860,16	835,00
-23797,22	767,00
-23734,50	809,00
-23672,00	795,00
-23609,71	809,00
-23547,65	664,00
-23485,80	903,00
-23424,16	725,00
-23362,74	924,00
-23301,53	826,00
-23240,54	621,00
-23179,75	686,00
-23119,17	748,00
-23058,80	792,00
-22998,64	854,00
-22938,68	759,00
-22878,93	814,00
-22819,39	779,00
-22760,04	787,00
-22700,90	799,00
-22641,96	776,00
-22583,22	791,00
-22524,68	838,00
-22466,33	822,00
-22408,19	820,00
-22350,23	825,00
-22292,48	685,00
-22234,92	878,00
-22177,55	802,00
-22120,37	923,00
-22063,38	695,00
-22006,58	727,00
-21949,98	702,00
-21893,56	624,00
-21837,33	829,00
-21781,28	771,00
-21725,42	821,00
-21669,74	861,00
-21614,25	844,00
-21558,94	731,00
-21503,81	821,00
-21448,86	880,00
-21394,10	751,00
-21339,51	735,00
-21285,10	649,00
-21230,86	766,00
-21176,81	753,00
-21122,93	793,00
-21069,22	699,00
-21015,69	728,00
-20962,33	771,00
-20909,14	774,00
-20856,13	780,00
-20803,28	857,00
-20750,61	752,00
-20698,10	718,00
-20645,76	723,00
-20593,59	834,00
-20541,59	869,00
-20489,75	869,00
-20438,07	702,00
-20386,56	842,00
-20335,22	748,00
-20284,03	791,00
-20233,01	878,00
-20182,15	715,00
-20131,45	750,00
-20080,91	694,00
-20030,52	852,00
-19980,30	777,00
-19930,23	651,00
-19880,32	819,00
-19830,56	780,00
-19780,96	806,00
-19731,52	721,00
-19682,23	795,00
-19633,09	818,00
-19584,10	714,00
-19535,26	821,00
-19486,58	942,00
-19438,04	812,00
-19389,66	897,00
-19341,42	728,00
-19293,33	815,00
-19245,39	786,00
-19197,60	866,00
-19149,95	825,00
-19102,45	866,00
-19055,09	732,00
-19007,87	782,00
-18960,80	829,00
-18913,87	853,00
-18867,09	757,00
-18820,44	880,00
-18773,94	828,00
-18727,57	792,00
-18681,35	667,00
-18635,26	800,00
-18589,31	715,00
-18543,50	790,00
-18497,83	795,00
-18452,29	847,00
-18406,89	727,00
-18361,63	832,00
-18316,50	829,00
-18271,50	790,00
-18226,63	817,00
-18181,90	797,00
-18137,30	844,00
-18092,84	673,00
-18048,50	865,00
-18004,29	804,00
-17960,22	746,00
-17916,27	728,00
-17872,45	854,00
-17828,76	942,00
-17785,20	819,00
-17741,77	857,00
-17698,46	844,00
-17655,28	723,00
-17612,22	801,00
-17569,29	734,00
-17526,48	837,00
-17483,79	840,00
-17441,23	679,00
-17398,79	805,00
-17356,48	740,00
-17314,28	909,00
-17272,21	732,00
-17230,26	779,00
-17188,42	768,00
-17146,71	859,00
-17105,12	831,00
-17063,64	826,00
-17022,28	715,00
-16981,04	692,00
-16939,92	805,00
-16898,91	1001,00
-16858,02	722,00
-16817,25	870,00
-16776,59	799,00
-16736,04	744,00
-16695,61	807,00
-16655,29	683,00
-16615,09	768,00
-16574,99	781,00
-16535,01	810,00
-16495,15	855,00
-16455,39	776,00
-16415,74	689,00
-16376,21	770,00
-16336,78	730,00
-16297,46	777,00
-16258,26	781,00
-16219,16	766,00
-16180,17	778,00
-16141,28	888,00
-16102,51	811,00
-16063,84	757,00
-16025,27	759,00
-15986,82	709,00
-15948,46	850,00
-15910,22	833,00
-15872,07	760,00
-15834,04	845,00
-15796,10	766,00
-15758,27	1056,00
-15720,54	697,00
-15682,91	775,00
-15645,39	938,00
-15607,97	867,00
-15570,64	741,00
-15533,42	868,00
-15496,30	812,00
-15459,28	785,00
-15422,36	729,00
-15385,54	779,00
-15348,82	830,00
-15312,19	933,00
-15275,66	752,00
-15239,23	810,00
-15202,90	707,00
-15166,67	765,00
-15130,53	860,00
-15094,48	843,00
-15058,54	760,00
-15022,68	755,00
-14986,93	713,00
-14951,26	826,00
-14915,69	863,00
-14880,22	785,00
-14844,84	700,00
-14809,55	798,00
-14774,35	793,00
-14739,25	781,00
-14704,24	804,00
-14669,32	764,00
-14634,49	728,00
-14599,75	838,00
-14565,10	736,00
-14530,55	781,00
-14496,08	772,00
-14461,70	836,00
-14427,41	770,00
-14393,21	635,00
-14359,10	679,00
-14325,07	792,00
-14291,14	740,00
-14257,29	784,00
-14223,52	743,00
-14189,85	912,00
-14156,26	758,00
-14122,76	693,00
-14089,34	719,00
-14056,01	815,00
-14022,76	773,00
-13989,60	826,00
-13956,52	911,00
-13923,53	774,00
-13890,62	734,00
-13857,79	823,00
-13825,05	702,00
-13792,39	708,00
-13759,81	824,00
-13727,31	760,00
-13694,90	805,00
-13662,57	870,00
-13630,31	873,00
-13598,14	888,00
-13566,05	695,00
-13534,05	847,00
-13502,12	806,00
-13470,27	716,00
-13438,50	841,00
-13406,80	781,00
-13375,19	753,00
-13343,66	869,00
-13312,20	782,00
-13280,83	692,00
-13249,53	765,00
-13218,30	663,00
-13187,16	812,00
-13156,09	989,00
-13125,10	769,00
-13094,18	850,00
-13063,34	779,00
-13032,58	683,00
-13001,89	786,00
-12971,28	881,00
-12940,74	817,00
-12910,27	836,00
-12879,88	874,00
-12849,57	835,00
-12819,33	846,00
-12789,16	852,00
-12759,06	753,00
-12729,04	688,00
-12699,09	1969,00
-12669,21	750,00
-12639,41	818,00
-12609,68	823,00
-12580,02	872,00
-12550,43	858,00
-12520,91	741,00
-12491,46	783,00
-12462,08	661,00
-12432,77	853,00
-12403,54	739,00
-12374,37	700,00
-12345,27	859,00
-12316,24	793,00
-12287,29	769,00
-12258,40	753,00
-12229,57	789,00
-12200,82	634,00
-12172,14	856,00
-12143,52	677,00
-12114,97	805,00
-12086,49	856,00
-12058,07	854,00
-12029,73	755,00
-12001,44	921,00
-11973,23	922,00
-11945,08	761,00
-11917,00	878,00
-11888,98	688,00
-11861,03	837,00
-11833,15	841,00
-11805,32	891,00
-11777,57	800,00
-11749,88	862,00
-11722,25	752,00
-11694,69	729,00
-11667,19	811,00
-11639,75	895,00
-11612,38	831,00
-11585,07	786,00
-11557,83	814,00
-11530,65	798,00
-11503,53	719,00
-11476,47	843,00
-11449,48	696,00
-11422,54	895,00
-11395,67	823,00
-11368,86	870,00
-11342,11	733,00
-11315,43	812,00
-11288,80	754,00
-11262,23	841,00
-11235,73	780,00
-11209,28	1011,00
-11182,90	804,00
-11156,57	736,00
-11130,31	845,00
-11104,10	718,00
-11077,96	774,00
-11051,87	726,00
-11025,84	767,00
-10999,87	869,00
-10973,96	732,00
-10948,11	733,00
-10922,31	860,00
-10896,58	794,00
-10870,90	957,00
-10845,28	835,00
-10819,71	719,00
-10794,20	904,00
-10768,75	879,00
-10743,36	927,00
-10718,02	792,00
-10692,74	808,00
-10667,52	747,00
-10642,35	797,00
-10617,24	874,00
-10592,18	915,00
-10567,18	817,00
-10542,23	880,00
-10517,34	803,00
-10492,51	874,00
-10467,72	808,00
-10443,00	908,00
-10418,32	941,00
-10393,70	862,00
-10369,14	923,00
-10344,63	792,00
-10320,17	954,00
-10295,77	951,00
-10271,42	880,00
-10247,12	998,00
-10222,88	1011,00
-10198,68	866,00
-10174,54	970,00
-10150,46	1201,00
-10126,42	1117,00
-10102,44	1035,00
-10078,51	995,00
-10054,63	1122,00
-10030,80	1070,00
-10007,03	1230,00
-9983,30	1185,00
-9959,63	1107,00
-9936,01	1349,00
-9912,44	1253,00
-9888,92	1257,00
-9865,44	1173,00
-9842,02	1205,00
-9818,65	1424,00
-9795,33	1162,00
-9772,06	1314,00
-9748,84	1298,00
-9725,67	1432,00
-9702,55	1395,00
-9679,47	1563,00
-9656,45	1758,00
-9633,47	1624,00
-9610,55	1716,00
-9587,67	1909,00
-9564,84	2100,00
-9542,06	2051,00
-9519,32	2338,00
-9496,64	2466,00
-9474,00	2412,00
-9451,41	2459,00
-9428,87	2539,00
-9406,37	2695,00
-9383,92	2411,00
-9361,52	2269,00
-9339,17	2602,00
-9316,86	2892,00
-9294,60	3101,00
-9272,38	3445,00
-9250,21	3770,00
-9228,09	3783,00
-9206,01	3821,00
-9183,98	3474,00
-9162,00	3188,00
-9140,06	3365,00
-9118,16	3191,00
-9096,31	3297,00
-9074,51	3450,00
-9052,75	3654,00
-9031,04	3437,00
-9009,37	3142,00
-8987,74	2938,00
-8966,16	2853,00
-8944,63	2475,00
-8923,14	2455,00
-8901,69	2519,00
-8880,29	2528,00
-8858,93	2847,00
-8837,61	3136,00
-8816,34	3172,00
-8795,11	3250,00
-8773,92	2873,00
-8752,78	2797,00
-8731,68	2520,00
-8710,62	2712,00
-8689,61	2640,00
-8668,63	2819,00
-8647,70	3020,00
-8626,82	3048,00
-8605,97	2988,00
-8585,17	2828,00
-8564,41	2561,00
-8543,69	2597,00
-8523,01	2330,00
-8502,37	2626,00
-8481,78	2560,00
-8461,23	2573,00
-8440,71	2806,00
-8420,24	2938,00
-8399,81	3124,00
-8379,42	2965,00
-8359,08	2940,00
-8338,77	2569,00
-8318,50	2448,00
-8298,27	2332,00
-8278,09	2558,00
-8257,94	2588,00
-8237,83	2868,00
-8217,76	2851,00
-8197,74	2970,00
-8177,75	2931,00
-8157,80	2590,00
-8137,89	2460,00
-8118,02	2302,00
-8098,19	2373,00
-8078,40	2400,00
-8058,65	2367,00
-8038,93	2528,00
-8019,26	2377,00
-7999,62	2489,00
-7980,02	2203,00
-7960,46	2098,00
-7940,94	2024,00
-7921,46	1985,00
-7902,01	2090,00
-7882,60	2170,00
-7863,23	2015,00
-7843,90	2123,00
-7824,61	2215,00
-7805,35	2379,00
-7786,13	2329,00
-7766,95	2295,00
-7747,80	2314,00
-7728,69	2211,00
-7709,62	2087,00
-7690,59	2254,00
-7671,59	2356,00
-7652,63	2237,00
-7633,70	2337,00
-7614,81	2371,00
-7595,96	2116,00
-7577,15	2082,00
-7558,37	1964,00
-7539,62	2051,00
-7520,91	2155,00
-7502,24	2200,00
-7483,60	2240,00
-7465,00	2131,00
-7446,44	1981,00
-7427,91	1691,00
-7409,41	1744,00
-7390,95	1683,00
-7372,53	1520,00
-7354,14	1618,00
-7335,78	1676,00
-7317,46	1680,00
-7299,18	1651,00
-7280,92	1854,00
-7262,71	2199,00
-7244,52	2111,00
-7226,38	2102,00
-7208,26	2050,00
-7190,18	1942,00
-7172,14	1825,00
-7154,12	1916,00
-7136,15	1838,00
-7118,20	2092,00
-7100,29	2142,00
-7082,41	2139,00
-7064,57	2063,00
-7046,76	1958,00
-7028,98	1636,00
-7011,24	1654,00
-6993,53	1446,00
-6975,85	1522,00
-6958,20	1398,00
-6940,59	1379,00
-6923,01	1279,00
-6905,46	1560,00
-6887,94	1567,00
-6870,46	-332,00
-6853,01	1935,00
-6835,59	1904,00
-6818,21	1724,00
-6800,85	1658,00
-6783,53	1422,00
-6766,24	1197,00
-6748,98	1203,00
-6731,76	1184,00
-6714,56	1142,00
-6697,40	994,00
-6680,26	1142,00
-6663,16	1301,00
-6646,09	1480,00
-6629,05	1640,00
-6612,05	1586,00
-6595,07	1588,00
-6578,13	1636,00
-6561,21	1355,00
-6544,33	1329,00
-6527,47	1030,00
-6510,65	1071,00
-6493,86	933,00
-6477,10	1110,00
-6460,36	1164,00
-6443,66	962,00
-6426,99	1041,00
-6410,35	1055,00
-6393,74	1205,00
-6377,16	1129,00
-6360,61	1231,00
-6344,09	1192,00
-6327,59	1296,00
-6311,13	1449,00
-6294,70	1299,00
-6278,29	1417,00
-6261,92	1449,00
-6245,58	1572,00
-6229,26	1616,00
-6212,97	1531,00
-6196,72	1227,00
-6180,49	1224,00
-6164,29	1004,00
-6148,12	1067,00
-6131,98	963,00
-6115,86	923,00
-6099,78	914,00
-6083,72	832,00
-6067,69	856,00
-6051,69	874,00
-6035,72	961,00
-6019,78	1055,00
-6003,87	1176,00
-5987,98	1281,00
-5972,12	1256,00
-5956,29	1295,00
-5940,49	1127,00
-5924,71	1258,00
-5908,96	965,00
-5893,24	1006,00
-5877,55	971,00
-5861,89	998,00
-5846,25	869,00
-5830,64	1011,00
-5815,05	902,00
-5799,50	950,00
-5783,97	995,00
-5768,47	1062,00
-5752,99	1359,00
-5737,55	1203,00
-5722,12	1234,00
-5706,73	1268,00
-5691,36	1167,00
-5676,02	1079,00
-5660,71	889,00
-5645,42	840,00
-5630,16	1000,00
-5614,92	1095,00
-5599,71	1003,00
-5584,53	1097,00
-5569,37	1040,00
-5554,24	2222,00
-5539,14	932,00
-5524,06	1135,00
-5509,01	1048,00
-5493,98	1117,00
-5478,98	1172,00
-5464,00	934,00
-5449,05	950,00
-5434,13	1032,00
-5419,23	878,00
-5404,36	896,00
-5389,51	975,00
-5374,69	1204,00
-5359,89	1368,00
-5345,12	1447,00
-5330,37	1489,00
-5315,65	1205,00
-5300,95	1171,00
-5286,28	1000,00
-5271,63	963,00
-5257,01	1074,00
-5242,41	1063,00
-5227,84	960,00
-5213,29	1021,00
-5198,76	873,00
-5184,26	923,00
-5169,79	889,00
-5155,33	955,00
-5140,91	1104,00
-5126,51	1078,00
-5112,13	1110,00
-5097,77	1085,00
-5083,44	1132,00
-5069,13	938,00
-5054,85	1014,00
-5040,59	1000,00
-5026,36	1129,00
-5012,15	1128,00
-4997,96	1051,00
-4983,80	982,00
-4969,66	853,00
-4955,54	874,00
-4941,44	1006,00
-4927,37	1094,00
-4913,33	1185,00
-4899,30	1273,00
-4885,30	1306,00
-4871,33	1029,00
-4857,37	886,00
-4843,44	875,00
-4829,53	1038,00
-4815,65	1032,00
-4801,79	825,00
-4787,95	1046,00
-4774,13	911,00
-4760,34	945,00
-4746,56	977,00
-4732,82	880,00
-4719,09	999,00
-4705,38	1143,00
-4691,70	1270,00
-4678,04	1309,00
-4664,41	1154,00
-4650,79	1242,00
-4637,20	951,00
-4623,63	919,00
-4610,08	1047,00
-4596,56	1073,00
-4583,05	966,00
-4569,57	925,00
-4556,11	1047,00
-4542,67	919,00
-4529,25	825,00
-4515,86	1042,00
-4502,49	1122,00
-4489,13	1234,00
-4475,80	1266,00
-4462,49	849,00
-4449,21	1020,00
-4435,94	911,00
-4422,70	783,00
-4409,47	942,00
-4396,27	985,00
-4383,09	897,00
-4369,93	911,00
-4356,79	711,00
-4343,67	959,00
-4330,58	922,00
-4317,50	1003,00
-4304,45	988,00
-4291,41	962,00
-4278,40	863,00
-4265,41	844,00
-4252,44	923,00
-4239,49	962,00
-4226,55	1014,00
-4213,65	911,00
-4200,76	918,00
-4187,89	887,00
-4175,04	796,00
-4162,21	786,00
-4149,40	889,00
-4136,61	830,00
-4123,85	775,00
-4111,10	825,00
-4098,37	848,00
-4085,66	851,00
-4072,98	797,00
-4060,31	810,00
-4047,66	947,00
-4035,04	1135,00
-4022,43	858,00
-4009,84	821,00
-3997,27	694,00
-3984,72	885,00
-3972,19	833,00
-3959,69	803,00
-3947,20	706,00
-3934,73	838,00
-3922,27	726,00
-3909,84	771,00
-3897,43	810,00
-3885,04	827,00
-3872,67	763,00
-3860,31	767,00
-3847,98	829,00
-3835,66	785,00
-3823,36	823,00
-3811,09	786,00
-3798,83	767,00
-3786,59	853,00
-3774,37	923,00
-3762,17	712,00
-3749,98	855,00
-3737,82	776,00
-3725,67	924,00
-3713,55	731,00
-3701,44	883,00
-3689,35	756,00
-3677,28	907,00
-3665,22	832,00
-3653,19	738,00
-3641,17	792,00
-3629,18	871,00
-3617,20	763,00
-3605,24	844,00
-3593,30	836,00
-3581,37	908,00
-3569,47	777,00
-3557,58	856,00
-3545,71	903,00
-3533,86	776,00
-3522,02	766,00
-3510,21	847,00
-3498,41	809,00
-3486,63	858,00
-3474,87	766,00
-3463,12	764,00
-3451,40	807,00
-3439,69	773,00
-3428,00	788,00
-3416,33	889,00
-3404,67	723,00
-3393,03	850,00
-3381,41	874,00
-3369,81	844,00
-3358,22	867,00
-3346,66	872,00
-3335,10	860,00
-3323,57	702,00
-3312,06	912,00
-3300,56	791,00
-3289,08	766,00
-3277,61	784,00
-3266,16	782,00
-3254,73	775,00
-3243,32	800,00
-3231,92	758,00
-3220,55	847,00
-3209,18	945,00
-3197,84	762,00
-3186,51	769,00
-3175,20	810,00
-3163,90	833,00
-3152,63	910,00
-3141,36	730,00
-3130,12	824,00
-3118,89	866,00
-3107,68	758,00
-3096,49	780,00
-3085,31	794,00
-3074,15	837,00
-3063,00	865,00
-3051,87	866,00
-3040,76	722,00
-3029,67	906,00
-3018,59	1032,00
-3007,52	967,00
-2996,48	865,00
-2985,44	826,00
-2974,43	785,00
-2963,43	725,00
-2952,45	769,00
-2941,48	822,00
-2930,53	789,00
-2919,60	811,00
-2908,68	848,00
-2897,78	773,00
-2886,89	848,00
-2876,02	866,00
-2865,17	744,00
-2854,33	792,00
-2843,50	784,00
-2832,70	773,00
-2821,90	727,00
-2811,13	880,00
-2800,37	860,00
-2789,62	702,00
-2778,89	801,00
-2768,18	861,00
-2757,48	839,00
-2746,80	865,00
-2736,13	779,00
-2725,48	981,00
-2714,84	733,00
-2704,22	792,00
-2693,61	851,00
-2683,02	794,00
-2672,45	852,00
-2661,89	935,00
-2651,34	877,00
-2640,81	844,00
-2630,30	892,00
-2619,80	743,00
-2609,31	940,00
-2598,84	710,00
-2588,39	809,00
-2577,95	754,00
-2567,52	678,00
-2557,11	689,00
-2546,71	771,00
-2536,33	967,00
-2525,97	843,00
-2515,62	894,00
-2505,28	774,00
-2494,96	776,00
-2484,65	903,00
-2474,36	1095,00
-2464,08	708,00
-2453,82	883,00
-2443,57	819,00
-2433,33	737,00
-2423,11	885,00
-2412,91	865,00
-2402,72	814,00
-2392,54	710,00
-2382,38	854,00
-2372,23	848,00
-2362,09	1721,00
-2351,97	729,00
-2341,87	735,00
-2331,78	893,00
-2321,70	876,00
-2311,64	837,00
-2301,59	845,00
-2291,55	763,00
-2281,53	882,00
-2271,53	727,00
-2261,53	891,00
-2251,55	853,00
-2241,59	781,00
-2231,64	849,00
-2221,70	798,00
-2211,78	822,00
-2201,87	825,00
-2191,97	861,00
-2182,09	763,00
-2172,22	871,00
-2162,37	733,00
-2152,53	632,00
-2142,70	788,00
-2132,89	778,00
-2123,09	820,00
-2113,30	803,00
-2103,53	835,00
-2093,77	854,00
-2084,02	763,00
-2074,29	860,00
-2064,57	830,00
-2054,86	831,00
-2045,17	960,00
-2035,49	796,00
-2025,82	800,00
-2016,17	849,00
-2006,53	737,00
-1996,91	895,00
-1987,29	754,00
-1977,69	801,00
-1968,11	723,00
-1958,53	751,00
-1948,97	797,00
-1939,42	799,00
-1929,89	793,00
-1920,37	861,00
-1910,86	825,00
-1901,36	841,00
-1891,88	881,00
-1882,41	824,00
-1872,95	926,00
-1863,51	851,00
-1854,08	864,00
-1844,66	941,00
-1835,26	913,00
-1825,86	818,00
-1816,48	780,00
-1807,11	830,00
-1797,76	896,00
-1788,42	890,00
-1779,09	888,00
-1769,77	794,00
-1760,47	928,00
-1751,17	791,00
-1741,89	774,00
-1732,63	846,00
-1723,37	979,00
-1714,13	888,00
-1704,90	812,00
-1695,68	901,00
-1686,48	766,00
-1677,29	862,00
-1668,11	1014,00
-1658,94	747,00
-1649,78	720,00
-1640,64	829,00
-1631,51	802,00
-1622,39	857,00
-1613,28	839,00
-1604,19	860,00
-1595,10	820,00
-1586,03	819,00
-1576,97	819,00
-1567,93	799,00
-1558,89	901,00
-1549,87	865,00
-1540,86	720,00
-1531,86	837,00
-1522,87	789,00
-1513,90	918,00
-1504,93	908,00
-1495,98	831,00
-1487,04	954,00
-1478,12	724,00
-1469,20	809,00
-1460,30	822,00
-1451,40	985,00
-1442,52	820,00
-1433,65	938,00
-1424,80	756,00
-1415,95	828,00
-1407,12	984,00
-1398,30	790,00
-1389,48	837,00
-1380,69	773,00
-1371,90	743,00
-1363,12	916,00
-1354,36	994,00
-1345,60	821,00
-1336,86	886,00
-1328,13	893,00
-1319,41	857,00
-1310,70	801,00
-1302,01	876,00
-1293,32	756,00
-1284,65	833,00
-1275,99	823,00
-1267,33	913,00
-1258,69	842,00
-1250,06	861,00
-1241,45	750,00
-1232,84	1009,00
-1224,25	862,00
-1215,66	877,00
-1207,09	839,00
-1198,53	800,00
-1189,97	821,00
-1181,43	813,00
-1172,91	865,00
-1164,39	823,00
-1155,88	713,00
-1147,38	608,00
-1138,90	767,00
-1130,43	737,00
-1121,96	806,00
-1113,51	812,00
-1105,07	888,00
-1096,64	848,00
-1088,22	795,00
-1079,81	890,00
-1071,41	900,00
-1063,02	745,00
-1054,65	886,00
-1046,28	807,00
-1037,92	819,00
-1029,58	792,00
-1021,24	939,00
-1012,92	1078,00
-1004,61	827,00
-996,30	1077,00
-988,01	756,00
-979,73	820,00
-971,46	860,00
-963,20	781,00
-954,95	720,00
-946,71	777,00
-938,48	861,00
-930,26	836,00
-922,06	843,00
-913,86	736,00
-905,67	800,00
-897,49	785,00
-889,33	685,00
-881,17	935,00
-873,02	825,00
-864,89	757,00
-856,76	795,00
-848,65	889,00
-840,54	839,00
-832,45	871,00
-824,36	712,00
-816,29	844,00
-808,22	806,00
-800,17	860,00
-792,12	869,00
-784,09	915,00
-776,06	833,00
-768,05	867,00
-760,04	805,00
-752,05	752,00
-744,07	914,00
-736,09	952,00
-728,13	667,00
-720,17	857,00
-712,23	806,00
-704,29	790,00
-696,37	789,00
-688,45	913,00
-680,55	763,00
-672,65	728,00
-664,77	789,00
-656,89	869,00
-649,03	783,00
-641,17	851,00
-633,32	770,00
-625,49	908,00
-617,66	824,00
-609,84	809,00
-602,03	743,00
-594,23	910,00
-586,45	861,00
-578,67	834,00
-570,90	832,00
-563,14	691,00
-555,39	930,00
-547,65	891,00
-539,91	871,00
-532,19	829,00
-524,48	816,00
-516,78	849,00
-509,08	853,00
-501,40	730,00
-493,72	782,00
-486,06	673,00
-478,40	963,00
-470,76	793,00
-463,12	729,00
-455,49	782,00
-447,87	810,00
-440,26	828,00
-432,66	780,00
-425,07	821,00
-417,49	879,00
-409,92	685,00
-402,35	756,00
-394,80	785,00
-387,25	862,00
-379,72	885,00
-372,19	949,00
-364,67	920,00
-357,17	831,00
-349,67	862,00
-342,18	872,00
-334,69	913,00
-327,22	916,00
-319,76	845,00
-312,30	831,00
-304,86	757,00
-297,42	827,00
-290,00	823,00
-282,58	740,00
-275,17	858,00
-267,77	955,00
-260,37	911,00
-252,99	963,00
-245,62	902,00
-238,25	877,00
-230,90	803,00
-223,55	991,00
-216,21	863,00
-208,88	1030,00
-201,56	946,00
-194,25	984,00
-186,94	926,00
-179,65	950,00
-172,36	996,00
-165,08	1106,00
-157,81	1110,00
-150,55	1126,00
-143,30	1148,00
-136,06	1174,00
-128,82	1193,00
-121,60	1308,00
-114,38	1308,00
-107,17	1463,00
-99,97	1668,00
-92,78	1647,00
-85,60	1737,00
-78,42	1907,00
-71,25	2090,00
-64,10	2210,00
-56,95	2582,00
-49,81	2833,00
-42,67	3500,00
-35,55	4033,00
-28,43	5116,00
-21,33	8148,00
-14,23	24916,00
-7,14	57498,00
-0,05	57284,00
7,02	57012,00
14,09	57319,00
21,14	21329,00
28,19	9320,00
35,23	6277,00
42,27	5089,00
49,29	4138,00
56,31	3682,00
63,32	3292,00
70,32	2842,00
77,31	2466,00
84,29	2268,00
91,27	2157,00
98,23	2059,00
105,19	1926,00
112,14	2056,00
119,09	2883,00
126,02	4071,00
132,95	4590,00
139,87	4804,00
146,78	4904,00
153,68	4652,00
160,58	4553,00
167,46	4466,00
174,34	4608,00
181,21	4510,00
188,08	4381,00
194,93	4504,00
201,78	4359,00
208,62	4575,00
215,45	4530,00
222,27	4476,00
229,09	4542,00
235,90	4251,00
242,70	4278,00
249,49	4447,00
256,27	4112,00
263,05	4013,00
269,82	4078,00
276,58	4090,00
283,33	3852,00
290,08	3882,00
296,82	3856,00
303,55	3766,00
310,27	3682,00
316,98	3706,00
323,69	3737,00
330,39	3603,00
337,08	3734,00
343,76	3711,00
350,44	3689,00
357,11	3698,00
363,77	3637,00
370,42	3581,00
377,07	3551,00
383,71	3557,00
390,34	3608,00
396,96	3616,00
403,58	3607,00
410,19	3737,00
416,79	3832,00
423,38	3908,00
429,97	3875,00
436,55	3834,00
443,12	3921,00
449,68	3923,00
456,24	3819,00
462,79	3667,00
469,33	3664,00
475,86	3428,00
482,39	3306,00
488,91	3349,00
495,42	3132,00
501,93	3293,00
508,42	3186,00
514,91	3210,00
521,40	3117,00
527,87	2998,00
534,34	2939,00
540,80	3032,00
547,25	3113,00
553,70	2996,00
560,14	3150,00
566,57	3094,00
573,00	3125,00
579,41	3185,00
585,83	3244,00
592,23	3157,00
598,62	3287,00
605,01	3380,00
611,40	3374,00
617,77	3422,00
624,14	3258,00
630,50	3204,00
636,85	3173,00
643,20	3000,00
649,54	2848,00
655,87	2911,00
662,20	2854,00
668,52	2832,00
674,83	2825,00
681,13	2683,00
687,43	2793,00
693,72	2646,00
700,00	2676,00
706,28	2784,00
712,55	2765,00
718,81	2760,00
725,07	2765,00
731,32	2708,00
737,56	2724,00
743,79	2695,00
750,02	2739,00
756,24	2563,00
762,46	2645,00
768,67	2795,00
774,87	2658,00
781,06	2592,00
787,25	2721,00
793,43	2610,00
799,60	2607,00
805,77	2726,00
811,93	2722,00
818,08	2724,00
824,23	2607,00
830,37	2879,00
836,50	2651,00
842,63	2655,00
848,75	2646,00
854,87	2642,00
860,97	2770,00
867,07	2637,00
873,17	2695,00
879,25	2689,00
885,33	2723,00
891,41	2747,00
897,47	2785,00
903,53	2559,00
909,59	2694,00
915,63	2620,00
921,67	2589,00
927,71	2674,00
933,74	2631,00
939,76	2304,00
945,77	2484,00
951,78	2592,00
957,78	2367,00
963,78	2569,00
969,77	2462,00
975,75	2444,00
981,72	2421,00
987,69	3758,00
993,66	2562,00
999,61	2589,00
1005,56	2478,00
1011,51	2538,00
1017,44	2525,00
1023,37	2485,00
1029,30	2551,00
1035,22	2617,00
1041,13	2535,00
1047,03	2838,00
1052,93	3278,00
1058,83	4551,00
1064,71	5132,00
1070,59	4318,00
1076,47	3576,00
1082,33	3379,00
1088,20	3145,00
1094,05	2991,00
1099,90	2678,00
1105,74	2707,00
1111,58	2775,00
1117,41	3140,00
1123,23	3956,00
1129,05	4703,00
1134,86	4437,00
1140,67	3305,00
1146,47	2831,00
1152,26	2619,00
1158,05	2467,00
1163,83	2719,00
1169,60	2781,00
1175,37	2692,00
1181,13	2619,00
1186,89	2398,00
1192,64	2386,00
1198,38	2472,00
1204,12	2344,00
1209,85	2338,00
1215,58	2355,00
1221,30	2352,00
1227,02	2466,00
1232,72	2298,00
1238,43	2376,00
1244,12	2319,00
1249,81	2431,00
1255,50	2535,00
1261,17	2403,00
1266,85	2489,00
1272,51	2678,00
1278,17	2811,00
1283,83	3084,00
1289,47	4499,00
1295,12	6032,00
1300,75	5372,00
1306,38	4282,00
1312,01	3457,00
1317,63	2954,00
1323,24	2743,00
1328,85	2647,00
1334,45	2532,00
1340,04	2515,00
1345,63	2469,00
1351,22	2589,00
1356,80	2507,00
1362,37	2720,00
1367,93	2571,00
1373,49	2682,00
1379,05	2528,00
1384,60	2435,00
1390,14	2540,00
1395,68	2474,00
1401,21	2562,00
1406,74	2764,00
1412,26	3303,00
1417,77	3903,00
1423,28	3824,00
1428,78	4157,00
1434,28	5266,00
1439,77	6095,00
1445,26	5928,00
1450,74	5489,00
1456,22	5010,00
1461,68	4849,00
1467,15	4567,00
1472,61	3896,00
1478,06	3483,00
1483,51	3089,00
1488,95	2678,00
1494,38	2719,00
1499,81	2483,00
1505,24	2307,00
1510,65	2279,00
1516,07	2302,00
1521,48	2239,00
1526,88	2136,00
1532,27	2144,00
1537,67	2145,00
1543,05	2190,00
1548,43	2041,00
1553,81	2145,00
1559,18	1968,00
1564,54	2025,00
1569,90	2059,00
1575,25	1995,00
1580,60	1952,00
1585,94	2048,00
1591,28	2033,00
1596,61	1950,00
1601,93	1970,00
1607,25	2021,00
1612,57	1892,00
1617,88	1972,00
1623,18	2019,00
1628,48	1856,00
1633,77	1863,00
1639,06	1965,00
1644,34	1874,00
1649,62	1868,00
1654,89	1901,00
1660,16	1801,00
1665,42	2074,00
1670,67	1805,00
1675,92	1723,00
1681,17	1739,00
1686,41	1887,00
1691,64	1876,00
1696,87	1817,00
1702,10	1788,00
1707,32	1851,00
1712,53	1731,00
1717,74	1844,00
1722,94	1867,00
1728,14	1768,00
1733,33	1691,00
1738,52	1683,00
1743,70	1705,00
1748,88	1709,00
1754,05	1790,00
1759,22	1649,00
1764,38	1917,00
1769,53	1710,00
1774,69	1809,00
1779,83	1690,00
1784,97	1719,00
1790,11	1630,00
1795,24	1659,00
1800,36	1651,00
1805,48	1567,00
1810,60	1657,00
1815,71	1639,00
1820,82	1571,00
1825,92	1666,00
1831,01	1602,00
1836,10	1598,00
1841,19	1706,00
1846,26	1539,00
1851,34	1593,00
1856,41	1684,00
1861,47	1466,00
1866,53	1632,00
1871,59	1546,00
1876,64	1584,00
1881,68	1569,00
1886,72	1506,00
1891,76	1526,00
1896,79	1453,00
1901,81	1443,00
1906,83	1568,00
1911,85	1390,00
1916,86	1582,00
1921,86	1413,00
1926,86	1460,00
1931,86	1541,00
1936,85	1479,00
1941,83	1411,00
1946,81	1436,00
1951,79	1389,00
1956,76	1377,00
1961,72	1270,00
1966,68	1434,00
1971,64	1376,00
1976,59	1418,00
1981,54	1395,00
1986,48	1491,00
1991,42	1282,00
1996,35	1577,00
2001,27	1419,00
2006,20	1302,00
2011,11	1431,00
2016,03	1368,00
2020,93	1250,00
2025,84	1368,00
2030,73	1295,00
2035,63	1266,00
2040,52	1404,00
2045,40	1359,00
2050,28	1383,00
2055,15	1389,00
2060,02	1161,00
2064,89	1443,00
2069,75	1357,00
2074,60	1382,00
2079,46	1228,00
2084,30	1295,00
2089,14	1169,00
2093,98	1273,00
2098,81	1322,00
2103,64	1349,00
2108,46	1333,00
2113,28	1319,00
2118,09	1371,00
2122,90	1331,00
2127,70	1332,00
2132,50	1379,00
2137,30	1296,00
2142,09	1137,00
2146,87	1224,00
2151,66	1346,00
2156,43	1247,00
2161,20	1288,00
2165,97	1495,00
2170,73	1260,00
2175,49	1470,00
2180,24	1369,00
2184,99	1524,00
2189,74	1451,00
2194,48	1380,00
2199,21	1384,00
2203,94	1278,00
2208,67	1251,00
2213,39	1138,00
2218,11	1303,00
2222,82	1239,00
2227,53	1280,00
2232,23	1281,00
2236,93	1245,00
2241,63	1248,00
2246,32	1359,00
2251,00	1227,00
2255,68	1242,00
2260,36	1177,00
2265,03	1331,00
2269,70	1336,00
2274,36	1151,00
2279,02	1241,00
2283,68	1300,00
2288,33	1265,00
2292,97	1279,00
2297,61	1237,00
2302,25	1236,00
2306,88	1140,00
2311,51	1149,00
2316,14	1149,00
2320,75	1060,00
2325,37	1113,00
2329,98	1186,00
2334,59	1159,00
2339,19	1129,00
2343,79	1042,00
2348,38	1157,00
2352,97	1121,00
2357,55	1209,00
2362,13	1180,00
2366,71	1125,00
2371,28	1189,00
2375,85	1217,00
2380,41	1229,00
2384,97	1091,00
2389,52	1186,00
2394,07	1233,00
2398,62	1183,00
2403,16	1251,00
2407,70	1035,00
2412,23	1054,00
2416,76	1294,00
2421,29	1236,00
2425,81	1185,00
2430,32	1186,00
2434,84	1066,00
2439,34	1085,00
2443,85	1318,00
2448,35	1171,00
2452,84	1109,00
2457,33	1140,00
2461,82	1004,00
2466,30	1073,00
2470,78	1144,00
2475,25	1093,00
2479,72	1073,00
2484,19	1253,00
2488,65	1210,00
2493,11	988,00
2497,56	1262,00
2502,01	1017,00
2506,46	1215,00
2510,90	1128,00
2515,34	1163,00
2519,77	1080,00
2524,20	1126,00
2528,62	1206,00
2533,04	1190,00
2537,46	1117,00
2541,87	1057,00
2546,28	1116,00
2550,68	1205,00
2555,08	1095,00
2559,48	1119,00
2563,87	1064,00
2568,26	1001,00
2572,64	1133,00
2577,02	1191,00
2581,40	1014,00
2585,77	1216,00
2590,14	1130,00
2594,50	1011,00
2598,86	1145,00
2603,22	1113,00
2607,57	1109,00
2611,92	1190,00
2616,26	1354,00
2620,60	1283,00
2624,94	1142,00
2629,27	1166,00
2633,60	1015,00
2637,92	1333,00
2642,24	1243,00
2646,56	1182,00
2650,87	1096,00
2655,18	1239,00
2659,48	1068,00
2663,78	1082,00
2668,08	1227,00
2672,37	1217,00
2676,66	1173,00
2680,95	1137,00
2685,23	1314,00
2689,50	1153,00
2693,78	1264,00
2698,05	1217,00
2702,31	1325,00
2706,57	1398,00
2710,83	1446,00
2715,08	1573,00
2719,33	1436,00
2723,58	1512,00
2727,82	1507,00
2732,06	1435,00
2736,29	1416,00
2740,53	1369,00
2744,75	1246,00
2748,97	1315,00
2753,19	1326,00
2757,41	1341,00
2761,62	1387,00
2765,83	1268,00
2770,03	1275,00
2774,23	1347,00
2778,43	1179,00
2782,62	1352,00
2786,81	1307,00
2791,00	1394,00
2795,18	1410,00
2799,35	1480,00
2803,53	1527,00
2807,70	1536,00
2811,86	1587,00
2816,03	1714,00
2820,19	1739,00
2824,34	1756,00
2828,49	1909,00
2832,64	2254,00
2836,78	2690,00
2840,92	3077,00
2845,06	3710,00
2849,19	4163,00
2853,32	4316,00
2857,45	4240,00
2861,57	4164,00
2865,69	4103,00
2869,80	3910,00
2873,91	4135,00
2878,02	4603,00
2882,12	4929,00
2886,22	4973,00
2890,32	4622,00
2894,41	4437,00
2898,50	4067,00
2902,58	3705,00
2906,67	3567,00
2910,74	3206,00
2914,82	2969,00
2918,89	3061,00
2922,96	2747,00
2927,02	2483,00
2931,08	2433,00
2935,13	2268,00
2939,19	2278,00
2943,24	2039,00
2947,28	1998,00
2951,32	1726,00
2955,36	1561,00
2959,40	1725,00
2963,43	1580,00
2967,46	1390,00
2971,48	1432,00
2975,50	1292,00
2979,52	1313,00
2983,53	1349,00
2987,54	1174,00
2991,55	1197,00
2995,55	1173,00
2999,55	1178,00
3003,54	1039,00
3007,54	1124,00
3011,53	1123,00
3015,51	1116,00
3019,49	1171,00
3023,47	962,00
3027,45	1145,00
3031,42	1002,00
3035,39	1016,00
3039,35	1074,00
3043,31	1108,00
3047,27	987,00
3051,22	1075,00
3055,17	923,00
3059,12	984,00
3063,06	916,00
3067,00	904,00
3070,94	885,00
3074,87	1079,00
3078,80	945,00
3082,73	960,00
3086,65	822,00
3090,57	951,00
3094,49	896,00
3098,40	861,00
3102,31	895,00
3106,22	971,00
3110,12	855,00
3114,02	804,00
3117,92	885,00
3121,81	908,00
3125,70	872,00
3129,58	811,00
3133,47	783,00
3137,34	895,00
3141,22	947,00
3145,09	932,00
3148,96	890,00
3152,83	994,00
3156,69	937,00
3160,55	865,00
3164,40	948,00
3168,26	880,00
3172,10	890,00
3175,95	903,00
3179,79	945,00
3183,63	978,00
3187,47	877,00
3191,30	908,00
3195,13	903,00
3198,95	782,00
3202,78	832,00
3206,60	773,00
3210,41	796,00
3214,23	830,00
3218,03	858,00
3221,84	941,00
3225,64	918,00
3229,44	757,00
3233,24	889,00
3237,03	881,00
3240,82	792,00
3244,61	801,00
3248,39	834,00
3252,17	875,00
3255,95	954,00
3259,72	840,00
3263,49	993,00
3267,26	844,00
3271,03	862,00
3274,79	778,00
3278,54	925,00
3282,30	732,00
3286,05	860,00
3289,80	789,00
3293,54	828,00
3297,29	875,00
3301,02	819,00
3304,76	851,00
3308,49	881,00
3312,22	802,00
3315,95	853,00
3319,67	787,00
3323,39	952,00
3327,10	825,00
3330,82	866,00
3334,53	764,00
3338,24	876,00
3341,94	789,00
3345,64	858,00
3349,34	802,00
3353,03	980,00
3356,72	851,00
3360,41	884,00
3364,10	773,00
3367,78	896,00
3371,46	821,00
3375,13	789,00
3378,81	915,00
3382,48	826,00
3386,14	930,00
3389,81	1007,00
3393,47	847,00
3397,12	934,00
3400,78	868,00
3404,43	782,00
3408,08	850,00
3411,72	748,00
3415,36	834,00
3419,00	839,00
3422,64	780,00
3426,27	862,00
3429,90	911,00
3433,53	789,00
3437,15	795,00
3440,77	724,00
3444,39	767,00
3448,00	832,00
3451,62	742,00
3455,22	811,00
3458,83	757,00
3462,43	830,00
3466,03	912,00
3469,63	785,00
3473,22	745,00
3476,81	739,00
3480,40	880,00
3483,99	740,00
3487,57	840,00
3491,15	798,00
3494,72	884,00
3498,29	913,00
3501,86	721,00
3505,43	830,00
3508,99	797,00
3512,56	717,00
3516,11	860,00
3519,67	814,00
3523,22	809,00
3526,77	741,00
3530,32	913,00
3533,86	854,00
3537,40	962,00
3540,94	874,00
3544,47	761,00
3548,00	709,00
3551,53	765,00
3555,06	774,00
3558,58	860,00
3562,10	870,00
3565,62	685,00
3569,13	804,00
3572,64	865,00
3576,15	775,00
3579,66	762,00
3583,16	766,00
3586,66	773,00
3590,16	772,00
3593,65	731,00
3597,14	719,00
3600,63	773,00
3604,11	862,00
3607,60	789,00
3611,08	720,00
3614,55	837,00
3618,03	800,00
3621,50	708,00
3624,97	731,00
3628,43	723,00
3631,90	678,00
3635,36	672,00
3638,81	742,00
3642,27	705,00
3645,72	772,00
3649,17	711,00
3652,61	779,00
3656,06	722,00
3659,50	783,00
3662,93	701,00
3666,37	765,00
3669,80	991,00
3673,23	803,00
3676,65	770,00
3680,08	881,00
3683,50	678,00
3686,92	694,00
3690,33	747,00
3693,74	729,00
3697,15	678,00
3700,56	829,00
3703,96	732,00
3707,36	565,00
3710,76	678,00
3714,16	650,00
3717,55	749,00
3720,94	610,00
3724,33	703,00
3727,71	707,00
3731,10	691,00
3734,48	775,00
3737,85	659,00
3741,23	683,00
3744,60	760,00
3747,97	623,00
3751,33	777,00
3754,69	702,00
3758,05	704,00
3761,41	694,00
3764,77	633,00
3768,12	605,00
3771,47	599,00
3774,82	719,00
3778,16	-9,00
3781,50	16,00
3784,84	-3,00
3788,18	9,00
>>>>>End Processed Spectral Data<<<<<
