SpectraSuite Data File
++++++++++++++++++++++++++++++++++++
Date: Mon Jan 05 16:32:46 ICT 2026
User: Administrator
Dark Spectrum Present: Yes
Reference Spectrum Present: No
Number of Sampled Component Spectra: 1
Spectrometers: MAYP113682
Integration Time (usec): 3000000 (MAYP113682)
Spectra Averaged: 1 (MAYP113682)
Boxcar Smoothing: 0 (MAYP113682)
Correct for Electrical Dark: No (MAYP113682)
Strobe/Lamp Enabled: No (MAYP113682)
Correct for Detector Non-linearity: No (MAYP113682)
Correct for Stray Light: No (MAYP113682)
Number of Pixels in Processed Spectrum: 2068
>>>>>Begin Processed Spectral Data<<<<<
-37534,58	28,00
-37414,56	4,00
-37295,11	6,00
-37176,24	2,00
-37057,95	519,00
-36940,22	655,00
-36823,05	670,00
-36706,45	829,00
-36590,40	768,00
-36474,90	690,00
-36359,95	860,00
-36245,55	713,00
-36131,68	694,00
-36018,35	646,00
-35905,55	685,00
-35793,29	851,00
-35681,54	717,00
-35570,32	779,00
-35459,62	795,00
-35349,43	889,00
-35239,75	771,00
-35130,58	813,00
-35021,91	794,00
-34913,74	795,00
-34806,07	802,00
-34698,89	892,00
-34592,20	772,00
-34486,00	804,00
-34380,28	803,00
-34275,04	737,00
-34170,27	769,00
-34065,98	907,00
-33962,16	800,00
-33858,81	909,00
-33755,92	737,00
-33653,49	822,00
-33551,52	866,00
-33450,01	820,00
-33348,94	837,00
-33248,33	805,00
-33148,16	802,00
-33048,43	787,00
-32949,14	1048,00
-32850,29	884,00
-32751,87	766,00
-32653,89	856,00
-32556,33	941,00
-32459,20	810,00
-32362,49	777,00
-32266,19	815,00
-32170,32	758,00
-32074,86	847,00
-31979,82	822,00
-31885,18	963,00
-31790,95	853,00
-31697,12	864,00
-31603,69	868,00
-31510,67	908,00
-31418,04	850,00
-31325,80	782,00
-31233,95	813,00
-31142,49	894,00
-31051,42	866,00
-30960,73	939,00
-30870,43	950,00
-30780,50	856,00
-30690,95	880,00
-30601,77	965,00
-30512,97	864,00
-30424,53	859,00
-30336,46	824,00
-30248,76	832,00
-30161,42	980,00
-30074,44	807,00
-29987,81	930,00
-29901,55	938,00
-29815,63	796,00
-29730,07	951,00
-29644,86	838,00
-29560,00	890,00
-29475,48	824,00
-29391,30	866,00
-29307,47	820,00
-29223,97	800,00
-29140,81	921,00
-29057,99	919,00
-28975,50	759,00
-28893,34	949,00
-28811,51	844,00
-28730,00	858,00
-28648,82	824,00
-28567,97	882,00
-28487,43	786,00
-28407,21	867,00
-28327,32	802,00
-28247,73	958,00
-28168,46	914,00
-28089,50	919,00
-28010,85	804,00
-27932,51	802,00
-27854,48	881,00
-27776,75	742,00
-27699,32	752,00
-27622,19	820,00
-27545,37	909,00
-27468,84	902,00
-27392,60	825,00
-27316,66	926,00
-27241,01	858,00
-27165,66	833,00
-27090,59	721,00
-27015,81	960,00
-26941,31	986,00
-26867,10	768,00
-26793,17	987,00
-26719,52	896,00
-26646,15	811,00
-26573,06	823,00
-26500,24	798,00
-26427,70	904,00
-26355,43	806,00
-26283,43	848,00
-26211,71	775,00
-26140,25	880,00
-26069,06	1037,00
-25998,13	806,00
-25927,46	730,00
-25857,06	767,00
-25786,92	898,00
-25717,04	862,00
-25647,42	873,00
-25578,05	838,00
-25508,94	798,00
-25440,09	855,00
-25371,48	889,00
-25303,13	940,00
-25235,02	775,00
-25167,17	780,00
-25099,56	857,00
-25032,19	744,00
-24965,07	791,00
-24898,20	753,00
-24831,56	823,00
-24765,17	853,00
-24699,01	786,00
-24633,10	817,00
-24567,41	835,00
-24501,97	751,00
-24436,75	839,00
-24371,77	849,00
-24307,03	781,00
-24242,51	780,00
-24178,22	813,00
-24114,16	829,00
-24050,32	940,00
-23986,71	848,00
-23923,32	841,00
-23860,16	827,00
-23797,22	825,00
-23734,50	823,00
-23672,00	766,00
-23609,71	799,00
-23547,65	768,00
-23485,80	877,00
-23424,16	696,00
-23362,74	875,00
-23301,53	929,00
-23240,54	753,00
-23179,75	704,00
-23119,17	831,00
-23058,80	727,00
-22998,64	963,00
-22938,68	864,00
-22878,93	847,00
-22819,39	725,00
-22760,04	873,00
-22700,90	777,00
-22641,96	793,00
-22583,22	911,00
-22524,68	814,00
-22466,33	757,00
-22408,19	828,00
-22350,23	841,00
-22292,48	832,00
-22234,92	838,00
-22177,55	828,00
-22120,37	947,00
-22063,38	766,00
-22006,58	809,00
-21949,98	807,00
-21893,56	680,00
-21837,33	876,00
-21781,28	788,00
-21725,42	784,00
-21669,74	848,00
-21614,25	865,00
-21558,94	953,00
-21503,81	862,00
-21448,86	927,00
-21394,10	780,00
-21339,51	811,00
-21285,10	717,00
-21230,86	783,00
-21176,81	778,00
-21122,93	776,00
-21069,22	753,00
-21015,69	780,00
-20962,33	870,00
-20909,14	795,00
-20856,13	891,00
-20803,28	963,00
-20750,61	819,00
-20698,10	710,00
-20645,76	761,00
-20593,59	920,00
-20541,59	915,00
-20489,75	827,00
-20438,07	745,00
-20386,56	954,00
-20335,22	778,00
-20284,03	813,00
-20233,01	834,00
-20182,15	814,00
-20131,45	869,00
-20080,91	673,00
-20030,52	787,00
-19980,30	782,00
-19930,23	707,00
-19880,32	918,00
-19830,56	769,00
-19780,96	860,00
-19731,52	760,00
-19682,23	897,00
-19633,09	763,00
-19584,10	799,00
-19535,26	777,00
-19486,58	988,00
-19438,04	753,00
-19389,66	926,00
-19341,42	776,00
-19293,33	818,00
-19245,39	866,00
-19197,60	917,00
-19149,95	884,00
-19102,45	779,00
-19055,09	712,00
-19007,87	863,00
-18960,80	890,00
-18913,87	799,00
-18867,09	802,00
-18820,44	882,00
-18773,94	814,00
-18727,57	789,00
-18681,35	656,00
-18635,26	834,00
-18589,31	796,00
-18543,50	768,00
-18497,83	859,00
-18452,29	810,00
-18406,89	709,00
-18361,63	918,00
-18316,50	857,00
-18271,50	821,00
-18226,63	857,00
-18181,90	936,00
-18137,30	847,00
-18092,84	816,00
-18048,50	940,00
-18004,29	749,00
-17960,22	792,00
-17916,27	805,00
-17872,45	856,00
-17828,76	889,00
-17785,20	856,00
-17741,77	886,00
-17698,46	925,00
-17655,28	731,00
-17612,22	779,00
-17569,29	785,00
-17526,48	877,00
-17483,79	841,00
-17441,23	777,00
-17398,79	856,00
-17356,48	819,00
-17314,28	959,00
-17272,21	810,00
-17230,26	789,00
-17188,42	849,00
-17146,71	895,00
-17105,12	723,00
-17063,64	942,00
-17022,28	814,00
-16981,04	814,00
-16939,92	915,00
-16898,91	905,00
-16858,02	755,00
-16817,25	900,00
-16776,59	790,00
-16736,04	814,00
-16695,61	809,00
-16655,29	772,00
-16615,09	821,00
-16574,99	817,00
-16535,01	750,00
-16495,15	787,00
-16455,39	890,00
-16415,74	724,00
-16376,21	829,00
-16336,78	788,00
-16297,46	817,00
-16258,26	777,00
-16219,16	759,00
-16180,17	808,00
-16141,28	885,00
-16102,51	931,00
-16063,84	782,00
-16025,27	907,00
-15986,82	699,00
-15948,46	814,00
-15910,22	797,00
-15872,07	773,00
-15834,04	760,00
-15796,10	782,00
-15758,27	980,00
-15720,54	764,00
-15682,91	828,00
-15645,39	913,00
-15607,97	853,00
-15570,64	770,00
-15533,42	951,00
-15496,30	919,00
-15459,28	802,00
-15422,36	832,00
-15385,54	761,00
-15348,82	802,00
-15312,19	1013,00
-15275,66	722,00
-15239,23	802,00
-15202,90	777,00
-15166,67	833,00
-15130,53	843,00
-15094,48	876,00
-15058,54	813,00
-15022,68	762,00
-14986,93	757,00
-14951,26	839,00
-14915,69	806,00
-14880,22	745,00
-14844,84	784,00
-14809,55	768,00
-14774,35	781,00
-14739,25	795,00
-14704,24	847,00
-14669,32	758,00
-14634,49	776,00
-14599,75	908,00
-14565,10	801,00
-14530,55	867,00
-14496,08	768,00
-14461,70	842,00
-14427,41	726,00
-14393,21	710,00
-14359,10	761,00
-14325,07	849,00
-14291,14	780,00
-14257,29	814,00
-14223,52	864,00
-14189,85	986,00
-14156,26	847,00
-14122,76	723,00
-14089,34	777,00
-14056,01	803,00
-14022,76	765,00
-13989,60	801,00
-13956,52	833,00
-13923,53	834,00
-13890,62	797,00
-13857,79	729,00
-13825,05	729,00
-13792,39	739,00
-13759,81	793,00
-13727,31	743,00
-13694,90	807,00
-13662,57	852,00
-13630,31	902,00
-13598,14	827,00
-13566,05	763,00
-13534,05	747,00
-13502,12	772,00
-13470,27	782,00
-13438,50	824,00
-13406,80	826,00
-13375,19	785,00
-13343,66	798,00
-13312,20	857,00
-13280,83	810,00
-13249,53	803,00
-13218,30	717,00
-13187,16	775,00
-13156,09	1039,00
-13125,10	859,00
-13094,18	920,00
-13063,34	872,00
-13032,58	760,00
-13001,89	872,00
-12971,28	870,00
-12940,74	820,00
-12910,27	892,00
-12879,88	879,00
-12849,57	851,00
-12819,33	938,00
-12789,16	865,00
-12759,06	766,00
-12729,04	856,00
-12699,09	2239,00
-12669,21	816,00
-12639,41	847,00
-12609,68	786,00
-12580,02	813,00
-12550,43	896,00
-12520,91	702,00
-12491,46	768,00
-12462,08	753,00
-12432,77	819,00
-12403,54	808,00
-12374,37	780,00
-12345,27	893,00
-12316,24	788,00
-12287,29	817,00
-12258,40	756,00
-12229,57	878,00
-12200,82	796,00
-12172,14	921,00
-12143,52	696,00
-12114,97	735,00
-12086,49	845,00
-12058,07	880,00
-12029,73	771,00
-12001,44	901,00
-11973,23	848,00
-11945,08	740,00
-11917,00	924,00
-11888,98	768,00
-11861,03	999,00
-11833,15	843,00
-11805,32	913,00
-11777,57	834,00
-11749,88	873,00
-11722,25	816,00
-11694,69	765,00
-11667,19	851,00
-11639,75	932,00
-11612,38	769,00
-11585,07	796,00
-11557,83	825,00
-11530,65	929,00
-11503,53	818,00
-11476,47	838,00
-11449,48	785,00
-11422,54	933,00
-11395,67	882,00
-11368,86	843,00
-11342,11	767,00
-11315,43	835,00
-11288,80	806,00
-11262,23	825,00
-11235,73	863,00
-11209,28	982,00
-11182,90	832,00
-11156,57	811,00
-11130,31	983,00
-11104,10	901,00
-11077,96	841,00
-11051,87	844,00
-11025,84	746,00
-10999,87	829,00
-10973,96	736,00
-10948,11	828,00
-10922,31	900,00
-10896,58	858,00
-10870,90	871,00
-10845,28	837,00
-10819,71	786,00
-10794,20	944,00
-10768,75	902,00
-10743,36	939,00
-10718,02	792,00
-10692,74	851,00
-10667,52	841,00
-10642,35	828,00
-10617,24	899,00
-10592,18	831,00
-10567,18	862,00
-10542,23	921,00
-10517,34	842,00
-10492,51	939,00
-10467,72	884,00
-10443,00	894,00
-10418,32	897,00
-10393,70	956,00
-10369,14	817,00
-10344,63	864,00
-10320,17	965,00
-10295,77	879,00
-10271,42	913,00
-10247,12	973,00
-10222,88	1068,00
-10198,68	851,00
-10174,54	1022,00
-10150,46	1083,00
-10126,42	1059,00
-10102,44	930,00
-10078,51	947,00
-10054,63	1019,00
-10030,80	1057,00
-10007,03	1142,00
-9983,30	1042,00
-9959,63	1117,00
-9936,01	1221,00
-9912,44	1113,00
-9888,92	1152,00
-9865,44	1140,00
-9842,02	1183,00
-9818,65	1144,00
-9795,33	1019,00
-9772,06	1186,00
-9748,84	1096,00
-9725,67	1158,00
-9702,55	1306,00
-9679,47	1349,00
-9656,45	1507,00
-9633,47	1394,00
-9610,55	1340,00
-9587,67	1575,00
-9564,84	1828,00
-9542,06	1667,00
-9519,32	1832,00
-9496,64	1988,00
-9474,00	1968,00
-9451,41	1997,00
-9428,87	2090,00
-9406,37	2137,00
-9383,92	1857,00
-9361,52	1892,00
-9339,17	2074,00
-9316,86	2154,00
-9294,60	2456,00
-9272,38	2629,00
-9250,21	2926,00
-9228,09	3067,00
-9206,01	3013,00
-9183,98	2687,00
-9162,00	2444,00
-9140,06	2535,00
-9118,16	2312,00
-9096,31	2458,00
-9074,51	2616,00
-9052,75	2822,00
-9031,04	2684,00
-9009,37	2497,00
-8987,74	2234,00
-8966,16	2160,00
-8944,63	1963,00
-8923,14	2089,00
-8901,69	2043,00
-8880,29	2003,00
-8858,93	2206,00
-8837,61	2467,00
-8816,34	2639,00
-8795,11	2464,00
-8773,92	2380,00
-8752,78	2312,00
-8731,68	2076,00
-8710,62	2128,00
-8689,61	2056,00
-8668,63	2282,00
-8647,70	2514,00
-8626,82	2504,00
-8605,97	2471,00
-8585,17	2302,00
-8564,41	2054,00
-8543,69	1940,00
-8523,01	1778,00
-8502,37	2070,00
-8481,78	1972,00
-8461,23	1937,00
-8440,71	2218,00
-8420,24	2314,00
-8399,81	2449,00
-8379,42	2412,00
-8359,08	2408,00
-8338,77	2115,00
-8318,50	1889,00
-8298,27	1860,00
-8278,09	2047,00
-8257,94	2054,00
-8237,83	2233,00
-8217,76	2255,00
-8197,74	2413,00
-8177,75	2392,00
-8157,80	2080,00
-8137,89	1983,00
-8118,02	1789,00
-8098,19	2041,00
-8078,40	1865,00
-8058,65	2025,00
-8038,93	2119,00
-8019,26	2028,00
-7999,62	2051,00
-7980,02	1878,00
-7960,46	1751,00
-7940,94	1713,00
-7921,46	1741,00
-7902,01	1681,00
-7882,60	1800,00
-7863,23	1775,00
-7843,90	1737,00
-7824,61	1721,00
-7805,35	2030,00
-7786,13	1870,00
-7766,95	1844,00
-7747,80	1867,00
-7728,69	1859,00
-7709,62	1861,00
-7690,59	1869,00
-7671,59	1975,00
-7652,63	1913,00
-7633,70	1899,00
-7614,81	1910,00
-7595,96	1812,00
-7577,15	1751,00
-7558,37	1665,00
-7539,62	1686,00
-7520,91	1778,00
-7502,24	1769,00
-7483,60	1919,00
-7465,00	1810,00
-7446,44	1688,00
-7427,91	1537,00
-7409,41	1398,00
-7390,95	1388,00
-7372,53	1290,00
-7354,14	1417,00
-7335,78	1419,00
-7317,46	1403,00
-7299,18	1348,00
-7280,92	1562,00
-7262,71	1787,00
-7244,52	1729,00
-7226,38	1733,00
-7208,26	1585,00
-7190,18	1544,00
-7172,14	1505,00
-7154,12	1624,00
-7136,15	1467,00
-7118,20	1698,00
-7100,29	1762,00
-7082,41	1851,00
-7064,57	1561,00
-7046,76	1618,00
-7028,98	1404,00
-7011,24	1424,00
-6993,53	1177,00
-6975,85	1336,00
-6958,20	1111,00
-6940,59	1102,00
-6923,01	979,00
-6905,46	1341,00
-6887,94	1287,00
-6870,46	1623,00
-6853,01	1600,00
-6835,59	1564,00
-6818,21	1417,00
-6800,85	1402,00
-6783,53	1115,00
-6766,24	1064,00
-6748,98	1099,00
-6731,76	992,00
-6714,56	1015,00
-6697,40	969,00
-6680,26	902,00
-6663,16	1028,00
-6646,09	1235,00
-6629,05	1441,00
-6612,05	1308,00
-6595,07	1287,00
-6578,13	1468,00
-6561,21	1027,00
-6544,33	1197,00
-6527,47	880,00
-6510,65	998,00
-6493,86	848,00
-6477,10	867,00
-6460,36	998,00
-6443,66	870,00
-6426,99	850,00
-6410,35	946,00
-6393,74	1038,00
-6377,16	939,00
-6360,61	1130,00
-6344,09	960,00
-6327,59	1101,00
-6311,13	1196,00
-6294,70	1187,00
-6278,29	1276,00
-6261,92	1245,00
-6245,58	1266,00
-6229,26	1308,00
-6212,97	1320,00
-6196,72	988,00
-6180,49	1154,00
-6164,29	903,00
-6148,12	947,00
-6131,98	941,00
-6115,86	814,00
-6099,78	735,00
-6083,72	592,00
-6067,69	730,00
-6051,69	814,00
-6035,72	939,00
-6019,78	994,00
-6003,87	1078,00
-5987,98	1075,00
-5972,12	1167,00
-5956,29	1051,00
-5940,49	1022,00
-5924,71	1054,00
-5908,96	1019,00
-5893,24	869,00
-5877,55	831,00
-5861,89	893,00
-5846,25	672,00
-5830,64	1000,00
-5815,05	826,00
-5799,50	876,00
-5783,97	949,00
-5768,47	1021,00
-5752,99	1137,00
-5737,55	1052,00
-5722,12	1041,00
-5706,73	1136,00
-5691,36	1023,00
-5676,02	936,00
-5660,71	946,00
-5645,42	809,00
-5630,16	940,00
-5614,92	1028,00
-5599,71	929,00
-5584,53	948,00
-5569,37	990,00
-5554,24	1258,00
-5539,14	932,00
-5524,06	923,00
-5509,01	945,00
-5493,98	877,00
-5478,98	887,00
-5464,00	840,00
-5449,05	852,00
-5434,13	829,00
-5419,23	875,00
-5404,36	880,00
-5389,51	926,00
-5374,69	1037,00
-5359,89	1113,00
-5345,12	1285,00
-5330,37	1256,00
-5315,65	1075,00
-5300,95	1014,00
-5286,28	844,00
-5271,63	832,00
-5257,01	913,00
-5242,41	867,00
-5227,84	846,00
-5213,29	850,00
-5198,76	904,00
-5184,26	895,00
-5169,79	924,00
-5155,33	853,00
-5140,91	777,00
-5126,51	1029,00
-5112,13	915,00
-5097,77	928,00
-5083,44	1029,00
-5069,13	772,00
-5054,85	853,00
-5040,59	819,00
-5026,36	920,00
-5012,15	1037,00
-4997,96	989,00
-4983,80	913,00
-4969,66	871,00
-4955,54	881,00
-4941,44	941,00
-4927,37	914,00
-4913,33	1132,00
-4899,30	1079,00
-4885,30	1025,00
-4871,33	1014,00
-4857,37	874,00
-4843,44	859,00
-4829,53	1014,00
-4815,65	993,00
-4801,79	766,00
-4787,95	1027,00
-4774,13	829,00
-4760,34	786,00
-4746,56	964,00
-4732,82	836,00
-4719,09	810,00
-4705,38	1086,00
-4691,70	1087,00
-4678,04	1167,00
-4664,41	1177,00
-4650,79	1188,00
-4637,20	853,00
-4623,63	774,00
-4610,08	1074,00
-4596,56	953,00
-4583,05	900,00
-4569,57	924,00
-4556,11	972,00
-4542,67	796,00
-4529,25	852,00
-4515,86	921,00
-4502,49	1013,00
-4489,13	1084,00
-4475,80	1183,00
-4462,49	804,00
-4449,21	1029,00
-4435,94	918,00
-4422,70	818,00
-4409,47	754,00
-4396,27	927,00
-4383,09	854,00
-4369,93	951,00
-4356,79	730,00
-4343,67	968,00
-4330,58	953,00
-4317,50	1029,00
-4304,45	888,00
-4291,41	899,00
-4278,40	835,00
-4265,41	826,00
-4252,44	909,00
-4239,49	801,00
-4226,55	1024,00
-4213,65	956,00
-4200,76	891,00
-4187,89	845,00
-4175,04	760,00
-4162,21	769,00
-4149,40	885,00
-4136,61	888,00
-4123,85	814,00
-4111,10	877,00
-4098,37	872,00
-4085,66	938,00
-4072,98	980,00
-4060,31	826,00
-4047,66	992,00
-4035,04	1065,00
-4022,43	805,00
-4009,84	874,00
-3997,27	668,00
-3984,72	897,00
-3972,19	891,00
-3959,69	834,00
-3947,20	847,00
-3934,73	797,00
-3922,27	733,00
-3909,84	811,00
-3897,43	826,00
-3885,04	892,00
-3872,67	813,00
-3860,31	865,00
-3847,98	887,00
-3835,66	865,00
-3823,36	873,00
-3811,09	784,00
-3798,83	903,00
-3786,59	848,00
-3774,37	915,00
-3762,17	752,00
-3749,98	887,00
-3737,82	831,00
-3725,67	1068,00
-3713,55	788,00
-3701,44	980,00
-3689,35	806,00
-3677,28	959,00
-3665,22	757,00
-3653,19	734,00
-3641,17	779,00
-3629,18	863,00
-3617,20	820,00
-3605,24	879,00
-3593,30	904,00
-3581,37	871,00
-3569,47	892,00
-3557,58	813,00
-3545,71	941,00
-3533,86	909,00
-3522,02	863,00
-3510,21	831,00
-3498,41	825,00
-3486,63	827,00
-3474,87	853,00
-3463,12	835,00
-3451,40	818,00
-3439,69	810,00
-3428,00	850,00
-3416,33	882,00
-3404,67	833,00
-3393,03	850,00
-3381,41	887,00
-3369,81	895,00
-3358,22	901,00
-3346,66	992,00
-3335,10	844,00
-3323,57	802,00
-3312,06	926,00
-3300,56	838,00
-3289,08	868,00
-3277,61	888,00
-3266,16	796,00
-3254,73	810,00
-3243,32	800,00
-3231,92	784,00
-3220,55	923,00
-3209,18	965,00
-3197,84	808,00
-3186,51	759,00
-3175,20	791,00
-3163,90	814,00
-3152,63	958,00
-3141,36	747,00
-3130,12	929,00
-3118,89	896,00
-3107,68	775,00
-3096,49	883,00
-3085,31	885,00
-3074,15	827,00
-3063,00	917,00
-3051,87	859,00
-3040,76	797,00
-3029,67	1008,00
-3018,59	1039,00
-3007,52	1058,00
-2996,48	874,00
-2985,44	886,00
-2974,43	963,00
-2963,43	855,00
-2952,45	821,00
-2941,48	880,00
-2930,53	840,00
-2919,60	798,00
-2908,68	828,00
-2897,78	869,00
-2886,89	923,00
-2876,02	869,00
-2865,17	802,00
-2854,33	816,00
-2843,50	871,00
-2832,70	821,00
-2821,90	834,00
-2811,13	825,00
-2800,37	855,00
-2789,62	734,00
-2778,89	878,00
-2768,18	889,00
-2757,48	876,00
-2746,80	961,00
-2736,13	819,00
-2725,48	921,00
-2714,84	752,00
-2704,22	746,00
-2693,61	825,00
-2683,02	848,00
-2672,45	848,00
-2661,89	909,00
-2651,34	946,00
-2640,81	904,00
-2630,30	951,00
-2619,80	784,00
-2609,31	925,00
-2598,84	767,00
-2588,39	818,00
-2577,95	808,00
-2567,52	706,00
-2557,11	756,00
-2546,71	849,00
-2536,33	1036,00
-2525,97	804,00
-2515,62	854,00
-2505,28	840,00
-2494,96	793,00
-2484,65	799,00
-2474,36	1171,00
-2464,08	705,00
-2453,82	1007,00
-2443,57	855,00
-2433,33	836,00
-2423,11	885,00
-2412,91	933,00
-2402,72	753,00
-2392,54	819,00
-2382,38	862,00
-2372,23	961,00
-2362,09	2018,00
-2351,97	811,00
-2341,87	759,00
-2331,78	955,00
-2321,70	936,00
-2311,64	840,00
-2301,59	857,00
-2291,55	777,00
-2281,53	849,00
-2271,53	731,00
-2261,53	935,00
-2251,55	980,00
-2241,59	770,00
-2231,64	857,00
-2221,70	823,00
-2211,78	838,00
-2201,87	784,00
-2191,97	894,00
-2182,09	851,00
-2172,22	969,00
-2162,37	777,00
-2152,53	747,00
-2142,70	772,00
-2132,89	843,00
-2123,09	963,00
-2113,30	836,00
-2103,53	824,00
-2093,77	922,00
-2084,02	777,00
-2074,29	939,00
-2064,57	903,00
-2054,86	961,00
-2045,17	868,00
-2035,49	912,00
-2025,82	736,00
-2016,17	844,00
-2006,53	829,00
-1996,91	870,00
-1987,29	756,00
-1977,69	792,00
-1968,11	801,00
-1958,53	775,00
-1948,97	890,00
-1939,42	863,00
-1929,89	823,00
-1920,37	800,00
-1910,86	822,00
-1901,36	893,00
-1891,88	960,00
-1882,41	891,00
-1872,95	815,00
-1863,51	862,00
-1854,08	910,00
-1844,66	995,00
-1835,26	949,00
-1825,86	878,00
-1816,48	732,00
-1807,11	913,00
-1797,76	898,00
-1788,42	896,00
-1779,09	900,00
-1769,77	801,00
-1760,47	1013,00
-1751,17	846,00
-1741,89	793,00
-1732,63	902,00
-1723,37	1013,00
-1714,13	993,00
-1704,90	810,00
-1695,68	942,00
-1686,48	811,00
-1677,29	823,00
-1668,11	1021,00
-1658,94	765,00
-1649,78	828,00
-1640,64	880,00
-1631,51	869,00
-1622,39	976,00
-1613,28	810,00
-1604,19	996,00
-1595,10	869,00
-1586,03	787,00
-1576,97	882,00
-1567,93	871,00
-1558,89	951,00
-1549,87	921,00
-1540,86	752,00
-1531,86	799,00
-1522,87	756,00
-1513,90	880,00
-1504,93	925,00
-1495,98	880,00
-1487,04	941,00
-1478,12	816,00
-1469,20	833,00
-1460,30	968,00
-1451,40	1005,00
-1442,52	937,00
-1433,65	992,00
-1424,80	872,00
-1415,95	769,00
-1407,12	1023,00
-1398,30	818,00
-1389,48	938,00
-1380,69	737,00
-1371,90	815,00
-1363,12	863,00
-1354,36	1036,00
-1345,60	848,00
-1336,86	927,00
-1328,13	965,00
-1319,41	844,00
-1310,70	831,00
-1302,01	778,00
-1293,32	799,00
-1284,65	864,00
-1275,99	893,00
-1267,33	1008,00
-1258,69	919,00
-1250,06	830,00
-1241,45	767,00
-1232,84	990,00
-1224,25	901,00
-1215,66	913,00
-1207,09	882,00
-1198,53	835,00
-1189,97	840,00
-1181,43	818,00
-1172,91	764,00
-1164,39	988,00
-1155,88	783,00
-1147,38	701,00
-1138,90	848,00
-1130,43	797,00
-1121,96	849,00
-1113,51	817,00
-1105,07	889,00
-1096,64	901,00
-1088,22	765,00
-1079,81	941,00
-1071,41	1078,00
-1063,02	793,00
-1054,65	933,00
-1046,28	843,00
-1037,92	860,00
-1029,58	870,00
-1021,24	851,00
-1012,92	1177,00
-1004,61	905,00
-996,30	1084,00
-988,01	726,00
-979,73	878,00
-971,46	949,00
-963,20	824,00
-954,95	750,00
-946,71	868,00
-938,48	875,00
-930,26	952,00
-922,06	919,00
-913,86	790,00
-905,67	783,00
-897,49	889,00
-889,33	717,00
-881,17	819,00
-873,02	888,00
-864,89	809,00
-856,76	844,00
-848,65	843,00
-840,54	946,00
-832,45	865,00
-824,36	726,00
-816,29	966,00
-808,22	940,00
-800,17	923,00
-792,12	875,00
-784,09	888,00
-776,06	744,00
-768,05	891,00
-760,04	792,00
-752,05	866,00
-744,07	902,00
-736,09	855,00
-728,13	712,00
-720,17	886,00
-712,23	864,00
-704,29	748,00
-696,37	833,00
-688,45	944,00
-680,55	819,00
-672,65	822,00
-664,77	853,00
-656,89	932,00
-649,03	819,00
-641,17	916,00
-633,32	819,00
-625,49	844,00
-617,66	844,00
-609,84	943,00
-602,03	754,00
-594,23	846,00
-586,45	861,00
-578,67	831,00
-570,90	793,00
-563,14	776,00
-555,39	911,00
-547,65	894,00
-539,91	784,00
-532,19	889,00
-524,48	927,00
-516,78	775,00
-509,08	888,00
-501,40	822,00
-493,72	937,00
-486,06	803,00
-478,40	900,00
-470,76	848,00
-463,12	761,00
-455,49	834,00
-447,87	796,00
-440,26	819,00
-432,66	754,00
-425,07	965,00
-417,49	913,00
-409,92	721,00
-402,35	829,00
-394,80	766,00
-387,25	749,00
-379,72	899,00
-372,19	913,00
-364,67	959,00
-357,17	759,00
-349,67	890,00
-342,18	878,00
-334,69	850,00
-327,22	885,00
-319,76	872,00
-312,30	842,00
-304,86	817,00
-297,42	888,00
-290,00	855,00
-282,58	896,00
-275,17	968,00
-267,77	1062,00
-260,37	863,00
-252,99	1038,00
-245,62	926,00
-238,25	964,00
-230,90	942,00
-223,55	984,00
-216,21	947,00
-208,88	1065,00
-201,56	971,00
-194,25	983,00
-186,94	982,00
-179,65	1079,00
-172,36	1097,00
-165,08	1114,00
-157,81	1183,00
-150,55	1241,00
-143,30	1226,00
-136,06	1228,00
-128,82	1314,00
-121,60	1292,00
-114,38	1408,00
-107,17	1551,00
-99,97	1792,00
-92,78	1707,00
-85,60	1789,00
-78,42	1976,00
-71,25	2236,00
-64,10	2335,00
-56,95	2556,00
-49,81	2805,00
-42,67	3620,00
-35,55	4200,00
-28,43	5335,00
-21,33	8270,00
-14,23	25450,00
-7,14	57498,00
-0,05	57284,00
7,02	57012,00
14,09	57319,00
21,14	21759,00
28,19	9597,00
35,23	6350,00
42,27	5200,00
49,29	4214,00
56,31	3645,00
63,32	3376,00
70,32	2859,00
77,31	2538,00
84,29	2327,00
91,27	2104,00
98,23	2166,00
105,19	2026,00
112,14	2137,00
119,09	2949,00
126,02	4436,00
132,95	4956,00
139,87	5042,00
146,78	5233,00
153,68	5095,00
160,58	4927,00
167,46	4777,00
174,34	4927,00
181,21	4977,00
188,08	4685,00
194,93	4904,00
201,78	4884,00
208,62	4885,00
215,45	4886,00
222,27	4782,00
229,09	4877,00
235,90	4604,00
242,70	4687,00
249,49	4823,00
256,27	4572,00
263,05	4480,00
269,82	4551,00
276,58	4561,00
283,33	4376,00
290,08	4299,00
296,82	4160,00
303,55	4062,00
310,27	4166,00
316,98	4039,00
323,69	4035,00
330,39	4010,00
337,08	4063,00
343,76	4137,00
350,44	4051,00
357,11	4014,00
363,77	3945,00
370,42	3975,00
377,07	4061,00
383,71	4041,00
390,34	4044,00
396,96	3896,00
403,58	3991,00
410,19	4262,00
416,79	4187,00
423,38	4321,00
429,97	4327,00
436,55	4168,00
443,12	4294,00
449,68	4285,00
456,24	4151,00
462,79	4133,00
469,33	3932,00
475,86	3781,00
482,39	3784,00
488,91	3702,00
495,42	3592,00
501,93	3629,00
508,42	3511,00
514,91	3539,00
521,40	3485,00
527,87	3453,00
534,34	3340,00
540,80	3427,00
547,25	3473,00
553,70	3498,00
560,14	3409,00
566,57	3511,00
573,00	3503,00
579,41	3500,00
585,83	3538,00
592,23	3445,00
598,62	3735,00
605,01	3739,00
611,40	3840,00
617,77	3798,00
624,14	3635,00
630,50	3401,00
636,85	3409,00
643,20	3305,00
649,54	3111,00
655,87	3250,00
662,20	3246,00
668,52	3113,00
674,83	3195,00
681,13	3052,00
687,43	3168,00
693,72	3010,00
700,00	3031,00
706,28	2985,00
712,55	3029,00
718,81	3119,00
725,07	3022,00
731,32	3035,00
737,56	3023,00
743,79	3028,00
750,02	3030,00
756,24	2888,00
762,46	2922,00
768,67	3136,00
774,87	2973,00
781,06	2866,00
787,25	2933,00
793,43	2933,00
799,60	2922,00
805,77	3050,00
811,93	2947,00
818,08	2931,00
824,23	2929,00
830,37	3196,00
836,50	2902,00
842,63	2975,00
848,75	2918,00
854,87	2913,00
860,97	2987,00
867,07	2992,00
873,17	3049,00
879,25	3051,00
885,33	3002,00
891,41	2990,00
897,47	2965,00
903,53	2832,00
909,59	3004,00
915,63	2872,00
921,67	2686,00
927,71	2809,00
933,74	2735,00
939,76	2629,00
945,77	2638,00
951,78	2828,00
957,78	2549,00
963,78	2800,00
969,77	2692,00
975,75	2617,00
981,72	2618,00
987,69	4095,00
993,66	2770,00
999,61	2814,00
1005,56	2709,00
1011,51	2724,00
1017,44	2740,00
1023,37	2748,00
1029,30	2780,00
1035,22	2730,00
1041,13	2782,00
1047,03	3083,00
1052,93	3470,00
1058,83	4859,00
1064,71	5246,00
1070,59	4434,00
1076,47	3716,00
1082,33	3500,00
1088,20	3305,00
1094,05	3060,00
1099,90	2805,00
1105,74	2934,00
1111,58	2951,00
1117,41	3234,00
1123,23	4157,00
1129,05	4993,00
1134,86	4423,00
1140,67	3527,00
1146,47	3021,00
1152,26	2914,00
1158,05	2714,00
1163,83	2838,00
1169,60	2948,00
1175,37	2906,00
1181,13	2754,00
1186,89	2535,00
1192,64	2561,00
1198,38	2697,00
1204,12	2492,00
1209,85	2511,00
1215,58	2455,00
1221,30	2552,00
1227,02	2606,00
1232,72	2507,00
1238,43	2479,00
1244,12	2534,00
1249,81	2593,00
1255,50	2762,00
1261,17	2661,00
1266,85	2660,00
1272,51	2798,00
1278,17	2914,00
1283,83	3261,00
1289,47	4620,00
1295,12	6093,00
1300,75	5551,00
1306,38	4332,00
1312,01	3566,00
1317,63	3156,00
1323,24	3019,00
1328,85	2766,00
1334,45	2628,00
1340,04	2619,00
1345,63	2543,00
1351,22	2836,00
1356,80	2653,00
1362,37	2791,00
1367,93	2786,00
1373,49	2854,00
1379,05	2690,00
1384,60	2656,00
1390,14	2605,00
1395,68	2721,00
1401,21	2741,00
1406,74	2963,00
1412,26	3522,00
1417,77	4107,00
1423,28	3966,00
1428,78	4469,00
1434,28	5417,00
1439,77	6188,00
1445,26	5978,00
1450,74	5684,00
1456,22	5173,00
1461,68	5108,00
1467,15	4749,00
1472,61	4088,00
1478,06	3648,00
1483,51	3150,00
1488,95	2722,00
1494,38	2805,00
1499,81	2446,00
1505,24	2550,00
1510,65	2516,00
1516,07	2394,00
1521,48	2391,00
1526,88	2281,00
1532,27	2346,00
1537,67	2311,00
1543,05	2299,00
1548,43	2146,00
1553,81	2319,00
1559,18	2075,00
1564,54	2196,00
1569,90	2129,00
1575,25	2102,00
1580,60	2011,00
1585,94	2157,00
1591,28	2170,00
1596,61	2111,00
1601,93	2128,00
1607,25	2200,00
1612,57	2082,00
1617,88	2104,00
1623,18	2113,00
1628,48	2045,00
1633,77	1986,00
1639,06	2147,00
1644,34	2030,00
1649,62	1881,00
1654,89	2125,00
1660,16	1850,00
1665,42	2090,00
1670,67	1990,00
1675,92	1907,00
1681,17	1932,00
1686,41	1985,00
1691,64	2023,00
1696,87	1982,00
1702,10	1973,00
1707,32	1947,00
1712,53	1968,00
1717,74	1858,00
1722,94	2031,00
1728,14	1928,00
1733,33	1988,00
1738,52	1829,00
1743,70	1893,00
1748,88	1767,00
1754,05	1948,00
1759,22	1781,00
1764,38	1065,00
1769,53	1886,00
1774,69	1884,00
1779,83	1708,00
1784,97	1758,00
1790,11	1791,00
1795,24	1774,00
1800,36	1740,00
1805,48	1730,00
1810,60	1850,00
1815,71	1796,00
1820,82	1714,00
1825,92	1783,00
1831,01	1727,00
1836,10	1821,00
1841,19	1741,00
1846,26	1643,00
1851,34	1732,00
1856,41	1719,00
1861,47	1643,00
1866,53	1733,00
1871,59	1619,00
1876,64	1684,00
1881,68	1629,00
1886,72	1615,00
1891,76	1597,00
1896,79	1627,00
1901,81	1588,00
1906,83	1684,00
1911,85	1516,00
1916,86	1674,00
1921,86	1597,00
1926,86	1581,00
1931,86	1542,00
1936,85	1563,00
1941,83	1524,00
1946,81	1496,00
1951,79	1442,00
1956,76	1563,00
1961,72	1435,00
1966,68	1504,00
1971,64	1468,00
1976,59	1601,00
1981,54	1530,00
1986,48	1568,00
1991,42	1357,00
1996,35	1666,00
2001,27	1536,00
2006,20	1437,00
2011,11	1564,00
2016,03	1474,00
2020,93	1413,00
2025,84	1466,00
2030,73	1405,00
2035,63	1389,00
2040,52	1515,00
2045,40	1360,00
2050,28	1449,00
2055,15	1420,00
2060,02	1259,00
2064,89	1459,00
2069,75	1435,00
2074,60	1395,00
2079,46	1273,00
2084,30	1332,00
2089,14	1341,00
2093,98	1439,00
2098,81	1308,00
2103,64	1313,00
2108,46	1372,00
2113,28	1455,00
2118,09	1419,00
2122,90	1405,00
2127,70	1363,00
2132,50	1398,00
2137,30	1268,00
2142,09	1288,00
2146,87	1284,00
2151,66	1443,00
2156,43	1375,00
2161,20	1333,00
2165,97	1428,00
2170,73	1264,00
2175,49	1485,00
2180,24	1447,00
2184,99	1545,00
2189,74	1557,00
2194,48	1427,00
2199,21	1430,00
2203,94	1414,00
2208,67	1232,00
2213,39	1263,00
2218,11	1353,00
2222,82	1322,00
2227,53	1327,00
2232,23	1282,00
2236,93	1383,00
2241,63	1278,00
2246,32	1350,00
2251,00	1298,00
2255,68	1400,00
2260,36	1287,00
2265,03	1347,00
2269,70	1498,00
2274,36	1317,00
2279,02	1346,00
2283,68	1285,00
2288,33	1240,00
2292,97	1284,00
2297,61	1286,00
2302,25	1365,00
2306,88	1208,00
2311,51	1095,00
2316,14	1272,00
2320,75	1206,00
2325,37	1142,00
2329,98	1306,00
2334,59	1236,00
2339,19	1176,00
2343,79	1082,00
2348,38	1270,00
2352,97	1082,00
2357,55	1224,00
2362,13	1183,00
2366,71	1140,00
2371,28	1384,00
2375,85	1239,00
2380,41	1194,00
2384,97	1192,00
2389,52	1294,00
2394,07	1243,00
2398,62	1152,00
2403,16	1188,00
2407,70	1061,00
2412,23	1086,00
2416,76	1259,00
2421,29	1228,00
2425,81	1383,00
2430,32	1287,00
2434,84	1111,00
2439,34	1086,00
2443,85	1236,00
2448,35	1169,00
2452,84	1154,00
2457,33	1192,00
2461,82	1087,00
2466,30	1021,00
2470,78	1246,00
2475,25	1123,00
2479,72	1183,00
2484,19	1239,00
2488,65	1186,00
2493,11	1117,00
2497,56	1285,00
2502,01	1053,00
2506,46	1172,00
2510,90	1130,00
2515,34	1113,00
2519,77	1195,00
2524,20	1196,00
2528,62	1154,00
2533,04	1200,00
2537,46	1138,00
2541,87	1199,00
2546,28	1145,00
2550,68	1271,00
2555,08	1161,00
2559,48	1192,00
2563,87	1056,00
2568,26	1148,00
2572,64	1157,00
2577,02	1199,00
2581,40	1044,00
2585,77	1246,00
2590,14	1124,00
2594,50	1121,00
2598,86	1209,00
2603,22	1142,00
2607,57	1147,00
2611,92	1200,00
2616,26	1295,00
2620,60	1276,00
2624,94	1139,00
2629,27	1290,00
2633,60	1091,00
2637,92	1349,00
2642,24	1360,00
2646,56	1227,00
2650,87	1104,00
2655,18	1275,00
2659,48	1138,00
2663,78	1151,00
2668,08	1197,00
2672,37	1240,00
2676,66	1275,00
2680,95	1152,00
2685,23	1315,00
2689,50	1231,00
2693,78	1221,00
2698,05	1218,00
2702,31	1425,00
2706,57	1384,00
2710,83	1408,00
2715,08	1499,00
2719,33	1533,00
2723,58	1524,00
2727,82	1491,00
2732,06	1460,00
2736,29	1536,00
2740,53	1395,00
2744,75	1346,00
2748,97	1371,00
2753,19	1339,00
2757,41	1426,00
2761,62	1465,00
2765,83	1415,00
2770,03	1230,00
2774,23	1452,00
2778,43	1327,00
2782,62	1432,00
2786,81	1438,00
2791,00	1430,00
2795,18	1474,00
2799,35	1624,00
2803,53	1605,00
2807,70	1568,00
2811,86	1593,00
2816,03	1785,00
2820,19	1726,00
2824,34	1819,00
2828,49	2007,00
2832,64	2250,00
2836,78	2696,00
2840,92	3013,00
2845,06	3737,00
2849,19	4196,00
2853,32	4378,00
2857,45	4205,00
2861,57	4162,00
2865,69	4060,00
2869,80	4027,00
2873,91	4066,00
2878,02	4592,00
2882,12	4948,00
2886,22	4901,00
2890,32	4594,00
2894,41	4476,00
2898,50	4058,00
2902,58	3845,00
2906,67	3542,00
2910,74	3239,00
2914,82	2968,00
2918,89	3041,00
2922,96	2713,00
2927,02	2559,00
2931,08	2425,00
2935,13	2187,00
2939,19	2204,00
2943,24	1997,00
2947,28	2034,00
2951,32	1705,00
2955,36	1621,00
2959,40	1702,00
2963,43	1552,00
2967,46	1465,00
2971,48	1477,00
2975,50	1291,00
2979,52	1405,00
2983,53	1272,00
2987,54	1276,00
2991,55	1320,00
2995,55	1238,00
2999,55	1245,00
3003,54	1088,00
3007,54	1141,00
3011,53	1085,00
3015,51	1141,00
3019,49	1165,00
3023,47	1018,00
3027,45	1106,00
3031,42	1088,00
3035,39	1027,00
3039,35	1049,00
3043,31	1141,00
3047,27	959,00
3051,22	1090,00
3055,17	992,00
3059,12	901,00
3063,06	1066,00
3067,00	871,00
3070,94	961,00
3074,87	1047,00
3078,80	974,00
3082,73	1014,00
3086,65	888,00
3090,57	970,00
3094,49	1003,00
3098,40	944,00
3102,31	929,00
3106,22	966,00
3110,12	861,00
3114,02	861,00
3117,92	992,00
3121,81	935,00
3125,70	901,00
3129,58	865,00
3133,47	874,00
3137,34	984,00
3141,22	927,00
3145,09	988,00
3148,96	910,00
3152,83	932,00
3156,69	964,00
3160,55	874,00
3164,40	989,00
3168,26	846,00
3172,10	902,00
3175,95	906,00
3179,79	1014,00
3183,63	928,00
3187,47	854,00
3191,30	968,00
3195,13	884,00
3198,95	804,00
3202,78	939,00
3206,60	974,00
3210,41	772,00
3214,23	858,00
3218,03	880,00
3221,84	956,00
3225,64	868,00
3229,44	839,00
3233,24	903,00
3237,03	901,00
3240,82	813,00
3244,61	765,00
3248,39	843,00
3252,17	975,00
3255,95	964,00
3259,72	941,00
3263,49	1099,00
3267,26	906,00
3271,03	934,00
3274,79	791,00
3278,54	921,00
3282,30	716,00
3286,05	974,00
3289,80	910,00
3293,54	861,00
3297,29	952,00
3301,02	844,00
3304,76	799,00
3308,49	837,00
3312,22	860,00
3315,95	936,00
3319,67	813,00
3323,39	1007,00
3327,10	969,00
3330,82	822,00
3334,53	930,00
3338,24	917,00
3341,94	867,00
3345,64	892,00
3349,34	866,00
3353,03	971,00
3356,72	855,00
3360,41	930,00
3364,10	837,00
3367,78	857,00
3371,46	821,00
3375,13	808,00
3378,81	863,00
3382,48	861,00
3386,14	929,00
3389,81	930,00
3393,47	910,00
3397,12	1011,00
3400,78	939,00
3404,43	836,00
3408,08	949,00
3411,72	776,00
3415,36	848,00
3419,00	877,00
3422,64	896,00
3426,27	908,00
3429,90	889,00
3433,53	777,00
3437,15	828,00
3440,77	783,00
3444,39	853,00
3448,00	862,00
3451,62	912,00
3455,22	922,00
3458,83	834,00
3462,43	938,00
3466,03	946,00
3469,63	820,00
3473,22	780,00
3476,81	719,00
3480,40	892,00
3483,99	770,00
3487,57	843,00
3491,15	800,00
3494,72	847,00
3498,29	907,00
3501,86	772,00
3505,43	748,00
3508,99	728,00
3512,56	730,00
3516,11	880,00
3519,67	875,00
3523,22	867,00
3526,77	754,00
3530,32	958,00
3533,86	872,00
3537,40	935,00
3540,94	924,00
3544,47	829,00
3548,00	753,00
3551,53	888,00
3555,06	835,00
3558,58	907,00
3562,10	862,00
3565,62	729,00
3569,13	820,00
3572,64	912,00
3576,15	751,00
3579,66	778,00
3583,16	907,00
3586,66	885,00
3590,16	739,00
3593,65	752,00
3597,14	698,00
3600,63	718,00
3604,11	764,00
3607,60	792,00
3611,08	883,00
3614,55	806,00
3618,03	846,00
3621,50	704,00
3624,97	740,00
3628,43	794,00
3631,90	771,00
3635,36	696,00
3638,81	724,00
3642,27	720,00
3645,72	763,00
3649,17	811,00
3652,61	682,00
3656,06	725,00
3659,50	738,00
3662,93	789,00
3666,37	795,00
3669,80	958,00
3673,23	854,00
3676,65	839,00
3680,08	906,00
3683,50	715,00
3686,92	734,00
3690,33	755,00
3693,74	737,00
3697,15	722,00
3700,56	887,00
3703,96	796,00
3707,36	615,00
3710,76	700,00
3714,16	680,00
3717,55	702,00
3720,94	668,00
3724,33	760,00
3727,71	787,00
3731,10	735,00
3734,48	811,00
3737,85	646,00
3741,23	729,00
3744,60	764,00
3747,97	647,00
3751,33	799,00
3754,69	778,00
3758,05	682,00
3761,41	640,00
3764,77	725,00
3768,12	644,00
3771,47	647,00
3774,82	717,00
3778,16	-7,00
3781,50	14,00
3784,84	3,00
3788,18	6,00
>>>>>End Processed Spectral Data<<<<<
