SpectraSuite Data File
++++++++++++++++++++++++++++++++++++
Date: Mon Jan 05 16:31:58 ICT 2026
User: Administrator
Dark Spectrum Present: Yes
Reference Spectrum Present: No
Number of Sampled Component Spectra: 1
Spectrometers: MAYP113682
Integration Time (usec): 3000000 (MAYP113682)
Spectra Averaged: 1 (MAYP113682)
Boxcar Smoothing: 0 (MAYP113682)
Correct for Electrical Dark: No (MAYP113682)
Strobe/Lamp Enabled: No (MAYP113682)
Correct for Detector Non-linearity: No (MAYP113682)
Correct for Stray Light: No (MAYP113682)
Number of Pixels in Processed Spectrum: 2068
>>>>>Begin Processed Spectral Data<<<<<
-37534,58	26,00
-37414,56	7,00
-37295,11	2,00
-37176,24	3,00
-37057,95	621,00
-36940,22	638,00
-36823,05	599,00
-36706,45	777,00
-36590,40	694,00
-36474,90	599,00
-36359,95	763,00
-36245,55	714,00
-36131,68	647,00
-36018,35	743,00
-35905,55	711,00
-35793,29	799,00
-35681,54	695,00
-35570,32	722,00
-35459,62	727,00
-35349,43	795,00
-35239,75	771,00
-35130,58	764,00
-35021,91	751,00
-34913,74	751,00
-34806,07	736,00
-34698,89	822,00
-34592,20	770,00
-34486,00	696,00
-34380,28	907,00
-34275,04	716,00
-34170,27	722,00
-34065,98	855,00
-33962,16	780,00
-33858,81	810,00
-33755,92	759,00
-33653,49	842,00
-33551,52	850,00
-33450,01	822,00
-33348,94	761,00
-33248,33	711,00
-33148,16	796,00
-33048,43	729,00
-32949,14	857,00
-32850,29	853,00
-32751,87	794,00
-32653,89	828,00
-32556,33	838,00
-32459,20	830,00
-32362,49	855,00
-32266,19	834,00
-32170,32	786,00
-32074,86	803,00
-31979,82	817,00
-31885,18	837,00
-31790,95	895,00
-31697,12	898,00
-31603,69	873,00
-31510,67	933,00
-31418,04	785,00
-31325,80	854,00
-31233,95	773,00
-31142,49	843,00
-31051,42	784,00
-30960,73	957,00
-30870,43	917,00
-30780,50	851,00
-30690,95	848,00
-30601,77	916,00
-30512,97	802,00
-30424,53	854,00
-30336,46	729,00
-30248,76	808,00
-30161,42	925,00
-30074,44	792,00
-29987,81	869,00
-29901,55	901,00
-29815,63	800,00
-29730,07	908,00
-29644,86	816,00
-29560,00	886,00
-29475,48	910,00
-29391,30	827,00
-29307,47	806,00
-29223,97	744,00
-29140,81	878,00
-29057,99	957,00
-28975,50	665,00
-28893,34	1020,00
-28811,51	728,00
-28730,00	893,00
-28648,82	917,00
-28567,97	802,00
-28487,43	812,00
-28407,21	825,00
-28327,32	751,00
-28247,73	968,00
-28168,46	847,00
-28089,50	811,00
-28010,85	706,00
-27932,51	761,00
-27854,48	851,00
-27776,75	768,00
-27699,32	725,00
-27622,19	750,00
-27545,37	788,00
-27468,84	834,00
-27392,60	909,00
-27316,66	824,00
-27241,01	781,00
-27165,66	729,00
-27090,59	640,00
-27015,81	927,00
-26941,31	893,00
-26867,10	743,00
-26793,17	920,00
-26719,52	859,00
-26646,15	793,00
-26573,06	762,00
-26500,24	809,00
-26427,70	839,00
-26355,43	728,00
-26283,43	848,00
-26211,71	750,00
-26140,25	806,00
-26069,06	917,00
-25998,13	713,00
-25927,46	776,00
-25857,06	731,00
-25786,92	862,00
-25717,04	728,00
-25647,42	881,00
-25578,05	784,00
-25508,94	777,00
-25440,09	862,00
-25371,48	789,00
-25303,13	862,00
-25235,02	746,00
-25167,17	802,00
-25099,56	874,00
-25032,19	759,00
-24965,07	739,00
-24898,20	765,00
-24831,56	779,00
-24765,17	770,00
-24699,01	711,00
-24633,10	869,00
-24567,41	841,00
-24501,97	752,00
-24436,75	852,00
-24371,77	771,00
-24307,03	756,00
-24242,51	801,00
-24178,22	777,00
-24114,16	691,00
-24050,32	839,00
-23986,71	864,00
-23923,32	778,00
-23860,16	834,00
-23797,22	711,00
-23734,50	799,00
-23672,00	712,00
-23609,71	817,00
-23547,65	675,00
-23485,80	820,00
-23424,16	662,00
-23362,74	893,00
-23301,53	739,00
-23240,54	654,00
-23179,75	753,00
-23119,17	711,00
-23058,80	739,00
-22998,64	826,00
-22938,68	812,00
-22878,93	842,00
-22819,39	771,00
-22760,04	722,00
-22700,90	843,00
-22641,96	903,00
-22583,22	746,00
-22524,68	834,00
-22466,33	710,00
-22408,19	834,00
-22350,23	748,00
-22292,48	794,00
-22234,92	869,00
-22177,55	882,00
-22120,37	912,00
-22063,38	702,00
-22006,58	793,00
-21949,98	803,00
-21893,56	707,00
-21837,33	720,00
-21781,28	780,00
-21725,42	799,00
-21669,74	883,00
-21614,25	765,00
-21558,94	813,00
-21503,81	920,00
-21448,86	858,00
-21394,10	769,00
-21339,51	790,00
-21285,10	708,00
-21230,86	775,00
-21176,81	802,00
-21122,93	722,00
-21069,22	704,00
-21015,69	785,00
-20962,33	827,00
-20909,14	761,00
-20856,13	823,00
-20803,28	880,00
-20750,61	744,00
-20698,10	708,00
-20645,76	742,00
-20593,59	851,00
-20541,59	798,00
-20489,75	921,00
-20438,07	593,00
-20386,56	822,00
-20335,22	785,00
-20284,03	799,00
-20233,01	737,00
-20182,15	725,00
-20131,45	763,00
-20080,91	678,00
-20030,52	803,00
-19980,30	764,00
-19930,23	659,00
-19880,32	845,00
-19830,56	702,00
-19780,96	790,00
-19731,52	792,00
-19682,23	764,00
-19633,09	726,00
-19584,10	664,00
-19535,26	784,00
-19486,58	883,00
-19438,04	761,00
-19389,66	853,00
-19341,42	751,00
-19293,33	784,00
-19245,39	820,00
-19197,60	859,00
-19149,95	882,00
-19102,45	815,00
-19055,09	752,00
-19007,87	741,00
-18960,80	788,00
-18913,87	783,00
-18867,09	751,00
-18820,44	912,00
-18773,94	801,00
-18727,57	857,00
-18681,35	639,00
-18635,26	771,00
-18589,31	760,00
-18543,50	739,00
-18497,83	746,00
-18452,29	811,00
-18406,89	705,00
-18361,63	780,00
-18316,50	872,00
-18271,50	766,00
-18226,63	866,00
-18181,90	801,00
-18137,30	871,00
-18092,84	739,00
-18048,50	866,00
-18004,29	742,00
-17960,22	702,00
-17916,27	662,00
-17872,45	878,00
-17828,76	967,00
-17785,20	738,00
-17741,77	713,00
-17698,46	829,00
-17655,28	741,00
-17612,22	732,00
-17569,29	712,00
-17526,48	838,00
-17483,79	906,00
-17441,23	721,00
-17398,79	758,00
-17356,48	658,00
-17314,28	868,00
-17272,21	814,00
-17230,26	801,00
-17188,42	746,00
-17146,71	754,00
-17105,12	686,00
-17063,64	720,00
-17022,28	749,00
-16981,04	683,00
-16939,92	810,00
-16898,91	961,00
-16858,02	715,00
-16817,25	783,00
-16776,59	789,00
-16736,04	692,00
-16695,61	862,00
-16655,29	725,00
-16615,09	706,00
-16574,99	732,00
-16535,01	807,00
-16495,15	797,00
-16455,39	836,00
-16415,74	732,00
-16376,21	824,00
-16336,78	742,00
-16297,46	728,00
-16258,26	738,00
-16219,16	813,00
-16180,17	868,00
-16141,28	847,00
-16102,51	786,00
-16063,84	774,00
-16025,27	770,00
-15986,82	705,00
-15948,46	760,00
-15910,22	796,00
-15872,07	732,00
-15834,04	771,00
-15796,10	824,00
-15758,27	854,00
-15720,54	812,00
-15682,91	777,00
-15645,39	901,00
-15607,97	843,00
-15570,64	836,00
-15533,42	863,00
-15496,30	818,00
-15459,28	786,00
-15422,36	774,00
-15385,54	708,00
-15348,82	757,00
-15312,19	947,00
-15275,66	701,00
-15239,23	810,00
-15202,90	627,00
-15166,67	768,00
-15130,53	803,00
-15094,48	837,00
-15058,54	717,00
-15022,68	731,00
-14986,93	746,00
-14951,26	842,00
-14915,69	880,00
-14880,22	731,00
-14844,84	716,00
-14809,55	750,00
-14774,35	842,00
-14739,25	801,00
-14704,24	825,00
-14669,32	766,00
-14634,49	741,00
-14599,75	857,00
-14565,10	737,00
-14530,55	709,00
-14496,08	819,00
-14461,70	882,00
-14427,41	726,00
-14393,21	743,00
-14359,10	812,00
-14325,07	803,00
-14291,14	742,00
-14257,29	791,00
-14223,52	781,00
-14189,85	846,00
-14156,26	668,00
-14122,76	703,00
-14089,34	789,00
-14056,01	827,00
-14022,76	682,00
-13989,60	808,00
-13956,52	857,00
-13923,53	772,00
-13890,62	684,00
-13857,79	780,00
-13825,05	778,00
-13792,39	707,00
-13759,81	816,00
-13727,31	794,00
-13694,90	840,00
-13662,57	915,00
-13630,31	907,00
-13598,14	863,00
-13566,05	674,00
-13534,05	751,00
-13502,12	854,00
-13470,27	717,00
-13438,50	883,00
-13406,80	734,00
-13375,19	750,00
-13343,66	838,00
-13312,20	825,00
-13280,83	705,00
-13249,53	738,00
-13218,30	670,00
-13187,16	724,00
-13156,09	948,00
-13125,10	765,00
-13094,18	841,00
-13063,34	824,00
-13032,58	689,00
-13001,89	833,00
-12971,28	825,00
-12940,74	698,00
-12910,27	900,00
-12879,88	802,00
-12849,57	869,00
-12819,33	896,00
-12789,16	785,00
-12759,06	801,00
-12729,04	776,00
-12699,09	2115,00
-12669,21	731,00
-12639,41	845,00
-12609,68	692,00
-12580,02	717,00
-12550,43	827,00
-12520,91	717,00
-12491,46	822,00
-12462,08	709,00
-12432,77	768,00
-12403,54	803,00
-12374,37	662,00
-12345,27	849,00
-12316,24	744,00
-12287,29	742,00
-12258,40	745,00
-12229,57	820,00
-12200,82	723,00
-12172,14	852,00
-12143,52	654,00
-12114,97	735,00
-12086,49	801,00
-12058,07	859,00
-12029,73	773,00
-12001,44	845,00
-11973,23	826,00
-11945,08	799,00
-11917,00	763,00
-11888,98	706,00
-11861,03	845,00
-11833,15	819,00
-11805,32	781,00
-11777,57	797,00
-11749,88	820,00
-11722,25	685,00
-11694,69	705,00
-11667,19	767,00
-11639,75	946,00
-11612,38	825,00
-11585,07	793,00
-11557,83	748,00
-11530,65	896,00
-11503,53	706,00
-11476,47	756,00
-11449,48	726,00
-11422,54	1021,00
-11395,67	759,00
-11368,86	846,00
-11342,11	783,00
-11315,43	727,00
-11288,80	705,00
-11262,23	842,00
-11235,73	792,00
-11209,28	956,00
-11182,90	764,00
-11156,57	789,00
-11130,31	923,00
-11104,10	747,00
-11077,96	810,00
-11051,87	824,00
-11025,84	785,00
-10999,87	744,00
-10973,96	755,00
-10948,11	708,00
-10922,31	825,00
-10896,58	798,00
-10870,90	895,00
-10845,28	860,00
-10819,71	687,00
-10794,20	904,00
-10768,75	824,00
-10743,36	786,00
-10718,02	752,00
-10692,74	841,00
-10667,52	743,00
-10642,35	832,00
-10617,24	860,00
-10592,18	853,00
-10567,18	795,00
-10542,23	836,00
-10517,34	816,00
-10492,51	958,00
-10467,72	731,00
-10443,00	857,00
-10418,32	855,00
-10393,70	895,00
-10369,14	833,00
-10344,63	781,00
-10320,17	973,00
-10295,77	847,00
-10271,42	844,00
-10247,12	915,00
-10222,88	1041,00
-10198,68	851,00
-10174,54	893,00
-10150,46	1033,00
-10126,42	1050,00
-10102,44	939,00
-10078,51	1040,00
-10054,63	1051,00
-10030,80	967,00
-10007,03	1087,00
-9983,30	1108,00
-9959,63	1073,00
-9936,01	1192,00
-9912,44	1058,00
-9888,92	1172,00
-9865,44	1118,00
-9842,02	1085,00
-9818,65	1274,00
-9795,33	1029,00
-9772,06	1143,00
-9748,84	1246,00
-9725,67	1315,00
-9702,55	1406,00
-9679,47	1552,00
-9656,45	1664,00
-9633,47	1424,00
-9610,55	1553,00
-9587,67	1765,00
-9564,84	1873,00
-9542,06	1879,00
-9519,32	2023,00
-9496,64	2096,00
-9474,00	2167,00
-9451,41	2258,00
-9428,87	2180,00
-9406,37	2312,00
-9383,92	2146,00
-9361,52	2068,00
-9339,17	2253,00
-9316,86	2500,00
-9294,60	2956,00
-9272,38	2982,00
-9250,21	3355,00
-9228,09	3325,00
-9206,01	3248,00
-9183,98	3017,00
-9162,00	2816,00
-9140,06	2856,00
-9118,16	2837,00
-9096,31	2918,00
-9074,51	3038,00
-9052,75	3180,00
-9031,04	3041,00
-9009,37	2857,00
-8987,74	2679,00
-8966,16	2432,00
-8944,63	2137,00
-8923,14	2282,00
-8901,69	2235,00
-8880,29	2202,00
-8858,93	2431,00
-8837,61	2758,00
-8816,34	2764,00
-8795,11	2703,00
-8773,92	2582,00
-8752,78	2584,00
-8731,68	2261,00
-8710,62	2435,00
-8689,61	2336,00
-8668,63	2556,00
-8647,70	2827,00
-8626,82	2506,00
-8605,97	2665,00
-8585,17	2382,00
-8564,41	2316,00
-8543,69	2346,00
-8523,01	1984,00
-8502,37	2256,00
-8481,78	2224,00
-8461,23	2244,00
-8440,71	2417,00
-8420,24	2615,00
-8399,81	2725,00
-8379,42	2616,00
-8359,08	2466,00
-8338,77	2213,00
-8318,50	2028,00
-8298,27	1968,00
-8278,09	2163,00
-8257,94	2181,00
-8237,83	2449,00
-8217,76	2412,00
-8197,74	2451,00
-8177,75	2486,00
-8157,80	2150,00
-8137,89	2115,00
-8118,02	2045,00
-8098,19	2137,00
-8078,40	2040,00
-8058,65	2150,00
-8038,93	2309,00
-8019,26	2104,00
-7999,62	2201,00
-7980,02	1937,00
-7960,46	1926,00
-7940,94	1794,00
-7921,46	1733,00
-7902,01	1712,00
-7882,60	2014,00
-7863,23	1773,00
-7843,90	1826,00
-7824,61	2006,00
-7805,35	2057,00
-7786,13	2097,00
-7766,95	2068,00
-7747,80	1953,00
-7728,69	2014,00
-7709,62	1883,00
-7690,59	1903,00
-7671,59	2101,00
-7652,63	2064,00
-7633,70	2075,00
-7614,81	2099,00
-7595,96	1845,00
-7577,15	1865,00
-7558,37	1701,00
-7539,62	1853,00
-7520,91	1834,00
-7502,24	1911,00
-7483,60	1965,00
-7465,00	1832,00
-7446,44	1771,00
-7427,91	1399,00
-7409,41	1493,00
-7390,95	1544,00
-7372,53	1351,00
-7354,14	1572,00
-7335,78	1344,00
-7317,46	1555,00
-7299,18	1474,00
-7280,92	1745,00
-7262,71	1782,00
-7244,52	1894,00
-7226,38	1796,00
-7208,26	1843,00
-7190,18	1709,00
-7172,14	1671,00
-7154,12	1746,00
-7136,15	1740,00
-7118,20	1753,00
-7100,29	1945,00
-7082,41	1807,00
-7064,57	1680,00
-7046,76	1810,00
-7028,98	1428,00
-7011,24	1548,00
-6993,53	1255,00
-6975,85	1321,00
-6958,20	1365,00
-6940,59	1216,00
-6923,01	1051,00
-6905,46	1340,00
-6887,94	1374,00
-6870,46	-535,00
-6853,01	1717,00
-6835,59	1676,00
-6818,21	1499,00
-6800,85	1506,00
-6783,53	1275,00
-6766,24	1080,00
-6748,98	1083,00
-6731,76	1043,00
-6714,56	1005,00
-6697,40	957,00
-6680,26	1002,00
-6663,16	1175,00
-6646,09	1291,00
-6629,05	1386,00
-6612,05	1398,00
-6595,07	1389,00
-6578,13	1391,00
-6561,21	1205,00
-6544,33	1163,00
-6527,47	913,00
-6510,65	1034,00
-6493,86	872,00
-6477,10	1005,00
-6460,36	998,00
-6443,66	991,00
-6426,99	1051,00
-6410,35	976,00
-6393,74	1095,00
-6377,16	1000,00
-6360,61	1150,00
-6344,09	1024,00
-6327,59	1126,00
-6311,13	1248,00
-6294,70	1181,00
-6278,29	1247,00
-6261,92	1190,00
-6245,58	1376,00
-6229,26	1368,00
-6212,97	1399,00
-6196,72	1083,00
-6180,49	1129,00
-6164,29	891,00
-6148,12	960,00
-6131,98	1020,00
-6115,86	862,00
-6099,78	818,00
-6083,72	824,00
-6067,69	825,00
-6051,69	763,00
-6035,72	985,00
-6019,78	918,00
-6003,87	1196,00
-5987,98	1031,00
-5972,12	1260,00
-5956,29	1063,00
-5940,49	965,00
-5924,71	1238,00
-5908,96	911,00
-5893,24	854,00
-5877,55	921,00
-5861,89	957,00
-5846,25	790,00
-5830,64	899,00
-5815,05	902,00
-5799,50	823,00
-5783,97	994,00
-5768,47	1016,00
-5752,99	1111,00
-5737,55	1053,00
-5722,12	1112,00
-5706,73	1133,00
-5691,36	1128,00
-5676,02	979,00
-5660,71	797,00
-5645,42	872,00
-5630,16	991,00
-5614,92	1098,00
-5599,71	1029,00
-5584,53	1067,00
-5569,37	937,00
-5554,24	2020,00
-5539,14	812,00
-5524,06	973,00
-5509,01	972,00
-5493,98	996,00
-5478,98	978,00
-5464,00	893,00
-5449,05	949,00
-5434,13	947,00
-5419,23	892,00
-5404,36	826,00
-5389,51	904,00
-5374,69	1076,00
-5359,89	1219,00
-5345,12	1294,00
-5330,37	1208,00
-5315,65	1025,00
-5300,95	963,00
-5286,28	985,00
-5271,63	811,00
-5257,01	883,00
-5242,41	1032,00
-5227,84	849,00
-5213,29	872,00
-5198,76	839,00
-5184,26	933,00
-5169,79	820,00
-5155,33	875,00
-5140,91	1014,00
-5126,51	912,00
-5112,13	958,00
-5097,77	937,00
-5083,44	1001,00
-5069,13	808,00
-5054,85	864,00
-5040,59	907,00
-5026,36	985,00
-5012,15	1020,00
-4997,96	1006,00
-4983,80	979,00
-4969,66	891,00
-4955,54	848,00
-4941,44	1053,00
-4927,37	967,00
-4913,33	1165,00
-4899,30	1006,00
-4885,30	1111,00
-4871,33	861,00
-4857,37	845,00
-4843,44	876,00
-4829,53	858,00
-4815,65	957,00
-4801,79	820,00
-4787,95	922,00
-4774,13	866,00
-4760,34	793,00
-4746,56	998,00
-4732,82	815,00
-4719,09	921,00
-4705,38	1173,00
-4691,70	1140,00
-4678,04	1267,00
-4664,41	1076,00
-4650,79	1062,00
-4637,20	896,00
-4623,63	832,00
-4610,08	1012,00
-4596,56	1001,00
-4583,05	953,00
-4569,57	901,00
-4556,11	981,00
-4542,67	733,00
-4529,25	816,00
-4515,86	902,00
-4502,49	1009,00
-4489,13	1098,00
-4475,80	1161,00
-4462,49	807,00
-4449,21	1042,00
-4435,94	895,00
-4422,70	833,00
-4409,47	834,00
-4396,27	914,00
-4383,09	843,00
-4369,93	815,00
-4356,79	755,00
-4343,67	847,00
-4330,58	850,00
-4317,50	1003,00
-4304,45	953,00
-4291,41	977,00
-4278,40	838,00
-4265,41	780,00
-4252,44	934,00
-4239,49	799,00
-4226,55	996,00
-4213,65	912,00
-4200,76	989,00
-4187,89	806,00
-4175,04	763,00
-4162,21	765,00
-4149,40	876,00
-4136,61	824,00
-4123,85	839,00
-4111,10	856,00
-4098,37	913,00
-4085,66	855,00
-4072,98	841,00
-4060,31	754,00
-4047,66	970,00
-4035,04	969,00
-4022,43	788,00
-4009,84	952,00
-3997,27	695,00
-3984,72	749,00
-3972,19	866,00
-3959,69	785,00
-3947,20	753,00
-3934,73	797,00
-3922,27	669,00
-3909,84	758,00
-3897,43	853,00
-3885,04	854,00
-3872,67	749,00
-3860,31	767,00
-3847,98	796,00
-3835,66	760,00
-3823,36	884,00
-3811,09	758,00
-3798,83	922,00
-3786,59	762,00
-3774,37	956,00
-3762,17	712,00
-3749,98	743,00
-3737,82	763,00
-3725,67	967,00
-3713,55	691,00
-3701,44	921,00
-3689,35	823,00
-3677,28	894,00
-3665,22	709,00
-3653,19	725,00
-3641,17	783,00
-3629,18	804,00
-3617,20	880,00
-3605,24	713,00
-3593,30	865,00
-3581,37	911,00
-3569,47	861,00
-3557,58	798,00
-3545,71	889,00
-3533,86	882,00
-3522,02	751,00
-3510,21	878,00
-3498,41	806,00
-3486,63	729,00
-3474,87	808,00
-3463,12	740,00
-3451,40	850,00
-3439,69	830,00
-3428,00	729,00
-3416,33	930,00
-3404,67	640,00
-3393,03	713,00
-3381,41	857,00
-3369,81	860,00
-3358,22	853,00
-3346,66	852,00
-3335,10	854,00
-3323,57	765,00
-3312,06	875,00
-3300,56	804,00
-3289,08	728,00
-3277,61	813,00
-3266,16	834,00
-3254,73	709,00
-3243,32	807,00
-3231,92	726,00
-3220,55	870,00
-3209,18	908,00
-3197,84	718,00
-3186,51	710,00
-3175,20	789,00
-3163,90	709,00
-3152,63	858,00
-3141,36	756,00
-3130,12	809,00
-3118,89	882,00
-3107,68	749,00
-3096,49	835,00
-3085,31	736,00
-3074,15	845,00
-3063,00	754,00
-3051,87	795,00
-3040,76	772,00
-3029,67	955,00
-3018,59	944,00
-3007,52	960,00
-2996,48	872,00
-2985,44	767,00
-2974,43	827,00
-2963,43	789,00
-2952,45	679,00
-2941,48	836,00
-2930,53	768,00
-2919,60	722,00
-2908,68	771,00
-2897,78	767,00
-2886,89	938,00
-2876,02	789,00
-2865,17	754,00
-2854,33	818,00
-2843,50	798,00
-2832,70	829,00
-2821,90	827,00
-2811,13	790,00
-2800,37	742,00
-2789,62	705,00
-2778,89	843,00
-2768,18	755,00
-2757,48	798,00
-2746,80	852,00
-2736,13	770,00
-2725,48	893,00
-2714,84	769,00
-2704,22	806,00
-2693,61	840,00
-2683,02	836,00
-2672,45	920,00
-2661,89	820,00
-2651,34	811,00
-2640,81	847,00
-2630,30	859,00
-2619,80	661,00
-2609,31	932,00
-2598,84	671,00
-2588,39	798,00
-2577,95	773,00
-2567,52	675,00
-2557,11	702,00
-2546,71	819,00
-2536,33	888,00
-2525,97	799,00
-2515,62	821,00
-2505,28	797,00
-2494,96	775,00
-2484,65	805,00
-2474,36	1033,00
-2464,08	783,00
-2453,82	952,00
-2443,57	827,00
-2433,33	772,00
-2423,11	830,00
-2412,91	813,00
-2402,72	783,00
-2392,54	807,00
-2382,38	806,00
-2372,23	996,00
-2362,09	1703,00
-2351,97	741,00
-2341,87	727,00
-2331,78	863,00
-2321,70	816,00
-2311,64	840,00
-2301,59	804,00
-2291,55	684,00
-2281,53	870,00
-2271,53	659,00
-2261,53	872,00
-2251,55	841,00
-2241,59	773,00
-2231,64	855,00
-2221,70	795,00
-2211,78	819,00
-2201,87	871,00
-2191,97	858,00
-2182,09	799,00
-2172,22	807,00
-2162,37	700,00
-2152,53	732,00
-2142,70	729,00
-2132,89	776,00
-2123,09	844,00
-2113,30	832,00
-2103,53	785,00
-2093,77	868,00
-2084,02	794,00
-2074,29	884,00
-2064,57	828,00
-2054,86	833,00
-2045,17	909,00
-2035,49	874,00
-2025,82	669,00
-2016,17	803,00
-2006,53	865,00
-1996,91	872,00
-1987,29	871,00
-1977,69	740,00
-1968,11	690,00
-1958,53	747,00
-1948,97	812,00
-1939,42	754,00
-1929,89	832,00
-1920,37	828,00
-1910,86	716,00
-1901,36	827,00
-1891,88	830,00
-1882,41	841,00
-1872,95	916,00
-1863,51	804,00
-1854,08	845,00
-1844,66	910,00
-1835,26	926,00
-1825,86	864,00
-1816,48	801,00
-1807,11	815,00
-1797,76	811,00
-1788,42	830,00
-1779,09	767,00
-1769,77	772,00
-1760,47	946,00
-1751,17	787,00
-1741,89	769,00
-1732,63	803,00
-1723,37	1058,00
-1714,13	928,00
-1704,90	715,00
-1695,68	943,00
-1686,48	759,00
-1677,29	822,00
-1668,11	939,00
-1658,94	738,00
-1649,78	830,00
-1640,64	791,00
-1631,51	869,00
-1622,39	869,00
-1613,28	857,00
-1604,19	881,00
-1595,10	842,00
-1586,03	820,00
-1576,97	825,00
-1567,93	838,00
-1558,89	934,00
-1549,87	926,00
-1540,86	805,00
-1531,86	832,00
-1522,87	749,00
-1513,90	834,00
-1504,93	814,00
-1495,98	893,00
-1487,04	841,00
-1478,12	724,00
-1469,20	793,00
-1460,30	819,00
-1451,40	938,00
-1442,52	826,00
-1433,65	945,00
-1424,80	744,00
-1415,95	814,00
-1407,12	987,00
-1398,30	782,00
-1389,48	839,00
-1380,69	805,00
-1371,90	749,00
-1363,12	856,00
-1354,36	905,00
-1345,60	826,00
-1336,86	895,00
-1328,13	1002,00
-1319,41	857,00
-1310,70	801,00
-1302,01	690,00
-1293,32	774,00
-1284,65	762,00
-1275,99	897,00
-1267,33	953,00
-1258,69	924,00
-1250,06	891,00
-1241,45	654,00
-1232,84	964,00
-1224,25	884,00
-1215,66	823,00
-1207,09	835,00
-1198,53	771,00
-1189,97	751,00
-1181,43	792,00
-1172,91	753,00
-1164,39	959,00
-1155,88	681,00
-1147,38	691,00
-1138,90	828,00
-1130,43	712,00
-1121,96	809,00
-1113,51	850,00
-1105,07	811,00
-1096,64	891,00
-1088,22	743,00
-1079,81	862,00
-1071,41	909,00
-1063,02	759,00
-1054,65	913,00
-1046,28	829,00
-1037,92	834,00
-1029,58	810,00
-1021,24	840,00
-1012,92	1092,00
-1004,61	898,00
-996,30	969,00
-988,01	718,00
-979,73	822,00
-971,46	895,00
-963,20	834,00
-954,95	687,00
-946,71	857,00
-938,48	861,00
-930,26	873,00
-922,06	831,00
-913,86	756,00
-905,67	734,00
-897,49	913,00
-889,33	638,00
-881,17	890,00
-873,02	853,00
-864,89	744,00
-856,76	786,00
-848,65	904,00
-840,54	750,00
-832,45	827,00
-824,36	767,00
-816,29	818,00
-808,22	812,00
-800,17	866,00
-792,12	880,00
-784,09	893,00
-776,06	818,00
-768,05	823,00
-760,04	839,00
-752,05	782,00
-744,07	839,00
-736,09	925,00
-728,13	662,00
-720,17	785,00
-712,23	747,00
-704,29	721,00
-696,37	887,00
-688,45	872,00
-680,55	863,00
-672,65	835,00
-664,77	776,00
-656,89	782,00
-649,03	761,00
-641,17	876,00
-633,32	815,00
-625,49	854,00
-617,66	767,00
-609,84	823,00
-602,03	712,00
-594,23	853,00
-586,45	810,00
-578,67	762,00
-570,90	825,00
-563,14	704,00
-555,39	908,00
-547,65	872,00
-539,91	820,00
-532,19	863,00
-524,48	884,00
-516,78	769,00
-509,08	897,00
-501,40	808,00
-493,72	886,00
-486,06	764,00
-478,40	932,00
-470,76	711,00
-463,12	783,00
-455,49	836,00
-447,87	794,00
-440,26	850,00
-432,66	720,00
-425,07	904,00
-417,49	887,00
-409,92	667,00
-402,35	767,00
-394,80	801,00
-387,25	792,00
-379,72	854,00
-372,19	818,00
-364,67	868,00
-357,17	781,00
-349,67	894,00
-342,18	800,00
-334,69	801,00
-327,22	779,00
-319,76	796,00
-312,30	792,00
-304,86	838,00
-297,42	795,00
-290,00	868,00
-282,58	859,00
-275,17	904,00
-267,77	905,00
-260,37	869,00
-252,99	935,00
-245,62	976,00
-238,25	869,00
-230,90	798,00
-223,55	915,00
-216,21	894,00
-208,88	1130,00
-201,56	948,00
-194,25	956,00
-186,94	1043,00
-179,65	976,00
-172,36	1053,00
-165,08	1031,00
-157,81	1172,00
-150,55	1145,00
-143,30	1163,00
-136,06	1169,00
-128,82	1266,00
-121,60	1258,00
-114,38	1397,00
-107,17	1465,00
-99,97	1605,00
-92,78	1634,00
-85,60	1672,00
-78,42	1897,00
-71,25	1987,00
-64,10	2254,00
-56,95	2536,00
-49,81	2784,00
-42,67	3449,00
-35,55	3967,00
-28,43	5112,00
-21,33	7950,00
-14,23	24686,00
-7,14	57498,00
-0,05	57284,00
7,02	57012,00
14,09	57319,00
21,14	21095,00
28,19	9205,00
35,23	6198,00
42,27	5023,00
49,29	4156,00
56,31	3581,00
63,32	3276,00
70,32	2787,00
77,31	2559,00
84,29	2226,00
91,27	2168,00
98,23	2047,00
105,19	1901,00
112,14	2084,00
119,09	2932,00
126,02	4319,00
132,95	4924,00
139,87	5118,00
146,78	5293,00
153,68	5075,00
160,58	5017,00
167,46	4848,00
174,34	4912,00
181,21	4832,00
188,08	4811,00
194,93	4833,00
201,78	4886,00
208,62	4974,00
215,45	4909,00
222,27	4831,00
229,09	4933,00
235,90	4744,00
242,70	4736,00
249,49	4671,00
256,27	4512,00
263,05	4457,00
269,82	4463,00
276,58	4399,00
283,33	4394,00
290,08	4226,00
296,82	4286,00
303,55	4060,00
310,27	4066,00
316,98	4067,00
323,69	4019,00
330,39	3976,00
337,08	4072,00
343,76	4125,00
350,44	4029,00
357,11	3965,00
363,77	3980,00
370,42	3939,00
377,07	4037,00
383,71	3985,00
390,34	4012,00
396,96	3889,00
403,58	3951,00
410,19	4152,00
416,79	4208,00
423,38	4289,00
429,97	4342,00
436,55	4175,00
443,12	4265,00
449,68	4301,00
456,24	4148,00
462,79	4085,00
469,33	3896,00
475,86	3703,00
482,39	3668,00
488,91	3617,00
495,42	3419,00
501,93	3552,00
508,42	3472,00
514,91	3419,00
521,40	3433,00
527,87	3473,00
534,34	3400,00
540,80	3391,00
547,25	3418,00
553,70	3416,00
560,14	3414,00
566,57	3399,00
573,00	3475,00
579,41	3546,00
585,83	3550,00
592,23	3570,00
598,62	3547,00
605,01	3581,00
611,40	3678,00
617,77	3746,00
624,14	3617,00
630,50	3350,00
636,85	3332,00
643,20	3243,00
649,54	3126,00
655,87	3143,00
662,20	3125,00
668,52	3060,00
674,83	3081,00
681,13	3054,00
687,43	3107,00
693,72	2907,00
700,00	2963,00
706,28	2893,00
712,55	2929,00
718,81	3026,00
725,07	2951,00
731,32	3052,00
737,56	2994,00
743,79	2945,00
750,02	2949,00
756,24	2830,00
762,46	2832,00
768,67	3050,00
774,87	2833,00
781,06	2868,00
787,25	2896,00
793,43	2851,00
799,60	2806,00
805,77	3033,00
811,93	2825,00
818,08	2948,00
824,23	2838,00
830,37	3009,00
836,50	2875,00
842,63	2861,00
848,75	2859,00
854,87	2818,00
860,97	2991,00
867,07	2829,00
873,17	2921,00
879,25	2817,00
885,33	2865,00
891,41	2906,00
897,47	3016,00
903,53	2758,00
909,59	2869,00
915,63	2913,00
921,67	2763,00
927,71	2838,00
933,74	2750,00
939,76	2577,00
945,77	2685,00
951,78	2812,00
957,78	2608,00
963,78	2752,00
969,77	2590,00
975,75	2644,00
981,72	2564,00
987,69	4065,00
993,66	2798,00
999,61	2788,00
1005,56	2689,00
1011,51	2679,00
1017,44	2729,00
1023,37	2696,00
1029,30	2749,00
1035,22	2830,00
1041,13	2763,00
1047,03	2974,00
1052,93	3459,00
1058,83	4722,00
1064,71	5195,00
1070,59	4488,00
1076,47	3671,00
1082,33	3322,00
1088,20	3323,00
1094,05	3209,00
1099,90	2878,00
1105,74	2924,00
1111,58	3019,00
1117,41	3183,00
1123,23	4165,00
1129,05	4916,00
1134,86	4602,00
1140,67	3539,00
1146,47	2988,00
1152,26	2805,00
1158,05	2722,00
1163,83	2877,00
1169,60	2889,00
1175,37	2896,00
1181,13	2693,00
1186,89	2546,00
1192,64	2604,00
1198,38	2686,00
1204,12	2517,00
1209,85	2477,00
1215,58	2418,00
1221,30	2606,00
1227,02	2568,00
1232,72	2498,00
1238,43	2435,00
1244,12	2524,00
1249,81	2547,00
1255,50	2651,00
1261,17	2569,00
1266,85	2696,00
1272,51	2853,00
1278,17	2928,00
1283,83	3276,00
1289,47	4611,00
1295,12	6097,00
1300,75	5552,00
1306,38	4479,00
1312,01	3579,00
1317,63	3168,00
1323,24	2890,00
1328,85	2856,00
1334,45	2683,00
1340,04	2542,00
1345,63	2526,00
1351,22	2742,00
1356,80	2564,00
1362,37	2844,00
1367,93	2846,00
1373,49	2958,00
1379,05	2634,00
1384,60	2668,00
1390,14	2670,00
1395,68	2652,00
1401,21	2713,00
1406,74	2935,00
1412,26	3525,00
1417,77	4158,00
1423,28	3895,00
1428,78	4408,00
1434,28	5314,00
1439,77	6194,00
1445,26	6044,00
1450,74	5567,00
1456,22	5127,00
1461,68	4920,00
1467,15	4759,00
1472,61	3943,00
1478,06	3577,00
1483,51	3101,00
1488,95	2742,00
1494,38	2811,00
1499,81	2487,00
1505,24	2480,00
1510,65	2547,00
1516,07	2445,00
1521,48	2392,00
1526,88	2233,00
1532,27	2339,00
1537,67	2257,00
1543,05	2349,00
1548,43	2210,00
1553,81	2293,00
1559,18	2117,00
1564,54	2181,00
1569,90	2185,00
1575,25	2096,00
1580,60	2057,00
1585,94	2195,00
1591,28	2107,00
1596,61	2060,00
1601,93	2070,00
1607,25	2293,00
1612,57	2104,00
1617,88	2062,00
1623,18	2055,00
1628,48	1983,00
1633,77	2055,00
1639,06	2079,00
1644,34	1968,00
1649,62	1914,00
1654,89	2129,00
1660,16	1888,00
1665,42	2048,00
1670,67	1985,00
1675,92	1889,00
1681,17	1916,00
1686,41	1945,00
1691,64	1916,00
1696,87	2013,00
1702,10	1892,00
1707,32	1901,00
1712,53	1889,00
1717,74	1950,00
1722,94	1995,00
1728,14	1818,00
1733,33	1877,00
1738,52	1790,00
1743,70	1867,00
1748,88	1753,00
1754,05	1812,00
1759,22	1707,00
1764,38	1985,00
1769,53	1823,00
1774,69	1796,00
1779,83	1745,00
1784,97	1760,00
1790,11	1780,00
1795,24	1722,00
1800,36	1799,00
1805,48	1741,00
1810,60	1772,00
1815,71	1628,00
1820,82	1694,00
1825,92	1790,00
1831,01	1735,00
1836,10	1659,00
1841,19	1725,00
1846,26	1577,00
1851,34	1708,00
1856,41	1735,00
1861,47	1624,00
1866,53	1704,00
1871,59	1676,00
1876,64	1655,00
1881,68	1654,00
1886,72	1693,00
1891,76	1625,00
1896,79	1635,00
1901,81	1508,00
1906,83	1698,00
1911,85	1547,00
1916,86	1510,00
1921,86	1615,00
1926,86	1550,00
1931,86	1672,00
1936,85	1513,00
1941,83	1449,00
1946,81	1605,00
1951,79	1476,00
1956,76	1448,00
1961,72	1333,00
1966,68	1443,00
1971,64	1531,00
1976,59	1566,00
1981,54	1481,00
1986,48	1522,00
1991,42	1331,00
1996,35	1689,00
2001,27	1483,00
2006,20	1504,00
2011,11	1468,00
2016,03	1469,00
2020,93	1351,00
2025,84	1488,00
2030,73	1370,00
2035,63	1328,00
2040,52	1484,00
2045,40	1455,00
2050,28	1381,00
2055,15	1492,00
2060,02	1349,00
2064,89	1468,00
2069,75	1425,00
2074,60	1387,00
2079,46	1353,00
2084,30	1376,00
2089,14	1243,00
2093,98	1453,00
2098,81	1369,00
2103,64	1390,00
2108,46	1440,00
2113,28	1321,00
2118,09	1384,00
2122,90	1307,00
2127,70	1380,00
2132,50	1368,00
2137,30	1265,00
2142,09	1244,00
2146,87	1252,00
2151,66	1433,00
2156,43	1345,00
2161,20	1294,00
2165,97	1411,00
2170,73	1258,00
2175,49	1431,00
2180,24	1369,00
2184,99	1551,00
2189,74	1495,00
2194,48	1426,00
2199,21	1443,00
2203,94	1353,00
2208,67	1226,00
2213,39	1202,00
2218,11	1288,00
2222,82	1309,00
2227,53	1332,00
2232,23	1394,00
2236,93	1376,00
2241,63	1311,00
2246,32	1315,00
2251,00	1302,00
2255,68	1288,00
2260,36	1273,00
2265,03	1342,00
2269,70	1409,00
2274,36	1210,00
2279,02	1260,00
2283,68	1221,00
2288,33	1211,00
2292,97	1362,00
2297,61	1285,00
2302,25	1339,00
2306,88	1280,00
2311,51	1156,00
2316,14	1134,00
2320,75	1238,00
2325,37	1183,00
2329,98	1325,00
2334,59	1266,00
2339,19	1195,00
2343,79	1039,00
2348,38	1319,00
2352,97	1081,00
2357,55	1256,00
2362,13	1123,00
2366,71	1103,00
2371,28	1313,00
2375,85	1253,00
2380,41	1234,00
2384,97	1204,00
2389,52	1241,00
2394,07	1203,00
2398,62	1129,00
2403,16	1179,00
2407,70	1039,00
2412,23	1057,00
2416,76	1208,00
2421,29	1143,00
2425,81	1198,00
2430,32	1293,00
2434,84	1058,00
2439,34	1126,00
2443,85	1337,00
2448,35	1125,00
2452,84	1141,00
2457,33	1093,00
2461,82	1038,00
2466,30	1093,00
2470,78	1248,00
2475,25	1145,00
2479,72	1145,00
2484,19	1166,00
2488,65	1148,00
2493,11	1106,00
2497,56	1191,00
2502,01	1051,00
2506,46	1226,00
2510,90	1095,00
2515,34	1034,00
2519,77	1068,00
2524,20	1123,00
2528,62	1171,00
2533,04	1207,00
2537,46	1170,00
2541,87	1180,00
2546,28	1176,00
2550,68	1203,00
2555,08	1144,00
2559,48	1098,00
2563,87	1025,00
2568,26	1091,00
2572,64	1155,00
2577,02	1194,00
2581,40	1030,00
2585,77	1162,00
2590,14	1126,00
2594,50	1018,00
2598,86	1178,00
2603,22	1153,00
2607,57	1132,00
2611,92	1295,00
2616,26	1262,00
2620,60	1285,00
2624,94	1145,00
2629,27	1215,00
2633,60	1139,00
2637,92	1309,00
2642,24	1282,00
2646,56	1253,00
2650,87	1072,00
2655,18	1278,00
2659,48	1072,00
2663,78	1086,00
2668,08	1092,00
2672,37	1162,00
2676,66	1155,00
2680,95	1144,00
2685,23	1356,00
2689,50	1296,00
2693,78	1228,00
2698,05	1189,00
2702,31	1294,00
2706,57	1371,00
2710,83	1412,00
2715,08	1427,00
2719,33	1497,00
2723,58	1442,00
2727,82	1520,00
2732,06	1544,00
2736,29	1373,00
2740,53	1474,00
2744,75	1398,00
2748,97	1352,00
2753,19	1347,00
2757,41	1370,00
2761,62	1310,00
2765,83	1366,00
2770,03	1204,00
2774,23	1428,00
2778,43	1365,00
2782,62	1364,00
2786,81	1317,00
2791,00	1446,00
2795,18	1450,00
2799,35	1563,00
2803,53	1510,00
2807,70	1565,00
2811,86	1569,00
2816,03	1747,00
2820,19	1732,00
2824,34	1793,00
2828,49	1952,00
2832,64	2340,00
2836,78	2690,00
2840,92	3006,00
2845,06	3660,00
2849,19	4155,00
2853,32	4232,00
2857,45	4233,00
2861,57	4199,00
2865,69	3986,00
2869,80	3881,00
2873,91	4073,00
2878,02	4604,00
2882,12	4912,00
2886,22	4877,00
2890,32	4704,00
2894,41	4311,00
2898,50	3957,00
2902,58	3662,00
2906,67	3486,00
2910,74	3203,00
2914,82	2951,00
2918,89	2948,00
2922,96	2704,00
2927,02	2468,00
2931,08	2396,00
2935,13	2135,00
2939,19	2160,00
2943,24	2001,00
2947,28	1945,00
2951,32	1716,00
2955,36	1511,00
2959,40	1598,00
2963,43	1503,00
2967,46	1526,00
2971,48	1465,00
2975,50	1341,00
2979,52	1428,00
2983,53	1377,00
2987,54	1230,00
2991,55	1231,00
2995,55	1241,00
2999,55	1081,00
3003,54	1144,00
3007,54	1146,00
3011,53	1176,00
3015,51	1073,00
3019,49	1197,00
3023,47	978,00
3027,45	1142,00
3031,42	963,00
3035,39	985,00
3039,35	954,00
3043,31	1075,00
3047,27	958,00
3051,22	1075,00
3055,17	926,00
3059,12	957,00
3063,06	1009,00
3067,00	888,00
3070,94	898,00
3074,87	1045,00
3078,80	911,00
3082,73	977,00
3086,65	894,00
3090,57	903,00
3094,49	972,00
3098,40	840,00
3102,31	898,00
3106,22	947,00
3110,12	816,00
3114,02	875,00
3117,92	868,00
3121,81	878,00
3125,70	880,00
3129,58	855,00
3133,47	778,00
3137,34	877,00
3141,22	935,00
3145,09	955,00
3148,96	869,00
3152,83	957,00
3156,69	941,00
3160,55	855,00
3164,40	999,00
3168,26	912,00
3172,10	930,00
3175,95	947,00
3179,79	916,00
3183,63	916,00
3187,47	866,00
3191,30	943,00
3195,13	845,00
3198,95	760,00
3202,78	854,00
3206,60	793,00
3210,41	775,00
3214,23	799,00
3218,03	858,00
3221,84	887,00
3225,64	852,00
3229,44	845,00
3233,24	861,00
3237,03	869,00
3240,82	825,00
3244,61	731,00
3248,39	816,00
3252,17	834,00
3255,95	985,00
3259,72	904,00
3263,49	984,00
3267,26	888,00
3271,03	890,00
3274,79	800,00
3278,54	919,00
3282,30	762,00
3286,05	964,00
3289,80	837,00
3293,54	837,00
3297,29	891,00
3301,02	798,00
3304,76	864,00
3308,49	856,00
3312,22	811,00
3315,95	866,00
3319,67	779,00
3323,39	931,00
3327,10	891,00
3330,82	835,00
3334,53	910,00
3338,24	887,00
3341,94	815,00
3345,64	877,00
3349,34	812,00
3353,03	895,00
3356,72	759,00
3360,41	823,00
3364,10	785,00
3367,78	778,00
3371,46	774,00
3375,13	827,00
3378,81	916,00
3382,48	769,00
3386,14	916,00
3389,81	850,00
3393,47	876,00
3397,12	927,00
3400,78	856,00
3404,43	766,00
3408,08	885,00
3411,72	794,00
3415,36	774,00
3419,00	882,00
3422,64	871,00
3426,27	797,00
3429,90	765,00
3433,53	751,00
3437,15	781,00
3440,77	788,00
3444,39	840,00
3448,00	805,00
3451,62	871,00
3455,22	787,00
3458,83	777,00
3462,43	848,00
3466,03	883,00
3469,63	774,00
3473,22	783,00
3476,81	764,00
3480,40	868,00
3483,99	764,00
3487,57	853,00
3491,15	817,00
3494,72	852,00
3498,29	850,00
3501,86	763,00
3505,43	781,00
3508,99	818,00
3512,56	703,00
3516,11	834,00
3519,67	772,00
3523,22	823,00
3526,77	733,00
3530,32	937,00
3533,86	809,00
3537,40	924,00
3540,94	885,00
3544,47	805,00
3548,00	747,00
3551,53	822,00
3555,06	732,00
3558,58	834,00
3562,10	828,00
3565,62	717,00
3569,13	786,00
3572,64	900,00
3576,15	680,00
3579,66	761,00
3583,16	737,00
3586,66	820,00
3590,16	720,00
3593,65	714,00
3597,14	755,00
3600,63	773,00
3604,11	769,00
3607,60	790,00
3611,08	777,00
3614,55	777,00
3618,03	791,00
3621,50	634,00
3624,97	708,00
3628,43	678,00
3631,90	763,00
3635,36	609,00
3638,81	789,00
3642,27	822,00
3645,72	775,00
3649,17	705,00
3652,61	656,00
3656,06	690,00
3659,50	700,00
3662,93	785,00
3666,37	728,00
3669,80	849,00
3673,23	789,00
3676,65	789,00
3680,08	920,00
3683,50	700,00
3686,92	679,00
3690,33	706,00
3693,74	735,00
3697,15	619,00
3700,56	861,00
3703,96	695,00
3707,36	545,00
3710,76	711,00
3714,16	652,00
3717,55	657,00
3720,94	648,00
3724,33	706,00
3727,71	747,00
3731,10	727,00
3734,48	774,00
3737,85	672,00
3741,23	701,00
3744,60	635,00
3747,97	572,00
3751,33	809,00
3754,69	654,00
3758,05	672,00
3761,41	642,00
3764,77	657,00
3768,12	703,00
3771,47	499,00
3774,82	698,00
3778,16	-11,00
3781,50	11,00
3784,84	2,00
3788,18	8,00
>>>>>End Processed Spectral Data<<<<<
