SpectraSuite Data File
++++++++++++++++++++++++++++++++++++
Date: Mon Jan 05 16:32:43 ICT 2026
User: Administrator
Dark Spectrum Present: Yes
Reference Spectrum Present: No
Number of Sampled Component Spectra: 1
Spectrometers: MAYP113682
Integration Time (usec): 3000000 (MAYP113682)
Spectra Averaged: 1 (MAYP113682)
Boxcar Smoothing: 0 (MAYP113682)
Correct for Electrical Dark: No (MAYP113682)
Strobe/Lamp Enabled: No (MAYP113682)
Correct for Detector Non-linearity: No (MAYP113682)
Correct for Stray Light: No (MAYP113682)
Number of Pixels in Processed Spectrum: 2068
>>>>>Begin Processed Spectral Data<<<<<
-37534,58	30,00
-37414,56	8,00
-37295,11	3,00
-37176,24	6,00
-37057,95	624,00
-36940,22	657,00
-36823,05	681,00
-36706,45	735,00
-36590,40	776,00
-36474,90	721,00
-36359,95	805,00
-36245,55	783,00
-36131,68	706,00
-36018,35	721,00
-35905,55	685,00
-35793,29	905,00
-35681,54	736,00
-35570,32	717,00
-35459,62	750,00
-35349,43	862,00
-35239,75	845,00
-35130,58	724,00
-35021,91	819,00
-34913,74	727,00
-34806,07	761,00
-34698,89	849,00
-34592,20	736,00
-34486,00	799,00
-34380,28	829,00
-34275,04	685,00
-34170,27	754,00
-34065,98	873,00
-33962,16	866,00
-33858,81	840,00
-33755,92	842,00
-33653,49	891,00
-33551,52	933,00
-33450,01	847,00
-33348,94	834,00
-33248,33	834,00
-33148,16	739,00
-33048,43	813,00
-32949,14	1055,00
-32850,29	885,00
-32751,87	844,00
-32653,89	827,00
-32556,33	920,00
-32459,20	730,00
-32362,49	858,00
-32266,19	869,00
-32170,32	852,00
-32074,86	877,00
-31979,82	898,00
-31885,18	960,00
-31790,95	886,00
-31697,12	940,00
-31603,69	895,00
-31510,67	942,00
-31418,04	832,00
-31325,80	865,00
-31233,95	870,00
-31142,49	816,00
-31051,42	790,00
-30960,73	940,00
-30870,43	952,00
-30780,50	859,00
-30690,95	832,00
-30601,77	962,00
-30512,97	884,00
-30424,53	986,00
-30336,46	858,00
-30248,76	837,00
-30161,42	996,00
-30074,44	772,00
-29987,81	860,00
-29901,55	937,00
-29815,63	833,00
-29730,07	915,00
-29644,86	962,00
-29560,00	906,00
-29475,48	863,00
-29391,30	884,00
-29307,47	809,00
-29223,97	886,00
-29140,81	887,00
-29057,99	933,00
-28975,50	745,00
-28893,34	912,00
-28811,51	794,00
-28730,00	889,00
-28648,82	873,00
-28567,97	906,00
-28487,43	847,00
-28407,21	836,00
-28327,32	799,00
-28247,73	993,00
-28168,46	768,00
-28089,50	874,00
-28010,85	767,00
-27932,51	759,00
-27854,48	867,00
-27776,75	810,00
-27699,32	833,00
-27622,19	848,00
-27545,37	881,00
-27468,84	913,00
-27392,60	905,00
-27316,66	856,00
-27241,01	801,00
-27165,66	874,00
-27090,59	732,00
-27015,81	898,00
-26941,31	936,00
-26867,10	824,00
-26793,17	955,00
-26719,52	878,00
-26646,15	824,00
-26573,06	816,00
-26500,24	806,00
-26427,70	869,00
-26355,43	812,00
-26283,43	874,00
-26211,71	896,00
-26140,25	873,00
-26069,06	998,00
-25998,13	801,00
-25927,46	722,00
-25857,06	804,00
-25786,92	866,00
-25717,04	746,00
-25647,42	945,00
-25578,05	764,00
-25508,94	804,00
-25440,09	732,00
-25371,48	799,00
-25303,13	896,00
-25235,02	834,00
-25167,17	773,00
-25099,56	840,00
-25032,19	865,00
-24965,07	725,00
-24898,20	757,00
-24831,56	825,00
-24765,17	799,00
-24699,01	756,00
-24633,10	889,00
-24567,41	857,00
-24501,97	812,00
-24436,75	813,00
-24371,77	782,00
-24307,03	814,00
-24242,51	907,00
-24178,22	827,00
-24114,16	719,00
-24050,32	940,00
-23986,71	815,00
-23923,32	838,00
-23860,16	828,00
-23797,22	827,00
-23734,50	827,00
-23672,00	786,00
-23609,71	784,00
-23547,65	838,00
-23485,80	872,00
-23424,16	713,00
-23362,74	894,00
-23301,53	837,00
-23240,54	717,00
-23179,75	767,00
-23119,17	849,00
-23058,80	799,00
-22998,64	945,00
-22938,68	839,00
-22878,93	819,00
-22819,39	732,00
-22760,04	755,00
-22700,90	804,00
-22641,96	826,00
-22583,22	865,00
-22524,68	803,00
-22466,33	825,00
-22408,19	854,00
-22350,23	836,00
-22292,48	734,00
-22234,92	836,00
-22177,55	923,00
-22120,37	998,00
-22063,38	826,00
-22006,58	748,00
-21949,98	793,00
-21893,56	689,00
-21837,33	832,00
-21781,28	829,00
-21725,42	901,00
-21669,74	873,00
-21614,25	854,00
-21558,94	780,00
-21503,81	845,00
-21448,86	948,00
-21394,10	837,00
-21339,51	830,00
-21285,10	722,00
-21230,86	727,00
-21176,81	793,00
-21122,93	806,00
-21069,22	726,00
-21015,69	809,00
-20962,33	889,00
-20909,14	815,00
-20856,13	872,00
-20803,28	839,00
-20750,61	811,00
-20698,10	717,00
-20645,76	771,00
-20593,59	888,00
-20541,59	822,00
-20489,75	902,00
-20438,07	695,00
-20386,56	885,00
-20335,22	782,00
-20284,03	801,00
-20233,01	817,00
-20182,15	817,00
-20131,45	793,00
-20080,91	707,00
-20030,52	873,00
-19980,30	860,00
-19930,23	790,00
-19880,32	912,00
-19830,56	823,00
-19780,96	893,00
-19731,52	795,00
-19682,23	855,00
-19633,09	801,00
-19584,10	687,00
-19535,26	839,00
-19486,58	943,00
-19438,04	779,00
-19389,66	949,00
-19341,42	779,00
-19293,33	798,00
-19245,39	854,00
-19197,60	880,00
-19149,95	846,00
-19102,45	832,00
-19055,09	774,00
-19007,87	751,00
-18960,80	801,00
-18913,87	830,00
-18867,09	793,00
-18820,44	888,00
-18773,94	771,00
-18727,57	872,00
-18681,35	710,00
-18635,26	837,00
-18589,31	712,00
-18543,50	831,00
-18497,83	783,00
-18452,29	768,00
-18406,89	706,00
-18361,63	932,00
-18316,50	899,00
-18271,50	832,00
-18226,63	916,00
-18181,90	853,00
-18137,30	882,00
-18092,84	779,00
-18048,50	919,00
-18004,29	815,00
-17960,22	799,00
-17916,27	725,00
-17872,45	883,00
-17828,76	912,00
-17785,20	783,00
-17741,77	854,00
-17698,46	901,00
-17655,28	796,00
-17612,22	844,00
-17569,29	815,00
-17526,48	892,00
-17483,79	900,00
-17441,23	792,00
-17398,79	831,00
-17356,48	737,00
-17314,28	962,00
-17272,21	791,00
-17230,26	793,00
-17188,42	833,00
-17146,71	851,00
-17105,12	828,00
-17063,64	832,00
-17022,28	760,00
-16981,04	712,00
-16939,92	893,00
-16898,91	1006,00
-16858,02	746,00
-16817,25	895,00
-16776,59	787,00
-16736,04	800,00
-16695,61	857,00
-16655,29	736,00
-16615,09	788,00
-16574,99	781,00
-16535,01	870,00
-16495,15	833,00
-16455,39	837,00
-16415,74	798,00
-16376,21	828,00
-16336,78	739,00
-16297,46	722,00
-16258,26	752,00
-16219,16	784,00
-16180,17	893,00
-16141,28	831,00
-16102,51	879,00
-16063,84	739,00
-16025,27	824,00
-15986,82	732,00
-15948,46	817,00
-15910,22	843,00
-15872,07	811,00
-15834,04	833,00
-15796,10	781,00
-15758,27	997,00
-15720,54	845,00
-15682,91	738,00
-15645,39	1014,00
-15607,97	947,00
-15570,64	779,00
-15533,42	884,00
-15496,30	856,00
-15459,28	874,00
-15422,36	862,00
-15385,54	800,00
-15348,82	869,00
-15312,19	1013,00
-15275,66	778,00
-15239,23	865,00
-15202,90	775,00
-15166,67	793,00
-15130,53	907,00
-15094,48	841,00
-15058,54	686,00
-15022,68	773,00
-14986,93	751,00
-14951,26	849,00
-14915,69	808,00
-14880,22	799,00
-14844,84	782,00
-14809,55	876,00
-14774,35	818,00
-14739,25	782,00
-14704,24	892,00
-14669,32	784,00
-14634,49	755,00
-14599,75	892,00
-14565,10	749,00
-14530,55	791,00
-14496,08	841,00
-14461,70	800,00
-14427,41	730,00
-14393,21	674,00
-14359,10	805,00
-14325,07	890,00
-14291,14	838,00
-14257,29	866,00
-14223,52	849,00
-14189,85	933,00
-14156,26	873,00
-14122,76	765,00
-14089,34	770,00
-14056,01	819,00
-14022,76	790,00
-13989,60	814,00
-13956,52	871,00
-13923,53	863,00
-13890,62	703,00
-13857,79	802,00
-13825,05	763,00
-13792,39	748,00
-13759,81	824,00
-13727,31	812,00
-13694,90	777,00
-13662,57	919,00
-13630,31	861,00
-13598,14	791,00
-13566,05	796,00
-13534,05	799,00
-13502,12	801,00
-13470,27	848,00
-13438,50	919,00
-13406,80	713,00
-13375,19	805,00
-13343,66	761,00
-13312,20	844,00
-13280,83	737,00
-13249,53	817,00
-13218,30	732,00
-13187,16	810,00
-13156,09	1032,00
-13125,10	839,00
-13094,18	894,00
-13063,34	836,00
-13032,58	733,00
-13001,89	882,00
-12971,28	789,00
-12940,74	831,00
-12910,27	860,00
-12879,88	840,00
-12849,57	946,00
-12819,33	934,00
-12789,16	835,00
-12759,06	829,00
-12729,04	799,00
-12699,09	2221,00
-12669,21	791,00
-12639,41	875,00
-12609,68	761,00
-12580,02	845,00
-12550,43	877,00
-12520,91	724,00
-12491,46	817,00
-12462,08	821,00
-12432,77	851,00
-12403,54	730,00
-12374,37	793,00
-12345,27	923,00
-12316,24	815,00
-12287,29	785,00
-12258,40	785,00
-12229,57	830,00
-12200,82	745,00
-12172,14	872,00
-12143,52	696,00
-12114,97	777,00
-12086,49	835,00
-12058,07	896,00
-12029,73	754,00
-12001,44	924,00
-11973,23	783,00
-11945,08	776,00
-11917,00	868,00
-11888,98	762,00
-11861,03	922,00
-11833,15	833,00
-11805,32	850,00
-11777,57	836,00
-11749,88	900,00
-11722,25	818,00
-11694,69	775,00
-11667,19	858,00
-11639,75	930,00
-11612,38	825,00
-11585,07	720,00
-11557,83	844,00
-11530,65	952,00
-11503,53	792,00
-11476,47	750,00
-11449,48	752,00
-11422,54	968,00
-11395,67	875,00
-11368,86	899,00
-11342,11	788,00
-11315,43	819,00
-11288,80	787,00
-11262,23	833,00
-11235,73	816,00
-11209,28	1055,00
-11182,90	806,00
-11156,57	835,00
-11130,31	970,00
-11104,10	756,00
-11077,96	782,00
-11051,87	840,00
-11025,84	793,00
-10999,87	856,00
-10973,96	851,00
-10948,11	831,00
-10922,31	868,00
-10896,58	885,00
-10870,90	952,00
-10845,28	875,00
-10819,71	751,00
-10794,20	914,00
-10768,75	920,00
-10743,36	899,00
-10718,02	776,00
-10692,74	798,00
-10667,52	835,00
-10642,35	778,00
-10617,24	925,00
-10592,18	871,00
-10567,18	820,00
-10542,23	892,00
-10517,34	936,00
-10492,51	969,00
-10467,72	861,00
-10443,00	942,00
-10418,32	941,00
-10393,70	918,00
-10369,14	905,00
-10344,63	826,00
-10320,17	1004,00
-10295,77	949,00
-10271,42	890,00
-10247,12	1005,00
-10222,88	1051,00
-10198,68	940,00
-10174,54	1007,00
-10150,46	1095,00
-10126,42	1142,00
-10102,44	1007,00
-10078,51	1039,00
-10054,63	1156,00
-10030,80	1119,00
-10007,03	1259,00
-9983,30	1186,00
-9959,63	1157,00
-9936,01	1332,00
-9912,44	1261,00
-9888,92	1233,00
-9865,44	1234,00
-9842,02	1244,00
-9818,65	1405,00
-9795,33	1083,00
-9772,06	1383,00
-9748,84	1311,00
-9725,67	1364,00
-9702,55	1491,00
-9679,47	1693,00
-9656,45	1789,00
-9633,47	1567,00
-9610,55	1722,00
-9587,67	1930,00
-9564,84	2042,00
-9542,06	2056,00
-9519,32	2216,00
-9496,64	2484,00
-9474,00	2424,00
-9451,41	2451,00
-9428,87	2462,00
-9406,37	2625,00
-9383,92	2345,00
-9361,52	2312,00
-9339,17	2562,00
-9316,86	2789,00
-9294,60	3112,00
-9272,38	3428,00
-9250,21	3810,00
-9228,09	3619,00
-9206,01	3740,00
-9183,98	3457,00
-9162,00	3197,00
-9140,06	3259,00
-9118,16	3152,00
-9096,31	3241,00
-9074,51	3442,00
-9052,75	3585,00
-9031,04	3529,00
-9009,37	3096,00
-8987,74	2870,00
-8966,16	2678,00
-8944,63	2373,00
-8923,14	2539,00
-8901,69	2497,00
-8880,29	2552,00
-8858,93	2877,00
-8837,61	3102,00
-8816,34	3178,00
-8795,11	3187,00
-8773,92	2919,00
-8752,78	2818,00
-8731,68	2512,00
-8710,62	2716,00
-8689,61	2594,00
-8668,63	2826,00
-8647,70	3181,00
-8626,82	2980,00
-8605,97	3000,00
-8585,17	2944,00
-8564,41	2596,00
-8543,69	2426,00
-8523,01	2269,00
-8502,37	2527,00
-8481,78	2460,00
-8461,23	2616,00
-8440,71	2851,00
-8420,24	3040,00
-8399,81	3234,00
-8379,42	2935,00
-8359,08	2888,00
-8338,77	2630,00
-8318,50	2387,00
-8298,27	2173,00
-8278,09	2576,00
-8257,94	2530,00
-8237,83	2785,00
-8217,76	2808,00
-8197,74	2873,00
-8177,75	2886,00
-8157,80	2551,00
-8137,89	2346,00
-8118,02	2308,00
-8098,19	2301,00
-8078,40	2415,00
-8058,65	2429,00
-8038,93	2591,00
-8019,26	2490,00
-7999,62	2505,00
-7980,02	2257,00
-7960,46	2175,00
-7940,94	2040,00
-7921,46	2021,00
-7902,01	2004,00
-7882,60	2220,00
-7863,23	2059,00
-7843,90	2056,00
-7824,61	2236,00
-7805,35	2488,00
-7786,13	2337,00
-7766,95	2308,00
-7747,80	2253,00
-7728,69	2272,00
-7709,62	2180,00
-7690,59	2093,00
-7671,59	2331,00
-7652,63	2303,00
-7633,70	2353,00
-7614,81	2325,00
-7595,96	2120,00
-7577,15	2095,00
-7558,37	1974,00
-7539,62	2177,00
-7520,91	2077,00
-7502,24	2225,00
-7483,60	2200,00
-7465,00	2084,00
-7446,44	2091,00
-7427,91	1765,00
-7409,41	1728,00
-7390,95	1696,00
-7372,53	1533,00
-7354,14	1592,00
-7335,78	1553,00
-7317,46	1714,00
-7299,18	1636,00
-7280,92	1922,00
-7262,71	2164,00
-7244,52	2195,00
-7226,38	2080,00
-7208,26	2060,00
-7190,18	1939,00
-7172,14	1923,00
-7154,12	1902,00
-7136,15	1878,00
-7118,20	2124,00
-7100,29	2241,00
-7082,41	2088,00
-7064,57	1948,00
-7046,76	1930,00
-7028,98	1660,00
-7011,24	1693,00
-6993,53	1427,00
-6975,85	1394,00
-6958,20	1288,00
-6940,59	1351,00
-6923,01	1212,00
-6905,46	1549,00
-6887,94	1591,00
-6870,46	2015,00
-6853,01	1898,00
-6835,59	1916,00
-6818,21	1821,00
-6800,85	1633,00
-6783,53	1342,00
-6766,24	1216,00
-6748,98	1279,00
-6731,76	1148,00
-6714,56	1178,00
-6697,40	1079,00
-6680,26	1170,00
-6663,16	1326,00
-6646,09	1550,00
-6629,05	1561,00
-6612,05	1757,00
-6595,07	1567,00
-6578,13	1609,00
-6561,21	1373,00
-6544,33	1316,00
-6527,47	1059,00
-6510,65	1068,00
-6493,86	940,00
-6477,10	1030,00
-6460,36	1154,00
-6443,66	993,00
-6426,99	1061,00
-6410,35	1077,00
-6393,74	1129,00
-6377,16	1077,00
-6360,61	1276,00
-6344,09	1187,00
-6327,59	1320,00
-6311,13	1416,00
-6294,70	1376,00
-6278,29	1412,00
-6261,92	1370,00
-6245,58	1529,00
-6229,26	1618,00
-6212,97	1575,00
-6196,72	1195,00
-6180,49	1267,00
-6164,29	970,00
-6148,12	1059,00
-6131,98	1072,00
-6115,86	939,00
-6099,78	821,00
-6083,72	837,00
-6067,69	817,00
-6051,69	931,00
-6035,72	1044,00
-6019,78	1070,00
-6003,87	1260,00
-5987,98	1201,00
-5972,12	1260,00
-5956,29	1353,00
-5940,49	1057,00
-5924,71	1233,00
-5908,96	994,00
-5893,24	1005,00
-5877,55	935,00
-5861,89	1056,00
-5846,25	854,00
-5830,64	987,00
-5815,05	922,00
-5799,50	993,00
-5783,97	1072,00
-5768,47	1094,00
-5752,99	1259,00
-5737,55	1167,00
-5722,12	1271,00
-5706,73	1314,00
-5691,36	1263,00
-5676,02	1056,00
-5660,71	986,00
-5645,42	988,00
-5630,16	954,00
-5614,92	1178,00
-5599,71	1035,00
-5584,53	1149,00
-5569,37	1082,00
-5554,24	1308,00
-5539,14	1030,00
-5524,06	1051,00
-5509,01	1004,00
-5493,98	1110,00
-5478,98	1110,00
-5464,00	950,00
-5449,05	1014,00
-5434,13	923,00
-5419,23	913,00
-5404,36	945,00
-5389,51	1043,00
-5374,69	1136,00
-5359,89	1271,00
-5345,12	1427,00
-5330,37	1379,00
-5315,65	1226,00
-5300,95	1169,00
-5286,28	942,00
-5271,63	944,00
-5257,01	1073,00
-5242,41	1090,00
-5227,84	859,00
-5213,29	1067,00
-5198,76	921,00
-5184,26	981,00
-5169,79	857,00
-5155,33	991,00
-5140,91	1059,00
-5126,51	1134,00
-5112,13	1047,00
-5097,77	1090,00
-5083,44	1026,00
-5069,13	876,00
-5054,85	939,00
-5040,59	1041,00
-5026,36	1082,00
-5012,15	1221,00
-4997,96	1146,00
-4983,80	974,00
-4969,66	968,00
-4955,54	921,00
-4941,44	1003,00
-4927,37	1057,00
-4913,33	1336,00
-4899,30	1258,00
-4885,30	1261,00
-4871,33	1061,00
-4857,37	997,00
-4843,44	891,00
-4829,53	1029,00
-4815,65	1045,00
-4801,79	892,00
-4787,95	1009,00
-4774,13	930,00
-4760,34	917,00
-4746,56	948,00
-4732,82	840,00
-4719,09	1030,00
-4705,38	1152,00
-4691,70	1297,00
-4678,04	1372,00
-4664,41	1204,00
-4650,79	1204,00
-4637,20	959,00
-4623,63	889,00
-4610,08	1105,00
-4596,56	1073,00
-4583,05	903,00
-4569,57	960,00
-4556,11	1025,00
-4542,67	881,00
-4529,25	903,00
-4515,86	1032,00
-4502,49	1111,00
-4489,13	1257,00
-4475,80	1274,00
-4462,49	873,00
-4449,21	1055,00
-4435,94	929,00
-4422,70	859,00
-4409,47	876,00
-4396,27	1027,00
-4383,09	943,00
-4369,93	988,00
-4356,79	849,00
-4343,67	888,00
-4330,58	1062,00
-4317,50	1063,00
-4304,45	985,00
-4291,41	1057,00
-4278,40	949,00
-4265,41	841,00
-4252,44	901,00
-4239,49	897,00
-4226,55	1024,00
-4213,65	1018,00
-4200,76	967,00
-4187,89	818,00
-4175,04	837,00
-4162,21	786,00
-4149,40	891,00
-4136,61	809,00
-4123,85	843,00
-4111,10	893,00
-4098,37	907,00
-4085,66	967,00
-4072,98	886,00
-4060,31	838,00
-4047,66	993,00
-4035,04	955,00
-4022,43	884,00
-4009,84	844,00
-3997,27	672,00
-3984,72	897,00
-3972,19	894,00
-3959,69	870,00
-3947,20	803,00
-3934,73	823,00
-3922,27	775,00
-3909,84	774,00
-3897,43	918,00
-3885,04	937,00
-3872,67	808,00
-3860,31	724,00
-3847,98	871,00
-3835,66	862,00
-3823,36	958,00
-3811,09	747,00
-3798,83	837,00
-3786,59	858,00
-3774,37	957,00
-3762,17	740,00
-3749,98	849,00
-3737,82	834,00
-3725,67	1062,00
-3713,55	725,00
-3701,44	869,00
-3689,35	806,00
-3677,28	970,00
-3665,22	814,00
-3653,19	832,00
-3641,17	708,00
-3629,18	900,00
-3617,20	890,00
-3605,24	868,00
-3593,30	884,00
-3581,37	839,00
-3569,47	877,00
-3557,58	911,00
-3545,71	856,00
-3533,86	953,00
-3522,02	870,00
-3510,21	825,00
-3498,41	886,00
-3486,63	814,00
-3474,87	892,00
-3463,12	791,00
-3451,40	890,00
-3439,69	935,00
-3428,00	728,00
-3416,33	880,00
-3404,67	770,00
-3393,03	880,00
-3381,41	905,00
-3369,81	870,00
-3358,22	895,00
-3346,66	866,00
-3335,10	940,00
-3323,57	778,00
-3312,06	877,00
-3300,56	884,00
-3289,08	750,00
-3277,61	859,00
-3266,16	856,00
-3254,73	802,00
-3243,32	838,00
-3231,92	789,00
-3220,55	880,00
-3209,18	987,00
-3197,84	810,00
-3186,51	746,00
-3175,20	820,00
-3163,90	762,00
-3152,63	912,00
-3141,36	772,00
-3130,12	920,00
-3118,89	922,00
-3107,68	866,00
-3096,49	828,00
-3085,31	781,00
-3074,15	814,00
-3063,00	900,00
-3051,87	799,00
-3040,76	707,00
-3029,67	982,00
-3018,59	951,00
-3007,52	939,00
-2996,48	879,00
-2985,44	821,00
-2974,43	892,00
-2963,43	817,00
-2952,45	834,00
-2941,48	878,00
-2930,53	855,00
-2919,60	784,00
-2908,68	817,00
-2897,78	822,00
-2886,89	961,00
-2876,02	921,00
-2865,17	808,00
-2854,33	871,00
-2843,50	875,00
-2832,70	830,00
-2821,90	820,00
-2811,13	862,00
-2800,37	815,00
-2789,62	758,00
-2778,89	898,00
-2768,18	905,00
-2757,48	882,00
-2746,80	958,00
-2736,13	780,00
-2725,48	890,00
-2714,84	768,00
-2704,22	784,00
-2693,61	820,00
-2683,02	843,00
-2672,45	909,00
-2661,89	867,00
-2651,34	844,00
-2640,81	849,00
-2630,30	967,00
-2619,80	790,00
-2609,31	939,00
-2598,84	827,00
-2588,39	831,00
-2577,95	795,00
-2567,52	718,00
-2557,11	804,00
-2546,71	901,00
-2536,33	959,00
-2525,97	824,00
-2515,62	901,00
-2505,28	783,00
-2494,96	809,00
-2484,65	845,00
-2474,36	1023,00
-2464,08	854,00
-2453,82	1026,00
-2443,57	807,00
-2433,33	783,00
-2423,11	874,00
-2412,91	925,00
-2402,72	782,00
-2392,54	842,00
-2382,38	872,00
-2372,23	952,00
-2362,09	1929,00
-2351,97	789,00
-2341,87	823,00
-2331,78	907,00
-2321,70	935,00
-2311,64	830,00
-2301,59	784,00
-2291,55	808,00
-2281,53	909,00
-2271,53	737,00
-2261,53	910,00
-2251,55	870,00
-2241,59	846,00
-2231,64	865,00
-2221,70	879,00
-2211,78	840,00
-2201,87	840,00
-2191,97	830,00
-2182,09	786,00
-2172,22	937,00
-2162,37	852,00
-2152,53	736,00
-2142,70	850,00
-2132,89	798,00
-2123,09	921,00
-2113,30	861,00
-2103,53	791,00
-2093,77	832,00
-2084,02	831,00
-2074,29	923,00
-2064,57	850,00
-2054,86	851,00
-2045,17	932,00
-2035,49	854,00
-2025,82	769,00
-2016,17	848,00
-2006,53	815,00
-1996,91	837,00
-1987,29	814,00
-1977,69	777,00
-1968,11	769,00
-1958,53	918,00
-1948,97	801,00
-1939,42	817,00
-1929,89	894,00
-1920,37	841,00
-1910,86	884,00
-1901,36	929,00
-1891,88	826,00
-1882,41	804,00
-1872,95	845,00
-1863,51	893,00
-1854,08	929,00
-1844,66	837,00
-1835,26	942,00
-1825,86	900,00
-1816,48	777,00
-1807,11	882,00
-1797,76	880,00
-1788,42	876,00
-1779,09	902,00
-1769,77	801,00
-1760,47	972,00
-1751,17	778,00
-1741,89	832,00
-1732,63	847,00
-1723,37	1005,00
-1714,13	944,00
-1704,90	841,00
-1695,68	1019,00
-1686,48	797,00
-1677,29	866,00
-1668,11	1024,00
-1658,94	775,00
-1649,78	817,00
-1640,64	794,00
-1631,51	935,00
-1622,39	894,00
-1613,28	863,00
-1604,19	939,00
-1595,10	901,00
-1586,03	814,00
-1576,97	848,00
-1567,93	813,00
-1558,89	921,00
-1549,87	941,00
-1540,86	806,00
-1531,86	807,00
-1522,87	770,00
-1513,90	951,00
-1504,93	925,00
-1495,98	915,00
-1487,04	945,00
-1478,12	795,00
-1469,20	838,00
-1460,30	880,00
-1451,40	1009,00
-1442,52	866,00
-1433,65	894,00
-1424,80	857,00
-1415,95	808,00
-1407,12	990,00
-1398,30	817,00
-1389,48	878,00
-1380,69	815,00
-1371,90	824,00
-1363,12	880,00
-1354,36	956,00
-1345,60	853,00
-1336,86	913,00
-1328,13	996,00
-1319,41	937,00
-1310,70	798,00
-1302,01	870,00
-1293,32	786,00
-1284,65	891,00
-1275,99	941,00
-1267,33	944,00
-1258,69	870,00
-1250,06	886,00
-1241,45	699,00
-1232,84	1044,00
-1224,25	880,00
-1215,66	1008,00
-1207,09	878,00
-1198,53	935,00
-1189,97	813,00
-1181,43	764,00
-1172,91	858,00
-1164,39	1043,00
-1155,88	714,00
-1147,38	783,00
-1138,90	823,00
-1130,43	861,00
-1121,96	831,00
-1113,51	866,00
-1105,07	859,00
-1096,64	937,00
-1088,22	810,00
-1079,81	945,00
-1071,41	961,00
-1063,02	842,00
-1054,65	960,00
-1046,28	823,00
-1037,92	910,00
-1029,58	782,00
-1021,24	899,00
-1012,92	1132,00
-1004,61	945,00
-996,30	1012,00
-988,01	708,00
-979,73	806,00
-971,46	960,00
-963,20	846,00
-954,95	737,00
-946,71	831,00
-938,48	964,00
-930,26	896,00
-922,06	875,00
-913,86	767,00
-905,67	772,00
-897,49	897,00
-889,33	711,00
-881,17	985,00
-873,02	806,00
-864,89	779,00
-856,76	788,00
-848,65	887,00
-840,54	916,00
-832,45	924,00
-824,36	678,00
-816,29	861,00
-808,22	903,00
-800,17	910,00
-792,12	794,00
-784,09	875,00
-776,06	800,00
-768,05	878,00
-760,04	853,00
-752,05	767,00
-744,07	878,00
-736,09	913,00
-728,13	792,00
-720,17	772,00
-712,23	860,00
-704,29	791,00
-696,37	899,00
-688,45	959,00
-680,55	838,00
-672,65	864,00
-664,77	838,00
-656,89	790,00
-649,03	784,00
-641,17	949,00
-633,32	838,00
-625,49	985,00
-617,66	798,00
-609,84	936,00
-602,03	748,00
-594,23	908,00
-586,45	891,00
-578,67	868,00
-570,90	798,00
-563,14	727,00
-555,39	911,00
-547,65	885,00
-539,91	865,00
-532,19	919,00
-524,48	904,00
-516,78	850,00
-509,08	972,00
-501,40	800,00
-493,72	827,00
-486,06	830,00
-478,40	924,00
-470,76	770,00
-463,12	764,00
-455,49	768,00
-447,87	869,00
-440,26	744,00
-432,66	805,00
-425,07	850,00
-417,49	888,00
-409,92	665,00
-402,35	841,00
-394,80	791,00
-387,25	864,00
-379,72	925,00
-372,19	911,00
-364,67	877,00
-357,17	774,00
-349,67	944,00
-342,18	820,00
-334,69	927,00
-327,22	909,00
-319,76	905,00
-312,30	915,00
-304,86	888,00
-297,42	846,00
-290,00	929,00
-282,58	914,00
-275,17	943,00
-267,77	950,00
-260,37	808,00
-252,99	967,00
-245,62	890,00
-238,25	914,00
-230,90	861,00
-223,55	1029,00
-216,21	920,00
-208,88	1095,00
-201,56	909,00
-194,25	980,00
-186,94	1065,00
-179,65	999,00
-172,36	1006,00
-165,08	1155,00
-157,81	1193,00
-150,55	1245,00
-143,30	1238,00
-136,06	1229,00
-128,82	1189,00
-121,60	1346,00
-114,38	1392,00
-107,17	1531,00
-99,97	1659,00
-92,78	1691,00
-85,60	1814,00
-78,42	2029,00
-71,25	2154,00
-64,10	2232,00
-56,95	2623,00
-49,81	2919,00
-42,67	3483,00
-35,55	4094,00
-28,43	5246,00
-21,33	8234,00
-14,23	25544,00
-7,14	57498,00
-0,05	57284,00
7,02	57012,00
14,09	57319,00
21,14	21805,00
28,19	9442,00
35,23	6350,00
42,27	5157,00
49,29	4179,00
56,31	3724,00
63,32	3292,00
70,32	2944,00
77,31	2545,00
84,29	2249,00
91,27	2117,00
98,23	2078,00
105,19	1878,00
112,14	2203,00
119,09	2859,00
126,02	4353,00
132,95	4913,00
139,87	5063,00
146,78	5130,00
153,68	4908,00
160,58	4753,00
167,46	4583,00
174,34	4763,00
181,21	4674,00
188,08	4640,00
194,93	4731,00
201,78	4630,00
208,62	4789,00
215,45	4683,00
222,27	4776,00
229,09	4757,00
235,90	4536,00
242,70	4525,00
249,49	4629,00
256,27	4273,00
263,05	4300,00
269,82	4239,00
276,58	4352,00
283,33	4142,00
290,08	4252,00
296,82	4030,00
303,55	3991,00
310,27	3770,00
316,98	3927,00
323,69	3987,00
330,39	3883,00
337,08	3994,00
343,76	3925,00
350,44	4010,00
357,11	3839,00
363,77	3785,00
370,42	3820,00
377,07	3807,00
383,71	3753,00
390,34	3762,00
396,96	3907,00
403,58	3831,00
410,19	4020,00
416,79	4161,00
423,38	4165,00
429,97	4213,00
436,55	4130,00
443,12	4228,00
449,68	4204,00
456,24	4041,00
462,79	4027,00
469,33	3875,00
475,86	3708,00
482,39	3565,00
488,91	3568,00
495,42	3420,00
501,93	3384,00
508,42	3380,00
514,91	3314,00
521,40	3326,00
527,87	3344,00
534,34	3307,00
540,80	3303,00
547,25	3400,00
553,70	3279,00
560,14	3302,00
566,57	3425,00
573,00	3299,00
579,41	3467,00
585,83	3505,00
592,23	3478,00
598,62	3473,00
605,01	3563,00
611,40	3666,00
617,77	3664,00
624,14	3596,00
630,50	3369,00
636,85	3347,00
643,20	3234,00
649,54	3050,00
655,87	3116,00
662,20	3124,00
668,52	3076,00
674,83	2890,00
681,13	2987,00
687,43	3034,00
693,72	2839,00
700,00	2774,00
706,28	2879,00
712,55	2940,00
718,81	2916,00
725,07	2935,00
731,32	2878,00
737,56	2920,00
743,79	2925,00
750,02	2954,00
756,24	2736,00
762,46	2748,00
768,67	3056,00
774,87	2774,00
781,06	2746,00
787,25	2779,00
793,43	2920,00
799,60	2720,00
805,77	2991,00
811,93	2845,00
818,08	2910,00
824,23	2821,00
830,37	3018,00
836,50	2846,00
842,63	2827,00
848,75	2879,00
854,87	2835,00
860,97	2930,00
867,07	2768,00
873,17	2834,00
879,25	2869,00
885,33	2908,00
891,41	2913,00
897,47	2908,00
903,53	2832,00
909,59	2809,00
915,63	2798,00
921,67	2729,00
927,71	2759,00
933,74	2734,00
939,76	2501,00
945,77	2616,00
951,78	2740,00
957,78	2545,00
963,78	2693,00
969,77	2672,00
975,75	2570,00
981,72	2560,00
987,69	4112,00
993,66	2756,00
999,61	2745,00
1005,56	2762,00
1011,51	2660,00
1017,44	2690,00
1023,37	2709,00
1029,30	2686,00
1035,22	2776,00
1041,13	2625,00
1047,03	3077,00
1052,93	3429,00
1058,83	4802,00
1064,71	5268,00
1070,59	4496,00
1076,47	3760,00
1082,33	3512,00
1088,20	3292,00
1094,05	3120,00
1099,90	2950,00
1105,74	2796,00
1111,58	2863,00
1117,41	3212,00
1123,23	4098,00
1129,05	5057,00
1134,86	4573,00
1140,67	3485,00
1146,47	2960,00
1152,26	2790,00
1158,05	2683,00
1163,83	2804,00
1169,60	2923,00
1175,37	2835,00
1181,13	2694,00
1186,89	2431,00
1192,64	2588,00
1198,38	2656,00
1204,12	2482,00
1209,85	2446,00
1215,58	2485,00
1221,30	2587,00
1227,02	2458,00
1232,72	2559,00
1238,43	2394,00
1244,12	2522,00
1249,81	2543,00
1255,50	2619,00
1261,17	2600,00
1266,85	2591,00
1272,51	2760,00
1278,17	2928,00
1283,83	3196,00
1289,47	4669,00
1295,12	6257,00
1300,75	5662,00
1306,38	4325,00
1312,01	3585,00
1317,63	3060,00
1323,24	2902,00
1328,85	2740,00
1334,45	2665,00
1340,04	2617,00
1345,63	2536,00
1351,22	2639,00
1356,80	2587,00
1362,37	2795,00
1367,93	2825,00
1373,49	2812,00
1379,05	2665,00
1384,60	2627,00
1390,14	2707,00
1395,68	2601,00
1401,21	2655,00
1406,74	2804,00
1412,26	3498,00
1417,77	4103,00
1423,28	4027,00
1428,78	4418,00
1434,28	5452,00
1439,77	6323,00
1445,26	6058,00
1450,74	5748,00
1456,22	5268,00
1461,68	5029,00
1467,15	4747,00
1472,61	3905,00
1478,06	3764,00
1483,51	3140,00
1488,95	2722,00
1494,38	2731,00
1499,81	2529,00
1505,24	2424,00
1510,65	2465,00
1516,07	2376,00
1521,48	2281,00
1526,88	2230,00
1532,27	2328,00
1537,67	2172,00
1543,05	2247,00
1548,43	2150,00
1553,81	2248,00
1559,18	2057,00
1564,54	2201,00
1569,90	2230,00
1575,25	2061,00
1580,60	2023,00
1585,94	2071,00
1591,28	2053,00
1596,61	2081,00
1601,93	2094,00
1607,25	2169,00
1612,57	2014,00
1617,88	2039,00
1623,18	2102,00
1628,48	1991,00
1633,77	1991,00
1639,06	2071,00
1644,34	2069,00
1649,62	1919,00
1654,89	2036,00
1660,16	1876,00
1665,42	2110,00
1670,67	1902,00
1675,92	1804,00
1681,17	1876,00
1686,41	1944,00
1691,64	1992,00
1696,87	1955,00
1702,10	1936,00
1707,32	1951,00
1712,53	1849,00
1717,74	1882,00
1722,94	2047,00
1728,14	1833,00
1733,33	1810,00
1738,52	1732,00
1743,70	1825,00
1748,88	1791,00
1754,05	1881,00
1759,22	1703,00
1764,38	945,00
1769,53	1838,00
1774,69	1722,00
1779,83	1761,00
1784,97	1811,00
1790,11	1775,00
1795,24	1751,00
1800,36	1755,00
1805,48	1744,00
1810,60	1756,00
1815,71	1795,00
1820,82	1574,00
1825,92	1770,00
1831,01	1618,00
1836,10	1723,00
1841,19	1779,00
1846,26	1617,00
1851,34	1754,00
1856,41	1688,00
1861,47	1625,00
1866,53	1761,00
1871,59	1631,00
1876,64	1720,00
1881,68	1653,00
1886,72	1659,00
1891,76	1582,00
1896,79	1593,00
1901,81	1535,00
1906,83	1619,00
1911,85	1490,00
1916,86	1581,00
1921,86	1540,00
1926,86	1563,00
1931,86	1612,00
1936,85	1468,00
1941,83	1533,00
1946,81	1540,00
1951,79	1440,00
1956,76	1549,00
1961,72	1364,00
1966,68	1492,00
1971,64	1494,00
1976,59	1529,00
1981,54	1451,00
1986,48	1546,00
1991,42	1246,00
1996,35	1679,00
2001,27	1448,00
2006,20	1380,00
2011,11	1487,00
2016,03	1420,00
2020,93	1429,00
2025,84	1479,00
2030,73	1390,00
2035,63	1360,00
2040,52	1454,00
2045,40	1392,00
2050,28	1332,00
2055,15	1449,00
2060,02	1276,00
2064,89	1510,00
2069,75	1430,00
2074,60	1458,00
2079,46	1341,00
2084,30	1378,00
2089,14	1314,00
2093,98	1403,00
2098,81	1385,00
2103,64	1384,00
2108,46	1363,00
2113,28	1471,00
2118,09	1349,00
2122,90	1480,00
2127,70	1337,00
2132,50	1420,00
2137,30	1374,00
2142,09	1228,00
2146,87	1303,00
2151,66	1391,00
2156,43	1348,00
2161,20	1294,00
2165,97	1307,00
2170,73	1370,00
2175,49	1432,00
2180,24	1499,00
2184,99	1555,00
2189,74	1485,00
2194,48	1549,00
2199,21	1471,00
2203,94	1349,00
2208,67	1314,00
2213,39	1196,00
2218,11	1398,00
2222,82	1359,00
2227,53	1378,00
2232,23	1333,00
2236,93	1405,00
2241,63	1253,00
2246,32	1353,00
2251,00	1391,00
2255,68	1296,00
2260,36	1314,00
2265,03	1384,00
2269,70	1358,00
2274,36	1293,00
2279,02	1334,00
2283,68	1244,00
2288,33	1315,00
2292,97	1290,00
2297,61	1277,00
2302,25	1252,00
2306,88	1184,00
2311,51	1158,00
2316,14	1177,00
2320,75	1184,00
2325,37	1105,00
2329,98	1282,00
2334,59	1252,00
2339,19	1168,00
2343,79	1119,00
2348,38	1173,00
2352,97	1107,00
2357,55	1281,00
2362,13	1245,00
2366,71	1139,00
2371,28	1314,00
2375,85	1214,00
2380,41	1263,00
2384,97	1161,00
2389,52	1256,00
2394,07	1284,00
2398,62	1196,00
2403,16	1204,00
2407,70	1082,00
2412,23	1111,00
2416,76	1320,00
2421,29	1209,00
2425,81	1294,00
2430,32	1164,00
2434,84	1073,00
2439,34	1124,00
2443,85	1269,00
2448,35	1136,00
2452,84	1101,00
2457,33	1168,00
2461,82	1083,00
2466,30	1091,00
2470,78	1189,00
2475,25	1231,00
2479,72	1207,00
2484,19	1202,00
2488,65	1218,00
2493,11	1119,00
2497,56	1320,00
2502,01	1072,00
2506,46	1243,00
2510,90	1134,00
2515,34	1169,00
2519,77	1110,00
2524,20	1178,00
2528,62	1230,00
2533,04	1166,00
2537,46	1186,00
2541,87	1108,00
2546,28	1121,00
2550,68	1240,00
2555,08	1174,00
2559,48	1108,00
2563,87	1049,00
2568,26	1011,00
2572,64	1227,00
2577,02	1188,00
2581,40	1011,00
2585,77	1172,00
2590,14	1188,00
2594,50	1137,00
2598,86	1198,00
2603,22	1166,00
2607,57	1147,00
2611,92	1235,00
2616,26	1321,00
2620,60	1275,00
2624,94	1079,00
2629,27	1187,00
2633,60	1056,00
2637,92	1307,00
2642,24	1340,00
2646,56	1258,00
2650,87	1128,00
2655,18	1219,00
2659,48	1134,00
2663,78	1163,00
2668,08	1191,00
2672,37	1250,00
2676,66	1212,00
2680,95	1172,00
2685,23	1325,00
2689,50	1267,00
2693,78	1310,00
2698,05	1253,00
2702,31	1304,00
2706,57	1471,00
2710,83	1458,00
2715,08	1507,00
2719,33	1581,00
2723,58	1476,00
2727,82	1618,00
2732,06	1441,00
2736,29	1485,00
2740,53	1410,00
2744,75	1339,00
2748,97	1410,00
2753,19	1321,00
2757,41	1368,00
2761,62	1383,00
2765,83	1362,00
2770,03	1317,00
2774,23	1409,00
2778,43	1289,00
2782,62	1486,00
2786,81	1369,00
2791,00	1443,00
2795,18	1544,00
2799,35	1511,00
2803,53	1560,00
2807,70	1589,00
2811,86	1652,00
2816,03	1811,00
2820,19	1782,00
2824,34	1845,00
2828,49	2015,00
2832,64	2236,00
2836,78	2744,00
2840,92	3099,00
2845,06	3788,00
2849,19	4313,00
2853,32	4413,00
2857,45	4344,00
2861,57	4282,00
2865,69	4187,00
2869,80	4039,00
2873,91	4138,00
2878,02	4807,00
2882,12	5102,00
2886,22	5191,00
2890,32	4817,00
2894,41	4557,00
2898,50	4164,00
2902,58	3776,00
2906,67	3716,00
2910,74	3341,00
2914,82	3086,00
2918,89	3014,00
2922,96	2757,00
2927,02	2567,00
2931,08	2527,00
2935,13	2305,00
2939,19	2258,00
2943,24	2078,00
2947,28	2056,00
2951,32	1747,00
2955,36	1592,00
2959,40	1667,00
2963,43	1605,00
2967,46	1470,00
2971,48	1403,00
2975,50	1394,00
2979,52	1445,00
2983,53	1359,00
2987,54	1325,00
2991,55	1392,00
2995,55	1318,00
2999,55	1207,00
3003,54	1110,00
3007,54	1227,00
3011,53	1184,00
3015,51	1105,00
3019,49	1224,00
3023,47	1030,00
3027,45	1114,00
3031,42	1057,00
3035,39	1005,00
3039,35	1091,00
3043,31	1093,00
3047,27	1091,00
3051,22	1036,00
3055,17	907,00
3059,12	965,00
3063,06	1012,00
3067,00	921,00
3070,94	939,00
3074,87	1089,00
3078,80	978,00
3082,73	928,00
3086,65	839,00
3090,57	925,00
3094,49	956,00
3098,40	843,00
3102,31	916,00
3106,22	939,00
3110,12	933,00
3114,02	858,00
3117,92	968,00
3121,81	942,00
3125,70	933,00
3129,58	932,00
3133,47	747,00
3137,34	1003,00
3141,22	971,00
3145,09	954,00
3148,96	962,00
3152,83	944,00
3156,69	932,00
3160,55	842,00
3164,40	974,00
3168,26	906,00
3172,10	969,00
3175,95	961,00
3179,79	923,00
3183,63	1039,00
3187,47	873,00
3191,30	982,00
3195,13	958,00
3198,95	833,00
3202,78	832,00
3206,60	861,00
3210,41	840,00
3214,23	846,00
3218,03	884,00
3221,84	920,00
3225,64	855,00
3229,44	811,00
3233,24	821,00
3237,03	932,00
3240,82	877,00
3244,61	863,00
3248,39	898,00
3252,17	964,00
3255,95	1019,00
3259,72	875,00
3263,49	1082,00
3267,26	848,00
3271,03	875,00
3274,79	873,00
3278,54	904,00
3282,30	784,00
3286,05	897,00
3289,80	879,00
3293,54	839,00
3297,29	915,00
3301,02	951,00
3304,76	879,00
3308,49	980,00
3312,22	802,00
3315,95	876,00
3319,67	833,00
3323,39	962,00
3327,10	1052,00
3330,82	878,00
3334,53	886,00
3338,24	832,00
3341,94	851,00
3345,64	935,00
3349,34	932,00
3353,03	919,00
3356,72	879,00
3360,41	912,00
3364,10	817,00
3367,78	838,00
3371,46	822,00
3375,13	885,00
3378,81	949,00
3382,48	827,00
3386,14	1018,00
3389,81	862,00
3393,47	825,00
3397,12	1001,00
3400,78	862,00
3404,43	922,00
3408,08	977,00
3411,72	857,00
3415,36	882,00
3419,00	873,00
3422,64	846,00
3426,27	867,00
3429,90	873,00
3433,53	821,00
3437,15	874,00
3440,77	778,00
3444,39	767,00
3448,00	870,00
3451,62	844,00
3455,22	901,00
3458,83	752,00
3462,43	784,00
3466,03	877,00
3469,63	769,00
3473,22	856,00
3476,81	696,00
3480,40	912,00
3483,99	764,00
3487,57	785,00
3491,15	860,00
3494,72	871,00
3498,29	1000,00
3501,86	721,00
3505,43	785,00
3508,99	768,00
3512,56	708,00
3516,11	898,00
3519,67	780,00
3523,22	895,00
3526,77	810,00
3530,32	965,00
3533,86	847,00
3537,40	889,00
3540,94	904,00
3544,47	811,00
3548,00	781,00
3551,53	864,00
3555,06	747,00
3558,58	886,00
3562,10	859,00
3565,62	771,00
3569,13	901,00
3572,64	947,00
3576,15	703,00
3579,66	835,00
3583,16	888,00
3586,66	806,00
3590,16	789,00
3593,65	720,00
3597,14	797,00
3600,63	727,00
3604,11	849,00
3607,60	829,00
3611,08	855,00
3614,55	799,00
3618,03	770,00
3621,50	767,00
3624,97	788,00
3628,43	833,00
3631,90	693,00
3635,36	722,00
3638,81	801,00
3642,27	859,00
3645,72	819,00
3649,17	750,00
3652,61	752,00
3656,06	797,00
3659,50	761,00
3662,93	814,00
3666,37	771,00
3669,80	931,00
3673,23	841,00
3676,65	793,00
3680,08	833,00
3683,50	722,00
3686,92	700,00
3690,33	749,00
3693,74	671,00
3697,15	630,00
3700,56	850,00
3703,96	804,00
3707,36	723,00
3710,76	681,00
3714,16	734,00
3717,55	752,00
3720,94	740,00
3724,33	688,00
3727,71	817,00
3731,10	719,00
3734,48	788,00
3737,85	632,00
3741,23	677,00
3744,60	730,00
3747,97	621,00
3751,33	752,00
3754,69	672,00
3758,05	672,00
3761,41	684,00
3764,77	651,00
3768,12	662,00
3771,47	610,00
3774,82	761,00
3778,16	-6,00
3781,50	12,00
3784,84	6,00
3788,18	13,00
>>>>>End Processed Spectral Data<<<<<
