SpectraSuite Data File
++++++++++++++++++++++++++++++++++++
Date: Mon Jan 05 16:34:04 ICT 2026
User: Administrator
Dark Spectrum Present: Yes
Reference Spectrum Present: No
Number of Sampled Component Spectra: 1
Spectrometers: MAYP113682
Integration Time (usec): 3000000 (MAYP113682)
Spectra Averaged: 1 (MAYP113682)
Boxcar Smoothing: 0 (MAYP113682)
Correct for Electrical Dark: No (MAYP113682)
Strobe/Lamp Enabled: No (MAYP113682)
Correct for Detector Non-linearity: No (MAYP113682)
Correct for Stray Light: No (MAYP113682)
Number of Pixels in Processed Spectrum: 2068
>>>>>Begin Processed Spectral Data<<<<<
-37534,58	36,00
-37414,56	11,00
-37295,11	12,00
-37176,24	2,00
-37057,95	580,00
-36940,22	708,00
-36823,05	761,00
-36706,45	743,00
-36590,40	772,00
-36474,90	774,00
-36359,95	843,00
-36245,55	811,00
-36131,68	799,00
-36018,35	747,00
-35905,55	791,00
-35793,29	870,00
-35681,54	725,00
-35570,32	855,00
-35459,62	859,00
-35349,43	904,00
-35239,75	821,00
-35130,58	832,00
-35021,91	766,00
-34913,74	775,00
-34806,07	863,00
-34698,89	952,00
-34592,20	821,00
-34486,00	843,00
-34380,28	826,00
-34275,04	793,00
-34170,27	748,00
-34065,98	940,00
-33962,16	915,00
-33858,81	950,00
-33755,92	832,00
-33653,49	952,00
-33551,52	914,00
-33450,01	973,00
-33348,94	870,00
-33248,33	924,00
-33148,16	860,00
-33048,43	886,00
-32949,14	1067,00
-32850,29	931,00
-32751,87	908,00
-32653,89	956,00
-32556,33	938,00
-32459,20	824,00
-32362,49	884,00
-32266,19	863,00
-32170,32	851,00
-32074,86	942,00
-31979,82	961,00
-31885,18	1095,00
-31790,95	1007,00
-31697,12	1031,00
-31603,69	979,00
-31510,67	948,00
-31418,04	914,00
-31325,80	923,00
-31233,95	881,00
-31142,49	960,00
-31051,42	918,00
-30960,73	1046,00
-30870,43	1011,00
-30780,50	1006,00
-30690,95	924,00
-30601,77	999,00
-30512,97	901,00
-30424,53	1044,00
-30336,46	936,00
-30248,76	946,00
-30161,42	1022,00
-30074,44	864,00
-29987,81	983,00
-29901,55	994,00
-29815,63	848,00
-29730,07	1010,00
-29644,86	941,00
-29560,00	976,00
-29475,48	921,00
-29391,30	928,00
-29307,47	887,00
-29223,97	907,00
-29140,81	996,00
-29057,99	1077,00
-28975,50	790,00
-28893,34	1084,00
-28811,51	837,00
-28730,00	1005,00
-28648,82	949,00
-28567,97	924,00
-28487,43	886,00
-28407,21	910,00
-28327,32	868,00
-28247,73	1106,00
-28168,46	927,00
-28089,50	1011,00
-28010,85	818,00
-27932,51	885,00
-27854,48	939,00
-27776,75	931,00
-27699,32	793,00
-27622,19	870,00
-27545,37	1013,00
-27468,84	1005,00
-27392,60	1017,00
-27316,66	949,00
-27241,01	870,00
-27165,66	823,00
-27090,59	894,00
-27015,81	992,00
-26941,31	1055,00
-26867,10	871,00
-26793,17	1028,00
-26719,52	937,00
-26646,15	895,00
-26573,06	911,00
-26500,24	845,00
-26427,70	942,00
-26355,43	894,00
-26283,43	946,00
-26211,71	1030,00
-26140,25	1009,00
-26069,06	1046,00
-25998,13	872,00
-25927,46	892,00
-25857,06	942,00
-25786,92	917,00
-25717,04	814,00
-25647,42	1026,00
-25578,05	880,00
-25508,94	777,00
-25440,09	872,00
-25371,48	919,00
-25303,13	888,00
-25235,02	940,00
-25167,17	928,00
-25099,56	874,00
-25032,19	922,00
-24965,07	855,00
-24898,20	759,00
-24831,56	838,00
-24765,17	944,00
-24699,01	833,00
-24633,10	1018,00
-24567,41	949,00
-24501,97	951,00
-24436,75	948,00
-24371,77	906,00
-24307,03	842,00
-24242,51	972,00
-24178,22	885,00
-24114,16	824,00
-24050,32	1068,00
-23986,71	921,00
-23923,32	941,00
-23860,16	932,00
-23797,22	874,00
-23734,50	922,00
-23672,00	874,00
-23609,71	937,00
-23547,65	856,00
-23485,80	964,00
-23424,16	800,00
-23362,74	1036,00
-23301,53	894,00
-23240,54	799,00
-23179,75	839,00
-23119,17	848,00
-23058,80	865,00
-22998,64	992,00
-22938,68	939,00
-22878,93	944,00
-22819,39	796,00
-22760,04	877,00
-22700,90	867,00
-22641,96	885,00
-22583,22	895,00
-22524,68	908,00
-22466,33	933,00
-22408,19	949,00
-22350,23	804,00
-22292,48	891,00
-22234,92	955,00
-22177,55	1014,00
-22120,37	1041,00
-22063,38	907,00
-22006,58	880,00
-21949,98	812,00
-21893,56	683,00
-21837,33	961,00
-21781,28	888,00
-21725,42	938,00
-21669,74	954,00
-21614,25	886,00
-21558,94	877,00
-21503,81	942,00
-21448,86	1030,00
-21394,10	942,00
-21339,51	932,00
-21285,10	759,00
-21230,86	841,00
-21176,81	777,00
-21122,93	906,00
-21069,22	768,00
-21015,69	912,00
-20962,33	956,00
-20909,14	779,00
-20856,13	855,00
-20803,28	989,00
-20750,61	907,00
-20698,10	801,00
-20645,76	896,00
-20593,59	1019,00
-20541,59	952,00
-20489,75	968,00
-20438,07	782,00
-20386,56	955,00
-20335,22	786,00
-20284,03	854,00
-20233,01	813,00
-20182,15	837,00
-20131,45	892,00
-20080,91	781,00
-20030,52	879,00
-19980,30	780,00
-19930,23	845,00
-19880,32	880,00
-19830,56	917,00
-19780,96	896,00
-19731,52	806,00
-19682,23	871,00
-19633,09	869,00
-19584,10	826,00
-19535,26	866,00
-19486,58	1025,00
-19438,04	880,00
-19389,66	1021,00
-19341,42	827,00
-19293,33	861,00
-19245,39	949,00
-19197,60	1014,00
-19149,95	924,00
-19102,45	952,00
-19055,09	768,00
-19007,87	839,00
-18960,80	903,00
-18913,87	888,00
-18867,09	790,00
-18820,44	970,00
-18773,94	968,00
-18727,57	968,00
-18681,35	822,00
-18635,26	987,00
-18589,31	821,00
-18543,50	814,00
-18497,83	916,00
-18452,29	947,00
-18406,89	794,00
-18361,63	962,00
-18316,50	916,00
-18271,50	830,00
-18226,63	995,00
-18181,90	918,00
-18137,30	949,00
-18092,84	847,00
-18048,50	963,00
-18004,29	848,00
-17960,22	800,00
-17916,27	868,00
-17872,45	965,00
-17828,76	992,00
-17785,20	860,00
-17741,77	905,00
-17698,46	929,00
-17655,28	872,00
-17612,22	883,00
-17569,29	888,00
-17526,48	950,00
-17483,79	877,00
-17441,23	831,00
-17398,79	856,00
-17356,48	817,00
-17314,28	1036,00
-17272,21	859,00
-17230,26	944,00
-17188,42	901,00
-17146,71	990,00
-17105,12	872,00
-17063,64	885,00
-17022,28	854,00
-16981,04	747,00
-16939,92	943,00
-16898,91	1008,00
-16858,02	882,00
-16817,25	889,00
-16776,59	855,00
-16736,04	836,00
-16695,61	865,00
-16655,29	833,00
-16615,09	899,00
-16574,99	882,00
-16535,01	911,00
-16495,15	983,00
-16455,39	883,00
-16415,74	772,00
-16376,21	769,00
-16336,78	840,00
-16297,46	867,00
-16258,26	835,00
-16219,16	929,00
-16180,17	878,00
-16141,28	924,00
-16102,51	871,00
-16063,84	879,00
-16025,27	953,00
-15986,82	775,00
-15948,46	929,00
-15910,22	878,00
-15872,07	880,00
-15834,04	891,00
-15796,10	792,00
-15758,27	1045,00
-15720,54	906,00
-15682,91	829,00
-15645,39	1059,00
-15607,97	918,00
-15570,64	893,00
-15533,42	928,00
-15496,30	864,00
-15459,28	936,00
-15422,36	800,00
-15385,54	889,00
-15348,82	869,00
-15312,19	1008,00
-15275,66	841,00
-15239,23	854,00
-15202,90	838,00
-15166,67	861,00
-15130,53	981,00
-15094,48	887,00
-15058,54	835,00
-15022,68	808,00
-14986,93	818,00
-14951,26	972,00
-14915,69	968,00
-14880,22	881,00
-14844,84	898,00
-14809,55	864,00
-14774,35	945,00
-14739,25	844,00
-14704,24	942,00
-14669,32	907,00
-14634,49	855,00
-14599,75	900,00
-14565,10	792,00
-14530,55	829,00
-14496,08	917,00
-14461,70	1015,00
-14427,41	857,00
-14393,21	710,00
-14359,10	850,00
-14325,07	929,00
-14291,14	876,00
-14257,29	939,00
-14223,52	902,00
-14189,85	948,00
-14156,26	934,00
-14122,76	754,00
-14089,34	847,00
-14056,01	944,00
-14022,76	891,00
-13989,60	912,00
-13956,52	1033,00
-13923,53	900,00
-13890,62	851,00
-13857,79	846,00
-13825,05	843,00
-13792,39	814,00
-13759,81	929,00
-13727,31	934,00
-13694,90	890,00
-13662,57	979,00
-13630,31	957,00
-13598,14	934,00
-13566,05	803,00
-13534,05	891,00
-13502,12	899,00
-13470,27	849,00
-13438,50	969,00
-13406,80	863,00
-13375,19	789,00
-13343,66	927,00
-13312,20	968,00
-13280,83	794,00
-13249,53	914,00
-13218,30	701,00
-13187,16	813,00
-13156,09	1123,00
-13125,10	867,00
-13094,18	930,00
-13063,34	896,00
-13032,58	758,00
-13001,89	874,00
-12971,28	882,00
-12940,74	880,00
-12910,27	873,00
-12879,88	871,00
-12849,57	930,00
-12819,33	984,00
-12789,16	929,00
-12759,06	944,00
-12729,04	838,00
-12699,09	2237,00
-12669,21	800,00
-12639,41	934,00
-12609,68	829,00
-12580,02	873,00
-12550,43	982,00
-12520,91	764,00
-12491,46	909,00
-12462,08	883,00
-12432,77	896,00
-12403,54	884,00
-12374,37	781,00
-12345,27	952,00
-12316,24	871,00
-12287,29	968,00
-12258,40	837,00
-12229,57	804,00
-12200,82	824,00
-12172,14	913,00
-12143,52	774,00
-12114,97	839,00
-12086,49	875,00
-12058,07	1002,00
-12029,73	845,00
-12001,44	1016,00
-11973,23	895,00
-11945,08	973,00
-11917,00	854,00
-11888,98	848,00
-11861,03	985,00
-11833,15	836,00
-11805,32	954,00
-11777,57	956,00
-11749,88	986,00
-11722,25	824,00
-11694,69	839,00
-11667,19	922,00
-11639,75	995,00
-11612,38	810,00
-11585,07	864,00
-11557,83	876,00
-11530,65	1041,00
-11503,53	822,00
-11476,47	904,00
-11449,48	763,00
-11422,54	983,00
-11395,67	935,00
-11368,86	923,00
-11342,11	828,00
-11315,43	869,00
-11288,80	858,00
-11262,23	960,00
-11235,73	933,00
-11209,28	1092,00
-11182,90	774,00
-11156,57	811,00
-11130,31	1103,00
-11104,10	931,00
-11077,96	914,00
-11051,87	836,00
-11025,84	911,00
-10999,87	897,00
-10973,96	907,00
-10948,11	899,00
-10922,31	994,00
-10896,58	934,00
-10870,90	1027,00
-10845,28	993,00
-10819,71	856,00
-10794,20	954,00
-10768,75	994,00
-10743,36	906,00
-10718,02	843,00
-10692,74	914,00
-10667,52	835,00
-10642,35	931,00
-10617,24	1050,00
-10592,18	941,00
-10567,18	903,00
-10542,23	909,00
-10517,34	993,00
-10492,51	989,00
-10467,72	935,00
-10443,00	1029,00
-10418,32	1106,00
-10393,70	1048,00
-10369,14	936,00
-10344,63	930,00
-10320,17	1103,00
-10295,77	979,00
-10271,42	967,00
-10247,12	1100,00
-10222,88	1218,00
-10198,68	1004,00
-10174,54	1092,00
-10150,46	1207,00
-10126,42	1207,00
-10102,44	1070,00
-10078,51	1148,00
-10054,63	1228,00
-10030,80	1121,00
-10007,03	1369,00
-9983,30	1183,00
-9959,63	1192,00
-9936,01	1343,00
-9912,44	1274,00
-9888,92	1289,00
-9865,44	1241,00
-9842,02	1282,00
-9818,65	1382,00
-9795,33	1323,00
-9772,06	1344,00
-9748,84	1341,00
-9725,67	1411,00
-9702,55	1518,00
-9679,47	1700,00
-9656,45	1690,00
-9633,47	1643,00
-9610,55	1759,00
-9587,67	1928,00
-9564,84	2236,00
-9542,06	2029,00
-9519,32	2323,00
-9496,64	2458,00
-9474,00	2430,00
-9451,41	2535,00
-9428,87	2569,00
-9406,37	2588,00
-9383,92	2361,00
-9361,52	2297,00
-9339,17	2679,00
-9316,86	2772,00
-9294,60	3239,00
-9272,38	3378,00
-9250,21	3844,00
-9228,09	3719,00
-9206,01	3763,00
-9183,98	3541,00
-9162,00	3107,00
-9140,06	3244,00
-9118,16	3183,00
-9096,31	3318,00
-9074,51	3399,00
-9052,75	3691,00
-9031,04	3452,00
-9009,37	3042,00
-8987,74	3026,00
-8966,16	2841,00
-8944,63	2521,00
-8923,14	2562,00
-8901,69	2533,00
-8880,29	2491,00
-8858,93	2907,00
-8837,61	2946,00
-8816,34	3125,00
-8795,11	3168,00
-8773,92	2787,00
-8752,78	2896,00
-8731,68	2494,00
-8710,62	2730,00
-8689,61	2523,00
-8668,63	2809,00
-8647,70	3039,00
-8626,82	3076,00
-8605,97	3002,00
-8585,17	2766,00
-8564,41	2581,00
-8543,69	2568,00
-8523,01	2257,00
-8502,37	2606,00
-8481,78	2584,00
-8461,23	2517,00
-8440,71	2795,00
-8420,24	2872,00
-8399,81	3139,00
-8379,42	2934,00
-8359,08	2803,00
-8338,77	2464,00
-8318,50	2465,00
-8298,27	2256,00
-8278,09	2520,00
-8257,94	2595,00
-8237,83	2878,00
-8217,76	2938,00
-8197,74	2801,00
-8177,75	2713,00
-8157,80	2630,00
-8137,89	2398,00
-8118,02	2245,00
-8098,19	2363,00
-8078,40	2370,00
-8058,65	2503,00
-8038,93	2468,00
-8019,26	2417,00
-7999,62	2428,00
-7980,02	2263,00
-7960,46	2169,00
-7940,94	2025,00
-7921,46	2143,00
-7902,01	2012,00
-7882,60	2164,00
-7863,23	2082,00
-7843,90	2105,00
-7824,61	2211,00
-7805,35	2394,00
-7786,13	2263,00
-7766,95	2242,00
-7747,80	2172,00
-7728,69	2212,00
-7709,62	2147,00
-7690,59	2189,00
-7671,59	2386,00
-7652,63	2329,00
-7633,70	2215,00
-7614,81	2394,00
-7595,96	2214,00
-7577,15	2067,00
-7558,37	1921,00
-7539,62	2078,00
-7520,91	2084,00
-7502,24	2133,00
-7483,60	2279,00
-7465,00	2064,00
-7446,44	2076,00
-7427,91	1671,00
-7409,41	1786,00
-7390,95	1723,00
-7372,53	1654,00
-7354,14	1684,00
-7335,78	1628,00
-7317,46	1703,00
-7299,18	1613,00
-7280,92	1922,00
-7262,71	2167,00
-7244,52	2149,00
-7226,38	2102,00
-7208,26	2064,00
-7190,18	2042,00
-7172,14	1869,00
-7154,12	1981,00
-7136,15	1896,00
-7118,20	1986,00
-7100,29	2145,00
-7082,41	2126,00
-7064,57	1956,00
-7046,76	1970,00
-7028,98	1684,00
-7011,24	1744,00
-6993,53	1504,00
-6975,85	1483,00
-6958,20	1435,00
-6940,59	1443,00
-6923,01	1319,00
-6905,46	1592,00
-6887,94	1686,00
-6870,46	2117,00
-6853,01	1996,00
-6835,59	2005,00
-6818,21	1777,00
-6800,85	1759,00
-6783,53	1482,00
-6766,24	1287,00
-6748,98	1362,00
-6731,76	1211,00
-6714,56	1203,00
-6697,40	1108,00
-6680,26	1155,00
-6663,16	1358,00
-6646,09	1609,00
-6629,05	1654,00
-6612,05	1632,00
-6595,07	1563,00
-6578,13	1725,00
-6561,21	1384,00
-6544,33	1362,00
-6527,47	1182,00
-6510,65	1177,00
-6493,86	1041,00
-6477,10	1171,00
-6460,36	1320,00
-6443,66	1126,00
-6426,99	1168,00
-6410,35	1179,00
-6393,74	1345,00
-6377,16	1166,00
-6360,61	1406,00
-6344,09	1231,00
-6327,59	1338,00
-6311,13	1447,00
-6294,70	1398,00
-6278,29	1353,00
-6261,92	1432,00
-6245,58	1575,00
-6229,26	1521,00
-6212,97	1542,00
-6196,72	1310,00
-6180,49	1360,00
-6164,29	1050,00
-6148,12	1178,00
-6131,98	1097,00
-6115,86	988,00
-6099,78	950,00
-6083,72	939,00
-6067,69	989,00
-6051,69	949,00
-6035,72	1030,00
-6019,78	1090,00
-6003,87	1341,00
-5987,98	1355,00
-5972,12	1321,00
-5956,29	1371,00
-5940,49	1241,00
-5924,71	1300,00
-5908,96	1099,00
-5893,24	1040,00
-5877,55	1085,00
-5861,89	1049,00
-5846,25	905,00
-5830,64	1062,00
-5815,05	1053,00
-5799,50	1026,00
-5783,97	1114,00
-5768,47	1130,00
-5752,99	1369,00
-5737,55	1121,00
-5722,12	1304,00
-5706,73	1356,00
-5691,36	1287,00
-5676,02	1057,00
-5660,71	1035,00
-5645,42	1019,00
-5630,16	1183,00
-5614,92	1246,00
-5599,71	1153,00
-5584,53	1208,00
-5569,37	1262,00
-5554,24	2235,00
-5539,14	1141,00
-5524,06	1179,00
-5509,01	1136,00
-5493,98	1131,00
-5478,98	1173,00
-5464,00	1024,00
-5449,05	1108,00
-5434,13	1082,00
-5419,23	1050,00
-5404,36	953,00
-5389,51	1140,00
-5374,69	1296,00
-5359,89	1438,00
-5345,12	1419,00
-5330,37	1444,00
-5315,65	1335,00
-5300,95	1225,00
-5286,28	1065,00
-5271,63	1094,00
-5257,01	1146,00
-5242,41	1135,00
-5227,84	1032,00
-5213,29	1060,00
-5198,76	1005,00
-5184,26	948,00
-5169,79	995,00
-5155,33	1052,00
-5140,91	1089,00
-5126,51	1163,00
-5112,13	1160,00
-5097,77	1117,00
-5083,44	1314,00
-5069,13	874,00
-5054,85	1083,00
-5040,59	1028,00
-5026,36	1242,00
-5012,15	1158,00
-4997,96	1138,00
-4983,80	1027,00
-4969,66	947,00
-4955,54	920,00
-4941,44	1082,00
-4927,37	1151,00
-4913,33	1361,00
-4899,30	1325,00
-4885,30	1285,00
-4871,33	1144,00
-4857,37	1021,00
-4843,44	979,00
-4829,53	1063,00
-4815,65	1190,00
-4801,79	939,00
-4787,95	1149,00
-4774,13	993,00
-4760,34	1012,00
-4746,56	1052,00
-4732,82	999,00
-4719,09	996,00
-4705,38	1299,00
-4691,70	1324,00
-4678,04	1363,00
-4664,41	1225,00
-4650,79	1264,00
-4637,20	1045,00
-4623,63	981,00
-4610,08	1122,00
-4596,56	1131,00
-4583,05	1123,00
-4569,57	1095,00
-4556,11	1110,00
-4542,67	914,00
-4529,25	903,00
-4515,86	1115,00
-4502,49	1188,00
-4489,13	1282,00
-4475,80	1212,00
-4462,49	1030,00
-4449,21	1120,00
-4435,94	1038,00
-4422,70	974,00
-4409,47	951,00
-4396,27	1181,00
-4383,09	991,00
-4369,93	1012,00
-4356,79	860,00
-4343,67	976,00
-4330,58	1107,00
-4317,50	1130,00
-4304,45	1082,00
-4291,41	1059,00
-4278,40	1049,00
-4265,41	911,00
-4252,44	980,00
-4239,49	922,00
-4226,55	1100,00
-4213,65	1085,00
-4200,76	1044,00
-4187,89	909,00
-4175,04	797,00
-4162,21	942,00
-4149,40	986,00
-4136,61	934,00
-4123,85	914,00
-4111,10	922,00
-4098,37	1001,00
-4085,66	1001,00
-4072,98	992,00
-4060,31	867,00
-4047,66	1102,00
-4035,04	1044,00
-4022,43	885,00
-4009,84	937,00
-3997,27	833,00
-3984,72	892,00
-3972,19	984,00
-3959,69	927,00
-3947,20	919,00
-3934,73	921,00
-3922,27	851,00
-3909,84	900,00
-3897,43	956,00
-3885,04	983,00
-3872,67	912,00
-3860,31	880,00
-3847,98	1051,00
-3835,66	938,00
-3823,36	972,00
-3811,09	806,00
-3798,83	945,00
-3786,59	871,00
-3774,37	1008,00
-3762,17	845,00
-3749,98	861,00
-3737,82	895,00
-3725,67	1114,00
-3713,55	833,00
-3701,44	951,00
-3689,35	925,00
-3677,28	1042,00
-3665,22	923,00
-3653,19	856,00
-3641,17	835,00
-3629,18	1003,00
-3617,20	917,00
-3605,24	922,00
-3593,30	951,00
-3581,37	949,00
-3569,47	922,00
-3557,58	885,00
-3545,71	949,00
-3533,86	983,00
-3522,02	899,00
-3510,21	935,00
-3498,41	899,00
-3486,63	893,00
-3474,87	920,00
-3463,12	883,00
-3451,40	868,00
-3439,69	982,00
-3428,00	878,00
-3416,33	920,00
-3404,67	798,00
-3393,03	841,00
-3381,41	979,00
-3369,81	929,00
-3358,22	987,00
-3346,66	1048,00
-3335,10	945,00
-3323,57	906,00
-3312,06	992,00
-3300,56	932,00
-3289,08	810,00
-3277,61	942,00
-3266,16	888,00
-3254,73	923,00
-3243,32	963,00
-3231,92	809,00
-3220,55	932,00
-3209,18	1041,00
-3197,84	861,00
-3186,51	786,00
-3175,20	877,00
-3163,90	783,00
-3152,63	965,00
-3141,36	809,00
-3130,12	970,00
-3118,89	1006,00
-3107,68	849,00
-3096,49	993,00
-3085,31	881,00
-3074,15	823,00
-3063,00	951,00
-3051,87	955,00
-3040,76	907,00
-3029,67	1051,00
-3018,59	1145,00
-3007,52	1122,00
-2996,48	1065,00
-2985,44	842,00
-2974,43	923,00
-2963,43	821,00
-2952,45	974,00
-2941,48	964,00
-2930,53	949,00
-2919,60	876,00
-2908,68	888,00
-2897,78	892,00
-2886,89	966,00
-2876,02	972,00
-2865,17	792,00
-2854,33	910,00
-2843,50	951,00
-2832,70	968,00
-2821,90	909,00
-2811,13	1043,00
-2800,37	859,00
-2789,62	748,00
-2778,89	940,00
-2768,18	923,00
-2757,48	935,00
-2746,80	998,00
-2736,13	898,00
-2725,48	1012,00
-2714,84	812,00
-2704,22	881,00
-2693,61	960,00
-2683,02	886,00
-2672,45	1012,00
-2661,89	916,00
-2651,34	960,00
-2640,81	976,00
-2630,30	1056,00
-2619,80	852,00
-2609,31	997,00
-2598,84	859,00
-2588,39	912,00
-2577,95	779,00
-2567,52	814,00
-2557,11	904,00
-2546,71	967,00
-2536,33	1024,00
-2525,97	916,00
-2515,62	935,00
-2505,28	945,00
-2494,96	885,00
-2484,65	1015,00
-2474,36	1258,00
-2464,08	853,00
-2453,82	1044,00
-2443,57	917,00
-2433,33	776,00
-2423,11	942,00
-2412,91	950,00
-2402,72	821,00
-2392,54	870,00
-2382,38	868,00
-2372,23	1022,00
-2362,09	1931,00
-2351,97	883,00
-2341,87	870,00
-2331,78	1024,00
-2321,70	961,00
-2311,64	907,00
-2301,59	927,00
-2291,55	851,00
-2281,53	978,00
-2271,53	785,00
-2261,53	975,00
-2251,55	894,00
-2241,59	955,00
-2231,64	835,00
-2221,70	954,00
-2211,78	892,00
-2201,87	917,00
-2191,97	952,00
-2182,09	922,00
-2172,22	933,00
-2162,37	890,00
-2152,53	822,00
-2142,70	849,00
-2132,89	950,00
-2123,09	957,00
-2113,30	929,00
-2103,53	861,00
-2093,77	877,00
-2084,02	914,00
-2074,29	946,00
-2064,57	927,00
-2054,86	950,00
-2045,17	1019,00
-2035,49	943,00
-2025,82	848,00
-2016,17	973,00
-2006,53	888,00
-1996,91	974,00
-1987,29	887,00
-1977,69	949,00
-1968,11	800,00
-1958,53	837,00
-1948,97	895,00
-1939,42	874,00
-1929,89	918,00
-1920,37	931,00
-1910,86	834,00
-1901,36	915,00
-1891,88	933,00
-1882,41	898,00
-1872,95	1020,00
-1863,51	960,00
-1854,08	990,00
-1844,66	1019,00
-1835,26	957,00
-1825,86	995,00
-1816,48	889,00
-1807,11	957,00
-1797,76	962,00
-1788,42	1018,00
-1779,09	961,00
-1769,77	923,00
-1760,47	1030,00
-1751,17	851,00
-1741,89	880,00
-1732,63	1016,00
-1723,37	1158,00
-1714,13	1036,00
-1704,90	920,00
-1695,68	1088,00
-1686,48	875,00
-1677,29	916,00
-1668,11	1133,00
-1658,94	875,00
-1649,78	960,00
-1640,64	963,00
-1631,51	884,00
-1622,39	1035,00
-1613,28	964,00
-1604,19	1069,00
-1595,10	920,00
-1586,03	875,00
-1576,97	959,00
-1567,93	894,00
-1558,89	911,00
-1549,87	1052,00
-1540,86	863,00
-1531,86	904,00
-1522,87	858,00
-1513,90	1042,00
-1504,93	1011,00
-1495,98	1017,00
-1487,04	1072,00
-1478,12	882,00
-1469,20	987,00
-1460,30	868,00
-1451,40	1089,00
-1442,52	930,00
-1433,65	1006,00
-1424,80	962,00
-1415,95	837,00
-1407,12	1073,00
-1398,30	912,00
-1389,48	1002,00
-1380,69	875,00
-1371,90	927,00
-1363,12	912,00
-1354,36	1062,00
-1345,60	864,00
-1336,86	984,00
-1328,13	1140,00
-1319,41	941,00
-1310,70	910,00
-1302,01	893,00
-1293,32	876,00
-1284,65	893,00
-1275,99	1058,00
-1267,33	1120,00
-1258,69	1070,00
-1250,06	801,00
-1241,45	934,00
-1232,84	1140,00
-1224,25	1023,00
-1215,66	1020,00
-1207,09	914,00
-1198,53	962,00
-1189,97	970,00
-1181,43	859,00
-1172,91	951,00
-1164,39	1033,00
-1155,88	831,00
-1147,38	789,00
-1138,90	860,00
-1130,43	853,00
-1121,96	908,00
-1113,51	879,00
-1105,07	976,00
-1096,64	988,00
-1088,22	891,00
-1079,81	996,00
-1071,41	1026,00
-1063,02	867,00
-1054,65	1005,00
-1046,28	924,00
-1037,92	963,00
-1029,58	940,00
-1021,24	965,00
-1012,92	1154,00
-1004,61	905,00
-996,30	1180,00
-988,01	793,00
-979,73	925,00
-971,46	987,00
-963,20	894,00
-954,95	786,00
-946,71	892,00
-938,48	997,00
-930,26	1040,00
-922,06	931,00
-913,86	855,00
-905,67	894,00
-897,49	963,00
-889,33	830,00
-881,17	1004,00
-873,02	975,00
-864,89	852,00
-856,76	849,00
-848,65	1031,00
-840,54	973,00
-832,45	1000,00
-824,36	782,00
-816,29	972,00
-808,22	957,00
-800,17	880,00
-792,12	896,00
-784,09	969,00
-776,06	885,00
-768,05	917,00
-760,04	922,00
-752,05	908,00
-744,07	969,00
-736,09	965,00
-728,13	744,00
-720,17	854,00
-712,23	909,00
-704,29	846,00
-696,37	907,00
-688,45	1033,00
-680,55	838,00
-672,65	913,00
-664,77	939,00
-656,89	904,00
-649,03	953,00
-641,17	1043,00
-633,32	879,00
-625,49	972,00
-617,66	909,00
-609,84	1016,00
-602,03	859,00
-594,23	945,00
-586,45	984,00
-578,67	920,00
-570,90	911,00
-563,14	843,00
-555,39	928,00
-547,65	943,00
-539,91	980,00
-532,19	895,00
-524,48	1019,00
-516,78	909,00
-509,08	969,00
-501,40	862,00
-493,72	855,00
-486,06	898,00
-478,40	1057,00
-470,76	933,00
-463,12	868,00
-455,49	952,00
-447,87	850,00
-440,26	874,00
-432,66	852,00
-425,07	1020,00
-417,49	1088,00
-409,92	724,00
-402,35	845,00
-394,80	802,00
-387,25	1008,00
-379,72	954,00
-372,19	957,00
-364,67	990,00
-357,17	879,00
-349,67	1016,00
-342,18	925,00
-334,69	928,00
-327,22	921,00
-319,76	998,00
-312,30	926,00
-304,86	882,00
-297,42	860,00
-290,00	976,00
-282,58	916,00
-275,17	951,00
-267,77	1042,00
-260,37	1024,00
-252,99	1131,00
-245,62	983,00
-238,25	992,00
-230,90	850,00
-223,55	982,00
-216,21	981,00
-208,88	1115,00
-201,56	917,00
-194,25	1073,00
-186,94	1067,00
-179,65	1058,00
-172,36	1191,00
-165,08	1213,00
-157,81	1175,00
-150,55	1204,00
-143,30	1262,00
-136,06	1221,00
-128,82	1280,00
-121,60	1269,00
-114,38	1462,00
-107,17	1603,00
-99,97	1759,00
-92,78	1745,00
-85,60	1778,00
-78,42	2049,00
-71,25	2130,00
-64,10	2328,00
-56,95	2604,00
-49,81	2857,00
-42,67	3522,00
-35,55	4052,00
-28,43	5136,00
-21,33	8060,00
-14,23	24558,00
-7,14	57498,00
-0,05	57284,00
7,02	57012,00
14,09	57319,00
21,14	20836,00
28,19	9125,00
35,23	6186,00
42,27	5139,00
49,29	4150,00
56,31	3699,00
63,32	3355,00
70,32	2808,00
77,31	2530,00
84,29	2252,00
91,27	2221,00
98,23	2188,00
105,19	2016,00
112,14	2192,00
119,09	2947,00
126,02	4151,00
132,95	4609,00
139,87	4714,00
146,78	4928,00
153,68	4741,00
160,58	4573,00
167,46	4352,00
174,34	4553,00
181,21	4486,00
188,08	4384,00
194,93	4535,00
201,78	4432,00
208,62	4479,00
215,45	4560,00
222,27	4432,00
229,09	4528,00
235,90	4302,00
242,70	4262,00
249,49	4305,00
256,27	4143,00
263,05	3951,00
269,82	4030,00
276,58	4065,00
283,33	3939,00
290,08	3863,00
296,82	3800,00
303,55	3723,00
310,27	3670,00
316,98	3691,00
323,69	3646,00
330,39	3614,00
337,08	3627,00
343,76	3797,00
350,44	3639,00
357,11	3669,00
363,77	3573,00
370,42	3553,00
377,07	3509,00
383,71	3649,00
390,34	3520,00
396,96	3593,00
403,58	3533,00
410,19	3754,00
416,79	3905,00
423,38	3899,00
429,97	3864,00
436,55	3811,00
443,12	4002,00
449,68	3933,00
456,24	3832,00
462,79	3667,00
469,33	3617,00
475,86	3373,00
482,39	3234,00
488,91	3325,00
495,42	3141,00
501,93	3195,00
508,42	3076,00
514,91	3175,00
521,40	3144,00
527,87	3113,00
534,34	2956,00
540,80	3013,00
547,25	3053,00
553,70	3055,00
560,14	3006,00
566,57	2989,00
573,00	3018,00
579,41	3054,00
585,83	3170,00
592,23	3215,00
598,62	3298,00
605,01	3249,00
611,40	3471,00
617,77	3529,00
624,14	3314,00
630,50	3035,00
636,85	3080,00
643,20	2976,00
649,54	2789,00
655,87	2842,00
662,20	2824,00
668,52	2822,00
674,83	2906,00
681,13	2625,00
687,43	2798,00
693,72	2711,00
700,00	2574,00
706,28	2684,00
712,55	2671,00
718,81	2821,00
725,07	2625,00
731,32	2677,00
737,56	2786,00
743,79	2682,00
750,02	2756,00
756,24	2526,00
762,46	2585,00
768,67	2859,00
774,87	2581,00
781,06	2458,00
787,25	2569,00
793,43	2665,00
799,60	2465,00
805,77	2727,00
811,93	2602,00
818,08	2659,00
824,23	2525,00
830,37	2775,00
836,50	2616,00
842,63	2641,00
848,75	2656,00
854,87	2612,00
860,97	2717,00
867,07	2667,00
873,17	2613,00
879,25	2739,00
885,33	2647,00
891,41	2700,00
897,47	2718,00
903,53	2564,00
909,59	2663,00
915,63	2543,00
921,67	2503,00
927,71	2550,00
933,74	2556,00
939,76	2389,00
945,77	2412,00
951,78	2548,00
957,78	2337,00
963,78	2477,00
969,77	2489,00
975,75	2407,00
981,72	2381,00
987,69	3715,00
993,66	2497,00
999,61	2570,00
1005,56	2540,00
1011,51	2509,00
1017,44	2437,00
1023,37	2494,00
1029,30	2426,00
1035,22	2575,00
1041,13	2567,00
1047,03	2842,00
1052,93	3307,00
1058,83	4769,00
1064,71	5215,00
1070,59	4319,00
1076,47	3485,00
1082,33	3217,00
1088,20	3151,00
1094,05	2927,00
1099,90	2730,00
1105,74	2656,00
1111,58	2795,00
1117,41	3012,00
1123,23	4035,00
1129,05	4972,00
1134,86	4565,00
1140,67	3395,00
1146,47	2857,00
1152,26	2625,00
1158,05	2496,00
1163,83	2695,00
1169,60	2863,00
1175,37	2718,00
1181,13	2547,00
1186,89	2411,00
1192,64	2277,00
1198,38	2527,00
1204,12	2313,00
1209,85	2331,00
1215,58	2390,00
1221,30	2410,00
1227,02	2370,00
1232,72	2312,00
1238,43	2349,00
1244,12	2347,00
1249,81	2371,00
1255,50	2492,00
1261,17	2360,00
1266,85	2480,00
1272,51	2616,00
1278,17	2793,00
1283,83	3017,00
1289,47	4631,00
1295,12	6286,00
1300,75	5541,00
1306,38	4214,00
1312,01	3301,00
1317,63	2942,00
1323,24	2697,00
1328,85	2623,00
1334,45	2503,00
1340,04	2478,00
1345,63	2427,00
1351,22	2686,00
1356,80	2470,00
1362,37	2566,00
1367,93	2572,00
1373,49	2719,00
1379,05	2528,00
1384,60	2482,00
1390,14	2453,00
1395,68	2450,00
1401,21	2595,00
1406,74	2781,00
1412,26	3381,00
1417,77	4092,00
1423,28	3836,00
1428,78	4266,00
1434,28	5252,00
1439,77	6158,00
1445,26	6054,00
1450,74	5615,00
1456,22	5134,00
1461,68	4959,00
1467,15	4594,00
1472,61	3913,00
1478,06	3540,00
1483,51	3088,00
1488,95	2605,00
1494,38	2600,00
1499,81	2256,00
1505,24	2348,00
1510,65	2335,00
1516,07	2252,00
1521,48	2174,00
1526,88	2093,00
1532,27	2150,00
1537,67	2138,00
1543,05	2215,00
1548,43	2033,00
1553,81	2184,00
1559,18	1898,00
1564,54	2004,00
1569,90	2017,00
1575,25	1947,00
1580,60	1860,00
1585,94	1994,00
1591,28	1962,00
1596,61	1930,00
1601,93	1947,00
1607,25	2079,00
1612,57	1919,00
1617,88	1947,00
1623,18	1931,00
1628,48	1892,00
1633,77	1885,00
1639,06	1950,00
1644,34	1859,00
1649,62	1799,00
1654,89	1891,00
1660,16	1793,00
1665,42	1970,00
1670,67	1854,00
1675,92	1776,00
1681,17	1797,00
1686,41	1909,00
1691,64	1924,00
1696,87	1812,00
1702,10	1828,00
1707,32	1773,00
1712,53	1756,00
1717,74	1790,00
1722,94	1887,00
1728,14	1697,00
1733,33	1725,00
1738,52	1659,00
1743,70	1723,00
1748,88	1719,00
1754,05	1741,00
1759,22	1656,00
1764,38	986,00
1769,53	1754,00
1774,69	1773,00
1779,83	1635,00
1784,97	1703,00
1790,11	1727,00
1795,24	1648,00
1800,36	1644,00
1805,48	1647,00
1810,60	1704,00
1815,71	1609,00
1820,82	1473,00
1825,92	1718,00
1831,01	1584,00
1836,10	1574,00
1841,19	1657,00
1846,26	1461,00
1851,34	1604,00
1856,41	1559,00
1861,47	1599,00
1866,53	1668,00
1871,59	1594,00
1876,64	1577,00
1881,68	1634,00
1886,72	1547,00
1891,76	1482,00
1896,79	1598,00
1901,81	1484,00
1906,83	1501,00
1911,85	1507,00
1916,86	1582,00
1921,86	1523,00
1926,86	1401,00
1931,86	1552,00
1936,85	1467,00
1941,83	1450,00
1946,81	1464,00
1951,79	1448,00
1956,76	1429,00
1961,72	1367,00
1966,68	1465,00
1971,64	1346,00
1976,59	1497,00
1981,54	1420,00
1986,48	1539,00
1991,42	1309,00
1996,35	1694,00
2001,27	1489,00
2006,20	1324,00
2011,11	1504,00
2016,03	1430,00
2020,93	1200,00
2025,84	1447,00
2030,73	1385,00
2035,63	1323,00
2040,52	1373,00
2045,40	1364,00
2050,28	1322,00
2055,15	1419,00
2060,02	1330,00
2064,89	1468,00
2069,75	1431,00
2074,60	1387,00
2079,46	1219,00
2084,30	1313,00
2089,14	1231,00
2093,98	1427,00
2098,81	1388,00
2103,64	1323,00
2108,46	1319,00
2113,28	1447,00
2118,09	1419,00
2122,90	1376,00
2127,70	1310,00
2132,50	1455,00
2137,30	1329,00
2142,09	1233,00
2146,87	1250,00
2151,66	1371,00
2156,43	1341,00
2161,20	1323,00
2165,97	1419,00
2170,73	1318,00
2175,49	1464,00
2180,24	1387,00
2184,99	1535,00
2189,74	1573,00
2194,48	1390,00
2199,21	1489,00
2203,94	1356,00
2208,67	1288,00
2213,39	1182,00
2218,11	1321,00
2222,82	1219,00
2227,53	1297,00
2232,23	1400,00
2236,93	1344,00
2241,63	1269,00
2246,32	1351,00
2251,00	1359,00
2255,68	1399,00
2260,36	1283,00
2265,03	1345,00
2269,70	1446,00
2274,36	1261,00
2279,02	1322,00
2283,68	1257,00
2288,33	1322,00
2292,97	1360,00
2297,61	1305,00
2302,25	1354,00
2306,88	1293,00
2311,51	1082,00
2316,14	1234,00
2320,75	1166,00
2325,37	1200,00
2329,98	1283,00
2334,59	1275,00
2339,19	1082,00
2343,79	1165,00
2348,38	1259,00
2352,97	1152,00
2357,55	1254,00
2362,13	1237,00
2366,71	1182,00
2371,28	1308,00
2375,85	1289,00
2380,41	1253,00
2384,97	1126,00
2389,52	1286,00
2394,07	1309,00
2398,62	1234,00
2403,16	1280,00
2407,70	1076,00
2412,23	1206,00
2416,76	1231,00
2421,29	1287,00
2425,81	1358,00
2430,32	1305,00
2434,84	1130,00
2439,34	1140,00
2443,85	1388,00
2448,35	1208,00
2452,84	1144,00
2457,33	1162,00
2461,82	1128,00
2466,30	1096,00
2470,78	1195,00
2475,25	1163,00
2479,72	1181,00
2484,19	1274,00
2488,65	1230,00
2493,11	1143,00
2497,56	1258,00
2502,01	1081,00
2506,46	1233,00
2510,90	1089,00
2515,34	1183,00
2519,77	1199,00
2524,20	1177,00
2528,62	1227,00
2533,04	1262,00
2537,46	1202,00
2541,87	1199,00
2546,28	1199,00
2550,68	1258,00
2555,08	1211,00
2559,48	1148,00
2563,87	1106,00
2568,26	1128,00
2572,64	1212,00
2577,02	1317,00
2581,40	1045,00
2585,77	1368,00
2590,14	1184,00
2594,50	1136,00
2598,86	1237,00
2603,22	1205,00
2607,57	1195,00
2611,92	1322,00
2616,26	1220,00
2620,60	1380,00
2624,94	1188,00
2629,27	1306,00
2633,60	1193,00
2637,92	1338,00
2642,24	1343,00
2646,56	1251,00
2650,87	1209,00
2655,18	1338,00
2659,48	1210,00
2663,78	1195,00
2668,08	1264,00
2672,37	1377,00
2676,66	1238,00
2680,95	1220,00
2685,23	1392,00
2689,50	1251,00
2693,78	1326,00
2698,05	1255,00
2702,31	1378,00
2706,57	1516,00
2710,83	1554,00
2715,08	1649,00
2719,33	1657,00
2723,58	1513,00
2727,82	1631,00
2732,06	1550,00
2736,29	1543,00
2740,53	1453,00
2744,75	1465,00
2748,97	1363,00
2753,19	1358,00
2757,41	1479,00
2761,62	1399,00
2765,83	1415,00
2770,03	1371,00
2774,23	1415,00
2778,43	1308,00
2782,62	1515,00
2786,81	1505,00
2791,00	1527,00
2795,18	1538,00
2799,35	1569,00
2803,53	1658,00
2807,70	1652,00
2811,86	1629,00
2816,03	1868,00
2820,19	1840,00
2824,34	1919,00
2828,49	2081,00
2832,64	2348,00
2836,78	2743,00
2840,92	3265,00
2845,06	3940,00
2849,19	4396,00
2853,32	4446,00
2857,45	4419,00
2861,57	4397,00
2865,69	4199,00
2869,80	4130,00
2873,91	4326,00
2878,02	4821,00
2882,12	5198,00
2886,22	5272,00
2890,32	4906,00
2894,41	4522,00
2898,50	4097,00
2902,58	3863,00
2906,67	3667,00
2910,74	3475,00
2914,82	3069,00
2918,89	3067,00
2922,96	2786,00
2927,02	2679,00
2931,08	2517,00
2935,13	2294,00
2939,19	2224,00
2943,24	2133,00
2947,28	2145,00
2951,32	1781,00
2955,36	1686,00
2959,40	1796,00
2963,43	1577,00
2967,46	1480,00
2971,48	1506,00
2975,50	1410,00
2979,52	1448,00
2983,53	1467,00
2987,54	1361,00
2991,55	1337,00
2995,55	1252,00
2999,55	1238,00
3003,54	1208,00
3007,54	1318,00
3011,53	1212,00
3015,51	1209,00
3019,49	1280,00
3023,47	1148,00
3027,45	1220,00
3031,42	1114,00
3035,39	1017,00
3039,35	1078,00
3043,31	1163,00
3047,27	1112,00
3051,22	1154,00
3055,17	951,00
3059,12	1053,00
3063,06	1087,00
3067,00	967,00
3070,94	977,00
3074,87	1150,00
3078,80	1060,00
3082,73	1061,00
3086,65	978,00
3090,57	1077,00
3094,49	1036,00
3098,40	1007,00
3102,31	990,00
3106,22	1048,00
3110,12	974,00
3114,02	993,00
3117,92	1062,00
3121,81	1031,00
3125,70	1043,00
3129,58	948,00
3133,47	833,00
3137,34	1060,00
3141,22	996,00
3145,09	1062,00
3148,96	1027,00
3152,83	974,00
3156,69	1064,00
3160,55	997,00
3164,40	1047,00
3168,26	1041,00
3172,10	1036,00
3175,95	992,00
3179,79	1068,00
3183,63	1056,00
3187,47	925,00
3191,30	1052,00
3195,13	967,00
3198,95	909,00
3202,78	962,00
3206,60	896,00
3210,41	845,00
3214,23	854,00
3218,03	1014,00
3221,84	894,00
3225,64	905,00
3229,44	814,00
3233,24	1073,00
3237,03	931,00
3240,82	895,00
3244,61	956,00
3248,39	947,00
3252,17	964,00
3255,95	1041,00
3259,72	995,00
3263,49	1101,00
3267,26	819,00
3271,03	875,00
3274,79	908,00
3278,54	942,00
3282,30	823,00
3286,05	940,00
3289,80	996,00
3293,54	919,00
3297,29	961,00
3301,02	971,00
3304,76	943,00
3308,49	933,00
3312,22	832,00
3315,95	924,00
3319,67	932,00
3323,39	1054,00
3327,10	961,00
3330,82	961,00
3334,53	947,00
3338,24	915,00
3341,94	894,00
3345,64	998,00
3349,34	968,00
3353,03	934,00
3356,72	921,00
3360,41	968,00
3364,10	928,00
3367,78	933,00
3371,46	923,00
3375,13	894,00
3378,81	979,00
3382,48	859,00
3386,14	984,00
3389,81	924,00
3393,47	943,00
3397,12	1069,00
3400,78	995,00
3404,43	853,00
3408,08	972,00
3411,72	877,00
3415,36	878,00
3419,00	1008,00
3422,64	944,00
3426,27	935,00
3429,90	858,00
3433,53	890,00
3437,15	879,00
3440,77	839,00
3444,39	898,00
3448,00	925,00
3451,62	924,00
3455,22	921,00
3458,83	833,00
3462,43	863,00
3466,03	974,00
3469,63	866,00
3473,22	897,00
3476,81	824,00
3480,40	1056,00
3483,99	846,00
3487,57	920,00
3491,15	913,00
3494,72	885,00
3498,29	912,00
3501,86	759,00
3505,43	898,00
3508,99	856,00
3512,56	740,00
3516,11	979,00
3519,67	856,00
3523,22	982,00
3526,77	819,00
3530,32	1107,00
3533,86	980,00
3537,40	1039,00
3540,94	931,00
3544,47	880,00
3548,00	885,00
3551,53	957,00
3555,06	851,00
3558,58	936,00
3562,10	965,00
3565,62	851,00
3569,13	844,00
3572,64	937,00
3576,15	808,00
3579,66	839,00
3583,16	929,00
3586,66	890,00
3590,16	891,00
3593,65	846,00
3597,14	783,00
3600,63	859,00
3604,11	916,00
3607,60	840,00
3611,08	924,00
3614,55	871,00
3618,03	803,00
3621,50	843,00
3624,97	852,00
3628,43	914,00
3631,90	859,00
3635,36	704,00
3638,81	873,00
3642,27	782,00
3645,72	833,00
3649,17	752,00
3652,61	838,00
3656,06	762,00
3659,50	830,00
3662,93	870,00
3666,37	913,00
3669,80	1074,00
3673,23	901,00
3676,65	846,00
3680,08	915,00
3683,50	775,00
3686,92	869,00
3690,33	748,00
3693,74	764,00
3697,15	787,00
3700,56	905,00
3703,96	886,00
3707,36	711,00
3710,76	758,00
3714,16	798,00
3717,55	752,00
3720,94	927,00
3724,33	747,00
3727,71	843,00
3731,10	819,00
3734,48	785,00
3737,85	772,00
3741,23	862,00
3744,60	717,00
3747,97	656,00
3751,33	893,00
3754,69	813,00
3758,05	790,00
3761,41	657,00
3764,77	675,00
3768,12	746,00
3771,47	643,00
3774,82	766,00
3778,16	-8,00
3781,50	11,00
3784,84	6,00
3788,18	16,00
>>>>>End Processed Spectral Data<<<<<
