SpectraSuite Data File
++++++++++++++++++++++++++++++++++++
Date: Mon Jan 05 16:33:25 ICT 2026
User: Administrator
Dark Spectrum Present: Yes
Reference Spectrum Present: No
Number of Sampled Component Spectra: 1
Spectrometers: MAYP113682
Integration Time (usec): 3000000 (MAYP113682)
Spectra Averaged: 1 (MAYP113682)
Boxcar Smoothing: 0 (MAYP113682)
Correct for Electrical Dark: No (MAYP113682)
Strobe/Lamp Enabled: No (MAYP113682)
Correct for Detector Non-linearity: No (MAYP113682)
Correct for Stray Light: No (MAYP113682)
Number of Pixels in Processed Spectrum: 2068
>>>>>Begin Processed Spectral Data<<<<<
-37534,58	24,00
-37414,56	7,00
-37295,11	5,00
-37176,24	10,00
-37057,95	606,00
-36940,22	628,00
-36823,05	672,00
-36706,45	803,00
-36590,40	850,00
-36474,90	682,00
-36359,95	816,00
-36245,55	801,00
-36131,68	744,00
-36018,35	808,00
-35905,55	797,00
-35793,29	870,00
-35681,54	706,00
-35570,32	774,00
-35459,62	819,00
-35349,43	853,00
-35239,75	877,00
-35130,58	727,00
-35021,91	821,00
-34913,74	809,00
-34806,07	768,00
-34698,89	953,00
-34592,20	843,00
-34486,00	803,00
-34380,28	853,00
-34275,04	742,00
-34170,27	678,00
-34065,98	945,00
-33962,16	804,00
-33858,81	926,00
-33755,92	827,00
-33653,49	925,00
-33551,52	934,00
-33450,01	861,00
-33348,94	852,00
-33248,33	921,00
-33148,16	784,00
-33048,43	849,00
-32949,14	1023,00
-32850,29	1011,00
-32751,87	830,00
-32653,89	963,00
-32556,33	933,00
-32459,20	907,00
-32362,49	925,00
-32266,19	853,00
-32170,32	808,00
-32074,86	848,00
-31979,82	865,00
-31885,18	999,00
-31790,95	951,00
-31697,12	1001,00
-31603,69	937,00
-31510,67	905,00
-31418,04	937,00
-31325,80	893,00
-31233,95	870,00
-31142,49	950,00
-31051,42	858,00
-30960,73	1037,00
-30870,43	1040,00
-30780,50	925,00
-30690,95	900,00
-30601,77	988,00
-30512,97	855,00
-30424,53	940,00
-30336,46	825,00
-30248,76	875,00
-30161,42	919,00
-30074,44	841,00
-29987,81	995,00
-29901,55	948,00
-29815,63	925,00
-29730,07	910,00
-29644,86	1006,00
-29560,00	853,00
-29475,48	945,00
-29391,30	904,00
-29307,47	896,00
-29223,97	874,00
-29140,81	924,00
-29057,99	1040,00
-28975,50	804,00
-28893,34	999,00
-28811,51	785,00
-28730,00	952,00
-28648,82	898,00
-28567,97	922,00
-28487,43	840,00
-28407,21	930,00
-28327,32	841,00
-28247,73	1135,00
-28168,46	850,00
-28089,50	927,00
-28010,85	813,00
-27932,51	836,00
-27854,48	898,00
-27776,75	802,00
-27699,32	804,00
-27622,19	909,00
-27545,37	978,00
-27468,84	869,00
-27392,60	981,00
-27316,66	938,00
-27241,01	855,00
-27165,66	892,00
-27090,59	836,00
-27015,81	985,00
-26941,31	1010,00
-26867,10	854,00
-26793,17	975,00
-26719,52	937,00
-26646,15	734,00
-26573,06	851,00
-26500,24	776,00
-26427,70	913,00
-26355,43	863,00
-26283,43	878,00
-26211,71	924,00
-26140,25	898,00
-26069,06	960,00
-25998,13	758,00
-25927,46	843,00
-25857,06	829,00
-25786,92	892,00
-25717,04	772,00
-25647,42	971,00
-25578,05	855,00
-25508,94	906,00
-25440,09	807,00
-25371,48	927,00
-25303,13	1016,00
-25235,02	888,00
-25167,17	905,00
-25099,56	940,00
-25032,19	941,00
-24965,07	793,00
-24898,20	801,00
-24831,56	826,00
-24765,17	914,00
-24699,01	918,00
-24633,10	913,00
-24567,41	947,00
-24501,97	832,00
-24436,75	866,00
-24371,77	861,00
-24307,03	810,00
-24242,51	842,00
-24178,22	830,00
-24114,16	820,00
-24050,32	1007,00
-23986,71	871,00
-23923,32	845,00
-23860,16	862,00
-23797,22	880,00
-23734,50	865,00
-23672,00	852,00
-23609,71	909,00
-23547,65	781,00
-23485,80	961,00
-23424,16	709,00
-23362,74	982,00
-23301,53	871,00
-23240,54	732,00
-23179,75	795,00
-23119,17	825,00
-23058,80	870,00
-22998,64	872,00
-22938,68	878,00
-22878,93	890,00
-22819,39	762,00
-22760,04	843,00
-22700,90	805,00
-22641,96	839,00
-22583,22	864,00
-22524,68	840,00
-22466,33	850,00
-22408,19	894,00
-22350,23	896,00
-22292,48	830,00
-22234,92	911,00
-22177,55	976,00
-22120,37	998,00
-22063,38	796,00
-22006,58	765,00
-21949,98	855,00
-21893,56	773,00
-21837,33	808,00
-21781,28	913,00
-21725,42	927,00
-21669,74	945,00
-21614,25	858,00
-21558,94	925,00
-21503,81	924,00
-21448,86	972,00
-21394,10	776,00
-21339,51	805,00
-21285,10	725,00
-21230,86	836,00
-21176,81	812,00
-21122,93	819,00
-21069,22	812,00
-21015,69	812,00
-20962,33	886,00
-20909,14	848,00
-20856,13	851,00
-20803,28	847,00
-20750,61	800,00
-20698,10	725,00
-20645,76	867,00
-20593,59	1055,00
-20541,59	931,00
-20489,75	929,00
-20438,07	715,00
-20386,56	968,00
-20335,22	790,00
-20284,03	791,00
-20233,01	802,00
-20182,15	799,00
-20131,45	880,00
-20080,91	772,00
-20030,52	876,00
-19980,30	833,00
-19930,23	755,00
-19880,32	944,00
-19830,56	834,00
-19780,96	845,00
-19731,52	881,00
-19682,23	814,00
-19633,09	805,00
-19584,10	781,00
-19535,26	857,00
-19486,58	1043,00
-19438,04	818,00
-19389,66	950,00
-19341,42	781,00
-19293,33	807,00
-19245,39	850,00
-19197,60	904,00
-19149,95	883,00
-19102,45	948,00
-19055,09	850,00
-19007,87	866,00
-18960,80	865,00
-18913,87	881,00
-18867,09	841,00
-18820,44	987,00
-18773,94	873,00
-18727,57	872,00
-18681,35	748,00
-18635,26	807,00
-18589,31	785,00
-18543,50	835,00
-18497,83	753,00
-18452,29	867,00
-18406,89	775,00
-18361,63	951,00
-18316,50	914,00
-18271,50	857,00
-18226,63	1032,00
-18181,90	890,00
-18137,30	1022,00
-18092,84	857,00
-18048,50	944,00
-18004,29	851,00
-17960,22	737,00
-17916,27	827,00
-17872,45	868,00
-17828,76	948,00
-17785,20	773,00
-17741,77	915,00
-17698,46	913,00
-17655,28	803,00
-17612,22	851,00
-17569,29	892,00
-17526,48	860,00
-17483,79	941,00
-17441,23	780,00
-17398,79	874,00
-17356,48	772,00
-17314,28	1102,00
-17272,21	843,00
-17230,26	891,00
-17188,42	830,00
-17146,71	850,00
-17105,12	793,00
-17063,64	850,00
-17022,28	895,00
-16981,04	791,00
-16939,92	961,00
-16898,91	984,00
-16858,02	789,00
-16817,25	906,00
-16776,59	877,00
-16736,04	761,00
-16695,61	852,00
-16655,29	817,00
-16615,09	834,00
-16574,99	880,00
-16535,01	875,00
-16495,15	938,00
-16455,39	884,00
-16415,74	835,00
-16376,21	757,00
-16336,78	864,00
-16297,46	767,00
-16258,26	755,00
-16219,16	763,00
-16180,17	854,00
-16141,28	982,00
-16102,51	921,00
-16063,84	829,00
-16025,27	823,00
-15986,82	849,00
-15948,46	821,00
-15910,22	826,00
-15872,07	808,00
-15834,04	875,00
-15796,10	792,00
-15758,27	982,00
-15720,54	840,00
-15682,91	848,00
-15645,39	1007,00
-15607,97	965,00
-15570,64	743,00
-15533,42	957,00
-15496,30	827,00
-15459,28	918,00
-15422,36	767,00
-15385,54	846,00
-15348,82	872,00
-15312,19	952,00
-15275,66	849,00
-15239,23	875,00
-15202,90	788,00
-15166,67	914,00
-15130,53	965,00
-15094,48	892,00
-15058,54	827,00
-15022,68	846,00
-14986,93	799,00
-14951,26	922,00
-14915,69	966,00
-14880,22	848,00
-14844,84	812,00
-14809,55	878,00
-14774,35	915,00
-14739,25	885,00
-14704,24	896,00
-14669,32	853,00
-14634,49	859,00
-14599,75	903,00
-14565,10	886,00
-14530,55	905,00
-14496,08	810,00
-14461,70	904,00
-14427,41	832,00
-14393,21	720,00
-14359,10	810,00
-14325,07	887,00
-14291,14	857,00
-14257,29	924,00
-14223,52	874,00
-14189,85	1011,00
-14156,26	832,00
-14122,76	779,00
-14089,34	811,00
-14056,01	887,00
-14022,76	762,00
-13989,60	874,00
-13956,52	949,00
-13923,53	839,00
-13890,62	767,00
-13857,79	858,00
-13825,05	761,00
-13792,39	791,00
-13759,81	875,00
-13727,31	835,00
-13694,90	910,00
-13662,57	974,00
-13630,31	864,00
-13598,14	874,00
-13566,05	793,00
-13534,05	849,00
-13502,12	875,00
-13470,27	856,00
-13438,50	911,00
-13406,80	783,00
-13375,19	785,00
-13343,66	894,00
-13312,20	910,00
-13280,83	903,00
-13249,53	848,00
-13218,30	711,00
-13187,16	838,00
-13156,09	1016,00
-13125,10	980,00
-13094,18	925,00
-13063,34	929,00
-13032,58	819,00
-13001,89	873,00
-12971,28	902,00
-12940,74	800,00
-12910,27	907,00
-12879,88	912,00
-12849,57	963,00
-12819,33	966,00
-12789,16	948,00
-12759,06	830,00
-12729,04	776,00
-12699,09	2257,00
-12669,21	807,00
-12639,41	945,00
-12609,68	805,00
-12580,02	839,00
-12550,43	1001,00
-12520,91	829,00
-12491,46	822,00
-12462,08	813,00
-12432,77	869,00
-12403,54	847,00
-12374,37	874,00
-12345,27	897,00
-12316,24	845,00
-12287,29	845,00
-12258,40	726,00
-12229,57	951,00
-12200,82	779,00
-12172,14	886,00
-12143,52	680,00
-12114,97	803,00
-12086,49	884,00
-12058,07	881,00
-12029,73	843,00
-12001,44	923,00
-11973,23	926,00
-11945,08	856,00
-11917,00	914,00
-11888,98	762,00
-11861,03	1029,00
-11833,15	884,00
-11805,32	916,00
-11777,57	868,00
-11749,88	900,00
-11722,25	803,00
-11694,69	867,00
-11667,19	844,00
-11639,75	1036,00
-11612,38	762,00
-11585,07	826,00
-11557,83	855,00
-11530,65	944,00
-11503,53	811,00
-11476,47	887,00
-11449,48	846,00
-11422,54	1033,00
-11395,67	868,00
-11368,86	959,00
-11342,11	819,00
-11315,43	823,00
-11288,80	814,00
-11262,23	912,00
-11235,73	859,00
-11209,28	1059,00
-11182,90	845,00
-11156,57	861,00
-11130,31	1021,00
-11104,10	828,00
-11077,96	875,00
-11051,87	801,00
-11025,84	849,00
-10999,87	878,00
-10973,96	905,00
-10948,11	776,00
-10922,31	924,00
-10896,58	870,00
-10870,90	1035,00
-10845,28	839,00
-10819,71	831,00
-10794,20	935,00
-10768,75	941,00
-10743,36	857,00
-10718,02	781,00
-10692,74	813,00
-10667,52	845,00
-10642,35	889,00
-10617,24	922,00
-10592,18	942,00
-10567,18	883,00
-10542,23	880,00
-10517,34	828,00
-10492,51	988,00
-10467,72	822,00
-10443,00	907,00
-10418,32	945,00
-10393,70	945,00
-10369,14	892,00
-10344,63	815,00
-10320,17	872,00
-10295,77	923,00
-10271,42	866,00
-10247,12	851,00
-10222,88	956,00
-10198,68	874,00
-10174,54	950,00
-10150,46	989,00
-10126,42	1105,00
-10102,44	957,00
-10078,51	884,00
-10054,63	1057,00
-10030,80	1006,00
-10007,03	1100,00
-9983,30	1018,00
-9959,63	974,00
-9936,01	1170,00
-9912,44	1056,00
-9888,92	1004,00
-9865,44	926,00
-9842,02	1168,00
-9818,65	1126,00
-9795,33	839,00
-9772,06	924,00
-9748,84	971,00
-9725,67	1024,00
-9702,55	1124,00
-9679,47	1206,00
-9656,45	1285,00
-9633,47	1080,00
-9610,55	1216,00
-9587,67	1292,00
-9564,84	1508,00
-9542,06	1300,00
-9519,32	1492,00
-9496,64	1615,00
-9474,00	1485,00
-9451,41	1490,00
-9428,87	1482,00
-9406,37	1482,00
-9383,92	1210,00
-9361,52	1329,00
-9339,17	1543,00
-9316,86	1495,00
-9294,60	1758,00
-9272,38	1904,00
-9250,21	2208,00
-9228,09	2181,00
-9206,01	2100,00
-9183,98	1851,00
-9162,00	1655,00
-9140,06	1773,00
-9118,16	1724,00
-9096,31	1759,00
-9074,51	1872,00
-9052,75	1968,00
-9031,04	1992,00
-9009,37	1664,00
-8987,74	1612,00
-8966,16	1671,00
-8944,63	1387,00
-8923,14	1527,00
-8901,69	1378,00
-8880,29	1385,00
-8858,93	1662,00
-8837,61	1746,00
-8816,34	1863,00
-8795,11	1858,00
-8773,92	1657,00
-8752,78	1564,00
-8731,68	1494,00
-8710,62	1637,00
-8689,61	1458,00
-8668,63	1632,00
-8647,70	1820,00
-8626,82	1718,00
-8605,97	1815,00
-8585,17	1690,00
-8564,41	1554,00
-8543,69	1534,00
-8523,01	1315,00
-8502,37	1502,00
-8481,78	1478,00
-8461,23	1388,00
-8440,71	1587,00
-8420,24	1678,00
-8399,81	1831,00
-8379,42	1652,00
-8359,08	1685,00
-8338,77	1442,00
-8318,50	1361,00
-8298,27	1285,00
-8278,09	1553,00
-8257,94	1511,00
-8237,83	1641,00
-8217,76	1683,00
-8197,74	1734,00
-8177,75	1678,00
-8157,80	1556,00
-8137,89	1502,00
-8118,02	1369,00
-8098,19	1468,00
-8078,40	1465,00
-8058,65	1448,00
-8038,93	1602,00
-8019,26	1506,00
-7999,62	1560,00
-7980,02	1373,00
-7960,46	1272,00
-7940,94	1254,00
-7921,46	1251,00
-7902,01	1210,00
-7882,60	1417,00
-7863,23	1401,00
-7843,90	1264,00
-7824,61	1376,00
-7805,35	1569,00
-7786,13	1383,00
-7766,95	1457,00
-7747,80	1480,00
-7728,69	1441,00
-7709,62	1396,00
-7690,59	1382,00
-7671,59	1575,00
-7652,63	1407,00
-7633,70	1520,00
-7614,81	1425,00
-7595,96	1323,00
-7577,15	1364,00
-7558,37	1349,00
-7539,62	1317,00
-7520,91	1293,00
-7502,24	1372,00
-7483,60	1391,00
-7465,00	1312,00
-7446,44	1315,00
-7427,91	1137,00
-7409,41	1146,00
-7390,95	1171,00
-7372,53	987,00
-7354,14	1119,00
-7335,78	1181,00
-7317,46	1189,00
-7299,18	1140,00
-7280,92	1294,00
-7262,71	1511,00
-7244,52	1390,00
-7226,38	1355,00
-7208,26	1233,00
-7190,18	1331,00
-7172,14	1170,00
-7154,12	1233,00
-7136,15	1265,00
-7118,20	1373,00
-7100,29	1438,00
-7082,41	1386,00
-7064,57	1183,00
-7046,76	1264,00
-7028,98	1027,00
-7011,24	1220,00
-6993,53	966,00
-6975,85	1032,00
-6958,20	1011,00
-6940,59	921,00
-6923,01	876,00
-6905,46	1140,00
-6887,94	1011,00
-6870,46	1506,00
-6853,01	1224,00
-6835,59	1173,00
-6818,21	1074,00
-6800,85	1169,00
-6783,53	973,00
-6766,24	863,00
-6748,98	830,00
-6731,76	896,00
-6714,56	877,00
-6697,40	837,00
-6680,26	772,00
-6663,16	871,00
-6646,09	1102,00
-6629,05	1203,00
-6612,05	1120,00
-6595,07	984,00
-6578,13	1093,00
-6561,21	921,00
-6544,33	961,00
-6527,47	850,00
-6510,65	849,00
-6493,86	706,00
-6477,10	803,00
-6460,36	790,00
-6443,66	776,00
-6426,99	815,00
-6410,35	814,00
-6393,74	942,00
-6377,16	834,00
-6360,61	925,00
-6344,09	789,00
-6327,59	893,00
-6311,13	961,00
-6294,70	981,00
-6278,29	1009,00
-6261,92	965,00
-6245,58	1098,00
-6229,26	1083,00
-6212,97	1036,00
-6196,72	911,00
-6180,49	1039,00
-6164,29	725,00
-6148,12	901,00
-6131,98	954,00
-6115,86	738,00
-6099,78	727,00
-6083,72	734,00
-6067,69	696,00
-6051,69	921,00
-6035,72	818,00
-6019,78	840,00
-6003,87	929,00
-5987,98	822,00
-5972,12	954,00
-5956,29	951,00
-5940,49	878,00
-5924,71	1015,00
-5908,96	843,00
-5893,24	825,00
-5877,55	796,00
-5861,89	853,00
-5846,25	682,00
-5830,64	904,00
-5815,05	768,00
-5799,50	777,00
-5783,97	872,00
-5768,47	999,00
-5752,99	1057,00
-5737,55	836,00
-5722,12	938,00
-5706,73	898,00
-5691,36	960,00
-5676,02	850,00
-5660,71	825,00
-5645,42	850,00
-5630,16	873,00
-5614,92	1013,00
-5599,71	814,00
-5584,53	914,00
-5569,37	880,00
-5554,24	1086,00
-5539,14	881,00
-5524,06	906,00
-5509,01	781,00
-5493,98	810,00
-5478,98	917,00
-5464,00	709,00
-5449,05	830,00
-5434,13	788,00
-5419,23	784,00
-5404,36	817,00
-5389,51	846,00
-5374,69	963,00
-5359,89	1012,00
-5345,12	995,00
-5330,37	1071,00
-5315,65	887,00
-5300,95	1011,00
-5286,28	899,00
-5271,63	770,00
-5257,01	820,00
-5242,41	808,00
-5227,84	802,00
-5213,29	833,00
-5198,76	817,00
-5184,26	874,00
-5169,79	798,00
-5155,33	873,00
-5140,91	898,00
-5126,51	841,00
-5112,13	862,00
-5097,77	911,00
-5083,44	953,00
-5069,13	800,00
-5054,85	901,00
-5040,59	874,00
-5026,36	859,00
-5012,15	987,00
-4997,96	915,00
-4983,80	913,00
-4969,66	885,00
-4955,54	775,00
-4941,44	946,00
-4927,37	746,00
-4913,33	985,00
-4899,30	890,00
-4885,30	996,00
-4871,33	867,00
-4857,37	776,00
-4843,44	872,00
-4829,53	930,00
-4815,65	984,00
-4801,79	657,00
-4787,95	921,00
-4774,13	822,00
-4760,34	898,00
-4746,56	911,00
-4732,82	833,00
-4719,09	801,00
-4705,38	986,00
-4691,70	956,00
-4678,04	1052,00
-4664,41	1027,00
-4650,79	1070,00
-4637,20	882,00
-4623,63	849,00
-4610,08	918,00
-4596,56	871,00
-4583,05	783,00
-4569,57	824,00
-4556,11	940,00
-4542,67	817,00
-4529,25	805,00
-4515,86	859,00
-4502,49	884,00
-4489,13	986,00
-4475,80	1057,00
-4462,49	759,00
-4449,21	1012,00
-4435,94	881,00
-4422,70	747,00
-4409,47	716,00
-4396,27	951,00
-4383,09	805,00
-4369,93	911,00
-4356,79	853,00
-4343,67	886,00
-4330,58	938,00
-4317,50	964,00
-4304,45	941,00
-4291,41	847,00
-4278,40	806,00
-4265,41	718,00
-4252,44	886,00
-4239,49	735,00
-4226,55	884,00
-4213,65	854,00
-4200,76	996,00
-4187,89	820,00
-4175,04	848,00
-4162,21	828,00
-4149,40	821,00
-4136,61	786,00
-4123,85	827,00
-4111,10	840,00
-4098,37	948,00
-4085,66	879,00
-4072,98	846,00
-4060,31	809,00
-4047,66	971,00
-4035,04	1105,00
-4022,43	829,00
-4009,84	854,00
-3997,27	751,00
-3984,72	906,00
-3972,19	862,00
-3959,69	882,00
-3947,20	792,00
-3934,73	926,00
-3922,27	800,00
-3909,84	793,00
-3897,43	906,00
-3885,04	1020,00
-3872,67	854,00
-3860,31	890,00
-3847,98	934,00
-3835,66	890,00
-3823,36	866,00
-3811,09	851,00
-3798,83	899,00
-3786,59	933,00
-3774,37	991,00
-3762,17	812,00
-3749,98	869,00
-3737,82	836,00
-3725,67	1106,00
-3713,55	836,00
-3701,44	895,00
-3689,35	876,00
-3677,28	991,00
-3665,22	815,00
-3653,19	841,00
-3641,17	820,00
-3629,18	873,00
-3617,20	830,00
-3605,24	945,00
-3593,30	901,00
-3581,37	905,00
-3569,47	919,00
-3557,58	848,00
-3545,71	920,00
-3533,86	847,00
-3522,02	791,00
-3510,21	893,00
-3498,41	904,00
-3486,63	839,00
-3474,87	808,00
-3463,12	847,00
-3451,40	797,00
-3439,69	829,00
-3428,00	868,00
-3416,33	950,00
-3404,67	776,00
-3393,03	869,00
-3381,41	956,00
-3369,81	880,00
-3358,22	961,00
-3346,66	969,00
-3335,10	911,00
-3323,57	803,00
-3312,06	950,00
-3300,56	913,00
-3289,08	839,00
-3277,61	824,00
-3266,16	919,00
-3254,73	772,00
-3243,32	903,00
-3231,92	878,00
-3220,55	873,00
-3209,18	996,00
-3197,84	867,00
-3186,51	799,00
-3175,20	842,00
-3163,90	862,00
-3152,63	919,00
-3141,36	832,00
-3130,12	934,00
-3118,89	877,00
-3107,68	809,00
-3096,49	904,00
-3085,31	792,00
-3074,15	825,00
-3063,00	888,00
-3051,87	968,00
-3040,76	834,00
-3029,67	1006,00
-3018,59	1061,00
-3007,52	1020,00
-2996,48	932,00
-2985,44	852,00
-2974,43	913,00
-2963,43	748,00
-2952,45	890,00
-2941,48	897,00
-2930,53	834,00
-2919,60	765,00
-2908,68	809,00
-2897,78	898,00
-2886,89	910,00
-2876,02	870,00
-2865,17	874,00
-2854,33	895,00
-2843,50	852,00
-2832,70	880,00
-2821,90	912,00
-2811,13	947,00
-2800,37	895,00
-2789,62	781,00
-2778,89	867,00
-2768,18	982,00
-2757,48	887,00
-2746,80	983,00
-2736,13	889,00
-2725,48	980,00
-2714,84	849,00
-2704,22	890,00
-2693,61	937,00
-2683,02	890,00
-2672,45	856,00
-2661,89	888,00
-2651,34	963,00
-2640,81	873,00
-2630,30	938,00
-2619,80	884,00
-2609,31	864,00
-2598,84	760,00
-2588,39	847,00
-2577,95	825,00
-2567,52	785,00
-2557,11	785,00
-2546,71	857,00
-2536,33	917,00
-2525,97	878,00
-2515,62	940,00
-2505,28	954,00
-2494,96	864,00
-2484,65	952,00
-2474,36	1222,00
-2464,08	799,00
-2453,82	1013,00
-2443,57	911,00
-2433,33	810,00
-2423,11	919,00
-2412,91	941,00
-2402,72	854,00
-2392,54	932,00
-2382,38	874,00
-2372,23	976,00
-2362,09	-1841,00
-2351,97	853,00
-2341,87	713,00
-2331,78	898,00
-2321,70	864,00
-2311,64	893,00
-2301,59	873,00
-2291,55	796,00
-2281,53	941,00
-2271,53	806,00
-2261,53	1031,00
-2251,55	889,00
-2241,59	866,00
-2231,64	913,00
-2221,70	900,00
-2211,78	878,00
-2201,87	792,00
-2191,97	917,00
-2182,09	802,00
-2172,22	900,00
-2162,37	803,00
-2152,53	799,00
-2142,70	872,00
-2132,89	838,00
-2123,09	870,00
-2113,30	854,00
-2103,53	815,00
-2093,77	1028,00
-2084,02	872,00
-2074,29	957,00
-2064,57	980,00
-2054,86	971,00
-2045,17	1043,00
-2035,49	904,00
-2025,82	794,00
-2016,17	870,00
-2006,53	875,00
-1996,91	933,00
-1987,29	874,00
-1977,69	897,00
-1968,11	811,00
-1958,53	836,00
-1948,97	850,00
-1939,42	874,00
-1929,89	805,00
-1920,37	883,00
-1910,86	878,00
-1901,36	892,00
-1891,88	941,00
-1882,41	848,00
-1872,95	968,00
-1863,51	950,00
-1854,08	927,00
-1844,66	956,00
-1835,26	989,00
-1825,86	960,00
-1816,48	910,00
-1807,11	969,00
-1797,76	930,00
-1788,42	925,00
-1779,09	903,00
-1769,77	895,00
-1760,47	1070,00
-1751,17	845,00
-1741,89	829,00
-1732,63	935,00
-1723,37	969,00
-1714,13	1008,00
-1704,90	912,00
-1695,68	993,00
-1686,48	844,00
-1677,29	830,00
-1668,11	1102,00
-1658,94	843,00
-1649,78	876,00
-1640,64	923,00
-1631,51	905,00
-1622,39	926,00
-1613,28	913,00
-1604,19	972,00
-1595,10	902,00
-1586,03	880,00
-1576,97	942,00
-1567,93	862,00
-1558,89	943,00
-1549,87	958,00
-1540,86	820,00
-1531,86	888,00
-1522,87	852,00
-1513,90	951,00
-1504,93	924,00
-1495,98	1003,00
-1487,04	947,00
-1478,12	866,00
-1469,20	870,00
-1460,30	905,00
-1451,40	1063,00
-1442,52	899,00
-1433,65	1069,00
-1424,80	903,00
-1415,95	771,00
-1407,12	1071,00
-1398,30	877,00
-1389,48	980,00
-1380,69	859,00
-1371,90	836,00
-1363,12	922,00
-1354,36	965,00
-1345,60	871,00
-1336,86	963,00
-1328,13	1009,00
-1319,41	985,00
-1310,70	901,00
-1302,01	835,00
-1293,32	811,00
-1284,65	872,00
-1275,99	872,00
-1267,33	1000,00
-1258,69	937,00
-1250,06	865,00
-1241,45	827,00
-1232,84	1040,00
-1224,25	859,00
-1215,66	929,00
-1207,09	945,00
-1198,53	921,00
-1189,97	934,00
-1181,43	869,00
-1172,91	894,00
-1164,39	989,00
-1155,88	795,00
-1147,38	758,00
-1138,90	874,00
-1130,43	896,00
-1121,96	854,00
-1113,51	959,00
-1105,07	882,00
-1096,64	988,00
-1088,22	879,00
-1079,81	954,00
-1071,41	1063,00
-1063,02	855,00
-1054,65	941,00
-1046,28	931,00
-1037,92	844,00
-1029,58	916,00
-1021,24	887,00
-1012,92	1185,00
-1004,61	969,00
-996,30	1095,00
-988,01	800,00
-979,73	927,00
-971,46	952,00
-963,20	822,00
-954,95	789,00
-946,71	917,00
-938,48	963,00
-930,26	960,00
-922,06	968,00
-913,86	837,00
-905,67	774,00
-897,49	991,00
-889,33	724,00
-881,17	965,00
-873,02	888,00
-864,89	796,00
-856,76	860,00
-848,65	971,00
-840,54	935,00
-832,45	894,00
-824,36	753,00
-816,29	924,00
-808,22	904,00
-800,17	963,00
-792,12	899,00
-784,09	972,00
-776,06	818,00
-768,05	882,00
-760,04	925,00
-752,05	837,00
-744,07	872,00
-736,09	988,00
-728,13	703,00
-720,17	908,00
-712,23	888,00
-704,29	823,00
-696,37	942,00
-688,45	966,00
-680,55	856,00
-672,65	913,00
-664,77	885,00
-656,89	796,00
-649,03	810,00
-641,17	932,00
-633,32	908,00
-625,49	966,00
-617,66	850,00
-609,84	895,00
-602,03	901,00
-594,23	904,00
-586,45	889,00
-578,67	852,00
-570,90	907,00
-563,14	826,00
-555,39	934,00
-547,65	940,00
-539,91	913,00
-532,19	896,00
-524,48	1024,00
-516,78	843,00
-509,08	965,00
-501,40	917,00
-493,72	856,00
-486,06	839,00
-478,40	1031,00
-470,76	797,00
-463,12	865,00
-455,49	814,00
-447,87	861,00
-440,26	865,00
-432,66	774,00
-425,07	967,00
-417,49	951,00
-409,92	737,00
-402,35	810,00
-394,80	855,00
-387,25	866,00
-379,72	976,00
-372,19	960,00
-364,67	985,00
-357,17	875,00
-349,67	967,00
-342,18	910,00
-334,69	969,00
-327,22	887,00
-319,76	893,00
-312,30	934,00
-304,86	841,00
-297,42	940,00
-290,00	899,00
-282,58	888,00
-275,17	959,00
-267,77	991,00
-260,37	899,00
-252,99	950,00
-245,62	1027,00
-238,25	846,00
-230,90	935,00
-223,55	1090,00
-216,21	962,00
-208,88	1093,00
-201,56	981,00
-194,25	1037,00
-186,94	1075,00
-179,65	1094,00
-172,36	1016,00
-165,08	1135,00
-157,81	1218,00
-150,55	1213,00
-143,30	1266,00
-136,06	1210,00
-128,82	1323,00
-121,60	1265,00
-114,38	1377,00
-107,17	1567,00
-99,97	1756,00
-92,78	1692,00
-85,60	1760,00
-78,42	2002,00
-71,25	2049,00
-64,10	2319,00
-56,95	2553,00
-49,81	2925,00
-42,67	3538,00
-35,55	4091,00
-28,43	5141,00
-21,33	8144,00
-14,23	24853,00
-7,14	57498,00
-0,05	57284,00
7,02	57012,00
14,09	57319,00
21,14	21213,00
28,19	9389,00
35,23	6187,00
42,27	5188,00
49,29	4202,00
56,31	3753,00
63,32	3363,00
70,32	2868,00
77,31	2583,00
84,29	2244,00
91,27	2200,00
98,23	2206,00
105,19	2080,00
112,14	2276,00
119,09	3123,00
126,02	4550,00
132,95	5259,00
139,87	5405,00
146,78	5668,00
153,68	5368,00
160,58	5239,00
167,46	5122,00
174,34	5224,00
181,21	5249,00
188,08	5191,00
194,93	5260,00
201,78	5200,00
208,62	5256,00
215,45	5124,00
222,27	5130,00
229,09	5288,00
235,90	5007,00
242,70	5073,00
249,49	5123,00
256,27	4910,00
263,05	4918,00
269,82	4910,00
276,58	4784,00
283,33	4634,00
290,08	4709,00
296,82	4659,00
303,55	4455,00
310,27	4408,00
316,98	4523,00
323,69	4377,00
330,39	4374,00
337,08	4438,00
343,76	4384,00
350,44	4358,00
357,11	4418,00
363,77	4434,00
370,42	4367,00
377,07	4451,00
383,71	4265,00
390,34	4340,00
396,96	4390,00
403,58	4379,00
410,19	4489,00
416,79	4559,00
423,38	4688,00
429,97	4687,00
436,55	4548,00
443,12	4703,00
449,68	4703,00
456,24	4502,00
462,79	4380,00
469,33	4285,00
475,86	4155,00
482,39	4050,00
488,91	4097,00
495,42	3925,00
501,93	3998,00
508,42	3876,00
514,91	3957,00
521,40	3856,00
527,87	3789,00
534,34	3644,00
540,80	3772,00
547,25	3857,00
553,70	3805,00
560,14	3799,00
566,57	3826,00
573,00	3819,00
579,41	3836,00
585,83	4086,00
592,23	3965,00
598,62	3946,00
605,01	3972,00
611,40	4167,00
617,77	4040,00
624,14	3891,00
630,50	3867,00
636,85	3749,00
643,20	3617,00
649,54	3540,00
655,87	3500,00
662,20	3627,00
668,52	3509,00
674,83	3576,00
681,13	3476,00
687,43	3498,00
693,72	3383,00
700,00	3330,00
706,28	3452,00
712,55	3423,00
718,81	3523,00
725,07	3430,00
731,32	3411,00
737,56	3427,00
743,79	3404,00
750,02	3297,00
756,24	3180,00
762,46	3269,00
768,67	3530,00
774,87	3194,00
781,06	3249,00
787,25	3313,00
793,43	3317,00
799,60	3225,00
805,77	3446,00
811,93	3245,00
818,08	3359,00
824,23	3151,00
830,37	3522,00
836,50	3283,00
842,63	3325,00
848,75	3344,00
854,87	3304,00
860,97	3324,00
867,07	3296,00
873,17	3343,00
879,25	3271,00
885,33	3261,00
891,41	3305,00
897,47	3349,00
903,53	3208,00
909,59	3289,00
915,63	3176,00
921,67	3208,00
927,71	3135,00
933,74	3221,00
939,76	2979,00
945,77	3035,00
951,78	3219,00
957,78	2985,00
963,78	3109,00
969,77	3117,00
975,75	3024,00
981,72	2977,00
987,69	4404,00
993,66	3141,00
999,61	3111,00
1005,56	3175,00
1011,51	3055,00
1017,44	3039,00
1023,37	3227,00
1029,30	3090,00
1035,22	3179,00
1041,13	3193,00
1047,03	3442,00
1052,93	3847,00
1058,83	5037,00
1064,71	5505,00
1070,59	4778,00
1076,47	4022,00
1082,33	3753,00
1088,20	3644,00
1094,05	3549,00
1099,90	3226,00
1105,74	3219,00
1111,58	3336,00
1117,41	3638,00
1123,23	4507,00
1129,05	5259,00
1134,86	4907,00
1140,67	3920,00
1146,47	3308,00
1152,26	3212,00
1158,05	3102,00
1163,83	3222,00
1169,60	3323,00
1175,37	3275,00
1181,13	3146,00
1186,89	3008,00
1192,64	2951,00
1198,38	3122,00
1204,12	2791,00
1209,85	2801,00
1215,58	2863,00
1221,30	2963,00
1227,02	3016,00
1232,72	3035,00
1238,43	2941,00
1244,12	2880,00
1249,81	2861,00
1255,50	3169,00
1261,17	2958,00
1266,85	3051,00
1272,51	3093,00
1278,17	3228,00
1283,83	3663,00
1289,47	4941,00
1295,12	6337,00
1300,75	5849,00
1306,38	4613,00
1312,01	3831,00
1317,63	3448,00
1323,24	3258,00
1328,85	3146,00
1334,45	3000,00
1340,04	2983,00
1345,63	2907,00
1351,22	3105,00
1356,80	3001,00
1362,37	3271,00
1367,93	3182,00
1373,49	3309,00
1379,05	3054,00
1384,60	3020,00
1390,14	3086,00
1395,68	3037,00
1401,21	3145,00
1406,74	3353,00
1412,26	3863,00
1417,77	4528,00
1423,28	4202,00
1428,78	4684,00
1434,28	5689,00
1439,77	6318,00
1445,26	6119,00
1450,74	5750,00
1456,22	5375,00
1461,68	5361,00
1467,15	5050,00
1472,61	4261,00
1478,06	3984,00
1483,51	3511,00
1488,95	3163,00
1494,38	3169,00
1499,81	2886,00
1505,24	2897,00
1510,65	2827,00
1516,07	2841,00
1521,48	2769,00
1526,88	2658,00
1532,27	2687,00
1537,67	2661,00
1543,05	2670,00
1548,43	2562,00
1553,81	2722,00
1559,18	2548,00
1564,54	2601,00
1569,90	2572,00
1575,25	2556,00
1580,60	2349,00
1585,94	2608,00
1591,28	2406,00
1596,61	2502,00
1601,93	2460,00
1607,25	2601,00
1612,57	2495,00
1617,88	2523,00
1623,18	2544,00
1628,48	2418,00
1633,77	2489,00
1639,06	2479,00
1644,34	2376,00
1649,62	2317,00
1654,89	2471,00
1660,16	2196,00
1665,42	2474,00
1670,67	2372,00
1675,92	2304,00
1681,17	2252,00
1686,41	2233,00
1691,64	2371,00
1696,87	2352,00
1702,10	2192,00
1707,32	2262,00
1712,53	2218,00
1717,74	2339,00
1722,94	2341,00
1728,14	2141,00
1733,33	2150,00
1738,52	2159,00
1743,70	2186,00
1748,88	2161,00
1754,05	2222,00
1759,22	2084,00
1764,38	2417,00
1769,53	2186,00
1774,69	2148,00
1779,83	2030,00
1784,97	2131,00
1790,11	2090,00
1795,24	2110,00
1800,36	1998,00
1805,48	2015,00
1810,60	2238,00
1815,71	2055,00
1820,82	2000,00
1825,92	2019,00
1831,01	1981,00
1836,10	2124,00
1841,19	2151,00
1846,26	1955,00
1851,34	2044,00
1856,41	2052,00
1861,47	1941,00
1866,53	2092,00
1871,59	1957,00
1876,64	2034,00
1881,68	1912,00
1886,72	1942,00
1891,76	1913,00
1896,79	1955,00
1901,81	1857,00
1906,83	1909,00
1911,85	1847,00
1916,86	1972,00
1921,86	1912,00
1926,86	1868,00
1931,86	1893,00
1936,85	1868,00
1941,83	1842,00
1946,81	1767,00
1951,79	1684,00
1956,76	1772,00
1961,72	1655,00
1966,68	1784,00
1971,64	1697,00
1976,59	1847,00
1981,54	1780,00
1986,48	1894,00
1991,42	1670,00
1996,35	2008,00
2001,27	1760,00
2006,20	1690,00
2011,11	1752,00
2016,03	1779,00
2020,93	1715,00
2025,84	1682,00
2030,73	1638,00
2035,63	1583,00
2040,52	1718,00
2045,40	1714,00
2050,28	1717,00
2055,15	1705,00
2060,02	1533,00
2064,89	1779,00
2069,75	1757,00
2074,60	1715,00
2079,46	1541,00
2084,30	1619,00
2089,14	1534,00
2093,98	1730,00
2098,81	1653,00
2103,64	1750,00
2108,46	1646,00
2113,28	1695,00
2118,09	1688,00
2122,90	1660,00
2127,70	1644,00
2132,50	1726,00
2137,30	1595,00
2142,09	1595,00
2146,87	1624,00
2151,66	1603,00
2156,43	1520,00
2161,20	1603,00
2165,97	1665,00
2170,73	1621,00
2175,49	1639,00
2180,24	1591,00
2184,99	1749,00
2189,74	1734,00
2194,48	1624,00
2199,21	1694,00
2203,94	1597,00
2208,67	1506,00
2213,39	1437,00
2218,11	1583,00
2222,82	1513,00
2227,53	1539,00
2232,23	1664,00
2236,93	1531,00
2241,63	1486,00
2246,32	1579,00
2251,00	1561,00
2255,68	1570,00
2260,36	1564,00
2265,03	1572,00
2269,70	1654,00
2274,36	1520,00
2279,02	1506,00
2283,68	1600,00
2288,33	1573,00
2292,97	1504,00
2297,61	1497,00
2302,25	1553,00
2306,88	1411,00
2311,51	1451,00
2316,14	1470,00
2320,75	1404,00
2325,37	1385,00
2329,98	1538,00
2334,59	1469,00
2339,19	1404,00
2343,79	1309,00
2348,38	1385,00
2352,97	1325,00
2357,55	1502,00
2362,13	1479,00
2366,71	1340,00
2371,28	1503,00
2375,85	1453,00
2380,41	1525,00
2384,97	1406,00
2389,52	1452,00
2394,07	1491,00
2398,62	1427,00
2403,16	1514,00
2407,70	1273,00
2412,23	1298,00
2416,76	1442,00
2421,29	1458,00
2425,81	1552,00
2430,32	1387,00
2434,84	1293,00
2439,34	1371,00
2443,85	1456,00
2448,35	1338,00
2452,84	1319,00
2457,33	1450,00
2461,82	1269,00
2466,30	1297,00
2470,78	1362,00
2475,25	1363,00
2479,72	1334,00
2484,19	1384,00
2488,65	1417,00
2493,11	1295,00
2497,56	1518,00
2502,01	1202,00
2506,46	1436,00
2510,90	1281,00
2515,34	1261,00
2519,77	1305,00
2524,20	1302,00
2528,62	1294,00
2533,04	1448,00
2537,46	1363,00
2541,87	1282,00
2546,28	1353,00
2550,68	1344,00
2555,08	1354,00
2559,48	1311,00
2563,87	1181,00
2568,26	1243,00
2572,64	1301,00
2577,02	1368,00
2581,40	1196,00
2585,77	1277,00
2590,14	1322,00
2594,50	1249,00
2598,86	1383,00
2603,22	1354,00
2607,57	1293,00
2611,92	1342,00
2616,26	1406,00
2620,60	1371,00
2624,94	1299,00
2629,27	1378,00
2633,60	1298,00
2637,92	1377,00
2642,24	1401,00
2646,56	1375,00
2650,87	1221,00
2655,18	1390,00
2659,48	1224,00
2663,78	1354,00
2668,08	1414,00
2672,37	1378,00
2676,66	1334,00
2680,95	1358,00
2685,23	1441,00
2689,50	1377,00
2693,78	1338,00
2698,05	1335,00
2702,31	1434,00
2706,57	1497,00
2710,83	1592,00
2715,08	1709,00
2719,33	1648,00
2723,58	1658,00
2727,82	1715,00
2732,06	1591,00
2736,29	1579,00
2740,53	1504,00
2744,75	1466,00
2748,97	1411,00
2753,19	1561,00
2757,41	1395,00
2761,62	1478,00
2765,83	1453,00
2770,03	1390,00
2774,23	1487,00
2778,43	1422,00
2782,62	1555,00
2786,81	1496,00
2791,00	1488,00
2795,18	1601,00
2799,35	1566,00
2803,53	1660,00
2807,70	1637,00
2811,86	1696,00
2816,03	1884,00
2820,19	1845,00
2824,34	1932,00
2828,49	2087,00
2832,64	2287,00
2836,78	2681,00
2840,92	2983,00
2845,06	3633,00
2849,19	4187,00
2853,32	4211,00
2857,45	4146,00
2861,57	4069,00
2865,69	4026,00
2869,80	3833,00
2873,91	4127,00
2878,02	4585,00
2882,12	4974,00
2886,22	4966,00
2890,32	4566,00
2894,41	4346,00
2898,50	3938,00
2902,58	3654,00
2906,67	3445,00
2910,74	3267,00
2914,82	2926,00
2918,89	2969,00
2922,96	2715,00
2927,02	2507,00
2931,08	2479,00
2935,13	2262,00
2939,19	2314,00
2943,24	2012,00
2947,28	2118,00
2951,32	1769,00
2955,36	1644,00
2959,40	1822,00
2963,43	1626,00
2967,46	1472,00
2971,48	1478,00
2975,50	1403,00
2979,52	1438,00
2983,53	1392,00
2987,54	1293,00
2991,55	1368,00
2995,55	1330,00
2999,55	1198,00
3003,54	1175,00
3007,54	1315,00
3011,53	1277,00
3015,51	1171,00
3019,49	1251,00
3023,47	1067,00
3027,45	1195,00
3031,42	1089,00
3035,39	1119,00
3039,35	1128,00
3043,31	1179,00
3047,27	1083,00
3051,22	1145,00
3055,17	1104,00
3059,12	987,00
3063,06	1074,00
3067,00	961,00
3070,94	975,00
3074,87	1168,00
3078,80	1045,00
3082,73	1020,00
3086,65	1055,00
3090,57	1028,00
3094,49	1015,00
3098,40	1041,00
3102,31	987,00
3106,22	961,00
3110,12	1030,00
3114,02	985,00
3117,92	989,00
3121,81	997,00
3125,70	931,00
3129,58	913,00
3133,47	915,00
3137,34	1063,00
3141,22	1059,00
3145,09	984,00
3148,96	1085,00
3152,83	1011,00
3156,69	997,00
3160,55	946,00
3164,40	1070,00
3168,26	1045,00
3172,10	1018,00
3175,95	993,00
3179,79	1015,00
3183,63	965,00
3187,47	948,00
3191,30	1051,00
3195,13	1053,00
3198,95	899,00
3202,78	962,00
3206,60	958,00
3210,41	785,00
3214,23	916,00
3218,03	973,00
3221,84	980,00
3225,64	1056,00
3229,44	886,00
3233,24	908,00
3237,03	951,00
3240,82	954,00
3244,61	880,00
3248,39	912,00
3252,17	1072,00
3255,95	1059,00
3259,72	1005,00
3263,49	1126,00
3267,26	1047,00
3271,03	971,00
3274,79	881,00
3278,54	1004,00
3282,30	913,00
3286,05	1022,00
3289,80	1006,00
3293,54	893,00
3297,29	964,00
3301,02	994,00
3304,76	932,00
3308,49	933,00
3312,22	808,00
3315,95	954,00
3319,67	935,00
3323,39	1041,00
3327,10	1009,00
3330,82	958,00
3334,53	935,00
3338,24	986,00
3341,94	822,00
3345,64	926,00
3349,34	907,00
3353,03	910,00
3356,72	887,00
3360,41	925,00
3364,10	849,00
3367,78	940,00
3371,46	884,00
3375,13	925,00
3378,81	1014,00
3382,48	849,00
3386,14	950,00
3389,81	932,00
3393,47	885,00
3397,12	1076,00
3400,78	921,00
3404,43	874,00
3408,08	941,00
3411,72	909,00
3415,36	872,00
3419,00	963,00
3422,64	942,00
3426,27	863,00
3429,90	995,00
3433,53	795,00
3437,15	893,00
3440,77	739,00
3444,39	919,00
3448,00	898,00
3451,62	882,00
3455,22	899,00
3458,83	829,00
3462,43	878,00
3466,03	922,00
3469,63	824,00
3473,22	902,00
3476,81	816,00
3480,40	934,00
3483,99	782,00
3487,57	939,00
3491,15	857,00
3494,72	932,00
3498,29	970,00
3501,86	766,00
3505,43	907,00
3508,99	824,00
3512,56	824,00
3516,11	964,00
3519,67	837,00
3523,22	944,00
3526,77	850,00
3530,32	981,00
3533,86	847,00
3537,40	970,00
3540,94	893,00
3544,47	802,00
3548,00	807,00
3551,53	917,00
3555,06	871,00
3558,58	938,00
3562,10	940,00
3565,62	801,00
3569,13	953,00
3572,64	1022,00
3576,15	704,00
3579,66	828,00
3583,16	867,00
3586,66	870,00
3590,16	812,00
3593,65	774,00
3597,14	789,00
3600,63	891,00
3604,11	852,00
3607,60	834,00
3611,08	834,00
3614,55	838,00
3618,03	793,00
3621,50	753,00
3624,97	741,00
3628,43	845,00
3631,90	783,00
3635,36	734,00
3638,81	805,00
3642,27	827,00
3645,72	815,00
3649,17	786,00
3652,61	825,00
3656,06	829,00
3659,50	816,00
3662,93	872,00
3666,37	864,00
3669,80	964,00
3673,23	883,00
3676,65	917,00
3680,08	843,00
3683,50	733,00
3686,92	754,00
3690,33	819,00
3693,74	822,00
3697,15	706,00
3700,56	775,00
3703,96	823,00
3707,36	646,00
3710,76	724,00
3714,16	705,00
3717,55	797,00
3720,94	740,00
3724,33	802,00
3727,71	808,00
3731,10	800,00
3734,48	822,00
3737,85	688,00
3741,23	732,00
3744,60	734,00
3747,97	642,00
3751,33	855,00
3754,69	749,00
3758,05	773,00
3761,41	716,00
3764,77	755,00
3768,12	634,00
3771,47	654,00
3774,82	754,00
3778,16	-5,00
3781,50	12,00
3784,84	6,00
3788,18	10,00
>>>>>End Processed Spectral Data<<<<<
