SpectraSuite Data File
++++++++++++++++++++++++++++++++++++
Date: Mon Jan 05 16:32:31 ICT 2026
User: Administrator
Dark Spectrum Present: Yes
Reference Spectrum Present: No
Number of Sampled Component Spectra: 1
Spectrometers: MAYP113682
Integration Time (usec): 3000000 (MAYP113682)
Spectra Averaged: 1 (MAYP113682)
Boxcar Smoothing: 0 (MAYP113682)
Correct for Electrical Dark: No (MAYP113682)
Strobe/Lamp Enabled: No (MAYP113682)
Correct for Detector Non-linearity: No (MAYP113682)
Correct for Stray Light: No (MAYP113682)
Number of Pixels in Processed Spectrum: 2068
>>>>>Begin Processed Spectral Data<<<<<
-37534,58	27,00
-37414,56	9,00
-37295,11	10,00
-37176,24	11,00
-37057,95	585,00
-36940,22	625,00
-36823,05	605,00
-36706,45	723,00
-36590,40	723,00
-36474,90	710,00
-36359,95	766,00
-36245,55	759,00
-36131,68	701,00
-36018,35	733,00
-35905,55	651,00
-35793,29	856,00
-35681,54	686,00
-35570,32	796,00
-35459,62	708,00
-35349,43	847,00
-35239,75	773,00
-35130,58	732,00
-35021,91	759,00
-34913,74	757,00
-34806,07	815,00
-34698,89	811,00
-34592,20	756,00
-34486,00	812,00
-34380,28	803,00
-34275,04	761,00
-34170,27	663,00
-34065,98	916,00
-33962,16	804,00
-33858,81	871,00
-33755,92	764,00
-33653,49	950,00
-33551,52	855,00
-33450,01	787,00
-33348,94	797,00
-33248,33	791,00
-33148,16	795,00
-33048,43	727,00
-32949,14	931,00
-32850,29	843,00
-32751,87	672,00
-32653,89	827,00
-32556,33	888,00
-32459,20	886,00
-32362,49	770,00
-32266,19	809,00
-32170,32	760,00
-32074,86	814,00
-31979,82	862,00
-31885,18	964,00
-31790,95	941,00
-31697,12	933,00
-31603,69	911,00
-31510,67	928,00
-31418,04	862,00
-31325,80	878,00
-31233,95	763,00
-31142,49	872,00
-31051,42	842,00
-30960,73	887,00
-30870,43	948,00
-30780,50	860,00
-30690,95	880,00
-30601,77	907,00
-30512,97	884,00
-30424,53	941,00
-30336,46	828,00
-30248,76	870,00
-30161,42	912,00
-30074,44	804,00
-29987,81	725,00
-29901,55	951,00
-29815,63	853,00
-29730,07	888,00
-29644,86	875,00
-29560,00	899,00
-29475,48	795,00
-29391,30	892,00
-29307,47	835,00
-29223,97	845,00
-29140,81	930,00
-29057,99	915,00
-28975,50	695,00
-28893,34	985,00
-28811,51	767,00
-28730,00	978,00
-28648,82	799,00
-28567,97	933,00
-28487,43	843,00
-28407,21	851,00
-28327,32	820,00
-28247,73	935,00
-28168,46	863,00
-28089,50	874,00
-28010,85	759,00
-27932,51	862,00
-27854,48	865,00
-27776,75	765,00
-27699,32	772,00
-27622,19	855,00
-27545,37	904,00
-27468,84	908,00
-27392,60	890,00
-27316,66	830,00
-27241,01	810,00
-27165,66	837,00
-27090,59	724,00
-27015,81	932,00
-26941,31	881,00
-26867,10	845,00
-26793,17	961,00
-26719,52	878,00
-26646,15	813,00
-26573,06	816,00
-26500,24	838,00
-26427,70	812,00
-26355,43	808,00
-26283,43	871,00
-26211,71	863,00
-26140,25	972,00
-26069,06	960,00
-25998,13	797,00
-25927,46	722,00
-25857,06	799,00
-25786,92	875,00
-25717,04	720,00
-25647,42	972,00
-25578,05	770,00
-25508,94	779,00
-25440,09	834,00
-25371,48	823,00
-25303,13	942,00
-25235,02	857,00
-25167,17	819,00
-25099,56	890,00
-25032,19	801,00
-24965,07	686,00
-24898,20	671,00
-24831,56	802,00
-24765,17	913,00
-24699,01	828,00
-24633,10	832,00
-24567,41	952,00
-24501,97	745,00
-24436,75	868,00
-24371,77	813,00
-24307,03	754,00
-24242,51	789,00
-24178,22	783,00
-24114,16	809,00
-24050,32	938,00
-23986,71	860,00
-23923,32	814,00
-23860,16	843,00
-23797,22	766,00
-23734,50	898,00
-23672,00	776,00
-23609,71	840,00
-23547,65	771,00
-23485,80	941,00
-23424,16	687,00
-23362,74	982,00
-23301,53	797,00
-23240,54	689,00
-23179,75	748,00
-23119,17	728,00
-23058,80	837,00
-22998,64	893,00
-22938,68	782,00
-22878,93	865,00
-22819,39	739,00
-22760,04	724,00
-22700,90	758,00
-22641,96	789,00
-22583,22	836,00
-22524,68	871,00
-22466,33	779,00
-22408,19	824,00
-22350,23	809,00
-22292,48	787,00
-22234,92	866,00
-22177,55	918,00
-22120,37	916,00
-22063,38	791,00
-22006,58	815,00
-21949,98	774,00
-21893,56	713,00
-21837,33	848,00
-21781,28	771,00
-21725,42	807,00
-21669,74	861,00
-21614,25	852,00
-21558,94	883,00
-21503,81	872,00
-21448,86	905,00
-21394,10	765,00
-21339,51	751,00
-21285,10	717,00
-21230,86	734,00
-21176,81	824,00
-21122,93	800,00
-21069,22	736,00
-21015,69	793,00
-20962,33	885,00
-20909,14	803,00
-20856,13	832,00
-20803,28	823,00
-20750,61	816,00
-20698,10	682,00
-20645,76	815,00
-20593,59	892,00
-20541,59	847,00
-20489,75	858,00
-20438,07	740,00
-20386,56	923,00
-20335,22	732,00
-20284,03	772,00
-20233,01	751,00
-20182,15	758,00
-20131,45	737,00
-20080,91	695,00
-20030,52	827,00
-19980,30	797,00
-19930,23	755,00
-19880,32	930,00
-19830,56	835,00
-19780,96	831,00
-19731,52	746,00
-19682,23	818,00
-19633,09	738,00
-19584,10	804,00
-19535,26	780,00
-19486,58	861,00
-19438,04	819,00
-19389,66	875,00
-19341,42	701,00
-19293,33	802,00
-19245,39	817,00
-19197,60	915,00
-19149,95	818,00
-19102,45	837,00
-19055,09	733,00
-19007,87	822,00
-18960,80	865,00
-18913,87	835,00
-18867,09	735,00
-18820,44	910,00
-18773,94	875,00
-18727,57	853,00
-18681,35	741,00
-18635,26	855,00
-18589,31	728,00
-18543,50	757,00
-18497,83	818,00
-18452,29	858,00
-18406,89	722,00
-18361,63	876,00
-18316,50	867,00
-18271,50	812,00
-18226,63	886,00
-18181,90	821,00
-18137,30	908,00
-18092,84	849,00
-18048,50	845,00
-18004,29	777,00
-17960,22	770,00
-17916,27	730,00
-17872,45	886,00
-17828,76	858,00
-17785,20	827,00
-17741,77	797,00
-17698,46	913,00
-17655,28	774,00
-17612,22	839,00
-17569,29	733,00
-17526,48	887,00
-17483,79	849,00
-17441,23	730,00
-17398,79	791,00
-17356,48	749,00
-17314,28	999,00
-17272,21	820,00
-17230,26	738,00
-17188,42	845,00
-17146,71	792,00
-17105,12	774,00
-17063,64	836,00
-17022,28	808,00
-16981,04	734,00
-16939,92	933,00
-16898,91	968,00
-16858,02	687,00
-16817,25	831,00
-16776,59	796,00
-16736,04	796,00
-16695,61	817,00
-16655,29	761,00
-16615,09	811,00
-16574,99	801,00
-16535,01	761,00
-16495,15	860,00
-16455,39	800,00
-16415,74	733,00
-16376,21	803,00
-16336,78	773,00
-16297,46	720,00
-16258,26	701,00
-16219,16	813,00
-16180,17	775,00
-16141,28	807,00
-16102,51	840,00
-16063,84	783,00
-16025,27	822,00
-15986,82	789,00
-15948,46	770,00
-15910,22	765,00
-15872,07	777,00
-15834,04	874,00
-15796,10	824,00
-15758,27	979,00
-15720,54	856,00
-15682,91	763,00
-15645,39	1025,00
-15607,97	825,00
-15570,64	739,00
-15533,42	827,00
-15496,30	806,00
-15459,28	861,00
-15422,36	735,00
-15385,54	840,00
-15348,82	826,00
-15312,19	980,00
-15275,66	829,00
-15239,23	800,00
-15202,90	763,00
-15166,67	816,00
-15130,53	877,00
-15094,48	756,00
-15058,54	791,00
-15022,68	824,00
-14986,93	752,00
-14951,26	860,00
-14915,69	867,00
-14880,22	707,00
-14844,84	842,00
-14809,55	840,00
-14774,35	816,00
-14739,25	744,00
-14704,24	800,00
-14669,32	822,00
-14634,49	736,00
-14599,75	917,00
-14565,10	799,00
-14530,55	790,00
-14496,08	774,00
-14461,70	844,00
-14427,41	790,00
-14393,21	759,00
-14359,10	751,00
-14325,07	770,00
-14291,14	820,00
-14257,29	824,00
-14223,52	863,00
-14189,85	903,00
-14156,26	791,00
-14122,76	730,00
-14089,34	739,00
-14056,01	870,00
-14022,76	711,00
-13989,60	849,00
-13956,52	901,00
-13923,53	778,00
-13890,62	746,00
-13857,79	809,00
-13825,05	836,00
-13792,39	693,00
-13759,81	827,00
-13727,31	802,00
-13694,90	766,00
-13662,57	959,00
-13630,31	895,00
-13598,14	834,00
-13566,05	735,00
-13534,05	728,00
-13502,12	837,00
-13470,27	759,00
-13438,50	913,00
-13406,80	730,00
-13375,19	784,00
-13343,66	884,00
-13312,20	843,00
-13280,83	803,00
-13249,53	856,00
-13218,30	669,00
-13187,16	794,00
-13156,09	933,00
-13125,10	853,00
-13094,18	803,00
-13063,34	851,00
-13032,58	709,00
-13001,89	923,00
-12971,28	771,00
-12940,74	804,00
-12910,27	847,00
-12879,88	819,00
-12849,57	915,00
-12819,33	935,00
-12789,16	828,00
-12759,06	858,00
-12729,04	778,00
-12699,09	2162,00
-12669,21	793,00
-12639,41	843,00
-12609,68	807,00
-12580,02	705,00
-12550,43	851,00
-12520,91	676,00
-12491,46	776,00
-12462,08	620,00
-12432,77	827,00
-12403,54	757,00
-12374,37	737,00
-12345,27	873,00
-12316,24	758,00
-12287,29	741,00
-12258,40	777,00
-12229,57	856,00
-12200,82	732,00
-12172,14	841,00
-12143,52	695,00
-12114,97	774,00
-12086,49	826,00
-12058,07	852,00
-12029,73	839,00
-12001,44	862,00
-11973,23	842,00
-11945,08	838,00
-11917,00	839,00
-11888,98	750,00
-11861,03	958,00
-11833,15	709,00
-11805,32	870,00
-11777,57	758,00
-11749,88	805,00
-11722,25	758,00
-11694,69	761,00
-11667,19	835,00
-11639,75	874,00
-11612,38	757,00
-11585,07	796,00
-11557,83	868,00
-11530,65	962,00
-11503,53	809,00
-11476,47	766,00
-11449,48	821,00
-11422,54	958,00
-11395,67	853,00
-11368,86	922,00
-11342,11	769,00
-11315,43	875,00
-11288,80	745,00
-11262,23	923,00
-11235,73	758,00
-11209,28	1011,00
-11182,90	847,00
-11156,57	817,00
-11130,31	1003,00
-11104,10	791,00
-11077,96	833,00
-11051,87	787,00
-11025,84	730,00
-10999,87	834,00
-10973,96	765,00
-10948,11	734,00
-10922,31	874,00
-10896,58	864,00
-10870,90	940,00
-10845,28	882,00
-10819,71	803,00
-10794,20	842,00
-10768,75	847,00
-10743,36	914,00
-10718,02	748,00
-10692,74	791,00
-10667,52	772,00
-10642,35	844,00
-10617,24	902,00
-10592,18	933,00
-10567,18	876,00
-10542,23	886,00
-10517,34	776,00
-10492,51	918,00
-10467,72	909,00
-10443,00	854,00
-10418,32	939,00
-10393,70	931,00
-10369,14	863,00
-10344,63	835,00
-10320,17	924,00
-10295,77	1012,00
-10271,42	879,00
-10247,12	950,00
-10222,88	1033,00
-10198,68	902,00
-10174,54	968,00
-10150,46	1110,00
-10126,42	1079,00
-10102,44	1052,00
-10078,51	933,00
-10054,63	1105,00
-10030,80	1131,00
-10007,03	1142,00
-9983,30	1116,00
-9959,63	1039,00
-9936,01	1302,00
-9912,44	1204,00
-9888,92	1161,00
-9865,44	1074,00
-9842,02	1103,00
-9818,65	1270,00
-9795,33	1163,00
-9772,06	1266,00
-9748,84	1246,00
-9725,67	1308,00
-9702,55	1393,00
-9679,47	1625,00
-9656,45	1689,00
-9633,47	1540,00
-9610,55	1710,00
-9587,67	1732,00
-9564,84	1980,00
-9542,06	1878,00
-9519,32	2083,00
-9496,64	2248,00
-9474,00	2240,00
-9451,41	2280,00
-9428,87	2445,00
-9406,37	2510,00
-9383,92	2089,00
-9361,52	2211,00
-9339,17	2410,00
-9316,86	2534,00
-9294,60	2897,00
-9272,38	3056,00
-9250,21	3366,00
-9228,09	3408,00
-9206,01	3505,00
-9183,98	3187,00
-9162,00	2962,00
-9140,06	3018,00
-9118,16	2967,00
-9096,31	2880,00
-9074,51	3160,00
-9052,75	3231,00
-9031,04	3227,00
-9009,37	2814,00
-8987,74	2706,00
-8966,16	2541,00
-8944,63	2308,00
-8923,14	2323,00
-8901,69	2235,00
-8880,29	2392,00
-8858,93	2574,00
-8837,61	2876,00
-8816,34	2865,00
-8795,11	2919,00
-8773,92	2654,00
-8752,78	2601,00
-8731,68	2227,00
-8710,62	2411,00
-8689,61	2469,00
-8668,63	2584,00
-8647,70	2874,00
-8626,82	2701,00
-8605,97	2762,00
-8585,17	2555,00
-8564,41	2343,00
-8543,69	2369,00
-8523,01	2123,00
-8502,37	2387,00
-8481,78	2274,00
-8461,23	2296,00
-8440,71	2642,00
-8420,24	2703,00
-8399,81	2856,00
-8379,42	2653,00
-8359,08	2621,00
-8338,77	2358,00
-8318,50	2173,00
-8298,27	2108,00
-8278,09	2381,00
-8257,94	2284,00
-8237,83	2586,00
-8217,76	2477,00
-8197,74	2587,00
-8177,75	2584,00
-8157,80	2253,00
-8137,89	2125,00
-8118,02	2161,00
-8098,19	2163,00
-8078,40	2173,00
-8058,65	2192,00
-8038,93	2334,00
-8019,26	2303,00
-7999,62	2248,00
-7980,02	2074,00
-7960,46	1938,00
-7940,94	1874,00
-7921,46	1907,00
-7902,01	1848,00
-7882,60	1959,00
-7863,23	1867,00
-7843,90	1911,00
-7824,61	2002,00
-7805,35	2181,00
-7786,13	2079,00
-7766,95	2134,00
-7747,80	2105,00
-7728,69	1994,00
-7709,62	1951,00
-7690,59	1973,00
-7671,59	2097,00
-7652,63	2042,00
-7633,70	2106,00
-7614,81	2124,00
-7595,96	1964,00
-7577,15	1896,00
-7558,37	1750,00
-7539,62	1886,00
-7520,91	1855,00
-7502,24	1950,00
-7483,60	2151,00
-7465,00	1884,00
-7446,44	1882,00
-7427,91	1600,00
-7409,41	1598,00
-7390,95	1492,00
-7372,53	1335,00
-7354,14	1497,00
-7335,78	1342,00
-7317,46	1572,00
-7299,18	1524,00
-7280,92	1654,00
-7262,71	1996,00
-7244,52	1875,00
-7226,38	1855,00
-7208,26	1893,00
-7190,18	1809,00
-7172,14	1683,00
-7154,12	1719,00
-7136,15	1742,00
-7118,20	1924,00
-7100,29	1981,00
-7082,41	1908,00
-7064,57	1877,00
-7046,76	1849,00
-7028,98	1500,00
-7011,24	1625,00
-6993,53	1335,00
-6975,85	1427,00
-6958,20	1266,00
-6940,59	1285,00
-6923,01	1202,00
-6905,46	1368,00
-6887,94	1416,00
-6870,46	1966,00
-6853,01	1804,00
-6835,59	1704,00
-6818,21	1508,00
-6800,85	1539,00
-6783,53	1300,00
-6766,24	1191,00
-6748,98	1203,00
-6731,76	1165,00
-6714,56	1084,00
-6697,40	992,00
-6680,26	1058,00
-6663,16	1157,00
-6646,09	1338,00
-6629,05	1503,00
-6612,05	1519,00
-6595,07	1407,00
-6578,13	1506,00
-6561,21	1229,00
-6544,33	1205,00
-6527,47	1073,00
-6510,65	1164,00
-6493,86	989,00
-6477,10	975,00
-6460,36	1055,00
-6443,66	1068,00
-6426,99	975,00
-6410,35	984,00
-6393,74	1110,00
-6377,16	992,00
-6360,61	1197,00
-6344,09	1166,00
-6327,59	1114,00
-6311,13	1291,00
-6294,70	1316,00
-6278,29	1304,00
-6261,92	1304,00
-6245,58	1395,00
-6229,26	1539,00
-6212,97	1398,00
-6196,72	1114,00
-6180,49	1154,00
-6164,29	938,00
-6148,12	1129,00
-6131,98	1001,00
-6115,86	910,00
-6099,78	878,00
-6083,72	825,00
-6067,69	838,00
-6051,69	760,00
-6035,72	942,00
-6019,78	1068,00
-6003,87	1115,00
-5987,98	1119,00
-5972,12	1236,00
-5956,29	1178,00
-5940,49	1120,00
-5924,71	1148,00
-5908,96	971,00
-5893,24	984,00
-5877,55	971,00
-5861,89	997,00
-5846,25	736,00
-5830,64	1049,00
-5815,05	906,00
-5799,50	886,00
-5783,97	992,00
-5768,47	987,00
-5752,99	1247,00
-5737,55	1096,00
-5722,12	1173,00
-5706,73	1282,00
-5691,36	1152,00
-5676,02	992,00
-5660,71	933,00
-5645,42	895,00
-5630,16	1078,00
-5614,92	1125,00
-5599,71	1105,00
-5584,53	1064,00
-5569,37	1115,00
-5554,24	1300,00
-5539,14	990,00
-5524,06	1042,00
-5509,01	1034,00
-5493,98	986,00
-5478,98	1135,00
-5464,00	1061,00
-5449,05	964,00
-5434,13	964,00
-5419,23	857,00
-5404,36	898,00
-5389,51	1052,00
-5374,69	1110,00
-5359,89	1194,00
-5345,12	1312,00
-5330,37	1250,00
-5315,65	1215,00
-5300,95	1029,00
-5286,28	1012,00
-5271,63	942,00
-5257,01	1024,00
-5242,41	1115,00
-5227,84	901,00
-5213,29	950,00
-5198,76	925,00
-5184,26	951,00
-5169,79	840,00
-5155,33	1041,00
-5140,91	1005,00
-5126,51	992,00
-5112,13	1017,00
-5097,77	1031,00
-5083,44	1026,00
-5069,13	847,00
-5054,85	994,00
-5040,59	1031,00
-5026,36	1035,00
-5012,15	1076,00
-4997,96	1059,00
-4983,80	955,00
-4969,66	857,00
-4955,54	887,00
-4941,44	997,00
-4927,37	993,00
-4913,33	1158,00
-4899,30	1098,00
-4885,30	1170,00
-4871,33	945,00
-4857,37	907,00
-4843,44	887,00
-4829,53	977,00
-4815,65	1076,00
-4801,79	807,00
-4787,95	1037,00
-4774,13	806,00
-4760,34	873,00
-4746,56	1066,00
-4732,82	857,00
-4719,09	983,00
-4705,38	1201,00
-4691,70	1123,00
-4678,04	1196,00
-4664,41	1070,00
-4650,79	1139,00
-4637,20	867,00
-4623,63	883,00
-4610,08	1033,00
-4596,56	1084,00
-4583,05	916,00
-4569,57	1016,00
-4556,11	977,00
-4542,67	842,00
-4529,25	815,00
-4515,86	954,00
-4502,49	1118,00
-4489,13	1109,00
-4475,80	1143,00
-4462,49	882,00
-4449,21	1010,00
-4435,94	853,00
-4422,70	858,00
-4409,47	881,00
-4396,27	1038,00
-4383,09	921,00
-4369,93	978,00
-4356,79	823,00
-4343,67	923,00
-4330,58	963,00
-4317,50	971,00
-4304,45	956,00
-4291,41	1003,00
-4278,40	929,00
-4265,41	815,00
-4252,44	851,00
-4239,49	886,00
-4226,55	1011,00
-4213,65	920,00
-4200,76	955,00
-4187,89	878,00
-4175,04	802,00
-4162,21	763,00
-4149,40	939,00
-4136,61	814,00
-4123,85	790,00
-4111,10	869,00
-4098,37	903,00
-4085,66	898,00
-4072,98	926,00
-4060,31	815,00
-4047,66	949,00
-4035,04	937,00
-4022,43	872,00
-4009,84	880,00
-3997,27	700,00
-3984,72	772,00
-3972,19	872,00
-3959,69	884,00
-3947,20	810,00
-3934,73	867,00
-3922,27	820,00
-3909,84	753,00
-3897,43	818,00
-3885,04	872,00
-3872,67	876,00
-3860,31	841,00
-3847,98	846,00
-3835,66	764,00
-3823,36	891,00
-3811,09	780,00
-3798,83	819,00
-3786,59	925,00
-3774,37	985,00
-3762,17	825,00
-3749,98	873,00
-3737,82	737,00
-3725,67	960,00
-3713,55	815,00
-3701,44	911,00
-3689,35	888,00
-3677,28	990,00
-3665,22	791,00
-3653,19	751,00
-3641,17	827,00
-3629,18	801,00
-3617,20	826,00
-3605,24	876,00
-3593,30	905,00
-3581,37	903,00
-3569,47	870,00
-3557,58	815,00
-3545,71	951,00
-3533,86	942,00
-3522,02	839,00
-3510,21	887,00
-3498,41	858,00
-3486,63	817,00
-3474,87	929,00
-3463,12	853,00
-3451,40	804,00
-3439,69	864,00
-3428,00	794,00
-3416,33	814,00
-3404,67	696,00
-3393,03	877,00
-3381,41	917,00
-3369,81	877,00
-3358,22	885,00
-3346,66	973,00
-3335,10	872,00
-3323,57	818,00
-3312,06	833,00
-3300,56	892,00
-3289,08	755,00
-3277,61	776,00
-3266,16	763,00
-3254,73	827,00
-3243,32	861,00
-3231,92	784,00
-3220,55	961,00
-3209,18	920,00
-3197,84	854,00
-3186,51	754,00
-3175,20	841,00
-3163,90	786,00
-3152,63	927,00
-3141,36	730,00
-3130,12	891,00
-3118,89	872,00
-3107,68	721,00
-3096,49	850,00
-3085,31	844,00
-3074,15	836,00
-3063,00	856,00
-3051,87	905,00
-3040,76	812,00
-3029,67	1019,00
-3018,59	1032,00
-3007,52	1006,00
-2996,48	856,00
-2985,44	888,00
-2974,43	886,00
-2963,43	780,00
-2952,45	832,00
-2941,48	872,00
-2930,53	795,00
-2919,60	782,00
-2908,68	787,00
-2897,78	837,00
-2886,89	847,00
-2876,02	848,00
-2865,17	827,00
-2854,33	852,00
-2843,50	781,00
-2832,70	854,00
-2821,90	884,00
-2811,13	866,00
-2800,37	861,00
-2789,62	826,00
-2778,89	843,00
-2768,18	898,00
-2757,48	908,00
-2746,80	910,00
-2736,13	839,00
-2725,48	929,00
-2714,84	824,00
-2704,22	797,00
-2693,61	814,00
-2683,02	797,00
-2672,45	824,00
-2661,89	805,00
-2651,34	894,00
-2640,81	818,00
-2630,30	942,00
-2619,80	804,00
-2609,31	877,00
-2598,84	788,00
-2588,39	750,00
-2577,95	798,00
-2567,52	724,00
-2557,11	832,00
-2546,71	904,00
-2536,33	882,00
-2525,97	823,00
-2515,62	825,00
-2505,28	796,00
-2494,96	777,00
-2484,65	972,00
-2474,36	1194,00
-2464,08	759,00
-2453,82	968,00
-2443,57	770,00
-2433,33	796,00
-2423,11	973,00
-2412,91	918,00
-2402,72	803,00
-2392,54	791,00
-2382,38	863,00
-2372,23	909,00
-2362,09	1784,00
-2351,97	831,00
-2341,87	765,00
-2331,78	916,00
-2321,70	937,00
-2311,64	883,00
-2301,59	828,00
-2291,55	791,00
-2281,53	849,00
-2271,53	751,00
-2261,53	870,00
-2251,55	881,00
-2241,59	903,00
-2231,64	829,00
-2221,70	825,00
-2211,78	832,00
-2201,87	871,00
-2191,97	791,00
-2182,09	839,00
-2172,22	928,00
-2162,37	783,00
-2152,53	784,00
-2142,70	758,00
-2132,89	769,00
-2123,09	918,00
-2113,30	904,00
-2103,53	793,00
-2093,77	867,00
-2084,02	805,00
-2074,29	910,00
-2064,57	914,00
-2054,86	841,00
-2045,17	958,00
-2035,49	796,00
-2025,82	752,00
-2016,17	817,00
-2006,53	842,00
-1996,91	814,00
-1987,29	841,00
-1977,69	817,00
-1968,11	801,00
-1958,53	786,00
-1948,97	837,00
-1939,42	779,00
-1929,89	792,00
-1920,37	849,00
-1910,86	750,00
-1901,36	887,00
-1891,88	817,00
-1882,41	799,00
-1872,95	832,00
-1863,51	938,00
-1854,08	882,00
-1844,66	784,00
-1835,26	983,00
-1825,86	1045,00
-1816,48	784,00
-1807,11	868,00
-1797,76	854,00
-1788,42	843,00
-1779,09	904,00
-1769,77	788,00
-1760,47	874,00
-1751,17	757,00
-1741,89	799,00
-1732,63	856,00
-1723,37	982,00
-1714,13	959,00
-1704,90	836,00
-1695,68	953,00
-1686,48	813,00
-1677,29	832,00
-1668,11	1008,00
-1658,94	865,00
-1649,78	763,00
-1640,64	880,00
-1631,51	832,00
-1622,39	941,00
-1613,28	847,00
-1604,19	924,00
-1595,10	875,00
-1586,03	784,00
-1576,97	923,00
-1567,93	831,00
-1558,89	830,00
-1549,87	911,00
-1540,86	709,00
-1531,86	883,00
-1522,87	752,00
-1513,90	967,00
-1504,93	847,00
-1495,98	918,00
-1487,04	899,00
-1478,12	728,00
-1469,20	803,00
-1460,30	899,00
-1451,40	1048,00
-1442,52	871,00
-1433,65	932,00
-1424,80	845,00
-1415,95	723,00
-1407,12	1001,00
-1398,30	777,00
-1389,48	821,00
-1380,69	768,00
-1371,90	808,00
-1363,12	862,00
-1354,36	992,00
-1345,60	830,00
-1336,86	933,00
-1328,13	1073,00
-1319,41	856,00
-1310,70	854,00
-1302,01	772,00
-1293,32	770,00
-1284,65	843,00
-1275,99	887,00
-1267,33	959,00
-1258,69	848,00
-1250,06	823,00
-1241,45	750,00
-1232,84	998,00
-1224,25	895,00
-1215,66	841,00
-1207,09	878,00
-1198,53	804,00
-1189,97	985,00
-1181,43	744,00
-1172,91	879,00
-1164,39	947,00
-1155,88	715,00
-1147,38	723,00
-1138,90	806,00
-1130,43	824,00
-1121,96	803,00
-1113,51	917,00
-1105,07	959,00
-1096,64	908,00
-1088,22	818,00
-1079,81	879,00
-1071,41	985,00
-1063,02	830,00
-1054,65	907,00
-1046,28	899,00
-1037,92	919,00
-1029,58	858,00
-1021,24	823,00
-1012,92	1104,00
-1004,61	830,00
-996,30	1013,00
-988,01	704,00
-979,73	856,00
-971,46	785,00
-963,20	833,00
-954,95	728,00
-946,71	812,00
-938,48	951,00
-930,26	861,00
-922,06	934,00
-913,86	822,00
-905,67	800,00
-897,49	934,00
-889,33	741,00
-881,17	943,00
-873,02	901,00
-864,89	782,00
-856,76	780,00
-848,65	877,00
-840,54	898,00
-832,45	906,00
-824,36	691,00
-816,29	889,00
-808,22	905,00
-800,17	854,00
-792,12	927,00
-784,09	932,00
-776,06	840,00
-768,05	808,00
-760,04	762,00
-752,05	853,00
-744,07	829,00
-736,09	880,00
-728,13	735,00
-720,17	850,00
-712,23	784,00
-704,29	726,00
-696,37	835,00
-688,45	914,00
-680,55	890,00
-672,65	827,00
-664,77	819,00
-656,89	797,00
-649,03	839,00
-641,17	848,00
-633,32	851,00
-625,49	872,00
-617,66	787,00
-609,84	930,00
-602,03	715,00
-594,23	870,00
-586,45	885,00
-578,67	818,00
-570,90	854,00
-563,14	786,00
-555,39	941,00
-547,65	877,00
-539,91	812,00
-532,19	885,00
-524,48	878,00
-516,78	762,00
-509,08	876,00
-501,40	816,00
-493,72	814,00
-486,06	747,00
-478,40	853,00
-470,76	716,00
-463,12	817,00
-455,49	804,00
-447,87	833,00
-440,26	778,00
-432,66	816,00
-425,07	889,00
-417,49	957,00
-409,92	685,00
-402,35	760,00
-394,80	726,00
-387,25	849,00
-379,72	848,00
-372,19	943,00
-364,67	818,00
-357,17	865,00
-349,67	899,00
-342,18	843,00
-334,69	931,00
-327,22	827,00
-319,76	873,00
-312,30	824,00
-304,86	864,00
-297,42	827,00
-290,00	847,00
-282,58	839,00
-275,17	930,00
-267,77	1014,00
-260,37	859,00
-252,99	970,00
-245,62	935,00
-238,25	893,00
-230,90	822,00
-223,55	921,00
-216,21	906,00
-208,88	1125,00
-201,56	895,00
-194,25	1023,00
-186,94	996,00
-179,65	981,00
-172,36	1038,00
-165,08	1080,00
-157,81	1249,00
-150,55	1189,00
-143,30	1212,00
-136,06	1145,00
-128,82	1302,00
-121,60	1269,00
-114,38	1406,00
-107,17	1533,00
-99,97	1682,00
-92,78	1636,00
-85,60	1752,00
-78,42	1925,00
-71,25	2097,00
-64,10	2275,00
-56,95	2587,00
-49,81	2884,00
-42,67	3487,00
-35,55	4083,00
-28,43	5097,00
-21,33	7942,00
-14,23	24845,00
-7,14	57498,00
-0,05	57284,00
7,02	57012,00
14,09	57319,00
21,14	21124,00
28,19	9429,00
35,23	6268,00
42,27	5054,00
49,29	4126,00
56,31	3632,00
63,32	3323,00
70,32	2699,00
77,31	2547,00
84,29	2157,00
91,27	2141,00
98,23	2098,00
105,19	1884,00
112,14	2265,00
119,09	2845,00
126,02	4309,00
132,95	4893,00
139,87	4935,00
146,78	5050,00
153,68	4909,00
160,58	4808,00
167,46	4579,00
174,34	4728,00
181,21	4686,00
188,08	4626,00
194,93	4721,00
201,78	4629,00
208,62	4573,00
215,45	4599,00
222,27	4722,00
229,09	4693,00
235,90	4486,00
242,70	4556,00
249,49	4577,00
256,27	4285,00
263,05	4350,00
269,82	4223,00
276,58	4288,00
283,33	4044,00
290,08	4114,00
296,82	3982,00
303,55	3846,00
310,27	3836,00
316,98	3895,00
323,69	3896,00
330,39	3793,00
337,08	3827,00
343,76	3874,00
350,44	3988,00
357,11	3856,00
363,77	3843,00
370,42	3807,00
377,07	3740,00
383,71	3727,00
390,34	3753,00
396,96	3777,00
403,58	3750,00
410,19	3947,00
416,79	4024,00
423,38	4107,00
429,97	4143,00
436,55	3930,00
443,12	4104,00
449,68	4102,00
456,24	4018,00
462,79	3831,00
469,33	3774,00
475,86	3493,00
482,39	3470,00
488,91	3509,00
495,42	3237,00
501,93	3372,00
508,42	3235,00
514,91	3358,00
521,40	3280,00
527,87	3250,00
534,34	3163,00
540,80	3163,00
547,25	3252,00
553,70	3191,00
560,14	3325,00
566,57	3223,00
573,00	3243,00
579,41	3324,00
585,83	3376,00
592,23	3298,00
598,62	3499,00
605,01	3517,00
611,40	3631,00
617,77	3597,00
624,14	3369,00
630,50	3228,00
636,85	3198,00
643,20	3053,00
649,54	2940,00
655,87	3019,00
662,20	2942,00
668,52	2906,00
674,83	2985,00
681,13	2872,00
687,43	2885,00
693,72	2753,00
700,00	2694,00
706,28	2810,00
712,55	2799,00
718,81	2861,00
725,07	2849,00
731,32	2785,00
737,56	2825,00
743,79	2767,00
750,02	2796,00
756,24	2645,00
762,46	2734,00
768,67	2966,00
774,87	2623,00
781,06	2684,00
787,25	2798,00
793,43	2725,00
799,60	2639,00
805,77	2893,00
811,93	2789,00
818,08	2739,00
824,23	2731,00
830,37	2938,00
836,50	2823,00
842,63	2733,00
848,75	2747,00
854,87	2673,00
860,97	2852,00
867,07	2768,00
873,17	2750,00
879,25	2830,00
885,33	2776,00
891,41	2844,00
897,47	2797,00
903,53	2645,00
909,59	2725,00
915,63	2609,00
921,67	2669,00
927,71	2722,00
933,74	2702,00
939,76	2444,00
945,77	2519,00
951,78	2610,00
957,78	2465,00
963,78	2560,00
969,77	2571,00
975,75	2459,00
981,72	2443,00
987,69	3879,00
993,66	2621,00
999,61	2570,00
1005,56	2581,00
1011,51	2506,00
1017,44	2526,00
1023,37	2606,00
1029,30	2545,00
1035,22	2603,00
1041,13	2626,00
1047,03	2966,00
1052,93	3448,00
1058,83	4758,00
1064,71	5441,00
1070,59	4414,00
1076,47	3557,00
1082,33	3303,00
1088,20	3237,00
1094,05	2912,00
1099,90	2725,00
1105,74	2818,00
1111,58	2868,00
1117,41	3125,00
1123,23	4001,00
1129,05	5066,00
1134,86	4671,00
1140,67	3555,00
1146,47	2927,00
1152,26	2773,00
1158,05	2660,00
1163,83	2695,00
1169,60	2817,00
1175,37	2889,00
1181,13	2677,00
1186,89	2426,00
1192,64	2440,00
1198,38	2620,00
1204,12	2335,00
1209,85	2386,00
1215,58	2342,00
1221,30	2521,00
1227,02	2508,00
1232,72	2366,00
1238,43	2353,00
1244,12	2328,00
1249,81	2329,00
1255,50	2590,00
1261,17	2501,00
1266,85	2641,00
1272,51	2671,00
1278,17	2845,00
1283,83	3084,00
1289,47	4677,00
1295,12	6328,00
1300,75	5668,00
1306,38	4300,00
1312,01	3493,00
1317,63	2987,00
1323,24	2781,00
1328,85	2680,00
1334,45	2519,00
1340,04	2519,00
1345,63	2467,00
1351,22	2581,00
1356,80	2513,00
1362,37	2661,00
1367,93	2671,00
1373,49	2682,00
1379,05	2595,00
1384,60	2495,00
1390,14	2519,00
1395,68	2488,00
1401,21	2595,00
1406,74	2852,00
1412,26	3525,00
1417,77	4127,00
1423,28	3866,00
1428,78	4287,00
1434,28	5356,00
1439,77	6171,00
1445,26	6069,00
1450,74	5668,00
1456,22	5200,00
1461,68	5051,00
1467,15	4697,00
1472,61	4024,00
1478,06	3642,00
1483,51	3087,00
1488,95	2611,00
1494,38	2657,00
1499,81	2410,00
1505,24	2361,00
1510,65	2384,00
1516,07	2324,00
1521,48	2221,00
1526,88	2099,00
1532,27	2230,00
1537,67	2146,00
1543,05	2192,00
1548,43	2116,00
1553,81	2223,00
1559,18	2025,00
1564,54	2019,00
1569,90	2029,00
1575,25	1920,00
1580,60	1835,00
1585,94	2051,00
1591,28	2084,00
1596,61	1989,00
1601,93	1971,00
1607,25	2132,00
1612,57	1941,00
1617,88	1933,00
1623,18	2070,00
1628,48	1970,00
1633,77	1939,00
1639,06	1977,00
1644,34	1912,00
1649,62	1828,00
1654,89	1920,00
1660,16	1829,00
1665,42	1971,00
1670,67	1860,00
1675,92	1786,00
1681,17	1769,00
1686,41	1877,00
1691,64	1854,00
1696,87	1787,00
1702,10	1880,00
1707,32	1773,00
1712,53	1795,00
1717,74	1755,00
1722,94	1876,00
1728,14	1768,00
1733,33	1787,00
1738,52	1673,00
1743,70	1740,00
1748,88	1703,00
1754,05	1765,00
1759,22	1588,00
1764,38	980,00
1769,53	1747,00
1774,69	1700,00
1779,83	1633,00
1784,97	1707,00
1790,11	1647,00
1795,24	1655,00
1800,36	1697,00
1805,48	1598,00
1810,60	1708,00
1815,71	1664,00
1820,82	1533,00
1825,92	1707,00
1831,01	1538,00
1836,10	1690,00
1841,19	1719,00
1846,26	1488,00
1851,34	1581,00
1856,41	1608,00
1861,47	1503,00
1866,53	1621,00
1871,59	1555,00
1876,64	1599,00
1881,68	1532,00
1886,72	1519,00
1891,76	1524,00
1896,79	1474,00
1901,81	1422,00
1906,83	1506,00
1911,85	1468,00
1916,86	1559,00
1921,86	1452,00
1926,86	1392,00
1931,86	1619,00
1936,85	1485,00
1941,83	1481,00
1946,81	1510,00
1951,79	1330,00
1956,76	1411,00
1961,72	1281,00
1966,68	1368,00
1971,64	1363,00
1976,59	1463,00
1981,54	1395,00
1986,48	1368,00
1991,42	1313,00
1996,35	1610,00
2001,27	1418,00
2006,20	1390,00
2011,11	1410,00
2016,03	1322,00
2020,93	1326,00
2025,84	1327,00
2030,73	1312,00
2035,63	1244,00
2040,52	1372,00
2045,40	1383,00
2050,28	1392,00
2055,15	1342,00
2060,02	1215,00
2064,89	1430,00
2069,75	1363,00
2074,60	1288,00
2079,46	1210,00
2084,30	1357,00
2089,14	1142,00
2093,98	1349,00
2098,81	1358,00
2103,64	1324,00
2108,46	1367,00
2113,28	1343,00
2118,09	1421,00
2122,90	1333,00
2127,70	1249,00
2132,50	1376,00
2137,30	1176,00
2142,09	1163,00
2146,87	1179,00
2151,66	1302,00
2156,43	1291,00
2161,20	1273,00
2165,97	1463,00
2170,73	1262,00
2175,49	1407,00
2180,24	1303,00
2184,99	1566,00
2189,74	1504,00
2194,48	1377,00
2199,21	1423,00
2203,94	1234,00
2208,67	1231,00
2213,39	1176,00
2218,11	1222,00
2222,82	1279,00
2227,53	1271,00
2232,23	1317,00
2236,93	1327,00
2241,63	1208,00
2246,32	1351,00
2251,00	1223,00
2255,68	1272,00
2260,36	1197,00
2265,03	1297,00
2269,70	1367,00
2274,36	1291,00
2279,02	1214,00
2283,68	1300,00
2288,33	1196,00
2292,97	1276,00
2297,61	1183,00
2302,25	1256,00
2306,88	1181,00
2311,51	1158,00
2316,14	1249,00
2320,75	1085,00
2325,37	1075,00
2329,98	1242,00
2334,59	1212,00
2339,19	1103,00
2343,79	1058,00
2348,38	1232,00
2352,97	1091,00
2357,55	1219,00
2362,13	1173,00
2366,71	1099,00
2371,28	1305,00
2375,85	1203,00
2380,41	1186,00
2384,97	1081,00
2389,52	1236,00
2394,07	1177,00
2398,62	1209,00
2403,16	1239,00
2407,70	1022,00
2412,23	1195,00
2416,76	1242,00
2421,29	1194,00
2425,81	1228,00
2430,32	1151,00
2434,84	1086,00
2439,34	1147,00
2443,85	1392,00
2448,35	1219,00
2452,84	1126,00
2457,33	1143,00
2461,82	1028,00
2466,30	994,00
2470,78	1147,00
2475,25	1067,00
2479,72	1150,00
2484,19	1213,00
2488,65	1160,00
2493,11	1181,00
2497,56	1201,00
2502,01	987,00
2506,46	1152,00
2510,90	1092,00
2515,34	1046,00
2519,77	1168,00
2524,20	1116,00
2528,62	1162,00
2533,04	1111,00
2537,46	1126,00
2541,87	1018,00
2546,28	1113,00
2550,68	1236,00
2555,08	1111,00
2559,48	1077,00
2563,87	1063,00
2568,26	1115,00
2572,64	1168,00
2577,02	1249,00
2581,40	1083,00
2585,77	1177,00
2590,14	1144,00
2594,50	1034,00
2598,86	1226,00
2603,22	1200,00
2607,57	1100,00
2611,92	1190,00
2616,26	1212,00
2620,60	1249,00
2624,94	1125,00
2629,27	1221,00
2633,60	1161,00
2637,92	1221,00
2642,24	1232,00
2646,56	1250,00
2650,87	1016,00
2655,18	1297,00
2659,48	1065,00
2663,78	1112,00
2668,08	1105,00
2672,37	1215,00
2676,66	1225,00
2680,95	1151,00
2685,23	1301,00
2689,50	1209,00
2693,78	1288,00
2698,05	1220,00
2702,31	1250,00
2706,57	1476,00
2710,83	1414,00
2715,08	1531,00
2719,33	1536,00
2723,58	1498,00
2727,82	1555,00
2732,06	1491,00
2736,29	1421,00
2740,53	1380,00
2744,75	1360,00
2748,97	1347,00
2753,19	1287,00
2757,41	1303,00
2761,62	1369,00
2765,83	1405,00
2770,03	1328,00
2774,23	1419,00
2778,43	1250,00
2782,62	1387,00
2786,81	1349,00
2791,00	1418,00
2795,18	1491,00
2799,35	1562,00
2803,53	1583,00
2807,70	1619,00
2811,86	1698,00
2816,03	1781,00
2820,19	1775,00
2824,34	1796,00
2828,49	1996,00
2832,64	2350,00
2836,78	2756,00
2840,92	3274,00
2845,06	3887,00
2849,19	4390,00
2853,32	4410,00
2857,45	4372,00
2861,57	4309,00
2865,69	4237,00
2869,80	4090,00
2873,91	4289,00
2878,02	4833,00
2882,12	5150,00
2886,22	5063,00
2890,32	4864,00
2894,41	4618,00
2898,50	4082,00
2902,58	3911,00
2906,67	3517,00
2910,74	3399,00
2914,82	3023,00
2918,89	3080,00
2922,96	2672,00
2927,02	2573,00
2931,08	2481,00
2935,13	2256,00
2939,19	2277,00
2943,24	2034,00
2947,28	1997,00
2951,32	1711,00
2955,36	1585,00
2959,40	1681,00
2963,43	1571,00
2967,46	1434,00
2971,48	1500,00
2975,50	1366,00
2979,52	1451,00
2983,53	1389,00
2987,54	1263,00
2991,55	1290,00
2995,55	1268,00
2999,55	1184,00
3003,54	1083,00
3007,54	1275,00
3011,53	1127,00
3015,51	1146,00
3019,49	1095,00
3023,47	1039,00
3027,45	1196,00
3031,42	1018,00
3035,39	1083,00
3039,35	1033,00
3043,31	1075,00
3047,27	971,00
3051,22	1031,00
3055,17	942,00
3059,12	950,00
3063,06	947,00
3067,00	928,00
3070,94	896,00
3074,87	1034,00
3078,80	925,00
3082,73	928,00
3086,65	988,00
3090,57	937,00
3094,49	891,00
3098,40	922,00
3102,31	952,00
3106,22	926,00
3110,12	981,00
3114,02	822,00
3117,92	879,00
3121,81	885,00
3125,70	965,00
3129,58	865,00
3133,47	833,00
3137,34	922,00
3141,22	974,00
3145,09	909,00
3148,96	923,00
3152,83	825,00
3156,69	997,00
3160,55	808,00
3164,40	1018,00
3168,26	948,00
3172,10	940,00
3175,95	986,00
3179,79	922,00
3183,63	919,00
3187,47	840,00
3191,30	954,00
3195,13	901,00
3198,95	789,00
3202,78	922,00
3206,60	912,00
3210,41	864,00
3214,23	806,00
3218,03	898,00
3221,84	886,00
3225,64	928,00
3229,44	771,00
3233,24	953,00
3237,03	840,00
3240,82	879,00
3244,61	810,00
3248,39	895,00
3252,17	921,00
3255,95	1024,00
3259,72	875,00
3263,49	1036,00
3267,26	871,00
3271,03	883,00
3274,79	778,00
3278,54	857,00
3282,30	772,00
3286,05	907,00
3289,80	899,00
3293,54	880,00
3297,29	942,00
3301,02	881,00
3304,76	839,00
3308,49	826,00
3312,22	745,00
3315,95	869,00
3319,67	848,00
3323,39	995,00
3327,10	965,00
3330,82	817,00
3334,53	856,00
3338,24	856,00
3341,94	831,00
3345,64	898,00
3349,34	828,00
3353,03	891,00
3356,72	882,00
3360,41	912,00
3364,10	845,00
3367,78	913,00
3371,46	854,00
3375,13	862,00
3378,81	860,00
3382,48	719,00
3386,14	962,00
3389,81	793,00
3393,47	867,00
3397,12	1038,00
3400,78	878,00
3404,43	828,00
3408,08	850,00
3411,72	782,00
3415,36	758,00
3419,00	846,00
3422,64	751,00
3426,27	854,00
3429,90	834,00
3433,53	786,00
3437,15	832,00
3440,77	781,00
3444,39	866,00
3448,00	851,00
3451,62	857,00
3455,22	808,00
3458,83	730,00
3462,43	797,00
3466,03	944,00
3469,63	733,00
3473,22	881,00
3476,81	796,00
3480,40	860,00
3483,99	779,00
3487,57	855,00
3491,15	815,00
3494,72	883,00
3498,29	883,00
3501,86	729,00
3505,43	796,00
3508,99	775,00
3512,56	705,00
3516,11	873,00
3519,67	777,00
3523,22	929,00
3526,77	732,00
3530,32	947,00
3533,86	908,00
3537,40	1017,00
3540,94	894,00
3544,47	765,00
3548,00	758,00
3551,53	909,00
3555,06	819,00
3558,58	835,00
3562,10	852,00
3565,62	692,00
3569,13	822,00
3572,64	914,00
3576,15	726,00
3579,66	787,00
3583,16	760,00
3586,66	785,00
3590,16	790,00
3593,65	755,00
3597,14	739,00
3600,63	696,00
3604,11	812,00
3607,60	853,00
3611,08	810,00
3614,55	842,00
3618,03	731,00
3621,50	785,00
3624,97	724,00
3628,43	826,00
3631,90	738,00
3635,36	630,00
3638,81	837,00
3642,27	753,00
3645,72	725,00
3649,17	781,00
3652,61	718,00
3656,06	767,00
3659,50	741,00
3662,93	819,00
3666,37	850,00
3669,80	945,00
3673,23	845,00
3676,65	751,00
3680,08	877,00
3683,50	670,00
3686,92	737,00
3690,33	741,00
3693,74	720,00
3697,15	766,00
3700,56	830,00
3703,96	762,00
3707,36	645,00
3710,76	744,00
3714,16	731,00
3717,55	711,00
3720,94	752,00
3724,33	776,00
3727,71	801,00
3731,10	831,00
3734,48	802,00
3737,85	712,00
3741,23	748,00
3744,60	624,00
3747,97	674,00
3751,33	754,00
3754,69	684,00
3758,05	724,00
3761,41	693,00
3764,77	659,00
3768,12	661,00
3771,47	611,00
3774,82	710,00
3778,16	-11,00
3781,50	15,00
3784,84	4,00
3788,18	12,00
>>>>>End Processed Spectral Data<<<<<
