SpectraSuite Data File
++++++++++++++++++++++++++++++++++++
Date: Mon Jan 05 16:32:01 ICT 2026
User: Administrator
Dark Spectrum Present: Yes
Reference Spectrum Present: No
Number of Sampled Component Spectra: 1
Spectrometers: MAYP113682
Integration Time (usec): 3000000 (MAYP113682)
Spectra Averaged: 1 (MAYP113682)
Boxcar Smoothing: 0 (MAYP113682)
Correct for Electrical Dark: No (MAYP113682)
Strobe/Lamp Enabled: No (MAYP113682)
Correct for Detector Non-linearity: No (MAYP113682)
Correct for Stray Light: No (MAYP113682)
Number of Pixels in Processed Spectrum: 2068
>>>>>Begin Processed Spectral Data<<<<<
-37534,58	28,00
-37414,56	6,00
-37295,11	8,00
-37176,24	4,00
-37057,95	542,00
-36940,22	593,00
-36823,05	602,00
-36706,45	737,00
-36590,40	676,00
-36474,90	649,00
-36359,95	751,00
-36245,55	786,00
-36131,68	654,00
-36018,35	739,00
-35905,55	685,00
-35793,29	705,00
-35681,54	657,00
-35570,32	684,00
-35459,62	661,00
-35349,43	816,00
-35239,75	765,00
-35130,58	659,00
-35021,91	783,00
-34913,74	780,00
-34806,07	772,00
-34698,89	799,00
-34592,20	656,00
-34486,00	722,00
-34380,28	890,00
-34275,04	650,00
-34170,27	640,00
-34065,98	908,00
-33962,16	811,00
-33858,81	865,00
-33755,92	754,00
-33653,49	921,00
-33551,52	860,00
-33450,01	845,00
-33348,94	797,00
-33248,33	711,00
-33148,16	776,00
-33048,43	770,00
-32949,14	944,00
-32850,29	831,00
-32751,87	795,00
-32653,89	864,00
-32556,33	854,00
-32459,20	658,00
-32362,49	789,00
-32266,19	749,00
-32170,32	786,00
-32074,86	845,00
-31979,82	887,00
-31885,18	920,00
-31790,95	846,00
-31697,12	881,00
-31603,69	815,00
-31510,67	850,00
-31418,04	859,00
-31325,80	814,00
-31233,95	737,00
-31142,49	760,00
-31051,42	732,00
-30960,73	980,00
-30870,43	985,00
-30780,50	808,00
-30690,95	851,00
-30601,77	894,00
-30512,97	865,00
-30424,53	824,00
-30336,46	837,00
-30248,76	816,00
-30161,42	851,00
-30074,44	742,00
-29987,81	814,00
-29901,55	874,00
-29815,63	790,00
-29730,07	944,00
-29644,86	887,00
-29560,00	848,00
-29475,48	838,00
-29391,30	832,00
-29307,47	813,00
-29223,97	803,00
-29140,81	785,00
-29057,99	869,00
-28975,50	740,00
-28893,34	891,00
-28811,51	756,00
-28730,00	860,00
-28648,82	798,00
-28567,97	875,00
-28487,43	759,00
-28407,21	852,00
-28327,32	716,00
-28247,73	969,00
-28168,46	771,00
-28089,50	814,00
-28010,85	732,00
-27932,51	774,00
-27854,48	771,00
-27776,75	701,00
-27699,32	824,00
-27622,19	774,00
-27545,37	797,00
-27468,84	837,00
-27392,60	852,00
-27316,66	813,00
-27241,01	771,00
-27165,66	793,00
-27090,59	720,00
-27015,81	954,00
-26941,31	952,00
-26867,10	795,00
-26793,17	901,00
-26719,52	833,00
-26646,15	818,00
-26573,06	757,00
-26500,24	740,00
-26427,70	854,00
-26355,43	684,00
-26283,43	801,00
-26211,71	803,00
-26140,25	841,00
-26069,06	1006,00
-25998,13	777,00
-25927,46	664,00
-25857,06	761,00
-25786,92	768,00
-25717,04	730,00
-25647,42	837,00
-25578,05	697,00
-25508,94	798,00
-25440,09	819,00
-25371,48	777,00
-25303,13	971,00
-25235,02	820,00
-25167,17	807,00
-25099,56	885,00
-25032,19	733,00
-24965,07	753,00
-24898,20	759,00
-24831,56	712,00
-24765,17	784,00
-24699,01	762,00
-24633,10	860,00
-24567,41	783,00
-24501,97	722,00
-24436,75	809,00
-24371,77	802,00
-24307,03	780,00
-24242,51	761,00
-24178,22	735,00
-24114,16	808,00
-24050,32	923,00
-23986,71	780,00
-23923,32	774,00
-23860,16	801,00
-23797,22	818,00
-23734,50	818,00
-23672,00	786,00
-23609,71	830,00
-23547,65	710,00
-23485,80	873,00
-23424,16	723,00
-23362,74	972,00
-23301,53	761,00
-23240,54	690,00
-23179,75	702,00
-23119,17	802,00
-23058,80	809,00
-22998,64	863,00
-22938,68	800,00
-22878,93	785,00
-22819,39	685,00
-22760,04	732,00
-22700,90	788,00
-22641,96	800,00
-22583,22	744,00
-22524,68	807,00
-22466,33	738,00
-22408,19	813,00
-22350,23	785,00
-22292,48	795,00
-22234,92	905,00
-22177,55	887,00
-22120,37	986,00
-22063,38	749,00
-22006,58	797,00
-21949,98	764,00
-21893,56	660,00
-21837,33	811,00
-21781,28	736,00
-21725,42	824,00
-21669,74	885,00
-21614,25	786,00
-21558,94	819,00
-21503,81	827,00
-21448,86	913,00
-21394,10	762,00
-21339,51	775,00
-21285,10	664,00
-21230,86	691,00
-21176,81	755,00
-21122,93	766,00
-21069,22	689,00
-21015,69	741,00
-20962,33	815,00
-20909,14	727,00
-20856,13	778,00
-20803,28	799,00
-20750,61	729,00
-20698,10	674,00
-20645,76	747,00
-20593,59	876,00
-20541,59	744,00
-20489,75	809,00
-20438,07	713,00
-20386,56	783,00
-20335,22	658,00
-20284,03	687,00
-20233,01	760,00
-20182,15	725,00
-20131,45	774,00
-20080,91	735,00
-20030,52	773,00
-19980,30	782,00
-19930,23	679,00
-19880,32	812,00
-19830,56	800,00
-19780,96	773,00
-19731,52	657,00
-19682,23	785,00
-19633,09	747,00
-19584,10	702,00
-19535,26	759,00
-19486,58	1014,00
-19438,04	800,00
-19389,66	853,00
-19341,42	725,00
-19293,33	801,00
-19245,39	763,00
-19197,60	847,00
-19149,95	850,00
-19102,45	816,00
-19055,09	732,00
-19007,87	753,00
-18960,80	836,00
-18913,87	773,00
-18867,09	809,00
-18820,44	937,00
-18773,94	748,00
-18727,57	764,00
-18681,35	692,00
-18635,26	785,00
-18589,31	738,00
-18543,50	669,00
-18497,83	777,00
-18452,29	759,00
-18406,89	716,00
-18361,63	798,00
-18316,50	845,00
-18271,50	853,00
-18226,63	849,00
-18181,90	768,00
-18137,30	878,00
-18092,84	769,00
-18048,50	897,00
-18004,29	752,00
-17960,22	677,00
-17916,27	803,00
-17872,45	786,00
-17828,76	888,00
-17785,20	773,00
-17741,77	780,00
-17698,46	836,00
-17655,28	733,00
-17612,22	783,00
-17569,29	698,00
-17526,48	840,00
-17483,79	830,00
-17441,23	704,00
-17398,79	840,00
-17356,48	753,00
-17314,28	899,00
-17272,21	841,00
-17230,26	730,00
-17188,42	722,00
-17146,71	827,00
-17105,12	748,00
-17063,64	762,00
-17022,28	763,00
-16981,04	736,00
-16939,92	852,00
-16898,91	898,00
-16858,02	702,00
-16817,25	811,00
-16776,59	753,00
-16736,04	773,00
-16695,61	798,00
-16655,29	759,00
-16615,09	720,00
-16574,99	755,00
-16535,01	823,00
-16495,15	834,00
-16455,39	843,00
-16415,74	746,00
-16376,21	769,00
-16336,78	691,00
-16297,46	775,00
-16258,26	676,00
-16219,16	777,00
-16180,17	769,00
-16141,28	863,00
-16102,51	852,00
-16063,84	759,00
-16025,27	816,00
-15986,82	653,00
-15948,46	805,00
-15910,22	715,00
-15872,07	759,00
-15834,04	768,00
-15796,10	680,00
-15758,27	963,00
-15720,54	791,00
-15682,91	733,00
-15645,39	902,00
-15607,97	833,00
-15570,64	722,00
-15533,42	906,00
-15496,30	848,00
-15459,28	785,00
-15422,36	718,00
-15385,54	813,00
-15348,82	744,00
-15312,19	903,00
-15275,66	693,00
-15239,23	807,00
-15202,90	697,00
-15166,67	741,00
-15130,53	868,00
-15094,48	859,00
-15058,54	652,00
-15022,68	721,00
-14986,93	724,00
-14951,26	814,00
-14915,69	783,00
-14880,22	617,00
-14844,84	779,00
-14809,55	728,00
-14774,35	750,00
-14739,25	781,00
-14704,24	816,00
-14669,32	697,00
-14634,49	746,00
-14599,75	872,00
-14565,10	698,00
-14530,55	827,00
-14496,08	815,00
-14461,70	765,00
-14427,41	749,00
-14393,21	688,00
-14359,10	779,00
-14325,07	762,00
-14291,14	705,00
-14257,29	786,00
-14223,52	789,00
-14189,85	832,00
-14156,26	757,00
-14122,76	684,00
-14089,34	727,00
-14056,01	766,00
-14022,76	787,00
-13989,60	761,00
-13956,52	797,00
-13923,53	813,00
-13890,62	710,00
-13857,79	792,00
-13825,05	709,00
-13792,39	672,00
-13759,81	869,00
-13727,31	775,00
-13694,90	800,00
-13662,57	795,00
-13630,31	930,00
-13598,14	816,00
-13566,05	747,00
-13534,05	756,00
-13502,12	808,00
-13470,27	746,00
-13438,50	822,00
-13406,80	751,00
-13375,19	775,00
-13343,66	811,00
-13312,20	739,00
-13280,83	739,00
-13249,53	791,00
-13218,30	652,00
-13187,16	724,00
-13156,09	926,00
-13125,10	857,00
-13094,18	808,00
-13063,34	676,00
-13032,58	752,00
-13001,89	787,00
-12971,28	843,00
-12940,74	756,00
-12910,27	799,00
-12879,88	788,00
-12849,57	874,00
-12819,33	867,00
-12789,16	823,00
-12759,06	743,00
-12729,04	738,00
-12699,09	2058,00
-12669,21	752,00
-12639,41	851,00
-12609,68	719,00
-12580,02	835,00
-12550,43	837,00
-12520,91	708,00
-12491,46	779,00
-12462,08	710,00
-12432,77	831,00
-12403,54	807,00
-12374,37	738,00
-12345,27	879,00
-12316,24	735,00
-12287,29	798,00
-12258,40	766,00
-12229,57	905,00
-12200,82	735,00
-12172,14	836,00
-12143,52	659,00
-12114,97	726,00
-12086,49	818,00
-12058,07	864,00
-12029,73	818,00
-12001,44	850,00
-11973,23	794,00
-11945,08	786,00
-11917,00	761,00
-11888,98	745,00
-11861,03	862,00
-11833,15	716,00
-11805,32	824,00
-11777,57	813,00
-11749,88	849,00
-11722,25	791,00
-11694,69	727,00
-11667,19	807,00
-11639,75	929,00
-11612,38	724,00
-11585,07	712,00
-11557,83	719,00
-11530,65	916,00
-11503,53	715,00
-11476,47	782,00
-11449,48	759,00
-11422,54	877,00
-11395,67	802,00
-11368,86	850,00
-11342,11	773,00
-11315,43	745,00
-11288,80	738,00
-11262,23	784,00
-11235,73	743,00
-11209,28	980,00
-11182,90	819,00
-11156,57	785,00
-11130,31	952,00
-11104,10	772,00
-11077,96	698,00
-11051,87	751,00
-11025,84	680,00
-10999,87	863,00
-10973,96	704,00
-10948,11	676,00
-10922,31	847,00
-10896,58	844,00
-10870,90	907,00
-10845,28	885,00
-10819,71	701,00
-10794,20	837,00
-10768,75	847,00
-10743,36	911,00
-10718,02	739,00
-10692,74	854,00
-10667,52	810,00
-10642,35	813,00
-10617,24	772,00
-10592,18	909,00
-10567,18	731,00
-10542,23	835,00
-10517,34	808,00
-10492,51	895,00
-10467,72	853,00
-10443,00	917,00
-10418,32	963,00
-10393,70	953,00
-10369,14	855,00
-10344,63	770,00
-10320,17	994,00
-10295,77	931,00
-10271,42	920,00
-10247,12	976,00
-10222,88	1031,00
-10198,68	916,00
-10174,54	1010,00
-10150,46	1030,00
-10126,42	1122,00
-10102,44	1039,00
-10078,51	1015,00
-10054,63	1117,00
-10030,80	1098,00
-10007,03	1176,00
-9983,30	1161,00
-9959,63	1275,00
-9936,01	1324,00
-9912,44	1225,00
-9888,92	1186,00
-9865,44	1177,00
-9842,02	1297,00
-9818,65	1334,00
-9795,33	1178,00
-9772,06	1407,00
-9748,84	1319,00
-9725,67	1473,00
-9702,55	1479,00
-9679,47	1576,00
-9656,45	1793,00
-9633,47	1636,00
-9610,55	1756,00
-9587,67	1989,00
-9564,84	2157,00
-9542,06	2184,00
-9519,32	2393,00
-9496,64	2447,00
-9474,00	2591,00
-9451,41	2707,00
-9428,87	2775,00
-9406,37	2659,00
-9383,92	2538,00
-9361,52	2544,00
-9339,17	2796,00
-9316,86	3014,00
-9294,60	3338,00
-9272,38	3537,00
-9250,21	4005,00
-9228,09	4135,00
-9206,01	4055,00
-9183,98	3710,00
-9162,00	3480,00
-9140,06	3466,00
-9118,16	3459,00
-9096,31	3425,00
-9074,51	3612,00
-9052,75	3800,00
-9031,04	3675,00
-9009,37	3396,00
-8987,74	3244,00
-8966,16	3002,00
-8944,63	2737,00
-8923,14	2712,00
-8901,69	2632,00
-8880,29	2596,00
-8858,93	3019,00
-8837,61	3272,00
-8816,34	3406,00
-8795,11	3331,00
-8773,92	3059,00
-8752,78	2810,00
-8731,68	2613,00
-8710,62	2852,00
-8689,61	2782,00
-8668,63	3034,00
-8647,70	3228,00
-8626,82	3094,00
-8605,97	3199,00
-8585,17	2990,00
-8564,41	2787,00
-8543,69	2563,00
-8523,01	2497,00
-8502,37	2661,00
-8481,78	2723,00
-8461,23	2673,00
-8440,71	3036,00
-8420,24	3059,00
-8399,81	3266,00
-8379,42	3124,00
-8359,08	2964,00
-8338,77	2714,00
-8318,50	2549,00
-8298,27	2448,00
-8278,09	2698,00
-8257,94	2771,00
-8237,83	2915,00
-8217,76	2979,00
-8197,74	2930,00
-8177,75	2906,00
-8157,80	2570,00
-8137,89	2574,00
-8118,02	2386,00
-8098,19	2399,00
-8078,40	2434,00
-8058,65	2523,00
-8038,93	2667,00
-8019,26	2447,00
-7999,62	2491,00
-7980,02	2367,00
-7960,46	2232,00
-7940,94	2233,00
-7921,46	2101,00
-7902,01	2135,00
-7882,60	2211,00
-7863,23	2117,00
-7843,90	2244,00
-7824,61	2260,00
-7805,35	2497,00
-7786,13	2407,00
-7766,95	2383,00
-7747,80	2345,00
-7728,69	2300,00
-7709,62	2174,00
-7690,59	2241,00
-7671,59	2424,00
-7652,63	2388,00
-7633,70	2310,00
-7614,81	2294,00
-7595,96	2200,00
-7577,15	2137,00
-7558,37	2009,00
-7539,62	2125,00
-7520,91	2109,00
-7502,24	2226,00
-7483,60	2333,00
-7465,00	2189,00
-7446,44	2197,00
-7427,91	1713,00
-7409,41	1721,00
-7390,95	1692,00
-7372,53	1603,00
-7354,14	1647,00
-7335,78	1756,00
-7317,46	1670,00
-7299,18	1723,00
-7280,92	1967,00
-7262,71	2184,00
-7244,52	2190,00
-7226,38	2124,00
-7208,26	2000,00
-7190,18	2005,00
-7172,14	1824,00
-7154,12	2006,00
-7136,15	2008,00
-7118,20	2242,00
-7100,29	2100,00
-7082,41	2133,00
-7064,57	2010,00
-7046,76	2025,00
-7028,98	1759,00
-7011,24	1813,00
-6993,53	1536,00
-6975,85	1492,00
-6958,20	1398,00
-6940,59	1369,00
-6923,01	1208,00
-6905,46	1692,00
-6887,94	1652,00
-6870,46	-239,00
-6853,01	2061,00
-6835,59	1922,00
-6818,21	1808,00
-6800,85	1750,00
-6783,53	1476,00
-6766,24	1326,00
-6748,98	1357,00
-6731,76	1251,00
-6714,56	1252,00
-6697,40	1178,00
-6680,26	1211,00
-6663,16	1334,00
-6646,09	1543,00
-6629,05	1707,00
-6612,05	1693,00
-6595,07	1612,00
-6578,13	1769,00
-6561,21	1340,00
-6544,33	1350,00
-6527,47	1039,00
-6510,65	1256,00
-6493,86	1063,00
-6477,10	1123,00
-6460,36	1210,00
-6443,66	1107,00
-6426,99	1179,00
-6410,35	1132,00
-6393,74	1253,00
-6377,16	1143,00
-6360,61	1324,00
-6344,09	1221,00
-6327,59	1238,00
-6311,13	1550,00
-6294,70	1420,00
-6278,29	1454,00
-6261,92	1531,00
-6245,58	1572,00
-6229,26	1625,00
-6212,97	1532,00
-6196,72	1278,00
-6180,49	1188,00
-6164,29	970,00
-6148,12	1130,00
-6131,98	1043,00
-6115,86	984,00
-6099,78	995,00
-6083,72	910,00
-6067,69	886,00
-6051,69	899,00
-6035,72	1009,00
-6019,78	1010,00
-6003,87	1261,00
-5987,98	1271,00
-5972,12	1431,00
-5956,29	1335,00
-5940,49	1168,00
-5924,71	1329,00
-5908,96	957,00
-5893,24	1129,00
-5877,55	1044,00
-5861,89	1073,00
-5846,25	927,00
-5830,64	1116,00
-5815,05	1060,00
-5799,50	959,00
-5783,97	1033,00
-5768,47	1102,00
-5752,99	1322,00
-5737,55	1217,00
-5722,12	1335,00
-5706,73	1282,00
-5691,36	1262,00
-5676,02	1114,00
-5660,71	1036,00
-5645,42	970,00
-5630,16	1079,00
-5614,92	1144,00
-5599,71	1065,00
-5584,53	1163,00
-5569,37	1149,00
-5554,24	2141,00
-5539,14	1014,00
-5524,06	1166,00
-5509,01	1053,00
-5493,98	1163,00
-5478,98	1207,00
-5464,00	1133,00
-5449,05	1094,00
-5434,13	1087,00
-5419,23	1040,00
-5404,36	919,00
-5389,51	1078,00
-5374,69	1329,00
-5359,89	1369,00
-5345,12	1403,00
-5330,37	1473,00
-5315,65	1236,00
-5300,95	1168,00
-5286,28	1090,00
-5271,63	945,00
-5257,01	1101,00
-5242,41	1121,00
-5227,84	932,00
-5213,29	1021,00
-5198,76	921,00
-5184,26	1006,00
-5169,79	911,00
-5155,33	1025,00
-5140,91	1062,00
-5126,51	1161,00
-5112,13	1240,00
-5097,77	1073,00
-5083,44	985,00
-5069,13	878,00
-5054,85	951,00
-5040,59	1020,00
-5026,36	1155,00
-5012,15	1181,00
-4997,96	1165,00
-4983,80	1040,00
-4969,66	950,00
-4955,54	894,00
-4941,44	1092,00
-4927,37	1067,00
-4913,33	1353,00
-4899,30	1290,00
-4885,30	1335,00
-4871,33	1061,00
-4857,37	953,00
-4843,44	880,00
-4829,53	1063,00
-4815,65	1091,00
-4801,79	920,00
-4787,95	1085,00
-4774,13	973,00
-4760,34	906,00
-4746,56	1053,00
-4732,82	837,00
-4719,09	1016,00
-4705,38	1283,00
-4691,70	1322,00
-4678,04	1328,00
-4664,41	1224,00
-4650,79	1127,00
-4637,20	871,00
-4623,63	916,00
-4610,08	1125,00
-4596,56	1083,00
-4583,05	990,00
-4569,57	1044,00
-4556,11	1034,00
-4542,67	804,00
-4529,25	891,00
-4515,86	996,00
-4502,49	1176,00
-4489,13	1218,00
-4475,80	1204,00
-4462,49	985,00
-4449,21	1058,00
-4435,94	883,00
-4422,70	904,00
-4409,47	950,00
-4396,27	1037,00
-4383,09	989,00
-4369,93	929,00
-4356,79	771,00
-4343,67	890,00
-4330,58	981,00
-4317,50	1090,00
-4304,45	1035,00
-4291,41	950,00
-4278,40	818,00
-4265,41	752,00
-4252,44	947,00
-4239,49	843,00
-4226,55	1093,00
-4213,65	926,00
-4200,76	902,00
-4187,89	932,00
-4175,04	800,00
-4162,21	822,00
-4149,40	941,00
-4136,61	860,00
-4123,85	747,00
-4111,10	918,00
-4098,37	835,00
-4085,66	853,00
-4072,98	890,00
-4060,31	795,00
-4047,66	965,00
-4035,04	1037,00
-4022,43	888,00
-4009,84	762,00
-3997,27	723,00
-3984,72	832,00
-3972,19	858,00
-3959,69	787,00
-3947,20	787,00
-3934,73	859,00
-3922,27	707,00
-3909,84	768,00
-3897,43	807,00
-3885,04	840,00
-3872,67	816,00
-3860,31	857,00
-3847,98	883,00
-3835,66	793,00
-3823,36	847,00
-3811,09	759,00
-3798,83	814,00
-3786,59	806,00
-3774,37	863,00
-3762,17	691,00
-3749,98	783,00
-3737,82	771,00
-3725,67	1017,00
-3713,55	749,00
-3701,44	844,00
-3689,35	728,00
-3677,28	894,00
-3665,22	810,00
-3653,19	777,00
-3641,17	735,00
-3629,18	797,00
-3617,20	779,00
-3605,24	875,00
-3593,30	858,00
-3581,37	878,00
-3569,47	821,00
-3557,58	785,00
-3545,71	784,00
-3533,86	863,00
-3522,02	839,00
-3510,21	805,00
-3498,41	857,00
-3486,63	812,00
-3474,87	800,00
-3463,12	734,00
-3451,40	781,00
-3439,69	753,00
-3428,00	810,00
-3416,33	888,00
-3404,67	741,00
-3393,03	784,00
-3381,41	842,00
-3369,81	884,00
-3358,22	792,00
-3346,66	860,00
-3335,10	825,00
-3323,57	820,00
-3312,06	890,00
-3300,56	842,00
-3289,08	732,00
-3277,61	778,00
-3266,16	789,00
-3254,73	878,00
-3243,32	784,00
-3231,92	742,00
-3220,55	886,00
-3209,18	985,00
-3197,84	759,00
-3186,51	764,00
-3175,20	719,00
-3163,90	808,00
-3152,63	827,00
-3141,36	773,00
-3130,12	848,00
-3118,89	859,00
-3107,68	729,00
-3096,49	864,00
-3085,31	833,00
-3074,15	821,00
-3063,00	839,00
-3051,87	853,00
-3040,76	788,00
-3029,67	908,00
-3018,59	1023,00
-3007,52	1025,00
-2996,48	836,00
-2985,44	840,00
-2974,43	806,00
-2963,43	735,00
-2952,45	878,00
-2941,48	739,00
-2930,53	761,00
-2919,60	678,00
-2908,68	801,00
-2897,78	785,00
-2886,89	850,00
-2876,02	805,00
-2865,17	781,00
-2854,33	826,00
-2843,50	765,00
-2832,70	866,00
-2821,90	786,00
-2811,13	858,00
-2800,37	815,00
-2789,62	684,00
-2778,89	764,00
-2768,18	838,00
-2757,48	833,00
-2746,80	855,00
-2736,13	813,00
-2725,48	840,00
-2714,84	696,00
-2704,22	858,00
-2693,61	796,00
-2683,02	758,00
-2672,45	851,00
-2661,89	896,00
-2651,34	828,00
-2640,81	862,00
-2630,30	923,00
-2619,80	790,00
-2609,31	889,00
-2598,84	730,00
-2588,39	771,00
-2577,95	805,00
-2567,52	742,00
-2557,11	706,00
-2546,71	771,00
-2536,33	882,00
-2525,97	870,00
-2515,62	883,00
-2505,28	829,00
-2494,96	758,00
-2484,65	800,00
-2474,36	1036,00
-2464,08	787,00
-2453,82	940,00
-2443,57	738,00
-2433,33	721,00
-2423,11	869,00
-2412,91	770,00
-2402,72	810,00
-2392,54	794,00
-2382,38	869,00
-2372,23	840,00
-2362,09	1769,00
-2351,97	818,00
-2341,87	750,00
-2331,78	772,00
-2321,70	848,00
-2311,64	780,00
-2301,59	826,00
-2291,55	734,00
-2281,53	890,00
-2271,53	676,00
-2261,53	935,00
-2251,55	857,00
-2241,59	721,00
-2231,64	861,00
-2221,70	754,00
-2211,78	815,00
-2201,87	860,00
-2191,97	900,00
-2182,09	829,00
-2172,22	845,00
-2162,37	722,00
-2152,53	692,00
-2142,70	824,00
-2132,89	813,00
-2123,09	839,00
-2113,30	760,00
-2103,53	788,00
-2093,77	839,00
-2084,02	748,00
-2074,29	923,00
-2064,57	882,00
-2054,86	869,00
-2045,17	915,00
-2035,49	815,00
-2025,82	704,00
-2016,17	817,00
-2006,53	820,00
-1996,91	845,00
-1987,29	788,00
-1977,69	777,00
-1968,11	754,00
-1958,53	763,00
-1948,97	764,00
-1939,42	853,00
-1929,89	810,00
-1920,37	793,00
-1910,86	790,00
-1901,36	829,00
-1891,88	775,00
-1882,41	827,00
-1872,95	890,00
-1863,51	849,00
-1854,08	776,00
-1844,66	827,00
-1835,26	874,00
-1825,86	819,00
-1816,48	790,00
-1807,11	901,00
-1797,76	854,00
-1788,42	795,00
-1779,09	836,00
-1769,77	750,00
-1760,47	948,00
-1751,17	817,00
-1741,89	816,00
-1732,63	956,00
-1723,37	957,00
-1714,13	892,00
-1704,90	835,00
-1695,68	968,00
-1686,48	768,00
-1677,29	733,00
-1668,11	1026,00
-1658,94	816,00
-1649,78	784,00
-1640,64	914,00
-1631,51	744,00
-1622,39	863,00
-1613,28	800,00
-1604,19	858,00
-1595,10	726,00
-1586,03	796,00
-1576,97	870,00
-1567,93	733,00
-1558,89	872,00
-1549,87	855,00
-1540,86	793,00
-1531,86	819,00
-1522,87	758,00
-1513,90	816,00
-1504,93	843,00
-1495,98	882,00
-1487,04	876,00
-1478,12	714,00
-1469,20	825,00
-1460,30	812,00
-1451,40	953,00
-1442,52	846,00
-1433,65	912,00
-1424,80	832,00
-1415,95	743,00
-1407,12	935,00
-1398,30	765,00
-1389,48	803,00
-1380,69	760,00
-1371,90	749,00
-1363,12	833,00
-1354,36	900,00
-1345,60	849,00
-1336,86	848,00
-1328,13	927,00
-1319,41	876,00
-1310,70	773,00
-1302,01	846,00
-1293,32	722,00
-1284,65	806,00
-1275,99	838,00
-1267,33	925,00
-1258,69	883,00
-1250,06	813,00
-1241,45	702,00
-1232,84	959,00
-1224,25	787,00
-1215,66	867,00
-1207,09	768,00
-1198,53	834,00
-1189,97	856,00
-1181,43	863,00
-1172,91	786,00
-1164,39	917,00
-1155,88	715,00
-1147,38	735,00
-1138,90	829,00
-1130,43	780,00
-1121,96	879,00
-1113,51	811,00
-1105,07	877,00
-1096,64	851,00
-1088,22	864,00
-1079,81	855,00
-1071,41	903,00
-1063,02	829,00
-1054,65	877,00
-1046,28	793,00
-1037,92	798,00
-1029,58	821,00
-1021,24	843,00
-1012,92	1051,00
-1004,61	819,00
-996,30	1077,00
-988,01	759,00
-979,73	809,00
-971,46	888,00
-963,20	819,00
-954,95	690,00
-946,71	787,00
-938,48	840,00
-930,26	850,00
-922,06	872,00
-913,86	838,00
-905,67	688,00
-897,49	869,00
-889,33	693,00
-881,17	905,00
-873,02	808,00
-864,89	713,00
-856,76	824,00
-848,65	845,00
-840,54	877,00
-832,45	796,00
-824,36	726,00
-816,29	822,00
-808,22	874,00
-800,17	832,00
-792,12	825,00
-784,09	826,00
-776,06	716,00
-768,05	816,00
-760,04	779,00
-752,05	779,00
-744,07	911,00
-736,09	916,00
-728,13	663,00
-720,17	782,00
-712,23	769,00
-704,29	759,00
-696,37	904,00
-688,45	840,00
-680,55	774,00
-672,65	789,00
-664,77	780,00
-656,89	852,00
-649,03	800,00
-641,17	932,00
-633,32	791,00
-625,49	899,00
-617,66	774,00
-609,84	895,00
-602,03	816,00
-594,23	863,00
-586,45	839,00
-578,67	769,00
-570,90	804,00
-563,14	728,00
-555,39	903,00
-547,65	845,00
-539,91	834,00
-532,19	904,00
-524,48	914,00
-516,78	774,00
-509,08	878,00
-501,40	763,00
-493,72	815,00
-486,06	805,00
-478,40	903,00
-470,76	774,00
-463,12	836,00
-455,49	788,00
-447,87	805,00
-440,26	753,00
-432,66	770,00
-425,07	842,00
-417,49	944,00
-409,92	670,00
-402,35	729,00
-394,80	673,00
-387,25	910,00
-379,72	753,00
-372,19	907,00
-364,67	904,00
-357,17	812,00
-349,67	886,00
-342,18	816,00
-334,69	876,00
-327,22	868,00
-319,76	892,00
-312,30	878,00
-304,86	778,00
-297,42	814,00
-290,00	800,00
-282,58	794,00
-275,17	903,00
-267,77	903,00
-260,37	770,00
-252,99	955,00
-245,62	1012,00
-238,25	819,00
-230,90	876,00
-223,55	951,00
-216,21	894,00
-208,88	1032,00
-201,56	932,00
-194,25	932,00
-186,94	951,00
-179,65	1090,00
-172,36	1080,00
-165,08	1036,00
-157,81	1118,00
-150,55	1116,00
-143,30	1168,00
-136,06	1205,00
-128,82	1206,00
-121,60	1244,00
-114,38	1442,00
-107,17	1514,00
-99,97	1686,00
-92,78	1669,00
-85,60	1722,00
-78,42	1854,00
-71,25	2133,00
-64,10	2215,00
-56,95	2572,00
-49,81	2867,00
-42,67	3455,00
-35,55	4019,00
-28,43	5167,00
-21,33	8095,00
-14,23	24940,00
-7,14	57498,00
-0,05	57284,00
7,02	57012,00
14,09	57319,00
21,14	21261,00
28,19	9375,00
35,23	6225,00
42,27	5007,00
49,29	4111,00
56,31	3577,00
63,32	3251,00
70,32	2718,00
77,31	2525,00
84,29	2218,00
91,27	2090,00
98,23	1952,00
105,19	1912,00
112,14	2119,00
119,09	2849,00
126,02	4151,00
132,95	4871,00
139,87	4814,00
146,78	5046,00
153,68	4860,00
160,58	4788,00
167,46	4689,00
174,34	4733,00
181,21	4804,00
188,08	4658,00
194,93	4712,00
201,78	4739,00
208,62	4655,00
215,45	4789,00
222,27	4597,00
229,09	4707,00
235,90	4497,00
242,70	4553,00
249,49	4610,00
256,27	4365,00
263,05	4282,00
269,82	4247,00
276,58	4210,00
283,33	4118,00
290,08	4055,00
296,82	4016,00
303,55	3949,00
310,27	3839,00
316,98	3920,00
323,69	3888,00
330,39	3795,00
337,08	3858,00
343,76	3979,00
350,44	3888,00
357,11	3768,00
363,77	3820,00
370,42	3747,00
377,07	3812,00
383,71	3778,00
390,34	3780,00
396,96	3853,00
403,58	3815,00
410,19	4005,00
416,79	4125,00
423,38	4144,00
429,97	4169,00
436,55	3966,00
443,12	4166,00
449,68	4161,00
456,24	4057,00
462,79	3911,00
469,33	3692,00
475,86	3601,00
482,39	3393,00
488,91	3491,00
495,42	3372,00
501,93	3393,00
508,42	3308,00
514,91	3400,00
521,40	3301,00
527,87	3289,00
534,34	3151,00
540,80	3185,00
547,25	3301,00
553,70	3211,00
560,14	3241,00
566,57	3245,00
573,00	3292,00
579,41	3298,00
585,83	3409,00
592,23	3349,00
598,62	3462,00
605,01	3381,00
611,40	3545,00
617,77	3638,00
624,14	3414,00
630,50	3271,00
636,85	3179,00
643,20	3104,00
649,54	3033,00
655,87	3032,00
662,20	3030,00
668,52	3008,00
674,83	2987,00
681,13	2949,00
687,43	2985,00
693,72	2866,00
700,00	2840,00
706,28	2862,00
712,55	2909,00
718,81	2907,00
725,07	2826,00
731,32	2784,00
737,56	2912,00
743,79	2917,00
750,02	2857,00
756,24	2741,00
762,46	2666,00
768,67	3036,00
774,87	2770,00
781,06	2629,00
787,25	2767,00
793,43	2778,00
799,60	2700,00
805,77	2797,00
811,93	2744,00
818,08	2770,00
824,23	2723,00
830,37	2991,00
836,50	2691,00
842,63	2827,00
848,75	2825,00
854,87	2717,00
860,97	2804,00
867,07	2739,00
873,17	2726,00
879,25	2805,00
885,33	2778,00
891,41	2799,00
897,47	2790,00
903,53	2679,00
909,59	2827,00
915,63	2715,00
921,67	2686,00
927,71	2681,00
933,74	2655,00
939,76	2420,00
945,77	2526,00
951,78	2718,00
957,78	2468,00
963,78	2581,00
969,77	2663,00
975,75	2507,00
981,72	2536,00
987,69	3956,00
993,66	2625,00
999,61	2621,00
1005,56	2625,00
1011,51	2658,00
1017,44	2556,00
1023,37	2711,00
1029,30	2547,00
1035,22	2659,00
1041,13	2692,00
1047,03	2890,00
1052,93	3416,00
1058,83	4755,00
1064,71	5128,00
1070,59	4406,00
1076,47	3643,00
1082,33	3359,00
1088,20	3300,00
1094,05	2993,00
1099,90	2766,00
1105,74	2820,00
1111,58	2885,00
1117,41	3121,00
1123,23	3984,00
1129,05	4972,00
1134,86	4451,00
1140,67	3453,00
1146,47	2854,00
1152,26	2802,00
1158,05	2635,00
1163,83	2798,00
1169,60	2808,00
1175,37	2811,00
1181,13	2669,00
1186,89	2487,00
1192,64	2494,00
1198,38	2612,00
1204,12	2431,00
1209,85	2325,00
1215,58	2441,00
1221,30	2445,00
1227,02	2459,00
1232,72	2420,00
1238,43	2379,00
1244,12	2391,00
1249,81	2505,00
1255,50	2594,00
1261,17	2592,00
1266,85	2620,00
1272,51	2674,00
1278,17	2890,00
1283,83	3122,00
1289,47	4600,00
1295,12	6119,00
1300,75	5366,00
1306,38	4302,00
1312,01	3503,00
1317,63	3003,00
1323,24	2833,00
1328,85	2755,00
1334,45	2549,00
1340,04	2645,00
1345,63	2476,00
1351,22	2664,00
1356,80	2663,00
1362,37	2696,00
1367,93	2752,00
1373,49	2721,00
1379,05	2576,00
1384,60	2538,00
1390,14	2553,00
1395,68	2552,00
1401,21	2587,00
1406,74	2880,00
1412,26	3466,00
1417,77	4079,00
1423,28	3861,00
1428,78	4321,00
1434,28	5321,00
1439,77	6118,00
1445,26	6013,00
1450,74	5550,00
1456,22	5143,00
1461,68	5010,00
1467,15	4673,00
1472,61	3956,00
1478,06	3658,00
1483,51	3078,00
1488,95	2641,00
1494,38	2650,00
1499,81	2390,00
1505,24	2404,00
1510,65	2396,00
1516,07	2282,00
1521,48	2344,00
1526,88	2194,00
1532,27	2224,00
1537,67	2185,00
1543,05	2237,00
1548,43	2098,00
1553,81	2176,00
1559,18	2066,00
1564,54	2072,00
1569,90	2153,00
1575,25	2007,00
1580,60	1971,00
1585,94	2227,00
1591,28	2040,00
1596,61	1993,00
1601,93	2076,00
1607,25	2065,00
1612,57	2091,00
1617,88	1987,00
1623,18	2118,00
1628,48	1962,00
1633,77	1946,00
1639,06	2060,00
1644,34	1971,00
1649,62	1867,00
1654,89	1847,00
1660,16	1895,00
1665,42	2018,00
1670,67	1795,00
1675,92	1840,00
1681,17	1846,00
1686,41	1835,00
1691,64	2002,00
1696,87	1898,00
1702,10	1824,00
1707,32	1912,00
1712,53	1776,00
1717,74	1828,00
1722,94	1859,00
1728,14	1853,00
1733,33	1763,00
1738,52	1643,00
1743,70	1868,00
1748,88	1728,00
1754,05	1801,00
1759,22	1693,00
1764,38	1993,00
1769,53	1767,00
1774,69	1752,00
1779,83	1735,00
1784,97	1717,00
1790,11	1814,00
1795,24	1669,00
1800,36	1689,00
1805,48	1609,00
1810,60	1733,00
1815,71	1613,00
1820,82	1603,00
1825,92	1674,00
1831,01	1593,00
1836,10	1597,00
1841,19	1676,00
1846,26	1490,00
1851,34	1658,00
1856,41	1646,00
1861,47	1578,00
1866,53	1745,00
1871,59	1604,00
1876,64	1631,00
1881,68	1558,00
1886,72	1592,00
1891,76	1583,00
1896,79	1605,00
1901,81	1453,00
1906,83	1549,00
1911,85	1428,00
1916,86	1564,00
1921,86	1529,00
1926,86	1511,00
1931,86	1561,00
1936,85	1543,00
1941,83	1429,00
1946,81	1452,00
1951,79	1432,00
1956,76	1439,00
1961,72	1282,00
1966,68	1473,00
1971,64	1418,00
1976,59	1424,00
1981,54	1465,00
1986,48	1496,00
1991,42	1328,00
1996,35	1705,00
2001,27	1278,00
2006,20	1349,00
2011,11	1496,00
2016,03	1395,00
2020,93	1304,00
2025,84	1419,00
2030,73	1386,00
2035,63	1316,00
2040,52	1388,00
2045,40	1403,00
2050,28	1401,00
2055,15	1334,00
2060,02	1329,00
2064,89	1382,00
2069,75	1319,00
2074,60	1413,00
2079,46	1205,00
2084,30	1303,00
2089,14	1264,00
2093,98	1366,00
2098,81	1304,00
2103,64	1284,00
2108,46	1369,00
2113,28	1393,00
2118,09	1299,00
2122,90	1448,00
2127,70	1277,00
2132,50	1356,00
2137,30	1305,00
2142,09	1250,00
2146,87	1270,00
2151,66	1323,00
2156,43	1282,00
2161,20	1330,00
2165,97	1393,00
2170,73	1267,00
2175,49	1443,00
2180,24	1413,00
2184,99	1444,00
2189,74	1448,00
2194,48	1423,00
2199,21	1392,00
2203,94	1258,00
2208,67	1192,00
2213,39	1161,00
2218,11	1340,00
2222,82	1254,00
2227,53	1257,00
2232,23	1374,00
2236,93	1342,00
2241,63	1243,00
2246,32	1405,00
2251,00	1296,00
2255,68	1259,00
2260,36	1207,00
2265,03	1387,00
2269,70	1403,00
2274,36	1247,00
2279,02	1271,00
2283,68	1227,00
2288,33	1240,00
2292,97	1358,00
2297,61	1212,00
2302,25	1252,00
2306,88	1109,00
2311,51	1144,00
2316,14	1136,00
2320,75	1082,00
2325,37	1113,00
2329,98	1238,00
2334,59	1198,00
2339,19	1141,00
2343,79	1094,00
2348,38	1166,00
2352,97	1070,00
2357,55	1264,00
2362,13	1162,00
2366,71	1167,00
2371,28	1235,00
2375,85	1161,00
2380,41	1177,00
2384,97	1163,00
2389,52	1170,00
2394,07	1252,00
2398,62	1211,00
2403,16	1207,00
2407,70	985,00
2412,23	1131,00
2416,76	1251,00
2421,29	1257,00
2425,81	1255,00
2430,32	1279,00
2434,84	1068,00
2439,34	1121,00
2443,85	1339,00
2448,35	1107,00
2452,84	1153,00
2457,33	1166,00
2461,82	1040,00
2466,30	1090,00
2470,78	1192,00
2475,25	1096,00
2479,72	1122,00
2484,19	1204,00
2488,65	1177,00
2493,11	1051,00
2497,56	1228,00
2502,01	1001,00
2506,46	1184,00
2510,90	1073,00
2515,34	1087,00
2519,77	1145,00
2524,20	1113,00
2528,62	1141,00
2533,04	1128,00
2537,46	1103,00
2541,87	1085,00
2546,28	1071,00
2550,68	1199,00
2555,08	1184,00
2559,48	1125,00
2563,87	1038,00
2568,26	1036,00
2572,64	1165,00
2577,02	1195,00
2581,40	1067,00
2585,77	1194,00
2590,14	1136,00
2594,50	1089,00
2598,86	1211,00
2603,22	1080,00
2607,57	1121,00
2611,92	1084,00
2616,26	1289,00
2620,60	1196,00
2624,94	1111,00
2629,27	1171,00
2633,60	1128,00
2637,92	1253,00
2642,24	1260,00
2646,56	1130,00
2650,87	1121,00
2655,18	1213,00
2659,48	1144,00
2663,78	1126,00
2668,08	1139,00
2672,37	1170,00
2676,66	1157,00
2680,95	1151,00
2685,23	1285,00
2689,50	1245,00
2693,78	1334,00
2698,05	1200,00
2702,31	1367,00
2706,57	1417,00
2710,83	1450,00
2715,08	1497,00
2719,33	1528,00
2723,58	1485,00
2727,82	1469,00
2732,06	1410,00
2736,29	1360,00
2740,53	1317,00
2744,75	1329,00
2748,97	1364,00
2753,19	1312,00
2757,41	1374,00
2761,62	1417,00
2765,83	1366,00
2770,03	1241,00
2774,23	1349,00
2778,43	1311,00
2782,62	1396,00
2786,81	1403,00
2791,00	1311,00
2795,18	1449,00
2799,35	1543,00
2803,53	1492,00
2807,70	1603,00
2811,86	1580,00
2816,03	1759,00
2820,19	1708,00
2824,34	1802,00
2828,49	2019,00
2832,64	2230,00
2836,78	2711,00
2840,92	3097,00
2845,06	3766,00
2849,19	4098,00
2853,32	4321,00
2857,45	4313,00
2861,57	4186,00
2865,69	4088,00
2869,80	3906,00
2873,91	4149,00
2878,02	4537,00
2882,12	5025,00
2886,22	4932,00
2890,32	4653,00
2894,41	4342,00
2898,50	4096,00
2902,58	3754,00
2906,67	3601,00
2910,74	3188,00
2914,82	3026,00
2918,89	2974,00
2922,96	2565,00
2927,02	2489,00
2931,08	2404,00
2935,13	2198,00
2939,19	2160,00
2943,24	2020,00
2947,28	1923,00
2951,32	1682,00
2955,36	1643,00
2959,40	1734,00
2963,43	1443,00
2967,46	1442,00
2971,48	1402,00
2975,50	1416,00
2979,52	1319,00
2983,53	1292,00
2987,54	1239,00
2991,55	1294,00
2995,55	1224,00
2999,55	1160,00
3003,54	1107,00
3007,54	1186,00
3011,53	1109,00
3015,51	1134,00
3019,49	1184,00
3023,47	994,00
3027,45	1026,00
3031,42	1037,00
3035,39	1013,00
3039,35	975,00
3043,31	1024,00
3047,27	1000,00
3051,22	1047,00
3055,17	893,00
3059,12	946,00
3063,06	956,00
3067,00	899,00
3070,94	963,00
3074,87	1075,00
3078,80	959,00
3082,73	1002,00
3086,65	852,00
3090,57	968,00
3094,49	914,00
3098,40	883,00
3102,31	881,00
3106,22	873,00
3110,12	928,00
3114,02	783,00
3117,92	848,00
3121,81	896,00
3125,70	881,00
3129,58	789,00
3133,47	816,00
3137,34	942,00
3141,22	953,00
3145,09	926,00
3148,96	926,00
3152,83	940,00
3156,69	987,00
3160,55	839,00
3164,40	936,00
3168,26	839,00
3172,10	948,00
3175,95	880,00
3179,79	933,00
3183,63	824,00
3187,47	864,00
3191,30	895,00
3195,13	883,00
3198,95	820,00
3202,78	831,00
3206,60	799,00
3210,41	798,00
3214,23	842,00
3218,03	871,00
3221,84	869,00
3225,64	824,00
3229,44	840,00
3233,24	863,00
3237,03	885,00
3240,82	878,00
3244,61	753,00
3248,39	776,00
3252,17	886,00
3255,95	916,00
3259,72	893,00
3263,49	914,00
3267,26	818,00
3271,03	918,00
3274,79	825,00
3278,54	836,00
3282,30	811,00
3286,05	890,00
3289,80	931,00
3293,54	854,00
3297,29	957,00
3301,02	858,00
3304,76	800,00
3308,49	842,00
3312,22	776,00
3315,95	785,00
3319,67	805,00
3323,39	982,00
3327,10	828,00
3330,82	818,00
3334,53	879,00
3338,24	813,00
3341,94	817,00
3345,64	879,00
3349,34	811,00
3353,03	853,00
3356,72	883,00
3360,41	904,00
3364,10	800,00
3367,78	818,00
3371,46	816,00
3375,13	787,00
3378,81	831,00
3382,48	768,00
3386,14	849,00
3389,81	863,00
3393,47	841,00
3397,12	918,00
3400,78	845,00
3404,43	854,00
3408,08	892,00
3411,72	741,00
3415,36	768,00
3419,00	898,00
3422,64	770,00
3426,27	822,00
3429,90	767,00
3433,53	773,00
3437,15	771,00
3440,77	715,00
3444,39	825,00
3448,00	849,00
3451,62	869,00
3455,22	819,00
3458,83	744,00
3462,43	805,00
3466,03	885,00
3469,63	805,00
3473,22	794,00
3476,81	721,00
3480,40	822,00
3483,99	789,00
3487,57	850,00
3491,15	810,00
3494,72	805,00
3498,29	800,00
3501,86	791,00
3505,43	742,00
3508,99	722,00
3512,56	698,00
3516,11	920,00
3519,67	732,00
3523,22	861,00
3526,77	714,00
3530,32	995,00
3533,86	803,00
3537,40	1035,00
3540,94	805,00
3544,47	827,00
3548,00	709,00
3551,53	856,00
3555,06	796,00
3558,58	824,00
3562,10	797,00
3565,62	714,00
3569,13	854,00
3572,64	867,00
3576,15	706,00
3579,66	743,00
3583,16	751,00
3586,66	798,00
3590,16	839,00
3593,65	726,00
3597,14	676,00
3600,63	781,00
3604,11	735,00
3607,60	786,00
3611,08	805,00
3614,55	809,00
3618,03	714,00
3621,50	731,00
3624,97	676,00
3628,43	797,00
3631,90	823,00
3635,36	682,00
3638,81	821,00
3642,27	730,00
3645,72	802,00
3649,17	664,00
3652,61	714,00
3656,06	773,00
3659,50	784,00
3662,93	793,00
3666,37	750,00
3669,80	945,00
3673,23	817,00
3676,65	723,00
3680,08	836,00
3683,50	660,00
3686,92	690,00
3690,33	756,00
3693,74	738,00
3697,15	715,00
3700,56	792,00
3703,96	774,00
3707,36	607,00
3710,76	659,00
3714,16	690,00
3717,55	733,00
3720,94	584,00
3724,33	656,00
3727,71	754,00
3731,10	779,00
3734,48	712,00
3737,85	630,00
3741,23	717,00
3744,60	693,00
3747,97	558,00
3751,33	841,00
3754,69	669,00
3758,05	636,00
3761,41	626,00
3764,77	658,00
3768,12	641,00
3771,47	555,00
3774,82	704,00
3778,16	-10,00
3781,50	8,00
3784,84	4,00
3788,18	8,00
>>>>>End Processed Spectral Data<<<<<
