SpectraSuite Data File
++++++++++++++++++++++++++++++++++++
Date: Mon Jan 05 16:32:04 ICT 2026
User: Administrator
Dark Spectrum Present: Yes
Reference Spectrum Present: No
Number of Sampled Component Spectra: 1
Spectrometers: MAYP113682
Integration Time (usec): 3000000 (MAYP113682)
Spectra Averaged: 1 (MAYP113682)
Boxcar Smoothing: 0 (MAYP113682)
Correct for Electrical Dark: No (MAYP113682)
Strobe/Lamp Enabled: No (MAYP113682)
Correct for Detector Non-linearity: No (MAYP113682)
Correct for Stray Light: No (MAYP113682)
Number of Pixels in Processed Spectrum: 2068
>>>>>Begin Processed Spectral Data<<<<<
-37534,58	27,00
-37414,56	4,00
-37295,11	8,00
-37176,24	5,00
-37057,95	533,00
-36940,22	553,00
-36823,05	541,00
-36706,45	759,00
-36590,40	734,00
-36474,90	633,00
-36359,95	741,00
-36245,55	779,00
-36131,68	692,00
-36018,35	655,00
-35905,55	675,00
-35793,29	790,00
-35681,54	730,00
-35570,32	730,00
-35459,62	699,00
-35349,43	751,00
-35239,75	843,00
-35130,58	720,00
-35021,91	787,00
-34913,74	715,00
-34806,07	732,00
-34698,89	797,00
-34592,20	701,00
-34486,00	831,00
-34380,28	845,00
-34275,04	768,00
-34170,27	638,00
-34065,98	821,00
-33962,16	838,00
-33858,81	797,00
-33755,92	707,00
-33653,49	844,00
-33551,52	869,00
-33450,01	758,00
-33348,94	796,00
-33248,33	782,00
-33148,16	708,00
-33048,43	708,00
-32949,14	958,00
-32850,29	861,00
-32751,87	743,00
-32653,89	823,00
-32556,33	934,00
-32459,20	738,00
-32362,49	734,00
-32266,19	854,00
-32170,32	708,00
-32074,86	864,00
-31979,82	900,00
-31885,18	897,00
-31790,95	921,00
-31697,12	909,00
-31603,69	942,00
-31510,67	829,00
-31418,04	839,00
-31325,80	844,00
-31233,95	759,00
-31142,49	775,00
-31051,42	827,00
-30960,73	885,00
-30870,43	898,00
-30780,50	868,00
-30690,95	859,00
-30601,77	925,00
-30512,97	830,00
-30424,53	900,00
-30336,46	846,00
-30248,76	848,00
-30161,42	930,00
-30074,44	742,00
-29987,81	862,00
-29901,55	934,00
-29815,63	763,00
-29730,07	878,00
-29644,86	877,00
-29560,00	910,00
-29475,48	849,00
-29391,30	811,00
-29307,47	800,00
-29223,97	755,00
-29140,81	846,00
-29057,99	854,00
-28975,50	722,00
-28893,34	932,00
-28811,51	749,00
-28730,00	868,00
-28648,82	896,00
-28567,97	870,00
-28487,43	753,00
-28407,21	776,00
-28327,32	804,00
-28247,73	1008,00
-28168,46	805,00
-28089,50	816,00
-28010,85	726,00
-27932,51	700,00
-27854,48	796,00
-27776,75	763,00
-27699,32	844,00
-27622,19	716,00
-27545,37	858,00
-27468,84	924,00
-27392,60	900,00
-27316,66	841,00
-27241,01	866,00
-27165,66	807,00
-27090,59	700,00
-27015,81	862,00
-26941,31	959,00
-26867,10	789,00
-26793,17	881,00
-26719,52	794,00
-26646,15	767,00
-26573,06	783,00
-26500,24	831,00
-26427,70	757,00
-26355,43	729,00
-26283,43	870,00
-26211,71	844,00
-26140,25	899,00
-26069,06	921,00
-25998,13	759,00
-25927,46	817,00
-25857,06	806,00
-25786,92	836,00
-25717,04	738,00
-25647,42	893,00
-25578,05	801,00
-25508,94	827,00
-25440,09	859,00
-25371,48	888,00
-25303,13	914,00
-25235,02	716,00
-25167,17	803,00
-25099,56	776,00
-25032,19	813,00
-24965,07	704,00
-24898,20	753,00
-24831,56	716,00
-24765,17	849,00
-24699,01	766,00
-24633,10	842,00
-24567,41	849,00
-24501,97	791,00
-24436,75	743,00
-24371,77	709,00
-24307,03	784,00
-24242,51	741,00
-24178,22	781,00
-24114,16	812,00
-24050,32	914,00
-23986,71	823,00
-23923,32	787,00
-23860,16	829,00
-23797,22	776,00
-23734,50	823,00
-23672,00	771,00
-23609,71	748,00
-23547,65	724,00
-23485,80	814,00
-23424,16	640,00
-23362,74	990,00
-23301,53	830,00
-23240,54	679,00
-23179,75	705,00
-23119,17	771,00
-23058,80	772,00
-22998,64	855,00
-22938,68	808,00
-22878,93	793,00
-22819,39	741,00
-22760,04	717,00
-22700,90	774,00
-22641,96	861,00
-22583,22	784,00
-22524,68	664,00
-22466,33	799,00
-22408,19	784,00
-22350,23	761,00
-22292,48	777,00
-22234,92	874,00
-22177,55	809,00
-22120,37	971,00
-22063,38	748,00
-22006,58	843,00
-21949,98	784,00
-21893,56	656,00
-21837,33	810,00
-21781,28	746,00
-21725,42	746,00
-21669,74	901,00
-21614,25	854,00
-21558,94	859,00
-21503,81	825,00
-21448,86	846,00
-21394,10	776,00
-21339,51	743,00
-21285,10	678,00
-21230,86	758,00
-21176,81	706,00
-21122,93	740,00
-21069,22	714,00
-21015,69	790,00
-20962,33	791,00
-20909,14	705,00
-20856,13	848,00
-20803,28	739,00
-20750,61	729,00
-20698,10	687,00
-20645,76	733,00
-20593,59	886,00
-20541,59	818,00
-20489,75	863,00
-20438,07	609,00
-20386,56	898,00
-20335,22	709,00
-20284,03	761,00
-20233,01	758,00
-20182,15	730,00
-20131,45	797,00
-20080,91	681,00
-20030,52	821,00
-19980,30	780,00
-19930,23	761,00
-19880,32	769,00
-19830,56	789,00
-19780,96	825,00
-19731,52	788,00
-19682,23	881,00
-19633,09	754,00
-19584,10	606,00
-19535,26	860,00
-19486,58	873,00
-19438,04	779,00
-19389,66	865,00
-19341,42	683,00
-19293,33	818,00
-19245,39	785,00
-19197,60	797,00
-19149,95	793,00
-19102,45	747,00
-19055,09	663,00
-19007,87	768,00
-18960,80	842,00
-18913,87	769,00
-18867,09	782,00
-18820,44	878,00
-18773,94	718,00
-18727,57	804,00
-18681,35	714,00
-18635,26	836,00
-18589,31	694,00
-18543,50	778,00
-18497,83	777,00
-18452,29	724,00
-18406,89	647,00
-18361,63	839,00
-18316,50	792,00
-18271,50	743,00
-18226,63	965,00
-18181,90	850,00
-18137,30	881,00
-18092,84	799,00
-18048,50	844,00
-18004,29	809,00
-17960,22	726,00
-17916,27	792,00
-17872,45	909,00
-17828,76	977,00
-17785,20	793,00
-17741,77	718,00
-17698,46	838,00
-17655,28	710,00
-17612,22	770,00
-17569,29	701,00
-17526,48	808,00
-17483,79	829,00
-17441,23	737,00
-17398,79	821,00
-17356,48	691,00
-17314,28	944,00
-17272,21	756,00
-17230,26	744,00
-17188,42	777,00
-17146,71	826,00
-17105,12	835,00
-17063,64	801,00
-17022,28	718,00
-16981,04	721,00
-16939,92	828,00
-16898,91	820,00
-16858,02	752,00
-16817,25	867,00
-16776,59	734,00
-16736,04	800,00
-16695,61	853,00
-16655,29	691,00
-16615,09	685,00
-16574,99	776,00
-16535,01	798,00
-16495,15	821,00
-16455,39	771,00
-16415,74	787,00
-16376,21	731,00
-16336,78	733,00
-16297,46	755,00
-16258,26	722,00
-16219,16	743,00
-16180,17	774,00
-16141,28	890,00
-16102,51	747,00
-16063,84	739,00
-16025,27	759,00
-15986,82	767,00
-15948,46	808,00
-15910,22	756,00
-15872,07	765,00
-15834,04	784,00
-15796,10	761,00
-15758,27	897,00
-15720,54	741,00
-15682,91	728,00
-15645,39	933,00
-15607,97	907,00
-15570,64	718,00
-15533,42	836,00
-15496,30	782,00
-15459,28	814,00
-15422,36	763,00
-15385,54	675,00
-15348,82	818,00
-15312,19	901,00
-15275,66	685,00
-15239,23	752,00
-15202,90	800,00
-15166,67	770,00
-15130,53	848,00
-15094,48	782,00
-15058,54	751,00
-15022,68	706,00
-14986,93	703,00
-14951,26	786,00
-14915,69	834,00
-14880,22	679,00
-14844,84	792,00
-14809,55	781,00
-14774,35	844,00
-14739,25	706,00
-14704,24	822,00
-14669,32	735,00
-14634,49	741,00
-14599,75	804,00
-14565,10	740,00
-14530,55	862,00
-14496,08	821,00
-14461,70	902,00
-14427,41	755,00
-14393,21	658,00
-14359,10	677,00
-14325,07	817,00
-14291,14	758,00
-14257,29	854,00
-14223,52	828,00
-14189,85	905,00
-14156,26	822,00
-14122,76	681,00
-14089,34	713,00
-14056,01	762,00
-14022,76	733,00
-13989,60	840,00
-13956,52	816,00
-13923,53	853,00
-13890,62	698,00
-13857,79	816,00
-13825,05	727,00
-13792,39	646,00
-13759,81	826,00
-13727,31	736,00
-13694,90	784,00
-13662,57	928,00
-13630,31	781,00
-13598,14	765,00
-13566,05	659,00
-13534,05	738,00
-13502,12	725,00
-13470,27	733,00
-13438,50	926,00
-13406,80	692,00
-13375,19	744,00
-13343,66	827,00
-13312,20	890,00
-13280,83	733,00
-13249,53	873,00
-13218,30	660,00
-13187,16	723,00
-13156,09	903,00
-13125,10	913,00
-13094,18	816,00
-13063,34	748,00
-13032,58	678,00
-13001,89	804,00
-12971,28	854,00
-12940,74	752,00
-12910,27	815,00
-12879,88	839,00
-12849,57	883,00
-12819,33	906,00
-12789,16	845,00
-12759,06	848,00
-12729,04	677,00
-12699,09	2083,00
-12669,21	702,00
-12639,41	781,00
-12609,68	673,00
-12580,02	719,00
-12550,43	933,00
-12520,91	684,00
-12491,46	789,00
-12462,08	657,00
-12432,77	816,00
-12403,54	734,00
-12374,37	728,00
-12345,27	821,00
-12316,24	780,00
-12287,29	724,00
-12258,40	742,00
-12229,57	909,00
-12200,82	743,00
-12172,14	831,00
-12143,52	664,00
-12114,97	702,00
-12086,49	827,00
-12058,07	836,00
-12029,73	707,00
-12001,44	841,00
-11973,23	791,00
-11945,08	831,00
-11917,00	855,00
-11888,98	671,00
-11861,03	877,00
-11833,15	713,00
-11805,32	826,00
-11777,57	805,00
-11749,88	840,00
-11722,25	736,00
-11694,69	699,00
-11667,19	728,00
-11639,75	864,00
-11612,38	751,00
-11585,07	762,00
-11557,83	784,00
-11530,65	811,00
-11503,53	727,00
-11476,47	750,00
-11449,48	768,00
-11422,54	923,00
-11395,67	895,00
-11368,86	887,00
-11342,11	723,00
-11315,43	744,00
-11288,80	730,00
-11262,23	782,00
-11235,73	815,00
-11209,28	1011,00
-11182,90	810,00
-11156,57	740,00
-11130,31	887,00
-11104,10	754,00
-11077,96	785,00
-11051,87	784,00
-11025,84	734,00
-10999,87	732,00
-10973,96	785,00
-10948,11	824,00
-10922,31	817,00
-10896,58	746,00
-10870,90	963,00
-10845,28	792,00
-10819,71	733,00
-10794,20	912,00
-10768,75	878,00
-10743,36	868,00
-10718,02	738,00
-10692,74	884,00
-10667,52	773,00
-10642,35	832,00
-10617,24	863,00
-10592,18	867,00
-10567,18	753,00
-10542,23	864,00
-10517,34	840,00
-10492,51	900,00
-10467,72	797,00
-10443,00	830,00
-10418,32	945,00
-10393,70	986,00
-10369,14	849,00
-10344,63	817,00
-10320,17	851,00
-10295,77	916,00
-10271,42	869,00
-10247,12	925,00
-10222,88	969,00
-10198,68	884,00
-10174,54	889,00
-10150,46	1046,00
-10126,42	1163,00
-10102,44	1025,00
-10078,51	968,00
-10054,63	1091,00
-10030,80	1021,00
-10007,03	1219,00
-9983,30	1086,00
-9959,63	1103,00
-9936,01	1177,00
-9912,44	1137,00
-9888,92	1215,00
-9865,44	1198,00
-9842,02	1211,00
-9818,65	1286,00
-9795,33	1134,00
-9772,06	1176,00
-9748,84	1202,00
-9725,67	1332,00
-9702,55	1400,00
-9679,47	1519,00
-9656,45	1656,00
-9633,47	1465,00
-9610,55	1621,00
-9587,67	1762,00
-9564,84	1924,00
-9542,06	1948,00
-9519,32	2093,00
-9496,64	2274,00
-9474,00	2279,00
-9451,41	2315,00
-9428,87	2325,00
-9406,37	2441,00
-9383,92	2100,00
-9361,52	2170,00
-9339,17	2541,00
-9316,86	2559,00
-9294,60	2965,00
-9272,38	3194,00
-9250,21	3496,00
-9228,09	3430,00
-9206,01	3669,00
-9183,98	3263,00
-9162,00	3054,00
-9140,06	2971,00
-9118,16	2936,00
-9096,31	3042,00
-9074,51	3254,00
-9052,75	3294,00
-9031,04	3226,00
-9009,37	2948,00
-8987,74	2744,00
-8966,16	2603,00
-8944,63	2211,00
-8923,14	2421,00
-8901,69	2263,00
-8880,29	2366,00
-8858,93	2601,00
-8837,61	2883,00
-8816,34	2941,00
-8795,11	2857,00
-8773,92	2803,00
-8752,78	2528,00
-8731,68	2284,00
-8710,62	2548,00
-8689,61	2398,00
-8668,63	2572,00
-8647,70	2774,00
-8626,82	2785,00
-8605,97	2785,00
-8585,17	2671,00
-8564,41	2480,00
-8543,69	2287,00
-8523,01	2189,00
-8502,37	2310,00
-8481,78	2336,00
-8461,23	2220,00
-8440,71	2593,00
-8420,24	2715,00
-8399,81	2887,00
-8379,42	2762,00
-8359,08	2632,00
-8338,77	2324,00
-8318,50	2171,00
-8298,27	2095,00
-8278,09	2320,00
-8257,94	2464,00
-8237,83	2476,00
-8217,76	2549,00
-8197,74	2599,00
-8177,75	2574,00
-8157,80	2288,00
-8137,89	2150,00
-8118,02	2139,00
-8098,19	2231,00
-8078,40	2160,00
-8058,65	2210,00
-8038,93	2281,00
-8019,26	2226,00
-7999,62	2237,00
-7980,02	2095,00
-7960,46	1938,00
-7940,94	2008,00
-7921,46	1902,00
-7902,01	1835,00
-7882,60	1866,00
-7863,23	1869,00
-7843,90	1905,00
-7824,61	2028,00
-7805,35	2100,00
-7786,13	2054,00
-7766,95	2154,00
-7747,80	2043,00
-7728,69	2039,00
-7709,62	1944,00
-7690,59	2005,00
-7671,59	2244,00
-7652,63	2038,00
-7633,70	2094,00
-7614,81	2167,00
-7595,96	1956,00
-7577,15	1976,00
-7558,37	1800,00
-7539,62	1940,00
-7520,91	1872,00
-7502,24	2084,00
-7483,60	2042,00
-7465,00	2034,00
-7446,44	1879,00
-7427,91	1533,00
-7409,41	1646,00
-7390,95	1629,00
-7372,53	1331,00
-7354,14	1541,00
-7335,78	1526,00
-7317,46	1558,00
-7299,18	1544,00
-7280,92	1755,00
-7262,71	1978,00
-7244,52	1944,00
-7226,38	1984,00
-7208,26	1836,00
-7190,18	1847,00
-7172,14	1743,00
-7154,12	1702,00
-7136,15	1639,00
-7118,20	1896,00
-7100,29	2005,00
-7082,41	1948,00
-7064,57	1812,00
-7046,76	1799,00
-7028,98	1646,00
-7011,24	1592,00
-6993,53	1295,00
-6975,85	1401,00
-6958,20	1219,00
-6940,59	1250,00
-6923,01	1120,00
-6905,46	1402,00
-6887,94	1497,00
-6870,46	-479,00
-6853,01	1771,00
-6835,59	1738,00
-6818,21	1523,00
-6800,85	1616,00
-6783,53	1276,00
-6766,24	1150,00
-6748,98	1171,00
-6731,76	1155,00
-6714,56	1063,00
-6697,40	1059,00
-6680,26	1034,00
-6663,16	1100,00
-6646,09	1452,00
-6629,05	1553,00
-6612,05	1586,00
-6595,07	1422,00
-6578,13	1451,00
-6561,21	1241,00
-6544,33	1304,00
-6527,47	970,00
-6510,65	1025,00
-6493,86	948,00
-6477,10	1016,00
-6460,36	1097,00
-6443,66	969,00
-6426,99	996,00
-6410,35	1084,00
-6393,74	1131,00
-6377,16	1071,00
-6360,61	1198,00
-6344,09	1148,00
-6327,59	1232,00
-6311,13	1323,00
-6294,70	1290,00
-6278,29	1358,00
-6261,92	1348,00
-6245,58	1429,00
-6229,26	1442,00
-6212,97	1389,00
-6196,72	1182,00
-6180,49	1101,00
-6164,29	878,00
-6148,12	1068,00
-6131,98	963,00
-6115,86	909,00
-6099,78	913,00
-6083,72	912,00
-6067,69	847,00
-6051,69	917,00
-6035,72	845,00
-6019,78	988,00
-6003,87	1104,00
-5987,98	1175,00
-5972,12	1294,00
-5956,29	1255,00
-5940,49	1006,00
-5924,71	1212,00
-5908,96	931,00
-5893,24	921,00
-5877,55	965,00
-5861,89	966,00
-5846,25	839,00
-5830,64	951,00
-5815,05	877,00
-5799,50	944,00
-5783,97	1044,00
-5768,47	1011,00
-5752,99	1182,00
-5737,55	1150,00
-5722,12	1231,00
-5706,73	1183,00
-5691,36	1171,00
-5676,02	1090,00
-5660,71	979,00
-5645,42	894,00
-5630,16	981,00
-5614,92	1062,00
-5599,71	1030,00
-5584,53	1034,00
-5569,37	1092,00
-5554,24	2045,00
-5539,14	918,00
-5524,06	1084,00
-5509,01	1005,00
-5493,98	1052,00
-5478,98	1064,00
-5464,00	910,00
-5449,05	923,00
-5434,13	991,00
-5419,23	861,00
-5404,36	965,00
-5389,51	1005,00
-5374,69	1103,00
-5359,89	1290,00
-5345,12	1304,00
-5330,37	1306,00
-5315,65	1150,00
-5300,95	1101,00
-5286,28	955,00
-5271,63	844,00
-5257,01	1018,00
-5242,41	1109,00
-5227,84	903,00
-5213,29	940,00
-5198,76	852,00
-5184,26	947,00
-5169,79	881,00
-5155,33	957,00
-5140,91	955,00
-5126,51	1056,00
-5112,13	1093,00
-5097,77	1043,00
-5083,44	1025,00
-5069,13	843,00
-5054,85	987,00
-5040,59	986,00
-5026,36	1078,00
-5012,15	1096,00
-4997,96	1073,00
-4983,80	1024,00
-4969,66	940,00
-4955,54	883,00
-4941,44	989,00
-4927,37	1039,00
-4913,33	1195,00
-4899,30	1217,00
-4885,30	1185,00
-4871,33	1000,00
-4857,37	998,00
-4843,44	905,00
-4829,53	909,00
-4815,65	947,00
-4801,79	775,00
-4787,95	1062,00
-4774,13	875,00
-4760,34	888,00
-4746,56	968,00
-4732,82	782,00
-4719,09	1011,00
-4705,38	1144,00
-4691,70	1229,00
-4678,04	1245,00
-4664,41	1170,00
-4650,79	1101,00
-4637,20	797,00
-4623,63	822,00
-4610,08	1051,00
-4596,56	981,00
-4583,05	957,00
-4569,57	970,00
-4556,11	1015,00
-4542,67	784,00
-4529,25	858,00
-4515,86	952,00
-4502,49	1091,00
-4489,13	1230,00
-4475,80	1172,00
-4462,49	873,00
-4449,21	948,00
-4435,94	839,00
-4422,70	790,00
-4409,47	904,00
-4396,27	935,00
-4383,09	877,00
-4369,93	903,00
-4356,79	771,00
-4343,67	907,00
-4330,58	1024,00
-4317,50	1055,00
-4304,45	894,00
-4291,41	887,00
-4278,40	821,00
-4265,41	810,00
-4252,44	861,00
-4239,49	810,00
-4226,55	1032,00
-4213,65	888,00
-4200,76	921,00
-4187,89	888,00
-4175,04	770,00
-4162,21	727,00
-4149,40	880,00
-4136,61	774,00
-4123,85	806,00
-4111,10	798,00
-4098,37	849,00
-4085,66	863,00
-4072,98	855,00
-4060,31	798,00
-4047,66	881,00
-4035,04	1034,00
-4022,43	792,00
-4009,84	839,00
-3997,27	698,00
-3984,72	707,00
-3972,19	841,00
-3959,69	753,00
-3947,20	815,00
-3934,73	817,00
-3922,27	736,00
-3909,84	764,00
-3897,43	844,00
-3885,04	766,00
-3872,67	807,00
-3860,31	745,00
-3847,98	895,00
-3835,66	788,00
-3823,36	781,00
-3811,09	774,00
-3798,83	832,00
-3786,59	776,00
-3774,37	933,00
-3762,17	731,00
-3749,98	813,00
-3737,82	820,00
-3725,67	1042,00
-3713,55	791,00
-3701,44	849,00
-3689,35	833,00
-3677,28	929,00
-3665,22	753,00
-3653,19	802,00
-3641,17	767,00
-3629,18	857,00
-3617,20	828,00
-3605,24	824,00
-3593,30	882,00
-3581,37	835,00
-3569,47	823,00
-3557,58	890,00
-3545,71	844,00
-3533,86	841,00
-3522,02	825,00
-3510,21	904,00
-3498,41	806,00
-3486,63	778,00
-3474,87	758,00
-3463,12	762,00
-3451,40	825,00
-3439,69	844,00
-3428,00	760,00
-3416,33	784,00
-3404,67	743,00
-3393,03	758,00
-3381,41	872,00
-3369,81	869,00
-3358,22	860,00
-3346,66	940,00
-3335,10	853,00
-3323,57	785,00
-3312,06	823,00
-3300,56	836,00
-3289,08	743,00
-3277,61	756,00
-3266,16	808,00
-3254,73	829,00
-3243,32	837,00
-3231,92	693,00
-3220,55	924,00
-3209,18	959,00
-3197,84	775,00
-3186,51	734,00
-3175,20	751,00
-3163,90	673,00
-3152,63	829,00
-3141,36	758,00
-3130,12	819,00
-3118,89	882,00
-3107,68	799,00
-3096,49	784,00
-3085,31	736,00
-3074,15	831,00
-3063,00	791,00
-3051,87	789,00
-3040,76	824,00
-3029,67	932,00
-3018,59	987,00
-3007,52	916,00
-2996,48	900,00
-2985,44	844,00
-2974,43	965,00
-2963,43	692,00
-2952,45	783,00
-2941,48	820,00
-2930,53	853,00
-2919,60	735,00
-2908,68	703,00
-2897,78	776,00
-2886,89	868,00
-2876,02	811,00
-2865,17	780,00
-2854,33	884,00
-2843,50	812,00
-2832,70	769,00
-2821,90	774,00
-2811,13	810,00
-2800,37	820,00
-2789,62	716,00
-2778,89	846,00
-2768,18	793,00
-2757,48	908,00
-2746,80	889,00
-2736,13	742,00
-2725,48	842,00
-2714,84	652,00
-2704,22	807,00
-2693,61	816,00
-2683,02	841,00
-2672,45	825,00
-2661,89	823,00
-2651,34	872,00
-2640,81	834,00
-2630,30	934,00
-2619,80	755,00
-2609,31	790,00
-2598,84	723,00
-2588,39	852,00
-2577,95	750,00
-2567,52	698,00
-2557,11	707,00
-2546,71	854,00
-2536,33	913,00
-2525,97	800,00
-2515,62	841,00
-2505,28	856,00
-2494,96	858,00
-2484,65	885,00
-2474,36	1061,00
-2464,08	741,00
-2453,82	989,00
-2443,57	808,00
-2433,33	740,00
-2423,11	857,00
-2412,91	918,00
-2402,72	733,00
-2392,54	841,00
-2382,38	769,00
-2372,23	861,00
-2362,09	1917,00
-2351,97	731,00
-2341,87	709,00
-2331,78	904,00
-2321,70	926,00
-2311,64	848,00
-2301,59	808,00
-2291,55	848,00
-2281,53	940,00
-2271,53	676,00
-2261,53	879,00
-2251,55	852,00
-2241,59	794,00
-2231,64	814,00
-2221,70	796,00
-2211,78	875,00
-2201,87	746,00
-2191,97	784,00
-2182,09	788,00
-2172,22	829,00
-2162,37	737,00
-2152,53	741,00
-2142,70	768,00
-2132,89	739,00
-2123,09	839,00
-2113,30	832,00
-2103,53	841,00
-2093,77	846,00
-2084,02	740,00
-2074,29	882,00
-2064,57	904,00
-2054,86	868,00
-2045,17	877,00
-2035,49	838,00
-2025,82	787,00
-2016,17	784,00
-2006,53	736,00
-1996,91	831,00
-1987,29	753,00
-1977,69	767,00
-1968,11	711,00
-1958,53	758,00
-1948,97	733,00
-1939,42	719,00
-1929,89	801,00
-1920,37	762,00
-1910,86	737,00
-1901,36	802,00
-1891,88	849,00
-1882,41	834,00
-1872,95	887,00
-1863,51	907,00
-1854,08	746,00
-1844,66	873,00
-1835,26	930,00
-1825,86	883,00
-1816,48	753,00
-1807,11	851,00
-1797,76	843,00
-1788,42	866,00
-1779,09	842,00
-1769,77	780,00
-1760,47	893,00
-1751,17	676,00
-1741,89	769,00
-1732,63	884,00
-1723,37	974,00
-1714,13	927,00
-1704,90	816,00
-1695,68	938,00
-1686,48	763,00
-1677,29	730,00
-1668,11	1003,00
-1658,94	836,00
-1649,78	829,00
-1640,64	877,00
-1631,51	878,00
-1622,39	897,00
-1613,28	873,00
-1604,19	868,00
-1595,10	787,00
-1586,03	770,00
-1576,97	869,00
-1567,93	853,00
-1558,89	800,00
-1549,87	892,00
-1540,86	759,00
-1531,86	851,00
-1522,87	835,00
-1513,90	900,00
-1504,93	847,00
-1495,98	832,00
-1487,04	928,00
-1478,12	738,00
-1469,20	819,00
-1460,30	725,00
-1451,40	958,00
-1442,52	868,00
-1433,65	880,00
-1424,80	840,00
-1415,95	782,00
-1407,12	979,00
-1398,30	815,00
-1389,48	918,00
-1380,69	783,00
-1371,90	789,00
-1363,12	842,00
-1354,36	957,00
-1345,60	893,00
-1336,86	787,00
-1328,13	931,00
-1319,41	851,00
-1310,70	786,00
-1302,01	804,00
-1293,32	714,00
-1284,65	919,00
-1275,99	888,00
-1267,33	884,00
-1258,69	859,00
-1250,06	820,00
-1241,45	734,00
-1232,84	935,00
-1224,25	899,00
-1215,66	878,00
-1207,09	762,00
-1198,53	764,00
-1189,97	868,00
-1181,43	727,00
-1172,91	771,00
-1164,39	932,00
-1155,88	705,00
-1147,38	708,00
-1138,90	799,00
-1130,43	788,00
-1121,96	841,00
-1113,51	736,00
-1105,07	839,00
-1096,64	884,00
-1088,22	914,00
-1079,81	948,00
-1071,41	965,00
-1063,02	807,00
-1054,65	879,00
-1046,28	782,00
-1037,92	852,00
-1029,58	841,00
-1021,24	854,00
-1012,92	1237,00
-1004,61	816,00
-996,30	1009,00
-988,01	740,00
-979,73	824,00
-971,46	787,00
-963,20	807,00
-954,95	635,00
-946,71	812,00
-938,48	901,00
-930,26	925,00
-922,06	863,00
-913,86	824,00
-905,67	732,00
-897,49	843,00
-889,33	709,00
-881,17	950,00
-873,02	911,00
-864,89	739,00
-856,76	784,00
-848,65	852,00
-840,54	813,00
-832,45	796,00
-824,36	670,00
-816,29	866,00
-808,22	868,00
-800,17	933,00
-792,12	818,00
-784,09	861,00
-776,06	785,00
-768,05	801,00
-760,04	793,00
-752,05	827,00
-744,07	842,00
-736,09	970,00
-728,13	729,00
-720,17	772,00
-712,23	801,00
-704,29	826,00
-696,37	867,00
-688,45	988,00
-680,55	752,00
-672,65	786,00
-664,77	840,00
-656,89	831,00
-649,03	772,00
-641,17	865,00
-633,32	787,00
-625,49	848,00
-617,66	746,00
-609,84	885,00
-602,03	640,00
-594,23	802,00
-586,45	799,00
-578,67	813,00
-570,90	860,00
-563,14	721,00
-555,39	851,00
-547,65	822,00
-539,91	811,00
-532,19	844,00
-524,48	899,00
-516,78	765,00
-509,08	957,00
-501,40	830,00
-493,72	859,00
-486,06	757,00
-478,40	879,00
-470,76	751,00
-463,12	742,00
-455,49	759,00
-447,87	788,00
-440,26	771,00
-432,66	799,00
-425,07	903,00
-417,49	929,00
-409,92	713,00
-402,35	759,00
-394,80	744,00
-387,25	799,00
-379,72	852,00
-372,19	875,00
-364,67	863,00
-357,17	818,00
-349,67	860,00
-342,18	769,00
-334,69	829,00
-327,22	852,00
-319,76	824,00
-312,30	818,00
-304,86	844,00
-297,42	870,00
-290,00	745,00
-282,58	845,00
-275,17	973,00
-267,77	982,00
-260,37	811,00
-252,99	891,00
-245,62	849,00
-238,25	821,00
-230,90	819,00
-223,55	827,00
-216,21	890,00
-208,88	1103,00
-201,56	906,00
-194,25	952,00
-186,94	993,00
-179,65	1034,00
-172,36	1060,00
-165,08	1072,00
-157,81	1112,00
-150,55	1191,00
-143,30	1184,00
-136,06	1227,00
-128,82	1194,00
-121,60	1253,00
-114,38	1389,00
-107,17	1491,00
-99,97	1572,00
-92,78	1635,00
-85,60	1753,00
-78,42	1938,00
-71,25	2142,00
-64,10	2241,00
-56,95	2503,00
-49,81	2815,00
-42,67	3471,00
-35,55	4009,00
-28,43	5214,00
-21,33	8103,00
-14,23	24950,00
-7,14	57498,00
-0,05	57284,00
7,02	57012,00
14,09	57319,00
21,14	21415,00
28,19	9381,00
35,23	6270,00
42,27	4955,00
49,29	4091,00
56,31	3700,00
63,32	3158,00
70,32	2742,00
77,31	2475,00
84,29	2204,00
91,27	2139,00
98,23	2007,00
105,19	1931,00
112,14	2049,00
119,09	2910,00
126,02	4154,00
132,95	4686,00
139,87	4770,00
146,78	5075,00
153,68	4773,00
160,58	4704,00
167,46	4500,00
174,34	4671,00
181,21	4638,00
188,08	4532,00
194,93	4540,00
201,78	4500,00
208,62	4529,00
215,45	4569,00
222,27	4657,00
229,09	4643,00
235,90	4400,00
242,70	4505,00
249,49	4384,00
256,27	4216,00
263,05	4162,00
269,82	4180,00
276,58	4115,00
283,33	3998,00
290,08	3948,00
296,82	3982,00
303,55	3774,00
310,27	3734,00
316,98	3778,00
323,69	3808,00
330,39	3718,00
337,08	3807,00
343,76	3647,00
350,44	3740,00
357,11	3697,00
363,77	3755,00
370,42	3697,00
377,07	3723,00
383,71	3666,00
390,34	3730,00
396,96	3726,00
403,58	3765,00
410,19	3843,00
416,79	3876,00
423,38	4055,00
429,97	4014,00
436,55	3869,00
443,12	4060,00
449,68	4105,00
456,24	3938,00
462,79	3762,00
469,33	3563,00
475,86	3383,00
482,39	3255,00
488,91	3509,00
495,42	3247,00
501,93	3267,00
508,42	3142,00
514,91	3202,00
521,40	3184,00
527,87	3100,00
534,34	3163,00
540,80	3235,00
547,25	3103,00
553,70	3095,00
560,14	3086,00
566,57	3177,00
573,00	3225,00
579,41	3146,00
585,83	3212,00
592,23	3271,00
598,62	3350,00
605,01	3397,00
611,40	3453,00
617,77	3525,00
624,14	3298,00
630,50	3177,00
636,85	3109,00
643,20	3037,00
649,54	2998,00
655,87	2972,00
662,20	2912,00
668,52	2905,00
674,83	2923,00
681,13	2830,00
687,43	2857,00
693,72	2690,00
700,00	2749,00
706,28	2726,00
712,55	2783,00
718,81	2843,00
725,07	2678,00
731,32	2691,00
737,56	2795,00
743,79	2704,00
750,02	2813,00
756,24	2609,00
762,46	2602,00
768,67	2839,00
774,87	2614,00
781,06	2579,00
787,25	2692,00
793,43	2671,00
799,60	2658,00
805,77	2819,00
811,93	2707,00
818,08	2688,00
824,23	2648,00
830,37	2808,00
836,50	2659,00
842,63	2761,00
848,75	2688,00
854,87	2677,00
860,97	2804,00
867,07	2635,00
873,17	2759,00
879,25	2715,00
885,33	2614,00
891,41	2817,00
897,47	2765,00
903,53	2616,00
909,59	2737,00
915,63	2569,00
921,67	2502,00
927,71	2766,00
933,74	2610,00
939,76	2408,00
945,77	2502,00
951,78	2606,00
957,78	2346,00
963,78	2550,00
969,77	2523,00
975,75	2447,00
981,72	2476,00
987,69	3892,00
993,66	2490,00
999,61	2608,00
1005,56	2514,00
1011,51	2528,00
1017,44	2496,00
1023,37	2564,00
1029,30	2560,00
1035,22	2717,00
1041,13	2556,00
1047,03	2841,00
1052,93	3327,00
1058,83	4628,00
1064,71	5135,00
1070,59	4303,00
1076,47	3524,00
1082,33	3281,00
1088,20	3244,00
1094,05	2965,00
1099,90	2709,00
1105,74	2780,00
1111,58	2779,00
1117,41	3081,00
1123,23	3961,00
1129,05	4898,00
1134,86	4395,00
1140,67	3334,00
1146,47	2930,00
1152,26	2643,00
1158,05	2478,00
1163,83	2762,00
1169,60	2879,00
1175,37	2730,00
1181,13	2565,00
1186,89	2437,00
1192,64	2394,00
1198,38	2565,00
1204,12	2253,00
1209,85	2334,00
1215,58	2351,00
1221,30	2461,00
1227,02	2424,00
1232,72	2377,00
1238,43	2306,00
1244,12	2373,00
1249,81	2412,00
1255,50	2604,00
1261,17	2557,00
1266,85	2564,00
1272,51	2620,00
1278,17	2888,00
1283,83	3038,00
1289,47	4597,00
1295,12	6075,00
1300,75	5499,00
1306,38	4226,00
1312,01	3411,00
1317,63	3078,00
1323,24	2724,00
1328,85	2612,00
1334,45	2530,00
1340,04	2580,00
1345,63	2452,00
1351,22	2665,00
1356,80	2444,00
1362,37	2676,00
1367,93	2682,00
1373,49	2734,00
1379,05	2525,00
1384,60	2463,00
1390,14	2521,00
1395,68	2501,00
1401,21	2564,00
1406,74	2744,00
1412,26	3330,00
1417,77	3968,00
1423,28	3770,00
1428,78	4220,00
1434,28	5241,00
1439,77	6119,00
1445,26	5869,00
1450,74	5406,00
1456,22	5163,00
1461,68	4996,00
1467,15	4647,00
1472,61	3984,00
1478,06	3492,00
1483,51	3047,00
1488,95	2662,00
1494,38	2640,00
1499,81	2417,00
1505,24	2392,00
1510,65	2337,00
1516,07	2353,00
1521,48	2191,00
1526,88	2097,00
1532,27	2264,00
1537,67	2160,00
1543,05	2200,00
1548,43	2035,00
1553,81	2224,00
1559,18	1931,00
1564,54	2098,00
1569,90	2040,00
1575,25	2031,00
1580,60	1920,00
1585,94	2087,00
1591,28	2006,00
1596,61	1952,00
1601,93	1966,00
1607,25	2087,00
1612,57	1965,00
1617,88	2097,00
1623,18	2071,00
1628,48	1912,00
1633,77	1951,00
1639,06	2039,00
1644,34	1914,00
1649,62	1764,00
1654,89	1941,00
1660,16	1785,00
1665,42	1998,00
1670,67	1833,00
1675,92	1804,00
1681,17	1748,00
1686,41	1797,00
1691,64	1820,00
1696,87	1824,00
1702,10	1794,00
1707,32	1815,00
1712,53	1736,00
1717,74	1810,00
1722,94	1901,00
1728,14	1689,00
1733,33	1721,00
1738,52	1621,00
1743,70	1753,00
1748,88	1743,00
1754,05	1785,00
1759,22	1588,00
1764,38	2028,00
1769,53	1755,00
1774,69	1730,00
1779,83	1690,00
1784,97	1662,00
1790,11	1636,00
1795,24	1593,00
1800,36	1767,00
1805,48	1714,00
1810,60	1671,00
1815,71	1574,00
1820,82	1562,00
1825,92	1707,00
1831,01	1681,00
1836,10	1546,00
1841,19	1620,00
1846,26	1416,00
1851,34	1619,00
1856,41	1559,00
1861,47	1523,00
1866,53	1656,00
1871,59	1593,00
1876,64	1633,00
1881,68	1614,00
1886,72	1594,00
1891,76	1542,00
1896,79	1533,00
1901,81	1496,00
1906,83	1532,00
1911,85	1512,00
1916,86	1464,00
1921,86	1473,00
1926,86	1478,00
1931,86	1557,00
1936,85	1411,00
1941,83	1474,00
1946,81	1377,00
1951,79	1305,00
1956,76	1363,00
1961,72	1374,00
1966,68	1431,00
1971,64	1373,00
1976,59	1427,00
1981,54	1351,00
1986,48	1454,00
1991,42	1270,00
1996,35	1630,00
2001,27	1381,00
2006,20	1427,00
2011,11	1495,00
2016,03	1394,00
2020,93	1287,00
2025,84	1378,00
2030,73	1358,00
2035,63	1257,00
2040,52	1366,00
2045,40	1362,00
2050,28	1312,00
2055,15	1412,00
2060,02	1183,00
2064,89	1400,00
2069,75	1386,00
2074,60	1325,00
2079,46	1304,00
2084,30	1312,00
2089,14	1279,00
2093,98	1407,00
2098,81	1282,00
2103,64	1368,00
2108,46	1322,00
2113,28	1354,00
2118,09	1361,00
2122,90	1411,00
2127,70	1267,00
2132,50	1383,00
2137,30	1252,00
2142,09	1156,00
2146,87	1166,00
2151,66	1293,00
2156,43	1192,00
2161,20	1264,00
2165,97	1399,00
2170,73	1124,00
2175,49	1377,00
2180,24	1410,00
2184,99	1483,00
2189,74	1464,00
2194,48	1464,00
2199,21	1434,00
2203,94	1275,00
2208,67	1182,00
2213,39	1114,00
2218,11	1226,00
2222,82	1189,00
2227,53	1270,00
2232,23	1273,00
2236,93	1304,00
2241,63	1169,00
2246,32	1298,00
2251,00	1312,00
2255,68	1323,00
2260,36	1253,00
2265,03	1265,00
2269,70	1472,00
2274,36	1195,00
2279,02	1186,00
2283,68	1232,00
2288,33	1243,00
2292,97	1264,00
2297,61	1225,00
2302,25	1289,00
2306,88	1224,00
2311,51	1164,00
2316,14	1194,00
2320,75	1160,00
2325,37	1070,00
2329,98	1218,00
2334,59	1198,00
2339,19	1187,00
2343,79	1102,00
2348,38	1167,00
2352,97	1064,00
2357,55	1137,00
2362,13	1186,00
2366,71	1100,00
2371,28	1244,00
2375,85	1167,00
2380,41	1250,00
2384,97	1050,00
2389,52	1194,00
2394,07	1215,00
2398,62	1137,00
2403,16	1256,00
2407,70	1085,00
2412,23	1068,00
2416,76	1184,00
2421,29	1255,00
2425,81	1224,00
2430,32	1161,00
2434,84	1060,00
2439,34	1095,00
2443,85	1252,00
2448,35	1145,00
2452,84	1071,00
2457,33	1175,00
2461,82	1027,00
2466,30	1022,00
2470,78	1145,00
2475,25	1232,00
2479,72	1146,00
2484,19	1237,00
2488,65	1147,00
2493,11	1034,00
2497,56	1267,00
2502,01	1071,00
2506,46	1187,00
2510,90	1030,00
2515,34	1043,00
2519,77	1151,00
2524,20	1148,00
2528,62	1177,00
2533,04	1197,00
2537,46	1101,00
2541,87	1145,00
2546,28	1114,00
2550,68	1199,00
2555,08	1110,00
2559,48	1122,00
2563,87	1032,00
2568,26	1057,00
2572,64	1219,00
2577,02	1232,00
2581,40	1014,00
2585,77	1161,00
2590,14	1192,00
2594,50	1081,00
2598,86	1174,00
2603,22	1050,00
2607,57	1070,00
2611,92	1120,00
2616,26	1283,00
2620,60	1262,00
2624,94	1125,00
2629,27	1173,00
2633,60	1063,00
2637,92	1372,00
2642,24	1274,00
2646,56	1145,00
2650,87	1011,00
2655,18	1280,00
2659,48	1078,00
2663,78	1171,00
2668,08	1158,00
2672,37	1214,00
2676,66	1153,00
2680,95	1216,00
2685,23	1219,00
2689,50	1145,00
2693,78	1271,00
2698,05	1207,00
2702,31	1281,00
2706,57	1422,00
2710,83	1438,00
2715,08	1540,00
2719,33	1508,00
2723,58	1438,00
2727,82	1605,00
2732,06	1421,00
2736,29	1502,00
2740,53	1366,00
2744,75	1354,00
2748,97	1324,00
2753,19	1267,00
2757,41	1363,00
2761,62	1274,00
2765,83	1370,00
2770,03	1309,00
2774,23	1397,00
2778,43	1244,00
2782,62	1378,00
2786,81	1387,00
2791,00	1391,00
2795,18	1458,00
2799,35	1490,00
2803,53	1507,00
2807,70	1543,00
2811,86	1512,00
2816,03	1713,00
2820,19	1716,00
2824,34	1823,00
2828,49	1919,00
2832,64	2259,00
2836,78	2756,00
2840,92	3078,00
2845,06	3768,00
2849,19	4158,00
2853,32	4336,00
2857,45	4159,00
2861,57	4268,00
2865,69	4105,00
2869,80	3996,00
2873,91	4155,00
2878,02	4681,00
2882,12	4928,00
2886,22	5000,00
2890,32	4666,00
2894,41	4421,00
2898,50	4016,00
2902,58	3746,00
2906,67	3567,00
2910,74	3291,00
2914,82	3023,00
2918,89	2989,00
2922,96	2729,00
2927,02	2489,00
2931,08	2385,00
2935,13	2250,00
2939,19	2122,00
2943,24	1911,00
2947,28	1966,00
2951,32	1739,00
2955,36	1535,00
2959,40	1593,00
2963,43	1620,00
2967,46	1458,00
2971,48	1407,00
2975,50	1326,00
2979,52	1373,00
2983,53	1315,00
2987,54	1216,00
2991,55	1191,00
2995,55	1173,00
2999,55	1099,00
3003,54	1021,00
3007,54	1142,00
3011,53	1074,00
3015,51	1091,00
3019,49	1087,00
3023,47	1006,00
3027,45	1055,00
3031,42	972,00
3035,39	996,00
3039,35	1005,00
3043,31	1087,00
3047,27	991,00
3051,22	1095,00
3055,17	928,00
3059,12	956,00
3063,06	948,00
3067,00	928,00
3070,94	897,00
3074,87	1045,00
3078,80	925,00
3082,73	903,00
3086,65	869,00
3090,57	943,00
3094,49	937,00
3098,40	863,00
3102,31	970,00
3106,22	931,00
3110,12	882,00
3114,02	819,00
3117,92	994,00
3121,81	908,00
3125,70	943,00
3129,58	782,00
3133,47	856,00
3137,34	988,00
3141,22	962,00
3145,09	939,00
3148,96	860,00
3152,83	920,00
3156,69	967,00
3160,55	931,00
3164,40	958,00
3168,26	889,00
3172,10	1027,00
3175,95	876,00
3179,79	859,00
3183,63	864,00
3187,47	842,00
3191,30	850,00
3195,13	854,00
3198,95	767,00
3202,78	951,00
3206,60	779,00
3210,41	862,00
3214,23	822,00
3218,03	884,00
3221,84	857,00
3225,64	897,00
3229,44	793,00
3233,24	908,00
3237,03	832,00
3240,82	776,00
3244,61	801,00
3248,39	749,00
3252,17	888,00
3255,95	933,00
3259,72	927,00
3263,49	1063,00
3267,26	857,00
3271,03	821,00
3274,79	838,00
3278,54	877,00
3282,30	784,00
3286,05	897,00
3289,80	857,00
3293,54	911,00
3297,29	899,00
3301,02	819,00
3304,76	893,00
3308,49	913,00
3312,22	787,00
3315,95	786,00
3319,67	768,00
3323,39	913,00
3327,10	871,00
3330,82	813,00
3334,53	904,00
3338,24	905,00
3341,94	827,00
3345,64	880,00
3349,34	822,00
3353,03	907,00
3356,72	821,00
3360,41	869,00
3364,10	805,00
3367,78	769,00
3371,46	776,00
3375,13	862,00
3378,81	824,00
3382,48	803,00
3386,14	872,00
3389,81	922,00
3393,47	839,00
3397,12	954,00
3400,78	876,00
3404,43	894,00
3408,08	859,00
3411,72	759,00
3415,36	774,00
3419,00	809,00
3422,64	806,00
3426,27	840,00
3429,90	833,00
3433,53	825,00
3437,15	807,00
3440,77	763,00
3444,39	856,00
3448,00	835,00
3451,62	780,00
3455,22	836,00
3458,83	716,00
3462,43	803,00
3466,03	865,00
3469,63	783,00
3473,22	783,00
3476,81	725,00
3480,40	920,00
3483,99	784,00
3487,57	840,00
3491,15	835,00
3494,72	886,00
3498,29	921,00
3501,86	646,00
3505,43	807,00
3508,99	741,00
3512,56	653,00
3516,11	857,00
3519,67	797,00
3523,22	843,00
3526,77	744,00
3530,32	1050,00
3533,86	879,00
3537,40	894,00
3540,94	788,00
3544,47	770,00
3548,00	698,00
3551,53	874,00
3555,06	788,00
3558,58	882,00
3562,10	780,00
3565,62	685,00
3569,13	838,00
3572,64	992,00
3576,15	721,00
3579,66	770,00
3583,16	788,00
3586,66	794,00
3590,16	765,00
3593,65	775,00
3597,14	756,00
3600,63	803,00
3604,11	802,00
3607,60	801,00
3611,08	795,00
3614,55	845,00
3618,03	765,00
3621,50	676,00
3624,97	728,00
3628,43	778,00
3631,90	740,00
3635,36	706,00
3638,81	692,00
3642,27	758,00
3645,72	737,00
3649,17	704,00
3652,61	790,00
3656,06	711,00
3659,50	709,00
3662,93	787,00
3666,37	724,00
3669,80	866,00
3673,23	818,00
3676,65	785,00
3680,08	916,00
3683,50	764,00
3686,92	711,00
3690,33	717,00
3693,74	784,00
3697,15	630,00
3700,56	864,00
3703,96	773,00
3707,36	675,00
3710,76	642,00
3714,16	671,00
3717,55	701,00
3720,94	651,00
3724,33	687,00
3727,71	725,00
3731,10	727,00
3734,48	741,00
3737,85	626,00
3741,23	686,00
3744,60	651,00
3747,97	605,00
3751,33	767,00
3754,69	705,00
3758,05	676,00
3761,41	627,00
3764,77	613,00
3768,12	650,00
3771,47	541,00
3774,82	666,00
3778,16	-8,00
3781,50	9,00
3784,84	7,00
3788,18	9,00
>>>>>End Processed Spectral Data<<<<<
