SpectraSuite Data File
++++++++++++++++++++++++++++++++++++
Date: Mon Jan 05 16:32:28 ICT 2026
User: Administrator
Dark Spectrum Present: Yes
Reference Spectrum Present: No
Number of Sampled Component Spectra: 1
Spectrometers: MAYP113682
Integration Time (usec): 3000000 (MAYP113682)
Spectra Averaged: 1 (MAYP113682)
Boxcar Smoothing: 0 (MAYP113682)
Correct for Electrical Dark: No (MAYP113682)
Strobe/Lamp Enabled: No (MAYP113682)
Correct for Detector Non-linearity: No (MAYP113682)
Correct for Stray Light: No (MAYP113682)
Number of Pixels in Processed Spectrum: 2068
>>>>>Begin Processed Spectral Data<<<<<
-37534,58	32,00
-37414,56	5,00
-37295,11	6,00
-37176,24	2,00
-37057,95	549,00
-36940,22	633,00
-36823,05	617,00
-36706,45	663,00
-36590,40	780,00
-36474,90	733,00
-36359,95	720,00
-36245,55	781,00
-36131,68	681,00
-36018,35	800,00
-35905,55	729,00
-35793,29	835,00
-35681,54	680,00
-35570,32	712,00
-35459,62	753,00
-35349,43	747,00
-35239,75	834,00
-35130,58	680,00
-35021,91	726,00
-34913,74	793,00
-34806,07	703,00
-34698,89	831,00
-34592,20	760,00
-34486,00	771,00
-34380,28	816,00
-34275,04	722,00
-34170,27	755,00
-34065,98	856,00
-33962,16	836,00
-33858,81	875,00
-33755,92	844,00
-33653,49	874,00
-33551,52	920,00
-33450,01	817,00
-33348,94	889,00
-33248,33	805,00
-33148,16	830,00
-33048,43	758,00
-32949,14	959,00
-32850,29	876,00
-32751,87	719,00
-32653,89	895,00
-32556,33	960,00
-32459,20	752,00
-32362,49	845,00
-32266,19	839,00
-32170,32	790,00
-32074,86	873,00
-31979,82	873,00
-31885,18	896,00
-31790,95	923,00
-31697,12	942,00
-31603,69	866,00
-31510,67	944,00
-31418,04	870,00
-31325,80	774,00
-31233,95	773,00
-31142,49	851,00
-31051,42	840,00
-30960,73	862,00
-30870,43	963,00
-30780,50	858,00
-30690,95	813,00
-30601,77	984,00
-30512,97	816,00
-30424,53	932,00
-30336,46	850,00
-30248,76	835,00
-30161,42	978,00
-30074,44	826,00
-29987,81	908,00
-29901,55	987,00
-29815,63	833,00
-29730,07	808,00
-29644,86	869,00
-29560,00	888,00
-29475,48	929,00
-29391,30	840,00
-29307,47	827,00
-29223,97	760,00
-29140,81	922,00
-29057,99	837,00
-28975,50	868,00
-28893,34	1023,00
-28811,51	867,00
-28730,00	940,00
-28648,82	844,00
-28567,97	924,00
-28487,43	737,00
-28407,21	841,00
-28327,32	809,00
-28247,73	1034,00
-28168,46	757,00
-28089,50	894,00
-28010,85	762,00
-27932,51	789,00
-27854,48	855,00
-27776,75	770,00
-27699,32	816,00
-27622,19	869,00
-27545,37	840,00
-27468,84	889,00
-27392,60	944,00
-27316,66	829,00
-27241,01	840,00
-27165,66	794,00
-27090,59	726,00
-27015,81	942,00
-26941,31	893,00
-26867,10	838,00
-26793,17	880,00
-26719,52	761,00
-26646,15	747,00
-26573,06	757,00
-26500,24	860,00
-26427,70	837,00
-26355,43	793,00
-26283,43	835,00
-26211,71	856,00
-26140,25	885,00
-26069,06	981,00
-25998,13	764,00
-25927,46	865,00
-25857,06	738,00
-25786,92	899,00
-25717,04	783,00
-25647,42	918,00
-25578,05	807,00
-25508,94	730,00
-25440,09	846,00
-25371,48	889,00
-25303,13	871,00
-25235,02	816,00
-25167,17	762,00
-25099,56	830,00
-25032,19	802,00
-24965,07	726,00
-24898,20	811,00
-24831,56	744,00
-24765,17	839,00
-24699,01	723,00
-24633,10	876,00
-24567,41	846,00
-24501,97	780,00
-24436,75	852,00
-24371,77	834,00
-24307,03	852,00
-24242,51	763,00
-24178,22	710,00
-24114,16	801,00
-24050,32	838,00
-23986,71	856,00
-23923,32	900,00
-23860,16	828,00
-23797,22	753,00
-23734,50	819,00
-23672,00	737,00
-23609,71	779,00
-23547,65	763,00
-23485,80	854,00
-23424,16	607,00
-23362,74	971,00
-23301,53	802,00
-23240,54	711,00
-23179,75	712,00
-23119,17	789,00
-23058,80	757,00
-22998,64	904,00
-22938,68	785,00
-22878,93	816,00
-22819,39	728,00
-22760,04	740,00
-22700,90	824,00
-22641,96	803,00
-22583,22	814,00
-22524,68	822,00
-22466,33	754,00
-22408,19	815,00
-22350,23	846,00
-22292,48	869,00
-22234,92	881,00
-22177,55	888,00
-22120,37	998,00
-22063,38	756,00
-22006,58	852,00
-21949,98	762,00
-21893,56	701,00
-21837,33	773,00
-21781,28	880,00
-21725,42	792,00
-21669,74	887,00
-21614,25	856,00
-21558,94	775,00
-21503,81	882,00
-21448,86	873,00
-21394,10	888,00
-21339,51	768,00
-21285,10	770,00
-21230,86	800,00
-21176,81	832,00
-21122,93	782,00
-21069,22	727,00
-21015,69	825,00
-20962,33	885,00
-20909,14	787,00
-20856,13	779,00
-20803,28	893,00
-20750,61	826,00
-20698,10	716,00
-20645,76	778,00
-20593,59	901,00
-20541,59	958,00
-20489,75	811,00
-20438,07	652,00
-20386,56	840,00
-20335,22	760,00
-20284,03	797,00
-20233,01	769,00
-20182,15	822,00
-20131,45	817,00
-20080,91	696,00
-20030,52	798,00
-19980,30	715,00
-19930,23	773,00
-19880,32	864,00
-19830,56	816,00
-19780,96	844,00
-19731,52	733,00
-19682,23	826,00
-19633,09	699,00
-19584,10	749,00
-19535,26	741,00
-19486,58	1005,00
-19438,04	785,00
-19389,66	874,00
-19341,42	756,00
-19293,33	785,00
-19245,39	879,00
-19197,60	897,00
-19149,95	811,00
-19102,45	875,00
-19055,09	676,00
-19007,87	872,00
-18960,80	822,00
-18913,87	828,00
-18867,09	716,00
-18820,44	1016,00
-18773,94	827,00
-18727,57	824,00
-18681,35	748,00
-18635,26	843,00
-18589,31	840,00
-18543,50	799,00
-18497,83	800,00
-18452,29	799,00
-18406,89	735,00
-18361,63	783,00
-18316,50	871,00
-18271,50	830,00
-18226,63	857,00
-18181,90	843,00
-18137,30	901,00
-18092,84	813,00
-18048,50	831,00
-18004,29	781,00
-17960,22	750,00
-17916,27	757,00
-17872,45	916,00
-17828,76	908,00
-17785,20	798,00
-17741,77	769,00
-17698,46	839,00
-17655,28	723,00
-17612,22	830,00
-17569,29	775,00
-17526,48	894,00
-17483,79	911,00
-17441,23	815,00
-17398,79	739,00
-17356,48	744,00
-17314,28	944,00
-17272,21	696,00
-17230,26	856,00
-17188,42	817,00
-17146,71	852,00
-17105,12	703,00
-17063,64	833,00
-17022,28	784,00
-16981,04	751,00
-16939,92	833,00
-16898,91	962,00
-16858,02	770,00
-16817,25	854,00
-16776,59	769,00
-16736,04	764,00
-16695,61	874,00
-16655,29	735,00
-16615,09	744,00
-16574,99	796,00
-16535,01	780,00
-16495,15	836,00
-16455,39	781,00
-16415,74	747,00
-16376,21	865,00
-16336,78	672,00
-16297,46	824,00
-16258,26	728,00
-16219,16	807,00
-16180,17	768,00
-16141,28	895,00
-16102,51	772,00
-16063,84	777,00
-16025,27	787,00
-15986,82	731,00
-15948,46	817,00
-15910,22	820,00
-15872,07	687,00
-15834,04	800,00
-15796,10	744,00
-15758,27	951,00
-15720,54	830,00
-15682,91	763,00
-15645,39	986,00
-15607,97	819,00
-15570,64	737,00
-15533,42	895,00
-15496,30	768,00
-15459,28	801,00
-15422,36	825,00
-15385,54	733,00
-15348,82	813,00
-15312,19	950,00
-15275,66	758,00
-15239,23	842,00
-15202,90	673,00
-15166,67	819,00
-15130,53	853,00
-15094,48	891,00
-15058,54	713,00
-15022,68	750,00
-14986,93	747,00
-14951,26	882,00
-14915,69	856,00
-14880,22	726,00
-14844,84	782,00
-14809,55	817,00
-14774,35	833,00
-14739,25	729,00
-14704,24	799,00
-14669,32	769,00
-14634,49	811,00
-14599,75	873,00
-14565,10	721,00
-14530,55	811,00
-14496,08	829,00
-14461,70	854,00
-14427,41	749,00
-14393,21	733,00
-14359,10	750,00
-14325,07	885,00
-14291,14	758,00
-14257,29	761,00
-14223,52	835,00
-14189,85	901,00
-14156,26	804,00
-14122,76	650,00
-14089,34	707,00
-14056,01	852,00
-14022,76	645,00
-13989,60	846,00
-13956,52	890,00
-13923,53	812,00
-13890,62	728,00
-13857,79	780,00
-13825,05	678,00
-13792,39	660,00
-13759,81	839,00
-13727,31	823,00
-13694,90	740,00
-13662,57	893,00
-13630,31	853,00
-13598,14	802,00
-13566,05	756,00
-13534,05	756,00
-13502,12	729,00
-13470,27	755,00
-13438,50	839,00
-13406,80	830,00
-13375,19	762,00
-13343,66	812,00
-13312,20	834,00
-13280,83	744,00
-13249,53	724,00
-13218,30	754,00
-13187,16	769,00
-13156,09	1021,00
-13125,10	882,00
-13094,18	830,00
-13063,34	894,00
-13032,58	712,00
-13001,89	819,00
-12971,28	883,00
-12940,74	792,00
-12910,27	856,00
-12879,88	765,00
-12849,57	838,00
-12819,33	852,00
-12789,16	868,00
-12759,06	778,00
-12729,04	772,00
-12699,09	2115,00
-12669,21	761,00
-12639,41	864,00
-12609,68	735,00
-12580,02	784,00
-12550,43	919,00
-12520,91	780,00
-12491,46	765,00
-12462,08	721,00
-12432,77	816,00
-12403,54	735,00
-12374,37	740,00
-12345,27	987,00
-12316,24	777,00
-12287,29	829,00
-12258,40	734,00
-12229,57	891,00
-12200,82	744,00
-12172,14	875,00
-12143,52	715,00
-12114,97	746,00
-12086,49	879,00
-12058,07	810,00
-12029,73	783,00
-12001,44	844,00
-11973,23	782,00
-11945,08	741,00
-11917,00	905,00
-11888,98	690,00
-11861,03	844,00
-11833,15	786,00
-11805,32	904,00
-11777,57	818,00
-11749,88	834,00
-11722,25	732,00
-11694,69	738,00
-11667,19	778,00
-11639,75	879,00
-11612,38	789,00
-11585,07	759,00
-11557,83	878,00
-11530,65	975,00
-11503,53	809,00
-11476,47	858,00
-11449,48	783,00
-11422,54	931,00
-11395,67	855,00
-11368,86	845,00
-11342,11	778,00
-11315,43	715,00
-11288,80	783,00
-11262,23	845,00
-11235,73	774,00
-11209,28	973,00
-11182,90	828,00
-11156,57	748,00
-11130,31	903,00
-11104,10	779,00
-11077,96	798,00
-11051,87	791,00
-11025,84	843,00
-10999,87	804,00
-10973,96	824,00
-10948,11	811,00
-10922,31	904,00
-10896,58	834,00
-10870,90	964,00
-10845,28	867,00
-10819,71	787,00
-10794,20	829,00
-10768,75	931,00
-10743,36	921,00
-10718,02	761,00
-10692,74	834,00
-10667,52	808,00
-10642,35	816,00
-10617,24	950,00
-10592,18	824,00
-10567,18	835,00
-10542,23	850,00
-10517,34	918,00
-10492,51	1005,00
-10467,72	783,00
-10443,00	888,00
-10418,32	924,00
-10393,70	956,00
-10369,14	853,00
-10344,63	845,00
-10320,17	930,00
-10295,77	922,00
-10271,42	914,00
-10247,12	986,00
-10222,88	1095,00
-10198,68	953,00
-10174,54	1040,00
-10150,46	1113,00
-10126,42	1132,00
-10102,44	999,00
-10078,51	1011,00
-10054,63	1189,00
-10030,80	1045,00
-10007,03	1194,00
-9983,30	1133,00
-9959,63	1135,00
-9936,01	1334,00
-9912,44	1258,00
-9888,92	1213,00
-9865,44	1193,00
-9842,02	1229,00
-9818,65	1425,00
-9795,33	1195,00
-9772,06	1343,00
-9748,84	1293,00
-9725,67	1418,00
-9702,55	1473,00
-9679,47	1712,00
-9656,45	1829,00
-9633,47	1654,00
-9610,55	1747,00
-9587,67	2036,00
-9564,84	2103,00
-9542,06	2116,00
-9519,32	2383,00
-9496,64	2500,00
-9474,00	2307,00
-9451,41	2503,00
-9428,87	2590,00
-9406,37	2650,00
-9383,92	2429,00
-9361,52	2453,00
-9339,17	2772,00
-9316,86	2879,00
-9294,60	3199,00
-9272,38	3526,00
-9250,21	3884,00
-9228,09	4053,00
-9206,01	3835,00
-9183,98	3658,00
-9162,00	3242,00
-9140,06	3273,00
-9118,16	3279,00
-9096,31	3394,00
-9074,51	3586,00
-9052,75	3631,00
-9031,04	3638,00
-9009,37	3190,00
-8987,74	3003,00
-8966,16	2886,00
-8944,63	2546,00
-8923,14	2580,00
-8901,69	2566,00
-8880,29	2587,00
-8858,93	2924,00
-8837,61	3209,00
-8816,34	3268,00
-8795,11	3224,00
-8773,92	2946,00
-8752,78	2820,00
-8731,68	2558,00
-8710,62	2802,00
-8689,61	2652,00
-8668,63	2889,00
-8647,70	3139,00
-8626,82	3024,00
-8605,97	3063,00
-8585,17	2836,00
-8564,41	2719,00
-8543,69	2559,00
-8523,01	2388,00
-8502,37	2617,00
-8481,78	2578,00
-8461,23	2658,00
-8440,71	2928,00
-8420,24	3018,00
-8399,81	3291,00
-8379,42	2971,00
-8359,08	2965,00
-8338,77	2560,00
-8318,50	2379,00
-8298,27	2538,00
-8278,09	2554,00
-8257,94	2676,00
-8237,83	2869,00
-8217,76	2965,00
-8197,74	2917,00
-8177,75	2958,00
-8157,80	2532,00
-8137,89	2354,00
-8118,02	2405,00
-8098,19	2466,00
-8078,40	2333,00
-8058,65	2481,00
-8038,93	2522,00
-8019,26	2419,00
-7999,62	2388,00
-7980,02	2284,00
-7960,46	2188,00
-7940,94	1988,00
-7921,46	2004,00
-7902,01	2056,00
-7882,60	2166,00
-7863,23	2099,00
-7843,90	2090,00
-7824,61	2255,00
-7805,35	2428,00
-7786,13	2315,00
-7766,95	2385,00
-7747,80	2301,00
-7728,69	2220,00
-7709,62	2169,00
-7690,59	2241,00
-7671,59	2413,00
-7652,63	2324,00
-7633,70	2315,00
-7614,81	2392,00
-7595,96	2086,00
-7577,15	2025,00
-7558,37	1929,00
-7539,62	2048,00
-7520,91	2119,00
-7502,24	2280,00
-7483,60	2168,00
-7465,00	2161,00
-7446,44	2026,00
-7427,91	1709,00
-7409,41	1729,00
-7390,95	1618,00
-7372,53	1586,00
-7354,14	1589,00
-7335,78	1676,00
-7317,46	1637,00
-7299,18	1642,00
-7280,92	1902,00
-7262,71	2163,00
-7244,52	2202,00
-7226,38	2133,00
-7208,26	2022,00
-7190,18	1998,00
-7172,14	1867,00
-7154,12	2009,00
-7136,15	1908,00
-7118,20	2090,00
-7100,29	2147,00
-7082,41	2124,00
-7064,57	1991,00
-7046,76	2002,00
-7028,98	1684,00
-7011,24	1729,00
-6993,53	1459,00
-6975,85	1533,00
-6958,20	1379,00
-6940,59	1366,00
-6923,01	1327,00
-6905,46	1575,00
-6887,94	1562,00
-6870,46	2090,00
-6853,01	1938,00
-6835,59	1904,00
-6818,21	1700,00
-6800,85	1705,00
-6783,53	1524,00
-6766,24	1289,00
-6748,98	1324,00
-6731,76	1149,00
-6714,56	1218,00
-6697,40	1072,00
-6680,26	1238,00
-6663,16	1328,00
-6646,09	1478,00
-6629,05	1667,00
-6612,05	1589,00
-6595,07	1635,00
-6578,13	1561,00
-6561,21	1441,00
-6544,33	1323,00
-6527,47	1093,00
-6510,65	1138,00
-6493,86	1003,00
-6477,10	1067,00
-6460,36	1228,00
-6443,66	1055,00
-6426,99	1089,00
-6410,35	1161,00
-6393,74	1213,00
-6377,16	1202,00
-6360,61	1234,00
-6344,09	1177,00
-6327,59	1351,00
-6311,13	1458,00
-6294,70	1350,00
-6278,29	1422,00
-6261,92	1495,00
-6245,58	1608,00
-6229,26	1628,00
-6212,97	1515,00
-6196,72	1387,00
-6180,49	1230,00
-6164,29	1024,00
-6148,12	1142,00
-6131,98	1066,00
-6115,86	949,00
-6099,78	992,00
-6083,72	872,00
-6067,69	891,00
-6051,69	906,00
-6035,72	1048,00
-6019,78	1055,00
-6003,87	1300,00
-5987,98	1207,00
-5972,12	1430,00
-5956,29	1337,00
-5940,49	1170,00
-5924,71	1300,00
-5908,96	1109,00
-5893,24	1025,00
-5877,55	979,00
-5861,89	1152,00
-5846,25	882,00
-5830,64	996,00
-5815,05	971,00
-5799,50	1030,00
-5783,97	1060,00
-5768,47	1080,00
-5752,99	1340,00
-5737,55	1199,00
-5722,12	1281,00
-5706,73	1303,00
-5691,36	1257,00
-5676,02	1073,00
-5660,71	977,00
-5645,42	923,00
-5630,16	1077,00
-5614,92	1153,00
-5599,71	1121,00
-5584,53	1172,00
-5569,37	1145,00
-5554,24	1363,00
-5539,14	1052,00
-5524,06	1016,00
-5509,01	1105,00
-5493,98	1072,00
-5478,98	1074,00
-5464,00	1056,00
-5449,05	1027,00
-5434,13	1053,00
-5419,23	936,00
-5404,36	935,00
-5389,51	1012,00
-5374,69	1183,00
-5359,89	1400,00
-5345,12	1375,00
-5330,37	1314,00
-5315,65	1175,00
-5300,95	1091,00
-5286,28	1053,00
-5271,63	916,00
-5257,01	960,00
-5242,41	1121,00
-5227,84	981,00
-5213,29	1046,00
-5198,76	972,00
-5184,26	955,00
-5169,79	922,00
-5155,33	1053,00
-5140,91	1132,00
-5126,51	1145,00
-5112,13	1141,00
-5097,77	1082,00
-5083,44	1104,00
-5069,13	931,00
-5054,85	938,00
-5040,59	1024,00
-5026,36	1104,00
-5012,15	1213,00
-4997,96	1109,00
-4983,80	981,00
-4969,66	968,00
-4955,54	960,00
-4941,44	1086,00
-4927,37	1036,00
-4913,33	1294,00
-4899,30	1354,00
-4885,30	1357,00
-4871,33	1082,00
-4857,37	993,00
-4843,44	862,00
-4829,53	1038,00
-4815,65	1048,00
-4801,79	859,00
-4787,95	1101,00
-4774,13	882,00
-4760,34	922,00
-4746,56	989,00
-4732,82	895,00
-4719,09	1044,00
-4705,38	1256,00
-4691,70	1215,00
-4678,04	1389,00
-4664,41	1166,00
-4650,79	1222,00
-4637,20	885,00
-4623,63	907,00
-4610,08	1140,00
-4596,56	1058,00
-4583,05	975,00
-4569,57	993,00
-4556,11	1072,00
-4542,67	807,00
-4529,25	906,00
-4515,86	1051,00
-4502,49	1185,00
-4489,13	1205,00
-4475,80	1212,00
-4462,49	923,00
-4449,21	993,00
-4435,94	859,00
-4422,70	793,00
-4409,47	856,00
-4396,27	1025,00
-4383,09	1000,00
-4369,93	877,00
-4356,79	790,00
-4343,67	854,00
-4330,58	979,00
-4317,50	1009,00
-4304,45	1034,00
-4291,41	976,00
-4278,40	814,00
-4265,41	796,00
-4252,44	956,00
-4239,49	909,00
-4226,55	1011,00
-4213,65	924,00
-4200,76	900,00
-4187,89	889,00
-4175,04	857,00
-4162,21	751,00
-4149,40	870,00
-4136,61	853,00
-4123,85	803,00
-4111,10	823,00
-4098,37	871,00
-4085,66	955,00
-4072,98	891,00
-4060,31	799,00
-4047,66	913,00
-4035,04	1086,00
-4022,43	814,00
-4009,84	820,00
-3997,27	709,00
-3984,72	796,00
-3972,19	879,00
-3959,69	836,00
-3947,20	757,00
-3934,73	762,00
-3922,27	769,00
-3909,84	765,00
-3897,43	928,00
-3885,04	938,00
-3872,67	855,00
-3860,31	748,00
-3847,98	893,00
-3835,66	805,00
-3823,36	915,00
-3811,09	789,00
-3798,83	816,00
-3786,59	889,00
-3774,37	920,00
-3762,17	703,00
-3749,98	801,00
-3737,82	882,00
-3725,67	978,00
-3713,55	782,00
-3701,44	925,00
-3689,35	835,00
-3677,28	872,00
-3665,22	854,00
-3653,19	768,00
-3641,17	766,00
-3629,18	843,00
-3617,20	867,00
-3605,24	793,00
-3593,30	978,00
-3581,37	930,00
-3569,47	955,00
-3557,58	868,00
-3545,71	868,00
-3533,86	884,00
-3522,02	732,00
-3510,21	832,00
-3498,41	869,00
-3486,63	839,00
-3474,87	785,00
-3463,12	763,00
-3451,40	904,00
-3439,69	831,00
-3428,00	735,00
-3416,33	860,00
-3404,67	714,00
-3393,03	819,00
-3381,41	854,00
-3369,81	840,00
-3358,22	897,00
-3346,66	960,00
-3335,10	791,00
-3323,57	720,00
-3312,06	923,00
-3300,56	916,00
-3289,08	780,00
-3277,61	881,00
-3266,16	779,00
-3254,73	811,00
-3243,32	882,00
-3231,92	742,00
-3220,55	839,00
-3209,18	892,00
-3197,84	797,00
-3186,51	767,00
-3175,20	805,00
-3163,90	773,00
-3152,63	908,00
-3141,36	727,00
-3130,12	891,00
-3118,89	909,00
-3107,68	862,00
-3096,49	862,00
-3085,31	798,00
-3074,15	840,00
-3063,00	856,00
-3051,87	829,00
-3040,76	779,00
-3029,67	1050,00
-3018,59	984,00
-3007,52	970,00
-2996,48	824,00
-2985,44	845,00
-2974,43	822,00
-2963,43	792,00
-2952,45	826,00
-2941,48	822,00
-2930,53	811,00
-2919,60	719,00
-2908,68	854,00
-2897,78	741,00
-2886,89	860,00
-2876,02	878,00
-2865,17	818,00
-2854,33	744,00
-2843,50	826,00
-2832,70	820,00
-2821,90	782,00
-2811,13	925,00
-2800,37	809,00
-2789,62	719,00
-2778,89	858,00
-2768,18	845,00
-2757,48	858,00
-2746,80	1039,00
-2736,13	804,00
-2725,48	918,00
-2714,84	732,00
-2704,22	817,00
-2693,61	848,00
-2683,02	773,00
-2672,45	850,00
-2661,89	852,00
-2651,34	803,00
-2640,81	873,00
-2630,30	955,00
-2619,80	812,00
-2609,31	919,00
-2598,84	737,00
-2588,39	847,00
-2577,95	777,00
-2567,52	744,00
-2557,11	724,00
-2546,71	862,00
-2536,33	953,00
-2525,97	850,00
-2515,62	809,00
-2505,28	844,00
-2494,96	821,00
-2484,65	847,00
-2474,36	1174,00
-2464,08	719,00
-2453,82	928,00
-2443,57	784,00
-2433,33	820,00
-2423,11	830,00
-2412,91	833,00
-2402,72	834,00
-2392,54	804,00
-2382,38	812,00
-2372,23	954,00
-2362,09	1775,00
-2351,97	843,00
-2341,87	746,00
-2331,78	817,00
-2321,70	941,00
-2311,64	796,00
-2301,59	784,00
-2291,55	762,00
-2281,53	799,00
-2271,53	743,00
-2261,53	914,00
-2251,55	854,00
-2241,59	757,00
-2231,64	790,00
-2221,70	867,00
-2211,78	803,00
-2201,87	868,00
-2191,97	860,00
-2182,09	798,00
-2172,22	827,00
-2162,37	762,00
-2152,53	714,00
-2142,70	816,00
-2132,89	757,00
-2123,09	919,00
-2113,30	795,00
-2103,53	752,00
-2093,77	827,00
-2084,02	780,00
-2074,29	921,00
-2064,57	753,00
-2054,86	946,00
-2045,17	862,00
-2035,49	858,00
-2025,82	703,00
-2016,17	767,00
-2006,53	827,00
-1996,91	883,00
-1987,29	749,00
-1977,69	882,00
-1968,11	779,00
-1958,53	783,00
-1948,97	802,00
-1939,42	841,00
-1929,89	815,00
-1920,37	869,00
-1910,86	847,00
-1901,36	869,00
-1891,88	871,00
-1882,41	872,00
-1872,95	845,00
-1863,51	895,00
-1854,08	814,00
-1844,66	920,00
-1835,26	955,00
-1825,86	844,00
-1816,48	817,00
-1807,11	848,00
-1797,76	852,00
-1788,42	844,00
-1779,09	853,00
-1769,77	799,00
-1760,47	961,00
-1751,17	807,00
-1741,89	790,00
-1732,63	886,00
-1723,37	1005,00
-1714,13	973,00
-1704,90	801,00
-1695,68	976,00
-1686,48	735,00
-1677,29	748,00
-1668,11	1026,00
-1658,94	754,00
-1649,78	824,00
-1640,64	839,00
-1631,51	772,00
-1622,39	907,00
-1613,28	863,00
-1604,19	950,00
-1595,10	853,00
-1586,03	767,00
-1576,97	822,00
-1567,93	705,00
-1558,89	877,00
-1549,87	906,00
-1540,86	788,00
-1531,86	812,00
-1522,87	784,00
-1513,90	908,00
-1504,93	872,00
-1495,98	875,00
-1487,04	950,00
-1478,12	799,00
-1469,20	862,00
-1460,30	884,00
-1451,40	978,00
-1442,52	819,00
-1433,65	976,00
-1424,80	818,00
-1415,95	756,00
-1407,12	1019,00
-1398,30	825,00
-1389,48	902,00
-1380,69	835,00
-1371,90	838,00
-1363,12	887,00
-1354,36	936,00
-1345,60	787,00
-1336,86	925,00
-1328,13	1021,00
-1319,41	912,00
-1310,70	761,00
-1302,01	793,00
-1293,32	774,00
-1284,65	862,00
-1275,99	830,00
-1267,33	939,00
-1258,69	844,00
-1250,06	841,00
-1241,45	735,00
-1232,84	1019,00
-1224,25	842,00
-1215,66	811,00
-1207,09	870,00
-1198,53	790,00
-1189,97	827,00
-1181,43	763,00
-1172,91	771,00
-1164,39	962,00
-1155,88	706,00
-1147,38	726,00
-1138,90	796,00
-1130,43	782,00
-1121,96	849,00
-1113,51	861,00
-1105,07	842,00
-1096,64	906,00
-1088,22	829,00
-1079,81	898,00
-1071,41	937,00
-1063,02	780,00
-1054,65	911,00
-1046,28	781,00
-1037,92	837,00
-1029,58	847,00
-1021,24	876,00
-1012,92	1220,00
-1004,61	854,00
-996,30	993,00
-988,01	739,00
-979,73	825,00
-971,46	897,00
-963,20	788,00
-954,95	764,00
-946,71	892,00
-938,48	883,00
-930,26	868,00
-922,06	860,00
-913,86	770,00
-905,67	782,00
-897,49	912,00
-889,33	674,00
-881,17	929,00
-873,02	935,00
-864,89	685,00
-856,76	831,00
-848,65	868,00
-840,54	933,00
-832,45	903,00
-824,36	729,00
-816,29	838,00
-808,22	941,00
-800,17	864,00
-792,12	813,00
-784,09	980,00
-776,06	800,00
-768,05	844,00
-760,04	867,00
-752,05	798,00
-744,07	899,00
-736,09	953,00
-728,13	681,00
-720,17	781,00
-712,23	805,00
-704,29	699,00
-696,37	812,00
-688,45	955,00
-680,55	800,00
-672,65	826,00
-664,77	816,00
-656,89	784,00
-649,03	848,00
-641,17	841,00
-633,32	841,00
-625,49	906,00
-617,66	777,00
-609,84	879,00
-602,03	763,00
-594,23	842,00
-586,45	758,00
-578,67	845,00
-570,90	799,00
-563,14	716,00
-555,39	882,00
-547,65	895,00
-539,91	776,00
-532,19	881,00
-524,48	905,00
-516,78	794,00
-509,08	862,00
-501,40	918,00
-493,72	856,00
-486,06	773,00
-478,40	932,00
-470,76	757,00
-463,12	865,00
-455,49	812,00
-447,87	876,00
-440,26	798,00
-432,66	859,00
-425,07	845,00
-417,49	864,00
-409,92	730,00
-402,35	836,00
-394,80	736,00
-387,25	895,00
-379,72	812,00
-372,19	892,00
-364,67	934,00
-357,17	830,00
-349,67	890,00
-342,18	888,00
-334,69	932,00
-327,22	853,00
-319,76	834,00
-312,30	830,00
-304,86	799,00
-297,42	902,00
-290,00	810,00
-282,58	871,00
-275,17	876,00
-267,77	1003,00
-260,37	823,00
-252,99	955,00
-245,62	935,00
-238,25	879,00
-230,90	835,00
-223,55	1023,00
-216,21	887,00
-208,88	1025,00
-201,56	993,00
-194,25	932,00
-186,94	1111,00
-179,65	987,00
-172,36	1063,00
-165,08	1030,00
-157,81	1175,00
-150,55	1247,00
-143,30	1213,00
-136,06	1198,00
-128,82	1294,00
-121,60	1239,00
-114,38	1470,00
-107,17	1532,00
-99,97	1735,00
-92,78	1609,00
-85,60	1739,00
-78,42	2018,00
-71,25	2042,00
-64,10	2313,00
-56,95	2533,00
-49,81	2975,00
-42,67	3517,00
-35,55	3982,00
-28,43	5144,00
-21,33	8010,00
-14,23	24848,00
-7,14	57498,00
-0,05	57284,00
7,02	57012,00
14,09	57319,00
21,14	21048,00
28,19	9207,00
35,23	6284,00
42,27	5195,00
49,29	4134,00
56,31	3653,00
63,32	3224,00
70,32	2910,00
77,31	2552,00
84,29	2307,00
91,27	2214,00
98,23	2077,00
105,19	1893,00
112,14	2143,00
119,09	2926,00
126,02	4199,00
132,95	4925,00
139,87	4983,00
146,78	5123,00
153,68	5003,00
160,58	4847,00
167,46	4665,00
174,34	4795,00
181,21	4718,00
188,08	4589,00
194,93	4706,00
201,78	4650,00
208,62	4714,00
215,45	4665,00
222,27	4606,00
229,09	4789,00
235,90	4586,00
242,70	4592,00
249,49	4513,00
256,27	4394,00
263,05	4357,00
269,82	4199,00
276,58	4277,00
283,33	4197,00
290,08	4106,00
296,82	4027,00
303,55	3933,00
310,27	3965,00
316,98	3948,00
323,69	3833,00
330,39	3872,00
337,08	3902,00
343,76	3889,00
350,44	3864,00
357,11	3838,00
363,77	3905,00
370,42	3792,00
377,07	3811,00
383,71	3753,00
390,34	3729,00
396,96	3847,00
403,58	3716,00
410,19	3987,00
416,79	4017,00
423,38	4248,00
429,97	4110,00
436,55	4031,00
443,12	4147,00
449,68	4235,00
456,24	3957,00
462,79	3968,00
469,33	3700,00
475,86	3714,00
482,39	3444,00
488,91	3573,00
495,42	3354,00
501,93	3354,00
508,42	3247,00
514,91	3224,00
521,40	3150,00
527,87	3212,00
534,34	3144,00
540,80	3291,00
547,25	3280,00
553,70	3178,00
560,14	3175,00
566,57	3249,00
573,00	3295,00
579,41	3400,00
585,83	3340,00
592,23	3394,00
598,62	3414,00
605,01	3532,00
611,40	3599,00
617,77	3613,00
624,14	3515,00
630,50	3376,00
636,85	3164,00
643,20	3079,00
649,54	3002,00
655,87	3008,00
662,20	2977,00
668,52	2958,00
674,83	2976,00
681,13	2803,00
687,43	3012,00
693,72	2807,00
700,00	2765,00
706,28	2802,00
712,55	2824,00
718,81	2895,00
725,07	2780,00
731,32	2802,00
737,56	2876,00
743,79	2736,00
750,02	2750,00
756,24	2633,00
762,46	2755,00
768,67	2965,00
774,87	2726,00
781,06	2707,00
787,25	2756,00
793,43	2641,00
799,60	2706,00
805,77	2803,00
811,93	2708,00
818,08	2761,00
824,23	2690,00
830,37	2918,00
836,50	2720,00
842,63	2679,00
848,75	2828,00
854,87	2701,00
860,97	2869,00
867,07	2770,00
873,17	2790,00
879,25	2779,00
885,33	2857,00
891,41	2734,00
897,47	2731,00
903,53	2714,00
909,59	2758,00
915,63	2706,00
921,67	2587,00
927,71	2643,00
933,74	2677,00
939,76	2373,00
945,77	2554,00
951,78	2647,00
957,78	2453,00
963,78	2595,00
969,77	2457,00
975,75	2482,00
981,72	2531,00
987,69	3677,00
993,66	2553,00
999,61	2582,00
1005,56	2509,00
1011,51	2571,00
1017,44	2589,00
1023,37	2610,00
1029,30	2590,00
1035,22	2685,00
1041,13	2673,00
1047,03	2865,00
1052,93	3389,00
1058,83	4799,00
1064,71	5362,00
1070,59	4530,00
1076,47	3656,00
1082,33	3246,00
1088,20	3196,00
1094,05	3052,00
1099,90	2789,00
1105,74	2804,00
1111,58	2827,00
1117,41	3140,00
1123,23	4138,00
1129,05	5131,00
1134,86	4663,00
1140,67	3480,00
1146,47	2822,00
1152,26	2752,00
1158,05	2495,00
1163,83	2757,00
1169,60	2880,00
1175,37	2805,00
1181,13	2651,00
1186,89	2492,00
1192,64	2446,00
1198,38	2600,00
1204,12	2274,00
1209,85	2353,00
1215,58	2347,00
1221,30	2438,00
1227,02	2418,00
1232,72	2403,00
1238,43	2266,00
1244,12	2355,00
1249,81	2367,00
1255,50	2600,00
1261,17	2584,00
1266,85	2567,00
1272,51	2800,00
1278,17	2746,00
1283,83	3221,00
1289,47	4618,00
1295,12	6270,00
1300,75	5553,00
1306,38	4264,00
1312,01	3432,00
1317,63	2973,00
1323,24	2779,00
1328,85	2657,00
1334,45	2491,00
1340,04	2530,00
1345,63	2459,00
1351,22	2583,00
1356,80	2579,00
1362,37	2674,00
1367,93	2668,00
1373,49	2762,00
1379,05	2561,00
1384,60	2473,00
1390,14	2616,00
1395,68	2497,00
1401,21	2580,00
1406,74	2916,00
1412,26	3392,00
1417,77	4161,00
1423,28	3902,00
1428,78	4362,00
1434,28	5412,00
1439,77	6231,00
1445,26	6105,00
1450,74	5665,00
1456,22	5227,00
1461,68	5112,00
1467,15	4739,00
1472,61	3944,00
1478,06	3565,00
1483,51	2989,00
1488,95	2659,00
1494,38	2661,00
1499,81	2388,00
1505,24	2428,00
1510,65	2438,00
1516,07	2351,00
1521,48	2154,00
1526,88	2155,00
1532,27	2168,00
1537,67	2211,00
1543,05	2252,00
1548,43	2041,00
1553,81	2173,00
1559,18	2007,00
1564,54	2076,00
1569,90	2075,00
1575,25	2000,00
1580,60	2054,00
1585,94	2092,00
1591,28	2012,00
1596,61	1979,00
1601,93	1929,00
1607,25	2093,00
1612,57	1934,00
1617,88	1963,00
1623,18	2046,00
1628,48	1953,00
1633,77	1927,00
1639,06	1999,00
1644,34	1896,00
1649,62	1802,00
1654,89	1889,00
1660,16	1803,00
1665,42	1988,00
1670,67	1908,00
1675,92	1728,00
1681,17	1844,00
1686,41	1836,00
1691,64	1948,00
1696,87	1830,00
1702,10	1725,00
1707,32	1817,00
1712,53	1745,00
1717,74	1707,00
1722,94	1916,00
1728,14	1743,00
1733,33	1726,00
1738,52	1692,00
1743,70	1750,00
1748,88	1745,00
1754,05	1749,00
1759,22	1696,00
1764,38	992,00
1769,53	1755,00
1774,69	1722,00
1779,83	1754,00
1784,97	1738,00
1790,11	1702,00
1795,24	1624,00
1800,36	1684,00
1805,48	1627,00
1810,60	1632,00
1815,71	1652,00
1820,82	1555,00
1825,92	1694,00
1831,01	1562,00
1836,10	1550,00
1841,19	1713,00
1846,26	1500,00
1851,34	1572,00
1856,41	1640,00
1861,47	1561,00
1866,53	1682,00
1871,59	1559,00
1876,64	1606,00
1881,68	1441,00
1886,72	1527,00
1891,76	1581,00
1896,79	1543,00
1901,81	1532,00
1906,83	1550,00
1911,85	1518,00
1916,86	1481,00
1921,86	1385,00
1926,86	1405,00
1931,86	1556,00
1936,85	1488,00
1941,83	1417,00
1946,81	1497,00
1951,79	1381,00
1956,76	1361,00
1961,72	1355,00
1966,68	1412,00
1971,64	1437,00
1976,59	1520,00
1981,54	1384,00
1986,48	1500,00
1991,42	1250,00
1996,35	1673,00
2001,27	1339,00
2006,20	1439,00
2011,11	1426,00
2016,03	1352,00
2020,93	1268,00
2025,84	1347,00
2030,73	1293,00
2035,63	1226,00
2040,52	1407,00
2045,40	1339,00
2050,28	1378,00
2055,15	1392,00
2060,02	1229,00
2064,89	1452,00
2069,75	1388,00
2074,60	1313,00
2079,46	1290,00
2084,30	1198,00
2089,14	1231,00
2093,98	1367,00
2098,81	1297,00
2103,64	1292,00
2108,46	1358,00
2113,28	1407,00
2118,09	1313,00
2122,90	1380,00
2127,70	1230,00
2132,50	1403,00
2137,30	1306,00
2142,09	1152,00
2146,87	1194,00
2151,66	1273,00
2156,43	1392,00
2161,20	1219,00
2165,97	1393,00
2170,73	1330,00
2175,49	1416,00
2180,24	1365,00
2184,99	1469,00
2189,74	1422,00
2194,48	1394,00
2199,21	1357,00
2203,94	1298,00
2208,67	1222,00
2213,39	1140,00
2218,11	1333,00
2222,82	1222,00
2227,53	1310,00
2232,23	1330,00
2236,93	1279,00
2241,63	1204,00
2246,32	1415,00
2251,00	1226,00
2255,68	1284,00
2260,36	1234,00
2265,03	1271,00
2269,70	1382,00
2274,36	1238,00
2279,02	1322,00
2283,68	1282,00
2288,33	1178,00
2292,97	1248,00
2297,61	1182,00
2302,25	1202,00
2306,88	1186,00
2311,51	1106,00
2316,14	1172,00
2320,75	1063,00
2325,37	1126,00
2329,98	1205,00
2334,59	1165,00
2339,19	1159,00
2343,79	1100,00
2348,38	1192,00
2352,97	1118,00
2357,55	1252,00
2362,13	1162,00
2366,71	1113,00
2371,28	1248,00
2375,85	1182,00
2380,41	1194,00
2384,97	1092,00
2389,52	1228,00
2394,07	1237,00
2398,62	1061,00
2403,16	1277,00
2407,70	1064,00
2412,23	1024,00
2416,76	1193,00
2421,29	1247,00
2425,81	1349,00
2430,32	1193,00
2434,84	1083,00
2439,34	1099,00
2443,85	1243,00
2448,35	1159,00
2452,84	1096,00
2457,33	1207,00
2461,82	1010,00
2466,30	944,00
2470,78	1120,00
2475,25	1085,00
2479,72	1134,00
2484,19	1223,00
2488,65	1214,00
2493,11	1004,00
2497,56	1205,00
2502,01	1000,00
2506,46	1152,00
2510,90	1111,00
2515,34	1075,00
2519,77	1070,00
2524,20	1051,00
2528,62	1151,00
2533,04	1159,00
2537,46	1157,00
2541,87	1100,00
2546,28	1149,00
2550,68	1261,00
2555,08	1125,00
2559,48	1155,00
2563,87	1070,00
2568,26	1089,00
2572,64	1157,00
2577,02	1112,00
2581,40	1037,00
2585,77	1205,00
2590,14	1113,00
2594,50	1020,00
2598,86	1093,00
2603,22	1186,00
2607,57	1104,00
2611,92	1179,00
2616,26	1236,00
2620,60	1335,00
2624,94	1155,00
2629,27	1237,00
2633,60	1142,00
2637,92	1263,00
2642,24	1288,00
2646,56	1103,00
2650,87	1054,00
2655,18	1324,00
2659,48	1102,00
2663,78	1137,00
2668,08	1173,00
2672,37	1231,00
2676,66	1181,00
2680,95	1124,00
2685,23	1285,00
2689,50	1261,00
2693,78	1318,00
2698,05	1232,00
2702,31	1346,00
2706,57	1413,00
2710,83	1486,00
2715,08	1529,00
2719,33	1542,00
2723,58	1476,00
2727,82	1597,00
2732,06	1476,00
2736,29	1477,00
2740,53	1387,00
2744,75	1367,00
2748,97	1317,00
2753,19	1306,00
2757,41	1441,00
2761,62	1415,00
2765,83	1401,00
2770,03	1287,00
2774,23	1441,00
2778,43	1239,00
2782,62	1447,00
2786,81	1388,00
2791,00	1451,00
2795,18	1404,00
2799,35	1531,00
2803,53	1591,00
2807,70	1568,00
2811,86	1583,00
2816,03	1807,00
2820,19	1791,00
2824,34	1892,00
2828,49	2058,00
2832,64	2396,00
2836,78	2705,00
2840,92	3183,00
2845,06	3812,00
2849,19	4299,00
2853,32	4410,00
2857,45	4430,00
2861,57	4190,00
2865,69	4237,00
2869,80	4009,00
2873,91	4218,00
2878,02	4865,00
2882,12	5231,00
2886,22	5214,00
2890,32	4849,00
2894,41	4503,00
2898,50	4233,00
2902,58	3908,00
2906,67	3585,00
2910,74	3260,00
2914,82	3066,00
2918,89	3037,00
2922,96	2759,00
2927,02	2514,00
2931,08	2415,00
2935,13	2235,00
2939,19	2196,00
2943,24	2076,00
2947,28	2075,00
2951,32	1714,00
2955,36	1657,00
2959,40	1588,00
2963,43	1522,00
2967,46	1471,00
2971,48	1416,00
2975,50	1291,00
2979,52	1382,00
2983,53	1339,00
2987,54	1241,00
2991,55	1282,00
2995,55	1246,00
2999,55	1175,00
3003,54	1091,00
3007,54	1180,00
3011,53	1158,00
3015,51	1139,00
3019,49	1122,00
3023,47	1014,00
3027,45	1148,00
3031,42	1032,00
3035,39	1044,00
3039,35	989,00
3043,31	1108,00
3047,27	1013,00
3051,22	1095,00
3055,17	991,00
3059,12	949,00
3063,06	1035,00
3067,00	907,00
3070,94	864,00
3074,87	1056,00
3078,80	956,00
3082,73	1010,00
3086,65	974,00
3090,57	945,00
3094,49	925,00
3098,40	922,00
3102,31	875,00
3106,22	882,00
3110,12	898,00
3114,02	823,00
3117,92	908,00
3121,81	875,00
3125,70	905,00
3129,58	885,00
3133,47	815,00
3137,34	955,00
3141,22	929,00
3145,09	904,00
3148,96	901,00
3152,83	960,00
3156,69	904,00
3160,55	884,00
3164,40	920,00
3168,26	891,00
3172,10	1016,00
3175,95	946,00
3179,79	876,00
3183,63	953,00
3187,47	885,00
3191,30	922,00
3195,13	873,00
3198,95	887,00
3202,78	914,00
3206,60	826,00
3210,41	815,00
3214,23	791,00
3218,03	904,00
3221,84	916,00
3225,64	924,00
3229,44	784,00
3233,24	942,00
3237,03	884,00
3240,82	787,00
3244,61	827,00
3248,39	829,00
3252,17	829,00
3255,95	936,00
3259,72	912,00
3263,49	1039,00
3267,26	818,00
3271,03	817,00
3274,79	863,00
3278,54	954,00
3282,30	722,00
3286,05	914,00
3289,80	924,00
3293,54	911,00
3297,29	843,00
3301,02	893,00
3304,76	813,00
3308,49	940,00
3312,22	807,00
3315,95	832,00
3319,67	764,00
3323,39	940,00
3327,10	973,00
3330,82	763,00
3334,53	846,00
3338,24	891,00
3341,94	848,00
3345,64	864,00
3349,34	801,00
3353,03	870,00
3356,72	859,00
3360,41	876,00
3364,10	778,00
3367,78	821,00
3371,46	754,00
3375,13	859,00
3378,81	875,00
3382,48	748,00
3386,14	897,00
3389,81	903,00
3393,47	773,00
3397,12	997,00
3400,78	924,00
3404,43	773,00
3408,08	905,00
3411,72	847,00
3415,36	844,00
3419,00	826,00
3422,64	874,00
3426,27	761,00
3429,90	834,00
3433,53	825,00
3437,15	835,00
3440,77	830,00
3444,39	879,00
3448,00	884,00
3451,62	824,00
3455,22	864,00
3458,83	746,00
3462,43	878,00
3466,03	932,00
3469,63	791,00
3473,22	708,00
3476,81	762,00
3480,40	825,00
3483,99	753,00
3487,57	824,00
3491,15	853,00
3494,72	897,00
3498,29	902,00
3501,86	723,00
3505,43	806,00
3508,99	812,00
3512,56	658,00
3516,11	876,00
3519,67	889,00
3523,22	797,00
3526,77	770,00
3530,32	929,00
3533,86	849,00
3537,40	945,00
3540,94	806,00
3544,47	777,00
3548,00	816,00
3551,53	833,00
3555,06	804,00
3558,58	866,00
3562,10	868,00
3565,62	703,00
3569,13	893,00
3572,64	1013,00
3576,15	717,00
3579,66	774,00
3583,16	851,00
3586,66	750,00
3590,16	783,00
3593,65	727,00
3597,14	804,00
3600,63	768,00
3604,11	838,00
3607,60	852,00
3611,08	818,00
3614,55	862,00
3618,03	709,00
3621,50	761,00
3624,97	687,00
3628,43	787,00
3631,90	715,00
3635,36	663,00
3638,81	820,00
3642,27	740,00
3645,72	763,00
3649,17	743,00
3652,61	676,00
3656,06	707,00
3659,50	752,00
3662,93	745,00
3666,37	774,00
3669,80	1000,00
3673,23	893,00
3676,65	804,00
3680,08	897,00
3683,50	714,00
3686,92	749,00
3690,33	707,00
3693,74	712,00
3697,15	692,00
3700,56	873,00
3703,96	713,00
3707,36	566,00
3710,76	734,00
3714,16	719,00
3717,55	763,00
3720,94	656,00
3724,33	784,00
3727,71	774,00
3731,10	745,00
3734,48	783,00
3737,85	656,00
3741,23	726,00
3744,60	726,00
3747,97	665,00
3751,33	829,00
3754,69	694,00
3758,05	680,00
3761,41	689,00
3764,77	675,00
3768,12	645,00
3771,47	578,00
3774,82	734,00
3778,16	-8,00
3781,50	14,00
3784,84	0,00
3788,18	13,00
>>>>>End Processed Spectral Data<<<<<
