SpectraSuite Data File
++++++++++++++++++++++++++++++++++++
Date: Mon Jan 05 16:31:55 ICT 2026
User: Administrator
Dark Spectrum Present: Yes
Reference Spectrum Present: No
Number of Sampled Component Spectra: 1
Spectrometers: MAYP113682
Integration Time (usec): 3000000 (MAYP113682)
Spectra Averaged: 1 (MAYP113682)
Boxcar Smoothing: 0 (MAYP113682)
Correct for Electrical Dark: No (MAYP113682)
Strobe/Lamp Enabled: No (MAYP113682)
Correct for Detector Non-linearity: No (MAYP113682)
Correct for Stray Light: No (MAYP113682)
Number of Pixels in Processed Spectrum: 2068
>>>>>Begin Processed Spectral Data<<<<<
-37534,58	30,00
-37414,56	9,00
-37295,11	5,00
-37176,24	10,00
-37057,95	533,00
-36940,22	631,00
-36823,05	654,00
-36706,45	733,00
-36590,40	708,00
-36474,90	685,00
-36359,95	745,00
-36245,55	787,00
-36131,68	664,00
-36018,35	745,00
-35905,55	685,00
-35793,29	799,00
-35681,54	697,00
-35570,32	753,00
-35459,62	744,00
-35349,43	808,00
-35239,75	790,00
-35130,58	734,00
-35021,91	723,00
-34913,74	695,00
-34806,07	812,00
-34698,89	827,00
-34592,20	668,00
-34486,00	740,00
-34380,28	747,00
-34275,04	619,00
-34170,27	716,00
-34065,98	881,00
-33962,16	788,00
-33858,81	842,00
-33755,92	813,00
-33653,49	900,00
-33551,52	844,00
-33450,01	775,00
-33348,94	800,00
-33248,33	651,00
-33148,16	721,00
-33048,43	720,00
-32949,14	946,00
-32850,29	849,00
-32751,87	724,00
-32653,89	821,00
-32556,33	814,00
-32459,20	742,00
-32362,49	783,00
-32266,19	763,00
-32170,32	650,00
-32074,86	798,00
-31979,82	840,00
-31885,18	911,00
-31790,95	845,00
-31697,12	872,00
-31603,69	875,00
-31510,67	838,00
-31418,04	788,00
-31325,80	803,00
-31233,95	750,00
-31142,49	764,00
-31051,42	770,00
-30960,73	876,00
-30870,43	876,00
-30780,50	846,00
-30690,95	787,00
-30601,77	914,00
-30512,97	778,00
-30424,53	827,00
-30336,46	850,00
-30248,76	820,00
-30161,42	908,00
-30074,44	770,00
-29987,81	876,00
-29901,55	884,00
-29815,63	793,00
-29730,07	924,00
-29644,86	883,00
-29560,00	882,00
-29475,48	903,00
-29391,30	870,00
-29307,47	817,00
-29223,97	809,00
-29140,81	862,00
-29057,99	841,00
-28975,50	747,00
-28893,34	877,00
-28811,51	822,00
-28730,00	888,00
-28648,82	803,00
-28567,97	769,00
-28487,43	802,00
-28407,21	784,00
-28327,32	725,00
-28247,73	1004,00
-28168,46	780,00
-28089,50	853,00
-28010,85	826,00
-27932,51	781,00
-27854,48	899,00
-27776,75	716,00
-27699,32	892,00
-27622,19	753,00
-27545,37	828,00
-27468,84	821,00
-27392,60	893,00
-27316,66	863,00
-27241,01	773,00
-27165,66	804,00
-27090,59	712,00
-27015,81	871,00
-26941,31	999,00
-26867,10	865,00
-26793,17	976,00
-26719,52	737,00
-26646,15	758,00
-26573,06	797,00
-26500,24	807,00
-26427,70	844,00
-26355,43	797,00
-26283,43	807,00
-26211,71	821,00
-26140,25	806,00
-26069,06	913,00
-25998,13	762,00
-25927,46	713,00
-25857,06	721,00
-25786,92	807,00
-25717,04	750,00
-25647,42	889,00
-25578,05	773,00
-25508,94	717,00
-25440,09	783,00
-25371,48	846,00
-25303,13	843,00
-25235,02	719,00
-25167,17	779,00
-25099,56	805,00
-25032,19	765,00
-24965,07	773,00
-24898,20	718,00
-24831,56	783,00
-24765,17	824,00
-24699,01	692,00
-24633,10	892,00
-24567,41	812,00
-24501,97	693,00
-24436,75	769,00
-24371,77	730,00
-24307,03	742,00
-24242,51	800,00
-24178,22	764,00
-24114,16	784,00
-24050,32	826,00
-23986,71	771,00
-23923,32	818,00
-23860,16	810,00
-23797,22	735,00
-23734,50	861,00
-23672,00	708,00
-23609,71	703,00
-23547,65	659,00
-23485,80	847,00
-23424,16	688,00
-23362,74	948,00
-23301,53	781,00
-23240,54	690,00
-23179,75	772,00
-23119,17	764,00
-23058,80	765,00
-22998,64	920,00
-22938,68	818,00
-22878,93	707,00
-22819,39	726,00
-22760,04	727,00
-22700,90	766,00
-22641,96	840,00
-22583,22	716,00
-22524,68	751,00
-22466,33	691,00
-22408,19	742,00
-22350,23	760,00
-22292,48	785,00
-22234,92	854,00
-22177,55	846,00
-22120,37	998,00
-22063,38	768,00
-22006,58	871,00
-21949,98	754,00
-21893,56	715,00
-21837,33	786,00
-21781,28	773,00
-21725,42	861,00
-21669,74	867,00
-21614,25	759,00
-21558,94	807,00
-21503,81	848,00
-21448,86	867,00
-21394,10	795,00
-21339,51	759,00
-21285,10	724,00
-21230,86	719,00
-21176,81	762,00
-21122,93	784,00
-21069,22	741,00
-21015,69	706,00
-20962,33	844,00
-20909,14	790,00
-20856,13	796,00
-20803,28	797,00
-20750,61	792,00
-20698,10	677,00
-20645,76	711,00
-20593,59	772,00
-20541,59	750,00
-20489,75	792,00
-20438,07	660,00
-20386,56	782,00
-20335,22	685,00
-20284,03	750,00
-20233,01	777,00
-20182,15	772,00
-20131,45	759,00
-20080,91	708,00
-20030,52	817,00
-19980,30	800,00
-19930,23	613,00
-19880,32	820,00
-19830,56	692,00
-19780,96	836,00
-19731,52	730,00
-19682,23	757,00
-19633,09	758,00
-19584,10	685,00
-19535,26	748,00
-19486,58	842,00
-19438,04	752,00
-19389,66	874,00
-19341,42	732,00
-19293,33	700,00
-19245,39	848,00
-19197,60	859,00
-19149,95	814,00
-19102,45	699,00
-19055,09	687,00
-19007,87	813,00
-18960,80	851,00
-18913,87	733,00
-18867,09	714,00
-18820,44	902,00
-18773,94	768,00
-18727,57	874,00
-18681,35	730,00
-18635,26	753,00
-18589,31	698,00
-18543,50	722,00
-18497,83	810,00
-18452,29	872,00
-18406,89	689,00
-18361,63	878,00
-18316,50	730,00
-18271,50	746,00
-18226,63	839,00
-18181,90	757,00
-18137,30	845,00
-18092,84	753,00
-18048,50	855,00
-18004,29	792,00
-17960,22	687,00
-17916,27	795,00
-17872,45	846,00
-17828,76	879,00
-17785,20	815,00
-17741,77	797,00
-17698,46	856,00
-17655,28	747,00
-17612,22	743,00
-17569,29	767,00
-17526,48	796,00
-17483,79	808,00
-17441,23	688,00
-17398,79	700,00
-17356,48	711,00
-17314,28	881,00
-17272,21	828,00
-17230,26	834,00
-17188,42	798,00
-17146,71	851,00
-17105,12	773,00
-17063,64	779,00
-17022,28	762,00
-16981,04	732,00
-16939,92	810,00
-16898,91	952,00
-16858,02	746,00
-16817,25	714,00
-16776,59	797,00
-16736,04	739,00
-16695,61	769,00
-16655,29	703,00
-16615,09	769,00
-16574,99	800,00
-16535,01	722,00
-16495,15	801,00
-16455,39	791,00
-16415,74	756,00
-16376,21	726,00
-16336,78	743,00
-16297,46	824,00
-16258,26	727,00
-16219,16	780,00
-16180,17	716,00
-16141,28	899,00
-16102,51	825,00
-16063,84	740,00
-16025,27	804,00
-15986,82	741,00
-15948,46	749,00
-15910,22	767,00
-15872,07	808,00
-15834,04	752,00
-15796,10	739,00
-15758,27	852,00
-15720,54	824,00
-15682,91	801,00
-15645,39	890,00
-15607,97	852,00
-15570,64	709,00
-15533,42	886,00
-15496,30	835,00
-15459,28	870,00
-15422,36	734,00
-15385,54	762,00
-15348,82	797,00
-15312,19	881,00
-15275,66	673,00
-15239,23	866,00
-15202,90	695,00
-15166,67	830,00
-15130,53	868,00
-15094,48	792,00
-15058,54	699,00
-15022,68	734,00
-14986,93	733,00
-14951,26	815,00
-14915,69	824,00
-14880,22	735,00
-14844,84	758,00
-14809,55	772,00
-14774,35	875,00
-14739,25	708,00
-14704,24	791,00
-14669,32	737,00
-14634,49	684,00
-14599,75	803,00
-14565,10	732,00
-14530,55	814,00
-14496,08	828,00
-14461,70	836,00
-14427,41	720,00
-14393,21	648,00
-14359,10	731,00
-14325,07	703,00
-14291,14	722,00
-14257,29	772,00
-14223,52	804,00
-14189,85	861,00
-14156,26	831,00
-14122,76	664,00
-14089,34	655,00
-14056,01	751,00
-14022,76	703,00
-13989,60	801,00
-13956,52	906,00
-13923,53	802,00
-13890,62	702,00
-13857,79	788,00
-13825,05	785,00
-13792,39	709,00
-13759,81	839,00
-13727,31	771,00
-13694,90	831,00
-13662,57	792,00
-13630,31	812,00
-13598,14	778,00
-13566,05	699,00
-13534,05	817,00
-13502,12	826,00
-13470,27	762,00
-13438,50	873,00
-13406,80	681,00
-13375,19	737,00
-13343,66	842,00
-13312,20	836,00
-13280,83	787,00
-13249,53	784,00
-13218,30	637,00
-13187,16	732,00
-13156,09	900,00
-13125,10	807,00
-13094,18	807,00
-13063,34	797,00
-13032,58	689,00
-13001,89	809,00
-12971,28	793,00
-12940,74	800,00
-12910,27	837,00
-12879,88	792,00
-12849,57	805,00
-12819,33	773,00
-12789,16	836,00
-12759,06	782,00
-12729,04	717,00
-12699,09	2091,00
-12669,21	778,00
-12639,41	765,00
-12609,68	759,00
-12580,02	720,00
-12550,43	844,00
-12520,91	720,00
-12491,46	773,00
-12462,08	756,00
-12432,77	792,00
-12403,54	729,00
-12374,37	767,00
-12345,27	889,00
-12316,24	730,00
-12287,29	752,00
-12258,40	772,00
-12229,57	870,00
-12200,82	689,00
-12172,14	761,00
-12143,52	601,00
-12114,97	679,00
-12086,49	820,00
-12058,07	888,00
-12029,73	751,00
-12001,44	843,00
-11973,23	831,00
-11945,08	803,00
-11917,00	779,00
-11888,98	707,00
-11861,03	860,00
-11833,15	810,00
-11805,32	815,00
-11777,57	779,00
-11749,88	805,00
-11722,25	767,00
-11694,69	810,00
-11667,19	761,00
-11639,75	880,00
-11612,38	760,00
-11585,07	792,00
-11557,83	801,00
-11530,65	892,00
-11503,53	703,00
-11476,47	732,00
-11449,48	735,00
-11422,54	878,00
-11395,67	831,00
-11368,86	880,00
-11342,11	709,00
-11315,43	762,00
-11288,80	797,00
-11262,23	741,00
-11235,73	693,00
-11209,28	1042,00
-11182,90	858,00
-11156,57	769,00
-11130,31	954,00
-11104,10	829,00
-11077,96	727,00
-11051,87	744,00
-11025,84	808,00
-10999,87	818,00
-10973,96	735,00
-10948,11	766,00
-10922,31	844,00
-10896,58	818,00
-10870,90	934,00
-10845,28	876,00
-10819,71	719,00
-10794,20	872,00
-10768,75	783,00
-10743,36	881,00
-10718,02	810,00
-10692,74	795,00
-10667,52	747,00
-10642,35	798,00
-10617,24	847,00
-10592,18	905,00
-10567,18	803,00
-10542,23	894,00
-10517,34	883,00
-10492,51	827,00
-10467,72	812,00
-10443,00	825,00
-10418,32	920,00
-10393,70	882,00
-10369,14	787,00
-10344,63	829,00
-10320,17	919,00
-10295,77	892,00
-10271,42	878,00
-10247,12	938,00
-10222,88	988,00
-10198,68	868,00
-10174,54	987,00
-10150,46	1085,00
-10126,42	1059,00
-10102,44	960,00
-10078,51	916,00
-10054,63	1183,00
-10030,80	1073,00
-10007,03	1201,00
-9983,30	1150,00
-9959,63	1243,00
-9936,01	1275,00
-9912,44	1160,00
-9888,92	1269,00
-9865,44	1171,00
-9842,02	1207,00
-9818,65	1253,00
-9795,33	1132,00
-9772,06	1325,00
-9748,84	1214,00
-9725,67	1412,00
-9702,55	1396,00
-9679,47	1600,00
-9656,45	1800,00
-9633,47	1637,00
-9610,55	1690,00
-9587,67	1843,00
-9564,84	2183,00
-9542,06	2108,00
-9519,32	2299,00
-9496,64	2425,00
-9474,00	2365,00
-9451,41	2590,00
-9428,87	2713,00
-9406,37	2525,00
-9383,92	2345,00
-9361,52	2447,00
-9339,17	2607,00
-9316,86	2787,00
-9294,60	3177,00
-9272,38	3522,00
-9250,21	3799,00
-9228,09	3802,00
-9206,01	3844,00
-9183,98	3506,00
-9162,00	3358,00
-9140,06	3305,00
-9118,16	3285,00
-9096,31	3275,00
-9074,51	3505,00
-9052,75	3541,00
-9031,04	3561,00
-9009,37	3183,00
-8987,74	2980,00
-8966,16	2770,00
-8944,63	2511,00
-8923,14	2580,00
-8901,69	2445,00
-8880,29	2615,00
-8858,93	2949,00
-8837,61	3049,00
-8816,34	3162,00
-8795,11	3213,00
-8773,92	2915,00
-8752,78	2808,00
-8731,68	2538,00
-8710,62	2683,00
-8689,61	2612,00
-8668,63	2921,00
-8647,70	3067,00
-8626,82	3083,00
-8605,97	3039,00
-8585,17	2854,00
-8564,41	2591,00
-8543,69	2510,00
-8523,01	2337,00
-8502,37	2577,00
-8481,78	2514,00
-8461,23	2591,00
-8440,71	2831,00
-8420,24	2937,00
-8399,81	3231,00
-8379,42	2989,00
-8359,08	2883,00
-8338,77	2560,00
-8318,50	2317,00
-8298,27	2264,00
-8278,09	2549,00
-8257,94	2520,00
-8237,83	2851,00
-8217,76	2834,00
-8197,74	2957,00
-8177,75	2916,00
-8157,80	2577,00
-8137,89	2385,00
-8118,02	2254,00
-8098,19	2484,00
-8078,40	2319,00
-8058,65	2397,00
-8038,93	2514,00
-8019,26	2305,00
-7999,62	2417,00
-7980,02	2223,00
-7960,46	2009,00
-7940,94	2057,00
-7921,46	2060,00
-7902,01	1977,00
-7882,60	2144,00
-7863,23	2010,00
-7843,90	2048,00
-7824,61	2174,00
-7805,35	2260,00
-7786,13	2229,00
-7766,95	2239,00
-7747,80	2200,00
-7728,69	2080,00
-7709,62	2090,00
-7690,59	2143,00
-7671,59	2424,00
-7652,63	2263,00
-7633,70	2262,00
-7614,81	2413,00
-7595,96	2100,00
-7577,15	1991,00
-7558,37	1889,00
-7539,62	2076,00
-7520,91	2049,00
-7502,24	2187,00
-7483,60	2201,00
-7465,00	2134,00
-7446,44	1962,00
-7427,91	1635,00
-7409,41	1614,00
-7390,95	1672,00
-7372,53	1503,00
-7354,14	1563,00
-7335,78	1587,00
-7317,46	1739,00
-7299,18	1679,00
-7280,92	1786,00
-7262,71	2059,00
-7244,52	2076,00
-7226,38	2100,00
-7208,26	1965,00
-7190,18	2035,00
-7172,14	1871,00
-7154,12	1857,00
-7136,15	1891,00
-7118,20	2013,00
-7100,29	2043,00
-7082,41	2117,00
-7064,57	1994,00
-7046,76	1991,00
-7028,98	1601,00
-7011,24	1697,00
-6993,53	1392,00
-6975,85	1407,00
-6958,20	1355,00
-6940,59	1340,00
-6923,01	1245,00
-6905,46	1477,00
-6887,94	1568,00
-6870,46	-347,00
-6853,01	2034,00
-6835,59	1876,00
-6818,21	1746,00
-6800,85	1676,00
-6783,53	1418,00
-6766,24	1134,00
-6748,98	1251,00
-6731,76	1132,00
-6714,56	1085,00
-6697,40	997,00
-6680,26	1087,00
-6663,16	1278,00
-6646,09	1454,00
-6629,05	1599,00
-6612,05	1588,00
-6595,07	1540,00
-6578,13	1638,00
-6561,21	1331,00
-6544,33	1306,00
-6527,47	1065,00
-6510,65	1071,00
-6493,86	968,00
-6477,10	1107,00
-6460,36	1164,00
-6443,66	1000,00
-6426,99	1075,00
-6410,35	1069,00
-6393,74	1158,00
-6377,16	1123,00
-6360,61	1246,00
-6344,09	1199,00
-6327,59	1213,00
-6311,13	1400,00
-6294,70	1371,00
-6278,29	1381,00
-6261,92	1426,00
-6245,58	1587,00
-6229,26	1599,00
-6212,97	1503,00
-6196,72	1242,00
-6180,49	1219,00
-6164,29	932,00
-6148,12	997,00
-6131,98	1030,00
-6115,86	870,00
-6099,78	918,00
-6083,72	747,00
-6067,69	858,00
-6051,69	948,00
-6035,72	1018,00
-6019,78	1054,00
-6003,87	1210,00
-5987,98	1210,00
-5972,12	1297,00
-5956,29	1333,00
-5940,49	1213,00
-5924,71	1272,00
-5908,96	1045,00
-5893,24	1005,00
-5877,55	882,00
-5861,89	1036,00
-5846,25	876,00
-5830,64	1029,00
-5815,05	932,00
-5799,50	950,00
-5783,97	1061,00
-5768,47	1024,00
-5752,99	1254,00
-5737,55	1160,00
-5722,12	1258,00
-5706,73	1223,00
-5691,36	1226,00
-5676,02	1035,00
-5660,71	904,00
-5645,42	954,00
-5630,16	1019,00
-5614,92	1053,00
-5599,71	1069,00
-5584,53	1098,00
-5569,37	1005,00
-5554,24	2144,00
-5539,14	1032,00
-5524,06	1076,00
-5509,01	1057,00
-5493,98	1089,00
-5478,98	1057,00
-5464,00	1014,00
-5449,05	1059,00
-5434,13	987,00
-5419,23	926,00
-5404,36	842,00
-5389,51	993,00
-5374,69	1189,00
-5359,89	1327,00
-5345,12	1302,00
-5330,37	1363,00
-5315,65	1078,00
-5300,95	1121,00
-5286,28	979,00
-5271,63	935,00
-5257,01	1022,00
-5242,41	1074,00
-5227,84	1030,00
-5213,29	1040,00
-5198,76	901,00
-5184,26	935,00
-5169,79	924,00
-5155,33	955,00
-5140,91	1040,00
-5126,51	1058,00
-5112,13	1084,00
-5097,77	1087,00
-5083,44	1033,00
-5069,13	881,00
-5054,85	971,00
-5040,59	1024,00
-5026,36	967,00
-5012,15	1122,00
-4997,96	1028,00
-4983,80	1033,00
-4969,66	903,00
-4955,54	882,00
-4941,44	1026,00
-4927,37	1022,00
-4913,33	1326,00
-4899,30	1282,00
-4885,30	1247,00
-4871,33	982,00
-4857,37	913,00
-4843,44	892,00
-4829,53	964,00
-4815,65	1059,00
-4801,79	839,00
-4787,95	1135,00
-4774,13	913,00
-4760,34	877,00
-4746,56	927,00
-4732,82	828,00
-4719,09	961,00
-4705,38	1166,00
-4691,70	1215,00
-4678,04	1227,00
-4664,41	1179,00
-4650,79	1157,00
-4637,20	895,00
-4623,63	851,00
-4610,08	1038,00
-4596,56	1037,00
-4583,05	1004,00
-4569,57	981,00
-4556,11	1004,00
-4542,67	857,00
-4529,25	807,00
-4515,86	989,00
-4502,49	1125,00
-4489,13	1158,00
-4475,80	1266,00
-4462,49	887,00
-4449,21	1032,00
-4435,94	905,00
-4422,70	910,00
-4409,47	933,00
-4396,27	1043,00
-4383,09	932,00
-4369,93	908,00
-4356,79	744,00
-4343,67	902,00
-4330,58	913,00
-4317,50	993,00
-4304,45	976,00
-4291,41	926,00
-4278,40	789,00
-4265,41	890,00
-4252,44	936,00
-4239,49	825,00
-4226,55	1036,00
-4213,65	934,00
-4200,76	838,00
-4187,89	813,00
-4175,04	709,00
-4162,21	763,00
-4149,40	839,00
-4136,61	828,00
-4123,85	811,00
-4111,10	836,00
-4098,37	816,00
-4085,66	866,00
-4072,98	903,00
-4060,31	837,00
-4047,66	850,00
-4035,04	1012,00
-4022,43	850,00
-4009,84	808,00
-3997,27	745,00
-3984,72	811,00
-3972,19	808,00
-3959,69	769,00
-3947,20	759,00
-3934,73	707,00
-3922,27	698,00
-3909,84	694,00
-3897,43	804,00
-3885,04	862,00
-3872,67	779,00
-3860,31	812,00
-3847,98	931,00
-3835,66	800,00
-3823,36	826,00
-3811,09	765,00
-3798,83	830,00
-3786,59	796,00
-3774,37	940,00
-3762,17	695,00
-3749,98	776,00
-3737,82	827,00
-3725,67	959,00
-3713,55	747,00
-3701,44	842,00
-3689,35	798,00
-3677,28	888,00
-3665,22	761,00
-3653,19	752,00
-3641,17	775,00
-3629,18	806,00
-3617,20	877,00
-3605,24	806,00
-3593,30	855,00
-3581,37	811,00
-3569,47	867,00
-3557,58	806,00
-3545,71	907,00
-3533,86	847,00
-3522,02	792,00
-3510,21	830,00
-3498,41	707,00
-3486,63	828,00
-3474,87	720,00
-3463,12	843,00
-3451,40	788,00
-3439,69	773,00
-3428,00	793,00
-3416,33	821,00
-3404,67	710,00
-3393,03	806,00
-3381,41	892,00
-3369,81	803,00
-3358,22	873,00
-3346,66	858,00
-3335,10	806,00
-3323,57	719,00
-3312,06	823,00
-3300,56	772,00
-3289,08	814,00
-3277,61	794,00
-3266,16	864,00
-3254,73	872,00
-3243,32	817,00
-3231,92	726,00
-3220,55	797,00
-3209,18	969,00
-3197,84	729,00
-3186,51	657,00
-3175,20	701,00
-3163,90	685,00
-3152,63	805,00
-3141,36	773,00
-3130,12	837,00
-3118,89	819,00
-3107,68	709,00
-3096,49	783,00
-3085,31	781,00
-3074,15	790,00
-3063,00	787,00
-3051,87	767,00
-3040,76	808,00
-3029,67	938,00
-3018,59	928,00
-3007,52	923,00
-2996,48	859,00
-2985,44	808,00
-2974,43	895,00
-2963,43	758,00
-2952,45	782,00
-2941,48	769,00
-2930,53	768,00
-2919,60	700,00
-2908,68	705,00
-2897,78	820,00
-2886,89	849,00
-2876,02	799,00
-2865,17	746,00
-2854,33	757,00
-2843,50	839,00
-2832,70	768,00
-2821,90	748,00
-2811,13	864,00
-2800,37	845,00
-2789,62	660,00
-2778,89	926,00
-2768,18	793,00
-2757,48	819,00
-2746,80	800,00
-2736,13	780,00
-2725,48	918,00
-2714,84	696,00
-2704,22	809,00
-2693,61	806,00
-2683,02	739,00
-2672,45	836,00
-2661,89	866,00
-2651,34	805,00
-2640,81	852,00
-2630,30	934,00
-2619,80	816,00
-2609,31	888,00
-2598,84	732,00
-2588,39	814,00
-2577,95	747,00
-2567,52	703,00
-2557,11	664,00
-2546,71	799,00
-2536,33	903,00
-2525,97	707,00
-2515,62	939,00
-2505,28	771,00
-2494,96	730,00
-2484,65	830,00
-2474,36	1071,00
-2464,08	742,00
-2453,82	906,00
-2443,57	777,00
-2433,33	741,00
-2423,11	852,00
-2412,91	806,00
-2402,72	793,00
-2392,54	789,00
-2382,38	784,00
-2372,23	834,00
-2362,09	1779,00
-2351,97	770,00
-2341,87	707,00
-2331,78	840,00
-2321,70	897,00
-2311,64	839,00
-2301,59	765,00
-2291,55	805,00
-2281,53	895,00
-2271,53	607,00
-2261,53	841,00
-2251,55	797,00
-2241,59	801,00
-2231,64	772,00
-2221,70	768,00
-2211,78	778,00
-2201,87	841,00
-2191,97	865,00
-2182,09	810,00
-2172,22	876,00
-2162,37	757,00
-2152,53	677,00
-2142,70	770,00
-2132,89	747,00
-2123,09	903,00
-2113,30	793,00
-2103,53	730,00
-2093,77	821,00
-2084,02	786,00
-2074,29	872,00
-2064,57	773,00
-2054,86	833,00
-2045,17	888,00
-2035,49	916,00
-2025,82	734,00
-2016,17	812,00
-2006,53	703,00
-1996,91	850,00
-1987,29	813,00
-1977,69	814,00
-1968,11	762,00
-1958,53	779,00
-1948,97	803,00
-1939,42	865,00
-1929,89	751,00
-1920,37	862,00
-1910,86	762,00
-1901,36	802,00
-1891,88	889,00
-1882,41	819,00
-1872,95	853,00
-1863,51	889,00
-1854,08	859,00
-1844,66	839,00
-1835,26	972,00
-1825,86	924,00
-1816,48	822,00
-1807,11	826,00
-1797,76	828,00
-1788,42	768,00
-1779,09	808,00
-1769,77	751,00
-1760,47	916,00
-1751,17	736,00
-1741,89	762,00
-1732,63	807,00
-1723,37	1112,00
-1714,13	888,00
-1704,90	773,00
-1695,68	934,00
-1686,48	683,00
-1677,29	778,00
-1668,11	974,00
-1658,94	707,00
-1649,78	756,00
-1640,64	783,00
-1631,51	864,00
-1622,39	853,00
-1613,28	801,00
-1604,19	892,00
-1595,10	845,00
-1586,03	735,00
-1576,97	807,00
-1567,93	804,00
-1558,89	796,00
-1549,87	901,00
-1540,86	709,00
-1531,86	771,00
-1522,87	804,00
-1513,90	819,00
-1504,93	800,00
-1495,98	857,00
-1487,04	894,00
-1478,12	742,00
-1469,20	837,00
-1460,30	817,00
-1451,40	932,00
-1442,52	817,00
-1433,65	939,00
-1424,80	861,00
-1415,95	817,00
-1407,12	1021,00
-1398,30	809,00
-1389,48	830,00
-1380,69	795,00
-1371,90	668,00
-1363,12	880,00
-1354,36	969,00
-1345,60	777,00
-1336,86	847,00
-1328,13	932,00
-1319,41	843,00
-1310,70	841,00
-1302,01	770,00
-1293,32	788,00
-1284,65	776,00
-1275,99	794,00
-1267,33	912,00
-1258,69	815,00
-1250,06	809,00
-1241,45	786,00
-1232,84	923,00
-1224,25	823,00
-1215,66	846,00
-1207,09	897,00
-1198,53	831,00
-1189,97	847,00
-1181,43	803,00
-1172,91	799,00
-1164,39	932,00
-1155,88	675,00
-1147,38	710,00
-1138,90	676,00
-1130,43	685,00
-1121,96	852,00
-1113,51	867,00
-1105,07	769,00
-1096,64	825,00
-1088,22	804,00
-1079,81	879,00
-1071,41	927,00
-1063,02	769,00
-1054,65	1005,00
-1046,28	749,00
-1037,92	846,00
-1029,58	782,00
-1021,24	837,00
-1012,92	1145,00
-1004,61	807,00
-996,30	1066,00
-988,01	667,00
-979,73	811,00
-971,46	918,00
-963,20	764,00
-954,95	680,00
-946,71	761,00
-938,48	848,00
-930,26	857,00
-922,06	867,00
-913,86	732,00
-905,67	710,00
-897,49	786,00
-889,33	683,00
-881,17	887,00
-873,02	826,00
-864,89	729,00
-856,76	726,00
-848,65	876,00
-840,54	899,00
-832,45	866,00
-824,36	693,00
-816,29	907,00
-808,22	898,00
-800,17	816,00
-792,12	807,00
-784,09	883,00
-776,06	796,00
-768,05	888,00
-760,04	724,00
-752,05	809,00
-744,07	777,00
-736,09	913,00
-728,13	661,00
-720,17	840,00
-712,23	801,00
-704,29	712,00
-696,37	781,00
-688,45	919,00
-680,55	786,00
-672,65	849,00
-664,77	867,00
-656,89	804,00
-649,03	648,00
-641,17	865,00
-633,32	877,00
-625,49	878,00
-617,66	739,00
-609,84	845,00
-602,03	684,00
-594,23	872,00
-586,45	801,00
-578,67	792,00
-570,90	842,00
-563,14	770,00
-555,39	844,00
-547,65	791,00
-539,91	850,00
-532,19	800,00
-524,48	863,00
-516,78	749,00
-509,08	823,00
-501,40	788,00
-493,72	853,00
-486,06	781,00
-478,40	887,00
-470,76	764,00
-463,12	765,00
-455,49	788,00
-447,87	778,00
-440,26	722,00
-432,66	729,00
-425,07	830,00
-417,49	901,00
-409,92	627,00
-402,35	729,00
-394,80	627,00
-387,25	809,00
-379,72	889,00
-372,19	874,00
-364,67	904,00
-357,17	804,00
-349,67	876,00
-342,18	766,00
-334,69	852,00
-327,22	795,00
-319,76	777,00
-312,30	837,00
-304,86	828,00
-297,42	764,00
-290,00	838,00
-282,58	813,00
-275,17	944,00
-267,77	981,00
-260,37	837,00
-252,99	970,00
-245,62	934,00
-238,25	819,00
-230,90	839,00
-223,55	1012,00
-216,21	858,00
-208,88	1082,00
-201,56	931,00
-194,25	948,00
-186,94	1010,00
-179,65	1051,00
-172,36	1022,00
-165,08	1076,00
-157,81	1181,00
-150,55	1123,00
-143,30	1177,00
-136,06	1139,00
-128,82	1256,00
-121,60	1162,00
-114,38	1307,00
-107,17	1477,00
-99,97	1695,00
-92,78	1567,00
-85,60	1668,00
-78,42	1907,00
-71,25	2078,00
-64,10	2149,00
-56,95	2523,00
-49,81	2862,00
-42,67	3363,00
-35,55	3893,00
-28,43	5064,00
-21,33	7972,00
-14,23	24738,00
-7,14	57498,00
-0,05	57284,00
7,02	57012,00
14,09	57319,00
21,14	21090,00
28,19	9292,00
35,23	6166,00
42,27	4939,00
49,29	4074,00
56,31	3532,00
63,32	3259,00
70,32	2690,00
77,31	2471,00
84,29	2150,00
91,27	2073,00
98,23	2046,00
105,19	1828,00
112,14	1990,00
119,09	2844,00
126,02	3899,00
132,95	4504,00
139,87	4466,00
146,78	4707,00
153,68	4481,00
160,58	4360,00
167,46	4372,00
174,34	4330,00
181,21	4384,00
188,08	4142,00
194,93	4330,00
201,78	4257,00
208,62	4281,00
215,45	4218,00
222,27	4189,00
229,09	4302,00
235,90	4125,00
242,70	4070,00
249,49	4105,00
256,27	3981,00
263,05	3911,00
269,82	3934,00
276,58	3841,00
283,33	3601,00
290,08	3666,00
296,82	3613,00
303,55	3523,00
310,27	3481,00
316,98	3488,00
323,69	3425,00
330,39	3362,00
337,08	3548,00
343,76	3447,00
350,44	3576,00
357,11	3441,00
363,77	3329,00
370,42	3365,00
377,07	3451,00
383,71	3542,00
390,34	3431,00
396,96	3496,00
403,58	3518,00
410,19	3623,00
416,79	3615,00
423,38	3851,00
429,97	3682,00
436,55	3637,00
443,12	3760,00
449,68	3806,00
456,24	3631,00
462,79	3605,00
469,33	3393,00
475,86	3235,00
482,39	3109,00
488,91	3061,00
495,42	3042,00
501,93	3033,00
508,42	2913,00
514,91	3029,00
521,40	2942,00
527,87	2960,00
534,34	2920,00
540,80	2878,00
547,25	2992,00
553,70	2933,00
560,14	2931,00
566,57	2954,00
573,00	2870,00
579,41	2983,00
585,83	3080,00
592,23	2995,00
598,62	3180,00
605,01	3265,00
611,40	3278,00
617,77	3300,00
624,14	3043,00
630,50	3029,00
636,85	2894,00
643,20	2900,00
649,54	2755,00
655,87	2700,00
662,20	2780,00
668,52	2693,00
674,83	2675,00
681,13	2649,00
687,43	2655,00
693,72	2545,00
700,00	2444,00
706,28	2562,00
712,55	2579,00
718,81	2773,00
725,07	2458,00
731,32	2634,00
737,56	2651,00
743,79	2536,00
750,02	2529,00
756,24	2424,00
762,46	2451,00
768,67	2685,00
774,87	2518,00
781,06	2456,00
787,25	2499,00
793,43	2431,00
799,60	2514,00
805,77	2618,00
811,93	2602,00
818,08	2541,00
824,23	2546,00
830,37	2695,00
836,50	2485,00
842,63	2462,00
848,75	2521,00
854,87	2554,00
860,97	2636,00
867,07	2588,00
873,17	2646,00
879,25	2577,00
885,33	2532,00
891,41	2667,00
897,47	2613,00
903,53	2536,00
909,59	2516,00
915,63	2529,00
921,67	2511,00
927,71	2593,00
933,74	2463,00
939,76	2269,00
945,77	2388,00
951,78	2536,00
957,78	2284,00
963,78	2409,00
969,77	2311,00
975,75	2371,00
981,72	2320,00
987,69	3687,00
993,66	2456,00
999,61	2508,00
1005,56	2402,00
1011,51	2361,00
1017,44	2422,00
1023,37	2413,00
1029,30	2445,00
1035,22	2464,00
1041,13	2504,00
1047,03	2685,00
1052,93	3240,00
1058,83	4480,00
1064,71	5048,00
1070,59	4156,00
1076,47	3433,00
1082,33	3119,00
1088,20	3086,00
1094,05	2820,00
1099,90	2642,00
1105,74	2636,00
1111,58	2656,00
1117,41	3012,00
1123,23	3816,00
1129,05	4720,00
1134,86	4285,00
1140,67	3214,00
1146,47	2708,00
1152,26	2507,00
1158,05	2467,00
1163,83	2545,00
1169,60	2717,00
1175,37	2627,00
1181,13	2454,00
1186,89	2293,00
1192,64	2400,00
1198,38	2466,00
1204,12	2257,00
1209,85	2223,00
1215,58	2270,00
1221,30	2326,00
1227,02	2323,00
1232,72	2193,00
1238,43	2224,00
1244,12	2147,00
1249,81	2296,00
1255,50	2386,00
1261,17	2320,00
1266,85	2416,00
1272,51	2569,00
1278,17	2777,00
1283,83	2927,00
1289,47	4424,00
1295,12	5917,00
1300,75	5336,00
1306,38	4145,00
1312,01	3326,00
1317,63	2854,00
1323,24	2729,00
1328,85	2541,00
1334,45	2361,00
1340,04	2449,00
1345,63	2389,00
1351,22	2531,00
1356,80	2387,00
1362,37	2497,00
1367,93	2486,00
1373,49	2614,00
1379,05	2436,00
1384,60	2384,00
1390,14	2398,00
1395,68	2399,00
1401,21	2505,00
1406,74	2757,00
1412,26	3250,00
1417,77	3895,00
1423,28	3603,00
1428,78	4182,00
1434,28	5118,00
1439,77	5925,00
1445,26	5860,00
1450,74	5338,00
1456,22	4937,00
1461,68	4814,00
1467,15	4448,00
1472,61	3745,00
1478,06	3374,00
1483,51	2949,00
1488,95	2558,00
1494,38	2601,00
1499,81	2359,00
1505,24	2274,00
1510,65	2226,00
1516,07	2226,00
1521,48	2174,00
1526,88	2007,00
1532,27	2076,00
1537,67	2055,00
1543,05	2101,00
1548,43	2019,00
1553,81	2034,00
1559,18	1852,00
1564,54	1963,00
1569,90	1887,00
1575,25	1904,00
1580,60	1919,00
1585,94	2062,00
1591,28	1972,00
1596,61	1909,00
1601,93	1928,00
1607,25	1968,00
1612,57	1924,00
1617,88	1878,00
1623,18	1927,00
1628,48	1831,00
1633,77	1825,00
1639,06	1952,00
1644,34	1835,00
1649,62	1708,00
1654,89	1815,00
1660,16	1676,00
1665,42	1881,00
1670,67	1791,00
1675,92	1692,00
1681,17	1700,00
1686,41	1780,00
1691,64	1876,00
1696,87	1768,00
1702,10	1649,00
1707,32	1702,00
1712,53	1755,00
1717,74	1683,00
1722,94	1872,00
1728,14	1641,00
1733,33	1660,00
1738,52	1589,00
1743,70	1749,00
1748,88	1659,00
1754,05	1755,00
1759,22	1608,00
1764,38	1871,00
1769,53	1732,00
1774,69	1662,00
1779,83	1585,00
1784,97	1636,00
1790,11	1644,00
1795,24	1637,00
1800,36	1678,00
1805,48	1581,00
1810,60	1639,00
1815,71	1568,00
1820,82	1502,00
1825,92	1616,00
1831,01	1575,00
1836,10	1524,00
1841,19	1569,00
1846,26	1268,00
1851,34	1499,00
1856,41	1555,00
1861,47	1462,00
1866,53	1656,00
1871,59	1474,00
1876,64	1516,00
1881,68	1477,00
1886,72	1524,00
1891,76	1456,00
1896,79	1437,00
1901,81	1428,00
1906,83	1490,00
1911,85	1358,00
1916,86	1436,00
1921,86	1306,00
1926,86	1358,00
1931,86	1436,00
1936,85	1420,00
1941,83	1362,00
1946,81	1386,00
1951,79	1312,00
1956,76	1319,00
1961,72	1235,00
1966,68	1373,00
1971,64	1300,00
1976,59	1353,00
1981,54	1356,00
1986,48	1424,00
1991,42	1224,00
1996,35	1595,00
2001,27	1324,00
2006,20	1336,00
2011,11	1351,00
2016,03	1369,00
2020,93	1246,00
2025,84	1360,00
2030,73	1308,00
2035,63	1201,00
2040,52	1411,00
2045,40	1260,00
2050,28	1368,00
2055,15	1355,00
2060,02	1276,00
2064,89	1458,00
2069,75	1304,00
2074,60	1289,00
2079,46	1193,00
2084,30	1208,00
2089,14	1157,00
2093,98	1372,00
2098,81	1291,00
2103,64	1276,00
2108,46	1308,00
2113,28	1376,00
2118,09	1278,00
2122,90	1318,00
2127,70	1165,00
2132,50	1337,00
2137,30	1232,00
2142,09	1091,00
2146,87	1207,00
2151,66	1181,00
2156,43	1245,00
2161,20	1224,00
2165,97	1345,00
2170,73	1217,00
2175,49	1354,00
2180,24	1387,00
2184,99	1382,00
2189,74	1404,00
2194,48	1396,00
2199,21	1320,00
2203,94	1264,00
2208,67	1187,00
2213,39	1145,00
2218,11	1228,00
2222,82	1218,00
2227,53	1215,00
2232,23	1214,00
2236,93	1218,00
2241,63	1218,00
2246,32	1216,00
2251,00	1241,00
2255,68	1250,00
2260,36	1160,00
2265,03	1278,00
2269,70	1296,00
2274,36	1140,00
2279,02	1276,00
2283,68	1163,00
2288,33	1247,00
2292,97	1218,00
2297,61	1172,00
2302,25	1260,00
2306,88	1211,00
2311,51	1059,00
2316,14	1153,00
2320,75	1088,00
2325,37	1071,00
2329,98	1149,00
2334,59	1070,00
2339,19	1133,00
2343,79	1042,00
2348,38	1199,00
2352,97	1053,00
2357,55	1162,00
2362,13	1096,00
2366,71	1067,00
2371,28	1131,00
2375,85	1166,00
2380,41	1223,00
2384,97	1067,00
2389,52	1219,00
2394,07	1164,00
2398,62	1056,00
2403,16	1218,00
2407,70	994,00
2412,23	1061,00
2416,76	1112,00
2421,29	1124,00
2425,81	1234,00
2430,32	1253,00
2434,84	1006,00
2439,34	1069,00
2443,85	1300,00
2448,35	1125,00
2452,84	1069,00
2457,33	1074,00
2461,82	1012,00
2466,30	1007,00
2470,78	1184,00
2475,25	1016,00
2479,72	1074,00
2484,19	1128,00
2488,65	1156,00
2493,11	1057,00
2497,56	1242,00
2502,01	1026,00
2506,46	1160,00
2510,90	1013,00
2515,34	983,00
2519,77	1043,00
2524,20	1059,00
2528,62	1152,00
2533,04	1124,00
2537,46	1008,00
2541,87	1024,00
2546,28	1065,00
2550,68	1191,00
2555,08	1103,00
2559,48	1140,00
2563,87	1045,00
2568,26	1059,00
2572,64	1136,00
2577,02	1187,00
2581,40	1056,00
2585,77	1182,00
2590,14	1047,00
2594,50	1050,00
2598,86	1196,00
2603,22	1145,00
2607,57	971,00
2611,92	1116,00
2616,26	1196,00
2620,60	1132,00
2624,94	1077,00
2629,27	1136,00
2633,60	1063,00
2637,92	1225,00
2642,24	1243,00
2646,56	1137,00
2650,87	1034,00
2655,18	1237,00
2659,48	1008,00
2663,78	1185,00
2668,08	1130,00
2672,37	1162,00
2676,66	1143,00
2680,95	1140,00
2685,23	1276,00
2689,50	1144,00
2693,78	1222,00
2698,05	1213,00
2702,31	1286,00
2706,57	1332,00
2710,83	1457,00
2715,08	1484,00
2719,33	1545,00
2723,58	1472,00
2727,82	1458,00
2732,06	1403,00
2736,29	1370,00
2740,53	1352,00
2744,75	1293,00
2748,97	1294,00
2753,19	1296,00
2757,41	1325,00
2761,62	1316,00
2765,83	1365,00
2770,03	1320,00
2774,23	1406,00
2778,43	1266,00
2782,62	1349,00
2786,81	1365,00
2791,00	1362,00
2795,18	1434,00
2799,35	1495,00
2803,53	1497,00
2807,70	1486,00
2811,86	1580,00
2816,03	1696,00
2820,19	1780,00
2824,34	1761,00
2828,49	1984,00
2832,64	2204,00
2836,78	2669,00
2840,92	3059,00
2845,06	3718,00
2849,19	4125,00
2853,32	4225,00
2857,45	4272,00
2861,57	4224,00
2865,69	4021,00
2869,80	3856,00
2873,91	4088,00
2878,02	4533,00
2882,12	4920,00
2886,22	4974,00
2890,32	4599,00
2894,41	4378,00
2898,50	3874,00
2902,58	3705,00
2906,67	3483,00
2910,74	3243,00
2914,82	2992,00
2918,89	2935,00
2922,96	2711,00
2927,02	2492,00
2931,08	2411,00
2935,13	2222,00
2939,19	2105,00
2943,24	1943,00
2947,28	2007,00
2951,32	1650,00
2955,36	1513,00
2959,40	1639,00
2963,43	1474,00
2967,46	1452,00
2971,48	1482,00
2975,50	1356,00
2979,52	1359,00
2983,53	1195,00
2987,54	1115,00
2991,55	1224,00
2995,55	1230,00
2999,55	1132,00
3003,54	1025,00
3007,54	1231,00
3011,53	1062,00
3015,51	1085,00
3019,49	1059,00
3023,47	950,00
3027,45	1066,00
3031,42	1028,00
3035,39	924,00
3039,35	993,00
3043,31	1031,00
3047,27	958,00
3051,22	1068,00
3055,17	916,00
3059,12	863,00
3063,06	903,00
3067,00	859,00
3070,94	863,00
3074,87	1009,00
3078,80	993,00
3082,73	1014,00
3086,65	1011,00
3090,57	936,00
3094,49	856,00
3098,40	879,00
3102,31	875,00
3106,22	870,00
3110,12	900,00
3114,02	776,00
3117,92	912,00
3121,81	812,00
3125,70	900,00
3129,58	861,00
3133,47	769,00
3137,34	945,00
3141,22	902,00
3145,09	858,00
3148,96	875,00
3152,83	968,00
3156,69	898,00
3160,55	835,00
3164,40	959,00
3168,26	862,00
3172,10	980,00
3175,95	806,00
3179,79	847,00
3183,63	913,00
3187,47	869,00
3191,30	955,00
3195,13	854,00
3198,95	736,00
3202,78	853,00
3206,60	832,00
3210,41	740,00
3214,23	761,00
3218,03	902,00
3221,84	874,00
3225,64	852,00
3229,44	741,00
3233,24	910,00
3237,03	846,00
3240,82	818,00
3244,61	767,00
3248,39	800,00
3252,17	833,00
3255,95	882,00
3259,72	913,00
3263,49	1006,00
3267,26	792,00
3271,03	783,00
3274,79	828,00
3278,54	840,00
3282,30	763,00
3286,05	858,00
3289,80	904,00
3293,54	845,00
3297,29	881,00
3301,02	788,00
3304,76	884,00
3308,49	868,00
3312,22	784,00
3315,95	814,00
3319,67	754,00
3323,39	954,00
3327,10	897,00
3330,82	857,00
3334,53	805,00
3338,24	820,00
3341,94	784,00
3345,64	840,00
3349,34	715,00
3353,03	820,00
3356,72	906,00
3360,41	853,00
3364,10	765,00
3367,78	784,00
3371,46	814,00
3375,13	803,00
3378,81	850,00
3382,48	737,00
3386,14	879,00
3389,81	891,00
3393,47	825,00
3397,12	906,00
3400,78	849,00
3404,43	785,00
3408,08	877,00
3411,72	801,00
3415,36	781,00
3419,00	935,00
3422,64	832,00
3426,27	818,00
3429,90	799,00
3433,53	679,00
3437,15	785,00
3440,77	708,00
3444,39	764,00
3448,00	819,00
3451,62	838,00
3455,22	760,00
3458,83	688,00
3462,43	792,00
3466,03	865,00
3469,63	804,00
3473,22	795,00
3476,81	758,00
3480,40	957,00
3483,99	751,00
3487,57	753,00
3491,15	824,00
3494,72	863,00
3498,29	802,00
3501,86	752,00
3505,43	815,00
3508,99	697,00
3512,56	678,00
3516,11	810,00
3519,67	789,00
3523,22	849,00
3526,77	753,00
3530,32	957,00
3533,86	831,00
3537,40	867,00
3540,94	877,00
3544,47	682,00
3548,00	715,00
3551,53	891,00
3555,06	760,00
3558,58	853,00
3562,10	843,00
3565,62	727,00
3569,13	766,00
3572,64	880,00
3576,15	696,00
3579,66	750,00
3583,16	744,00
3586,66	840,00
3590,16	744,00
3593,65	796,00
3597,14	726,00
3600,63	750,00
3604,11	778,00
3607,60	780,00
3611,08	759,00
3614,55	826,00
3618,03	641,00
3621,50	673,00
3624,97	678,00
3628,43	782,00
3631,90	672,00
3635,36	633,00
3638,81	767,00
3642,27	719,00
3645,72	779,00
3649,17	651,00
3652,61	705,00
3656,06	719,00
3659,50	663,00
3662,93	772,00
3666,37	762,00
3669,80	933,00
3673,23	849,00
3676,65	808,00
3680,08	853,00
3683,50	709,00
3686,92	714,00
3690,33	713,00
3693,74	745,00
3697,15	588,00
3700,56	769,00
3703,96	746,00
3707,36	631,00
3710,76	693,00
3714,16	674,00
3717,55	739,00
3720,94	647,00
3724,33	681,00
3727,71	783,00
3731,10	646,00
3734,48	725,00
3737,85	582,00
3741,23	663,00
3744,60	703,00
3747,97	556,00
3751,33	781,00
3754,69	627,00
3758,05	672,00
3761,41	624,00
3764,77	584,00
3768,12	618,00
3771,47	552,00
3774,82	657,00
3778,16	-6,00
3781,50	11,00
3784,84	7,00
3788,18	9,00
>>>>>End Processed Spectral Data<<<<<
