SpectraSuite Data File
++++++++++++++++++++++++++++++++++++
Date: Mon Jan 05 16:33:16 ICT 2026
User: Administrator
Dark Spectrum Present: Yes
Reference Spectrum Present: No
Number of Sampled Component Spectra: 1
Spectrometers: MAYP113682
Integration Time (usec): 3000000 (MAYP113682)
Spectra Averaged: 1 (MAYP113682)
Boxcar Smoothing: 0 (MAYP113682)
Correct for Electrical Dark: No (MAYP113682)
Strobe/Lamp Enabled: No (MAYP113682)
Correct for Detector Non-linearity: No (MAYP113682)
Correct for Stray Light: No (MAYP113682)
Number of Pixels in Processed Spectrum: 2068
>>>>>Begin Processed Spectral Data<<<<<
-37534,58	30,00
-37414,56	8,00
-37295,11	4,00
-37176,24	1,00
-37057,95	569,00
-36940,22	647,00
-36823,05	703,00
-36706,45	782,00
-36590,40	792,00
-36474,90	672,00
-36359,95	784,00
-36245,55	851,00
-36131,68	770,00
-36018,35	794,00
-35905,55	717,00
-35793,29	838,00
-35681,54	712,00
-35570,32	771,00
-35459,62	759,00
-35349,43	859,00
-35239,75	789,00
-35130,58	773,00
-35021,91	803,00
-34913,74	768,00
-34806,07	805,00
-34698,89	875,00
-34592,20	759,00
-34486,00	796,00
-34380,28	913,00
-34275,04	780,00
-34170,27	763,00
-34065,98	919,00
-33962,16	837,00
-33858,81	891,00
-33755,92	759,00
-33653,49	944,00
-33551,52	987,00
-33450,01	897,00
-33348,94	827,00
-33248,33	705,00
-33148,16	803,00
-33048,43	780,00
-32949,14	921,00
-32850,29	928,00
-32751,87	816,00
-32653,89	886,00
-32556,33	965,00
-32459,20	862,00
-32362,49	803,00
-32266,19	833,00
-32170,32	863,00
-32074,86	887,00
-31979,82	981,00
-31885,18	996,00
-31790,95	954,00
-31697,12	1025,00
-31603,69	913,00
-31510,67	1022,00
-31418,04	898,00
-31325,80	830,00
-31233,95	755,00
-31142,49	845,00
-31051,42	880,00
-30960,73	960,00
-30870,43	1046,00
-30780,50	923,00
-30690,95	878,00
-30601,77	1065,00
-30512,97	826,00
-30424,53	890,00
-30336,46	911,00
-30248,76	907,00
-30161,42	984,00
-30074,44	849,00
-29987,81	935,00
-29901,55	918,00
-29815,63	925,00
-29730,07	958,00
-29644,86	880,00
-29560,00	966,00
-29475,48	1013,00
-29391,30	880,00
-29307,47	870,00
-29223,97	899,00
-29140,81	877,00
-29057,99	950,00
-28975,50	768,00
-28893,34	967,00
-28811,51	919,00
-28730,00	926,00
-28648,82	853,00
-28567,97	947,00
-28487,43	876,00
-28407,21	895,00
-28327,32	794,00
-28247,73	1101,00
-28168,46	794,00
-28089,50	981,00
-28010,85	839,00
-27932,51	800,00
-27854,48	923,00
-27776,75	815,00
-27699,32	956,00
-27622,19	903,00
-27545,37	935,00
-27468,84	983,00
-27392,60	952,00
-27316,66	846,00
-27241,01	932,00
-27165,66	852,00
-27090,59	776,00
-27015,81	932,00
-26941,31	940,00
-26867,10	845,00
-26793,17	948,00
-26719,52	841,00
-26646,15	836,00
-26573,06	907,00
-26500,24	882,00
-26427,70	900,00
-26355,43	794,00
-26283,43	885,00
-26211,71	915,00
-26140,25	856,00
-26069,06	974,00
-25998,13	847,00
-25927,46	794,00
-25857,06	789,00
-25786,92	849,00
-25717,04	822,00
-25647,42	958,00
-25578,05	773,00
-25508,94	954,00
-25440,09	893,00
-25371,48	875,00
-25303,13	940,00
-25235,02	880,00
-25167,17	845,00
-25099,56	953,00
-25032,19	816,00
-24965,07	759,00
-24898,20	811,00
-24831,56	796,00
-24765,17	864,00
-24699,01	791,00
-24633,10	892,00
-24567,41	948,00
-24501,97	872,00
-24436,75	878,00
-24371,77	842,00
-24307,03	842,00
-24242,51	904,00
-24178,22	834,00
-24114,16	862,00
-24050,32	885,00
-23986,71	898,00
-23923,32	837,00
-23860,16	900,00
-23797,22	809,00
-23734,50	853,00
-23672,00	838,00
-23609,71	831,00
-23547,65	801,00
-23485,80	962,00
-23424,16	812,00
-23362,74	964,00
-23301,53	825,00
-23240,54	685,00
-23179,75	745,00
-23119,17	865,00
-23058,80	848,00
-22998,64	934,00
-22938,68	797,00
-22878,93	863,00
-22819,39	735,00
-22760,04	761,00
-22700,90	824,00
-22641,96	894,00
-22583,22	874,00
-22524,68	819,00
-22466,33	891,00
-22408,19	864,00
-22350,23	811,00
-22292,48	798,00
-22234,92	852,00
-22177,55	906,00
-22120,37	926,00
-22063,38	834,00
-22006,58	782,00
-21949,98	843,00
-21893,56	734,00
-21837,33	927,00
-21781,28	911,00
-21725,42	904,00
-21669,74	903,00
-21614,25	858,00
-21558,94	861,00
-21503,81	899,00
-21448,86	915,00
-21394,10	832,00
-21339,51	811,00
-21285,10	752,00
-21230,86	781,00
-21176,81	710,00
-21122,93	827,00
-21069,22	767,00
-21015,69	765,00
-20962,33	845,00
-20909,14	866,00
-20856,13	907,00
-20803,28	921,00
-20750,61	824,00
-20698,10	719,00
-20645,76	780,00
-20593,59	1001,00
-20541,59	924,00
-20489,75	870,00
-20438,07	819,00
-20386,56	873,00
-20335,22	843,00
-20284,03	829,00
-20233,01	860,00
-20182,15	830,00
-20131,45	922,00
-20080,91	792,00
-20030,52	885,00
-19980,30	822,00
-19930,23	781,00
-19880,32	944,00
-19830,56	798,00
-19780,96	799,00
-19731,52	893,00
-19682,23	832,00
-19633,09	762,00
-19584,10	755,00
-19535,26	787,00
-19486,58	966,00
-19438,04	823,00
-19389,66	868,00
-19341,42	787,00
-19293,33	817,00
-19245,39	904,00
-19197,60	870,00
-19149,95	926,00
-19102,45	887,00
-19055,09	741,00
-19007,87	899,00
-18960,80	875,00
-18913,87	863,00
-18867,09	809,00
-18820,44	931,00
-18773,94	819,00
-18727,57	861,00
-18681,35	688,00
-18635,26	850,00
-18589,31	778,00
-18543,50	822,00
-18497,83	892,00
-18452,29	840,00
-18406,89	735,00
-18361,63	872,00
-18316,50	917,00
-18271,50	829,00
-18226,63	962,00
-18181,90	983,00
-18137,30	895,00
-18092,84	867,00
-18048,50	894,00
-18004,29	841,00
-17960,22	799,00
-17916,27	788,00
-17872,45	901,00
-17828,76	948,00
-17785,20	859,00
-17741,77	909,00
-17698,46	894,00
-17655,28	762,00
-17612,22	880,00
-17569,29	764,00
-17526,48	950,00
-17483,79	865,00
-17441,23	834,00
-17398,79	814,00
-17356,48	723,00
-17314,28	1025,00
-17272,21	825,00
-17230,26	879,00
-17188,42	897,00
-17146,71	1036,00
-17105,12	822,00
-17063,64	907,00
-17022,28	904,00
-16981,04	770,00
-16939,92	829,00
-16898,91	949,00
-16858,02	830,00
-16817,25	826,00
-16776,59	828,00
-16736,04	800,00
-16695,61	880,00
-16655,29	765,00
-16615,09	825,00
-16574,99	852,00
-16535,01	881,00
-16495,15	889,00
-16455,39	822,00
-16415,74	791,00
-16376,21	840,00
-16336,78	800,00
-16297,46	786,00
-16258,26	750,00
-16219,16	802,00
-16180,17	818,00
-16141,28	926,00
-16102,51	827,00
-16063,84	753,00
-16025,27	824,00
-15986,82	725,00
-15948,46	860,00
-15910,22	806,00
-15872,07	889,00
-15834,04	909,00
-15796,10	826,00
-15758,27	1008,00
-15720,54	926,00
-15682,91	773,00
-15645,39	1071,00
-15607,97	925,00
-15570,64	816,00
-15533,42	933,00
-15496,30	869,00
-15459,28	834,00
-15422,36	831,00
-15385,54	793,00
-15348,82	832,00
-15312,19	1031,00
-15275,66	791,00
-15239,23	912,00
-15202,90	766,00
-15166,67	802,00
-15130,53	956,00
-15094,48	854,00
-15058,54	802,00
-15022,68	853,00
-14986,93	786,00
-14951,26	878,00
-14915,69	885,00
-14880,22	825,00
-14844,84	822,00
-14809,55	920,00
-14774,35	808,00
-14739,25	796,00
-14704,24	922,00
-14669,32	834,00
-14634,49	810,00
-14599,75	922,00
-14565,10	773,00
-14530,55	916,00
-14496,08	852,00
-14461,70	965,00
-14427,41	783,00
-14393,21	755,00
-14359,10	699,00
-14325,07	791,00
-14291,14	778,00
-14257,29	936,00
-14223,52	927,00
-14189,85	987,00
-14156,26	778,00
-14122,76	751,00
-14089,34	751,00
-14056,01	840,00
-14022,76	773,00
-13989,60	808,00
-13956,52	872,00
-13923,53	816,00
-13890,62	806,00
-13857,79	874,00
-13825,05	764,00
-13792,39	799,00
-13759,81	870,00
-13727,31	802,00
-13694,90	906,00
-13662,57	841,00
-13630,31	893,00
-13598,14	907,00
-13566,05	802,00
-13534,05	801,00
-13502,12	816,00
-13470,27	868,00
-13438,50	1000,00
-13406,80	790,00
-13375,19	761,00
-13343,66	914,00
-13312,20	827,00
-13280,83	703,00
-13249,53	870,00
-13218,30	701,00
-13187,16	792,00
-13156,09	1099,00
-13125,10	856,00
-13094,18	925,00
-13063,34	916,00
-13032,58	749,00
-13001,89	834,00
-12971,28	915,00
-12940,74	834,00
-12910,27	921,00
-12879,88	830,00
-12849,57	1004,00
-12819,33	958,00
-12789,16	828,00
-12759,06	862,00
-12729,04	795,00
-12699,09	2250,00
-12669,21	779,00
-12639,41	904,00
-12609,68	829,00
-12580,02	886,00
-12550,43	1025,00
-12520,91	705,00
-12491,46	816,00
-12462,08	833,00
-12432,77	882,00
-12403,54	805,00
-12374,37	868,00
-12345,27	947,00
-12316,24	843,00
-12287,29	829,00
-12258,40	837,00
-12229,57	950,00
-12200,82	793,00
-12172,14	830,00
-12143,52	681,00
-12114,97	783,00
-12086,49	865,00
-12058,07	961,00
-12029,73	831,00
-12001,44	916,00
-11973,23	840,00
-11945,08	791,00
-11917,00	907,00
-11888,98	820,00
-11861,03	1005,00
-11833,15	844,00
-11805,32	886,00
-11777,57	844,00
-11749,88	846,00
-11722,25	856,00
-11694,69	739,00
-11667,19	830,00
-11639,75	901,00
-11612,38	871,00
-11585,07	786,00
-11557,83	895,00
-11530,65	996,00
-11503,53	780,00
-11476,47	849,00
-11449,48	794,00
-11422,54	1034,00
-11395,67	816,00
-11368,86	841,00
-11342,11	780,00
-11315,43	880,00
-11288,80	885,00
-11262,23	848,00
-11235,73	842,00
-11209,28	1021,00
-11182,90	844,00
-11156,57	823,00
-11130,31	1004,00
-11104,10	886,00
-11077,96	782,00
-11051,87	783,00
-11025,84	838,00
-10999,87	828,00
-10973,96	877,00
-10948,11	781,00
-10922,31	928,00
-10896,58	895,00
-10870,90	923,00
-10845,28	820,00
-10819,71	786,00
-10794,20	976,00
-10768,75	883,00
-10743,36	930,00
-10718,02	780,00
-10692,74	825,00
-10667,52	895,00
-10642,35	861,00
-10617,24	958,00
-10592,18	857,00
-10567,18	854,00
-10542,23	931,00
-10517,34	936,00
-10492,51	996,00
-10467,72	862,00
-10443,00	892,00
-10418,32	988,00
-10393,70	1068,00
-10369,14	891,00
-10344,63	744,00
-10320,17	1050,00
-10295,77	1003,00
-10271,42	963,00
-10247,12	1028,00
-10222,88	1146,00
-10198,68	939,00
-10174,54	982,00
-10150,46	1239,00
-10126,42	1171,00
-10102,44	997,00
-10078,51	998,00
-10054,63	1134,00
-10030,80	1152,00
-10007,03	1279,00
-9983,30	1174,00
-9959,63	1154,00
-9936,01	1274,00
-9912,44	1167,00
-9888,92	1244,00
-9865,44	1128,00
-9842,02	1120,00
-9818,65	1421,00
-9795,33	1134,00
-9772,06	1304,00
-9748,84	1272,00
-9725,67	1266,00
-9702,55	1368,00
-9679,47	1614,00
-9656,45	1716,00
-9633,47	1442,00
-9610,55	1685,00
-9587,67	1854,00
-9564,84	1920,00
-9542,06	1980,00
-9519,32	2173,00
-9496,64	2364,00
-9474,00	2255,00
-9451,41	2318,00
-9428,87	2320,00
-9406,37	2431,00
-9383,92	2164,00
-9361,52	2184,00
-9339,17	2430,00
-9316,86	2644,00
-9294,60	2887,00
-9272,38	3091,00
-9250,21	3437,00
-9228,09	3445,00
-9206,01	3530,00
-9183,98	3276,00
-9162,00	2996,00
-9140,06	3041,00
-9118,16	2961,00
-9096,31	2987,00
-9074,51	3163,00
-9052,75	3360,00
-9031,04	3157,00
-9009,37	2871,00
-8987,74	2703,00
-8966,16	2481,00
-8944,63	2300,00
-8923,14	2379,00
-8901,69	2403,00
-8880,29	2353,00
-8858,93	2630,00
-8837,61	2840,00
-8816,34	2943,00
-8795,11	2956,00
-8773,92	2739,00
-8752,78	2579,00
-8731,68	2358,00
-8710,62	2562,00
-8689,61	2365,00
-8668,63	2607,00
-8647,70	2798,00
-8626,82	2827,00
-8605,97	2732,00
-8585,17	2588,00
-8564,41	2431,00
-8543,69	2293,00
-8523,01	2163,00
-8502,37	2401,00
-8481,78	2274,00
-8461,23	2359,00
-8440,71	2666,00
-8420,24	2688,00
-8399,81	2960,00
-8379,42	2754,00
-8359,08	2651,00
-8338,77	2396,00
-8318,50	2233,00
-8298,27	2166,00
-8278,09	2315,00
-8257,94	2358,00
-8237,83	2603,00
-8217,76	2638,00
-8197,74	2693,00
-8177,75	2606,00
-8157,80	2388,00
-8137,89	2186,00
-8118,02	2182,00
-8098,19	2220,00
-8078,40	2153,00
-8058,65	2210,00
-8038,93	2401,00
-8019,26	2250,00
-7999,62	2236,00
-7980,02	2076,00
-7960,46	2017,00
-7940,94	1922,00
-7921,46	1975,00
-7902,01	1848,00
-7882,60	2011,00
-7863,23	1916,00
-7843,90	1947,00
-7824,61	2046,00
-7805,35	2298,00
-7786,13	2175,00
-7766,95	2180,00
-7747,80	2036,00
-7728,69	1998,00
-7709,62	2004,00
-7690,59	2022,00
-7671,59	2225,00
-7652,63	2074,00
-7633,70	2191,00
-7614,81	2236,00
-7595,96	1926,00
-7577,15	1899,00
-7558,37	1806,00
-7539,62	1906,00
-7520,91	1957,00
-7502,24	2036,00
-7483,60	2132,00
-7465,00	1978,00
-7446,44	1873,00
-7427,91	1618,00
-7409,41	1689,00
-7390,95	1622,00
-7372,53	1439,00
-7354,14	1639,00
-7335,78	1488,00
-7317,46	1620,00
-7299,18	1527,00
-7280,92	1736,00
-7262,71	1988,00
-7244,52	2061,00
-7226,38	1944,00
-7208,26	1839,00
-7190,18	1897,00
-7172,14	1766,00
-7154,12	1763,00
-7136,15	1700,00
-7118,20	1992,00
-7100,29	1957,00
-7082,41	1916,00
-7064,57	1907,00
-7046,76	1813,00
-7028,98	1533,00
-7011,24	1621,00
-6993,53	1303,00
-6975,85	1413,00
-6958,20	1389,00
-6940,59	1281,00
-6923,01	1171,00
-6905,46	1490,00
-6887,94	1442,00
-6870,46	1917,00
-6853,01	1791,00
-6835,59	1700,00
-6818,21	1595,00
-6800,85	1633,00
-6783,53	1360,00
-6766,24	1254,00
-6748,98	1227,00
-6731,76	1176,00
-6714,56	1147,00
-6697,40	984,00
-6680,26	1098,00
-6663,16	1176,00
-6646,09	1491,00
-6629,05	1510,00
-6612,05	1558,00
-6595,07	1415,00
-6578,13	1528,00
-6561,21	1226,00
-6544,33	1349,00
-6527,47	1013,00
-6510,65	1094,00
-6493,86	904,00
-6477,10	1037,00
-6460,36	1191,00
-6443,66	981,00
-6426,99	1026,00
-6410,35	1011,00
-6393,74	1243,00
-6377,16	1154,00
-6360,61	1240,00
-6344,09	1172,00
-6327,59	1138,00
-6311,13	1358,00
-6294,70	1331,00
-6278,29	1352,00
-6261,92	1352,00
-6245,58	1476,00
-6229,26	1480,00
-6212,97	1369,00
-6196,72	1146,00
-6180,49	1223,00
-6164,29	1001,00
-6148,12	1023,00
-6131,98	1072,00
-6115,86	919,00
-6099,78	898,00
-6083,72	835,00
-6067,69	906,00
-6051,69	961,00
-6035,72	958,00
-6019,78	976,00
-6003,87	1223,00
-5987,98	1183,00
-5972,12	1224,00
-5956,29	1240,00
-5940,49	1130,00
-5924,71	1298,00
-5908,96	1000,00
-5893,24	922,00
-5877,55	995,00
-5861,89	1145,00
-5846,25	917,00
-5830,64	1018,00
-5815,05	1045,00
-5799,50	926,00
-5783,97	1102,00
-5768,47	1108,00
-5752,99	1256,00
-5737,55	1069,00
-5722,12	1273,00
-5706,73	1264,00
-5691,36	1177,00
-5676,02	1084,00
-5660,71	972,00
-5645,42	942,00
-5630,16	1043,00
-5614,92	1109,00
-5599,71	1110,00
-5584,53	1169,00
-5569,37	1048,00
-5554,24	1379,00
-5539,14	1081,00
-5524,06	1040,00
-5509,01	1024,00
-5493,98	1050,00
-5478,98	1147,00
-5464,00	1032,00
-5449,05	947,00
-5434,13	1059,00
-5419,23	870,00
-5404,36	945,00
-5389,51	1037,00
-5374,69	1157,00
-5359,89	1266,00
-5345,12	1391,00
-5330,37	1385,00
-5315,65	1208,00
-5300,95	1145,00
-5286,28	1052,00
-5271,63	986,00
-5257,01	985,00
-5242,41	1175,00
-5227,84	952,00
-5213,29	992,00
-5198,76	903,00
-5184,26	929,00
-5169,79	991,00
-5155,33	1058,00
-5140,91	995,00
-5126,51	1058,00
-5112,13	1015,00
-5097,77	1140,00
-5083,44	1053,00
-5069,13	857,00
-5054,85	997,00
-5040,59	1048,00
-5026,36	1135,00
-5012,15	1078,00
-4997,96	1077,00
-4983,80	990,00
-4969,66	951,00
-4955,54	912,00
-4941,44	957,00
-4927,37	1000,00
-4913,33	1237,00
-4899,30	1193,00
-4885,30	1258,00
-4871,33	1007,00
-4857,37	951,00
-4843,44	915,00
-4829,53	1006,00
-4815,65	1076,00
-4801,79	868,00
-4787,95	1015,00
-4774,13	982,00
-4760,34	904,00
-4746,56	1023,00
-4732,82	866,00
-4719,09	988,00
-4705,38	1150,00
-4691,70	1264,00
-4678,04	1340,00
-4664,41	1142,00
-4650,79	1187,00
-4637,20	928,00
-4623,63	876,00
-4610,08	1139,00
-4596,56	1034,00
-4583,05	981,00
-4569,57	1027,00
-4556,11	963,00
-4542,67	842,00
-4529,25	929,00
-4515,86	999,00
-4502,49	1068,00
-4489,13	1251,00
-4475,80	1167,00
-4462,49	863,00
-4449,21	1071,00
-4435,94	886,00
-4422,70	919,00
-4409,47	860,00
-4396,27	1033,00
-4383,09	943,00
-4369,93	892,00
-4356,79	833,00
-4343,67	914,00
-4330,58	924,00
-4317,50	986,00
-4304,45	1012,00
-4291,41	934,00
-4278,40	988,00
-4265,41	828,00
-4252,44	1002,00
-4239,49	881,00
-4226,55	1057,00
-4213,65	915,00
-4200,76	1011,00
-4187,89	824,00
-4175,04	851,00
-4162,21	853,00
-4149,40	888,00
-4136,61	867,00
-4123,85	863,00
-4111,10	850,00
-4098,37	897,00
-4085,66	911,00
-4072,98	930,00
-4060,31	804,00
-4047,66	990,00
-4035,04	1054,00
-4022,43	894,00
-4009,84	876,00
-3997,27	705,00
-3984,72	866,00
-3972,19	909,00
-3959,69	904,00
-3947,20	816,00
-3934,73	813,00
-3922,27	799,00
-3909,84	781,00
-3897,43	920,00
-3885,04	868,00
-3872,67	871,00
-3860,31	843,00
-3847,98	985,00
-3835,66	853,00
-3823,36	875,00
-3811,09	850,00
-3798,83	943,00
-3786,59	826,00
-3774,37	940,00
-3762,17	799,00
-3749,98	886,00
-3737,82	846,00
-3725,67	1051,00
-3713,55	727,00
-3701,44	895,00
-3689,35	870,00
-3677,28	1012,00
-3665,22	802,00
-3653,19	821,00
-3641,17	897,00
-3629,18	893,00
-3617,20	840,00
-3605,24	956,00
-3593,30	951,00
-3581,37	899,00
-3569,47	911,00
-3557,58	906,00
-3545,71	860,00
-3533,86	843,00
-3522,02	875,00
-3510,21	853,00
-3498,41	841,00
-3486,63	895,00
-3474,87	882,00
-3463,12	837,00
-3451,40	898,00
-3439,69	923,00
-3428,00	859,00
-3416,33	892,00
-3404,67	773,00
-3393,03	831,00
-3381,41	925,00
-3369,81	899,00
-3358,22	929,00
-3346,66	1001,00
-3335,10	908,00
-3323,57	788,00
-3312,06	889,00
-3300,56	892,00
-3289,08	865,00
-3277,61	892,00
-3266,16	818,00
-3254,73	882,00
-3243,32	837,00
-3231,92	776,00
-3220,55	955,00
-3209,18	1037,00
-3197,84	722,00
-3186,51	788,00
-3175,20	825,00
-3163,90	813,00
-3152,63	1002,00
-3141,36	744,00
-3130,12	911,00
-3118,89	939,00
-3107,68	856,00
-3096,49	864,00
-3085,31	875,00
-3074,15	877,00
-3063,00	873,00
-3051,87	873,00
-3040,76	818,00
-3029,67	1042,00
-3018,59	1026,00
-3007,52	977,00
-2996,48	889,00
-2985,44	865,00
-2974,43	902,00
-2963,43	833,00
-2952,45	898,00
-2941,48	917,00
-2930,53	824,00
-2919,60	807,00
-2908,68	807,00
-2897,78	848,00
-2886,89	964,00
-2876,02	893,00
-2865,17	768,00
-2854,33	876,00
-2843,50	819,00
-2832,70	909,00
-2821,90	930,00
-2811,13	952,00
-2800,37	825,00
-2789,62	775,00
-2778,89	897,00
-2768,18	1000,00
-2757,48	933,00
-2746,80	970,00
-2736,13	787,00
-2725,48	980,00
-2714,84	807,00
-2704,22	845,00
-2693,61	840,00
-2683,02	932,00
-2672,45	882,00
-2661,89	910,00
-2651,34	961,00
-2640,81	863,00
-2630,30	973,00
-2619,80	827,00
-2609,31	1032,00
-2598,84	837,00
-2588,39	826,00
-2577,95	835,00
-2567,52	745,00
-2557,11	823,00
-2546,71	811,00
-2536,33	912,00
-2525,97	856,00
-2515,62	955,00
-2505,28	843,00
-2494,96	772,00
-2484,65	969,00
-2474,36	1148,00
-2464,08	868,00
-2453,82	1058,00
-2443,57	889,00
-2433,33	736,00
-2423,11	975,00
-2412,91	902,00
-2402,72	784,00
-2392,54	865,00
-2382,38	929,00
-2372,23	967,00
-2362,09	-1587,00
-2351,97	784,00
-2341,87	786,00
-2331,78	884,00
-2321,70	918,00
-2311,64	869,00
-2301,59	866,00
-2291,55	791,00
-2281,53	841,00
-2271,53	788,00
-2261,53	1001,00
-2251,55	893,00
-2241,59	893,00
-2231,64	901,00
-2221,70	909,00
-2211,78	910,00
-2201,87	886,00
-2191,97	847,00
-2182,09	879,00
-2172,22	931,00
-2162,37	783,00
-2152,53	807,00
-2142,70	796,00
-2132,89	832,00
-2123,09	927,00
-2113,30	892,00
-2103,53	827,00
-2093,77	963,00
-2084,02	840,00
-2074,29	952,00
-2064,57	873,00
-2054,86	998,00
-2045,17	980,00
-2035,49	973,00
-2025,82	827,00
-2016,17	840,00
-2006,53	887,00
-1996,91	877,00
-1987,29	856,00
-1977,69	921,00
-1968,11	812,00
-1958,53	825,00
-1948,97	912,00
-1939,42	858,00
-1929,89	857,00
-1920,37	945,00
-1910,86	898,00
-1901,36	926,00
-1891,88	888,00
-1882,41	921,00
-1872,95	865,00
-1863,51	920,00
-1854,08	798,00
-1844,66	936,00
-1835,26	934,00
-1825,86	919,00
-1816,48	866,00
-1807,11	925,00
-1797,76	880,00
-1788,42	916,00
-1779,09	1000,00
-1769,77	880,00
-1760,47	990,00
-1751,17	784,00
-1741,89	843,00
-1732,63	894,00
-1723,37	1125,00
-1714,13	1046,00
-1704,90	863,00
-1695,68	1030,00
-1686,48	886,00
-1677,29	770,00
-1668,11	969,00
-1658,94	830,00
-1649,78	913,00
-1640,64	899,00
-1631,51	925,00
-1622,39	1002,00
-1613,28	882,00
-1604,19	1025,00
-1595,10	826,00
-1586,03	785,00
-1576,97	918,00
-1567,93	880,00
-1558,89	907,00
-1549,87	1005,00
-1540,86	820,00
-1531,86	907,00
-1522,87	912,00
-1513,90	1018,00
-1504,93	846,00
-1495,98	969,00
-1487,04	1013,00
-1478,12	903,00
-1469,20	817,00
-1460,30	935,00
-1451,40	1064,00
-1442,52	915,00
-1433,65	965,00
-1424,80	832,00
-1415,95	871,00
-1407,12	1028,00
-1398,30	934,00
-1389,48	925,00
-1380,69	812,00
-1371,90	913,00
-1363,12	933,00
-1354,36	1060,00
-1345,60	856,00
-1336,86	935,00
-1328,13	1084,00
-1319,41	962,00
-1310,70	881,00
-1302,01	803,00
-1293,32	792,00
-1284,65	910,00
-1275,99	963,00
-1267,33	1013,00
-1258,69	988,00
-1250,06	919,00
-1241,45	770,00
-1232,84	1018,00
-1224,25	954,00
-1215,66	928,00
-1207,09	979,00
-1198,53	918,00
-1189,97	820,00
-1181,43	759,00
-1172,91	891,00
-1164,39	928,00
-1155,88	768,00
-1147,38	679,00
-1138,90	879,00
-1130,43	851,00
-1121,96	895,00
-1113,51	889,00
-1105,07	873,00
-1096,64	946,00
-1088,22	851,00
-1079,81	931,00
-1071,41	1096,00
-1063,02	809,00
-1054,65	955,00
-1046,28	799,00
-1037,92	936,00
-1029,58	860,00
-1021,24	928,00
-1012,92	1241,00
-1004,61	897,00
-996,30	1123,00
-988,01	813,00
-979,73	853,00
-971,46	963,00
-963,20	862,00
-954,95	757,00
-946,71	881,00
-938,48	908,00
-930,26	905,00
-922,06	937,00
-913,86	911,00
-905,67	824,00
-897,49	949,00
-889,33	790,00
-881,17	957,00
-873,02	850,00
-864,89	757,00
-856,76	881,00
-848,65	841,00
-840,54	980,00
-832,45	890,00
-824,36	764,00
-816,29	946,00
-808,22	927,00
-800,17	930,00
-792,12	922,00
-784,09	946,00
-776,06	741,00
-768,05	1000,00
-760,04	871,00
-752,05	871,00
-744,07	957,00
-736,09	953,00
-728,13	784,00
-720,17	834,00
-712,23	797,00
-704,29	799,00
-696,37	879,00
-688,45	974,00
-680,55	815,00
-672,65	913,00
-664,77	811,00
-656,89	891,00
-649,03	786,00
-641,17	969,00
-633,32	834,00
-625,49	987,00
-617,66	869,00
-609,84	933,00
-602,03	784,00
-594,23	919,00
-586,45	893,00
-578,67	830,00
-570,90	846,00
-563,14	823,00
-555,39	872,00
-547,65	920,00
-539,91	938,00
-532,19	924,00
-524,48	905,00
-516,78	761,00
-509,08	990,00
-501,40	836,00
-493,72	804,00
-486,06	810,00
-478,40	1007,00
-470,76	784,00
-463,12	868,00
-455,49	839,00
-447,87	766,00
-440,26	828,00
-432,66	741,00
-425,07	929,00
-417,49	956,00
-409,92	768,00
-402,35	768,00
-394,80	769,00
-387,25	908,00
-379,72	943,00
-372,19	917,00
-364,67	935,00
-357,17	842,00
-349,67	934,00
-342,18	903,00
-334,69	921,00
-327,22	874,00
-319,76	951,00
-312,30	873,00
-304,86	857,00
-297,42	912,00
-290,00	851,00
-282,58	910,00
-275,17	1017,00
-267,77	984,00
-260,37	913,00
-252,99	1008,00
-245,62	937,00
-238,25	890,00
-230,90	962,00
-223,55	1083,00
-216,21	926,00
-208,88	1159,00
-201,56	925,00
-194,25	1054,00
-186,94	1091,00
-179,65	1011,00
-172,36	1147,00
-165,08	1065,00
-157,81	1225,00
-150,55	1271,00
-143,30	1297,00
-136,06	1304,00
-128,82	1387,00
-121,60	1290,00
-114,38	1526,00
-107,17	1521,00
-99,97	1735,00
-92,78	1665,00
-85,60	1772,00
-78,42	2064,00
-71,25	2196,00
-64,10	2290,00
-56,95	2590,00
-49,81	2851,00
-42,67	3462,00
-35,55	4110,00
-28,43	5259,00
-21,33	8170,00
-14,23	24892,00
-7,14	57498,00
-0,05	57284,00
7,02	57012,00
14,09	57319,00
21,14	21236,00
28,19	9410,00
35,23	6190,00
42,27	5170,00
49,29	4171,00
56,31	3739,00
63,32	3349,00
70,32	2914,00
77,31	2554,00
84,29	2279,00
91,27	2163,00
98,23	2117,00
105,19	2040,00
112,14	2211,00
119,09	3038,00
126,02	4563,00
132,95	5356,00
139,87	5487,00
146,78	5559,00
153,68	5409,00
160,58	5267,00
167,46	5151,00
174,34	5250,00
181,21	5172,00
188,08	5136,00
194,93	5184,00
201,78	5198,00
208,62	5266,00
215,45	5243,00
222,27	5144,00
229,09	5285,00
235,90	5037,00
242,70	5010,00
249,49	5067,00
256,27	4823,00
263,05	4753,00
269,82	4749,00
276,58	4782,00
283,33	4568,00
290,08	4479,00
296,82	4554,00
303,55	4372,00
310,27	4359,00
316,98	4366,00
323,69	4343,00
330,39	4344,00
337,08	4436,00
343,76	4353,00
350,44	4380,00
357,11	4283,00
363,77	4353,00
370,42	4283,00
377,07	4307,00
383,71	4246,00
390,34	4192,00
396,96	4346,00
403,58	4274,00
410,19	4398,00
416,79	4481,00
423,38	4634,00
429,97	4642,00
436,55	4450,00
443,12	4623,00
449,68	4564,00
456,24	4492,00
462,79	4358,00
469,33	4173,00
475,86	4078,00
482,39	3924,00
488,91	3901,00
495,42	3869,00
501,93	3758,00
508,42	3654,00
514,91	3726,00
521,40	3602,00
527,87	3600,00
534,34	3512,00
540,80	3553,00
547,25	3771,00
553,70	3586,00
560,14	3654,00
566,57	3614,00
573,00	3690,00
579,41	3683,00
585,83	3714,00
592,23	3853,00
598,62	3830,00
605,01	3868,00
611,40	4034,00
617,77	3959,00
624,14	3735,00
630,50	3648,00
636,85	3556,00
643,20	3524,00
649,54	3369,00
655,87	3348,00
662,20	3394,00
668,52	3356,00
674,83	3397,00
681,13	3147,00
687,43	3279,00
693,72	3124,00
700,00	3151,00
706,28	3107,00
712,55	3203,00
718,81	3227,00
725,07	3132,00
731,32	3251,00
737,56	3164,00
743,79	3104,00
750,02	3133,00
756,24	2953,00
762,46	3043,00
768,67	3294,00
774,87	3084,00
781,06	2954,00
787,25	3016,00
793,43	3050,00
799,60	2985,00
805,77	3152,00
811,93	3043,00
818,08	2919,00
824,23	3075,00
830,37	3195,00
836,50	2997,00
842,63	3051,00
848,75	2970,00
854,87	2999,00
860,97	3120,00
867,07	3003,00
873,17	2972,00
879,25	3035,00
885,33	2963,00
891,41	3061,00
897,47	3038,00
903,53	2928,00
909,59	2973,00
915,63	3000,00
921,67	2900,00
927,71	2938,00
933,74	2895,00
939,76	2648,00
945,77	2790,00
951,78	2943,00
957,78	2700,00
963,78	2775,00
969,77	2868,00
975,75	2728,00
981,72	2701,00
987,69	4153,00
993,66	2884,00
999,61	2823,00
1005,56	2816,00
1011,51	2760,00
1017,44	2805,00
1023,37	2833,00
1029,30	2743,00
1035,22	2874,00
1041,13	2890,00
1047,03	3165,00
1052,93	3651,00
1058,83	5054,00
1064,71	5581,00
1070,59	4619,00
1076,47	3839,00
1082,33	3563,00
1088,20	3495,00
1094,05	3236,00
1099,90	2887,00
1105,74	3027,00
1111,58	2992,00
1117,41	3315,00
1123,23	4317,00
1129,05	5243,00
1134,86	4911,00
1140,67	3698,00
1146,47	3096,00
1152,26	2939,00
1158,05	2850,00
1163,83	2977,00
1169,60	3068,00
1175,37	2995,00
1181,13	2837,00
1186,89	2655,00
1192,64	2699,00
1198,38	2904,00
1204,12	2630,00
1209,85	2606,00
1215,58	2627,00
1221,30	2634,00
1227,02	2642,00
1232,72	2615,00
1238,43	2523,00
1244,12	2585,00
1249,81	2685,00
1255,50	2790,00
1261,17	2781,00
1266,85	2785,00
1272,51	2878,00
1278,17	3061,00
1283,83	3401,00
1289,47	4857,00
1295,12	6523,00
1300,75	5792,00
1306,38	4516,00
1312,01	3600,00
1317,63	3177,00
1323,24	3017,00
1328,85	2931,00
1334,45	2742,00
1340,04	2748,00
1345,63	2682,00
1351,22	2822,00
1356,80	2790,00
1362,37	2854,00
1367,93	2840,00
1373,49	3032,00
1379,05	2804,00
1384,60	2709,00
1390,14	2758,00
1395,68	2771,00
1401,21	2781,00
1406,74	3011,00
1412,26	3663,00
1417,77	4377,00
1423,28	4200,00
1428,78	4571,00
1434,28	5597,00
1439,77	6435,00
1445,26	6250,00
1450,74	5829,00
1456,22	5352,00
1461,68	5270,00
1467,15	4955,00
1472,61	4137,00
1478,06	3751,00
1483,51	3275,00
1488,95	2749,00
1494,38	2918,00
1499,81	2628,00
1505,24	2621,00
1510,65	2608,00
1516,07	2553,00
1521,48	2442,00
1526,88	2452,00
1532,27	2388,00
1537,67	2399,00
1543,05	2411,00
1548,43	2220,00
1553,81	2489,00
1559,18	2180,00
1564,54	2370,00
1569,90	2340,00
1575,25	2115,00
1580,60	2071,00
1585,94	2297,00
1591,28	2160,00
1596,61	2086,00
1601,93	2229,00
1607,25	2215,00
1612,57	2134,00
1617,88	2167,00
1623,18	2202,00
1628,48	2063,00
1633,77	2156,00
1639,06	2172,00
1644,34	2016,00
1649,62	2025,00
1654,89	2148,00
1660,16	1910,00
1665,42	2230,00
1670,67	2026,00
1675,92	1952,00
1681,17	1963,00
1686,41	1958,00
1691,64	1938,00
1696,87	2041,00
1702,10	1940,00
1707,32	2006,00
1712,53	1924,00
1717,74	1870,00
1722,94	2017,00
1728,14	1891,00
1733,33	1963,00
1738,52	1769,00
1743,70	1985,00
1748,88	1796,00
1754,05	1991,00
1759,22	1758,00
1764,38	2290,00
1769,53	1852,00
1774,69	1896,00
1779,83	1769,00
1784,97	1864,00
1790,11	1764,00
1795,24	1808,00
1800,36	1786,00
1805,48	1782,00
1810,60	1816,00
1815,71	1827,00
1820,82	1838,00
1825,92	1821,00
1831,01	1720,00
1836,10	1754,00
1841,19	1824,00
1846,26	1611,00
1851,34	1745,00
1856,41	1752,00
1861,47	1692,00
1866,53	1852,00
1871,59	1743,00
1876,64	1739,00
1881,68	1782,00
1886,72	1607,00
1891,76	1642,00
1896,79	1615,00
1901,81	1581,00
1906,83	1644,00
1911,85	1585,00
1916,86	1614,00
1921,86	1582,00
1926,86	1600,00
1931,86	1722,00
1936,85	1636,00
1941,83	1541,00
1946,81	1629,00
1951,79	1546,00
1956,76	1503,00
1961,72	1405,00
1966,68	1600,00
1971,64	1487,00
1976,59	1524,00
1981,54	1487,00
1986,48	1506,00
1991,42	1370,00
1996,35	1693,00
2001,27	1502,00
2006,20	1496,00
2011,11	1552,00
2016,03	1601,00
2020,93	1402,00
2025,84	1471,00
2030,73	1496,00
2035,63	1445,00
2040,52	1509,00
2045,40	1462,00
2050,28	1423,00
2055,15	1447,00
2060,02	1272,00
2064,89	1580,00
2069,75	1423,00
2074,60	1401,00
2079,46	1365,00
2084,30	1342,00
2089,14	1366,00
2093,98	1486,00
2098,81	1433,00
2103,64	1425,00
2108,46	1527,00
2113,28	1527,00
2118,09	1501,00
2122,90	1414,00
2127,70	1417,00
2132,50	1398,00
2137,30	1376,00
2142,09	1347,00
2146,87	1289,00
2151,66	1482,00
2156,43	1369,00
2161,20	1424,00
2165,97	1518,00
2170,73	1332,00
2175,49	1464,00
2180,24	1473,00
2184,99	1578,00
2189,74	1624,00
2194,48	1481,00
2199,21	1522,00
2203,94	1347,00
2208,67	1352,00
2213,39	1295,00
2218,11	1419,00
2222,82	1305,00
2227,53	1360,00
2232,23	1343,00
2236,93	1433,00
2241,63	1297,00
2246,32	1431,00
2251,00	1436,00
2255,68	1349,00
2260,36	1276,00
2265,03	1347,00
2269,70	1484,00
2274,36	1329,00
2279,02	1324,00
2283,68	1359,00
2288,33	1350,00
2292,97	1390,00
2297,61	1249,00
2302,25	1311,00
2306,88	1259,00
2311,51	1168,00
2316,14	1224,00
2320,75	1164,00
2325,37	1179,00
2329,98	1270,00
2334,59	1217,00
2339,19	1221,00
2343,79	1161,00
2348,38	1276,00
2352,97	1201,00
2357,55	1336,00
2362,13	1212,00
2366,71	1164,00
2371,28	1310,00
2375,85	1257,00
2380,41	1289,00
2384,97	1182,00
2389,52	1362,00
2394,07	1380,00
2398,62	1251,00
2403,16	1288,00
2407,70	1066,00
2412,23	1179,00
2416,76	1348,00
2421,29	1356,00
2425,81	1308,00
2430,32	1333,00
2434,84	1170,00
2439,34	1149,00
2443,85	1352,00
2448,35	1162,00
2452,84	1206,00
2457,33	1308,00
2461,82	1037,00
2466,30	1057,00
2470,78	1221,00
2475,25	1236,00
2479,72	1185,00
2484,19	1190,00
2488,65	1253,00
2493,11	1054,00
2497,56	1310,00
2502,01	1058,00
2506,46	1224,00
2510,90	1198,00
2515,34	1133,00
2519,77	1177,00
2524,20	1196,00
2528,62	1250,00
2533,04	1295,00
2537,46	1212,00
2541,87	1178,00
2546,28	1138,00
2550,68	1294,00
2555,08	1174,00
2559,48	1182,00
2563,87	1198,00
2568,26	1132,00
2572,64	1233,00
2577,02	1197,00
2581,40	1039,00
2585,77	1274,00
2590,14	1165,00
2594,50	1135,00
2598,86	1268,00
2603,22	1231,00
2607,57	1129,00
2611,92	1242,00
2616,26	1362,00
2620,60	1312,00
2624,94	1162,00
2629,27	1316,00
2633,60	1155,00
2637,92	1333,00
2642,24	1323,00
2646,56	1276,00
2650,87	1122,00
2655,18	1336,00
2659,48	1170,00
2663,78	1205,00
2668,08	1239,00
2672,37	1298,00
2676,66	1298,00
2680,95	1252,00
2685,23	1368,00
2689,50	1279,00
2693,78	1249,00
2698,05	1358,00
2702,31	1386,00
2706,57	1451,00
2710,83	1557,00
2715,08	1596,00
2719,33	1648,00
2723,58	1582,00
2727,82	1591,00
2732,06	1480,00
2736,29	1475,00
2740,53	1523,00
2744,75	1321,00
2748,97	1356,00
2753,19	1389,00
2757,41	1426,00
2761,62	1453,00
2765,83	1369,00
2770,03	1285,00
2774,23	1452,00
2778,43	1350,00
2782,62	1436,00
2786,81	1495,00
2791,00	1521,00
2795,18	1500,00
2799,35	1600,00
2803,53	1631,00
2807,70	1610,00
2811,86	1650,00
2816,03	1821,00
2820,19	1861,00
2824,34	1932,00
2828,49	2101,00
2832,64	2318,00
2836,78	2759,00
2840,92	3203,00
2845,06	4020,00
2849,19	4397,00
2853,32	4545,00
2857,45	4385,00
2861,57	4427,00
2865,69	4174,00
2869,80	4118,00
2873,91	4295,00
2878,02	4808,00
2882,12	5275,00
2886,22	5142,00
2890,32	4959,00
2894,41	4535,00
2898,50	4288,00
2902,58	3938,00
2906,67	3730,00
2910,74	3349,00
2914,82	3042,00
2918,89	3056,00
2922,96	2742,00
2927,02	2511,00
2931,08	2469,00
2935,13	2291,00
2939,19	2271,00
2943,24	2117,00
2947,28	2040,00
2951,32	1795,00
2955,36	1643,00
2959,40	1815,00
2963,43	1611,00
2967,46	1527,00
2971,48	1451,00
2975,50	1384,00
2979,52	1397,00
2983,53	1464,00
2987,54	1313,00
2991,55	1250,00
2995,55	1211,00
2999,55	1227,00
3003,54	1129,00
3007,54	1201,00
3011,53	1153,00
3015,51	1137,00
3019,49	1199,00
3023,47	1064,00
3027,45	1132,00
3031,42	1110,00
3035,39	1066,00
3039,35	1031,00
3043,31	1090,00
3047,27	1031,00
3051,22	1123,00
3055,17	1075,00
3059,12	987,00
3063,06	1081,00
3067,00	973,00
3070,94	909,00
3074,87	1082,00
3078,80	989,00
3082,73	1014,00
3086,65	952,00
3090,57	989,00
3094,49	916,00
3098,40	945,00
3102,31	1031,00
3106,22	945,00
3110,12	872,00
3114,02	767,00
3117,92	1025,00
3121,81	961,00
3125,70	1029,00
3129,58	877,00
3133,47	882,00
3137,34	1049,00
3141,22	1048,00
3145,09	899,00
3148,96	976,00
3152,83	923,00
3156,69	1023,00
3160,55	872,00
3164,40	1031,00
3168,26	895,00
3172,10	1013,00
3175,95	949,00
3179,79	985,00
3183,63	1027,00
3187,47	884,00
3191,30	980,00
3195,13	986,00
3198,95	811,00
3202,78	937,00
3206,60	900,00
3210,41	900,00
3214,23	815,00
3218,03	945,00
3221,84	903,00
3225,64	913,00
3229,44	813,00
3233,24	941,00
3237,03	924,00
3240,82	850,00
3244,61	853,00
3248,39	892,00
3252,17	981,00
3255,95	1008,00
3259,72	916,00
3263,49	1051,00
3267,26	868,00
3271,03	927,00
3274,79	838,00
3278,54	907,00
3282,30	810,00
3286,05	966,00
3289,80	936,00
3293,54	875,00
3297,29	1010,00
3301,02	910,00
3304,76	926,00
3308,49	941,00
3312,22	854,00
3315,95	882,00
3319,67	888,00
3323,39	1091,00
3327,10	981,00
3330,82	894,00
3334,53	941,00
3338,24	942,00
3341,94	890,00
3345,64	945,00
3349,34	860,00
3353,03	946,00
3356,72	885,00
3360,41	877,00
3364,10	806,00
3367,78	885,00
3371,46	943,00
3375,13	887,00
3378,81	1043,00
3382,48	786,00
3386,14	1007,00
3389,81	986,00
3393,47	882,00
3397,12	1060,00
3400,78	914,00
3404,43	915,00
3408,08	1065,00
3411,72	877,00
3415,36	852,00
3419,00	918,00
3422,64	880,00
3426,27	944,00
3429,90	863,00
3433,53	852,00
3437,15	923,00
3440,77	751,00
3444,39	913,00
3448,00	897,00
3451,62	881,00
3455,22	939,00
3458,83	818,00
3462,43	821,00
3466,03	964,00
3469,63	778,00
3473,22	823,00
3476,81	812,00
3480,40	912,00
3483,99	836,00
3487,57	895,00
3491,15	810,00
3494,72	894,00
3498,29	950,00
3501,86	874,00
3505,43	816,00
3508,99	762,00
3512,56	679,00
3516,11	918,00
3519,67	834,00
3523,22	841,00
3526,77	766,00
3530,32	1070,00
3533,86	911,00
3537,40	974,00
3540,94	945,00
3544,47	853,00
3548,00	777,00
3551,53	910,00
3555,06	818,00
3558,58	900,00
3562,10	864,00
3565,62	773,00
3569,13	831,00
3572,64	982,00
3576,15	687,00
3579,66	805,00
3583,16	787,00
3586,66	877,00
3590,16	871,00
3593,65	827,00
3597,14	841,00
3600,63	855,00
3604,11	832,00
3607,60	716,00
3611,08	875,00
3614,55	941,00
3618,03	736,00
3621,50	848,00
3624,97	719,00
3628,43	769,00
3631,90	788,00
3635,36	700,00
3638,81	817,00
3642,27	764,00
3645,72	797,00
3649,17	764,00
3652,61	834,00
3656,06	735,00
3659,50	818,00
3662,93	821,00
3666,37	807,00
3669,80	1004,00
3673,23	834,00
3676,65	835,00
3680,08	886,00
3683,50	783,00
3686,92	790,00
3690,33	862,00
3693,74	755,00
3697,15	669,00
3700,56	849,00
3703,96	834,00
3707,36	683,00
3710,76	733,00
3714,16	744,00
3717,55	766,00
3720,94	781,00
3724,33	750,00
3727,71	731,00
3731,10	817,00
3734,48	759,00
3737,85	682,00
3741,23	729,00
3744,60	708,00
3747,97	674,00
3751,33	828,00
3754,69	752,00
3758,05	818,00
3761,41	711,00
3764,77	720,00
3768,12	702,00
3771,47	690,00
3774,82	735,00
3778,16	-8,00
3781,50	21,00
3784,84	7,00
3788,18	11,00
>>>>>End Processed Spectral Data<<<<<
