SpectraSuite Data File
++++++++++++++++++++++++++++++++++++
Date: Mon Jan 05 16:31:37 ICT 2026
User: Administrator
Dark Spectrum Present: Yes
Reference Spectrum Present: No
Number of Sampled Component Spectra: 1
Spectrometers: MAYP113682
Integration Time (usec): 3000000 (MAYP113682)
Spectra Averaged: 1 (MAYP113682)
Boxcar Smoothing: 0 (MAYP113682)
Correct for Electrical Dark: No (MAYP113682)
Strobe/Lamp Enabled: No (MAYP113682)
Correct for Detector Non-linearity: No (MAYP113682)
Correct for Stray Light: No (MAYP113682)
Number of Pixels in Processed Spectrum: 2068
>>>>>Begin Processed Spectral Data<<<<<
-37534,58	24,00
-37414,56	8,00
-37295,11	12,00
-37176,24	5,00
-37057,95	558,00
-36940,22	543,00
-36823,05	632,00
-36706,45	657,00
-36590,40	652,00
-36474,90	653,00
-36359,95	723,00
-36245,55	711,00
-36131,68	654,00
-36018,35	671,00
-35905,55	706,00
-35793,29	815,00
-35681,54	614,00
-35570,32	712,00
-35459,62	689,00
-35349,43	777,00
-35239,75	743,00
-35130,58	752,00
-35021,91	723,00
-34913,74	737,00
-34806,07	753,00
-34698,89	787,00
-34592,20	709,00
-34486,00	781,00
-34380,28	771,00
-34275,04	679,00
-34170,27	664,00
-34065,98	790,00
-33962,16	769,00
-33858,81	800,00
-33755,92	750,00
-33653,49	831,00
-33551,52	776,00
-33450,01	831,00
-33348,94	715,00
-33248,33	794,00
-33148,16	682,00
-33048,43	683,00
-32949,14	965,00
-32850,29	855,00
-32751,87	740,00
-32653,89	803,00
-32556,33	816,00
-32459,20	767,00
-32362,49	751,00
-32266,19	693,00
-32170,32	725,00
-32074,86	787,00
-31979,82	836,00
-31885,18	889,00
-31790,95	785,00
-31697,12	840,00
-31603,69	881,00
-31510,67	827,00
-31418,04	811,00
-31325,80	726,00
-31233,95	783,00
-31142,49	813,00
-31051,42	753,00
-30960,73	898,00
-30870,43	916,00
-30780,50	784,00
-30690,95	870,00
-30601,77	913,00
-30512,97	798,00
-30424,53	858,00
-30336,46	841,00
-30248,76	798,00
-30161,42	838,00
-30074,44	730,00
-29987,81	870,00
-29901,55	884,00
-29815,63	742,00
-29730,07	878,00
-29644,86	879,00
-29560,00	839,00
-29475,48	836,00
-29391,30	870,00
-29307,47	745,00
-29223,97	829,00
-29140,81	813,00
-29057,99	931,00
-28975,50	686,00
-28893,34	836,00
-28811,51	757,00
-28730,00	836,00
-28648,82	793,00
-28567,97	783,00
-28487,43	817,00
-28407,21	703,00
-28327,32	772,00
-28247,73	1020,00
-28168,46	770,00
-28089,50	831,00
-28010,85	748,00
-27932,51	770,00
-27854,48	827,00
-27776,75	771,00
-27699,32	845,00
-27622,19	796,00
-27545,37	811,00
-27468,84	766,00
-27392,60	878,00
-27316,66	819,00
-27241,01	780,00
-27165,66	729,00
-27090,59	681,00
-27015,81	856,00
-26941,31	881,00
-26867,10	711,00
-26793,17	938,00
-26719,52	814,00
-26646,15	746,00
-26573,06	752,00
-26500,24	829,00
-26427,70	735,00
-26355,43	727,00
-26283,43	775,00
-26211,71	814,00
-26140,25	782,00
-26069,06	866,00
-25998,13	764,00
-25927,46	743,00
-25857,06	734,00
-25786,92	786,00
-25717,04	745,00
-25647,42	879,00
-25578,05	823,00
-25508,94	774,00
-25440,09	781,00
-25371,48	818,00
-25303,13	836,00
-25235,02	695,00
-25167,17	728,00
-25099,56	807,00
-25032,19	746,00
-24965,07	706,00
-24898,20	761,00
-24831,56	712,00
-24765,17	788,00
-24699,01	648,00
-24633,10	817,00
-24567,41	763,00
-24501,97	708,00
-24436,75	789,00
-24371,77	737,00
-24307,03	799,00
-24242,51	826,00
-24178,22	746,00
-24114,16	741,00
-24050,32	876,00
-23986,71	761,00
-23923,32	804,00
-23860,16	726,00
-23797,22	764,00
-23734,50	753,00
-23672,00	696,00
-23609,71	741,00
-23547,65	728,00
-23485,80	759,00
-23424,16	672,00
-23362,74	892,00
-23301,53	731,00
-23240,54	582,00
-23179,75	678,00
-23119,17	723,00
-23058,80	743,00
-22998,64	860,00
-22938,68	754,00
-22878,93	766,00
-22819,39	704,00
-22760,04	689,00
-22700,90	815,00
-22641,96	735,00
-22583,22	737,00
-22524,68	790,00
-22466,33	753,00
-22408,19	761,00
-22350,23	802,00
-22292,48	750,00
-22234,92	765,00
-22177,55	837,00
-22120,37	927,00
-22063,38	719,00
-22006,58	820,00
-21949,98	680,00
-21893,56	630,00
-21837,33	808,00
-21781,28	760,00
-21725,42	739,00
-21669,74	812,00
-21614,25	776,00
-21558,94	837,00
-21503,81	842,00
-21448,86	845,00
-21394,10	739,00
-21339,51	713,00
-21285,10	728,00
-21230,86	651,00
-21176,81	722,00
-21122,93	785,00
-21069,22	695,00
-21015,69	746,00
-20962,33	846,00
-20909,14	688,00
-20856,13	885,00
-20803,28	818,00
-20750,61	728,00
-20698,10	594,00
-20645,76	704,00
-20593,59	837,00
-20541,59	850,00
-20489,75	913,00
-20438,07	637,00
-20386,56	864,00
-20335,22	701,00
-20284,03	703,00
-20233,01	734,00
-20182,15	774,00
-20131,45	736,00
-20080,91	653,00
-20030,52	748,00
-19980,30	705,00
-19930,23	712,00
-19880,32	817,00
-19830,56	765,00
-19780,96	753,00
-19731,52	730,00
-19682,23	736,00
-19633,09	753,00
-19584,10	667,00
-19535,26	774,00
-19486,58	919,00
-19438,04	797,00
-19389,66	813,00
-19341,42	762,00
-19293,33	793,00
-19245,39	755,00
-19197,60	869,00
-19149,95	852,00
-19102,45	759,00
-19055,09	718,00
-19007,87	730,00
-18960,80	776,00
-18913,87	732,00
-18867,09	791,00
-18820,44	845,00
-18773,94	745,00
-18727,57	863,00
-18681,35	680,00
-18635,26	798,00
-18589,31	771,00
-18543,50	763,00
-18497,83	778,00
-18452,29	820,00
-18406,89	741,00
-18361,63	890,00
-18316,50	773,00
-18271,50	779,00
-18226,63	817,00
-18181,90	794,00
-18137,30	826,00
-18092,84	694,00
-18048,50	740,00
-18004,29	697,00
-17960,22	665,00
-17916,27	707,00
-17872,45	811,00
-17828,76	857,00
-17785,20	723,00
-17741,77	791,00
-17698,46	791,00
-17655,28	720,00
-17612,22	755,00
-17569,29	783,00
-17526,48	730,00
-17483,79	826,00
-17441,23	663,00
-17398,79	743,00
-17356,48	663,00
-17314,28	942,00
-17272,21	805,00
-17230,26	773,00
-17188,42	800,00
-17146,71	830,00
-17105,12	718,00
-17063,64	714,00
-17022,28	734,00
-16981,04	759,00
-16939,92	804,00
-16898,91	897,00
-16858,02	652,00
-16817,25	820,00
-16776,59	731,00
-16736,04	808,00
-16695,61	763,00
-16655,29	690,00
-16615,09	677,00
-16574,99	775,00
-16535,01	751,00
-16495,15	849,00
-16455,39	796,00
-16415,74	697,00
-16376,21	770,00
-16336,78	761,00
-16297,46	693,00
-16258,26	633,00
-16219,16	724,00
-16180,17	744,00
-16141,28	855,00
-16102,51	828,00
-16063,84	715,00
-16025,27	795,00
-15986,82	742,00
-15948,46	802,00
-15910,22	771,00
-15872,07	738,00
-15834,04	768,00
-15796,10	668,00
-15758,27	899,00
-15720,54	733,00
-15682,91	744,00
-15645,39	875,00
-15607,97	740,00
-15570,64	708,00
-15533,42	872,00
-15496,30	716,00
-15459,28	857,00
-15422,36	812,00
-15385,54	703,00
-15348,82	758,00
-15312,19	837,00
-15275,66	741,00
-15239,23	796,00
-15202,90	752,00
-15166,67	753,00
-15130,53	851,00
-15094,48	748,00
-15058,54	657,00
-15022,68	739,00
-14986,93	686,00
-14951,26	832,00
-14915,69	795,00
-14880,22	766,00
-14844,84	707,00
-14809,55	823,00
-14774,35	749,00
-14739,25	806,00
-14704,24	742,00
-14669,32	711,00
-14634,49	741,00
-14599,75	840,00
-14565,10	718,00
-14530,55	814,00
-14496,08	719,00
-14461,70	773,00
-14427,41	761,00
-14393,21	635,00
-14359,10	667,00
-14325,07	853,00
-14291,14	722,00
-14257,29	786,00
-14223,52	779,00
-14189,85	854,00
-14156,26	782,00
-14122,76	605,00
-14089,34	699,00
-14056,01	743,00
-14022,76	680,00
-13989,60	781,00
-13956,52	820,00
-13923,53	740,00
-13890,62	665,00
-13857,79	754,00
-13825,05	672,00
-13792,39	672,00
-13759,81	729,00
-13727,31	735,00
-13694,90	719,00
-13662,57	869,00
-13630,31	798,00
-13598,14	827,00
-13566,05	797,00
-13534,05	784,00
-13502,12	725,00
-13470,27	748,00
-13438,50	889,00
-13406,80	654,00
-13375,19	807,00
-13343,66	789,00
-13312,20	757,00
-13280,83	639,00
-13249,53	743,00
-13218,30	706,00
-13187,16	767,00
-13156,09	904,00
-13125,10	776,00
-13094,18	806,00
-13063,34	852,00
-13032,58	657,00
-13001,89	845,00
-12971,28	846,00
-12940,74	726,00
-12910,27	759,00
-12879,88	752,00
-12849,57	832,00
-12819,33	809,00
-12789,16	835,00
-12759,06	748,00
-12729,04	707,00
-12699,09	2054,00
-12669,21	663,00
-12639,41	730,00
-12609,68	683,00
-12580,02	790,00
-12550,43	892,00
-12520,91	715,00
-12491,46	739,00
-12462,08	712,00
-12432,77	738,00
-12403,54	735,00
-12374,37	711,00
-12345,27	740,00
-12316,24	753,00
-12287,29	755,00
-12258,40	790,00
-12229,57	756,00
-12200,82	674,00
-12172,14	784,00
-12143,52	589,00
-12114,97	700,00
-12086,49	807,00
-12058,07	888,00
-12029,73	783,00
-12001,44	827,00
-11973,23	727,00
-11945,08	812,00
-11917,00	821,00
-11888,98	724,00
-11861,03	810,00
-11833,15	777,00
-11805,32	784,00
-11777,57	775,00
-11749,88	860,00
-11722,25	678,00
-11694,69	702,00
-11667,19	756,00
-11639,75	856,00
-11612,38	758,00
-11585,07	806,00
-11557,83	756,00
-11530,65	883,00
-11503,53	655,00
-11476,47	756,00
-11449,48	705,00
-11422,54	876,00
-11395,67	809,00
-11368,86	851,00
-11342,11	748,00
-11315,43	789,00
-11288,80	732,00
-11262,23	790,00
-11235,73	731,00
-11209,28	901,00
-11182,90	794,00
-11156,57	731,00
-11130,31	911,00
-11104,10	828,00
-11077,96	781,00
-11051,87	716,00
-11025,84	841,00
-10999,87	725,00
-10973,96	800,00
-10948,11	693,00
-10922,31	871,00
-10896,58	767,00
-10870,90	871,00
-10845,28	814,00
-10819,71	734,00
-10794,20	830,00
-10768,75	807,00
-10743,36	822,00
-10718,02	653,00
-10692,74	712,00
-10667,52	717,00
-10642,35	792,00
-10617,24	833,00
-10592,18	871,00
-10567,18	798,00
-10542,23	875,00
-10517,34	782,00
-10492,51	891,00
-10467,72	852,00
-10443,00	881,00
-10418,32	910,00
-10393,70	956,00
-10369,14	863,00
-10344,63	806,00
-10320,17	919,00
-10295,77	949,00
-10271,42	969,00
-10247,12	971,00
-10222,88	1065,00
-10198,68	880,00
-10174,54	983,00
-10150,46	1073,00
-10126,42	1067,00
-10102,44	1025,00
-10078,51	946,00
-10054,63	1099,00
-10030,80	1103,00
-10007,03	1191,00
-9983,30	1160,00
-9959,63	1111,00
-9936,01	1339,00
-9912,44	1253,00
-9888,92	1241,00
-9865,44	1239,00
-9842,02	1339,00
-9818,65	1358,00
-9795,33	1180,00
-9772,06	1308,00
-9748,84	1417,00
-9725,67	1438,00
-9702,55	1486,00
-9679,47	1622,00
-9656,45	1855,00
-9633,47	1631,00
-9610,55	1801,00
-9587,67	2059,00
-9564,84	2184,00
-9542,06	2118,00
-9519,32	2427,00
-9496,64	2595,00
-9474,00	2654,00
-9451,41	2764,00
-9428,87	2786,00
-9406,37	2746,00
-9383,92	2539,00
-9361,52	2444,00
-9339,17	2815,00
-9316,86	3023,00
-9294,60	3326,00
-9272,38	3603,00
-9250,21	4090,00
-9228,09	4142,00
-9206,01	4013,00
-9183,98	3841,00
-9162,00	3447,00
-9140,06	3504,00
-9118,16	3520,00
-9096,31	3536,00
-9074,51	3662,00
-9052,75	3856,00
-9031,04	3751,00
-9009,37	3468,00
-8987,74	3200,00
-8966,16	2948,00
-8944,63	2708,00
-8923,14	2739,00
-8901,69	2680,00
-8880,29	2756,00
-8858,93	3003,00
-8837,61	3268,00
-8816,34	3381,00
-8795,11	3391,00
-8773,92	3053,00
-8752,78	2923,00
-8731,68	2671,00
-8710,62	2898,00
-8689,61	2790,00
-8668,63	3020,00
-8647,70	3270,00
-8626,82	3235,00
-8605,97	3158,00
-8585,17	2956,00
-8564,41	2803,00
-8543,69	2680,00
-8523,01	2482,00
-8502,37	2658,00
-8481,78	2731,00
-8461,23	2720,00
-8440,71	3011,00
-8420,24	3092,00
-8399,81	3357,00
-8379,42	3195,00
-8359,08	3023,00
-8338,77	2758,00
-8318,50	2555,00
-8298,27	2582,00
-8278,09	2671,00
-8257,94	2721,00
-8237,83	2895,00
-8217,76	3077,00
-8197,74	3017,00
-8177,75	3080,00
-8157,80	2580,00
-8137,89	2440,00
-8118,02	2494,00
-8098,19	2425,00
-8078,40	2447,00
-8058,65	2458,00
-8038,93	2630,00
-8019,26	2496,00
-7999,62	2554,00
-7980,02	2437,00
-7960,46	2271,00
-7940,94	2127,00
-7921,46	2187,00
-7902,01	2174,00
-7882,60	2294,00
-7863,23	2120,00
-7843,90	2200,00
-7824,61	2267,00
-7805,35	2472,00
-7786,13	2389,00
-7766,95	2394,00
-7747,80	2261,00
-7728,69	2319,00
-7709,62	2225,00
-7690,59	2292,00
-7671,59	2428,00
-7652,63	2373,00
-7633,70	2506,00
-7614,81	2447,00
-7595,96	2234,00
-7577,15	2115,00
-7558,37	2032,00
-7539,62	2039,00
-7520,91	2263,00
-7502,24	2249,00
-7483,60	2357,00
-7465,00	2161,00
-7446,44	2119,00
-7427,91	1751,00
-7409,41	1832,00
-7390,95	1755,00
-7372,53	1532,00
-7354,14	1690,00
-7335,78	1676,00
-7317,46	1719,00
-7299,18	1660,00
-7280,92	2012,00
-7262,71	2285,00
-7244,52	2162,00
-7226,38	2237,00
-7208,26	2123,00
-7190,18	1994,00
-7172,14	1905,00
-7154,12	1915,00
-7136,15	1986,00
-7118,20	2103,00
-7100,29	2267,00
-7082,41	2099,00
-7064,57	2088,00
-7046,76	1988,00
-7028,98	1738,00
-7011,24	1870,00
-6993,53	1540,00
-6975,85	1474,00
-6958,20	1415,00
-6940,59	1375,00
-6923,01	1315,00
-6905,46	1595,00
-6887,94	1677,00
-6870,46	2048,00
-6853,01	2068,00
-6835,59	1961,00
-6818,21	1741,00
-6800,85	1732,00
-6783,53	1418,00
-6766,24	1301,00
-6748,98	1268,00
-6731,76	1177,00
-6714,56	1174,00
-6697,40	1184,00
-6680,26	1155,00
-6663,16	1399,00
-6646,09	1557,00
-6629,05	1675,00
-6612,05	1691,00
-6595,07	1544,00
-6578,13	1665,00
-6561,21	1389,00
-6544,33	1372,00
-6527,47	1090,00
-6510,65	1143,00
-6493,86	905,00
-6477,10	1055,00
-6460,36	1162,00
-6443,66	1069,00
-6426,99	1051,00
-6410,35	1116,00
-6393,74	1288,00
-6377,16	1197,00
-6360,61	1293,00
-6344,09	1225,00
-6327,59	1323,00
-6311,13	1502,00
-6294,70	1350,00
-6278,29	1462,00
-6261,92	1458,00
-6245,58	1658,00
-6229,26	1663,00
-6212,97	1602,00
-6196,72	1237,00
-6180,49	1237,00
-6164,29	951,00
-6148,12	1060,00
-6131,98	1004,00
-6115,86	851,00
-6099,78	924,00
-6083,72	898,00
-6067,69	768,00
-6051,69	913,00
-6035,72	907,00
-6019,78	989,00
-6003,87	1239,00
-5987,98	1362,00
-5972,12	1276,00
-5956,29	1294,00
-5940,49	1154,00
-5924,71	1218,00
-5908,96	1047,00
-5893,24	965,00
-5877,55	1105,00
-5861,89	884,00
-5846,25	881,00
-5830,64	1028,00
-5815,05	992,00
-5799,50	1010,00
-5783,97	1007,00
-5768,47	1094,00
-5752,99	1287,00
-5737,55	1188,00
-5722,12	1332,00
-5706,73	1343,00
-5691,36	1196,00
-5676,02	1056,00
-5660,71	994,00
-5645,42	929,00
-5630,16	1096,00
-5614,92	1163,00
-5599,71	1135,00
-5584,53	1204,00
-5569,37	1126,00
-5554,24	2094,00
-5539,14	967,00
-5524,06	1149,00
-5509,01	1083,00
-5493,98	1133,00
-5478,98	1177,00
-5464,00	1003,00
-5449,05	1075,00
-5434,13	1039,00
-5419,23	936,00
-5404,36	933,00
-5389,51	1089,00
-5374,69	1195,00
-5359,89	1420,00
-5345,12	1495,00
-5330,37	1488,00
-5315,65	1255,00
-5300,95	1224,00
-5286,28	1065,00
-5271,63	979,00
-5257,01	1135,00
-5242,41	1074,00
-5227,84	934,00
-5213,29	1019,00
-5198,76	914,00
-5184,26	944,00
-5169,79	979,00
-5155,33	1034,00
-5140,91	1117,00
-5126,51	1072,00
-5112,13	1141,00
-5097,77	1046,00
-5083,44	1106,00
-5069,13	943,00
-5054,85	981,00
-5040,59	993,00
-5026,36	1059,00
-5012,15	1218,00
-4997,96	1055,00
-4983,80	1026,00
-4969,66	956,00
-4955,54	886,00
-4941,44	1050,00
-4927,37	1078,00
-4913,33	1257,00
-4899,30	1375,00
-4885,30	1302,00
-4871,33	995,00
-4857,37	893,00
-4843,44	894,00
-4829,53	993,00
-4815,65	979,00
-4801,79	880,00
-4787,95	1046,00
-4774,13	950,00
-4760,34	887,00
-4746,56	944,00
-4732,82	825,00
-4719,09	1001,00
-4705,38	1258,00
-4691,70	1243,00
-4678,04	1388,00
-4664,41	1207,00
-4650,79	1131,00
-4637,20	871,00
-4623,63	884,00
-4610,08	1083,00
-4596,56	1101,00
-4583,05	1089,00
-4569,57	1011,00
-4556,11	1023,00
-4542,67	878,00
-4529,25	836,00
-4515,86	981,00
-4502,49	1200,00
-4489,13	1210,00
-4475,80	1154,00
-4462,49	861,00
-4449,21	1001,00
-4435,94	862,00
-4422,70	842,00
-4409,47	887,00
-4396,27	1083,00
-4383,09	925,00
-4369,93	922,00
-4356,79	770,00
-4343,67	889,00
-4330,58	976,00
-4317,50	1092,00
-4304,45	995,00
-4291,41	881,00
-4278,40	770,00
-4265,41	783,00
-4252,44	895,00
-4239,49	857,00
-4226,55	950,00
-4213,65	878,00
-4200,76	844,00
-4187,89	860,00
-4175,04	794,00
-4162,21	721,00
-4149,40	851,00
-4136,61	826,00
-4123,85	758,00
-4111,10	775,00
-4098,37	869,00
-4085,66	873,00
-4072,98	903,00
-4060,31	761,00
-4047,66	874,00
-4035,04	995,00
-4022,43	780,00
-4009,84	804,00
-3997,27	680,00
-3984,72	733,00
-3972,19	889,00
-3959,69	851,00
-3947,20	849,00
-3934,73	776,00
-3922,27	757,00
-3909,84	735,00
-3897,43	820,00
-3885,04	837,00
-3872,67	786,00
-3860,31	753,00
-3847,98	913,00
-3835,66	850,00
-3823,36	847,00
-3811,09	716,00
-3798,83	797,00
-3786,59	867,00
-3774,37	911,00
-3762,17	697,00
-3749,98	768,00
-3737,82	796,00
-3725,67	910,00
-3713,55	762,00
-3701,44	839,00
-3689,35	773,00
-3677,28	871,00
-3665,22	772,00
-3653,19	700,00
-3641,17	713,00
-3629,18	774,00
-3617,20	816,00
-3605,24	760,00
-3593,30	877,00
-3581,37	843,00
-3569,47	854,00
-3557,58	837,00
-3545,71	815,00
-3533,86	836,00
-3522,02	721,00
-3510,21	733,00
-3498,41	857,00
-3486,63	770,00
-3474,87	812,00
-3463,12	754,00
-3451,40	744,00
-3439,69	795,00
-3428,00	790,00
-3416,33	844,00
-3404,67	720,00
-3393,03	740,00
-3381,41	855,00
-3369,81	794,00
-3358,22	825,00
-3346,66	913,00
-3335,10	873,00
-3323,57	708,00
-3312,06	769,00
-3300,56	759,00
-3289,08	778,00
-3277,61	774,00
-3266,16	825,00
-3254,73	809,00
-3243,32	768,00
-3231,92	768,00
-3220,55	812,00
-3209,18	968,00
-3197,84	747,00
-3186,51	650,00
-3175,20	695,00
-3163,90	774,00
-3152,63	921,00
-3141,36	792,00
-3130,12	838,00
-3118,89	845,00
-3107,68	805,00
-3096,49	771,00
-3085,31	748,00
-3074,15	711,00
-3063,00	782,00
-3051,87	801,00
-3040,76	779,00
-3029,67	847,00
-3018,59	963,00
-3007,52	864,00
-2996,48	815,00
-2985,44	784,00
-2974,43	757,00
-2963,43	742,00
-2952,45	806,00
-2941,48	797,00
-2930,53	808,00
-2919,60	772,00
-2908,68	754,00
-2897,78	788,00
-2886,89	824,00
-2876,02	799,00
-2865,17	734,00
-2854,33	724,00
-2843,50	782,00
-2832,70	822,00
-2821,90	749,00
-2811,13	738,00
-2800,37	765,00
-2789,62	693,00
-2778,89	801,00
-2768,18	871,00
-2757,48	808,00
-2746,80	923,00
-2736,13	769,00
-2725,48	860,00
-2714,84	705,00
-2704,22	842,00
-2693,61	745,00
-2683,02	776,00
-2672,45	798,00
-2661,89	767,00
-2651,34	926,00
-2640,81	784,00
-2630,30	851,00
-2619,80	727,00
-2609,31	850,00
-2598,84	746,00
-2588,39	809,00
-2577,95	775,00
-2567,52	717,00
-2557,11	670,00
-2546,71	867,00
-2536,33	874,00
-2525,97	763,00
-2515,62	857,00
-2505,28	814,00
-2494,96	764,00
-2484,65	816,00
-2474,36	1035,00
-2464,08	694,00
-2453,82	882,00
-2443,57	709,00
-2433,33	744,00
-2423,11	902,00
-2412,91	838,00
-2402,72	740,00
-2392,54	756,00
-2382,38	760,00
-2372,23	869,00
-2362,09	1711,00
-2351,97	679,00
-2341,87	737,00
-2331,78	762,00
-2321,70	877,00
-2311,64	785,00
-2301,59	722,00
-2291,55	741,00
-2281,53	808,00
-2271,53	686,00
-2261,53	807,00
-2251,55	774,00
-2241,59	797,00
-2231,64	813,00
-2221,70	796,00
-2211,78	862,00
-2201,87	782,00
-2191,97	801,00
-2182,09	777,00
-2172,22	823,00
-2162,37	655,00
-2152,53	712,00
-2142,70	795,00
-2132,89	759,00
-2123,09	919,00
-2113,30	830,00
-2103,53	752,00
-2093,77	781,00
-2084,02	784,00
-2074,29	811,00
-2064,57	891,00
-2054,86	802,00
-2045,17	872,00
-2035,49	778,00
-2025,82	668,00
-2016,17	746,00
-2006,53	797,00
-1996,91	825,00
-1987,29	750,00
-1977,69	801,00
-1968,11	694,00
-1958,53	775,00
-1948,97	794,00
-1939,42	736,00
-1929,89	804,00
-1920,37	745,00
-1910,86	728,00
-1901,36	752,00
-1891,88	717,00
-1882,41	854,00
-1872,95	870,00
-1863,51	790,00
-1854,08	772,00
-1844,66	844,00
-1835,26	805,00
-1825,86	878,00
-1816,48	717,00
-1807,11	831,00
-1797,76	832,00
-1788,42	792,00
-1779,09	718,00
-1769,77	745,00
-1760,47	1011,00
-1751,17	751,00
-1741,89	758,00
-1732,63	881,00
-1723,37	937,00
-1714,13	766,00
-1704,90	796,00
-1695,68	910,00
-1686,48	699,00
-1677,29	776,00
-1668,11	973,00
-1658,94	807,00
-1649,78	761,00
-1640,64	792,00
-1631,51	711,00
-1622,39	881,00
-1613,28	859,00
-1604,19	915,00
-1595,10	711,00
-1586,03	759,00
-1576,97	846,00
-1567,93	756,00
-1558,89	771,00
-1549,87	840,00
-1540,86	734,00
-1531,86	800,00
-1522,87	718,00
-1513,90	857,00
-1504,93	881,00
-1495,98	817,00
-1487,04	863,00
-1478,12	750,00
-1469,20	829,00
-1460,30	811,00
-1451,40	941,00
-1442,52	801,00
-1433,65	967,00
-1424,80	815,00
-1415,95	781,00
-1407,12	949,00
-1398,30	777,00
-1389,48	787,00
-1380,69	758,00
-1371,90	733,00
-1363,12	817,00
-1354,36	936,00
-1345,60	739,00
-1336,86	778,00
-1328,13	912,00
-1319,41	816,00
-1310,70	820,00
-1302,01	729,00
-1293,32	730,00
-1284,65	781,00
-1275,99	877,00
-1267,33	857,00
-1258,69	804,00
-1250,06	850,00
-1241,45	706,00
-1232,84	894,00
-1224,25	825,00
-1215,66	800,00
-1207,09	849,00
-1198,53	756,00
-1189,97	773,00
-1181,43	771,00
-1172,91	766,00
-1164,39	859,00
-1155,88	655,00
-1147,38	645,00
-1138,90	770,00
-1130,43	782,00
-1121,96	709,00
-1113,51	799,00
-1105,07	812,00
-1096,64	831,00
-1088,22	826,00
-1079,81	864,00
-1071,41	912,00
-1063,02	782,00
-1054,65	912,00
-1046,28	784,00
-1037,92	945,00
-1029,58	820,00
-1021,24	833,00
-1012,92	1069,00
-1004,61	820,00
-996,30	1001,00
-988,01	636,00
-979,73	766,00
-971,46	828,00
-963,20	782,00
-954,95	698,00
-946,71	815,00
-938,48	861,00
-930,26	860,00
-922,06	871,00
-913,86	718,00
-905,67	795,00
-897,49	869,00
-889,33	663,00
-881,17	859,00
-873,02	827,00
-864,89	755,00
-856,76	750,00
-848,65	771,00
-840,54	850,00
-832,45	849,00
-824,36	651,00
-816,29	777,00
-808,22	809,00
-800,17	838,00
-792,12	716,00
-784,09	770,00
-776,06	719,00
-768,05	808,00
-760,04	831,00
-752,05	795,00
-744,07	811,00
-736,09	896,00
-728,13	664,00
-720,17	805,00
-712,23	728,00
-704,29	785,00
-696,37	704,00
-688,45	884,00
-680,55	750,00
-672,65	853,00
-664,77	780,00
-656,89	776,00
-649,03	729,00
-641,17	816,00
-633,32	796,00
-625,49	797,00
-617,66	767,00
-609,84	842,00
-602,03	676,00
-594,23	824,00
-586,45	772,00
-578,67	801,00
-570,90	793,00
-563,14	715,00
-555,39	858,00
-547,65	825,00
-539,91	828,00
-532,19	843,00
-524,48	843,00
-516,78	818,00
-509,08	839,00
-501,40	721,00
-493,72	877,00
-486,06	798,00
-478,40	969,00
-470,76	712,00
-463,12	804,00
-455,49	810,00
-447,87	793,00
-440,26	714,00
-432,66	687,00
-425,07	825,00
-417,49	800,00
-409,92	669,00
-402,35	665,00
-394,80	790,00
-387,25	846,00
-379,72	781,00
-372,19	824,00
-364,67	862,00
-357,17	709,00
-349,67	783,00
-342,18	749,00
-334,69	805,00
-327,22	864,00
-319,76	821,00
-312,30	840,00
-304,86	799,00
-297,42	785,00
-290,00	824,00
-282,58	774,00
-275,17	937,00
-267,77	964,00
-260,37	772,00
-252,99	964,00
-245,62	902,00
-238,25	834,00
-230,90	864,00
-223,55	903,00
-216,21	799,00
-208,88	1090,00
-201,56	840,00
-194,25	876,00
-186,94	979,00
-179,65	921,00
-172,36	1076,00
-165,08	1004,00
-157,81	1046,00
-150,55	1059,00
-143,30	1214,00
-136,06	1123,00
-128,82	1221,00
-121,60	1214,00
-114,38	1302,00
-107,17	1464,00
-99,97	1600,00
-92,78	1552,00
-85,60	1801,00
-78,42	1941,00
-71,25	1988,00
-64,10	2258,00
-56,95	2546,00
-49,81	2756,00
-42,67	3359,00
-35,55	3985,00
-28,43	5057,00
-21,33	8044,00
-14,23	24614,00
-7,14	57498,00
-0,05	57284,00
7,02	57012,00
14,09	57319,00
21,14	20932,00
28,19	9121,00
35,23	6009,00
42,27	4998,00
49,29	4087,00
56,31	3583,00
63,32	3248,00
70,32	2737,00
77,31	2490,00
84,29	2172,00
91,27	2067,00
98,23	1975,00
105,19	1883,00
112,14	2084,00
119,09	2791,00
126,02	3958,00
132,95	4551,00
139,87	4601,00
146,78	4825,00
153,68	4539,00
160,58	4462,00
167,46	4386,00
174,34	4440,00
181,21	4494,00
188,08	4305,00
194,93	4385,00
201,78	4388,00
208,62	4358,00
215,45	4403,00
222,27	4329,00
229,09	4469,00
235,90	4139,00
242,70	4229,00
249,49	4278,00
256,27	4073,00
263,05	4095,00
269,82	3958,00
276,58	3915,00
283,33	3843,00
290,08	3715,00
296,82	3697,00
303,55	3685,00
310,27	3591,00
316,98	3726,00
323,69	3590,00
330,39	3492,00
337,08	3574,00
343,76	3511,00
350,44	3619,00
357,11	3433,00
363,77	3549,00
370,42	3462,00
377,07	3471,00
383,71	3387,00
390,34	3530,00
396,96	3582,00
403,58	3548,00
410,19	3629,00
416,79	3791,00
423,38	3858,00
429,97	3873,00
436,55	3839,00
443,12	3887,00
449,68	3913,00
456,24	3749,00
462,79	3584,00
469,33	3489,00
475,86	3303,00
482,39	3215,00
488,91	3210,00
495,42	3133,00
501,93	3145,00
508,42	3049,00
514,91	3000,00
521,40	3029,00
527,87	2991,00
534,34	2900,00
540,80	3027,00
547,25	3082,00
553,70	2939,00
560,14	2990,00
566,57	3033,00
573,00	3061,00
579,41	3122,00
585,83	3199,00
592,23	3166,00
598,62	3244,00
605,01	3257,00
611,40	3339,00
617,77	3314,00
624,14	3232,00
630,50	3017,00
636,85	2985,00
643,20	2889,00
649,54	2794,00
655,87	2884,00
662,20	2807,00
668,52	2685,00
674,83	2896,00
681,13	2681,00
687,43	2691,00
693,72	2673,00
700,00	2609,00
706,28	2649,00
712,55	2723,00
718,81	2699,00
725,07	2692,00
731,32	2625,00
737,56	2654,00
743,79	2555,00
750,02	2613,00
756,24	2518,00
762,46	2551,00
768,67	2723,00
774,87	2518,00
781,06	2499,00
787,25	2602,00
793,43	2560,00
799,60	2462,00
805,77	2711,00
811,93	2586,00
818,08	2601,00
824,23	2563,00
830,37	2774,00
836,50	2551,00
842,63	2598,00
848,75	2657,00
854,87	2573,00
860,97	2657,00
867,07	2563,00
873,17	2686,00
879,25	2618,00
885,33	2644,00
891,41	2685,00
897,47	2618,00
903,53	2596,00
909,59	2646,00
915,63	2455,00
921,67	2487,00
927,71	2560,00
933,74	2576,00
939,76	2398,00
945,77	2431,00
951,78	2536,00
957,78	2224,00
963,78	2484,00
969,77	2355,00
975,75	2458,00
981,72	2340,00
987,69	3758,00
993,66	2476,00
999,61	2459,00
1005,56	2426,00
1011,51	2509,00
1017,44	2457,00
1023,37	2478,00
1029,30	2470,00
1035,22	2589,00
1041,13	2555,00
1047,03	2804,00
1052,93	3357,00
1058,83	4579,00
1064,71	5131,00
1070,59	4090,00
1076,47	3517,00
1082,33	3168,00
1088,20	3142,00
1094,05	2934,00
1099,90	2665,00
1105,74	2677,00
1111,58	2765,00
1117,41	2991,00
1123,23	3873,00
1129,05	4669,00
1134,86	4285,00
1140,67	3324,00
1146,47	2695,00
1152,26	2609,00
1158,05	2544,00
1163,83	2581,00
1169,60	2776,00
1175,37	2696,00
1181,13	2522,00
1186,89	2249,00
1192,64	2360,00
1198,38	2524,00
1204,12	2151,00
1209,85	2321,00
1215,58	2266,00
1221,30	2358,00
1227,02	2285,00
1232,72	2328,00
1238,43	2253,00
1244,12	2309,00
1249,81	2347,00
1255,50	2419,00
1261,17	2438,00
1266,85	2524,00
1272,51	2600,00
1278,17	2837,00
1283,83	2955,00
1289,47	4435,00
1295,12	5963,00
1300,75	5345,00
1306,38	4215,00
1312,01	3460,00
1317,63	2904,00
1323,24	2775,00
1328,85	2503,00
1334,45	2449,00
1340,04	2465,00
1345,63	2438,00
1351,22	2464,00
1356,80	2437,00
1362,37	2589,00
1367,93	2571,00
1373,49	2645,00
1379,05	2445,00
1384,60	2427,00
1390,14	2464,00
1395,68	2415,00
1401,21	2492,00
1406,74	2706,00
1412,26	3319,00
1417,77	3893,00
1423,28	3693,00
1428,78	4074,00
1434,28	5212,00
1439,77	5964,00
1445,26	5835,00
1450,74	5360,00
1456,22	4995,00
1461,68	4854,00
1467,15	4472,00
1472,61	3792,00
1478,06	3412,00
1483,51	2889,00
1488,95	2640,00
1494,38	2536,00
1499,81	2314,00
1505,24	2259,00
1510,65	2353,00
1516,07	2247,00
1521,48	2158,00
1526,88	2111,00
1532,27	2121,00
1537,67	2128,00
1543,05	2156,00
1548,43	1978,00
1553,81	2106,00
1559,18	1898,00
1564,54	2039,00
1569,90	2032,00
1575,25	1895,00
1580,60	1888,00
1585,94	2046,00
1591,28	1888,00
1596,61	1852,00
1601,93	1874,00
1607,25	1926,00
1612,57	1877,00
1617,88	1969,00
1623,18	1974,00
1628,48	1920,00
1633,77	1858,00
1639,06	1837,00
1644,34	1840,00
1649,62	1774,00
1654,89	1776,00
1660,16	1816,00
1665,42	1951,00
1670,67	1775,00
1675,92	1674,00
1681,17	1720,00
1686,41	1852,00
1691,64	1792,00
1696,87	1718,00
1702,10	1720,00
1707,32	1758,00
1712,53	1838,00
1717,74	1683,00
1722,94	1855,00
1728,14	1656,00
1733,33	1622,00
1738,52	1576,00
1743,70	1709,00
1748,88	1679,00
1754,05	1796,00
1759,22	1614,00
1764,38	1906,00
1769,53	1652,00
1774,69	1814,00
1779,83	1582,00
1784,97	1576,00
1790,11	1635,00
1795,24	1528,00
1800,36	1643,00
1805,48	1606,00
1810,60	1651,00
1815,71	1608,00
1820,82	1449,00
1825,92	1603,00
1831,01	1508,00
1836,10	1527,00
1841,19	1614,00
1846,26	1383,00
1851,34	1508,00
1856,41	1575,00
1861,47	1477,00
1866,53	1624,00
1871,59	1502,00
1876,64	1559,00
1881,68	1499,00
1886,72	1523,00
1891,76	1469,00
1896,79	1447,00
1901,81	1354,00
1906,83	1495,00
1911,85	1405,00
1916,86	1436,00
1921,86	1383,00
1926,86	1389,00
1931,86	1477,00
1936,85	1440,00
1941,83	1323,00
1946,81	1334,00
1951,79	1385,00
1956,76	1423,00
1961,72	1190,00
1966,68	1376,00
1971,64	1365,00
1976,59	1345,00
1981,54	1363,00
1986,48	1408,00
1991,42	1302,00
1996,35	1589,00
2001,27	1269,00
2006,20	1413,00
2011,11	1368,00
2016,03	1324,00
2020,93	1253,00
2025,84	1370,00
2030,73	1258,00
2035,63	1222,00
2040,52	1323,00
2045,40	1286,00
2050,28	1397,00
2055,15	1301,00
2060,02	1172,00
2064,89	1302,00
2069,75	1336,00
2074,60	1269,00
2079,46	1260,00
2084,30	1261,00
2089,14	1146,00
2093,98	1333,00
2098,81	1256,00
2103,64	1312,00
2108,46	1205,00
2113,28	1374,00
2118,09	1283,00
2122,90	1291,00
2127,70	1245,00
2132,50	1344,00
2137,30	1193,00
2142,09	1138,00
2146,87	1212,00
2151,66	1239,00
2156,43	1261,00
2161,20	1217,00
2165,97	1338,00
2170,73	1237,00
2175,49	1446,00
2180,24	1282,00
2184,99	1477,00
2189,74	1408,00
2194,48	1323,00
2199,21	1340,00
2203,94	1236,00
2208,67	1152,00
2213,39	1143,00
2218,11	1245,00
2222,82	1176,00
2227,53	1259,00
2232,23	1202,00
2236,93	1221,00
2241,63	1213,00
2246,32	1298,00
2251,00	1256,00
2255,68	1151,00
2260,36	1211,00
2265,03	1247,00
2269,70	1341,00
2274,36	1181,00
2279,02	1153,00
2283,68	1170,00
2288,33	1141,00
2292,97	1246,00
2297,61	1109,00
2302,25	1240,00
2306,88	1084,00
2311,51	1117,00
2316,14	1097,00
2320,75	1030,00
2325,37	1060,00
2329,98	1194,00
2334,59	1140,00
2339,19	1084,00
2343,79	994,00
2348,38	1120,00
2352,97	995,00
2357,55	1156,00
2362,13	1143,00
2366,71	1046,00
2371,28	1287,00
2375,85	1173,00
2380,41	1132,00
2384,97	1066,00
2389,52	1289,00
2394,07	1184,00
2398,62	1135,00
2403,16	1241,00
2407,70	974,00
2412,23	1081,00
2416,76	1160,00
2421,29	1167,00
2425,81	1285,00
2430,32	1187,00
2434,84	1030,00
2439,34	1043,00
2443,85	1171,00
2448,35	1085,00
2452,84	1095,00
2457,33	1050,00
2461,82	963,00
2466,30	1011,00
2470,78	1050,00
2475,25	1073,00
2479,72	1153,00
2484,19	1150,00
2488,65	1174,00
2493,11	1053,00
2497,56	1149,00
2502,01	984,00
2506,46	1120,00
2510,90	1019,00
2515,34	1046,00
2519,77	1088,00
2524,20	1053,00
2528,62	1100,00
2533,04	1135,00
2537,46	1088,00
2541,87	1070,00
2546,28	1067,00
2550,68	1181,00
2555,08	1102,00
2559,48	1109,00
2563,87	1023,00
2568,26	943,00
2572,64	1078,00
2577,02	1160,00
2581,40	970,00
2585,77	1072,00
2590,14	1031,00
2594,50	1047,00
2598,86	1150,00
2603,22	1127,00
2607,57	1068,00
2611,92	1113,00
2616,26	1190,00
2620,60	1165,00
2624,94	1063,00
2629,27	1112,00
2633,60	1091,00
2637,92	1208,00
2642,24	1174,00
2646,56	1112,00
2650,87	1009,00
2655,18	1230,00
2659,48	1078,00
2663,78	1148,00
2668,08	1149,00
2672,37	1166,00
2676,66	1208,00
2680,95	1072,00
2685,23	1256,00
2689,50	1203,00
2693,78	1265,00
2698,05	1183,00
2702,31	1263,00
2706,57	1426,00
2710,83	1416,00
2715,08	1506,00
2719,33	1485,00
2723,58	1477,00
2727,82	1491,00
2732,06	1411,00
2736,29	1370,00
2740,53	1350,00
2744,75	1269,00
2748,97	1276,00
2753,19	1324,00
2757,41	1286,00
2761,62	1432,00
2765,83	1290,00
2770,03	1270,00
2774,23	1342,00
2778,43	1251,00
2782,62	1364,00
2786,81	1305,00
2791,00	1329,00
2795,18	1398,00
2799,35	1500,00
2803,53	1482,00
2807,70	1557,00
2811,86	1620,00
2816,03	1779,00
2820,19	1690,00
2824,34	1794,00
2828,49	1921,00
2832,64	2279,00
2836,78	2639,00
2840,92	3018,00
2845,06	3736,00
2849,19	4036,00
2853,32	4321,00
2857,45	4193,00
2861,57	4105,00
2865,69	4068,00
2869,80	3910,00
2873,91	3975,00
2878,02	4578,00
2882,12	5008,00
2886,22	4822,00
2890,32	4622,00
2894,41	4341,00
2898,50	3941,00
2902,58	3701,00
2906,67	3374,00
2910,74	3193,00
2914,82	2920,00
2918,89	2950,00
2922,96	2545,00
2927,02	2517,00
2931,08	2297,00
2935,13	2198,00
2939,19	2051,00
2943,24	1980,00
2947,28	1944,00
2951,32	1661,00
2955,36	1573,00
2959,40	1694,00
2963,43	1452,00
2967,46	1424,00
2971,48	1369,00
2975,50	1226,00
2979,52	1388,00
2983,53	1326,00
2987,54	1215,00
2991,55	1167,00
2995,55	1191,00
2999,55	1130,00
3003,54	1063,00
3007,54	1129,00
3011,53	1057,00
3015,51	1014,00
3019,49	1083,00
3023,47	972,00
3027,45	1087,00
3031,42	984,00
3035,39	1039,00
3039,35	948,00
3043,31	1054,00
3047,27	1014,00
3051,22	1016,00
3055,17	958,00
3059,12	831,00
3063,06	904,00
3067,00	853,00
3070,94	883,00
3074,87	1015,00
3078,80	919,00
3082,73	950,00
3086,65	807,00
3090,57	893,00
3094,49	886,00
3098,40	864,00
3102,31	923,00
3106,22	901,00
3110,12	836,00
3114,02	802,00
3117,92	878,00
3121,81	858,00
3125,70	859,00
3129,58	788,00
3133,47	717,00
3137,34	975,00
3141,22	951,00
3145,09	926,00
3148,96	860,00
3152,83	846,00
3156,69	910,00
3160,55	832,00
3164,40	926,00
3168,26	830,00
3172,10	875,00
3175,95	968,00
3179,79	828,00
3183,63	936,00
3187,47	858,00
3191,30	932,00
3195,13	907,00
3198,95	737,00
3202,78	903,00
3206,60	817,00
3210,41	810,00
3214,23	893,00
3218,03	851,00
3221,84	806,00
3225,64	872,00
3229,44	732,00
3233,24	811,00
3237,03	771,00
3240,82	790,00
3244,61	811,00
3248,39	725,00
3252,17	827,00
3255,95	958,00
3259,72	785,00
3263,49	1050,00
3267,26	729,00
3271,03	854,00
3274,79	783,00
3278,54	781,00
3282,30	732,00
3286,05	903,00
3289,80	857,00
3293,54	837,00
3297,29	904,00
3301,02	747,00
3304,76	836,00
3308,49	896,00
3312,22	816,00
3315,95	846,00
3319,67	781,00
3323,39	914,00
3327,10	920,00
3330,82	852,00
3334,53	899,00
3338,24	841,00
3341,94	804,00
3345,64	854,00
3349,34	813,00
3353,03	911,00
3356,72	847,00
3360,41	872,00
3364,10	708,00
3367,78	804,00
3371,46	771,00
3375,13	848,00
3378,81	932,00
3382,48	734,00
3386,14	907,00
3389,81	856,00
3393,47	859,00
3397,12	962,00
3400,78	881,00
3404,43	816,00
3408,08	939,00
3411,72	721,00
3415,36	740,00
3419,00	843,00
3422,64	696,00
3426,27	814,00
3429,90	859,00
3433,53	835,00
3437,15	777,00
3440,77	715,00
3444,39	699,00
3448,00	794,00
3451,62	772,00
3455,22	786,00
3458,83	753,00
3462,43	758,00
3466,03	851,00
3469,63	765,00
3473,22	779,00
3476,81	790,00
3480,40	881,00
3483,99	785,00
3487,57	773,00
3491,15	719,00
3494,72	849,00
3498,29	823,00
3501,86	647,00
3505,43	733,00
3508,99	739,00
3512,56	712,00
3516,11	853,00
3519,67	721,00
3523,22	854,00
3526,77	739,00
3530,32	914,00
3533,86	871,00
3537,40	838,00
3540,94	847,00
3544,47	791,00
3548,00	740,00
3551,53	883,00
3555,06	722,00
3558,58	839,00
3562,10	830,00
3565,62	651,00
3569,13	765,00
3572,64	783,00
3576,15	682,00
3579,66	741,00
3583,16	731,00
3586,66	760,00
3590,16	734,00
3593,65	714,00
3597,14	741,00
3600,63	767,00
3604,11	729,00
3607,60	710,00
3611,08	672,00
3614,55	822,00
3618,03	801,00
3621,50	712,00
3624,97	702,00
3628,43	725,00
3631,90	725,00
3635,36	673,00
3638,81	727,00
3642,27	840,00
3645,72	776,00
3649,17	636,00
3652,61	700,00
3656,06	717,00
3659,50	736,00
3662,93	787,00
3666,37	749,00
3669,80	918,00
3673,23	768,00
3676,65	751,00
3680,08	848,00
3683,50	667,00
3686,92	647,00
3690,33	668,00
3693,74	721,00
3697,15	712,00
3700,56	802,00
3703,96	750,00
3707,36	524,00
3710,76	631,00
3714,16	687,00
3717,55	633,00
3720,94	708,00
3724,33	627,00
3727,71	682,00
3731,10	669,00
3734,48	753,00
3737,85	643,00
3741,23	668,00
3744,60	583,00
3747,97	604,00
3751,33	808,00
3754,69	631,00
3758,05	676,00
3761,41	659,00
3764,77	604,00
3768,12	569,00
3771,47	587,00
3774,82	625,00
3778,16	-5,00
3781,50	14,00
3784,84	3,00
3788,18	16,00
>>>>>End Processed Spectral Data<<<<<
