SpectraSuite Data File
++++++++++++++++++++++++++++++++++++
Date: Mon Jan 05 16:33:28 ICT 2026
User: Administrator
Dark Spectrum Present: Yes
Reference Spectrum Present: No
Number of Sampled Component Spectra: 1
Spectrometers: MAYP113682
Integration Time (usec): 3000000 (MAYP113682)
Spectra Averaged: 1 (MAYP113682)
Boxcar Smoothing: 0 (MAYP113682)
Correct for Electrical Dark: No (MAYP113682)
Strobe/Lamp Enabled: No (MAYP113682)
Correct for Detector Non-linearity: No (MAYP113682)
Correct for Stray Light: No (MAYP113682)
Number of Pixels in Processed Spectrum: 2068
>>>>>Begin Processed Spectral Data<<<<<
-37534,58	29,00
-37414,56	6,00
-37295,11	8,00
-37176,24	1,00
-37057,95	616,00
-36940,22	659,00
-36823,05	689,00
-36706,45	772,00
-36590,40	792,00
-36474,90	753,00
-36359,95	802,00
-36245,55	787,00
-36131,68	759,00
-36018,35	753,00
-35905,55	755,00
-35793,29	942,00
-35681,54	782,00
-35570,32	757,00
-35459,62	774,00
-35349,43	815,00
-35239,75	829,00
-35130,58	759,00
-35021,91	876,00
-34913,74	779,00
-34806,07	842,00
-34698,89	983,00
-34592,20	803,00
-34486,00	849,00
-34380,28	854,00
-34275,04	810,00
-34170,27	759,00
-34065,98	857,00
-33962,16	814,00
-33858,81	897,00
-33755,92	814,00
-33653,49	927,00
-33551,52	913,00
-33450,01	904,00
-33348,94	886,00
-33248,33	830,00
-33148,16	814,00
-33048,43	910,00
-32949,14	939,00
-32850,29	933,00
-32751,87	773,00
-32653,89	969,00
-32556,33	892,00
-32459,20	777,00
-32362,49	903,00
-32266,19	882,00
-32170,32	737,00
-32074,86	894,00
-31979,82	932,00
-31885,18	1005,00
-31790,95	909,00
-31697,12	992,00
-31603,69	943,00
-31510,67	939,00
-31418,04	813,00
-31325,80	840,00
-31233,95	861,00
-31142,49	900,00
-31051,42	877,00
-30960,73	980,00
-30870,43	1020,00
-30780,50	933,00
-30690,95	807,00
-30601,77	955,00
-30512,97	849,00
-30424,53	922,00
-30336,46	887,00
-30248,76	786,00
-30161,42	1028,00
-30074,44	794,00
-29987,81	902,00
-29901,55	976,00
-29815,63	877,00
-29730,07	1016,00
-29644,86	910,00
-29560,00	950,00
-29475,48	944,00
-29391,30	854,00
-29307,47	912,00
-29223,97	891,00
-29140,81	906,00
-29057,99	940,00
-28975,50	759,00
-28893,34	1122,00
-28811,51	860,00
-28730,00	920,00
-28648,82	849,00
-28567,97	983,00
-28487,43	824,00
-28407,21	848,00
-28327,32	833,00
-28247,73	1114,00
-28168,46	878,00
-28089,50	949,00
-28010,85	842,00
-27932,51	767,00
-27854,48	951,00
-27776,75	791,00
-27699,32	847,00
-27622,19	862,00
-27545,37	945,00
-27468,84	980,00
-27392,60	918,00
-27316,66	1015,00
-27241,01	877,00
-27165,66	831,00
-27090,59	790,00
-27015,81	892,00
-26941,31	986,00
-26867,10	852,00
-26793,17	970,00
-26719,52	890,00
-26646,15	839,00
-26573,06	877,00
-26500,24	922,00
-26427,70	847,00
-26355,43	849,00
-26283,43	863,00
-26211,71	925,00
-26140,25	894,00
-26069,06	982,00
-25998,13	836,00
-25927,46	812,00
-25857,06	821,00
-25786,92	866,00
-25717,04	876,00
-25647,42	876,00
-25578,05	809,00
-25508,94	832,00
-25440,09	864,00
-25371,48	875,00
-25303,13	980,00
-25235,02	873,00
-25167,17	849,00
-25099,56	876,00
-25032,19	825,00
-24965,07	821,00
-24898,20	865,00
-24831,56	826,00
-24765,17	881,00
-24699,01	791,00
-24633,10	955,00
-24567,41	908,00
-24501,97	907,00
-24436,75	826,00
-24371,77	836,00
-24307,03	890,00
-24242,51	931,00
-24178,22	846,00
-24114,16	838,00
-24050,32	971,00
-23986,71	840,00
-23923,32	870,00
-23860,16	807,00
-23797,22	908,00
-23734,50	908,00
-23672,00	798,00
-23609,71	837,00
-23547,65	822,00
-23485,80	869,00
-23424,16	718,00
-23362,74	980,00
-23301,53	911,00
-23240,54	679,00
-23179,75	788,00
-23119,17	836,00
-23058,80	887,00
-22998,64	894,00
-22938,68	880,00
-22878,93	893,00
-22819,39	710,00
-22760,04	756,00
-22700,90	836,00
-22641,96	805,00
-22583,22	859,00
-22524,68	857,00
-22466,33	794,00
-22408,19	853,00
-22350,23	829,00
-22292,48	892,00
-22234,92	975,00
-22177,55	938,00
-22120,37	980,00
-22063,38	856,00
-22006,58	880,00
-21949,98	862,00
-21893,56	746,00
-21837,33	900,00
-21781,28	881,00
-21725,42	888,00
-21669,74	918,00
-21614,25	888,00
-21558,94	858,00
-21503,81	943,00
-21448,86	950,00
-21394,10	796,00
-21339,51	842,00
-21285,10	808,00
-21230,86	836,00
-21176,81	840,00
-21122,93	776,00
-21069,22	754,00
-21015,69	805,00
-20962,33	929,00
-20909,14	846,00
-20856,13	781,00
-20803,28	984,00
-20750,61	834,00
-20698,10	752,00
-20645,76	831,00
-20593,59	888,00
-20541,59	940,00
-20489,75	907,00
-20438,07	714,00
-20386,56	976,00
-20335,22	808,00
-20284,03	794,00
-20233,01	845,00
-20182,15	856,00
-20131,45	870,00
-20080,91	759,00
-20030,52	946,00
-19980,30	848,00
-19930,23	766,00
-19880,32	938,00
-19830,56	827,00
-19780,96	841,00
-19731,52	802,00
-19682,23	820,00
-19633,09	785,00
-19584,10	819,00
-19535,26	850,00
-19486,58	888,00
-19438,04	812,00
-19389,66	952,00
-19341,42	815,00
-19293,33	872,00
-19245,39	830,00
-19197,60	912,00
-19149,95	899,00
-19102,45	884,00
-19055,09	878,00
-19007,87	939,00
-18960,80	879,00
-18913,87	854,00
-18867,09	701,00
-18820,44	951,00
-18773,94	812,00
-18727,57	879,00
-18681,35	780,00
-18635,26	899,00
-18589,31	813,00
-18543,50	844,00
-18497,83	891,00
-18452,29	823,00
-18406,89	821,00
-18361,63	920,00
-18316,50	912,00
-18271,50	834,00
-18226,63	940,00
-18181,90	884,00
-18137,30	956,00
-18092,84	792,00
-18048,50	876,00
-18004,29	815,00
-17960,22	684,00
-17916,27	829,00
-17872,45	868,00
-17828,76	909,00
-17785,20	875,00
-17741,77	894,00
-17698,46	885,00
-17655,28	744,00
-17612,22	859,00
-17569,29	813,00
-17526,48	797,00
-17483,79	997,00
-17441,23	784,00
-17398,79	807,00
-17356,48	803,00
-17314,28	949,00
-17272,21	848,00
-17230,26	849,00
-17188,42	874,00
-17146,71	887,00
-17105,12	850,00
-17063,64	891,00
-17022,28	776,00
-16981,04	842,00
-16939,92	927,00
-16898,91	975,00
-16858,02	801,00
-16817,25	845,00
-16776,59	830,00
-16736,04	792,00
-16695,61	883,00
-16655,29	839,00
-16615,09	843,00
-16574,99	812,00
-16535,01	834,00
-16495,15	896,00
-16455,39	823,00
-16415,74	855,00
-16376,21	810,00
-16336,78	798,00
-16297,46	860,00
-16258,26	792,00
-16219,16	853,00
-16180,17	896,00
-16141,28	885,00
-16102,51	898,00
-16063,84	761,00
-16025,27	844,00
-15986,82	781,00
-15948,46	840,00
-15910,22	869,00
-15872,07	828,00
-15834,04	835,00
-15796,10	840,00
-15758,27	1045,00
-15720,54	905,00
-15682,91	871,00
-15645,39	1002,00
-15607,97	844,00
-15570,64	809,00
-15533,42	949,00
-15496,30	819,00
-15459,28	912,00
-15422,36	826,00
-15385,54	813,00
-15348,82	888,00
-15312,19	965,00
-15275,66	819,00
-15239,23	876,00
-15202,90	815,00
-15166,67	816,00
-15130,53	921,00
-15094,48	848,00
-15058,54	839,00
-15022,68	816,00
-14986,93	794,00
-14951,26	914,00
-14915,69	924,00
-14880,22	845,00
-14844,84	815,00
-14809,55	819,00
-14774,35	855,00
-14739,25	817,00
-14704,24	895,00
-14669,32	835,00
-14634,49	736,00
-14599,75	946,00
-14565,10	811,00
-14530,55	908,00
-14496,08	932,00
-14461,70	904,00
-14427,41	896,00
-14393,21	787,00
-14359,10	786,00
-14325,07	836,00
-14291,14	795,00
-14257,29	909,00
-14223,52	821,00
-14189,85	1039,00
-14156,26	841,00
-14122,76	777,00
-14089,34	782,00
-14056,01	911,00
-14022,76	783,00
-13989,60	882,00
-13956,52	968,00
-13923,53	808,00
-13890,62	758,00
-13857,79	784,00
-13825,05	744,00
-13792,39	673,00
-13759,81	885,00
-13727,31	781,00
-13694,90	932,00
-13662,57	983,00
-13630,31	887,00
-13598,14	852,00
-13566,05	767,00
-13534,05	896,00
-13502,12	882,00
-13470,27	884,00
-13438,50	967,00
-13406,80	825,00
-13375,19	804,00
-13343,66	960,00
-13312,20	914,00
-13280,83	793,00
-13249,53	844,00
-13218,30	730,00
-13187,16	797,00
-13156,09	976,00
-13125,10	929,00
-13094,18	777,00
-13063,34	835,00
-13032,58	783,00
-13001,89	915,00
-12971,28	903,00
-12940,74	825,00
-12910,27	868,00
-12879,88	859,00
-12849,57	1019,00
-12819,33	955,00
-12789,16	861,00
-12759,06	865,00
-12729,04	764,00
-12699,09	2248,00
-12669,21	832,00
-12639,41	870,00
-12609,68	815,00
-12580,02	845,00
-12550,43	955,00
-12520,91	749,00
-12491,46	759,00
-12462,08	738,00
-12432,77	881,00
-12403,54	814,00
-12374,37	762,00
-12345,27	921,00
-12316,24	862,00
-12287,29	803,00
-12258,40	880,00
-12229,57	973,00
-12200,82	847,00
-12172,14	929,00
-12143,52	623,00
-12114,97	830,00
-12086,49	893,00
-12058,07	872,00
-12029,73	797,00
-12001,44	940,00
-11973,23	830,00
-11945,08	846,00
-11917,00	918,00
-11888,98	781,00
-11861,03	946,00
-11833,15	818,00
-11805,32	973,00
-11777,57	865,00
-11749,88	848,00
-11722,25	848,00
-11694,69	912,00
-11667,19	858,00
-11639,75	914,00
-11612,38	798,00
-11585,07	845,00
-11557,83	882,00
-11530,65	950,00
-11503,53	768,00
-11476,47	896,00
-11449,48	763,00
-11422,54	1043,00
-11395,67	825,00
-11368,86	903,00
-11342,11	867,00
-11315,43	936,00
-11288,80	799,00
-11262,23	871,00
-11235,73	900,00
-11209,28	1014,00
-11182,90	877,00
-11156,57	763,00
-11130,31	984,00
-11104,10	823,00
-11077,96	894,00
-11051,87	819,00
-11025,84	813,00
-10999,87	847,00
-10973,96	835,00
-10948,11	812,00
-10922,31	922,00
-10896,58	828,00
-10870,90	932,00
-10845,28	931,00
-10819,71	842,00
-10794,20	904,00
-10768,75	921,00
-10743,36	936,00
-10718,02	812,00
-10692,74	872,00
-10667,52	885,00
-10642,35	907,00
-10617,24	910,00
-10592,18	901,00
-10567,18	804,00
-10542,23	923,00
-10517,34	898,00
-10492,51	1019,00
-10467,72	864,00
-10443,00	954,00
-10418,32	1003,00
-10393,70	1014,00
-10369,14	944,00
-10344,63	885,00
-10320,17	1057,00
-10295,77	908,00
-10271,42	955,00
-10247,12	1029,00
-10222,88	1086,00
-10198,68	992,00
-10174,54	1063,00
-10150,46	1184,00
-10126,42	1213,00
-10102,44	1083,00
-10078,51	1050,00
-10054,63	1197,00
-10030,80	1119,00
-10007,03	1309,00
-9983,30	1125,00
-9959,63	1213,00
-9936,01	1407,00
-9912,44	1366,00
-9888,92	1336,00
-9865,44	1158,00
-9842,02	1257,00
-9818,65	1364,00
-9795,33	1238,00
-9772,06	1362,00
-9748,84	1392,00
-9725,67	1362,00
-9702,55	1474,00
-9679,47	1679,00
-9656,45	1909,00
-9633,47	1697,00
-9610,55	1722,00
-9587,67	1908,00
-9564,84	2070,00
-9542,06	2099,00
-9519,32	2260,00
-9496,64	2401,00
-9474,00	2461,00
-9451,41	2505,00
-9428,87	2546,00
-9406,37	2669,00
-9383,92	2578,00
-9361,52	2389,00
-9339,17	2693,00
-9316,86	2871,00
-9294,60	3196,00
-9272,38	3419,00
-9250,21	3782,00
-9228,09	3917,00
-9206,01	3748,00
-9183,98	3455,00
-9162,00	3243,00
-9140,06	3241,00
-9118,16	3121,00
-9096,31	3351,00
-9074,51	3501,00
-9052,75	3622,00
-9031,04	3495,00
-9009,37	3182,00
-8987,74	3002,00
-8966,16	2832,00
-8944,63	2593,00
-8923,14	2588,00
-8901,69	2549,00
-8880,29	2544,00
-8858,93	2853,00
-8837,61	3179,00
-8816,34	3268,00
-8795,11	3261,00
-8773,92	2931,00
-8752,78	2814,00
-8731,68	2567,00
-8710,62	2810,00
-8689,61	2638,00
-8668,63	2904,00
-8647,70	3156,00
-8626,82	2993,00
-8605,97	2967,00
-8585,17	2780,00
-8564,41	2599,00
-8543,69	2544,00
-8523,01	2371,00
-8502,37	2661,00
-8481,78	2580,00
-8461,23	2503,00
-8440,71	2902,00
-8420,24	2959,00
-8399,81	3163,00
-8379,42	2994,00
-8359,08	2953,00
-8338,77	2588,00
-8318,50	2435,00
-8298,27	2428,00
-8278,09	2620,00
-8257,94	2580,00
-8237,83	2835,00
-8217,76	2853,00
-8197,74	2857,00
-8177,75	2851,00
-8157,80	2574,00
-8137,89	2381,00
-8118,02	2286,00
-8098,19	2391,00
-8078,40	2451,00
-8058,65	2385,00
-8038,93	2562,00
-8019,26	2441,00
-7999,62	2471,00
-7980,02	2213,00
-7960,46	2120,00
-7940,94	1925,00
-7921,46	2145,00
-7902,01	1985,00
-7882,60	2247,00
-7863,23	2075,00
-7843,90	2115,00
-7824,61	2236,00
-7805,35	2438,00
-7786,13	2316,00
-7766,95	2358,00
-7747,80	2247,00
-7728,69	2164,00
-7709,62	2107,00
-7690,59	2251,00
-7671,59	2352,00
-7652,63	2260,00
-7633,70	2350,00
-7614,81	2416,00
-7595,96	2088,00
-7577,15	2058,00
-7558,37	1965,00
-7539,62	2104,00
-7520,91	2129,00
-7502,24	2257,00
-7483,60	2279,00
-7465,00	2053,00
-7446,44	2132,00
-7427,91	1812,00
-7409,41	1735,00
-7390,95	1811,00
-7372,53	1613,00
-7354,14	1713,00
-7335,78	1624,00
-7317,46	1755,00
-7299,18	1669,00
-7280,92	1846,00
-7262,71	2126,00
-7244,52	2269,00
-7226,38	2075,00
-7208,26	2058,00
-7190,18	1961,00
-7172,14	1885,00
-7154,12	1961,00
-7136,15	1907,00
-7118,20	2078,00
-7100,29	2224,00
-7082,41	2114,00
-7064,57	2032,00
-7046,76	2019,00
-7028,98	1675,00
-7011,24	1918,00
-6993,53	1470,00
-6975,85	1553,00
-6958,20	1375,00
-6940,59	1456,00
-6923,01	1261,00
-6905,46	1566,00
-6887,94	1617,00
-6870,46	2107,00
-6853,01	1894,00
-6835,59	1876,00
-6818,21	1761,00
-6800,85	1800,00
-6783,53	1524,00
-6766,24	1292,00
-6748,98	1303,00
-6731,76	1271,00
-6714,56	1197,00
-6697,40	1116,00
-6680,26	1190,00
-6663,16	1334,00
-6646,09	1516,00
-6629,05	1643,00
-6612,05	1563,00
-6595,07	1627,00
-6578,13	1617,00
-6561,21	1410,00
-6544,33	1356,00
-6527,47	1144,00
-6510,65	1152,00
-6493,86	1040,00
-6477,10	1201,00
-6460,36	1260,00
-6443,66	1138,00
-6426,99	1086,00
-6410,35	1151,00
-6393,74	1278,00
-6377,16	1176,00
-6360,61	1388,00
-6344,09	1276,00
-6327,59	1366,00
-6311,13	1442,00
-6294,70	1455,00
-6278,29	1439,00
-6261,92	1374,00
-6245,58	1688,00
-6229,26	1655,00
-6212,97	1552,00
-6196,72	1188,00
-6180,49	1357,00
-6164,29	1033,00
-6148,12	1156,00
-6131,98	1121,00
-6115,86	982,00
-6099,78	1014,00
-6083,72	958,00
-6067,69	957,00
-6051,69	973,00
-6035,72	1054,00
-6019,78	1114,00
-6003,87	1284,00
-5987,98	1342,00
-5972,12	1446,00
-5956,29	1346,00
-5940,49	1175,00
-5924,71	1308,00
-5908,96	1077,00
-5893,24	1036,00
-5877,55	1012,00
-5861,89	1184,00
-5846,25	888,00
-5830,64	1081,00
-5815,05	1020,00
-5799,50	1006,00
-5783,97	1065,00
-5768,47	1178,00
-5752,99	1417,00
-5737,55	1290,00
-5722,12	1361,00
-5706,73	1318,00
-5691,36	1278,00
-5676,02	1174,00
-5660,71	1035,00
-5645,42	1028,00
-5630,16	1054,00
-5614,92	1228,00
-5599,71	1158,00
-5584,53	1204,00
-5569,37	1159,00
-5554,24	1462,00
-5539,14	1017,00
-5524,06	1086,00
-5509,01	1158,00
-5493,98	1094,00
-5478,98	1165,00
-5464,00	1060,00
-5449,05	1113,00
-5434,13	1139,00
-5419,23	987,00
-5404,36	947,00
-5389,51	1073,00
-5374,69	1205,00
-5359,89	1417,00
-5345,12	1518,00
-5330,37	1446,00
-5315,65	1228,00
-5300,95	1200,00
-5286,28	1096,00
-5271,63	1024,00
-5257,01	1156,00
-5242,41	1083,00
-5227,84	1035,00
-5213,29	1024,00
-5198,76	958,00
-5184,26	1015,00
-5169,79	944,00
-5155,33	1063,00
-5140,91	1109,00
-5126,51	1141,00
-5112,13	1165,00
-5097,77	1183,00
-5083,44	1166,00
-5069,13	927,00
-5054,85	1054,00
-5040,59	1030,00
-5026,36	1156,00
-5012,15	1241,00
-4997,96	1173,00
-4983,80	1061,00
-4969,66	964,00
-4955,54	956,00
-4941,44	1074,00
-4927,37	1127,00
-4913,33	1332,00
-4899,30	1387,00
-4885,30	1325,00
-4871,33	1096,00
-4857,37	971,00
-4843,44	922,00
-4829,53	1040,00
-4815,65	1180,00
-4801,79	958,00
-4787,95	1183,00
-4774,13	1107,00
-4760,34	937,00
-4746,56	969,00
-4732,82	850,00
-4719,09	1043,00
-4705,38	1359,00
-4691,70	1292,00
-4678,04	1404,00
-4664,41	1181,00
-4650,79	1326,00
-4637,20	931,00
-4623,63	995,00
-4610,08	1163,00
-4596,56	1121,00
-4583,05	1016,00
-4569,57	1031,00
-4556,11	1088,00
-4542,67	902,00
-4529,25	956,00
-4515,86	1005,00
-4502,49	1183,00
-4489,13	1234,00
-4475,80	1249,00
-4462,49	977,00
-4449,21	1090,00
-4435,94	988,00
-4422,70	953,00
-4409,47	871,00
-4396,27	1075,00
-4383,09	953,00
-4369,93	935,00
-4356,79	754,00
-4343,67	891,00
-4330,58	1096,00
-4317,50	1120,00
-4304,45	1023,00
-4291,41	993,00
-4278,40	980,00
-4265,41	853,00
-4252,44	956,00
-4239,49	983,00
-4226,55	1018,00
-4213,65	1024,00
-4200,76	1025,00
-4187,89	906,00
-4175,04	802,00
-4162,21	862,00
-4149,40	936,00
-4136,61	963,00
-4123,85	881,00
-4111,10	863,00
-4098,37	989,00
-4085,66	915,00
-4072,98	929,00
-4060,31	871,00
-4047,66	996,00
-4035,04	1103,00
-4022,43	924,00
-4009,84	881,00
-3997,27	820,00
-3984,72	863,00
-3972,19	1011,00
-3959,69	869,00
-3947,20	855,00
-3934,73	859,00
-3922,27	714,00
-3909,84	882,00
-3897,43	938,00
-3885,04	976,00
-3872,67	875,00
-3860,31	811,00
-3847,98	955,00
-3835,66	887,00
-3823,36	855,00
-3811,09	807,00
-3798,83	960,00
-3786,59	924,00
-3774,37	996,00
-3762,17	855,00
-3749,98	909,00
-3737,82	906,00
-3725,67	1057,00
-3713,55	838,00
-3701,44	881,00
-3689,35	850,00
-3677,28	986,00
-3665,22	879,00
-3653,19	845,00
-3641,17	849,00
-3629,18	893,00
-3617,20	853,00
-3605,24	864,00
-3593,30	941,00
-3581,37	992,00
-3569,47	933,00
-3557,58	927,00
-3545,71	917,00
-3533,86	1033,00
-3522,02	900,00
-3510,21	933,00
-3498,41	936,00
-3486,63	795,00
-3474,87	830,00
-3463,12	854,00
-3451,40	874,00
-3439,69	759,00
-3428,00	927,00
-3416,33	910,00
-3404,67	677,00
-3393,03	883,00
-3381,41	952,00
-3369,81	945,00
-3358,22	953,00
-3346,66	953,00
-3335,10	917,00
-3323,57	807,00
-3312,06	927,00
-3300,56	905,00
-3289,08	785,00
-3277,61	896,00
-3266,16	889,00
-3254,73	835,00
-3243,32	852,00
-3231,92	815,00
-3220,55	906,00
-3209,18	1107,00
-3197,84	775,00
-3186,51	805,00
-3175,20	863,00
-3163,90	863,00
-3152,63	934,00
-3141,36	749,00
-3130,12	985,00
-3118,89	968,00
-3107,68	765,00
-3096,49	888,00
-3085,31	823,00
-3074,15	842,00
-3063,00	929,00
-3051,87	896,00
-3040,76	894,00
-3029,67	1070,00
-3018,59	1155,00
-3007,52	1053,00
-2996,48	963,00
-2985,44	876,00
-2974,43	895,00
-2963,43	814,00
-2952,45	860,00
-2941,48	934,00
-2930,53	948,00
-2919,60	849,00
-2908,68	865,00
-2897,78	964,00
-2886,89	1027,00
-2876,02	897,00
-2865,17	851,00
-2854,33	903,00
-2843,50	875,00
-2832,70	996,00
-2821,90	829,00
-2811,13	940,00
-2800,37	924,00
-2789,62	759,00
-2778,89	877,00
-2768,18	916,00
-2757,48	954,00
-2746,80	1058,00
-2736,13	837,00
-2725,48	1020,00
-2714,84	780,00
-2704,22	920,00
-2693,61	907,00
-2683,02	971,00
-2672,45	867,00
-2661,89	970,00
-2651,34	930,00
-2640,81	897,00
-2630,30	966,00
-2619,80	853,00
-2609,31	955,00
-2598,84	809,00
-2588,39	852,00
-2577,95	814,00
-2567,52	772,00
-2557,11	836,00
-2546,71	910,00
-2536,33	963,00
-2525,97	916,00
-2515,62	936,00
-2505,28	880,00
-2494,96	852,00
-2484,65	941,00
-2474,36	1198,00
-2464,08	822,00
-2453,82	969,00
-2443,57	852,00
-2433,33	847,00
-2423,11	940,00
-2412,91	874,00
-2402,72	803,00
-2392,54	901,00
-2382,38	916,00
-2372,23	869,00
-2362,09	-1787,00
-2351,97	926,00
-2341,87	770,00
-2331,78	982,00
-2321,70	960,00
-2311,64	803,00
-2301,59	861,00
-2291,55	781,00
-2281,53	942,00
-2271,53	753,00
-2261,53	1048,00
-2251,55	919,00
-2241,59	863,00
-2231,64	875,00
-2221,70	850,00
-2211,78	861,00
-2201,87	900,00
-2191,97	968,00
-2182,09	813,00
-2172,22	932,00
-2162,37	835,00
-2152,53	744,00
-2142,70	796,00
-2132,89	812,00
-2123,09	1055,00
-2113,30	893,00
-2103,53	899,00
-2093,77	938,00
-2084,02	880,00
-2074,29	861,00
-2064,57	868,00
-2054,86	897,00
-2045,17	1025,00
-2035,49	878,00
-2025,82	758,00
-2016,17	808,00
-2006,53	897,00
-1996,91	871,00
-1987,29	780,00
-1977,69	883,00
-1968,11	791,00
-1958,53	874,00
-1948,97	836,00
-1939,42	841,00
-1929,89	822,00
-1920,37	923,00
-1910,86	818,00
-1901,36	944,00
-1891,88	830,00
-1882,41	903,00
-1872,95	927,00
-1863,51	918,00
-1854,08	914,00
-1844,66	971,00
-1835,26	925,00
-1825,86	963,00
-1816,48	805,00
-1807,11	908,00
-1797,76	860,00
-1788,42	850,00
-1779,09	899,00
-1769,77	841,00
-1760,47	1074,00
-1751,17	748,00
-1741,89	775,00
-1732,63	946,00
-1723,37	1094,00
-1714,13	952,00
-1704,90	893,00
-1695,68	1054,00
-1686,48	797,00
-1677,29	849,00
-1668,11	1094,00
-1658,94	835,00
-1649,78	809,00
-1640,64	935,00
-1631,51	903,00
-1622,39	967,00
-1613,28	895,00
-1604,19	1055,00
-1595,10	847,00
-1586,03	820,00
-1576,97	924,00
-1567,93	855,00
-1558,89	959,00
-1549,87	942,00
-1540,86	783,00
-1531,86	899,00
-1522,87	853,00
-1513,90	979,00
-1504,93	956,00
-1495,98	984,00
-1487,04	998,00
-1478,12	838,00
-1469,20	877,00
-1460,30	895,00
-1451,40	999,00
-1442,52	931,00
-1433,65	1000,00
-1424,80	903,00
-1415,95	752,00
-1407,12	1141,00
-1398,30	849,00
-1389,48	928,00
-1380,69	762,00
-1371,90	858,00
-1363,12	911,00
-1354,36	1085,00
-1345,60	968,00
-1336,86	947,00
-1328,13	1037,00
-1319,41	965,00
-1310,70	836,00
-1302,01	854,00
-1293,32	862,00
-1284,65	954,00
-1275,99	987,00
-1267,33	1034,00
-1258,69	974,00
-1250,06	864,00
-1241,45	813,00
-1232,84	1054,00
-1224,25	945,00
-1215,66	922,00
-1207,09	878,00
-1198,53	923,00
-1189,97	860,00
-1181,43	858,00
-1172,91	895,00
-1164,39	927,00
-1155,88	743,00
-1147,38	718,00
-1138,90	812,00
-1130,43	862,00
-1121,96	914,00
-1113,51	857,00
-1105,07	837,00
-1096,64	1094,00
-1088,22	879,00
-1079,81	927,00
-1071,41	972,00
-1063,02	839,00
-1054,65	965,00
-1046,28	895,00
-1037,92	912,00
-1029,58	894,00
-1021,24	911,00
-1012,92	1204,00
-1004,61	922,00
-996,30	1024,00
-988,01	822,00
-979,73	923,00
-971,46	973,00
-963,20	872,00
-954,95	720,00
-946,71	798,00
-938,48	924,00
-930,26	1000,00
-922,06	964,00
-913,86	835,00
-905,67	813,00
-897,49	984,00
-889,33	793,00
-881,17	972,00
-873,02	867,00
-864,89	769,00
-856,76	854,00
-848,65	873,00
-840,54	949,00
-832,45	879,00
-824,36	743,00
-816,29	963,00
-808,22	957,00
-800,17	944,00
-792,12	928,00
-784,09	1025,00
-776,06	769,00
-768,05	902,00
-760,04	913,00
-752,05	803,00
-744,07	950,00
-736,09	945,00
-728,13	766,00
-720,17	873,00
-712,23	856,00
-704,29	763,00
-696,37	911,00
-688,45	1001,00
-680,55	903,00
-672,65	873,00
-664,77	815,00
-656,89	883,00
-649,03	823,00
-641,17	1032,00
-633,32	890,00
-625,49	1019,00
-617,66	819,00
-609,84	1039,00
-602,03	787,00
-594,23	899,00
-586,45	966,00
-578,67	817,00
-570,90	898,00
-563,14	867,00
-555,39	904,00
-547,65	972,00
-539,91	947,00
-532,19	933,00
-524,48	942,00
-516,78	849,00
-509,08	916,00
-501,40	850,00
-493,72	914,00
-486,06	846,00
-478,40	968,00
-470,76	760,00
-463,12	884,00
-455,49	793,00
-447,87	875,00
-440,26	915,00
-432,66	819,00
-425,07	956,00
-417,49	966,00
-409,92	745,00
-402,35	795,00
-394,80	787,00
-387,25	973,00
-379,72	864,00
-372,19	973,00
-364,67	1026,00
-357,17	829,00
-349,67	981,00
-342,18	923,00
-334,69	888,00
-327,22	875,00
-319,76	921,00
-312,30	948,00
-304,86	843,00
-297,42	991,00
-290,00	880,00
-282,58	930,00
-275,17	1034,00
-267,77	1073,00
-260,37	921,00
-252,99	1038,00
-245,62	942,00
-238,25	937,00
-230,90	826,00
-223,55	1017,00
-216,21	947,00
-208,88	1137,00
-201,56	1000,00
-194,25	1026,00
-186,94	1044,00
-179,65	1009,00
-172,36	1112,00
-165,08	1044,00
-157,81	1246,00
-150,55	1254,00
-143,30	1236,00
-136,06	1252,00
-128,82	1345,00
-121,60	1334,00
-114,38	1457,00
-107,17	1549,00
-99,97	1772,00
-92,78	1662,00
-85,60	1806,00
-78,42	2068,00
-71,25	2193,00
-64,10	2279,00
-56,95	2568,00
-49,81	2899,00
-42,67	3585,00
-35,55	4087,00
-28,43	5261,00
-21,33	8152,00
-14,23	25354,00
-7,14	57498,00
-0,05	57284,00
7,02	57012,00
14,09	57319,00
21,14	21357,00
28,19	9562,00
35,23	6287,00
42,27	5219,00
49,29	4204,00
56,31	3710,00
63,32	3441,00
70,32	2821,00
77,31	2604,00
84,29	2233,00
91,27	2132,00
98,23	2194,00
105,19	1995,00
112,14	2206,00
119,09	2897,00
126,02	4015,00
132,95	4475,00
139,87	4616,00
146,78	4824,00
153,68	4602,00
160,58	4393,00
167,46	4304,00
174,34	4471,00
181,21	4261,00
188,08	4270,00
194,93	4364,00
201,78	4280,00
208,62	4390,00
215,45	4349,00
222,27	4152,00
229,09	4324,00
235,90	4075,00
242,70	4147,00
249,49	4138,00
256,27	3965,00
263,05	3909,00
269,82	3930,00
276,58	3917,00
283,33	3758,00
290,08	3706,00
296,82	3609,00
303,55	3503,00
310,27	3486,00
316,98	3543,00
323,69	3503,00
330,39	3368,00
337,08	3637,00
343,76	3483,00
350,44	3593,00
357,11	3529,00
363,77	3449,00
370,42	3415,00
377,07	3468,00
383,71	3467,00
390,34	3440,00
396,96	3426,00
403,58	3497,00
410,19	3567,00
416,79	3721,00
423,38	3757,00
429,97	3847,00
436,55	3605,00
443,12	3733,00
449,68	3843,00
456,24	3604,00
462,79	3590,00
469,33	3355,00
475,86	3252,00
482,39	3188,00
488,91	3063,00
495,42	3113,00
501,93	3079,00
508,42	3072,00
514,91	2929,00
521,40	2999,00
527,87	2960,00
534,34	2788,00
540,80	2904,00
547,25	3010,00
553,70	2956,00
560,14	2929,00
566,57	2982,00
573,00	3019,00
579,41	3061,00
585,83	3060,00
592,23	3176,00
598,62	3213,00
605,01	3220,00
611,40	3368,00
617,77	3336,00
624,14	3128,00
630,50	3075,00
636,85	2962,00
643,20	2840,00
649,54	2692,00
655,87	2743,00
662,20	2813,00
668,52	2666,00
674,83	2715,00
681,13	2517,00
687,43	2716,00
693,72	2621,00
700,00	2569,00
706,28	2640,00
712,55	2578,00
718,81	2696,00
725,07	2544,00
731,32	2672,00
737,56	2696,00
743,79	2555,00
750,02	2655,00
756,24	2505,00
762,46	2497,00
768,67	2752,00
774,87	2450,00
781,06	2456,00
787,25	2570,00
793,43	2547,00
799,60	2435,00
805,77	2702,00
811,93	2483,00
818,08	2614,00
824,23	2601,00
830,37	2768,00
836,50	2473,00
842,63	2522,00
848,75	2497,00
854,87	2509,00
860,97	2678,00
867,07	2538,00
873,17	2708,00
879,25	2566,00
885,33	2625,00
891,41	2675,00
897,47	2648,00
903,53	2554,00
909,59	2534,00
915,63	2529,00
921,67	2527,00
927,71	2536,00
933,74	2500,00
939,76	2289,00
945,77	2311,00
951,78	2545,00
957,78	2295,00
963,78	2382,00
969,77	2458,00
975,75	2351,00
981,72	2271,00
987,69	3695,00
993,66	2467,00
999,61	2422,00
1005,56	2414,00
1011,51	2349,00
1017,44	2428,00
1023,37	2481,00
1029,30	2426,00
1035,22	2420,00
1041,13	2500,00
1047,03	2699,00
1052,93	3166,00
1058,83	4584,00
1064,71	5059,00
1070,59	4219,00
1076,47	3453,00
1082,33	3114,00
1088,20	3027,00
1094,05	2880,00
1099,90	2673,00
1105,74	2598,00
1111,58	2704,00
1117,41	2982,00
1123,23	3786,00
1129,05	4782,00
1134,86	4296,00
1140,67	3184,00
1146,47	2732,00
1152,26	2515,00
1158,05	2376,00
1163,83	2711,00
1169,60	2740,00
1175,37	2583,00
1181,13	2548,00
1186,89	2343,00
1192,64	2306,00
1198,38	2511,00
1204,12	2171,00
1209,85	2195,00
1215,58	2249,00
1221,30	2321,00
1227,02	2265,00
1232,72	2309,00
1238,43	2230,00
1244,12	2240,00
1249,81	2304,00
1255,50	2551,00
1261,17	2395,00
1266,85	2546,00
1272,51	2487,00
1278,17	2708,00
1283,83	3010,00
1289,47	4420,00
1295,12	5958,00
1300,75	5391,00
1306,38	4219,00
1312,01	3351,00
1317,63	2851,00
1323,24	2733,00
1328,85	2540,00
1334,45	2381,00
1340,04	2399,00
1345,63	2383,00
1351,22	2501,00
1356,80	2347,00
1362,37	2637,00
1367,93	2602,00
1373,49	2682,00
1379,05	2451,00
1384,60	2365,00
1390,14	2425,00
1395,68	2401,00
1401,21	2487,00
1406,74	2643,00
1412,26	3296,00
1417,77	3974,00
1423,28	3724,00
1428,78	4259,00
1434,28	5260,00
1439,77	5968,00
1445,26	5821,00
1450,74	5395,00
1456,22	4963,00
1461,68	4856,00
1467,15	4467,00
1472,61	3698,00
1478,06	3517,00
1483,51	2942,00
1488,95	2562,00
1494,38	2527,00
1499,81	2287,00
1505,24	2265,00
1510,65	2319,00
1516,07	2219,00
1521,48	2221,00
1526,88	2036,00
1532,27	2114,00
1537,67	2033,00
1543,05	2194,00
1548,43	1961,00
1553,81	2232,00
1559,18	1944,00
1564,54	1993,00
1569,90	2030,00
1575,25	1980,00
1580,60	1854,00
1585,94	2022,00
1591,28	1892,00
1596,61	1919,00
1601,93	1930,00
1607,25	2019,00
1612,57	1906,00
1617,88	1949,00
1623,18	1915,00
1628,48	1908,00
1633,77	1849,00
1639,06	1979,00
1644,34	1856,00
1649,62	1757,00
1654,89	1865,00
1660,16	1733,00
1665,42	1950,00
1670,67	1803,00
1675,92	1674,00
1681,17	1751,00
1686,41	1753,00
1691,64	1818,00
1696,87	1820,00
1702,10	1682,00
1707,32	1781,00
1712,53	1829,00
1717,74	1710,00
1722,94	1904,00
1728,14	1771,00
1733,33	1721,00
1738,52	1618,00
1743,70	1674,00
1748,88	1746,00
1754,05	1767,00
1759,22	1542,00
1764,38	2054,00
1769,53	1667,00
1774,69	1699,00
1779,83	1591,00
1784,97	1679,00
1790,11	1678,00
1795,24	1582,00
1800,36	1632,00
1805,48	1555,00
1810,60	1671,00
1815,71	1585,00
1820,82	1575,00
1825,92	1644,00
1831,01	1611,00
1836,10	1600,00
1841,19	1734,00
1846,26	1469,00
1851,34	1557,00
1856,41	1660,00
1861,47	1500,00
1866,53	1663,00
1871,59	1539,00
1876,64	1534,00
1881,68	1494,00
1886,72	1632,00
1891,76	1472,00
1896,79	1506,00
1901,81	1392,00
1906,83	1575,00
1911,85	1400,00
1916,86	1532,00
1921,86	1405,00
1926,86	1428,00
1931,86	1534,00
1936,85	1454,00
1941,83	1429,00
1946,81	1484,00
1951,79	1299,00
1956,76	1323,00
1961,72	1266,00
1966,68	1377,00
1971,64	1374,00
1976,59	1417,00
1981,54	1443,00
1986,48	1454,00
1991,42	1289,00
1996,35	1553,00
2001,27	1387,00
2006,20	1333,00
2011,11	1434,00
2016,03	1340,00
2020,93	1219,00
2025,84	1417,00
2030,73	1295,00
2035,63	1277,00
2040,52	1312,00
2045,40	1361,00
2050,28	1355,00
2055,15	1355,00
2060,02	1173,00
2064,89	1475,00
2069,75	1332,00
2074,60	1339,00
2079,46	1251,00
2084,30	1226,00
2089,14	1173,00
2093,98	1408,00
2098,81	1376,00
2103,64	1293,00
2108,46	1353,00
2113,28	1279,00
2118,09	1369,00
2122,90	1370,00
2127,70	1291,00
2132,50	1303,00
2137,30	1270,00
2142,09	1220,00
2146,87	1231,00
2151,66	1261,00
2156,43	1339,00
2161,20	1319,00
2165,97	1296,00
2170,73	1345,00
2175,49	1436,00
2180,24	1381,00
2184,99	1415,00
2189,74	1459,00
2194,48	1381,00
2199,21	1381,00
2203,94	1245,00
2208,67	1251,00
2213,39	1157,00
2218,11	1279,00
2222,82	1221,00
2227,53	1193,00
2232,23	1269,00
2236,93	1279,00
2241,63	1200,00
2246,32	1395,00
2251,00	1288,00
2255,68	1329,00
2260,36	1244,00
2265,03	1295,00
2269,70	1397,00
2274,36	1233,00
2279,02	1306,00
2283,68	1333,00
2288,33	1270,00
2292,97	1285,00
2297,61	1223,00
2302,25	1282,00
2306,88	1206,00
2311,51	1138,00
2316,14	1174,00
2320,75	1142,00
2325,37	1117,00
2329,98	1249,00
2334,59	1163,00
2339,19	1169,00
2343,79	1132,00
2348,38	1287,00
2352,97	1141,00
2357,55	1218,00
2362,13	1123,00
2366,71	1107,00
2371,28	1319,00
2375,85	1208,00
2380,41	1296,00
2384,97	1197,00
2389,52	1210,00
2394,07	1327,00
2398,62	1119,00
2403,16	1307,00
2407,70	1085,00
2412,23	1066,00
2416,76	1228,00
2421,29	1230,00
2425,81	1320,00
2430,32	1220,00
2434,84	1135,00
2439,34	1233,00
2443,85	1305,00
2448,35	1118,00
2452,84	1102,00
2457,33	1251,00
2461,82	1026,00
2466,30	1047,00
2470,78	1240,00
2475,25	1190,00
2479,72	1136,00
2484,19	1216,00
2488,65	1202,00
2493,11	1171,00
2497,56	1286,00
2502,01	1002,00
2506,46	1269,00
2510,90	1049,00
2515,34	1095,00
2519,77	1167,00
2524,20	1212,00
2528,62	1140,00
2533,04	1293,00
2537,46	1142,00
2541,87	1152,00
2546,28	1175,00
2550,68	1223,00
2555,08	1169,00
2559,48	1082,00
2563,87	1069,00
2568,26	1105,00
2572,64	1183,00
2577,02	1207,00
2581,40	1045,00
2585,77	1174,00
2590,14	1181,00
2594,50	1088,00
2598,86	1169,00
2603,22	1221,00
2607,57	1209,00
2611,92	1248,00
2616,26	1220,00
2620,60	1291,00
2624,94	1219,00
2629,27	1232,00
2633,60	1144,00
2637,92	1294,00
2642,24	1288,00
2646,56	1147,00
2650,87	1140,00
2655,18	1346,00
2659,48	1177,00
2663,78	1203,00
2668,08	1202,00
2672,37	1216,00
2676,66	1196,00
2680,95	1247,00
2685,23	1344,00
2689,50	1298,00
2693,78	1314,00
2698,05	1287,00
2702,31	1386,00
2706,57	1447,00
2710,83	1521,00
2715,08	1585,00
2719,33	1563,00
2723,58	1545,00
2727,82	1511,00
2732,06	1464,00
2736,29	1480,00
2740,53	1399,00
2744,75	1408,00
2748,97	1352,00
2753,19	1302,00
2757,41	1378,00
2761,62	1402,00
2765,83	1372,00
2770,03	1322,00
2774,23	1469,00
2778,43	1341,00
2782,62	1415,00
2786,81	1362,00
2791,00	1418,00
2795,18	1434,00
2799,35	1532,00
2803,53	1512,00
2807,70	1595,00
2811,86	1608,00
2816,03	1885,00
2820,19	1830,00
2824,34	1817,00
2828,49	2010,00
2832,64	2309,00
2836,78	2707,00
2840,92	3141,00
2845,06	3860,00
2849,19	4234,00
2853,32	4308,00
2857,45	4395,00
2861,57	4226,00
2865,69	4122,00
2869,80	3889,00
2873,91	4150,00
2878,02	4681,00
2882,12	5068,00
2886,22	5061,00
2890,32	4785,00
2894,41	4464,00
2898,50	4087,00
2902,58	3847,00
2906,67	3557,00
2910,74	3315,00
2914,82	3025,00
2918,89	3055,00
2922,96	2644,00
2927,02	2478,00
2931,08	2427,00
2935,13	2326,00
2939,19	2266,00
2943,24	2019,00
2947,28	2001,00
2951,32	1789,00
2955,36	1627,00
2959,40	1794,00
2963,43	1534,00
2967,46	1535,00
2971,48	1414,00
2975,50	1336,00
2979,52	1468,00
2983,53	1389,00
2987,54	1272,00
2991,55	1348,00
2995,55	1245,00
2999,55	1176,00
3003,54	1157,00
3007,54	1240,00
3011,53	1188,00
3015,51	1220,00
3019,49	1195,00
3023,47	1054,00
3027,45	1203,00
3031,42	1044,00
3035,39	1012,00
3039,35	1075,00
3043,31	1119,00
3047,27	998,00
3051,22	1193,00
3055,17	1035,00
3059,12	979,00
3063,06	1069,00
3067,00	985,00
3070,94	902,00
3074,87	1178,00
3078,80	983,00
3082,73	1051,00
3086,65	982,00
3090,57	980,00
3094,49	982,00
3098,40	871,00
3102,31	1035,00
3106,22	989,00
3110,12	934,00
3114,02	854,00
3117,92	1016,00
3121,81	955,00
3125,70	963,00
3129,58	921,00
3133,47	910,00
3137,34	1060,00
3141,22	1070,00
3145,09	975,00
3148,96	983,00
3152,83	898,00
3156,69	1006,00
3160,55	892,00
3164,40	971,00
3168,26	990,00
3172,10	1042,00
3175,95	1024,00
3179,79	959,00
3183,63	976,00
3187,47	908,00
3191,30	930,00
3195,13	911,00
3198,95	848,00
3202,78	969,00
3206,60	814,00
3210,41	847,00
3214,23	872,00
3218,03	932,00
3221,84	946,00
3225,64	920,00
3229,44	791,00
3233,24	935,00
3237,03	986,00
3240,82	826,00
3244,61	885,00
3248,39	944,00
3252,17	974,00
3255,95	951,00
3259,72	897,00
3263,49	1128,00
3267,26	912,00
3271,03	895,00
3274,79	886,00
3278,54	967,00
3282,30	824,00
3286,05	917,00
3289,80	977,00
3293,54	900,00
3297,29	998,00
3301,02	918,00
3304,76	916,00
3308,49	926,00
3312,22	841,00
3315,95	864,00
3319,67	902,00
3323,39	984,00
3327,10	973,00
3330,82	941,00
3334,53	950,00
3338,24	951,00
3341,94	882,00
3345,64	989,00
3349,34	916,00
3353,03	1017,00
3356,72	897,00
3360,41	910,00
3364,10	776,00
3367,78	933,00
3371,46	850,00
3375,13	877,00
3378,81	839,00
3382,48	844,00
3386,14	951,00
3389,81	928,00
3393,47	917,00
3397,12	1109,00
3400,78	891,00
3404,43	825,00
3408,08	981,00
3411,72	877,00
3415,36	828,00
3419,00	872,00
3422,64	885,00
3426,27	930,00
3429,90	901,00
3433,53	850,00
3437,15	857,00
3440,77	817,00
3444,39	821,00
3448,00	818,00
3451,62	820,00
3455,22	935,00
3458,83	777,00
3462,43	859,00
3466,03	954,00
3469,63	751,00
3473,22	805,00
3476,81	792,00
3480,40	1004,00
3483,99	795,00
3487,57	947,00
3491,15	857,00
3494,72	831,00
3498,29	983,00
3501,86	805,00
3505,43	850,00
3508,99	849,00
3512,56	741,00
3516,11	977,00
3519,67	859,00
3523,22	935,00
3526,77	832,00
3530,32	1074,00
3533,86	987,00
3537,40	898,00
3540,94	943,00
3544,47	921,00
3548,00	790,00
3551,53	931,00
3555,06	820,00
3558,58	896,00
3562,10	893,00
3565,62	758,00
3569,13	907,00
3572,64	933,00
3576,15	787,00
3579,66	818,00
3583,16	866,00
3586,66	903,00
3590,16	840,00
3593,65	815,00
3597,14	803,00
3600,63	704,00
3604,11	896,00
3607,60	855,00
3611,08	850,00
3614,55	911,00
3618,03	805,00
3621,50	797,00
3624,97	743,00
3628,43	835,00
3631,90	788,00
3635,36	749,00
3638,81	754,00
3642,27	814,00
3645,72	854,00
3649,17	777,00
3652,61	726,00
3656,06	783,00
3659,50	814,00
3662,93	897,00
3666,37	890,00
3669,80	1043,00
3673,23	857,00
3676,65	893,00
3680,08	861,00
3683,50	736,00
3686,92	797,00
3690,33	775,00
3693,74	798,00
3697,15	701,00
3700,56	865,00
3703,96	850,00
3707,36	667,00
3710,76	706,00
3714,16	691,00
3717,55	825,00
3720,94	781,00
3724,33	799,00
3727,71	902,00
3731,10	815,00
3734,48	783,00
3737,85	706,00
3741,23	746,00
3744,60	720,00
3747,97	679,00
3751,33	805,00
3754,69	765,00
3758,05	780,00
3761,41	738,00
3764,77	741,00
3768,12	672,00
3771,47	658,00
3774,82	783,00
3778,16	-10,00
3781,50	13,00
3784,84	3,00
3788,18	15,00
>>>>>End Processed Spectral Data<<<<<
