SpectraSuite Data File
++++++++++++++++++++++++++++++++++++
Date: Mon Jan 05 16:32:58 ICT 2026
User: Administrator
Dark Spectrum Present: Yes
Reference Spectrum Present: No
Number of Sampled Component Spectra: 1
Spectrometers: MAYP113682
Integration Time (usec): 3000000 (MAYP113682)
Spectra Averaged: 1 (MAYP113682)
Boxcar Smoothing: 0 (MAYP113682)
Correct for Electrical Dark: No (MAYP113682)
Strobe/Lamp Enabled: No (MAYP113682)
Correct for Detector Non-linearity: No (MAYP113682)
Correct for Stray Light: No (MAYP113682)
Number of Pixels in Processed Spectrum: 2068
>>>>>Begin Processed Spectral Data<<<<<
-37534,58	28,00
-37414,56	9,00
-37295,11	8,00
-37176,24	4,00
-37057,95	562,00
-36940,22	604,00
-36823,05	615,00
-36706,45	759,00
-36590,40	804,00
-36474,90	705,00
-36359,95	756,00
-36245,55	831,00
-36131,68	700,00
-36018,35	765,00
-35905,55	737,00
-35793,29	855,00
-35681,54	783,00
-35570,32	785,00
-35459,62	786,00
-35349,43	887,00
-35239,75	878,00
-35130,58	729,00
-35021,91	794,00
-34913,74	719,00
-34806,07	808,00
-34698,89	824,00
-34592,20	716,00
-34486,00	888,00
-34380,28	878,00
-34275,04	751,00
-34170,27	672,00
-34065,98	886,00
-33962,16	806,00
-33858,81	913,00
-33755,92	765,00
-33653,49	911,00
-33551,52	873,00
-33450,01	844,00
-33348,94	870,00
-33248,33	785,00
-33148,16	792,00
-33048,43	848,00
-32949,14	943,00
-32850,29	956,00
-32751,87	735,00
-32653,89	880,00
-32556,33	954,00
-32459,20	827,00
-32362,49	814,00
-32266,19	794,00
-32170,32	745,00
-32074,86	880,00
-31979,82	918,00
-31885,18	988,00
-31790,95	939,00
-31697,12	914,00
-31603,69	903,00
-31510,67	956,00
-31418,04	859,00
-31325,80	880,00
-31233,95	869,00
-31142,49	854,00
-31051,42	797,00
-30960,73	1030,00
-30870,43	1016,00
-30780,50	948,00
-30690,95	915,00
-30601,77	969,00
-30512,97	924,00
-30424,53	970,00
-30336,46	869,00
-30248,76	878,00
-30161,42	1022,00
-30074,44	871,00
-29987,81	842,00
-29901,55	973,00
-29815,63	774,00
-29730,07	963,00
-29644,86	937,00
-29560,00	910,00
-29475,48	827,00
-29391,30	832,00
-29307,47	876,00
-29223,97	813,00
-29140,81	896,00
-29057,99	911,00
-28975,50	788,00
-28893,34	984,00
-28811,51	799,00
-28730,00	881,00
-28648,82	801,00
-28567,97	964,00
-28487,43	851,00
-28407,21	919,00
-28327,32	851,00
-28247,73	983,00
-28168,46	773,00
-28089,50	880,00
-28010,85	766,00
-27932,51	868,00
-27854,48	858,00
-27776,75	863,00
-27699,32	817,00
-27622,19	929,00
-27545,37	907,00
-27468,84	924,00
-27392,60	905,00
-27316,66	933,00
-27241,01	972,00
-27165,66	860,00
-27090,59	826,00
-27015,81	967,00
-26941,31	1035,00
-26867,10	779,00
-26793,17	964,00
-26719,52	870,00
-26646,15	841,00
-26573,06	825,00
-26500,24	767,00
-26427,70	859,00
-26355,43	808,00
-26283,43	868,00
-26211,71	856,00
-26140,25	910,00
-26069,06	1000,00
-25998,13	783,00
-25927,46	784,00
-25857,06	808,00
-25786,92	824,00
-25717,04	778,00
-25647,42	915,00
-25578,05	817,00
-25508,94	804,00
-25440,09	907,00
-25371,48	880,00
-25303,13	890,00
-25235,02	897,00
-25167,17	853,00
-25099,56	841,00
-25032,19	828,00
-24965,07	816,00
-24898,20	761,00
-24831,56	813,00
-24765,17	869,00
-24699,01	734,00
-24633,10	908,00
-24567,41	908,00
-24501,97	803,00
-24436,75	893,00
-24371,77	821,00
-24307,03	834,00
-24242,51	877,00
-24178,22	848,00
-24114,16	895,00
-24050,32	868,00
-23986,71	815,00
-23923,32	900,00
-23860,16	857,00
-23797,22	862,00
-23734,50	897,00
-23672,00	826,00
-23609,71	859,00
-23547,65	750,00
-23485,80	905,00
-23424,16	697,00
-23362,74	1003,00
-23301,53	858,00
-23240,54	768,00
-23179,75	733,00
-23119,17	765,00
-23058,80	831,00
-22998,64	916,00
-22938,68	840,00
-22878,93	897,00
-22819,39	742,00
-22760,04	783,00
-22700,90	819,00
-22641,96	827,00
-22583,22	856,00
-22524,68	831,00
-22466,33	858,00
-22408,19	865,00
-22350,23	801,00
-22292,48	876,00
-22234,92	810,00
-22177,55	862,00
-22120,37	1023,00
-22063,38	827,00
-22006,58	787,00
-21949,98	834,00
-21893,56	723,00
-21837,33	832,00
-21781,28	830,00
-21725,42	818,00
-21669,74	817,00
-21614,25	885,00
-21558,94	860,00
-21503,81	1018,00
-21448,86	860,00
-21394,10	765,00
-21339,51	860,00
-21285,10	845,00
-21230,86	775,00
-21176,81	826,00
-21122,93	835,00
-21069,22	773,00
-21015,69	812,00
-20962,33	886,00
-20909,14	772,00
-20856,13	778,00
-20803,28	881,00
-20750,61	853,00
-20698,10	762,00
-20645,76	794,00
-20593,59	956,00
-20541,59	841,00
-20489,75	916,00
-20438,07	748,00
-20386,56	929,00
-20335,22	791,00
-20284,03	804,00
-20233,01	848,00
-20182,15	860,00
-20131,45	879,00
-20080,91	702,00
-20030,52	878,00
-19980,30	808,00
-19930,23	746,00
-19880,32	952,00
-19830,56	855,00
-19780,96	865,00
-19731,52	846,00
-19682,23	865,00
-19633,09	793,00
-19584,10	805,00
-19535,26	844,00
-19486,58	1002,00
-19438,04	821,00
-19389,66	920,00
-19341,42	758,00
-19293,33	880,00
-19245,39	896,00
-19197,60	944,00
-19149,95	961,00
-19102,45	893,00
-19055,09	742,00
-19007,87	885,00
-18960,80	847,00
-18913,87	825,00
-18867,09	893,00
-18820,44	961,00
-18773,94	743,00
-18727,57	851,00
-18681,35	780,00
-18635,26	818,00
-18589,31	767,00
-18543,50	740,00
-18497,83	782,00
-18452,29	866,00
-18406,89	789,00
-18361,63	965,00
-18316,50	844,00
-18271,50	849,00
-18226,63	915,00
-18181,90	853,00
-18137,30	872,00
-18092,84	819,00
-18048,50	883,00
-18004,29	724,00
-17960,22	731,00
-17916,27	816,00
-17872,45	798,00
-17828,76	872,00
-17785,20	802,00
-17741,77	882,00
-17698,46	898,00
-17655,28	768,00
-17612,22	926,00
-17569,29	801,00
-17526,48	879,00
-17483,79	929,00
-17441,23	777,00
-17398,79	795,00
-17356,48	735,00
-17314,28	1011,00
-17272,21	842,00
-17230,26	873,00
-17188,42	794,00
-17146,71	905,00
-17105,12	777,00
-17063,64	880,00
-17022,28	737,00
-16981,04	789,00
-16939,92	827,00
-16898,91	1008,00
-16858,02	761,00
-16817,25	880,00
-16776,59	815,00
-16736,04	797,00
-16695,61	866,00
-16655,29	797,00
-16615,09	767,00
-16574,99	875,00
-16535,01	853,00
-16495,15	860,00
-16455,39	866,00
-16415,74	771,00
-16376,21	778,00
-16336,78	796,00
-16297,46	832,00
-16258,26	783,00
-16219,16	807,00
-16180,17	844,00
-16141,28	869,00
-16102,51	833,00
-16063,84	763,00
-16025,27	927,00
-15986,82	778,00
-15948,46	798,00
-15910,22	835,00
-15872,07	794,00
-15834,04	895,00
-15796,10	809,00
-15758,27	1018,00
-15720,54	857,00
-15682,91	856,00
-15645,39	929,00
-15607,97	850,00
-15570,64	816,00
-15533,42	936,00
-15496,30	864,00
-15459,28	894,00
-15422,36	818,00
-15385,54	780,00
-15348,82	839,00
-15312,19	957,00
-15275,66	726,00
-15239,23	848,00
-15202,90	754,00
-15166,67	808,00
-15130,53	931,00
-15094,48	843,00
-15058,54	756,00
-15022,68	792,00
-14986,93	791,00
-14951,26	895,00
-14915,69	889,00
-14880,22	770,00
-14844,84	810,00
-14809,55	808,00
-14774,35	869,00
-14739,25	817,00
-14704,24	866,00
-14669,32	834,00
-14634,49	716,00
-14599,75	891,00
-14565,10	785,00
-14530,55	867,00
-14496,08	880,00
-14461,70	940,00
-14427,41	804,00
-14393,21	664,00
-14359,10	753,00
-14325,07	878,00
-14291,14	844,00
-14257,29	843,00
-14223,52	828,00
-14189,85	974,00
-14156,26	814,00
-14122,76	683,00
-14089,34	797,00
-14056,01	835,00
-14022,76	831,00
-13989,60	815,00
-13956,52	883,00
-13923,53	868,00
-13890,62	714,00
-13857,79	809,00
-13825,05	745,00
-13792,39	685,00
-13759,81	802,00
-13727,31	802,00
-13694,90	853,00
-13662,57	921,00
-13630,31	856,00
-13598,14	860,00
-13566,05	820,00
-13534,05	813,00
-13502,12	884,00
-13470,27	811,00
-13438,50	931,00
-13406,80	776,00
-13375,19	806,00
-13343,66	857,00
-13312,20	902,00
-13280,83	814,00
-13249,53	844,00
-13218,30	670,00
-13187,16	850,00
-13156,09	938,00
-13125,10	735,00
-13094,18	916,00
-13063,34	861,00
-13032,58	772,00
-13001,89	911,00
-12971,28	907,00
-12940,74	892,00
-12910,27	825,00
-12879,88	841,00
-12849,57	875,00
-12819,33	854,00
-12789,16	875,00
-12759,06	892,00
-12729,04	780,00
-12699,09	2127,00
-12669,21	766,00
-12639,41	887,00
-12609,68	765,00
-12580,02	810,00
-12550,43	934,00
-12520,91	702,00
-12491,46	808,00
-12462,08	755,00
-12432,77	906,00
-12403,54	803,00
-12374,37	775,00
-12345,27	919,00
-12316,24	835,00
-12287,29	782,00
-12258,40	779,00
-12229,57	821,00
-12200,82	775,00
-12172,14	866,00
-12143,52	675,00
-12114,97	825,00
-12086,49	829,00
-12058,07	991,00
-12029,73	879,00
-12001,44	886,00
-11973,23	978,00
-11945,08	768,00
-11917,00	894,00
-11888,98	725,00
-11861,03	958,00
-11833,15	845,00
-11805,32	905,00
-11777,57	912,00
-11749,88	936,00
-11722,25	775,00
-11694,69	770,00
-11667,19	843,00
-11639,75	950,00
-11612,38	748,00
-11585,07	814,00
-11557,83	836,00
-11530,65	886,00
-11503,53	803,00
-11476,47	856,00
-11449,48	866,00
-11422,54	966,00
-11395,67	765,00
-11368,86	840,00
-11342,11	759,00
-11315,43	871,00
-11288,80	739,00
-11262,23	863,00
-11235,73	854,00
-11209,28	1026,00
-11182,90	829,00
-11156,57	866,00
-11130,31	1002,00
-11104,10	752,00
-11077,96	783,00
-11051,87	871,00
-11025,84	804,00
-10999,87	841,00
-10973,96	849,00
-10948,11	740,00
-10922,31	994,00
-10896,58	848,00
-10870,90	922,00
-10845,28	886,00
-10819,71	778,00
-10794,20	907,00
-10768,75	918,00
-10743,36	866,00
-10718,02	789,00
-10692,74	790,00
-10667,52	831,00
-10642,35	900,00
-10617,24	964,00
-10592,18	914,00
-10567,18	861,00
-10542,23	955,00
-10517,34	900,00
-10492,51	875,00
-10467,72	868,00
-10443,00	873,00
-10418,32	979,00
-10393,70	1028,00
-10369,14	938,00
-10344,63	799,00
-10320,17	1007,00
-10295,77	932,00
-10271,42	987,00
-10247,12	957,00
-10222,88	1116,00
-10198,68	892,00
-10174,54	1029,00
-10150,46	1192,00
-10126,42	1172,00
-10102,44	993,00
-10078,51	1040,00
-10054,63	1195,00
-10030,80	1150,00
-10007,03	1219,00
-9983,30	1074,00
-9959,63	1124,00
-9936,01	1291,00
-9912,44	1220,00
-9888,92	1285,00
-9865,44	1159,00
-9842,02	1249,00
-9818,65	1351,00
-9795,33	1148,00
-9772,06	1253,00
-9748,84	1204,00
-9725,67	1368,00
-9702,55	1454,00
-9679,47	1635,00
-9656,45	1817,00
-9633,47	1605,00
-9610,55	1689,00
-9587,67	1944,00
-9564,84	2083,00
-9542,06	2017,00
-9519,32	2240,00
-9496,64	2391,00
-9474,00	2327,00
-9451,41	2428,00
-9428,87	2510,00
-9406,37	2563,00
-9383,92	2271,00
-9361,52	2334,00
-9339,17	2478,00
-9316,86	2782,00
-9294,60	3014,00
-9272,38	3262,00
-9250,21	3696,00
-9228,09	3803,00
-9206,01	3645,00
-9183,98	3467,00
-9162,00	3113,00
-9140,06	3257,00
-9118,16	3031,00
-9096,31	3203,00
-9074,51	3406,00
-9052,75	3521,00
-9031,04	3308,00
-9009,37	3056,00
-8987,74	2835,00
-8966,16	2602,00
-8944,63	2478,00
-8923,14	2437,00
-8901,69	2412,00
-8880,29	2367,00
-8858,93	2730,00
-8837,61	3030,00
-8816,34	2986,00
-8795,11	3139,00
-8773,92	2869,00
-8752,78	2692,00
-8731,68	2519,00
-8710,62	2608,00
-8689,61	2598,00
-8668,63	2835,00
-8647,70	2986,00
-8626,82	2900,00
-8605,97	3012,00
-8585,17	2619,00
-8564,41	2521,00
-8543,69	2541,00
-8523,01	2196,00
-8502,37	2498,00
-8481,78	2408,00
-8461,23	2487,00
-8440,71	2705,00
-8420,24	2832,00
-8399,81	3041,00
-8379,42	2883,00
-8359,08	2793,00
-8338,77	2486,00
-8318,50	2308,00
-8298,27	2212,00
-8278,09	2379,00
-8257,94	2516,00
-8237,83	2670,00
-8217,76	2763,00
-8197,74	2686,00
-8177,75	2676,00
-8157,80	2471,00
-8137,89	2231,00
-8118,02	2270,00
-8098,19	2405,00
-8078,40	2365,00
-8058,65	2370,00
-8038,93	2427,00
-8019,26	2396,00
-7999,62	2413,00
-7980,02	2133,00
-7960,46	2064,00
-7940,94	2064,00
-7921,46	2055,00
-7902,01	1979,00
-7882,60	2143,00
-7863,23	1990,00
-7843,90	1992,00
-7824,61	2141,00
-7805,35	2342,00
-7786,13	2221,00
-7766,95	2314,00
-7747,80	2184,00
-7728,69	2146,00
-7709,62	2102,00
-7690,59	2055,00
-7671,59	2278,00
-7652,63	2222,00
-7633,70	2217,00
-7614,81	2345,00
-7595,96	2070,00
-7577,15	2048,00
-7558,37	1913,00
-7539,62	1926,00
-7520,91	2055,00
-7502,24	2174,00
-7483,60	2162,00
-7465,00	2062,00
-7446,44	2099,00
-7427,91	1673,00
-7409,41	1659,00
-7390,95	1659,00
-7372,53	1453,00
-7354,14	1609,00
-7335,78	1496,00
-7317,46	1702,00
-7299,18	1572,00
-7280,92	1815,00
-7262,71	2109,00
-7244,52	2030,00
-7226,38	2047,00
-7208,26	1975,00
-7190,18	1994,00
-7172,14	1790,00
-7154,12	1808,00
-7136,15	1806,00
-7118,20	2032,00
-7100,29	2089,00
-7082,41	2040,00
-7064,57	1977,00
-7046,76	1909,00
-7028,98	1589,00
-7011,24	1687,00
-6993,53	1425,00
-6975,85	1474,00
-6958,20	1351,00
-6940,59	1331,00
-6923,01	1217,00
-6905,46	1492,00
-6887,94	1529,00
-6870,46	1950,00
-6853,01	1857,00
-6835,59	1850,00
-6818,21	1683,00
-6800,85	1689,00
-6783,53	1497,00
-6766,24	1190,00
-6748,98	1291,00
-6731,76	1132,00
-6714,56	1121,00
-6697,40	1067,00
-6680,26	1190,00
-6663,16	1302,00
-6646,09	1516,00
-6629,05	1558,00
-6612,05	1606,00
-6595,07	1441,00
-6578,13	1518,00
-6561,21	1323,00
-6544,33	1330,00
-6527,47	1036,00
-6510,65	1148,00
-6493,86	945,00
-6477,10	1075,00
-6460,36	1141,00
-6443,66	1028,00
-6426,99	1134,00
-6410,35	1077,00
-6393,74	1231,00
-6377,16	1164,00
-6360,61	1245,00
-6344,09	1246,00
-6327,59	1248,00
-6311,13	1401,00
-6294,70	1291,00
-6278,29	1243,00
-6261,92	1463,00
-6245,58	1531,00
-6229,26	1565,00
-6212,97	1561,00
-6196,72	1190,00
-6180,49	1182,00
-6164,29	928,00
-6148,12	1026,00
-6131,98	994,00
-6115,86	881,00
-6099,78	912,00
-6083,72	917,00
-6067,69	850,00
-6051,69	888,00
-6035,72	981,00
-6019,78	1093,00
-6003,87	1238,00
-5987,98	1276,00
-5972,12	1267,00
-5956,29	1327,00
-5940,49	1128,00
-5924,71	1182,00
-5908,96	995,00
-5893,24	1031,00
-5877,55	1051,00
-5861,89	1041,00
-5846,25	768,00
-5830,64	1035,00
-5815,05	995,00
-5799,50	983,00
-5783,97	1080,00
-5768,47	1106,00
-5752,99	1260,00
-5737,55	1096,00
-5722,12	1247,00
-5706,73	1234,00
-5691,36	1222,00
-5676,02	976,00
-5660,71	904,00
-5645,42	918,00
-5630,16	1041,00
-5614,92	1219,00
-5599,71	1104,00
-5584,53	1208,00
-5569,37	1070,00
-5554,24	1364,00
-5539,14	1027,00
-5524,06	1061,00
-5509,01	1015,00
-5493,98	1056,00
-5478,98	1112,00
-5464,00	995,00
-5449,05	928,00
-5434,13	1048,00
-5419,23	975,00
-5404,36	920,00
-5389,51	1111,00
-5374,69	1083,00
-5359,89	1276,00
-5345,12	1333,00
-5330,37	1488,00
-5315,65	1260,00
-5300,95	1170,00
-5286,28	1018,00
-5271,63	932,00
-5257,01	1001,00
-5242,41	1012,00
-5227,84	909,00
-5213,29	979,00
-5198,76	941,00
-5184,26	1039,00
-5169,79	939,00
-5155,33	1034,00
-5140,91	1095,00
-5126,51	1148,00
-5112,13	1077,00
-5097,77	1078,00
-5083,44	1146,00
-5069,13	923,00
-5054,85	1015,00
-5040,59	993,00
-5026,36	1088,00
-5012,15	1113,00
-4997,96	1188,00
-4983,80	1057,00
-4969,66	930,00
-4955,54	920,00
-4941,44	994,00
-4927,37	1114,00
-4913,33	1278,00
-4899,30	1229,00
-4885,30	1307,00
-4871,33	1054,00
-4857,37	1030,00
-4843,44	857,00
-4829,53	1063,00
-4815,65	1085,00
-4801,79	858,00
-4787,95	1153,00
-4774,13	972,00
-4760,34	836,00
-4746,56	1017,00
-4732,82	881,00
-4719,09	1022,00
-4705,38	1283,00
-4691,70	1292,00
-4678,04	1317,00
-4664,41	1200,00
-4650,79	1204,00
-4637,20	959,00
-4623,63	937,00
-4610,08	1113,00
-4596,56	1036,00
-4583,05	1025,00
-4569,57	1041,00
-4556,11	1169,00
-4542,67	878,00
-4529,25	918,00
-4515,86	1005,00
-4502,49	1111,00
-4489,13	1192,00
-4475,80	1239,00
-4462,49	880,00
-4449,21	1021,00
-4435,94	831,00
-4422,70	871,00
-4409,47	814,00
-4396,27	1004,00
-4383,09	934,00
-4369,93	962,00
-4356,79	869,00
-4343,67	914,00
-4330,58	1023,00
-4317,50	1067,00
-4304,45	921,00
-4291,41	956,00
-4278,40	991,00
-4265,41	890,00
-4252,44	979,00
-4239,49	921,00
-4226,55	990,00
-4213,65	913,00
-4200,76	1039,00
-4187,89	896,00
-4175,04	848,00
-4162,21	778,00
-4149,40	992,00
-4136,61	830,00
-4123,85	848,00
-4111,10	852,00
-4098,37	845,00
-4085,66	969,00
-4072,98	988,00
-4060,31	835,00
-4047,66	982,00
-4035,04	1075,00
-4022,43	820,00
-4009,84	916,00
-3997,27	793,00
-3984,72	914,00
-3972,19	860,00
-3959,69	870,00
-3947,20	800,00
-3934,73	861,00
-3922,27	793,00
-3909,84	799,00
-3897,43	890,00
-3885,04	900,00
-3872,67	831,00
-3860,31	773,00
-3847,98	1002,00
-3835,66	896,00
-3823,36	919,00
-3811,09	809,00
-3798,83	950,00
-3786,59	880,00
-3774,37	910,00
-3762,17	825,00
-3749,98	818,00
-3737,82	796,00
-3725,67	1095,00
-3713,55	763,00
-3701,44	919,00
-3689,35	814,00
-3677,28	869,00
-3665,22	912,00
-3653,19	833,00
-3641,17	799,00
-3629,18	921,00
-3617,20	831,00
-3605,24	810,00
-3593,30	928,00
-3581,37	852,00
-3569,47	917,00
-3557,58	872,00
-3545,71	834,00
-3533,86	857,00
-3522,02	717,00
-3510,21	841,00
-3498,41	867,00
-3486,63	791,00
-3474,87	855,00
-3463,12	854,00
-3451,40	837,00
-3439,69	899,00
-3428,00	834,00
-3416,33	914,00
-3404,67	844,00
-3393,03	875,00
-3381,41	919,00
-3369,81	893,00
-3358,22	855,00
-3346,66	1018,00
-3335,10	912,00
-3323,57	741,00
-3312,06	841,00
-3300,56	868,00
-3289,08	857,00
-3277,61	793,00
-3266,16	817,00
-3254,73	791,00
-3243,32	881,00
-3231,92	798,00
-3220,55	926,00
-3209,18	969,00
-3197,84	767,00
-3186,51	871,00
-3175,20	856,00
-3163,90	762,00
-3152,63	967,00
-3141,36	809,00
-3130,12	969,00
-3118,89	931,00
-3107,68	839,00
-3096,49	754,00
-3085,31	832,00
-3074,15	863,00
-3063,00	834,00
-3051,87	891,00
-3040,76	763,00
-3029,67	1036,00
-3018,59	1044,00
-3007,52	1006,00
-2996,48	903,00
-2985,44	885,00
-2974,43	933,00
-2963,43	737,00
-2952,45	913,00
-2941,48	852,00
-2930,53	860,00
-2919,60	782,00
-2908,68	750,00
-2897,78	860,00
-2886,89	867,00
-2876,02	862,00
-2865,17	883,00
-2854,33	827,00
-2843,50	855,00
-2832,70	838,00
-2821,90	869,00
-2811,13	996,00
-2800,37	797,00
-2789,62	757,00
-2778,89	945,00
-2768,18	909,00
-2757,48	937,00
-2746,80	959,00
-2736,13	718,00
-2725,48	926,00
-2714,84	825,00
-2704,22	865,00
-2693,61	894,00
-2683,02	945,00
-2672,45	896,00
-2661,89	858,00
-2651,34	907,00
-2640,81	914,00
-2630,30	907,00
-2619,80	822,00
-2609,31	845,00
-2598,84	761,00
-2588,39	907,00
-2577,95	805,00
-2567,52	783,00
-2557,11	815,00
-2546,71	779,00
-2536,33	892,00
-2525,97	907,00
-2515,62	941,00
-2505,28	916,00
-2494,96	839,00
-2484,65	908,00
-2474,36	1254,00
-2464,08	783,00
-2453,82	991,00
-2443,57	775,00
-2433,33	840,00
-2423,11	838,00
-2412,91	908,00
-2402,72	831,00
-2392,54	845,00
-2382,38	826,00
-2372,23	936,00
-2362,09	-1741,00
-2351,97	882,00
-2341,87	745,00
-2331,78	976,00
-2321,70	911,00
-2311,64	852,00
-2301,59	910,00
-2291,55	848,00
-2281,53	884,00
-2271,53	695,00
-2261,53	981,00
-2251,55	873,00
-2241,59	847,00
-2231,64	849,00
-2221,70	816,00
-2211,78	937,00
-2201,87	861,00
-2191,97	970,00
-2182,09	816,00
-2172,22	874,00
-2162,37	769,00
-2152,53	789,00
-2142,70	800,00
-2132,89	859,00
-2123,09	900,00
-2113,30	810,00
-2103,53	927,00
-2093,77	885,00
-2084,02	952,00
-2074,29	875,00
-2064,57	919,00
-2054,86	989,00
-2045,17	973,00
-2035,49	932,00
-2025,82	808,00
-2016,17	852,00
-2006,53	846,00
-1996,91	861,00
-1987,29	848,00
-1977,69	923,00
-1968,11	781,00
-1958,53	892,00
-1948,97	922,00
-1939,42	813,00
-1929,89	874,00
-1920,37	861,00
-1910,86	855,00
-1901,36	890,00
-1891,88	931,00
-1882,41	816,00
-1872,95	821,00
-1863,51	948,00
-1854,08	861,00
-1844,66	989,00
-1835,26	937,00
-1825,86	940,00
-1816,48	750,00
-1807,11	868,00
-1797,76	935,00
-1788,42	986,00
-1779,09	885,00
-1769,77	853,00
-1760,47	986,00
-1751,17	799,00
-1741,89	893,00
-1732,63	830,00
-1723,37	1063,00
-1714,13	906,00
-1704,90	899,00
-1695,68	1024,00
-1686,48	752,00
-1677,29	854,00
-1668,11	979,00
-1658,94	798,00
-1649,78	886,00
-1640,64	851,00
-1631,51	889,00
-1622,39	1057,00
-1613,28	871,00
-1604,19	972,00
-1595,10	779,00
-1586,03	779,00
-1576,97	815,00
-1567,93	855,00
-1558,89	899,00
-1549,87	926,00
-1540,86	757,00
-1531,86	815,00
-1522,87	815,00
-1513,90	832,00
-1504,93	881,00
-1495,98	991,00
-1487,04	892,00
-1478,12	774,00
-1469,20	837,00
-1460,30	888,00
-1451,40	1041,00
-1442,52	867,00
-1433,65	989,00
-1424,80	813,00
-1415,95	793,00
-1407,12	1021,00
-1398,30	858,00
-1389,48	977,00
-1380,69	811,00
-1371,90	775,00
-1363,12	949,00
-1354,36	953,00
-1345,60	924,00
-1336,86	991,00
-1328,13	1043,00
-1319,41	943,00
-1310,70	840,00
-1302,01	796,00
-1293,32	819,00
-1284,65	859,00
-1275,99	892,00
-1267,33	984,00
-1258,69	922,00
-1250,06	830,00
-1241,45	831,00
-1232,84	947,00
-1224,25	827,00
-1215,66	898,00
-1207,09	887,00
-1198,53	824,00
-1189,97	884,00
-1181,43	836,00
-1172,91	914,00
-1164,39	976,00
-1155,88	729,00
-1147,38	771,00
-1138,90	862,00
-1130,43	776,00
-1121,96	825,00
-1113,51	850,00
-1105,07	823,00
-1096,64	934,00
-1088,22	866,00
-1079,81	989,00
-1071,41	952,00
-1063,02	802,00
-1054,65	923,00
-1046,28	864,00
-1037,92	899,00
-1029,58	887,00
-1021,24	958,00
-1012,92	1135,00
-1004,61	857,00
-996,30	1061,00
-988,01	794,00
-979,73	896,00
-971,46	923,00
-963,20	784,00
-954,95	783,00
-946,71	878,00
-938,48	845,00
-930,26	897,00
-922,06	836,00
-913,86	831,00
-905,67	770,00
-897,49	920,00
-889,33	700,00
-881,17	944,00
-873,02	917,00
-864,89	738,00
-856,76	826,00
-848,65	932,00
-840,54	913,00
-832,45	985,00
-824,36	726,00
-816,29	897,00
-808,22	883,00
-800,17	881,00
-792,12	879,00
-784,09	943,00
-776,06	868,00
-768,05	904,00
-760,04	793,00
-752,05	842,00
-744,07	907,00
-736,09	990,00
-728,13	717,00
-720,17	869,00
-712,23	871,00
-704,29	778,00
-696,37	844,00
-688,45	992,00
-680,55	905,00
-672,65	913,00
-664,77	833,00
-656,89	844,00
-649,03	866,00
-641,17	970,00
-633,32	862,00
-625,49	898,00
-617,66	785,00
-609,84	1026,00
-602,03	766,00
-594,23	874,00
-586,45	879,00
-578,67	848,00
-570,90	887,00
-563,14	833,00
-555,39	933,00
-547,65	885,00
-539,91	849,00
-532,19	906,00
-524,48	937,00
-516,78	872,00
-509,08	904,00
-501,40	791,00
-493,72	759,00
-486,06	799,00
-478,40	990,00
-470,76	799,00
-463,12	807,00
-455,49	853,00
-447,87	841,00
-440,26	852,00
-432,66	799,00
-425,07	934,00
-417,49	989,00
-409,92	741,00
-402,35	856,00
-394,80	731,00
-387,25	960,00
-379,72	923,00
-372,19	914,00
-364,67	951,00
-357,17	812,00
-349,67	925,00
-342,18	823,00
-334,69	927,00
-327,22	918,00
-319,76	945,00
-312,30	886,00
-304,86	824,00
-297,42	870,00
-290,00	882,00
-282,58	914,00
-275,17	938,00
-267,77	981,00
-260,37	901,00
-252,99	1023,00
-245,62	1042,00
-238,25	824,00
-230,90	867,00
-223,55	1054,00
-216,21	970,00
-208,88	1148,00
-201,56	929,00
-194,25	1054,00
-186,94	1055,00
-179,65	1056,00
-172,36	1071,00
-165,08	1121,00
-157,81	1224,00
-150,55	1153,00
-143,30	1206,00
-136,06	1202,00
-128,82	1206,00
-121,60	1282,00
-114,38	1434,00
-107,17	1525,00
-99,97	1731,00
-92,78	1633,00
-85,60	1784,00
-78,42	1933,00
-71,25	2060,00
-64,10	2247,00
-56,95	2567,00
-49,81	2817,00
-42,67	3466,00
-35,55	3980,00
-28,43	5080,00
-21,33	7858,00
-14,23	24494,00
-7,14	57498,00
-0,05	57284,00
7,02	57012,00
14,09	57319,00
21,14	20822,00
28,19	9273,00
35,23	6148,00
42,27	5005,00
49,29	4200,00
56,31	3606,00
63,32	3271,00
70,32	2887,00
77,31	2513,00
84,29	2211,00
91,27	2187,00
98,23	2142,00
105,19	1945,00
112,14	2121,00
119,09	2765,00
126,02	4316,00
132,95	4840,00
139,87	4872,00
146,78	5044,00
153,68	4913,00
160,58	4789,00
167,46	4548,00
174,34	4727,00
181,21	4660,00
188,08	4671,00
194,93	4653,00
201,78	4629,00
208,62	4785,00
215,45	4647,00
222,27	4614,00
229,09	4726,00
235,90	4491,00
242,70	4568,00
249,49	4548,00
256,27	4337,00
263,05	4321,00
269,82	4289,00
276,58	4152,00
283,33	4168,00
290,08	4095,00
296,82	3972,00
303,55	3900,00
310,27	3885,00
316,98	3885,00
323,69	3833,00
330,39	3808,00
337,08	3973,00
343,76	3857,00
350,44	3857,00
357,11	3825,00
363,77	3800,00
370,42	3812,00
377,07	3863,00
383,71	3825,00
390,34	3802,00
396,96	3818,00
403,58	3765,00
410,19	3974,00
416,79	4033,00
423,38	4104,00
429,97	4122,00
436,55	4005,00
443,12	4185,00
449,68	4140,00
456,24	3977,00
462,79	3906,00
469,33	3742,00
475,86	3625,00
482,39	3545,00
488,91	3481,00
495,42	3356,00
501,93	3451,00
508,42	3294,00
514,91	3290,00
521,40	3261,00
527,87	3334,00
534,34	3105,00
540,80	3131,00
547,25	3336,00
553,70	3209,00
560,14	3207,00
566,57	3269,00
573,00	3312,00
579,41	3346,00
585,83	3345,00
592,23	3403,00
598,62	3464,00
605,01	3497,00
611,40	3638,00
617,77	3582,00
624,14	3278,00
630,50	3256,00
636,85	3289,00
643,20	3080,00
649,54	2971,00
655,87	3009,00
662,20	3020,00
668,52	2866,00
674,83	2976,00
681,13	2826,00
687,43	2985,00
693,72	2886,00
700,00	2758,00
706,28	2764,00
712,55	2820,00
718,81	2934,00
725,07	2776,00
731,32	2842,00
737,56	2903,00
743,79	2730,00
750,02	2837,00
756,24	2739,00
762,46	2729,00
768,67	2953,00
774,87	2785,00
781,06	2652,00
787,25	2850,00
793,43	2758,00
799,60	2684,00
805,77	2907,00
811,93	2681,00
818,08	2748,00
824,23	2690,00
830,37	3006,00
836,50	2676,00
842,63	2779,00
848,75	2722,00
854,87	2686,00
860,97	2834,00
867,07	2768,00
873,17	2769,00
879,25	2766,00
885,33	2747,00
891,41	2897,00
897,47	2761,00
903,53	2623,00
909,59	2775,00
915,63	2685,00
921,67	2727,00
927,71	2727,00
933,74	2701,00
939,76	2468,00
945,77	2516,00
951,78	2666,00
957,78	2460,00
963,78	2612,00
969,77	2536,00
975,75	2557,00
981,72	2453,00
987,69	3886,00
993,66	2516,00
999,61	2606,00
1005,56	2595,00
1011,51	2552,00
1017,44	2650,00
1023,37	2600,00
1029,30	2514,00
1035,22	2595,00
1041,13	2625,00
1047,03	2870,00
1052,93	3372,00
1058,83	4759,00
1064,71	5255,00
1070,59	4395,00
1076,47	3608,00
1082,33	3325,00
1088,20	3267,00
1094,05	2994,00
1099,90	2800,00
1105,74	2865,00
1111,58	2877,00
1117,41	3178,00
1123,23	4133,00
1129,05	5154,00
1134,86	4577,00
1140,67	3565,00
1146,47	3030,00
1152,26	2700,00
1158,05	2601,00
1163,83	2804,00
1169,60	2872,00
1175,37	2787,00
1181,13	2650,00
1186,89	2415,00
1192,64	2347,00
1198,38	2632,00
1204,12	2349,00
1209,85	2449,00
1215,58	2423,00
1221,30	2480,00
1227,02	2444,00
1232,72	2368,00
1238,43	2409,00
1244,12	2448,00
1249,81	2401,00
1255,50	2580,00
1261,17	2586,00
1266,85	2603,00
1272,51	2670,00
1278,17	2842,00
1283,83	3135,00
1289,47	4717,00
1295,12	6299,00
1300,75	5522,00
1306,38	4318,00
1312,01	3483,00
1317,63	3026,00
1323,24	2760,00
1328,85	2662,00
1334,45	2517,00
1340,04	2466,00
1345,63	2484,00
1351,22	2616,00
1356,80	2507,00
1362,37	2689,00
1367,93	2620,00
1373,49	2713,00
1379,05	2620,00
1384,60	2484,00
1390,14	2595,00
1395,68	2626,00
1401,21	2656,00
1406,74	2797,00
1412,26	3350,00
1417,77	4217,00
1423,28	3935,00
1428,78	4320,00
1434,28	5415,00
1439,77	6265,00
1445,26	6129,00
1450,74	5574,00
1456,22	5096,00
1461,68	4996,00
1467,15	4681,00
1472,61	3901,00
1478,06	3657,00
1483,51	3119,00
1488,95	2670,00
1494,38	2775,00
1499,81	2503,00
1505,24	2343,00
1510,65	2419,00
1516,07	2364,00
1521,48	2336,00
1526,88	2149,00
1532,27	2237,00
1537,67	2201,00
1543,05	2287,00
1548,43	2074,00
1553,81	2230,00
1559,18	2067,00
1564,54	2121,00
1569,90	2093,00
1575,25	1979,00
1580,60	1937,00
1585,94	2091,00
1591,28	1941,00
1596,61	2018,00
1601,93	2008,00
1607,25	2163,00
1612,57	1954,00
1617,88	2058,00
1623,18	2043,00
1628,48	1967,00
1633,77	1981,00
1639,06	1989,00
1644,34	1974,00
1649,62	1816,00
1654,89	1953,00
1660,16	1798,00
1665,42	2025,00
1670,67	1787,00
1675,92	1827,00
1681,17	1853,00
1686,41	1940,00
1691,64	1935,00
1696,87	1902,00
1702,10	1755,00
1707,32	1841,00
1712,53	1801,00
1717,74	1870,00
1722,94	1818,00
1728,14	1791,00
1733,33	1794,00
1738,52	1749,00
1743,70	1741,00
1748,88	1847,00
1754,05	1787,00
1759,22	1625,00
1764,38	1953,00
1769,53	1812,00
1774,69	1774,00
1779,83	1683,00
1784,97	1761,00
1790,11	1732,00
1795,24	1692,00
1800,36	1692,00
1805,48	1614,00
1810,60	1785,00
1815,71	1620,00
1820,82	1561,00
1825,92	1737,00
1831,01	1605,00
1836,10	1652,00
1841,19	1639,00
1846,26	1543,00
1851,34	1588,00
1856,41	1631,00
1861,47	1572,00
1866,53	1730,00
1871,59	1608,00
1876,64	1605,00
1881,68	1554,00
1886,72	1584,00
1891,76	1522,00
1896,79	1469,00
1901,81	1420,00
1906,83	1551,00
1911,85	1500,00
1916,86	1505,00
1921,86	1560,00
1926,86	1502,00
1931,86	1552,00
1936,85	1476,00
1941,83	1472,00
1946,81	1418,00
1951,79	1357,00
1956,76	1465,00
1961,72	1265,00
1966,68	1449,00
1971,64	1471,00
1976,59	1496,00
1981,54	1421,00
1986,48	1505,00
1991,42	1328,00
1996,35	1625,00
2001,27	1449,00
2006,20	1300,00
2011,11	1447,00
2016,03	1438,00
2020,93	1270,00
2025,84	1484,00
2030,73	1433,00
2035,63	1291,00
2040,52	1445,00
2045,40	1424,00
2050,28	1433,00
2055,15	1502,00
2060,02	1242,00
2064,89	1482,00
2069,75	1415,00
2074,60	1421,00
2079,46	1302,00
2084,30	1430,00
2089,14	1325,00
2093,98	1634,00
2098,81	1696,00
2103,64	2041,00
2108,46	2333,00
2113,28	2335,00
2118,09	2191,00
2122,90	2032,00
2127,70	1691,00
2132,50	1634,00
2137,30	1464,00
2142,09	1336,00
2146,87	1271,00
2151,66	1361,00
2156,43	1462,00
2161,20	1287,00
2165,97	1422,00
2170,73	1311,00
2175,49	1389,00
2180,24	1330,00
2184,99	1546,00
2189,74	1579,00
2194,48	1442,00
2199,21	1469,00
2203,94	1300,00
2208,67	1266,00
2213,39	1146,00
2218,11	1361,00
2222,82	1253,00
2227,53	1239,00
2232,23	1316,00
2236,93	1355,00
2241,63	1273,00
2246,32	1333,00
2251,00	1271,00
2255,68	1304,00
2260,36	1259,00
2265,03	1316,00
2269,70	1434,00
2274,36	1228,00
2279,02	1268,00
2283,68	1255,00
2288,33	1328,00
2292,97	1322,00
2297,61	1291,00
2302,25	1282,00
2306,88	1175,00
2311,51	1202,00
2316,14	1228,00
2320,75	1150,00
2325,37	1112,00
2329,98	1324,00
2334,59	1218,00
2339,19	1159,00
2343,79	1112,00
2348,38	1220,00
2352,97	1135,00
2357,55	1223,00
2362,13	1187,00
2366,71	1144,00
2371,28	1298,00
2375,85	1203,00
2380,41	1257,00
2384,97	1148,00
2389,52	1239,00
2394,07	1272,00
2398,62	1183,00
2403,16	1282,00
2407,70	1047,00
2412,23	1142,00
2416,76	1238,00
2421,29	1218,00
2425,81	1335,00
2430,32	1234,00
2434,84	1070,00
2439,34	1178,00
2443,85	1299,00
2448,35	1175,00
2452,84	1118,00
2457,33	1126,00
2461,82	1080,00
2466,30	1074,00
2470,78	1124,00
2475,25	1174,00
2479,72	1158,00
2484,19	1181,00
2488,65	1256,00
2493,11	1108,00
2497,56	1296,00
2502,01	1054,00
2506,46	1184,00
2510,90	1083,00
2515,34	1068,00
2519,77	1170,00
2524,20	1195,00
2528,62	1178,00
2533,04	1233,00
2537,46	1179,00
2541,87	1131,00
2546,28	1127,00
2550,68	1178,00
2555,08	1150,00
2559,48	1132,00
2563,87	1069,00
2568,26	1085,00
2572,64	1293,00
2577,02	1194,00
2581,40	979,00
2585,77	1233,00
2590,14	1157,00
2594,50	1140,00
2598,86	1266,00
2603,22	1171,00
2607,57	1153,00
2611,92	1139,00
2616,26	1333,00
2620,60	1270,00
2624,94	1227,00
2629,27	1298,00
2633,60	1073,00
2637,92	1288,00
2642,24	1240,00
2646,56	1204,00
2650,87	1091,00
2655,18	1314,00
2659,48	1146,00
2663,78	1188,00
2668,08	1173,00
2672,37	1245,00
2676,66	1245,00
2680,95	1197,00
2685,23	1279,00
2689,50	1311,00
2693,78	1276,00
2698,05	1270,00
2702,31	1326,00
2706,57	1454,00
2710,83	1481,00
2715,08	1521,00
2719,33	1549,00
2723,58	1502,00
2727,82	1640,00
2732,06	1486,00
2736,29	1461,00
2740,53	1445,00
2744,75	1366,00
2748,97	1495,00
2753,19	1389,00
2757,41	1480,00
2761,62	1470,00
2765,83	1292,00
2770,03	1289,00
2774,23	1469,00
2778,43	1281,00
2782,62	1507,00
2786,81	1407,00
2791,00	1448,00
2795,18	1370,00
2799,35	1552,00
2803,53	1496,00
2807,70	1568,00
2811,86	1584,00
2816,03	1823,00
2820,19	1786,00
2824,34	1889,00
2828,49	1986,00
2832,64	2365,00
2836,78	2751,00
2840,92	3197,00
2845,06	3821,00
2849,19	4220,00
2853,32	4439,00
2857,45	4418,00
2861,57	4372,00
2865,69	4199,00
2869,80	4040,00
2873,91	4277,00
2878,02	4738,00
2882,12	5122,00
2886,22	5163,00
2890,32	4881,00
2894,41	4505,00
2898,50	3970,00
2902,58	3882,00
2906,67	3486,00
2910,74	3307,00
2914,82	3017,00
2918,89	3080,00
2922,96	2767,00
2927,02	2547,00
2931,08	2348,00
2935,13	2306,00
2939,19	2196,00
2943,24	2035,00
2947,28	2088,00
2951,32	1764,00
2955,36	1582,00
2959,40	1687,00
2963,43	1500,00
2967,46	1426,00
2971,48	1412,00
2975,50	1334,00
2979,52	1480,00
2983,53	1379,00
2987,54	1226,00
2991,55	1296,00
2995,55	1225,00
2999,55	1226,00
3003,54	1213,00
3007,54	1211,00
3011,53	1188,00
3015,51	1089,00
3019,49	1209,00
3023,47	1060,00
3027,45	1081,00
3031,42	1078,00
3035,39	1041,00
3039,35	1085,00
3043,31	1087,00
3047,27	1032,00
3051,22	1062,00
3055,17	1029,00
3059,12	957,00
3063,06	1129,00
3067,00	989,00
3070,94	930,00
3074,87	1059,00
3078,80	982,00
3082,73	950,00
3086,65	961,00
3090,57	989,00
3094,49	926,00
3098,40	909,00
3102,31	990,00
3106,22	957,00
3110,12	939,00
3114,02	874,00
3117,92	1027,00
3121,81	887,00
3125,70	918,00
3129,58	806,00
3133,47	835,00
3137,34	979,00
3141,22	996,00
3145,09	964,00
3148,96	927,00
3152,83	919,00
3156,69	980,00
3160,55	888,00
3164,40	897,00
3168,26	909,00
3172,10	1010,00
3175,95	926,00
3179,79	1007,00
3183,63	1015,00
3187,47	884,00
3191,30	933,00
3195,13	908,00
3198,95	821,00
3202,78	933,00
3206,60	910,00
3210,41	760,00
3214,23	846,00
3218,03	953,00
3221,84	869,00
3225,64	878,00
3229,44	822,00
3233,24	934,00
3237,03	866,00
3240,82	835,00
3244,61	900,00
3248,39	868,00
3252,17	952,00
3255,95	947,00
3259,72	939,00
3263,49	1048,00
3267,26	877,00
3271,03	864,00
3274,79	824,00
3278,54	921,00
3282,30	808,00
3286,05	920,00
3289,80	958,00
3293,54	916,00
3297,29	954,00
3301,02	918,00
3304,76	934,00
3308,49	929,00
3312,22	801,00
3315,95	942,00
3319,67	868,00
3323,39	965,00
3327,10	987,00
3330,82	883,00
3334,53	837,00
3338,24	897,00
3341,94	812,00
3345,64	833,00
3349,34	862,00
3353,03	930,00
3356,72	906,00
3360,41	930,00
3364,10	829,00
3367,78	874,00
3371,46	823,00
3375,13	838,00
3378,81	1000,00
3382,48	846,00
3386,14	834,00
3389,81	849,00
3393,47	887,00
3397,12	1040,00
3400,78	866,00
3404,43	859,00
3408,08	925,00
3411,72	879,00
3415,36	815,00
3419,00	878,00
3422,64	844,00
3426,27	921,00
3429,90	887,00
3433,53	778,00
3437,15	840,00
3440,77	735,00
3444,39	819,00
3448,00	876,00
3451,62	779,00
3455,22	896,00
3458,83	798,00
3462,43	764,00
3466,03	966,00
3469,63	802,00
3473,22	839,00
3476,81	807,00
3480,40	908,00
3483,99	842,00
3487,57	935,00
3491,15	821,00
3494,72	955,00
3498,29	926,00
3501,86	718,00
3505,43	828,00
3508,99	773,00
3512,56	638,00
3516,11	848,00
3519,67	824,00
3523,22	850,00
3526,77	781,00
3530,32	969,00
3533,86	944,00
3537,40	936,00
3540,94	953,00
3544,47	802,00
3548,00	770,00
3551,53	839,00
3555,06	759,00
3558,58	800,00
3562,10	826,00
3565,62	731,00
3569,13	857,00
3572,64	896,00
3576,15	753,00
3579,66	819,00
3583,16	855,00
3586,66	865,00
3590,16	783,00
3593,65	769,00
3597,14	761,00
3600,63	783,00
3604,11	850,00
3607,60	816,00
3611,08	831,00
3614,55	823,00
3618,03	842,00
3621,50	784,00
3624,97	735,00
3628,43	890,00
3631,90	802,00
3635,36	686,00
3638,81	791,00
3642,27	801,00
3645,72	771,00
3649,17	779,00
3652,61	802,00
3656,06	799,00
3659,50	706,00
3662,93	765,00
3666,37	773,00
3669,80	946,00
3673,23	857,00
3676,65	721,00
3680,08	894,00
3683,50	742,00
3686,92	808,00
3690,33	762,00
3693,74	760,00
3697,15	752,00
3700,56	879,00
3703,96	829,00
3707,36	636,00
3710,76	715,00
3714,16	705,00
3717,55	788,00
3720,94	794,00
3724,33	699,00
3727,71	801,00
3731,10	739,00
3734,48	745,00
3737,85	695,00
3741,23	732,00
3744,60	743,00
3747,97	684,00
3751,33	833,00
3754,69	701,00
3758,05	718,00
3761,41	680,00
3764,77	676,00
3768,12	659,00
3771,47	634,00
3774,82	657,00
3778,16	-5,00
3781,50	14,00
3784,84	6,00
3788,18	10,00
>>>>>End Processed Spectral Data<<<<<
