SpectraSuite Data File
++++++++++++++++++++++++++++++++++++
Date: Mon Jan 05 16:34:07 ICT 2026
User: Administrator
Dark Spectrum Present: Yes
Reference Spectrum Present: No
Number of Sampled Component Spectra: 1
Spectrometers: MAYP113682
Integration Time (usec): 3000000 (MAYP113682)
Spectra Averaged: 1 (MAYP113682)
Boxcar Smoothing: 0 (MAYP113682)
Correct for Electrical Dark: No (MAYP113682)
Strobe/Lamp Enabled: No (MAYP113682)
Correct for Detector Non-linearity: No (MAYP113682)
Correct for Stray Light: No (MAYP113682)
Number of Pixels in Processed Spectrum: 2068
>>>>>Begin Processed Spectral Data<<<<<
-37534,58	33,00
-37414,56	6,00
-37295,11	13,00
-37176,24	4,00
-37057,95	605,00
-36940,22	680,00
-36823,05	685,00
-36706,45	793,00
-36590,40	810,00
-36474,90	790,00
-36359,95	834,00
-36245,55	799,00
-36131,68	772,00
-36018,35	862,00
-35905,55	847,00
-35793,29	914,00
-35681,54	717,00
-35570,32	821,00
-35459,62	862,00
-35349,43	918,00
-35239,75	894,00
-35130,58	827,00
-35021,91	955,00
-34913,74	875,00
-34806,07	872,00
-34698,89	887,00
-34592,20	807,00
-34486,00	924,00
-34380,28	943,00
-34275,04	825,00
-34170,27	814,00
-34065,98	912,00
-33962,16	863,00
-33858,81	921,00
-33755,92	875,00
-33653,49	996,00
-33551,52	958,00
-33450,01	937,00
-33348,94	922,00
-33248,33	857,00
-33148,16	835,00
-33048,43	883,00
-32949,14	1119,00
-32850,29	1043,00
-32751,87	831,00
-32653,89	955,00
-32556,33	961,00
-32459,20	902,00
-32362,49	885,00
-32266,19	898,00
-32170,32	866,00
-32074,86	1012,00
-31979,82	930,00
-31885,18	990,00
-31790,95	907,00
-31697,12	1001,00
-31603,69	1025,00
-31510,67	1013,00
-31418,04	915,00
-31325,80	904,00
-31233,95	867,00
-31142,49	969,00
-31051,42	931,00
-30960,73	982,00
-30870,43	984,00
-30780,50	988,00
-30690,95	913,00
-30601,77	1057,00
-30512,97	922,00
-30424,53	989,00
-30336,46	993,00
-30248,76	893,00
-30161,42	1068,00
-30074,44	922,00
-29987,81	932,00
-29901,55	1007,00
-29815,63	894,00
-29730,07	956,00
-29644,86	939,00
-29560,00	1014,00
-29475,48	906,00
-29391,30	952,00
-29307,47	906,00
-29223,97	907,00
-29140,81	1002,00
-29057,99	1014,00
-28975,50	757,00
-28893,34	955,00
-28811,51	845,00
-28730,00	1065,00
-28648,82	895,00
-28567,97	1024,00
-28487,43	846,00
-28407,21	944,00
-28327,32	870,00
-28247,73	1024,00
-28168,46	928,00
-28089,50	985,00
-28010,85	827,00
-27932,51	906,00
-27854,48	904,00
-27776,75	917,00
-27699,32	971,00
-27622,19	984,00
-27545,37	1019,00
-27468,84	970,00
-27392,60	940,00
-27316,66	947,00
-27241,01	961,00
-27165,66	917,00
-27090,59	814,00
-27015,81	1001,00
-26941,31	1035,00
-26867,10	880,00
-26793,17	1066,00
-26719,52	973,00
-26646,15	918,00
-26573,06	914,00
-26500,24	875,00
-26427,70	905,00
-26355,43	876,00
-26283,43	936,00
-26211,71	991,00
-26140,25	1023,00
-26069,06	1059,00
-25998,13	867,00
-25927,46	878,00
-25857,06	904,00
-25786,92	901,00
-25717,04	852,00
-25647,42	953,00
-25578,05	834,00
-25508,94	840,00
-25440,09	964,00
-25371,48	928,00
-25303,13	995,00
-25235,02	920,00
-25167,17	864,00
-25099,56	933,00
-25032,19	869,00
-24965,07	789,00
-24898,20	788,00
-24831,56	914,00
-24765,17	945,00
-24699,01	786,00
-24633,10	972,00
-24567,41	898,00
-24501,97	925,00
-24436,75	862,00
-24371,77	877,00
-24307,03	857,00
-24242,51	908,00
-24178,22	908,00
-24114,16	874,00
-24050,32	1036,00
-23986,71	907,00
-23923,32	859,00
-23860,16	940,00
-23797,22	962,00
-23734,50	920,00
-23672,00	868,00
-23609,71	943,00
-23547,65	841,00
-23485,80	941,00
-23424,16	795,00
-23362,74	1094,00
-23301,53	927,00
-23240,54	762,00
-23179,75	771,00
-23119,17	872,00
-23058,80	839,00
-22998,64	944,00
-22938,68	888,00
-22878,93	910,00
-22819,39	838,00
-22760,04	837,00
-22700,90	957,00
-22641,96	882,00
-22583,22	912,00
-22524,68	953,00
-22466,33	742,00
-22408,19	896,00
-22350,23	839,00
-22292,48	831,00
-22234,92	1004,00
-22177,55	1010,00
-22120,37	1053,00
-22063,38	963,00
-22006,58	853,00
-21949,98	866,00
-21893,56	747,00
-21837,33	854,00
-21781,28	987,00
-21725,42	927,00
-21669,74	932,00
-21614,25	912,00
-21558,94	919,00
-21503,81	987,00
-21448,86	948,00
-21394,10	860,00
-21339,51	839,00
-21285,10	742,00
-21230,86	796,00
-21176,81	852,00
-21122,93	951,00
-21069,22	806,00
-21015,69	847,00
-20962,33	938,00
-20909,14	895,00
-20856,13	927,00
-20803,28	897,00
-20750,61	896,00
-20698,10	719,00
-20645,76	832,00
-20593,59	978,00
-20541,59	959,00
-20489,75	894,00
-20438,07	791,00
-20386,56	944,00
-20335,22	855,00
-20284,03	880,00
-20233,01	743,00
-20182,15	777,00
-20131,45	874,00
-20080,91	815,00
-20030,52	863,00
-19980,30	891,00
-19930,23	799,00
-19880,32	927,00
-19830,56	969,00
-19780,96	903,00
-19731,52	854,00
-19682,23	884,00
-19633,09	878,00
-19584,10	812,00
-19535,26	893,00
-19486,58	965,00
-19438,04	903,00
-19389,66	1032,00
-19341,42	828,00
-19293,33	854,00
-19245,39	855,00
-19197,60	986,00
-19149,95	926,00
-19102,45	940,00
-19055,09	747,00
-19007,87	907,00
-18960,80	938,00
-18913,87	987,00
-18867,09	822,00
-18820,44	992,00
-18773,94	816,00
-18727,57	998,00
-18681,35	768,00
-18635,26	973,00
-18589,31	824,00
-18543,50	873,00
-18497,83	861,00
-18452,29	858,00
-18406,89	741,00
-18361,63	941,00
-18316,50	965,00
-18271,50	834,00
-18226,63	1003,00
-18181,90	1002,00
-18137,30	949,00
-18092,84	812,00
-18048,50	972,00
-18004,29	837,00
-17960,22	852,00
-17916,27	791,00
-17872,45	1001,00
-17828,76	929,00
-17785,20	855,00
-17741,77	862,00
-17698,46	970,00
-17655,28	779,00
-17612,22	924,00
-17569,29	818,00
-17526,48	962,00
-17483,79	944,00
-17441,23	767,00
-17398,79	881,00
-17356,48	836,00
-17314,28	975,00
-17272,21	850,00
-17230,26	867,00
-17188,42	878,00
-17146,71	978,00
-17105,12	848,00
-17063,64	861,00
-17022,28	847,00
-16981,04	841,00
-16939,92	912,00
-16898,91	1061,00
-16858,02	862,00
-16817,25	844,00
-16776,59	901,00
-16736,04	865,00
-16695,61	901,00
-16655,29	825,00
-16615,09	832,00
-16574,99	961,00
-16535,01	879,00
-16495,15	962,00
-16455,39	885,00
-16415,74	855,00
-16376,21	815,00
-16336,78	822,00
-16297,46	842,00
-16258,26	821,00
-16219,16	892,00
-16180,17	882,00
-16141,28	937,00
-16102,51	917,00
-16063,84	798,00
-16025,27	917,00
-15986,82	783,00
-15948,46	977,00
-15910,22	912,00
-15872,07	848,00
-15834,04	892,00
-15796,10	918,00
-15758,27	1047,00
-15720,54	929,00
-15682,91	957,00
-15645,39	1006,00
-15607,97	911,00
-15570,64	855,00
-15533,42	1029,00
-15496,30	965,00
-15459,28	901,00
-15422,36	908,00
-15385,54	812,00
-15348,82	949,00
-15312,19	1007,00
-15275,66	888,00
-15239,23	866,00
-15202,90	782,00
-15166,67	865,00
-15130,53	1029,00
-15094,48	904,00
-15058,54	821,00
-15022,68	871,00
-14986,93	754,00
-14951,26	936,00
-14915,69	1016,00
-14880,22	849,00
-14844,84	840,00
-14809,55	946,00
-14774,35	926,00
-14739,25	888,00
-14704,24	981,00
-14669,32	871,00
-14634,49	840,00
-14599,75	992,00
-14565,10	813,00
-14530,55	919,00
-14496,08	842,00
-14461,70	915,00
-14427,41	799,00
-14393,21	697,00
-14359,10	776,00
-14325,07	834,00
-14291,14	871,00
-14257,29	929,00
-14223,52	901,00
-14189,85	940,00
-14156,26	892,00
-14122,76	841,00
-14089,34	779,00
-14056,01	976,00
-14022,76	858,00
-13989,60	941,00
-13956,52	938,00
-13923,53	877,00
-13890,62	875,00
-13857,79	855,00
-13825,05	825,00
-13792,39	821,00
-13759,81	931,00
-13727,31	850,00
-13694,90	857,00
-13662,57	883,00
-13630,31	915,00
-13598,14	863,00
-13566,05	822,00
-13534,05	912,00
-13502,12	835,00
-13470,27	868,00
-13438,50	939,00
-13406,80	862,00
-13375,19	784,00
-13343,66	986,00
-13312,20	911,00
-13280,83	877,00
-13249,53	941,00
-13218,30	774,00
-13187,16	867,00
-13156,09	1055,00
-13125,10	985,00
-13094,18	1036,00
-13063,34	976,00
-13032,58	806,00
-13001,89	895,00
-12971,28	910,00
-12940,74	892,00
-12910,27	906,00
-12879,88	920,00
-12849,57	920,00
-12819,33	1017,00
-12789,16	1040,00
-12759,06	868,00
-12729,04	878,00
-12699,09	1683,00
-12669,21	862,00
-12639,41	932,00
-12609,68	836,00
-12580,02	919,00
-12550,43	914,00
-12520,91	807,00
-12491,46	882,00
-12462,08	802,00
-12432,77	913,00
-12403,54	906,00
-12374,37	798,00
-12345,27	901,00
-12316,24	921,00
-12287,29	927,00
-12258,40	823,00
-12229,57	944,00
-12200,82	847,00
-12172,14	923,00
-12143,52	782,00
-12114,97	780,00
-12086,49	962,00
-12058,07	995,00
-12029,73	825,00
-12001,44	975,00
-11973,23	855,00
-11945,08	880,00
-11917,00	900,00
-11888,98	795,00
-11861,03	1017,00
-11833,15	869,00
-11805,32	991,00
-11777,57	884,00
-11749,88	877,00
-11722,25	918,00
-11694,69	876,00
-11667,19	849,00
-11639,75	1004,00
-11612,38	811,00
-11585,07	872,00
-11557,83	940,00
-11530,65	1042,00
-11503,53	829,00
-11476,47	902,00
-11449,48	803,00
-11422,54	1045,00
-11395,67	952,00
-11368,86	995,00
-11342,11	851,00
-11315,43	988,00
-11288,80	811,00
-11262,23	989,00
-11235,73	874,00
-11209,28	1050,00
-11182,90	894,00
-11156,57	932,00
-11130,31	1072,00
-11104,10	858,00
-11077,96	824,00
-11051,87	934,00
-11025,84	872,00
-10999,87	960,00
-10973,96	872,00
-10948,11	779,00
-10922,31	943,00
-10896,58	954,00
-10870,90	1018,00
-10845,28	959,00
-10819,71	856,00
-10794,20	1025,00
-10768,75	917,00
-10743,36	1009,00
-10718,02	853,00
-10692,74	941,00
-10667,52	844,00
-10642,35	924,00
-10617,24	1045,00
-10592,18	941,00
-10567,18	934,00
-10542,23	934,00
-10517,34	918,00
-10492,51	995,00
-10467,72	864,00
-10443,00	1006,00
-10418,32	1008,00
-10393,70	1080,00
-10369,14	975,00
-10344,63	883,00
-10320,17	1092,00
-10295,77	1111,00
-10271,42	965,00
-10247,12	1105,00
-10222,88	1157,00
-10198,68	988,00
-10174,54	1068,00
-10150,46	1141,00
-10126,42	1246,00
-10102,44	1030,00
-10078,51	1086,00
-10054,63	1247,00
-10030,80	1195,00
-10007,03	1334,00
-9983,30	1167,00
-9959,63	1301,00
-9936,01	1412,00
-9912,44	1367,00
-9888,92	1365,00
-9865,44	1335,00
-9842,02	1356,00
-9818,65	1358,00
-9795,33	1255,00
-9772,06	1479,00
-9748,84	1326,00
-9725,67	1436,00
-9702,55	1572,00
-9679,47	1730,00
-9656,45	2004,00
-9633,47	1726,00
-9610,55	1874,00
-9587,67	2042,00
-9564,84	2251,00
-9542,06	2196,00
-9519,32	2374,00
-9496,64	2575,00
-9474,00	2634,00
-9451,41	2664,00
-9428,87	2736,00
-9406,37	2738,00
-9383,92	2477,00
-9361,52	2539,00
-9339,17	2797,00
-9316,86	2918,00
-9294,60	3305,00
-9272,38	3536,00
-9250,21	4018,00
-9228,09	3896,00
-9206,01	4018,00
-9183,98	3710,00
-9162,00	3415,00
-9140,06	3372,00
-9118,16	3300,00
-9096,31	3439,00
-9074,51	3633,00
-9052,75	3805,00
-9031,04	3628,00
-9009,37	3325,00
-8987,74	3142,00
-8966,16	2887,00
-8944,63	2743,00
-8923,14	2670,00
-8901,69	2657,00
-8880,29	2746,00
-8858,93	3003,00
-8837,61	3228,00
-8816,34	3294,00
-8795,11	3264,00
-8773,92	3075,00
-8752,78	2885,00
-8731,68	2773,00
-8710,62	2898,00
-8689,61	2689,00
-8668,63	3040,00
-8647,70	3254,00
-8626,82	3078,00
-8605,97	3261,00
-8585,17	3003,00
-8564,41	2725,00
-8543,69	2641,00
-8523,01	2438,00
-8502,37	2790,00
-8481,78	2600,00
-8461,23	2703,00
-8440,71	2902,00
-8420,24	2949,00
-8399,81	3248,00
-8379,42	3095,00
-8359,08	3020,00
-8338,77	2684,00
-8318,50	2557,00
-8298,27	2428,00
-8278,09	2630,00
-8257,94	2626,00
-8237,83	2939,00
-8217,76	3062,00
-8197,74	2976,00
-8177,75	2906,00
-8157,80	2624,00
-8137,89	2506,00
-8118,02	2361,00
-8098,19	2456,00
-8078,40	2513,00
-8058,65	2403,00
-8038,93	2610,00
-8019,26	2542,00
-7999,62	2459,00
-7980,02	2315,00
-7960,46	2208,00
-7940,94	2142,00
-7921,46	2149,00
-7902,01	2040,00
-7882,60	2241,00
-7863,23	2209,00
-7843,90	2114,00
-7824,61	2270,00
-7805,35	2462,00
-7786,13	2371,00
-7766,95	2420,00
-7747,80	2292,00
-7728,69	2214,00
-7709,62	2144,00
-7690,59	2327,00
-7671,59	2488,00
-7652,63	2271,00
-7633,70	2448,00
-7614,81	2441,00
-7595,96	2207,00
-7577,15	2228,00
-7558,37	2084,00
-7539,62	2254,00
-7520,91	2178,00
-7502,24	2341,00
-7483,60	2299,00
-7465,00	2231,00
-7446,44	2106,00
-7427,91	1832,00
-7409,41	1902,00
-7390,95	1787,00
-7372,53	1639,00
-7354,14	1677,00
-7335,78	1774,00
-7317,46	1703,00
-7299,18	1877,00
-7280,92	2085,00
-7262,71	2290,00
-7244,52	2229,00
-7226,38	2196,00
-7208,26	2103,00
-7190,18	2120,00
-7172,14	1952,00
-7154,12	1985,00
-7136,15	1933,00
-7118,20	2110,00
-7100,29	2330,00
-7082,41	2185,00
-7064,57	2144,00
-7046,76	2071,00
-7028,98	1812,00
-7011,24	1873,00
-6993,53	1570,00
-6975,85	1635,00
-6958,20	1446,00
-6940,59	1434,00
-6923,01	1374,00
-6905,46	1661,00
-6887,94	1637,00
-6870,46	2094,00
-6853,01	1987,00
-6835,59	2091,00
-6818,21	1893,00
-6800,85	1691,00
-6783,53	1581,00
-6766,24	1379,00
-6748,98	1355,00
-6731,76	1325,00
-6714,56	1243,00
-6697,40	1206,00
-6680,26	1174,00
-6663,16	1392,00
-6646,09	1623,00
-6629,05	1746,00
-6612,05	1687,00
-6595,07	1634,00
-6578,13	1722,00
-6561,21	1409,00
-6544,33	1443,00
-6527,47	1249,00
-6510,65	1181,00
-6493,86	1080,00
-6477,10	1222,00
-6460,36	1284,00
-6443,66	1188,00
-6426,99	1181,00
-6410,35	1232,00
-6393,74	1325,00
-6377,16	1288,00
-6360,61	1317,00
-6344,09	1300,00
-6327,59	1344,00
-6311,13	1474,00
-6294,70	1410,00
-6278,29	1521,00
-6261,92	1521,00
-6245,58	1725,00
-6229,26	1683,00
-6212,97	1586,00
-6196,72	1344,00
-6180,49	1370,00
-6164,29	1098,00
-6148,12	1103,00
-6131,98	1114,00
-6115,86	1169,00
-6099,78	1034,00
-6083,72	937,00
-6067,69	946,00
-6051,69	1020,00
-6035,72	1072,00
-6019,78	1191,00
-6003,87	1410,00
-5987,98	1387,00
-5972,12	1503,00
-5956,29	1477,00
-5940,49	1220,00
-5924,71	1402,00
-5908,96	1165,00
-5893,24	1025,00
-5877,55	1169,00
-5861,89	1207,00
-5846,25	960,00
-5830,64	1143,00
-5815,05	978,00
-5799,50	1078,00
-5783,97	1122,00
-5768,47	1210,00
-5752,99	1377,00
-5737,55	1267,00
-5722,12	1432,00
-5706,73	1398,00
-5691,36	1251,00
-5676,02	1107,00
-5660,71	1052,00
-5645,42	1038,00
-5630,16	1163,00
-5614,92	1261,00
-5599,71	1170,00
-5584,53	1299,00
-5569,37	1200,00
-5554,24	2213,00
-5539,14	1066,00
-5524,06	1203,00
-5509,01	1088,00
-5493,98	1145,00
-5478,98	1284,00
-5464,00	1180,00
-5449,05	1144,00
-5434,13	1126,00
-5419,23	1097,00
-5404,36	1043,00
-5389,51	1192,00
-5374,69	1257,00
-5359,89	1463,00
-5345,12	1470,00
-5330,37	1572,00
-5315,65	1219,00
-5300,95	1192,00
-5286,28	1132,00
-5271,63	1071,00
-5257,01	1201,00
-5242,41	1176,00
-5227,84	1011,00
-5213,29	1141,00
-5198,76	1092,00
-5184,26	1040,00
-5169,79	1019,00
-5155,33	1053,00
-5140,91	1155,00
-5126,51	1235,00
-5112,13	1182,00
-5097,77	1117,00
-5083,44	1194,00
-5069,13	1050,00
-5054,85	1079,00
-5040,59	1111,00
-5026,36	1159,00
-5012,15	1285,00
-4997,96	1264,00
-4983,80	1151,00
-4969,66	1124,00
-4955,54	971,00
-4941,44	1190,00
-4927,37	1176,00
-4913,33	1360,00
-4899,30	1382,00
-4885,30	1407,00
-4871,33	1171,00
-4857,37	1041,00
-4843,44	1024,00
-4829,53	1043,00
-4815,65	1174,00
-4801,79	932,00
-4787,95	1251,00
-4774,13	1030,00
-4760,34	959,00
-4746,56	1067,00
-4732,82	961,00
-4719,09	1111,00
-4705,38	1277,00
-4691,70	1307,00
-4678,04	1480,00
-4664,41	1290,00
-4650,79	1150,00
-4637,20	943,00
-4623,63	981,00
-4610,08	1212,00
-4596,56	1143,00
-4583,05	1108,00
-4569,57	1066,00
-4556,11	1037,00
-4542,67	964,00
-4529,25	882,00
-4515,86	1111,00
-4502,49	1146,00
-4489,13	1367,00
-4475,80	1341,00
-4462,49	1021,00
-4449,21	1167,00
-4435,94	978,00
-4422,70	1015,00
-4409,47	928,00
-4396,27	1155,00
-4383,09	1065,00
-4369,93	1055,00
-4356,79	896,00
-4343,67	956,00
-4330,58	1092,00
-4317,50	1131,00
-4304,45	1035,00
-4291,41	1057,00
-4278,40	984,00
-4265,41	936,00
-4252,44	986,00
-4239,49	995,00
-4226,55	1116,00
-4213,65	1006,00
-4200,76	1076,00
-4187,89	965,00
-4175,04	829,00
-4162,21	892,00
-4149,40	938,00
-4136,61	953,00
-4123,85	924,00
-4111,10	935,00
-4098,37	970,00
-4085,66	932,00
-4072,98	950,00
-4060,31	966,00
-4047,66	1017,00
-4035,04	1165,00
-4022,43	870,00
-4009,84	972,00
-3997,27	802,00
-3984,72	980,00
-3972,19	956,00
-3959,69	895,00
-3947,20	902,00
-3934,73	822,00
-3922,27	858,00
-3909,84	875,00
-3897,43	932,00
-3885,04	905,00
-3872,67	904,00
-3860,31	841,00
-3847,98	1003,00
-3835,66	967,00
-3823,36	915,00
-3811,09	890,00
-3798,83	949,00
-3786,59	1056,00
-3774,37	985,00
-3762,17	851,00
-3749,98	908,00
-3737,82	969,00
-3725,67	1081,00
-3713,55	889,00
-3701,44	1045,00
-3689,35	880,00
-3677,28	989,00
-3665,22	904,00
-3653,19	871,00
-3641,17	879,00
-3629,18	910,00
-3617,20	928,00
-3605,24	840,00
-3593,30	988,00
-3581,37	965,00
-3569,47	1023,00
-3557,58	931,00
-3545,71	908,00
-3533,86	950,00
-3522,02	849,00
-3510,21	933,00
-3498,41	950,00
-3486,63	905,00
-3474,87	929,00
-3463,12	842,00
-3451,40	964,00
-3439,69	1018,00
-3428,00	916,00
-3416,33	983,00
-3404,67	860,00
-3393,03	910,00
-3381,41	904,00
-3369,81	963,00
-3358,22	942,00
-3346,66	1094,00
-3335,10	977,00
-3323,57	807,00
-3312,06	976,00
-3300,56	991,00
-3289,08	909,00
-3277,61	848,00
-3266,16	823,00
-3254,73	865,00
-3243,32	874,00
-3231,92	894,00
-3220,55	949,00
-3209,18	1111,00
-3197,84	820,00
-3186,51	825,00
-3175,20	887,00
-3163,90	825,00
-3152,63	1009,00
-3141,36	793,00
-3130,12	928,00
-3118,89	908,00
-3107,68	812,00
-3096,49	998,00
-3085,31	868,00
-3074,15	944,00
-3063,00	906,00
-3051,87	927,00
-3040,76	889,00
-3029,67	1063,00
-3018,59	1093,00
-3007,52	1061,00
-2996,48	980,00
-2985,44	838,00
-2974,43	1021,00
-2963,43	839,00
-2952,45	890,00
-2941,48	940,00
-2930,53	918,00
-2919,60	803,00
-2908,68	865,00
-2897,78	950,00
-2886,89	1037,00
-2876,02	925,00
-2865,17	896,00
-2854,33	880,00
-2843,50	833,00
-2832,70	900,00
-2821,90	860,00
-2811,13	1062,00
-2800,37	893,00
-2789,62	828,00
-2778,89	996,00
-2768,18	908,00
-2757,48	982,00
-2746,80	943,00
-2736,13	861,00
-2725,48	1010,00
-2714,84	811,00
-2704,22	910,00
-2693,61	923,00
-2683,02	951,00
-2672,45	965,00
-2661,89	944,00
-2651,34	994,00
-2640,81	946,00
-2630,30	974,00
-2619,80	811,00
-2609,31	1007,00
-2598,84	757,00
-2588,39	965,00
-2577,95	823,00
-2567,52	821,00
-2557,11	873,00
-2546,71	946,00
-2536,33	1007,00
-2525,97	982,00
-2515,62	890,00
-2505,28	925,00
-2494,96	853,00
-2484,65	950,00
-2474,36	1200,00
-2464,08	917,00
-2453,82	1080,00
-2443,57	1037,00
-2433,33	864,00
-2423,11	1040,00
-2412,91	998,00
-2402,72	831,00
-2392,54	834,00
-2382,38	941,00
-2372,23	968,00
-2362,09	2089,00
-2351,97	822,00
-2341,87	842,00
-2331,78	928,00
-2321,70	924,00
-2311,64	940,00
-2301,59	880,00
-2291,55	879,00
-2281,53	978,00
-2271,53	755,00
-2261,53	983,00
-2251,55	927,00
-2241,59	960,00
-2231,64	854,00
-2221,70	930,00
-2211,78	967,00
-2201,87	919,00
-2191,97	892,00
-2182,09	919,00
-2172,22	1011,00
-2162,37	859,00
-2152,53	751,00
-2142,70	804,00
-2132,89	832,00
-2123,09	992,00
-2113,30	888,00
-2103,53	901,00
-2093,77	933,00
-2084,02	993,00
-2074,29	1060,00
-2064,57	933,00
-2054,86	955,00
-2045,17	1019,00
-2035,49	923,00
-2025,82	906,00
-2016,17	865,00
-2006,53	852,00
-1996,91	974,00
-1987,29	835,00
-1977,69	921,00
-1968,11	870,00
-1958,53	806,00
-1948,97	865,00
-1939,42	860,00
-1929,89	866,00
-1920,37	947,00
-1910,86	878,00
-1901,36	860,00
-1891,88	891,00
-1882,41	915,00
-1872,95	1011,00
-1863,51	982,00
-1854,08	992,00
-1844,66	936,00
-1835,26	1025,00
-1825,86	1005,00
-1816,48	773,00
-1807,11	993,00
-1797,76	883,00
-1788,42	948,00
-1779,09	941,00
-1769,77	884,00
-1760,47	1097,00
-1751,17	873,00
-1741,89	835,00
-1732,63	967,00
-1723,37	1166,00
-1714,13	1025,00
-1704,90	876,00
-1695,68	1109,00
-1686,48	867,00
-1677,29	852,00
-1668,11	1080,00
-1658,94	842,00
-1649,78	846,00
-1640,64	1001,00
-1631,51	889,00
-1622,39	1053,00
-1613,28	985,00
-1604,19	1042,00
-1595,10	966,00
-1586,03	916,00
-1576,97	981,00
-1567,93	940,00
-1558,89	983,00
-1549,87	991,00
-1540,86	822,00
-1531,86	865,00
-1522,87	846,00
-1513,90	998,00
-1504,93	1026,00
-1495,98	1030,00
-1487,04	1039,00
-1478,12	871,00
-1469,20	922,00
-1460,30	888,00
-1451,40	1120,00
-1442,52	967,00
-1433,65	1030,00
-1424,80	890,00
-1415,95	926,00
-1407,12	1113,00
-1398,30	905,00
-1389,48	994,00
-1380,69	911,00
-1371,90	879,00
-1363,12	961,00
-1354,36	1024,00
-1345,60	908,00
-1336,86	967,00
-1328,13	1049,00
-1319,41	954,00
-1310,70	835,00
-1302,01	929,00
-1293,32	870,00
-1284,65	892,00
-1275,99	955,00
-1267,33	1043,00
-1258,69	1006,00
-1250,06	975,00
-1241,45	916,00
-1232,84	1099,00
-1224,25	974,00
-1215,66	957,00
-1207,09	1010,00
-1198,53	914,00
-1189,97	942,00
-1181,43	813,00
-1172,91	835,00
-1164,39	1119,00
-1155,88	803,00
-1147,38	728,00
-1138,90	879,00
-1130,43	860,00
-1121,96	992,00
-1113,51	972,00
-1105,07	943,00
-1096,64	1006,00
-1088,22	967,00
-1079,81	995,00
-1071,41	1068,00
-1063,02	861,00
-1054,65	983,00
-1046,28	965,00
-1037,92	955,00
-1029,58	932,00
-1021,24	957,00
-1012,92	1312,00
-1004,61	886,00
-996,30	1222,00
-988,01	776,00
-979,73	968,00
-971,46	982,00
-963,20	923,00
-954,95	804,00
-946,71	877,00
-938,48	920,00
-930,26	959,00
-922,06	958,00
-913,86	833,00
-905,67	796,00
-897,49	1000,00
-889,33	739,00
-881,17	992,00
-873,02	968,00
-864,89	793,00
-856,76	942,00
-848,65	993,00
-840,54	950,00
-832,45	982,00
-824,36	820,00
-816,29	1021,00
-808,22	896,00
-800,17	971,00
-792,12	812,00
-784,09	966,00
-776,06	954,00
-768,05	913,00
-760,04	927,00
-752,05	924,00
-744,07	980,00
-736,09	952,00
-728,13	768,00
-720,17	971,00
-712,23	871,00
-704,29	859,00
-696,37	930,00
-688,45	1006,00
-680,55	847,00
-672,65	895,00
-664,77	940,00
-656,89	934,00
-649,03	844,00
-641,17	959,00
-633,32	893,00
-625,49	1008,00
-617,66	926,00
-609,84	985,00
-602,03	742,00
-594,23	990,00
-586,45	923,00
-578,67	899,00
-570,90	864,00
-563,14	859,00
-555,39	976,00
-547,65	988,00
-539,91	862,00
-532,19	968,00
-524,48	977,00
-516,78	930,00
-509,08	954,00
-501,40	894,00
-493,72	926,00
-486,06	924,00
-478,40	1060,00
-470,76	913,00
-463,12	889,00
-455,49	943,00
-447,87	876,00
-440,26	869,00
-432,66	831,00
-425,07	982,00
-417,49	998,00
-409,92	755,00
-402,35	811,00
-394,80	797,00
-387,25	968,00
-379,72	954,00
-372,19	927,00
-364,67	1074,00
-357,17	952,00
-349,67	983,00
-342,18	997,00
-334,69	983,00
-327,22	870,00
-319,76	1005,00
-312,30	895,00
-304,86	970,00
-297,42	932,00
-290,00	882,00
-282,58	928,00
-275,17	977,00
-267,77	1032,00
-260,37	961,00
-252,99	1069,00
-245,62	1015,00
-238,25	954,00
-230,90	893,00
-223,55	1041,00
-216,21	940,00
-208,88	1212,00
-201,56	965,00
-194,25	1047,00
-186,94	1115,00
-179,65	1077,00
-172,36	1150,00
-165,08	1140,00
-157,81	1219,00
-150,55	1269,00
-143,30	1282,00
-136,06	1246,00
-128,82	1294,00
-121,60	1400,00
-114,38	1442,00
-107,17	1600,00
-99,97	1775,00
-92,78	1625,00
-85,60	1826,00
-78,42	1968,00
-71,25	2015,00
-64,10	2277,00
-56,95	2555,00
-49,81	2881,00
-42,67	3536,00
-35,55	4071,00
-28,43	5140,00
-21,33	8013,00
-14,23	24654,00
-7,14	57498,00
-0,05	57284,00
7,02	57012,00
14,09	57319,00
21,14	20576,00
28,19	9201,00
35,23	6181,00
42,27	5060,00
49,29	4146,00
56,31	3660,00
63,32	3353,00
70,32	2787,00
77,31	2563,00
84,29	2224,00
91,27	2248,00
98,23	2118,00
105,19	1969,00
112,14	2223,00
119,09	2854,00
126,02	4035,00
132,95	4542,00
139,87	4629,00
146,78	4710,00
153,68	4483,00
160,58	4427,00
167,46	4284,00
174,34	4465,00
181,21	4272,00
188,08	4329,00
194,93	4403,00
201,78	4308,00
208,62	4342,00
215,45	4365,00
222,27	4356,00
229,09	4327,00
235,90	4214,00
242,70	4184,00
249,49	4232,00
256,27	4052,00
263,05	3889,00
269,82	3828,00
276,58	3949,00
283,33	3860,00
290,08	3711,00
296,82	3705,00
303,55	3599,00
310,27	3535,00
316,98	3539,00
323,69	3490,00
330,39	3511,00
337,08	3589,00
343,76	3535,00
350,44	3574,00
357,11	3491,00
363,77	3496,00
370,42	3488,00
377,07	3474,00
383,71	3472,00
390,34	3475,00
396,96	3452,00
403,58	3496,00
410,19	3676,00
416,79	3671,00
423,38	3852,00
429,97	3787,00
436,55	3724,00
443,12	3847,00
449,68	3811,00
456,24	3656,00
462,79	3605,00
469,33	3444,00
475,86	3284,00
482,39	3124,00
488,91	3252,00
495,42	3040,00
501,93	3034,00
508,42	3035,00
514,91	3017,00
521,40	3014,00
527,87	3047,00
534,34	2956,00
540,80	2888,00
547,25	3034,00
553,70	2936,00
560,14	3035,00
566,57	2926,00
573,00	3007,00
579,41	3118,00
585,83	3138,00
592,23	3083,00
598,62	3197,00
605,01	3235,00
611,40	3269,00
617,77	3293,00
624,14	3076,00
630,50	3043,00
636,85	2887,00
643,20	2910,00
649,54	2816,00
655,87	2793,00
662,20	2779,00
668,52	2792,00
674,83	2808,00
681,13	2691,00
687,43	2744,00
693,72	2601,00
700,00	2629,00
706,28	2593,00
712,55	2658,00
718,81	2639,00
725,07	2514,00
731,32	2733,00
737,56	2679,00
743,79	2617,00
750,02	2589,00
756,24	2456,00
762,46	2519,00
768,67	2719,00
774,87	2533,00
781,06	2515,00
787,25	2602,00
793,43	2553,00
799,60	2576,00
805,77	2697,00
811,93	2522,00
818,08	2592,00
824,23	2543,00
830,37	2828,00
836,50	2469,00
842,63	2682,00
848,75	2570,00
854,87	2497,00
860,97	2683,00
867,07	2572,00
873,17	2679,00
879,25	2613,00
885,33	2599,00
891,41	2630,00
897,47	2650,00
903,53	2439,00
909,59	2576,00
915,63	2504,00
921,67	2520,00
927,71	2566,00
933,74	2572,00
939,76	2253,00
945,77	2378,00
951,78	2614,00
957,78	2358,00
963,78	2488,00
969,77	2356,00
975,75	2320,00
981,72	2346,00
987,69	3708,00
993,66	2462,00
999,61	2391,00
1005,56	2533,00
1011,51	2383,00
1017,44	2389,00
1023,37	2472,00
1029,30	2480,00
1035,22	2470,00
1041,13	2504,00
1047,03	2664,00
1052,93	3299,00
1058,83	4622,00
1064,71	5167,00
1070,59	4315,00
1076,47	3503,00
1082,33	3196,00
1088,20	3037,00
1094,05	2870,00
1099,90	2625,00
1105,74	2713,00
1111,58	2702,00
1117,41	3065,00
1123,23	3963,00
1129,05	4915,00
1134,86	4505,00
1140,67	3441,00
1146,47	2743,00
1152,26	2620,00
1158,05	2401,00
1163,83	2608,00
1169,60	2732,00
1175,37	2586,00
1181,13	2491,00
1186,89	2300,00
1192,64	2362,00
1198,38	2522,00
1204,12	2211,00
1209,85	2259,00
1215,58	2261,00
1221,30	2471,00
1227,02	2296,00
1232,72	2293,00
1238,43	2316,00
1244,12	2258,00
1249,81	2296,00
1255,50	2530,00
1261,17	2425,00
1266,85	2600,00
1272,51	2669,00
1278,17	2773,00
1283,83	2979,00
1289,47	4513,00
1295,12	6098,00
1300,75	5477,00
1306,38	4215,00
1312,01	3341,00
1317,63	2753,00
1323,24	2673,00
1328,85	2580,00
1334,45	2377,00
1340,04	2427,00
1345,63	2391,00
1351,22	2590,00
1356,80	2377,00
1362,37	2554,00
1367,93	2522,00
1373,49	2672,00
1379,05	2476,00
1384,60	2349,00
1390,14	2470,00
1395,68	2505,00
1401,21	2546,00
1406,74	2752,00
1412,26	3344,00
1417,77	3948,00
1423,28	3809,00
1428,78	4190,00
1434,28	5303,00
1439,77	5989,00
1445,26	5909,00
1450,74	5403,00
1456,22	5026,00
1461,68	5043,00
1467,15	4559,00
1472,61	3782,00
1478,06	3488,00
1483,51	3004,00
1488,95	2550,00
1494,38	2638,00
1499,81	2313,00
1505,24	2220,00
1510,65	2305,00
1516,07	2235,00
1521,48	2157,00
1526,88	2065,00
1532,27	2104,00
1537,67	2124,00
1543,05	2039,00
1548,43	2137,00
1553,81	2164,00
1559,18	1885,00
1564,54	1969,00
1569,90	2018,00
1575,25	1921,00
1580,60	1863,00
1585,94	1988,00
1591,28	1958,00
1596,61	1935,00
1601,93	1920,00
1607,25	2016,00
1612,57	1913,00
1617,88	1955,00
1623,18	1970,00
1628,48	1871,00
1633,77	1932,00
1639,06	1958,00
1644,34	1861,00
1649,62	1834,00
1654,89	1916,00
1660,16	1804,00
1665,42	2004,00
1670,67	1848,00
1675,92	1675,00
1681,17	1754,00
1686,41	1848,00
1691,64	1885,00
1696,87	1835,00
1702,10	1672,00
1707,32	1770,00
1712,53	1674,00
1717,74	1741,00
1722,94	1859,00
1728,14	1648,00
1733,33	1687,00
1738,52	1673,00
1743,70	1771,00
1748,88	1716,00
1754,05	1745,00
1759,22	1606,00
1764,38	907,00
1769,53	1751,00
1774,69	1746,00
1779,83	1635,00
1784,97	1683,00
1790,11	1621,00
1795,24	1600,00
1800,36	1607,00
1805,48	1608,00
1810,60	1658,00
1815,71	1654,00
1820,82	1554,00
1825,92	1644,00
1831,01	1565,00
1836,10	1628,00
1841,19	1653,00
1846,26	1441,00
1851,34	1588,00
1856,41	1616,00
1861,47	1520,00
1866,53	1637,00
1871,59	1554,00
1876,64	1551,00
1881,68	1555,00
1886,72	1493,00
1891,76	1464,00
1896,79	1534,00
1901,81	1396,00
1906,83	1552,00
1911,85	1446,00
1916,86	1471,00
1921,86	1476,00
1926,86	1426,00
1931,86	1492,00
1936,85	1525,00
1941,83	1375,00
1946,81	1426,00
1951,79	1411,00
1956,76	1388,00
1961,72	1366,00
1966,68	1464,00
1971,64	1358,00
1976,59	1514,00
1981,54	1361,00
1986,48	1497,00
1991,42	1245,00
1996,35	1629,00
2001,27	1357,00
2006,20	1329,00
2011,11	1495,00
2016,03	1403,00
2020,93	1313,00
2025,84	1421,00
2030,73	1360,00
2035,63	1263,00
2040,52	1341,00
2045,40	1287,00
2050,28	1412,00
2055,15	1323,00
2060,02	1204,00
2064,89	1440,00
2069,75	1385,00
2074,60	1375,00
2079,46	1313,00
2084,30	1305,00
2089,14	1262,00
2093,98	1441,00
2098,81	1317,00
2103,64	1365,00
2108,46	1357,00
2113,28	1419,00
2118,09	1359,00
2122,90	1325,00
2127,70	1332,00
2132,50	1367,00
2137,30	1300,00
2142,09	1194,00
2146,87	1180,00
2151,66	1356,00
2156,43	1284,00
2161,20	1293,00
2165,97	1457,00
2170,73	1326,00
2175,49	1456,00
2180,24	1392,00
2184,99	1483,00
2189,74	1538,00
2194,48	1320,00
2199,21	1465,00
2203,94	1272,00
2208,67	1200,00
2213,39	1226,00
2218,11	1348,00
2222,82	1262,00
2227,53	1325,00
2232,23	1280,00
2236,93	1405,00
2241,63	1296,00
2246,32	1358,00
2251,00	1272,00
2255,68	1383,00
2260,36	1184,00
2265,03	1260,00
2269,70	1508,00
2274,36	1184,00
2279,02	1223,00
2283,68	1278,00
2288,33	1328,00
2292,97	1314,00
2297,61	1311,00
2302,25	1317,00
2306,88	1195,00
2311,51	1180,00
2316,14	1203,00
2320,75	1180,00
2325,37	1166,00
2329,98	1310,00
2334,59	1205,00
2339,19	1171,00
2343,79	1098,00
2348,38	1231,00
2352,97	1159,00
2357,55	1287,00
2362,13	1149,00
2366,71	1215,00
2371,28	1251,00
2375,85	1228,00
2380,41	1226,00
2384,97	1252,00
2389,52	1363,00
2394,07	1343,00
2398,62	1166,00
2403,16	1219,00
2407,70	1178,00
2412,23	1096,00
2416,76	1342,00
2421,29	1267,00
2425,81	1264,00
2430,32	1305,00
2434,84	1106,00
2439,34	1164,00
2443,85	1352,00
2448,35	1199,00
2452,84	1123,00
2457,33	1228,00
2461,82	1032,00
2466,30	1050,00
2470,78	1272,00
2475,25	1155,00
2479,72	1342,00
2484,19	1237,00
2488,65	1286,00
2493,11	1149,00
2497,56	1317,00
2502,01	1146,00
2506,46	1363,00
2510,90	1173,00
2515,34	1102,00
2519,77	1239,00
2524,20	1109,00
2528,62	1240,00
2533,04	1227,00
2537,46	1154,00
2541,87	1171,00
2546,28	1230,00
2550,68	1299,00
2555,08	1267,00
2559,48	1296,00
2563,87	1032,00
2568,26	1158,00
2572,64	1269,00
2577,02	1235,00
2581,40	1080,00
2585,77	1336,00
2590,14	1198,00
2594,50	1122,00
2598,86	1294,00
2603,22	1181,00
2607,57	1193,00
2611,92	1261,00
2616,26	1369,00
2620,60	1343,00
2624,94	1195,00
2629,27	1238,00
2633,60	1124,00
2637,92	1376,00
2642,24	1372,00
2646,56	1277,00
2650,87	1163,00
2655,18	1349,00
2659,48	1177,00
2663,78	1188,00
2668,08	1231,00
2672,37	1289,00
2676,66	1280,00
2680,95	1137,00
2685,23	1403,00
2689,50	1245,00
2693,78	1322,00
2698,05	1284,00
2702,31	1439,00
2706,57	1489,00
2710,83	1565,00
2715,08	1629,00
2719,33	1573,00
2723,58	1594,00
2727,82	1608,00
2732,06	1595,00
2736,29	1534,00
2740,53	1497,00
2744,75	1501,00
2748,97	1474,00
2753,19	1468,00
2757,41	1401,00
2761,62	1383,00
2765,83	1392,00
2770,03	1399,00
2774,23	1393,00
2778,43	1405,00
2782,62	1451,00
2786,81	1492,00
2791,00	1522,00
2795,18	1580,00
2799,35	1707,00
2803,53	1532,00
2807,70	1765,00
2811,86	1641,00
2816,03	1904,00
2820,19	1913,00
2824,34	1863,00
2828,49	2088,00
2832,64	2338,00
2836,78	2861,00
2840,92	3192,00
2845,06	3861,00
2849,19	4277,00
2853,32	4487,00
2857,45	4480,00
2861,57	4400,00
2865,69	4260,00
2869,80	4061,00
2873,91	4345,00
2878,02	4814,00
2882,12	5204,00
2886,22	5195,00
2890,32	4977,00
2894,41	4546,00
2898,50	4185,00
2902,58	3836,00
2906,67	3606,00
2910,74	3338,00
2914,82	3042,00
2918,89	3023,00
2922,96	2781,00
2927,02	2587,00
2931,08	2472,00
2935,13	2272,00
2939,19	2364,00
2943,24	2134,00
2947,28	2253,00
2951,32	1849,00
2955,36	1693,00
2959,40	1723,00
2963,43	1644,00
2967,46	1515,00
2971,48	1463,00
2975,50	1422,00
2979,52	1475,00
2983,53	1404,00
2987,54	1240,00
2991,55	1264,00
2995,55	1337,00
2999,55	1256,00
3003,54	1267,00
3007,54	1262,00
3011,53	1282,00
3015,51	1246,00
3019,49	1278,00
3023,47	1122,00
3027,45	1147,00
3031,42	1107,00
3035,39	1077,00
3039,35	1159,00
3043,31	1169,00
3047,27	1052,00
3051,22	1174,00
3055,17	1006,00
3059,12	1032,00
3063,06	1139,00
3067,00	1001,00
3070,94	983,00
3074,87	1232,00
3078,80	1027,00
3082,73	1138,00
3086,65	1027,00
3090,57	1009,00
3094,49	928,00
3098,40	1007,00
3102,31	1078,00
3106,22	1067,00
3110,12	996,00
3114,02	981,00
3117,92	1082,00
3121,81	989,00
3125,70	985,00
3129,58	908,00
3133,47	866,00
3137,34	985,00
3141,22	1044,00
3145,09	1020,00
3148,96	1019,00
3152,83	1007,00
3156,69	1030,00
3160,55	854,00
3164,40	1004,00
3168,26	930,00
3172,10	1049,00
3175,95	1039,00
3179,79	1065,00
3183,63	1014,00
3187,47	924,00
3191,30	1058,00
3195,13	994,00
3198,95	829,00
3202,78	867,00
3206,60	940,00
3210,41	881,00
3214,23	901,00
3218,03	963,00
3221,84	925,00
3225,64	968,00
3229,44	911,00
3233,24	1004,00
3237,03	932,00
3240,82	894,00
3244,61	904,00
3248,39	930,00
3252,17	943,00
3255,95	1032,00
3259,72	1023,00
3263,49	1217,00
3267,26	915,00
3271,03	999,00
3274,79	975,00
3278,54	960,00
3282,30	868,00
3286,05	975,00
3289,80	980,00
3293,54	962,00
3297,29	991,00
3301,02	953,00
3304,76	941,00
3308,49	964,00
3312,22	905,00
3315,95	928,00
3319,67	931,00
3323,39	1056,00
3327,10	1002,00
3330,82	937,00
3334,53	935,00
3338,24	977,00
3341,94	886,00
3345,64	930,00
3349,34	970,00
3353,03	997,00
3356,72	943,00
3360,41	988,00
3364,10	838,00
3367,78	908,00
3371,46	878,00
3375,13	896,00
3378,81	917,00
3382,48	863,00
3386,14	1019,00
3389,81	1026,00
3393,47	901,00
3397,12	1111,00
3400,78	947,00
3404,43	941,00
3408,08	988,00
3411,72	905,00
3415,36	883,00
3419,00	905,00
3422,64	898,00
3426,27	927,00
3429,90	964,00
3433,53	854,00
3437,15	944,00
3440,77	827,00
3444,39	917,00
3448,00	922,00
3451,62	890,00
3455,22	998,00
3458,83	771,00
3462,43	961,00
3466,03	899,00
3469,63	773,00
3473,22	835,00
3476,81	876,00
3480,40	944,00
3483,99	853,00
3487,57	920,00
3491,15	898,00
3494,72	971,00
3498,29	1041,00
3501,86	837,00
3505,43	928,00
3508,99	849,00
3512,56	812,00
3516,11	986,00
3519,67	873,00
3523,22	960,00
3526,77	787,00
3530,32	1097,00
3533,86	1033,00
3537,40	988,00
3540,94	946,00
3544,47	815,00
3548,00	874,00
3551,53	982,00
3555,06	845,00
3558,58	940,00
3562,10	949,00
3565,62	701,00
3569,13	892,00
3572,64	1036,00
3576,15	777,00
3579,66	890,00
3583,16	940,00
3586,66	892,00
3590,16	818,00
3593,65	757,00
3597,14	819,00
3600,63	918,00
3604,11	913,00
3607,60	899,00
3611,08	876,00
3614,55	846,00
3618,03	869,00
3621,50	857,00
3624,97	798,00
3628,43	925,00
3631,90	856,00
3635,36	811,00
3638,81	845,00
3642,27	832,00
3645,72	855,00
3649,17	817,00
3652,61	780,00
3656,06	783,00
3659,50	845,00
3662,93	860,00
3666,37	899,00
3669,80	1012,00
3673,23	874,00
3676,65	836,00
3680,08	894,00
3683,50	758,00
3686,92	852,00
3690,33	902,00
3693,74	820,00
3697,15	762,00
3700,56	861,00
3703,96	850,00
3707,36	603,00
3710,76	720,00
3714,16	863,00
3717,55	860,00
3720,94	812,00
3724,33	850,00
3727,71	843,00
3731,10	712,00
3734,48	864,00
3737,85	739,00
3741,23	768,00
3744,60	800,00
3747,97	692,00
3751,33	845,00
3754,69	766,00
3758,05	758,00
3761,41	682,00
3764,77	752,00
3768,12	691,00
3771,47	696,00
3774,82	779,00
3778,16	-11,00
3781,50	14,00
3784,84	8,00
3788,18	13,00
>>>>>End Processed Spectral Data<<<<<
