SpectraSuite Data File
++++++++++++++++++++++++++++++++++++
Date: Mon Jan 05 16:32:19 ICT 2026
User: Administrator
Dark Spectrum Present: Yes
Reference Spectrum Present: No
Number of Sampled Component Spectra: 1
Spectrometers: MAYP113682
Integration Time (usec): 3000000 (MAYP113682)
Spectra Averaged: 1 (MAYP113682)
Boxcar Smoothing: 0 (MAYP113682)
Correct for Electrical Dark: No (MAYP113682)
Strobe/Lamp Enabled: No (MAYP113682)
Correct for Detector Non-linearity: No (MAYP113682)
Correct for Stray Light: No (MAYP113682)
Number of Pixels in Processed Spectrum: 2068
>>>>>Begin Processed Spectral Data<<<<<
-37534,58	30,00
-37414,56	6,00
-37295,11	7,00
-37176,24	3,00
-37057,95	560,00
-36940,22	645,00
-36823,05	604,00
-36706,45	697,00
-36590,40	788,00
-36474,90	714,00
-36359,95	768,00
-36245,55	769,00
-36131,68	656,00
-36018,35	660,00
-35905,55	703,00
-35793,29	778,00
-35681,54	702,00
-35570,32	715,00
-35459,62	795,00
-35349,43	935,00
-35239,75	861,00
-35130,58	652,00
-35021,91	748,00
-34913,74	732,00
-34806,07	753,00
-34698,89	799,00
-34592,20	739,00
-34486,00	795,00
-34380,28	827,00
-34275,04	799,00
-34170,27	650,00
-34065,98	823,00
-33962,16	803,00
-33858,81	821,00
-33755,92	840,00
-33653,49	965,00
-33551,52	835,00
-33450,01	803,00
-33348,94	808,00
-33248,33	797,00
-33148,16	757,00
-33048,43	860,00
-32949,14	983,00
-32850,29	904,00
-32751,87	749,00
-32653,89	923,00
-32556,33	797,00
-32459,20	849,00
-32362,49	783,00
-32266,19	780,00
-32170,32	739,00
-32074,86	788,00
-31979,82	895,00
-31885,18	891,00
-31790,95	922,00
-31697,12	916,00
-31603,69	899,00
-31510,67	930,00
-31418,04	906,00
-31325,80	839,00
-31233,95	766,00
-31142,49	817,00
-31051,42	843,00
-30960,73	972,00
-30870,43	956,00
-30780,50	782,00
-30690,95	814,00
-30601,77	991,00
-30512,97	870,00
-30424,53	861,00
-30336,46	790,00
-30248,76	842,00
-30161,42	1026,00
-30074,44	735,00
-29987,81	845,00
-29901,55	903,00
-29815,63	777,00
-29730,07	868,00
-29644,86	886,00
-29560,00	857,00
-29475,48	861,00
-29391,30	810,00
-29307,47	860,00
-29223,97	865,00
-29140,81	871,00
-29057,99	926,00
-28975,50	717,00
-28893,34	941,00
-28811,51	816,00
-28730,00	880,00
-28648,82	839,00
-28567,97	835,00
-28487,43	824,00
-28407,21	867,00
-28327,32	779,00
-28247,73	1050,00
-28168,46	773,00
-28089,50	919,00
-28010,85	811,00
-27932,51	750,00
-27854,48	812,00
-27776,75	714,00
-27699,32	894,00
-27622,19	716,00
-27545,37	770,00
-27468,84	904,00
-27392,60	917,00
-27316,66	828,00
-27241,01	787,00
-27165,66	795,00
-27090,59	777,00
-27015,81	921,00
-26941,31	932,00
-26867,10	813,00
-26793,17	893,00
-26719,52	808,00
-26646,15	782,00
-26573,06	915,00
-26500,24	812,00
-26427,70	831,00
-26355,43	770,00
-26283,43	881,00
-26211,71	911,00
-26140,25	820,00
-26069,06	858,00
-25998,13	738,00
-25927,46	751,00
-25857,06	741,00
-25786,92	868,00
-25717,04	774,00
-25647,42	852,00
-25578,05	776,00
-25508,94	711,00
-25440,09	785,00
-25371,48	833,00
-25303,13	875,00
-25235,02	814,00
-25167,17	799,00
-25099,56	843,00
-25032,19	745,00
-24965,07	827,00
-24898,20	733,00
-24831,56	728,00
-24765,17	821,00
-24699,01	775,00
-24633,10	893,00
-24567,41	850,00
-24501,97	895,00
-24436,75	800,00
-24371,77	835,00
-24307,03	756,00
-24242,51	790,00
-24178,22	796,00
-24114,16	807,00
-24050,32	823,00
-23986,71	839,00
-23923,32	787,00
-23860,16	812,00
-23797,22	871,00
-23734,50	890,00
-23672,00	755,00
-23609,71	767,00
-23547,65	676,00
-23485,80	861,00
-23424,16	664,00
-23362,74	956,00
-23301,53	859,00
-23240,54	664,00
-23179,75	678,00
-23119,17	816,00
-23058,80	781,00
-22998,64	913,00
-22938,68	776,00
-22878,93	828,00
-22819,39	764,00
-22760,04	799,00
-22700,90	792,00
-22641,96	772,00
-22583,22	891,00
-22524,68	822,00
-22466,33	775,00
-22408,19	827,00
-22350,23	830,00
-22292,48	711,00
-22234,92	902,00
-22177,55	873,00
-22120,37	938,00
-22063,38	787,00
-22006,58	840,00
-21949,98	855,00
-21893,56	722,00
-21837,33	794,00
-21781,28	833,00
-21725,42	807,00
-21669,74	807,00
-21614,25	862,00
-21558,94	751,00
-21503,81	912,00
-21448,86	952,00
-21394,10	806,00
-21339,51	771,00
-21285,10	702,00
-21230,86	727,00
-21176,81	791,00
-21122,93	713,00
-21069,22	745,00
-21015,69	743,00
-20962,33	838,00
-20909,14	768,00
-20856,13	849,00
-20803,28	824,00
-20750,61	784,00
-20698,10	744,00
-20645,76	688,00
-20593,59	839,00
-20541,59	889,00
-20489,75	822,00
-20438,07	684,00
-20386,56	865,00
-20335,22	696,00
-20284,03	819,00
-20233,01	755,00
-20182,15	777,00
-20131,45	841,00
-20080,91	666,00
-20030,52	802,00
-19980,30	766,00
-19930,23	697,00
-19880,32	768,00
-19830,56	816,00
-19780,96	760,00
-19731,52	803,00
-19682,23	841,00
-19633,09	737,00
-19584,10	707,00
-19535,26	718,00
-19486,58	832,00
-19438,04	763,00
-19389,66	861,00
-19341,42	741,00
-19293,33	680,00
-19245,39	762,00
-19197,60	867,00
-19149,95	827,00
-19102,45	777,00
-19055,09	793,00
-19007,87	800,00
-18960,80	887,00
-18913,87	746,00
-18867,09	796,00
-18820,44	919,00
-18773,94	776,00
-18727,57	857,00
-18681,35	736,00
-18635,26	781,00
-18589,31	792,00
-18543,50	731,00
-18497,83	740,00
-18452,29	831,00
-18406,89	755,00
-18361,63	867,00
-18316,50	813,00
-18271,50	808,00
-18226,63	854,00
-18181,90	847,00
-18137,30	819,00
-18092,84	715,00
-18048,50	831,00
-18004,29	793,00
-17960,22	781,00
-17916,27	723,00
-17872,45	860,00
-17828,76	882,00
-17785,20	803,00
-17741,77	784,00
-17698,46	919,00
-17655,28	702,00
-17612,22	826,00
-17569,29	704,00
-17526,48	844,00
-17483,79	777,00
-17441,23	794,00
-17398,79	825,00
-17356,48	678,00
-17314,28	967,00
-17272,21	794,00
-17230,26	788,00
-17188,42	841,00
-17146,71	847,00
-17105,12	769,00
-17063,64	793,00
-17022,28	694,00
-16981,04	764,00
-16939,92	861,00
-16898,91	1009,00
-16858,02	748,00
-16817,25	787,00
-16776,59	781,00
-16736,04	789,00
-16695,61	769,00
-16655,29	732,00
-16615,09	729,00
-16574,99	829,00
-16535,01	799,00
-16495,15	873,00
-16455,39	821,00
-16415,74	746,00
-16376,21	772,00
-16336,78	802,00
-16297,46	758,00
-16258,26	751,00
-16219,16	776,00
-16180,17	827,00
-16141,28	902,00
-16102,51	846,00
-16063,84	744,00
-16025,27	805,00
-15986,82	751,00
-15948,46	711,00
-15910,22	861,00
-15872,07	707,00
-15834,04	747,00
-15796,10	818,00
-15758,27	985,00
-15720,54	770,00
-15682,91	728,00
-15645,39	880,00
-15607,97	777,00
-15570,64	771,00
-15533,42	903,00
-15496,30	854,00
-15459,28	850,00
-15422,36	846,00
-15385,54	788,00
-15348,82	812,00
-15312,19	967,00
-15275,66	677,00
-15239,23	816,00
-15202,90	762,00
-15166,67	761,00
-15130,53	869,00
-15094,48	783,00
-15058,54	741,00
-15022,68	720,00
-14986,93	808,00
-14951,26	846,00
-14915,69	842,00
-14880,22	765,00
-14844,84	750,00
-14809,55	805,00
-14774,35	811,00
-14739,25	718,00
-14704,24	799,00
-14669,32	755,00
-14634,49	800,00
-14599,75	869,00
-14565,10	723,00
-14530,55	802,00
-14496,08	848,00
-14461,70	813,00
-14427,41	736,00
-14393,21	718,00
-14359,10	748,00
-14325,07	750,00
-14291,14	739,00
-14257,29	795,00
-14223,52	765,00
-14189,85	890,00
-14156,26	792,00
-14122,76	742,00
-14089,34	817,00
-14056,01	826,00
-14022,76	867,00
-13989,60	865,00
-13956,52	897,00
-13923,53	782,00
-13890,62	771,00
-13857,79	728,00
-13825,05	693,00
-13792,39	598,00
-13759,81	868,00
-13727,31	765,00
-13694,90	767,00
-13662,57	883,00
-13630,31	808,00
-13598,14	854,00
-13566,05	727,00
-13534,05	796,00
-13502,12	815,00
-13470,27	774,00
-13438,50	963,00
-13406,80	713,00
-13375,19	808,00
-13343,66	804,00
-13312,20	813,00
-13280,83	742,00
-13249,53	789,00
-13218,30	648,00
-13187,16	764,00
-13156,09	918,00
-13125,10	771,00
-13094,18	858,00
-13063,34	735,00
-13032,58	721,00
-13001,89	826,00
-12971,28	841,00
-12940,74	783,00
-12910,27	846,00
-12879,88	831,00
-12849,57	911,00
-12819,33	840,00
-12789,16	775,00
-12759,06	765,00
-12729,04	718,00
-12699,09	2090,00
-12669,21	785,00
-12639,41	902,00
-12609,68	757,00
-12580,02	833,00
-12550,43	889,00
-12520,91	756,00
-12491,46	795,00
-12462,08	761,00
-12432,77	812,00
-12403,54	755,00
-12374,37	732,00
-12345,27	823,00
-12316,24	852,00
-12287,29	764,00
-12258,40	797,00
-12229,57	854,00
-12200,82	734,00
-12172,14	824,00
-12143,52	639,00
-12114,97	767,00
-12086,49	760,00
-12058,07	973,00
-12029,73	810,00
-12001,44	878,00
-11973,23	769,00
-11945,08	714,00
-11917,00	787,00
-11888,98	676,00
-11861,03	956,00
-11833,15	800,00
-11805,32	852,00
-11777,57	861,00
-11749,88	826,00
-11722,25	786,00
-11694,69	784,00
-11667,19	817,00
-11639,75	830,00
-11612,38	766,00
-11585,07	835,00
-11557,83	825,00
-11530,65	901,00
-11503,53	658,00
-11476,47	841,00
-11449,48	735,00
-11422,54	937,00
-11395,67	892,00
-11368,86	825,00
-11342,11	822,00
-11315,43	829,00
-11288,80	830,00
-11262,23	816,00
-11235,73	743,00
-11209,28	936,00
-11182,90	890,00
-11156,57	809,00
-11130,31	1012,00
-11104,10	768,00
-11077,96	778,00
-11051,87	801,00
-11025,84	775,00
-10999,87	792,00
-10973,96	833,00
-10948,11	789,00
-10922,31	876,00
-10896,58	886,00
-10870,90	953,00
-10845,28	863,00
-10819,71	749,00
-10794,20	904,00
-10768,75	868,00
-10743,36	850,00
-10718,02	714,00
-10692,74	793,00
-10667,52	780,00
-10642,35	817,00
-10617,24	935,00
-10592,18	873,00
-10567,18	817,00
-10542,23	839,00
-10517,34	864,00
-10492,51	872,00
-10467,72	804,00
-10443,00	774,00
-10418,32	906,00
-10393,70	931,00
-10369,14	939,00
-10344,63	803,00
-10320,17	886,00
-10295,77	948,00
-10271,42	928,00
-10247,12	1022,00
-10222,88	1010,00
-10198,68	929,00
-10174,54	1024,00
-10150,46	1030,00
-10126,42	1063,00
-10102,44	973,00
-10078,51	1055,00
-10054,63	1135,00
-10030,80	1150,00
-10007,03	1178,00
-9983,30	1041,00
-9959,63	1104,00
-9936,01	1276,00
-9912,44	1187,00
-9888,92	1244,00
-9865,44	1060,00
-9842,02	1200,00
-9818,65	1328,00
-9795,33	1143,00
-9772,06	1240,00
-9748,84	1259,00
-9725,67	1275,00
-9702,55	1372,00
-9679,47	1579,00
-9656,45	1760,00
-9633,47	1538,00
-9610,55	1596,00
-9587,67	1843,00
-9564,84	2084,00
-9542,06	1934,00
-9519,32	2125,00
-9496,64	2320,00
-9474,00	2302,00
-9451,41	2436,00
-9428,87	2456,00
-9406,37	2438,00
-9383,92	2261,00
-9361,52	2210,00
-9339,17	2470,00
-9316,86	2639,00
-9294,60	2959,00
-9272,38	3055,00
-9250,21	3629,00
-9228,09	3623,00
-9206,01	3667,00
-9183,98	3264,00
-9162,00	2992,00
-9140,06	3052,00
-9118,16	2996,00
-9096,31	3092,00
-9074,51	3213,00
-9052,75	3464,00
-9031,04	3301,00
-9009,37	2984,00
-8987,74	2886,00
-8966,16	2677,00
-8944,63	2343,00
-8923,14	2410,00
-8901,69	2379,00
-8880,29	2483,00
-8858,93	2730,00
-8837,61	2938,00
-8816,34	3046,00
-8795,11	2989,00
-8773,92	2782,00
-8752,78	2602,00
-8731,68	2448,00
-8710,62	2619,00
-8689,61	2465,00
-8668,63	2649,00
-8647,70	2806,00
-8626,82	2869,00
-8605,97	2909,00
-8585,17	2734,00
-8564,41	2453,00
-8543,69	2351,00
-8523,01	2161,00
-8502,37	2433,00
-8481,78	2422,00
-8461,23	2420,00
-8440,71	2706,00
-8420,24	2717,00
-8399,81	2922,00
-8379,42	2825,00
-8359,08	2721,00
-8338,77	2498,00
-8318,50	2189,00
-8298,27	2090,00
-8278,09	2409,00
-8257,94	2457,00
-8237,83	2705,00
-8217,76	2717,00
-8197,74	2693,00
-8177,75	2714,00
-8157,80	2391,00
-8137,89	2243,00
-8118,02	2142,00
-8098,19	2127,00
-8078,40	2228,00
-8058,65	2262,00
-8038,93	2384,00
-8019,26	2381,00
-7999,62	2301,00
-7980,02	2089,00
-7960,46	2024,00
-7940,94	1977,00
-7921,46	1995,00
-7902,01	1939,00
-7882,60	2088,00
-7863,23	1930,00
-7843,90	1925,00
-7824,61	2148,00
-7805,35	2346,00
-7786,13	2293,00
-7766,95	2201,00
-7747,80	2160,00
-7728,69	2155,00
-7709,62	2013,00
-7690,59	2052,00
-7671,59	2232,00
-7652,63	2167,00
-7633,70	2170,00
-7614,81	2275,00
-7595,96	1973,00
-7577,15	2078,00
-7558,37	1785,00
-7539,62	1931,00
-7520,91	2003,00
-7502,24	2071,00
-7483,60	2148,00
-7465,00	1994,00
-7446,44	1954,00
-7427,91	1564,00
-7409,41	1660,00
-7390,95	1610,00
-7372,53	1434,00
-7354,14	1584,00
-7335,78	1522,00
-7317,46	1596,00
-7299,18	1690,00
-7280,92	1784,00
-7262,71	2063,00
-7244,52	2032,00
-7226,38	1943,00
-7208,26	1900,00
-7190,18	1839,00
-7172,14	1848,00
-7154,12	1762,00
-7136,15	1820,00
-7118,20	1982,00
-7100,29	2011,00
-7082,41	1919,00
-7064,57	1897,00
-7046,76	1770,00
-7028,98	1702,00
-7011,24	1689,00
-6993,53	1473,00
-6975,85	1390,00
-6958,20	1252,00
-6940,59	1202,00
-6923,01	1142,00
-6905,46	1445,00
-6887,94	1485,00
-6870,46	2016,00
-6853,01	1777,00
-6835,59	1780,00
-6818,21	1614,00
-6800,85	1583,00
-6783,53	1345,00
-6766,24	1160,00
-6748,98	1227,00
-6731,76	1162,00
-6714,56	1181,00
-6697,40	1041,00
-6680,26	1134,00
-6663,16	1268,00
-6646,09	1503,00
-6629,05	1532,00
-6612,05	1635,00
-6595,07	1525,00
-6578,13	1602,00
-6561,21	1261,00
-6544,33	1354,00
-6527,47	1007,00
-6510,65	1053,00
-6493,86	946,00
-6477,10	1028,00
-6460,36	1019,00
-6443,66	969,00
-6426,99	1036,00
-6410,35	1087,00
-6393,74	1177,00
-6377,16	1043,00
-6360,61	1252,00
-6344,09	1111,00
-6327,59	1200,00
-6311,13	1389,00
-6294,70	1202,00
-6278,29	1308,00
-6261,92	1360,00
-6245,58	1551,00
-6229,26	1554,00
-6212,97	1449,00
-6196,72	1179,00
-6180,49	1179,00
-6164,29	883,00
-6148,12	974,00
-6131,98	1028,00
-6115,86	891,00
-6099,78	867,00
-6083,72	861,00
-6067,69	839,00
-6051,69	925,00
-6035,72	996,00
-6019,78	961,00
-6003,87	1279,00
-5987,98	1203,00
-5972,12	1227,00
-5956,29	1274,00
-5940,49	984,00
-5924,71	1282,00
-5908,96	937,00
-5893,24	1039,00
-5877,55	979,00
-5861,89	977,00
-5846,25	799,00
-5830,64	958,00
-5815,05	940,00
-5799,50	984,00
-5783,97	972,00
-5768,47	990,00
-5752,99	1239,00
-5737,55	1058,00
-5722,12	1236,00
-5706,73	1243,00
-5691,36	1133,00
-5676,02	1030,00
-5660,71	965,00
-5645,42	914,00
-5630,16	1047,00
-5614,92	1099,00
-5599,71	1028,00
-5584,53	1054,00
-5569,37	1145,00
-5554,24	1259,00
-5539,14	971,00
-5524,06	1090,00
-5509,01	1052,00
-5493,98	1012,00
-5478,98	1043,00
-5464,00	1024,00
-5449,05	929,00
-5434,13	1017,00
-5419,23	861,00
-5404,36	919,00
-5389,51	1032,00
-5374,69	1174,00
-5359,89	1302,00
-5345,12	1396,00
-5330,37	1433,00
-5315,65	1245,00
-5300,95	1170,00
-5286,28	1012,00
-5271,63	953,00
-5257,01	1037,00
-5242,41	1084,00
-5227,84	878,00
-5213,29	946,00
-5198,76	909,00
-5184,26	937,00
-5169,79	825,00
-5155,33	957,00
-5140,91	1019,00
-5126,51	1080,00
-5112,13	1064,00
-5097,77	1074,00
-5083,44	997,00
-5069,13	832,00
-5054,85	968,00
-5040,59	1032,00
-5026,36	1014,00
-5012,15	1089,00
-4997,96	1041,00
-4983,80	948,00
-4969,66	924,00
-4955,54	911,00
-4941,44	1008,00
-4927,37	971,00
-4913,33	1194,00
-4899,30	1169,00
-4885,30	1302,00
-4871,33	1034,00
-4857,37	824,00
-4843,44	845,00
-4829,53	954,00
-4815,65	1025,00
-4801,79	852,00
-4787,95	1027,00
-4774,13	876,00
-4760,34	846,00
-4746,56	917,00
-4732,82	874,00
-4719,09	1056,00
-4705,38	1311,00
-4691,70	1227,00
-4678,04	1327,00
-4664,41	1142,00
-4650,79	1137,00
-4637,20	873,00
-4623,63	851,00
-4610,08	1139,00
-4596,56	977,00
-4583,05	1049,00
-4569,57	975,00
-4556,11	956,00
-4542,67	846,00
-4529,25	849,00
-4515,86	905,00
-4502,49	1160,00
-4489,13	1175,00
-4475,80	1130,00
-4462,49	909,00
-4449,21	990,00
-4435,94	866,00
-4422,70	798,00
-4409,47	879,00
-4396,27	986,00
-4383,09	929,00
-4369,93	888,00
-4356,79	772,00
-4343,67	886,00
-4330,58	1035,00
-4317,50	967,00
-4304,45	913,00
-4291,41	959,00
-4278,40	867,00
-4265,41	877,00
-4252,44	836,00
-4239,49	862,00
-4226,55	932,00
-4213,65	896,00
-4200,76	905,00
-4187,89	842,00
-4175,04	812,00
-4162,21	794,00
-4149,40	877,00
-4136,61	831,00
-4123,85	855,00
-4111,10	837,00
-4098,37	917,00
-4085,66	808,00
-4072,98	934,00
-4060,31	871,00
-4047,66	938,00
-4035,04	1016,00
-4022,43	796,00
-4009,84	909,00
-3997,27	677,00
-3984,72	834,00
-3972,19	872,00
-3959,69	817,00
-3947,20	792,00
-3934,73	794,00
-3922,27	674,00
-3909,84	815,00
-3897,43	803,00
-3885,04	836,00
-3872,67	913,00
-3860,31	721,00
-3847,98	919,00
-3835,66	819,00
-3823,36	791,00
-3811,09	730,00
-3798,83	845,00
-3786,59	866,00
-3774,37	932,00
-3762,17	678,00
-3749,98	759,00
-3737,82	828,00
-3725,67	995,00
-3713,55	740,00
-3701,44	835,00
-3689,35	781,00
-3677,28	883,00
-3665,22	795,00
-3653,19	735,00
-3641,17	771,00
-3629,18	873,00
-3617,20	834,00
-3605,24	849,00
-3593,30	898,00
-3581,37	871,00
-3569,47	881,00
-3557,58	827,00
-3545,71	870,00
-3533,86	874,00
-3522,02	693,00
-3510,21	864,00
-3498,41	881,00
-3486,63	800,00
-3474,87	801,00
-3463,12	780,00
-3451,40	765,00
-3439,69	884,00
-3428,00	898,00
-3416,33	831,00
-3404,67	745,00
-3393,03	865,00
-3381,41	867,00
-3369,81	823,00
-3358,22	897,00
-3346,66	924,00
-3335,10	833,00
-3323,57	767,00
-3312,06	937,00
-3300,56	858,00
-3289,08	769,00
-3277,61	784,00
-3266,16	893,00
-3254,73	834,00
-3243,32	885,00
-3231,92	737,00
-3220,55	882,00
-3209,18	900,00
-3197,84	747,00
-3186,51	684,00
-3175,20	867,00
-3163,90	768,00
-3152,63	966,00
-3141,36	738,00
-3130,12	861,00
-3118,89	850,00
-3107,68	731,00
-3096,49	832,00
-3085,31	745,00
-3074,15	848,00
-3063,00	894,00
-3051,87	804,00
-3040,76	788,00
-3029,67	948,00
-3018,59	961,00
-3007,52	967,00
-2996,48	900,00
-2985,44	860,00
-2974,43	877,00
-2963,43	764,00
-2952,45	818,00
-2941,48	802,00
-2930,53	855,00
-2919,60	766,00
-2908,68	775,00
-2897,78	760,00
-2886,89	896,00
-2876,02	808,00
-2865,17	780,00
-2854,33	776,00
-2843,50	842,00
-2832,70	812,00
-2821,90	775,00
-2811,13	916,00
-2800,37	881,00
-2789,62	709,00
-2778,89	875,00
-2768,18	911,00
-2757,48	925,00
-2746,80	869,00
-2736,13	826,00
-2725,48	975,00
-2714,84	799,00
-2704,22	804,00
-2693,61	708,00
-2683,02	820,00
-2672,45	842,00
-2661,89	860,00
-2651,34	902,00
-2640,81	878,00
-2630,30	980,00
-2619,80	805,00
-2609,31	904,00
-2598,84	749,00
-2588,39	747,00
-2577,95	760,00
-2567,52	730,00
-2557,11	798,00
-2546,71	792,00
-2536,33	940,00
-2525,97	753,00
-2515,62	865,00
-2505,28	872,00
-2494,96	788,00
-2484,65	892,00
-2474,36	1161,00
-2464,08	777,00
-2453,82	952,00
-2443,57	815,00
-2433,33	767,00
-2423,11	874,00
-2412,91	907,00
-2402,72	717,00
-2392,54	796,00
-2382,38	800,00
-2372,23	892,00
-2362,09	1890,00
-2351,97	747,00
-2341,87	709,00
-2331,78	846,00
-2321,70	935,00
-2311,64	809,00
-2301,59	767,00
-2291,55	766,00
-2281,53	919,00
-2271,53	710,00
-2261,53	873,00
-2251,55	875,00
-2241,59	785,00
-2231,64	833,00
-2221,70	880,00
-2211,78	819,00
-2201,87	862,00
-2191,97	814,00
-2182,09	762,00
-2172,22	875,00
-2162,37	701,00
-2152,53	768,00
-2142,70	807,00
-2132,89	800,00
-2123,09	862,00
-2113,30	839,00
-2103,53	826,00
-2093,77	833,00
-2084,02	776,00
-2074,29	940,00
-2064,57	829,00
-2054,86	835,00
-2045,17	930,00
-2035,49	842,00
-2025,82	771,00
-2016,17	822,00
-2006,53	804,00
-1996,91	834,00
-1987,29	758,00
-1977,69	797,00
-1968,11	772,00
-1958,53	744,00
-1948,97	778,00
-1939,42	760,00
-1929,89	742,00
-1920,37	815,00
-1910,86	762,00
-1901,36	807,00
-1891,88	809,00
-1882,41	858,00
-1872,95	852,00
-1863,51	938,00
-1854,08	953,00
-1844,66	890,00
-1835,26	847,00
-1825,86	861,00
-1816,48	818,00
-1807,11	895,00
-1797,76	848,00
-1788,42	854,00
-1779,09	906,00
-1769,77	748,00
-1760,47	980,00
-1751,17	767,00
-1741,89	789,00
-1732,63	876,00
-1723,37	970,00
-1714,13	929,00
-1704,90	842,00
-1695,68	962,00
-1686,48	697,00
-1677,29	750,00
-1668,11	946,00
-1658,94	855,00
-1649,78	788,00
-1640,64	841,00
-1631,51	717,00
-1622,39	960,00
-1613,28	822,00
-1604,19	1015,00
-1595,10	811,00
-1586,03	757,00
-1576,97	856,00
-1567,93	775,00
-1558,89	875,00
-1549,87	877,00
-1540,86	704,00
-1531,86	763,00
-1522,87	777,00
-1513,90	888,00
-1504,93	896,00
-1495,98	843,00
-1487,04	916,00
-1478,12	786,00
-1469,20	768,00
-1460,30	825,00
-1451,40	1077,00
-1442,52	812,00
-1433,65	977,00
-1424,80	798,00
-1415,95	798,00
-1407,12	1026,00
-1398,30	825,00
-1389,48	851,00
-1380,69	750,00
-1371,90	796,00
-1363,12	832,00
-1354,36	952,00
-1345,60	856,00
-1336,86	956,00
-1328,13	990,00
-1319,41	800,00
-1310,70	796,00
-1302,01	829,00
-1293,32	741,00
-1284,65	750,00
-1275,99	812,00
-1267,33	1016,00
-1258,69	890,00
-1250,06	916,00
-1241,45	774,00
-1232,84	904,00
-1224,25	816,00
-1215,66	840,00
-1207,09	853,00
-1198,53	798,00
-1189,97	897,00
-1181,43	715,00
-1172,91	806,00
-1164,39	958,00
-1155,88	680,00
-1147,38	745,00
-1138,90	787,00
-1130,43	776,00
-1121,96	848,00
-1113,51	811,00
-1105,07	865,00
-1096,64	851,00
-1088,22	864,00
-1079,81	850,00
-1071,41	817,00
-1063,02	843,00
-1054,65	911,00
-1046,28	905,00
-1037,92	905,00
-1029,58	874,00
-1021,24	853,00
-1012,92	1083,00
-1004,61	838,00
-996,30	1001,00
-988,01	686,00
-979,73	869,00
-971,46	881,00
-963,20	879,00
-954,95	766,00
-946,71	817,00
-938,48	863,00
-930,26	904,00
-922,06	839,00
-913,86	774,00
-905,67	745,00
-897,49	920,00
-889,33	706,00
-881,17	1000,00
-873,02	768,00
-864,89	742,00
-856,76	826,00
-848,65	975,00
-840,54	850,00
-832,45	795,00
-824,36	779,00
-816,29	904,00
-808,22	929,00
-800,17	902,00
-792,12	827,00
-784,09	906,00
-776,06	791,00
-768,05	816,00
-760,04	751,00
-752,05	760,00
-744,07	945,00
-736,09	877,00
-728,13	677,00
-720,17	820,00
-712,23	809,00
-704,29	719,00
-696,37	768,00
-688,45	961,00
-680,55	802,00
-672,65	743,00
-664,77	835,00
-656,89	768,00
-649,03	738,00
-641,17	818,00
-633,32	846,00
-625,49	941,00
-617,66	834,00
-609,84	940,00
-602,03	705,00
-594,23	835,00
-586,45	807,00
-578,67	808,00
-570,90	895,00
-563,14	741,00
-555,39	878,00
-547,65	925,00
-539,91	860,00
-532,19	888,00
-524,48	801,00
-516,78	750,00
-509,08	910,00
-501,40	742,00
-493,72	795,00
-486,06	773,00
-478,40	1029,00
-470,76	726,00
-463,12	886,00
-455,49	737,00
-447,87	780,00
-440,26	827,00
-432,66	753,00
-425,07	819,00
-417,49	853,00
-409,92	678,00
-402,35	850,00
-394,80	760,00
-387,25	883,00
-379,72	904,00
-372,19	917,00
-364,67	941,00
-357,17	856,00
-349,67	856,00
-342,18	830,00
-334,69	900,00
-327,22	885,00
-319,76	854,00
-312,30	815,00
-304,86	809,00
-297,42	862,00
-290,00	869,00
-282,58	829,00
-275,17	951,00
-267,77	874,00
-260,37	857,00
-252,99	908,00
-245,62	914,00
-238,25	856,00
-230,90	839,00
-223,55	877,00
-216,21	869,00
-208,88	982,00
-201,56	906,00
-194,25	918,00
-186,94	952,00
-179,65	941,00
-172,36	1024,00
-165,08	1093,00
-157,81	1097,00
-150,55	1186,00
-143,30	1206,00
-136,06	1178,00
-128,82	1181,00
-121,60	1214,00
-114,38	1369,00
-107,17	1540,00
-99,97	1667,00
-92,78	1628,00
-85,60	1768,00
-78,42	1976,00
-71,25	2006,00
-64,10	2206,00
-56,95	2629,00
-49,81	2764,00
-42,67	3427,00
-35,55	3995,00
-28,43	5102,00
-21,33	7891,00
-14,23	24747,00
-7,14	57498,00
-0,05	57284,00
7,02	57012,00
14,09	57319,00
21,14	21099,00
28,19	9166,00
35,23	6093,00
42,27	5008,00
49,29	4208,00
56,31	3538,00
63,32	3217,00
70,32	2839,00
77,31	2544,00
84,29	2144,00
91,27	2076,00
98,23	2032,00
105,19	1875,00
112,14	2082,00
119,09	2829,00
126,02	4093,00
132,95	4635,00
139,87	4752,00
146,78	4849,00
153,68	4820,00
160,58	4632,00
167,46	4509,00
174,34	4540,00
181,21	4459,00
188,08	4439,00
194,93	4558,00
201,78	4391,00
208,62	4476,00
215,45	4588,00
222,27	4482,00
229,09	4536,00
235,90	4296,00
242,70	4286,00
249,49	4460,00
256,27	4177,00
263,05	4143,00
269,82	4082,00
276,58	4072,00
283,33	3926,00
290,08	3848,00
296,82	3889,00
303,55	3724,00
310,27	3685,00
316,98	3793,00
323,69	3837,00
330,39	3706,00
337,08	3681,00
343,76	3714,00
350,44	3832,00
357,11	3665,00
363,77	3694,00
370,42	3603,00
377,07	3695,00
383,71	3559,00
390,34	3596,00
396,96	3630,00
403,58	3649,00
410,19	3751,00
416,79	3806,00
423,38	3978,00
429,97	3914,00
436,55	3896,00
443,12	4047,00
449,68	4038,00
456,24	3865,00
462,79	3812,00
469,33	3515,00
475,86	3403,00
482,39	3414,00
488,91	3294,00
495,42	3259,00
501,93	3289,00
508,42	3125,00
514,91	3160,00
521,40	3097,00
527,87	3160,00
534,34	2966,00
540,80	3083,00
547,25	3035,00
553,70	3016,00
560,14	3090,00
566,57	3173,00
573,00	3097,00
579,41	3225,00
585,83	3196,00
592,23	3267,00
598,62	3330,00
605,01	3331,00
611,40	3468,00
617,77	3392,00
624,14	3229,00
630,50	3124,00
636,85	3140,00
643,20	3010,00
649,54	2890,00
655,87	2823,00
662,20	2889,00
668,52	2860,00
674,83	2802,00
681,13	2754,00
687,43	2843,00
693,72	2668,00
700,00	2699,00
706,28	2708,00
712,55	2661,00
718,81	2852,00
725,07	2629,00
731,32	2694,00
737,56	2714,00
743,79	2695,00
750,02	2650,00
756,24	2550,00
762,46	2589,00
768,67	2884,00
774,87	2558,00
781,06	2464,00
787,25	2714,00
793,43	2616,00
799,60	2577,00
805,77	2775,00
811,93	2631,00
818,08	2707,00
824,23	2591,00
830,37	2888,00
836,50	2556,00
842,63	2663,00
848,75	2540,00
854,87	2627,00
860,97	2660,00
867,07	2606,00
873,17	2679,00
879,25	2674,00
885,33	2614,00
891,41	2790,00
897,47	2701,00
903,53	2531,00
909,59	2672,00
915,63	2491,00
921,67	2586,00
927,71	2600,00
933,74	2634,00
939,76	2330,00
945,77	2360,00
951,78	2549,00
957,78	2391,00
963,78	2531,00
969,77	2401,00
975,75	2408,00
981,72	2367,00
987,69	3831,00
993,66	2506,00
999,61	2508,00
1005,56	2424,00
1011,51	2493,00
1017,44	2443,00
1023,37	2548,00
1029,30	2544,00
1035,22	2606,00
1041,13	2520,00
1047,03	2763,00
1052,93	3199,00
1058,83	4632,00
1064,71	5157,00
1070,59	4233,00
1076,47	3414,00
1082,33	3194,00
1088,20	3137,00
1094,05	2867,00
1099,90	2707,00
1105,74	2666,00
1111,58	2821,00
1117,41	3040,00
1123,23	3937,00
1129,05	4831,00
1134,86	4446,00
1140,67	3450,00
1146,47	2707,00
1152,26	2674,00
1158,05	2501,00
1163,83	2619,00
1169,60	2744,00
1175,37	2641,00
1181,13	2465,00
1186,89	2357,00
1192,64	2357,00
1198,38	2550,00
1204,12	2153,00
1209,85	2246,00
1215,58	2352,00
1221,30	2350,00
1227,02	2393,00
1232,72	2290,00
1238,43	2254,00
1244,12	2300,00
1249,81	2394,00
1255,50	2509,00
1261,17	2422,00
1266,85	2597,00
1272,51	2621,00
1278,17	2781,00
1283,83	3060,00
1289,47	4466,00
1295,12	6033,00
1300,75	5370,00
1306,38	4121,00
1312,01	3358,00
1317,63	2838,00
1323,24	2601,00
1328,85	2569,00
1334,45	2454,00
1340,04	2415,00
1345,63	2392,00
1351,22	2541,00
1356,80	2436,00
1362,37	2636,00
1367,93	2510,00
1373,49	2643,00
1379,05	2444,00
1384,60	2517,00
1390,14	2484,00
1395,68	2462,00
1401,21	2476,00
1406,74	2712,00
1412,26	3298,00
1417,77	3937,00
1423,28	3877,00
1428,78	4256,00
1434,28	5260,00
1439,77	5888,00
1445,26	5880,00
1450,74	5353,00
1456,22	4984,00
1461,68	4871,00
1467,15	4543,00
1472,61	3828,00
1478,06	3420,00
1483,51	2995,00
1488,95	2553,00
1494,38	2597,00
1499,81	2424,00
1505,24	2196,00
1510,65	2271,00
1516,07	2257,00
1521,48	2252,00
1526,88	2138,00
1532,27	2131,00
1537,67	2150,00
1543,05	2191,00
1548,43	2060,00
1553,81	2164,00
1559,18	1966,00
1564,54	2038,00
1569,90	1997,00
1575,25	1949,00
1580,60	1855,00
1585,94	1979,00
1591,28	1901,00
1596,61	1914,00
1601,93	1986,00
1607,25	1955,00
1612,57	1955,00
1617,88	1956,00
1623,18	1970,00
1628,48	1877,00
1633,77	1866,00
1639,06	1920,00
1644,34	1840,00
1649,62	1820,00
1654,89	1932,00
1660,16	1818,00
1665,42	1946,00
1670,67	1852,00
1675,92	1742,00
1681,17	1700,00
1686,41	1819,00
1691,64	1886,00
1696,87	1880,00
1702,10	1736,00
1707,32	1766,00
1712,53	1741,00
1717,74	1794,00
1722,94	1801,00
1728,14	1727,00
1733,33	1718,00
1738,52	1579,00
1743,70	1685,00
1748,88	1649,00
1754,05	1651,00
1759,22	1552,00
1764,38	1032,00
1769,53	1678,00
1774,69	1677,00
1779,83	1597,00
1784,97	1561,00
1790,11	1636,00
1795,24	1580,00
1800,36	1624,00
1805,48	1609,00
1810,60	1692,00
1815,71	1526,00
1820,82	1415,00
1825,92	1632,00
1831,01	1579,00
1836,10	1555,00
1841,19	1684,00
1846,26	1528,00
1851,34	1558,00
1856,41	1598,00
1861,47	1533,00
1866,53	1684,00
1871,59	1541,00
1876,64	1567,00
1881,68	1515,00
1886,72	1492,00
1891,76	1516,00
1896,79	1441,00
1901,81	1482,00
1906,83	1544,00
1911,85	1387,00
1916,86	1384,00
1921,86	1432,00
1926,86	1431,00
1931,86	1449,00
1936,85	1485,00
1941,83	1425,00
1946,81	1421,00
1951,79	1330,00
1956,76	1442,00
1961,72	1303,00
1966,68	1449,00
1971,64	1314,00
1976,59	1479,00
1981,54	1300,00
1986,48	1506,00
1991,42	1241,00
1996,35	1633,00
2001,27	1308,00
2006,20	1368,00
2011,11	1426,00
2016,03	1413,00
2020,93	1288,00
2025,84	1413,00
2030,73	1299,00
2035,63	1205,00
2040,52	1346,00
2045,40	1319,00
2050,28	1370,00
2055,15	1285,00
2060,02	1224,00
2064,89	1445,00
2069,75	1473,00
2074,60	1296,00
2079,46	1251,00
2084,30	1270,00
2089,14	1229,00
2093,98	1303,00
2098,81	1284,00
2103,64	1308,00
2108,46	1344,00
2113,28	1352,00
2118,09	1311,00
2122,90	1287,00
2127,70	1176,00
2132,50	1369,00
2137,30	1292,00
2142,09	1074,00
2146,87	1208,00
2151,66	1253,00
2156,43	1245,00
2161,20	1276,00
2165,97	1389,00
2170,73	1256,00
2175,49	1316,00
2180,24	1436,00
2184,99	1411,00
2189,74	1460,00
2194,48	1368,00
2199,21	1303,00
2203,94	1233,00
2208,67	1197,00
2213,39	1140,00
2218,11	1222,00
2222,82	1224,00
2227,53	1293,00
2232,23	1288,00
2236,93	1306,00
2241,63	1236,00
2246,32	1301,00
2251,00	1276,00
2255,68	1239,00
2260,36	1181,00
2265,03	1286,00
2269,70	1277,00
2274,36	1270,00
2279,02	1272,00
2283,68	1227,00
2288,33	1211,00
2292,97	1300,00
2297,61	1275,00
2302,25	1170,00
2306,88	1181,00
2311,51	1072,00
2316,14	1158,00
2320,75	1087,00
2325,37	1068,00
2329,98	1202,00
2334,59	1200,00
2339,19	1153,00
2343,79	1000,00
2348,38	1203,00
2352,97	1109,00
2357,55	1177,00
2362,13	1092,00
2366,71	1008,00
2371,28	1266,00
2375,85	1232,00
2380,41	1224,00
2384,97	1131,00
2389,52	1236,00
2394,07	1224,00
2398,62	1141,00
2403,16	1216,00
2407,70	985,00
2412,23	1097,00
2416,76	1188,00
2421,29	1211,00
2425,81	1291,00
2430,32	1137,00
2434,84	1015,00
2439,34	1045,00
2443,85	1316,00
2448,35	1032,00
2452,84	1070,00
2457,33	1107,00
2461,82	997,00
2466,30	965,00
2470,78	1128,00
2475,25	1123,00
2479,72	1149,00
2484,19	1191,00
2488,65	1210,00
2493,11	1020,00
2497,56	1310,00
2502,01	1032,00
2506,46	1133,00
2510,90	1110,00
2515,34	988,00
2519,77	1126,00
2524,20	1128,00
2528,62	1073,00
2533,04	1160,00
2537,46	1119,00
2541,87	1135,00
2546,28	1066,00
2550,68	1214,00
2555,08	1171,00
2559,48	1140,00
2563,87	1068,00
2568,26	1003,00
2572,64	1169,00
2577,02	1143,00
2581,40	1053,00
2585,77	1080,00
2590,14	1080,00
2594,50	1028,00
2598,86	1148,00
2603,22	1179,00
2607,57	1123,00
2611,92	1184,00
2616,26	1283,00
2620,60	1224,00
2624,94	1150,00
2629,27	1153,00
2633,60	1075,00
2637,92	1292,00
2642,24	1247,00
2646,56	1142,00
2650,87	1041,00
2655,18	1243,00
2659,48	1110,00
2663,78	1128,00
2668,08	1117,00
2672,37	1201,00
2676,66	1171,00
2680,95	1061,00
2685,23	1265,00
2689,50	1171,00
2693,78	1241,00
2698,05	1154,00
2702,31	1275,00
2706,57	1430,00
2710,83	1448,00
2715,08	1431,00
2719,33	1589,00
2723,58	1466,00
2727,82	1551,00
2732,06	1426,00
2736,29	1450,00
2740,53	1411,00
2744,75	1341,00
2748,97	1316,00
2753,19	1348,00
2757,41	1367,00
2761,62	1441,00
2765,83	1436,00
2770,03	1203,00
2774,23	1388,00
2778,43	1292,00
2782,62	1431,00
2786,81	1342,00
2791,00	1389,00
2795,18	1406,00
2799,35	1478,00
2803,53	1557,00
2807,70	1586,00
2811,86	1524,00
2816,03	1721,00
2820,19	1696,00
2824,34	1772,00
2828,49	1962,00
2832,64	2232,00
2836,78	2571,00
2840,92	2996,00
2845,06	3641,00
2849,19	4137,00
2853,32	4226,00
2857,45	4179,00
2861,57	4203,00
2865,69	4002,00
2869,80	3929,00
2873,91	4153,00
2878,02	4606,00
2882,12	5026,00
2886,22	4877,00
2890,32	4574,00
2894,41	4380,00
2898,50	3913,00
2902,58	3717,00
2906,67	3437,00
2910,74	3204,00
2914,82	2951,00
2918,89	2876,00
2922,96	2562,00
2927,02	2491,00
2931,08	2387,00
2935,13	2216,00
2939,19	2218,00
2943,24	1965,00
2947,28	1970,00
2951,32	1725,00
2955,36	1629,00
2959,40	1643,00
2963,43	1571,00
2967,46	1455,00
2971,48	1350,00
2975,50	1328,00
2979,52	1351,00
2983,53	1329,00
2987,54	1227,00
2991,55	1194,00
2995,55	1260,00
2999,55	1204,00
3003,54	1089,00
3007,54	1200,00
3011,53	1076,00
3015,51	1074,00
3019,49	1178,00
3023,47	1002,00
3027,45	1070,00
3031,42	1032,00
3035,39	1008,00
3039,35	1062,00
3043,31	1040,00
3047,27	1031,00
3051,22	1108,00
3055,17	956,00
3059,12	948,00
3063,06	991,00
3067,00	907,00
3070,94	920,00
3074,87	991,00
3078,80	975,00
3082,73	967,00
3086,65	901,00
3090,57	871,00
3094,49	917,00
3098,40	1034,00
3102,31	906,00
3106,22	913,00
3110,12	837,00
3114,02	800,00
3117,92	896,00
3121,81	842,00
3125,70	840,00
3129,58	825,00
3133,47	779,00
3137,34	961,00
3141,22	932,00
3145,09	932,00
3148,96	962,00
3152,83	907,00
3156,69	929,00
3160,55	876,00
3164,40	912,00
3168,26	897,00
3172,10	1028,00
3175,95	972,00
3179,79	835,00
3183,63	944,00
3187,47	922,00
3191,30	958,00
3195,13	850,00
3198,95	793,00
3202,78	854,00
3206,60	827,00
3210,41	886,00
3214,23	817,00
3218,03	919,00
3221,84	857,00
3225,64	861,00
3229,44	796,00
3233,24	881,00
3237,03	861,00
3240,82	788,00
3244,61	747,00
3248,39	777,00
3252,17	874,00
3255,95	897,00
3259,72	902,00
3263,49	1075,00
3267,26	812,00
3271,03	898,00
3274,79	715,00
3278,54	924,00
3282,30	782,00
3286,05	871,00
3289,80	905,00
3293,54	899,00
3297,29	868,00
3301,02	839,00
3304,76	901,00
3308,49	921,00
3312,22	780,00
3315,95	914,00
3319,67	832,00
3323,39	961,00
3327,10	922,00
3330,82	865,00
3334,53	924,00
3338,24	804,00
3341,94	813,00
3345,64	917,00
3349,34	812,00
3353,03	950,00
3356,72	856,00
3360,41	878,00
3364,10	818,00
3367,78	744,00
3371,46	815,00
3375,13	913,00
3378,81	877,00
3382,48	743,00
3386,14	976,00
3389,81	853,00
3393,47	881,00
3397,12	975,00
3400,78	917,00
3404,43	878,00
3408,08	897,00
3411,72	733,00
3415,36	829,00
3419,00	848,00
3422,64	826,00
3426,27	880,00
3429,90	807,00
3433,53	768,00
3437,15	807,00
3440,77	735,00
3444,39	822,00
3448,00	858,00
3451,62	813,00
3455,22	907,00
3458,83	721,00
3462,43	820,00
3466,03	920,00
3469,63	725,00
3473,22	831,00
3476,81	823,00
3480,40	995,00
3483,99	816,00
3487,57	918,00
3491,15	748,00
3494,72	844,00
3498,29	827,00
3501,86	720,00
3505,43	719,00
3508,99	733,00
3512,56	688,00
3516,11	845,00
3519,67	854,00
3523,22	807,00
3526,77	698,00
3530,32	934,00
3533,86	846,00
3537,40	841,00
3540,94	820,00
3544,47	761,00
3548,00	763,00
3551,53	875,00
3555,06	691,00
3558,58	841,00
3562,10	860,00
3565,62	717,00
3569,13	811,00
3572,64	907,00
3576,15	733,00
3579,66	749,00
3583,16	811,00
3586,66	720,00
3590,16	781,00
3593,65	725,00
3597,14	714,00
3600,63	762,00
3604,11	746,00
3607,60	717,00
3611,08	918,00
3614,55	776,00
3618,03	805,00
3621,50	742,00
3624,97	744,00
3628,43	811,00
3631,90	788,00
3635,36	737,00
3638,81	805,00
3642,27	809,00
3645,72	723,00
3649,17	740,00
3652,61	775,00
3656,06	682,00
3659,50	690,00
3662,93	700,00
3666,37	853,00
3669,80	941,00
3673,23	755,00
3676,65	720,00
3680,08	793,00
3683,50	685,00
3686,92	648,00
3690,33	761,00
3693,74	761,00
3697,15	675,00
3700,56	830,00
3703,96	682,00
3707,36	686,00
3710,76	687,00
3714,16	688,00
3717,55	756,00
3720,94	721,00
3724,33	806,00
3727,71	753,00
3731,10	683,00
3734,48	772,00
3737,85	645,00
3741,23	716,00
3744,60	715,00
3747,97	729,00
3751,33	855,00
3754,69	712,00
3758,05	677,00
3761,41	651,00
3764,77	701,00
3768,12	669,00
3771,47	601,00
3774,82	672,00
3778,16	-5,00
3781,50	8,00
3784,84	9,00
3788,18	9,00
>>>>>End Processed Spectral Data<<<<<
