SpectraSuite Data File
++++++++++++++++++++++++++++++++++++
Date: Mon Jan 05 16:33:19 ICT 2026
User: Administrator
Dark Spectrum Present: Yes
Reference Spectrum Present: No
Number of Sampled Component Spectra: 1
Spectrometers: MAYP113682
Integration Time (usec): 3000000 (MAYP113682)
Spectra Averaged: 1 (MAYP113682)
Boxcar Smoothing: 0 (MAYP113682)
Correct for Electrical Dark: No (MAYP113682)
Strobe/Lamp Enabled: No (MAYP113682)
Correct for Detector Non-linearity: No (MAYP113682)
Correct for Stray Light: No (MAYP113682)
Number of Pixels in Processed Spectrum: 2068
>>>>>Begin Processed Spectral Data<<<<<
-37534,58	29,00
-37414,56	8,00
-37295,11	10,00
-37176,24	13,00
-37057,95	626,00
-36940,22	665,00
-36823,05	667,00
-36706,45	717,00
-36590,40	800,00
-36474,90	705,00
-36359,95	848,00
-36245,55	775,00
-36131,68	771,00
-36018,35	790,00
-35905,55	739,00
-35793,29	844,00
-35681,54	709,00
-35570,32	798,00
-35459,62	771,00
-35349,43	983,00
-35239,75	768,00
-35130,58	736,00
-35021,91	791,00
-34913,74	732,00
-34806,07	838,00
-34698,89	863,00
-34592,20	873,00
-34486,00	834,00
-34380,28	908,00
-34275,04	753,00
-34170,27	783,00
-34065,98	929,00
-33962,16	914,00
-33858,81	854,00
-33755,92	822,00
-33653,49	934,00
-33551,52	962,00
-33450,01	871,00
-33348,94	804,00
-33248,33	830,00
-33148,16	820,00
-33048,43	805,00
-32949,14	1012,00
-32850,29	979,00
-32751,87	773,00
-32653,89	985,00
-32556,33	935,00
-32459,20	861,00
-32362,49	911,00
-32266,19	917,00
-32170,32	837,00
-32074,86	924,00
-31979,82	933,00
-31885,18	935,00
-31790,95	974,00
-31697,12	919,00
-31603,69	978,00
-31510,67	858,00
-31418,04	929,00
-31325,80	776,00
-31233,95	780,00
-31142,49	875,00
-31051,42	826,00
-30960,73	1014,00
-30870,43	912,00
-30780,50	974,00
-30690,95	828,00
-30601,77	966,00
-30512,97	951,00
-30424,53	979,00
-30336,46	880,00
-30248,76	870,00
-30161,42	893,00
-30074,44	816,00
-29987,81	918,00
-29901,55	924,00
-29815,63	911,00
-29730,07	951,00
-29644,86	950,00
-29560,00	986,00
-29475,48	919,00
-29391,30	873,00
-29307,47	781,00
-29223,97	851,00
-29140,81	949,00
-29057,99	980,00
-28975,50	803,00
-28893,34	1017,00
-28811,51	847,00
-28730,00	929,00
-28648,82	885,00
-28567,97	914,00
-28487,43	938,00
-28407,21	924,00
-28327,32	809,00
-28247,73	980,00
-28168,46	856,00
-28089,50	961,00
-28010,85	814,00
-27932,51	722,00
-27854,48	911,00
-27776,75	898,00
-27699,32	849,00
-27622,19	948,00
-27545,37	964,00
-27468,84	924,00
-27392,60	904,00
-27316,66	901,00
-27241,01	841,00
-27165,66	824,00
-27090,59	840,00
-27015,81	990,00
-26941,31	1002,00
-26867,10	821,00
-26793,17	926,00
-26719,52	973,00
-26646,15	795,00
-26573,06	864,00
-26500,24	840,00
-26427,70	901,00
-26355,43	789,00
-26283,43	947,00
-26211,71	865,00
-26140,25	957,00
-26069,06	921,00
-25998,13	765,00
-25927,46	827,00
-25857,06	802,00
-25786,92	858,00
-25717,04	845,00
-25647,42	994,00
-25578,05	827,00
-25508,94	813,00
-25440,09	995,00
-25371,48	863,00
-25303,13	956,00
-25235,02	870,00
-25167,17	851,00
-25099,56	912,00
-25032,19	866,00
-24965,07	776,00
-24898,20	857,00
-24831,56	769,00
-24765,17	944,00
-24699,01	791,00
-24633,10	860,00
-24567,41	942,00
-24501,97	839,00
-24436,75	856,00
-24371,77	912,00
-24307,03	888,00
-24242,51	869,00
-24178,22	857,00
-24114,16	770,00
-24050,32	894,00
-23986,71	791,00
-23923,32	883,00
-23860,16	817,00
-23797,22	930,00
-23734,50	954,00
-23672,00	844,00
-23609,71	823,00
-23547,65	799,00
-23485,80	938,00
-23424,16	694,00
-23362,74	1061,00
-23301,53	881,00
-23240,54	709,00
-23179,75	862,00
-23119,17	812,00
-23058,80	818,00
-22998,64	983,00
-22938,68	795,00
-22878,93	883,00
-22819,39	773,00
-22760,04	792,00
-22700,90	935,00
-22641,96	812,00
-22583,22	879,00
-22524,68	815,00
-22466,33	843,00
-22408,19	772,00
-22350,23	803,00
-22292,48	859,00
-22234,92	887,00
-22177,55	933,00
-22120,37	991,00
-22063,38	768,00
-22006,58	855,00
-21949,98	868,00
-21893,56	720,00
-21837,33	920,00
-21781,28	874,00
-21725,42	853,00
-21669,74	941,00
-21614,25	809,00
-21558,94	857,00
-21503,81	827,00
-21448,86	944,00
-21394,10	800,00
-21339,51	773,00
-21285,10	819,00
-21230,86	798,00
-21176,81	799,00
-21122,93	800,00
-21069,22	726,00
-21015,69	791,00
-20962,33	843,00
-20909,14	819,00
-20856,13	763,00
-20803,28	891,00
-20750,61	879,00
-20698,10	671,00
-20645,76	824,00
-20593,59	922,00
-20541,59	893,00
-20489,75	917,00
-20438,07	748,00
-20386,56	906,00
-20335,22	876,00
-20284,03	778,00
-20233,01	811,00
-20182,15	893,00
-20131,45	836,00
-20080,91	754,00
-20030,52	878,00
-19980,30	822,00
-19930,23	724,00
-19880,32	868,00
-19830,56	857,00
-19780,96	861,00
-19731,52	804,00
-19682,23	883,00
-19633,09	821,00
-19584,10	767,00
-19535,26	846,00
-19486,58	898,00
-19438,04	836,00
-19389,66	887,00
-19341,42	777,00
-19293,33	853,00
-19245,39	901,00
-19197,60	944,00
-19149,95	876,00
-19102,45	820,00
-19055,09	750,00
-19007,87	882,00
-18960,80	912,00
-18913,87	928,00
-18867,09	844,00
-18820,44	862,00
-18773,94	917,00
-18727,57	969,00
-18681,35	768,00
-18635,26	884,00
-18589,31	754,00
-18543,50	813,00
-18497,83	870,00
-18452,29	824,00
-18406,89	808,00
-18361,63	944,00
-18316,50	845,00
-18271,50	871,00
-18226,63	980,00
-18181,90	843,00
-18137,30	940,00
-18092,84	914,00
-18048,50	810,00
-18004,29	840,00
-17960,22	835,00
-17916,27	803,00
-17872,45	872,00
-17828,76	968,00
-17785,20	775,00
-17741,77	880,00
-17698,46	951,00
-17655,28	831,00
-17612,22	814,00
-17569,29	821,00
-17526,48	925,00
-17483,79	970,00
-17441,23	768,00
-17398,79	833,00
-17356,48	745,00
-17314,28	1088,00
-17272,21	836,00
-17230,26	898,00
-17188,42	841,00
-17146,71	861,00
-17105,12	798,00
-17063,64	885,00
-17022,28	801,00
-16981,04	752,00
-16939,92	1014,00
-16898,91	1010,00
-16858,02	876,00
-16817,25	862,00
-16776,59	882,00
-16736,04	824,00
-16695,61	893,00
-16655,29	816,00
-16615,09	836,00
-16574,99	805,00
-16535,01	832,00
-16495,15	874,00
-16455,39	882,00
-16415,74	767,00
-16376,21	858,00
-16336,78	809,00
-16297,46	826,00
-16258,26	749,00
-16219,16	746,00
-16180,17	823,00
-16141,28	900,00
-16102,51	923,00
-16063,84	796,00
-16025,27	880,00
-15986,82	783,00
-15948,46	892,00
-15910,22	807,00
-15872,07	838,00
-15834,04	899,00
-15796,10	758,00
-15758,27	1043,00
-15720,54	803,00
-15682,91	844,00
-15645,39	1034,00
-15607,97	939,00
-15570,64	790,00
-15533,42	923,00
-15496,30	858,00
-15459,28	919,00
-15422,36	878,00
-15385,54	817,00
-15348,82	916,00
-15312,19	971,00
-15275,66	774,00
-15239,23	1010,00
-15202,90	783,00
-15166,67	909,00
-15130,53	906,00
-15094,48	787,00
-15058,54	746,00
-15022,68	794,00
-14986,93	829,00
-14951,26	866,00
-14915,69	953,00
-14880,22	765,00
-14844,84	807,00
-14809,55	873,00
-14774,35	839,00
-14739,25	842,00
-14704,24	931,00
-14669,32	777,00
-14634,49	775,00
-14599,75	897,00
-14565,10	817,00
-14530,55	870,00
-14496,08	852,00
-14461,70	902,00
-14427,41	807,00
-14393,21	714,00
-14359,10	762,00
-14325,07	899,00
-14291,14	821,00
-14257,29	883,00
-14223,52	905,00
-14189,85	959,00
-14156,26	903,00
-14122,76	786,00
-14089,34	775,00
-14056,01	888,00
-14022,76	773,00
-13989,60	931,00
-13956,52	930,00
-13923,53	870,00
-13890,62	847,00
-13857,79	811,00
-13825,05	798,00
-13792,39	731,00
-13759,81	856,00
-13727,31	760,00
-13694,90	822,00
-13662,57	995,00
-13630,31	933,00
-13598,14	888,00
-13566,05	786,00
-13534,05	860,00
-13502,12	827,00
-13470,27	870,00
-13438,50	936,00
-13406,80	719,00
-13375,19	854,00
-13343,66	874,00
-13312,20	869,00
-13280,83	785,00
-13249,53	829,00
-13218,30	664,00
-13187,16	766,00
-13156,09	999,00
-13125,10	879,00
-13094,18	868,00
-13063,34	834,00
-13032,58	784,00
-13001,89	865,00
-12971,28	905,00
-12940,74	830,00
-12910,27	938,00
-12879,88	849,00
-12849,57	971,00
-12819,33	964,00
-12789,16	886,00
-12759,06	837,00
-12729,04	770,00
-12699,09	2164,00
-12669,21	860,00
-12639,41	792,00
-12609,68	799,00
-12580,02	899,00
-12550,43	945,00
-12520,91	745,00
-12491,46	792,00
-12462,08	747,00
-12432,77	886,00
-12403,54	818,00
-12374,37	814,00
-12345,27	925,00
-12316,24	913,00
-12287,29	822,00
-12258,40	783,00
-12229,57	916,00
-12200,82	845,00
-12172,14	863,00
-12143,52	674,00
-12114,97	886,00
-12086,49	916,00
-12058,07	978,00
-12029,73	843,00
-12001,44	957,00
-11973,23	789,00
-11945,08	822,00
-11917,00	866,00
-11888,98	796,00
-11861,03	1034,00
-11833,15	804,00
-11805,32	949,00
-11777,57	914,00
-11749,88	904,00
-11722,25	814,00
-11694,69	768,00
-11667,19	798,00
-11639,75	965,00
-11612,38	782,00
-11585,07	791,00
-11557,83	937,00
-11530,65	940,00
-11503,53	843,00
-11476,47	831,00
-11449,48	857,00
-11422,54	1002,00
-11395,67	888,00
-11368,86	978,00
-11342,11	799,00
-11315,43	879,00
-11288,80	802,00
-11262,23	875,00
-11235,73	844,00
-11209,28	1046,00
-11182,90	941,00
-11156,57	806,00
-11130,31	1048,00
-11104,10	808,00
-11077,96	875,00
-11051,87	887,00
-11025,84	769,00
-10999,87	800,00
-10973,96	860,00
-10948,11	739,00
-10922,31	889,00
-10896,58	894,00
-10870,90	967,00
-10845,28	908,00
-10819,71	779,00
-10794,20	1000,00
-10768,75	879,00
-10743,36	957,00
-10718,02	801,00
-10692,74	831,00
-10667,52	921,00
-10642,35	883,00
-10617,24	918,00
-10592,18	976,00
-10567,18	836,00
-10542,23	946,00
-10517,34	911,00
-10492,51	987,00
-10467,72	874,00
-10443,00	936,00
-10418,32	955,00
-10393,70	1026,00
-10369,14	900,00
-10344,63	838,00
-10320,17	1027,00
-10295,77	1000,00
-10271,42	922,00
-10247,12	1027,00
-10222,88	1097,00
-10198,68	961,00
-10174,54	995,00
-10150,46	1286,00
-10126,42	1154,00
-10102,44	1093,00
-10078,51	1011,00
-10054,63	1159,00
-10030,80	1137,00
-10007,03	1262,00
-9983,30	1149,00
-9959,63	1186,00
-9936,01	1358,00
-9912,44	1290,00
-9888,92	1164,00
-9865,44	1146,00
-9842,02	1244,00
-9818,65	1288,00
-9795,33	1210,00
-9772,06	1355,00
-9748,84	1325,00
-9725,67	1423,00
-9702,55	1466,00
-9679,47	1654,00
-9656,45	1739,00
-9633,47	1560,00
-9610,55	1640,00
-9587,67	1821,00
-9564,84	2100,00
-9542,06	1983,00
-9519,32	2158,00
-9496,64	2372,00
-9474,00	2324,00
-9451,41	2356,00
-9428,87	2458,00
-9406,37	2371,00
-9383,92	2358,00
-9361,52	2221,00
-9339,17	2502,00
-9316,86	2686,00
-9294,60	2894,00
-9272,38	3304,00
-9250,21	3382,00
-9228,09	3533,00
-9206,01	3721,00
-9183,98	3299,00
-9162,00	3006,00
-9140,06	2973,00
-9118,16	3055,00
-9096,31	2997,00
-9074,51	3226,00
-9052,75	3395,00
-9031,04	3245,00
-9009,37	2942,00
-8987,74	2730,00
-8966,16	2724,00
-8944,63	2379,00
-8923,14	2358,00
-8901,69	2381,00
-8880,29	2441,00
-8858,93	2719,00
-8837,61	2810,00
-8816,34	2944,00
-8795,11	3006,00
-8773,92	2640,00
-8752,78	2571,00
-8731,68	2319,00
-8710,62	2564,00
-8689,61	2482,00
-8668,63	2670,00
-8647,70	2807,00
-8626,82	2654,00
-8605,97	2847,00
-8585,17	2700,00
-8564,41	2413,00
-8543,69	2448,00
-8523,01	2258,00
-8502,37	2458,00
-8481,78	2382,00
-8461,23	2383,00
-8440,71	2611,00
-8420,24	2657,00
-8399,81	2923,00
-8379,42	2802,00
-8359,08	2645,00
-8338,77	2462,00
-8318,50	2179,00
-8298,27	2121,00
-8278,09	2406,00
-8257,94	2466,00
-8237,83	2610,00
-8217,76	2711,00
-8197,74	2606,00
-8177,75	2594,00
-8157,80	2304,00
-8137,89	2266,00
-8118,02	2101,00
-8098,19	2256,00
-8078,40	2156,00
-8058,65	2213,00
-8038,93	2323,00
-8019,26	2292,00
-7999,62	2320,00
-7980,02	2060,00
-7960,46	1922,00
-7940,94	1857,00
-7921,46	1942,00
-7902,01	1880,00
-7882,60	2111,00
-7863,23	1842,00
-7843,90	2033,00
-7824,61	2045,00
-7805,35	2296,00
-7786,13	2236,00
-7766,95	2169,00
-7747,80	2109,00
-7728,69	2000,00
-7709,62	1935,00
-7690,59	2079,00
-7671,59	2135,00
-7652,63	2118,00
-7633,70	2216,00
-7614,81	2103,00
-7595,96	1953,00
-7577,15	1914,00
-7558,37	1863,00
-7539,62	1918,00
-7520,91	1960,00
-7502,24	2092,00
-7483,60	2013,00
-7465,00	1996,00
-7446,44	2084,00
-7427,91	1611,00
-7409,41	1694,00
-7390,95	1551,00
-7372,53	1442,00
-7354,14	1481,00
-7335,78	1566,00
-7317,46	1587,00
-7299,18	1599,00
-7280,92	1725,00
-7262,71	2008,00
-7244,52	2082,00
-7226,38	1915,00
-7208,26	1975,00
-7190,18	1890,00
-7172,14	1805,00
-7154,12	1850,00
-7136,15	1755,00
-7118,20	1981,00
-7100,29	2127,00
-7082,41	1961,00
-7064,57	1923,00
-7046,76	1910,00
-7028,98	1656,00
-7011,24	1620,00
-6993,53	1459,00
-6975,85	1403,00
-6958,20	1338,00
-6940,59	1332,00
-6923,01	1234,00
-6905,46	1466,00
-6887,94	1588,00
-6870,46	1973,00
-6853,01	1820,00
-6835,59	1791,00
-6818,21	1659,00
-6800,85	1755,00
-6783,53	1418,00
-6766,24	1329,00
-6748,98	1243,00
-6731,76	1152,00
-6714,56	1146,00
-6697,40	1068,00
-6680,26	1153,00
-6663,16	1304,00
-6646,09	1465,00
-6629,05	1607,00
-6612,05	1668,00
-6595,07	1584,00
-6578,13	1599,00
-6561,21	1240,00
-6544,33	1337,00
-6527,47	1122,00
-6510,65	1166,00
-6493,86	1013,00
-6477,10	1127,00
-6460,36	1266,00
-6443,66	1110,00
-6426,99	1133,00
-6410,35	1072,00
-6393,74	1265,00
-6377,16	1203,00
-6360,61	1257,00
-6344,09	1193,00
-6327,59	1292,00
-6311,13	1314,00
-6294,70	1358,00
-6278,29	1358,00
-6261,92	1402,00
-6245,58	1493,00
-6229,26	1555,00
-6212,97	1473,00
-6196,72	1248,00
-6180,49	1285,00
-6164,29	994,00
-6148,12	1096,00
-6131,98	1072,00
-6115,86	893,00
-6099,78	927,00
-6083,72	937,00
-6067,69	893,00
-6051,69	861,00
-6035,72	1060,00
-6019,78	1040,00
-6003,87	1228,00
-5987,98	1370,00
-5972,12	1338,00
-5956,29	1233,00
-5940,49	1099,00
-5924,71	1269,00
-5908,96	1058,00
-5893,24	1051,00
-5877,55	1011,00
-5861,89	1157,00
-5846,25	860,00
-5830,64	1056,00
-5815,05	1005,00
-5799,50	945,00
-5783,97	1126,00
-5768,47	1119,00
-5752,99	1277,00
-5737,55	1183,00
-5722,12	1161,00
-5706,73	1233,00
-5691,36	1277,00
-5676,02	1129,00
-5660,71	1015,00
-5645,42	1041,00
-5630,16	1082,00
-5614,92	1195,00
-5599,71	1137,00
-5584,53	1152,00
-5569,37	1126,00
-5554,24	1373,00
-5539,14	1050,00
-5524,06	1119,00
-5509,01	1133,00
-5493,98	1141,00
-5478,98	1161,00
-5464,00	1077,00
-5449,05	1160,00
-5434,13	1088,00
-5419,23	923,00
-5404,36	947,00
-5389,51	1118,00
-5374,69	1167,00
-5359,89	1354,00
-5345,12	1374,00
-5330,37	1403,00
-5315,65	1203,00
-5300,95	1207,00
-5286,28	1067,00
-5271,63	956,00
-5257,01	1050,00
-5242,41	1135,00
-5227,84	1044,00
-5213,29	956,00
-5198,76	998,00
-5184,26	1032,00
-5169,79	896,00
-5155,33	1062,00
-5140,91	1168,00
-5126,51	1113,00
-5112,13	1112,00
-5097,77	1127,00
-5083,44	1047,00
-5069,13	943,00
-5054,85	974,00
-5040,59	1087,00
-5026,36	1094,00
-5012,15	1300,00
-4997,96	1090,00
-4983,80	1049,00
-4969,66	1001,00
-4955,54	919,00
-4941,44	1079,00
-4927,37	1024,00
-4913,33	1245,00
-4899,30	1233,00
-4885,30	1372,00
-4871,33	1057,00
-4857,37	927,00
-4843,44	888,00
-4829,53	1041,00
-4815,65	1173,00
-4801,79	932,00
-4787,95	1139,00
-4774,13	954,00
-4760,34	858,00
-4746,56	1048,00
-4732,82	808,00
-4719,09	1108,00
-4705,38	1238,00
-4691,70	1220,00
-4678,04	1386,00
-4664,41	1159,00
-4650,79	1076,00
-4637,20	898,00
-4623,63	887,00
-4610,08	1028,00
-4596,56	1151,00
-4583,05	989,00
-4569,57	916,00
-4556,11	1037,00
-4542,67	828,00
-4529,25	890,00
-4515,86	1048,00
-4502,49	1134,00
-4489,13	1202,00
-4475,80	1344,00
-4462,49	961,00
-4449,21	1099,00
-4435,94	970,00
-4422,70	861,00
-4409,47	942,00
-4396,27	1091,00
-4383,09	945,00
-4369,93	950,00
-4356,79	766,00
-4343,67	924,00
-4330,58	1074,00
-4317,50	988,00
-4304,45	972,00
-4291,41	977,00
-4278,40	1005,00
-4265,41	794,00
-4252,44	969,00
-4239,49	931,00
-4226,55	970,00
-4213,65	984,00
-4200,76	1038,00
-4187,89	947,00
-4175,04	817,00
-4162,21	827,00
-4149,40	1005,00
-4136,61	941,00
-4123,85	804,00
-4111,10	931,00
-4098,37	967,00
-4085,66	951,00
-4072,98	921,00
-4060,31	788,00
-4047,66	1002,00
-4035,04	1098,00
-4022,43	889,00
-4009,84	928,00
-3997,27	782,00
-3984,72	901,00
-3972,19	912,00
-3959,69	879,00
-3947,20	795,00
-3934,73	899,00
-3922,27	803,00
-3909,84	836,00
-3897,43	874,00
-3885,04	886,00
-3872,67	873,00
-3860,31	894,00
-3847,98	1051,00
-3835,66	841,00
-3823,36	897,00
-3811,09	859,00
-3798,83	902,00
-3786,59	915,00
-3774,37	956,00
-3762,17	774,00
-3749,98	903,00
-3737,82	802,00
-3725,67	1083,00
-3713,55	805,00
-3701,44	942,00
-3689,35	892,00
-3677,28	994,00
-3665,22	841,00
-3653,19	840,00
-3641,17	829,00
-3629,18	837,00
-3617,20	919,00
-3605,24	866,00
-3593,30	965,00
-3581,37	923,00
-3569,47	948,00
-3557,58	871,00
-3545,71	945,00
-3533,86	869,00
-3522,02	860,00
-3510,21	919,00
-3498,41	844,00
-3486,63	876,00
-3474,87	824,00
-3463,12	867,00
-3451,40	883,00
-3439,69	893,00
-3428,00	914,00
-3416,33	903,00
-3404,67	887,00
-3393,03	838,00
-3381,41	969,00
-3369,81	915,00
-3358,22	964,00
-3346,66	1004,00
-3335,10	850,00
-3323,57	868,00
-3312,06	899,00
-3300,56	884,00
-3289,08	806,00
-3277,61	830,00
-3266,16	918,00
-3254,73	841,00
-3243,32	816,00
-3231,92	808,00
-3220,55	922,00
-3209,18	957,00
-3197,84	843,00
-3186,51	852,00
-3175,20	840,00
-3163,90	791,00
-3152,63	911,00
-3141,36	861,00
-3130,12	980,00
-3118,89	907,00
-3107,68	902,00
-3096,49	880,00
-3085,31	829,00
-3074,15	859,00
-3063,00	911,00
-3051,87	809,00
-3040,76	891,00
-3029,67	1008,00
-3018,59	1053,00
-3007,52	1003,00
-2996,48	902,00
-2985,44	809,00
-2974,43	886,00
-2963,43	801,00
-2952,45	899,00
-2941,48	876,00
-2930,53	859,00
-2919,60	703,00
-2908,68	825,00
-2897,78	900,00
-2886,89	939,00
-2876,02	929,00
-2865,17	869,00
-2854,33	955,00
-2843,50	929,00
-2832,70	887,00
-2821,90	895,00
-2811,13	939,00
-2800,37	849,00
-2789,62	743,00
-2778,89	941,00
-2768,18	1030,00
-2757,48	856,00
-2746,80	933,00
-2736,13	848,00
-2725,48	992,00
-2714,84	843,00
-2704,22	878,00
-2693,61	818,00
-2683,02	802,00
-2672,45	883,00
-2661,89	963,00
-2651,34	852,00
-2640,81	897,00
-2630,30	975,00
-2619,80	814,00
-2609,31	968,00
-2598,84	846,00
-2588,39	901,00
-2577,95	845,00
-2567,52	823,00
-2557,11	838,00
-2546,71	924,00
-2536,33	1035,00
-2525,97	887,00
-2515,62	961,00
-2505,28	903,00
-2494,96	868,00
-2484,65	972,00
-2474,36	1155,00
-2464,08	832,00
-2453,82	974,00
-2443,57	832,00
-2433,33	867,00
-2423,11	981,00
-2412,91	1034,00
-2402,72	785,00
-2392,54	855,00
-2382,38	924,00
-2372,23	943,00
-2362,09	-1838,00
-2351,97	866,00
-2341,87	781,00
-2331,78	936,00
-2321,70	929,00
-2311,64	915,00
-2301,59	852,00
-2291,55	810,00
-2281,53	863,00
-2271,53	809,00
-2261,53	1017,00
-2251,55	933,00
-2241,59	847,00
-2231,64	913,00
-2221,70	880,00
-2211,78	885,00
-2201,87	929,00
-2191,97	865,00
-2182,09	788,00
-2172,22	921,00
-2162,37	814,00
-2152,53	753,00
-2142,70	854,00
-2132,89	825,00
-2123,09	951,00
-2113,30	919,00
-2103,53	906,00
-2093,77	861,00
-2084,02	812,00
-2074,29	928,00
-2064,57	878,00
-2054,86	886,00
-2045,17	980,00
-2035,49	940,00
-2025,82	828,00
-2016,17	896,00
-2006,53	860,00
-1996,91	871,00
-1987,29	846,00
-1977,69	883,00
-1968,11	822,00
-1958,53	830,00
-1948,97	861,00
-1939,42	873,00
-1929,89	844,00
-1920,37	887,00
-1910,86	833,00
-1901,36	978,00
-1891,88	849,00
-1882,41	907,00
-1872,95	919,00
-1863,51	902,00
-1854,08	909,00
-1844,66	970,00
-1835,26	982,00
-1825,86	961,00
-1816,48	769,00
-1807,11	1004,00
-1797,76	868,00
-1788,42	920,00
-1779,09	939,00
-1769,77	875,00
-1760,47	940,00
-1751,17	846,00
-1741,89	851,00
-1732,63	979,00
-1723,37	978,00
-1714,13	989,00
-1704,90	809,00
-1695,68	975,00
-1686,48	839,00
-1677,29	831,00
-1668,11	1037,00
-1658,94	863,00
-1649,78	830,00
-1640,64	882,00
-1631,51	828,00
-1622,39	969,00
-1613,28	933,00
-1604,19	1083,00
-1595,10	899,00
-1586,03	870,00
-1576,97	963,00
-1567,93	760,00
-1558,89	908,00
-1549,87	930,00
-1540,86	852,00
-1531,86	894,00
-1522,87	788,00
-1513,90	1044,00
-1504,93	936,00
-1495,98	929,00
-1487,04	1036,00
-1478,12	803,00
-1469,20	853,00
-1460,30	892,00
-1451,40	1057,00
-1442,52	921,00
-1433,65	1028,00
-1424,80	870,00
-1415,95	810,00
-1407,12	1080,00
-1398,30	899,00
-1389,48	917,00
-1380,69	804,00
-1371,90	811,00
-1363,12	880,00
-1354,36	1012,00
-1345,60	847,00
-1336,86	946,00
-1328,13	1013,00
-1319,41	838,00
-1310,70	829,00
-1302,01	819,00
-1293,32	832,00
-1284,65	797,00
-1275,99	972,00
-1267,33	981,00
-1258,69	964,00
-1250,06	884,00
-1241,45	779,00
-1232,84	994,00
-1224,25	875,00
-1215,66	896,00
-1207,09	988,00
-1198,53	870,00
-1189,97	842,00
-1181,43	823,00
-1172,91	887,00
-1164,39	958,00
-1155,88	789,00
-1147,38	724,00
-1138,90	805,00
-1130,43	850,00
-1121,96	894,00
-1113,51	892,00
-1105,07	837,00
-1096,64	960,00
-1088,22	906,00
-1079,81	1002,00
-1071,41	1009,00
-1063,02	872,00
-1054,65	990,00
-1046,28	867,00
-1037,92	893,00
-1029,58	849,00
-1021,24	988,00
-1012,92	1226,00
-1004,61	853,00
-996,30	1065,00
-988,01	784,00
-979,73	946,00
-971,46	924,00
-963,20	858,00
-954,95	773,00
-946,71	853,00
-938,48	941,00
-930,26	962,00
-922,06	928,00
-913,86	762,00
-905,67	783,00
-897,49	888,00
-889,33	717,00
-881,17	935,00
-873,02	873,00
-864,89	856,00
-856,76	892,00
-848,65	968,00
-840,54	900,00
-832,45	990,00
-824,36	759,00
-816,29	900,00
-808,22	939,00
-800,17	899,00
-792,12	958,00
-784,09	962,00
-776,06	922,00
-768,05	882,00
-760,04	862,00
-752,05	922,00
-744,07	877,00
-736,09	863,00
-728,13	728,00
-720,17	951,00
-712,23	850,00
-704,29	845,00
-696,37	908,00
-688,45	926,00
-680,55	920,00
-672,65	885,00
-664,77	865,00
-656,89	848,00
-649,03	832,00
-641,17	989,00
-633,32	965,00
-625,49	935,00
-617,66	881,00
-609,84	952,00
-602,03	760,00
-594,23	859,00
-586,45	907,00
-578,67	858,00
-570,90	879,00
-563,14	811,00
-555,39	924,00
-547,65	913,00
-539,91	876,00
-532,19	855,00
-524,48	916,00
-516,78	838,00
-509,08	866,00
-501,40	942,00
-493,72	924,00
-486,06	822,00
-478,40	972,00
-470,76	757,00
-463,12	748,00
-455,49	840,00
-447,87	816,00
-440,26	888,00
-432,66	801,00
-425,07	894,00
-417,49	970,00
-409,92	728,00
-402,35	820,00
-394,80	757,00
-387,25	923,00
-379,72	913,00
-372,19	949,00
-364,67	952,00
-357,17	895,00
-349,67	903,00
-342,18	967,00
-334,69	891,00
-327,22	943,00
-319,76	946,00
-312,30	892,00
-304,86	845,00
-297,42	908,00
-290,00	876,00
-282,58	951,00
-275,17	1004,00
-267,77	1015,00
-260,37	901,00
-252,99	977,00
-245,62	976,00
-238,25	924,00
-230,90	873,00
-223,55	989,00
-216,21	1037,00
-208,88	1085,00
-201,56	869,00
-194,25	1056,00
-186,94	1051,00
-179,65	1004,00
-172,36	1099,00
-165,08	1124,00
-157,81	1121,00
-150,55	1217,00
-143,30	1155,00
-136,06	1272,00
-128,82	1310,00
-121,60	1329,00
-114,38	1425,00
-107,17	1540,00
-99,97	1801,00
-92,78	1711,00
-85,60	1803,00
-78,42	1948,00
-71,25	2004,00
-64,10	2295,00
-56,95	2662,00
-49,81	2887,00
-42,67	3543,00
-35,55	4010,00
-28,43	5234,00
-21,33	8098,00
-14,23	24921,00
-7,14	57498,00
-0,05	57284,00
7,02	57012,00
14,09	57319,00
21,14	21303,00
28,19	9375,00
35,23	6296,00
42,27	5177,00
49,29	4183,00
56,31	3734,00
63,32	3235,00
70,32	2819,00
77,31	2456,00
84,29	2310,00
91,27	2201,00
98,23	2133,00
105,19	2003,00
112,14	2150,00
119,09	2991,00
126,02	4353,00
132,95	5048,00
139,87	4944,00
146,78	5155,00
153,68	5006,00
160,58	4868,00
167,46	4608,00
174,34	4794,00
181,21	4827,00
188,08	4749,00
194,93	4834,00
201,78	4714,00
208,62	4818,00
215,45	4788,00
222,27	4661,00
229,09	4781,00
235,90	4595,00
242,70	4510,00
249,49	4625,00
256,27	4431,00
263,05	4376,00
269,82	4285,00
276,58	4254,00
283,33	4250,00
290,08	4206,00
296,82	3989,00
303,55	3958,00
310,27	3898,00
316,98	3937,00
323,69	3972,00
330,39	3879,00
337,08	3961,00
343,76	3941,00
350,44	4027,00
357,11	3866,00
363,77	3839,00
370,42	3821,00
377,07	3911,00
383,71	3878,00
390,34	3747,00
396,96	3854,00
403,58	3874,00
410,19	4015,00
416,79	3983,00
423,38	4189,00
429,97	4174,00
436,55	4081,00
443,12	4200,00
449,68	4166,00
456,24	4000,00
462,79	3854,00
469,33	3775,00
475,86	3675,00
482,39	3446,00
488,91	3534,00
495,42	3346,00
501,93	3388,00
508,42	3290,00
514,91	3302,00
521,40	3237,00
527,87	3319,00
534,34	3151,00
540,80	3201,00
547,25	3353,00
553,70	3199,00
560,14	3249,00
566,57	3314,00
573,00	3213,00
579,41	3401,00
585,83	3408,00
592,23	3501,00
598,62	3508,00
605,01	3506,00
611,40	3708,00
617,77	3541,00
624,14	3386,00
630,50	3363,00
636,85	3210,00
643,20	3090,00
649,54	2950,00
655,87	2986,00
662,20	3004,00
668,52	3003,00
674,83	2926,00
681,13	2894,00
687,43	2961,00
693,72	2908,00
700,00	2749,00
706,28	2767,00
712,55	2852,00
718,81	2903,00
725,07	2815,00
731,32	2849,00
737,56	2899,00
743,79	2854,00
750,02	2871,00
756,24	2721,00
762,46	2686,00
768,67	2952,00
774,87	2713,00
781,06	2671,00
787,25	2826,00
793,43	2742,00
799,60	2635,00
805,77	2843,00
811,93	2726,00
818,08	2743,00
824,23	2651,00
830,37	2917,00
836,50	2731,00
842,63	2765,00
848,75	2765,00
854,87	2603,00
860,97	2773,00
867,07	2733,00
873,17	2841,00
879,25	2735,00
885,33	2771,00
891,41	2906,00
897,47	2750,00
903,53	2681,00
909,59	2718,00
915,63	2684,00
921,67	2662,00
927,71	2709,00
933,74	2671,00
939,76	2408,00
945,77	2471,00
951,78	2703,00
957,78	2437,00
963,78	2604,00
969,77	2481,00
975,75	2463,00
981,72	2472,00
987,69	3768,00
993,66	2615,00
999,61	2586,00
1005,56	2611,00
1011,51	2558,00
1017,44	2611,00
1023,37	2515,00
1029,30	2641,00
1035,22	2705,00
1041,13	2669,00
1047,03	2941,00
1052,93	3435,00
1058,83	4860,00
1064,71	5183,00
1070,59	4392,00
1076,47	3539,00
1082,33	3332,00
1088,20	3144,00
1094,05	2948,00
1099,90	2720,00
1105,74	2762,00
1111,58	2831,00
1117,41	3183,00
1123,23	4124,00
1129,05	5066,00
1134,86	4662,00
1140,67	3551,00
1146,47	2899,00
1152,26	2736,00
1158,05	2660,00
1163,83	2828,00
1169,60	2898,00
1175,37	2765,00
1181,13	2635,00
1186,89	2460,00
1192,64	2508,00
1198,38	2579,00
1204,12	2405,00
1209,85	2492,00
1215,58	2388,00
1221,30	2427,00
1227,02	2456,00
1232,72	2445,00
1238,43	2315,00
1244,12	2304,00
1249,81	2352,00
1255,50	2648,00
1261,17	2542,00
1266,85	2581,00
1272,51	2660,00
1278,17	2833,00
1283,83	3177,00
1289,47	4746,00
1295,12	6222,00
1300,75	5609,00
1306,38	4300,00
1312,01	3426,00
1317,63	3064,00
1323,24	2811,00
1328,85	2664,00
1334,45	2575,00
1340,04	2505,00
1345,63	2413,00
1351,22	2635,00
1356,80	2490,00
1362,37	2651,00
1367,93	2616,00
1373,49	2765,00
1379,05	2651,00
1384,60	2442,00
1390,14	2561,00
1395,68	2470,00
1401,21	2557,00
1406,74	2866,00
1412,26	3525,00
1417,77	4203,00
1423,28	3930,00
1428,78	4227,00
1434,28	5460,00
1439,77	6215,00
1445,26	6049,00
1450,74	5671,00
1456,22	5170,00
1461,68	5112,00
1467,15	4727,00
1472,61	4027,00
1478,06	3601,00
1483,51	3038,00
1488,95	2770,00
1494,38	2671,00
1499,81	2350,00
1505,24	2358,00
1510,65	2427,00
1516,07	2341,00
1521,48	2308,00
1526,88	2136,00
1532,27	2234,00
1537,67	2223,00
1543,05	2185,00
1548,43	2155,00
1553,81	2249,00
1559,18	2015,00
1564,54	2059,00
1569,90	2075,00
1575,25	2036,00
1580,60	1930,00
1585,94	2041,00
1591,28	2019,00
1596,61	1964,00
1601,93	2080,00
1607,25	2036,00
1612,57	1958,00
1617,88	1988,00
1623,18	1982,00
1628,48	1930,00
1633,77	1975,00
1639,06	2054,00
1644,34	1912,00
1649,62	1931,00
1654,89	1903,00
1660,16	1833,00
1665,42	1949,00
1670,67	1915,00
1675,92	1840,00
1681,17	1832,00
1686,41	1856,00
1691,64	1876,00
1696,87	1915,00
1702,10	1885,00
1707,32	1861,00
1712,53	1742,00
1717,74	1846,00
1722,94	1892,00
1728,14	1679,00
1733,33	1749,00
1738,52	1706,00
1743,70	1742,00
1748,88	1772,00
1754,05	1888,00
1759,22	1693,00
1764,38	2063,00
1769,53	1793,00
1774,69	1807,00
1779,83	1591,00
1784,97	1679,00
1790,11	1624,00
1795,24	1583,00
1800,36	1656,00
1805,48	1581,00
1810,60	1686,00
1815,71	1686,00
1820,82	1608,00
1825,92	1731,00
1831,01	1647,00
1836,10	1643,00
1841,19	1648,00
1846,26	1492,00
1851,34	1677,00
1856,41	1605,00
1861,47	1569,00
1866,53	1669,00
1871,59	1599,00
1876,64	1567,00
1881,68	1594,00
1886,72	1557,00
1891,76	1571,00
1896,79	1513,00
1901,81	1437,00
1906,83	1575,00
1911,85	1477,00
1916,86	1497,00
1921,86	1578,00
1926,86	1426,00
1931,86	1526,00
1936,85	1501,00
1941,83	1418,00
1946,81	1481,00
1951,79	1413,00
1956,76	1373,00
1961,72	1284,00
1966,68	1493,00
1971,64	1465,00
1976,59	1434,00
1981,54	1375,00
1986,48	1503,00
1991,42	1259,00
1996,35	1684,00
2001,27	1428,00
2006,20	1406,00
2011,11	1538,00
2016,03	1387,00
2020,93	1334,00
2025,84	1446,00
2030,73	1379,00
2035,63	1250,00
2040,52	1406,00
2045,40	1329,00
2050,28	1271,00
2055,15	1355,00
2060,02	1247,00
2064,89	1504,00
2069,75	1280,00
2074,60	1369,00
2079,46	1328,00
2084,30	1306,00
2089,14	1301,00
2093,98	1428,00
2098,81	1342,00
2103,64	1358,00
2108,46	1396,00
2113,28	1392,00
2118,09	1371,00
2122,90	1378,00
2127,70	1267,00
2132,50	1309,00
2137,30	1305,00
2142,09	1156,00
2146,87	1260,00
2151,66	1329,00
2156,43	1293,00
2161,20	1333,00
2165,97	1445,00
2170,73	1313,00
2175,49	1438,00
2180,24	1405,00
2184,99	1488,00
2189,74	1525,00
2194,48	1364,00
2199,21	1379,00
2203,94	1275,00
2208,67	1240,00
2213,39	1169,00
2218,11	1362,00
2222,82	1251,00
2227,53	1282,00
2232,23	1364,00
2236,93	1437,00
2241,63	1285,00
2246,32	1333,00
2251,00	1261,00
2255,68	1306,00
2260,36	1275,00
2265,03	1302,00
2269,70	1415,00
2274,36	1228,00
2279,02	1360,00
2283,68	1250,00
2288,33	1329,00
2292,97	1347,00
2297,61	1222,00
2302,25	1256,00
2306,88	1251,00
2311,51	1195,00
2316,14	1178,00
2320,75	1152,00
2325,37	1185,00
2329,98	1263,00
2334,59	1183,00
2339,19	1124,00
2343,79	1147,00
2348,38	1223,00
2352,97	1093,00
2357,55	1274,00
2362,13	1132,00
2366,71	1089,00
2371,28	1230,00
2375,85	1250,00
2380,41	1247,00
2384,97	1154,00
2389,52	1272,00
2394,07	1307,00
2398,62	1270,00
2403,16	1245,00
2407,70	1073,00
2412,23	1096,00
2416,76	1258,00
2421,29	1273,00
2425,81	1277,00
2430,32	1240,00
2434,84	1122,00
2439,34	1268,00
2443,85	1346,00
2448,35	1167,00
2452,84	1143,00
2457,33	1235,00
2461,82	1153,00
2466,30	1064,00
2470,78	1136,00
2475,25	1175,00
2479,72	1075,00
2484,19	1187,00
2488,65	1271,00
2493,11	1126,00
2497,56	1282,00
2502,01	1057,00
2506,46	1227,00
2510,90	1170,00
2515,34	1091,00
2519,77	1153,00
2524,20	1191,00
2528,62	1184,00
2533,04	1200,00
2537,46	1161,00
2541,87	1111,00
2546,28	1082,00
2550,68	1226,00
2555,08	1190,00
2559,48	1151,00
2563,87	1066,00
2568,26	1085,00
2572,64	1206,00
2577,02	1184,00
2581,40	1051,00
2585,77	1213,00
2590,14	1122,00
2594,50	1041,00
2598,86	1229,00
2603,22	1132,00
2607,57	1115,00
2611,92	1169,00
2616,26	1328,00
2620,60	1266,00
2624,94	1174,00
2629,27	1268,00
2633,60	1128,00
2637,92	1330,00
2642,24	1303,00
2646,56	1307,00
2650,87	1106,00
2655,18	1301,00
2659,48	1138,00
2663,78	1162,00
2668,08	1171,00
2672,37	1310,00
2676,66	1210,00
2680,95	1231,00
2685,23	1261,00
2689,50	1275,00
2693,78	1246,00
2698,05	1240,00
2702,31	1298,00
2706,57	1455,00
2710,83	1535,00
2715,08	1587,00
2719,33	1592,00
2723,58	1573,00
2727,82	1634,00
2732,06	1502,00
2736,29	1397,00
2740,53	1401,00
2744,75	1367,00
2748,97	1417,00
2753,19	1473,00
2757,41	1348,00
2761,62	1410,00
2765,83	1419,00
2770,03	1321,00
2774,23	1426,00
2778,43	1383,00
2782,62	1476,00
2786,81	1459,00
2791,00	1437,00
2795,18	1506,00
2799,35	1579,00
2803,53	1571,00
2807,70	1642,00
2811,86	1660,00
2816,03	1884,00
2820,19	1694,00
2824,34	1908,00
2828,49	2075,00
2832,64	2370,00
2836,78	2841,00
2840,92	3257,00
2845,06	3861,00
2849,19	4326,00
2853,32	4511,00
2857,45	4463,00
2861,57	4498,00
2865,69	4219,00
2869,80	4124,00
2873,91	4269,00
2878,02	4936,00
2882,12	5215,00
2886,22	5243,00
2890,32	4975,00
2894,41	4656,00
2898,50	4160,00
2902,58	3909,00
2906,67	3704,00
2910,74	3391,00
2914,82	3090,00
2918,89	3061,00
2922,96	2778,00
2927,02	2684,00
2931,08	2481,00
2935,13	2358,00
2939,19	2353,00
2943,24	2031,00
2947,28	2051,00
2951,32	1750,00
2955,36	1635,00
2959,40	1723,00
2963,43	1616,00
2967,46	1562,00
2971,48	1475,00
2975,50	1381,00
2979,52	1372,00
2983,53	1388,00
2987,54	1398,00
2991,55	1281,00
2995,55	1271,00
2999,55	1189,00
3003,54	1045,00
3007,54	1192,00
3011,53	1224,00
3015,51	1151,00
3019,49	1116,00
3023,47	1060,00
3027,45	1151,00
3031,42	1011,00
3035,39	1089,00
3039,35	1021,00
3043,31	1159,00
3047,27	1053,00
3051,22	1131,00
3055,17	978,00
3059,12	978,00
3063,06	1031,00
3067,00	965,00
3070,94	993,00
3074,87	1137,00
3078,80	1005,00
3082,73	1031,00
3086,65	960,00
3090,57	968,00
3094,49	1010,00
3098,40	895,00
3102,31	976,00
3106,22	973,00
3110,12	944,00
3114,02	947,00
3117,92	1024,00
3121,81	916,00
3125,70	964,00
3129,58	934,00
3133,47	939,00
3137,34	962,00
3141,22	978,00
3145,09	953,00
3148,96	958,00
3152,83	964,00
3156,69	969,00
3160,55	941,00
3164,40	1052,00
3168,26	1091,00
3172,10	954,00
3175,95	959,00
3179,79	968,00
3183,63	894,00
3187,47	923,00
3191,30	989,00
3195,13	981,00
3198,95	821,00
3202,78	1004,00
3206,60	893,00
3210,41	851,00
3214,23	925,00
3218,03	889,00
3221,84	903,00
3225,64	930,00
3229,44	850,00
3233,24	951,00
3237,03	980,00
3240,82	841,00
3244,61	896,00
3248,39	895,00
3252,17	903,00
3255,95	1020,00
3259,72	937,00
3263,49	1109,00
3267,26	845,00
3271,03	879,00
3274,79	895,00
3278,54	910,00
3282,30	752,00
3286,05	982,00
3289,80	942,00
3293,54	938,00
3297,29	944,00
3301,02	872,00
3304,76	1000,00
3308,49	940,00
3312,22	845,00
3315,95	937,00
3319,67	813,00
3323,39	1051,00
3327,10	964,00
3330,82	898,00
3334,53	914,00
3338,24	961,00
3341,94	858,00
3345,64	869,00
3349,34	897,00
3353,03	915,00
3356,72	914,00
3360,41	1000,00
3364,10	826,00
3367,78	798,00
3371,46	919,00
3375,13	922,00
3378,81	1053,00
3382,48	804,00
3386,14	966,00
3389,81	937,00
3393,47	942,00
3397,12	1037,00
3400,78	893,00
3404,43	902,00
3408,08	924,00
3411,72	903,00
3415,36	916,00
3419,00	883,00
3422,64	828,00
3426,27	918,00
3429,90	849,00
3433,53	909,00
3437,15	800,00
3440,77	763,00
3444,39	882,00
3448,00	897,00
3451,62	863,00
3455,22	952,00
3458,83	788,00
3462,43	860,00
3466,03	954,00
3469,63	904,00
3473,22	791,00
3476,81	810,00
3480,40	959,00
3483,99	828,00
3487,57	933,00
3491,15	833,00
3494,72	813,00
3498,29	925,00
3501,86	798,00
3505,43	888,00
3508,99	815,00
3512,56	720,00
3516,11	888,00
3519,67	818,00
3523,22	873,00
3526,77	791,00
3530,32	1006,00
3533,86	915,00
3537,40	948,00
3540,94	994,00
3544,47	856,00
3548,00	860,00
3551,53	940,00
3555,06	828,00
3558,58	905,00
3562,10	897,00
3565,62	813,00
3569,13	843,00
3572,64	988,00
3576,15	777,00
3579,66	888,00
3583,16	780,00
3586,66	875,00
3590,16	873,00
3593,65	775,00
3597,14	843,00
3600,63	813,00
3604,11	872,00
3607,60	830,00
3611,08	886,00
3614,55	828,00
3618,03	739,00
3621,50	791,00
3624,97	782,00
3628,43	876,00
3631,90	731,00
3635,36	754,00
3638,81	818,00
3642,27	844,00
3645,72	833,00
3649,17	761,00
3652,61	728,00
3656,06	728,00
3659,50	756,00
3662,93	819,00
3666,37	840,00
3669,80	973,00
3673,23	860,00
3676,65	762,00
3680,08	970,00
3683,50	652,00
3686,92	823,00
3690,33	782,00
3693,74	718,00
3697,15	727,00
3700,56	887,00
3703,96	875,00
3707,36	693,00
3710,76	709,00
3714,16	805,00
3717,55	750,00
3720,94	751,00
3724,33	747,00
3727,71	795,00
3731,10	761,00
3734,48	770,00
3737,85	744,00
3741,23	697,00
3744,60	704,00
3747,97	659,00
3751,33	785,00
3754,69	776,00
3758,05	728,00
3761,41	691,00
3764,77	744,00
3768,12	635,00
3771,47	620,00
3774,82	676,00
3778,16	-7,00
3781,50	16,00
3784,84	8,00
3788,18	6,00
>>>>>End Processed Spectral Data<<<<<
