SpectraSuite Data File
++++++++++++++++++++++++++++++++++++
Date: Mon Jan 05 16:33:22 ICT 2026
User: Administrator
Dark Spectrum Present: Yes
Reference Spectrum Present: No
Number of Sampled Component Spectra: 1
Spectrometers: MAYP113682
Integration Time (usec): 3000000 (MAYP113682)
Spectra Averaged: 1 (MAYP113682)
Boxcar Smoothing: 0 (MAYP113682)
Correct for Electrical Dark: No (MAYP113682)
Strobe/Lamp Enabled: No (MAYP113682)
Correct for Detector Non-linearity: No (MAYP113682)
Correct for Stray Light: No (MAYP113682)
Number of Pixels in Processed Spectrum: 2068
>>>>>Begin Processed Spectral Data<<<<<
-37534,58	30,00
-37414,56	9,00
-37295,11	8,00
-37176,24	0,00
-37057,95	615,00
-36940,22	679,00
-36823,05	761,00
-36706,45	755,00
-36590,40	783,00
-36474,90	746,00
-36359,95	834,00
-36245,55	781,00
-36131,68	736,00
-36018,35	837,00
-35905,55	731,00
-35793,29	860,00
-35681,54	738,00
-35570,32	802,00
-35459,62	728,00
-35349,43	814,00
-35239,75	833,00
-35130,58	797,00
-35021,91	806,00
-34913,74	833,00
-34806,07	784,00
-34698,89	865,00
-34592,20	826,00
-34486,00	802,00
-34380,28	875,00
-34275,04	734,00
-34170,27	688,00
-34065,98	985,00
-33962,16	830,00
-33858,81	859,00
-33755,92	758,00
-33653,49	860,00
-33551,52	956,00
-33450,01	880,00
-33348,94	861,00
-33248,33	826,00
-33148,16	786,00
-33048,43	856,00
-32949,14	987,00
-32850,29	1039,00
-32751,87	890,00
-32653,89	953,00
-32556,33	994,00
-32459,20	819,00
-32362,49	907,00
-32266,19	878,00
-32170,32	825,00
-32074,86	916,00
-31979,82	941,00
-31885,18	1006,00
-31790,95	986,00
-31697,12	943,00
-31603,69	915,00
-31510,67	992,00
-31418,04	918,00
-31325,80	855,00
-31233,95	844,00
-31142,49	871,00
-31051,42	792,00
-30960,73	1107,00
-30870,43	906,00
-30780,50	880,00
-30690,95	854,00
-30601,77	1016,00
-30512,97	948,00
-30424,53	895,00
-30336,46	898,00
-30248,76	935,00
-30161,42	981,00
-30074,44	857,00
-29987,81	908,00
-29901,55	1007,00
-29815,63	851,00
-29730,07	1000,00
-29644,86	980,00
-29560,00	995,00
-29475,48	854,00
-29391,30	906,00
-29307,47	887,00
-29223,97	856,00
-29140,81	941,00
-29057,99	973,00
-28975,50	848,00
-28893,34	940,00
-28811,51	866,00
-28730,00	928,00
-28648,82	765,00
-28567,97	867,00
-28487,43	895,00
-28407,21	810,00
-28327,32	798,00
-28247,73	1089,00
-28168,46	839,00
-28089,50	895,00
-28010,85	732,00
-27932,51	783,00
-27854,48	886,00
-27776,75	800,00
-27699,32	822,00
-27622,19	902,00
-27545,37	855,00
-27468,84	977,00
-27392,60	901,00
-27316,66	929,00
-27241,01	925,00
-27165,66	870,00
-27090,59	791,00
-27015,81	970,00
-26941,31	972,00
-26867,10	811,00
-26793,17	972,00
-26719,52	897,00
-26646,15	798,00
-26573,06	882,00
-26500,24	854,00
-26427,70	927,00
-26355,43	757,00
-26283,43	881,00
-26211,71	897,00
-26140,25	984,00
-26069,06	1030,00
-25998,13	794,00
-25927,46	802,00
-25857,06	814,00
-25786,92	834,00
-25717,04	789,00
-25647,42	1086,00
-25578,05	835,00
-25508,94	893,00
-25440,09	879,00
-25371,48	870,00
-25303,13	930,00
-25235,02	861,00
-25167,17	841,00
-25099,56	865,00
-25032,19	886,00
-24965,07	802,00
-24898,20	782,00
-24831,56	816,00
-24765,17	919,00
-24699,01	823,00
-24633,10	860,00
-24567,41	897,00
-24501,97	812,00
-24436,75	898,00
-24371,77	833,00
-24307,03	856,00
-24242,51	822,00
-24178,22	906,00
-24114,16	866,00
-24050,32	967,00
-23986,71	839,00
-23923,32	889,00
-23860,16	859,00
-23797,22	943,00
-23734,50	841,00
-23672,00	784,00
-23609,71	933,00
-23547,65	714,00
-23485,80	1030,00
-23424,16	811,00
-23362,74	1020,00
-23301,53	891,00
-23240,54	783,00
-23179,75	788,00
-23119,17	791,00
-23058,80	832,00
-22998,64	991,00
-22938,68	874,00
-22878,93	756,00
-22819,39	783,00
-22760,04	832,00
-22700,90	881,00
-22641,96	764,00
-22583,22	801,00
-22524,68	796,00
-22466,33	843,00
-22408,19	872,00
-22350,23	872,00
-22292,48	821,00
-22234,92	903,00
-22177,55	902,00
-22120,37	991,00
-22063,38	835,00
-22006,58	881,00
-21949,98	877,00
-21893,56	761,00
-21837,33	814,00
-21781,28	816,00
-21725,42	910,00
-21669,74	952,00
-21614,25	882,00
-21558,94	894,00
-21503,81	898,00
-21448,86	927,00
-21394,10	865,00
-21339,51	831,00
-21285,10	763,00
-21230,86	796,00
-21176,81	815,00
-21122,93	809,00
-21069,22	764,00
-21015,69	876,00
-20962,33	920,00
-20909,14	822,00
-20856,13	920,00
-20803,28	852,00
-20750,61	824,00
-20698,10	742,00
-20645,76	840,00
-20593,59	917,00
-20541,59	932,00
-20489,75	937,00
-20438,07	739,00
-20386,56	926,00
-20335,22	744,00
-20284,03	788,00
-20233,01	862,00
-20182,15	909,00
-20131,45	824,00
-20080,91	763,00
-20030,52	855,00
-19980,30	791,00
-19930,23	782,00
-19880,32	908,00
-19830,56	881,00
-19780,96	931,00
-19731,52	808,00
-19682,23	861,00
-19633,09	771,00
-19584,10	770,00
-19535,26	818,00
-19486,58	1060,00
-19438,04	813,00
-19389,66	980,00
-19341,42	795,00
-19293,33	893,00
-19245,39	852,00
-19197,60	934,00
-19149,95	836,00
-19102,45	890,00
-19055,09	714,00
-19007,87	943,00
-18960,80	868,00
-18913,87	887,00
-18867,09	834,00
-18820,44	956,00
-18773,94	859,00
-18727,57	834,00
-18681,35	811,00
-18635,26	921,00
-18589,31	788,00
-18543,50	856,00
-18497,83	861,00
-18452,29	828,00
-18406,89	671,00
-18361,63	936,00
-18316,50	920,00
-18271,50	881,00
-18226,63	1002,00
-18181,90	866,00
-18137,30	1003,00
-18092,84	809,00
-18048,50	940,00
-18004,29	782,00
-17960,22	745,00
-17916,27	805,00
-17872,45	936,00
-17828,76	947,00
-17785,20	909,00
-17741,77	856,00
-17698,46	887,00
-17655,28	778,00
-17612,22	938,00
-17569,29	846,00
-17526,48	871,00
-17483,79	923,00
-17441,23	853,00
-17398,79	823,00
-17356,48	737,00
-17314,28	909,00
-17272,21	852,00
-17230,26	864,00
-17188,42	887,00
-17146,71	968,00
-17105,12	881,00
-17063,64	864,00
-17022,28	811,00
-16981,04	759,00
-16939,92	923,00
-16898,91	926,00
-16858,02	816,00
-16817,25	938,00
-16776,59	820,00
-16736,04	809,00
-16695,61	915,00
-16655,29	795,00
-16615,09	878,00
-16574,99	822,00
-16535,01	895,00
-16495,15	845,00
-16455,39	784,00
-16415,74	758,00
-16376,21	905,00
-16336,78	805,00
-16297,46	905,00
-16258,26	788,00
-16219,16	791,00
-16180,17	847,00
-16141,28	945,00
-16102,51	913,00
-16063,84	853,00
-16025,27	915,00
-15986,82	800,00
-15948,46	886,00
-15910,22	847,00
-15872,07	814,00
-15834,04	867,00
-15796,10	834,00
-15758,27	989,00
-15720,54	859,00
-15682,91	865,00
-15645,39	979,00
-15607,97	875,00
-15570,64	787,00
-15533,42	875,00
-15496,30	885,00
-15459,28	830,00
-15422,36	875,00
-15385,54	772,00
-15348,82	868,00
-15312,19	986,00
-15275,66	792,00
-15239,23	901,00
-15202,90	803,00
-15166,67	867,00
-15130,53	940,00
-15094,48	887,00
-15058,54	860,00
-15022,68	842,00
-14986,93	851,00
-14951,26	906,00
-14915,69	925,00
-14880,22	762,00
-14844,84	806,00
-14809,55	932,00
-14774,35	917,00
-14739,25	816,00
-14704,24	888,00
-14669,32	839,00
-14634,49	771,00
-14599,75	911,00
-14565,10	809,00
-14530,55	836,00
-14496,08	859,00
-14461,70	879,00
-14427,41	817,00
-14393,21	768,00
-14359,10	782,00
-14325,07	859,00
-14291,14	848,00
-14257,29	857,00
-14223,52	850,00
-14189,85	964,00
-14156,26	787,00
-14122,76	791,00
-14089,34	842,00
-14056,01	937,00
-14022,76	854,00
-13989,60	794,00
-13956,52	936,00
-13923,53	816,00
-13890,62	795,00
-13857,79	836,00
-13825,05	769,00
-13792,39	751,00
-13759,81	944,00
-13727,31	859,00
-13694,90	818,00
-13662,57	977,00
-13630,31	911,00
-13598,14	801,00
-13566,05	790,00
-13534,05	828,00
-13502,12	930,00
-13470,27	849,00
-13438,50	900,00
-13406,80	731,00
-13375,19	793,00
-13343,66	854,00
-13312,20	884,00
-13280,83	876,00
-13249,53	864,00
-13218,30	748,00
-13187,16	789,00
-13156,09	950,00
-13125,10	897,00
-13094,18	846,00
-13063,34	925,00
-13032,58	835,00
-13001,89	810,00
-12971,28	885,00
-12940,74	874,00
-12910,27	905,00
-12879,88	890,00
-12849,57	903,00
-12819,33	918,00
-12789,16	871,00
-12759,06	872,00
-12729,04	846,00
-12699,09	2287,00
-12669,21	724,00
-12639,41	923,00
-12609,68	827,00
-12580,02	809,00
-12550,43	1026,00
-12520,91	773,00
-12491,46	890,00
-12462,08	819,00
-12432,77	866,00
-12403,54	818,00
-12374,37	766,00
-12345,27	973,00
-12316,24	863,00
-12287,29	856,00
-12258,40	841,00
-12229,57	912,00
-12200,82	719,00
-12172,14	865,00
-12143,52	699,00
-12114,97	758,00
-12086,49	864,00
-12058,07	956,00
-12029,73	862,00
-12001,44	929,00
-11973,23	874,00
-11945,08	901,00
-11917,00	874,00
-11888,98	746,00
-11861,03	1001,00
-11833,15	865,00
-11805,32	904,00
-11777,57	927,00
-11749,88	942,00
-11722,25	815,00
-11694,69	809,00
-11667,19	819,00
-11639,75	963,00
-11612,38	761,00
-11585,07	909,00
-11557,83	867,00
-11530,65	972,00
-11503,53	756,00
-11476,47	853,00
-11449,48	868,00
-11422,54	948,00
-11395,67	887,00
-11368,86	989,00
-11342,11	766,00
-11315,43	868,00
-11288,80	767,00
-11262,23	892,00
-11235,73	817,00
-11209,28	982,00
-11182,90	884,00
-11156,57	812,00
-11130,31	1070,00
-11104,10	866,00
-11077,96	872,00
-11051,87	733,00
-11025,84	790,00
-10999,87	888,00
-10973,96	855,00
-10948,11	785,00
-10922,31	859,00
-10896,58	919,00
-10870,90	1026,00
-10845,28	932,00
-10819,71	782,00
-10794,20	1008,00
-10768,75	892,00
-10743,36	998,00
-10718,02	864,00
-10692,74	884,00
-10667,52	807,00
-10642,35	866,00
-10617,24	951,00
-10592,18	947,00
-10567,18	803,00
-10542,23	965,00
-10517,34	945,00
-10492,51	1028,00
-10467,72	875,00
-10443,00	967,00
-10418,32	990,00
-10393,70	996,00
-10369,14	907,00
-10344,63	824,00
-10320,17	1080,00
-10295,77	985,00
-10271,42	948,00
-10247,12	1020,00
-10222,88	1067,00
-10198,68	907,00
-10174,54	1050,00
-10150,46	1153,00
-10126,42	1163,00
-10102,44	953,00
-10078,51	1021,00
-10054,63	1162,00
-10030,80	1086,00
-10007,03	1260,00
-9983,30	1171,00
-9959,63	1201,00
-9936,01	1377,00
-9912,44	1235,00
-9888,92	1231,00
-9865,44	1207,00
-9842,02	1244,00
-9818,65	1407,00
-9795,33	1191,00
-9772,06	1340,00
-9748,84	1329,00
-9725,67	1324,00
-9702,55	1658,00
-9679,47	1623,00
-9656,45	1795,00
-9633,47	1612,00
-9610,55	1673,00
-9587,67	1942,00
-9564,84	2054,00
-9542,06	2050,00
-9519,32	2214,00
-9496,64	2335,00
-9474,00	2506,00
-9451,41	2545,00
-9428,87	2538,00
-9406,37	2552,00
-9383,92	2424,00
-9361,52	2338,00
-9339,17	2600,00
-9316,86	2679,00
-9294,60	3089,00
-9272,38	3331,00
-9250,21	3757,00
-9228,09	3692,00
-9206,01	3646,00
-9183,98	3335,00
-9162,00	3162,00
-9140,06	3225,00
-9118,16	3184,00
-9096,31	3226,00
-9074,51	3479,00
-9052,75	3502,00
-9031,04	3452,00
-9009,37	3180,00
-8987,74	3018,00
-8966,16	2742,00
-8944,63	2458,00
-8923,14	2445,00
-8901,69	2485,00
-8880,29	2549,00
-8858,93	2768,00
-8837,61	2953,00
-8816,34	3039,00
-8795,11	3181,00
-8773,92	2889,00
-8752,78	2726,00
-8731,68	2454,00
-8710,62	2693,00
-8689,61	2542,00
-8668,63	2768,00
-8647,70	3161,00
-8626,82	2883,00
-8605,97	3040,00
-8585,17	2691,00
-8564,41	2511,00
-8543,69	2544,00
-8523,01	2271,00
-8502,37	2638,00
-8481,78	2501,00
-8461,23	2494,00
-8440,71	2769,00
-8420,24	2877,00
-8399,81	3095,00
-8379,42	2878,00
-8359,08	2888,00
-8338,77	2511,00
-8318,50	2356,00
-8298,27	2261,00
-8278,09	2432,00
-8257,94	2541,00
-8237,83	2717,00
-8217,76	2858,00
-8197,74	2800,00
-8177,75	2810,00
-8157,80	2417,00
-8137,89	2438,00
-8118,02	2288,00
-8098,19	2420,00
-8078,40	2321,00
-8058,65	2452,00
-8038,93	2502,00
-8019,26	2350,00
-7999,62	2350,00
-7980,02	2323,00
-7960,46	2201,00
-7940,94	1964,00
-7921,46	2021,00
-7902,01	2040,00
-7882,60	2176,00
-7863,23	1934,00
-7843,90	2047,00
-7824,61	2199,00
-7805,35	2420,00
-7786,13	2290,00
-7766,95	2342,00
-7747,80	2272,00
-7728,69	2205,00
-7709,62	2099,00
-7690,59	2206,00
-7671,59	2291,00
-7652,63	2270,00
-7633,70	2302,00
-7614,81	2276,00
-7595,96	2089,00
-7577,15	2020,00
-7558,37	1932,00
-7539,62	2028,00
-7520,91	2056,00
-7502,24	2185,00
-7483,60	2181,00
-7465,00	2176,00
-7446,44	2015,00
-7427,91	1634,00
-7409,41	1700,00
-7390,95	1680,00
-7372,53	1515,00
-7354,14	1639,00
-7335,78	1574,00
-7317,46	1721,00
-7299,18	1731,00
-7280,92	1875,00
-7262,71	2108,00
-7244,52	2142,00
-7226,38	2187,00
-7208,26	1975,00
-7190,18	1955,00
-7172,14	1836,00
-7154,12	1883,00
-7136,15	1815,00
-7118,20	2027,00
-7100,29	2185,00
-7082,41	2102,00
-7064,57	1931,00
-7046,76	1949,00
-7028,98	1645,00
-7011,24	1707,00
-6993,53	1503,00
-6975,85	1433,00
-6958,20	1429,00
-6940,59	1336,00
-6923,01	1214,00
-6905,46	1576,00
-6887,94	1529,00
-6870,46	2037,00
-6853,01	1976,00
-6835,59	1914,00
-6818,21	1747,00
-6800,85	1641,00
-6783,53	1444,00
-6766,24	1219,00
-6748,98	1291,00
-6731,76	1251,00
-6714,56	1193,00
-6697,40	1049,00
-6680,26	1144,00
-6663,16	1230,00
-6646,09	1519,00
-6629,05	1527,00
-6612,05	1680,00
-6595,07	1471,00
-6578,13	1647,00
-6561,21	1334,00
-6544,33	1311,00
-6527,47	1052,00
-6510,65	1157,00
-6493,86	987,00
-6477,10	1076,00
-6460,36	1151,00
-6443,66	1005,00
-6426,99	1061,00
-6410,35	1095,00
-6393,74	1289,00
-6377,16	1206,00
-6360,61	1260,00
-6344,09	1246,00
-6327,59	1184,00
-6311,13	1389,00
-6294,70	1399,00
-6278,29	1403,00
-6261,92	1512,00
-6245,58	1584,00
-6229,26	1593,00
-6212,97	1467,00
-6196,72	1313,00
-6180,49	1278,00
-6164,29	931,00
-6148,12	1174,00
-6131,98	983,00
-6115,86	941,00
-6099,78	881,00
-6083,72	952,00
-6067,69	839,00
-6051,69	952,00
-6035,72	1029,00
-6019,78	1025,00
-6003,87	1307,00
-5987,98	1188,00
-5972,12	1363,00
-5956,29	1382,00
-5940,49	1179,00
-5924,71	1334,00
-5908,96	1076,00
-5893,24	1101,00
-5877,55	1004,00
-5861,89	1022,00
-5846,25	898,00
-5830,64	999,00
-5815,05	1009,00
-5799,50	962,00
-5783,97	1157,00
-5768,47	1135,00
-5752,99	1306,00
-5737,55	1156,00
-5722,12	1271,00
-5706,73	1256,00
-5691,36	1293,00
-5676,02	1087,00
-5660,71	1076,00
-5645,42	911,00
-5630,16	1082,00
-5614,92	1171,00
-5599,71	1033,00
-5584,53	1098,00
-5569,37	1140,00
-5554,24	1327,00
-5539,14	1139,00
-5524,06	1022,00
-5509,01	1059,00
-5493,98	1080,00
-5478,98	1106,00
-5464,00	1168,00
-5449,05	1079,00
-5434,13	1060,00
-5419,23	981,00
-5404,36	999,00
-5389,51	1086,00
-5374,69	1213,00
-5359,89	1353,00
-5345,12	1322,00
-5330,37	1531,00
-5315,65	1207,00
-5300,95	1145,00
-5286,28	1078,00
-5271,63	984,00
-5257,01	1098,00
-5242,41	1119,00
-5227,84	946,00
-5213,29	1041,00
-5198,76	1012,00
-5184,26	1010,00
-5169,79	928,00
-5155,33	1016,00
-5140,91	1000,00
-5126,51	1096,00
-5112,13	1091,00
-5097,77	982,00
-5083,44	1238,00
-5069,13	937,00
-5054,85	1067,00
-5040,59	1065,00
-5026,36	1137,00
-5012,15	1160,00
-4997,96	1143,00
-4983,80	961,00
-4969,66	1043,00
-4955,54	946,00
-4941,44	1119,00
-4927,37	1061,00
-4913,33	1274,00
-4899,30	1355,00
-4885,30	1290,00
-4871,33	1054,00
-4857,37	1010,00
-4843,44	909,00
-4829,53	1016,00
-4815,65	1046,00
-4801,79	993,00
-4787,95	1100,00
-4774,13	990,00
-4760,34	975,00
-4746,56	1081,00
-4732,82	857,00
-4719,09	1038,00
-4705,38	1243,00
-4691,70	1249,00
-4678,04	1280,00
-4664,41	1273,00
-4650,79	1255,00
-4637,20	1001,00
-4623,63	913,00
-4610,08	1108,00
-4596,56	1081,00
-4583,05	1023,00
-4569,57	979,00
-4556,11	1054,00
-4542,67	800,00
-4529,25	917,00
-4515,86	972,00
-4502,49	1128,00
-4489,13	1216,00
-4475,80	1284,00
-4462,49	901,00
-4449,21	1026,00
-4435,94	900,00
-4422,70	964,00
-4409,47	855,00
-4396,27	1093,00
-4383,09	1009,00
-4369,93	965,00
-4356,79	889,00
-4343,67	979,00
-4330,58	962,00
-4317,50	1120,00
-4304,45	951,00
-4291,41	1000,00
-4278,40	933,00
-4265,41	884,00
-4252,44	1038,00
-4239,49	899,00
-4226,55	1075,00
-4213,65	1010,00
-4200,76	1089,00
-4187,89	866,00
-4175,04	880,00
-4162,21	858,00
-4149,40	893,00
-4136,61	970,00
-4123,85	869,00
-4111,10	890,00
-4098,37	972,00
-4085,66	906,00
-4072,98	898,00
-4060,31	836,00
-4047,66	1050,00
-4035,04	1141,00
-4022,43	813,00
-4009,84	1005,00
-3997,27	719,00
-3984,72	898,00
-3972,19	919,00
-3959,69	885,00
-3947,20	795,00
-3934,73	873,00
-3922,27	816,00
-3909,84	848,00
-3897,43	922,00
-3885,04	881,00
-3872,67	878,00
-3860,31	841,00
-3847,98	933,00
-3835,66	865,00
-3823,36	891,00
-3811,09	917,00
-3798,83	886,00
-3786,59	832,00
-3774,37	928,00
-3762,17	786,00
-3749,98	847,00
-3737,82	885,00
-3725,67	1122,00
-3713,55	809,00
-3701,44	921,00
-3689,35	850,00
-3677,28	950,00
-3665,22	887,00
-3653,19	831,00
-3641,17	827,00
-3629,18	864,00
-3617,20	924,00
-3605,24	836,00
-3593,30	945,00
-3581,37	926,00
-3569,47	909,00
-3557,58	928,00
-3545,71	860,00
-3533,86	876,00
-3522,02	777,00
-3510,21	848,00
-3498,41	799,00
-3486,63	908,00
-3474,87	885,00
-3463,12	845,00
-3451,40	877,00
-3439,69	869,00
-3428,00	846,00
-3416,33	907,00
-3404,67	798,00
-3393,03	815,00
-3381,41	975,00
-3369,81	905,00
-3358,22	906,00
-3346,66	1074,00
-3335,10	927,00
-3323,57	892,00
-3312,06	885,00
-3300,56	954,00
-3289,08	784,00
-3277,61	862,00
-3266,16	980,00
-3254,73	879,00
-3243,32	821,00
-3231,92	828,00
-3220,55	936,00
-3209,18	1042,00
-3197,84	794,00
-3186,51	823,00
-3175,20	871,00
-3163,90	823,00
-3152,63	875,00
-3141,36	801,00
-3130,12	886,00
-3118,89	935,00
-3107,68	837,00
-3096,49	955,00
-3085,31	796,00
-3074,15	874,00
-3063,00	894,00
-3051,87	975,00
-3040,76	863,00
-3029,67	1038,00
-3018,59	1057,00
-3007,52	971,00
-2996,48	983,00
-2985,44	868,00
-2974,43	848,00
-2963,43	768,00
-2952,45	912,00
-2941,48	822,00
-2930,53	943,00
-2919,60	738,00
-2908,68	843,00
-2897,78	915,00
-2886,89	939,00
-2876,02	807,00
-2865,17	860,00
-2854,33	873,00
-2843,50	857,00
-2832,70	909,00
-2821,90	847,00
-2811,13	914,00
-2800,37	898,00
-2789,62	731,00
-2778,89	957,00
-2768,18	907,00
-2757,48	907,00
-2746,80	968,00
-2736,13	814,00
-2725,48	1029,00
-2714,84	780,00
-2704,22	936,00
-2693,61	871,00
-2683,02	870,00
-2672,45	947,00
-2661,89	855,00
-2651,34	913,00
-2640,81	916,00
-2630,30	951,00
-2619,80	821,00
-2609,31	898,00
-2598,84	718,00
-2588,39	871,00
-2577,95	877,00
-2567,52	776,00
-2557,11	886,00
-2546,71	901,00
-2536,33	1050,00
-2525,97	925,00
-2515,62	929,00
-2505,28	925,00
-2494,96	853,00
-2484,65	953,00
-2474,36	1212,00
-2464,08	865,00
-2453,82	983,00
-2443,57	909,00
-2433,33	799,00
-2423,11	924,00
-2412,91	902,00
-2402,72	802,00
-2392,54	823,00
-2382,38	841,00
-2372,23	888,00
-2362,09	-1804,00
-2351,97	887,00
-2341,87	805,00
-2331,78	958,00
-2321,70	992,00
-2311,64	855,00
-2301,59	887,00
-2291,55	871,00
-2281,53	929,00
-2271,53	815,00
-2261,53	974,00
-2251,55	887,00
-2241,59	951,00
-2231,64	867,00
-2221,70	887,00
-2211,78	880,00
-2201,87	896,00
-2191,97	926,00
-2182,09	840,00
-2172,22	848,00
-2162,37	821,00
-2152,53	789,00
-2142,70	890,00
-2132,89	796,00
-2123,09	927,00
-2113,30	861,00
-2103,53	877,00
-2093,77	914,00
-2084,02	876,00
-2074,29	1040,00
-2064,57	878,00
-2054,86	922,00
-2045,17	928,00
-2035,49	873,00
-2025,82	738,00
-2016,17	873,00
-2006,53	865,00
-1996,91	908,00
-1987,29	797,00
-1977,69	975,00
-1968,11	840,00
-1958,53	787,00
-1948,97	880,00
-1939,42	828,00
-1929,89	828,00
-1920,37	923,00
-1910,86	832,00
-1901,36	868,00
-1891,88	965,00
-1882,41	846,00
-1872,95	890,00
-1863,51	906,00
-1854,08	888,00
-1844,66	880,00
-1835,26	1005,00
-1825,86	913,00
-1816,48	741,00
-1807,11	903,00
-1797,76	849,00
-1788,42	987,00
-1779,09	929,00
-1769,77	927,00
-1760,47	1030,00
-1751,17	872,00
-1741,89	901,00
-1732,63	976,00
-1723,37	1042,00
-1714,13	999,00
-1704,90	854,00
-1695,68	1015,00
-1686,48	723,00
-1677,29	842,00
-1668,11	1058,00
-1658,94	852,00
-1649,78	846,00
-1640,64	958,00
-1631,51	867,00
-1622,39	947,00
-1613,28	891,00
-1604,19	1006,00
-1595,10	917,00
-1586,03	859,00
-1576,97	917,00
-1567,93	810,00
-1558,89	893,00
-1549,87	951,00
-1540,86	752,00
-1531,86	906,00
-1522,87	831,00
-1513,90	1000,00
-1504,93	907,00
-1495,98	987,00
-1487,04	983,00
-1478,12	859,00
-1469,20	906,00
-1460,30	864,00
-1451,40	1067,00
-1442,52	832,00
-1433,65	992,00
-1424,80	847,00
-1415,95	862,00
-1407,12	1046,00
-1398,30	921,00
-1389,48	954,00
-1380,69	807,00
-1371,90	839,00
-1363,12	954,00
-1354,36	1019,00
-1345,60	877,00
-1336,86	845,00
-1328,13	1049,00
-1319,41	899,00
-1310,70	905,00
-1302,01	842,00
-1293,32	825,00
-1284,65	856,00
-1275,99	890,00
-1267,33	1085,00
-1258,69	974,00
-1250,06	842,00
-1241,45	851,00
-1232,84	1066,00
-1224,25	834,00
-1215,66	995,00
-1207,09	936,00
-1198,53	790,00
-1189,97	928,00
-1181,43	843,00
-1172,91	907,00
-1164,39	901,00
-1155,88	869,00
-1147,38	727,00
-1138,90	862,00
-1130,43	809,00
-1121,96	904,00
-1113,51	853,00
-1105,07	838,00
-1096,64	934,00
-1088,22	895,00
-1079,81	988,00
-1071,41	946,00
-1063,02	832,00
-1054,65	1052,00
-1046,28	832,00
-1037,92	939,00
-1029,58	874,00
-1021,24	820,00
-1012,92	1156,00
-1004,61	972,00
-996,30	1014,00
-988,01	858,00
-979,73	885,00
-971,46	952,00
-963,20	891,00
-954,95	761,00
-946,71	891,00
-938,48	923,00
-930,26	936,00
-922,06	921,00
-913,86	777,00
-905,67	834,00
-897,49	995,00
-889,33	751,00
-881,17	958,00
-873,02	939,00
-864,89	735,00
-856,76	892,00
-848,65	915,00
-840,54	864,00
-832,45	866,00
-824,36	732,00
-816,29	941,00
-808,22	984,00
-800,17	990,00
-792,12	860,00
-784,09	905,00
-776,06	873,00
-768,05	852,00
-760,04	919,00
-752,05	854,00
-744,07	852,00
-736,09	1003,00
-728,13	687,00
-720,17	912,00
-712,23	880,00
-704,29	835,00
-696,37	894,00
-688,45	1011,00
-680,55	793,00
-672,65	798,00
-664,77	877,00
-656,89	876,00
-649,03	902,00
-641,17	895,00
-633,32	896,00
-625,49	918,00
-617,66	816,00
-609,84	947,00
-602,03	705,00
-594,23	905,00
-586,45	961,00
-578,67	829,00
-570,90	852,00
-563,14	872,00
-555,39	923,00
-547,65	956,00
-539,91	864,00
-532,19	959,00
-524,48	859,00
-516,78	825,00
-509,08	968,00
-501,40	934,00
-493,72	896,00
-486,06	812,00
-478,40	1047,00
-470,76	856,00
-463,12	868,00
-455,49	854,00
-447,87	866,00
-440,26	931,00
-432,66	861,00
-425,07	1024,00
-417,49	914,00
-409,92	779,00
-402,35	836,00
-394,80	746,00
-387,25	943,00
-379,72	979,00
-372,19	889,00
-364,67	915,00
-357,17	837,00
-349,67	972,00
-342,18	767,00
-334,69	890,00
-327,22	847,00
-319,76	888,00
-312,30	896,00
-304,86	826,00
-297,42	914,00
-290,00	862,00
-282,58	876,00
-275,17	973,00
-267,77	986,00
-260,37	978,00
-252,99	897,00
-245,62	905,00
-238,25	901,00
-230,90	924,00
-223,55	1109,00
-216,21	949,00
-208,88	1197,00
-201,56	984,00
-194,25	999,00
-186,94	1089,00
-179,65	1051,00
-172,36	1122,00
-165,08	1198,00
-157,81	1252,00
-150,55	1261,00
-143,30	1295,00
-136,06	1223,00
-128,82	1385,00
-121,60	1288,00
-114,38	1380,00
-107,17	1563,00
-99,97	1791,00
-92,78	1645,00
-85,60	1753,00
-78,42	2045,00
-71,25	2148,00
-64,10	2297,00
-56,95	2631,00
-49,81	2955,00
-42,67	3536,00
-35,55	4075,00
-28,43	5158,00
-21,33	8066,00
-14,23	25028,00
-7,14	57498,00
-0,05	57284,00
7,02	57012,00
14,09	57319,00
21,14	21174,00
28,19	9389,00
35,23	6259,00
42,27	5110,00
49,29	4203,00
56,31	3701,00
63,32	3254,00
70,32	2824,00
77,31	2622,00
84,29	2216,00
91,27	2256,00
98,23	2136,00
105,19	2020,00
112,14	2250,00
119,09	2891,00
126,02	4196,00
132,95	4704,00
139,87	4918,00
146,78	5111,00
153,68	4869,00
160,58	4833,00
167,46	4567,00
174,34	4724,00
181,21	4750,00
188,08	4544,00
194,93	4683,00
201,78	4628,00
208,62	4659,00
215,45	4651,00
222,27	4613,00
229,09	4588,00
235,90	4429,00
242,70	4495,00
249,49	4474,00
256,27	4305,00
263,05	4163,00
269,82	4299,00
276,58	4125,00
283,33	4170,00
290,08	4018,00
296,82	3972,00
303,55	3809,00
310,27	3818,00
316,98	3905,00
323,69	3785,00
330,39	3804,00
337,08	3868,00
343,76	3718,00
350,44	3849,00
357,11	3726,00
363,77	3707,00
370,42	3705,00
377,07	3802,00
383,71	3832,00
390,34	3678,00
396,96	3768,00
403,58	3767,00
410,19	3887,00
416,79	4025,00
423,38	3976,00
429,97	3994,00
436,55	3973,00
443,12	4022,00
449,68	4093,00
456,24	3850,00
462,79	3866,00
469,33	3695,00
475,86	3494,00
482,39	3292,00
488,91	3395,00
495,42	3318,00
501,93	3402,00
508,42	3144,00
514,91	3256,00
521,40	3205,00
527,87	3150,00
534,34	3117,00
540,80	3151,00
547,25	3178,00
553,70	3163,00
560,14	3195,00
566,57	3181,00
573,00	3217,00
579,41	3292,00
585,83	3251,00
592,23	3290,00
598,62	3437,00
605,01	3397,00
611,40	3490,00
617,77	3578,00
624,14	3301,00
630,50	3283,00
636,85	3130,00
643,20	3041,00
649,54	2943,00
655,87	2992,00
662,20	3052,00
668,52	2848,00
674,83	2962,00
681,13	2784,00
687,43	2905,00
693,72	2728,00
700,00	2602,00
706,28	2812,00
712,55	2758,00
718,81	2847,00
725,07	2763,00
731,32	2718,00
737,56	2793,00
743,79	2740,00
750,02	2789,00
756,24	2571,00
762,46	2727,00
768,67	2819,00
774,87	2659,00
781,06	2628,00
787,25	2681,00
793,43	2683,00
799,60	2612,00
805,77	2734,00
811,93	2678,00
818,08	2748,00
824,23	2676,00
830,37	2860,00
836,50	2670,00
842,63	2675,00
848,75	2625,00
854,87	2712,00
860,97	2789,00
867,07	2702,00
873,17	2830,00
879,25	2702,00
885,33	2696,00
891,41	2706,00
897,47	2677,00
903,53	2566,00
909,59	2775,00
915,63	2616,00
921,67	2642,00
927,71	2729,00
933,74	2652,00
939,76	2442,00
945,77	2483,00
951,78	2613,00
957,78	2361,00
963,78	2526,00
969,77	2452,00
975,75	2449,00
981,72	2393,00
987,69	3790,00
993,66	2581,00
999,61	2578,00
1005,56	2461,00
1011,51	2513,00
1017,44	2530,00
1023,37	2501,00
1029,30	2541,00
1035,22	2546,00
1041,13	2578,00
1047,03	2793,00
1052,93	3204,00
1058,83	4918,00
1064,71	5315,00
1070,59	4462,00
1076,47	3642,00
1082,33	3266,00
1088,20	3177,00
1094,05	2996,00
1099,90	2737,00
1105,74	2817,00
1111,58	2844,00
1117,41	3089,00
1123,23	4146,00
1129,05	5143,00
1134,86	4530,00
1140,67	3479,00
1146,47	2926,00
1152,26	2782,00
1158,05	2604,00
1163,83	2783,00
1169,60	2868,00
1175,37	2791,00
1181,13	2626,00
1186,89	2433,00
1192,64	2485,00
1198,38	2584,00
1204,12	2311,00
1209,85	2298,00
1215,58	2351,00
1221,30	2399,00
1227,02	2393,00
1232,72	2360,00
1238,43	2328,00
1244,12	2256,00
1249,81	2353,00
1255,50	2557,00
1261,17	2402,00
1266,85	2578,00
1272,51	2624,00
1278,17	2808,00
1283,83	3091,00
1289,47	4734,00
1295,12	6335,00
1300,75	5613,00
1306,38	4230,00
1312,01	3495,00
1317,63	2923,00
1323,24	2754,00
1328,85	2652,00
1334,45	2465,00
1340,04	2520,00
1345,63	2451,00
1351,22	2657,00
1356,80	2551,00
1362,37	2682,00
1367,93	2676,00
1373,49	2693,00
1379,05	2563,00
1384,60	2468,00
1390,14	2444,00
1395,68	2479,00
1401,21	2578,00
1406,74	2779,00
1412,26	3460,00
1417,77	4099,00
1423,28	3895,00
1428,78	4282,00
1434,28	5408,00
1439,77	6151,00
1445,26	6039,00
1450,74	5659,00
1456,22	5289,00
1461,68	4997,00
1467,15	4680,00
1472,61	3964,00
1478,06	3510,00
1483,51	3019,00
1488,95	2724,00
1494,38	2641,00
1499,81	2357,00
1505,24	2363,00
1510,65	2409,00
1516,07	2248,00
1521,48	2243,00
1526,88	2178,00
1532,27	2207,00
1537,67	2152,00
1543,05	2260,00
1548,43	2104,00
1553,81	2131,00
1559,18	1914,00
1564,54	2060,00
1569,90	2003,00
1575,25	1928,00
1580,60	1916,00
1585,94	2016,00
1591,28	1981,00
1596,61	1922,00
1601,93	2026,00
1607,25	2155,00
1612,57	1975,00
1617,88	1921,00
1623,18	1984,00
1628,48	1960,00
1633,77	1960,00
1639,06	1988,00
1644,34	1966,00
1649,62	1781,00
1654,89	1890,00
1660,16	1804,00
1665,42	2012,00
1670,67	1839,00
1675,92	1694,00
1681,17	1787,00
1686,41	1907,00
1691,64	1835,00
1696,87	1864,00
1702,10	1802,00
1707,32	1803,00
1712,53	1814,00
1717,74	1836,00
1722,94	1893,00
1728,14	1711,00
1733,33	1734,00
1738,52	1657,00
1743,70	1749,00
1748,88	1774,00
1754,05	1785,00
1759,22	1660,00
1764,38	2043,00
1769,53	1680,00
1774,69	1738,00
1779,83	1681,00
1784,97	1767,00
1790,11	1651,00
1795,24	1660,00
1800,36	1656,00
1805,48	1609,00
1810,60	1740,00
1815,71	1565,00
1820,82	1567,00
1825,92	1730,00
1831,01	1578,00
1836,10	1573,00
1841,19	1662,00
1846,26	1403,00
1851,34	1520,00
1856,41	1575,00
1861,47	1612,00
1866,53	1663,00
1871,59	1592,00
1876,64	1524,00
1881,68	1524,00
1886,72	1611,00
1891,76	1575,00
1896,79	1525,00
1901,81	1447,00
1906,83	1552,00
1911,85	1429,00
1916,86	1482,00
1921,86	1465,00
1926,86	1475,00
1931,86	1513,00
1936,85	1440,00
1941,83	1448,00
1946,81	1404,00
1951,79	1356,00
1956,76	1381,00
1961,72	1294,00
1966,68	1420,00
1971,64	1361,00
1976,59	1482,00
1981,54	1397,00
1986,48	1467,00
1991,42	1286,00
1996,35	1577,00
2001,27	1418,00
2006,20	1441,00
2011,11	1448,00
2016,03	1371,00
2020,93	1240,00
2025,84	1373,00
2030,73	1320,00
2035,63	1280,00
2040,52	1413,00
2045,40	1317,00
2050,28	1368,00
2055,15	1279,00
2060,02	1248,00
2064,89	1382,00
2069,75	1396,00
2074,60	1393,00
2079,46	1255,00
2084,30	1360,00
2089,14	1283,00
2093,98	1396,00
2098,81	1379,00
2103,64	1342,00
2108,46	1419,00
2113,28	1403,00
2118,09	1344,00
2122,90	1348,00
2127,70	1279,00
2132,50	1422,00
2137,30	1268,00
2142,09	1170,00
2146,87	1233,00
2151,66	1376,00
2156,43	1260,00
2161,20	1312,00
2165,97	1448,00
2170,73	1247,00
2175,49	1447,00
2180,24	1326,00
2184,99	1540,00
2189,74	1512,00
2194,48	1391,00
2199,21	1381,00
2203,94	1289,00
2208,67	1302,00
2213,39	1213,00
2218,11	1389,00
2222,82	1226,00
2227,53	1254,00
2232,23	1343,00
2236,93	1323,00
2241,63	1399,00
2246,32	1340,00
2251,00	1338,00
2255,68	1309,00
2260,36	1231,00
2265,03	1297,00
2269,70	1413,00
2274,36	1241,00
2279,02	1262,00
2283,68	1276,00
2288,33	1242,00
2292,97	1309,00
2297,61	1171,00
2302,25	1284,00
2306,88	1186,00
2311,51	1106,00
2316,14	1237,00
2320,75	1098,00
2325,37	1137,00
2329,98	1298,00
2334,59	1151,00
2339,19	1167,00
2343,79	1064,00
2348,38	1220,00
2352,97	1078,00
2357,55	1268,00
2362,13	1199,00
2366,71	1219,00
2371,28	1267,00
2375,85	1184,00
2380,41	1269,00
2384,97	1181,00
2389,52	1276,00
2394,07	1277,00
2398,62	1217,00
2403,16	1289,00
2407,70	1017,00
2412,23	1116,00
2416,76	1258,00
2421,29	1282,00
2425,81	1322,00
2430,32	1320,00
2434,84	1031,00
2439,34	1115,00
2443,85	1271,00
2448,35	1167,00
2452,84	1182,00
2457,33	1206,00
2461,82	1042,00
2466,30	985,00
2470,78	1198,00
2475,25	1111,00
2479,72	1181,00
2484,19	1198,00
2488,65	1190,00
2493,11	1103,00
2497,56	1328,00
2502,01	1083,00
2506,46	1217,00
2510,90	1110,00
2515,34	1028,00
2519,77	1208,00
2524,20	1173,00
2528,62	1094,00
2533,04	1169,00
2537,46	1141,00
2541,87	1132,00
2546,28	1150,00
2550,68	1214,00
2555,08	1224,00
2559,48	1158,00
2563,87	1124,00
2568,26	1011,00
2572,64	1185,00
2577,02	1229,00
2581,40	1131,00
2585,77	1208,00
2590,14	1165,00
2594,50	1082,00
2598,86	1204,00
2603,22	1248,00
2607,57	1130,00
2611,92	1230,00
2616,26	1326,00
2620,60	1317,00
2624,94	1138,00
2629,27	1224,00
2633,60	1183,00
2637,92	1406,00
2642,24	1384,00
2646,56	1224,00
2650,87	1130,00
2655,18	1323,00
2659,48	1112,00
2663,78	1157,00
2668,08	1216,00
2672,37	1237,00
2676,66	1161,00
2680,95	1141,00
2685,23	1331,00
2689,50	1258,00
2693,78	1263,00
2698,05	1264,00
2702,31	1346,00
2706,57	1406,00
2710,83	1541,00
2715,08	1555,00
2719,33	1650,00
2723,58	1541,00
2727,82	1569,00
2732,06	1551,00
2736,29	1426,00
2740,53	1333,00
2744,75	1376,00
2748,97	1313,00
2753,19	1395,00
2757,41	1361,00
2761,62	1423,00
2765,83	1360,00
2770,03	1332,00
2774,23	1428,00
2778,43	1384,00
2782,62	1453,00
2786,81	1381,00
2791,00	1462,00
2795,18	1502,00
2799,35	1606,00
2803,53	1575,00
2807,70	1604,00
2811,86	1626,00
2816,03	1833,00
2820,19	1903,00
2824,34	1869,00
2828,49	2052,00
2832,64	2398,00
2836,78	2857,00
2840,92	3241,00
2845,06	3977,00
2849,19	4318,00
2853,32	4404,00
2857,45	4403,00
2861,57	4364,00
2865,69	4231,00
2869,80	4111,00
2873,91	4352,00
2878,02	4907,00
2882,12	5215,00
2886,22	5150,00
2890,32	4929,00
2894,41	4526,00
2898,50	4242,00
2902,58	3896,00
2906,67	3611,00
2910,74	3276,00
2914,82	3100,00
2918,89	3135,00
2922,96	2714,00
2927,02	2597,00
2931,08	2476,00
2935,13	2300,00
2939,19	2324,00
2943,24	2063,00
2947,28	1982,00
2951,32	1752,00
2955,36	1679,00
2959,40	1673,00
2963,43	1604,00
2967,46	1504,00
2971,48	1474,00
2975,50	1419,00
2979,52	1441,00
2983,53	1400,00
2987,54	1286,00
2991,55	1292,00
2995,55	1264,00
2999,55	1210,00
3003,54	1154,00
3007,54	1166,00
3011,53	1204,00
3015,51	1166,00
3019,49	1186,00
3023,47	1115,00
3027,45	1129,00
3031,42	971,00
3035,39	1067,00
3039,35	1068,00
3043,31	1118,00
3047,27	1065,00
3051,22	1127,00
3055,17	1048,00
3059,12	1035,00
3063,06	1025,00
3067,00	925,00
3070,94	955,00
3074,87	1148,00
3078,80	1036,00
3082,73	1034,00
3086,65	1061,00
3090,57	997,00
3094,49	932,00
3098,40	964,00
3102,31	915,00
3106,22	971,00
3110,12	885,00
3114,02	865,00
3117,92	988,00
3121,81	912,00
3125,70	947,00
3129,58	873,00
3133,47	875,00
3137,34	941,00
3141,22	979,00
3145,09	919,00
3148,96	972,00
3152,83	964,00
3156,69	957,00
3160,55	924,00
3164,40	971,00
3168,26	961,00
3172,10	988,00
3175,95	980,00
3179,79	957,00
3183,63	1007,00
3187,47	892,00
3191,30	994,00
3195,13	916,00
3198,95	786,00
3202,78	953,00
3206,60	863,00
3210,41	832,00
3214,23	901,00
3218,03	977,00
3221,84	951,00
3225,64	911,00
3229,44	833,00
3233,24	957,00
3237,03	846,00
3240,82	978,00
3244,61	871,00
3248,39	920,00
3252,17	934,00
3255,95	1052,00
3259,72	907,00
3263,49	1145,00
3267,26	912,00
3271,03	946,00
3274,79	843,00
3278,54	908,00
3282,30	830,00
3286,05	963,00
3289,80	906,00
3293,54	906,00
3297,29	895,00
3301,02	952,00
3304,76	904,00
3308,49	902,00
3312,22	817,00
3315,95	940,00
3319,67	880,00
3323,39	1041,00
3327,10	937,00
3330,82	884,00
3334,53	944,00
3338,24	848,00
3341,94	901,00
3345,64	979,00
3349,34	910,00
3353,03	966,00
3356,72	918,00
3360,41	883,00
3364,10	848,00
3367,78	897,00
3371,46	939,00
3375,13	861,00
3378,81	903,00
3382,48	913,00
3386,14	998,00
3389,81	1016,00
3393,47	904,00
3397,12	999,00
3400,78	902,00
3404,43	861,00
3408,08	972,00
3411,72	873,00
3415,36	874,00
3419,00	934,00
3422,64	888,00
3426,27	910,00
3429,90	955,00
3433,53	861,00
3437,15	844,00
3440,77	808,00
3444,39	835,00
3448,00	863,00
3451,62	869,00
3455,22	945,00
3458,83	843,00
3462,43	881,00
3466,03	976,00
3469,63	760,00
3473,22	798,00
3476,81	773,00
3480,40	976,00
3483,99	842,00
3487,57	867,00
3491,15	842,00
3494,72	960,00
3498,29	934,00
3501,86	796,00
3505,43	908,00
3508,99	751,00
3512,56	727,00
3516,11	974,00
3519,67	850,00
3523,22	929,00
3526,77	867,00
3530,32	1011,00
3533,86	907,00
3537,40	898,00
3540,94	947,00
3544,47	855,00
3548,00	773,00
3551,53	944,00
3555,06	806,00
3558,58	886,00
3562,10	912,00
3565,62	797,00
3569,13	882,00
3572,64	1060,00
3576,15	785,00
3579,66	815,00
3583,16	828,00
3586,66	900,00
3590,16	843,00
3593,65	827,00
3597,14	769,00
3600,63	858,00
3604,11	950,00
3607,60	837,00
3611,08	856,00
3614,55	870,00
3618,03	799,00
3621,50	755,00
3624,97	706,00
3628,43	824,00
3631,90	779,00
3635,36	681,00
3638,81	803,00
3642,27	849,00
3645,72	796,00
3649,17	720,00
3652,61	832,00
3656,06	737,00
3659,50	839,00
3662,93	777,00
3666,37	781,00
3669,80	935,00
3673,23	898,00
3676,65	850,00
3680,08	925,00
3683,50	735,00
3686,92	795,00
3690,33	803,00
3693,74	771,00
3697,15	694,00
3700,56	878,00
3703,96	849,00
3707,36	663,00
3710,76	778,00
3714,16	738,00
3717,55	800,00
3720,94	688,00
3724,33	738,00
3727,71	786,00
3731,10	759,00
3734,48	801,00
3737,85	707,00
3741,23	738,00
3744,60	673,00
3747,97	692,00
3751,33	881,00
3754,69	720,00
3758,05	730,00
3761,41	662,00
3764,77	703,00
3768,12	701,00
3771,47	596,00
3774,82	742,00
3778,16	-7,00
3781,50	7,00
3784,84	6,00
3788,18	14,00
>>>>>End Processed Spectral Data<<<<<
