SpectraSuite Data File
++++++++++++++++++++++++++++++++++++
Date: Mon Jan 05 16:33:58 ICT 2026
User: Administrator
Dark Spectrum Present: Yes
Reference Spectrum Present: No
Number of Sampled Component Spectra: 1
Spectrometers: MAYP113682
Integration Time (usec): 3000000 (MAYP113682)
Spectra Averaged: 1 (MAYP113682)
Boxcar Smoothing: 0 (MAYP113682)
Correct for Electrical Dark: No (MAYP113682)
Strobe/Lamp Enabled: No (MAYP113682)
Correct for Detector Non-linearity: No (MAYP113682)
Correct for Stray Light: No (MAYP113682)
Number of Pixels in Processed Spectrum: 2068
>>>>>Begin Processed Spectral Data<<<<<
-37534,58	29,00
-37414,56	8,00
-37295,11	10,00
-37176,24	6,00
-37057,95	663,00
-36940,22	725,00
-36823,05	709,00
-36706,45	803,00
-36590,40	760,00
-36474,90	752,00
-36359,95	968,00
-36245,55	847,00
-36131,68	844,00
-36018,35	817,00
-35905,55	801,00
-35793,29	886,00
-35681,54	860,00
-35570,32	809,00
-35459,62	785,00
-35349,43	919,00
-35239,75	902,00
-35130,58	807,00
-35021,91	804,00
-34913,74	814,00
-34806,07	888,00
-34698,89	892,00
-34592,20	793,00
-34486,00	951,00
-34380,28	859,00
-34275,04	786,00
-34170,27	786,00
-34065,98	915,00
-33962,16	931,00
-33858,81	917,00
-33755,92	842,00
-33653,49	1002,00
-33551,52	941,00
-33450,01	903,00
-33348,94	932,00
-33248,33	851,00
-33148,16	912,00
-33048,43	854,00
-32949,14	1082,00
-32850,29	915,00
-32751,87	848,00
-32653,89	895,00
-32556,33	914,00
-32459,20	848,00
-32362,49	884,00
-32266,19	936,00
-32170,32	900,00
-32074,86	899,00
-31979,82	981,00
-31885,18	1005,00
-31790,95	971,00
-31697,12	1040,00
-31603,69	998,00
-31510,67	989,00
-31418,04	953,00
-31325,80	914,00
-31233,95	815,00
-31142,49	977,00
-31051,42	851,00
-30960,73	1042,00
-30870,43	1052,00
-30780,50	957,00
-30690,95	863,00
-30601,77	1085,00
-30512,97	941,00
-30424,53	881,00
-30336,46	930,00
-30248,76	879,00
-30161,42	1052,00
-30074,44	901,00
-29987,81	935,00
-29901,55	953,00
-29815,63	902,00
-29730,07	955,00
-29644,86	933,00
-29560,00	998,00
-29475,48	1022,00
-29391,30	894,00
-29307,47	880,00
-29223,97	868,00
-29140,81	938,00
-29057,99	1021,00
-28975,50	854,00
-28893,34	1068,00
-28811,51	875,00
-28730,00	963,00
-28648,82	872,00
-28567,97	946,00
-28487,43	904,00
-28407,21	889,00
-28327,32	940,00
-28247,73	1126,00
-28168,46	937,00
-28089,50	1006,00
-28010,85	852,00
-27932,51	873,00
-27854,48	900,00
-27776,75	833,00
-27699,32	856,00
-27622,19	959,00
-27545,37	972,00
-27468,84	1009,00
-27392,60	924,00
-27316,66	909,00
-27241,01	912,00
-27165,66	865,00
-27090,59	912,00
-27015,81	1010,00
-26941,31	1009,00
-26867,10	844,00
-26793,17	1002,00
-26719,52	957,00
-26646,15	875,00
-26573,06	904,00
-26500,24	895,00
-26427,70	882,00
-26355,43	816,00
-26283,43	925,00
-26211,71	927,00
-26140,25	960,00
-26069,06	1073,00
-25998,13	777,00
-25927,46	810,00
-25857,06	865,00
-25786,92	941,00
-25717,04	765,00
-25647,42	920,00
-25578,05	840,00
-25508,94	876,00
-25440,09	935,00
-25371,48	916,00
-25303,13	941,00
-25235,02	838,00
-25167,17	929,00
-25099,56	930,00
-25032,19	890,00
-24965,07	804,00
-24898,20	876,00
-24831,56	872,00
-24765,17	949,00
-24699,01	922,00
-24633,10	905,00
-24567,41	850,00
-24501,97	847,00
-24436,75	875,00
-24371,77	895,00
-24307,03	918,00
-24242,51	933,00
-24178,22	833,00
-24114,16	889,00
-24050,32	940,00
-23986,71	897,00
-23923,32	878,00
-23860,16	918,00
-23797,22	845,00
-23734,50	884,00
-23672,00	784,00
-23609,71	921,00
-23547,65	910,00
-23485,80	949,00
-23424,16	780,00
-23362,74	1034,00
-23301,53	934,00
-23240,54	747,00
-23179,75	813,00
-23119,17	836,00
-23058,80	916,00
-22998,64	933,00
-22938,68	815,00
-22878,93	913,00
-22819,39	854,00
-22760,04	884,00
-22700,90	829,00
-22641,96	900,00
-22583,22	896,00
-22524,68	830,00
-22466,33	984,00
-22408,19	928,00
-22350,23	898,00
-22292,48	878,00
-22234,92	980,00
-22177,55	987,00
-22120,37	1029,00
-22063,38	835,00
-22006,58	854,00
-21949,98	854,00
-21893,56	807,00
-21837,33	901,00
-21781,28	812,00
-21725,42	885,00
-21669,74	970,00
-21614,25	925,00
-21558,94	957,00
-21503,81	950,00
-21448,86	980,00
-21394,10	841,00
-21339,51	840,00
-21285,10	842,00
-21230,86	783,00
-21176,81	849,00
-21122,93	852,00
-21069,22	787,00
-21015,69	799,00
-20962,33	970,00
-20909,14	824,00
-20856,13	918,00
-20803,28	860,00
-20750,61	899,00
-20698,10	744,00
-20645,76	833,00
-20593,59	947,00
-20541,59	919,00
-20489,75	923,00
-20438,07	770,00
-20386,56	988,00
-20335,22	876,00
-20284,03	871,00
-20233,01	896,00
-20182,15	819,00
-20131,45	892,00
-20080,91	805,00
-20030,52	857,00
-19980,30	788,00
-19930,23	803,00
-19880,32	940,00
-19830,56	866,00
-19780,96	922,00
-19731,52	808,00
-19682,23	899,00
-19633,09	837,00
-19584,10	816,00
-19535,26	794,00
-19486,58	1090,00
-19438,04	827,00
-19389,66	968,00
-19341,42	837,00
-19293,33	860,00
-19245,39	838,00
-19197,60	1024,00
-19149,95	947,00
-19102,45	970,00
-19055,09	785,00
-19007,87	929,00
-18960,80	923,00
-18913,87	892,00
-18867,09	795,00
-18820,44	993,00
-18773,94	978,00
-18727,57	881,00
-18681,35	861,00
-18635,26	865,00
-18589,31	814,00
-18543,50	869,00
-18497,83	864,00
-18452,29	889,00
-18406,89	792,00
-18361,63	904,00
-18316,50	849,00
-18271,50	908,00
-18226,63	1006,00
-18181,90	987,00
-18137,30	965,00
-18092,84	864,00
-18048,50	1037,00
-18004,29	887,00
-17960,22	838,00
-17916,27	829,00
-17872,45	978,00
-17828,76	957,00
-17785,20	925,00
-17741,77	897,00
-17698,46	826,00
-17655,28	820,00
-17612,22	908,00
-17569,29	888,00
-17526,48	933,00
-17483,79	964,00
-17441,23	863,00
-17398,79	853,00
-17356,48	792,00
-17314,28	902,00
-17272,21	887,00
-17230,26	923,00
-17188,42	912,00
-17146,71	922,00
-17105,12	889,00
-17063,64	876,00
-17022,28	826,00
-16981,04	850,00
-16939,92	898,00
-16898,91	1030,00
-16858,02	821,00
-16817,25	854,00
-16776,59	872,00
-16736,04	852,00
-16695,61	844,00
-16655,29	890,00
-16615,09	872,00
-16574,99	853,00
-16535,01	899,00
-16495,15	911,00
-16455,39	938,00
-16415,74	872,00
-16376,21	879,00
-16336,78	879,00
-16297,46	867,00
-16258,26	814,00
-16219,16	811,00
-16180,17	926,00
-16141,28	949,00
-16102,51	982,00
-16063,84	750,00
-16025,27	907,00
-15986,82	758,00
-15948,46	884,00
-15910,22	897,00
-15872,07	904,00
-15834,04	956,00
-15796,10	812,00
-15758,27	999,00
-15720,54	840,00
-15682,91	880,00
-15645,39	989,00
-15607,97	985,00
-15570,64	884,00
-15533,42	935,00
-15496,30	943,00
-15459,28	968,00
-15422,36	924,00
-15385,54	831,00
-15348,82	891,00
-15312,19	1007,00
-15275,66	793,00
-15239,23	900,00
-15202,90	812,00
-15166,67	865,00
-15130,53	985,00
-15094,48	923,00
-15058,54	827,00
-15022,68	858,00
-14986,93	850,00
-14951,26	953,00
-14915,69	963,00
-14880,22	775,00
-14844,84	825,00
-14809,55	883,00
-14774,35	936,00
-14739,25	844,00
-14704,24	905,00
-14669,32	824,00
-14634,49	841,00
-14599,75	875,00
-14565,10	863,00
-14530,55	987,00
-14496,08	809,00
-14461,70	889,00
-14427,41	863,00
-14393,21	694,00
-14359,10	823,00
-14325,07	948,00
-14291,14	884,00
-14257,29	931,00
-14223,52	930,00
-14189,85	971,00
-14156,26	850,00
-14122,76	746,00
-14089,34	773,00
-14056,01	912,00
-14022,76	733,00
-13989,60	914,00
-13956,52	996,00
-13923,53	907,00
-13890,62	885,00
-13857,79	862,00
-13825,05	795,00
-13792,39	743,00
-13759,81	891,00
-13727,31	842,00
-13694,90	925,00
-13662,57	948,00
-13630,31	865,00
-13598,14	862,00
-13566,05	858,00
-13534,05	843,00
-13502,12	944,00
-13470,27	829,00
-13438,50	908,00
-13406,80	801,00
-13375,19	858,00
-13343,66	910,00
-13312,20	865,00
-13280,83	863,00
-13249,53	874,00
-13218,30	759,00
-13187,16	827,00
-13156,09	1024,00
-13125,10	860,00
-13094,18	934,00
-13063,34	885,00
-13032,58	793,00
-13001,89	938,00
-12971,28	903,00
-12940,74	910,00
-12910,27	804,00
-12879,88	938,00
-12849,57	1001,00
-12819,33	978,00
-12789,16	930,00
-12759,06	911,00
-12729,04	810,00
-12699,09	2319,00
-12669,21	875,00
-12639,41	867,00
-12609,68	901,00
-12580,02	884,00
-12550,43	920,00
-12520,91	742,00
-12491,46	956,00
-12462,08	874,00
-12432,77	900,00
-12403,54	855,00
-12374,37	801,00
-12345,27	1049,00
-12316,24	969,00
-12287,29	866,00
-12258,40	839,00
-12229,57	902,00
-12200,82	765,00
-12172,14	891,00
-12143,52	741,00
-12114,97	844,00
-12086,49	889,00
-12058,07	926,00
-12029,73	905,00
-12001,44	949,00
-11973,23	950,00
-11945,08	950,00
-11917,00	894,00
-11888,98	821,00
-11861,03	994,00
-11833,15	948,00
-11805,32	1001,00
-11777,57	913,00
-11749,88	969,00
-11722,25	847,00
-11694,69	847,00
-11667,19	877,00
-11639,75	943,00
-11612,38	861,00
-11585,07	958,00
-11557,83	865,00
-11530,65	1064,00
-11503,53	869,00
-11476,47	1002,00
-11449,48	878,00
-11422,54	991,00
-11395,67	937,00
-11368,86	985,00
-11342,11	863,00
-11315,43	864,00
-11288,80	886,00
-11262,23	993,00
-11235,73	792,00
-11209,28	1077,00
-11182,90	922,00
-11156,57	771,00
-11130,31	991,00
-11104,10	928,00
-11077,96	884,00
-11051,87	901,00
-11025,84	855,00
-10999,87	942,00
-10973,96	944,00
-10948,11	883,00
-10922,31	1024,00
-10896,58	896,00
-10870,90	1037,00
-10845,28	971,00
-10819,71	795,00
-10794,20	1012,00
-10768,75	1031,00
-10743,36	1009,00
-10718,02	901,00
-10692,74	883,00
-10667,52	884,00
-10642,35	924,00
-10617,24	1020,00
-10592,18	1023,00
-10567,18	925,00
-10542,23	993,00
-10517,34	978,00
-10492,51	1068,00
-10467,72	934,00
-10443,00	954,00
-10418,32	1008,00
-10393,70	1079,00
-10369,14	913,00
-10344,63	896,00
-10320,17	1075,00
-10295,77	965,00
-10271,42	1052,00
-10247,12	1070,00
-10222,88	1208,00
-10198,68	950,00
-10174,54	1139,00
-10150,46	1167,00
-10126,42	1259,00
-10102,44	1023,00
-10078,51	1019,00
-10054,63	1212,00
-10030,80	1210,00
-10007,03	1365,00
-9983,30	1222,00
-9959,63	1243,00
-9936,01	1350,00
-9912,44	1234,00
-9888,92	1371,00
-9865,44	1251,00
-9842,02	1339,00
-9818,65	1426,00
-9795,33	1218,00
-9772,06	1384,00
-9748,84	1385,00
-9725,67	1388,00
-9702,55	1552,00
-9679,47	1740,00
-9656,45	1869,00
-9633,47	1745,00
-9610,55	1749,00
-9587,67	1982,00
-9564,84	2120,00
-9542,06	2134,00
-9519,32	2333,00
-9496,64	2585,00
-9474,00	2457,00
-9451,41	2558,00
-9428,87	2579,00
-9406,37	2534,00
-9383,92	2461,00
-9361,52	2434,00
-9339,17	2632,00
-9316,86	2833,00
-9294,60	3250,00
-9272,38	3458,00
-9250,21	3978,00
-9228,09	3824,00
-9206,01	3891,00
-9183,98	3529,00
-9162,00	3243,00
-9140,06	3313,00
-9118,16	3139,00
-9096,31	3371,00
-9074,51	3466,00
-9052,75	3738,00
-9031,04	3623,00
-9009,37	3217,00
-8987,74	2897,00
-8966,16	2686,00
-8944,63	2478,00
-8923,14	2591,00
-8901,69	2517,00
-8880,29	2692,00
-8858,93	2906,00
-8837,61	3266,00
-8816,34	3349,00
-8795,11	3296,00
-8773,92	3038,00
-8752,78	2887,00
-8731,68	2539,00
-8710,62	2748,00
-8689,61	2647,00
-8668,63	2911,00
-8647,70	3095,00
-8626,82	3145,00
-8605,97	2986,00
-8585,17	2964,00
-8564,41	2559,00
-8543,69	2466,00
-8523,01	2331,00
-8502,37	2586,00
-8481,78	2550,00
-8461,23	2639,00
-8440,71	2941,00
-8420,24	2952,00
-8399,81	3271,00
-8379,42	3022,00
-8359,08	2849,00
-8338,77	2713,00
-8318,50	2455,00
-8298,27	2390,00
-8278,09	2702,00
-8257,94	2661,00
-8237,83	2917,00
-8217,76	3017,00
-8197,74	2924,00
-8177,75	2965,00
-8157,80	2554,00
-8137,89	2410,00
-8118,02	2362,00
-8098,19	2413,00
-8078,40	2446,00
-8058,65	2602,00
-8038,93	2528,00
-8019,26	2537,00
-7999,62	2510,00
-7980,02	2374,00
-7960,46	2184,00
-7940,94	2209,00
-7921,46	2117,00
-7902,01	2170,00
-7882,60	2252,00
-7863,23	2117,00
-7843,90	2118,00
-7824,61	2336,00
-7805,35	2513,00
-7786,13	2352,00
-7766,95	2413,00
-7747,80	2252,00
-7728,69	2294,00
-7709,62	2171,00
-7690,59	2215,00
-7671,59	2414,00
-7652,63	2329,00
-7633,70	2378,00
-7614,81	2414,00
-7595,96	2112,00
-7577,15	2133,00
-7558,37	2011,00
-7539,62	2254,00
-7520,91	2135,00
-7502,24	2270,00
-7483,60	2413,00
-7465,00	2206,00
-7446,44	2109,00
-7427,91	1767,00
-7409,41	1798,00
-7390,95	1717,00
-7372,53	1602,00
-7354,14	1663,00
-7335,78	1720,00
-7317,46	1764,00
-7299,18	1755,00
-7280,92	1938,00
-7262,71	2230,00
-7244,52	2270,00
-7226,38	2176,00
-7208,26	2030,00
-7190,18	2118,00
-7172,14	1944,00
-7154,12	1932,00
-7136,15	1870,00
-7118,20	2177,00
-7100,29	2227,00
-7082,41	2083,00
-7064,57	2007,00
-7046,76	2094,00
-7028,98	1788,00
-7011,24	1745,00
-6993,53	1492,00
-6975,85	1514,00
-6958,20	1509,00
-6940,59	1361,00
-6923,01	1291,00
-6905,46	1598,00
-6887,94	1599,00
-6870,46	2178,00
-6853,01	2041,00
-6835,59	1980,00
-6818,21	1856,00
-6800,85	1713,00
-6783,53	1429,00
-6766,24	1274,00
-6748,98	1277,00
-6731,76	1192,00
-6714,56	1228,00
-6697,40	1120,00
-6680,26	1111,00
-6663,16	1315,00
-6646,09	1526,00
-6629,05	1672,00
-6612,05	1648,00
-6595,07	1631,00
-6578,13	1598,00
-6561,21	1407,00
-6544,33	1314,00
-6527,47	1022,00
-6510,65	1195,00
-6493,86	982,00
-6477,10	1093,00
-6460,36	1248,00
-6443,66	1074,00
-6426,99	1100,00
-6410,35	1136,00
-6393,74	1311,00
-6377,16	1206,00
-6360,61	1321,00
-6344,09	1280,00
-6327,59	1249,00
-6311,13	1491,00
-6294,70	1401,00
-6278,29	1388,00
-6261,92	1427,00
-6245,58	1576,00
-6229,26	1607,00
-6212,97	1575,00
-6196,72	1331,00
-6180,49	1322,00
-6164,29	927,00
-6148,12	1090,00
-6131,98	1181,00
-6115,86	985,00
-6099,78	891,00
-6083,72	961,00
-6067,69	880,00
-6051,69	896,00
-6035,72	1124,00
-6019,78	1064,00
-6003,87	1284,00
-5987,98	1247,00
-5972,12	1426,00
-5956,29	1316,00
-5940,49	1176,00
-5924,71	1277,00
-5908,96	1125,00
-5893,24	1058,00
-5877,55	1025,00
-5861,89	1118,00
-5846,25	848,00
-5830,64	1090,00
-5815,05	987,00
-5799,50	1027,00
-5783,97	1056,00
-5768,47	1206,00
-5752,99	1361,00
-5737,55	1216,00
-5722,12	1310,00
-5706,73	1389,00
-5691,36	1241,00
-5676,02	1028,00
-5660,71	976,00
-5645,42	1005,00
-5630,16	1127,00
-5614,92	1195,00
-5599,71	1086,00
-5584,53	1241,00
-5569,37	1100,00
-5554,24	2208,00
-5539,14	1100,00
-5524,06	1043,00
-5509,01	1080,00
-5493,98	1117,00
-5478,98	1124,00
-5464,00	1058,00
-5449,05	1085,00
-5434,13	1020,00
-5419,23	1014,00
-5404,36	967,00
-5389,51	1091,00
-5374,69	1271,00
-5359,89	1415,00
-5345,12	1424,00
-5330,37	1468,00
-5315,65	1323,00
-5300,95	1191,00
-5286,28	1131,00
-5271,63	984,00
-5257,01	1081,00
-5242,41	1104,00
-5227,84	966,00
-5213,29	993,00
-5198,76	951,00
-5184,26	932,00
-5169,79	959,00
-5155,33	1091,00
-5140,91	1013,00
-5126,51	1146,00
-5112,13	1167,00
-5097,77	1203,00
-5083,44	1131,00
-5069,13	968,00
-5054,85	1026,00
-5040,59	1050,00
-5026,36	1210,00
-5012,15	1267,00
-4997,96	1207,00
-4983,80	1129,00
-4969,66	1040,00
-4955,54	937,00
-4941,44	1103,00
-4927,37	1143,00
-4913,33	1473,00
-4899,30	1314,00
-4885,30	1373,00
-4871,33	1065,00
-4857,37	975,00
-4843,44	901,00
-4829,53	1091,00
-4815,65	1139,00
-4801,79	882,00
-4787,95	1106,00
-4774,13	995,00
-4760,34	1061,00
-4746,56	1088,00
-4732,82	936,00
-4719,09	1162,00
-4705,38	1182,00
-4691,70	1305,00
-4678,04	1368,00
-4664,41	1306,00
-4650,79	1332,00
-4637,20	944,00
-4623,63	954,00
-4610,08	1127,00
-4596,56	1134,00
-4583,05	1115,00
-4569,57	1087,00
-4556,11	1106,00
-4542,67	930,00
-4529,25	907,00
-4515,86	1064,00
-4502,49	1181,00
-4489,13	1365,00
-4475,80	1311,00
-4462,49	934,00
-4449,21	1164,00
-4435,94	940,00
-4422,70	976,00
-4409,47	997,00
-4396,27	1044,00
-4383,09	954,00
-4369,93	992,00
-4356,79	842,00
-4343,67	1053,00
-4330,58	1062,00
-4317,50	1101,00
-4304,45	1012,00
-4291,41	1121,00
-4278,40	917,00
-4265,41	861,00
-4252,44	990,00
-4239,49	993,00
-4226,55	1130,00
-4213,65	1016,00
-4200,76	993,00
-4187,89	885,00
-4175,04	908,00
-4162,21	839,00
-4149,40	973,00
-4136,61	973,00
-4123,85	878,00
-4111,10	940,00
-4098,37	945,00
-4085,66	989,00
-4072,98	995,00
-4060,31	842,00
-4047,66	1044,00
-4035,04	1041,00
-4022,43	946,00
-4009,84	920,00
-3997,27	719,00
-3984,72	836,00
-3972,19	937,00
-3959,69	877,00
-3947,20	888,00
-3934,73	853,00
-3922,27	847,00
-3909,84	803,00
-3897,43	1009,00
-3885,04	989,00
-3872,67	887,00
-3860,31	837,00
-3847,98	1055,00
-3835,66	885,00
-3823,36	914,00
-3811,09	838,00
-3798,83	908,00
-3786,59	935,00
-3774,37	982,00
-3762,17	808,00
-3749,98	879,00
-3737,82	906,00
-3725,67	1093,00
-3713,55	833,00
-3701,44	945,00
-3689,35	965,00
-3677,28	1108,00
-3665,22	955,00
-3653,19	816,00
-3641,17	865,00
-3629,18	951,00
-3617,20	911,00
-3605,24	870,00
-3593,30	963,00
-3581,37	951,00
-3569,47	920,00
-3557,58	961,00
-3545,71	963,00
-3533,86	961,00
-3522,02	874,00
-3510,21	912,00
-3498,41	937,00
-3486,63	887,00
-3474,87	884,00
-3463,12	916,00
-3451,40	954,00
-3439,69	943,00
-3428,00	870,00
-3416,33	977,00
-3404,67	867,00
-3393,03	888,00
-3381,41	974,00
-3369,81	943,00
-3358,22	990,00
-3346,66	1009,00
-3335,10	955,00
-3323,57	924,00
-3312,06	971,00
-3300,56	986,00
-3289,08	861,00
-3277,61	880,00
-3266,16	940,00
-3254,73	894,00
-3243,32	904,00
-3231,92	800,00
-3220,55	1023,00
-3209,18	1014,00
-3197,84	816,00
-3186,51	846,00
-3175,20	863,00
-3163,90	860,00
-3152,63	948,00
-3141,36	834,00
-3130,12	940,00
-3118,89	954,00
-3107,68	805,00
-3096,49	833,00
-3085,31	868,00
-3074,15	878,00
-3063,00	880,00
-3051,87	893,00
-3040,76	832,00
-3029,67	1014,00
-3018,59	1081,00
-3007,52	1032,00
-2996,48	952,00
-2985,44	932,00
-2974,43	976,00
-2963,43	809,00
-2952,45	918,00
-2941,48	973,00
-2930,53	970,00
-2919,60	799,00
-2908,68	877,00
-2897,78	922,00
-2886,89	1051,00
-2876,02	956,00
-2865,17	949,00
-2854,33	941,00
-2843,50	929,00
-2832,70	995,00
-2821,90	929,00
-2811,13	930,00
-2800,37	859,00
-2789,62	837,00
-2778,89	971,00
-2768,18	945,00
-2757,48	932,00
-2746,80	1019,00
-2736,13	884,00
-2725,48	1058,00
-2714,84	792,00
-2704,22	902,00
-2693,61	863,00
-2683,02	903,00
-2672,45	925,00
-2661,89	962,00
-2651,34	909,00
-2640,81	946,00
-2630,30	979,00
-2619,80	832,00
-2609,31	1000,00
-2598,84	849,00
-2588,39	890,00
-2577,95	856,00
-2567,52	858,00
-2557,11	828,00
-2546,71	887,00
-2536,33	1003,00
-2525,97	875,00
-2515,62	971,00
-2505,28	858,00
-2494,96	866,00
-2484,65	944,00
-2474,36	1220,00
-2464,08	883,00
-2453,82	1001,00
-2443,57	900,00
-2433,33	764,00
-2423,11	1025,00
-2412,91	978,00
-2402,72	813,00
-2392,54	919,00
-2382,38	946,00
-2372,23	964,00
-2362,09	1978,00
-2351,97	849,00
-2341,87	900,00
-2331,78	935,00
-2321,70	927,00
-2311,64	898,00
-2301,59	789,00
-2291,55	931,00
-2281,53	943,00
-2271,53	756,00
-2261,53	949,00
-2251,55	892,00
-2241,59	890,00
-2231,64	999,00
-2221,70	864,00
-2211,78	917,00
-2201,87	951,00
-2191,97	964,00
-2182,09	934,00
-2172,22	930,00
-2162,37	862,00
-2152,53	781,00
-2142,70	886,00
-2132,89	904,00
-2123,09	967,00
-2113,30	870,00
-2103,53	879,00
-2093,77	976,00
-2084,02	870,00
-2074,29	1061,00
-2064,57	894,00
-2054,86	939,00
-2045,17	1050,00
-2035,49	928,00
-2025,82	778,00
-2016,17	936,00
-2006,53	917,00
-1996,91	895,00
-1987,29	875,00
-1977,69	907,00
-1968,11	833,00
-1958,53	847,00
-1948,97	910,00
-1939,42	903,00
-1929,89	862,00
-1920,37	938,00
-1910,86	866,00
-1901,36	929,00
-1891,88	989,00
-1882,41	902,00
-1872,95	994,00
-1863,51	989,00
-1854,08	928,00
-1844,66	948,00
-1835,26	1020,00
-1825,86	937,00
-1816,48	845,00
-1807,11	972,00
-1797,76	922,00
-1788,42	960,00
-1779,09	910,00
-1769,77	914,00
-1760,47	1129,00
-1751,17	824,00
-1741,89	845,00
-1732,63	938,00
-1723,37	1024,00
-1714,13	1014,00
-1704,90	904,00
-1695,68	1062,00
-1686,48	793,00
-1677,29	950,00
-1668,11	1035,00
-1658,94	926,00
-1649,78	891,00
-1640,64	993,00
-1631,51	856,00
-1622,39	970,00
-1613,28	931,00
-1604,19	1019,00
-1595,10	951,00
-1586,03	900,00
-1576,97	985,00
-1567,93	865,00
-1558,89	932,00
-1549,87	909,00
-1540,86	902,00
-1531,86	856,00
-1522,87	880,00
-1513,90	1005,00
-1504,93	951,00
-1495,98	987,00
-1487,04	1013,00
-1478,12	903,00
-1469,20	827,00
-1460,30	938,00
-1451,40	1137,00
-1442,52	937,00
-1433,65	978,00
-1424,80	988,00
-1415,95	881,00
-1407,12	1208,00
-1398,30	905,00
-1389,48	966,00
-1380,69	863,00
-1371,90	826,00
-1363,12	1015,00
-1354,36	1035,00
-1345,60	895,00
-1336,86	967,00
-1328,13	1114,00
-1319,41	964,00
-1310,70	880,00
-1302,01	843,00
-1293,32	829,00
-1284,65	928,00
-1275,99	973,00
-1267,33	1016,00
-1258,69	986,00
-1250,06	890,00
-1241,45	854,00
-1232,84	1120,00
-1224,25	1004,00
-1215,66	964,00
-1207,09	941,00
-1198,53	863,00
-1189,97	935,00
-1181,43	797,00
-1172,91	935,00
-1164,39	1116,00
-1155,88	846,00
-1147,38	827,00
-1138,90	860,00
-1130,43	943,00
-1121,96	896,00
-1113,51	907,00
-1105,07	924,00
-1096,64	1004,00
-1088,22	909,00
-1079,81	1031,00
-1071,41	1104,00
-1063,02	894,00
-1054,65	938,00
-1046,28	880,00
-1037,92	952,00
-1029,58	901,00
-1021,24	957,00
-1012,92	1240,00
-1004,61	944,00
-996,30	1173,00
-988,01	823,00
-979,73	963,00
-971,46	1012,00
-963,20	890,00
-954,95	802,00
-946,71	887,00
-938,48	951,00
-930,26	952,00
-922,06	935,00
-913,86	918,00
-905,67	843,00
-897,49	1003,00
-889,33	769,00
-881,17	975,00
-873,02	963,00
-864,89	805,00
-856,76	946,00
-848,65	1030,00
-840,54	1060,00
-832,45	993,00
-824,36	789,00
-816,29	966,00
-808,22	984,00
-800,17	981,00
-792,12	949,00
-784,09	941,00
-776,06	892,00
-768,05	938,00
-760,04	866,00
-752,05	824,00
-744,07	914,00
-736,09	987,00
-728,13	797,00
-720,17	864,00
-712,23	887,00
-704,29	847,00
-696,37	882,00
-688,45	970,00
-680,55	882,00
-672,65	946,00
-664,77	910,00
-656,89	956,00
-649,03	830,00
-641,17	975,00
-633,32	986,00
-625,49	997,00
-617,66	825,00
-609,84	949,00
-602,03	845,00
-594,23	930,00
-586,45	871,00
-578,67	924,00
-570,90	883,00
-563,14	815,00
-555,39	959,00
-547,65	921,00
-539,91	946,00
-532,19	954,00
-524,48	1074,00
-516,78	862,00
-509,08	916,00
-501,40	958,00
-493,72	913,00
-486,06	902,00
-478,40	1097,00
-470,76	844,00
-463,12	840,00
-455,49	835,00
-447,87	888,00
-440,26	914,00
-432,66	812,00
-425,07	896,00
-417,49	987,00
-409,92	773,00
-402,35	861,00
-394,80	879,00
-387,25	976,00
-379,72	917,00
-372,19	955,00
-364,67	999,00
-357,17	947,00
-349,67	957,00
-342,18	935,00
-334,69	1020,00
-327,22	914,00
-319,76	988,00
-312,30	921,00
-304,86	935,00
-297,42	995,00
-290,00	947,00
-282,58	876,00
-275,17	1023,00
-267,77	1067,00
-260,37	963,00
-252,99	1011,00
-245,62	970,00
-238,25	888,00
-230,90	928,00
-223,55	1032,00
-216,21	968,00
-208,88	1216,00
-201,56	985,00
-194,25	1104,00
-186,94	1038,00
-179,65	1095,00
-172,36	1143,00
-165,08	1102,00
-157,81	1155,00
-150,55	1254,00
-143,30	1183,00
-136,06	1249,00
-128,82	1337,00
-121,60	1351,00
-114,38	1473,00
-107,17	1617,00
-99,97	1667,00
-92,78	1620,00
-85,60	1752,00
-78,42	1944,00
-71,25	2118,00
-64,10	2206,00
-56,95	2584,00
-49,81	2860,00
-42,67	3432,00
-35,55	3937,00
-28,43	5084,00
-21,33	7810,00
-14,23	24119,00
-7,14	57498,00
-0,05	57284,00
7,02	57012,00
14,09	57319,00
21,14	20380,00
28,19	8949,00
35,23	6173,00
42,27	5092,00
49,29	4133,00
56,31	3657,00
63,32	3344,00
70,32	2792,00
77,31	2642,00
84,29	2283,00
91,27	2368,00
98,23	2162,00
105,19	2168,00
112,14	2576,00
119,09	3960,00
126,02	6422,00
132,95	7842,00
139,87	8357,00
146,78	8466,00
153,68	8280,00
160,58	8136,00
167,46	8152,00
174,34	8246,00
181,21	8237,00
188,08	8150,00
194,93	8326,00
201,78	8122,00
208,62	8263,00
215,45	8222,00
222,27	8331,00
229,09	8333,00
235,90	8057,00
242,70	7941,00
249,49	8094,00
256,27	7811,00
263,05	7819,00
269,82	7992,00
276,58	7760,00
283,33	7605,00
290,08	7591,00
296,82	7651,00
303,55	7474,00
310,27	7295,00
316,98	7431,00
323,69	7369,00
330,39	7406,00
337,08	7373,00
343,76	7359,00
350,44	7325,00
357,11	7340,00
363,77	7192,00
370,42	7197,00
377,07	7249,00
383,71	7297,00
390,34	7344,00
396,96	7241,00
403,58	7184,00
410,19	7256,00
416,79	7433,00
423,38	7510,00
429,97	7380,00
436,55	7263,00
443,12	7356,00
449,68	7367,00
456,24	7174,00
462,79	7204,00
469,33	6942,00
475,86	6913,00
482,39	6623,00
488,91	6638,00
495,42	6518,00
501,93	6432,00
508,42	6466,00
514,91	6377,00
521,40	6261,00
527,87	6299,00
534,34	6271,00
540,80	6327,00
547,25	6255,00
553,70	6086,00
560,14	6205,00
566,57	6209,00
573,00	6078,00
579,41	6238,00
585,83	6287,00
592,23	6263,00
598,62	6359,00
605,01	6346,00
611,40	6399,00
617,77	6448,00
624,14	6227,00
630,50	6056,00
636,85	5985,00
643,20	5862,00
649,54	5750,00
655,87	5601,00
662,20	5621,00
668,52	5674,00
674,83	5589,00
681,13	5442,00
687,43	5516,00
693,72	5445,00
700,00	5357,00
706,28	5317,00
712,55	5435,00
718,81	5365,00
725,07	5213,00
731,32	5213,00
737,56	5314,00
743,79	5225,00
750,02	5415,00
756,24	5153,00
762,46	5175,00
768,67	5444,00
774,87	5058,00
781,06	5069,00
787,25	5116,00
793,43	5103,00
799,60	5044,00
805,77	5114,00
811,93	5064,00
818,08	5116,00
824,23	4979,00
830,37	5164,00
836,50	5030,00
842,63	5033,00
848,75	4964,00
854,87	4891,00
860,97	5114,00
867,07	4896,00
873,17	4841,00
879,25	4842,00
885,33	4931,00
891,41	4876,00
897,47	4903,00
903,53	4735,00
909,59	4751,00
915,63	4679,00
921,67	4650,00
927,71	4780,00
933,74	4636,00
939,76	4507,00
945,77	4536,00
951,78	4690,00
957,78	4398,00
963,78	4611,00
969,77	4504,00
975,75	4481,00
981,72	4462,00
987,69	5849,00
993,66	4622,00
999,61	4524,00
1005,56	4462,00
1011,51	4520,00
1017,44	4539,00
1023,37	4556,00
1029,30	4490,00
1035,22	4483,00
1041,13	4660,00
1047,03	4791,00
1052,93	5285,00
1058,83	6376,00
1064,71	6957,00
1070,59	6067,00
1076,47	5349,00
1082,33	5130,00
1088,20	4987,00
1094,05	4876,00
1099,90	4556,00
1105,74	4624,00
1111,58	4475,00
1117,41	4827,00
1123,23	5823,00
1129,05	6749,00
1134,86	6226,00
1140,67	5173,00
1146,47	4585,00
1152,26	4495,00
1158,05	4334,00
1163,83	4460,00
1169,60	4670,00
1175,37	4454,00
1181,13	4293,00
1186,89	4214,00
1192,64	4117,00
1198,38	4395,00
1204,12	4212,00
1209,85	4075,00
1215,58	4044,00
1221,30	4175,00
1227,02	4090,00
1232,72	4153,00
1238,43	4116,00
1244,12	4133,00
1249,81	4099,00
1255,50	4347,00
1261,17	4179,00
1266,85	4259,00
1272,51	4278,00
1278,17	4416,00
1283,83	4859,00
1289,47	6153,00
1295,12	7652,00
1300,75	6927,00
1306,38	5938,00
1312,01	5037,00
1317,63	4547,00
1323,24	4383,00
1328,85	4266,00
1334,45	4075,00
1340,04	4124,00
1345,63	4096,00
1351,22	4239,00
1356,80	4188,00
1362,37	4294,00
1367,93	4267,00
1373,49	4416,00
1379,05	4096,00
1384,60	4094,00
1390,14	4176,00
1395,68	4094,00
1401,21	4235,00
1406,74	4375,00
1412,26	4865,00
1417,77	5648,00
1423,28	5377,00
1428,78	5724,00
1434,28	6656,00
1439,77	7449,00
1445,26	7330,00
1450,74	7023,00
1456,22	6615,00
1461,68	6317,00
1467,15	6166,00
1472,61	5299,00
1478,06	4990,00
1483,51	4558,00
1488,95	4076,00
1494,38	4077,00
1499,81	3847,00
1505,24	3849,00
1510,65	3858,00
1516,07	3789,00
1521,48	3684,00
1526,88	3558,00
1532,27	3673,00
1537,67	3592,00
1543,05	3620,00
1548,43	3548,00
1553,81	3571,00
1559,18	3405,00
1564,54	3593,00
1569,90	3499,00
1575,25	3415,00
1580,60	3280,00
1585,94	3526,00
1591,28	3389,00
1596,61	3366,00
1601,93	3388,00
1607,25	3432,00
1612,57	3391,00
1617,88	3373,00
1623,18	3350,00
1628,48	3269,00
1633,77	3281,00
1639,06	3360,00
1644,34	3314,00
1649,62	3147,00
1654,89	3221,00
1660,16	3064,00
1665,42	3205,00
1670,67	3089,00
1675,92	2960,00
1681,17	3063,00
1686,41	3158,00
1691,64	3191,00
1696,87	3116,00
1702,10	3011,00
1707,32	3005,00
1712,53	3041,00
1717,74	3042,00
1722,94	3127,00
1728,14	2945,00
1733,33	2870,00
1738,52	2893,00
1743,70	2925,00
1748,88	2778,00
1754,05	2907,00
1759,22	2777,00
1764,38	2777,00
1769,53	2904,00
1774,69	2874,00
1779,83	2733,00
1784,97	2802,00
1790,11	2695,00
1795,24	2748,00
1800,36	2694,00
1805,48	2618,00
1810,60	2660,00
1815,71	2760,00
1820,82	2609,00
1825,92	2732,00
1831,01	2576,00
1836,10	2618,00
1841,19	2679,00
1846,26	2452,00
1851,34	2641,00
1856,41	2699,00
1861,47	2471,00
1866,53	2708,00
1871,59	2528,00
1876,64	2583,00
1881,68	2489,00
1886,72	2497,00
1891,76	2502,00
1896,79	2495,00
1901,81	2344,00
1906,83	2438,00
1911,85	2386,00
1916,86	2474,00
1921,86	2308,00
1926,86	2320,00
1931,86	2432,00
1936,85	2267,00
1941,83	2280,00
1946,81	2297,00
1951,79	2204,00
1956,76	2282,00
1961,72	2013,00
1966,68	2265,00
1971,64	2251,00
1976,59	2320,00
1981,54	2275,00
1986,48	2303,00
1991,42	2087,00
1996,35	2459,00
2001,27	2232,00
2006,20	2159,00
2011,11	2279,00
2016,03	2155,00
2020,93	2011,00
2025,84	2180,00
2030,73	2165,00
2035,63	2078,00
2040,52	2102,00
2045,40	2114,00
2050,28	1993,00
2055,15	2105,00
2060,02	1850,00
2064,89	2064,00
2069,75	2102,00
2074,60	2005,00
2079,46	1946,00
2084,30	1983,00
2089,14	1961,00
2093,98	2003,00
2098,81	1964,00
2103,64	1923,00
2108,46	1985,00
2113,28	2017,00
2118,09	2044,00
2122,90	1988,00
2127,70	1891,00
2132,50	2045,00
2137,30	1934,00
2142,09	1785,00
2146,87	1813,00
2151,66	1909,00
2156,43	1930,00
2161,20	1929,00
2165,97	1971,00
2170,73	1857,00
2175,49	2032,00
2180,24	1910,00
2184,99	2095,00
2189,74	2094,00
2194,48	1903,00
2199,21	1998,00
2203,94	1859,00
2208,67	1803,00
2213,39	1736,00
2218,11	1832,00
2222,82	1821,00
2227,53	1856,00
2232,23	1903,00
2236,93	1880,00
2241,63	1704,00
2246,32	1921,00
2251,00	1812,00
2255,68	1810,00
2260,36	1773,00
2265,03	1856,00
2269,70	1896,00
2274,36	1690,00
2279,02	1716,00
2283,68	1781,00
2288,33	1720,00
2292,97	1794,00
2297,61	1708,00
2302,25	1822,00
2306,88	1697,00
2311,51	1558,00
2316,14	1661,00
2320,75	1602,00
2325,37	1551,00
2329,98	1718,00
2334,59	1638,00
2339,19	1653,00
2343,79	1479,00
2348,38	1609,00
2352,97	1523,00
2357,55	1580,00
2362,13	1559,00
2366,71	1493,00
2371,28	1761,00
2375,85	1605,00
2380,41	1588,00
2384,97	1551,00
2389,52	1573,00
2394,07	1622,00
2398,62	1549,00
2403,16	1598,00
2407,70	1441,00
2412,23	1503,00
2416,76	1662,00
2421,29	1634,00
2425,81	1650,00
2430,32	1618,00
2434,84	1402,00
2439,34	1499,00
2443,85	1679,00
2448,35	1487,00
2452,84	1530,00
2457,33	1576,00
2461,82	1392,00
2466,30	1443,00
2470,78	1498,00
2475,25	1433,00
2479,72	1456,00
2484,19	1571,00
2488,65	1605,00
2493,11	1343,00
2497,56	1623,00
2502,01	1268,00
2506,46	1488,00
2510,90	1468,00
2515,34	1477,00
2519,77	1482,00
2524,20	1457,00
2528,62	1403,00
2533,04	1518,00
2537,46	1452,00
2541,87	1378,00
2546,28	1490,00
2550,68	1506,00
2555,08	1492,00
2559,48	1497,00
2563,87	1412,00
2568,26	1389,00
2572,64	1511,00
2577,02	1487,00
2581,40	1341,00
2585,77	1526,00
2590,14	1377,00
2594,50	1351,00
2598,86	1509,00
2603,22	1448,00
2607,57	1382,00
2611,92	1495,00
2616,26	1587,00
2620,60	1467,00
2624,94	1356,00
2629,27	1504,00
2633,60	1319,00
2637,92	1541,00
2642,24	1680,00
2646,56	1523,00
2650,87	1320,00
2655,18	1602,00
2659,48	1333,00
2663,78	1327,00
2668,08	1433,00
2672,37	1406,00
2676,66	1357,00
2680,95	1392,00
2685,23	1497,00
2689,50	1476,00
2693,78	1492,00
2698,05	1496,00
2702,31	1493,00
2706,57	1645,00
2710,83	1684,00
2715,08	1729,00
2719,33	1782,00
2723,58	1689,00
2727,82	1815,00
2732,06	1660,00
2736,29	1687,00
2740,53	1593,00
2744,75	1566,00
2748,97	1463,00
2753,19	1544,00
2757,41	1592,00
2761,62	1594,00
2765,83	1562,00
2770,03	1541,00
2774,23	1552,00
2778,43	1513,00
2782,62	1608,00
2786,81	1642,00
2791,00	1605,00
2795,18	1590,00
2799,35	1712,00
2803,53	1716,00
2807,70	1693,00
2811,86	1837,00
2816,03	1906,00
2820,19	1947,00
2824,34	1966,00
2828,49	2147,00
2832,64	2446,00
2836,78	2893,00
2840,92	3264,00
2845,06	3883,00
2849,19	4238,00
2853,32	4311,00
2857,45	4244,00
2861,57	4294,00
2865,69	4159,00
2869,80	4045,00
2873,91	4241,00
2878,02	4752,00
2882,12	5088,00
2886,22	5055,00
2890,32	4678,00
2894,41	4378,00
2898,50	4037,00
2902,58	3734,00
2906,67	3531,00
2910,74	3304,00
2914,82	3052,00
2918,89	3053,00
2922,96	2762,00
2927,02	2575,00
2931,08	2553,00
2935,13	2270,00
2939,19	2366,00
2943,24	2125,00
2947,28	2165,00
2951,32	1837,00
2955,36	1743,00
2959,40	1787,00
2963,43	1704,00
2967,46	1592,00
2971,48	1565,00
2975,50	1566,00
2979,52	1525,00
2983,53	1448,00
2987,54	1394,00
2991,55	1313,00
2995,55	1343,00
2999,55	1328,00
3003,54	1207,00
3007,54	1379,00
3011,53	1255,00
3015,51	1190,00
3019,49	1224,00
3023,47	1093,00
3027,45	1308,00
3031,42	1219,00
3035,39	1147,00
3039,35	1142,00
3043,31	1219,00
3047,27	1124,00
3051,22	1227,00
3055,17	1025,00
3059,12	1083,00
3063,06	1194,00
3067,00	1033,00
3070,94	1018,00
3074,87	1236,00
3078,80	1094,00
3082,73	1055,00
3086,65	1015,00
3090,57	1018,00
3094,49	1133,00
3098,40	1029,00
3102,31	917,00
3106,22	1123,00
3110,12	1006,00
3114,02	922,00
3117,92	1125,00
3121,81	1088,00
3125,70	1034,00
3129,58	1039,00
3133,47	892,00
3137,34	1055,00
3141,22	1107,00
3145,09	1134,00
3148,96	1122,00
3152,83	1005,00
3156,69	989,00
3160,55	980,00
3164,40	1059,00
3168,26	1036,00
3172,10	1133,00
3175,95	1066,00
3179,79	1072,00
3183,63	1032,00
3187,47	998,00
3191,30	1083,00
3195,13	1092,00
3198,95	933,00
3202,78	997,00
3206,60	956,00
3210,41	888,00
3214,23	1011,00
3218,03	1057,00
3221,84	1046,00
3225,64	1058,00
3229,44	913,00
3233,24	996,00
3237,03	985,00
3240,82	936,00
3244,61	939,00
3248,39	939,00
3252,17	1060,00
3255,95	1184,00
3259,72	1012,00
3263,49	1112,00
3267,26	973,00
3271,03	1016,00
3274,79	977,00
3278,54	977,00
3282,30	809,00
3286,05	1025,00
3289,80	1054,00
3293,54	931,00
3297,29	955,00
3301,02	959,00
3304,76	993,00
3308,49	1112,00
3312,22	881,00
3315,95	1000,00
3319,67	959,00
3323,39	1048,00
3327,10	1001,00
3330,82	940,00
3334,53	960,00
3338,24	970,00
3341,94	892,00
3345,64	1002,00
3349,34	939,00
3353,03	1010,00
3356,72	968,00
3360,41	961,00
3364,10	848,00
3367,78	923,00
3371,46	912,00
3375,13	943,00
3378,81	993,00
3382,48	828,00
3386,14	1008,00
3389,81	940,00
3393,47	908,00
3397,12	1085,00
3400,78	978,00
3404,43	900,00
3408,08	1006,00
3411,72	895,00
3415,36	891,00
3419,00	906,00
3422,64	903,00
3426,27	886,00
3429,90	990,00
3433,53	894,00
3437,15	915,00
3440,77	824,00
3444,39	863,00
3448,00	857,00
3451,62	871,00
3455,22	915,00
3458,83	873,00
3462,43	978,00
3466,03	997,00
3469,63	882,00
3473,22	917,00
3476,81	878,00
3480,40	998,00
3483,99	873,00
3487,57	974,00
3491,15	968,00
3494,72	906,00
3498,29	955,00
3501,86	841,00
3505,43	937,00
3508,99	874,00
3512,56	711,00
3516,11	1044,00
3519,67	892,00
3523,22	923,00
3526,77	851,00
3530,32	1093,00
3533,86	966,00
3537,40	1101,00
3540,94	916,00
3544,47	922,00
3548,00	807,00
3551,53	1013,00
3555,06	856,00
3558,58	887,00
3562,10	916,00
3565,62	828,00
3569,13	879,00
3572,64	940,00
3576,15	776,00
3579,66	909,00
3583,16	916,00
3586,66	941,00
3590,16	871,00
3593,65	825,00
3597,14	885,00
3600,63	872,00
3604,11	899,00
3607,60	878,00
3611,08	856,00
3614,55	881,00
3618,03	825,00
3621,50	744,00
3624,97	784,00
3628,43	929,00
3631,90	892,00
3635,36	708,00
3638,81	806,00
3642,27	884,00
3645,72	913,00
3649,17	826,00
3652,61	840,00
3656,06	784,00
3659,50	831,00
3662,93	819,00
3666,37	849,00
3669,80	982,00
3673,23	877,00
3676,65	833,00
3680,08	948,00
3683,50	821,00
3686,92	795,00
3690,33	819,00
3693,74	850,00
3697,15	762,00
3700,56	944,00
3703,96	916,00
3707,36	697,00
3710,76	769,00
3714,16	744,00
3717,55	846,00
3720,94	731,00
3724,33	769,00
3727,71	802,00
3731,10	805,00
3734,48	791,00
3737,85	675,00
3741,23	750,00
3744,60	744,00
3747,97	733,00
3751,33	859,00
3754,69	802,00
3758,05	720,00
3761,41	705,00
3764,77	749,00
3768,12	689,00
3771,47	660,00
3774,82	796,00
3778,16	-7,00
3781,50	14,00
3784,84	8,00
3788,18	8,00
>>>>>End Processed Spectral Data<<<<<
