SpectraSuite Data File
++++++++++++++++++++++++++++++++++++
Date: Mon Jan 05 16:31:34 ICT 2026
User: Administrator
Dark Spectrum Present: Yes
Reference Spectrum Present: No
Number of Sampled Component Spectra: 1
Spectrometers: MAYP113682
Integration Time (usec): 3000000 (MAYP113682)
Spectra Averaged: 1 (MAYP113682)
Boxcar Smoothing: 0 (MAYP113682)
Correct for Electrical Dark: No (MAYP113682)
Strobe/Lamp Enabled: No (MAYP113682)
Correct for Detector Non-linearity: No (MAYP113682)
Correct for Stray Light: No (MAYP113682)
Number of Pixels in Processed Spectrum: 2068
>>>>>Begin Processed Spectral Data<<<<<
-37534,58	29,00
-37414,56	7,00
-37295,11	9,00
-37176,24	7,00
-37057,95	546,00
-36940,22	650,00
-36823,05	626,00
-36706,45	741,00
-36590,40	688,00
-36474,90	605,00
-36359,95	684,00
-36245,55	708,00
-36131,68	646,00
-36018,35	685,00
-35905,55	704,00
-35793,29	778,00
-35681,54	655,00
-35570,32	702,00
-35459,62	726,00
-35349,43	783,00
-35239,75	721,00
-35130,58	677,00
-35021,91	698,00
-34913,74	713,00
-34806,07	776,00
-34698,89	702,00
-34592,20	751,00
-34486,00	690,00
-34380,28	777,00
-34275,04	653,00
-34170,27	649,00
-34065,98	829,00
-33962,16	763,00
-33858,81	804,00
-33755,92	754,00
-33653,49	852,00
-33551,52	922,00
-33450,01	744,00
-33348,94	741,00
-33248,33	714,00
-33148,16	722,00
-33048,43	709,00
-32949,14	936,00
-32850,29	848,00
-32751,87	733,00
-32653,89	833,00
-32556,33	809,00
-32459,20	809,00
-32362,49	834,00
-32266,19	703,00
-32170,32	818,00
-32074,86	752,00
-31979,82	870,00
-31885,18	846,00
-31790,95	840,00
-31697,12	903,00
-31603,69	825,00
-31510,67	879,00
-31418,04	756,00
-31325,80	717,00
-31233,95	690,00
-31142,49	769,00
-31051,42	715,00
-30960,73	983,00
-30870,43	857,00
-30780,50	798,00
-30690,95	800,00
-30601,77	868,00
-30512,97	776,00
-30424,53	847,00
-30336,46	809,00
-30248,76	760,00
-30161,42	854,00
-30074,44	853,00
-29987,81	828,00
-29901,55	903,00
-29815,63	771,00
-29730,07	869,00
-29644,86	826,00
-29560,00	830,00
-29475,48	854,00
-29391,30	875,00
-29307,47	795,00
-29223,97	768,00
-29140,81	803,00
-29057,99	866,00
-28975,50	728,00
-28893,34	845,00
-28811,51	801,00
-28730,00	886,00
-28648,82	797,00
-28567,97	869,00
-28487,43	716,00
-28407,21	704,00
-28327,32	770,00
-28247,73	986,00
-28168,46	705,00
-28089,50	882,00
-28010,85	780,00
-27932,51	789,00
-27854,48	822,00
-27776,75	726,00
-27699,32	724,00
-27622,19	825,00
-27545,37	782,00
-27468,84	876,00
-27392,60	824,00
-27316,66	766,00
-27241,01	736,00
-27165,66	777,00
-27090,59	746,00
-27015,81	896,00
-26941,31	864,00
-26867,10	719,00
-26793,17	952,00
-26719,52	787,00
-26646,15	718,00
-26573,06	784,00
-26500,24	742,00
-26427,70	800,00
-26355,43	763,00
-26283,43	775,00
-26211,71	785,00
-26140,25	818,00
-26069,06	942,00
-25998,13	657,00
-25927,46	775,00
-25857,06	725,00
-25786,92	708,00
-25717,04	695,00
-25647,42	929,00
-25578,05	741,00
-25508,94	713,00
-25440,09	798,00
-25371,48	787,00
-25303,13	913,00
-25235,02	753,00
-25167,17	748,00
-25099,56	790,00
-25032,19	749,00
-24965,07	760,00
-24898,20	692,00
-24831,56	723,00
-24765,17	799,00
-24699,01	720,00
-24633,10	776,00
-24567,41	814,00
-24501,97	694,00
-24436,75	765,00
-24371,77	776,00
-24307,03	791,00
-24242,51	788,00
-24178,22	736,00
-24114,16	716,00
-24050,32	872,00
-23986,71	746,00
-23923,32	778,00
-23860,16	828,00
-23797,22	762,00
-23734,50	786,00
-23672,00	716,00
-23609,71	745,00
-23547,65	695,00
-23485,80	877,00
-23424,16	625,00
-23362,74	893,00
-23301,53	804,00
-23240,54	584,00
-23179,75	778,00
-23119,17	717,00
-23058,80	773,00
-22998,64	780,00
-22938,68	721,00
-22878,93	777,00
-22819,39	664,00
-22760,04	757,00
-22700,90	749,00
-22641,96	766,00
-22583,22	785,00
-22524,68	744,00
-22466,33	761,00
-22408,19	793,00
-22350,23	776,00
-22292,48	747,00
-22234,92	754,00
-22177,55	877,00
-22120,37	955,00
-22063,38	734,00
-22006,58	780,00
-21949,98	764,00
-21893,56	735,00
-21837,33	821,00
-21781,28	768,00
-21725,42	788,00
-21669,74	789,00
-21614,25	805,00
-21558,94	742,00
-21503,81	793,00
-21448,86	872,00
-21394,10	740,00
-21339,51	731,00
-21285,10	657,00
-21230,86	638,00
-21176,81	649,00
-21122,93	683,00
-21069,22	703,00
-21015,69	700,00
-20962,33	826,00
-20909,14	701,00
-20856,13	710,00
-20803,28	833,00
-20750,61	717,00
-20698,10	645,00
-20645,76	689,00
-20593,59	804,00
-20541,59	818,00
-20489,75	830,00
-20438,07	660,00
-20386,56	852,00
-20335,22	726,00
-20284,03	705,00
-20233,01	729,00
-20182,15	691,00
-20131,45	794,00
-20080,91	645,00
-20030,52	728,00
-19980,30	758,00
-19930,23	641,00
-19880,32	859,00
-19830,56	790,00
-19780,96	804,00
-19731,52	704,00
-19682,23	774,00
-19633,09	753,00
-19584,10	683,00
-19535,26	744,00
-19486,58	928,00
-19438,04	775,00
-19389,66	855,00
-19341,42	754,00
-19293,33	747,00
-19245,39	715,00
-19197,60	812,00
-19149,95	880,00
-19102,45	762,00
-19055,09	636,00
-19007,87	824,00
-18960,80	718,00
-18913,87	783,00
-18867,09	779,00
-18820,44	847,00
-18773,94	818,00
-18727,57	844,00
-18681,35	729,00
-18635,26	746,00
-18589,31	714,00
-18543,50	649,00
-18497,83	758,00
-18452,29	872,00
-18406,89	659,00
-18361,63	859,00
-18316,50	838,00
-18271,50	820,00
-18226,63	810,00
-18181,90	856,00
-18137,30	861,00
-18092,84	685,00
-18048,50	790,00
-18004,29	771,00
-17960,22	661,00
-17916,27	687,00
-17872,45	847,00
-17828,76	801,00
-17785,20	822,00
-17741,77	712,00
-17698,46	805,00
-17655,28	722,00
-17612,22	801,00
-17569,29	704,00
-17526,48	768,00
-17483,79	899,00
-17441,23	716,00
-17398,79	765,00
-17356,48	656,00
-17314,28	909,00
-17272,21	770,00
-17230,26	775,00
-17188,42	788,00
-17146,71	774,00
-17105,12	788,00
-17063,64	812,00
-17022,28	736,00
-16981,04	698,00
-16939,92	784,00
-16898,91	898,00
-16858,02	661,00
-16817,25	796,00
-16776,59	720,00
-16736,04	762,00
-16695,61	792,00
-16655,29	733,00
-16615,09	740,00
-16574,99	789,00
-16535,01	740,00
-16495,15	804,00
-16455,39	765,00
-16415,74	706,00
-16376,21	676,00
-16336,78	741,00
-16297,46	819,00
-16258,26	678,00
-16219,16	725,00
-16180,17	722,00
-16141,28	807,00
-16102,51	795,00
-16063,84	718,00
-16025,27	805,00
-15986,82	627,00
-15948,46	793,00
-15910,22	796,00
-15872,07	730,00
-15834,04	749,00
-15796,10	736,00
-15758,27	987,00
-15720,54	786,00
-15682,91	731,00
-15645,39	886,00
-15607,97	825,00
-15570,64	673,00
-15533,42	803,00
-15496,30	765,00
-15459,28	764,00
-15422,36	746,00
-15385,54	677,00
-15348,82	739,00
-15312,19	965,00
-15275,66	720,00
-15239,23	792,00
-15202,90	674,00
-15166,67	765,00
-15130,53	807,00
-15094,48	767,00
-15058,54	750,00
-15022,68	728,00
-14986,93	741,00
-14951,26	815,00
-14915,69	814,00
-14880,22	762,00
-14844,84	754,00
-14809,55	788,00
-14774,35	768,00
-14739,25	744,00
-14704,24	805,00
-14669,32	716,00
-14634,49	742,00
-14599,75	785,00
-14565,10	731,00
-14530,55	835,00
-14496,08	797,00
-14461,70	796,00
-14427,41	724,00
-14393,21	652,00
-14359,10	721,00
-14325,07	791,00
-14291,14	760,00
-14257,29	765,00
-14223,52	729,00
-14189,85	832,00
-14156,26	761,00
-14122,76	695,00
-14089,34	689,00
-14056,01	787,00
-14022,76	669,00
-13989,60	786,00
-13956,52	787,00
-13923,53	841,00
-13890,62	772,00
-13857,79	733,00
-13825,05	710,00
-13792,39	681,00
-13759,81	766,00
-13727,31	747,00
-13694,90	713,00
-13662,57	820,00
-13630,31	773,00
-13598,14	797,00
-13566,05	740,00
-13534,05	707,00
-13502,12	719,00
-13470,27	701,00
-13438,50	885,00
-13406,80	706,00
-13375,19	749,00
-13343,66	697,00
-13312,20	800,00
-13280,83	758,00
-13249,53	749,00
-13218,30	655,00
-13187,16	727,00
-13156,09	886,00
-13125,10	814,00
-13094,18	829,00
-13063,34	758,00
-13032,58	654,00
-13001,89	788,00
-12971,28	792,00
-12940,74	739,00
-12910,27	780,00
-12879,88	803,00
-12849,57	834,00
-12819,33	791,00
-12789,16	843,00
-12759,06	782,00
-12729,04	707,00
-12699,09	2176,00
-12669,21	727,00
-12639,41	764,00
-12609,68	778,00
-12580,02	832,00
-12550,43	924,00
-12520,91	696,00
-12491,46	790,00
-12462,08	727,00
-12432,77	685,00
-12403,54	731,00
-12374,37	746,00
-12345,27	774,00
-12316,24	723,00
-12287,29	740,00
-12258,40	757,00
-12229,57	796,00
-12200,82	683,00
-12172,14	747,00
-12143,52	648,00
-12114,97	727,00
-12086,49	785,00
-12058,07	824,00
-12029,73	678,00
-12001,44	830,00
-11973,23	818,00
-11945,08	802,00
-11917,00	669,00
-11888,98	664,00
-11861,03	809,00
-11833,15	721,00
-11805,32	896,00
-11777,57	762,00
-11749,88	852,00
-11722,25	735,00
-11694,69	809,00
-11667,19	699,00
-11639,75	877,00
-11612,38	721,00
-11585,07	756,00
-11557,83	854,00
-11530,65	961,00
-11503,53	738,00
-11476,47	754,00
-11449,48	763,00
-11422,54	857,00
-11395,67	736,00
-11368,86	865,00
-11342,11	759,00
-11315,43	754,00
-11288,80	736,00
-11262,23	771,00
-11235,73	770,00
-11209,28	1018,00
-11182,90	727,00
-11156,57	748,00
-11130,31	928,00
-11104,10	738,00
-11077,96	800,00
-11051,87	820,00
-11025,84	729,00
-10999,87	751,00
-10973,96	745,00
-10948,11	668,00
-10922,31	794,00
-10896,58	802,00
-10870,90	899,00
-10845,28	790,00
-10819,71	727,00
-10794,20	884,00
-10768,75	945,00
-10743,36	876,00
-10718,02	759,00
-10692,74	762,00
-10667,52	738,00
-10642,35	787,00
-10617,24	889,00
-10592,18	838,00
-10567,18	825,00
-10542,23	843,00
-10517,34	814,00
-10492,51	882,00
-10467,72	785,00
-10443,00	880,00
-10418,32	919,00
-10393,70	880,00
-10369,14	836,00
-10344,63	810,00
-10320,17	860,00
-10295,77	903,00
-10271,42	826,00
-10247,12	980,00
-10222,88	1007,00
-10198,68	869,00
-10174,54	975,00
-10150,46	1146,00
-10126,42	1190,00
-10102,44	990,00
-10078,51	998,00
-10054,63	1108,00
-10030,80	1103,00
-10007,03	1215,00
-9983,30	1182,00
-9959,63	1170,00
-9936,01	1331,00
-9912,44	1266,00
-9888,92	1338,00
-9865,44	1181,00
-9842,02	1338,00
-9818,65	1319,00
-9795,33	1163,00
-9772,06	1298,00
-9748,84	1254,00
-9725,67	1354,00
-9702,55	1513,00
-9679,47	1617,00
-9656,45	1790,00
-9633,47	1760,00
-9610,55	1729,00
-9587,67	2027,00
-9564,84	2143,00
-9542,06	2090,00
-9519,32	2458,00
-9496,64	2582,00
-9474,00	2545,00
-9451,41	2593,00
-9428,87	2681,00
-9406,37	2772,00
-9383,92	2498,00
-9361,52	2545,00
-9339,17	2797,00
-9316,86	2997,00
-9294,60	3387,00
-9272,38	3629,00
-9250,21	4080,00
-9228,09	4153,00
-9206,01	4193,00
-9183,98	3735,00
-9162,00	3402,00
-9140,06	3565,00
-9118,16	3376,00
-9096,31	3538,00
-9074,51	3778,00
-9052,75	4008,00
-9031,04	3800,00
-9009,37	3324,00
-8987,74	3096,00
-8966,16	2928,00
-8944,63	2716,00
-8923,14	2717,00
-8901,69	2630,00
-8880,29	2857,00
-8858,93	3018,00
-8837,61	3273,00
-8816,34	3352,00
-8795,11	3424,00
-8773,92	3059,00
-8752,78	2967,00
-8731,68	2722,00
-8710,62	2921,00
-8689,61	2738,00
-8668,63	2963,00
-8647,70	3217,00
-8626,82	3265,00
-8605,97	3116,00
-8585,17	2999,00
-8564,41	2659,00
-8543,69	2666,00
-8523,01	2424,00
-8502,37	2680,00
-8481,78	2617,00
-8461,23	2635,00
-8440,71	3059,00
-8420,24	3138,00
-8399,81	3241,00
-8379,42	3091,00
-8359,08	3076,00
-8338,77	2706,00
-8318,50	2454,00
-8298,27	2484,00
-8278,09	2656,00
-8257,94	2648,00
-8237,83	2939,00
-8217,76	3014,00
-8197,74	2992,00
-8177,75	2967,00
-8157,80	2669,00
-8137,89	2494,00
-8118,02	2433,00
-8098,19	2468,00
-8078,40	2548,00
-8058,65	2438,00
-8038,93	2490,00
-8019,26	2504,00
-7999,62	2596,00
-7980,02	2341,00
-7960,46	2246,00
-7940,94	2201,00
-7921,46	2091,00
-7902,01	1988,00
-7882,60	2282,00
-7863,23	2093,00
-7843,90	2209,00
-7824,61	2281,00
-7805,35	2533,00
-7786,13	2369,00
-7766,95	2520,00
-7747,80	2271,00
-7728,69	2302,00
-7709,62	2221,00
-7690,59	2367,00
-7671,59	2405,00
-7652,63	2390,00
-7633,70	2347,00
-7614,81	2405,00
-7595,96	2139,00
-7577,15	2088,00
-7558,37	2074,00
-7539,62	2217,00
-7520,91	2191,00
-7502,24	2268,00
-7483,60	2326,00
-7465,00	2203,00
-7446,44	2079,00
-7427,91	1715,00
-7409,41	1749,00
-7390,95	1678,00
-7372,53	1662,00
-7354,14	1702,00
-7335,78	1659,00
-7317,46	1776,00
-7299,18	1839,00
-7280,92	1977,00
-7262,71	2270,00
-7244,52	2160,00
-7226,38	2159,00
-7208,26	2115,00
-7190,18	2075,00
-7172,14	1935,00
-7154,12	2003,00
-7136,15	1967,00
-7118,20	2117,00
-7100,29	2180,00
-7082,41	2240,00
-7064,57	2002,00
-7046,76	2034,00
-7028,98	1848,00
-7011,24	1886,00
-6993,53	1478,00
-6975,85	1506,00
-6958,20	1328,00
-6940,59	1423,00
-6923,01	1261,00
-6905,46	1616,00
-6887,94	1665,00
-6870,46	2096,00
-6853,01	2011,00
-6835,59	1931,00
-6818,21	1842,00
-6800,85	1685,00
-6783,53	1501,00
-6766,24	1278,00
-6748,98	1304,00
-6731,76	1179,00
-6714,56	1164,00
-6697,40	1120,00
-6680,26	1150,00
-6663,16	1246,00
-6646,09	1552,00
-6629,05	1661,00
-6612,05	1720,00
-6595,07	1674,00
-6578,13	1705,00
-6561,21	1413,00
-6544,33	1361,00
-6527,47	1088,00
-6510,65	1127,00
-6493,86	981,00
-6477,10	1062,00
-6460,36	1149,00
-6443,66	1123,00
-6426,99	1118,00
-6410,35	1158,00
-6393,74	1260,00
-6377,16	1189,00
-6360,61	1213,00
-6344,09	1271,00
-6327,59	1290,00
-6311,13	1479,00
-6294,70	1312,00
-6278,29	1407,00
-6261,92	1537,00
-6245,58	1568,00
-6229,26	1649,00
-6212,97	1584,00
-6196,72	1221,00
-6180,49	1336,00
-6164,29	989,00
-6148,12	1117,00
-6131,98	1086,00
-6115,86	922,00
-6099,78	949,00
-6083,72	835,00
-6067,69	919,00
-6051,69	885,00
-6035,72	1054,00
-6019,78	1027,00
-6003,87	1248,00
-5987,98	1277,00
-5972,12	1378,00
-5956,29	1369,00
-5940,49	1121,00
-5924,71	1370,00
-5908,96	1036,00
-5893,24	1046,00
-5877,55	1047,00
-5861,89	1010,00
-5846,25	830,00
-5830,64	1067,00
-5815,05	911,00
-5799,50	1013,00
-5783,97	1012,00
-5768,47	1192,00
-5752,99	1312,00
-5737,55	1214,00
-5722,12	1213,00
-5706,73	1306,00
-5691,36	1184,00
-5676,02	1115,00
-5660,71	943,00
-5645,42	922,00
-5630,16	1089,00
-5614,92	1126,00
-5599,71	1130,00
-5584,53	1118,00
-5569,37	1114,00
-5554,24	2147,00
-5539,14	1021,00
-5524,06	1099,00
-5509,01	1105,00
-5493,98	1116,00
-5478,98	1190,00
-5464,00	1074,00
-5449,05	1010,00
-5434,13	1107,00
-5419,23	935,00
-5404,36	825,00
-5389,51	1042,00
-5374,69	1251,00
-5359,89	1378,00
-5345,12	1414,00
-5330,37	1436,00
-5315,65	1248,00
-5300,95	1065,00
-5286,28	1126,00
-5271,63	920,00
-5257,01	983,00
-5242,41	1079,00
-5227,84	1006,00
-5213,29	1066,00
-5198,76	835,00
-5184,26	962,00
-5169,79	904,00
-5155,33	1042,00
-5140,91	1122,00
-5126,51	1156,00
-5112,13	1100,00
-5097,77	1108,00
-5083,44	1054,00
-5069,13	894,00
-5054,85	977,00
-5040,59	974,00
-5026,36	1096,00
-5012,15	1122,00
-4997,96	1073,00
-4983,80	1043,00
-4969,66	879,00
-4955,54	923,00
-4941,44	1063,00
-4927,37	1122,00
-4913,33	1341,00
-4899,30	1353,00
-4885,30	1286,00
-4871,33	971,00
-4857,37	950,00
-4843,44	822,00
-4829,53	1027,00
-4815,65	1055,00
-4801,79	871,00
-4787,95	1091,00
-4774,13	875,00
-4760,34	861,00
-4746,56	928,00
-4732,82	815,00
-4719,09	979,00
-4705,38	1216,00
-4691,70	1255,00
-4678,04	1385,00
-4664,41	1174,00
-4650,79	1208,00
-4637,20	880,00
-4623,63	887,00
-4610,08	1129,00
-4596,56	1087,00
-4583,05	1022,00
-4569,57	952,00
-4556,11	1033,00
-4542,67	866,00
-4529,25	829,00
-4515,86	937,00
-4502,49	1203,00
-4489,13	1132,00
-4475,80	1297,00
-4462,49	895,00
-4449,21	975,00
-4435,94	889,00
-4422,70	854,00
-4409,47	889,00
-4396,27	1044,00
-4383,09	864,00
-4369,93	967,00
-4356,79	792,00
-4343,67	866,00
-4330,58	979,00
-4317,50	1065,00
-4304,45	858,00
-4291,41	935,00
-4278,40	827,00
-4265,41	782,00
-4252,44	938,00
-4239,49	863,00
-4226,55	1009,00
-4213,65	923,00
-4200,76	919,00
-4187,89	804,00
-4175,04	744,00
-4162,21	768,00
-4149,40	777,00
-4136,61	867,00
-4123,85	778,00
-4111,10	785,00
-4098,37	902,00
-4085,66	950,00
-4072,98	882,00
-4060,31	770,00
-4047,66	922,00
-4035,04	975,00
-4022,43	757,00
-4009,84	887,00
-3997,27	727,00
-3984,72	839,00
-3972,19	829,00
-3959,69	789,00
-3947,20	798,00
-3934,73	764,00
-3922,27	693,00
-3909,84	756,00
-3897,43	842,00
-3885,04	787,00
-3872,67	755,00
-3860,31	761,00
-3847,98	855,00
-3835,66	762,00
-3823,36	811,00
-3811,09	760,00
-3798,83	828,00
-3786,59	722,00
-3774,37	879,00
-3762,17	774,00
-3749,98	775,00
-3737,82	754,00
-3725,67	971,00
-3713,55	751,00
-3701,44	906,00
-3689,35	763,00
-3677,28	929,00
-3665,22	781,00
-3653,19	785,00
-3641,17	811,00
-3629,18	858,00
-3617,20	848,00
-3605,24	799,00
-3593,30	812,00
-3581,37	797,00
-3569,47	805,00
-3557,58	809,00
-3545,71	902,00
-3533,86	879,00
-3522,02	727,00
-3510,21	756,00
-3498,41	731,00
-3486,63	777,00
-3474,87	764,00
-3463,12	689,00
-3451,40	801,00
-3439,69	799,00
-3428,00	727,00
-3416,33	756,00
-3404,67	750,00
-3393,03	791,00
-3381,41	839,00
-3369,81	831,00
-3358,22	817,00
-3346,66	920,00
-3335,10	754,00
-3323,57	727,00
-3312,06	850,00
-3300,56	771,00
-3289,08	714,00
-3277,61	736,00
-3266,16	795,00
-3254,73	699,00
-3243,32	742,00
-3231,92	673,00
-3220,55	807,00
-3209,18	934,00
-3197,84	652,00
-3186,51	728,00
-3175,20	771,00
-3163,90	704,00
-3152,63	903,00
-3141,36	786,00
-3130,12	738,00
-3118,89	830,00
-3107,68	744,00
-3096,49	802,00
-3085,31	662,00
-3074,15	806,00
-3063,00	752,00
-3051,87	775,00
-3040,76	731,00
-3029,67	962,00
-3018,59	922,00
-3007,52	848,00
-2996,48	777,00
-2985,44	838,00
-2974,43	876,00
-2963,43	747,00
-2952,45	824,00
-2941,48	806,00
-2930,53	838,00
-2919,60	650,00
-2908,68	742,00
-2897,78	799,00
-2886,89	854,00
-2876,02	813,00
-2865,17	766,00
-2854,33	828,00
-2843,50	800,00
-2832,70	918,00
-2821,90	800,00
-2811,13	838,00
-2800,37	839,00
-2789,62	642,00
-2778,89	710,00
-2768,18	832,00
-2757,48	825,00
-2746,80	849,00
-2736,13	758,00
-2725,48	913,00
-2714,84	726,00
-2704,22	776,00
-2693,61	726,00
-2683,02	783,00
-2672,45	786,00
-2661,89	814,00
-2651,34	809,00
-2640,81	776,00
-2630,30	815,00
-2619,80	801,00
-2609,31	924,00
-2598,84	771,00
-2588,39	826,00
-2577,95	812,00
-2567,52	728,00
-2557,11	747,00
-2546,71	733,00
-2536,33	845,00
-2525,97	754,00
-2515,62	828,00
-2505,28	778,00
-2494,96	777,00
-2484,65	844,00
-2474,36	1140,00
-2464,08	597,00
-2453,82	991,00
-2443,57	788,00
-2433,33	707,00
-2423,11	769,00
-2412,91	803,00
-2402,72	704,00
-2392,54	772,00
-2382,38	763,00
-2372,23	823,00
-2362,09	1791,00
-2351,97	686,00
-2341,87	593,00
-2331,78	844,00
-2321,70	866,00
-2311,64	799,00
-2301,59	778,00
-2291,55	705,00
-2281,53	826,00
-2271,53	652,00
-2261,53	870,00
-2251,55	800,00
-2241,59	665,00
-2231,64	848,00
-2221,70	731,00
-2211,78	774,00
-2201,87	757,00
-2191,97	796,00
-2182,09	723,00
-2172,22	830,00
-2162,37	699,00
-2152,53	741,00
-2142,70	777,00
-2132,89	757,00
-2123,09	783,00
-2113,30	728,00
-2103,53	704,00
-2093,77	865,00
-2084,02	749,00
-2074,29	814,00
-2064,57	800,00
-2054,86	867,00
-2045,17	861,00
-2035,49	760,00
-2025,82	664,00
-2016,17	748,00
-2006,53	735,00
-1996,91	807,00
-1987,29	812,00
-1977,69	812,00
-1968,11	714,00
-1958,53	702,00
-1948,97	758,00
-1939,42	785,00
-1929,89	770,00
-1920,37	788,00
-1910,86	679,00
-1901,36	832,00
-1891,88	749,00
-1882,41	761,00
-1872,95	866,00
-1863,51	681,00
-1854,08	776,00
-1844,66	733,00
-1835,26	859,00
-1825,86	787,00
-1816,48	669,00
-1807,11	848,00
-1797,76	929,00
-1788,42	795,00
-1779,09	819,00
-1769,77	761,00
-1760,47	1006,00
-1751,17	709,00
-1741,89	704,00
-1732,63	825,00
-1723,37	973,00
-1714,13	931,00
-1704,90	768,00
-1695,68	932,00
-1686,48	651,00
-1677,29	778,00
-1668,11	909,00
-1658,94	766,00
-1649,78	781,00
-1640,64	757,00
-1631,51	746,00
-1622,39	827,00
-1613,28	733,00
-1604,19	876,00
-1595,10	786,00
-1586,03	799,00
-1576,97	827,00
-1567,93	781,00
-1558,89	831,00
-1549,87	910,00
-1540,86	757,00
-1531,86	758,00
-1522,87	695,00
-1513,90	876,00
-1504,93	837,00
-1495,98	861,00
-1487,04	931,00
-1478,12	727,00
-1469,20	749,00
-1460,30	843,00
-1451,40	989,00
-1442,52	747,00
-1433,65	910,00
-1424,80	838,00
-1415,95	748,00
-1407,12	897,00
-1398,30	762,00
-1389,48	868,00
-1380,69	755,00
-1371,90	734,00
-1363,12	884,00
-1354,36	864,00
-1345,60	776,00
-1336,86	842,00
-1328,13	844,00
-1319,41	763,00
-1310,70	724,00
-1302,01	778,00
-1293,32	742,00
-1284,65	862,00
-1275,99	882,00
-1267,33	954,00
-1258,69	898,00
-1250,06	734,00
-1241,45	719,00
-1232,84	914,00
-1224,25	804,00
-1215,66	850,00
-1207,09	897,00
-1198,53	815,00
-1189,97	798,00
-1181,43	736,00
-1172,91	735,00
-1164,39	942,00
-1155,88	748,00
-1147,38	630,00
-1138,90	701,00
-1130,43	776,00
-1121,96	808,00
-1113,51	736,00
-1105,07	820,00
-1096,64	899,00
-1088,22	848,00
-1079,81	861,00
-1071,41	908,00
-1063,02	696,00
-1054,65	932,00
-1046,28	744,00
-1037,92	750,00
-1029,58	770,00
-1021,24	892,00
-1012,92	1159,00
-1004,61	724,00
-996,30	988,00
-988,01	753,00
-979,73	792,00
-971,46	862,00
-963,20	800,00
-954,95	732,00
-946,71	832,00
-938,48	825,00
-930,26	843,00
-922,06	843,00
-913,86	764,00
-905,67	739,00
-897,49	894,00
-889,33	665,00
-881,17	817,00
-873,02	844,00
-864,89	708,00
-856,76	773,00
-848,65	840,00
-840,54	880,00
-832,45	803,00
-824,36	654,00
-816,29	835,00
-808,22	841,00
-800,17	800,00
-792,12	860,00
-784,09	839,00
-776,06	685,00
-768,05	786,00
-760,04	841,00
-752,05	764,00
-744,07	813,00
-736,09	834,00
-728,13	660,00
-720,17	804,00
-712,23	762,00
-704,29	704,00
-696,37	746,00
-688,45	922,00
-680,55	803,00
-672,65	682,00
-664,77	719,00
-656,89	778,00
-649,03	672,00
-641,17	884,00
-633,32	795,00
-625,49	792,00
-617,66	773,00
-609,84	853,00
-602,03	735,00
-594,23	818,00
-586,45	786,00
-578,67	782,00
-570,90	756,00
-563,14	722,00
-555,39	836,00
-547,65	935,00
-539,91	847,00
-532,19	882,00
-524,48	796,00
-516,78	729,00
-509,08	866,00
-501,40	766,00
-493,72	840,00
-486,06	764,00
-478,40	938,00
-470,76	747,00
-463,12	805,00
-455,49	822,00
-447,87	755,00
-440,26	715,00
-432,66	743,00
-425,07	841,00
-417,49	858,00
-409,92	632,00
-402,35	680,00
-394,80	730,00
-387,25	819,00
-379,72	830,00
-372,19	866,00
-364,67	814,00
-357,17	817,00
-349,67	812,00
-342,18	871,00
-334,69	873,00
-327,22	845,00
-319,76	789,00
-312,30	822,00
-304,86	766,00
-297,42	822,00
-290,00	780,00
-282,58	788,00
-275,17	883,00
-267,77	964,00
-260,37	806,00
-252,99	969,00
-245,62	882,00
-238,25	788,00
-230,90	849,00
-223,55	921,00
-216,21	862,00
-208,88	1024,00
-201,56	886,00
-194,25	898,00
-186,94	923,00
-179,65	925,00
-172,36	1052,00
-165,08	996,00
-157,81	1107,00
-150,55	1144,00
-143,30	1246,00
-136,06	1052,00
-128,82	1196,00
-121,60	1182,00
-114,38	1365,00
-107,17	1418,00
-99,97	1569,00
-92,78	1613,00
-85,60	1642,00
-78,42	1820,00
-71,25	1978,00
-64,10	2240,00
-56,95	2428,00
-49,81	2790,00
-42,67	3384,00
-35,55	3954,00
-28,43	5024,00
-21,33	7991,00
-14,23	24530,00
-7,14	57498,00
-0,05	57284,00
7,02	57012,00
14,09	57319,00
21,14	21019,00
28,19	9158,00
35,23	6094,00
42,27	4894,00
49,29	4102,00
56,31	3500,00
63,32	3175,00
70,32	2792,00
77,31	2471,00
84,29	2093,00
91,27	2115,00
98,23	1868,00
105,19	1881,00
112,14	2004,00
119,09	2881,00
126,02	4026,00
132,95	4651,00
139,87	4775,00
146,78	4826,00
153,68	4646,00
160,58	4510,00
167,46	4331,00
174,34	4491,00
181,21	4528,00
188,08	4358,00
194,93	4434,00
201,78	4380,00
208,62	4495,00
215,45	4346,00
222,27	4416,00
229,09	4463,00
235,90	4240,00
242,70	4223,00
249,49	4278,00
256,27	3978,00
263,05	4111,00
269,82	3966,00
276,58	3961,00
283,33	3893,00
290,08	3730,00
296,82	3787,00
303,55	3512,00
310,27	3574,00
316,98	3710,00
323,69	3531,00
330,39	3587,00
337,08	3608,00
343,76	3589,00
350,44	3564,00
357,11	3599,00
363,77	3599,00
370,42	3662,00
377,07	3578,00
383,71	3542,00
390,34	3550,00
396,96	3479,00
403,58	3574,00
410,19	3640,00
416,79	3802,00
423,38	3922,00
429,97	3908,00
436,55	3807,00
443,12	3936,00
449,68	3959,00
456,24	3826,00
462,79	3604,00
469,33	3468,00
475,86	3376,00
482,39	3264,00
488,91	3293,00
495,42	3142,00
501,93	3140,00
508,42	3143,00
514,91	3043,00
521,40	3050,00
527,87	3023,00
534,34	2966,00
540,80	3021,00
547,25	2963,00
553,70	3032,00
560,14	3028,00
566,57	3075,00
573,00	3096,00
579,41	3190,00
585,83	3155,00
592,23	3139,00
598,62	3207,00
605,01	3303,00
611,40	3324,00
617,77	3381,00
624,14	3273,00
630,50	3033,00
636,85	3041,00
643,20	2985,00
649,54	2727,00
655,87	2880,00
662,20	2870,00
668,52	2821,00
674,83	2826,00
681,13	2743,00
687,43	2758,00
693,72	2680,00
700,00	2568,00
706,28	2623,00
712,55	2669,00
718,81	2770,00
725,07	2637,00
731,32	2697,00
737,56	2670,00
743,79	2684,00
750,02	2659,00
756,24	2525,00
762,46	2548,00
768,67	2751,00
774,87	2505,00
781,06	2557,00
787,25	2680,00
793,43	2617,00
799,60	2542,00
805,77	2638,00
811,93	2664,00
818,08	2584,00
824,23	2591,00
830,37	2833,00
836,50	2512,00
842,63	2561,00
848,75	2633,00
854,87	2589,00
860,97	2774,00
867,07	2672,00
873,17	2619,00
879,25	2645,00
885,33	2632,00
891,41	2677,00
897,47	2673,00
903,53	2492,00
909,59	2609,00
915,63	2477,00
921,67	2580,00
927,71	2617,00
933,74	2531,00
939,76	2349,00
945,77	2409,00
951,78	2624,00
957,78	2272,00
963,78	2523,00
969,77	2425,00
975,75	2350,00
981,72	2382,00
987,69	3764,00
993,66	2523,00
999,61	2520,00
1005,56	2503,00
1011,51	2484,00
1017,44	2453,00
1023,37	2525,00
1029,30	2502,00
1035,22	2562,00
1041,13	2591,00
1047,03	2782,00
1052,93	3272,00
1058,83	4620,00
1064,71	5027,00
1070,59	4217,00
1076,47	3504,00
1082,33	3171,00
1088,20	3053,00
1094,05	2969,00
1099,90	2578,00
1105,74	2742,00
1111,58	2757,00
1117,41	3030,00
1123,23	3951,00
1129,05	4670,00
1134,86	4406,00
1140,67	3284,00
1146,47	2721,00
1152,26	2607,00
1158,05	2510,00
1163,83	2635,00
1169,60	2732,00
1175,37	2640,00
1181,13	2483,00
1186,89	2322,00
1192,64	2272,00
1198,38	2423,00
1204,12	2240,00
1209,85	2297,00
1215,58	2370,00
1221,30	2373,00
1227,02	2365,00
1232,72	2305,00
1238,43	2221,00
1244,12	2343,00
1249,81	2454,00
1255,50	2454,00
1261,17	2447,00
1266,85	2561,00
1272,51	2484,00
1278,17	2758,00
1283,83	3063,00
1289,47	4433,00
1295,12	5995,00
1300,75	5377,00
1306,38	4147,00
1312,01	3301,00
1317,63	2955,00
1323,24	2740,00
1328,85	2534,00
1334,45	2449,00
1340,04	2427,00
1345,63	2403,00
1351,22	2520,00
1356,80	2482,00
1362,37	2536,00
1367,93	2624,00
1373,49	2716,00
1379,05	2566,00
1384,60	2472,00
1390,14	2512,00
1395,68	2344,00
1401,21	2539,00
1406,74	2714,00
1412,26	3294,00
1417,77	3984,00
1423,28	3769,00
1428,78	4185,00
1434,28	5184,00
1439,77	5984,00
1445,26	5829,00
1450,74	5468,00
1456,22	5052,00
1461,68	4815,00
1467,15	4500,00
1472,61	3832,00
1478,06	3369,00
1483,51	2906,00
1488,95	2668,00
1494,38	2620,00
1499,81	2399,00
1505,24	2327,00
1510,65	2396,00
1516,07	2361,00
1521,48	2164,00
1526,88	2104,00
1532,27	2009,00
1537,67	2105,00
1543,05	2114,00
1548,43	2043,00
1553,81	2016,00
1559,18	1933,00
1564,54	2069,00
1569,90	2023,00
1575,25	1923,00
1580,60	1915,00
1585,94	1934,00
1591,28	1945,00
1596,61	1907,00
1601,93	1973,00
1607,25	2043,00
1612,57	1830,00
1617,88	1917,00
1623,18	2034,00
1628,48	1921,00
1633,77	1907,00
1639,06	1984,00
1644,34	1892,00
1649,62	1797,00
1654,89	1821,00
1660,16	1784,00
1665,42	1898,00
1670,67	1848,00
1675,92	1683,00
1681,17	1737,00
1686,41	1745,00
1691,64	1845,00
1696,87	1718,00
1702,10	1774,00
1707,32	1743,00
1712,53	1734,00
1717,74	1731,00
1722,94	1774,00
1728,14	1627,00
1733,33	1721,00
1738,52	1550,00
1743,70	1710,00
1748,88	1631,00
1754,05	1789,00
1759,22	1630,00
1764,38	1921,00
1769,53	1724,00
1774,69	1663,00
1779,83	1697,00
1784,97	1663,00
1790,11	1594,00
1795,24	1592,00
1800,36	1622,00
1805,48	1636,00
1810,60	1690,00
1815,71	1618,00
1820,82	1526,00
1825,92	1601,00
1831,01	1517,00
1836,10	1566,00
1841,19	1634,00
1846,26	1434,00
1851,34	1612,00
1856,41	1505,00
1861,47	1496,00
1866,53	1664,00
1871,59	1516,00
1876,64	1493,00
1881,68	1500,00
1886,72	1438,00
1891,76	1479,00
1896,79	1473,00
1901,81	1431,00
1906,83	1462,00
1911,85	1399,00
1916,86	1451,00
1921,86	1380,00
1926,86	1456,00
1931,86	1540,00
1936,85	1362,00
1941,83	1294,00
1946,81	1421,00
1951,79	1316,00
1956,76	1376,00
1961,72	1240,00
1966,68	1412,00
1971,64	1435,00
1976,59	1461,00
1981,54	1306,00
1986,48	1363,00
1991,42	1282,00
1996,35	1517,00
2001,27	1343,00
2006,20	1334,00
2011,11	1319,00
2016,03	1450,00
2020,93	1258,00
2025,84	1273,00
2030,73	1367,00
2035,63	1239,00
2040,52	1337,00
2045,40	1346,00
2050,28	1323,00
2055,15	1340,00
2060,02	1236,00
2064,89	1342,00
2069,75	1379,00
2074,60	1279,00
2079,46	1198,00
2084,30	1254,00
2089,14	1111,00
2093,98	1372,00
2098,81	1320,00
2103,64	1338,00
2108,46	1264,00
2113,28	1228,00
2118,09	1281,00
2122,90	1311,00
2127,70	1268,00
2132,50	1369,00
2137,30	1270,00
2142,09	1242,00
2146,87	1128,00
2151,66	1261,00
2156,43	1194,00
2161,20	1269,00
2165,97	1311,00
2170,73	1286,00
2175,49	1326,00
2180,24	1299,00
2184,99	1459,00
2189,74	1410,00
2194,48	1409,00
2199,21	1285,00
2203,94	1268,00
2208,67	1155,00
2213,39	1122,00
2218,11	1250,00
2222,82	1167,00
2227,53	1226,00
2232,23	1245,00
2236,93	1308,00
2241,63	1228,00
2246,32	1247,00
2251,00	1170,00
2255,68	1161,00
2260,36	1176,00
2265,03	1255,00
2269,70	1366,00
2274,36	1193,00
2279,02	1270,00
2283,68	1240,00
2288,33	1213,00
2292,97	1180,00
2297,61	1118,00
2302,25	1201,00
2306,88	1135,00
2311,51	1134,00
2316,14	1172,00
2320,75	1069,00
2325,37	1058,00
2329,98	1178,00
2334,59	1160,00
2339,19	1031,00
2343,79	1055,00
2348,38	1075,00
2352,97	1005,00
2357,55	1188,00
2362,13	1100,00
2366,71	1113,00
2371,28	1257,00
2375,85	1182,00
2380,41	1174,00
2384,97	1019,00
2389,52	1161,00
2394,07	1228,00
2398,62	1071,00
2403,16	1169,00
2407,70	976,00
2412,23	1035,00
2416,76	1201,00
2421,29	1154,00
2425,81	1214,00
2430,32	1198,00
2434,84	1032,00
2439,34	1030,00
2443,85	1220,00
2448,35	1000,00
2452,84	1039,00
2457,33	1060,00
2461,82	929,00
2466,30	989,00
2470,78	1148,00
2475,25	1096,00
2479,72	1049,00
2484,19	1184,00
2488,65	1100,00
2493,11	1016,00
2497,56	1116,00
2502,01	1036,00
2506,46	1106,00
2510,90	998,00
2515,34	1059,00
2519,77	1088,00
2524,20	1089,00
2528,62	1140,00
2533,04	1159,00
2537,46	1023,00
2541,87	1115,00
2546,28	1082,00
2550,68	1169,00
2555,08	1120,00
2559,48	1062,00
2563,87	974,00
2568,26	1055,00
2572,64	1108,00
2577,02	1119,00
2581,40	993,00
2585,77	1127,00
2590,14	1069,00
2594,50	1039,00
2598,86	1082,00
2603,22	1040,00
2607,57	1055,00
2611,92	1147,00
2616,26	1241,00
2620,60	1124,00
2624,94	1070,00
2629,27	1228,00
2633,60	1029,00
2637,92	1248,00
2642,24	1204,00
2646,56	1111,00
2650,87	1046,00
2655,18	1180,00
2659,48	1095,00
2663,78	1123,00
2668,08	1101,00
2672,37	1222,00
2676,66	1124,00
2680,95	1126,00
2685,23	1267,00
2689,50	1187,00
2693,78	1298,00
2698,05	1168,00
2702,31	1203,00
2706,57	1311,00
2710,83	1391,00
2715,08	1484,00
2719,33	1499,00
2723,58	1418,00
2727,82	1460,00
2732,06	1353,00
2736,29	1409,00
2740,53	1336,00
2744,75	1349,00
2748,97	1239,00
2753,19	1311,00
2757,41	1269,00
2761,62	1331,00
2765,83	1344,00
2770,03	1120,00
2774,23	1416,00
2778,43	1245,00
2782,62	1332,00
2786,81	1423,00
2791,00	1388,00
2795,18	1401,00
2799,35	1458,00
2803,53	1506,00
2807,70	1572,00
2811,86	1601,00
2816,03	1705,00
2820,19	1700,00
2824,34	1846,00
2828,49	1972,00
2832,64	2206,00
2836,78	2634,00
2840,92	2993,00
2845,06	3740,00
2849,19	4141,00
2853,32	4181,00
2857,45	4214,00
2861,57	4224,00
2865,69	4070,00
2869,80	3941,00
2873,91	4105,00
2878,02	4519,00
2882,12	4860,00
2886,22	4971,00
2890,32	4611,00
2894,41	4312,00
2898,50	3869,00
2902,58	3743,00
2906,67	3453,00
2910,74	3244,00
2914,82	2914,00
2918,89	2918,00
2922,96	2571,00
2927,02	2405,00
2931,08	2357,00
2935,13	2260,00
2939,19	2251,00
2943,24	1939,00
2947,28	2015,00
2951,32	1752,00
2955,36	1584,00
2959,40	1702,00
2963,43	1514,00
2967,46	1380,00
2971,48	1369,00
2975,50	1316,00
2979,52	1341,00
2983,53	1307,00
2987,54	1271,00
2991,55	1192,00
2995,55	1183,00
2999,55	1039,00
3003,54	1086,00
3007,54	1066,00
3011,53	1158,00
3015,51	1105,00
3019,49	1131,00
3023,47	920,00
3027,45	1066,00
3031,42	1023,00
3035,39	926,00
3039,35	1003,00
3043,31	1046,00
3047,27	1028,00
3051,22	923,00
3055,17	932,00
3059,12	961,00
3063,06	996,00
3067,00	854,00
3070,94	869,00
3074,87	1011,00
3078,80	931,00
3082,73	902,00
3086,65	911,00
3090,57	923,00
3094,49	822,00
3098,40	907,00
3102,31	858,00
3106,22	955,00
3110,12	808,00
3114,02	782,00
3117,92	891,00
3121,81	885,00
3125,70	857,00
3129,58	899,00
3133,47	762,00
3137,34	896,00
3141,22	944,00
3145,09	944,00
3148,96	932,00
3152,83	922,00
3156,69	910,00
3160,55	844,00
3164,40	928,00
3168,26	895,00
3172,10	902,00
3175,95	858,00
3179,79	935,00
3183,63	807,00
3187,47	833,00
3191,30	903,00
3195,13	830,00
3198,95	693,00
3202,78	924,00
3206,60	763,00
3210,41	824,00
3214,23	817,00
3218,03	922,00
3221,84	830,00
3225,64	860,00
3229,44	847,00
3233,24	765,00
3237,03	823,00
3240,82	880,00
3244,61	860,00
3248,39	838,00
3252,17	886,00
3255,95	1018,00
3259,72	924,00
3263,49	973,00
3267,26	731,00
3271,03	854,00
3274,79	752,00
3278,54	835,00
3282,30	699,00
3286,05	808,00
3289,80	819,00
3293,54	829,00
3297,29	854,00
3301,02	795,00
3304,76	848,00
3308,49	811,00
3312,22	750,00
3315,95	809,00
3319,67	789,00
3323,39	957,00
3327,10	866,00
3330,82	832,00
3334,53	835,00
3338,24	826,00
3341,94	829,00
3345,64	827,00
3349,34	770,00
3353,03	786,00
3356,72	808,00
3360,41	876,00
3364,10	749,00
3367,78	781,00
3371,46	787,00
3375,13	757,00
3378,81	882,00
3382,48	772,00
3386,14	839,00
3389,81	874,00
3393,47	828,00
3397,12	907,00
3400,78	777,00
3404,43	726,00
3408,08	775,00
3411,72	786,00
3415,36	716,00
3419,00	811,00
3422,64	791,00
3426,27	774,00
3429,90	793,00
3433,53	727,00
3437,15	777,00
3440,77	751,00
3444,39	740,00
3448,00	809,00
3451,62	756,00
3455,22	842,00
3458,83	660,00
3462,43	789,00
3466,03	895,00
3469,63	762,00
3473,22	706,00
3476,81	676,00
3480,40	860,00
3483,99	692,00
3487,57	749,00
3491,15	764,00
3494,72	888,00
3498,29	883,00
3501,86	650,00
3505,43	808,00
3508,99	723,00
3512,56	602,00
3516,11	828,00
3519,67	769,00
3523,22	833,00
3526,77	701,00
3530,32	937,00
3533,86	831,00
3537,40	894,00
3540,94	779,00
3544,47	738,00
3548,00	719,00
3551,53	775,00
3555,06	749,00
3558,58	772,00
3562,10	823,00
3565,62	680,00
3569,13	766,00
3572,64	930,00
3576,15	595,00
3579,66	788,00
3583,16	732,00
3586,66	743,00
3590,16	753,00
3593,65	712,00
3597,14	705,00
3600,63	806,00
3604,11	765,00
3607,60	783,00
3611,08	817,00
3614,55	779,00
3618,03	718,00
3621,50	701,00
3624,97	674,00
3628,43	734,00
3631,90	711,00
3635,36	634,00
3638,81	666,00
3642,27	682,00
3645,72	782,00
3649,17	654,00
3652,61	788,00
3656,06	649,00
3659,50	754,00
3662,93	752,00
3666,37	781,00
3669,80	918,00
3673,23	777,00
3676,65	715,00
3680,08	789,00
3683,50	630,00
3686,92	690,00
3690,33	689,00
3693,74	721,00
3697,15	605,00
3700,56	782,00
3703,96	734,00
3707,36	672,00
3710,76	623,00
3714,16	621,00
3717,55	709,00
3720,94	683,00
3724,33	650,00
3727,71	735,00
3731,10	699,00
3734,48	754,00
3737,85	565,00
3741,23	654,00
3744,60	680,00
3747,97	582,00
3751,33	782,00
3754,69	562,00
3758,05	657,00
3761,41	622,00
3764,77	617,00
3768,12	581,00
3771,47	621,00
3774,82	678,00
3778,16	-2,00
3781,50	17,00
3784,84	3,00
3788,18	8,00
>>>>>End Processed Spectral Data<<<<<
