SpectraSuite Data File
++++++++++++++++++++++++++++++++++++
Date: Mon Jan 05 16:33:10 ICT 2026
User: Administrator
Dark Spectrum Present: Yes
Reference Spectrum Present: No
Number of Sampled Component Spectra: 1
Spectrometers: MAYP113682
Integration Time (usec): 3000000 (MAYP113682)
Spectra Averaged: 1 (MAYP113682)
Boxcar Smoothing: 0 (MAYP113682)
Correct for Electrical Dark: No (MAYP113682)
Strobe/Lamp Enabled: No (MAYP113682)
Correct for Detector Non-linearity: No (MAYP113682)
Correct for Stray Light: No (MAYP113682)
Number of Pixels in Processed Spectrum: 2068
>>>>>Begin Processed Spectral Data<<<<<
-37534,58	30,00
-37414,56	6,00
-37295,11	8,00
-37176,24	1,00
-37057,95	558,00
-36940,22	631,00
-36823,05	668,00
-36706,45	764,00
-36590,40	793,00
-36474,90	707,00
-36359,95	782,00
-36245,55	792,00
-36131,68	681,00
-36018,35	764,00
-35905,55	720,00
-35793,29	886,00
-35681,54	670,00
-35570,32	751,00
-35459,62	761,00
-35349,43	889,00
-35239,75	818,00
-35130,58	752,00
-35021,91	793,00
-34913,74	755,00
-34806,07	833,00
-34698,89	903,00
-34592,20	791,00
-34486,00	843,00
-34380,28	912,00
-34275,04	729,00
-34170,27	677,00
-34065,98	959,00
-33962,16	892,00
-33858,81	908,00
-33755,92	858,00
-33653,49	974,00
-33551,52	982,00
-33450,01	936,00
-33348,94	776,00
-33248,33	848,00
-33148,16	812,00
-33048,43	817,00
-32949,14	947,00
-32850,29	928,00
-32751,87	706,00
-32653,89	851,00
-32556,33	893,00
-32459,20	786,00
-32362,49	855,00
-32266,19	869,00
-32170,32	784,00
-32074,86	812,00
-31979,82	912,00
-31885,18	923,00
-31790,95	918,00
-31697,12	906,00
-31603,69	947,00
-31510,67	951,00
-31418,04	995,00
-31325,80	874,00
-31233,95	831,00
-31142,49	912,00
-31051,42	858,00
-30960,73	929,00
-30870,43	1028,00
-30780,50	813,00
-30690,95	872,00
-30601,77	1028,00
-30512,97	922,00
-30424,53	926,00
-30336,46	862,00
-30248,76	946,00
-30161,42	961,00
-30074,44	826,00
-29987,81	966,00
-29901,55	996,00
-29815,63	888,00
-29730,07	983,00
-29644,86	999,00
-29560,00	924,00
-29475,48	918,00
-29391,30	893,00
-29307,47	903,00
-29223,97	839,00
-29140,81	863,00
-29057,99	1003,00
-28975,50	765,00
-28893,34	985,00
-28811,51	871,00
-28730,00	896,00
-28648,82	925,00
-28567,97	916,00
-28487,43	900,00
-28407,21	884,00
-28327,32	853,00
-28247,73	1036,00
-28168,46	824,00
-28089,50	971,00
-28010,85	776,00
-27932,51	862,00
-27854,48	933,00
-27776,75	804,00
-27699,32	783,00
-27622,19	844,00
-27545,37	915,00
-27468,84	920,00
-27392,60	968,00
-27316,66	889,00
-27241,01	851,00
-27165,66	873,00
-27090,59	806,00
-27015,81	945,00
-26941,31	903,00
-26867,10	911,00
-26793,17	995,00
-26719,52	872,00
-26646,15	807,00
-26573,06	840,00
-26500,24	800,00
-26427,70	865,00
-26355,43	878,00
-26283,43	911,00
-26211,71	909,00
-26140,25	975,00
-26069,06	965,00
-25998,13	792,00
-25927,46	796,00
-25857,06	798,00
-25786,92	861,00
-25717,04	752,00
-25647,42	900,00
-25578,05	780,00
-25508,94	932,00
-25440,09	861,00
-25371,48	829,00
-25303,13	940,00
-25235,02	799,00
-25167,17	917,00
-25099,56	893,00
-25032,19	896,00
-24965,07	727,00
-24898,20	792,00
-24831,56	848,00
-24765,17	830,00
-24699,01	758,00
-24633,10	936,00
-24567,41	919,00
-24501,97	860,00
-24436,75	867,00
-24371,77	791,00
-24307,03	860,00
-24242,51	822,00
-24178,22	837,00
-24114,16	869,00
-24050,32	913,00
-23986,71	836,00
-23923,32	863,00
-23860,16	872,00
-23797,22	859,00
-23734,50	745,00
-23672,00	764,00
-23609,71	827,00
-23547,65	860,00
-23485,80	935,00
-23424,16	743,00
-23362,74	935,00
-23301,53	854,00
-23240,54	742,00
-23179,75	760,00
-23119,17	794,00
-23058,80	812,00
-22998,64	935,00
-22938,68	801,00
-22878,93	858,00
-22819,39	760,00
-22760,04	809,00
-22700,90	869,00
-22641,96	812,00
-22583,22	760,00
-22524,68	834,00
-22466,33	806,00
-22408,19	893,00
-22350,23	822,00
-22292,48	814,00
-22234,92	876,00
-22177,55	887,00
-22120,37	1046,00
-22063,38	824,00
-22006,58	808,00
-21949,98	819,00
-21893,56	680,00
-21837,33	850,00
-21781,28	912,00
-21725,42	861,00
-21669,74	947,00
-21614,25	854,00
-21558,94	845,00
-21503,81	914,00
-21448,86	930,00
-21394,10	786,00
-21339,51	833,00
-21285,10	784,00
-21230,86	729,00
-21176,81	816,00
-21122,93	816,00
-21069,22	716,00
-21015,69	806,00
-20962,33	926,00
-20909,14	842,00
-20856,13	857,00
-20803,28	901,00
-20750,61	850,00
-20698,10	719,00
-20645,76	695,00
-20593,59	920,00
-20541,59	852,00
-20489,75	902,00
-20438,07	835,00
-20386,56	981,00
-20335,22	725,00
-20284,03	815,00
-20233,01	808,00
-20182,15	769,00
-20131,45	807,00
-20080,91	781,00
-20030,52	867,00
-19980,30	751,00
-19930,23	755,00
-19880,32	880,00
-19830,56	803,00
-19780,96	870,00
-19731,52	867,00
-19682,23	866,00
-19633,09	807,00
-19584,10	732,00
-19535,26	840,00
-19486,58	894,00
-19438,04	799,00
-19389,66	976,00
-19341,42	769,00
-19293,33	812,00
-19245,39	909,00
-19197,60	915,00
-19149,95	873,00
-19102,45	899,00
-19055,09	756,00
-19007,87	876,00
-18960,80	938,00
-18913,87	876,00
-18867,09	781,00
-18820,44	938,00
-18773,94	825,00
-18727,57	885,00
-18681,35	797,00
-18635,26	892,00
-18589,31	751,00
-18543,50	840,00
-18497,83	864,00
-18452,29	860,00
-18406,89	719,00
-18361,63	824,00
-18316,50	939,00
-18271,50	740,00
-18226,63	942,00
-18181,90	874,00
-18137,30	898,00
-18092,84	830,00
-18048,50	902,00
-18004,29	916,00
-17960,22	749,00
-17916,27	798,00
-17872,45	821,00
-17828,76	950,00
-17785,20	814,00
-17741,77	806,00
-17698,46	861,00
-17655,28	829,00
-17612,22	846,00
-17569,29	834,00
-17526,48	922,00
-17483,79	942,00
-17441,23	771,00
-17398,79	835,00
-17356,48	675,00
-17314,28	960,00
-17272,21	801,00
-17230,26	853,00
-17188,42	872,00
-17146,71	849,00
-17105,12	788,00
-17063,64	870,00
-17022,28	719,00
-16981,04	831,00
-16939,92	854,00
-16898,91	966,00
-16858,02	758,00
-16817,25	854,00
-16776,59	786,00
-16736,04	781,00
-16695,61	956,00
-16655,29	824,00
-16615,09	851,00
-16574,99	834,00
-16535,01	844,00
-16495,15	887,00
-16455,39	904,00
-16415,74	807,00
-16376,21	800,00
-16336,78	755,00
-16297,46	801,00
-16258,26	775,00
-16219,16	861,00
-16180,17	893,00
-16141,28	800,00
-16102,51	866,00
-16063,84	776,00
-16025,27	859,00
-15986,82	791,00
-15948,46	830,00
-15910,22	926,00
-15872,07	871,00
-15834,04	809,00
-15796,10	789,00
-15758,27	1011,00
-15720,54	850,00
-15682,91	799,00
-15645,39	965,00
-15607,97	858,00
-15570,64	758,00
-15533,42	916,00
-15496,30	806,00
-15459,28	946,00
-15422,36	822,00
-15385,54	757,00
-15348,82	777,00
-15312,19	927,00
-15275,66	760,00
-15239,23	894,00
-15202,90	801,00
-15166,67	834,00
-15130,53	880,00
-15094,48	844,00
-15058,54	814,00
-15022,68	790,00
-14986,93	807,00
-14951,26	880,00
-14915,69	905,00
-14880,22	790,00
-14844,84	751,00
-14809,55	824,00
-14774,35	885,00
-14739,25	811,00
-14704,24	913,00
-14669,32	777,00
-14634,49	839,00
-14599,75	887,00
-14565,10	768,00
-14530,55	836,00
-14496,08	894,00
-14461,70	809,00
-14427,41	783,00
-14393,21	792,00
-14359,10	738,00
-14325,07	844,00
-14291,14	794,00
-14257,29	915,00
-14223,52	900,00
-14189,85	852,00
-14156,26	834,00
-14122,76	764,00
-14089,34	826,00
-14056,01	865,00
-14022,76	782,00
-13989,60	907,00
-13956,52	912,00
-13923,53	888,00
-13890,62	810,00
-13857,79	837,00
-13825,05	824,00
-13792,39	687,00
-13759,81	904,00
-13727,31	876,00
-13694,90	876,00
-13662,57	890,00
-13630,31	865,00
-13598,14	896,00
-13566,05	690,00
-13534,05	787,00
-13502,12	865,00
-13470,27	773,00
-13438,50	928,00
-13406,80	772,00
-13375,19	776,00
-13343,66	896,00
-13312,20	848,00
-13280,83	832,00
-13249,53	836,00
-13218,30	722,00
-13187,16	761,00
-13156,09	966,00
-13125,10	900,00
-13094,18	893,00
-13063,34	905,00
-13032,58	775,00
-13001,89	866,00
-12971,28	825,00
-12940,74	836,00
-12910,27	939,00
-12879,88	910,00
-12849,57	940,00
-12819,33	921,00
-12789,16	915,00
-12759,06	792,00
-12729,04	760,00
-12699,09	2255,00
-12669,21	836,00
-12639,41	870,00
-12609,68	758,00
-12580,02	797,00
-12550,43	915,00
-12520,91	724,00
-12491,46	850,00
-12462,08	783,00
-12432,77	829,00
-12403,54	820,00
-12374,37	830,00
-12345,27	897,00
-12316,24	795,00
-12287,29	788,00
-12258,40	756,00
-12229,57	920,00
-12200,82	772,00
-12172,14	913,00
-12143,52	655,00
-12114,97	757,00
-12086,49	868,00
-12058,07	950,00
-12029,73	802,00
-12001,44	924,00
-11973,23	846,00
-11945,08	814,00
-11917,00	924,00
-11888,98	798,00
-11861,03	1029,00
-11833,15	838,00
-11805,32	920,00
-11777,57	883,00
-11749,88	944,00
-11722,25	764,00
-11694,69	755,00
-11667,19	887,00
-11639,75	933,00
-11612,38	803,00
-11585,07	786,00
-11557,83	867,00
-11530,65	1022,00
-11503,53	776,00
-11476,47	868,00
-11449,48	793,00
-11422,54	1073,00
-11395,67	814,00
-11368,86	961,00
-11342,11	761,00
-11315,43	854,00
-11288,80	816,00
-11262,23	886,00
-11235,73	843,00
-11209,28	982,00
-11182,90	833,00
-11156,57	832,00
-11130,31	925,00
-11104,10	893,00
-11077,96	789,00
-11051,87	766,00
-11025,84	808,00
-10999,87	849,00
-10973,96	850,00
-10948,11	732,00
-10922,31	835,00
-10896,58	856,00
-10870,90	913,00
-10845,28	895,00
-10819,71	786,00
-10794,20	878,00
-10768,75	845,00
-10743,36	937,00
-10718,02	762,00
-10692,74	893,00
-10667,52	834,00
-10642,35	854,00
-10617,24	904,00
-10592,18	1003,00
-10567,18	861,00
-10542,23	937,00
-10517,34	918,00
-10492,51	1002,00
-10467,72	907,00
-10443,00	995,00
-10418,32	1003,00
-10393,70	930,00
-10369,14	972,00
-10344,63	829,00
-10320,17	1008,00
-10295,77	1013,00
-10271,42	905,00
-10247,12	965,00
-10222,88	1091,00
-10198,68	931,00
-10174,54	1059,00
-10150,46	1173,00
-10126,42	1057,00
-10102,44	1012,00
-10078,51	1037,00
-10054,63	1194,00
-10030,80	1120,00
-10007,03	1257,00
-9983,30	1158,00
-9959,63	1143,00
-9936,01	1284,00
-9912,44	1225,00
-9888,92	1323,00
-9865,44	1164,00
-9842,02	1224,00
-9818,65	1341,00
-9795,33	1199,00
-9772,06	1432,00
-9748,84	1262,00
-9725,67	1373,00
-9702,55	1446,00
-9679,47	1669,00
-9656,45	1758,00
-9633,47	1609,00
-9610,55	1630,00
-9587,67	1831,00
-9564,84	2116,00
-9542,06	2025,00
-9519,32	2171,00
-9496,64	2439,00
-9474,00	2391,00
-9451,41	2470,00
-9428,87	2480,00
-9406,37	2495,00
-9383,92	2258,00
-9361,52	2333,00
-9339,17	2518,00
-9316,86	2682,00
-9294,60	3119,00
-9272,38	3300,00
-9250,21	3512,00
-9228,09	3626,00
-9206,01	3714,00
-9183,98	3309,00
-9162,00	3117,00
-9140,06	3080,00
-9118,16	3037,00
-9096,31	3212,00
-9074,51	3289,00
-9052,75	3521,00
-9031,04	3495,00
-9009,37	2959,00
-8987,74	2906,00
-8966,16	2621,00
-8944,63	2387,00
-8923,14	2430,00
-8901,69	2416,00
-8880,29	2380,00
-8858,93	2856,00
-8837,61	3012,00
-8816,34	3109,00
-8795,11	3059,00
-8773,92	2712,00
-8752,78	2675,00
-8731,68	2406,00
-8710,62	2463,00
-8689,61	2535,00
-8668,63	2759,00
-8647,70	2878,00
-8626,82	2903,00
-8605,97	2873,00
-8585,17	2713,00
-8564,41	2472,00
-8543,69	2371,00
-8523,01	2233,00
-8502,37	2456,00
-8481,78	2416,00
-8461,23	2481,00
-8440,71	2565,00
-8420,24	2807,00
-8399,81	3046,00
-8379,42	2749,00
-8359,08	2841,00
-8338,77	2516,00
-8318,50	2290,00
-8298,27	2268,00
-8278,09	2459,00
-8257,94	2547,00
-8237,83	2723,00
-8217,76	2665,00
-8197,74	2719,00
-8177,75	2899,00
-8157,80	2409,00
-8137,89	2295,00
-8118,02	2218,00
-8098,19	2273,00
-8078,40	2260,00
-8058,65	2280,00
-8038,93	2375,00
-8019,26	2427,00
-7999,62	2380,00
-7980,02	2158,00
-7960,46	2088,00
-7940,94	2021,00
-7921,46	1924,00
-7902,01	2016,00
-7882,60	2055,00
-7863,23	1980,00
-7843,90	1975,00
-7824,61	2219,00
-7805,35	2390,00
-7786,13	2206,00
-7766,95	2287,00
-7747,80	2206,00
-7728,69	2139,00
-7709,62	2082,00
-7690,59	2097,00
-7671,59	2356,00
-7652,63	2166,00
-7633,70	2212,00
-7614,81	2343,00
-7595,96	1964,00
-7577,15	2023,00
-7558,37	1918,00
-7539,62	1957,00
-7520,91	1956,00
-7502,24	2144,00
-7483,60	2070,00
-7465,00	2068,00
-7446,44	2002,00
-7427,91	1655,00
-7409,41	1676,00
-7390,95	1685,00
-7372,53	1554,00
-7354,14	1570,00
-7335,78	1569,00
-7317,46	1685,00
-7299,18	1724,00
-7280,92	1788,00
-7262,71	2195,00
-7244,52	2197,00
-7226,38	2114,00
-7208,26	1926,00
-7190,18	1972,00
-7172,14	1803,00
-7154,12	1999,00
-7136,15	1897,00
-7118,20	2119,00
-7100,29	2121,00
-7082,41	2113,00
-7064,57	1910,00
-7046,76	1921,00
-7028,98	1643,00
-7011,24	1632,00
-6993,53	1405,00
-6975,85	1458,00
-6958,20	1328,00
-6940,59	1395,00
-6923,01	1317,00
-6905,46	1454,00
-6887,94	1609,00
-6870,46	2021,00
-6853,01	1983,00
-6835,59	1859,00
-6818,21	1694,00
-6800,85	1658,00
-6783,53	1363,00
-6766,24	1236,00
-6748,98	1243,00
-6731,76	1206,00
-6714,56	1142,00
-6697,40	1057,00
-6680,26	1154,00
-6663,16	1182,00
-6646,09	1448,00
-6629,05	1577,00
-6612,05	1534,00
-6595,07	1575,00
-6578,13	1586,00
-6561,21	1348,00
-6544,33	1306,00
-6527,47	1046,00
-6510,65	1168,00
-6493,86	976,00
-6477,10	1197,00
-6460,36	1140,00
-6443,66	1100,00
-6426,99	1064,00
-6410,35	1044,00
-6393,74	1301,00
-6377,16	1067,00
-6360,61	1301,00
-6344,09	1181,00
-6327,59	1320,00
-6311,13	1454,00
-6294,70	1245,00
-6278,29	1471,00
-6261,92	1360,00
-6245,58	1520,00
-6229,26	1559,00
-6212,97	1436,00
-6196,72	1263,00
-6180,49	1232,00
-6164,29	1011,00
-6148,12	1042,00
-6131,98	1082,00
-6115,86	844,00
-6099,78	836,00
-6083,72	854,00
-6067,69	943,00
-6051,69	937,00
-6035,72	1009,00
-6019,78	1082,00
-6003,87	1272,00
-5987,98	1185,00
-5972,12	1358,00
-5956,29	1320,00
-5940,49	1150,00
-5924,71	1269,00
-5908,96	1091,00
-5893,24	996,00
-5877,55	981,00
-5861,89	1021,00
-5846,25	891,00
-5830,64	955,00
-5815,05	1009,00
-5799,50	1016,00
-5783,97	1065,00
-5768,47	1161,00
-5752,99	1342,00
-5737,55	1130,00
-5722,12	1318,00
-5706,73	1222,00
-5691,36	1244,00
-5676,02	1091,00
-5660,71	954,00
-5645,42	1018,00
-5630,16	1096,00
-5614,92	1169,00
-5599,71	1077,00
-5584,53	1134,00
-5569,37	1114,00
-5554,24	1367,00
-5539,14	928,00
-5524,06	1131,00
-5509,01	1063,00
-5493,98	1010,00
-5478,98	1054,00
-5464,00	1004,00
-5449,05	961,00
-5434,13	1076,00
-5419,23	970,00
-5404,36	938,00
-5389,51	1070,00
-5374,69	1257,00
-5359,89	1372,00
-5345,12	1427,00
-5330,37	1410,00
-5315,65	1257,00
-5300,95	1184,00
-5286,28	1062,00
-5271,63	1010,00
-5257,01	1035,00
-5242,41	1038,00
-5227,84	903,00
-5213,29	1053,00
-5198,76	904,00
-5184,26	976,00
-5169,79	935,00
-5155,33	1088,00
-5140,91	982,00
-5126,51	1091,00
-5112,13	1131,00
-5097,77	1082,00
-5083,44	1134,00
-5069,13	921,00
-5054,85	979,00
-5040,59	1085,00
-5026,36	1051,00
-5012,15	1087,00
-4997,96	1145,00
-4983,80	1091,00
-4969,66	990,00
-4955,54	894,00
-4941,44	1010,00
-4927,37	1108,00
-4913,33	1295,00
-4899,30	1283,00
-4885,30	1341,00
-4871,33	1089,00
-4857,37	935,00
-4843,44	883,00
-4829,53	1016,00
-4815,65	1038,00
-4801,79	848,00
-4787,95	1087,00
-4774,13	915,00
-4760,34	878,00
-4746,56	998,00
-4732,82	803,00
-4719,09	1026,00
-4705,38	1179,00
-4691,70	1246,00
-4678,04	1301,00
-4664,41	1150,00
-4650,79	1197,00
-4637,20	937,00
-4623,63	874,00
-4610,08	1054,00
-4596,56	1004,00
-4583,05	1007,00
-4569,57	1058,00
-4556,11	1065,00
-4542,67	860,00
-4529,25	910,00
-4515,86	1006,00
-4502,49	1113,00
-4489,13	1249,00
-4475,80	1223,00
-4462,49	860,00
-4449,21	1093,00
-4435,94	952,00
-4422,70	819,00
-4409,47	910,00
-4396,27	978,00
-4383,09	1032,00
-4369,93	882,00
-4356,79	851,00
-4343,67	943,00
-4330,58	1027,00
-4317,50	1087,00
-4304,45	1006,00
-4291,41	960,00
-4278,40	901,00
-4265,41	844,00
-4252,44	962,00
-4239,49	945,00
-4226,55	1051,00
-4213,65	973,00
-4200,76	1025,00
-4187,89	852,00
-4175,04	823,00
-4162,21	795,00
-4149,40	930,00
-4136,61	881,00
-4123,85	820,00
-4111,10	903,00
-4098,37	837,00
-4085,66	934,00
-4072,98	946,00
-4060,31	913,00
-4047,66	1077,00
-4035,04	1050,00
-4022,43	868,00
-4009,84	898,00
-3997,27	780,00
-3984,72	880,00
-3972,19	947,00
-3959,69	932,00
-3947,20	872,00
-3934,73	865,00
-3922,27	745,00
-3909,84	770,00
-3897,43	876,00
-3885,04	931,00
-3872,67	793,00
-3860,31	793,00
-3847,98	942,00
-3835,66	796,00
-3823,36	854,00
-3811,09	814,00
-3798,83	927,00
-3786,59	905,00
-3774,37	937,00
-3762,17	787,00
-3749,98	915,00
-3737,82	799,00
-3725,67	1036,00
-3713,55	863,00
-3701,44	905,00
-3689,35	819,00
-3677,28	1034,00
-3665,22	811,00
-3653,19	755,00
-3641,17	868,00
-3629,18	949,00
-3617,20	837,00
-3605,24	838,00
-3593,30	911,00
-3581,37	875,00
-3569,47	856,00
-3557,58	871,00
-3545,71	906,00
-3533,86	948,00
-3522,02	833,00
-3510,21	862,00
-3498,41	760,00
-3486,63	769,00
-3474,87	838,00
-3463,12	904,00
-3451,40	912,00
-3439,69	864,00
-3428,00	908,00
-3416,33	892,00
-3404,67	773,00
-3393,03	889,00
-3381,41	928,00
-3369,81	979,00
-3358,22	889,00
-3346,66	1018,00
-3335,10	876,00
-3323,57	803,00
-3312,06	891,00
-3300,56	908,00
-3289,08	829,00
-3277,61	844,00
-3266,16	879,00
-3254,73	847,00
-3243,32	853,00
-3231,92	687,00
-3220,55	987,00
-3209,18	1010,00
-3197,84	780,00
-3186,51	828,00
-3175,20	817,00
-3163,90	824,00
-3152,63	965,00
-3141,36	851,00
-3130,12	920,00
-3118,89	908,00
-3107,68	740,00
-3096,49	867,00
-3085,31	793,00
-3074,15	869,00
-3063,00	868,00
-3051,87	853,00
-3040,76	821,00
-3029,67	950,00
-3018,59	1050,00
-3007,52	983,00
-2996,48	856,00
-2985,44	866,00
-2974,43	1024,00
-2963,43	780,00
-2952,45	861,00
-2941,48	825,00
-2930,53	848,00
-2919,60	841,00
-2908,68	878,00
-2897,78	783,00
-2886,89	984,00
-2876,02	879,00
-2865,17	846,00
-2854,33	917,00
-2843,50	862,00
-2832,70	876,00
-2821,90	810,00
-2811,13	918,00
-2800,37	842,00
-2789,62	745,00
-2778,89	876,00
-2768,18	974,00
-2757,48	895,00
-2746,80	927,00
-2736,13	854,00
-2725,48	1021,00
-2714,84	793,00
-2704,22	944,00
-2693,61	871,00
-2683,02	903,00
-2672,45	904,00
-2661,89	844,00
-2651,34	924,00
-2640,81	856,00
-2630,30	1038,00
-2619,80	784,00
-2609,31	1033,00
-2598,84	784,00
-2588,39	894,00
-2577,95	809,00
-2567,52	786,00
-2557,11	794,00
-2546,71	902,00
-2536,33	916,00
-2525,97	855,00
-2515,62	949,00
-2505,28	813,00
-2494,96	945,00
-2484,65	968,00
-2474,36	1221,00
-2464,08	776,00
-2453,82	1094,00
-2443,57	775,00
-2433,33	900,00
-2423,11	1001,00
-2412,91	931,00
-2402,72	858,00
-2392,54	813,00
-2382,38	868,00
-2372,23	941,00
-2362,09	-1727,00
-2351,97	871,00
-2341,87	789,00
-2331,78	856,00
-2321,70	989,00
-2311,64	806,00
-2301,59	914,00
-2291,55	846,00
-2281,53	957,00
-2271,53	740,00
-2261,53	972,00
-2251,55	866,00
-2241,59	853,00
-2231,64	907,00
-2221,70	840,00
-2211,78	855,00
-2201,87	894,00
-2191,97	853,00
-2182,09	862,00
-2172,22	907,00
-2162,37	749,00
-2152,53	756,00
-2142,70	793,00
-2132,89	766,00
-2123,09	858,00
-2113,30	841,00
-2103,53	837,00
-2093,77	903,00
-2084,02	818,00
-2074,29	899,00
-2064,57	948,00
-2054,86	987,00
-2045,17	916,00
-2035,49	877,00
-2025,82	786,00
-2016,17	788,00
-2006,53	827,00
-1996,91	943,00
-1987,29	821,00
-1977,69	854,00
-1968,11	855,00
-1958,53	835,00
-1948,97	907,00
-1939,42	892,00
-1929,89	840,00
-1920,37	879,00
-1910,86	761,00
-1901,36	843,00
-1891,88	848,00
-1882,41	875,00
-1872,95	999,00
-1863,51	828,00
-1854,08	861,00
-1844,66	871,00
-1835,26	937,00
-1825,86	965,00
-1816,48	830,00
-1807,11	934,00
-1797,76	936,00
-1788,42	944,00
-1779,09	862,00
-1769,77	838,00
-1760,47	1038,00
-1751,17	852,00
-1741,89	872,00
-1732,63	864,00
-1723,37	1013,00
-1714,13	1088,00
-1704,90	837,00
-1695,68	1020,00
-1686,48	843,00
-1677,29	826,00
-1668,11	1138,00
-1658,94	733,00
-1649,78	833,00
-1640,64	947,00
-1631,51	782,00
-1622,39	918,00
-1613,28	871,00
-1604,19	971,00
-1595,10	931,00
-1586,03	843,00
-1576,97	958,00
-1567,93	769,00
-1558,89	883,00
-1549,87	909,00
-1540,86	820,00
-1531,86	870,00
-1522,87	866,00
-1513,90	1019,00
-1504,93	899,00
-1495,98	982,00
-1487,04	1035,00
-1478,12	877,00
-1469,20	873,00
-1460,30	914,00
-1451,40	1052,00
-1442,52	866,00
-1433,65	888,00
-1424,80	851,00
-1415,95	806,00
-1407,12	1012,00
-1398,30	883,00
-1389,48	986,00
-1380,69	844,00
-1371,90	848,00
-1363,12	972,00
-1354,36	972,00
-1345,60	889,00
-1336,86	963,00
-1328,13	1029,00
-1319,41	970,00
-1310,70	861,00
-1302,01	799,00
-1293,32	748,00
-1284,65	956,00
-1275,99	1003,00
-1267,33	1072,00
-1258,69	986,00
-1250,06	857,00
-1241,45	830,00
-1232,84	1126,00
-1224,25	888,00
-1215,66	883,00
-1207,09	918,00
-1198,53	792,00
-1189,97	897,00
-1181,43	864,00
-1172,91	837,00
-1164,39	982,00
-1155,88	789,00
-1147,38	743,00
-1138,90	884,00
-1130,43	844,00
-1121,96	902,00
-1113,51	820,00
-1105,07	844,00
-1096,64	952,00
-1088,22	902,00
-1079,81	995,00
-1071,41	940,00
-1063,02	836,00
-1054,65	1004,00
-1046,28	873,00
-1037,92	900,00
-1029,58	891,00
-1021,24	837,00
-1012,92	1179,00
-1004,61	934,00
-996,30	1043,00
-988,01	829,00
-979,73	952,00
-971,46	987,00
-963,20	893,00
-954,95	760,00
-946,71	884,00
-938,48	877,00
-930,26	927,00
-922,06	927,00
-913,86	856,00
-905,67	783,00
-897,49	930,00
-889,33	734,00
-881,17	1040,00
-873,02	878,00
-864,89	784,00
-856,76	883,00
-848,65	1051,00
-840,54	890,00
-832,45	929,00
-824,36	723,00
-816,29	897,00
-808,22	924,00
-800,17	917,00
-792,12	933,00
-784,09	920,00
-776,06	802,00
-768,05	852,00
-760,04	849,00
-752,05	915,00
-744,07	875,00
-736,09	920,00
-728,13	715,00
-720,17	873,00
-712,23	861,00
-704,29	817,00
-696,37	808,00
-688,45	991,00
-680,55	865,00
-672,65	814,00
-664,77	873,00
-656,89	893,00
-649,03	794,00
-641,17	824,00
-633,32	921,00
-625,49	951,00
-617,66	855,00
-609,84	903,00
-602,03	753,00
-594,23	859,00
-586,45	939,00
-578,67	822,00
-570,90	922,00
-563,14	751,00
-555,39	985,00
-547,65	957,00
-539,91	898,00
-532,19	888,00
-524,48	1025,00
-516,78	793,00
-509,08	968,00
-501,40	836,00
-493,72	934,00
-486,06	852,00
-478,40	995,00
-470,76	862,00
-463,12	873,00
-455,49	815,00
-447,87	911,00
-440,26	785,00
-432,66	781,00
-425,07	872,00
-417,49	940,00
-409,92	727,00
-402,35	771,00
-394,80	823,00
-387,25	954,00
-379,72	923,00
-372,19	969,00
-364,67	988,00
-357,17	796,00
-349,67	930,00
-342,18	815,00
-334,69	938,00
-327,22	916,00
-319,76	892,00
-312,30	937,00
-304,86	926,00
-297,42	910,00
-290,00	874,00
-282,58	984,00
-275,17	983,00
-267,77	1043,00
-260,37	907,00
-252,99	981,00
-245,62	956,00
-238,25	875,00
-230,90	903,00
-223,55	993,00
-216,21	944,00
-208,88	1117,00
-201,56	923,00
-194,25	1066,00
-186,94	1058,00
-179,65	1145,00
-172,36	1051,00
-165,08	1046,00
-157,81	1202,00
-150,55	1271,00
-143,30	1156,00
-136,06	1233,00
-128,82	1261,00
-121,60	1299,00
-114,38	1409,00
-107,17	1607,00
-99,97	1695,00
-92,78	1695,00
-85,60	1828,00
-78,42	1999,00
-71,25	2120,00
-64,10	2280,00
-56,95	2639,00
-49,81	2932,00
-42,67	3489,00
-35,55	4159,00
-28,43	5203,00
-21,33	8203,00
-14,23	25232,00
-7,14	57498,00
-0,05	57284,00
7,02	57012,00
14,09	57319,00
21,14	21362,00
28,19	9468,00
35,23	6413,00
42,27	5145,00
49,29	4225,00
56,31	3688,00
63,32	3356,00
70,32	2801,00
77,31	2590,00
84,29	2389,00
91,27	2236,00
98,23	2117,00
105,19	2015,00
112,14	2111,00
119,09	3110,00
126,02	4574,00
132,95	5309,00
139,87	5455,00
146,78	5560,00
153,68	5329,00
160,58	5244,00
167,46	5134,00
174,34	5258,00
181,21	5100,00
188,08	5102,00
194,93	5212,00
201,78	5093,00
208,62	5226,00
215,45	5263,00
222,27	5108,00
229,09	5166,00
235,90	5045,00
242,70	4973,00
249,49	5083,00
256,27	4870,00
263,05	4797,00
269,82	4781,00
276,58	4838,00
283,33	4625,00
290,08	4731,00
296,82	4575,00
303,55	4451,00
310,27	4433,00
316,98	4422,00
323,69	4387,00
330,39	4242,00
337,08	4365,00
343,76	4362,00
350,44	4439,00
357,11	4329,00
363,77	4342,00
370,42	4269,00
377,07	4304,00
383,71	4298,00
390,34	4384,00
396,96	4306,00
403,58	4249,00
410,19	4401,00
416,79	4564,00
423,38	4678,00
429,97	4618,00
436,55	4526,00
443,12	4667,00
449,68	4752,00
456,24	4441,00
462,79	4449,00
469,33	4183,00
475,86	4080,00
482,39	3936,00
488,91	3983,00
495,42	3811,00
501,93	3929,00
508,42	3702,00
514,91	3793,00
521,40	3842,00
527,87	3801,00
534,34	3657,00
540,80	3644,00
547,25	3776,00
553,70	3609,00
560,14	3722,00
566,57	3736,00
573,00	3755,00
579,41	3942,00
585,83	3803,00
592,23	3772,00
598,62	4028,00
605,01	3863,00
611,40	4014,00
617,77	3968,00
624,14	3840,00
630,50	3691,00
636,85	3678,00
643,20	3539,00
649,54	3405,00
655,87	3430,00
662,20	3492,00
668,52	3342,00
674,83	3442,00
681,13	3318,00
687,43	3469,00
693,72	3218,00
700,00	3155,00
706,28	3270,00
712,55	3338,00
718,81	3365,00
725,07	3254,00
731,32	3332,00
737,56	3382,00
743,79	3222,00
750,02	3195,00
756,24	3146,00
762,46	3027,00
768,67	3340,00
774,87	3119,00
781,06	3036,00
787,25	3224,00
793,43	3102,00
799,60	3035,00
805,77	3261,00
811,93	3099,00
818,08	3198,00
824,23	3081,00
830,37	3286,00
836,50	3085,00
842,63	3106,00
848,75	3121,00
854,87	3088,00
860,97	3230,00
867,07	3118,00
873,17	3236,00
879,25	3158,00
885,33	3180,00
891,41	3199,00
897,47	3193,00
903,53	3113,00
909,59	3131,00
915,63	3000,00
921,67	3011,00
927,71	3024,00
933,74	3047,00
939,76	2836,00
945,77	2854,00
951,78	3020,00
957,78	2797,00
963,78	2821,00
969,77	2957,00
975,75	2794,00
981,72	2810,00
987,69	4175,00
993,66	2916,00
999,61	2891,00
1005,56	2906,00
1011,51	2949,00
1017,44	2877,00
1023,37	2903,00
1029,30	2823,00
1035,22	3102,00
1041,13	3061,00
1047,03	3195,00
1052,93	3718,00
1058,83	5044,00
1064,71	5625,00
1070,59	4640,00
1076,47	3854,00
1082,33	3742,00
1088,20	3562,00
1094,05	3278,00
1099,90	3081,00
1105,74	3103,00
1111,58	3156,00
1117,41	3430,00
1123,23	4368,00
1129,05	5213,00
1134,86	4752,00
1140,67	3677,00
1146,47	3210,00
1152,26	3040,00
1158,05	2886,00
1163,83	3043,00
1169,60	3189,00
1175,37	3124,00
1181,13	2951,00
1186,89	2776,00
1192,64	2732,00
1198,38	2876,00
1204,12	2703,00
1209,85	2673,00
1215,58	2757,00
1221,30	2775,00
1227,02	2725,00
1232,72	2651,00
1238,43	2633,00
1244,12	2741,00
1249,81	2756,00
1255,50	2913,00
1261,17	2779,00
1266,85	2960,00
1272,51	2940,00
1278,17	3042,00
1283,83	3429,00
1289,47	4835,00
1295,12	6387,00
1300,75	5735,00
1306,38	4628,00
1312,01	3792,00
1317,63	3376,00
1323,24	3056,00
1328,85	2914,00
1334,45	2788,00
1340,04	2805,00
1345,63	2782,00
1351,22	2949,00
1356,80	2780,00
1362,37	2940,00
1367,93	2964,00
1373,49	3056,00
1379,05	2817,00
1384,60	2806,00
1390,14	2849,00
1395,68	2798,00
1401,21	2818,00
1406,74	3126,00
1412,26	3751,00
1417,77	4332,00
1423,28	4061,00
1428,78	4652,00
1434,28	5619,00
1439,77	6367,00
1445,26	6268,00
1450,74	5833,00
1456,22	5420,00
1461,68	5225,00
1467,15	4932,00
1472,61	4238,00
1478,06	3832,00
1483,51	3334,00
1488,95	2954,00
1494,38	2923,00
1499,81	2694,00
1505,24	2625,00
1510,65	2640,00
1516,07	2651,00
1521,48	2511,00
1526,88	2440,00
1532,27	2464,00
1537,67	2429,00
1543,05	2495,00
1548,43	2413,00
1553,81	2475,00
1559,18	2280,00
1564,54	2379,00
1569,90	2369,00
1575,25	2225,00
1580,60	2190,00
1585,94	2357,00
1591,28	2306,00
1596,61	2283,00
1601,93	2238,00
1607,25	2354,00
1612,57	2274,00
1617,88	2262,00
1623,18	2305,00
1628,48	2212,00
1633,77	2249,00
1639,06	2268,00
1644,34	2196,00
1649,62	2121,00
1654,89	2146,00
1660,16	2062,00
1665,42	2158,00
1670,67	2084,00
1675,92	1983,00
1681,17	2074,00
1686,41	2146,00
1691,64	2200,00
1696,87	2070,00
1702,10	2009,00
1707,32	2074,00
1712,53	2041,00
1717,74	2034,00
1722,94	2149,00
1728,14	2034,00
1733,33	2040,00
1738,52	1865,00
1743,70	1995,00
1748,88	1972,00
1754,05	2030,00
1759,22	1878,00
1764,38	2189,00
1769,53	1949,00
1774,69	2024,00
1779,83	1905,00
1784,97	1998,00
1790,11	2022,00
1795,24	1869,00
1800,36	1873,00
1805,48	1829,00
1810,60	1940,00
1815,71	1818,00
1820,82	1825,00
1825,92	1909,00
1831,01	1860,00
1836,10	1894,00
1841,19	1859,00
1846,26	1770,00
1851,34	1925,00
1856,41	1741,00
1861,47	1793,00
1866,53	1891,00
1871,59	1828,00
1876,64	1864,00
1881,68	1736,00
1886,72	1752,00
1891,76	1675,00
1896,79	1747,00
1901,81	1621,00
1906,83	1703,00
1911,85	1630,00
1916,86	1659,00
1921,86	1780,00
1926,86	1610,00
1931,86	1719,00
1936,85	1576,00
1941,83	1634,00
1946,81	1582,00
1951,79	1532,00
1956,76	1547,00
1961,72	1473,00
1966,68	1602,00
1971,64	1594,00
1976,59	1575,00
1981,54	1550,00
1986,48	1576,00
1991,42	1432,00
1996,35	1762,00
2001,27	1599,00
2006,20	1587,00
2011,11	1706,00
2016,03	1585,00
2020,93	1384,00
2025,84	1538,00
2030,73	1593,00
2035,63	1398,00
2040,52	1561,00
2045,40	1432,00
2050,28	1534,00
2055,15	1553,00
2060,02	1437,00
2064,89	1610,00
2069,75	1553,00
2074,60	1569,00
2079,46	1444,00
2084,30	1425,00
2089,14	1379,00
2093,98	1597,00
2098,81	1382,00
2103,64	1476,00
2108,46	1474,00
2113,28	1527,00
2118,09	1426,00
2122,90	1477,00
2127,70	1433,00
2132,50	1504,00
2137,30	1473,00
2142,09	1322,00
2146,87	1344,00
2151,66	1416,00
2156,43	1396,00
2161,20	1381,00
2165,97	1465,00
2170,73	1402,00
2175,49	1580,00
2180,24	1442,00
2184,99	1677,00
2189,74	1598,00
2194,48	1564,00
2199,21	1572,00
2203,94	1397,00
2208,67	1298,00
2213,39	1317,00
2218,11	1437,00
2222,82	1360,00
2227,53	1423,00
2232,23	1363,00
2236,93	1400,00
2241,63	1360,00
2246,32	1552,00
2251,00	1415,00
2255,68	1427,00
2260,36	1283,00
2265,03	1350,00
2269,70	1518,00
2274,36	1312,00
2279,02	1369,00
2283,68	1413,00
2288,33	1388,00
2292,97	1315,00
2297,61	1343,00
2302,25	1359,00
2306,88	1292,00
2311,51	1180,00
2316,14	1329,00
2320,75	1224,00
2325,37	1253,00
2329,98	1285,00
2334,59	1324,00
2339,19	1301,00
2343,79	1210,00
2348,38	1255,00
2352,97	1214,00
2357,55	1301,00
2362,13	1275,00
2366,71	1177,00
2371,28	1355,00
2375,85	1305,00
2380,41	1304,00
2384,97	1201,00
2389,52	1318,00
2394,07	1403,00
2398,62	1211,00
2403,16	1390,00
2407,70	1102,00
2412,23	1158,00
2416,76	1253,00
2421,29	1295,00
2425,81	1307,00
2430,32	1267,00
2434,84	1096,00
2439,34	1192,00
2443,85	1365,00
2448,35	1208,00
2452,84	1207,00
2457,33	1268,00
2461,82	1038,00
2466,30	1117,00
2470,78	1258,00
2475,25	1181,00
2479,72	1228,00
2484,19	1259,00
2488,65	1338,00
2493,11	1151,00
2497,56	1371,00
2502,01	1062,00
2506,46	1278,00
2510,90	1156,00
2515,34	1116,00
2519,77	1155,00
2524,20	1094,00
2528,62	1241,00
2533,04	1200,00
2537,46	1124,00
2541,87	1218,00
2546,28	1150,00
2550,68	1348,00
2555,08	1201,00
2559,48	1300,00
2563,87	1140,00
2568,26	1128,00
2572,64	1224,00
2577,02	1182,00
2581,40	1055,00
2585,77	1232,00
2590,14	1201,00
2594,50	1159,00
2598,86	1264,00
2603,22	1217,00
2607,57	1163,00
2611,92	1184,00
2616,26	1315,00
2620,60	1337,00
2624,94	1123,00
2629,27	1309,00
2633,60	1065,00
2637,92	1456,00
2642,24	1307,00
2646,56	1239,00
2650,87	1133,00
2655,18	1335,00
2659,48	1207,00
2663,78	1196,00
2668,08	1250,00
2672,37	1297,00
2676,66	1327,00
2680,95	1186,00
2685,23	1370,00
2689,50	1239,00
2693,78	1303,00
2698,05	1355,00
2702,31	1430,00
2706,57	1501,00
2710,83	1604,00
2715,08	1564,00
2719,33	1656,00
2723,58	1555,00
2727,82	1575,00
2732,06	1511,00
2736,29	1460,00
2740,53	1448,00
2744,75	1353,00
2748,97	1370,00
2753,19	1377,00
2757,41	1409,00
2761,62	1393,00
2765,83	1448,00
2770,03	1348,00
2774,23	1452,00
2778,43	1356,00
2782,62	1447,00
2786,81	1419,00
2791,00	1455,00
2795,18	1532,00
2799,35	1620,00
2803,53	1568,00
2807,70	1604,00
2811,86	1724,00
2816,03	1868,00
2820,19	1833,00
2824,34	1874,00
2828,49	2076,00
2832,64	2378,00
2836,78	2835,00
2840,92	3085,00
2845,06	3808,00
2849,19	4219,00
2853,32	4403,00
2857,45	4371,00
2861,57	4287,00
2865,69	4173,00
2869,80	4017,00
2873,91	4217,00
2878,02	4700,00
2882,12	5015,00
2886,22	5050,00
2890,32	4839,00
2894,41	4499,00
2898,50	4036,00
2902,58	3848,00
2906,67	3592,00
2910,74	3298,00
2914,82	3132,00
2918,89	3150,00
2922,96	2806,00
2927,02	2526,00
2931,08	2516,00
2935,13	2213,00
2939,19	2294,00
2943,24	2094,00
2947,28	2071,00
2951,32	1825,00
2955,36	1692,00
2959,40	1677,00
2963,43	1625,00
2967,46	1536,00
2971,48	1521,00
2975,50	1360,00
2979,52	1435,00
2983,53	1389,00
2987,54	1304,00
2991,55	1318,00
2995,55	1274,00
2999,55	1231,00
3003,54	1196,00
3007,54	1278,00
3011,53	1230,00
3015,51	1145,00
3019,49	1177,00
3023,47	1024,00
3027,45	1156,00
3031,42	1067,00
3035,39	1035,00
3039,35	1063,00
3043,31	1081,00
3047,27	1091,00
3051,22	1063,00
3055,17	985,00
3059,12	1033,00
3063,06	1129,00
3067,00	923,00
3070,94	934,00
3074,87	1140,00
3078,80	961,00
3082,73	926,00
3086,65	956,00
3090,57	936,00
3094,49	955,00
3098,40	977,00
3102,31	918,00
3106,22	1032,00
3110,12	941,00
3114,02	837,00
3117,92	1008,00
3121,81	937,00
3125,70	961,00
3129,58	945,00
3133,47	823,00
3137,34	989,00
3141,22	1051,00
3145,09	1036,00
3148,96	921,00
3152,83	995,00
3156,69	984,00
3160,55	975,00
3164,40	997,00
3168,26	1090,00
3172,10	1048,00
3175,95	954,00
3179,79	923,00
3183,63	970,00
3187,47	893,00
3191,30	962,00
3195,13	947,00
3198,95	777,00
3202,78	954,00
3206,60	852,00
3210,41	846,00
3214,23	904,00
3218,03	980,00
3221,84	949,00
3225,64	938,00
3229,44	865,00
3233,24	934,00
3237,03	919,00
3240,82	848,00
3244,61	850,00
3248,39	875,00
3252,17	946,00
3255,95	945,00
3259,72	971,00
3263,49	1083,00
3267,26	837,00
3271,03	843,00
3274,79	922,00
3278,54	860,00
3282,30	834,00
3286,05	953,00
3289,80	905,00
3293,54	886,00
3297,29	953,00
3301,02	926,00
3304,76	887,00
3308,49	949,00
3312,22	841,00
3315,95	917,00
3319,67	875,00
3323,39	939,00
3327,10	994,00
3330,82	870,00
3334,53	967,00
3338,24	878,00
3341,94	935,00
3345,64	935,00
3349,34	941,00
3353,03	960,00
3356,72	837,00
3360,41	962,00
3364,10	841,00
3367,78	947,00
3371,46	824,00
3375,13	918,00
3378,81	968,00
3382,48	869,00
3386,14	924,00
3389,81	939,00
3393,47	912,00
3397,12	1047,00
3400,78	892,00
3404,43	854,00
3408,08	919,00
3411,72	853,00
3415,36	913,00
3419,00	939,00
3422,64	882,00
3426,27	922,00
3429,90	788,00
3433,53	842,00
3437,15	843,00
3440,77	809,00
3444,39	860,00
3448,00	886,00
3451,62	842,00
3455,22	922,00
3458,83	703,00
3462,43	824,00
3466,03	885,00
3469,63	766,00
3473,22	819,00
3476,81	780,00
3480,40	906,00
3483,99	754,00
3487,57	860,00
3491,15	902,00
3494,72	887,00
3498,29	894,00
3501,86	821,00
3505,43	760,00
3508,99	778,00
3512,56	766,00
3516,11	870,00
3519,67	825,00
3523,22	850,00
3526,77	798,00
3530,32	1037,00
3533,86	869,00
3537,40	981,00
3540,94	908,00
3544,47	829,00
3548,00	814,00
3551,53	957,00
3555,06	793,00
3558,58	865,00
3562,10	854,00
3565,62	831,00
3569,13	871,00
3572,64	1023,00
3576,15	767,00
3579,66	792,00
3583,16	835,00
3586,66	893,00
3590,16	889,00
3593,65	787,00
3597,14	736,00
3600,63	867,00
3604,11	841,00
3607,60	788,00
3611,08	899,00
3614,55	838,00
3618,03	782,00
3621,50	722,00
3624,97	710,00
3628,43	782,00
3631,90	768,00
3635,36	729,00
3638,81	860,00
3642,27	851,00
3645,72	832,00
3649,17	773,00
3652,61	806,00
3656,06	723,00
3659,50	861,00
3662,93	838,00
3666,37	861,00
3669,80	977,00
3673,23	812,00
3676,65	809,00
3680,08	891,00
3683,50	765,00
3686,92	710,00
3690,33	801,00
3693,74	754,00
3697,15	680,00
3700,56	852,00
3703,96	840,00
3707,36	681,00
3710,76	747,00
3714,16	751,00
3717,55	781,00
3720,94	764,00
3724,33	714,00
3727,71	781,00
3731,10	794,00
3734,48	783,00
3737,85	725,00
3741,23	694,00
3744,60	769,00
3747,97	656,00
3751,33	836,00
3754,69	751,00
3758,05	732,00
3761,41	656,00
3764,77	657,00
3768,12	700,00
3771,47	603,00
3774,82	758,00
3778,16	-2,00
3781,50	14,00
3784,84	5,00
3788,18	10,00
>>>>>End Processed Spectral Data<<<<<
