SpectraSuite Data File
++++++++++++++++++++++++++++++++++++
Date: Mon Jan 05 16:34:10 ICT 2026
User: Administrator
Dark Spectrum Present: Yes
Reference Spectrum Present: No
Number of Sampled Component Spectra: 1
Spectrometers: MAYP113682
Integration Time (usec): 3000000 (MAYP113682)
Spectra Averaged: 1 (MAYP113682)
Boxcar Smoothing: 0 (MAYP113682)
Correct for Electrical Dark: No (MAYP113682)
Strobe/Lamp Enabled: No (MAYP113682)
Correct for Detector Non-linearity: No (MAYP113682)
Correct for Stray Light: No (MAYP113682)
Number of Pixels in Processed Spectrum: 2068
>>>>>Begin Processed Spectral Data<<<<<
-37534,58	32,00
-37414,56	8,00
-37295,11	8,00
-37176,24	8,00
-37057,95	633,00
-36940,22	672,00
-36823,05	742,00
-36706,45	783,00
-36590,40	840,00
-36474,90	738,00
-36359,95	823,00
-36245,55	825,00
-36131,68	834,00
-36018,35	803,00
-35905,55	785,00
-35793,29	892,00
-35681,54	751,00
-35570,32	775,00
-35459,62	842,00
-35349,43	933,00
-35239,75	920,00
-35130,58	863,00
-35021,91	800,00
-34913,74	810,00
-34806,07	881,00
-34698,89	899,00
-34592,20	770,00
-34486,00	847,00
-34380,28	927,00
-34275,04	827,00
-34170,27	820,00
-34065,98	942,00
-33962,16	884,00
-33858,81	957,00
-33755,92	852,00
-33653,49	956,00
-33551,52	911,00
-33450,01	909,00
-33348,94	897,00
-33248,33	782,00
-33148,16	832,00
-33048,43	851,00
-32949,14	1008,00
-32850,29	989,00
-32751,87	843,00
-32653,89	913,00
-32556,33	1009,00
-32459,20	916,00
-32362,49	925,00
-32266,19	866,00
-32170,32	890,00
-32074,86	964,00
-31979,82	950,00
-31885,18	993,00
-31790,95	1058,00
-31697,12	1057,00
-31603,69	990,00
-31510,67	977,00
-31418,04	975,00
-31325,80	898,00
-31233,95	805,00
-31142,49	902,00
-31051,42	1002,00
-30960,73	1069,00
-30870,43	1086,00
-30780,50	941,00
-30690,95	942,00
-30601,77	1053,00
-30512,97	907,00
-30424,53	962,00
-30336,46	885,00
-30248,76	927,00
-30161,42	1003,00
-30074,44	893,00
-29987,81	991,00
-29901,55	989,00
-29815,63	941,00
-29730,07	1036,00
-29644,86	1014,00
-29560,00	936,00
-29475,48	936,00
-29391,30	924,00
-29307,47	920,00
-29223,97	895,00
-29140,81	906,00
-29057,99	970,00
-28975,50	830,00
-28893,34	1035,00
-28811,51	837,00
-28730,00	953,00
-28648,82	926,00
-28567,97	962,00
-28487,43	879,00
-28407,21	886,00
-28327,32	888,00
-28247,73	1035,00
-28168,46	835,00
-28089,50	986,00
-28010,85	928,00
-27932,51	793,00
-27854,48	942,00
-27776,75	817,00
-27699,32	874,00
-27622,19	911,00
-27545,37	983,00
-27468,84	919,00
-27392,60	961,00
-27316,66	982,00
-27241,01	913,00
-27165,66	838,00
-27090,59	840,00
-27015,81	1006,00
-26941,31	1028,00
-26867,10	836,00
-26793,17	1070,00
-26719,52	1072,00
-26646,15	903,00
-26573,06	966,00
-26500,24	912,00
-26427,70	921,00
-26355,43	835,00
-26283,43	894,00
-26211,71	867,00
-26140,25	999,00
-26069,06	1068,00
-25998,13	804,00
-25927,46	842,00
-25857,06	848,00
-25786,92	846,00
-25717,04	844,00
-25647,42	1016,00
-25578,05	815,00
-25508,94	922,00
-25440,09	918,00
-25371,48	824,00
-25303,13	1000,00
-25235,02	877,00
-25167,17	915,00
-25099,56	925,00
-25032,19	866,00
-24965,07	858,00
-24898,20	861,00
-24831,56	876,00
-24765,17	869,00
-24699,01	845,00
-24633,10	971,00
-24567,41	961,00
-24501,97	907,00
-24436,75	963,00
-24371,77	906,00
-24307,03	846,00
-24242,51	856,00
-24178,22	838,00
-24114,16	895,00
-24050,32	1023,00
-23986,71	863,00
-23923,32	947,00
-23860,16	978,00
-23797,22	872,00
-23734,50	896,00
-23672,00	808,00
-23609,71	864,00
-23547,65	815,00
-23485,80	946,00
-23424,16	807,00
-23362,74	1055,00
-23301,53	917,00
-23240,54	816,00
-23179,75	845,00
-23119,17	851,00
-23058,80	863,00
-22998,64	981,00
-22938,68	899,00
-22878,93	938,00
-22819,39	803,00
-22760,04	863,00
-22700,90	928,00
-22641,96	852,00
-22583,22	906,00
-22524,68	837,00
-22466,33	906,00
-22408,19	885,00
-22350,23	798,00
-22292,48	929,00
-22234,92	934,00
-22177,55	1015,00
-22120,37	1031,00
-22063,38	955,00
-22006,58	903,00
-21949,98	869,00
-21893,56	763,00
-21837,33	946,00
-21781,28	966,00
-21725,42	907,00
-21669,74	1014,00
-21614,25	870,00
-21558,94	933,00
-21503,81	937,00
-21448,86	955,00
-21394,10	879,00
-21339,51	851,00
-21285,10	797,00
-21230,86	807,00
-21176,81	831,00
-21122,93	814,00
-21069,22	849,00
-21015,69	859,00
-20962,33	1040,00
-20909,14	867,00
-20856,13	937,00
-20803,28	928,00
-20750,61	857,00
-20698,10	801,00
-20645,76	876,00
-20593,59	1018,00
-20541,59	1009,00
-20489,75	904,00
-20438,07	785,00
-20386,56	1011,00
-20335,22	788,00
-20284,03	862,00
-20233,01	895,00
-20182,15	843,00
-20131,45	788,00
-20080,91	828,00
-20030,52	921,00
-19980,30	856,00
-19930,23	820,00
-19880,32	910,00
-19830,56	805,00
-19780,96	922,00
-19731,52	765,00
-19682,23	893,00
-19633,09	843,00
-19584,10	833,00
-19535,26	901,00
-19486,58	1045,00
-19438,04	909,00
-19389,66	1013,00
-19341,42	789,00
-19293,33	882,00
-19245,39	889,00
-19197,60	1006,00
-19149,95	989,00
-19102,45	933,00
-19055,09	822,00
-19007,87	905,00
-18960,80	914,00
-18913,87	867,00
-18867,09	905,00
-18820,44	1052,00
-18773,94	889,00
-18727,57	853,00
-18681,35	782,00
-18635,26	980,00
-18589,31	864,00
-18543,50	874,00
-18497,83	822,00
-18452,29	899,00
-18406,89	750,00
-18361,63	927,00
-18316,50	872,00
-18271,50	907,00
-18226,63	1112,00
-18181,90	957,00
-18137,30	901,00
-18092,84	826,00
-18048,50	962,00
-18004,29	835,00
-17960,22	854,00
-17916,27	816,00
-17872,45	901,00
-17828,76	1014,00
-17785,20	867,00
-17741,77	899,00
-17698,46	913,00
-17655,28	818,00
-17612,22	866,00
-17569,29	830,00
-17526,48	939,00
-17483,79	935,00
-17441,23	836,00
-17398,79	838,00
-17356,48	769,00
-17314,28	1089,00
-17272,21	917,00
-17230,26	945,00
-17188,42	888,00
-17146,71	883,00
-17105,12	869,00
-17063,64	955,00
-17022,28	849,00
-16981,04	810,00
-16939,92	912,00
-16898,91	1065,00
-16858,02	843,00
-16817,25	907,00
-16776,59	876,00
-16736,04	869,00
-16695,61	984,00
-16655,29	838,00
-16615,09	789,00
-16574,99	902,00
-16535,01	1007,00
-16495,15	962,00
-16455,39	914,00
-16415,74	863,00
-16376,21	913,00
-16336,78	853,00
-16297,46	805,00
-16258,26	755,00
-16219,16	855,00
-16180,17	887,00
-16141,28	905,00
-16102,51	923,00
-16063,84	887,00
-16025,27	899,00
-15986,82	805,00
-15948,46	862,00
-15910,22	871,00
-15872,07	826,00
-15834,04	894,00
-15796,10	852,00
-15758,27	1061,00
-15720,54	859,00
-15682,91	909,00
-15645,39	1058,00
-15607,97	881,00
-15570,64	844,00
-15533,42	960,00
-15496,30	877,00
-15459,28	953,00
-15422,36	924,00
-15385,54	862,00
-15348,82	897,00
-15312,19	1070,00
-15275,66	826,00
-15239,23	990,00
-15202,90	878,00
-15166,67	905,00
-15130,53	924,00
-15094,48	985,00
-15058,54	900,00
-15022,68	893,00
-14986,93	888,00
-14951,26	850,00
-14915,69	972,00
-14880,22	842,00
-14844,84	855,00
-14809,55	941,00
-14774,35	812,00
-14739,25	941,00
-14704,24	876,00
-14669,32	864,00
-14634,49	769,00
-14599,75	912,00
-14565,10	825,00
-14530,55	883,00
-14496,08	889,00
-14461,70	897,00
-14427,41	776,00
-14393,21	810,00
-14359,10	815,00
-14325,07	922,00
-14291,14	810,00
-14257,29	959,00
-14223,52	922,00
-14189,85	1081,00
-14156,26	869,00
-14122,76	835,00
-14089,34	804,00
-14056,01	894,00
-14022,76	914,00
-13989,60	962,00
-13956,52	1004,00
-13923,53	959,00
-13890,62	775,00
-13857,79	961,00
-13825,05	827,00
-13792,39	819,00
-13759,81	895,00
-13727,31	847,00
-13694,90	888,00
-13662,57	1007,00
-13630,31	991,00
-13598,14	892,00
-13566,05	853,00
-13534,05	895,00
-13502,12	934,00
-13470,27	893,00
-13438,50	1003,00
-13406,80	801,00
-13375,19	861,00
-13343,66	839,00
-13312,20	927,00
-13280,83	844,00
-13249,53	935,00
-13218,30	789,00
-13187,16	825,00
-13156,09	1074,00
-13125,10	945,00
-13094,18	848,00
-13063,34	913,00
-13032,58	785,00
-13001,89	963,00
-12971,28	975,00
-12940,74	878,00
-12910,27	904,00
-12879,88	901,00
-12849,57	990,00
-12819,33	988,00
-12789,16	933,00
-12759,06	919,00
-12729,04	810,00
-12699,09	1405,00
-12669,21	843,00
-12639,41	924,00
-12609,68	849,00
-12580,02	962,00
-12550,43	1003,00
-12520,91	846,00
-12491,46	897,00
-12462,08	855,00
-12432,77	884,00
-12403,54	806,00
-12374,37	878,00
-12345,27	901,00
-12316,24	812,00
-12287,29	856,00
-12258,40	845,00
-12229,57	956,00
-12200,82	767,00
-12172,14	944,00
-12143,52	804,00
-12114,97	868,00
-12086,49	1008,00
-12058,07	924,00
-12029,73	871,00
-12001,44	991,00
-11973,23	921,00
-11945,08	874,00
-11917,00	936,00
-11888,98	786,00
-11861,03	1065,00
-11833,15	929,00
-11805,32	935,00
-11777,57	900,00
-11749,88	862,00
-11722,25	844,00
-11694,69	884,00
-11667,19	926,00
-11639,75	970,00
-11612,38	884,00
-11585,07	882,00
-11557,83	909,00
-11530,65	997,00
-11503,53	831,00
-11476,47	946,00
-11449,48	924,00
-11422,54	1052,00
-11395,67	968,00
-11368,86	1044,00
-11342,11	897,00
-11315,43	867,00
-11288,80	812,00
-11262,23	933,00
-11235,73	952,00
-11209,28	1069,00
-11182,90	951,00
-11156,57	879,00
-11130,31	1039,00
-11104,10	875,00
-11077,96	832,00
-11051,87	859,00
-11025,84	856,00
-10999,87	856,00
-10973,96	899,00
-10948,11	822,00
-10922,31	989,00
-10896,58	898,00
-10870,90	1013,00
-10845,28	998,00
-10819,71	921,00
-10794,20	976,00
-10768,75	974,00
-10743,36	985,00
-10718,02	820,00
-10692,74	820,00
-10667,52	918,00
-10642,35	980,00
-10617,24	986,00
-10592,18	907,00
-10567,18	939,00
-10542,23	916,00
-10517,34	978,00
-10492,51	1098,00
-10467,72	947,00
-10443,00	986,00
-10418,32	1105,00
-10393,70	1098,00
-10369,14	949,00
-10344,63	919,00
-10320,17	1147,00
-10295,77	1074,00
-10271,42	1033,00
-10247,12	1020,00
-10222,88	1194,00
-10198,68	1027,00
-10174,54	1043,00
-10150,46	1204,00
-10126,42	1214,00
-10102,44	1116,00
-10078,51	1133,00
-10054,63	1262,00
-10030,80	1182,00
-10007,03	1295,00
-9983,30	1258,00
-9959,63	1221,00
-9936,01	1473,00
-9912,44	1312,00
-9888,92	1413,00
-9865,44	1193,00
-9842,02	1380,00
-9818,65	1429,00
-9795,33	1280,00
-9772,06	1522,00
-9748,84	1377,00
-9725,67	1446,00
-9702,55	1622,00
-9679,47	1668,00
-9656,45	1851,00
-9633,47	1804,00
-9610,55	1858,00
-9587,67	2004,00
-9564,84	2266,00
-9542,06	2148,00
-9519,32	2396,00
-9496,64	2568,00
-9474,00	2503,00
-9451,41	2588,00
-9428,87	2694,00
-9406,37	2634,00
-9383,92	2538,00
-9361,52	2550,00
-9339,17	2797,00
-9316,86	2905,00
-9294,60	3261,00
-9272,38	3506,00
-9250,21	4006,00
-9228,09	4029,00
-9206,01	4048,00
-9183,98	3606,00
-9162,00	3345,00
-9140,06	3415,00
-9118,16	3302,00
-9096,31	3458,00
-9074,51	3598,00
-9052,75	3720,00
-9031,04	3670,00
-9009,37	3400,00
-8987,74	3116,00
-8966,16	2895,00
-8944,63	2657,00
-8923,14	2788,00
-8901,69	2645,00
-8880,29	2579,00
-8858,93	3053,00
-8837,61	3121,00
-8816,34	3308,00
-8795,11	3296,00
-8773,92	3065,00
-8752,78	2921,00
-8731,68	2700,00
-8710,62	2840,00
-8689,61	2799,00
-8668,63	2959,00
-8647,70	3270,00
-8626,82	3114,00
-8605,97	3143,00
-8585,17	2986,00
-8564,41	2779,00
-8543,69	2691,00
-8523,01	2517,00
-8502,37	2717,00
-8481,78	2693,00
-8461,23	2745,00
-8440,71	3045,00
-8420,24	3026,00
-8399,81	3319,00
-8379,42	3052,00
-8359,08	3040,00
-8338,77	2663,00
-8318,50	2514,00
-8298,27	2364,00
-8278,09	2728,00
-8257,94	2724,00
-8237,83	3023,00
-8217,76	3023,00
-8197,74	2931,00
-8177,75	2901,00
-8157,80	2665,00
-8137,89	2589,00
-8118,02	2363,00
-8098,19	2523,00
-8078,40	2387,00
-8058,65	2407,00
-8038,93	2638,00
-8019,26	2476,00
-7999,62	2570,00
-7980,02	2258,00
-7960,46	2211,00
-7940,94	2198,00
-7921,46	2155,00
-7902,01	2141,00
-7882,60	2230,00
-7863,23	2184,00
-7843,90	2164,00
-7824,61	2239,00
-7805,35	2523,00
-7786,13	2412,00
-7766,95	2408,00
-7747,80	2309,00
-7728,69	2266,00
-7709,62	2151,00
-7690,59	2329,00
-7671,59	2402,00
-7652,63	2349,00
-7633,70	2291,00
-7614,81	2513,00
-7595,96	2170,00
-7577,15	2135,00
-7558,37	2033,00
-7539,62	2129,00
-7520,91	2177,00
-7502,24	2298,00
-7483,60	2339,00
-7465,00	2171,00
-7446,44	2152,00
-7427,91	1721,00
-7409,41	1839,00
-7390,95	1739,00
-7372,53	1614,00
-7354,14	1711,00
-7335,78	1743,00
-7317,46	1816,00
-7299,18	1720,00
-7280,92	1974,00
-7262,71	2252,00
-7244,52	2329,00
-7226,38	2209,00
-7208,26	2117,00
-7190,18	2111,00
-7172,14	1984,00
-7154,12	2026,00
-7136,15	2067,00
-7118,20	2191,00
-7100,29	2281,00
-7082,41	2236,00
-7064,57	1992,00
-7046,76	2055,00
-7028,98	1757,00
-7011,24	1887,00
-6993,53	1654,00
-6975,85	1549,00
-6958,20	1487,00
-6940,59	1519,00
-6923,01	1361,00
-6905,46	1754,00
-6887,94	1754,00
-6870,46	2198,00
-6853,01	2100,00
-6835,59	1987,00
-6818,21	1818,00
-6800,85	1822,00
-6783,53	1530,00
-6766,24	1383,00
-6748,98	1391,00
-6731,76	1236,00
-6714,56	1277,00
-6697,40	1172,00
-6680,26	1218,00
-6663,16	1420,00
-6646,09	1619,00
-6629,05	1753,00
-6612,05	1702,00
-6595,07	1686,00
-6578,13	1727,00
-6561,21	1405,00
-6544,33	1399,00
-6527,47	1224,00
-6510,65	1195,00
-6493,86	1116,00
-6477,10	1166,00
-6460,36	1295,00
-6443,66	1212,00
-6426,99	1192,00
-6410,35	1192,00
-6393,74	1332,00
-6377,16	1279,00
-6360,61	1363,00
-6344,09	1236,00
-6327,59	1393,00
-6311,13	1504,00
-6294,70	1378,00
-6278,29	1419,00
-6261,92	1548,00
-6245,58	1703,00
-6229,26	1736,00
-6212,97	1582,00
-6196,72	1435,00
-6180,49	1319,00
-6164,29	1143,00
-6148,12	1164,00
-6131,98	1176,00
-6115,86	1075,00
-6099,78	1010,00
-6083,72	945,00
-6067,69	1005,00
-6051,69	1063,00
-6035,72	968,00
-6019,78	1184,00
-6003,87	1305,00
-5987,98	1467,00
-5972,12	1399,00
-5956,29	1413,00
-5940,49	1200,00
-5924,71	1310,00
-5908,96	1088,00
-5893,24	1020,00
-5877,55	1089,00
-5861,89	1116,00
-5846,25	932,00
-5830,64	1113,00
-5815,05	1045,00
-5799,50	1043,00
-5783,97	1116,00
-5768,47	1135,00
-5752,99	1455,00
-5737,55	1265,00
-5722,12	1377,00
-5706,73	1397,00
-5691,36	1373,00
-5676,02	1175,00
-5660,71	1084,00
-5645,42	979,00
-5630,16	1172,00
-5614,92	1337,00
-5599,71	1160,00
-5584,53	1191,00
-5569,37	1230,00
-5554,24	2203,00
-5539,14	1140,00
-5524,06	1113,00
-5509,01	1226,00
-5493,98	1136,00
-5478,98	1299,00
-5464,00	1271,00
-5449,05	1108,00
-5434,13	1130,00
-5419,23	1049,00
-5404,36	1010,00
-5389,51	1127,00
-5374,69	1391,00
-5359,89	1512,00
-5345,12	1611,00
-5330,37	1566,00
-5315,65	1306,00
-5300,95	1252,00
-5286,28	1135,00
-5271,63	997,00
-5257,01	1209,00
-5242,41	1121,00
-5227,84	1022,00
-5213,29	1078,00
-5198,76	996,00
-5184,26	1035,00
-5169,79	1005,00
-5155,33	1048,00
-5140,91	1152,00
-5126,51	1184,00
-5112,13	1251,00
-5097,77	1136,00
-5083,44	1246,00
-5069,13	981,00
-5054,85	1104,00
-5040,59	1200,00
-5026,36	1159,00
-5012,15	1199,00
-4997,96	1215,00
-4983,80	1160,00
-4969,66	905,00
-4955,54	971,00
-4941,44	1067,00
-4927,37	1121,00
-4913,33	1383,00
-4899,30	1411,00
-4885,30	1333,00
-4871,33	1122,00
-4857,37	978,00
-4843,44	974,00
-4829,53	1015,00
-4815,65	1222,00
-4801,79	969,00
-4787,95	1139,00
-4774,13	1043,00
-4760,34	957,00
-4746,56	1047,00
-4732,82	953,00
-4719,09	1007,00
-4705,38	1307,00
-4691,70	1346,00
-4678,04	1447,00
-4664,41	1301,00
-4650,79	1368,00
-4637,20	1015,00
-4623,63	1007,00
-4610,08	1206,00
-4596,56	1135,00
-4583,05	1123,00
-4569,57	1063,00
-4556,11	1054,00
-4542,67	951,00
-4529,25	901,00
-4515,86	1000,00
-4502,49	1288,00
-4489,13	1374,00
-4475,80	1346,00
-4462,49	1002,00
-4449,21	1061,00
-4435,94	1014,00
-4422,70	948,00
-4409,47	1013,00
-4396,27	1167,00
-4383,09	1092,00
-4369,93	1023,00
-4356,79	832,00
-4343,67	1036,00
-4330,58	1103,00
-4317,50	1146,00
-4304,45	1078,00
-4291,41	1003,00
-4278,40	964,00
-4265,41	862,00
-4252,44	1007,00
-4239,49	991,00
-4226,55	1136,00
-4213,65	1038,00
-4200,76	1103,00
-4187,89	954,00
-4175,04	938,00
-4162,21	916,00
-4149,40	1018,00
-4136,61	934,00
-4123,85	888,00
-4111,10	897,00
-4098,37	991,00
-4085,66	951,00
-4072,98	1009,00
-4060,31	858,00
-4047,66	1063,00
-4035,04	1129,00
-4022,43	910,00
-4009,84	958,00
-3997,27	797,00
-3984,72	959,00
-3972,19	975,00
-3959,69	911,00
-3947,20	878,00
-3934,73	894,00
-3922,27	799,00
-3909,84	888,00
-3897,43	926,00
-3885,04	980,00
-3872,67	893,00
-3860,31	831,00
-3847,98	1048,00
-3835,66	908,00
-3823,36	903,00
-3811,09	856,00
-3798,83	944,00
-3786,59	909,00
-3774,37	982,00
-3762,17	883,00
-3749,98	941,00
-3737,82	832,00
-3725,67	1129,00
-3713,55	794,00
-3701,44	999,00
-3689,35	885,00
-3677,28	998,00
-3665,22	877,00
-3653,19	823,00
-3641,17	871,00
-3629,18	981,00
-3617,20	956,00
-3605,24	946,00
-3593,30	988,00
-3581,37	960,00
-3569,47	871,00
-3557,58	942,00
-3545,71	987,00
-3533,86	979,00
-3522,02	925,00
-3510,21	941,00
-3498,41	992,00
-3486,63	884,00
-3474,87	864,00
-3463,12	892,00
-3451,40	931,00
-3439,69	933,00
-3428,00	836,00
-3416,33	947,00
-3404,67	800,00
-3393,03	846,00
-3381,41	993,00
-3369,81	871,00
-3358,22	1013,00
-3346,66	1019,00
-3335,10	893,00
-3323,57	829,00
-3312,06	1012,00
-3300,56	962,00
-3289,08	857,00
-3277,61	901,00
-3266,16	1133,00
-3254,73	966,00
-3243,32	910,00
-3231,92	807,00
-3220,55	986,00
-3209,18	1024,00
-3197,84	868,00
-3186,51	930,00
-3175,20	878,00
-3163,90	816,00
-3152,63	921,00
-3141,36	838,00
-3130,12	904,00
-3118,89	986,00
-3107,68	884,00
-3096,49	905,00
-3085,31	932,00
-3074,15	900,00
-3063,00	949,00
-3051,87	1031,00
-3040,76	806,00
-3029,67	1049,00
-3018,59	1206,00
-3007,52	1050,00
-2996,48	925,00
-2985,44	834,00
-2974,43	949,00
-2963,43	881,00
-2952,45	875,00
-2941,48	959,00
-2930,53	883,00
-2919,60	850,00
-2908,68	848,00
-2897,78	930,00
-2886,89	954,00
-2876,02	871,00
-2865,17	917,00
-2854,33	926,00
-2843,50	914,00
-2832,70	846,00
-2821,90	920,00
-2811,13	988,00
-2800,37	915,00
-2789,62	841,00
-2778,89	971,00
-2768,18	1008,00
-2757,48	906,00
-2746,80	1012,00
-2736,13	945,00
-2725,48	1020,00
-2714,84	709,00
-2704,22	925,00
-2693,61	902,00
-2683,02	846,00
-2672,45	949,00
-2661,89	991,00
-2651,34	952,00
-2640,81	915,00
-2630,30	1032,00
-2619,80	800,00
-2609,31	994,00
-2598,84	840,00
-2588,39	971,00
-2577,95	916,00
-2567,52	784,00
-2557,11	853,00
-2546,71	966,00
-2536,33	1107,00
-2525,97	871,00
-2515,62	1027,00
-2505,28	930,00
-2494,96	881,00
-2484,65	926,00
-2474,36	1356,00
-2464,08	902,00
-2453,82	1072,00
-2443,57	919,00
-2433,33	826,00
-2423,11	978,00
-2412,91	948,00
-2402,72	910,00
-2392,54	916,00
-2382,38	908,00
-2372,23	1020,00
-2362,09	1989,00
-2351,97	817,00
-2341,87	886,00
-2331,78	997,00
-2321,70	1039,00
-2311,64	943,00
-2301,59	912,00
-2291,55	887,00
-2281,53	1063,00
-2271,53	832,00
-2261,53	990,00
-2251,55	885,00
-2241,59	926,00
-2231,64	940,00
-2221,70	839,00
-2211,78	891,00
-2201,87	948,00
-2191,97	980,00
-2182,09	903,00
-2172,22	979,00
-2162,37	808,00
-2152,53	816,00
-2142,70	886,00
-2132,89	822,00
-2123,09	975,00
-2113,30	916,00
-2103,53	892,00
-2093,77	923,00
-2084,02	864,00
-2074,29	971,00
-2064,57	886,00
-2054,86	935,00
-2045,17	1030,00
-2035,49	973,00
-2025,82	800,00
-2016,17	914,00
-2006,53	915,00
-1996,91	918,00
-1987,29	872,00
-1977,69	949,00
-1968,11	865,00
-1958,53	844,00
-1948,97	915,00
-1939,42	805,00
-1929,89	909,00
-1920,37	921,00
-1910,86	858,00
-1901,36	925,00
-1891,88	934,00
-1882,41	882,00
-1872,95	950,00
-1863,51	963,00
-1854,08	979,00
-1844,66	940,00
-1835,26	1003,00
-1825,86	961,00
-1816,48	778,00
-1807,11	1012,00
-1797,76	940,00
-1788,42	972,00
-1779,09	940,00
-1769,77	915,00
-1760,47	1064,00
-1751,17	853,00
-1741,89	901,00
-1732,63	1004,00
-1723,37	1164,00
-1714,13	1078,00
-1704,90	887,00
-1695,68	1034,00
-1686,48	848,00
-1677,29	933,00
-1668,11	1117,00
-1658,94	850,00
-1649,78	918,00
-1640,64	866,00
-1631,51	893,00
-1622,39	1023,00
-1613,28	945,00
-1604,19	1012,00
-1595,10	916,00
-1586,03	951,00
-1576,97	958,00
-1567,93	876,00
-1558,89	1004,00
-1549,87	972,00
-1540,86	895,00
-1531,86	895,00
-1522,87	846,00
-1513,90	958,00
-1504,93	1012,00
-1495,98	1041,00
-1487,04	1012,00
-1478,12	823,00
-1469,20	850,00
-1460,30	928,00
-1451,40	1125,00
-1442,52	944,00
-1433,65	1056,00
-1424,80	929,00
-1415,95	822,00
-1407,12	1076,00
-1398,30	995,00
-1389,48	967,00
-1380,69	918,00
-1371,90	875,00
-1363,12	1004,00
-1354,36	1093,00
-1345,60	844,00
-1336,86	961,00
-1328,13	1080,00
-1319,41	967,00
-1310,70	936,00
-1302,01	913,00
-1293,32	820,00
-1284,65	1043,00
-1275,99	1037,00
-1267,33	1058,00
-1258,69	1014,00
-1250,06	923,00
-1241,45	813,00
-1232,84	1081,00
-1224,25	932,00
-1215,66	992,00
-1207,09	910,00
-1198,53	926,00
-1189,97	921,00
-1181,43	842,00
-1172,91	905,00
-1164,39	1028,00
-1155,88	833,00
-1147,38	796,00
-1138,90	838,00
-1130,43	894,00
-1121,96	928,00
-1113,51	920,00
-1105,07	920,00
-1096,64	1004,00
-1088,22	960,00
-1079,81	1059,00
-1071,41	1014,00
-1063,02	930,00
-1054,65	919,00
-1046,28	879,00
-1037,92	954,00
-1029,58	873,00
-1021,24	1011,00
-1012,92	1294,00
-1004,61	995,00
-996,30	1171,00
-988,01	826,00
-979,73	910,00
-971,46	992,00
-963,20	826,00
-954,95	809,00
-946,71	937,00
-938,48	985,00
-930,26	974,00
-922,06	932,00
-913,86	934,00
-905,67	875,00
-897,49	990,00
-889,33	769,00
-881,17	1084,00
-873,02	989,00
-864,89	898,00
-856,76	867,00
-848,65	943,00
-840,54	1003,00
-832,45	915,00
-824,36	731,00
-816,29	1001,00
-808,22	1032,00
-800,17	943,00
-792,12	991,00
-784,09	1008,00
-776,06	844,00
-768,05	926,00
-760,04	967,00
-752,05	917,00
-744,07	1005,00
-736,09	1015,00
-728,13	805,00
-720,17	948,00
-712,23	947,00
-704,29	856,00
-696,37	885,00
-688,45	1009,00
-680,55	845,00
-672,65	953,00
-664,77	869,00
-656,89	964,00
-649,03	888,00
-641,17	952,00
-633,32	980,00
-625,49	1012,00
-617,66	946,00
-609,84	957,00
-602,03	842,00
-594,23	948,00
-586,45	883,00
-578,67	949,00
-570,90	870,00
-563,14	783,00
-555,39	1004,00
-547,65	959,00
-539,91	914,00
-532,19	900,00
-524,48	980,00
-516,78	938,00
-509,08	963,00
-501,40	888,00
-493,72	927,00
-486,06	867,00
-478,40	1077,00
-470,76	860,00
-463,12	900,00
-455,49	868,00
-447,87	813,00
-440,26	859,00
-432,66	872,00
-425,07	1016,00
-417,49	1021,00
-409,92	803,00
-402,35	811,00
-394,80	790,00
-387,25	942,00
-379,72	988,00
-372,19	944,00
-364,67	988,00
-357,17	898,00
-349,67	1019,00
-342,18	979,00
-334,69	1092,00
-327,22	973,00
-319,76	925,00
-312,30	897,00
-304,86	882,00
-297,42	985,00
-290,00	924,00
-282,58	908,00
-275,17	975,00
-267,77	1107,00
-260,37	894,00
-252,99	1102,00
-245,62	963,00
-238,25	975,00
-230,90	879,00
-223,55	1029,00
-216,21	972,00
-208,88	1198,00
-201,56	997,00
-194,25	1070,00
-186,94	1070,00
-179,65	1060,00
-172,36	1170,00
-165,08	1103,00
-157,81	1236,00
-150,55	1307,00
-143,30	1226,00
-136,06	1248,00
-128,82	1306,00
-121,60	1361,00
-114,38	1497,00
-107,17	1591,00
-99,97	1736,00
-92,78	1772,00
-85,60	1816,00
-78,42	2018,00
-71,25	2108,00
-64,10	2225,00
-56,95	2594,00
-49,81	2867,00
-42,67	3527,00
-35,55	4099,00
-28,43	5200,00
-21,33	8032,00
-14,23	24650,00
-7,14	57498,00
-0,05	57284,00
7,02	57012,00
14,09	57319,00
21,14	20775,00
28,19	9219,00
35,23	6099,00
42,27	5059,00
49,29	4169,00
56,31	3668,00
63,32	3270,00
70,32	2765,00
77,31	2515,00
84,29	2302,00
91,27	2206,00
98,23	2164,00
105,19	1926,00
112,14	2189,00
119,09	2849,00
126,02	4029,00
132,95	4496,00
139,87	4598,00
146,78	4729,00
153,68	4428,00
160,58	4325,00
167,46	4276,00
174,34	4320,00
181,21	4302,00
188,08	4229,00
194,93	4338,00
201,78	4212,00
208,62	4405,00
215,45	4282,00
222,27	4171,00
229,09	4294,00
235,90	4017,00
242,70	4181,00
249,49	4190,00
256,27	3960,00
263,05	3929,00
269,82	3801,00
276,58	3931,00
283,33	3833,00
290,08	3574,00
296,82	3643,00
303,55	3450,00
310,27	3416,00
316,98	3424,00
323,69	3478,00
330,39	3388,00
337,08	3499,00
343,76	3480,00
350,44	3413,00
357,11	3417,00
363,77	3454,00
370,42	3430,00
377,07	3433,00
383,71	3437,00
390,34	3439,00
396,96	3429,00
403,58	3462,00
410,19	3632,00
416,79	3701,00
423,38	3752,00
429,97	3725,00
436,55	3667,00
443,12	3765,00
449,68	3775,00
456,24	3646,00
462,79	3535,00
469,33	3399,00
475,86	3291,00
482,39	3112,00
488,91	3157,00
495,42	2975,00
501,93	3008,00
508,42	3007,00
514,91	2942,00
521,40	2960,00
527,87	2911,00
534,34	2828,00
540,80	2887,00
547,25	3038,00
553,70	2933,00
560,14	2909,00
566,57	2968,00
573,00	2793,00
579,41	3030,00
585,83	3102,00
592,23	3102,00
598,62	3149,00
605,01	3135,00
611,40	3264,00
617,77	3334,00
624,14	3163,00
630,50	3041,00
636,85	2889,00
643,20	2934,00
649,54	2744,00
655,87	2734,00
662,20	2729,00
668,52	2753,00
674,83	2748,00
681,13	2656,00
687,43	2801,00
693,72	2574,00
700,00	2495,00
706,28	2568,00
712,55	2571,00
718,81	2733,00
725,07	2558,00
731,32	2582,00
737,56	2685,00
743,79	2504,00
750,02	2642,00
756,24	2406,00
762,46	2429,00
768,67	2796,00
774,87	2473,00
781,06	2397,00
787,25	2595,00
793,43	2507,00
799,60	2512,00
805,77	2683,00
811,93	2509,00
818,08	2536,00
824,23	2472,00
830,37	2693,00
836,50	2511,00
842,63	2569,00
848,75	2572,00
854,87	2485,00
860,97	2679,00
867,07	2521,00
873,17	2589,00
879,25	2496,00
885,33	2577,00
891,41	2613,00
897,47	2531,00
903,53	2469,00
909,59	2560,00
915,63	2452,00
921,67	2491,00
927,71	2487,00
933,74	2409,00
939,76	2312,00
945,77	2320,00
951,78	2513,00
957,78	2296,00
963,78	2476,00
969,77	2460,00
975,75	2272,00
981,72	2268,00
987,69	3825,00
993,66	2423,00
999,61	2451,00
1005,56	2367,00
1011,51	2422,00
1017,44	2379,00
1023,37	2532,00
1029,30	2413,00
1035,22	2496,00
1041,13	2450,00
1047,03	2762,00
1052,93	3259,00
1058,83	4607,00
1064,71	5027,00
1070,59	4312,00
1076,47	3490,00
1082,33	3171,00
1088,20	3053,00
1094,05	2802,00
1099,90	2724,00
1105,74	2659,00
1111,58	2654,00
1117,41	2964,00
1123,23	3902,00
1129,05	4913,00
1134,86	4421,00
1140,67	3401,00
1146,47	2728,00
1152,26	2625,00
1158,05	2430,00
1163,83	2607,00
1169,60	2804,00
1175,37	2610,00
1181,13	2517,00
1186,89	2300,00
1192,64	2251,00
1198,38	2504,00
1204,12	2202,00
1209,85	2176,00
1215,58	2220,00
1221,30	2341,00
1227,02	2387,00
1232,72	2322,00
1238,43	2184,00
1244,12	2244,00
1249,81	2281,00
1255,50	2533,00
1261,17	2341,00
1266,85	2475,00
1272,51	2569,00
1278,17	2769,00
1283,83	2912,00
1289,47	4529,00
1295,12	6109,00
1300,75	5537,00
1306,38	4271,00
1312,01	3348,00
1317,63	2904,00
1323,24	2643,00
1328,85	2489,00
1334,45	2348,00
1340,04	2436,00
1345,63	2403,00
1351,22	2529,00
1356,80	2388,00
1362,37	2500,00
1367,93	2554,00
1373,49	2623,00
1379,05	2444,00
1384,60	2415,00
1390,14	2443,00
1395,68	2433,00
1401,21	2523,00
1406,74	2720,00
1412,26	3319,00
1417,77	3927,00
1423,28	3752,00
1428,78	4173,00
1434,28	5278,00
1439,77	6076,00
1445,26	5894,00
1450,74	5387,00
1456,22	5052,00
1461,68	4961,00
1467,15	4580,00
1472,61	3700,00
1478,06	3533,00
1483,51	2918,00
1488,95	2476,00
1494,38	2625,00
1499,81	2336,00
1505,24	2241,00
1510,65	2299,00
1516,07	2248,00
1521,48	2188,00
1526,88	1954,00
1532,27	2130,00
1537,67	2105,00
1543,05	2129,00
1548,43	1985,00
1553,81	2176,00
1559,18	1847,00
1564,54	2007,00
1569,90	1935,00
1575,25	1909,00
1580,60	1812,00
1585,94	2086,00
1591,28	1960,00
1596,61	1930,00
1601,93	1891,00
1607,25	1975,00
1612,57	1850,00
1617,88	1883,00
1623,18	1938,00
1628,48	1888,00
1633,77	1857,00
1639,06	1936,00
1644,34	1759,00
1649,62	1751,00
1654,89	1761,00
1660,16	1687,00
1665,42	1908,00
1670,67	1684,00
1675,92	1650,00
1681,17	1805,00
1686,41	1744,00
1691,64	1861,00
1696,87	1857,00
1702,10	1726,00
1707,32	1818,00
1712,53	1780,00
1717,74	1768,00
1722,94	1940,00
1728,14	1656,00
1733,33	1683,00
1738,52	1616,00
1743,70	1724,00
1748,88	1693,00
1754,05	1791,00
1759,22	1620,00
1764,38	898,00
1769,53	1746,00
1774,69	1693,00
1779,83	1572,00
1784,97	1695,00
1790,11	1641,00
1795,24	1609,00
1800,36	1587,00
1805,48	1664,00
1810,60	1707,00
1815,71	1608,00
1820,82	1544,00
1825,92	1672,00
1831,01	1552,00
1836,10	1596,00
1841,19	1629,00
1846,26	1418,00
1851,34	1605,00
1856,41	1575,00
1861,47	1465,00
1866,53	1653,00
1871,59	1590,00
1876,64	1552,00
1881,68	1614,00
1886,72	1636,00
1891,76	1479,00
1896,79	1583,00
1901,81	1375,00
1906,83	1537,00
1911,85	1433,00
1916,86	1456,00
1921,86	1421,00
1926,86	1532,00
1931,86	1587,00
1936,85	1315,00
1941,83	1431,00
1946,81	1464,00
1951,79	1463,00
1956,76	1426,00
1961,72	1324,00
1966,68	1371,00
1971,64	1399,00
1976,59	1425,00
1981,54	1347,00
1986,48	1525,00
1991,42	1298,00
1996,35	1631,00
2001,27	1355,00
2006,20	1383,00
2011,11	1444,00
2016,03	1360,00
2020,93	1292,00
2025,84	1404,00
2030,73	1343,00
2035,63	1254,00
2040,52	1388,00
2045,40	1412,00
2050,28	1371,00
2055,15	1437,00
2060,02	1292,00
2064,89	1333,00
2069,75	1423,00
2074,60	1421,00
2079,46	1220,00
2084,30	1334,00
2089,14	1339,00
2093,98	1411,00
2098,81	1417,00
2103,64	1394,00
2108,46	1397,00
2113,28	1424,00
2118,09	1353,00
2122,90	1347,00
2127,70	1311,00
2132,50	1383,00
2137,30	1298,00
2142,09	1156,00
2146,87	1199,00
2151,66	1310,00
2156,43	1266,00
2161,20	1290,00
2165,97	1433,00
2170,73	1276,00
2175,49	1389,00
2180,24	1301,00
2184,99	1517,00
2189,74	1593,00
2194,48	1394,00
2199,21	1396,00
2203,94	1317,00
2208,67	1294,00
2213,39	1164,00
2218,11	1374,00
2222,82	1229,00
2227,53	1337,00
2232,23	1376,00
2236,93	1391,00
2241,63	1230,00
2246,32	1400,00
2251,00	1274,00
2255,68	1325,00
2260,36	1215,00
2265,03	1328,00
2269,70	1433,00
2274,36	1359,00
2279,02	1225,00
2283,68	1326,00
2288,33	1306,00
2292,97	1280,00
2297,61	1305,00
2302,25	1335,00
2306,88	1245,00
2311,51	1150,00
2316,14	1197,00
2320,75	1172,00
2325,37	1203,00
2329,98	1322,00
2334,59	1203,00
2339,19	1215,00
2343,79	1111,00
2348,38	1233,00
2352,97	1138,00
2357,55	1227,00
2362,13	1218,00
2366,71	1175,00
2371,28	1324,00
2375,85	1198,00
2380,41	1286,00
2384,97	1167,00
2389,52	1287,00
2394,07	1263,00
2398,62	1307,00
2403,16	1248,00
2407,70	1086,00
2412,23	1113,00
2416,76	1309,00
2421,29	1352,00
2425,81	1259,00
2430,32	1328,00
2434,84	1090,00
2439,34	1287,00
2443,85	1365,00
2448,35	1094,00
2452,84	1163,00
2457,33	1202,00
2461,82	1116,00
2466,30	1139,00
2470,78	1222,00
2475,25	1148,00
2479,72	1193,00
2484,19	1218,00
2488,65	1243,00
2493,11	1149,00
2497,56	1298,00
2502,01	1063,00
2506,46	1317,00
2510,90	1152,00
2515,34	1111,00
2519,77	1219,00
2524,20	1174,00
2528,62	1178,00
2533,04	1234,00
2537,46	1185,00
2541,87	1148,00
2546,28	1215,00
2550,68	1305,00
2555,08	1193,00
2559,48	1217,00
2563,87	1059,00
2568,26	1129,00
2572,64	1290,00
2577,02	1216,00
2581,40	1121,00
2585,77	1310,00
2590,14	1175,00
2594,50	1171,00
2598,86	1280,00
2603,22	1278,00
2607,57	1288,00
2611,92	1240,00
2616,26	1392,00
2620,60	1342,00
2624,94	1247,00
2629,27	1220,00
2633,60	1122,00
2637,92	1448,00
2642,24	1368,00
2646,56	1203,00
2650,87	1100,00
2655,18	1395,00
2659,48	1164,00
2663,78	1224,00
2668,08	1297,00
2672,37	1215,00
2676,66	1210,00
2680,95	1208,00
2685,23	1366,00
2689,50	1270,00
2693,78	1311,00
2698,05	1307,00
2702,31	1431,00
2706,57	1480,00
2710,83	1489,00
2715,08	1587,00
2719,33	1577,00
2723,58	1557,00
2727,82	1601,00
2732,06	1511,00
2736,29	1503,00
2740,53	1527,00
2744,75	1446,00
2748,97	1467,00
2753,19	1401,00
2757,41	1448,00
2761,62	1426,00
2765,83	1423,00
2770,03	1384,00
2774,23	1454,00
2778,43	1429,00
2782,62	1426,00
2786,81	1475,00
2791,00	1541,00
2795,18	1542,00
2799,35	1669,00
2803,53	1635,00
2807,70	1690,00
2811,86	1658,00
2816,03	1855,00
2820,19	1812,00
2824,34	1955,00
2828,49	2110,00
2832,64	2400,00
2836,78	2801,00
2840,92	3268,00
2845,06	3881,00
2849,19	4353,00
2853,32	4503,00
2857,45	4400,00
2861,57	4357,00
2865,69	4242,00
2869,80	4097,00
2873,91	4334,00
2878,02	4846,00
2882,12	5215,00
2886,22	5221,00
2890,32	4995,00
2894,41	4653,00
2898,50	4204,00
2902,58	3815,00
2906,67	3607,00
2910,74	3342,00
2914,82	3066,00
2918,89	3106,00
2922,96	2813,00
2927,02	2567,00
2931,08	2487,00
2935,13	2370,00
2939,19	2342,00
2943,24	2188,00
2947,28	2029,00
2951,32	1826,00
2955,36	1688,00
2959,40	1739,00
2963,43	1668,00
2967,46	1504,00
2971,48	1483,00
2975,50	1389,00
2979,52	1374,00
2983,53	1354,00
2987,54	1332,00
2991,55	1334,00
2995,55	1286,00
2999,55	1179,00
3003,54	1200,00
3007,54	1314,00
3011,53	1173,00
3015,51	1229,00
3019,49	1205,00
3023,47	1076,00
3027,45	1239,00
3031,42	1129,00
3035,39	1015,00
3039,35	1110,00
3043,31	1183,00
3047,27	1083,00
3051,22	1116,00
3055,17	1028,00
3059,12	1019,00
3063,06	1069,00
3067,00	1008,00
3070,94	996,00
3074,87	1173,00
3078,80	1113,00
3082,73	1099,00
3086,65	940,00
3090,57	1037,00
3094,49	1007,00
3098,40	1050,00
3102,31	978,00
3106,22	994,00
3110,12	934,00
3114,02	923,00
3117,92	1000,00
3121,81	1005,00
3125,70	968,00
3129,58	896,00
3133,47	855,00
3137,34	1013,00
3141,22	1053,00
3145,09	998,00
3148,96	1033,00
3152,83	1004,00
3156,69	1078,00
3160,55	930,00
3164,40	1019,00
3168,26	987,00
3172,10	1001,00
3175,95	1091,00
3179,79	1020,00
3183,63	965,00
3187,47	952,00
3191,30	1091,00
3195,13	974,00
3198,95	847,00
3202,78	989,00
3206,60	909,00
3210,41	924,00
3214,23	877,00
3218,03	972,00
3221,84	1018,00
3225,64	926,00
3229,44	910,00
3233,24	1018,00
3237,03	1020,00
3240,82	953,00
3244,61	917,00
3248,39	850,00
3252,17	1014,00
3255,95	1023,00
3259,72	1013,00
3263,49	1146,00
3267,26	939,00
3271,03	989,00
3274,79	894,00
3278,54	952,00
3282,30	834,00
3286,05	947,00
3289,80	956,00
3293,54	880,00
3297,29	966,00
3301,02	954,00
3304,76	991,00
3308,49	952,00
3312,22	923,00
3315,95	980,00
3319,67	857,00
3323,39	1058,00
3327,10	1022,00
3330,82	914,00
3334,53	1027,00
3338,24	948,00
3341,94	870,00
3345,64	951,00
3349,34	955,00
3353,03	1018,00
3356,72	959,00
3360,41	936,00
3364,10	860,00
3367,78	840,00
3371,46	901,00
3375,13	893,00
3378,81	976,00
3382,48	901,00
3386,14	1003,00
3389,81	993,00
3393,47	962,00
3397,12	999,00
3400,78	906,00
3404,43	932,00
3408,08	1078,00
3411,72	882,00
3415,36	857,00
3419,00	934,00
3422,64	809,00
3426,27	963,00
3429,90	870,00
3433,53	920,00
3437,15	840,00
3440,77	837,00
3444,39	887,00
3448,00	918,00
3451,62	853,00
3455,22	903,00
3458,83	926,00
3462,43	1050,00
3466,03	990,00
3469,63	874,00
3473,22	846,00
3476,81	826,00
3480,40	1000,00
3483,99	834,00
3487,57	935,00
3491,15	918,00
3494,72	937,00
3498,29	948,00
3501,86	920,00
3505,43	887,00
3508,99	860,00
3512,56	796,00
3516,11	952,00
3519,67	840,00
3523,22	1008,00
3526,77	804,00
3530,32	1114,00
3533,86	965,00
3537,40	1028,00
3540,94	910,00
3544,47	919,00
3548,00	866,00
3551,53	1004,00
3555,06	862,00
3558,58	955,00
3562,10	976,00
3565,62	807,00
3569,13	867,00
3572,64	1030,00
3576,15	775,00
3579,66	789,00
3583,16	844,00
3586,66	868,00
3590,16	891,00
3593,65	833,00
3597,14	856,00
3600,63	786,00
3604,11	900,00
3607,60	830,00
3611,08	901,00
3614,55	953,00
3618,03	799,00
3621,50	830,00
3624,97	745,00
3628,43	812,00
3631,90	811,00
3635,36	785,00
3638,81	793,00
3642,27	839,00
3645,72	916,00
3649,17	810,00
3652,61	781,00
3656,06	738,00
3659,50	821,00
3662,93	821,00
3666,37	948,00
3669,80	980,00
3673,23	893,00
3676,65	834,00
3680,08	893,00
3683,50	804,00
3686,92	821,00
3690,33	817,00
3693,74	822,00
3697,15	767,00
3700,56	905,00
3703,96	885,00
3707,36	755,00
3710,76	751,00
3714,16	840,00
3717,55	753,00
3720,94	763,00
3724,33	782,00
3727,71	892,00
3731,10	805,00
3734,48	895,00
3737,85	689,00
3741,23	737,00
3744,60	739,00
3747,97	650,00
3751,33	914,00
3754,69	717,00
3758,05	745,00
3761,41	721,00
3764,77	717,00
3768,12	770,00
3771,47	716,00
3774,82	759,00
3778,16	-7,00
3781,50	14,00
3784,84	4,00
3788,18	13,00
>>>>>End Processed Spectral Data<<<<<
