SpectraSuite Data File
++++++++++++++++++++++++++++++++++++
Date: Mon Jan 05 16:34:34 ICT 2026
User: Administrator
Dark Spectrum Present: Yes
Reference Spectrum Present: No
Number of Sampled Component Spectra: 1
Spectrometers: MAYP113682
Integration Time (usec): 3000000 (MAYP113682)
Spectra Averaged: 1 (MAYP113682)
Boxcar Smoothing: 0 (MAYP113682)
Correct for Electrical Dark: No (MAYP113682)
Strobe/Lamp Enabled: No (MAYP113682)
Correct for Detector Non-linearity: No (MAYP113682)
Correct for Stray Light: No (MAYP113682)
Number of Pixels in Processed Spectrum: 2068
>>>>>Begin Processed Spectral Data<<<<<
-37534,58	32,00
-37414,56	10,00
-37295,11	8,00
-37176,24	6,00
-37057,95	578,00
-36940,22	697,00
-36823,05	760,00
-36706,45	852,00
-36590,40	863,00
-36474,90	752,00
-36359,95	878,00
-36245,55	832,00
-36131,68	821,00
-36018,35	819,00
-35905,55	835,00
-35793,29	885,00
-35681,54	825,00
-35570,32	803,00
-35459,62	888,00
-35349,43	895,00
-35239,75	934,00
-35130,58	793,00
-35021,91	855,00
-34913,74	871,00
-34806,07	901,00
-34698,89	917,00
-34592,20	829,00
-34486,00	865,00
-34380,28	818,00
-34275,04	817,00
-34170,27	811,00
-34065,98	916,00
-33962,16	863,00
-33858,81	896,00
-33755,92	857,00
-33653,49	973,00
-33551,52	938,00
-33450,01	986,00
-33348,94	891,00
-33248,33	829,00
-33148,16	885,00
-33048,43	905,00
-32949,14	1021,00
-32850,29	1101,00
-32751,87	808,00
-32653,89	915,00
-32556,33	1025,00
-32459,20	946,00
-32362,49	886,00
-32266,19	895,00
-32170,32	848,00
-32074,86	1003,00
-31979,82	946,00
-31885,18	1062,00
-31790,95	1037,00
-31697,12	1054,00
-31603,69	1082,00
-31510,67	992,00
-31418,04	897,00
-31325,80	934,00
-31233,95	873,00
-31142,49	942,00
-31051,42	872,00
-30960,73	1030,00
-30870,43	1098,00
-30780,50	947,00
-30690,95	940,00
-30601,77	1030,00
-30512,97	1006,00
-30424,53	880,00
-30336,46	988,00
-30248,76	979,00
-30161,42	1008,00
-30074,44	905,00
-29987,81	1011,00
-29901,55	1042,00
-29815,63	958,00
-29730,07	1042,00
-29644,86	1008,00
-29560,00	1024,00
-29475,48	960,00
-29391,30	977,00
-29307,47	931,00
-29223,97	933,00
-29140,81	1011,00
-29057,99	1122,00
-28975,50	840,00
-28893,34	1055,00
-28811,51	936,00
-28730,00	1015,00
-28648,82	939,00
-28567,97	980,00
-28487,43	958,00
-28407,21	952,00
-28327,32	896,00
-28247,73	1128,00
-28168,46	858,00
-28089,50	966,00
-28010,85	856,00
-27932,51	868,00
-27854,48	960,00
-27776,75	873,00
-27699,32	878,00
-27622,19	982,00
-27545,37	1007,00
-27468,84	1002,00
-27392,60	1135,00
-27316,66	909,00
-27241,01	1009,00
-27165,66	907,00
-27090,59	920,00
-27015,81	1055,00
-26941,31	1066,00
-26867,10	879,00
-26793,17	1136,00
-26719,52	1007,00
-26646,15	887,00
-26573,06	952,00
-26500,24	931,00
-26427,70	899,00
-26355,43	871,00
-26283,43	968,00
-26211,71	1027,00
-26140,25	925,00
-26069,06	1135,00
-25998,13	846,00
-25927,46	808,00
-25857,06	832,00
-25786,92	960,00
-25717,04	862,00
-25647,42	1039,00
-25578,05	824,00
-25508,94	916,00
-25440,09	984,00
-25371,48	970,00
-25303,13	959,00
-25235,02	972,00
-25167,17	993,00
-25099,56	995,00
-25032,19	916,00
-24965,07	817,00
-24898,20	854,00
-24831,56	889,00
-24765,17	1030,00
-24699,01	802,00
-24633,10	988,00
-24567,41	974,00
-24501,97	837,00
-24436,75	960,00
-24371,77	865,00
-24307,03	916,00
-24242,51	915,00
-24178,22	972,00
-24114,16	956,00
-24050,32	1088,00
-23986,71	899,00
-23923,32	944,00
-23860,16	976,00
-23797,22	909,00
-23734,50	889,00
-23672,00	890,00
-23609,71	943,00
-23547,65	857,00
-23485,80	1027,00
-23424,16	780,00
-23362,74	1059,00
-23301,53	918,00
-23240,54	804,00
-23179,75	824,00
-23119,17	876,00
-23058,80	868,00
-22998,64	1004,00
-22938,68	942,00
-22878,93	944,00
-22819,39	930,00
-22760,04	894,00
-22700,90	953,00
-22641,96	900,00
-22583,22	942,00
-22524,68	875,00
-22466,33	885,00
-22408,19	919,00
-22350,23	824,00
-22292,48	870,00
-22234,92	995,00
-22177,55	1015,00
-22120,37	1039,00
-22063,38	903,00
-22006,58	898,00
-21949,98	881,00
-21893,56	850,00
-21837,33	983,00
-21781,28	953,00
-21725,42	880,00
-21669,74	897,00
-21614,25	913,00
-21558,94	863,00
-21503,81	1042,00
-21448,86	998,00
-21394,10	914,00
-21339,51	837,00
-21285,10	832,00
-21230,86	825,00
-21176,81	972,00
-21122,93	904,00
-21069,22	786,00
-21015,69	848,00
-20962,33	992,00
-20909,14	842,00
-20856,13	897,00
-20803,28	976,00
-20750,61	917,00
-20698,10	865,00
-20645,76	878,00
-20593,59	1008,00
-20541,59	1028,00
-20489,75	935,00
-20438,07	798,00
-20386,56	980,00
-20335,22	833,00
-20284,03	813,00
-20233,01	870,00
-20182,15	993,00
-20131,45	868,00
-20080,91	861,00
-20030,52	906,00
-19980,30	846,00
-19930,23	785,00
-19880,32	976,00
-19830,56	875,00
-19780,96	895,00
-19731,52	872,00
-19682,23	808,00
-19633,09	880,00
-19584,10	863,00
-19535,26	872,00
-19486,58	1005,00
-19438,04	905,00
-19389,66	936,00
-19341,42	865,00
-19293,33	990,00
-19245,39	950,00
-19197,60	993,00
-19149,95	1056,00
-19102,45	912,00
-19055,09	755,00
-19007,87	835,00
-18960,80	846,00
-18913,87	897,00
-18867,09	865,00
-18820,44	1011,00
-18773,94	884,00
-18727,57	941,00
-18681,35	758,00
-18635,26	947,00
-18589,31	813,00
-18543,50	886,00
-18497,83	932,00
-18452,29	889,00
-18406,89	762,00
-18361,63	1033,00
-18316,50	934,00
-18271,50	965,00
-18226,63	1006,00
-18181,90	911,00
-18137,30	924,00
-18092,84	875,00
-18048,50	860,00
-18004,29	908,00
-17960,22	833,00
-17916,27	856,00
-17872,45	901,00
-17828,76	1049,00
-17785,20	1006,00
-17741,77	978,00
-17698,46	1013,00
-17655,28	852,00
-17612,22	912,00
-17569,29	845,00
-17526,48	1020,00
-17483,79	972,00
-17441,23	807,00
-17398,79	985,00
-17356,48	840,00
-17314,28	1109,00
-17272,21	822,00
-17230,26	894,00
-17188,42	898,00
-17146,71	930,00
-17105,12	886,00
-17063,64	925,00
-17022,28	918,00
-16981,04	832,00
-16939,92	982,00
-16898,91	1088,00
-16858,02	894,00
-16817,25	954,00
-16776,59	817,00
-16736,04	884,00
-16695,61	937,00
-16655,29	839,00
-16615,09	973,00
-16574,99	878,00
-16535,01	912,00
-16495,15	965,00
-16455,39	884,00
-16415,74	825,00
-16376,21	898,00
-16336,78	837,00
-16297,46	898,00
-16258,26	883,00
-16219,16	905,00
-16180,17	927,00
-16141,28	946,00
-16102,51	959,00
-16063,84	819,00
-16025,27	917,00
-15986,82	833,00
-15948,46	875,00
-15910,22	1004,00
-15872,07	870,00
-15834,04	888,00
-15796,10	838,00
-15758,27	1159,00
-15720,54	943,00
-15682,91	865,00
-15645,39	1060,00
-15607,97	948,00
-15570,64	810,00
-15533,42	968,00
-15496,30	923,00
-15459,28	987,00
-15422,36	885,00
-15385,54	878,00
-15348,82	885,00
-15312,19	1034,00
-15275,66	846,00
-15239,23	984,00
-15202,90	798,00
-15166,67	864,00
-15130,53	975,00
-15094,48	935,00
-15058,54	855,00
-15022,68	836,00
-14986,93	863,00
-14951,26	1051,00
-14915,69	938,00
-14880,22	845,00
-14844,84	857,00
-14809,55	891,00
-14774,35	967,00
-14739,25	929,00
-14704,24	984,00
-14669,32	903,00
-14634,49	836,00
-14599,75	995,00
-14565,10	869,00
-14530,55	951,00
-14496,08	889,00
-14461,70	876,00
-14427,41	847,00
-14393,21	854,00
-14359,10	889,00
-14325,07	876,00
-14291,14	850,00
-14257,29	990,00
-14223,52	918,00
-14189,85	1045,00
-14156,26	925,00
-14122,76	841,00
-14089,34	903,00
-14056,01	927,00
-14022,76	845,00
-13989,60	955,00
-13956,52	985,00
-13923,53	874,00
-13890,62	901,00
-13857,79	860,00
-13825,05	907,00
-13792,39	832,00
-13759,81	950,00
-13727,31	892,00
-13694,90	962,00
-13662,57	1074,00
-13630,31	975,00
-13598,14	925,00
-13566,05	846,00
-13534,05	881,00
-13502,12	909,00
-13470,27	909,00
-13438,50	1003,00
-13406,80	847,00
-13375,19	850,00
-13343,66	962,00
-13312,20	994,00
-13280,83	836,00
-13249,53	942,00
-13218,30	718,00
-13187,16	873,00
-13156,09	1071,00
-13125,10	943,00
-13094,18	983,00
-13063,34	956,00
-13032,58	785,00
-13001,89	923,00
-12971,28	1061,00
-12940,74	934,00
-12910,27	897,00
-12879,88	977,00
-12849,57	1001,00
-12819,33	1003,00
-12789,16	891,00
-12759,06	944,00
-12729,04	852,00
-12699,09	2388,00
-12669,21	878,00
-12639,41	990,00
-12609,68	828,00
-12580,02	918,00
-12550,43	1012,00
-12520,91	794,00
-12491,46	925,00
-12462,08	849,00
-12432,77	902,00
-12403,54	856,00
-12374,37	951,00
-12345,27	849,00
-12316,24	887,00
-12287,29	931,00
-12258,40	774,00
-12229,57	909,00
-12200,82	790,00
-12172,14	948,00
-12143,52	843,00
-12114,97	898,00
-12086,49	939,00
-12058,07	1009,00
-12029,73	839,00
-12001,44	927,00
-11973,23	942,00
-11945,08	941,00
-11917,00	935,00
-11888,98	842,00
-11861,03	998,00
-11833,15	949,00
-11805,32	981,00
-11777,57	932,00
-11749,88	948,00
-11722,25	868,00
-11694,69	922,00
-11667,19	862,00
-11639,75	1019,00
-11612,38	877,00
-11585,07	912,00
-11557,83	918,00
-11530,65	1036,00
-11503,53	833,00
-11476,47	995,00
-11449,48	845,00
-11422,54	981,00
-11395,67	964,00
-11368,86	998,00
-11342,11	868,00
-11315,43	896,00
-11288,80	890,00
-11262,23	945,00
-11235,73	842,00
-11209,28	1146,00
-11182,90	990,00
-11156,57	889,00
-11130,31	1097,00
-11104,10	927,00
-11077,96	908,00
-11051,87	887,00
-11025,84	883,00
-10999,87	869,00
-10973,96	920,00
-10948,11	830,00
-10922,31	960,00
-10896,58	1037,00
-10870,90	1039,00
-10845,28	959,00
-10819,71	827,00
-10794,20	1001,00
-10768,75	999,00
-10743,36	950,00
-10718,02	880,00
-10692,74	889,00
-10667,52	869,00
-10642,35	910,00
-10617,24	1051,00
-10592,18	985,00
-10567,18	848,00
-10542,23	972,00
-10517,34	963,00
-10492,51	1033,00
-10467,72	929,00
-10443,00	1003,00
-10418,32	991,00
-10393,70	1029,00
-10369,14	904,00
-10344,63	893,00
-10320,17	952,00
-10295,77	969,00
-10271,42	959,00
-10247,12	992,00
-10222,88	1023,00
-10198,68	889,00
-10174,54	968,00
-10150,46	1109,00
-10126,42	1093,00
-10102,44	1006,00
-10078,51	927,00
-10054,63	1031,00
-10030,80	1081,00
-10007,03	1188,00
-9983,30	1050,00
-9959,63	1087,00
-9936,01	1281,00
-9912,44	1108,00
-9888,92	1135,00
-9865,44	1084,00
-9842,02	1134,00
-9818,65	1199,00
-9795,33	987,00
-9772,06	1152,00
-9748,84	1045,00
-9725,67	1061,00
-9702,55	1198,00
-9679,47	1332,00
-9656,45	1337,00
-9633,47	1208,00
-9610,55	1182,00
-9587,67	1364,00
-9564,84	1599,00
-9542,06	1430,00
-9519,32	1518,00
-9496,64	1597,00
-9474,00	1600,00
-9451,41	1653,00
-9428,87	1523,00
-9406,37	1555,00
-9383,92	1391,00
-9361,52	1380,00
-9339,17	1686,00
-9316,86	1698,00
-9294,60	1856,00
-9272,38	2045,00
-9250,21	2273,00
-9228,09	2247,00
-9206,01	2245,00
-9183,98	2109,00
-9162,00	1742,00
-9140,06	1908,00
-9118,16	1815,00
-9096,31	1802,00
-9074,51	1968,00
-9052,75	2131,00
-9031,04	2012,00
-9009,37	1798,00
-8987,74	1857,00
-8966,16	1612,00
-8944,63	1422,00
-8923,14	1622,00
-8901,69	1525,00
-8880,29	1647,00
-8858,93	1636,00
-8837,61	1932,00
-8816,34	1914,00
-8795,11	1904,00
-8773,92	1749,00
-8752,78	1744,00
-8731,68	1588,00
-8710,62	1836,00
-8689,61	1552,00
-8668,63	1701,00
-8647,70	1952,00
-8626,82	1856,00
-8605,97	1828,00
-8585,17	1799,00
-8564,41	1635,00
-8543,69	1618,00
-8523,01	1477,00
-8502,37	1674,00
-8481,78	1556,00
-8461,23	1419,00
-8440,71	1720,00
-8420,24	1736,00
-8399,81	1925,00
-8379,42	1766,00
-8359,08	1748,00
-8338,77	1628,00
-8318,50	1422,00
-8298,27	1436,00
-8278,09	1516,00
-8257,94	1594,00
-8237,83	1835,00
-8217,76	1793,00
-8197,74	1709,00
-8177,75	1811,00
-8157,80	1525,00
-8137,89	1515,00
-8118,02	1571,00
-8098,19	1630,00
-8078,40	1490,00
-8058,65	1521,00
-8038,93	1714,00
-8019,26	1526,00
-7999,62	1626,00
-7980,02	1564,00
-7960,46	1416,00
-7940,94	1417,00
-7921,46	1380,00
-7902,01	1324,00
-7882,60	1408,00
-7863,23	1366,00
-7843,90	1457,00
-7824,61	1460,00
-7805,35	1581,00
-7786,13	1433,00
-7766,95	1520,00
-7747,80	1578,00
-7728,69	1560,00
-7709,62	1508,00
-7690,59	1581,00
-7671,59	1727,00
-7652,63	1466,00
-7633,70	1514,00
-7614,81	1645,00
-7595,96	1345,00
-7577,15	1452,00
-7558,37	1201,00
-7539,62	1372,00
-7520,91	1384,00
-7502,24	1417,00
-7483,60	1498,00
-7465,00	1390,00
-7446,44	1439,00
-7427,91	1260,00
-7409,41	1164,00
-7390,95	1228,00
-7372,53	1000,00
-7354,14	1292,00
-7335,78	1175,00
-7317,46	1300,00
-7299,18	1173,00
-7280,92	1358,00
-7262,71	1494,00
-7244,52	1541,00
-7226,38	1346,00
-7208,26	1329,00
-7190,18	1365,00
-7172,14	1300,00
-7154,12	1272,00
-7136,15	1280,00
-7118,20	1480,00
-7100,29	1508,00
-7082,41	1445,00
-7064,57	1368,00
-7046,76	1291,00
-7028,98	1105,00
-7011,24	1312,00
-6993,53	999,00
-6975,85	1075,00
-6958,20	1027,00
-6940,59	1063,00
-6923,01	890,00
-6905,46	1160,00
-6887,94	1176,00
-6870,46	240,00
-6853,01	1328,00
-6835,59	1296,00
-6818,21	1109,00
-6800,85	1268,00
-6783,53	1124,00
-6766,24	950,00
-6748,98	1001,00
-6731,76	928,00
-6714,56	940,00
-6697,40	810,00
-6680,26	864,00
-6663,16	947,00
-6646,09	1153,00
-6629,05	1225,00
-6612,05	1119,00
-6595,07	992,00
-6578,13	1203,00
-6561,21	1034,00
-6544,33	974,00
-6527,47	878,00
-6510,65	901,00
-6493,86	786,00
-6477,10	886,00
-6460,36	1018,00
-6443,66	923,00
-6426,99	911,00
-6410,35	856,00
-6393,74	1018,00
-6377,16	923,00
-6360,61	996,00
-6344,09	867,00
-6327,59	846,00
-6311,13	1077,00
-6294,70	1011,00
-6278,29	1036,00
-6261,92	976,00
-6245,58	1183,00
-6229,26	1128,00
-6212,97	1105,00
-6196,72	899,00
-6180,49	963,00
-6164,29	774,00
-6148,12	941,00
-6131,98	955,00
-6115,86	931,00
-6099,78	773,00
-6083,72	761,00
-6067,69	751,00
-6051,69	857,00
-6035,72	932,00
-6019,78	890,00
-6003,87	1071,00
-5987,98	947,00
-5972,12	1034,00
-5956,29	953,00
-5940,49	898,00
-5924,71	1026,00
-5908,96	921,00
-5893,24	873,00
-5877,55	875,00
-5861,89	942,00
-5846,25	730,00
-5830,64	846,00
-5815,05	797,00
-5799,50	826,00
-5783,97	937,00
-5768,47	1002,00
-5752,99	1022,00
-5737,55	963,00
-5722,12	988,00
-5706,73	911,00
-5691,36	1050,00
-5676,02	939,00
-5660,71	826,00
-5645,42	910,00
-5630,16	986,00
-5614,92	939,00
-5599,71	821,00
-5584,53	977,00
-5569,37	839,00
-5554,24	1983,00
-5539,14	895,00
-5524,06	905,00
-5509,01	859,00
-5493,98	901,00
-5478,98	975,00
-5464,00	840,00
-5449,05	812,00
-5434,13	968,00
-5419,23	813,00
-5404,36	833,00
-5389,51	927,00
-5374,69	936,00
-5359,89	929,00
-5345,12	1118,00
-5330,37	1182,00
-5315,65	993,00
-5300,95	1006,00
-5286,28	928,00
-5271,63	813,00
-5257,01	862,00
-5242,41	884,00
-5227,84	774,00
-5213,29	818,00
-5198,76	856,00
-5184,26	915,00
-5169,79	859,00
-5155,33	917,00
-5140,91	938,00
-5126,51	896,00
-5112,13	929,00
-5097,77	894,00
-5083,44	1027,00
-5069,13	841,00
-5054,85	835,00
-5040,59	940,00
-5026,36	1008,00
-5012,15	987,00
-4997,96	935,00
-4983,80	860,00
-4969,66	888,00
-4955,54	900,00
-4941,44	938,00
-4927,37	911,00
-4913,33	988,00
-4899,30	966,00
-4885,30	1049,00
-4871,33	895,00
-4857,37	929,00
-4843,44	900,00
-4829,53	934,00
-4815,65	1025,00
-4801,79	714,00
-4787,95	915,00
-4774,13	839,00
-4760,34	862,00
-4746,56	999,00
-4732,82	820,00
-4719,09	905,00
-4705,38	1066,00
-4691,70	1035,00
-4678,04	1085,00
-4664,41	997,00
-4650,79	1161,00
-4637,20	928,00
-4623,63	909,00
-4610,08	1007,00
-4596,56	923,00
-4583,05	873,00
-4569,57	876,00
-4556,11	1053,00
-4542,67	847,00
-4529,25	782,00
-4515,86	943,00
-4502,49	984,00
-4489,13	1073,00
-4475,80	1087,00
-4462,49	842,00
-4449,21	1041,00
-4435,94	909,00
-4422,70	867,00
-4409,47	829,00
-4396,27	972,00
-4383,09	898,00
-4369,93	913,00
-4356,79	775,00
-4343,67	922,00
-4330,58	1004,00
-4317,50	1001,00
-4304,45	885,00
-4291,41	937,00
-4278,40	1012,00
-4265,41	856,00
-4252,44	888,00
-4239,49	860,00
-4226,55	973,00
-4213,65	956,00
-4200,76	963,00
-4187,89	881,00
-4175,04	812,00
-4162,21	780,00
-4149,40	999,00
-4136,61	875,00
-4123,85	882,00
-4111,10	827,00
-4098,37	940,00
-4085,66	945,00
-4072,98	935,00
-4060,31	940,00
-4047,66	1022,00
-4035,04	1103,00
-4022,43	847,00
-4009,84	949,00
-3997,27	767,00
-3984,72	879,00
-3972,19	964,00
-3959,69	918,00
-3947,20	906,00
-3934,73	895,00
-3922,27	922,00
-3909,84	869,00
-3897,43	914,00
-3885,04	1036,00
-3872,67	934,00
-3860,31	882,00
-3847,98	1083,00
-3835,66	916,00
-3823,36	989,00
-3811,09	886,00
-3798,83	994,00
-3786,59	958,00
-3774,37	1010,00
-3762,17	826,00
-3749,98	913,00
-3737,82	826,00
-3725,67	1178,00
-3713,55	904,00
-3701,44	961,00
-3689,35	871,00
-3677,28	1046,00
-3665,22	889,00
-3653,19	874,00
-3641,17	859,00
-3629,18	948,00
-3617,20	973,00
-3605,24	990,00
-3593,30	1042,00
-3581,37	953,00
-3569,47	1013,00
-3557,58	1009,00
-3545,71	1008,00
-3533,86	981,00
-3522,02	948,00
-3510,21	961,00
-3498,41	1094,00
-3486,63	865,00
-3474,87	937,00
-3463,12	863,00
-3451,40	963,00
-3439,69	917,00
-3428,00	901,00
-3416,33	928,00
-3404,67	849,00
-3393,03	1001,00
-3381,41	1008,00
-3369,81	976,00
-3358,22	973,00
-3346,66	995,00
-3335,10	977,00
-3323,57	916,00
-3312,06	996,00
-3300,56	970,00
-3289,08	844,00
-3277,61	960,00
-3266,16	1008,00
-3254,73	965,00
-3243,32	880,00
-3231,92	875,00
-3220,55	1014,00
-3209,18	1065,00
-3197,84	871,00
-3186,51	878,00
-3175,20	928,00
-3163,90	866,00
-3152,63	970,00
-3141,36	938,00
-3130,12	967,00
-3118,89	952,00
-3107,68	871,00
-3096,49	1010,00
-3085,31	877,00
-3074,15	899,00
-3063,00	996,00
-3051,87	921,00
-3040,76	924,00
-3029,67	1015,00
-3018,59	1110,00
-3007,52	1125,00
-2996,48	946,00
-2985,44	929,00
-2974,43	1057,00
-2963,43	878,00
-2952,45	927,00
-2941,48	915,00
-2930,53	1003,00
-2919,60	834,00
-2908,68	891,00
-2897,78	847,00
-2886,89	1048,00
-2876,02	929,00
-2865,17	933,00
-2854,33	954,00
-2843,50	992,00
-2832,70	995,00
-2821,90	862,00
-2811,13	960,00
-2800,37	1015,00
-2789,62	831,00
-2778,89	940,00
-2768,18	1029,00
-2757,48	922,00
-2746,80	1003,00
-2736,13	891,00
-2725,48	1045,00
-2714,84	866,00
-2704,22	1009,00
-2693,61	951,00
-2683,02	1000,00
-2672,45	1032,00
-2661,89	1028,00
-2651,34	957,00
-2640,81	958,00
-2630,30	1063,00
-2619,80	902,00
-2609,31	1027,00
-2598,84	815,00
-2588,39	874,00
-2577,95	869,00
-2567,52	882,00
-2557,11	893,00
-2546,71	878,00
-2536,33	1086,00
-2525,97	992,00
-2515,62	945,00
-2505,28	952,00
-2494,96	930,00
-2484,65	959,00
-2474,36	1252,00
-2464,08	898,00
-2453,82	1014,00
-2443,57	886,00
-2433,33	759,00
-2423,11	965,00
-2412,91	925,00
-2402,72	902,00
-2392,54	942,00
-2382,38	876,00
-2372,23	1035,00
-2362,09	2008,00
-2351,97	792,00
-2341,87	887,00
-2331,78	1102,00
-2321,70	937,00
-2311,64	908,00
-2301,59	934,00
-2291,55	806,00
-2281,53	965,00
-2271,53	862,00
-2261,53	1079,00
-2251,55	920,00
-2241,59	899,00
-2231,64	911,00
-2221,70	895,00
-2211,78	932,00
-2201,87	1062,00
-2191,97	974,00
-2182,09	906,00
-2172,22	941,00
-2162,37	898,00
-2152,53	778,00
-2142,70	919,00
-2132,89	808,00
-2123,09	971,00
-2113,30	967,00
-2103,53	887,00
-2093,77	1001,00
-2084,02	897,00
-2074,29	999,00
-2064,57	1019,00
-2054,86	1003,00
-2045,17	950,00
-2035,49	976,00
-2025,82	853,00
-2016,17	966,00
-2006,53	940,00
-1996,91	1076,00
-1987,29	817,00
-1977,69	947,00
-1968,11	911,00
-1958,53	888,00
-1948,97	956,00
-1939,42	909,00
-1929,89	948,00
-1920,37	943,00
-1910,86	923,00
-1901,36	926,00
-1891,88	1006,00
-1882,41	942,00
-1872,95	1018,00
-1863,51	956,00
-1854,08	970,00
-1844,66	992,00
-1835,26	1033,00
-1825,86	1031,00
-1816,48	851,00
-1807,11	1004,00
-1797,76	938,00
-1788,42	999,00
-1779,09	946,00
-1769,77	870,00
-1760,47	1145,00
-1751,17	867,00
-1741,89	892,00
-1732,63	960,00
-1723,37	1131,00
-1714,13	1064,00
-1704,90	986,00
-1695,68	1183,00
-1686,48	810,00
-1677,29	867,00
-1668,11	1105,00
-1658,94	980,00
-1649,78	920,00
-1640,64	969,00
-1631,51	898,00
-1622,39	1017,00
-1613,28	902,00
-1604,19	1144,00
-1595,10	917,00
-1586,03	1000,00
-1576,97	927,00
-1567,93	874,00
-1558,89	1013,00
-1549,87	989,00
-1540,86	900,00
-1531,86	876,00
-1522,87	944,00
-1513,90	1018,00
-1504,93	878,00
-1495,98	958,00
-1487,04	1093,00
-1478,12	836,00
-1469,20	949,00
-1460,30	966,00
-1451,40	1098,00
-1442,52	1023,00
-1433,65	1007,00
-1424,80	1004,00
-1415,95	903,00
-1407,12	1163,00
-1398,30	883,00
-1389,48	980,00
-1380,69	928,00
-1371,90	969,00
-1363,12	984,00
-1354,36	1031,00
-1345,60	930,00
-1336,86	976,00
-1328,13	1070,00
-1319,41	924,00
-1310,70	946,00
-1302,01	877,00
-1293,32	982,00
-1284,65	915,00
-1275,99	997,00
-1267,33	1070,00
-1258,69	1010,00
-1250,06	912,00
-1241,45	898,00
-1232,84	1175,00
-1224,25	1024,00
-1215,66	974,00
-1207,09	999,00
-1198,53	834,00
-1189,97	911,00
-1181,43	884,00
-1172,91	1008,00
-1164,39	1136,00
-1155,88	819,00
-1147,38	837,00
-1138,90	922,00
-1130,43	873,00
-1121,96	906,00
-1113,51	922,00
-1105,07	918,00
-1096,64	1016,00
-1088,22	977,00
-1079,81	998,00
-1071,41	1110,00
-1063,02	889,00
-1054,65	1058,00
-1046,28	931,00
-1037,92	1005,00
-1029,58	986,00
-1021,24	942,00
-1012,92	1281,00
-1004,61	983,00
-996,30	1161,00
-988,01	862,00
-979,73	925,00
-971,46	1078,00
-963,20	919,00
-954,95	797,00
-946,71	924,00
-938,48	1011,00
-930,26	1042,00
-922,06	938,00
-913,86	866,00
-905,67	895,00
-897,49	1062,00
-889,33	777,00
-881,17	1040,00
-873,02	1029,00
-864,89	861,00
-856,76	923,00
-848,65	1025,00
-840,54	992,00
-832,45	995,00
-824,36	846,00
-816,29	984,00
-808,22	998,00
-800,17	1007,00
-792,12	1012,00
-784,09	877,00
-776,06	872,00
-768,05	1013,00
-760,04	953,00
-752,05	976,00
-744,07	983,00
-736,09	1032,00
-728,13	809,00
-720,17	887,00
-712,23	897,00
-704,29	895,00
-696,37	961,00
-688,45	973,00
-680,55	882,00
-672,65	910,00
-664,77	909,00
-656,89	1002,00
-649,03	880,00
-641,17	1016,00
-633,32	930,00
-625,49	1016,00
-617,66	915,00
-609,84	935,00
-602,03	914,00
-594,23	976,00
-586,45	978,00
-578,67	902,00
-570,90	957,00
-563,14	865,00
-555,39	974,00
-547,65	995,00
-539,91	937,00
-532,19	965,00
-524,48	1015,00
-516,78	882,00
-509,08	1008,00
-501,40	934,00
-493,72	1039,00
-486,06	950,00
-478,40	1093,00
-470,76	877,00
-463,12	864,00
-455,49	832,00
-447,87	826,00
-440,26	871,00
-432,66	929,00
-425,07	1022,00
-417,49	1052,00
-409,92	799,00
-402,35	888,00
-394,80	762,00
-387,25	962,00
-379,72	981,00
-372,19	1032,00
-364,67	1038,00
-357,17	1022,00
-349,67	960,00
-342,18	947,00
-334,69	1074,00
-327,22	897,00
-319,76	933,00
-312,30	939,00
-304,86	930,00
-297,42	952,00
-290,00	896,00
-282,58	962,00
-275,17	1036,00
-267,77	1026,00
-260,37	969,00
-252,99	1086,00
-245,62	1104,00
-238,25	935,00
-230,90	900,00
-223,55	1100,00
-216,21	1073,00
-208,88	1186,00
-201,56	1074,00
-194,25	1038,00
-186,94	1046,00
-179,65	1190,00
-172,36	1189,00
-165,08	1224,00
-157,81	1249,00
-150,55	1273,00
-143,30	1345,00
-136,06	1310,00
-128,82	1393,00
-121,60	1343,00
-114,38	1514,00
-107,17	1600,00
-99,97	1743,00
-92,78	1778,00
-85,60	1916,00
-78,42	2070,00
-71,25	2131,00
-64,10	2462,00
-56,95	2609,00
-49,81	2940,00
-42,67	3600,00
-35,55	4230,00
-28,43	5215,00
-21,33	8246,00
-14,23	24696,00
-7,14	57498,00
-0,05	57284,00
7,02	57012,00
14,09	57319,00
21,14	21110,00
28,19	9376,00
35,23	6293,00
42,27	5158,00
49,29	4247,00
56,31	3692,00
63,32	3363,00
70,32	2927,00
77,31	2704,00
84,29	2287,00
91,27	2174,00
98,23	2251,00
105,19	2046,00
112,14	2232,00
119,09	2870,00
126,02	4005,00
132,95	4495,00
139,87	4583,00
146,78	4764,00
153,68	4473,00
160,58	4345,00
167,46	4190,00
174,34	4356,00
181,21	4238,00
188,08	4183,00
194,93	4310,00
201,78	4258,00
208,62	4259,00
215,45	4258,00
222,27	4211,00
229,09	4298,00
235,90	4082,00
242,70	4096,00
249,49	4143,00
256,27	3907,00
263,05	3843,00
269,82	3920,00
276,58	3818,00
283,33	3687,00
290,08	3686,00
296,82	3606,00
303,55	3482,00
310,27	3494,00
316,98	3611,00
323,69	3415,00
330,39	3380,00
337,08	3485,00
343,76	3474,00
350,44	3431,00
357,11	3378,00
363,77	3482,00
370,42	3319,00
377,07	3448,00
383,71	3400,00
390,34	3438,00
396,96	3359,00
403,58	3351,00
410,19	3534,00
416,79	3653,00
423,38	3708,00
429,97	3802,00
436,55	3566,00
443,12	3760,00
449,68	3745,00
456,24	3557,00
462,79	3503,00
469,33	3355,00
475,86	3185,00
482,39	3023,00
488,91	3148,00
495,42	3052,00
501,93	3067,00
508,42	2909,00
514,91	2920,00
521,40	2866,00
527,87	3017,00
534,34	2822,00
540,80	2989,00
547,25	2940,00
553,70	2929,00
560,14	2911,00
566,57	3036,00
573,00	2884,00
579,41	2973,00
585,83	3060,00
592,23	3113,00
598,62	3176,00
605,01	3199,00
611,40	3220,00
617,77	3251,00
624,14	3080,00
630,50	3007,00
636,85	2983,00
643,20	2866,00
649,54	2666,00
655,87	2718,00
662,20	2800,00
668,52	2708,00
674,83	2728,00
681,13	2589,00
687,43	2667,00
693,72	2575,00
700,00	2554,00
706,28	2543,00
712,55	2593,00
718,81	2787,00
725,07	2494,00
731,32	2564,00
737,56	2649,00
743,79	2588,00
750,02	2626,00
756,24	2428,00
762,46	2448,00
768,67	2773,00
774,87	2487,00
781,06	2394,00
787,25	2555,00
793,43	2493,00
799,60	2439,00
805,77	2678,00
811,93	2443,00
818,08	2413,00
824,23	2457,00
830,37	2796,00
836,50	2439,00
842,63	2510,00
848,75	2481,00
854,87	2506,00
860,97	2641,00
867,07	2544,00
873,17	2534,00
879,25	2520,00
885,33	2621,00
891,41	2627,00
897,47	2586,00
903,53	2523,00
909,59	2567,00
915,63	2492,00
921,67	2317,00
927,71	2426,00
933,74	2429,00
939,76	2290,00
945,77	2303,00
951,78	2490,00
957,78	2235,00
963,78	2382,00
969,77	2417,00
975,75	2306,00
981,72	2285,00
987,69	3636,00
993,66	2387,00
999,61	2385,00
1005,56	2389,00
1011,51	2387,00
1017,44	2481,00
1023,37	2256,00
1029,30	2393,00
1035,22	2487,00
1041,13	2454,00
1047,03	2763,00
1052,93	3220,00
1058,83	4522,00
1064,71	4960,00
1070,59	4262,00
1076,47	3466,00
1082,33	3144,00
1088,20	3083,00
1094,05	2809,00
1099,90	2545,00
1105,74	2667,00
1111,58	2625,00
1117,41	2903,00
1123,23	3820,00
1129,05	4799,00
1134,86	4314,00
1140,67	3292,00
1146,47	2754,00
1152,26	2641,00
1158,05	2386,00
1163,83	2577,00
1169,60	2638,00
1175,37	2641,00
1181,13	2467,00
1186,89	2264,00
1192,64	2266,00
1198,38	2510,00
1204,12	2124,00
1209,85	2230,00
1215,58	2169,00
1221,30	2297,00
1227,02	2265,00
1232,72	2299,00
1238,43	2192,00
1244,12	2210,00
1249,81	2298,00
1255,50	2534,00
1261,17	2336,00
1266,85	2395,00
1272,51	2512,00
1278,17	2672,00
1283,83	2972,00
1289,47	4473,00
1295,12	5949,00
1300,75	5281,00
1306,38	4148,00
1312,01	3335,00
1317,63	2818,00
1323,24	2729,00
1328,85	2519,00
1334,45	2458,00
1340,04	2370,00
1345,63	2376,00
1351,22	2530,00
1356,80	2388,00
1362,37	2594,00
1367,93	2632,00
1373,49	2598,00
1379,05	2403,00
1384,60	2420,00
1390,14	2392,00
1395,68	2371,00
1401,21	2496,00
1406,74	2700,00
1412,26	3264,00
1417,77	3890,00
1423,28	3712,00
1428,78	4214,00
1434,28	5159,00
1439,77	5986,00
1445,26	5865,00
1450,74	5341,00
1456,22	4990,00
1461,68	4774,00
1467,15	4502,00
1472,61	3830,00
1478,06	3556,00
1483,51	2957,00
1488,95	2500,00
1494,38	2605,00
1499,81	2236,00
1505,24	2236,00
1510,65	2230,00
1516,07	2299,00
1521,48	2138,00
1526,88	2099,00
1532,27	2065,00
1537,67	2056,00
1543,05	2100,00
1548,43	1957,00
1553,81	2024,00
1559,18	1968,00
1564,54	2022,00
1569,90	2004,00
1575,25	1905,00
1580,60	1761,00
1585,94	1948,00
1591,28	1971,00
1596,61	1971,00
1601,93	1885,00
1607,25	1985,00
1612,57	1913,00
1617,88	1929,00
1623,18	1890,00
1628,48	1871,00
1633,77	1868,00
1639,06	1887,00
1644,34	1808,00
1649,62	1700,00
1654,89	1852,00
1660,16	1653,00
1665,42	1844,00
1670,67	1724,00
1675,92	1701,00
1681,17	1797,00
1686,41	1746,00
1691,64	1875,00
1696,87	1802,00
1702,10	1664,00
1707,32	1743,00
1712,53	1698,00
1717,74	1657,00
1722,94	1788,00
1728,14	1684,00
1733,33	1669,00
1738,52	1635,00
1743,70	1684,00
1748,88	1671,00
1754,05	1751,00
1759,22	1580,00
1764,38	890,00
1769,53	1788,00
1774,69	1747,00
1779,83	1561,00
1784,97	1684,00
1790,11	1668,00
1795,24	1568,00
1800,36	1668,00
1805,48	1525,00
1810,60	1687,00
1815,71	1576,00
1820,82	1481,00
1825,92	1663,00
1831,01	1580,00
1836,10	1607,00
1841,19	1546,00
1846,26	1460,00
1851,34	1592,00
1856,41	1612,00
1861,47	1512,00
1866,53	1629,00
1871,59	1580,00
1876,64	1568,00
1881,68	1563,00
1886,72	1582,00
1891,76	1482,00
1896,79	1533,00
1901,81	1447,00
1906,83	1507,00
1911,85	1458,00
1916,86	1557,00
1921,86	1504,00
1926,86	1434,00
1931,86	1552,00
1936,85	1435,00
1941,83	1418,00
1946,81	1451,00
1951,79	1456,00
1956,76	1415,00
1961,72	1284,00
1966,68	1384,00
1971,64	1425,00
1976,59	1512,00
1981,54	1396,00
1986,48	1462,00
1991,42	1232,00
1996,35	1661,00
2001,27	1360,00
2006,20	1312,00
2011,11	1469,00
2016,03	1451,00
2020,93	1305,00
2025,84	1390,00
2030,73	1327,00
2035,63	1313,00
2040,52	1335,00
2045,40	1327,00
2050,28	1348,00
2055,15	1373,00
2060,02	1282,00
2064,89	1416,00
2069,75	1444,00
2074,60	1372,00
2079,46	1190,00
2084,30	1337,00
2089,14	1233,00
2093,98	1400,00
2098,81	1312,00
2103,64	1331,00
2108,46	1424,00
2113,28	1375,00
2118,09	1382,00
2122,90	1310,00
2127,70	1414,00
2132,50	1305,00
2137,30	1292,00
2142,09	1220,00
2146,87	1289,00
2151,66	1336,00
2156,43	1269,00
2161,20	1280,00
2165,97	1489,00
2170,73	1300,00
2175,49	1439,00
2180,24	1425,00
2184,99	1456,00
2189,74	1489,00
2194,48	1437,00
2199,21	1417,00
2203,94	1289,00
2208,67	1248,00
2213,39	1167,00
2218,11	1348,00
2222,82	1327,00
2227,53	1307,00
2232,23	1386,00
2236,93	1439,00
2241,63	1235,00
2246,32	1444,00
2251,00	1286,00
2255,68	1307,00
2260,36	1275,00
2265,03	1315,00
2269,70	1380,00
2274,36	1174,00
2279,02	1330,00
2283,68	1200,00
2288,33	1292,00
2292,97	1342,00
2297,61	1252,00
2302,25	1363,00
2306,88	1171,00
2311,51	1213,00
2316,14	1263,00
2320,75	1159,00
2325,37	1177,00
2329,98	1294,00
2334,59	1216,00
2339,19	1185,00
2343,79	1178,00
2348,38	1267,00
2352,97	1125,00
2357,55	1298,00
2362,13	1174,00
2366,71	1186,00
2371,28	1319,00
2375,85	1228,00
2380,41	1308,00
2384,97	1127,00
2389,52	1275,00
2394,07	1237,00
2398,62	1227,00
2403,16	1332,00
2407,70	1066,00
2412,23	1163,00
2416,76	1273,00
2421,29	1226,00
2425,81	1303,00
2430,32	1361,00
2434,84	1086,00
2439,34	1240,00
2443,85	1380,00
2448,35	1175,00
2452,84	1209,00
2457,33	1167,00
2461,82	1051,00
2466,30	1196,00
2470,78	1173,00
2475,25	1188,00
2479,72	1214,00
2484,19	1324,00
2488,65	1237,00
2493,11	1154,00
2497,56	1327,00
2502,01	1024,00
2506,46	1200,00
2510,90	1111,00
2515,34	1101,00
2519,77	1194,00
2524,20	1183,00
2528,62	1219,00
2533,04	1205,00
2537,46	1175,00
2541,87	1196,00
2546,28	1223,00
2550,68	1237,00
2555,08	1271,00
2559,48	1202,00
2563,87	1092,00
2568,26	1139,00
2572,64	1250,00
2577,02	1233,00
2581,40	1161,00
2585,77	1225,00
2590,14	1212,00
2594,50	1137,00
2598,86	1228,00
2603,22	1269,00
2607,57	1243,00
2611,92	1194,00
2616,26	1396,00
2620,60	1364,00
2624,94	1208,00
2629,27	1294,00
2633,60	1182,00
2637,92	1330,00
2642,24	1394,00
2646,56	1292,00
2650,87	1077,00
2655,18	1356,00
2659,48	1197,00
2663,78	1184,00
2668,08	1239,00
2672,37	1307,00
2676,66	1319,00
2680,95	1238,00
2685,23	1385,00
2689,50	1342,00
2693,78	1322,00
2698,05	1251,00
2702,31	1351,00
2706,57	1421,00
2710,83	1570,00
2715,08	1628,00
2719,33	1717,00
2723,58	1651,00
2727,82	1622,00
2732,06	1589,00
2736,29	1527,00
2740,53	1492,00
2744,75	1432,00
2748,97	1403,00
2753,19	1345,00
2757,41	1389,00
2761,62	1425,00
2765,83	1411,00
2770,03	1298,00
2774,23	1473,00
2778,43	1311,00
2782,62	1453,00
2786,81	1470,00
2791,00	1437,00
2795,18	1502,00
2799,35	1601,00
2803,53	1583,00
2807,70	1603,00
2811,86	1632,00
2816,03	1825,00
2820,19	1797,00
2824,34	1926,00
2828,49	2044,00
2832,64	2328,00
2836,78	2834,00
2840,92	3088,00
2845,06	3871,00
2849,19	4336,00
2853,32	4374,00
2857,45	4413,00
2861,57	4298,00
2865,69	4236,00
2869,80	4066,00
2873,91	4285,00
2878,02	4634,00
2882,12	5059,00
2886,22	5079,00
2890,32	4823,00
2894,41	4532,00
2898,50	4094,00
2902,58	3895,00
2906,67	3714,00
2910,74	3279,00
2914,82	3093,00
2918,89	2994,00
2922,96	2736,00
2927,02	2588,00
2931,08	2443,00
2935,13	2334,00
2939,19	2373,00
2943,24	2087,00
2947,28	2026,00
2951,32	1782,00
2955,36	1761,00
2959,40	1819,00
2963,43	1652,00
2967,46	1522,00
2971,48	1512,00
2975,50	1460,00
2979,52	1430,00
2983,53	1399,00
2987,54	1348,00
2991,55	1398,00
2995,55	1336,00
2999,55	1178,00
3003,54	1157,00
3007,54	1272,00
3011,53	1211,00
3015,51	1253,00
3019,49	1263,00
3023,47	1069,00
3027,45	1215,00
3031,42	1130,00
3035,39	993,00
3039,35	1149,00
3043,31	1163,00
3047,27	1092,00
3051,22	1182,00
3055,17	1082,00
3059,12	1097,00
3063,06	1071,00
3067,00	980,00
3070,94	992,00
3074,87	1151,00
3078,80	1025,00
3082,73	1072,00
3086,65	980,00
3090,57	1013,00
3094,49	1024,00
3098,40	936,00
3102,31	1003,00
3106,22	1034,00
3110,12	1013,00
3114,02	929,00
3117,92	1056,00
3121,81	957,00
3125,70	1019,00
3129,58	1018,00
3133,47	825,00
3137,34	1063,00
3141,22	1102,00
3145,09	1008,00
3148,96	1009,00
3152,83	1022,00
3156,69	1001,00
3160,55	979,00
3164,40	1081,00
3168,26	948,00
3172,10	1073,00
3175,95	1110,00
3179,79	1044,00
3183,63	1054,00
3187,47	1060,00
3191,30	1013,00
3195,13	1048,00
3198,95	897,00
3202,78	1029,00
3206,60	850,00
3210,41	860,00
3214,23	956,00
3218,03	948,00
3221,84	990,00
3225,64	1002,00
3229,44	887,00
3233,24	1002,00
3237,03	1011,00
3240,82	908,00
3244,61	954,00
3248,39	931,00
3252,17	1014,00
3255,95	1161,00
3259,72	975,00
3263,49	1103,00
3267,26	930,00
3271,03	988,00
3274,79	910,00
3278,54	999,00
3282,30	852,00
3286,05	1038,00
3289,80	958,00
3293,54	945,00
3297,29	1011,00
3301,02	963,00
3304,76	940,00
3308,49	992,00
3312,22	876,00
3315,95	1012,00
3319,67	956,00
3323,39	1096,00
3327,10	988,00
3330,82	950,00
3334,53	899,00
3338,24	938,00
3341,94	845,00
3345,64	985,00
3349,34	907,00
3353,03	934,00
3356,72	938,00
3360,41	1053,00
3364,10	888,00
3367,78	940,00
3371,46	832,00
3375,13	965,00
3378,81	989,00
3382,48	911,00
3386,14	1051,00
3389,81	937,00
3393,47	980,00
3397,12	1068,00
3400,78	932,00
3404,43	930,00
3408,08	994,00
3411,72	891,00
3415,36	933,00
3419,00	924,00
3422,64	1001,00
3426,27	987,00
3429,90	988,00
3433,53	882,00
3437,15	911,00
3440,77	828,00
3444,39	860,00
3448,00	917,00
3451,62	918,00
3455,22	953,00
3458,83	824,00
3462,43	964,00
3466,03	953,00
3469,63	797,00
3473,22	896,00
3476,81	874,00
3480,40	977,00
3483,99	876,00
3487,57	1085,00
3491,15	924,00
3494,72	957,00
3498,29	1036,00
3501,86	863,00
3505,43	919,00
3508,99	938,00
3512,56	755,00
3516,11	1013,00
3519,67	918,00
3523,22	1001,00
3526,77	869,00
3530,32	1046,00
3533,86	930,00
3537,40	1054,00
3540,94	987,00
3544,47	903,00
3548,00	893,00
3551,53	902,00
3555,06	918,00
3558,58	990,00
3562,10	966,00
3565,62	831,00
3569,13	955,00
3572,64	1032,00
3576,15	837,00
3579,66	851,00
3583,16	914,00
3586,66	970,00
3590,16	884,00
3593,65	839,00
3597,14	845,00
3600,63	831,00
3604,11	885,00
3607,60	909,00
3611,08	905,00
3614,55	934,00
3618,03	811,00
3621,50	876,00
3624,97	833,00
3628,43	821,00
3631,90	898,00
3635,36	805,00
3638,81	854,00
3642,27	896,00
3645,72	845,00
3649,17	842,00
3652,61	874,00
3656,06	819,00
3659,50	924,00
3662,93	825,00
3666,37	921,00
3669,80	1011,00
3673,23	917,00
3676,65	855,00
3680,08	1021,00
3683,50	784,00
3686,92	808,00
3690,33	901,00
3693,74	772,00
3697,15	776,00
3700,56	962,00
3703,96	844,00
3707,36	729,00
3710,76	787,00
3714,16	745,00
3717,55	806,00
3720,94	797,00
3724,33	830,00
3727,71	895,00
3731,10	858,00
3734,48	799,00
3737,85	719,00
3741,23	780,00
3744,60	764,00
3747,97	698,00
3751,33	928,00
3754,69	778,00
3758,05	788,00
3761,41	764,00
3764,77	783,00
3768,12	768,00
3771,47	722,00
3774,82	740,00
3778,16	-7,00
3781,50	18,00
3784,84	5,00
3788,18	13,00
>>>>>End Processed Spectral Data<<<<<
