SpectraSuite Data File
++++++++++++++++++++++++++++++++++++
Date: Mon Jan 05 16:33:13 ICT 2026
User: Administrator
Dark Spectrum Present: Yes
Reference Spectrum Present: No
Number of Sampled Component Spectra: 1
Spectrometers: MAYP113682
Integration Time (usec): 3000000 (MAYP113682)
Spectra Averaged: 1 (MAYP113682)
Boxcar Smoothing: 0 (MAYP113682)
Correct for Electrical Dark: No (MAYP113682)
Strobe/Lamp Enabled: No (MAYP113682)
Correct for Detector Non-linearity: No (MAYP113682)
Correct for Stray Light: No (MAYP113682)
Number of Pixels in Processed Spectrum: 2068
>>>>>Begin Processed Spectral Data<<<<<
-37534,58	28,00
-37414,56	5,00
-37295,11	4,00
-37176,24	4,00
-37057,95	515,00
-36940,22	623,00
-36823,05	666,00
-36706,45	734,00
-36590,40	728,00
-36474,90	737,00
-36359,95	690,00
-36245,55	759,00
-36131,68	756,00
-36018,35	731,00
-35905,55	807,00
-35793,29	802,00
-35681,54	738,00
-35570,32	711,00
-35459,62	775,00
-35349,43	891,00
-35239,75	895,00
-35130,58	743,00
-35021,91	796,00
-34913,74	855,00
-34806,07	798,00
-34698,89	841,00
-34592,20	819,00
-34486,00	753,00
-34380,28	831,00
-34275,04	796,00
-34170,27	744,00
-34065,98	918,00
-33962,16	808,00
-33858,81	879,00
-33755,92	800,00
-33653,49	970,00
-33551,52	888,00
-33450,01	883,00
-33348,94	888,00
-33248,33	789,00
-33148,16	892,00
-33048,43	802,00
-32949,14	966,00
-32850,29	905,00
-32751,87	864,00
-32653,89	979,00
-32556,33	869,00
-32459,20	820,00
-32362,49	863,00
-32266,19	865,00
-32170,32	772,00
-32074,86	868,00
-31979,82	886,00
-31885,18	984,00
-31790,95	904,00
-31697,12	984,00
-31603,69	933,00
-31510,67	907,00
-31418,04	859,00
-31325,80	823,00
-31233,95	801,00
-31142,49	907,00
-31051,42	795,00
-30960,73	1014,00
-30870,43	951,00
-30780,50	931,00
-30690,95	854,00
-30601,77	959,00
-30512,97	892,00
-30424,53	962,00
-30336,46	844,00
-30248,76	879,00
-30161,42	946,00
-30074,44	856,00
-29987,81	976,00
-29901,55	966,00
-29815,63	833,00
-29730,07	947,00
-29644,86	915,00
-29560,00	955,00
-29475,48	916,00
-29391,30	911,00
-29307,47	808,00
-29223,97	869,00
-29140,81	839,00
-29057,99	981,00
-28975,50	694,00
-28893,34	976,00
-28811,51	766,00
-28730,00	1007,00
-28648,82	869,00
-28567,97	1008,00
-28487,43	886,00
-28407,21	877,00
-28327,32	744,00
-28247,73	1044,00
-28168,46	787,00
-28089,50	922,00
-28010,85	864,00
-27932,51	817,00
-27854,48	833,00
-27776,75	862,00
-27699,32	883,00
-27622,19	901,00
-27545,37	919,00
-27468,84	944,00
-27392,60	910,00
-27316,66	958,00
-27241,01	839,00
-27165,66	777,00
-27090,59	745,00
-27015,81	963,00
-26941,31	936,00
-26867,10	828,00
-26793,17	1019,00
-26719,52	919,00
-26646,15	830,00
-26573,06	829,00
-26500,24	893,00
-26427,70	888,00
-26355,43	816,00
-26283,43	900,00
-26211,71	915,00
-26140,25	1022,00
-26069,06	1008,00
-25998,13	760,00
-25927,46	868,00
-25857,06	793,00
-25786,92	926,00
-25717,04	814,00
-25647,42	959,00
-25578,05	745,00
-25508,94	819,00
-25440,09	838,00
-25371,48	836,00
-25303,13	895,00
-25235,02	880,00
-25167,17	830,00
-25099,56	902,00
-25032,19	831,00
-24965,07	823,00
-24898,20	717,00
-24831,56	845,00
-24765,17	886,00
-24699,01	814,00
-24633,10	903,00
-24567,41	889,00
-24501,97	834,00
-24436,75	837,00
-24371,77	814,00
-24307,03	834,00
-24242,51	809,00
-24178,22	860,00
-24114,16	821,00
-24050,32	923,00
-23986,71	886,00
-23923,32	902,00
-23860,16	901,00
-23797,22	915,00
-23734,50	897,00
-23672,00	878,00
-23609,71	875,00
-23547,65	820,00
-23485,80	887,00
-23424,16	714,00
-23362,74	1002,00
-23301,53	840,00
-23240,54	733,00
-23179,75	788,00
-23119,17	803,00
-23058,80	872,00
-22998,64	909,00
-22938,68	821,00
-22878,93	899,00
-22819,39	842,00
-22760,04	872,00
-22700,90	905,00
-22641,96	840,00
-22583,22	838,00
-22524,68	829,00
-22466,33	841,00
-22408,19	835,00
-22350,23	839,00
-22292,48	813,00
-22234,92	1007,00
-22177,55	969,00
-22120,37	1023,00
-22063,38	759,00
-22006,58	908,00
-21949,98	773,00
-21893,56	708,00
-21837,33	927,00
-21781,28	858,00
-21725,42	838,00
-21669,74	913,00
-21614,25	829,00
-21558,94	784,00
-21503,81	1006,00
-21448,86	902,00
-21394,10	764,00
-21339,51	775,00
-21285,10	801,00
-21230,86	779,00
-21176,81	803,00
-21122,93	811,00
-21069,22	747,00
-21015,69	847,00
-20962,33	886,00
-20909,14	780,00
-20856,13	876,00
-20803,28	846,00
-20750,61	818,00
-20698,10	720,00
-20645,76	830,00
-20593,59	860,00
-20541,59	953,00
-20489,75	877,00
-20438,07	780,00
-20386,56	888,00
-20335,22	810,00
-20284,03	824,00
-20233,01	813,00
-20182,15	775,00
-20131,45	834,00
-20080,91	746,00
-20030,52	859,00
-19980,30	814,00
-19930,23	734,00
-19880,32	860,00
-19830,56	846,00
-19780,96	911,00
-19731,52	832,00
-19682,23	912,00
-19633,09	775,00
-19584,10	744,00
-19535,26	845,00
-19486,58	964,00
-19438,04	783,00
-19389,66	1020,00
-19341,42	724,00
-19293,33	862,00
-19245,39	899,00
-19197,60	949,00
-19149,95	865,00
-19102,45	896,00
-19055,09	744,00
-19007,87	799,00
-18960,80	886,00
-18913,87	814,00
-18867,09	829,00
-18820,44	939,00
-18773,94	816,00
-18727,57	873,00
-18681,35	733,00
-18635,26	807,00
-18589,31	734,00
-18543,50	837,00
-18497,83	813,00
-18452,29	787,00
-18406,89	707,00
-18361,63	870,00
-18316,50	817,00
-18271,50	855,00
-18226,63	954,00
-18181,90	912,00
-18137,30	885,00
-18092,84	828,00
-18048,50	873,00
-18004,29	873,00
-17960,22	768,00
-17916,27	778,00
-17872,45	809,00
-17828,76	963,00
-17785,20	800,00
-17741,77	810,00
-17698,46	897,00
-17655,28	812,00
-17612,22	876,00
-17569,29	759,00
-17526,48	907,00
-17483,79	985,00
-17441,23	800,00
-17398,79	821,00
-17356,48	746,00
-17314,28	990,00
-17272,21	893,00
-17230,26	860,00
-17188,42	851,00
-17146,71	957,00
-17105,12	789,00
-17063,64	827,00
-17022,28	735,00
-16981,04	775,00
-16939,92	904,00
-16898,91	1027,00
-16858,02	780,00
-16817,25	855,00
-16776,59	837,00
-16736,04	790,00
-16695,61	853,00
-16655,29	688,00
-16615,09	819,00
-16574,99	761,00
-16535,01	875,00
-16495,15	920,00
-16455,39	832,00
-16415,74	802,00
-16376,21	798,00
-16336,78	797,00
-16297,46	818,00
-16258,26	709,00
-16219,16	896,00
-16180,17	875,00
-16141,28	849,00
-16102,51	885,00
-16063,84	781,00
-16025,27	940,00
-15986,82	751,00
-15948,46	856,00
-15910,22	864,00
-15872,07	805,00
-15834,04	923,00
-15796,10	814,00
-15758,27	1082,00
-15720,54	830,00
-15682,91	839,00
-15645,39	1021,00
-15607,97	902,00
-15570,64	800,00
-15533,42	928,00
-15496,30	910,00
-15459,28	929,00
-15422,36	857,00
-15385,54	769,00
-15348,82	884,00
-15312,19	908,00
-15275,66	764,00
-15239,23	878,00
-15202,90	798,00
-15166,67	870,00
-15130,53	997,00
-15094,48	871,00
-15058,54	861,00
-15022,68	793,00
-14986,93	784,00
-14951,26	843,00
-14915,69	899,00
-14880,22	801,00
-14844,84	831,00
-14809,55	920,00
-14774,35	836,00
-14739,25	774,00
-14704,24	885,00
-14669,32	838,00
-14634,49	825,00
-14599,75	878,00
-14565,10	814,00
-14530,55	877,00
-14496,08	827,00
-14461,70	945,00
-14427,41	737,00
-14393,21	694,00
-14359,10	790,00
-14325,07	849,00
-14291,14	827,00
-14257,29	815,00
-14223,52	826,00
-14189,85	1041,00
-14156,26	839,00
-14122,76	747,00
-14089,34	763,00
-14056,01	902,00
-14022,76	788,00
-13989,60	887,00
-13956,52	918,00
-13923,53	828,00
-13890,62	789,00
-13857,79	795,00
-13825,05	817,00
-13792,39	789,00
-13759,81	864,00
-13727,31	839,00
-13694,90	821,00
-13662,57	887,00
-13630,31	977,00
-13598,14	891,00
-13566,05	829,00
-13534,05	808,00
-13502,12	868,00
-13470,27	798,00
-13438,50	870,00
-13406,80	759,00
-13375,19	773,00
-13343,66	916,00
-13312,20	852,00
-13280,83	776,00
-13249,53	890,00
-13218,30	672,00
-13187,16	790,00
-13156,09	1008,00
-13125,10	900,00
-13094,18	886,00
-13063,34	913,00
-13032,58	749,00
-13001,89	814,00
-12971,28	897,00
-12940,74	833,00
-12910,27	866,00
-12879,88	815,00
-12849,57	886,00
-12819,33	917,00
-12789,16	844,00
-12759,06	936,00
-12729,04	877,00
-12699,09	2288,00
-12669,21	849,00
-12639,41	858,00
-12609,68	748,00
-12580,02	871,00
-12550,43	873,00
-12520,91	688,00
-12491,46	794,00
-12462,08	773,00
-12432,77	827,00
-12403,54	786,00
-12374,37	697,00
-12345,27	932,00
-12316,24	888,00
-12287,29	798,00
-12258,40	800,00
-12229,57	939,00
-12200,82	768,00
-12172,14	919,00
-12143,52	675,00
-12114,97	748,00
-12086,49	904,00
-12058,07	901,00
-12029,73	856,00
-12001,44	882,00
-11973,23	876,00
-11945,08	873,00
-11917,00	821,00
-11888,98	834,00
-11861,03	965,00
-11833,15	833,00
-11805,32	916,00
-11777,57	822,00
-11749,88	916,00
-11722,25	838,00
-11694,69	771,00
-11667,19	855,00
-11639,75	883,00
-11612,38	811,00
-11585,07	811,00
-11557,83	926,00
-11530,65	1024,00
-11503,53	827,00
-11476,47	881,00
-11449,48	828,00
-11422,54	959,00
-11395,67	836,00
-11368,86	934,00
-11342,11	853,00
-11315,43	839,00
-11288,80	746,00
-11262,23	875,00
-11235,73	846,00
-11209,28	1022,00
-11182,90	787,00
-11156,57	770,00
-11130,31	954,00
-11104,10	857,00
-11077,96	866,00
-11051,87	887,00
-11025,84	795,00
-10999,87	823,00
-10973,96	818,00
-10948,11	838,00
-10922,31	907,00
-10896,58	769,00
-10870,90	1025,00
-10845,28	883,00
-10819,71	805,00
-10794,20	885,00
-10768,75	1017,00
-10743,36	938,00
-10718,02	831,00
-10692,74	887,00
-10667,52	895,00
-10642,35	872,00
-10617,24	928,00
-10592,18	896,00
-10567,18	844,00
-10542,23	937,00
-10517,34	916,00
-10492,51	927,00
-10467,72	920,00
-10443,00	924,00
-10418,32	998,00
-10393,70	980,00
-10369,14	920,00
-10344,63	805,00
-10320,17	994,00
-10295,77	990,00
-10271,42	974,00
-10247,12	1009,00
-10222,88	1043,00
-10198,68	966,00
-10174,54	1022,00
-10150,46	1105,00
-10126,42	1114,00
-10102,44	974,00
-10078,51	990,00
-10054,63	1198,00
-10030,80	1153,00
-10007,03	1231,00
-9983,30	1100,00
-9959,63	1164,00
-9936,01	1310,00
-9912,44	1224,00
-9888,92	1277,00
-9865,44	1094,00
-9842,02	1265,00
-9818,65	1345,00
-9795,33	1169,00
-9772,06	1308,00
-9748,84	1192,00
-9725,67	1233,00
-9702,55	1420,00
-9679,47	1611,00
-9656,45	1622,00
-9633,47	1597,00
-9610,55	1644,00
-9587,67	1763,00
-9564,84	1794,00
-9542,06	1944,00
-9519,32	2226,00
-9496,64	2297,00
-9474,00	2242,00
-9451,41	2293,00
-9428,87	2293,00
-9406,37	2306,00
-9383,92	2163,00
-9361,52	2055,00
-9339,17	2306,00
-9316,86	2514,00
-9294,60	2912,00
-9272,38	3129,00
-9250,21	3394,00
-9228,09	3447,00
-9206,01	3448,00
-9183,98	3211,00
-9162,00	2894,00
-9140,06	2969,00
-9118,16	2677,00
-9096,31	2973,00
-9074,51	3054,00
-9052,75	3252,00
-9031,04	3184,00
-9009,37	2898,00
-8987,74	2667,00
-8966,16	2440,00
-8944,63	2251,00
-8923,14	2259,00
-8901,69	2254,00
-8880,29	2341,00
-8858,93	2596,00
-8837,61	2835,00
-8816,34	3004,00
-8795,11	2919,00
-8773,92	2651,00
-8752,78	2506,00
-8731,68	2349,00
-8710,62	2529,00
-8689,61	2386,00
-8668,63	2477,00
-8647,70	2879,00
-8626,82	2637,00
-8605,97	2839,00
-8585,17	2555,00
-8564,41	2305,00
-8543,69	2211,00
-8523,01	2099,00
-8502,37	2426,00
-8481,78	2241,00
-8461,23	2441,00
-8440,71	2587,00
-8420,24	2670,00
-8399,81	2913,00
-8379,42	2708,00
-8359,08	2587,00
-8338,77	2362,00
-8318,50	2198,00
-8298,27	2256,00
-8278,09	2338,00
-8257,94	2364,00
-8237,83	2581,00
-8217,76	2560,00
-8197,74	2567,00
-8177,75	2638,00
-8157,80	2308,00
-8137,89	2255,00
-8118,02	2092,00
-8098,19	2166,00
-8078,40	2141,00
-8058,65	2172,00
-8038,93	2225,00
-8019,26	2215,00
-7999,62	2258,00
-7980,02	2038,00
-7960,46	1928,00
-7940,94	1968,00
-7921,46	1936,00
-7902,01	1849,00
-7882,60	2004,00
-7863,23	1909,00
-7843,90	1969,00
-7824,61	2063,00
-7805,35	2187,00
-7786,13	2167,00
-7766,95	2157,00
-7747,80	2144,00
-7728,69	2086,00
-7709,62	1987,00
-7690,59	2039,00
-7671,59	2240,00
-7652,63	2210,00
-7633,70	2210,00
-7614,81	2121,00
-7595,96	1954,00
-7577,15	1881,00
-7558,37	1810,00
-7539,62	1965,00
-7520,91	1965,00
-7502,24	1993,00
-7483,60	2173,00
-7465,00	1940,00
-7446,44	1822,00
-7427,91	1518,00
-7409,41	1634,00
-7390,95	1586,00
-7372,53	1432,00
-7354,14	1479,00
-7335,78	1474,00
-7317,46	1552,00
-7299,18	1512,00
-7280,92	1641,00
-7262,71	2031,00
-7244,52	2061,00
-7226,38	1980,00
-7208,26	1833,00
-7190,18	1706,00
-7172,14	1708,00
-7154,12	1787,00
-7136,15	1743,00
-7118,20	1965,00
-7100,29	1937,00
-7082,41	1910,00
-7064,57	1786,00
-7046,76	1801,00
-7028,98	1529,00
-7011,24	1652,00
-6993,53	1366,00
-6975,85	1300,00
-6958,20	1326,00
-6940,59	1250,00
-6923,01	1216,00
-6905,46	1509,00
-6887,94	1478,00
-6870,46	1955,00
-6853,01	1771,00
-6835,59	1816,00
-6818,21	1608,00
-6800,85	1615,00
-6783,53	1353,00
-6766,24	1080,00
-6748,98	1127,00
-6731,76	1168,00
-6714,56	1099,00
-6697,40	1044,00
-6680,26	1046,00
-6663,16	1249,00
-6646,09	1496,00
-6629,05	1455,00
-6612,05	1502,00
-6595,07	1439,00
-6578,13	1494,00
-6561,21	1308,00
-6544,33	1237,00
-6527,47	1045,00
-6510,65	1022,00
-6493,86	888,00
-6477,10	1018,00
-6460,36	1137,00
-6443,66	983,00
-6426,99	1007,00
-6410,35	1001,00
-6393,74	1134,00
-6377,16	1107,00
-6360,61	1210,00
-6344,09	1069,00
-6327,59	1187,00
-6311,13	1373,00
-6294,70	1263,00
-6278,29	1303,00
-6261,92	1384,00
-6245,58	1544,00
-6229,26	1604,00
-6212,97	1435,00
-6196,72	1178,00
-6180,49	1211,00
-6164,29	936,00
-6148,12	1046,00
-6131,98	1068,00
-6115,86	891,00
-6099,78	847,00
-6083,72	801,00
-6067,69	839,00
-6051,69	837,00
-6035,72	923,00
-6019,78	1017,00
-6003,87	1254,00
-5987,98	1175,00
-5972,12	1206,00
-5956,29	1169,00
-5940,49	1083,00
-5924,71	1276,00
-5908,96	883,00
-5893,24	1030,00
-5877,55	964,00
-5861,89	1001,00
-5846,25	746,00
-5830,64	1024,00
-5815,05	874,00
-5799,50	1030,00
-5783,97	981,00
-5768,47	1080,00
-5752,99	1288,00
-5737,55	1058,00
-5722,12	1196,00
-5706,73	1166,00
-5691,36	1232,00
-5676,02	1103,00
-5660,71	960,00
-5645,42	944,00
-5630,16	1013,00
-5614,92	1075,00
-5599,71	977,00
-5584,53	1156,00
-5569,37	972,00
-5554,24	1299,00
-5539,14	997,00
-5524,06	1086,00
-5509,01	1042,00
-5493,98	1011,00
-5478,98	1065,00
-5464,00	1040,00
-5449,05	971,00
-5434,13	1011,00
-5419,23	929,00
-5404,36	914,00
-5389,51	980,00
-5374,69	1114,00
-5359,89	1293,00
-5345,12	1405,00
-5330,37	1360,00
-5315,65	1112,00
-5300,95	1101,00
-5286,28	1018,00
-5271,63	866,00
-5257,01	1127,00
-5242,41	921,00
-5227,84	871,00
-5213,29	1026,00
-5198,76	808,00
-5184,26	981,00
-5169,79	910,00
-5155,33	986,00
-5140,91	1011,00
-5126,51	1072,00
-5112,13	1120,00
-5097,77	1085,00
-5083,44	1085,00
-5069,13	885,00
-5054,85	971,00
-5040,59	1094,00
-5026,36	1060,00
-5012,15	1208,00
-4997,96	1079,00
-4983,80	1001,00
-4969,66	911,00
-4955,54	859,00
-4941,44	1088,00
-4927,37	1072,00
-4913,33	1256,00
-4899,30	1193,00
-4885,30	1209,00
-4871,33	970,00
-4857,37	1002,00
-4843,44	917,00
-4829,53	993,00
-4815,65	1063,00
-4801,79	844,00
-4787,95	1105,00
-4774,13	970,00
-4760,34	924,00
-4746,56	1041,00
-4732,82	807,00
-4719,09	1063,00
-4705,38	1180,00
-4691,70	1207,00
-4678,04	1242,00
-4664,41	1140,00
-4650,79	1150,00
-4637,20	907,00
-4623,63	966,00
-4610,08	1058,00
-4596,56	967,00
-4583,05	981,00
-4569,57	954,00
-4556,11	1080,00
-4542,67	887,00
-4529,25	875,00
-4515,86	966,00
-4502,49	1115,00
-4489,13	1157,00
-4475,80	1145,00
-4462,49	846,00
-4449,21	985,00
-4435,94	912,00
-4422,70	828,00
-4409,47	889,00
-4396,27	1016,00
-4383,09	847,00
-4369,93	935,00
-4356,79	772,00
-4343,67	902,00
-4330,58	936,00
-4317,50	1031,00
-4304,45	1004,00
-4291,41	953,00
-4278,40	940,00
-4265,41	802,00
-4252,44	874,00
-4239,49	868,00
-4226,55	1028,00
-4213,65	943,00
-4200,76	947,00
-4187,89	835,00
-4175,04	856,00
-4162,21	802,00
-4149,40	890,00
-4136,61	853,00
-4123,85	841,00
-4111,10	791,00
-4098,37	898,00
-4085,66	925,00
-4072,98	933,00
-4060,31	849,00
-4047,66	1023,00
-4035,04	1057,00
-4022,43	864,00
-4009,84	886,00
-3997,27	751,00
-3984,72	903,00
-3972,19	945,00
-3959,69	895,00
-3947,20	818,00
-3934,73	776,00
-3922,27	802,00
-3909,84	771,00
-3897,43	941,00
-3885,04	896,00
-3872,67	877,00
-3860,31	780,00
-3847,98	914,00
-3835,66	813,00
-3823,36	852,00
-3811,09	834,00
-3798,83	916,00
-3786,59	897,00
-3774,37	973,00
-3762,17	801,00
-3749,98	880,00
-3737,82	831,00
-3725,67	1106,00
-3713,55	785,00
-3701,44	913,00
-3689,35	878,00
-3677,28	978,00
-3665,22	843,00
-3653,19	817,00
-3641,17	867,00
-3629,18	858,00
-3617,20	863,00
-3605,24	882,00
-3593,30	907,00
-3581,37	932,00
-3569,47	945,00
-3557,58	854,00
-3545,71	869,00
-3533,86	887,00
-3522,02	877,00
-3510,21	886,00
-3498,41	890,00
-3486,63	846,00
-3474,87	826,00
-3463,12	870,00
-3451,40	864,00
-3439,69	870,00
-3428,00	804,00
-3416,33	898,00
-3404,67	784,00
-3393,03	957,00
-3381,41	923,00
-3369,81	924,00
-3358,22	839,00
-3346,66	938,00
-3335,10	953,00
-3323,57	785,00
-3312,06	930,00
-3300,56	923,00
-3289,08	834,00
-3277,61	849,00
-3266,16	953,00
-3254,73	801,00
-3243,32	883,00
-3231,92	741,00
-3220,55	954,00
-3209,18	991,00
-3197,84	811,00
-3186,51	815,00
-3175,20	828,00
-3163,90	812,00
-3152,63	956,00
-3141,36	809,00
-3130,12	912,00
-3118,89	915,00
-3107,68	839,00
-3096,49	926,00
-3085,31	850,00
-3074,15	908,00
-3063,00	838,00
-3051,87	855,00
-3040,76	820,00
-3029,67	1048,00
-3018,59	965,00
-3007,52	1044,00
-2996,48	871,00
-2985,44	886,00
-2974,43	824,00
-2963,43	818,00
-2952,45	870,00
-2941,48	909,00
-2930,53	890,00
-2919,60	810,00
-2908,68	772,00
-2897,78	869,00
-2886,89	923,00
-2876,02	886,00
-2865,17	870,00
-2854,33	929,00
-2843,50	788,00
-2832,70	894,00
-2821,90	877,00
-2811,13	897,00
-2800,37	883,00
-2789,62	757,00
-2778,89	939,00
-2768,18	1008,00
-2757,48	937,00
-2746,80	941,00
-2736,13	878,00
-2725,48	951,00
-2714,84	738,00
-2704,22	837,00
-2693,61	841,00
-2683,02	818,00
-2672,45	841,00
-2661,89	866,00
-2651,34	903,00
-2640,81	937,00
-2630,30	1042,00
-2619,80	849,00
-2609,31	979,00
-2598,84	826,00
-2588,39	848,00
-2577,95	842,00
-2567,52	744,00
-2557,11	842,00
-2546,71	901,00
-2536,33	885,00
-2525,97	853,00
-2515,62	841,00
-2505,28	893,00
-2494,96	770,00
-2484,65	946,00
-2474,36	1206,00
-2464,08	847,00
-2453,82	1049,00
-2443,57	861,00
-2433,33	778,00
-2423,11	947,00
-2412,91	906,00
-2402,72	751,00
-2392,54	794,00
-2382,38	836,00
-2372,23	944,00
-2362,09	-1747,00
-2351,97	809,00
-2341,87	708,00
-2331,78	982,00
-2321,70	988,00
-2311,64	859,00
-2301,59	920,00
-2291,55	786,00
-2281,53	895,00
-2271,53	769,00
-2261,53	887,00
-2251,55	925,00
-2241,59	870,00
-2231,64	805,00
-2221,70	875,00
-2211,78	867,00
-2201,87	919,00
-2191,97	999,00
-2182,09	808,00
-2172,22	849,00
-2162,37	769,00
-2152,53	730,00
-2142,70	779,00
-2132,89	928,00
-2123,09	887,00
-2113,30	937,00
-2103,53	901,00
-2093,77	916,00
-2084,02	830,00
-2074,29	903,00
-2064,57	908,00
-2054,86	827,00
-2045,17	934,00
-2035,49	906,00
-2025,82	728,00
-2016,17	827,00
-2006,53	866,00
-1996,91	901,00
-1987,29	841,00
-1977,69	852,00
-1968,11	820,00
-1958,53	898,00
-1948,97	906,00
-1939,42	869,00
-1929,89	906,00
-1920,37	875,00
-1910,86	845,00
-1901,36	879,00
-1891,88	855,00
-1882,41	828,00
-1872,95	943,00
-1863,51	925,00
-1854,08	885,00
-1844,66	917,00
-1835,26	968,00
-1825,86	921,00
-1816,48	917,00
-1807,11	1002,00
-1797,76	866,00
-1788,42	918,00
-1779,09	891,00
-1769,77	899,00
-1760,47	996,00
-1751,17	836,00
-1741,89	884,00
-1732,63	883,00
-1723,37	1029,00
-1714,13	1003,00
-1704,90	785,00
-1695,68	1036,00
-1686,48	835,00
-1677,29	823,00
-1668,11	1078,00
-1658,94	838,00
-1649,78	843,00
-1640,64	872,00
-1631,51	890,00
-1622,39	1057,00
-1613,28	946,00
-1604,19	1009,00
-1595,10	841,00
-1586,03	837,00
-1576,97	938,00
-1567,93	694,00
-1558,89	907,00
-1549,87	941,00
-1540,86	768,00
-1531,86	883,00
-1522,87	880,00
-1513,90	894,00
-1504,93	950,00
-1495,98	940,00
-1487,04	1044,00
-1478,12	881,00
-1469,20	822,00
-1460,30	887,00
-1451,40	999,00
-1442,52	843,00
-1433,65	1052,00
-1424,80	942,00
-1415,95	814,00
-1407,12	1085,00
-1398,30	882,00
-1389,48	927,00
-1380,69	819,00
-1371,90	840,00
-1363,12	919,00
-1354,36	1057,00
-1345,60	814,00
-1336,86	963,00
-1328,13	1005,00
-1319,41	836,00
-1310,70	877,00
-1302,01	811,00
-1293,32	787,00
-1284,65	876,00
-1275,99	963,00
-1267,33	994,00
-1258,69	978,00
-1250,06	934,00
-1241,45	839,00
-1232,84	995,00
-1224,25	876,00
-1215,66	901,00
-1207,09	897,00
-1198,53	848,00
-1189,97	885,00
-1181,43	790,00
-1172,91	870,00
-1164,39	1041,00
-1155,88	857,00
-1147,38	822,00
-1138,90	745,00
-1130,43	820,00
-1121,96	859,00
-1113,51	839,00
-1105,07	948,00
-1096,64	925,00
-1088,22	880,00
-1079,81	932,00
-1071,41	1024,00
-1063,02	865,00
-1054,65	970,00
-1046,28	915,00
-1037,92	932,00
-1029,58	915,00
-1021,24	969,00
-1012,92	1197,00
-1004,61	845,00
-996,30	1107,00
-988,01	792,00
-979,73	891,00
-971,46	1040,00
-963,20	784,00
-954,95	758,00
-946,71	915,00
-938,48	923,00
-930,26	907,00
-922,06	915,00
-913,86	867,00
-905,67	751,00
-897,49	944,00
-889,33	737,00
-881,17	999,00
-873,02	895,00
-864,89	727,00
-856,76	847,00
-848,65	926,00
-840,54	960,00
-832,45	860,00
-824,36	714,00
-816,29	962,00
-808,22	957,00
-800,17	908,00
-792,12	865,00
-784,09	990,00
-776,06	849,00
-768,05	934,00
-760,04	875,00
-752,05	793,00
-744,07	933,00
-736,09	965,00
-728,13	770,00
-720,17	879,00
-712,23	821,00
-704,29	791,00
-696,37	926,00
-688,45	1029,00
-680,55	863,00
-672,65	749,00
-664,77	838,00
-656,89	883,00
-649,03	821,00
-641,17	898,00
-633,32	845,00
-625,49	944,00
-617,66	902,00
-609,84	959,00
-602,03	837,00
-594,23	839,00
-586,45	892,00
-578,67	822,00
-570,90	791,00
-563,14	816,00
-555,39	966,00
-547,65	937,00
-539,91	914,00
-532,19	855,00
-524,48	922,00
-516,78	815,00
-509,08	934,00
-501,40	882,00
-493,72	798,00
-486,06	867,00
-478,40	1018,00
-470,76	808,00
-463,12	838,00
-455,49	852,00
-447,87	890,00
-440,26	783,00
-432,66	869,00
-425,07	891,00
-417,49	977,00
-409,92	700,00
-402,35	833,00
-394,80	792,00
-387,25	936,00
-379,72	946,00
-372,19	1031,00
-364,67	955,00
-357,17	910,00
-349,67	838,00
-342,18	838,00
-334,69	951,00
-327,22	823,00
-319,76	855,00
-312,30	910,00
-304,86	871,00
-297,42	877,00
-290,00	891,00
-282,58	863,00
-275,17	1029,00
-267,77	1106,00
-260,37	929,00
-252,99	1050,00
-245,62	938,00
-238,25	919,00
-230,90	865,00
-223,55	1005,00
-216,21	957,00
-208,88	1119,00
-201,56	951,00
-194,25	1050,00
-186,94	1097,00
-179,65	1036,00
-172,36	1108,00
-165,08	1145,00
-157,81	1206,00
-150,55	1301,00
-143,30	1214,00
-136,06	1209,00
-128,82	1285,00
-121,60	1264,00
-114,38	1403,00
-107,17	1518,00
-99,97	1695,00
-92,78	1676,00
-85,60	1743,00
-78,42	1941,00
-71,25	2104,00
-64,10	2205,00
-56,95	2619,00
-49,81	2936,00
-42,67	3418,00
-35,55	4106,00
-28,43	5227,00
-21,33	8182,00
-14,23	25167,00
-7,14	57498,00
-0,05	57284,00
7,02	57012,00
14,09	57319,00
21,14	21467,00
28,19	9540,00
35,23	6339,00
42,27	5099,00
49,29	4068,00
56,31	3686,00
63,32	3426,00
70,32	2844,00
77,31	2494,00
84,29	2252,00
91,27	2239,00
98,23	2102,00
105,19	2008,00
112,14	2142,00
119,09	3056,00
126,02	4532,00
132,95	5246,00
139,87	5377,00
146,78	5371,00
153,68	5307,00
160,58	5205,00
167,46	5047,00
174,34	5110,00
181,21	5114,00
188,08	4858,00
194,93	5010,00
201,78	5003,00
208,62	5147,00
215,45	5104,00
222,27	5043,00
229,09	5152,00
235,90	4843,00
242,70	4871,00
249,49	4854,00
256,27	4691,00
263,05	4661,00
269,82	4594,00
276,58	4694,00
283,33	4489,00
290,08	4466,00
296,82	4379,00
303,55	4312,00
310,27	4212,00
316,98	4358,00
323,69	4329,00
330,39	4272,00
337,08	4226,00
343,76	4277,00
350,44	4192,00
357,11	4249,00
363,77	4252,00
370,42	4156,00
377,07	4170,00
383,71	4254,00
390,34	4169,00
396,96	4129,00
403,58	4223,00
410,19	4342,00
416,79	4366,00
423,38	4454,00
429,97	4500,00
436,55	4510,00
443,12	4594,00
449,68	4528,00
456,24	4440,00
462,79	4296,00
469,33	4120,00
475,86	4018,00
482,39	3761,00
488,91	3886,00
495,42	3700,00
501,93	3745,00
508,42	3619,00
514,91	3637,00
521,40	3576,00
527,87	3675,00
534,34	3548,00
540,80	3555,00
547,25	3624,00
553,70	3613,00
560,14	3595,00
566,57	3527,00
573,00	3589,00
579,41	3703,00
585,83	3768,00
592,23	3709,00
598,62	3807,00
605,01	3798,00
611,40	4058,00
617,77	3927,00
624,14	3805,00
630,50	3726,00
636,85	3487,00
643,20	3456,00
649,54	3278,00
655,87	3378,00
662,20	3428,00
668,52	3354,00
674,83	3317,00
681,13	3313,00
687,43	3285,00
693,72	3105,00
700,00	3019,00
706,28	3171,00
712,55	3216,00
718,81	3269,00
725,07	3215,00
731,32	3120,00
737,56	3214,00
743,79	3175,00
750,02	3147,00
756,24	3022,00
762,46	3081,00
768,67	3236,00
774,87	3011,00
781,06	2968,00
787,25	3068,00
793,43	3067,00
799,60	2964,00
805,77	3118,00
811,93	2980,00
818,08	3094,00
824,23	3003,00
830,37	3234,00
836,50	2958,00
842,63	3043,00
848,75	3008,00
854,87	2999,00
860,97	3124,00
867,07	3013,00
873,17	3116,00
879,25	3066,00
885,33	3079,00
891,41	3010,00
897,47	3105,00
903,53	2925,00
909,59	2988,00
915,63	2954,00
921,67	2924,00
927,71	2894,00
933,74	2951,00
939,76	2744,00
945,77	2812,00
951,78	2952,00
957,78	2720,00
963,78	2814,00
969,77	2811,00
975,75	2778,00
981,72	2771,00
987,69	4082,00
993,66	2913,00
999,61	2819,00
1005,56	2833,00
1011,51	2738,00
1017,44	2801,00
1023,37	2830,00
1029,30	2852,00
1035,22	2924,00
1041,13	2915,00
1047,03	3162,00
1052,93	3551,00
1058,83	5017,00
1064,71	5472,00
1070,59	4719,00
1076,47	3850,00
1082,33	3638,00
1088,20	3395,00
1094,05	3312,00
1099,90	3020,00
1105,74	3138,00
1111,58	3129,00
1117,41	3296,00
1123,23	4293,00
1129,05	5243,00
1134,86	4689,00
1140,67	3663,00
1146,47	3038,00
1152,26	3004,00
1158,05	2878,00
1163,83	2999,00
1169,60	3102,00
1175,37	3019,00
1181,13	2838,00
1186,89	2616,00
1192,64	2677,00
1198,38	2912,00
1204,12	2552,00
1209,85	2553,00
1215,58	2536,00
1221,30	2693,00
1227,02	2662,00
1232,72	2662,00
1238,43	2586,00
1244,12	2625,00
1249,81	2600,00
1255,50	2786,00
1261,17	2824,00
1266,85	2829,00
1272,51	2975,00
1278,17	2970,00
1283,83	3249,00
1289,47	4731,00
1295,12	6312,00
1300,75	5674,00
1306,38	4520,00
1312,01	3682,00
1317,63	3246,00
1323,24	3042,00
1328,85	2866,00
1334,45	2773,00
1340,04	2771,00
1345,63	2755,00
1351,22	2861,00
1356,80	2727,00
1362,37	2835,00
1367,93	2870,00
1373,49	2980,00
1379,05	2782,00
1384,60	2775,00
1390,14	2824,00
1395,68	2747,00
1401,21	2782,00
1406,74	3092,00
1412,26	3575,00
1417,77	4312,00
1423,28	4086,00
1428,78	4550,00
1434,28	5570,00
1439,77	6305,00
1445,26	6204,00
1450,74	5844,00
1456,22	5382,00
1461,68	5252,00
1467,15	4973,00
1472,61	4086,00
1478,06	3786,00
1483,51	3201,00
1488,95	2925,00
1494,38	2918,00
1499,81	2641,00
1505,24	2524,00
1510,65	2558,00
1516,07	2550,00
1521,48	2472,00
1526,88	2352,00
1532,27	2436,00
1537,67	2374,00
1543,05	2461,00
1548,43	2236,00
1553,81	2415,00
1559,18	2157,00
1564,54	2267,00
1569,90	2243,00
1575,25	2223,00
1580,60	2190,00
1585,94	2336,00
1591,28	2224,00
1596,61	2236,00
1601,93	2200,00
1607,25	2363,00
1612,57	2224,00
1617,88	2155,00
1623,18	2175,00
1628,48	2111,00
1633,77	2145,00
1639,06	2272,00
1644,34	2133,00
1649,62	2056,00
1654,89	2107,00
1660,16	2051,00
1665,42	2191,00
1670,67	2097,00
1675,92	1957,00
1681,17	2001,00
1686,41	2051,00
1691,64	2104,00
1696,87	2002,00
1702,10	1978,00
1707,32	1972,00
1712,53	1898,00
1717,74	2014,00
1722,94	2081,00
1728,14	1944,00
1733,33	1960,00
1738,52	1863,00
1743,70	1993,00
1748,88	1959,00
1754,05	1927,00
1759,22	1927,00
1764,38	2305,00
1769,53	1946,00
1774,69	1972,00
1779,83	1882,00
1784,97	1910,00
1790,11	1841,00
1795,24	1867,00
1800,36	1861,00
1805,48	1816,00
1810,60	1856,00
1815,71	1763,00
1820,82	1783,00
1825,92	1872,00
1831,01	1788,00
1836,10	1752,00
1841,19	1846,00
1846,26	1687,00
1851,34	1776,00
1856,41	1748,00
1861,47	1651,00
1866,53	1847,00
1871,59	1719,00
1876,64	1750,00
1881,68	1728,00
1886,72	1740,00
1891,76	1700,00
1896,79	1702,00
1901,81	1623,00
1906,83	1758,00
1911,85	1587,00
1916,86	1746,00
1921,86	1542,00
1926,86	1668,00
1931,86	1648,00
1936,85	1552,00
1941,83	1566,00
1946,81	1594,00
1951,79	1545,00
1956,76	1527,00
1961,72	1449,00
1966,68	1488,00
1971,64	1552,00
1976,59	1592,00
1981,54	1570,00
1986,48	1593,00
1991,42	1478,00
1996,35	1751,00
2001,27	1588,00
2006,20	1385,00
2011,11	1590,00
2016,03	1546,00
2020,93	1434,00
2025,84	1606,00
2030,73	1383,00
2035,63	1398,00
2040,52	1602,00
2045,40	1486,00
2050,28	1424,00
2055,15	1525,00
2060,02	1385,00
2064,89	1525,00
2069,75	1505,00
2074,60	1495,00
2079,46	1380,00
2084,30	1313,00
2089,14	1361,00
2093,98	1621,00
2098,81	1420,00
2103,64	1487,00
2108,46	1464,00
2113,28	1545,00
2118,09	1501,00
2122,90	1509,00
2127,70	1394,00
2132,50	1535,00
2137,30	1335,00
2142,09	1327,00
2146,87	1240,00
2151,66	1431,00
2156,43	1441,00
2161,20	1434,00
2165,97	1523,00
2170,73	1367,00
2175,49	1489,00
2180,24	1430,00
2184,99	1570,00
2189,74	1521,00
2194,48	1577,00
2199,21	1523,00
2203,94	1366,00
2208,67	1391,00
2213,39	1312,00
2218,11	1393,00
2222,82	1321,00
2227,53	1423,00
2232,23	1379,00
2236,93	1456,00
2241,63	1400,00
2246,32	1412,00
2251,00	1285,00
2255,68	1359,00
2260,36	1318,00
2265,03	1349,00
2269,70	1531,00
2274,36	1322,00
2279,02	1362,00
2283,68	1301,00
2288,33	1371,00
2292,97	1353,00
2297,61	1339,00
2302,25	1298,00
2306,88	1275,00
2311,51	1207,00
2316,14	1206,00
2320,75	1277,00
2325,37	1219,00
2329,98	1301,00
2334,59	1304,00
2339,19	1293,00
2343,79	1121,00
2348,38	1287,00
2352,97	1218,00
2357,55	1422,00
2362,13	1272,00
2366,71	1171,00
2371,28	1324,00
2375,85	1238,00
2380,41	1277,00
2384,97	1154,00
2389,52	1259,00
2394,07	1269,00
2398,62	1277,00
2403,16	1356,00
2407,70	1133,00
2412,23	1170,00
2416,76	1283,00
2421,29	1337,00
2425,81	1393,00
2430,32	1283,00
2434,84	1066,00
2439,34	1165,00
2443,85	1343,00
2448,35	1177,00
2452,84	1181,00
2457,33	1219,00
2461,82	1118,00
2466,30	1098,00
2470,78	1184,00
2475,25	1170,00
2479,72	1156,00
2484,19	1314,00
2488,65	1199,00
2493,11	1102,00
2497,56	1302,00
2502,01	1089,00
2506,46	1163,00
2510,90	1169,00
2515,34	1121,00
2519,77	1213,00
2524,20	1219,00
2528,62	1205,00
2533,04	1240,00
2537,46	1240,00
2541,87	1207,00
2546,28	1217,00
2550,68	1280,00
2555,08	1143,00
2559,48	1192,00
2563,87	1075,00
2568,26	1157,00
2572,64	1227,00
2577,02	1173,00
2581,40	1144,00
2585,77	1221,00
2590,14	1117,00
2594,50	1142,00
2598,86	1194,00
2603,22	1294,00
2607,57	1149,00
2611,92	1239,00
2616,26	1362,00
2620,60	1359,00
2624,94	1165,00
2629,27	1283,00
2633,60	1129,00
2637,92	1361,00
2642,24	1306,00
2646,56	1222,00
2650,87	1128,00
2655,18	1368,00
2659,48	1173,00
2663,78	1226,00
2668,08	1259,00
2672,37	1285,00
2676,66	1198,00
2680,95	1216,00
2685,23	1407,00
2689,50	1261,00
2693,78	1331,00
2698,05	1244,00
2702,31	1414,00
2706,57	1497,00
2710,83	1554,00
2715,08	1615,00
2719,33	1646,00
2723,58	1599,00
2727,82	1615,00
2732,06	1478,00
2736,29	1490,00
2740,53	1426,00
2744,75	1437,00
2748,97	1416,00
2753,19	1394,00
2757,41	1394,00
2761,62	1466,00
2765,83	1453,00
2770,03	1373,00
2774,23	1491,00
2778,43	1225,00
2782,62	1358,00
2786,81	1430,00
2791,00	1443,00
2795,18	1481,00
2799,35	1587,00
2803,53	1591,00
2807,70	1696,00
2811,86	1745,00
2816,03	1801,00
2820,19	1807,00
2824,34	1874,00
2828,49	2128,00
2832,64	2332,00
2836,78	2726,00
2840,92	3223,00
2845,06	3847,00
2849,19	4207,00
2853,32	4383,00
2857,45	4421,00
2861,57	4144,00
2865,69	4188,00
2869,80	3975,00
2873,91	4285,00
2878,02	4743,00
2882,12	5108,00
2886,22	5050,00
2890,32	4735,00
2894,41	4466,00
2898,50	4061,00
2902,58	3848,00
2906,67	3651,00
2910,74	3279,00
2914,82	3056,00
2918,89	3037,00
2922,96	2740,00
2927,02	2521,00
2931,08	2484,00
2935,13	2355,00
2939,19	2268,00
2943,24	2091,00
2947,28	2143,00
2951,32	1719,00
2955,36	1682,00
2959,40	1763,00
2963,43	1579,00
2967,46	1459,00
2971,48	1413,00
2975,50	1394,00
2979,52	1475,00
2983,53	1326,00
2987,54	1260,00
2991,55	1258,00
2995,55	1352,00
2999,55	1216,00
3003,54	1139,00
3007,54	1251,00
3011,53	1146,00
3015,51	1180,00
3019,49	1290,00
3023,47	1016,00
3027,45	1213,00
3031,42	1121,00
3035,39	1119,00
3039,35	1089,00
3043,31	1137,00
3047,27	1047,00
3051,22	1169,00
3055,17	1049,00
3059,12	982,00
3063,06	1021,00
3067,00	1015,00
3070,94	990,00
3074,87	1073,00
3078,80	889,00
3082,73	1065,00
3086,65	986,00
3090,57	978,00
3094,49	982,00
3098,40	924,00
3102,31	950,00
3106,22	1020,00
3110,12	944,00
3114,02	810,00
3117,92	1007,00
3121,81	985,00
3125,70	959,00
3129,58	949,00
3133,47	928,00
3137,34	983,00
3141,22	1012,00
3145,09	931,00
3148,96	997,00
3152,83	937,00
3156,69	1016,00
3160,55	915,00
3164,40	1022,00
3168,26	997,00
3172,10	1075,00
3175,95	1037,00
3179,79	966,00
3183,63	993,00
3187,47	919,00
3191,30	914,00
3195,13	951,00
3198,95	805,00
3202,78	974,00
3206,60	870,00
3210,41	803,00
3214,23	904,00
3218,03	887,00
3221,84	929,00
3225,64	988,00
3229,44	888,00
3233,24	983,00
3237,03	919,00
3240,82	873,00
3244,61	872,00
3248,39	880,00
3252,17	961,00
3255,95	983,00
3259,72	954,00
3263,49	1077,00
3267,26	860,00
3271,03	921,00
3274,79	881,00
3278,54	961,00
3282,30	808,00
3286,05	947,00
3289,80	983,00
3293,54	893,00
3297,29	931,00
3301,02	910,00
3304,76	887,00
3308,49	946,00
3312,22	798,00
3315,95	952,00
3319,67	860,00
3323,39	967,00
3327,10	981,00
3330,82	982,00
3334,53	896,00
3338,24	892,00
3341,94	940,00
3345,64	871,00
3349,34	924,00
3353,03	947,00
3356,72	904,00
3360,41	979,00
3364,10	862,00
3367,78	888,00
3371,46	861,00
3375,13	856,00
3378,81	937,00
3382,48	816,00
3386,14	972,00
3389,81	922,00
3393,47	911,00
3397,12	938,00
3400,78	944,00
3404,43	849,00
3408,08	946,00
3411,72	783,00
3415,36	843,00
3419,00	831,00
3422,64	870,00
3426,27	893,00
3429,90	850,00
3433,53	811,00
3437,15	802,00
3440,77	764,00
3444,39	819,00
3448,00	885,00
3451,62	812,00
3455,22	942,00
3458,83	802,00
3462,43	889,00
3466,03	956,00
3469,63	796,00
3473,22	883,00
3476,81	832,00
3480,40	941,00
3483,99	783,00
3487,57	848,00
3491,15	857,00
3494,72	889,00
3498,29	986,00
3501,86	762,00
3505,43	853,00
3508,99	756,00
3512,56	766,00
3516,11	953,00
3519,67	832,00
3523,22	901,00
3526,77	913,00
3530,32	1070,00
3533,86	896,00
3537,40	983,00
3540,94	915,00
3544,47	818,00
3548,00	800,00
3551,53	948,00
3555,06	803,00
3558,58	928,00
3562,10	912,00
3565,62	753,00
3569,13	818,00
3572,64	963,00
3576,15	727,00
3579,66	811,00
3583,16	724,00
3586,66	838,00
3590,16	875,00
3593,65	828,00
3597,14	748,00
3600,63	874,00
3604,11	819,00
3607,60	893,00
3611,08	831,00
3614,55	889,00
3618,03	816,00
3621,50	677,00
3624,97	687,00
3628,43	763,00
3631,90	765,00
3635,36	703,00
3638,81	765,00
3642,27	785,00
3645,72	831,00
3649,17	760,00
3652,61	736,00
3656,06	813,00
3659,50	845,00
3662,93	800,00
3666,37	809,00
3669,80	972,00
3673,23	857,00
3676,65	773,00
3680,08	887,00
3683,50	762,00
3686,92	741,00
3690,33	840,00
3693,74	775,00
3697,15	748,00
3700,56	879,00
3703,96	792,00
3707,36	642,00
3710,76	765,00
3714,16	711,00
3717,55	782,00
3720,94	741,00
3724,33	770,00
3727,71	884,00
3731,10	755,00
3734,48	772,00
3737,85	692,00
3741,23	773,00
3744,60	679,00
3747,97	607,00
3751,33	872,00
3754,69	647,00
3758,05	729,00
3761,41	698,00
3764,77	676,00
3768,12	673,00
3771,47	649,00
3774,82	686,00
3778,16	-3,00
3781,50	10,00
3784,84	5,00
3788,18	12,00
>>>>>End Processed Spectral Data<<<<<
