SpectraSuite Data File
++++++++++++++++++++++++++++++++++++
Date: Mon Jan 05 16:33:49 ICT 2026
User: Administrator
Dark Spectrum Present: Yes
Reference Spectrum Present: No
Number of Sampled Component Spectra: 1
Spectrometers: MAYP113682
Integration Time (usec): 3000000 (MAYP113682)
Spectra Averaged: 1 (MAYP113682)
Boxcar Smoothing: 0 (MAYP113682)
Correct for Electrical Dark: No (MAYP113682)
Strobe/Lamp Enabled: No (MAYP113682)
Correct for Detector Non-linearity: No (MAYP113682)
Correct for Stray Light: No (MAYP113682)
Number of Pixels in Processed Spectrum: 2068
>>>>>Begin Processed Spectral Data<<<<<
-37534,58	29,00
-37414,56	7,00
-37295,11	6,00
-37176,24	3,00
-37057,95	615,00
-36940,22	650,00
-36823,05	696,00
-36706,45	809,00
-36590,40	778,00
-36474,90	782,00
-36359,95	794,00
-36245,55	752,00
-36131,68	718,00
-36018,35	793,00
-35905,55	806,00
-35793,29	822,00
-35681,54	775,00
-35570,32	810,00
-35459,62	804,00
-35349,43	899,00
-35239,75	890,00
-35130,58	804,00
-35021,91	861,00
-34913,74	801,00
-34806,07	788,00
-34698,89	845,00
-34592,20	770,00
-34486,00	803,00
-34380,28	827,00
-34275,04	796,00
-34170,27	760,00
-34065,98	1002,00
-33962,16	914,00
-33858,81	909,00
-33755,92	884,00
-33653,49	952,00
-33551,52	930,00
-33450,01	780,00
-33348,94	869,00
-33248,33	823,00
-33148,16	863,00
-33048,43	890,00
-32949,14	1036,00
-32850,29	975,00
-32751,87	790,00
-32653,89	952,00
-32556,33	982,00
-32459,20	881,00
-32362,49	977,00
-32266,19	854,00
-32170,32	904,00
-32074,86	894,00
-31979,82	1008,00
-31885,18	1008,00
-31790,95	993,00
-31697,12	1013,00
-31603,69	959,00
-31510,67	990,00
-31418,04	899,00
-31325,80	823,00
-31233,95	814,00
-31142,49	912,00
-31051,42	889,00
-30960,73	975,00
-30870,43	1114,00
-30780,50	873,00
-30690,95	924,00
-30601,77	1052,00
-30512,97	902,00
-30424,53	940,00
-30336,46	890,00
-30248,76	880,00
-30161,42	1063,00
-30074,44	853,00
-29987,81	888,00
-29901,55	996,00
-29815,63	899,00
-29730,07	984,00
-29644,86	951,00
-29560,00	900,00
-29475,48	916,00
-29391,30	906,00
-29307,47	950,00
-29223,97	836,00
-29140,81	1036,00
-29057,99	1031,00
-28975,50	778,00
-28893,34	1043,00
-28811,51	883,00
-28730,00	961,00
-28648,82	925,00
-28567,97	915,00
-28487,43	888,00
-28407,21	951,00
-28327,32	808,00
-28247,73	1073,00
-28168,46	936,00
-28089,50	927,00
-28010,85	831,00
-27932,51	842,00
-27854,48	924,00
-27776,75	914,00
-27699,32	893,00
-27622,19	923,00
-27545,37	937,00
-27468,84	968,00
-27392,60	1005,00
-27316,66	965,00
-27241,01	907,00
-27165,66	828,00
-27090,59	804,00
-27015,81	1011,00
-26941,31	984,00
-26867,10	879,00
-26793,17	1029,00
-26719,52	938,00
-26646,15	877,00
-26573,06	833,00
-26500,24	849,00
-26427,70	852,00
-26355,43	976,00
-26283,43	872,00
-26211,71	1017,00
-26140,25	943,00
-26069,06	1051,00
-25998,13	788,00
-25927,46	825,00
-25857,06	809,00
-25786,92	931,00
-25717,04	721,00
-25647,42	990,00
-25578,05	775,00
-25508,94	932,00
-25440,09	919,00
-25371,48	936,00
-25303,13	950,00
-25235,02	930,00
-25167,17	876,00
-25099,56	893,00
-25032,19	845,00
-24965,07	794,00
-24898,20	785,00
-24831,56	827,00
-24765,17	969,00
-24699,01	812,00
-24633,10	944,00
-24567,41	925,00
-24501,97	915,00
-24436,75	872,00
-24371,77	884,00
-24307,03	839,00
-24242,51	953,00
-24178,22	856,00
-24114,16	845,00
-24050,32	958,00
-23986,71	944,00
-23923,32	853,00
-23860,16	903,00
-23797,22	915,00
-23734,50	885,00
-23672,00	839,00
-23609,71	823,00
-23547,65	780,00
-23485,80	945,00
-23424,16	735,00
-23362,74	1053,00
-23301,53	865,00
-23240,54	750,00
-23179,75	832,00
-23119,17	870,00
-23058,80	866,00
-22998,64	950,00
-22938,68	883,00
-22878,93	875,00
-22819,39	841,00
-22760,04	833,00
-22700,90	1013,00
-22641,96	884,00
-22583,22	809,00
-22524,68	959,00
-22466,33	875,00
-22408,19	898,00
-22350,23	894,00
-22292,48	835,00
-22234,92	1098,00
-22177,55	905,00
-22120,37	1089,00
-22063,38	924,00
-22006,58	842,00
-21949,98	862,00
-21893,56	714,00
-21837,33	856,00
-21781,28	891,00
-21725,42	953,00
-21669,74	958,00
-21614,25	916,00
-21558,94	949,00
-21503,81	967,00
-21448,86	935,00
-21394,10	837,00
-21339,51	808,00
-21285,10	695,00
-21230,86	782,00
-21176,81	797,00
-21122,93	812,00
-21069,22	762,00
-21015,69	897,00
-20962,33	994,00
-20909,14	855,00
-20856,13	859,00
-20803,28	922,00
-20750,61	912,00
-20698,10	787,00
-20645,76	770,00
-20593,59	916,00
-20541,59	849,00
-20489,75	993,00
-20438,07	806,00
-20386,56	950,00
-20335,22	841,00
-20284,03	860,00
-20233,01	911,00
-20182,15	778,00
-20131,45	850,00
-20080,91	791,00
-20030,52	925,00
-19980,30	888,00
-19930,23	856,00
-19880,32	897,00
-19830,56	886,00
-19780,96	894,00
-19731,52	817,00
-19682,23	941,00
-19633,09	829,00
-19584,10	792,00
-19535,26	801,00
-19486,58	969,00
-19438,04	908,00
-19389,66	1021,00
-19341,42	794,00
-19293,33	908,00
-19245,39	926,00
-19197,60	949,00
-19149,95	931,00
-19102,45	909,00
-19055,09	842,00
-19007,87	1001,00
-18960,80	890,00
-18913,87	860,00
-18867,09	852,00
-18820,44	997,00
-18773,94	856,00
-18727,57	928,00
-18681,35	678,00
-18635,26	930,00
-18589,31	785,00
-18543,50	905,00
-18497,83	876,00
-18452,29	941,00
-18406,89	804,00
-18361,63	990,00
-18316,50	919,00
-18271,50	884,00
-18226,63	919,00
-18181,90	898,00
-18137,30	858,00
-18092,84	843,00
-18048,50	920,00
-18004,29	822,00
-17960,22	758,00
-17916,27	896,00
-17872,45	953,00
-17828,76	951,00
-17785,20	846,00
-17741,77	874,00
-17698,46	968,00
-17655,28	802,00
-17612,22	928,00
-17569,29	855,00
-17526,48	859,00
-17483,79	931,00
-17441,23	777,00
-17398,79	860,00
-17356,48	819,00
-17314,28	1035,00
-17272,21	894,00
-17230,26	883,00
-17188,42	828,00
-17146,71	967,00
-17105,12	802,00
-17063,64	961,00
-17022,28	828,00
-16981,04	833,00
-16939,92	861,00
-16898,91	1032,00
-16858,02	781,00
-16817,25	854,00
-16776,59	795,00
-16736,04	873,00
-16695,61	909,00
-16655,29	765,00
-16615,09	816,00
-16574,99	913,00
-16535,01	878,00
-16495,15	898,00
-16455,39	844,00
-16415,74	799,00
-16376,21	890,00
-16336,78	858,00
-16297,46	818,00
-16258,26	757,00
-16219,16	880,00
-16180,17	912,00
-16141,28	855,00
-16102,51	967,00
-16063,84	860,00
-16025,27	828,00
-15986,82	813,00
-15948,46	949,00
-15910,22	877,00
-15872,07	901,00
-15834,04	923,00
-15796,10	886,00
-15758,27	1065,00
-15720,54	847,00
-15682,91	879,00
-15645,39	1025,00
-15607,97	955,00
-15570,64	791,00
-15533,42	984,00
-15496,30	909,00
-15459,28	1011,00
-15422,36	826,00
-15385,54	834,00
-15348,82	940,00
-15312,19	1037,00
-15275,66	858,00
-15239,23	920,00
-15202,90	846,00
-15166,67	906,00
-15130,53	932,00
-15094,48	903,00
-15058,54	775,00
-15022,68	806,00
-14986,93	853,00
-14951,26	931,00
-14915,69	867,00
-14880,22	859,00
-14844,84	862,00
-14809,55	902,00
-14774,35	908,00
-14739,25	765,00
-14704,24	911,00
-14669,32	835,00
-14634,49	800,00
-14599,75	899,00
-14565,10	800,00
-14530,55	914,00
-14496,08	906,00
-14461,70	989,00
-14427,41	833,00
-14393,21	716,00
-14359,10	850,00
-14325,07	922,00
-14291,14	793,00
-14257,29	927,00
-14223,52	967,00
-14189,85	981,00
-14156,26	890,00
-14122,76	766,00
-14089,34	777,00
-14056,01	973,00
-14022,76	828,00
-13989,60	891,00
-13956,52	979,00
-13923,53	888,00
-13890,62	812,00
-13857,79	802,00
-13825,05	746,00
-13792,39	784,00
-13759,81	901,00
-13727,31	852,00
-13694,90	846,00
-13662,57	936,00
-13630,31	897,00
-13598,14	883,00
-13566,05	798,00
-13534,05	897,00
-13502,12	905,00
-13470,27	880,00
-13438,50	882,00
-13406,80	754,00
-13375,19	841,00
-13343,66	894,00
-13312,20	998,00
-13280,83	861,00
-13249,53	867,00
-13218,30	763,00
-13187,16	804,00
-13156,09	1042,00
-13125,10	894,00
-13094,18	898,00
-13063,34	921,00
-13032,58	754,00
-13001,89	832,00
-12971,28	977,00
-12940,74	888,00
-12910,27	882,00
-12879,88	885,00
-12849,57	904,00
-12819,33	986,00
-12789,16	950,00
-12759,06	814,00
-12729,04	848,00
-12699,09	2335,00
-12669,21	816,00
-12639,41	883,00
-12609,68	851,00
-12580,02	868,00
-12550,43	869,00
-12520,91	792,00
-12491,46	918,00
-12462,08	787,00
-12432,77	832,00
-12403,54	798,00
-12374,37	752,00
-12345,27	873,00
-12316,24	828,00
-12287,29	862,00
-12258,40	850,00
-12229,57	983,00
-12200,82	810,00
-12172,14	952,00
-12143,52	733,00
-12114,97	838,00
-12086,49	837,00
-12058,07	940,00
-12029,73	856,00
-12001,44	1051,00
-11973,23	852,00
-11945,08	890,00
-11917,00	915,00
-11888,98	829,00
-11861,03	1004,00
-11833,15	865,00
-11805,32	922,00
-11777,57	900,00
-11749,88	917,00
-11722,25	848,00
-11694,69	856,00
-11667,19	866,00
-11639,75	949,00
-11612,38	813,00
-11585,07	859,00
-11557,83	901,00
-11530,65	961,00
-11503,53	791,00
-11476,47	884,00
-11449,48	841,00
-11422,54	988,00
-11395,67	897,00
-11368,86	950,00
-11342,11	800,00
-11315,43	787,00
-11288,80	754,00
-11262,23	997,00
-11235,73	866,00
-11209,28	1128,00
-11182,90	870,00
-11156,57	889,00
-11130,31	1033,00
-11104,10	867,00
-11077,96	879,00
-11051,87	849,00
-11025,84	809,00
-10999,87	860,00
-10973,96	900,00
-10948,11	794,00
-10922,31	848,00
-10896,58	869,00
-10870,90	1020,00
-10845,28	889,00
-10819,71	837,00
-10794,20	1017,00
-10768,75	926,00
-10743,36	974,00
-10718,02	821,00
-10692,74	867,00
-10667,52	817,00
-10642,35	869,00
-10617,24	963,00
-10592,18	895,00
-10567,18	822,00
-10542,23	895,00
-10517,34	871,00
-10492,51	992,00
-10467,72	811,00
-10443,00	1002,00
-10418,32	1009,00
-10393,70	1016,00
-10369,14	930,00
-10344,63	800,00
-10320,17	958,00
-10295,77	947,00
-10271,42	868,00
-10247,12	1018,00
-10222,88	1003,00
-10198,68	887,00
-10174,54	845,00
-10150,46	1099,00
-10126,42	1023,00
-10102,44	893,00
-10078,51	899,00
-10054,63	1072,00
-10030,80	903,00
-10007,03	1062,00
-9983,30	928,00
-9959,63	932,00
-9936,01	1022,00
-9912,44	956,00
-9888,92	1035,00
-9865,44	891,00
-9842,02	947,00
-9818,65	1033,00
-9795,33	807,00
-9772,06	1029,00
-9748,84	961,00
-9725,67	926,00
-9702,55	963,00
-9679,47	1081,00
-9656,45	1169,00
-9633,47	972,00
-9610,55	1012,00
-9587,67	1142,00
-9564,84	1318,00
-9542,06	1128,00
-9519,32	1254,00
-9496,64	1262,00
-9474,00	1149,00
-9451,41	1171,00
-9428,87	1190,00
-9406,37	1218,00
-9383,92	1067,00
-9361,52	1142,00
-9339,17	1345,00
-9316,86	1187,00
-9294,60	1373,00
-9272,38	1391,00
-9250,21	1601,00
-9228,09	1475,00
-9206,01	1424,00
-9183,98	1421,00
-9162,00	1292,00
-9140,06	1393,00
-9118,16	1282,00
-9096,31	1331,00
-9074,51	1340,00
-9052,75	1536,00
-9031,04	1470,00
-9009,37	1239,00
-8987,74	1293,00
-8966,16	1271,00
-8944,63	1073,00
-8923,14	1224,00
-8901,69	1137,00
-8880,29	1046,00
-8858,93	1341,00
-8837,61	1316,00
-8816,34	1424,00
-8795,11	1471,00
-8773,92	1265,00
-8752,78	1273,00
-8731,68	1135,00
-8710,62	1365,00
-8689,61	1151,00
-8668,63	1234,00
-8647,70	1490,00
-8626,82	1391,00
-8605,97	1422,00
-8585,17	1375,00
-8564,41	1171,00
-8543,69	1232,00
-8523,01	1149,00
-8502,37	1344,00
-8481,78	1212,00
-8461,23	1136,00
-8440,71	1208,00
-8420,24	1362,00
-8399,81	1530,00
-8379,42	1332,00
-8359,08	1348,00
-8338,77	1079,00
-8318,50	1126,00
-8298,27	1083,00
-8278,09	1224,00
-8257,94	1069,00
-8237,83	1408,00
-8217,76	1330,00
-8197,74	1354,00
-8177,75	1366,00
-8157,80	1181,00
-8137,89	1189,00
-8118,02	1150,00
-8098,19	1255,00
-8078,40	1246,00
-8058,65	1210,00
-8038,93	1286,00
-8019,26	1338,00
-7999,62	1260,00
-7980,02	1205,00
-7960,46	1106,00
-7940,94	1065,00
-7921,46	1055,00
-7902,01	965,00
-7882,60	1258,00
-7863,23	1139,00
-7843,90	1091,00
-7824,61	1143,00
-7805,35	1355,00
-7786,13	1155,00
-7766,95	1199,00
-7747,80	1213,00
-7728,69	1231,00
-7709,62	1164,00
-7690,59	1236,00
-7671,59	1276,00
-7652,63	1157,00
-7633,70	1152,00
-7614,81	1276,00
-7595,96	1099,00
-7577,15	1141,00
-7558,37	1084,00
-7539,62	1243,00
-7520,91	1092,00
-7502,24	1191,00
-7483,60	1103,00
-7465,00	1118,00
-7446,44	1085,00
-7427,91	937,00
-7409,41	1051,00
-7390,95	1031,00
-7372,53	960,00
-7354,14	927,00
-7335,78	948,00
-7317,46	1046,00
-7299,18	901,00
-7280,92	1074,00
-7262,71	1140,00
-7244,52	1150,00
-7226,38	1013,00
-7208,26	1050,00
-7190,18	1043,00
-7172,14	1019,00
-7154,12	1006,00
-7136,15	1002,00
-7118,20	1181,00
-7100,29	1181,00
-7082,41	1104,00
-7064,57	1003,00
-7046,76	1000,00
-7028,98	788,00
-7011,24	1094,00
-6993,53	736,00
-6975,85	1018,00
-6958,20	845,00
-6940,59	940,00
-6923,01	814,00
-6905,46	960,00
-6887,94	865,00
-6870,46	1302,00
-6853,01	1050,00
-6835,59	1005,00
-6818,21	875,00
-6800,85	999,00
-6783,53	796,00
-6766,24	792,00
-6748,98	794,00
-6731,76	751,00
-6714,56	828,00
-6697,40	602,00
-6680,26	731,00
-6663,16	752,00
-6646,09	873,00
-6629,05	977,00
-6612,05	1043,00
-6595,07	803,00
-6578,13	917,00
-6561,21	806,00
-6544,33	896,00
-6527,47	796,00
-6510,65	807,00
-6493,86	652,00
-6477,10	685,00
-6460,36	825,00
-6443,66	680,00
-6426,99	667,00
-6410,35	753,00
-6393,74	882,00
-6377,16	688,00
-6360,61	791,00
-6344,09	784,00
-6327,59	670,00
-6311,13	923,00
-6294,70	880,00
-6278,29	817,00
-6261,92	824,00
-6245,58	899,00
-6229,26	863,00
-6212,97	851,00
-6196,72	778,00
-6180,49	926,00
-6164,29	707,00
-6148,12	893,00
-6131,98	882,00
-6115,86	718,00
-6099,78	725,00
-6083,72	678,00
-6067,69	720,00
-6051,69	816,00
-6035,72	882,00
-6019,78	801,00
-6003,87	930,00
-5987,98	829,00
-5972,12	847,00
-5956,29	866,00
-5940,49	623,00
-5924,71	922,00
-5908,96	795,00
-5893,24	752,00
-5877,55	796,00
-5861,89	775,00
-5846,25	598,00
-5830,64	791,00
-5815,05	665,00
-5799,50	773,00
-5783,97	863,00
-5768,47	833,00
-5752,99	994,00
-5737,55	780,00
-5722,12	824,00
-5706,73	844,00
-5691,36	849,00
-5676,02	752,00
-5660,71	810,00
-5645,42	755,00
-5630,16	814,00
-5614,92	932,00
-5599,71	759,00
-5584,53	812,00
-5569,37	710,00
-5554,24	1047,00
-5539,14	802,00
-5524,06	795,00
-5509,01	745,00
-5493,98	755,00
-5478,98	743,00
-5464,00	663,00
-5449,05	819,00
-5434,13	812,00
-5419,23	829,00
-5404,36	779,00
-5389,51	801,00
-5374,69	843,00
-5359,89	823,00
-5345,12	909,00
-5330,37	930,00
-5315,65	896,00
-5300,95	855,00
-5286,28	717,00
-5271,63	731,00
-5257,01	725,00
-5242,41	804,00
-5227,84	728,00
-5213,29	792,00
-5198,76	782,00
-5184,26	843,00
-5169,79	814,00
-5155,33	822,00
-5140,91	800,00
-5126,51	818,00
-5112,13	751,00
-5097,77	908,00
-5083,44	946,00
-5069,13	721,00
-5054,85	804,00
-5040,59	865,00
-5026,36	770,00
-5012,15	734,00
-4997,96	780,00
-4983,80	855,00
-4969,66	816,00
-4955,54	799,00
-4941,44	804,00
-4927,37	729,00
-4913,33	844,00
-4899,30	753,00
-4885,30	876,00
-4871,33	786,00
-4857,37	796,00
-4843,44	801,00
-4829,53	929,00
-4815,65	884,00
-4801,79	667,00
-4787,95	856,00
-4774,13	781,00
-4760,34	778,00
-4746,56	951,00
-4732,82	751,00
-4719,09	841,00
-4705,38	914,00
-4691,70	829,00
-4678,04	912,00
-4664,41	954,00
-4650,79	1034,00
-4637,20	778,00
-4623,63	798,00
-4610,08	912,00
-4596,56	809,00
-4583,05	767,00
-4569,57	723,00
-4556,11	1012,00
-4542,67	747,00
-4529,25	845,00
-4515,86	780,00
-4502,49	845,00
-4489,13	895,00
-4475,80	982,00
-4462,49	722,00
-4449,21	939,00
-4435,94	885,00
-4422,70	728,00
-4409,47	739,00
-4396,27	936,00
-4383,09	753,00
-4369,93	846,00
-4356,79	819,00
-4343,67	911,00
-4330,58	884,00
-4317,50	959,00
-4304,45	852,00
-4291,41	1002,00
-4278,40	875,00
-4265,41	788,00
-4252,44	843,00
-4239,49	713,00
-4226,55	888,00
-4213,65	818,00
-4200,76	882,00
-4187,89	833,00
-4175,04	814,00
-4162,21	785,00
-4149,40	902,00
-4136,61	856,00
-4123,85	899,00
-4111,10	857,00
-4098,37	872,00
-4085,66	907,00
-4072,98	897,00
-4060,31	821,00
-4047,66	948,00
-4035,04	1081,00
-4022,43	879,00
-4009,84	900,00
-3997,27	810,00
-3984,72	879,00
-3972,19	994,00
-3959,69	927,00
-3947,20	833,00
-3934,73	905,00
-3922,27	829,00
-3909,84	869,00
-3897,43	981,00
-3885,04	984,00
-3872,67	891,00
-3860,31	907,00
-3847,98	1018,00
-3835,66	938,00
-3823,36	881,00
-3811,09	860,00
-3798,83	830,00
-3786,59	873,00
-3774,37	1003,00
-3762,17	793,00
-3749,98	951,00
-3737,82	867,00
-3725,67	1071,00
-3713,55	853,00
-3701,44	981,00
-3689,35	904,00
-3677,28	982,00
-3665,22	901,00
-3653,19	815,00
-3641,17	977,00
-3629,18	929,00
-3617,20	914,00
-3605,24	924,00
-3593,30	939,00
-3581,37	924,00
-3569,47	906,00
-3557,58	923,00
-3545,71	987,00
-3533,86	919,00
-3522,02	863,00
-3510,21	843,00
-3498,41	980,00
-3486,63	897,00
-3474,87	889,00
-3463,12	904,00
-3451,40	902,00
-3439,69	896,00
-3428,00	865,00
-3416,33	904,00
-3404,67	796,00
-3393,03	883,00
-3381,41	895,00
-3369,81	921,00
-3358,22	900,00
-3346,66	1037,00
-3335,10	881,00
-3323,57	867,00
-3312,06	953,00
-3300,56	986,00
-3289,08	825,00
-3277,61	869,00
-3266,16	935,00
-3254,73	845,00
-3243,32	852,00
-3231,92	846,00
-3220,55	949,00
-3209,18	1102,00
-3197,84	816,00
-3186,51	834,00
-3175,20	887,00
-3163,90	929,00
-3152,63	961,00
-3141,36	863,00
-3130,12	932,00
-3118,89	965,00
-3107,68	955,00
-3096,49	919,00
-3085,31	913,00
-3074,15	857,00
-3063,00	953,00
-3051,87	871,00
-3040,76	830,00
-3029,67	1052,00
-3018,59	1183,00
-3007,52	1020,00
-2996,48	901,00
-2985,44	933,00
-2974,43	987,00
-2963,43	851,00
-2952,45	871,00
-2941,48	974,00
-2930,53	894,00
-2919,60	826,00
-2908,68	885,00
-2897,78	951,00
-2886,89	1053,00
-2876,02	938,00
-2865,17	885,00
-2854,33	940,00
-2843,50	917,00
-2832,70	868,00
-2821,90	873,00
-2811,13	938,00
-2800,37	859,00
-2789,62	725,00
-2778,89	961,00
-2768,18	901,00
-2757,48	974,00
-2746,80	975,00
-2736,13	850,00
-2725,48	1004,00
-2714,84	808,00
-2704,22	852,00
-2693,61	907,00
-2683,02	915,00
-2672,45	968,00
-2661,89	980,00
-2651,34	961,00
-2640,81	937,00
-2630,30	1023,00
-2619,80	764,00
-2609,31	969,00
-2598,84	813,00
-2588,39	825,00
-2577,95	843,00
-2567,52	813,00
-2557,11	844,00
-2546,71	909,00
-2536,33	950,00
-2525,97	938,00
-2515,62	999,00
-2505,28	884,00
-2494,96	879,00
-2484,65	962,00
-2474,36	1273,00
-2464,08	843,00
-2453,82	1032,00
-2443,57	891,00
-2433,33	804,00
-2423,11	906,00
-2412,91	949,00
-2402,72	834,00
-2392,54	890,00
-2382,38	886,00
-2372,23	948,00
-2362,09	2004,00
-2351,97	812,00
-2341,87	739,00
-2331,78	897,00
-2321,70	967,00
-2311,64	963,00
-2301,59	901,00
-2291,55	809,00
-2281,53	944,00
-2271,53	778,00
-2261,53	995,00
-2251,55	890,00
-2241,59	945,00
-2231,64	935,00
-2221,70	859,00
-2211,78	883,00
-2201,87	929,00
-2191,97	969,00
-2182,09	851,00
-2172,22	989,00
-2162,37	782,00
-2152,53	797,00
-2142,70	837,00
-2132,89	836,00
-2123,09	1026,00
-2113,30	882,00
-2103,53	921,00
-2093,77	933,00
-2084,02	872,00
-2074,29	1035,00
-2064,57	881,00
-2054,86	912,00
-2045,17	986,00
-2035,49	873,00
-2025,82	833,00
-2016,17	900,00
-2006,53	830,00
-1996,91	979,00
-1987,29	772,00
-1977,69	929,00
-1968,11	773,00
-1958,53	905,00
-1948,97	862,00
-1939,42	859,00
-1929,89	902,00
-1920,37	872,00
-1910,86	875,00
-1901,36	945,00
-1891,88	909,00
-1882,41	903,00
-1872,95	954,00
-1863,51	989,00
-1854,08	900,00
-1844,66	916,00
-1835,26	940,00
-1825,86	953,00
-1816,48	865,00
-1807,11	994,00
-1797,76	961,00
-1788,42	1054,00
-1779,09	943,00
-1769,77	809,00
-1760,47	1093,00
-1751,17	795,00
-1741,89	851,00
-1732,63	979,00
-1723,37	1099,00
-1714,13	1025,00
-1704,90	924,00
-1695,68	1040,00
-1686,48	820,00
-1677,29	902,00
-1668,11	1147,00
-1658,94	817,00
-1649,78	936,00
-1640,64	917,00
-1631,51	944,00
-1622,39	979,00
-1613,28	960,00
-1604,19	973,00
-1595,10	953,00
-1586,03	920,00
-1576,97	921,00
-1567,93	919,00
-1558,89	867,00
-1549,87	967,00
-1540,86	814,00
-1531,86	854,00
-1522,87	797,00
-1513,90	1040,00
-1504,93	919,00
-1495,98	953,00
-1487,04	1033,00
-1478,12	858,00
-1469,20	970,00
-1460,30	943,00
-1451,40	1067,00
-1442,52	915,00
-1433,65	1032,00
-1424,80	936,00
-1415,95	834,00
-1407,12	1062,00
-1398,30	872,00
-1389,48	963,00
-1380,69	851,00
-1371,90	743,00
-1363,12	984,00
-1354,36	1152,00
-1345,60	875,00
-1336,86	874,00
-1328,13	1010,00
-1319,41	908,00
-1310,70	875,00
-1302,01	820,00
-1293,32	852,00
-1284,65	884,00
-1275,99	958,00
-1267,33	1035,00
-1258,69	1007,00
-1250,06	958,00
-1241,45	821,00
-1232,84	1040,00
-1224,25	918,00
-1215,66	961,00
-1207,09	1034,00
-1198,53	802,00
-1189,97	957,00
-1181,43	850,00
-1172,91	923,00
-1164,39	983,00
-1155,88	794,00
-1147,38	813,00
-1138,90	940,00
-1130,43	908,00
-1121,96	958,00
-1113,51	880,00
-1105,07	931,00
-1096,64	996,00
-1088,22	954,00
-1079,81	930,00
-1071,41	958,00
-1063,02	876,00
-1054,65	952,00
-1046,28	903,00
-1037,92	962,00
-1029,58	907,00
-1021,24	953,00
-1012,92	1302,00
-1004,61	854,00
-996,30	1039,00
-988,01	777,00
-979,73	954,00
-971,46	929,00
-963,20	900,00
-954,95	793,00
-946,71	842,00
-938,48	982,00
-930,26	919,00
-922,06	916,00
-913,86	804,00
-905,67	847,00
-897,49	951,00
-889,33	699,00
-881,17	1016,00
-873,02	903,00
-864,89	855,00
-856,76	822,00
-848,65	948,00
-840,54	1065,00
-832,45	965,00
-824,36	810,00
-816,29	888,00
-808,22	938,00
-800,17	917,00
-792,12	962,00
-784,09	981,00
-776,06	830,00
-768,05	908,00
-760,04	901,00
-752,05	845,00
-744,07	963,00
-736,09	1047,00
-728,13	758,00
-720,17	902,00
-712,23	906,00
-704,29	873,00
-696,37	887,00
-688,45	990,00
-680,55	864,00
-672,65	932,00
-664,77	888,00
-656,89	953,00
-649,03	871,00
-641,17	1008,00
-633,32	965,00
-625,49	982,00
-617,66	830,00
-609,84	959,00
-602,03	809,00
-594,23	985,00
-586,45	931,00
-578,67	886,00
-570,90	921,00
-563,14	767,00
-555,39	988,00
-547,65	1081,00
-539,91	907,00
-532,19	917,00
-524,48	947,00
-516,78	857,00
-509,08	995,00
-501,40	946,00
-493,72	913,00
-486,06	943,00
-478,40	997,00
-470,76	824,00
-463,12	875,00
-455,49	959,00
-447,87	856,00
-440,26	841,00
-432,66	841,00
-425,07	1011,00
-417,49	979,00
-409,92	715,00
-402,35	828,00
-394,80	815,00
-387,25	1002,00
-379,72	936,00
-372,19	935,00
-364,67	971,00
-357,17	914,00
-349,67	925,00
-342,18	968,00
-334,69	972,00
-327,22	1017,00
-319,76	868,00
-312,30	840,00
-304,86	876,00
-297,42	951,00
-290,00	854,00
-282,58	964,00
-275,17	993,00
-267,77	1090,00
-260,37	966,00
-252,99	1027,00
-245,62	1012,00
-238,25	958,00
-230,90	911,00
-223,55	1024,00
-216,21	978,00
-208,88	1206,00
-201,56	913,00
-194,25	1026,00
-186,94	1078,00
-179,65	1056,00
-172,36	1151,00
-165,08	1189,00
-157,81	1281,00
-150,55	1301,00
-143,30	1201,00
-136,06	1214,00
-128,82	1297,00
-121,60	1370,00
-114,38	1457,00
-107,17	1501,00
-99,97	1720,00
-92,78	1714,00
-85,60	1849,00
-78,42	1954,00
-71,25	2184,00
-64,10	2277,00
-56,95	2549,00
-49,81	2853,00
-42,67	3512,00
-35,55	4065,00
-28,43	5204,00
-21,33	7807,00
-14,23	24702,00
-7,14	57498,00
-0,05	57284,00
7,02	57012,00
14,09	57319,00
21,14	20851,00
28,19	9214,00
35,23	6212,00
42,27	5095,00
49,29	4133,00
56,31	3667,00
63,32	3337,00
70,32	2828,00
77,31	2642,00
84,29	2200,00
91,27	2168,00
98,23	2205,00
105,19	2083,00
112,14	2392,00
119,09	3391,00
126,02	5144,00
132,95	6045,00
139,87	6215,00
146,78	6405,00
153,68	6212,00
160,58	6080,00
167,46	5927,00
174,34	6180,00
181,21	6034,00
188,08	5881,00
194,93	6079,00
201,78	6024,00
208,62	6061,00
215,45	6155,00
222,27	5959,00
229,09	6089,00
235,90	5899,00
242,70	5965,00
249,49	5990,00
256,27	5720,00
263,05	5593,00
269,82	5665,00
276,58	5582,00
283,33	5532,00
290,08	5386,00
296,82	5533,00
303,55	5275,00
310,27	5246,00
316,98	5279,00
323,69	5336,00
330,39	5257,00
337,08	5291,00
343,76	5253,00
350,44	5273,00
357,11	5209,00
363,77	5158,00
370,42	5309,00
377,07	5206,00
383,71	5166,00
390,34	5189,00
396,96	5267,00
403,58	5251,00
410,19	5348,00
416,79	5469,00
423,38	5501,00
429,97	5458,00
436,55	5353,00
443,12	5461,00
449,68	5555,00
456,24	5392,00
462,79	5272,00
469,33	5099,00
475,86	4985,00
482,39	4803,00
488,91	4882,00
495,42	4790,00
501,93	4738,00
508,42	4684,00
514,91	4707,00
521,40	4639,00
527,87	4681,00
534,34	4501,00
540,80	4632,00
547,25	4645,00
553,70	4517,00
560,14	4746,00
566,57	4575,00
573,00	4605,00
579,41	4856,00
585,83	4858,00
592,23	4839,00
598,62	4796,00
605,01	4839,00
611,40	4842,00
617,77	4947,00
624,14	4759,00
630,50	4624,00
636,85	4552,00
643,20	4415,00
649,54	4383,00
655,87	4458,00
662,20	4275,00
668,52	4384,00
674,83	4306,00
681,13	4218,00
687,43	4271,00
693,72	4126,00
700,00	4065,00
706,28	4171,00
712,55	4258,00
718,81	4235,00
725,07	4234,00
731,32	4208,00
737,56	4239,00
743,79	4145,00
750,02	4247,00
756,24	3931,00
762,46	4013,00
768,67	4330,00
774,87	4191,00
781,06	3956,00
787,25	4063,00
793,43	4068,00
799,60	4108,00
805,77	4224,00
811,93	4016,00
818,08	4075,00
824,23	4059,00
830,37	4305,00
836,50	4066,00
842,63	4079,00
848,75	4045,00
854,87	4064,00
860,97	4066,00
867,07	4075,00
873,17	4147,00
879,25	4032,00
885,33	4116,00
891,41	4183,00
897,47	4102,00
903,53	4125,00
909,59	4059,00
915,63	3962,00
921,67	3867,00
927,71	4017,00
933,74	3995,00
939,76	3752,00
945,77	3826,00
951,78	4131,00
957,78	3677,00
963,78	3943,00
969,77	3780,00
975,75	3763,00
981,72	3773,00
987,69	5177,00
993,66	3960,00
999,61	3862,00
1005,56	3812,00
1011,51	3904,00
1017,44	3925,00
1023,37	3992,00
1029,30	3876,00
1035,22	3990,00
1041,13	3930,00
1047,03	4145,00
1052,93	4693,00
1058,83	5909,00
1064,71	6290,00
1070,59	5500,00
1076,47	4804,00
1082,33	4587,00
1088,20	4429,00
1094,05	4325,00
1099,90	3973,00
1105,74	3994,00
1111,58	4087,00
1117,41	4345,00
1123,23	5166,00
1129,05	6065,00
1134,86	5613,00
1140,67	4636,00
1146,47	4155,00
1152,26	3943,00
1158,05	3952,00
1163,83	4085,00
1169,60	4043,00
1175,37	3978,00
1181,13	3885,00
1186,89	3760,00
1192,64	3740,00
1198,38	3860,00
1204,12	3669,00
1209,85	3688,00
1215,58	3641,00
1221,30	3735,00
1227,02	3707,00
1232,72	3792,00
1238,43	3737,00
1244,12	3761,00
1249,81	3777,00
1255,50	3858,00
1261,17	3836,00
1266,85	3912,00
1272,51	3946,00
1278,17	4116,00
1283,83	4292,00
1289,47	5747,00
1295,12	7224,00
1300,75	6577,00
1306,38	5491,00
1312,01	4649,00
1317,63	4272,00
1323,24	4005,00
1328,85	3883,00
1334,45	3784,00
1340,04	3874,00
1345,63	3667,00
1351,22	3861,00
1356,80	3797,00
1362,37	3901,00
1367,93	3953,00
1373,49	4058,00
1379,05	3808,00
1384,60	3768,00
1390,14	3842,00
1395,68	3800,00
1401,21	3873,00
1406,74	4114,00
1412,26	4618,00
1417,77	5258,00
1423,28	5012,00
1428,78	5449,00
1434,28	6416,00
1439,77	7166,00
1445,26	6927,00
1450,74	6747,00
1456,22	6113,00
1461,68	6008,00
1467,15	5755,00
1472,61	5170,00
1478,06	4752,00
1483,51	4256,00
1488,95	3845,00
1494,38	3829,00
1499,81	3639,00
1505,24	3583,00
1510,65	3549,00
1516,07	3601,00
1521,48	3473,00
1526,88	3359,00
1532,27	3404,00
1537,67	3372,00
1543,05	3413,00
1548,43	3251,00
1553,81	3504,00
1559,18	3191,00
1564,54	3247,00
1569,90	3271,00
1575,25	3184,00
1580,60	3064,00
1585,94	3373,00
1591,28	3152,00
1596,61	3156,00
1601,93	3144,00
1607,25	3337,00
1612,57	3098,00
1617,88	3120,00
1623,18	3169,00
1628,48	3171,00
1633,77	3118,00
1639,06	3127,00
1644,34	2898,00
1649,62	2909,00
1654,89	3044,00
1660,16	2905,00
1665,42	3084,00
1670,67	2904,00
1675,92	2867,00
1681,17	2859,00
1686,41	2946,00
1691,64	3019,00
1696,87	2993,00
1702,10	2930,00
1707,32	2899,00
1712,53	2816,00
1717,74	2874,00
1722,94	3031,00
1728,14	2799,00
1733,33	2809,00
1738,52	2721,00
1743,70	2809,00
1748,88	2751,00
1754,05	2852,00
1759,22	2692,00
1764,38	3073,00
1769,53	2693,00
1774,69	2775,00
1779,83	2681,00
1784,97	2708,00
1790,11	2744,00
1795,24	2583,00
1800,36	2586,00
1805,48	2671,00
1810,60	2778,00
1815,71	2616,00
1820,82	2629,00
1825,92	2672,00
1831,01	2633,00
1836,10	2599,00
1841,19	2667,00
1846,26	2442,00
1851,34	2611,00
1856,41	2605,00
1861,47	2600,00
1866,53	2726,00
1871,59	2514,00
1876,64	2614,00
1881,68	2483,00
1886,72	2533,00
1891,76	2407,00
1896,79	2535,00
1901,81	2414,00
1906,83	2538,00
1911,85	2448,00
1916,86	2460,00
1921,86	2377,00
1926,86	2420,00
1931,86	2483,00
1936,85	2385,00
1941,83	2345,00
1946,81	2376,00
1951,79	2196,00
1956,76	2314,00
1961,72	2231,00
1966,68	2304,00
1971,64	2253,00
1976,59	2345,00
1981,54	2249,00
1986,48	2409,00
1991,42	2136,00
1996,35	2497,00
2001,27	2238,00
2006,20	2288,00
2011,11	2302,00
2016,03	2238,00
2020,93	2047,00
2025,84	2224,00
2030,73	2130,00
2035,63	2140,00
2040,52	2285,00
2045,40	2219,00
2050,28	2262,00
2055,15	2262,00
2060,02	2051,00
2064,89	2273,00
2069,75	2315,00
2074,60	2174,00
2079,46	2079,00
2084,30	2220,00
2089,14	2099,00
2093,98	2303,00
2098,81	2232,00
2103,64	2341,00
2108,46	2348,00
2113,28	2483,00
2118,09	2377,00
2122,90	2316,00
2127,70	2186,00
2132,50	2278,00
2137,30	2146,00
2142,09	2056,00
2146,87	2063,00
2151,66	2124,00
2156,43	2133,00
2161,20	2133,00
2165,97	2167,00
2170,73	2019,00
2175,49	2140,00
2180,24	2114,00
2184,99	2247,00
2189,74	2227,00
2194,48	2108,00
2199,21	2157,00
2203,94	2003,00
2208,67	1893,00
2213,39	1917,00
2218,11	2017,00
2222,82	1891,00
2227,53	2040,00
2232,23	1996,00
2236,93	1978,00
2241,63	1924,00
2246,32	2031,00
2251,00	1936,00
2255,68	1971,00
2260,36	1893,00
2265,03	1949,00
2269,70	2053,00
2274,36	1864,00
2279,02	1942,00
2283,68	1872,00
2288,33	1898,00
2292,97	1966,00
2297,61	1764,00
2302,25	1909,00
2306,88	1808,00
2311,51	1811,00
2316,14	1776,00
2320,75	1785,00
2325,37	1738,00
2329,98	1884,00
2334,59	1786,00
2339,19	1815,00
2343,79	1691,00
2348,38	1831,00
2352,97	1795,00
2357,55	1907,00
2362,13	1746,00
2366,71	1694,00
2371,28	1843,00
2375,85	1802,00
2380,41	1842,00
2384,97	1718,00
2389,52	1784,00
2394,07	1845,00
2398,62	1703,00
2403,16	1855,00
2407,70	1603,00
2412,23	1742,00
2416,76	1758,00
2421,29	1767,00
2425,81	1720,00
2430,32	1785,00
2434,84	1634,00
2439,34	1675,00
2443,85	1820,00
2448,35	1742,00
2452,84	1646,00
2457,33	1657,00
2461,82	1526,00
2466,30	1548,00
2470,78	1581,00
2475,25	1628,00
2479,72	1621,00
2484,19	1682,00
2488,65	1709,00
2493,11	1642,00
2497,56	1716,00
2502,01	1478,00
2506,46	1630,00
2510,90	1617,00
2515,34	1563,00
2519,77	1580,00
2524,20	1624,00
2528,62	1640,00
2533,04	1742,00
2537,46	1574,00
2541,87	1596,00
2546,28	1602,00
2550,68	1686,00
2555,08	1668,00
2559,48	1613,00
2563,87	1508,00
2568,26	1480,00
2572,64	1704,00
2577,02	1661,00
2581,40	1441,00
2585,77	1623,00
2590,14	1538,00
2594,50	1467,00
2598,86	1620,00
2603,22	1485,00
2607,57	1539,00
2611,92	1610,00
2616,26	1723,00
2620,60	1805,00
2624,94	1540,00
2629,27	1580,00
2633,60	1506,00
2637,92	1699,00
2642,24	1659,00
2646,56	1599,00
2650,87	1492,00
2655,18	1669,00
2659,48	1532,00
2663,78	1469,00
2668,08	1627,00
2672,37	1549,00
2676,66	1549,00
2680,95	1520,00
2685,23	1698,00
2689,50	1595,00
2693,78	1609,00
2698,05	1558,00
2702,31	1716,00
2706,57	1773,00
2710,83	1794,00
2715,08	1839,00
2719,33	2009,00
2723,58	1862,00
2727,82	1886,00
2732,06	1844,00
2736,29	1855,00
2740,53	1702,00
2744,75	1722,00
2748,97	1708,00
2753,19	1613,00
2757,41	1686,00
2761,62	1753,00
2765,83	1633,00
2770,03	1571,00
2774,23	1691,00
2778,43	1608,00
2782,62	1743,00
2786,81	1706,00
2791,00	1704,00
2795,18	1778,00
2799,35	1787,00
2803,53	1930,00
2807,70	1870,00
2811,86	1875,00
2816,03	2107,00
2820,19	2007,00
2824,34	2092,00
2828,49	2206,00
2832,64	2515,00
2836,78	2882,00
2840,92	3283,00
2845,06	3942,00
2849,19	4280,00
2853,32	4431,00
2857,45	4411,00
2861,57	4322,00
2865,69	4228,00
2869,80	4126,00
2873,91	4258,00
2878,02	4695,00
2882,12	5027,00
2886,22	4981,00
2890,32	4885,00
2894,41	4351,00
2898,50	4112,00
2902,58	3939,00
2906,67	3646,00
2910,74	3340,00
2914,82	3067,00
2918,89	3081,00
2922,96	2881,00
2927,02	2679,00
2931,08	2565,00
2935,13	2393,00
2939,19	2391,00
2943,24	2179,00
2947,28	2178,00
2951,32	1913,00
2955,36	1817,00
2959,40	1920,00
2963,43	1772,00
2967,46	1659,00
2971,48	1677,00
2975,50	1546,00
2979,52	1607,00
2983,53	1545,00
2987,54	1473,00
2991,55	1441,00
2995,55	1468,00
2999,55	1383,00
3003,54	1309,00
3007,54	1449,00
3011,53	1320,00
3015,51	1352,00
3019,49	1380,00
3023,47	1177,00
3027,45	1320,00
3031,42	1266,00
3035,39	1210,00
3039,35	1157,00
3043,31	1255,00
3047,27	1274,00
3051,22	1299,00
3055,17	1163,00
3059,12	1099,00
3063,06	1192,00
3067,00	1101,00
3070,94	1170,00
3074,87	1302,00
3078,80	1234,00
3082,73	1136,00
3086,65	1167,00
3090,57	1113,00
3094,49	1101,00
3098,40	1137,00
3102,31	1049,00
3106,22	1130,00
3110,12	1116,00
3114,02	930,00
3117,92	1104,00
3121,81	1117,00
3125,70	1086,00
3129,58	1077,00
3133,47	1019,00
3137,34	1150,00
3141,22	1113,00
3145,09	1148,00
3148,96	1119,00
3152,83	1126,00
3156,69	1124,00
3160,55	1027,00
3164,40	1116,00
3168,26	1062,00
3172,10	1154,00
3175,95	1087,00
3179,79	1113,00
3183,63	1127,00
3187,47	1075,00
3191,30	1128,00
3195,13	1145,00
3198,95	925,00
3202,78	1037,00
3206,60	1004,00
3210,41	960,00
3214,23	1021,00
3218,03	1076,00
3221,84	1041,00
3225,64	1043,00
3229,44	881,00
3233,24	1124,00
3237,03	984,00
3240,82	942,00
3244,61	1045,00
3248,39	930,00
3252,17	1046,00
3255,95	1169,00
3259,72	999,00
3263,49	1189,00
3267,26	1061,00
3271,03	960,00
3274,79	995,00
3278,54	1045,00
3282,30	921,00
3286,05	984,00
3289,80	1056,00
3293,54	1003,00
3297,29	992,00
3301,02	921,00
3304,76	967,00
3308,49	1026,00
3312,22	909,00
3315,95	1037,00
3319,67	961,00
3323,39	1102,00
3327,10	1046,00
3330,82	916,00
3334,53	1010,00
3338,24	992,00
3341,94	877,00
3345,64	1002,00
3349,34	970,00
3353,03	1038,00
3356,72	991,00
3360,41	1048,00
3364,10	894,00
3367,78	937,00
3371,46	1005,00
3375,13	908,00
3378,81	1019,00
3382,48	1015,00
3386,14	1029,00
3389,81	1011,00
3393,47	967,00
3397,12	1119,00
3400,78	942,00
3404,43	1003,00
3408,08	1054,00
3411,72	888,00
3415,36	942,00
3419,00	936,00
3422,64	826,00
3426,27	938,00
3429,90	978,00
3433,53	913,00
3437,15	851,00
3440,77	891,00
3444,39	917,00
3448,00	906,00
3451,62	953,00
3455,22	983,00
3458,83	795,00
3462,43	969,00
3466,03	997,00
3469,63	843,00
3473,22	920,00
3476,81	831,00
3480,40	1005,00
3483,99	840,00
3487,57	893,00
3491,15	905,00
3494,72	959,00
3498,29	1070,00
3501,86	884,00
3505,43	938,00
3508,99	879,00
3512,56	842,00
3516,11	917,00
3519,67	913,00
3523,22	1008,00
3526,77	888,00
3530,32	1132,00
3533,86	934,00
3537,40	994,00
3540,94	1042,00
3544,47	916,00
3548,00	842,00
3551,53	968,00
3555,06	889,00
3558,58	991,00
3562,10	992,00
3565,62	873,00
3569,13	913,00
3572,64	1068,00
3576,15	793,00
3579,66	886,00
3583,16	911,00
3586,66	940,00
3590,16	805,00
3593,65	819,00
3597,14	824,00
3600,63	840,00
3604,11	828,00
3607,60	830,00
3611,08	902,00
3614,55	940,00
3618,03	863,00
3621,50	781,00
3624,97	785,00
3628,43	868,00
3631,90	863,00
3635,36	723,00
3638,81	855,00
3642,27	917,00
3645,72	846,00
3649,17	794,00
3652,61	840,00
3656,06	805,00
3659,50	892,00
3662,93	809,00
3666,37	904,00
3669,80	1039,00
3673,23	861,00
3676,65	883,00
3680,08	980,00
3683,50	762,00
3686,92	813,00
3690,33	872,00
3693,74	796,00
3697,15	733,00
3700,56	903,00
3703,96	837,00
3707,36	660,00
3710,76	768,00
3714,16	721,00
3717,55	712,00
3720,94	775,00
3724,33	820,00
3727,71	787,00
3731,10	775,00
3734,48	815,00
3737,85	750,00
3741,23	790,00
3744,60	788,00
3747,97	708,00
3751,33	859,00
3754,69	836,00
3758,05	788,00
3761,41	731,00
3764,77	677,00
3768,12	627,00
3771,47	673,00
3774,82	670,00
3778,16	-2,00
3781,50	13,00
3784,84	8,00
3788,18	8,00
>>>>>End Processed Spectral Data<<<<<
