SpectraSuite Data File
++++++++++++++++++++++++++++++++++++
Date: Mon Jan 05 16:34:25 ICT 2026
User: Administrator
Dark Spectrum Present: Yes
Reference Spectrum Present: No
Number of Sampled Component Spectra: 1
Spectrometers: MAYP113682
Integration Time (usec): 3000000 (MAYP113682)
Spectra Averaged: 1 (MAYP113682)
Boxcar Smoothing: 0 (MAYP113682)
Correct for Electrical Dark: No (MAYP113682)
Strobe/Lamp Enabled: No (MAYP113682)
Correct for Detector Non-linearity: No (MAYP113682)
Correct for Stray Light: No (MAYP113682)
Number of Pixels in Processed Spectrum: 2068
>>>>>Begin Processed Spectral Data<<<<<
-37534,58	28,00
-37414,56	9,00
-37295,11	7,00
-37176,24	2,00
-37057,95	675,00
-36940,22	731,00
-36823,05	728,00
-36706,45	870,00
-36590,40	827,00
-36474,90	777,00
-36359,95	843,00
-36245,55	807,00
-36131,68	776,00
-36018,35	793,00
-35905,55	825,00
-35793,29	969,00
-35681,54	810,00
-35570,32	837,00
-35459,62	849,00
-35349,43	909,00
-35239,75	907,00
-35130,58	811,00
-35021,91	880,00
-34913,74	860,00
-34806,07	872,00
-34698,89	890,00
-34592,20	807,00
-34486,00	964,00
-34380,28	873,00
-34275,04	766,00
-34170,27	817,00
-34065,98	978,00
-33962,16	942,00
-33858,81	951,00
-33755,92	870,00
-33653,49	1071,00
-33551,52	1018,00
-33450,01	959,00
-33348,94	920,00
-33248,33	791,00
-33148,16	811,00
-33048,43	840,00
-32949,14	1130,00
-32850,29	987,00
-32751,87	899,00
-32653,89	927,00
-32556,33	974,00
-32459,20	833,00
-32362,49	936,00
-32266,19	818,00
-32170,32	887,00
-32074,86	1009,00
-31979,82	969,00
-31885,18	996,00
-31790,95	998,00
-31697,12	983,00
-31603,69	960,00
-31510,67	1051,00
-31418,04	1020,00
-31325,80	852,00
-31233,95	892,00
-31142,49	920,00
-31051,42	968,00
-30960,73	1051,00
-30870,43	1052,00
-30780,50	988,00
-30690,95	942,00
-30601,77	1072,00
-30512,97	965,00
-30424,53	886,00
-30336,46	919,00
-30248,76	888,00
-30161,42	1088,00
-30074,44	901,00
-29987,81	1048,00
-29901,55	1054,00
-29815,63	845,00
-29730,07	916,00
-29644,86	1028,00
-29560,00	961,00
-29475,48	948,00
-29391,30	914,00
-29307,47	849,00
-29223,97	904,00
-29140,81	920,00
-29057,99	1076,00
-28975,50	816,00
-28893,34	1089,00
-28811,51	922,00
-28730,00	1010,00
-28648,82	957,00
-28567,97	1007,00
-28487,43	872,00
-28407,21	965,00
-28327,32	851,00
-28247,73	1127,00
-28168,46	899,00
-28089,50	969,00
-28010,85	905,00
-27932,51	914,00
-27854,48	925,00
-27776,75	882,00
-27699,32	950,00
-27622,19	943,00
-27545,37	914,00
-27468,84	1006,00
-27392,60	1000,00
-27316,66	990,00
-27241,01	967,00
-27165,66	933,00
-27090,59	848,00
-27015,81	1038,00
-26941,31	1054,00
-26867,10	945,00
-26793,17	1106,00
-26719,52	1013,00
-26646,15	922,00
-26573,06	871,00
-26500,24	969,00
-26427,70	939,00
-26355,43	875,00
-26283,43	927,00
-26211,71	971,00
-26140,25	1009,00
-26069,06	1053,00
-25998,13	785,00
-25927,46	828,00
-25857,06	948,00
-25786,92	938,00
-25717,04	974,00
-25647,42	977,00
-25578,05	833,00
-25508,94	931,00
-25440,09	835,00
-25371,48	939,00
-25303,13	1072,00
-25235,02	996,00
-25167,17	942,00
-25099,56	914,00
-25032,19	896,00
-24965,07	806,00
-24898,20	812,00
-24831,56	896,00
-24765,17	1012,00
-24699,01	779,00
-24633,10	861,00
-24567,41	955,00
-24501,97	910,00
-24436,75	845,00
-24371,77	866,00
-24307,03	941,00
-24242,51	925,00
-24178,22	914,00
-24114,16	901,00
-24050,32	1005,00
-23986,71	910,00
-23923,32	978,00
-23860,16	982,00
-23797,22	986,00
-23734,50	956,00
-23672,00	932,00
-23609,71	920,00
-23547,65	856,00
-23485,80	1063,00
-23424,16	769,00
-23362,74	1101,00
-23301,53	902,00
-23240,54	804,00
-23179,75	854,00
-23119,17	874,00
-23058,80	879,00
-22998,64	975,00
-22938,68	976,00
-22878,93	912,00
-22819,39	823,00
-22760,04	905,00
-22700,90	844,00
-22641,96	921,00
-22583,22	972,00
-22524,68	876,00
-22466,33	857,00
-22408,19	876,00
-22350,23	864,00
-22292,48	888,00
-22234,92	1082,00
-22177,55	949,00
-22120,37	1046,00
-22063,38	875,00
-22006,58	835,00
-21949,98	960,00
-21893,56	796,00
-21837,33	930,00
-21781,28	960,00
-21725,42	877,00
-21669,74	1016,00
-21614,25	961,00
-21558,94	875,00
-21503,81	974,00
-21448,86	1004,00
-21394,10	841,00
-21339,51	874,00
-21285,10	776,00
-21230,86	869,00
-21176,81	824,00
-21122,93	820,00
-21069,22	828,00
-21015,69	890,00
-20962,33	929,00
-20909,14	794,00
-20856,13	909,00
-20803,28	1056,00
-20750,61	864,00
-20698,10	747,00
-20645,76	869,00
-20593,59	980,00
-20541,59	1021,00
-20489,75	995,00
-20438,07	831,00
-20386,56	941,00
-20335,22	817,00
-20284,03	827,00
-20233,01	887,00
-20182,15	878,00
-20131,45	899,00
-20080,91	845,00
-20030,52	927,00
-19980,30	899,00
-19930,23	772,00
-19880,32	976,00
-19830,56	851,00
-19780,96	865,00
-19731,52	850,00
-19682,23	990,00
-19633,09	805,00
-19584,10	830,00
-19535,26	865,00
-19486,58	1050,00
-19438,04	850,00
-19389,66	1020,00
-19341,42	853,00
-19293,33	820,00
-19245,39	910,00
-19197,60	1023,00
-19149,95	918,00
-19102,45	958,00
-19055,09	766,00
-19007,87	995,00
-18960,80	1008,00
-18913,87	910,00
-18867,09	861,00
-18820,44	1011,00
-18773,94	844,00
-18727,57	909,00
-18681,35	908,00
-18635,26	1009,00
-18589,31	810,00
-18543,50	867,00
-18497,83	888,00
-18452,29	919,00
-18406,89	823,00
-18361,63	987,00
-18316,50	971,00
-18271,50	919,00
-18226,63	992,00
-18181,90	923,00
-18137,30	982,00
-18092,84	853,00
-18048,50	1029,00
-18004,29	902,00
-17960,22	804,00
-17916,27	890,00
-17872,45	943,00
-17828,76	1027,00
-17785,20	903,00
-17741,77	921,00
-17698,46	837,00
-17655,28	856,00
-17612,22	918,00
-17569,29	846,00
-17526,48	965,00
-17483,79	1000,00
-17441,23	822,00
-17398,79	884,00
-17356,48	796,00
-17314,28	1116,00
-17272,21	983,00
-17230,26	978,00
-17188,42	938,00
-17146,71	928,00
-17105,12	817,00
-17063,64	941,00
-17022,28	804,00
-16981,04	868,00
-16939,92	981,00
-16898,91	1091,00
-16858,02	864,00
-16817,25	953,00
-16776,59	857,00
-16736,04	870,00
-16695,61	908,00
-16655,29	858,00
-16615,09	868,00
-16574,99	926,00
-16535,01	939,00
-16495,15	956,00
-16455,39	882,00
-16415,74	841,00
-16376,21	887,00
-16336,78	827,00
-16297,46	794,00
-16258,26	776,00
-16219,16	949,00
-16180,17	901,00
-16141,28	922,00
-16102,51	955,00
-16063,84	874,00
-16025,27	902,00
-15986,82	811,00
-15948,46	909,00
-15910,22	942,00
-15872,07	838,00
-15834,04	846,00
-15796,10	843,00
-15758,27	1082,00
-15720,54	836,00
-15682,91	894,00
-15645,39	1061,00
-15607,97	949,00
-15570,64	778,00
-15533,42	999,00
-15496,30	942,00
-15459,28	989,00
-15422,36	913,00
-15385,54	848,00
-15348,82	954,00
-15312,19	1097,00
-15275,66	832,00
-15239,23	953,00
-15202,90	878,00
-15166,67	849,00
-15130,53	947,00
-15094,48	944,00
-15058,54	895,00
-15022,68	871,00
-14986,93	807,00
-14951,26	1008,00
-14915,69	934,00
-14880,22	894,00
-14844,84	852,00
-14809,55	922,00
-14774,35	917,00
-14739,25	817,00
-14704,24	927,00
-14669,32	923,00
-14634,49	853,00
-14599,75	956,00
-14565,10	907,00
-14530,55	956,00
-14496,08	999,00
-14461,70	942,00
-14427,41	903,00
-14393,21	838,00
-14359,10	834,00
-14325,07	918,00
-14291,14	915,00
-14257,29	879,00
-14223,52	919,00
-14189,85	1026,00
-14156,26	866,00
-14122,76	803,00
-14089,34	811,00
-14056,01	960,00
-14022,76	887,00
-13989,60	916,00
-13956,52	1024,00
-13923,53	927,00
-13890,62	845,00
-13857,79	859,00
-13825,05	850,00
-13792,39	859,00
-13759,81	949,00
-13727,31	932,00
-13694,90	856,00
-13662,57	950,00
-13630,31	960,00
-13598,14	891,00
-13566,05	873,00
-13534,05	903,00
-13502,12	902,00
-13470,27	833,00
-13438,50	1009,00
-13406,80	803,00
-13375,19	910,00
-13343,66	913,00
-13312,20	964,00
-13280,83	854,00
-13249,53	856,00
-13218,30	790,00
-13187,16	858,00
-13156,09	1030,00
-13125,10	917,00
-13094,18	940,00
-13063,34	970,00
-13032,58	856,00
-13001,89	911,00
-12971,28	943,00
-12940,74	929,00
-12910,27	916,00
-12879,88	940,00
-12849,57	935,00
-12819,33	968,00
-12789,16	1020,00
-12759,06	884,00
-12729,04	949,00
-12699,09	2479,00
-12669,21	829,00
-12639,41	917,00
-12609,68	853,00
-12580,02	951,00
-12550,43	1017,00
-12520,91	783,00
-12491,46	872,00
-12462,08	772,00
-12432,77	896,00
-12403,54	816,00
-12374,37	877,00
-12345,27	966,00
-12316,24	840,00
-12287,29	940,00
-12258,40	881,00
-12229,57	1008,00
-12200,82	872,00
-12172,14	891,00
-12143,52	789,00
-12114,97	840,00
-12086,49	875,00
-12058,07	980,00
-12029,73	867,00
-12001,44	1022,00
-11973,23	867,00
-11945,08	944,00
-11917,00	1019,00
-11888,98	917,00
-11861,03	1007,00
-11833,15	924,00
-11805,32	1039,00
-11777,57	904,00
-11749,88	950,00
-11722,25	844,00
-11694,69	825,00
-11667,19	891,00
-11639,75	968,00
-11612,38	916,00
-11585,07	922,00
-11557,83	874,00
-11530,65	1040,00
-11503,53	861,00
-11476,47	949,00
-11449,48	876,00
-11422,54	1050,00
-11395,67	987,00
-11368,86	981,00
-11342,11	877,00
-11315,43	937,00
-11288,80	795,00
-11262,23	989,00
-11235,73	845,00
-11209,28	1147,00
-11182,90	850,00
-11156,57	871,00
-11130,31	1014,00
-11104,10	933,00
-11077,96	917,00
-11051,87	919,00
-11025,84	878,00
-10999,87	896,00
-10973,96	950,00
-10948,11	816,00
-10922,31	1028,00
-10896,58	978,00
-10870,90	1025,00
-10845,28	933,00
-10819,71	912,00
-10794,20	874,00
-10768,75	1008,00
-10743,36	954,00
-10718,02	851,00
-10692,74	955,00
-10667,52	916,00
-10642,35	965,00
-10617,24	1044,00
-10592,18	981,00
-10567,18	924,00
-10542,23	1038,00
-10517,34	1055,00
-10492,51	1024,00
-10467,72	920,00
-10443,00	982,00
-10418,32	999,00
-10393,70	1068,00
-10369,14	932,00
-10344,63	902,00
-10320,17	1130,00
-10295,77	1032,00
-10271,42	1051,00
-10247,12	1093,00
-10222,88	1161,00
-10198,68	1011,00
-10174,54	1123,00
-10150,46	1238,00
-10126,42	1244,00
-10102,44	1153,00
-10078,51	1111,00
-10054,63	1257,00
-10030,80	1213,00
-10007,03	1394,00
-9983,30	1213,00
-9959,63	1247,00
-9936,01	1416,00
-9912,44	1343,00
-9888,92	1364,00
-9865,44	1268,00
-9842,02	1364,00
-9818,65	1457,00
-9795,33	1236,00
-9772,06	1449,00
-9748,84	1394,00
-9725,67	1441,00
-9702,55	1631,00
-9679,47	1845,00
-9656,45	1898,00
-9633,47	1706,00
-9610,55	1912,00
-9587,67	2006,00
-9564,84	2234,00
-9542,06	2185,00
-9519,32	2409,00
-9496,64	2544,00
-9474,00	2489,00
-9451,41	2586,00
-9428,87	2740,00
-9406,37	2649,00
-9383,92	2468,00
-9361,52	2496,00
-9339,17	2719,00
-9316,86	2923,00
-9294,60	3351,00
-9272,38	3569,00
-9250,21	3828,00
-9228,09	3967,00
-9206,01	3823,00
-9183,98	3654,00
-9162,00	3268,00
-9140,06	3441,00
-9118,16	3300,00
-9096,31	3398,00
-9074,51	3550,00
-9052,75	3697,00
-9031,04	3612,00
-9009,37	3296,00
-8987,74	2990,00
-8966,16	2768,00
-8944,63	2590,00
-8923,14	2615,00
-8901,69	2657,00
-8880,29	2600,00
-8858,93	3022,00
-8837,61	3221,00
-8816,34	3354,00
-8795,11	3266,00
-8773,92	3034,00
-8752,78	2800,00
-8731,68	2655,00
-8710,62	2778,00
-8689,61	2731,00
-8668,63	2869,00
-8647,70	3114,00
-8626,82	3169,00
-8605,97	3037,00
-8585,17	3003,00
-8564,41	2673,00
-8543,69	2662,00
-8523,01	2488,00
-8502,37	2597,00
-8481,78	2662,00
-8461,23	2620,00
-8440,71	2959,00
-8420,24	2990,00
-8399,81	3326,00
-8379,42	3071,00
-8359,08	3052,00
-8338,77	2647,00
-8318,50	2548,00
-8298,27	2468,00
-8278,09	2720,00
-8257,94	2625,00
-8237,83	2908,00
-8217,76	2931,00
-8197,74	2943,00
-8177,75	2975,00
-8157,80	2709,00
-8137,89	2501,00
-8118,02	2395,00
-8098,19	2585,00
-8078,40	2446,00
-8058,65	2506,00
-8038,93	2428,00
-8019,26	2518,00
-7999,62	2548,00
-7980,02	2344,00
-7960,46	2246,00
-7940,94	2144,00
-7921,46	2115,00
-7902,01	2049,00
-7882,60	2391,00
-7863,23	2163,00
-7843,90	2177,00
-7824,61	2297,00
-7805,35	2476,00
-7786,13	2323,00
-7766,95	2356,00
-7747,80	2370,00
-7728,69	2266,00
-7709,62	2306,00
-7690,59	2359,00
-7671,59	2503,00
-7652,63	2414,00
-7633,70	2379,00
-7614,81	2463,00
-7595,96	2114,00
-7577,15	2121,00
-7558,37	2066,00
-7539,62	2206,00
-7520,91	2204,00
-7502,24	2320,00
-7483,60	2432,00
-7465,00	2173,00
-7446,44	2205,00
-7427,91	1790,00
-7409,41	1760,00
-7390,95	1751,00
-7372,53	1612,00
-7354,14	1771,00
-7335,78	1707,00
-7317,46	1781,00
-7299,18	1800,00
-7280,92	1999,00
-7262,71	2331,00
-7244,52	2284,00
-7226,38	2238,00
-7208,26	2135,00
-7190,18	2012,00
-7172,14	2035,00
-7154,12	1979,00
-7136,15	1953,00
-7118,20	2170,00
-7100,29	2205,00
-7082,41	2161,00
-7064,57	2125,00
-7046,76	1984,00
-7028,98	1845,00
-7011,24	1776,00
-6993,53	1568,00
-6975,85	1589,00
-6958,20	1550,00
-6940,59	1439,00
-6923,01	1346,00
-6905,46	1638,00
-6887,94	1685,00
-6870,46	2204,00
-6853,01	2055,00
-6835,59	2064,00
-6818,21	1887,00
-6800,85	1781,00
-6783,53	1536,00
-6766,24	1404,00
-6748,98	1394,00
-6731,76	1347,00
-6714,56	1293,00
-6697,40	1155,00
-6680,26	1277,00
-6663,16	1356,00
-6646,09	1598,00
-6629,05	1720,00
-6612,05	1791,00
-6595,07	1676,00
-6578,13	1747,00
-6561,21	1511,00
-6544,33	1385,00
-6527,47	1217,00
-6510,65	1267,00
-6493,86	1092,00
-6477,10	1149,00
-6460,36	1258,00
-6443,66	1166,00
-6426,99	1144,00
-6410,35	1205,00
-6393,74	1261,00
-6377,16	1237,00
-6360,61	1406,00
-6344,09	1328,00
-6327,59	1415,00
-6311,13	1532,00
-6294,70	1504,00
-6278,29	1432,00
-6261,92	1549,00
-6245,58	1664,00
-6229,26	1758,00
-6212,97	1597,00
-6196,72	1338,00
-6180,49	1308,00
-6164,29	1046,00
-6148,12	1159,00
-6131,98	1165,00
-6115,86	1077,00
-6099,78	974,00
-6083,72	935,00
-6067,69	938,00
-6051,69	1014,00
-6035,72	1060,00
-6019,78	1089,00
-6003,87	1373,00
-5987,98	1409,00
-5972,12	1411,00
-5956,29	1427,00
-5940,49	1300,00
-5924,71	1396,00
-5908,96	1155,00
-5893,24	1062,00
-5877,55	1149,00
-5861,89	1178,00
-5846,25	990,00
-5830,64	1210,00
-5815,05	1065,00
-5799,50	1050,00
-5783,97	1141,00
-5768,47	1241,00
-5752,99	1432,00
-5737,55	1285,00
-5722,12	1414,00
-5706,73	1418,00
-5691,36	1369,00
-5676,02	1181,00
-5660,71	1138,00
-5645,42	1012,00
-5630,16	1134,00
-5614,92	1255,00
-5599,71	1174,00
-5584,53	1217,00
-5569,37	1196,00
-5554,24	2248,00
-5539,14	1110,00
-5524,06	1128,00
-5509,01	1213,00
-5493,98	1146,00
-5478,98	1175,00
-5464,00	1138,00
-5449,05	1089,00
-5434,13	1169,00
-5419,23	973,00
-5404,36	1073,00
-5389,51	1131,00
-5374,69	1309,00
-5359,89	1475,00
-5345,12	1508,00
-5330,37	1662,00
-5315,65	1312,00
-5300,95	1234,00
-5286,28	1120,00
-5271,63	1033,00
-5257,01	1219,00
-5242,41	1210,00
-5227,84	1112,00
-5213,29	1051,00
-5198,76	1035,00
-5184,26	1019,00
-5169,79	1103,00
-5155,33	1147,00
-5140,91	1204,00
-5126,51	1183,00
-5112,13	1162,00
-5097,77	1229,00
-5083,44	1220,00
-5069,13	985,00
-5054,85	1074,00
-5040,59	1123,00
-5026,36	1155,00
-5012,15	1278,00
-4997,96	1242,00
-4983,80	1132,00
-4969,66	1041,00
-4955,54	1016,00
-4941,44	1160,00
-4927,37	1149,00
-4913,33	1383,00
-4899,30	1326,00
-4885,30	1464,00
-4871,33	1205,00
-4857,37	1033,00
-4843,44	960,00
-4829,53	1130,00
-4815,65	1092,00
-4801,79	972,00
-4787,95	1161,00
-4774,13	1104,00
-4760,34	994,00
-4746,56	1106,00
-4732,82	907,00
-4719,09	1117,00
-4705,38	1418,00
-4691,70	1379,00
-4678,04	1427,00
-4664,41	1343,00
-4650,79	1268,00
-4637,20	1012,00
-4623,63	1034,00
-4610,08	1300,00
-4596,56	1183,00
-4583,05	1095,00
-4569,57	1076,00
-4556,11	1127,00
-4542,67	909,00
-4529,25	1003,00
-4515,86	1119,00
-4502,49	1237,00
-4489,13	1357,00
-4475,80	1308,00
-4462,49	1031,00
-4449,21	1093,00
-4435,94	987,00
-4422,70	906,00
-4409,47	1014,00
-4396,27	1170,00
-4383,09	1009,00
-4369,93	1059,00
-4356,79	919,00
-4343,67	1026,00
-4330,58	1125,00
-4317,50	1172,00
-4304,45	1128,00
-4291,41	1108,00
-4278,40	937,00
-4265,41	950,00
-4252,44	1026,00
-4239,49	913,00
-4226,55	1108,00
-4213,65	1022,00
-4200,76	1085,00
-4187,89	920,00
-4175,04	880,00
-4162,21	844,00
-4149,40	987,00
-4136,61	972,00
-4123,85	913,00
-4111,10	921,00
-4098,37	1043,00
-4085,66	1024,00
-4072,98	998,00
-4060,31	925,00
-4047,66	968,00
-4035,04	1169,00
-4022,43	917,00
-4009,84	946,00
-3997,27	832,00
-3984,72	961,00
-3972,19	953,00
-3959,69	873,00
-3947,20	889,00
-3934,73	900,00
-3922,27	879,00
-3909,84	874,00
-3897,43	979,00
-3885,04	961,00
-3872,67	884,00
-3860,31	866,00
-3847,98	1087,00
-3835,66	851,00
-3823,36	1002,00
-3811,09	942,00
-3798,83	946,00
-3786,59	941,00
-3774,37	984,00
-3762,17	896,00
-3749,98	950,00
-3737,82	887,00
-3725,67	1053,00
-3713,55	839,00
-3701,44	1018,00
-3689,35	938,00
-3677,28	1042,00
-3665,22	891,00
-3653,19	889,00
-3641,17	885,00
-3629,18	1020,00
-3617,20	952,00
-3605,24	880,00
-3593,30	999,00
-3581,37	1030,00
-3569,47	990,00
-3557,58	958,00
-3545,71	965,00
-3533,86	887,00
-3522,02	850,00
-3510,21	1036,00
-3498,41	947,00
-3486,63	991,00
-3474,87	851,00
-3463,12	854,00
-3451,40	1008,00
-3439,69	880,00
-3428,00	836,00
-3416,33	935,00
-3404,67	849,00
-3393,03	920,00
-3381,41	1034,00
-3369,81	931,00
-3358,22	930,00
-3346,66	961,00
-3335,10	991,00
-3323,57	839,00
-3312,06	1057,00
-3300,56	904,00
-3289,08	855,00
-3277,61	896,00
-3266,16	1001,00
-3254,73	932,00
-3243,32	868,00
-3231,92	907,00
-3220,55	994,00
-3209,18	1064,00
-3197,84	896,00
-3186,51	869,00
-3175,20	801,00
-3163,90	874,00
-3152,63	1055,00
-3141,36	918,00
-3130,12	878,00
-3118,89	1044,00
-3107,68	877,00
-3096,49	1001,00
-3085,31	970,00
-3074,15	951,00
-3063,00	950,00
-3051,87	934,00
-3040,76	838,00
-3029,67	1073,00
-3018,59	1209,00
-3007,52	1081,00
-2996,48	880,00
-2985,44	944,00
-2974,43	929,00
-2963,43	853,00
-2952,45	949,00
-2941,48	936,00
-2930,53	993,00
-2919,60	822,00
-2908,68	911,00
-2897,78	921,00
-2886,89	1006,00
-2876,02	887,00
-2865,17	920,00
-2854,33	960,00
-2843,50	991,00
-2832,70	983,00
-2821,90	994,00
-2811,13	915,00
-2800,37	940,00
-2789,62	823,00
-2778,89	1038,00
-2768,18	1002,00
-2757,48	888,00
-2746,80	1025,00
-2736,13	875,00
-2725,48	937,00
-2714,84	860,00
-2704,22	894,00
-2693,61	862,00
-2683,02	954,00
-2672,45	941,00
-2661,89	954,00
-2651,34	987,00
-2640,81	949,00
-2630,30	1019,00
-2619,80	899,00
-2609,31	955,00
-2598,84	899,00
-2588,39	908,00
-2577,95	885,00
-2567,52	915,00
-2557,11	865,00
-2546,71	988,00
-2536,33	1053,00
-2525,97	904,00
-2515,62	1033,00
-2505,28	931,00
-2494,96	867,00
-2484,65	914,00
-2474,36	1303,00
-2464,08	877,00
-2453,82	1063,00
-2443,57	1015,00
-2433,33	851,00
-2423,11	963,00
-2412,91	972,00
-2402,72	926,00
-2392,54	910,00
-2382,38	995,00
-2372,23	1019,00
-2362,09	1957,00
-2351,97	824,00
-2341,87	814,00
-2331,78	961,00
-2321,70	975,00
-2311,64	924,00
-2301,59	922,00
-2291,55	875,00
-2281,53	1005,00
-2271,53	848,00
-2261,53	1058,00
-2251,55	921,00
-2241,59	941,00
-2231,64	901,00
-2221,70	898,00
-2211,78	922,00
-2201,87	934,00
-2191,97	981,00
-2182,09	1002,00
-2172,22	976,00
-2162,37	939,00
-2152,53	889,00
-2142,70	915,00
-2132,89	845,00
-2123,09	1013,00
-2113,30	952,00
-2103,53	915,00
-2093,77	994,00
-2084,02	849,00
-2074,29	1004,00
-2064,57	965,00
-2054,86	995,00
-2045,17	992,00
-2035,49	1035,00
-2025,82	831,00
-2016,17	890,00
-2006,53	938,00
-1996,91	934,00
-1987,29	793,00
-1977,69	942,00
-1968,11	880,00
-1958,53	881,00
-1948,97	924,00
-1939,42	893,00
-1929,89	872,00
-1920,37	899,00
-1910,86	924,00
-1901,36	963,00
-1891,88	969,00
-1882,41	978,00
-1872,95	943,00
-1863,51	995,00
-1854,08	949,00
-1844,66	992,00
-1835,26	1051,00
-1825,86	953,00
-1816,48	808,00
-1807,11	924,00
-1797,76	963,00
-1788,42	1025,00
-1779,09	929,00
-1769,77	967,00
-1760,47	1074,00
-1751,17	900,00
-1741,89	919,00
-1732,63	1010,00
-1723,37	1079,00
-1714,13	1113,00
-1704,90	926,00
-1695,68	1092,00
-1686,48	885,00
-1677,29	956,00
-1668,11	1094,00
-1658,94	875,00
-1649,78	906,00
-1640,64	996,00
-1631,51	893,00
-1622,39	1015,00
-1613,28	934,00
-1604,19	1068,00
-1595,10	953,00
-1586,03	909,00
-1576,97	959,00
-1567,93	948,00
-1558,89	963,00
-1549,87	927,00
-1540,86	940,00
-1531,86	962,00
-1522,87	908,00
-1513,90	1004,00
-1504,93	1070,00
-1495,98	1063,00
-1487,04	1016,00
-1478,12	850,00
-1469,20	921,00
-1460,30	1004,00
-1451,40	1095,00
-1442,52	940,00
-1433,65	1085,00
-1424,80	920,00
-1415,95	913,00
-1407,12	1219,00
-1398,30	963,00
-1389,48	947,00
-1380,69	933,00
-1371,90	951,00
-1363,12	1026,00
-1354,36	1128,00
-1345,60	904,00
-1336,86	989,00
-1328,13	1093,00
-1319,41	920,00
-1310,70	912,00
-1302,01	1015,00
-1293,32	830,00
-1284,65	923,00
-1275,99	1024,00
-1267,33	1042,00
-1258,69	988,00
-1250,06	915,00
-1241,45	823,00
-1232,84	1164,00
-1224,25	997,00
-1215,66	945,00
-1207,09	959,00
-1198,53	931,00
-1189,97	907,00
-1181,43	867,00
-1172,91	978,00
-1164,39	1052,00
-1155,88	827,00
-1147,38	796,00
-1138,90	871,00
-1130,43	852,00
-1121,96	966,00
-1113,51	935,00
-1105,07	959,00
-1096,64	995,00
-1088,22	985,00
-1079,81	1014,00
-1071,41	1069,00
-1063,02	936,00
-1054,65	1087,00
-1046,28	953,00
-1037,92	998,00
-1029,58	966,00
-1021,24	913,00
-1012,92	1237,00
-1004,61	941,00
-996,30	1092,00
-988,01	824,00
-979,73	940,00
-971,46	1004,00
-963,20	921,00
-954,95	856,00
-946,71	946,00
-938,48	957,00
-930,26	1025,00
-922,06	902,00
-913,86	944,00
-905,67	897,00
-897,49	1053,00
-889,33	772,00
-881,17	992,00
-873,02	970,00
-864,89	809,00
-856,76	915,00
-848,65	987,00
-840,54	1070,00
-832,45	991,00
-824,36	832,00
-816,29	979,00
-808,22	1026,00
-800,17	986,00
-792,12	955,00
-784,09	1066,00
-776,06	885,00
-768,05	1023,00
-760,04	905,00
-752,05	931,00
-744,07	936,00
-736,09	1043,00
-728,13	845,00
-720,17	867,00
-712,23	963,00
-704,29	873,00
-696,37	985,00
-688,45	1049,00
-680,55	869,00
-672,65	923,00
-664,77	964,00
-656,89	971,00
-649,03	908,00
-641,17	1000,00
-633,32	950,00
-625,49	955,00
-617,66	895,00
-609,84	986,00
-602,03	887,00
-594,23	947,00
-586,45	951,00
-578,67	895,00
-570,90	890,00
-563,14	880,00
-555,39	1104,00
-547,65	953,00
-539,91	963,00
-532,19	1027,00
-524,48	968,00
-516,78	953,00
-509,08	1036,00
-501,40	910,00
-493,72	924,00
-486,06	863,00
-478,40	1099,00
-470,76	829,00
-463,12	912,00
-455,49	955,00
-447,87	871,00
-440,26	925,00
-432,66	819,00
-425,07	947,00
-417,49	980,00
-409,92	773,00
-402,35	861,00
-394,80	923,00
-387,25	1028,00
-379,72	1065,00
-372,19	1078,00
-364,67	1046,00
-357,17	928,00
-349,67	1016,00
-342,18	897,00
-334,69	1032,00
-327,22	980,00
-319,76	935,00
-312,30	936,00
-304,86	971,00
-297,42	910,00
-290,00	903,00
-282,58	973,00
-275,17	1080,00
-267,77	1130,00
-260,37	927,00
-252,99	1055,00
-245,62	1045,00
-238,25	943,00
-230,90	970,00
-223,55	1077,00
-216,21	1042,00
-208,88	1134,00
-201,56	989,00
-194,25	1038,00
-186,94	1048,00
-179,65	1111,00
-172,36	1089,00
-165,08	1143,00
-157,81	1179,00
-150,55	1203,00
-143,30	1259,00
-136,06	1320,00
-128,82	1359,00
-121,60	1401,00
-114,38	1499,00
-107,17	1556,00
-99,97	1817,00
-92,78	1656,00
-85,60	1790,00
-78,42	1928,00
-71,25	2144,00
-64,10	2273,00
-56,95	2615,00
-49,81	2962,00
-42,67	3616,00
-35,55	4112,00
-28,43	5288,00
-21,33	8132,00
-14,23	25114,00
-7,14	57498,00
-0,05	57284,00
7,02	57012,00
14,09	57319,00
21,14	21327,00
28,19	9415,00
35,23	6347,00
42,27	5170,00
49,29	4174,00
56,31	3618,00
63,32	3284,00
70,32	2886,00
77,31	2512,00
84,29	2220,00
91,27	2260,00
98,23	2185,00
105,19	2087,00
112,14	2264,00
119,09	3083,00
126,02	4436,00
132,95	5130,00
139,87	5168,00
146,78	5395,00
153,68	5199,00
160,58	5086,00
167,46	4857,00
174,34	5198,00
181,21	4969,00
188,08	4862,00
194,93	4945,00
201,78	4984,00
208,62	5044,00
215,45	4991,00
222,27	4907,00
229,09	4964,00
235,90	4748,00
242,70	4830,00
249,49	4912,00
256,27	4617,00
263,05	4599,00
269,82	4523,00
276,58	4494,00
283,33	4333,00
290,08	4440,00
296,82	4351,00
303,55	4172,00
310,27	4147,00
316,98	4116,00
323,69	4163,00
330,39	4021,00
337,08	4174,00
343,76	4109,00
350,44	4125,00
357,11	4090,00
363,77	4128,00
370,42	4075,00
377,07	4105,00
383,71	4109,00
390,34	4055,00
396,96	4057,00
403,58	4027,00
410,19	4323,00
416,79	4301,00
423,38	4335,00
429,97	4432,00
436,55	4169,00
443,12	4385,00
449,68	4389,00
456,24	4270,00
462,79	4164,00
469,33	3963,00
475,86	3714,00
482,39	3707,00
488,91	3767,00
495,42	3608,00
501,93	3664,00
508,42	3493,00
514,91	3616,00
521,40	3449,00
527,87	3492,00
534,34	3362,00
540,80	3418,00
547,25	3456,00
553,70	3453,00
560,14	3477,00
566,57	3541,00
573,00	3443,00
579,41	3557,00
585,83	3589,00
592,23	3655,00
598,62	3689,00
605,01	3745,00
611,40	3837,00
617,77	3826,00
624,14	3615,00
630,50	3527,00
636,85	3378,00
643,20	3436,00
649,54	3258,00
655,87	3261,00
662,20	3288,00
668,52	3184,00
674,83	3258,00
681,13	3110,00
687,43	3230,00
693,72	3107,00
700,00	2988,00
706,28	3044,00
712,55	3069,00
718,81	3188,00
725,07	3062,00
731,32	2947,00
737,56	3112,00
743,79	3107,00
750,02	3091,00
756,24	2884,00
762,46	2957,00
768,67	3294,00
774,87	2919,00
781,06	2878,00
787,25	2997,00
793,43	2975,00
799,60	2969,00
805,77	2998,00
811,93	2973,00
818,08	2879,00
824,23	2970,00
830,37	3197,00
836,50	2922,00
842,63	3040,00
848,75	2962,00
854,87	2967,00
860,97	3010,00
867,07	2942,00
873,17	2960,00
879,25	2947,00
885,33	3039,00
891,41	2984,00
897,47	2992,00
903,53	2897,00
909,59	3011,00
915,63	2779,00
921,67	2890,00
927,71	2919,00
933,74	2831,00
939,76	2662,00
945,77	2751,00
951,78	2875,00
957,78	2698,00
963,78	2770,00
969,77	2794,00
975,75	2692,00
981,72	2649,00
987,69	4037,00
993,66	2796,00
999,61	2868,00
1005,56	2743,00
1011,51	2797,00
1017,44	2678,00
1023,37	2774,00
1029,30	2765,00
1035,22	2907,00
1041,13	2806,00
1047,03	3074,00
1052,93	3527,00
1058,83	4785,00
1064,71	5334,00
1070,59	4530,00
1076,47	3820,00
1082,33	3599,00
1088,20	3439,00
1094,05	3229,00
1099,90	2940,00
1105,74	2978,00
1111,58	3013,00
1117,41	3343,00
1123,23	4209,00
1129,05	5100,00
1134,86	4641,00
1140,67	3658,00
1146,47	3004,00
1152,26	2996,00
1158,05	2856,00
1163,83	2928,00
1169,60	3122,00
1175,37	2924,00
1181,13	2803,00
1186,89	2644,00
1192,64	2612,00
1198,38	2837,00
1204,12	2532,00
1209,85	2588,00
1215,58	2553,00
1221,30	2651,00
1227,02	2671,00
1232,72	2534,00
1238,43	2552,00
1244,12	2578,00
1249,81	2637,00
1255,50	2847,00
1261,17	2800,00
1266,85	2841,00
1272,51	2883,00
1278,17	3026,00
1283,83	3263,00
1289,47	4862,00
1295,12	6252,00
1300,75	5701,00
1306,38	4495,00
1312,01	3643,00
1317,63	3191,00
1323,24	2993,00
1328,85	2838,00
1334,45	2678,00
1340,04	2736,00
1345,63	2804,00
1351,22	2925,00
1356,80	2744,00
1362,37	2952,00
1367,93	2906,00
1373,49	2906,00
1379,05	2808,00
1384,60	2707,00
1390,14	2729,00
1395,68	2730,00
1401,21	2738,00
1406,74	2984,00
1412,26	3541,00
1417,77	4117,00
1423,28	4076,00
1428,78	4506,00
1434,28	5495,00
1439,77	6272,00
1445,26	6197,00
1450,74	5745,00
1456,22	5327,00
1461,68	5163,00
1467,15	4772,00
1472,61	4056,00
1478,06	3748,00
1483,51	3162,00
1488,95	2896,00
1494,38	2874,00
1499,81	2603,00
1505,24	2516,00
1510,65	2579,00
1516,07	2567,00
1521,48	2473,00
1526,88	2368,00
1532,27	2444,00
1537,67	2362,00
1543,05	2432,00
1548,43	2295,00
1553,81	2448,00
1559,18	2272,00
1564,54	2279,00
1569,90	2301,00
1575,25	2114,00
1580,60	2188,00
1585,94	2188,00
1591,28	2171,00
1596,61	2086,00
1601,93	2238,00
1607,25	2308,00
1612,57	2154,00
1617,88	2205,00
1623,18	2167,00
1628,48	2100,00
1633,77	2064,00
1639,06	2184,00
1644,34	2122,00
1649,62	1983,00
1654,89	2143,00
1660,16	2012,00
1665,42	2300,00
1670,67	2078,00
1675,92	1921,00
1681,17	2109,00
1686,41	2078,00
1691,64	2169,00
1696,87	2076,00
1702,10	1940,00
1707,32	2021,00
1712,53	1960,00
1717,74	1978,00
1722,94	2111,00
1728,14	1941,00
1733,33	1893,00
1738,52	1839,00
1743,70	2000,00
1748,88	1896,00
1754,05	2042,00
1759,22	1889,00
1764,38	1153,00
1769,53	1908,00
1774,69	2040,00
1779,83	1950,00
1784,97	1838,00
1790,11	1889,00
1795,24	1874,00
1800,36	1904,00
1805,48	1805,00
1810,60	1849,00
1815,71	1816,00
1820,82	1747,00
1825,92	1905,00
1831,01	1879,00
1836,10	1754,00
1841,19	1846,00
1846,26	1682,00
1851,34	1809,00
1856,41	1878,00
1861,47	1791,00
1866,53	1827,00
1871,59	1740,00
1876,64	1765,00
1881,68	1755,00
1886,72	1714,00
1891,76	1726,00
1896,79	1753,00
1901,81	1546,00
1906,83	1801,00
1911,85	1705,00
1916,86	1642,00
1921,86	1629,00
1926,86	1641,00
1931,86	1753,00
1936,85	1626,00
1941,83	1561,00
1946,81	1670,00
1951,79	1552,00
1956,76	1585,00
1961,72	1446,00
1966,68	1576,00
1971,64	1571,00
1976,59	1615,00
1981,54	1497,00
1986,48	1722,00
1991,42	1459,00
1996,35	1828,00
2001,27	1507,00
2006,20	1628,00
2011,11	1546,00
2016,03	1566,00
2020,93	1453,00
2025,84	1510,00
2030,73	1507,00
2035,63	1392,00
2040,52	1571,00
2045,40	1473,00
2050,28	1560,00
2055,15	1552,00
2060,02	1353,00
2064,89	1555,00
2069,75	1614,00
2074,60	1577,00
2079,46	1356,00
2084,30	1416,00
2089,14	1394,00
2093,98	1460,00
2098,81	1437,00
2103,64	1530,00
2108,46	1505,00
2113,28	1494,00
2118,09	1503,00
2122,90	1472,00
2127,70	1383,00
2132,50	1543,00
2137,30	1372,00
2142,09	1280,00
2146,87	1398,00
2151,66	1476,00
2156,43	1402,00
2161,20	1408,00
2165,97	1580,00
2170,73	1462,00
2175,49	1514,00
2180,24	1616,00
2184,99	1618,00
2189,74	1598,00
2194,48	1542,00
2199,21	1609,00
2203,94	1456,00
2208,67	1389,00
2213,39	1335,00
2218,11	1412,00
2222,82	1433,00
2227,53	1378,00
2232,23	1340,00
2236,93	1484,00
2241,63	1330,00
2246,32	1465,00
2251,00	1479,00
2255,68	1381,00
2260,36	1356,00
2265,03	1457,00
2269,70	1543,00
2274,36	1365,00
2279,02	1454,00
2283,68	1385,00
2288,33	1409,00
2292,97	1390,00
2297,61	1437,00
2302,25	1407,00
2306,88	1259,00
2311,51	1232,00
2316,14	1377,00
2320,75	1235,00
2325,37	1169,00
2329,98	1400,00
2334,59	1334,00
2339,19	1314,00
2343,79	1172,00
2348,38	1377,00
2352,97	1217,00
2357,55	1461,00
2362,13	1240,00
2366,71	1181,00
2371,28	1403,00
2375,85	1326,00
2380,41	1367,00
2384,97	1288,00
2389,52	1396,00
2394,07	1306,00
2398,62	1223,00
2403,16	1343,00
2407,70	1149,00
2412,23	1224,00
2416,76	1354,00
2421,29	1287,00
2425,81	1399,00
2430,32	1288,00
2434,84	1174,00
2439,34	1303,00
2443,85	1460,00
2448,35	1270,00
2452,84	1238,00
2457,33	1274,00
2461,82	1115,00
2466,30	1149,00
2470,78	1271,00
2475,25	1284,00
2479,72	1277,00
2484,19	1222,00
2488,65	1316,00
2493,11	1182,00
2497,56	1417,00
2502,01	1176,00
2506,46	1318,00
2510,90	1234,00
2515,34	1091,00
2519,77	1286,00
2524,20	1208,00
2528,62	1235,00
2533,04	1304,00
2537,46	1284,00
2541,87	1239,00
2546,28	1205,00
2550,68	1289,00
2555,08	1327,00
2559,48	1231,00
2563,87	1202,00
2568,26	1154,00
2572,64	1355,00
2577,02	1360,00
2581,40	1108,00
2585,77	1307,00
2590,14	1219,00
2594,50	1165,00
2598,86	1240,00
2603,22	1306,00
2607,57	1205,00
2611,92	1294,00
2616,26	1410,00
2620,60	1334,00
2624,94	1294,00
2629,27	1304,00
2633,60	1234,00
2637,92	1362,00
2642,24	1424,00
2646,56	1329,00
2650,87	1231,00
2655,18	1369,00
2659,48	1208,00
2663,78	1224,00
2668,08	1278,00
2672,37	1380,00
2676,66	1288,00
2680,95	1264,00
2685,23	1427,00
2689,50	1394,00
2693,78	1358,00
2698,05	1349,00
2702,31	1437,00
2706,57	1517,00
2710,83	1553,00
2715,08	1571,00
2719,33	1664,00
2723,58	1712,00
2727,82	1620,00
2732,06	1608,00
2736,29	1519,00
2740,53	1561,00
2744,75	1519,00
2748,97	1471,00
2753,19	1440,00
2757,41	1429,00
2761,62	1495,00
2765,83	1477,00
2770,03	1391,00
2774,23	1496,00
2778,43	1364,00
2782,62	1600,00
2786,81	1471,00
2791,00	1548,00
2795,18	1644,00
2799,35	1570,00
2803,53	1628,00
2807,70	1720,00
2811,86	1666,00
2816,03	1913,00
2820,19	1831,00
2824,34	1943,00
2828,49	2084,00
2832,64	2430,00
2836,78	2771,00
2840,92	3161,00
2845,06	3821,00
2849,19	4300,00
2853,32	4329,00
2857,45	4416,00
2861,57	4297,00
2865,69	4214,00
2869,80	4048,00
2873,91	4205,00
2878,02	4579,00
2882,12	5035,00
2886,22	5032,00
2890,32	4755,00
2894,41	4546,00
2898,50	4102,00
2902,58	3852,00
2906,67	3699,00
2910,74	3372,00
2914,82	3149,00
2918,89	3130,00
2922,96	2817,00
2927,02	2645,00
2931,08	2511,00
2935,13	2272,00
2939,19	2302,00
2943,24	2112,00
2947,28	2061,00
2951,32	1865,00
2955,36	1663,00
2959,40	1777,00
2963,43	1595,00
2967,46	1568,00
2971,48	1496,00
2975,50	1479,00
2979,52	1514,00
2983,53	1347,00
2987,54	1345,00
2991,55	1365,00
2995,55	1340,00
2999,55	1168,00
3003,54	1220,00
3007,54	1294,00
3011,53	1286,00
3015,51	1151,00
3019,49	1298,00
3023,47	1093,00
3027,45	1235,00
3031,42	1091,00
3035,39	1103,00
3039,35	1194,00
3043,31	1237,00
3047,27	1154,00
3051,22	1229,00
3055,17	1100,00
3059,12	1058,00
3063,06	1036,00
3067,00	955,00
3070,94	988,00
3074,87	1217,00
3078,80	1043,00
3082,73	1068,00
3086,65	1026,00
3090,57	1096,00
3094,49	1101,00
3098,40	953,00
3102,31	968,00
3106,22	1076,00
3110,12	1015,00
3114,02	877,00
3117,92	1070,00
3121,81	950,00
3125,70	1073,00
3129,58	938,00
3133,47	943,00
3137,34	1038,00
3141,22	1115,00
3145,09	1043,00
3148,96	977,00
3152,83	936,00
3156,69	1044,00
3160,55	937,00
3164,40	1010,00
3168,26	1014,00
3172,10	1081,00
3175,95	1041,00
3179,79	1062,00
3183,63	1086,00
3187,47	1002,00
3191,30	1044,00
3195,13	1028,00
3198,95	820,00
3202,78	1069,00
3206,60	936,00
3210,41	985,00
3214,23	980,00
3218,03	970,00
3221,84	954,00
3225,64	1007,00
3229,44	934,00
3233,24	1045,00
3237,03	972,00
3240,82	955,00
3244,61	904,00
3248,39	923,00
3252,17	918,00
3255,95	1179,00
3259,72	979,00
3263,49	1102,00
3267,26	962,00
3271,03	968,00
3274,79	905,00
3278,54	1069,00
3282,30	843,00
3286,05	975,00
3289,80	1005,00
3293,54	962,00
3297,29	1019,00
3301,02	986,00
3304,76	958,00
3308,49	986,00
3312,22	843,00
3315,95	992,00
3319,67	904,00
3323,39	1068,00
3327,10	1036,00
3330,82	870,00
3334,53	1020,00
3338,24	947,00
3341,94	997,00
3345,64	935,00
3349,34	900,00
3353,03	1065,00
3356,72	989,00
3360,41	999,00
3364,10	947,00
3367,78	972,00
3371,46	954,00
3375,13	921,00
3378,81	1004,00
3382,48	878,00
3386,14	1083,00
3389,81	961,00
3393,47	1012,00
3397,12	1027,00
3400,78	987,00
3404,43	938,00
3408,08	1057,00
3411,72	893,00
3415,36	917,00
3419,00	992,00
3422,64	863,00
3426,27	922,00
3429,90	965,00
3433,53	905,00
3437,15	970,00
3440,77	849,00
3444,39	872,00
3448,00	922,00
3451,62	875,00
3455,22	968,00
3458,83	887,00
3462,43	948,00
3466,03	980,00
3469,63	943,00
3473,22	879,00
3476,81	916,00
3480,40	974,00
3483,99	903,00
3487,57	1052,00
3491,15	859,00
3494,72	964,00
3498,29	943,00
3501,86	808,00
3505,43	976,00
3508,99	835,00
3512,56	836,00
3516,11	1009,00
3519,67	910,00
3523,22	992,00
3526,77	935,00
3530,32	1043,00
3533,86	999,00
3537,40	1024,00
3540,94	934,00
3544,47	927,00
3548,00	810,00
3551,53	925,00
3555,06	867,00
3558,58	986,00
3562,10	892,00
3565,62	827,00
3569,13	948,00
3572,64	1050,00
3576,15	764,00
3579,66	960,00
3583,16	879,00
3586,66	1027,00
3590,16	909,00
3593,65	819,00
3597,14	876,00
3600,63	851,00
3604,11	954,00
3607,60	892,00
3611,08	911,00
3614,55	879,00
3618,03	907,00
3621,50	795,00
3624,97	838,00
3628,43	946,00
3631,90	821,00
3635,36	767,00
3638,81	818,00
3642,27	872,00
3645,72	811,00
3649,17	804,00
3652,61	739,00
3656,06	755,00
3659,50	883,00
3662,93	870,00
3666,37	911,00
3669,80	1045,00
3673,23	881,00
3676,65	915,00
3680,08	983,00
3683,50	793,00
3686,92	784,00
3690,33	795,00
3693,74	809,00
3697,15	782,00
3700,56	897,00
3703,96	896,00
3707,36	737,00
3710,76	760,00
3714,16	780,00
3717,55	779,00
3720,94	802,00
3724,33	774,00
3727,71	885,00
3731,10	927,00
3734,48	852,00
3737,85	774,00
3741,23	750,00
3744,60	798,00
3747,97	697,00
3751,33	898,00
3754,69	810,00
3758,05	808,00
3761,41	768,00
3764,77	734,00
3768,12	743,00
3771,47	625,00
3774,82	743,00
3778,16	-8,00
3781,50	15,00
3784,84	8,00
3788,18	14,00
>>>>>End Processed Spectral Data<<<<<
