SpectraSuite Data File
++++++++++++++++++++++++++++++++++++
Date: Mon Jan 05 16:33:34 ICT 2026
User: Administrator
Dark Spectrum Present: Yes
Reference Spectrum Present: No
Number of Sampled Component Spectra: 1
Spectrometers: MAYP113682
Integration Time (usec): 3000000 (MAYP113682)
Spectra Averaged: 1 (MAYP113682)
Boxcar Smoothing: 0 (MAYP113682)
Correct for Electrical Dark: No (MAYP113682)
Strobe/Lamp Enabled: No (MAYP113682)
Correct for Detector Non-linearity: No (MAYP113682)
Correct for Stray Light: No (MAYP113682)
Number of Pixels in Processed Spectrum: 2068
>>>>>Begin Processed Spectral Data<<<<<
-37534,58	32,00
-37414,56	12,00
-37295,11	6,00
-37176,24	2,00
-37057,95	593,00
-36940,22	602,00
-36823,05	656,00
-36706,45	797,00
-36590,40	805,00
-36474,90	793,00
-36359,95	807,00
-36245,55	803,00
-36131,68	753,00
-36018,35	709,00
-35905,55	799,00
-35793,29	818,00
-35681,54	710,00
-35570,32	820,00
-35459,62	813,00
-35349,43	887,00
-35239,75	902,00
-35130,58	782,00
-35021,91	786,00
-34913,74	788,00
-34806,07	879,00
-34698,89	887,00
-34592,20	725,00
-34486,00	901,00
-34380,28	789,00
-34275,04	764,00
-34170,27	775,00
-34065,98	997,00
-33962,16	818,00
-33858,81	929,00
-33755,92	849,00
-33653,49	984,00
-33551,52	898,00
-33450,01	910,00
-33348,94	868,00
-33248,33	817,00
-33148,16	876,00
-33048,43	874,00
-32949,14	1026,00
-32850,29	959,00
-32751,87	830,00
-32653,89	915,00
-32556,33	873,00
-32459,20	824,00
-32362,49	831,00
-32266,19	807,00
-32170,32	874,00
-32074,86	869,00
-31979,82	960,00
-31885,18	974,00
-31790,95	1016,00
-31697,12	949,00
-31603,69	978,00
-31510,67	942,00
-31418,04	948,00
-31325,80	848,00
-31233,95	889,00
-31142,49	850,00
-31051,42	830,00
-30960,73	977,00
-30870,43	1025,00
-30780,50	957,00
-30690,95	952,00
-30601,77	997,00
-30512,97	939,00
-30424,53	920,00
-30336,46	910,00
-30248,76	892,00
-30161,42	938,00
-30074,44	850,00
-29987,81	954,00
-29901,55	1028,00
-29815,63	873,00
-29730,07	1112,00
-29644,86	931,00
-29560,00	914,00
-29475,48	949,00
-29391,30	904,00
-29307,47	873,00
-29223,97	879,00
-29140,81	932,00
-29057,99	959,00
-28975,50	879,00
-28893,34	1008,00
-28811,51	842,00
-28730,00	920,00
-28648,82	926,00
-28567,97	903,00
-28487,43	856,00
-28407,21	889,00
-28327,32	753,00
-28247,73	1196,00
-28168,46	875,00
-28089,50	938,00
-28010,85	903,00
-27932,51	900,00
-27854,48	917,00
-27776,75	875,00
-27699,32	851,00
-27622,19	879,00
-27545,37	910,00
-27468,84	1010,00
-27392,60	931,00
-27316,66	898,00
-27241,01	863,00
-27165,66	921,00
-27090,59	802,00
-27015,81	947,00
-26941,31	1022,00
-26867,10	902,00
-26793,17	979,00
-26719,52	917,00
-26646,15	857,00
-26573,06	880,00
-26500,24	881,00
-26427,70	868,00
-26355,43	778,00
-26283,43	926,00
-26211,71	886,00
-26140,25	887,00
-26069,06	1031,00
-25998,13	808,00
-25927,46	836,00
-25857,06	862,00
-25786,92	893,00
-25717,04	840,00
-25647,42	992,00
-25578,05	827,00
-25508,94	872,00
-25440,09	915,00
-25371,48	871,00
-25303,13	1019,00
-25235,02	905,00
-25167,17	889,00
-25099,56	901,00
-25032,19	888,00
-24965,07	786,00
-24898,20	869,00
-24831,56	797,00
-24765,17	866,00
-24699,01	833,00
-24633,10	944,00
-24567,41	882,00
-24501,97	864,00
-24436,75	908,00
-24371,77	869,00
-24307,03	761,00
-24242,51	869,00
-24178,22	854,00
-24114,16	806,00
-24050,32	942,00
-23986,71	944,00
-23923,32	925,00
-23860,16	892,00
-23797,22	801,00
-23734,50	946,00
-23672,00	805,00
-23609,71	865,00
-23547,65	867,00
-23485,80	990,00
-23424,16	765,00
-23362,74	971,00
-23301,53	913,00
-23240,54	735,00
-23179,75	770,00
-23119,17	852,00
-23058,80	775,00
-22998,64	967,00
-22938,68	896,00
-22878,93	899,00
-22819,39	748,00
-22760,04	834,00
-22700,90	921,00
-22641,96	902,00
-22583,22	900,00
-22524,68	805,00
-22466,33	837,00
-22408,19	892,00
-22350,23	879,00
-22292,48	844,00
-22234,92	991,00
-22177,55	977,00
-22120,37	1077,00
-22063,38	828,00
-22006,58	837,00
-21949,98	804,00
-21893,56	735,00
-21837,33	914,00
-21781,28	870,00
-21725,42	826,00
-21669,74	936,00
-21614,25	884,00
-21558,94	826,00
-21503,81	947,00
-21448,86	1028,00
-21394,10	918,00
-21339,51	803,00
-21285,10	800,00
-21230,86	885,00
-21176,81	845,00
-21122,93	791,00
-21069,22	821,00
-21015,69	835,00
-20962,33	909,00
-20909,14	871,00
-20856,13	942,00
-20803,28	923,00
-20750,61	808,00
-20698,10	762,00
-20645,76	891,00
-20593,59	962,00
-20541,59	952,00
-20489,75	920,00
-20438,07	695,00
-20386,56	872,00
-20335,22	835,00
-20284,03	807,00
-20233,01	792,00
-20182,15	774,00
-20131,45	872,00
-20080,91	793,00
-20030,52	816,00
-19980,30	825,00
-19930,23	739,00
-19880,32	915,00
-19830,56	912,00
-19780,96	967,00
-19731,52	802,00
-19682,23	897,00
-19633,09	815,00
-19584,10	715,00
-19535,26	869,00
-19486,58	1020,00
-19438,04	865,00
-19389,66	998,00
-19341,42	832,00
-19293,33	793,00
-19245,39	831,00
-19197,60	1010,00
-19149,95	880,00
-19102,45	896,00
-19055,09	732,00
-19007,87	920,00
-18960,80	966,00
-18913,87	846,00
-18867,09	867,00
-18820,44	994,00
-18773,94	839,00
-18727,57	889,00
-18681,35	789,00
-18635,26	920,00
-18589,31	782,00
-18543,50	823,00
-18497,83	899,00
-18452,29	900,00
-18406,89	772,00
-18361,63	918,00
-18316,50	898,00
-18271,50	862,00
-18226,63	890,00
-18181,90	854,00
-18137,30	939,00
-18092,84	875,00
-18048,50	942,00
-18004,29	875,00
-17960,22	828,00
-17916,27	795,00
-17872,45	882,00
-17828,76	955,00
-17785,20	833,00
-17741,77	841,00
-17698,46	957,00
-17655,28	846,00
-17612,22	911,00
-17569,29	897,00
-17526,48	922,00
-17483,79	942,00
-17441,23	857,00
-17398,79	830,00
-17356,48	786,00
-17314,28	1014,00
-17272,21	918,00
-17230,26	839,00
-17188,42	838,00
-17146,71	886,00
-17105,12	833,00
-17063,64	876,00
-17022,28	778,00
-16981,04	785,00
-16939,92	949,00
-16898,91	1095,00
-16858,02	786,00
-16817,25	882,00
-16776,59	822,00
-16736,04	886,00
-16695,61	924,00
-16655,29	812,00
-16615,09	864,00
-16574,99	764,00
-16535,01	904,00
-16495,15	886,00
-16455,39	935,00
-16415,74	853,00
-16376,21	849,00
-16336,78	842,00
-16297,46	820,00
-16258,26	804,00
-16219,16	767,00
-16180,17	864,00
-16141,28	929,00
-16102,51	840,00
-16063,84	843,00
-16025,27	833,00
-15986,82	816,00
-15948,46	885,00
-15910,22	850,00
-15872,07	883,00
-15834,04	853,00
-15796,10	773,00
-15758,27	1043,00
-15720,54	837,00
-15682,91	795,00
-15645,39	1010,00
-15607,97	892,00
-15570,64	831,00
-15533,42	908,00
-15496,30	827,00
-15459,28	893,00
-15422,36	824,00
-15385,54	818,00
-15348,82	866,00
-15312,19	1054,00
-15275,66	784,00
-15239,23	867,00
-15202,90	816,00
-15166,67	849,00
-15130,53	1007,00
-15094,48	879,00
-15058,54	799,00
-15022,68	767,00
-14986,93	800,00
-14951,26	842,00
-14915,69	964,00
-14880,22	816,00
-14844,84	834,00
-14809,55	891,00
-14774,35	869,00
-14739,25	847,00
-14704,24	869,00
-14669,32	818,00
-14634,49	776,00
-14599,75	956,00
-14565,10	813,00
-14530,55	883,00
-14496,08	867,00
-14461,70	885,00
-14427,41	814,00
-14393,21	759,00
-14359,10	843,00
-14325,07	842,00
-14291,14	833,00
-14257,29	890,00
-14223,52	847,00
-14189,85	1025,00
-14156,26	850,00
-14122,76	762,00
-14089,34	815,00
-14056,01	910,00
-14022,76	901,00
-13989,60	936,00
-13956,52	954,00
-13923,53	883,00
-13890,62	793,00
-13857,79	835,00
-13825,05	815,00
-13792,39	721,00
-13759,81	821,00
-13727,31	819,00
-13694,90	898,00
-13662,57	949,00
-13630,31	865,00
-13598,14	958,00
-13566,05	783,00
-13534,05	804,00
-13502,12	840,00
-13470,27	855,00
-13438,50	983,00
-13406,80	873,00
-13375,19	781,00
-13343,66	891,00
-13312,20	868,00
-13280,83	812,00
-13249,53	840,00
-13218,30	753,00
-13187,16	856,00
-13156,09	1096,00
-13125,10	856,00
-13094,18	880,00
-13063,34	905,00
-13032,58	751,00
-13001,89	843,00
-12971,28	965,00
-12940,74	906,00
-12910,27	898,00
-12879,88	939,00
-12849,57	919,00
-12819,33	918,00
-12789,16	892,00
-12759,06	807,00
-12729,04	800,00
-12699,09	1306,00
-12669,21	750,00
-12639,41	867,00
-12609,68	825,00
-12580,02	802,00
-12550,43	887,00
-12520,91	766,00
-12491,46	895,00
-12462,08	764,00
-12432,77	866,00
-12403,54	866,00
-12374,37	785,00
-12345,27	960,00
-12316,24	856,00
-12287,29	890,00
-12258,40	727,00
-12229,57	1005,00
-12200,82	835,00
-12172,14	897,00
-12143,52	737,00
-12114,97	784,00
-12086,49	895,00
-12058,07	949,00
-12029,73	896,00
-12001,44	966,00
-11973,23	853,00
-11945,08	850,00
-11917,00	884,00
-11888,98	828,00
-11861,03	943,00
-11833,15	822,00
-11805,32	912,00
-11777,57	838,00
-11749,88	918,00
-11722,25	806,00
-11694,69	877,00
-11667,19	819,00
-11639,75	928,00
-11612,38	802,00
-11585,07	843,00
-11557,83	916,00
-11530,65	1047,00
-11503,53	739,00
-11476,47	861,00
-11449,48	861,00
-11422,54	989,00
-11395,67	903,00
-11368,86	965,00
-11342,11	863,00
-11315,43	849,00
-11288,80	824,00
-11262,23	896,00
-11235,73	848,00
-11209,28	1007,00
-11182,90	867,00
-11156,57	800,00
-11130,31	999,00
-11104,10	822,00
-11077,96	825,00
-11051,87	874,00
-11025,84	907,00
-10999,87	867,00
-10973,96	830,00
-10948,11	907,00
-10922,31	848,00
-10896,58	868,00
-10870,90	983,00
-10845,28	1014,00
-10819,71	818,00
-10794,20	960,00
-10768,75	942,00
-10743,36	921,00
-10718,02	805,00
-10692,74	780,00
-10667,52	819,00
-10642,35	879,00
-10617,24	900,00
-10592,18	945,00
-10567,18	822,00
-10542,23	854,00
-10517,34	855,00
-10492,51	947,00
-10467,72	770,00
-10443,00	909,00
-10418,32	937,00
-10393,70	895,00
-10369,14	926,00
-10344,63	807,00
-10320,17	858,00
-10295,77	882,00
-10271,42	797,00
-10247,12	886,00
-10222,88	959,00
-10198,68	805,00
-10174,54	913,00
-10150,46	999,00
-10126,42	975,00
-10102,44	829,00
-10078,51	843,00
-10054,63	1012,00
-10030,80	894,00
-10007,03	1046,00
-9983,30	884,00
-9959,63	928,00
-9936,01	1053,00
-9912,44	852,00
-9888,92	893,00
-9865,44	831,00
-9842,02	856,00
-9818,65	957,00
-9795,33	734,00
-9772,06	961,00
-9748,84	797,00
-9725,67	826,00
-9702,55	893,00
-9679,47	991,00
-9656,45	1014,00
-9633,47	764,00
-9610,55	993,00
-9587,67	1071,00
-9564,84	1204,00
-9542,06	1019,00
-9519,32	1067,00
-9496,64	1147,00
-9474,00	1047,00
-9451,41	983,00
-9428,87	971,00
-9406,37	1065,00
-9383,92	841,00
-9361,52	747,00
-9339,17	1010,00
-9316,86	843,00
-9294,60	1131,00
-9272,38	1071,00
-9250,21	1240,00
-9228,09	1188,00
-9206,01	1294,00
-9183,98	988,00
-9162,00	920,00
-9140,06	1020,00
-9118,16	1055,00
-9096,31	954,00
-9074,51	979,00
-9052,75	1181,00
-9031,04	1114,00
-9009,37	966,00
-8987,74	990,00
-8966,16	1009,00
-8944,63	836,00
-8923,14	1025,00
-8901,69	875,00
-8880,29	842,00
-8858,93	1060,00
-8837,61	1020,00
-8816,34	1194,00
-8795,11	1185,00
-8773,92	992,00
-8752,78	1079,00
-8731,68	970,00
-8710,62	1172,00
-8689,61	843,00
-8668,63	1001,00
-8647,70	1176,00
-8626,82	1101,00
-8605,97	1183,00
-8585,17	1132,00
-8564,41	1102,00
-8543,69	1006,00
-8523,01	813,00
-8502,37	1122,00
-8481,78	895,00
-8461,23	852,00
-8440,71	1019,00
-8420,24	1065,00
-8399,81	1219,00
-8379,42	1133,00
-8359,08	1059,00
-8338,77	880,00
-8318,50	927,00
-8298,27	813,00
-8278,09	1055,00
-8257,94	1069,00
-8237,83	1091,00
-8217,76	1074,00
-8197,74	1069,00
-8177,75	1156,00
-8157,80	915,00
-8137,89	935,00
-8118,02	1030,00
-8098,19	1016,00
-8078,40	1035,00
-8058,65	965,00
-8038,93	1172,00
-8019,26	1024,00
-7999,62	1135,00
-7980,02	957,00
-7960,46	1035,00
-7940,94	939,00
-7921,46	875,00
-7902,01	895,00
-7882,60	1075,00
-7863,23	911,00
-7843,90	915,00
-7824,61	939,00
-7805,35	1190,00
-7786,13	1050,00
-7766,95	1033,00
-7747,80	1006,00
-7728,69	1089,00
-7709,62	1033,00
-7690,59	983,00
-7671,59	1085,00
-7652,63	949,00
-7633,70	1068,00
-7614,81	1012,00
-7595,96	918,00
-7577,15	1068,00
-7558,37	895,00
-7539,62	977,00
-7520,91	965,00
-7502,24	998,00
-7483,60	982,00
-7465,00	960,00
-7446,44	1040,00
-7427,91	819,00
-7409,41	901,00
-7390,95	877,00
-7372,53	742,00
-7354,14	921,00
-7335,78	757,00
-7317,46	879,00
-7299,18	805,00
-7280,92	913,00
-7262,71	1009,00
-7244,52	1022,00
-7226,38	785,00
-7208,26	971,00
-7190,18	844,00
-7172,14	845,00
-7154,12	888,00
-7136,15	903,00
-7118,20	1005,00
-7100,29	957,00
-7082,41	1071,00
-7064,57	874,00
-7046,76	873,00
-7028,98	665,00
-7011,24	977,00
-6993,53	662,00
-6975,85	818,00
-6958,20	808,00
-6940,59	791,00
-6923,01	650,00
-6905,46	852,00
-6887,94	704,00
-6870,46	1149,00
-6853,01	953,00
-6835,59	863,00
-6818,21	770,00
-6800,85	879,00
-6783,53	745,00
-6766,24	686,00
-6748,98	798,00
-6731,76	627,00
-6714,56	736,00
-6697,40	613,00
-6680,26	640,00
-6663,16	687,00
-6646,09	771,00
-6629,05	829,00
-6612,05	756,00
-6595,07	761,00
-6578,13	827,00
-6561,21	697,00
-6544,33	815,00
-6527,47	660,00
-6510,65	651,00
-6493,86	520,00
-6477,10	702,00
-6460,36	851,00
-6443,66	649,00
-6426,99	714,00
-6410,35	644,00
-6393,74	821,00
-6377,16	635,00
-6360,61	759,00
-6344,09	624,00
-6327,59	699,00
-6311,13	812,00
-6294,70	681,00
-6278,29	901,00
-6261,92	740,00
-6245,58	755,00
-6229,26	815,00
-6212,97	752,00
-6196,72	667,00
-6180,49	840,00
-6164,29	629,00
-6148,12	812,00
-6131,98	873,00
-6115,86	656,00
-6099,78	696,00
-6083,72	712,00
-6067,69	698,00
-6051,69	673,00
-6035,72	826,00
-6019,78	774,00
-6003,87	856,00
-5987,98	797,00
-5972,12	821,00
-5956,29	704,00
-5940,49	690,00
-5924,71	830,00
-5908,96	684,00
-5893,24	738,00
-5877,55	742,00
-5861,89	779,00
-5846,25	607,00
-5830,64	707,00
-5815,05	681,00
-5799,50	638,00
-5783,97	766,00
-5768,47	866,00
-5752,99	881,00
-5737,55	649,00
-5722,12	735,00
-5706,73	740,00
-5691,36	794,00
-5676,02	685,00
-5660,71	798,00
-5645,42	727,00
-5630,16	776,00
-5614,92	898,00
-5599,71	676,00
-5584,53	785,00
-5569,37	708,00
-5554,24	931,00
-5539,14	673,00
-5524,06	760,00
-5509,01	672,00
-5493,98	811,00
-5478,98	712,00
-5464,00	718,00
-5449,05	688,00
-5434,13	748,00
-5419,23	739,00
-5404,36	734,00
-5389,51	645,00
-5374,69	803,00
-5359,89	793,00
-5345,12	755,00
-5330,37	862,00
-5315,65	766,00
-5300,95	774,00
-5286,28	763,00
-5271,63	639,00
-5257,01	702,00
-5242,41	746,00
-5227,84	723,00
-5213,29	715,00
-5198,76	742,00
-5184,26	868,00
-5169,79	713,00
-5155,33	676,00
-5140,91	689,00
-5126,51	567,00
-5112,13	737,00
-5097,77	794,00
-5083,44	882,00
-5069,13	762,00
-5054,85	817,00
-5040,59	761,00
-5026,36	715,00
-5012,15	768,00
-4997,96	783,00
-4983,80	851,00
-4969,66	787,00
-4955,54	734,00
-4941,44	803,00
-4927,37	663,00
-4913,33	821,00
-4899,30	693,00
-4885,30	746,00
-4871,33	815,00
-4857,37	765,00
-4843,44	658,00
-4829,53	915,00
-4815,65	864,00
-4801,79	596,00
-4787,95	868,00
-4774,13	739,00
-4760,34	767,00
-4746,56	927,00
-4732,82	737,00
-4719,09	752,00
-4705,38	875,00
-4691,70	802,00
-4678,04	947,00
-4664,41	847,00
-4650,79	1000,00
-4637,20	812,00
-4623,63	760,00
-4610,08	815,00
-4596,56	773,00
-4583,05	630,00
-4569,57	701,00
-4556,11	852,00
-4542,67	737,00
-4529,25	734,00
-4515,86	815,00
-4502,49	830,00
-4489,13	807,00
-4475,80	989,00
-4462,49	743,00
-4449,21	952,00
-4435,94	811,00
-4422,70	697,00
-4409,47	648,00
-4396,27	766,00
-4383,09	754,00
-4369,93	891,00
-4356,79	741,00
-4343,67	908,00
-4330,58	878,00
-4317,50	828,00
-4304,45	885,00
-4291,41	895,00
-4278,40	779,00
-4265,41	755,00
-4252,44	818,00
-4239,49	698,00
-4226,55	854,00
-4213,65	826,00
-4200,76	950,00
-4187,89	824,00
-4175,04	774,00
-4162,21	774,00
-4149,40	878,00
-4136,61	877,00
-4123,85	834,00
-4111,10	842,00
-4098,37	968,00
-4085,66	854,00
-4072,98	880,00
-4060,31	906,00
-4047,66	964,00
-4035,04	1025,00
-4022,43	871,00
-4009,84	889,00
-3997,27	725,00
-3984,72	920,00
-3972,19	927,00
-3959,69	942,00
-3947,20	850,00
-3934,73	801,00
-3922,27	815,00
-3909,84	787,00
-3897,43	923,00
-3885,04	867,00
-3872,67	907,00
-3860,31	873,00
-3847,98	996,00
-3835,66	935,00
-3823,36	890,00
-3811,09	846,00
-3798,83	839,00
-3786,59	882,00
-3774,37	1000,00
-3762,17	838,00
-3749,98	830,00
-3737,82	892,00
-3725,67	1177,00
-3713,55	792,00
-3701,44	985,00
-3689,35	915,00
-3677,28	946,00
-3665,22	869,00
-3653,19	811,00
-3641,17	843,00
-3629,18	944,00
-3617,20	925,00
-3605,24	878,00
-3593,30	879,00
-3581,37	931,00
-3569,47	938,00
-3557,58	845,00
-3545,71	902,00
-3533,86	961,00
-3522,02	927,00
-3510,21	906,00
-3498,41	887,00
-3486,63	729,00
-3474,87	844,00
-3463,12	846,00
-3451,40	892,00
-3439,69	846,00
-3428,00	895,00
-3416,33	966,00
-3404,67	785,00
-3393,03	866,00
-3381,41	931,00
-3369,81	871,00
-3358,22	943,00
-3346,66	965,00
-3335,10	921,00
-3323,57	818,00
-3312,06	929,00
-3300,56	950,00
-3289,08	748,00
-3277,61	899,00
-3266,16	858,00
-3254,73	832,00
-3243,32	827,00
-3231,92	877,00
-3220,55	881,00
-3209,18	1052,00
-3197,84	827,00
-3186,51	807,00
-3175,20	887,00
-3163,90	870,00
-3152,63	945,00
-3141,36	819,00
-3130,12	939,00
-3118,89	870,00
-3107,68	843,00
-3096,49	886,00
-3085,31	880,00
-3074,15	963,00
-3063,00	910,00
-3051,87	940,00
-3040,76	802,00
-3029,67	970,00
-3018,59	1093,00
-3007,52	976,00
-2996,48	994,00
-2985,44	962,00
-2974,43	868,00
-2963,43	789,00
-2952,45	946,00
-2941,48	967,00
-2930,53	1001,00
-2919,60	815,00
-2908,68	793,00
-2897,78	911,00
-2886,89	1029,00
-2876,02	898,00
-2865,17	839,00
-2854,33	907,00
-2843,50	880,00
-2832,70	850,00
-2821,90	914,00
-2811,13	936,00
-2800,37	859,00
-2789,62	840,00
-2778,89	896,00
-2768,18	860,00
-2757,48	958,00
-2746,80	977,00
-2736,13	869,00
-2725,48	1023,00
-2714,84	744,00
-2704,22	871,00
-2693,61	873,00
-2683,02	959,00
-2672,45	908,00
-2661,89	938,00
-2651,34	942,00
-2640,81	979,00
-2630,30	1026,00
-2619,80	835,00
-2609,31	989,00
-2598,84	846,00
-2588,39	914,00
-2577,95	835,00
-2567,52	746,00
-2557,11	808,00
-2546,71	927,00
-2536,33	1042,00
-2525,97	844,00
-2515,62	934,00
-2505,28	950,00
-2494,96	877,00
-2484,65	961,00
-2474,36	1124,00
-2464,08	863,00
-2453,82	1075,00
-2443,57	819,00
-2433,33	826,00
-2423,11	968,00
-2412,91	960,00
-2402,72	736,00
-2392,54	830,00
-2382,38	834,00
-2372,23	959,00
-2362,09	-1661,00
-2351,97	884,00
-2341,87	809,00
-2331,78	1034,00
-2321,70	960,00
-2311,64	872,00
-2301,59	906,00
-2291,55	838,00
-2281,53	917,00
-2271,53	737,00
-2261,53	968,00
-2251,55	855,00
-2241,59	822,00
-2231,64	910,00
-2221,70	861,00
-2211,78	850,00
-2201,87	896,00
-2191,97	944,00
-2182,09	868,00
-2172,22	972,00
-2162,37	804,00
-2152,53	798,00
-2142,70	878,00
-2132,89	835,00
-2123,09	954,00
-2113,30	876,00
-2103,53	848,00
-2093,77	954,00
-2084,02	918,00
-2074,29	912,00
-2064,57	930,00
-2054,86	902,00
-2045,17	912,00
-2035,49	900,00
-2025,82	779,00
-2016,17	862,00
-2006,53	879,00
-1996,91	962,00
-1987,29	830,00
-1977,69	857,00
-1968,11	843,00
-1958,53	877,00
-1948,97	916,00
-1939,42	838,00
-1929,89	888,00
-1920,37	870,00
-1910,86	846,00
-1901,36	903,00
-1891,88	898,00
-1882,41	909,00
-1872,95	1002,00
-1863,51	952,00
-1854,08	854,00
-1844,66	975,00
-1835,26	936,00
-1825,86	977,00
-1816,48	850,00
-1807,11	920,00
-1797,76	903,00
-1788,42	920,00
-1779,09	1005,00
-1769,77	855,00
-1760,47	1015,00
-1751,17	816,00
-1741,89	891,00
-1732,63	914,00
-1723,37	1087,00
-1714,13	993,00
-1704,90	891,00
-1695,68	1044,00
-1686,48	841,00
-1677,29	827,00
-1668,11	1125,00
-1658,94	833,00
-1649,78	888,00
-1640,64	861,00
-1631,51	924,00
-1622,39	947,00
-1613,28	882,00
-1604,19	1048,00
-1595,10	953,00
-1586,03	880,00
-1576,97	911,00
-1567,93	797,00
-1558,89	960,00
-1549,87	997,00
-1540,86	844,00
-1531,86	899,00
-1522,87	851,00
-1513,90	1026,00
-1504,93	972,00
-1495,98	889,00
-1487,04	940,00
-1478,12	829,00
-1469,20	845,00
-1460,30	930,00
-1451,40	1023,00
-1442,52	899,00
-1433,65	971,00
-1424,80	857,00
-1415,95	811,00
-1407,12	1062,00
-1398,30	869,00
-1389,48	921,00
-1380,69	833,00
-1371,90	811,00
-1363,12	970,00
-1354,36	1081,00
-1345,60	873,00
-1336,86	913,00
-1328,13	1099,00
-1319,41	1004,00
-1310,70	845,00
-1302,01	856,00
-1293,32	801,00
-1284,65	941,00
-1275,99	940,00
-1267,33	1019,00
-1258,69	974,00
-1250,06	932,00
-1241,45	784,00
-1232,84	1059,00
-1224,25	926,00
-1215,66	974,00
-1207,09	925,00
-1198,53	894,00
-1189,97	913,00
-1181,43	836,00
-1172,91	929,00
-1164,39	990,00
-1155,88	815,00
-1147,38	808,00
-1138,90	816,00
-1130,43	794,00
-1121,96	942,00
-1113,51	884,00
-1105,07	897,00
-1096,64	941,00
-1088,22	920,00
-1079,81	1050,00
-1071,41	1038,00
-1063,02	945,00
-1054,65	935,00
-1046,28	848,00
-1037,92	851,00
-1029,58	943,00
-1021,24	912,00
-1012,92	1238,00
-1004,61	936,00
-996,30	1082,00
-988,01	807,00
-979,73	869,00
-971,46	995,00
-963,20	861,00
-954,95	777,00
-946,71	878,00
-938,48	953,00
-930,26	854,00
-922,06	954,00
-913,86	883,00
-905,67	853,00
-897,49	989,00
-889,33	762,00
-881,17	948,00
-873,02	930,00
-864,89	834,00
-856,76	845,00
-848,65	988,00
-840,54	999,00
-832,45	1028,00
-824,36	718,00
-816,29	985,00
-808,22	998,00
-800,17	957,00
-792,12	975,00
-784,09	989,00
-776,06	835,00
-768,05	915,00
-760,04	813,00
-752,05	828,00
-744,07	922,00
-736,09	977,00
-728,13	832,00
-720,17	910,00
-712,23	844,00
-704,29	829,00
-696,37	859,00
-688,45	994,00
-680,55	869,00
-672,65	845,00
-664,77	884,00
-656,89	904,00
-649,03	900,00
-641,17	965,00
-633,32	904,00
-625,49	928,00
-617,66	837,00
-609,84	938,00
-602,03	779,00
-594,23	934,00
-586,45	874,00
-578,67	834,00
-570,90	879,00
-563,14	715,00
-555,39	950,00
-547,65	904,00
-539,91	937,00
-532,19	903,00
-524,48	976,00
-516,78	881,00
-509,08	1011,00
-501,40	930,00
-493,72	874,00
-486,06	873,00
-478,40	1014,00
-470,76	830,00
-463,12	867,00
-455,49	823,00
-447,87	817,00
-440,26	844,00
-432,66	867,00
-425,07	896,00
-417,49	908,00
-409,92	769,00
-402,35	785,00
-394,80	835,00
-387,25	954,00
-379,72	933,00
-372,19	981,00
-364,67	869,00
-357,17	913,00
-349,67	917,00
-342,18	928,00
-334,69	960,00
-327,22	923,00
-319,76	944,00
-312,30	889,00
-304,86	872,00
-297,42	962,00
-290,00	855,00
-282,58	877,00
-275,17	959,00
-267,77	1100,00
-260,37	953,00
-252,99	989,00
-245,62	1018,00
-238,25	890,00
-230,90	867,00
-223,55	949,00
-216,21	981,00
-208,88	1191,00
-201,56	1033,00
-194,25	1052,00
-186,94	1097,00
-179,65	1003,00
-172,36	1131,00
-165,08	1174,00
-157,81	1217,00
-150,55	1235,00
-143,30	1224,00
-136,06	1288,00
-128,82	1340,00
-121,60	1356,00
-114,38	1451,00
-107,17	1630,00
-99,97	1663,00
-92,78	1764,00
-85,60	1750,00
-78,42	2011,00
-71,25	2080,00
-64,10	2337,00
-56,95	2614,00
-49,81	2875,00
-42,67	3539,00
-35,55	4079,00
-28,43	5208,00
-21,33	7946,00
-14,23	24818,00
-7,14	57498,00
-0,05	57284,00
7,02	57012,00
14,09	57319,00
21,14	21155,00
28,19	9280,00
35,23	6275,00
42,27	5102,00
49,29	4258,00
56,31	3728,00
63,32	3394,00
70,32	2856,00
77,31	2601,00
84,29	2211,00
91,27	2176,00
98,23	2124,00
105,19	2021,00
112,14	2167,00
119,09	2986,00
126,02	4512,00
132,95	5059,00
139,87	5176,00
146,78	5414,00
153,68	5172,00
160,58	5075,00
167,46	5028,00
174,34	5072,00
181,21	5038,00
188,08	4919,00
194,93	5030,00
201,78	5034,00
208,62	4959,00
215,45	5040,00
222,27	4997,00
229,09	5026,00
235,90	4799,00
242,70	4830,00
249,49	4818,00
256,27	4571,00
263,05	4560,00
269,82	4509,00
276,58	4509,00
283,33	4397,00
290,08	4369,00
296,82	4256,00
303,55	4130,00
310,27	4288,00
316,98	4192,00
323,69	4204,00
330,39	4202,00
337,08	4324,00
343,76	4140,00
350,44	4202,00
357,11	4222,00
363,77	4064,00
370,42	4060,00
377,07	4116,00
383,71	4106,00
390,34	4094,00
396,96	4018,00
403,58	4025,00
410,19	4225,00
416,79	4300,00
423,38	4388,00
429,97	4325,00
436,55	4263,00
443,12	4426,00
449,68	4386,00
456,24	4314,00
462,79	4120,00
469,33	3926,00
475,86	3795,00
482,39	3724,00
488,91	3798,00
495,42	3662,00
501,93	3642,00
508,42	3472,00
514,91	3440,00
521,40	3552,00
527,87	3545,00
534,34	3416,00
540,80	3459,00
547,25	3453,00
553,70	3440,00
560,14	3485,00
566,57	3486,00
573,00	3557,00
579,41	3642,00
585,83	3647,00
592,23	3587,00
598,62	3748,00
605,01	3643,00
611,40	3839,00
617,77	3731,00
624,14	3595,00
630,50	3568,00
636,85	3465,00
643,20	3290,00
649,54	3206,00
655,87	3167,00
662,20	3188,00
668,52	3198,00
674,83	3152,00
681,13	3147,00
687,43	3154,00
693,72	3035,00
700,00	2949,00
706,28	3036,00
712,55	2993,00
718,81	3218,00
725,07	3057,00
731,32	3045,00
737,56	3046,00
743,79	2973,00
750,02	3019,00
756,24	2984,00
762,46	2863,00
768,67	3162,00
774,87	2974,00
781,06	2775,00
787,25	2993,00
793,43	2986,00
799,60	2872,00
805,77	3043,00
811,93	3002,00
818,08	2979,00
824,23	2892,00
830,37	3171,00
836,50	2940,00
842,63	2871,00
848,75	2978,00
854,87	2886,00
860,97	3108,00
867,07	2926,00
873,17	3038,00
879,25	3010,00
885,33	2971,00
891,41	3043,00
897,47	2973,00
903,53	2903,00
909,59	2927,00
915,63	2850,00
921,67	2822,00
927,71	2941,00
933,74	2764,00
939,76	2647,00
945,77	2727,00
951,78	2776,00
957,78	2589,00
963,78	2815,00
969,77	2711,00
975,75	2647,00
981,72	2678,00
987,69	4003,00
993,66	2818,00
999,61	2787,00
1005,56	2821,00
1011,51	2679,00
1017,44	2802,00
1023,37	2836,00
1029,30	2748,00
1035,22	2882,00
1041,13	2834,00
1047,03	3110,00
1052,93	3461,00
1058,83	4869,00
1064,71	5303,00
1070,59	4452,00
1076,47	3742,00
1082,33	3450,00
1088,20	3413,00
1094,05	3073,00
1099,90	2932,00
1105,74	2997,00
1111,58	3009,00
1117,41	3283,00
1123,23	4137,00
1129,05	5012,00
1134,86	4608,00
1140,67	3579,00
1146,47	3009,00
1152,26	2850,00
1158,05	2805,00
1163,83	2981,00
1169,60	3045,00
1175,37	2954,00
1181,13	2755,00
1186,89	2629,00
1192,64	2653,00
1198,38	2763,00
1204,12	2503,00
1209,85	2518,00
1215,58	2614,00
1221,30	2693,00
1227,02	2740,00
1232,72	2597,00
1238,43	2531,00
1244,12	2528,00
1249,81	2578,00
1255,50	2725,00
1261,17	2700,00
1266,85	2790,00
1272,51	2798,00
1278,17	2986,00
1283,83	3209,00
1289,47	4742,00
1295,12	6229,00
1300,75	5503,00
1306,38	4486,00
1312,01	3581,00
1317,63	3114,00
1323,24	2937,00
1328,85	2882,00
1334,45	2685,00
1340,04	2735,00
1345,63	2672,00
1351,22	2808,00
1356,80	2802,00
1362,37	2838,00
1367,93	2746,00
1373,49	2964,00
1379,05	2745,00
1384,60	2628,00
1390,14	2697,00
1395,68	2721,00
1401,21	2800,00
1406,74	3065,00
1412,26	3550,00
1417,77	4162,00
1423,28	3984,00
1428,78	4437,00
1434,28	5447,00
1439,77	6275,00
1445,26	6009,00
1450,74	5598,00
1456,22	5291,00
1461,68	5063,00
1467,15	4733,00
1472,61	4098,00
1478,06	3768,00
1483,51	3257,00
1488,95	2821,00
1494,38	2834,00
1499,81	2615,00
1505,24	2572,00
1510,65	2603,00
1516,07	2537,00
1521,48	2446,00
1526,88	2318,00
1532,27	2415,00
1537,67	2335,00
1543,05	2446,00
1548,43	2210,00
1553,81	2432,00
1559,18	2210,00
1564,54	2280,00
1569,90	2248,00
1575,25	2184,00
1580,60	2119,00
1585,94	2275,00
1591,28	2179,00
1596,61	2134,00
1601,93	2166,00
1607,25	2281,00
1612,57	2199,00
1617,88	2162,00
1623,18	2213,00
1628,48	2174,00
1633,77	2116,00
1639,06	2128,00
1644,34	2068,00
1649,62	2040,00
1654,89	2074,00
1660,16	1922,00
1665,42	2246,00
1670,67	2097,00
1675,92	1912,00
1681,17	1974,00
1686,41	2009,00
1691,64	2071,00
1696,87	2094,00
1702,10	1960,00
1707,32	2001,00
1712,53	2026,00
1717,74	1877,00
1722,94	2067,00
1728,14	1912,00
1733,33	1927,00
1738,52	1800,00
1743,70	1960,00
1748,88	1889,00
1754,05	1941,00
1759,22	1788,00
1764,38	2065,00
1769,53	1958,00
1774,69	1932,00
1779,83	1798,00
1784,97	1855,00
1790,11	1809,00
1795,24	1834,00
1800,36	1834,00
1805,48	1761,00
1810,60	1904,00
1815,71	1777,00
1820,82	1797,00
1825,92	1850,00
1831,01	1743,00
1836,10	1732,00
1841,19	1837,00
1846,26	1605,00
1851,34	1712,00
1856,41	1838,00
1861,47	1676,00
1866,53	1881,00
1871,59	1724,00
1876,64	1753,00
1881,68	1709,00
1886,72	1715,00
1891,76	1700,00
1896,79	1688,00
1901,81	1555,00
1906,83	1745,00
1911,85	1634,00
1916,86	1677,00
1921,86	1591,00
1926,86	1601,00
1931,86	1747,00
1936,85	1601,00
1941,83	1633,00
1946,81	1581,00
1951,79	1593,00
1956,76	1605,00
1961,72	1422,00
1966,68	1520,00
1971,64	1535,00
1976,59	1656,00
1981,54	1515,00
1986,48	1570,00
1991,42	1296,00
1996,35	1756,00
2001,27	1544,00
2006,20	1424,00
2011,11	1586,00
2016,03	1510,00
2020,93	1439,00
2025,84	1526,00
2030,73	1473,00
2035,63	1398,00
2040,52	1488,00
2045,40	1535,00
2050,28	1449,00
2055,15	1523,00
2060,02	1357,00
2064,89	1565,00
2069,75	1403,00
2074,60	1531,00
2079,46	1390,00
2084,30	1399,00
2089,14	1390,00
2093,98	1477,00
2098,81	1374,00
2103,64	1462,00
2108,46	1493,00
2113,28	1512,00
2118,09	1499,00
2122,90	1493,00
2127,70	1383,00
2132,50	1531,00
2137,30	1391,00
2142,09	1299,00
2146,87	1360,00
2151,66	1435,00
2156,43	1368,00
2161,20	1446,00
2165,97	1447,00
2170,73	1391,00
2175,49	1543,00
2180,24	1454,00
2184,99	1561,00
2189,74	1556,00
2194,48	1498,00
2199,21	1602,00
2203,94	1340,00
2208,67	1335,00
2213,39	1311,00
2218,11	1480,00
2222,82	1354,00
2227,53	1447,00
2232,23	1461,00
2236,93	1415,00
2241,63	1226,00
2246,32	1499,00
2251,00	1332,00
2255,68	1279,00
2260,36	1314,00
2265,03	1405,00
2269,70	1460,00
2274,36	1325,00
2279,02	1450,00
2283,68	1401,00
2288,33	1348,00
2292,97	1448,00
2297,61	1290,00
2302,25	1374,00
2306,88	1341,00
2311,51	1266,00
2316,14	1394,00
2320,75	1256,00
2325,37	1218,00
2329,98	1352,00
2334,59	1279,00
2339,19	1243,00
2343,79	1178,00
2348,38	1355,00
2352,97	1143,00
2357,55	1349,00
2362,13	1217,00
2366,71	1153,00
2371,28	1405,00
2375,85	1279,00
2380,41	1288,00
2384,97	1234,00
2389,52	1355,00
2394,07	1355,00
2398,62	1236,00
2403,16	1349,00
2407,70	1110,00
2412,23	1204,00
2416,76	1300,00
2421,29	1334,00
2425,81	1321,00
2430,32	1334,00
2434,84	1188,00
2439,34	1143,00
2443,85	1354,00
2448,35	1212,00
2452,84	1276,00
2457,33	1230,00
2461,82	1167,00
2466,30	1093,00
2470,78	1207,00
2475,25	1243,00
2479,72	1246,00
2484,19	1333,00
2488,65	1251,00
2493,11	1127,00
2497,56	1378,00
2502,01	1140,00
2506,46	1205,00
2510,90	1159,00
2515,34	1140,00
2519,77	1294,00
2524,20	1220,00
2528,62	1224,00
2533,04	1275,00
2537,46	1226,00
2541,87	1189,00
2546,28	1199,00
2550,68	1292,00
2555,08	1206,00
2559,48	1212,00
2563,87	1154,00
2568,26	1189,00
2572,64	1276,00
2577,02	1249,00
2581,40	1088,00
2585,77	1276,00
2590,14	1201,00
2594,50	1103,00
2598,86	1276,00
2603,22	1176,00
2607,57	1193,00
2611,92	1255,00
2616,26	1379,00
2620,60	1325,00
2624,94	1128,00
2629,27	1233,00
2633,60	1169,00
2637,92	1302,00
2642,24	1432,00
2646,56	1321,00
2650,87	1104,00
2655,18	1371,00
2659,48	1193,00
2663,78	1208,00
2668,08	1245,00
2672,37	1312,00
2676,66	1297,00
2680,95	1139,00
2685,23	1401,00
2689,50	1296,00
2693,78	1343,00
2698,05	1292,00
2702,31	1414,00
2706,57	1531,00
2710,83	1521,00
2715,08	1521,00
2719,33	1591,00
2723,58	1536,00
2727,82	1661,00
2732,06	1540,00
2736,29	1418,00
2740,53	1460,00
2744,75	1440,00
2748,97	1371,00
2753,19	1415,00
2757,41	1395,00
2761,62	1441,00
2765,83	1403,00
2770,03	1415,00
2774,23	1505,00
2778,43	1277,00
2782,62	1494,00
2786,81	1411,00
2791,00	1484,00
2795,18	1492,00
2799,35	1588,00
2803,53	1552,00
2807,70	1686,00
2811,86	1663,00
2816,03	1851,00
2820,19	1826,00
2824,34	1881,00
2828,49	2045,00
2832,64	2343,00
2836,78	2832,00
2840,92	3054,00
2845,06	3787,00
2849,19	4109,00
2853,32	4344,00
2857,45	4251,00
2861,57	4173,00
2865,69	4031,00
2869,80	4024,00
2873,91	4205,00
2878,02	4680,00
2882,12	4990,00
2886,22	4961,00
2890,32	4703,00
2894,41	4391,00
2898,50	3981,00
2902,58	3747,00
2906,67	3557,00
2910,74	3252,00
2914,82	2990,00
2918,89	3020,00
2922,96	2669,00
2927,02	2529,00
2931,08	2427,00
2935,13	2268,00
2939,19	2268,00
2943,24	2065,00
2947,28	2093,00
2951,32	1792,00
2955,36	1667,00
2959,40	1736,00
2963,43	1563,00
2967,46	1529,00
2971,48	1457,00
2975,50	1396,00
2979,52	1438,00
2983,53	1452,00
2987,54	1304,00
2991,55	1320,00
2995,55	1327,00
2999,55	1171,00
3003,54	1092,00
3007,54	1207,00
3011,53	1165,00
3015,51	1193,00
3019,49	1185,00
3023,47	1109,00
3027,45	1180,00
3031,42	1114,00
3035,39	1119,00
3039,35	1011,00
3043,31	1176,00
3047,27	1176,00
3051,22	1046,00
3055,17	1019,00
3059,12	993,00
3063,06	988,00
3067,00	968,00
3070,94	953,00
3074,87	1111,00
3078,80	980,00
3082,73	1010,00
3086,65	1001,00
3090,57	942,00
3094,49	1014,00
3098,40	982,00
3102,31	984,00
3106,22	1048,00
3110,12	1016,00
3114,02	892,00
3117,92	1041,00
3121,81	912,00
3125,70	975,00
3129,58	956,00
3133,47	878,00
3137,34	920,00
3141,22	1039,00
3145,09	982,00
3148,96	1016,00
3152,83	911,00
3156,69	1005,00
3160,55	848,00
3164,40	1027,00
3168,26	1042,00
3172,10	1037,00
3175,95	994,00
3179,79	1064,00
3183,63	927,00
3187,47	912,00
3191,30	1001,00
3195,13	1009,00
3198,95	852,00
3202,78	977,00
3206,60	927,00
3210,41	833,00
3214,23	954,00
3218,03	969,00
3221,84	944,00
3225,64	879,00
3229,44	922,00
3233,24	908,00
3237,03	955,00
3240,82	824,00
3244,61	878,00
3248,39	882,00
3252,17	970,00
3255,95	1004,00
3259,72	984,00
3263,49	1101,00
3267,26	891,00
3271,03	903,00
3274,79	890,00
3278,54	973,00
3282,30	836,00
3286,05	979,00
3289,80	1045,00
3293,54	978,00
3297,29	926,00
3301,02	931,00
3304,76	884,00
3308,49	1003,00
3312,22	860,00
3315,95	880,00
3319,67	911,00
3323,39	1054,00
3327,10	959,00
3330,82	954,00
3334,53	955,00
3338,24	957,00
3341,94	901,00
3345,64	942,00
3349,34	843,00
3353,03	963,00
3356,72	910,00
3360,41	949,00
3364,10	914,00
3367,78	788,00
3371,46	900,00
3375,13	921,00
3378,81	1059,00
3382,48	862,00
3386,14	1002,00
3389,81	976,00
3393,47	909,00
3397,12	933,00
3400,78	920,00
3404,43	909,00
3408,08	947,00
3411,72	883,00
3415,36	832,00
3419,00	941,00
3422,64	868,00
3426,27	888,00
3429,90	923,00
3433,53	812,00
3437,15	848,00
3440,77	753,00
3444,39	897,00
3448,00	940,00
3451,62	914,00
3455,22	923,00
3458,83	740,00
3462,43	916,00
3466,03	968,00
3469,63	822,00
3473,22	815,00
3476,81	789,00
3480,40	962,00
3483,99	801,00
3487,57	909,00
3491,15	875,00
3494,72	883,00
3498,29	943,00
3501,86	871,00
3505,43	827,00
3508,99	865,00
3512,56	720,00
3516,11	881,00
3519,67	846,00
3523,22	849,00
3526,77	847,00
3530,32	1064,00
3533,86	949,00
3537,40	1047,00
3540,94	904,00
3544,47	867,00
3548,00	769,00
3551,53	906,00
3555,06	850,00
3558,58	909,00
3562,10	896,00
3565,62	814,00
3569,13	888,00
3572,64	1056,00
3576,15	783,00
3579,66	840,00
3583,16	828,00
3586,66	865,00
3590,16	843,00
3593,65	758,00
3597,14	824,00
3600,63	897,00
3604,11	860,00
3607,60	850,00
3611,08	798,00
3614,55	916,00
3618,03	818,00
3621,50	810,00
3624,97	753,00
3628,43	879,00
3631,90	888,00
3635,36	826,00
3638,81	845,00
3642,27	791,00
3645,72	874,00
3649,17	811,00
3652,61	780,00
3656,06	713,00
3659,50	862,00
3662,93	894,00
3666,37	874,00
3669,80	1022,00
3673,23	899,00
3676,65	839,00
3680,08	874,00
3683,50	756,00
3686,92	759,00
3690,33	786,00
3693,74	813,00
3697,15	696,00
3700,56	896,00
3703,96	809,00
3707,36	651,00
3710,76	766,00
3714,16	765,00
3717,55	791,00
3720,94	759,00
3724,33	822,00
3727,71	806,00
3731,10	727,00
3734,48	809,00
3737,85	731,00
3741,23	735,00
3744,60	770,00
3747,97	687,00
3751,33	838,00
3754,69	758,00
3758,05	704,00
3761,41	699,00
3764,77	652,00
3768,12	697,00
3771,47	651,00
3774,82	763,00
3778,16	-12,00
3781,50	16,00
3784,84	6,00
3788,18	14,00
>>>>>End Processed Spectral Data<<<<<
