SpectraSuite Data File
++++++++++++++++++++++++++++++++++++
Date: Mon Jan 05 16:33:07 ICT 2026
User: Administrator
Dark Spectrum Present: Yes
Reference Spectrum Present: No
Number of Sampled Component Spectra: 1
Spectrometers: MAYP113682
Integration Time (usec): 3000000 (MAYP113682)
Spectra Averaged: 1 (MAYP113682)
Boxcar Smoothing: 0 (MAYP113682)
Correct for Electrical Dark: No (MAYP113682)
Strobe/Lamp Enabled: No (MAYP113682)
Correct for Detector Non-linearity: No (MAYP113682)
Correct for Stray Light: No (MAYP113682)
Number of Pixels in Processed Spectrum: 2068
>>>>>Begin Processed Spectral Data<<<<<
-37534,58	28,00
-37414,56	8,00
-37295,11	8,00
-37176,24	3,00
-37057,95	593,00
-36940,22	649,00
-36823,05	766,00
-36706,45	696,00
-36590,40	808,00
-36474,90	719,00
-36359,95	782,00
-36245,55	803,00
-36131,68	762,00
-36018,35	694,00
-35905,55	755,00
-35793,29	873,00
-35681,54	757,00
-35570,32	776,00
-35459,62	861,00
-35349,43	836,00
-35239,75	903,00
-35130,58	794,00
-35021,91	867,00
-34913,74	731,00
-34806,07	789,00
-34698,89	862,00
-34592,20	751,00
-34486,00	880,00
-34380,28	770,00
-34275,04	740,00
-34170,27	781,00
-34065,98	976,00
-33962,16	864,00
-33858,81	880,00
-33755,92	785,00
-33653,49	829,00
-33551,52	951,00
-33450,01	862,00
-33348,94	835,00
-33248,33	828,00
-33148,16	830,00
-33048,43	840,00
-32949,14	985,00
-32850,29	947,00
-32751,87	778,00
-32653,89	967,00
-32556,33	904,00
-32459,20	825,00
-32362,49	823,00
-32266,19	867,00
-32170,32	819,00
-32074,86	864,00
-31979,82	908,00
-31885,18	924,00
-31790,95	954,00
-31697,12	978,00
-31603,69	897,00
-31510,67	1056,00
-31418,04	849,00
-31325,80	945,00
-31233,95	806,00
-31142,49	910,00
-31051,42	826,00
-30960,73	1038,00
-30870,43	952,00
-30780,50	975,00
-30690,95	834,00
-30601,77	1053,00
-30512,97	893,00
-30424,53	902,00
-30336,46	875,00
-30248,76	832,00
-30161,42	898,00
-30074,44	872,00
-29987,81	935,00
-29901,55	1018,00
-29815,63	838,00
-29730,07	880,00
-29644,86	930,00
-29560,00	896,00
-29475,48	886,00
-29391,30	840,00
-29307,47	872,00
-29223,97	905,00
-29140,81	853,00
-29057,99	1033,00
-28975,50	823,00
-28893,34	977,00
-28811,51	805,00
-28730,00	933,00
-28648,82	793,00
-28567,97	946,00
-28487,43	909,00
-28407,21	867,00
-28327,32	748,00
-28247,73	1069,00
-28168,46	877,00
-28089,50	934,00
-28010,85	760,00
-27932,51	797,00
-27854,48	900,00
-27776,75	727,00
-27699,32	844,00
-27622,19	921,00
-27545,37	882,00
-27468,84	897,00
-27392,60	952,00
-27316,66	857,00
-27241,01	862,00
-27165,66	845,00
-27090,59	736,00
-27015,81	915,00
-26941,31	970,00
-26867,10	853,00
-26793,17	950,00
-26719,52	942,00
-26646,15	805,00
-26573,06	838,00
-26500,24	795,00
-26427,70	899,00
-26355,43	862,00
-26283,43	829,00
-26211,71	868,00
-26140,25	889,00
-26069,06	969,00
-25998,13	758,00
-25927,46	792,00
-25857,06	790,00
-25786,92	836,00
-25717,04	803,00
-25647,42	974,00
-25578,05	715,00
-25508,94	861,00
-25440,09	906,00
-25371,48	916,00
-25303,13	925,00
-25235,02	805,00
-25167,17	863,00
-25099,56	874,00
-25032,19	864,00
-24965,07	794,00
-24898,20	781,00
-24831,56	882,00
-24765,17	885,00
-24699,01	796,00
-24633,10	897,00
-24567,41	891,00
-24501,97	837,00
-24436,75	825,00
-24371,77	848,00
-24307,03	838,00
-24242,51	818,00
-24178,22	813,00
-24114,16	812,00
-24050,32	1010,00
-23986,71	851,00
-23923,32	842,00
-23860,16	864,00
-23797,22	880,00
-23734,50	844,00
-23672,00	795,00
-23609,71	837,00
-23547,65	701,00
-23485,80	853,00
-23424,16	736,00
-23362,74	998,00
-23301,53	937,00
-23240,54	735,00
-23179,75	781,00
-23119,17	776,00
-23058,80	871,00
-22998,64	910,00
-22938,68	848,00
-22878,93	796,00
-22819,39	738,00
-22760,04	774,00
-22700,90	812,00
-22641,96	724,00
-22583,22	875,00
-22524,68	848,00
-22466,33	777,00
-22408,19	872,00
-22350,23	809,00
-22292,48	828,00
-22234,92	907,00
-22177,55	864,00
-22120,37	1000,00
-22063,38	767,00
-22006,58	834,00
-21949,98	838,00
-21893,56	741,00
-21837,33	854,00
-21781,28	898,00
-21725,42	859,00
-21669,74	906,00
-21614,25	931,00
-21558,94	866,00
-21503,81	878,00
-21448,86	891,00
-21394,10	777,00
-21339,51	806,00
-21285,10	705,00
-21230,86	737,00
-21176,81	819,00
-21122,93	813,00
-21069,22	793,00
-21015,69	808,00
-20962,33	917,00
-20909,14	845,00
-20856,13	853,00
-20803,28	880,00
-20750,61	853,00
-20698,10	734,00
-20645,76	773,00
-20593,59	886,00
-20541,59	909,00
-20489,75	900,00
-20438,07	739,00
-20386,56	820,00
-20335,22	849,00
-20284,03	805,00
-20233,01	764,00
-20182,15	840,00
-20131,45	817,00
-20080,91	771,00
-20030,52	872,00
-19980,30	835,00
-19930,23	711,00
-19880,32	860,00
-19830,56	834,00
-19780,96	797,00
-19731,52	792,00
-19682,23	901,00
-19633,09	803,00
-19584,10	778,00
-19535,26	857,00
-19486,58	978,00
-19438,04	917,00
-19389,66	915,00
-19341,42	841,00
-19293,33	795,00
-19245,39	843,00
-19197,60	960,00
-19149,95	866,00
-19102,45	882,00
-19055,09	772,00
-19007,87	911,00
-18960,80	875,00
-18913,87	900,00
-18867,09	749,00
-18820,44	937,00
-18773,94	956,00
-18727,57	822,00
-18681,35	737,00
-18635,26	837,00
-18589,31	800,00
-18543,50	806,00
-18497,83	830,00
-18452,29	804,00
-18406,89	816,00
-18361,63	927,00
-18316,50	849,00
-18271,50	838,00
-18226,63	871,00
-18181,90	825,00
-18137,30	992,00
-18092,84	784,00
-18048,50	902,00
-18004,29	799,00
-17960,22	749,00
-17916,27	844,00
-17872,45	915,00
-17828,76	910,00
-17785,20	884,00
-17741,77	782,00
-17698,46	898,00
-17655,28	762,00
-17612,22	850,00
-17569,29	839,00
-17526,48	907,00
-17483,79	855,00
-17441,23	749,00
-17398,79	835,00
-17356,48	688,00
-17314,28	996,00
-17272,21	833,00
-17230,26	830,00
-17188,42	794,00
-17146,71	846,00
-17105,12	803,00
-17063,64	903,00
-17022,28	776,00
-16981,04	805,00
-16939,92	808,00
-16898,91	1012,00
-16858,02	759,00
-16817,25	852,00
-16776,59	856,00
-16736,04	813,00
-16695,61	764,00
-16655,29	842,00
-16615,09	787,00
-16574,99	792,00
-16535,01	911,00
-16495,15	872,00
-16455,39	862,00
-16415,74	822,00
-16376,21	831,00
-16336,78	809,00
-16297,46	837,00
-16258,26	766,00
-16219,16	755,00
-16180,17	856,00
-16141,28	866,00
-16102,51	911,00
-16063,84	722,00
-16025,27	843,00
-15986,82	827,00
-15948,46	832,00
-15910,22	883,00
-15872,07	809,00
-15834,04	802,00
-15796,10	838,00
-15758,27	978,00
-15720,54	849,00
-15682,91	843,00
-15645,39	1001,00
-15607,97	875,00
-15570,64	804,00
-15533,42	977,00
-15496,30	816,00
-15459,28	884,00
-15422,36	833,00
-15385,54	775,00
-15348,82	943,00
-15312,19	1011,00
-15275,66	743,00
-15239,23	863,00
-15202,90	781,00
-15166,67	815,00
-15130,53	848,00
-15094,48	834,00
-15058,54	738,00
-15022,68	792,00
-14986,93	795,00
-14951,26	919,00
-14915,69	947,00
-14880,22	757,00
-14844,84	799,00
-14809,55	910,00
-14774,35	897,00
-14739,25	835,00
-14704,24	905,00
-14669,32	806,00
-14634,49	793,00
-14599,75	957,00
-14565,10	775,00
-14530,55	842,00
-14496,08	829,00
-14461,70	829,00
-14427,41	853,00
-14393,21	750,00
-14359,10	853,00
-14325,07	870,00
-14291,14	760,00
-14257,29	834,00
-14223,52	815,00
-14189,85	993,00
-14156,26	861,00
-14122,76	690,00
-14089,34	760,00
-14056,01	902,00
-14022,76	736,00
-13989,60	880,00
-13956,52	919,00
-13923,53	792,00
-13890,62	774,00
-13857,79	752,00
-13825,05	749,00
-13792,39	808,00
-13759,81	860,00
-13727,31	916,00
-13694,90	914,00
-13662,57	998,00
-13630,31	876,00
-13598,14	840,00
-13566,05	821,00
-13534,05	809,00
-13502,12	810,00
-13470,27	769,00
-13438,50	882,00
-13406,80	729,00
-13375,19	813,00
-13343,66	840,00
-13312,20	851,00
-13280,83	831,00
-13249,53	848,00
-13218,30	672,00
-13187,16	809,00
-13156,09	1039,00
-13125,10	843,00
-13094,18	845,00
-13063,34	896,00
-13032,58	734,00
-13001,89	799,00
-12971,28	870,00
-12940,74	867,00
-12910,27	903,00
-12879,88	798,00
-12849,57	921,00
-12819,33	898,00
-12789,16	918,00
-12759,06	879,00
-12729,04	748,00
-12699,09	2218,00
-12669,21	894,00
-12639,41	941,00
-12609,68	837,00
-12580,02	829,00
-12550,43	931,00
-12520,91	735,00
-12491,46	779,00
-12462,08	795,00
-12432,77	908,00
-12403,54	815,00
-12374,37	787,00
-12345,27	885,00
-12316,24	813,00
-12287,29	804,00
-12258,40	779,00
-12229,57	887,00
-12200,82	805,00
-12172,14	777,00
-12143,52	751,00
-12114,97	799,00
-12086,49	815,00
-12058,07	904,00
-12029,73	858,00
-12001,44	904,00
-11973,23	855,00
-11945,08	827,00
-11917,00	820,00
-11888,98	730,00
-11861,03	934,00
-11833,15	875,00
-11805,32	836,00
-11777,57	882,00
-11749,88	902,00
-11722,25	845,00
-11694,69	820,00
-11667,19	805,00
-11639,75	947,00
-11612,38	852,00
-11585,07	846,00
-11557,83	834,00
-11530,65	982,00
-11503,53	824,00
-11476,47	803,00
-11449,48	809,00
-11422,54	954,00
-11395,67	849,00
-11368,86	936,00
-11342,11	736,00
-11315,43	862,00
-11288,80	771,00
-11262,23	864,00
-11235,73	780,00
-11209,28	1040,00
-11182,90	872,00
-11156,57	835,00
-11130,31	965,00
-11104,10	865,00
-11077,96	809,00
-11051,87	847,00
-11025,84	828,00
-10999,87	910,00
-10973,96	796,00
-10948,11	805,00
-10922,31	947,00
-10896,58	901,00
-10870,90	939,00
-10845,28	883,00
-10819,71	776,00
-10794,20	954,00
-10768,75	925,00
-10743,36	908,00
-10718,02	853,00
-10692,74	871,00
-10667,52	799,00
-10642,35	798,00
-10617,24	883,00
-10592,18	887,00
-10567,18	817,00
-10542,23	893,00
-10517,34	922,00
-10492,51	1002,00
-10467,72	902,00
-10443,00	944,00
-10418,32	975,00
-10393,70	999,00
-10369,14	986,00
-10344,63	893,00
-10320,17	951,00
-10295,77	929,00
-10271,42	971,00
-10247,12	928,00
-10222,88	1056,00
-10198,68	910,00
-10174,54	1021,00
-10150,46	1189,00
-10126,42	1114,00
-10102,44	1078,00
-10078,51	1047,00
-10054,63	1143,00
-10030,80	1076,00
-10007,03	1255,00
-9983,30	1134,00
-9959,63	1155,00
-9936,01	1387,00
-9912,44	1305,00
-9888,92	1359,00
-9865,44	1302,00
-9842,02	1296,00
-9818,65	1415,00
-9795,33	1211,00
-9772,06	1423,00
-9748,84	1367,00
-9725,67	1439,00
-9702,55	1528,00
-9679,47	1639,00
-9656,45	1826,00
-9633,47	1609,00
-9610,55	1740,00
-9587,67	1908,00
-9564,84	2053,00
-9542,06	2193,00
-9519,32	2330,00
-9496,64	2428,00
-9474,00	2384,00
-9451,41	2588,00
-9428,87	2529,00
-9406,37	2625,00
-9383,92	2466,00
-9361,52	2487,00
-9339,17	2672,00
-9316,86	2783,00
-9294,60	3226,00
-9272,38	3484,00
-9250,21	3740,00
-9228,09	3866,00
-9206,01	3863,00
-9183,98	3483,00
-9162,00	3140,00
-9140,06	3335,00
-9118,16	3248,00
-9096,31	3359,00
-9074,51	3507,00
-9052,75	3621,00
-9031,04	3463,00
-9009,37	3120,00
-8987,74	3078,00
-8966,16	2798,00
-8944,63	2508,00
-8923,14	2509,00
-8901,69	2611,00
-8880,29	2739,00
-8858,93	2884,00
-8837,61	3077,00
-8816,34	3189,00
-8795,11	3217,00
-8773,92	2861,00
-8752,78	2821,00
-8731,68	2597,00
-8710,62	2728,00
-8689,61	2621,00
-8668,63	2787,00
-8647,70	3172,00
-8626,82	3038,00
-8605,97	3013,00
-8585,17	2793,00
-8564,41	2579,00
-8543,69	2503,00
-8523,01	2324,00
-8502,37	2674,00
-8481,78	2573,00
-8461,23	2539,00
-8440,71	2780,00
-8420,24	2856,00
-8399,81	3070,00
-8379,42	2980,00
-8359,08	2944,00
-8338,77	2551,00
-8318,50	2372,00
-8298,27	2359,00
-8278,09	2539,00
-8257,94	2660,00
-8237,83	2830,00
-8217,76	2849,00
-8197,74	2841,00
-8177,75	2854,00
-8157,80	2514,00
-8137,89	2549,00
-8118,02	2335,00
-8098,19	2385,00
-8078,40	2315,00
-8058,65	2394,00
-8038,93	2437,00
-8019,26	2420,00
-7999,62	2424,00
-7980,02	2302,00
-7960,46	2123,00
-7940,94	2069,00
-7921,46	2077,00
-7902,01	2036,00
-7882,60	2139,00
-7863,23	2128,00
-7843,90	2016,00
-7824,61	2188,00
-7805,35	2416,00
-7786,13	2195,00
-7766,95	2362,00
-7747,80	2201,00
-7728,69	2231,00
-7709,62	2169,00
-7690,59	2216,00
-7671,59	2359,00
-7652,63	2252,00
-7633,70	2334,00
-7614,81	2416,00
-7595,96	2113,00
-7577,15	2067,00
-7558,37	1876,00
-7539,62	2041,00
-7520,91	2134,00
-7502,24	2186,00
-7483,60	2200,00
-7465,00	2112,00
-7446,44	2043,00
-7427,91	1850,00
-7409,41	1715,00
-7390,95	1704,00
-7372,53	1594,00
-7354,14	1637,00
-7335,78	1608,00
-7317,46	1699,00
-7299,18	1716,00
-7280,92	1827,00
-7262,71	2091,00
-7244,52	2196,00
-7226,38	2178,00
-7208,26	1997,00
-7190,18	1946,00
-7172,14	1867,00
-7154,12	1924,00
-7136,15	1926,00
-7118,20	2032,00
-7100,29	2209,00
-7082,41	2137,00
-7064,57	1979,00
-7046,76	1970,00
-7028,98	1699,00
-7011,24	1708,00
-6993,53	1417,00
-6975,85	1596,00
-6958,20	1479,00
-6940,59	1389,00
-6923,01	1327,00
-6905,46	1583,00
-6887,94	1697,00
-6870,46	2116,00
-6853,01	1955,00
-6835,59	1941,00
-6818,21	1696,00
-6800,85	1747,00
-6783,53	1461,00
-6766,24	1259,00
-6748,98	1312,00
-6731,76	1232,00
-6714,56	1277,00
-6697,40	1120,00
-6680,26	1086,00
-6663,16	1369,00
-6646,09	1648,00
-6629,05	1544,00
-6612,05	1728,00
-6595,07	1503,00
-6578,13	1714,00
-6561,21	1418,00
-6544,33	1302,00
-6527,47	1097,00
-6510,65	1174,00
-6493,86	1091,00
-6477,10	1080,00
-6460,36	1193,00
-6443,66	1087,00
-6426,99	1044,00
-6410,35	1144,00
-6393,74	1321,00
-6377,16	1075,00
-6360,61	1320,00
-6344,09	1307,00
-6327,59	1275,00
-6311,13	1432,00
-6294,70	1342,00
-6278,29	1541,00
-6261,92	1420,00
-6245,58	1649,00
-6229,26	1610,00
-6212,97	1547,00
-6196,72	1392,00
-6180,49	1281,00
-6164,29	968,00
-6148,12	1154,00
-6131,98	1135,00
-6115,86	968,00
-6099,78	942,00
-6083,72	942,00
-6067,69	932,00
-6051,69	987,00
-6035,72	1039,00
-6019,78	1021,00
-6003,87	1323,00
-5987,98	1307,00
-5972,12	1441,00
-5956,29	1320,00
-5940,49	1247,00
-5924,71	1354,00
-5908,96	1055,00
-5893,24	971,00
-5877,55	1065,00
-5861,89	1068,00
-5846,25	867,00
-5830,64	1204,00
-5815,05	1034,00
-5799,50	1011,00
-5783,97	1124,00
-5768,47	1094,00
-5752,99	1372,00
-5737,55	1188,00
-5722,12	1337,00
-5706,73	1296,00
-5691,36	1185,00
-5676,02	1059,00
-5660,71	1056,00
-5645,42	1030,00
-5630,16	1108,00
-5614,92	1162,00
-5599,71	1165,00
-5584,53	1196,00
-5569,37	1033,00
-5554,24	1443,00
-5539,14	1052,00
-5524,06	1171,00
-5509,01	1092,00
-5493,98	1142,00
-5478,98	1082,00
-5464,00	1128,00
-5449,05	1085,00
-5434,13	1084,00
-5419,23	977,00
-5404,36	969,00
-5389,51	1058,00
-5374,69	1246,00
-5359,89	1360,00
-5345,12	1445,00
-5330,37	1432,00
-5315,65	1297,00
-5300,95	1101,00
-5286,28	1155,00
-5271,63	957,00
-5257,01	1093,00
-5242,41	1125,00
-5227,84	989,00
-5213,29	1024,00
-5198,76	959,00
-5184,26	953,00
-5169,79	1027,00
-5155,33	1033,00
-5140,91	1182,00
-5126,51	1120,00
-5112,13	1135,00
-5097,77	1067,00
-5083,44	1097,00
-5069,13	886,00
-5054,85	1022,00
-5040,59	1102,00
-5026,36	1158,00
-5012,15	1165,00
-4997,96	1085,00
-4983,80	1078,00
-4969,66	952,00
-4955,54	946,00
-4941,44	1092,00
-4927,37	1072,00
-4913,33	1232,00
-4899,30	1243,00
-4885,30	1286,00
-4871,33	1063,00
-4857,37	976,00
-4843,44	924,00
-4829,53	1091,00
-4815,65	1125,00
-4801,79	946,00
-4787,95	1069,00
-4774,13	965,00
-4760,34	874,00
-4746,56	976,00
-4732,82	825,00
-4719,09	1003,00
-4705,38	1296,00
-4691,70	1335,00
-4678,04	1389,00
-4664,41	1253,00
-4650,79	1220,00
-4637,20	913,00
-4623,63	873,00
-4610,08	1125,00
-4596,56	1142,00
-4583,05	1038,00
-4569,57	989,00
-4556,11	1035,00
-4542,67	858,00
-4529,25	896,00
-4515,86	1023,00
-4502,49	1256,00
-4489,13	1307,00
-4475,80	1247,00
-4462,49	914,00
-4449,21	1161,00
-4435,94	975,00
-4422,70	957,00
-4409,47	971,00
-4396,27	1094,00
-4383,09	1044,00
-4369,93	972,00
-4356,79	834,00
-4343,67	890,00
-4330,58	1007,00
-4317,50	1025,00
-4304,45	1022,00
-4291,41	976,00
-4278,40	894,00
-4265,41	776,00
-4252,44	973,00
-4239,49	919,00
-4226,55	1036,00
-4213,65	983,00
-4200,76	1006,00
-4187,89	856,00
-4175,04	820,00
-4162,21	843,00
-4149,40	924,00
-4136,61	841,00
-4123,85	829,00
-4111,10	863,00
-4098,37	915,00
-4085,66	953,00
-4072,98	951,00
-4060,31	827,00
-4047,66	973,00
-4035,04	1078,00
-4022,43	932,00
-4009,84	883,00
-3997,27	728,00
-3984,72	867,00
-3972,19	927,00
-3959,69	844,00
-3947,20	810,00
-3934,73	873,00
-3922,27	817,00
-3909,84	826,00
-3897,43	901,00
-3885,04	936,00
-3872,67	833,00
-3860,31	782,00
-3847,98	936,00
-3835,66	836,00
-3823,36	933,00
-3811,09	837,00
-3798,83	912,00
-3786,59	937,00
-3774,37	938,00
-3762,17	804,00
-3749,98	910,00
-3737,82	808,00
-3725,67	1112,00
-3713,55	791,00
-3701,44	930,00
-3689,35	814,00
-3677,28	1045,00
-3665,22	788,00
-3653,19	797,00
-3641,17	857,00
-3629,18	956,00
-3617,20	863,00
-3605,24	789,00
-3593,30	940,00
-3581,37	893,00
-3569,47	908,00
-3557,58	938,00
-3545,71	923,00
-3533,86	999,00
-3522,02	898,00
-3510,21	810,00
-3498,41	915,00
-3486,63	819,00
-3474,87	838,00
-3463,12	834,00
-3451,40	912,00
-3439,69	870,00
-3428,00	822,00
-3416,33	884,00
-3404,67	796,00
-3393,03	851,00
-3381,41	933,00
-3369,81	915,00
-3358,22	931,00
-3346,66	1019,00
-3335,10	915,00
-3323,57	773,00
-3312,06	884,00
-3300,56	870,00
-3289,08	781,00
-3277,61	797,00
-3266,16	945,00
-3254,73	817,00
-3243,32	796,00
-3231,92	797,00
-3220,55	949,00
-3209,18	1004,00
-3197,84	791,00
-3186,51	777,00
-3175,20	810,00
-3163,90	810,00
-3152,63	935,00
-3141,36	799,00
-3130,12	967,00
-3118,89	961,00
-3107,68	817,00
-3096,49	940,00
-3085,31	785,00
-3074,15	874,00
-3063,00	873,00
-3051,87	917,00
-3040,76	766,00
-3029,67	963,00
-3018,59	1042,00
-3007,52	1036,00
-2996,48	924,00
-2985,44	875,00
-2974,43	873,00
-2963,43	807,00
-2952,45	908,00
-2941,48	886,00
-2930,53	891,00
-2919,60	796,00
-2908,68	750,00
-2897,78	824,00
-2886,89	938,00
-2876,02	889,00
-2865,17	844,00
-2854,33	833,00
-2843,50	785,00
-2832,70	905,00
-2821,90	820,00
-2811,13	894,00
-2800,37	855,00
-2789,62	764,00
-2778,89	922,00
-2768,18	932,00
-2757,48	862,00
-2746,80	1013,00
-2736,13	841,00
-2725,48	974,00
-2714,84	753,00
-2704,22	813,00
-2693,61	870,00
-2683,02	825,00
-2672,45	837,00
-2661,89	955,00
-2651,34	909,00
-2640,81	862,00
-2630,30	975,00
-2619,80	778,00
-2609,31	965,00
-2598,84	780,00
-2588,39	878,00
-2577,95	858,00
-2567,52	749,00
-2557,11	822,00
-2546,71	916,00
-2536,33	970,00
-2525,97	885,00
-2515,62	973,00
-2505,28	797,00
-2494,96	812,00
-2484,65	953,00
-2474,36	1118,00
-2464,08	769,00
-2453,82	1019,00
-2443,57	817,00
-2433,33	845,00
-2423,11	980,00
-2412,91	936,00
-2402,72	899,00
-2392,54	897,00
-2382,38	914,00
-2372,23	972,00
-2362,09	-1778,00
-2351,97	870,00
-2341,87	739,00
-2331,78	979,00
-2321,70	956,00
-2311,64	829,00
-2301,59	777,00
-2291,55	771,00
-2281,53	950,00
-2271,53	723,00
-2261,53	911,00
-2251,55	930,00
-2241,59	881,00
-2231,64	902,00
-2221,70	812,00
-2211,78	842,00
-2201,87	917,00
-2191,97	961,00
-2182,09	850,00
-2172,22	948,00
-2162,37	754,00
-2152,53	773,00
-2142,70	826,00
-2132,89	815,00
-2123,09	944,00
-2113,30	823,00
-2103,53	863,00
-2093,77	862,00
-2084,02	875,00
-2074,29	941,00
-2064,57	864,00
-2054,86	914,00
-2045,17	967,00
-2035,49	962,00
-2025,82	720,00
-2016,17	847,00
-2006,53	904,00
-1996,91	946,00
-1987,29	817,00
-1977,69	881,00
-1968,11	813,00
-1958,53	794,00
-1948,97	876,00
-1939,42	855,00
-1929,89	738,00
-1920,37	939,00
-1910,86	860,00
-1901,36	864,00
-1891,88	946,00
-1882,41	828,00
-1872,95	927,00
-1863,51	958,00
-1854,08	913,00
-1844,66	972,00
-1835,26	977,00
-1825,86	928,00
-1816,48	845,00
-1807,11	924,00
-1797,76	926,00
-1788,42	957,00
-1779,09	919,00
-1769,77	833,00
-1760,47	1039,00
-1751,17	717,00
-1741,89	800,00
-1732,63	884,00
-1723,37	954,00
-1714,13	1020,00
-1704,90	783,00
-1695,68	965,00
-1686,48	760,00
-1677,29	784,00
-1668,11	1089,00
-1658,94	829,00
-1649,78	848,00
-1640,64	879,00
-1631,51	847,00
-1622,39	909,00
-1613,28	926,00
-1604,19	1002,00
-1595,10	944,00
-1586,03	851,00
-1576,97	937,00
-1567,93	819,00
-1558,89	1007,00
-1549,87	902,00
-1540,86	753,00
-1531,86	835,00
-1522,87	810,00
-1513,90	976,00
-1504,93	919,00
-1495,98	886,00
-1487,04	959,00
-1478,12	842,00
-1469,20	890,00
-1460,30	911,00
-1451,40	1149,00
-1442,52	944,00
-1433,65	1024,00
-1424,80	876,00
-1415,95	830,00
-1407,12	1043,00
-1398,30	872,00
-1389,48	912,00
-1380,69	849,00
-1371,90	922,00
-1363,12	905,00
-1354,36	1046,00
-1345,60	907,00
-1336,86	920,00
-1328,13	982,00
-1319,41	861,00
-1310,70	833,00
-1302,01	811,00
-1293,32	867,00
-1284,65	778,00
-1275,99	995,00
-1267,33	993,00
-1258,69	976,00
-1250,06	894,00
-1241,45	785,00
-1232,84	1078,00
-1224,25	876,00
-1215,66	924,00
-1207,09	916,00
-1198,53	818,00
-1189,97	881,00
-1181,43	883,00
-1172,91	863,00
-1164,39	937,00
-1155,88	796,00
-1147,38	691,00
-1138,90	853,00
-1130,43	875,00
-1121,96	907,00
-1113,51	847,00
-1105,07	920,00
-1096,64	937,00
-1088,22	901,00
-1079,81	916,00
-1071,41	960,00
-1063,02	851,00
-1054,65	958,00
-1046,28	771,00
-1037,92	856,00
-1029,58	868,00
-1021,24	968,00
-1012,92	1173,00
-1004,61	882,00
-996,30	1045,00
-988,01	709,00
-979,73	923,00
-971,46	978,00
-963,20	856,00
-954,95	785,00
-946,71	899,00
-938,48	946,00
-930,26	949,00
-922,06	959,00
-913,86	834,00
-905,67	732,00
-897,49	935,00
-889,33	795,00
-881,17	915,00
-873,02	936,00
-864,89	803,00
-856,76	843,00
-848,65	916,00
-840,54	950,00
-832,45	873,00
-824,36	734,00
-816,29	952,00
-808,22	996,00
-800,17	879,00
-792,12	953,00
-784,09	910,00
-776,06	854,00
-768,05	838,00
-760,04	919,00
-752,05	836,00
-744,07	863,00
-736,09	918,00
-728,13	772,00
-720,17	895,00
-712,23	857,00
-704,29	692,00
-696,37	913,00
-688,45	989,00
-680,55	829,00
-672,65	860,00
-664,77	795,00
-656,89	897,00
-649,03	830,00
-641,17	854,00
-633,32	946,00
-625,49	870,00
-617,66	854,00
-609,84	907,00
-602,03	784,00
-594,23	889,00
-586,45	865,00
-578,67	896,00
-570,90	845,00
-563,14	838,00
-555,39	923,00
-547,65	933,00
-539,91	899,00
-532,19	952,00
-524,48	867,00
-516,78	854,00
-509,08	932,00
-501,40	878,00
-493,72	894,00
-486,06	849,00
-478,40	919,00
-470,76	810,00
-463,12	756,00
-455,49	822,00
-447,87	873,00
-440,26	862,00
-432,66	809,00
-425,07	930,00
-417,49	890,00
-409,92	761,00
-402,35	799,00
-394,80	731,00
-387,25	903,00
-379,72	877,00
-372,19	905,00
-364,67	974,00
-357,17	912,00
-349,67	946,00
-342,18	794,00
-334,69	940,00
-327,22	938,00
-319,76	923,00
-312,30	865,00
-304,86	807,00
-297,42	862,00
-290,00	853,00
-282,58	846,00
-275,17	1034,00
-267,77	1035,00
-260,37	826,00
-252,99	1053,00
-245,62	1060,00
-238,25	924,00
-230,90	856,00
-223,55	997,00
-216,21	943,00
-208,88	1144,00
-201,56	961,00
-194,25	1023,00
-186,94	1013,00
-179,65	1033,00
-172,36	1076,00
-165,08	1085,00
-157,81	1199,00
-150,55	1152,00
-143,30	1253,00
-136,06	1199,00
-128,82	1306,00
-121,60	1245,00
-114,38	1415,00
-107,17	1501,00
-99,97	1659,00
-92,78	1676,00
-85,60	1778,00
-78,42	2016,00
-71,25	2209,00
-64,10	2331,00
-56,95	2669,00
-49,81	2916,00
-42,67	3603,00
-35,55	4076,00
-28,43	5265,00
-21,33	8130,00
-14,23	25488,00
-7,14	57498,00
-0,05	57284,00
7,02	57012,00
14,09	57319,00
21,14	21596,00
28,19	9575,00
35,23	6365,00
42,27	5229,00
49,29	4277,00
56,31	3667,00
63,32	3418,00
70,32	2873,00
77,31	2574,00
84,29	2331,00
91,27	2170,00
98,23	2138,00
105,19	2085,00
112,14	2192,00
119,09	3181,00
126,02	4711,00
132,95	5462,00
139,87	5664,00
146,78	5830,00
153,68	5638,00
160,58	5516,00
167,46	5421,00
174,34	5470,00
181,21	5466,00
188,08	5421,00
194,93	5491,00
201,78	5399,00
208,62	5464,00
215,45	5317,00
222,27	5531,00
229,09	5409,00
235,90	5229,00
242,70	5368,00
249,49	5308,00
256,27	5138,00
263,05	5086,00
269,82	5066,00
276,58	5046,00
283,33	4868,00
290,08	4866,00
296,82	4753,00
303,55	4710,00
310,27	4617,00
316,98	4714,00
323,69	4609,00
330,39	4658,00
337,08	4603,00
343,76	4696,00
350,44	4605,00
357,11	4576,00
363,77	4497,00
370,42	4516,00
377,07	4593,00
383,71	4553,00
390,34	4574,00
396,96	4504,00
403,58	4650,00
410,19	4702,00
416,79	4783,00
423,38	5051,00
429,97	4840,00
436,55	4809,00
443,12	4876,00
449,68	4917,00
456,24	4784,00
462,79	4589,00
469,33	4474,00
475,86	4274,00
482,39	4224,00
488,91	4252,00
495,42	4060,00
501,93	4039,00
508,42	3953,00
514,91	4052,00
521,40	3991,00
527,87	3992,00
534,34	3866,00
540,80	3833,00
547,25	3920,00
553,70	3965,00
560,14	3953,00
566,57	3898,00
573,00	3899,00
579,41	3999,00
585,83	4080,00
592,23	4112,00
598,62	4127,00
605,01	4188,00
611,40	4257,00
617,77	4193,00
624,14	4058,00
630,50	3956,00
636,85	3904,00
643,20	3715,00
649,54	3652,00
655,87	3629,00
662,20	3592,00
668,52	3508,00
674,83	3588,00
681,13	3494,00
687,43	3534,00
693,72	3361,00
700,00	3384,00
706,28	3491,00
712,55	3396,00
718,81	3507,00
725,07	3432,00
731,32	3341,00
737,56	3480,00
743,79	3384,00
750,02	3405,00
756,24	3282,00
762,46	3301,00
768,67	3556,00
774,87	3266,00
781,06	3129,00
787,25	3322,00
793,43	3304,00
799,60	3267,00
805,77	3368,00
811,93	3235,00
818,08	3324,00
824,23	3268,00
830,37	3431,00
836,50	3201,00
842,63	3247,00
848,75	3331,00
854,87	3189,00
860,97	3442,00
867,07	3247,00
873,17	3276,00
879,25	3291,00
885,33	3254,00
891,41	3311,00
897,47	3314,00
903,53	3207,00
909,59	3287,00
915,63	3130,00
921,67	3181,00
927,71	3229,00
933,74	3255,00
939,76	2893,00
945,77	2979,00
951,78	3186,00
957,78	2959,00
963,78	3089,00
969,77	3051,00
975,75	2945,00
981,72	2988,00
987,69	4282,00
993,66	3098,00
999,61	3081,00
1005,56	3032,00
1011,51	3017,00
1017,44	3037,00
1023,37	3054,00
1029,30	2943,00
1035,22	3129,00
1041,13	3102,00
1047,03	3318,00
1052,93	3796,00
1058,83	5170,00
1064,71	5653,00
1070,59	4792,00
1076,47	4031,00
1082,33	3734,00
1088,20	3637,00
1094,05	3520,00
1099,90	3105,00
1105,74	3111,00
1111,58	3289,00
1117,41	3580,00
1123,23	4456,00
1129,05	5362,00
1134,86	4969,00
1140,67	3831,00
1146,47	3204,00
1152,26	3147,00
1158,05	3000,00
1163,83	3226,00
1169,60	3226,00
1175,37	3192,00
1181,13	3017,00
1186,89	2809,00
1192,64	2910,00
1198,38	3028,00
1204,12	2739,00
1209,85	2772,00
1215,58	2790,00
1221,30	2796,00
1227,02	2849,00
1232,72	2793,00
1238,43	2792,00
1244,12	2751,00
1249,81	2863,00
1255,50	2990,00
1261,17	2950,00
1266,85	2942,00
1272,51	3114,00
1278,17	3262,00
1283,83	3490,00
1289,47	4961,00
1295,12	6446,00
1300,75	5951,00
1306,38	4694,00
1312,01	3773,00
1317,63	3333,00
1323,24	3215,00
1328,85	3044,00
1334,45	2846,00
1340,04	2858,00
1345,63	2888,00
1351,22	3001,00
1356,80	2987,00
1362,37	3021,00
1367,93	3050,00
1373,49	3148,00
1379,05	2980,00
1384,60	2951,00
1390,14	2860,00
1395,68	2878,00
1401,21	2908,00
1406,74	3195,00
1412,26	3780,00
1417,77	4473,00
1423,28	4184,00
1428,78	4646,00
1434,28	5712,00
1439,77	6482,00
1445,26	6394,00
1450,74	5943,00
1456,22	5485,00
1461,68	5290,00
1467,15	5019,00
1472,61	4252,00
1478,06	4079,00
1483,51	3427,00
1488,95	3000,00
1494,38	2991,00
1499,81	2848,00
1505,24	2742,00
1510,65	2806,00
1516,07	2717,00
1521,48	2580,00
1526,88	2564,00
1532,27	2593,00
1537,67	2482,00
1543,05	2582,00
1548,43	2389,00
1553,81	2468,00
1559,18	2319,00
1564,54	2265,00
1569,90	2481,00
1575,25	2321,00
1580,60	2303,00
1585,94	2341,00
1591,28	2359,00
1596,61	2268,00
1601,93	2340,00
1607,25	2388,00
1612,57	2332,00
1617,88	2368,00
1623,18	2375,00
1628,48	2272,00
1633,77	2317,00
1639,06	2298,00
1644,34	2176,00
1649,62	2173,00
1654,89	2329,00
1660,16	2137,00
1665,42	2349,00
1670,67	2236,00
1675,92	2032,00
1681,17	2162,00
1686,41	2180,00
1691,64	2094,00
1696,87	2151,00
1702,10	2181,00
1707,32	2126,00
1712,53	2152,00
1717,74	2103,00
1722,94	2265,00
1728,14	2109,00
1733,33	2040,00
1738,52	1916,00
1743,70	2022,00
1748,88	2039,00
1754,05	2088,00
1759,22	1949,00
1764,38	2206,00
1769,53	2057,00
1774,69	2102,00
1779,83	1913,00
1784,97	2017,00
1790,11	1973,00
1795,24	1948,00
1800,36	1886,00
1805,48	1846,00
1810,60	1958,00
1815,71	1909,00
1820,82	1813,00
1825,92	1995,00
1831,01	1853,00
1836,10	1872,00
1841,19	1985,00
1846,26	1785,00
1851,34	1911,00
1856,41	1916,00
1861,47	1819,00
1866,53	1933,00
1871,59	1861,00
1876,64	1813,00
1881,68	1837,00
1886,72	1857,00
1891,76	1755,00
1896,79	1764,00
1901,81	1675,00
1906,83	1872,00
1911,85	1741,00
1916,86	1777,00
1921,86	1697,00
1926,86	1659,00
1931,86	1710,00
1936,85	1706,00
1941,83	1639,00
1946,81	1665,00
1951,79	1604,00
1956,76	1600,00
1961,72	1517,00
1966,68	1660,00
1971,64	1587,00
1976,59	1635,00
1981,54	1591,00
1986,48	1643,00
1991,42	1510,00
1996,35	1912,00
2001,27	1568,00
2006,20	1550,00
2011,11	1645,00
2016,03	1593,00
2020,93	1429,00
2025,84	1608,00
2030,73	1545,00
2035,63	1498,00
2040,52	1557,00
2045,40	1561,00
2050,28	1554,00
2055,15	1535,00
2060,02	1486,00
2064,89	1611,00
2069,75	1636,00
2074,60	1547,00
2079,46	1417,00
2084,30	1443,00
2089,14	1388,00
2093,98	1590,00
2098,81	1483,00
2103,64	1606,00
2108,46	1533,00
2113,28	1565,00
2118,09	1533,00
2122,90	1566,00
2127,70	1409,00
2132,50	1502,00
2137,30	1454,00
2142,09	1391,00
2146,87	1378,00
2151,66	1528,00
2156,43	1448,00
2161,20	1390,00
2165,97	1585,00
2170,73	1380,00
2175,49	1595,00
2180,24	1489,00
2184,99	1661,00
2189,74	1590,00
2194,48	1569,00
2199,21	1520,00
2203,94	1369,00
2208,67	1364,00
2213,39	1288,00
2218,11	1456,00
2222,82	1318,00
2227,53	1404,00
2232,23	1377,00
2236,93	1481,00
2241,63	1414,00
2246,32	1423,00
2251,00	1338,00
2255,68	1397,00
2260,36	1404,00
2265,03	1456,00
2269,70	1519,00
2274,36	1352,00
2279,02	1400,00
2283,68	1404,00
2288,33	1342,00
2292,97	1460,00
2297,61	1347,00
2302,25	1408,00
2306,88	1314,00
2311,51	1246,00
2316,14	1322,00
2320,75	1248,00
2325,37	1203,00
2329,98	1350,00
2334,59	1329,00
2339,19	1331,00
2343,79	1156,00
2348,38	1336,00
2352,97	1230,00
2357,55	1318,00
2362,13	1279,00
2366,71	1238,00
2371,28	1428,00
2375,85	1330,00
2380,41	1290,00
2384,97	1223,00
2389,52	1337,00
2394,07	1370,00
2398,62	1286,00
2403,16	1417,00
2407,70	1137,00
2412,23	1177,00
2416,76	1301,00
2421,29	1291,00
2425,81	1356,00
2430,32	1390,00
2434,84	1138,00
2439,34	1231,00
2443,85	1344,00
2448,35	1238,00
2452,84	1212,00
2457,33	1321,00
2461,82	1071,00
2466,30	1125,00
2470,78	1200,00
2475,25	1235,00
2479,72	1209,00
2484,19	1253,00
2488,65	1290,00
2493,11	1121,00
2497,56	1336,00
2502,01	1144,00
2506,46	1309,00
2510,90	1091,00
2515,34	1137,00
2519,77	1204,00
2524,20	1199,00
2528,62	1206,00
2533,04	1289,00
2537,46	1207,00
2541,87	1263,00
2546,28	1198,00
2550,68	1275,00
2555,08	1227,00
2559,48	1207,00
2563,87	1155,00
2568,26	1094,00
2572,64	1255,00
2577,02	1230,00
2581,40	1107,00
2585,77	1193,00
2590,14	1220,00
2594,50	1074,00
2598,86	1307,00
2603,22	1171,00
2607,57	1159,00
2611,92	1164,00
2616,26	1356,00
2620,60	1342,00
2624,94	1235,00
2629,27	1245,00
2633,60	1136,00
2637,92	1386,00
2642,24	1392,00
2646,56	1315,00
2650,87	1114,00
2655,18	1324,00
2659,48	1174,00
2663,78	1229,00
2668,08	1209,00
2672,37	1311,00
2676,66	1228,00
2680,95	1240,00
2685,23	1314,00
2689,50	1305,00
2693,78	1261,00
2698,05	1302,00
2702,31	1398,00
2706,57	1457,00
2710,83	1554,00
2715,08	1520,00
2719,33	1625,00
2723,58	1521,00
2727,82	1625,00
2732,06	1516,00
2736,29	1482,00
2740,53	1493,00
2744,75	1356,00
2748,97	1384,00
2753,19	1327,00
2757,41	1373,00
2761,62	1427,00
2765,83	1390,00
2770,03	1389,00
2774,23	1473,00
2778,43	1349,00
2782,62	1404,00
2786,81	1462,00
2791,00	1426,00
2795,18	1521,00
2799,35	1588,00
2803,53	1541,00
2807,70	1637,00
2811,86	1671,00
2816,03	1899,00
2820,19	1822,00
2824,34	1858,00
2828,49	1977,00
2832,64	2352,00
2836,78	2795,00
2840,92	3229,00
2845,06	3903,00
2849,19	4205,00
2853,32	4413,00
2857,45	4294,00
2861,57	4260,00
2865,69	4257,00
2869,80	4129,00
2873,91	4253,00
2878,02	4696,00
2882,12	5077,00
2886,22	5054,00
2890,32	4830,00
2894,41	4490,00
2898,50	4111,00
2902,58	3888,00
2906,67	3616,00
2910,74	3397,00
2914,82	3102,00
2918,89	2994,00
2922,96	2735,00
2927,02	2629,00
2931,08	2496,00
2935,13	2330,00
2939,19	2249,00
2943,24	2105,00
2947,28	2096,00
2951,32	1807,00
2955,36	1707,00
2959,40	1736,00
2963,43	1533,00
2967,46	1492,00
2971,48	1458,00
2975,50	1434,00
2979,52	1431,00
2983,53	1398,00
2987,54	1313,00
2991,55	1321,00
2995,55	1231,00
2999,55	1215,00
3003,54	1201,00
3007,54	1190,00
3011,53	1229,00
3015,51	1113,00
3019,49	1191,00
3023,47	1049,00
3027,45	1132,00
3031,42	1064,00
3035,39	1046,00
3039,35	1082,00
3043,31	1135,00
3047,27	1087,00
3051,22	1087,00
3055,17	1023,00
3059,12	1011,00
3063,06	1068,00
3067,00	971,00
3070,94	955,00
3074,87	1016,00
3078,80	989,00
3082,73	1029,00
3086,65	1014,00
3090,57	956,00
3094,49	928,00
3098,40	950,00
3102,31	942,00
3106,22	997,00
3110,12	972,00
3114,02	859,00
3117,92	969,00
3121,81	1012,00
3125,70	979,00
3129,58	893,00
3133,47	792,00
3137,34	1145,00
3141,22	1048,00
3145,09	979,00
3148,96	1034,00
3152,83	997,00
3156,69	973,00
3160,55	832,00
3164,40	973,00
3168,26	918,00
3172,10	1032,00
3175,95	900,00
3179,79	980,00
3183,63	962,00
3187,47	951,00
3191,30	967,00
3195,13	909,00
3198,95	828,00
3202,78	923,00
3206,60	884,00
3210,41	835,00
3214,23	820,00
3218,03	888,00
3221,84	903,00
3225,64	914,00
3229,44	867,00
3233,24	945,00
3237,03	918,00
3240,82	816,00
3244,61	848,00
3248,39	892,00
3252,17	941,00
3255,95	960,00
3259,72	955,00
3263,49	1131,00
3267,26	844,00
3271,03	938,00
3274,79	892,00
3278,54	1015,00
3282,30	785,00
3286,05	929,00
3289,80	1007,00
3293,54	861,00
3297,29	889,00
3301,02	885,00
3304,76	912,00
3308,49	954,00
3312,22	851,00
3315,95	828,00
3319,67	855,00
3323,39	1082,00
3327,10	997,00
3330,82	883,00
3334,53	898,00
3338,24	871,00
3341,94	837,00
3345,64	965,00
3349,34	911,00
3353,03	977,00
3356,72	942,00
3360,41	829,00
3364,10	869,00
3367,78	912,00
3371,46	890,00
3375,13	879,00
3378,81	993,00
3382,48	844,00
3386,14	965,00
3389,81	967,00
3393,47	872,00
3397,12	1014,00
3400,78	878,00
3404,43	865,00
3408,08	968,00
3411,72	861,00
3415,36	812,00
3419,00	921,00
3422,64	882,00
3426,27	829,00
3429,90	889,00
3433,53	801,00
3437,15	881,00
3440,77	828,00
3444,39	898,00
3448,00	818,00
3451,62	923,00
3455,22	859,00
3458,83	784,00
3462,43	848,00
3466,03	886,00
3469,63	810,00
3473,22	815,00
3476,81	768,00
3480,40	901,00
3483,99	764,00
3487,57	954,00
3491,15	882,00
3494,72	948,00
3498,29	962,00
3501,86	748,00
3505,43	869,00
3508,99	845,00
3512,56	763,00
3516,11	881,00
3519,67	861,00
3523,22	902,00
3526,77	819,00
3530,32	1010,00
3533,86	879,00
3537,40	905,00
3540,94	926,00
3544,47	788,00
3548,00	813,00
3551,53	845,00
3555,06	803,00
3558,58	951,00
3562,10	806,00
3565,62	741,00
3569,13	813,00
3572,64	975,00
3576,15	781,00
3579,66	809,00
3583,16	820,00
3586,66	802,00
3590,16	819,00
3593,65	759,00
3597,14	802,00
3600,63	798,00
3604,11	821,00
3607,60	803,00
3611,08	916,00
3614,55	808,00
3618,03	749,00
3621,50	798,00
3624,97	808,00
3628,43	779,00
3631,90	795,00
3635,36	714,00
3638,81	842,00
3642,27	741,00
3645,72	808,00
3649,17	707,00
3652,61	780,00
3656,06	746,00
3659,50	804,00
3662,93	839,00
3666,37	846,00
3669,80	924,00
3673,23	933,00
3676,65	767,00
3680,08	853,00
3683,50	804,00
3686,92	774,00
3690,33	772,00
3693,74	732,00
3697,15	708,00
3700,56	846,00
3703,96	816,00
3707,36	617,00
3710,76	664,00
3714,16	689,00
3717,55	770,00
3720,94	722,00
3724,33	793,00
3727,71	773,00
3731,10	762,00
3734,48	781,00
3737,85	719,00
3741,23	706,00
3744,60	680,00
3747,97	614,00
3751,33	839,00
3754,69	675,00
3758,05	718,00
3761,41	656,00
3764,77	643,00
3768,12	673,00
3771,47	592,00
3774,82	721,00
3778,16	-7,00
3781,50	14,00
3784,84	2,00
3788,18	9,00
>>>>>End Processed Spectral Data<<<<<
