SpectraSuite Data File
++++++++++++++++++++++++++++++++++++
Date: Mon Jan 05 16:33:55 ICT 2026
User: Administrator
Dark Spectrum Present: Yes
Reference Spectrum Present: No
Number of Sampled Component Spectra: 1
Spectrometers: MAYP113682
Integration Time (usec): 3000000 (MAYP113682)
Spectra Averaged: 1 (MAYP113682)
Boxcar Smoothing: 0 (MAYP113682)
Correct for Electrical Dark: No (MAYP113682)
Strobe/Lamp Enabled: No (MAYP113682)
Correct for Detector Non-linearity: No (MAYP113682)
Correct for Stray Light: No (MAYP113682)
Number of Pixels in Processed Spectrum: 2068
>>>>>Begin Processed Spectral Data<<<<<
-37534,58	32,00
-37414,56	7,00
-37295,11	10,00
-37176,24	7,00
-37057,95	640,00
-36940,22	715,00
-36823,05	650,00
-36706,45	839,00
-36590,40	761,00
-36474,90	699,00
-36359,95	810,00
-36245,55	780,00
-36131,68	783,00
-36018,35	778,00
-35905,55	825,00
-35793,29	863,00
-35681,54	745,00
-35570,32	781,00
-35459,62	813,00
-35349,43	980,00
-35239,75	946,00
-35130,58	887,00
-35021,91	755,00
-34913,74	817,00
-34806,07	810,00
-34698,89	866,00
-34592,20	797,00
-34486,00	893,00
-34380,28	956,00
-34275,04	808,00
-34170,27	748,00
-34065,98	940,00
-33962,16	874,00
-33858,81	890,00
-33755,92	888,00
-33653,49	985,00
-33551,52	918,00
-33450,01	917,00
-33348,94	881,00
-33248,33	795,00
-33148,16	842,00
-33048,43	903,00
-32949,14	1082,00
-32850,29	963,00
-32751,87	902,00
-32653,89	1009,00
-32556,33	978,00
-32459,20	806,00
-32362,49	897,00
-32266,19	904,00
-32170,32	813,00
-32074,86	906,00
-31979,82	1003,00
-31885,18	966,00
-31790,95	988,00
-31697,12	1020,00
-31603,69	942,00
-31510,67	941,00
-31418,04	985,00
-31325,80	843,00
-31233,95	828,00
-31142,49	866,00
-31051,42	820,00
-30960,73	1052,00
-30870,43	987,00
-30780,50	1001,00
-30690,95	926,00
-30601,77	1010,00
-30512,97	946,00
-30424,53	937,00
-30336,46	958,00
-30248,76	921,00
-30161,42	978,00
-30074,44	881,00
-29987,81	987,00
-29901,55	1018,00
-29815,63	883,00
-29730,07	957,00
-29644,86	995,00
-29560,00	942,00
-29475,48	1008,00
-29391,30	932,00
-29307,47	842,00
-29223,97	915,00
-29140,81	935,00
-29057,99	1034,00
-28975,50	799,00
-28893,34	1088,00
-28811,51	927,00
-28730,00	961,00
-28648,82	844,00
-28567,97	914,00
-28487,43	876,00
-28407,21	845,00
-28327,32	889,00
-28247,73	1072,00
-28168,46	865,00
-28089,50	954,00
-28010,85	753,00
-27932,51	865,00
-27854,48	943,00
-27776,75	930,00
-27699,32	893,00
-27622,19	883,00
-27545,37	887,00
-27468,84	947,00
-27392,60	992,00
-27316,66	890,00
-27241,01	879,00
-27165,66	834,00
-27090,59	858,00
-27015,81	1008,00
-26941,31	1047,00
-26867,10	875,00
-26793,17	1031,00
-26719,52	905,00
-26646,15	856,00
-26573,06	890,00
-26500,24	890,00
-26427,70	966,00
-26355,43	824,00
-26283,43	944,00
-26211,71	900,00
-26140,25	1011,00
-26069,06	1010,00
-25998,13	833,00
-25927,46	863,00
-25857,06	876,00
-25786,92	890,00
-25717,04	885,00
-25647,42	984,00
-25578,05	825,00
-25508,94	888,00
-25440,09	905,00
-25371,48	901,00
-25303,13	982,00
-25235,02	922,00
-25167,17	951,00
-25099,56	1012,00
-25032,19	863,00
-24965,07	812,00
-24898,20	839,00
-24831,56	862,00
-24765,17	861,00
-24699,01	838,00
-24633,10	985,00
-24567,41	819,00
-24501,97	868,00
-24436,75	899,00
-24371,77	952,00
-24307,03	833,00
-24242,51	924,00
-24178,22	866,00
-24114,16	851,00
-24050,32	948,00
-23986,71	873,00
-23923,32	910,00
-23860,16	887,00
-23797,22	865,00
-23734,50	839,00
-23672,00	863,00
-23609,71	855,00
-23547,65	859,00
-23485,80	992,00
-23424,16	789,00
-23362,74	915,00
-23301,53	887,00
-23240,54	849,00
-23179,75	798,00
-23119,17	849,00
-23058,80	895,00
-22998,64	912,00
-22938,68	783,00
-22878,93	919,00
-22819,39	845,00
-22760,04	896,00
-22700,90	941,00
-22641,96	899,00
-22583,22	872,00
-22524,68	818,00
-22466,33	896,00
-22408,19	863,00
-22350,23	886,00
-22292,48	802,00
-22234,92	978,00
-22177,55	925,00
-22120,37	1047,00
-22063,38	818,00
-22006,58	886,00
-21949,98	812,00
-21893,56	771,00
-21837,33	945,00
-21781,28	886,00
-21725,42	898,00
-21669,74	902,00
-21614,25	889,00
-21558,94	837,00
-21503,81	973,00
-21448,86	968,00
-21394,10	856,00
-21339,51	805,00
-21285,10	812,00
-21230,86	859,00
-21176,81	873,00
-21122,93	816,00
-21069,22	821,00
-21015,69	881,00
-20962,33	922,00
-20909,14	884,00
-20856,13	868,00
-20803,28	968,00
-20750,61	864,00
-20698,10	785,00
-20645,76	760,00
-20593,59	1055,00
-20541,59	1011,00
-20489,75	1001,00
-20438,07	767,00
-20386,56	959,00
-20335,22	849,00
-20284,03	839,00
-20233,01	817,00
-20182,15	881,00
-20131,45	894,00
-20080,91	808,00
-20030,52	912,00
-19980,30	792,00
-19930,23	767,00
-19880,32	953,00
-19830,56	887,00
-19780,96	850,00
-19731,52	788,00
-19682,23	913,00
-19633,09	794,00
-19584,10	818,00
-19535,26	839,00
-19486,58	1041,00
-19438,04	839,00
-19389,66	1024,00
-19341,42	797,00
-19293,33	831,00
-19245,39	889,00
-19197,60	1004,00
-19149,95	908,00
-19102,45	934,00
-19055,09	818,00
-19007,87	885,00
-18960,80	884,00
-18913,87	851,00
-18867,09	869,00
-18820,44	1011,00
-18773,94	905,00
-18727,57	923,00
-18681,35	766,00
-18635,26	959,00
-18589,31	729,00
-18543,50	844,00
-18497,83	917,00
-18452,29	944,00
-18406,89	739,00
-18361,63	938,00
-18316,50	895,00
-18271,50	903,00
-18226,63	953,00
-18181,90	906,00
-18137,30	1021,00
-18092,84	833,00
-18048,50	874,00
-18004,29	852,00
-17960,22	809,00
-17916,27	869,00
-17872,45	1004,00
-17828,76	1000,00
-17785,20	808,00
-17741,77	894,00
-17698,46	925,00
-17655,28	863,00
-17612,22	886,00
-17569,29	861,00
-17526,48	887,00
-17483,79	911,00
-17441,23	766,00
-17398,79	861,00
-17356,48	848,00
-17314,28	1071,00
-17272,21	819,00
-17230,26	851,00
-17188,42	866,00
-17146,71	921,00
-17105,12	884,00
-17063,64	869,00
-17022,28	849,00
-16981,04	825,00
-16939,92	935,00
-16898,91	998,00
-16858,02	802,00
-16817,25	954,00
-16776,59	823,00
-16736,04	860,00
-16695,61	910,00
-16655,29	871,00
-16615,09	830,00
-16574,99	930,00
-16535,01	878,00
-16495,15	961,00
-16455,39	934,00
-16415,74	846,00
-16376,21	891,00
-16336,78	859,00
-16297,46	810,00
-16258,26	754,00
-16219,16	808,00
-16180,17	866,00
-16141,28	873,00
-16102,51	957,00
-16063,84	840,00
-16025,27	927,00
-15986,82	848,00
-15948,46	836,00
-15910,22	903,00
-15872,07	848,00
-15834,04	846,00
-15796,10	864,00
-15758,27	1116,00
-15720,54	878,00
-15682,91	872,00
-15645,39	1053,00
-15607,97	825,00
-15570,64	910,00
-15533,42	1004,00
-15496,30	897,00
-15459,28	1014,00
-15422,36	821,00
-15385,54	915,00
-15348,82	883,00
-15312,19	1063,00
-15275,66	834,00
-15239,23	856,00
-15202,90	927,00
-15166,67	877,00
-15130,53	976,00
-15094,48	934,00
-15058,54	771,00
-15022,68	860,00
-14986,93	807,00
-14951,26	978,00
-14915,69	888,00
-14880,22	834,00
-14844,84	800,00
-14809,55	894,00
-14774,35	852,00
-14739,25	826,00
-14704,24	921,00
-14669,32	813,00
-14634,49	807,00
-14599,75	924,00
-14565,10	779,00
-14530,55	896,00
-14496,08	893,00
-14461,70	960,00
-14427,41	857,00
-14393,21	786,00
-14359,10	797,00
-14325,07	882,00
-14291,14	823,00
-14257,29	925,00
-14223,52	895,00
-14189,85	966,00
-14156,26	864,00
-14122,76	786,00
-14089,34	822,00
-14056,01	981,00
-14022,76	773,00
-13989,60	861,00
-13956,52	904,00
-13923,53	869,00
-13890,62	802,00
-13857,79	862,00
-13825,05	785,00
-13792,39	845,00
-13759,81	915,00
-13727,31	792,00
-13694,90	897,00
-13662,57	932,00
-13630,31	927,00
-13598,14	883,00
-13566,05	831,00
-13534,05	868,00
-13502,12	903,00
-13470,27	808,00
-13438,50	932,00
-13406,80	860,00
-13375,19	860,00
-13343,66	916,00
-13312,20	950,00
-13280,83	784,00
-13249,53	891,00
-13218,30	726,00
-13187,16	762,00
-13156,09	994,00
-13125,10	940,00
-13094,18	889,00
-13063,34	947,00
-13032,58	782,00
-13001,89	848,00
-12971,28	935,00
-12940,74	885,00
-12910,27	936,00
-12879,88	957,00
-12849,57	932,00
-12819,33	951,00
-12789,16	909,00
-12759,06	828,00
-12729,04	870,00
-12699,09	2246,00
-12669,21	837,00
-12639,41	893,00
-12609,68	870,00
-12580,02	909,00
-12550,43	968,00
-12520,91	732,00
-12491,46	871,00
-12462,08	843,00
-12432,77	829,00
-12403,54	850,00
-12374,37	788,00
-12345,27	921,00
-12316,24	866,00
-12287,29	876,00
-12258,40	804,00
-12229,57	911,00
-12200,82	853,00
-12172,14	912,00
-12143,52	755,00
-12114,97	790,00
-12086,49	874,00
-12058,07	965,00
-12029,73	831,00
-12001,44	948,00
-11973,23	817,00
-11945,08	883,00
-11917,00	944,00
-11888,98	725,00
-11861,03	1023,00
-11833,15	843,00
-11805,32	927,00
-11777,57	849,00
-11749,88	980,00
-11722,25	828,00
-11694,69	884,00
-11667,19	845,00
-11639,75	968,00
-11612,38	838,00
-11585,07	842,00
-11557,83	882,00
-11530,65	1114,00
-11503,53	800,00
-11476,47	860,00
-11449,48	846,00
-11422,54	1028,00
-11395,67	940,00
-11368,86	975,00
-11342,11	832,00
-11315,43	896,00
-11288,80	823,00
-11262,23	904,00
-11235,73	872,00
-11209,28	1142,00
-11182,90	839,00
-11156,57	915,00
-11130,31	988,00
-11104,10	816,00
-11077,96	875,00
-11051,87	895,00
-11025,84	855,00
-10999,87	903,00
-10973,96	833,00
-10948,11	839,00
-10922,31	940,00
-10896,58	868,00
-10870,90	969,00
-10845,28	915,00
-10819,71	813,00
-10794,20	953,00
-10768,75	978,00
-10743,36	929,00
-10718,02	864,00
-10692,74	916,00
-10667,52	838,00
-10642,35	832,00
-10617,24	984,00
-10592,18	971,00
-10567,18	865,00
-10542,23	947,00
-10517,34	924,00
-10492,51	921,00
-10467,72	864,00
-10443,00	936,00
-10418,32	973,00
-10393,70	1066,00
-10369,14	972,00
-10344,63	887,00
-10320,17	1106,00
-10295,77	904,00
-10271,42	978,00
-10247,12	1059,00
-10222,88	1105,00
-10198,68	964,00
-10174,54	1107,00
-10150,46	1219,00
-10126,42	1092,00
-10102,44	1080,00
-10078,51	1080,00
-10054,63	1186,00
-10030,80	1177,00
-10007,03	1212,00
-9983,30	1111,00
-9959,63	1195,00
-9936,01	1330,00
-9912,44	1312,00
-9888,92	1267,00
-9865,44	1335,00
-9842,02	1281,00
-9818,65	1331,00
-9795,33	1170,00
-9772,06	1381,00
-9748,84	1254,00
-9725,67	1431,00
-9702,55	1504,00
-9679,47	1588,00
-9656,45	1764,00
-9633,47	1609,00
-9610,55	1754,00
-9587,67	1795,00
-9564,84	2095,00
-9542,06	1882,00
-9519,32	2306,00
-9496,64	2325,00
-9474,00	2389,00
-9451,41	2405,00
-9428,87	2562,00
-9406,37	2419,00
-9383,92	2239,00
-9361,52	2141,00
-9339,17	2533,00
-9316,86	2583,00
-9294,60	2909,00
-9272,38	3304,00
-9250,21	3561,00
-9228,09	3550,00
-9206,01	3605,00
-9183,98	3299,00
-9162,00	3022,00
-9140,06	3049,00
-9118,16	2926,00
-9096,31	3088,00
-9074,51	3249,00
-9052,75	3384,00
-9031,04	3281,00
-9009,37	3088,00
-8987,74	2742,00
-8966,16	2572,00
-8944,63	2318,00
-8923,14	2329,00
-8901,69	2380,00
-8880,29	2436,00
-8858,93	2708,00
-8837,61	2882,00
-8816,34	3124,00
-8795,11	3117,00
-8773,92	2673,00
-8752,78	2645,00
-8731,68	2394,00
-8710,62	2622,00
-8689,61	2604,00
-8668,63	2722,00
-8647,70	2954,00
-8626,82	2745,00
-8605,97	2934,00
-8585,17	2662,00
-8564,41	2504,00
-8543,69	2456,00
-8523,01	2217,00
-8502,37	2484,00
-8481,78	2479,00
-8461,23	2410,00
-8440,71	2754,00
-8420,24	2845,00
-8399,81	2965,00
-8379,42	2944,00
-8359,08	2721,00
-8338,77	2485,00
-8318,50	2177,00
-8298,27	2222,00
-8278,09	2378,00
-8257,94	2509,00
-8237,83	2700,00
-8217,76	2792,00
-8197,74	2715,00
-8177,75	2943,00
-8157,80	2429,00
-8137,89	2348,00
-8118,02	2194,00
-8098,19	2355,00
-8078,40	2260,00
-8058,65	2373,00
-8038,93	2411,00
-8019,26	2404,00
-7999,62	2383,00
-7980,02	2277,00
-7960,46	2082,00
-7940,94	2058,00
-7921,46	1964,00
-7902,01	1911,00
-7882,60	2087,00
-7863,23	2082,00
-7843,90	2007,00
-7824,61	2132,00
-7805,35	2290,00
-7786,13	2260,00
-7766,95	2212,00
-7747,80	2265,00
-7728,69	2178,00
-7709,62	2129,00
-7690,59	2136,00
-7671,59	2361,00
-7652,63	2194,00
-7633,70	2271,00
-7614,81	2389,00
-7595,96	2161,00
-7577,15	2004,00
-7558,37	1916,00
-7539,62	2078,00
-7520,91	2061,00
-7502,24	2130,00
-7483,60	2233,00
-7465,00	2072,00
-7446,44	1986,00
-7427,91	1668,00
-7409,41	1698,00
-7390,95	1642,00
-7372,53	1500,00
-7354,14	1556,00
-7335,78	1517,00
-7317,46	1645,00
-7299,18	1592,00
-7280,92	1914,00
-7262,71	2096,00
-7244,52	2160,00
-7226,38	2042,00
-7208,26	2039,00
-7190,18	1943,00
-7172,14	1782,00
-7154,12	1877,00
-7136,15	1850,00
-7118,20	2073,00
-7100,29	2177,00
-7082,41	2091,00
-7064,57	1956,00
-7046,76	1917,00
-7028,98	1596,00
-7011,24	1711,00
-6993,53	1388,00
-6975,85	1406,00
-6958,20	1256,00
-6940,59	1411,00
-6923,01	1154,00
-6905,46	1512,00
-6887,94	1501,00
-6870,46	2044,00
-6853,01	1872,00
-6835,59	1887,00
-6818,21	1668,00
-6800,85	1590,00
-6783,53	1388,00
-6766,24	1156,00
-6748,98	1277,00
-6731,76	1131,00
-6714,56	1103,00
-6697,40	1003,00
-6680,26	1081,00
-6663,16	1275,00
-6646,09	1491,00
-6629,05	1529,00
-6612,05	1591,00
-6595,07	1500,00
-6578,13	1516,00
-6561,21	1305,00
-6544,33	1267,00
-6527,47	1000,00
-6510,65	1087,00
-6493,86	936,00
-6477,10	1058,00
-6460,36	1197,00
-6443,66	1006,00
-6426,99	1037,00
-6410,35	1187,00
-6393,74	1108,00
-6377,16	1159,00
-6360,61	1250,00
-6344,09	1204,00
-6327,59	1166,00
-6311,13	1368,00
-6294,70	1265,00
-6278,29	1428,00
-6261,92	1386,00
-6245,58	1581,00
-6229,26	1569,00
-6212,97	1507,00
-6196,72	1150,00
-6180,49	1325,00
-6164,29	1040,00
-6148,12	1076,00
-6131,98	970,00
-6115,86	877,00
-6099,78	936,00
-6083,72	899,00
-6067,69	850,00
-6051,69	921,00
-6035,72	1092,00
-6019,78	965,00
-6003,87	1239,00
-5987,98	1208,00
-5972,12	1304,00
-5956,29	1239,00
-5940,49	1159,00
-5924,71	1256,00
-5908,96	978,00
-5893,24	1047,00
-5877,55	1072,00
-5861,89	959,00
-5846,25	785,00
-5830,64	998,00
-5815,05	917,00
-5799,50	960,00
-5783,97	1025,00
-5768,47	1073,00
-5752,99	1343,00
-5737,55	1112,00
-5722,12	1268,00
-5706,73	1174,00
-5691,36	1240,00
-5676,02	975,00
-5660,71	1060,00
-5645,42	1009,00
-5630,16	1058,00
-5614,92	1119,00
-5599,71	1067,00
-5584,53	1108,00
-5569,37	1026,00
-5554,24	2185,00
-5539,14	954,00
-5524,06	1040,00
-5509,01	1035,00
-5493,98	1070,00
-5478,98	1048,00
-5464,00	1016,00
-5449,05	1011,00
-5434,13	1001,00
-5419,23	967,00
-5404,36	1010,00
-5389,51	1068,00
-5374,69	1149,00
-5359,89	1403,00
-5345,12	1430,00
-5330,37	1462,00
-5315,65	1147,00
-5300,95	1125,00
-5286,28	1088,00
-5271,63	872,00
-5257,01	945,00
-5242,41	1025,00
-5227,84	948,00
-5213,29	1032,00
-5198,76	890,00
-5184,26	940,00
-5169,79	957,00
-5155,33	1057,00
-5140,91	1074,00
-5126,51	1074,00
-5112,13	1094,00
-5097,77	1041,00
-5083,44	1141,00
-5069,13	947,00
-5054,85	1005,00
-5040,59	1036,00
-5026,36	1097,00
-5012,15	1083,00
-4997,96	1099,00
-4983,80	1020,00
-4969,66	1024,00
-4955,54	952,00
-4941,44	1121,00
-4927,37	1011,00
-4913,33	1269,00
-4899,30	1202,00
-4885,30	1277,00
-4871,33	1038,00
-4857,37	928,00
-4843,44	854,00
-4829,53	1128,00
-4815,65	1078,00
-4801,79	875,00
-4787,95	1031,00
-4774,13	910,00
-4760,34	856,00
-4746,56	1070,00
-4732,82	881,00
-4719,09	1076,00
-4705,38	1106,00
-4691,70	1261,00
-4678,04	1358,00
-4664,41	1214,00
-4650,79	1166,00
-4637,20	979,00
-4623,63	943,00
-4610,08	1133,00
-4596,56	1053,00
-4583,05	993,00
-4569,57	986,00
-4556,11	1137,00
-4542,67	832,00
-4529,25	932,00
-4515,86	1070,00
-4502,49	1158,00
-4489,13	1176,00
-4475,80	1274,00
-4462,49	902,00
-4449,21	1077,00
-4435,94	909,00
-4422,70	967,00
-4409,47	873,00
-4396,27	1114,00
-4383,09	1023,00
-4369,93	957,00
-4356,79	816,00
-4343,67	954,00
-4330,58	1067,00
-4317,50	1059,00
-4304,45	998,00
-4291,41	985,00
-4278,40	910,00
-4265,41	877,00
-4252,44	883,00
-4239,49	895,00
-4226,55	1109,00
-4213,65	994,00
-4200,76	1011,00
-4187,89	929,00
-4175,04	868,00
-4162,21	885,00
-4149,40	943,00
-4136,61	939,00
-4123,85	900,00
-4111,10	906,00
-4098,37	948,00
-4085,66	999,00
-4072,98	941,00
-4060,31	889,00
-4047,66	1028,00
-4035,04	1067,00
-4022,43	851,00
-4009,84	904,00
-3997,27	781,00
-3984,72	946,00
-3972,19	957,00
-3959,69	790,00
-3947,20	898,00
-3934,73	869,00
-3922,27	847,00
-3909,84	851,00
-3897,43	925,00
-3885,04	957,00
-3872,67	855,00
-3860,31	789,00
-3847,98	1057,00
-3835,66	884,00
-3823,36	869,00
-3811,09	884,00
-3798,83	940,00
-3786,59	956,00
-3774,37	1003,00
-3762,17	835,00
-3749,98	898,00
-3737,82	850,00
-3725,67	1085,00
-3713,55	853,00
-3701,44	978,00
-3689,35	922,00
-3677,28	937,00
-3665,22	881,00
-3653,19	922,00
-3641,17	887,00
-3629,18	1020,00
-3617,20	916,00
-3605,24	860,00
-3593,30	977,00
-3581,37	969,00
-3569,47	979,00
-3557,58	950,00
-3545,71	887,00
-3533,86	979,00
-3522,02	856,00
-3510,21	988,00
-3498,41	870,00
-3486,63	939,00
-3474,87	918,00
-3463,12	785,00
-3451,40	918,00
-3439,69	889,00
-3428,00	925,00
-3416,33	924,00
-3404,67	802,00
-3393,03	843,00
-3381,41	926,00
-3369,81	915,00
-3358,22	952,00
-3346,66	1016,00
-3335,10	969,00
-3323,57	833,00
-3312,06	897,00
-3300,56	1014,00
-3289,08	813,00
-3277,61	911,00
-3266,16	911,00
-3254,73	856,00
-3243,32	887,00
-3231,92	845,00
-3220,55	981,00
-3209,18	1046,00
-3197,84	861,00
-3186,51	847,00
-3175,20	887,00
-3163,90	890,00
-3152,63	931,00
-3141,36	905,00
-3130,12	988,00
-3118,89	938,00
-3107,68	863,00
-3096,49	861,00
-3085,31	822,00
-3074,15	871,00
-3063,00	867,00
-3051,87	890,00
-3040,76	810,00
-3029,67	1015,00
-3018,59	1098,00
-3007,52	1056,00
-2996,48	991,00
-2985,44	866,00
-2974,43	922,00
-2963,43	871,00
-2952,45	915,00
-2941,48	946,00
-2930,53	982,00
-2919,60	814,00
-2908,68	853,00
-2897,78	833,00
-2886,89	1029,00
-2876,02	996,00
-2865,17	926,00
-2854,33	922,00
-2843,50	862,00
-2832,70	887,00
-2821,90	824,00
-2811,13	874,00
-2800,37	888,00
-2789,62	819,00
-2778,89	987,00
-2768,18	924,00
-2757,48	903,00
-2746,80	971,00
-2736,13	862,00
-2725,48	1013,00
-2714,84	774,00
-2704,22	893,00
-2693,61	905,00
-2683,02	931,00
-2672,45	915,00
-2661,89	965,00
-2651,34	920,00
-2640,81	957,00
-2630,30	918,00
-2619,80	884,00
-2609,31	987,00
-2598,84	873,00
-2588,39	942,00
-2577,95	928,00
-2567,52	791,00
-2557,11	718,00
-2546,71	941,00
-2536,33	974,00
-2525,97	950,00
-2515,62	948,00
-2505,28	992,00
-2494,96	896,00
-2484,65	1000,00
-2474,36	1311,00
-2464,08	833,00
-2453,82	1010,00
-2443,57	831,00
-2433,33	875,00
-2423,11	952,00
-2412,91	893,00
-2402,72	887,00
-2392,54	928,00
-2382,38	874,00
-2372,23	996,00
-2362,09	2069,00
-2351,97	838,00
-2341,87	853,00
-2331,78	1040,00
-2321,70	940,00
-2311,64	855,00
-2301,59	804,00
-2291,55	846,00
-2281,53	881,00
-2271,53	765,00
-2261,53	1007,00
-2251,55	886,00
-2241,59	954,00
-2231,64	906,00
-2221,70	852,00
-2211,78	898,00
-2201,87	969,00
-2191,97	996,00
-2182,09	888,00
-2172,22	935,00
-2162,37	867,00
-2152,53	783,00
-2142,70	916,00
-2132,89	851,00
-2123,09	954,00
-2113,30	902,00
-2103,53	911,00
-2093,77	947,00
-2084,02	870,00
-2074,29	1045,00
-2064,57	995,00
-2054,86	975,00
-2045,17	1047,00
-2035,49	897,00
-2025,82	939,00
-2016,17	878,00
-2006,53	919,00
-1996,91	902,00
-1987,29	857,00
-1977,69	889,00
-1968,11	841,00
-1958,53	866,00
-1948,97	955,00
-1939,42	841,00
-1929,89	853,00
-1920,37	930,00
-1910,86	831,00
-1901,36	914,00
-1891,88	976,00
-1882,41	924,00
-1872,95	1010,00
-1863,51	958,00
-1854,08	950,00
-1844,66	997,00
-1835,26	969,00
-1825,86	987,00
-1816,48	794,00
-1807,11	961,00
-1797,76	896,00
-1788,42	920,00
-1779,09	916,00
-1769,77	908,00
-1760,47	1072,00
-1751,17	820,00
-1741,89	883,00
-1732,63	982,00
-1723,37	1104,00
-1714,13	1065,00
-1704,90	906,00
-1695,68	1008,00
-1686,48	810,00
-1677,29	914,00
-1668,11	1112,00
-1658,94	905,00
-1649,78	892,00
-1640,64	914,00
-1631,51	950,00
-1622,39	949,00
-1613,28	983,00
-1604,19	1052,00
-1595,10	872,00
-1586,03	891,00
-1576,97	951,00
-1567,93	914,00
-1558,89	1008,00
-1549,87	991,00
-1540,86	834,00
-1531,86	907,00
-1522,87	871,00
-1513,90	1042,00
-1504,93	979,00
-1495,98	929,00
-1487,04	1010,00
-1478,12	930,00
-1469,20	861,00
-1460,30	972,00
-1451,40	1109,00
-1442,52	935,00
-1433,65	1088,00
-1424,80	885,00
-1415,95	863,00
-1407,12	1125,00
-1398,30	952,00
-1389,48	979,00
-1380,69	877,00
-1371,90	885,00
-1363,12	918,00
-1354,36	1095,00
-1345,60	934,00
-1336,86	922,00
-1328,13	1155,00
-1319,41	976,00
-1310,70	922,00
-1302,01	824,00
-1293,32	870,00
-1284,65	917,00
-1275,99	964,00
-1267,33	1074,00
-1258,69	984,00
-1250,06	971,00
-1241,45	811,00
-1232,84	1050,00
-1224,25	883,00
-1215,66	970,00
-1207,09	1028,00
-1198,53	872,00
-1189,97	851,00
-1181,43	756,00
-1172,91	767,00
-1164,39	1092,00
-1155,88	829,00
-1147,38	772,00
-1138,90	828,00
-1130,43	876,00
-1121,96	934,00
-1113,51	959,00
-1105,07	937,00
-1096,64	1005,00
-1088,22	1001,00
-1079,81	995,00
-1071,41	1000,00
-1063,02	906,00
-1054,65	968,00
-1046,28	969,00
-1037,92	964,00
-1029,58	873,00
-1021,24	949,00
-1012,92	1233,00
-1004,61	953,00
-996,30	1132,00
-988,01	814,00
-979,73	890,00
-971,46	949,00
-963,20	930,00
-954,95	824,00
-946,71	896,00
-938,48	928,00
-930,26	1060,00
-922,06	945,00
-913,86	922,00
-905,67	807,00
-897,49	968,00
-889,33	824,00
-881,17	1007,00
-873,02	885,00
-864,89	835,00
-856,76	904,00
-848,65	959,00
-840,54	957,00
-832,45	960,00
-824,36	834,00
-816,29	1086,00
-808,22	959,00
-800,17	1009,00
-792,12	881,00
-784,09	989,00
-776,06	859,00
-768,05	966,00
-760,04	940,00
-752,05	925,00
-744,07	990,00
-736,09	1025,00
-728,13	776,00
-720,17	936,00
-712,23	911,00
-704,29	864,00
-696,37	914,00
-688,45	976,00
-680,55	881,00
-672,65	961,00
-664,77	927,00
-656,89	976,00
-649,03	819,00
-641,17	944,00
-633,32	1003,00
-625,49	888,00
-617,66	911,00
-609,84	1073,00
-602,03	835,00
-594,23	913,00
-586,45	926,00
-578,67	802,00
-570,90	916,00
-563,14	827,00
-555,39	958,00
-547,65	923,00
-539,91	933,00
-532,19	983,00
-524,48	929,00
-516,78	824,00
-509,08	999,00
-501,40	821,00
-493,72	895,00
-486,06	931,00
-478,40	1033,00
-470,76	852,00
-463,12	926,00
-455,49	882,00
-447,87	874,00
-440,26	837,00
-432,66	856,00
-425,07	967,00
-417,49	948,00
-409,92	848,00
-402,35	875,00
-394,80	815,00
-387,25	942,00
-379,72	897,00
-372,19	971,00
-364,67	1066,00
-357,17	866,00
-349,67	943,00
-342,18	972,00
-334,69	973,00
-327,22	947,00
-319,76	934,00
-312,30	928,00
-304,86	852,00
-297,42	949,00
-290,00	1019,00
-282,58	917,00
-275,17	955,00
-267,77	1039,00
-260,37	928,00
-252,99	1015,00
-245,62	1047,00
-238,25	1004,00
-230,90	935,00
-223,55	1022,00
-216,21	1001,00
-208,88	1213,00
-201,56	1008,00
-194,25	1098,00
-186,94	1091,00
-179,65	1080,00
-172,36	1171,00
-165,08	1133,00
-157,81	1241,00
-150,55	1306,00
-143,30	1224,00
-136,06	1246,00
-128,82	1404,00
-121,60	1332,00
-114,38	1394,00
-107,17	1615,00
-99,97	1670,00
-92,78	1737,00
-85,60	1783,00
-78,42	1977,00
-71,25	2113,00
-64,10	2316,00
-56,95	2563,00
-49,81	2883,00
-42,67	3517,00
-35,55	3895,00
-28,43	5128,00
-21,33	7985,00
-14,23	24410,00
-7,14	57498,00
-0,05	57284,00
7,02	57012,00
14,09	57319,00
21,14	20495,00
28,19	9093,00
35,23	6111,00
42,27	5046,00
49,29	4060,00
56,31	3685,00
63,32	3352,00
70,32	2812,00
77,31	2556,00
84,29	2226,00
91,27	2208,00
98,23	2078,00
105,19	1985,00
112,14	2188,00
119,09	3031,00
126,02	4469,00
132,95	4997,00
139,87	5247,00
146,78	5515,00
153,68	5146,00
160,58	5159,00
167,46	4919,00
174,34	5034,00
181,21	5053,00
188,08	4902,00
194,93	5020,00
201,78	4982,00
208,62	5023,00
215,45	4987,00
222,27	4971,00
229,09	5095,00
235,90	4735,00
242,70	4874,00
249,49	4934,00
256,27	4783,00
263,05	4593,00
269,82	4619,00
276,58	4587,00
283,33	4511,00
290,08	4309,00
296,82	4372,00
303,55	4172,00
310,27	4247,00
316,98	4139,00
323,69	4189,00
330,39	4101,00
337,08	4153,00
343,76	4074,00
350,44	4206,00
357,11	4205,00
363,77	4110,00
370,42	4021,00
377,07	4163,00
383,71	4077,00
390,34	4030,00
396,96	4056,00
403,58	4091,00
410,19	4228,00
416,79	4254,00
423,38	4369,00
429,97	4374,00
436,55	4271,00
443,12	4474,00
449,68	4469,00
456,24	4257,00
462,79	4148,00
469,33	3997,00
475,86	3879,00
482,39	3733,00
488,91	3737,00
495,42	3613,00
501,93	3620,00
508,42	3528,00
514,91	3591,00
521,40	3483,00
527,87	3590,00
534,34	3355,00
540,80	3444,00
547,25	3474,00
553,70	3390,00
560,14	3469,00
566,57	3441,00
573,00	3510,00
579,41	3607,00
585,83	3632,00
592,23	3601,00
598,62	3715,00
605,01	3676,00
611,40	3827,00
617,77	3931,00
624,14	3621,00
630,50	3497,00
636,85	3411,00
643,20	3384,00
649,54	3105,00
655,87	3250,00
662,20	3169,00
668,52	3220,00
674,83	3193,00
681,13	3091,00
687,43	3204,00
693,72	3066,00
700,00	2962,00
706,28	2979,00
712,55	3107,00
718,81	3171,00
725,07	2936,00
731,32	3045,00
737,56	3088,00
743,79	2994,00
750,02	2982,00
756,24	2847,00
762,46	2964,00
768,67	3158,00
774,87	2870,00
781,06	2823,00
787,25	2921,00
793,43	2922,00
799,60	2793,00
805,77	3036,00
811,93	2864,00
818,08	2926,00
824,23	2882,00
830,37	3196,00
836,50	2930,00
842,63	2938,00
848,75	2927,00
854,87	2873,00
860,97	2915,00
867,07	2865,00
873,17	3065,00
879,25	2961,00
885,33	2961,00
891,41	2961,00
897,47	2965,00
903,53	2866,00
909,59	2858,00
915,63	2881,00
921,67	2834,00
927,71	2924,00
933,74	2873,00
939,76	2603,00
945,77	2628,00
951,78	2848,00
957,78	2573,00
963,78	2733,00
969,77	2713,00
975,75	2704,00
981,72	2534,00
987,69	4022,00
993,66	2834,00
999,61	2723,00
1005,56	2774,00
1011,51	2813,00
1017,44	2720,00
1023,37	2787,00
1029,30	2851,00
1035,22	2780,00
1041,13	2782,00
1047,03	2932,00
1052,93	3501,00
1058,83	5001,00
1064,71	5333,00
1070,59	4585,00
1076,47	3643,00
1082,33	3519,00
1088,20	3289,00
1094,05	3153,00
1099,90	2877,00
1105,74	2948,00
1111,58	2907,00
1117,41	3303,00
1123,23	4341,00
1129,05	5241,00
1134,86	4809,00
1140,67	3645,00
1146,47	2965,00
1152,26	2889,00
1158,05	2735,00
1163,83	2869,00
1169,60	2978,00
1175,37	2931,00
1181,13	2600,00
1186,89	2625,00
1192,64	2572,00
1198,38	2701,00
1204,12	2541,00
1209,85	2591,00
1215,58	2575,00
1221,30	2533,00
1227,02	2578,00
1232,72	2494,00
1238,43	2531,00
1244,12	2585,00
1249,81	2523,00
1255,50	2662,00
1261,17	2624,00
1266,85	2726,00
1272,51	2798,00
1278,17	3068,00
1283,83	3256,00
1289,47	4749,00
1295,12	6296,00
1300,75	5636,00
1306,38	4384,00
1312,01	3598,00
1317,63	3101,00
1323,24	2847,00
1328,85	2774,00
1334,45	2672,00
1340,04	2719,00
1345,63	2595,00
1351,22	2790,00
1356,80	2771,00
1362,37	2909,00
1367,93	2843,00
1373,49	2905,00
1379,05	2727,00
1384,60	2638,00
1390,14	2713,00
1395,68	2641,00
1401,21	2729,00
1406,74	2917,00
1412,26	3575,00
1417,77	4287,00
1423,28	4040,00
1428,78	4396,00
1434,28	5474,00
1439,77	6202,00
1445,26	6166,00
1450,74	5732,00
1456,22	5247,00
1461,68	5117,00
1467,15	4741,00
1472,61	4168,00
1478,06	3704,00
1483,51	3231,00
1488,95	2850,00
1494,38	2893,00
1499,81	2462,00
1505,24	2395,00
1510,65	2490,00
1516,07	2477,00
1521,48	2393,00
1526,88	2293,00
1532,27	2318,00
1537,67	2317,00
1543,05	2223,00
1548,43	2252,00
1553,81	2365,00
1559,18	2111,00
1564,54	2274,00
1569,90	2174,00
1575,25	2127,00
1580,60	2078,00
1585,94	2159,00
1591,28	2089,00
1596,61	2078,00
1601,93	2110,00
1607,25	2274,00
1612,57	2140,00
1617,88	2166,00
1623,18	2218,00
1628,48	2101,00
1633,77	2047,00
1639,06	2131,00
1644,34	1987,00
1649,62	2019,00
1654,89	2043,00
1660,16	1896,00
1665,42	2137,00
1670,67	1956,00
1675,92	1876,00
1681,17	1981,00
1686,41	2052,00
1691,64	2045,00
1696,87	1970,00
1702,10	1951,00
1707,32	2006,00
1712,53	1999,00
1717,74	1884,00
1722,94	1992,00
1728,14	1847,00
1733,33	1865,00
1738,52	1779,00
1743,70	1877,00
1748,88	1903,00
1754,05	1934,00
1759,22	1716,00
1764,38	2147,00
1769,53	1901,00
1774,69	1936,00
1779,83	1726,00
1784,97	1806,00
1790,11	1833,00
1795,24	1764,00
1800,36	1790,00
1805,48	1706,00
1810,60	1815,00
1815,71	1669,00
1820,82	1663,00
1825,92	1820,00
1831,01	1685,00
1836,10	1710,00
1841,19	1757,00
1846,26	1588,00
1851,34	1762,00
1856,41	1762,00
1861,47	1721,00
1866,53	1871,00
1871,59	1629,00
1876,64	1671,00
1881,68	1666,00
1886,72	1635,00
1891,76	1595,00
1896,79	1640,00
1901,81	1523,00
1906,83	1680,00
1911,85	1601,00
1916,86	1760,00
1921,86	1567,00
1926,86	1608,00
1931,86	1725,00
1936,85	1605,00
1941,83	1568,00
1946,81	1535,00
1951,79	1473,00
1956,76	1454,00
1961,72	1367,00
1966,68	1521,00
1971,64	1581,00
1976,59	1488,00
1981,54	1567,00
1986,48	1595,00
1991,42	1364,00
1996,35	1772,00
2001,27	1594,00
2006,20	1470,00
2011,11	1565,00
2016,03	1456,00
2020,93	1431,00
2025,84	1534,00
2030,73	1457,00
2035,63	1325,00
2040,52	1461,00
2045,40	1384,00
2050,28	1461,00
2055,15	1507,00
2060,02	1249,00
2064,89	1561,00
2069,75	1447,00
2074,60	1551,00
2079,46	1328,00
2084,30	1335,00
2089,14	1438,00
2093,98	1552,00
2098,81	1459,00
2103,64	1455,00
2108,46	1461,00
2113,28	1503,00
2118,09	1511,00
2122,90	1468,00
2127,70	1389,00
2132,50	1434,00
2137,30	1375,00
2142,09	1269,00
2146,87	1320,00
2151,66	1417,00
2156,43	1353,00
2161,20	1375,00
2165,97	1543,00
2170,73	1354,00
2175,49	1444,00
2180,24	1523,00
2184,99	1566,00
2189,74	1642,00
2194,48	1428,00
2199,21	1430,00
2203,94	1346,00
2208,67	1286,00
2213,39	1209,00
2218,11	1361,00
2222,82	1272,00
2227,53	1377,00
2232,23	1409,00
2236,93	1381,00
2241,63	1340,00
2246,32	1365,00
2251,00	1375,00
2255,68	1381,00
2260,36	1350,00
2265,03	1395,00
2269,70	1412,00
2274,36	1273,00
2279,02	1352,00
2283,68	1368,00
2288,33	1335,00
2292,97	1379,00
2297,61	1307,00
2302,25	1290,00
2306,88	1274,00
2311,51	1202,00
2316,14	1320,00
2320,75	1210,00
2325,37	1206,00
2329,98	1318,00
2334,59	1283,00
2339,19	1233,00
2343,79	1208,00
2348,38	1272,00
2352,97	1234,00
2357,55	1321,00
2362,13	1213,00
2366,71	1175,00
2371,28	1320,00
2375,85	1230,00
2380,41	1281,00
2384,97	1154,00
2389,52	1383,00
2394,07	1273,00
2398,62	1241,00
2403,16	1355,00
2407,70	1123,00
2412,23	1166,00
2416,76	1317,00
2421,29	1300,00
2425,81	1271,00
2430,32	1353,00
2434,84	1069,00
2439,34	1232,00
2443,85	1401,00
2448,35	1174,00
2452,84	1211,00
2457,33	1310,00
2461,82	1066,00
2466,30	1133,00
2470,78	1204,00
2475,25	1175,00
2479,72	1200,00
2484,19	1338,00
2488,65	1265,00
2493,11	1162,00
2497,56	1301,00
2502,01	1083,00
2506,46	1245,00
2510,90	1238,00
2515,34	1179,00
2519,77	1247,00
2524,20	1184,00
2528,62	1146,00
2533,04	1183,00
2537,46	1170,00
2541,87	1168,00
2546,28	1224,00
2550,68	1308,00
2555,08	1133,00
2559,48	1202,00
2563,87	1120,00
2568,26	1099,00
2572,64	1211,00
2577,02	1275,00
2581,40	1100,00
2585,77	1275,00
2590,14	1206,00
2594,50	1095,00
2598,86	1275,00
2603,22	1197,00
2607,57	1175,00
2611,92	1227,00
2616,26	1293,00
2620,60	1272,00
2624,94	1179,00
2629,27	1306,00
2633,60	1147,00
2637,92	1429,00
2642,24	1368,00
2646,56	1202,00
2650,87	1197,00
2655,18	1344,00
2659,48	1204,00
2663,78	1201,00
2668,08	1232,00
2672,37	1242,00
2676,66	1218,00
2680,95	1214,00
2685,23	1347,00
2689,50	1295,00
2693,78	1276,00
2698,05	1346,00
2702,31	1488,00
2706,57	1432,00
2710,83	1542,00
2715,08	1662,00
2719,33	1659,00
2723,58	1566,00
2727,82	1650,00
2732,06	1531,00
2736,29	1489,00
2740,53	1444,00
2744,75	1422,00
2748,97	1435,00
2753,19	1454,00
2757,41	1357,00
2761,62	1438,00
2765,83	1340,00
2770,03	1315,00
2774,23	1473,00
2778,43	1286,00
2782,62	1489,00
2786,81	1530,00
2791,00	1468,00
2795,18	1540,00
2799,35	1601,00
2803,53	1589,00
2807,70	1651,00
2811,86	1642,00
2816,03	1902,00
2820,19	1778,00
2824,34	1890,00
2828,49	2097,00
2832,64	2370,00
2836,78	2854,00
2840,92	3149,00
2845,06	3861,00
2849,19	4252,00
2853,32	4441,00
2857,45	4346,00
2861,57	4397,00
2865,69	4268,00
2869,80	4095,00
2873,91	4245,00
2878,02	4755,00
2882,12	5141,00
2886,22	5086,00
2890,32	4805,00
2894,41	4513,00
2898,50	4097,00
2902,58	3874,00
2906,67	3621,00
2910,74	3352,00
2914,82	2975,00
2918,89	3006,00
2922,96	2768,00
2927,02	2517,00
2931,08	2501,00
2935,13	2267,00
2939,19	2258,00
2943,24	2044,00
2947,28	2053,00
2951,32	1759,00
2955,36	1712,00
2959,40	1779,00
2963,43	1556,00
2967,46	1459,00
2971,48	1515,00
2975,50	1381,00
2979,52	1486,00
2983,53	1378,00
2987,54	1328,00
2991,55	1308,00
2995,55	1354,00
2999,55	1239,00
3003,54	1109,00
3007,54	1233,00
3011,53	1161,00
3015,51	1149,00
3019,49	1239,00
3023,47	1085,00
3027,45	1230,00
3031,42	1099,00
3035,39	1118,00
3039,35	1073,00
3043,31	1165,00
3047,27	1089,00
3051,22	1147,00
3055,17	937,00
3059,12	1067,00
3063,06	1061,00
3067,00	941,00
3070,94	1038,00
3074,87	1143,00
3078,80	1065,00
3082,73	1004,00
3086,65	974,00
3090,57	1074,00
3094,49	1016,00
3098,40	996,00
3102,31	967,00
3106,22	1044,00
3110,12	1004,00
3114,02	947,00
3117,92	1042,00
3121,81	1004,00
3125,70	1035,00
3129,58	913,00
3133,47	882,00
3137,34	1011,00
3141,22	1096,00
3145,09	993,00
3148,96	1049,00
3152,83	1025,00
3156,69	1025,00
3160,55	891,00
3164,40	1030,00
3168,26	1018,00
3172,10	1078,00
3175,95	1016,00
3179,79	992,00
3183,63	1072,00
3187,47	926,00
3191,30	1039,00
3195,13	1001,00
3198,95	849,00
3202,78	943,00
3206,60	887,00
3210,41	888,00
3214,23	904,00
3218,03	902,00
3221,84	969,00
3225,64	1028,00
3229,44	953,00
3233,24	957,00
3237,03	908,00
3240,82	885,00
3244,61	944,00
3248,39	958,00
3252,17	976,00
3255,95	1082,00
3259,72	950,00
3263,49	1191,00
3267,26	883,00
3271,03	941,00
3274,79	918,00
3278,54	959,00
3282,30	829,00
3286,05	1001,00
3289,80	916,00
3293,54	903,00
3297,29	978,00
3301,02	865,00
3304,76	958,00
3308,49	1024,00
3312,22	893,00
3315,95	1014,00
3319,67	862,00
3323,39	1065,00
3327,10	973,00
3330,82	921,00
3334,53	915,00
3338,24	976,00
3341,94	893,00
3345,64	933,00
3349,34	879,00
3353,03	1000,00
3356,72	932,00
3360,41	1008,00
3364,10	881,00
3367,78	900,00
3371,46	904,00
3375,13	927,00
3378,81	1011,00
3382,48	880,00
3386,14	1015,00
3389,81	982,00
3393,47	984,00
3397,12	1065,00
3400,78	913,00
3404,43	873,00
3408,08	1009,00
3411,72	834,00
3415,36	851,00
3419,00	968,00
3422,64	861,00
3426,27	934,00
3429,90	963,00
3433,53	849,00
3437,15	834,00
3440,77	809,00
3444,39	903,00
3448,00	852,00
3451,62	942,00
3455,22	879,00
3458,83	773,00
3462,43	905,00
3466,03	995,00
3469,63	896,00
3473,22	861,00
3476,81	848,00
3480,40	979,00
3483,99	802,00
3487,57	1028,00
3491,15	905,00
3494,72	982,00
3498,29	957,00
3501,86	789,00
3505,43	918,00
3508,99	839,00
3512,56	706,00
3516,11	943,00
3519,67	919,00
3523,22	1048,00
3526,77	850,00
3530,32	1049,00
3533,86	871,00
3537,40	972,00
3540,94	949,00
3544,47	869,00
3548,00	849,00
3551,53	953,00
3555,06	838,00
3558,58	972,00
3562,10	888,00
3565,62	786,00
3569,13	893,00
3572,64	1004,00
3576,15	761,00
3579,66	821,00
3583,16	903,00
3586,66	884,00
3590,16	915,00
3593,65	818,00
3597,14	869,00
3600,63	878,00
3604,11	888,00
3607,60	894,00
3611,08	973,00
3614,55	843,00
3618,03	768,00
3621,50	768,00
3624,97	777,00
3628,43	860,00
3631,90	850,00
3635,36	754,00
3638,81	813,00
3642,27	883,00
3645,72	849,00
3649,17	875,00
3652,61	865,00
3656,06	778,00
3659,50	832,00
3662,93	797,00
3666,37	908,00
3669,80	1034,00
3673,23	866,00
3676,65	816,00
3680,08	834,00
3683,50	758,00
3686,92	819,00
3690,33	872,00
3693,74	824,00
3697,15	744,00
3700,56	875,00
3703,96	850,00
3707,36	708,00
3710,76	758,00
3714,16	721,00
3717,55	844,00
3720,94	755,00
3724,33	829,00
3727,71	793,00
3731,10	841,00
3734,48	815,00
3737,85	708,00
3741,23	741,00
3744,60	774,00
3747,97	628,00
3751,33	847,00
3754,69	792,00
3758,05	823,00
3761,41	674,00
3764,77	712,00
3768,12	663,00
3771,47	667,00
3774,82	751,00
3778,16	-10,00
3781,50	14,00
3784,84	4,00
3788,18	13,00
>>>>>End Processed Spectral Data<<<<<
