SpectraSuite Data File
++++++++++++++++++++++++++++++++++++
Date: Mon Jan 05 16:31:52 ICT 2026
User: Administrator
Dark Spectrum Present: Yes
Reference Spectrum Present: No
Number of Sampled Component Spectra: 1
Spectrometers: MAYP113682
Integration Time (usec): 3000000 (MAYP113682)
Spectra Averaged: 1 (MAYP113682)
Boxcar Smoothing: 0 (MAYP113682)
Correct for Electrical Dark: No (MAYP113682)
Strobe/Lamp Enabled: No (MAYP113682)
Correct for Detector Non-linearity: No (MAYP113682)
Correct for Stray Light: No (MAYP113682)
Number of Pixels in Processed Spectrum: 2068
>>>>>Begin Processed Spectral Data<<<<<
-37534,58	24,00
-37414,56	10,00
-37295,11	8,00
-37176,24	3,00
-37057,95	586,00
-36940,22	607,00
-36823,05	634,00
-36706,45	664,00
-36590,40	713,00
-36474,90	654,00
-36359,95	688,00
-36245,55	739,00
-36131,68	680,00
-36018,35	698,00
-35905,55	659,00
-35793,29	769,00
-35681,54	623,00
-35570,32	658,00
-35459,62	718,00
-35349,43	834,00
-35239,75	770,00
-35130,58	718,00
-35021,91	731,00
-34913,74	738,00
-34806,07	792,00
-34698,89	785,00
-34592,20	742,00
-34486,00	775,00
-34380,28	934,00
-34275,04	707,00
-34170,27	628,00
-34065,98	838,00
-33962,16	780,00
-33858,81	848,00
-33755,92	719,00
-33653,49	933,00
-33551,52	840,00
-33450,01	837,00
-33348,94	778,00
-33248,33	645,00
-33148,16	674,00
-33048,43	785,00
-32949,14	949,00
-32850,29	926,00
-32751,87	794,00
-32653,89	831,00
-32556,33	826,00
-32459,20	714,00
-32362,49	835,00
-32266,19	802,00
-32170,32	793,00
-32074,86	814,00
-31979,82	820,00
-31885,18	866,00
-31790,95	915,00
-31697,12	831,00
-31603,69	807,00
-31510,67	879,00
-31418,04	837,00
-31325,80	787,00
-31233,95	780,00
-31142,49	771,00
-31051,42	789,00
-30960,73	933,00
-30870,43	934,00
-30780,50	861,00
-30690,95	797,00
-30601,77	926,00
-30512,97	781,00
-30424,53	839,00
-30336,46	848,00
-30248,76	814,00
-30161,42	903,00
-30074,44	824,00
-29987,81	889,00
-29901,55	966,00
-29815,63	709,00
-29730,07	804,00
-29644,86	779,00
-29560,00	892,00
-29475,48	915,00
-29391,30	840,00
-29307,47	827,00
-29223,97	783,00
-29140,81	824,00
-29057,99	844,00
-28975,50	712,00
-28893,34	923,00
-28811,51	762,00
-28730,00	782,00
-28648,82	851,00
-28567,97	832,00
-28487,43	749,00
-28407,21	834,00
-28327,32	793,00
-28247,73	948,00
-28168,46	730,00
-28089,50	785,00
-28010,85	683,00
-27932,51	727,00
-27854,48	774,00
-27776,75	740,00
-27699,32	754,00
-27622,19	834,00
-27545,37	869,00
-27468,84	892,00
-27392,60	902,00
-27316,66	832,00
-27241,01	800,00
-27165,66	816,00
-27090,59	680,00
-27015,81	858,00
-26941,31	851,00
-26867,10	763,00
-26793,17	877,00
-26719,52	775,00
-26646,15	781,00
-26573,06	860,00
-26500,24	843,00
-26427,70	793,00
-26355,43	761,00
-26283,43	855,00
-26211,71	796,00
-26140,25	874,00
-26069,06	922,00
-25998,13	754,00
-25927,46	748,00
-25857,06	681,00
-25786,92	815,00
-25717,04	747,00
-25647,42	840,00
-25578,05	750,00
-25508,94	748,00
-25440,09	769,00
-25371,48	840,00
-25303,13	914,00
-25235,02	811,00
-25167,17	830,00
-25099,56	805,00
-25032,19	815,00
-24965,07	764,00
-24898,20	776,00
-24831,56	701,00
-24765,17	737,00
-24699,01	690,00
-24633,10	811,00
-24567,41	851,00
-24501,97	774,00
-24436,75	770,00
-24371,77	755,00
-24307,03	728,00
-24242,51	793,00
-24178,22	760,00
-24114,16	811,00
-24050,32	814,00
-23986,71	817,00
-23923,32	768,00
-23860,16	779,00
-23797,22	798,00
-23734,50	769,00
-23672,00	745,00
-23609,71	794,00
-23547,65	771,00
-23485,80	887,00
-23424,16	608,00
-23362,74	993,00
-23301,53	768,00
-23240,54	639,00
-23179,75	572,00
-23119,17	746,00
-23058,80	679,00
-22998,64	927,00
-22938,68	705,00
-22878,93	731,00
-22819,39	656,00
-22760,04	795,00
-22700,90	789,00
-22641,96	761,00
-22583,22	727,00
-22524,68	776,00
-22466,33	715,00
-22408,19	781,00
-22350,23	696,00
-22292,48	793,00
-22234,92	772,00
-22177,55	878,00
-22120,37	870,00
-22063,38	754,00
-22006,58	778,00
-21949,98	754,00
-21893,56	694,00
-21837,33	797,00
-21781,28	774,00
-21725,42	715,00
-21669,74	797,00
-21614,25	808,00
-21558,94	857,00
-21503,81	811,00
-21448,86	916,00
-21394,10	751,00
-21339,51	719,00
-21285,10	647,00
-21230,86	733,00
-21176,81	722,00
-21122,93	723,00
-21069,22	617,00
-21015,69	799,00
-20962,33	799,00
-20909,14	759,00
-20856,13	766,00
-20803,28	837,00
-20750,61	786,00
-20698,10	706,00
-20645,76	723,00
-20593,59	855,00
-20541,59	902,00
-20489,75	880,00
-20438,07	745,00
-20386,56	847,00
-20335,22	728,00
-20284,03	677,00
-20233,01	669,00
-20182,15	750,00
-20131,45	813,00
-20080,91	719,00
-20030,52	814,00
-19980,30	758,00
-19930,23	707,00
-19880,32	872,00
-19830,56	737,00
-19780,96	746,00
-19731,52	722,00
-19682,23	831,00
-19633,09	698,00
-19584,10	711,00
-19535,26	776,00
-19486,58	916,00
-19438,04	801,00
-19389,66	860,00
-19341,42	713,00
-19293,33	732,00
-19245,39	796,00
-19197,60	846,00
-19149,95	903,00
-19102,45	834,00
-19055,09	766,00
-19007,87	723,00
-18960,80	844,00
-18913,87	814,00
-18867,09	776,00
-18820,44	880,00
-18773,94	759,00
-18727,57	762,00
-18681,35	724,00
-18635,26	789,00
-18589,31	662,00
-18543,50	728,00
-18497,83	722,00
-18452,29	773,00
-18406,89	661,00
-18361,63	831,00
-18316,50	824,00
-18271,50	747,00
-18226,63	869,00
-18181,90	823,00
-18137,30	849,00
-18092,84	753,00
-18048,50	822,00
-18004,29	733,00
-17960,22	740,00
-17916,27	751,00
-17872,45	786,00
-17828,76	842,00
-17785,20	784,00
-17741,77	771,00
-17698,46	845,00
-17655,28	747,00
-17612,22	791,00
-17569,29	717,00
-17526,48	945,00
-17483,79	852,00
-17441,23	745,00
-17398,79	724,00
-17356,48	756,00
-17314,28	906,00
-17272,21	808,00
-17230,26	762,00
-17188,42	798,00
-17146,71	833,00
-17105,12	793,00
-17063,64	772,00
-17022,28	756,00
-16981,04	763,00
-16939,92	793,00
-16898,91	918,00
-16858,02	744,00
-16817,25	800,00
-16776,59	712,00
-16736,04	762,00
-16695,61	834,00
-16655,29	781,00
-16615,09	767,00
-16574,99	676,00
-16535,01	771,00
-16495,15	782,00
-16455,39	773,00
-16415,74	676,00
-16376,21	821,00
-16336,78	728,00
-16297,46	772,00
-16258,26	678,00
-16219,16	744,00
-16180,17	709,00
-16141,28	803,00
-16102,51	866,00
-16063,84	707,00
-16025,27	805,00
-15986,82	714,00
-15948,46	794,00
-15910,22	787,00
-15872,07	690,00
-15834,04	797,00
-15796,10	775,00
-15758,27	943,00
-15720,54	795,00
-15682,91	740,00
-15645,39	829,00
-15607,97	824,00
-15570,64	723,00
-15533,42	870,00
-15496,30	767,00
-15459,28	772,00
-15422,36	778,00
-15385,54	700,00
-15348,82	803,00
-15312,19	955,00
-15275,66	639,00
-15239,23	803,00
-15202,90	794,00
-15166,67	789,00
-15130,53	883,00
-15094,48	731,00
-15058,54	696,00
-15022,68	726,00
-14986,93	747,00
-14951,26	803,00
-14915,69	777,00
-14880,22	738,00
-14844,84	722,00
-14809,55	860,00
-14774,35	717,00
-14739,25	734,00
-14704,24	827,00
-14669,32	735,00
-14634,49	725,00
-14599,75	747,00
-14565,10	778,00
-14530,55	755,00
-14496,08	842,00
-14461,70	779,00
-14427,41	773,00
-14393,21	633,00
-14359,10	722,00
-14325,07	783,00
-14291,14	748,00
-14257,29	748,00
-14223,52	807,00
-14189,85	857,00
-14156,26	766,00
-14122,76	655,00
-14089,34	732,00
-14056,01	758,00
-14022,76	705,00
-13989,60	795,00
-13956,52	875,00
-13923,53	828,00
-13890,62	675,00
-13857,79	685,00
-13825,05	719,00
-13792,39	679,00
-13759,81	729,00
-13727,31	783,00
-13694,90	738,00
-13662,57	842,00
-13630,31	733,00
-13598,14	798,00
-13566,05	697,00
-13534,05	698,00
-13502,12	787,00
-13470,27	747,00
-13438,50	830,00
-13406,80	700,00
-13375,19	734,00
-13343,66	697,00
-13312,20	822,00
-13280,83	731,00
-13249,53	829,00
-13218,30	656,00
-13187,16	738,00
-13156,09	895,00
-13125,10	785,00
-13094,18	768,00
-13063,34	755,00
-13032,58	678,00
-13001,89	774,00
-12971,28	743,00
-12940,74	744,00
-12910,27	893,00
-12879,88	779,00
-12849,57	839,00
-12819,33	802,00
-12789,16	863,00
-12759,06	692,00
-12729,04	767,00
-12699,09	2013,00
-12669,21	731,00
-12639,41	760,00
-12609,68	753,00
-12580,02	768,00
-12550,43	807,00
-12520,91	627,00
-12491,46	801,00
-12462,08	713,00
-12432,77	802,00
-12403,54	765,00
-12374,37	711,00
-12345,27	823,00
-12316,24	732,00
-12287,29	762,00
-12258,40	744,00
-12229,57	846,00
-12200,82	692,00
-12172,14	803,00
-12143,52	634,00
-12114,97	761,00
-12086,49	801,00
-12058,07	805,00
-12029,73	703,00
-12001,44	890,00
-11973,23	814,00
-11945,08	737,00
-11917,00	730,00
-11888,98	806,00
-11861,03	957,00
-11833,15	726,00
-11805,32	838,00
-11777,57	775,00
-11749,88	816,00
-11722,25	731,00
-11694,69	686,00
-11667,19	702,00
-11639,75	900,00
-11612,38	737,00
-11585,07	827,00
-11557,83	833,00
-11530,65	896,00
-11503,53	746,00
-11476,47	837,00
-11449,48	739,00
-11422,54	842,00
-11395,67	799,00
-11368,86	797,00
-11342,11	716,00
-11315,43	789,00
-11288,80	708,00
-11262,23	735,00
-11235,73	812,00
-11209,28	948,00
-11182,90	770,00
-11156,57	760,00
-11130,31	891,00
-11104,10	778,00
-11077,96	792,00
-11051,87	756,00
-11025,84	795,00
-10999,87	838,00
-10973,96	748,00
-10948,11	735,00
-10922,31	868,00
-10896,58	846,00
-10870,90	879,00
-10845,28	824,00
-10819,71	693,00
-10794,20	833,00
-10768,75	796,00
-10743,36	935,00
-10718,02	749,00
-10692,74	802,00
-10667,52	804,00
-10642,35	879,00
-10617,24	895,00
-10592,18	860,00
-10567,18	805,00
-10542,23	988,00
-10517,34	919,00
-10492,51	949,00
-10467,72	877,00
-10443,00	818,00
-10418,32	932,00
-10393,70	958,00
-10369,14	770,00
-10344,63	775,00
-10320,17	1024,00
-10295,77	955,00
-10271,42	929,00
-10247,12	991,00
-10222,88	984,00
-10198,68	910,00
-10174,54	1031,00
-10150,46	1085,00
-10126,42	1088,00
-10102,44	1048,00
-10078,51	1059,00
-10054,63	1147,00
-10030,80	1051,00
-10007,03	1171,00
-9983,30	1097,00
-9959,63	1259,00
-9936,01	1279,00
-9912,44	1237,00
-9888,92	1295,00
-9865,44	1285,00
-9842,02	1260,00
-9818,65	1404,00
-9795,33	1171,00
-9772,06	1412,00
-9748,84	1385,00
-9725,67	1378,00
-9702,55	1486,00
-9679,47	1731,00
-9656,45	1864,00
-9633,47	1713,00
-9610,55	1788,00
-9587,67	1990,00
-9564,84	2206,00
-9542,06	2065,00
-9519,32	2383,00
-9496,64	2670,00
-9474,00	2484,00
-9451,41	2732,00
-9428,87	2755,00
-9406,37	2761,00
-9383,92	2524,00
-9361,52	2517,00
-9339,17	2796,00
-9316,86	3015,00
-9294,60	3438,00
-9272,38	3773,00
-9250,21	4121,00
-9228,09	4161,00
-9206,01	4047,00
-9183,98	3695,00
-9162,00	3581,00
-9140,06	3459,00
-9118,16	3498,00
-9096,31	3567,00
-9074,51	3767,00
-9052,75	4021,00
-9031,04	3765,00
-9009,37	3288,00
-8987,74	3284,00
-8966,16	2900,00
-8944,63	2760,00
-8923,14	2659,00
-8901,69	2673,00
-8880,29	2804,00
-8858,93	3022,00
-8837,61	3227,00
-8816,34	3381,00
-8795,11	3452,00
-8773,92	3185,00
-8752,78	2873,00
-8731,68	2704,00
-8710,62	2875,00
-8689,61	2812,00
-8668,63	3092,00
-8647,70	3354,00
-8626,82	3285,00
-8605,97	3275,00
-8585,17	3011,00
-8564,41	2844,00
-8543,69	2601,00
-8523,01	2479,00
-8502,37	2638,00
-8481,78	2748,00
-8461,23	2693,00
-8440,71	2989,00
-8420,24	3233,00
-8399,81	3351,00
-8379,42	3146,00
-8359,08	3014,00
-8338,77	2761,00
-8318,50	2436,00
-8298,27	2460,00
-8278,09	2684,00
-8257,94	2729,00
-8237,83	2892,00
-8217,76	3051,00
-8197,74	3081,00
-8177,75	3059,00
-8157,80	2666,00
-8137,89	2533,00
-8118,02	2376,00
-8098,19	2401,00
-8078,40	2428,00
-8058,65	2542,00
-8038,93	2691,00
-8019,26	2666,00
-7999,62	2544,00
-7980,02	2492,00
-7960,46	2208,00
-7940,94	2109,00
-7921,46	2147,00
-7902,01	2094,00
-7882,60	2309,00
-7863,23	2147,00
-7843,90	2240,00
-7824,61	2339,00
-7805,35	2531,00
-7786,13	2417,00
-7766,95	2418,00
-7747,80	2323,00
-7728,69	2316,00
-7709,62	2237,00
-7690,59	2227,00
-7671,59	2383,00
-7652,63	2292,00
-7633,70	2396,00
-7614,81	2430,00
-7595,96	2159,00
-7577,15	2140,00
-7558,37	2005,00
-7539,62	2107,00
-7520,91	2279,00
-7502,24	2320,00
-7483,60	2211,00
-7465,00	2189,00
-7446,44	2093,00
-7427,91	1815,00
-7409,41	1812,00
-7390,95	1733,00
-7372,53	1566,00
-7354,14	1749,00
-7335,78	1691,00
-7317,46	1774,00
-7299,18	1784,00
-7280,92	1887,00
-7262,71	2220,00
-7244,52	2224,00
-7226,38	2162,00
-7208,26	2087,00
-7190,18	2065,00
-7172,14	1924,00
-7154,12	2013,00
-7136,15	2001,00
-7118,20	2182,00
-7100,29	2295,00
-7082,41	2187,00
-7064,57	2133,00
-7046,76	2000,00
-7028,98	1765,00
-7011,24	1847,00
-6993,53	1497,00
-6975,85	1503,00
-6958,20	1441,00
-6940,59	1413,00
-6923,01	1383,00
-6905,46	1573,00
-6887,94	1592,00
-6870,46	-144,00
-6853,01	2084,00
-6835,59	1976,00
-6818,21	1751,00
-6800,85	1744,00
-6783,53	1468,00
-6766,24	1286,00
-6748,98	1277,00
-6731,76	1229,00
-6714,56	1183,00
-6697,40	1093,00
-6680,26	1174,00
-6663,16	1294,00
-6646,09	1519,00
-6629,05	1704,00
-6612,05	1718,00
-6595,07	1675,00
-6578,13	1729,00
-6561,21	1460,00
-6544,33	1369,00
-6527,47	1181,00
-6510,65	1164,00
-6493,86	996,00
-6477,10	1090,00
-6460,36	1182,00
-6443,66	1138,00
-6426,99	1117,00
-6410,35	1169,00
-6393,74	1261,00
-6377,16	1189,00
-6360,61	1270,00
-6344,09	1266,00
-6327,59	1288,00
-6311,13	1437,00
-6294,70	1401,00
-6278,29	1425,00
-6261,92	1426,00
-6245,58	1565,00
-6229,26	1675,00
-6212,97	1529,00
-6196,72	1295,00
-6180,49	1253,00
-6164,29	960,00
-6148,12	1059,00
-6131,98	1019,00
-6115,86	851,00
-6099,78	889,00
-6083,72	920,00
-6067,69	833,00
-6051,69	917,00
-6035,72	1008,00
-6019,78	1055,00
-6003,87	1258,00
-5987,98	1323,00
-5972,12	1404,00
-5956,29	1259,00
-5940,49	1221,00
-5924,71	1311,00
-5908,96	1086,00
-5893,24	1095,00
-5877,55	1019,00
-5861,89	974,00
-5846,25	844,00
-5830,64	1014,00
-5815,05	903,00
-5799,50	968,00
-5783,97	1034,00
-5768,47	1100,00
-5752,99	1222,00
-5737,55	1284,00
-5722,12	1265,00
-5706,73	1263,00
-5691,36	1301,00
-5676,02	1046,00
-5660,71	969,00
-5645,42	1003,00
-5630,16	1049,00
-5614,92	1151,00
-5599,71	1069,00
-5584,53	1148,00
-5569,37	1130,00
-5554,24	2117,00
-5539,14	1062,00
-5524,06	1035,00
-5509,01	1093,00
-5493,98	1103,00
-5478,98	1194,00
-5464,00	1119,00
-5449,05	994,00
-5434,13	1003,00
-5419,23	954,00
-5404,36	984,00
-5389,51	1051,00
-5374,69	1195,00
-5359,89	1382,00
-5345,12	1416,00
-5330,37	1414,00
-5315,65	1205,00
-5300,95	1162,00
-5286,28	1025,00
-5271,63	1048,00
-5257,01	1094,00
-5242,41	1177,00
-5227,84	975,00
-5213,29	893,00
-5198,76	835,00
-5184,26	919,00
-5169,79	929,00
-5155,33	1042,00
-5140,91	1101,00
-5126,51	1064,00
-5112,13	1143,00
-5097,77	1091,00
-5083,44	1102,00
-5069,13	980,00
-5054,85	1057,00
-5040,59	1009,00
-5026,36	1106,00
-5012,15	1130,00
-4997,96	1205,00
-4983,80	981,00
-4969,66	949,00
-4955,54	865,00
-4941,44	1034,00
-4927,37	1026,00
-4913,33	1295,00
-4899,30	1264,00
-4885,30	1387,00
-4871,33	1135,00
-4857,37	995,00
-4843,44	846,00
-4829,53	964,00
-4815,65	981,00
-4801,79	878,00
-4787,95	1081,00
-4774,13	960,00
-4760,34	879,00
-4746,56	987,00
-4732,82	875,00
-4719,09	1035,00
-4705,38	1247,00
-4691,70	1288,00
-4678,04	1379,00
-4664,41	1294,00
-4650,79	1173,00
-4637,20	916,00
-4623,63	965,00
-4610,08	1052,00
-4596,56	1128,00
-4583,05	1010,00
-4569,57	919,00
-4556,11	1016,00
-4542,67	830,00
-4529,25	862,00
-4515,86	992,00
-4502,49	1161,00
-4489,13	1213,00
-4475,80	1246,00
-4462,49	885,00
-4449,21	1034,00
-4435,94	828,00
-4422,70	897,00
-4409,47	971,00
-4396,27	1026,00
-4383,09	857,00
-4369,93	847,00
-4356,79	746,00
-4343,67	871,00
-4330,58	1017,00
-4317,50	1013,00
-4304,45	954,00
-4291,41	953,00
-4278,40	901,00
-4265,41	810,00
-4252,44	895,00
-4239,49	910,00
-4226,55	990,00
-4213,65	917,00
-4200,76	873,00
-4187,89	838,00
-4175,04	794,00
-4162,21	786,00
-4149,40	876,00
-4136,61	866,00
-4123,85	780,00
-4111,10	820,00
-4098,37	881,00
-4085,66	904,00
-4072,98	909,00
-4060,31	771,00
-4047,66	895,00
-4035,04	1089,00
-4022,43	784,00
-4009,84	800,00
-3997,27	751,00
-3984,72	831,00
-3972,19	859,00
-3959,69	728,00
-3947,20	778,00
-3934,73	772,00
-3922,27	731,00
-3909,84	810,00
-3897,43	826,00
-3885,04	874,00
-3872,67	737,00
-3860,31	701,00
-3847,98	868,00
-3835,66	851,00
-3823,36	795,00
-3811,09	758,00
-3798,83	817,00
-3786,59	730,00
-3774,37	950,00
-3762,17	717,00
-3749,98	761,00
-3737,82	769,00
-3725,67	987,00
-3713,55	807,00
-3701,44	837,00
-3689,35	814,00
-3677,28	922,00
-3665,22	827,00
-3653,19	811,00
-3641,17	775,00
-3629,18	862,00
-3617,20	833,00
-3605,24	803,00
-3593,30	751,00
-3581,37	799,00
-3569,47	765,00
-3557,58	785,00
-3545,71	760,00
-3533,86	868,00
-3522,02	733,00
-3510,21	803,00
-3498,41	874,00
-3486,63	846,00
-3474,87	872,00
-3463,12	808,00
-3451,40	815,00
-3439,69	779,00
-3428,00	758,00
-3416,33	876,00
-3404,67	729,00
-3393,03	724,00
-3381,41	849,00
-3369,81	933,00
-3358,22	874,00
-3346,66	879,00
-3335,10	836,00
-3323,57	770,00
-3312,06	845,00
-3300,56	820,00
-3289,08	745,00
-3277,61	773,00
-3266,16	832,00
-3254,73	729,00
-3243,32	733,00
-3231,92	784,00
-3220,55	816,00
-3209,18	935,00
-3197,84	753,00
-3186,51	767,00
-3175,20	797,00
-3163,90	706,00
-3152,63	886,00
-3141,36	742,00
-3130,12	865,00
-3118,89	851,00
-3107,68	770,00
-3096,49	814,00
-3085,31	758,00
-3074,15	837,00
-3063,00	830,00
-3051,87	798,00
-3040,76	807,00
-3029,67	927,00
-3018,59	962,00
-3007,52	890,00
-2996,48	824,00
-2985,44	708,00
-2974,43	836,00
-2963,43	712,00
-2952,45	838,00
-2941,48	838,00
-2930,53	857,00
-2919,60	701,00
-2908,68	664,00
-2897,78	804,00
-2886,89	849,00
-2876,02	854,00
-2865,17	738,00
-2854,33	760,00
-2843,50	800,00
-2832,70	800,00
-2821,90	793,00
-2811,13	825,00
-2800,37	832,00
-2789,62	711,00
-2778,89	892,00
-2768,18	902,00
-2757,48	814,00
-2746,80	904,00
-2736,13	750,00
-2725,48	912,00
-2714,84	690,00
-2704,22	732,00
-2693,61	751,00
-2683,02	825,00
-2672,45	854,00
-2661,89	766,00
-2651,34	804,00
-2640,81	814,00
-2630,30	933,00
-2619,80	730,00
-2609,31	955,00
-2598,84	722,00
-2588,39	881,00
-2577,95	823,00
-2567,52	622,00
-2557,11	694,00
-2546,71	811,00
-2536,33	848,00
-2525,97	802,00
-2515,62	832,00
-2505,28	778,00
-2494,96	872,00
-2484,65	817,00
-2474,36	1115,00
-2464,08	700,00
-2453,82	902,00
-2443,57	712,00
-2433,33	764,00
-2423,11	809,00
-2412,91	863,00
-2402,72	749,00
-2392,54	843,00
-2382,38	812,00
-2372,23	870,00
-2362,09	1675,00
-2351,97	690,00
-2341,87	693,00
-2331,78	831,00
-2321,70	861,00
-2311,64	781,00
-2301,59	788,00
-2291,55	706,00
-2281,53	953,00
-2271,53	661,00
-2261,53	888,00
-2251,55	761,00
-2241,59	826,00
-2231,64	752,00
-2221,70	808,00
-2211,78	835,00
-2201,87	840,00
-2191,97	840,00
-2182,09	826,00
-2172,22	849,00
-2162,37	734,00
-2152,53	659,00
-2142,70	840,00
-2132,89	741,00
-2123,09	845,00
-2113,30	820,00
-2103,53	828,00
-2093,77	849,00
-2084,02	693,00
-2074,29	878,00
-2064,57	892,00
-2054,86	828,00
-2045,17	902,00
-2035,49	866,00
-2025,82	779,00
-2016,17	781,00
-2006,53	796,00
-1996,91	814,00
-1987,29	731,00
-1977,69	794,00
-1968,11	745,00
-1958,53	714,00
-1948,97	834,00
-1939,42	737,00
-1929,89	804,00
-1920,37	794,00
-1910,86	704,00
-1901,36	788,00
-1891,88	831,00
-1882,41	766,00
-1872,95	899,00
-1863,51	812,00
-1854,08	814,00
-1844,66	872,00
-1835,26	911,00
-1825,86	851,00
-1816,48	705,00
-1807,11	878,00
-1797,76	784,00
-1788,42	854,00
-1779,09	768,00
-1769,77	728,00
-1760,47	956,00
-1751,17	716,00
-1741,89	791,00
-1732,63	849,00
-1723,37	953,00
-1714,13	916,00
-1704,90	763,00
-1695,68	1007,00
-1686,48	772,00
-1677,29	798,00
-1668,11	970,00
-1658,94	851,00
-1649,78	779,00
-1640,64	862,00
-1631,51	773,00
-1622,39	907,00
-1613,28	880,00
-1604,19	978,00
-1595,10	797,00
-1586,03	754,00
-1576,97	829,00
-1567,93	731,00
-1558,89	889,00
-1549,87	878,00
-1540,86	791,00
-1531,86	828,00
-1522,87	749,00
-1513,90	950,00
-1504,93	889,00
-1495,98	875,00
-1487,04	893,00
-1478,12	736,00
-1469,20	726,00
-1460,30	811,00
-1451,40	882,00
-1442,52	853,00
-1433,65	937,00
-1424,80	788,00
-1415,95	807,00
-1407,12	1013,00
-1398,30	820,00
-1389,48	774,00
-1380,69	756,00
-1371,90	771,00
-1363,12	825,00
-1354,36	952,00
-1345,60	866,00
-1336,86	831,00
-1328,13	1026,00
-1319,41	832,00
-1310,70	785,00
-1302,01	827,00
-1293,32	752,00
-1284,65	796,00
-1275,99	877,00
-1267,33	922,00
-1258,69	861,00
-1250,06	841,00
-1241,45	720,00
-1232,84	944,00
-1224,25	829,00
-1215,66	878,00
-1207,09	892,00
-1198,53	720,00
-1189,97	819,00
-1181,43	688,00
-1172,91	738,00
-1164,39	858,00
-1155,88	711,00
-1147,38	763,00
-1138,90	828,00
-1130,43	776,00
-1121,96	831,00
-1113,51	785,00
-1105,07	718,00
-1096,64	857,00
-1088,22	829,00
-1079,81	879,00
-1071,41	887,00
-1063,02	749,00
-1054,65	888,00
-1046,28	788,00
-1037,92	757,00
-1029,58	814,00
-1021,24	900,00
-1012,92	1114,00
-1004,61	817,00
-996,30	1022,00
-988,01	691,00
-979,73	807,00
-971,46	858,00
-963,20	841,00
-954,95	732,00
-946,71	813,00
-938,48	850,00
-930,26	890,00
-922,06	793,00
-913,86	786,00
-905,67	725,00
-897,49	906,00
-889,33	664,00
-881,17	927,00
-873,02	801,00
-864,89	764,00
-856,76	775,00
-848,65	880,00
-840,54	905,00
-832,45	806,00
-824,36	704,00
-816,29	841,00
-808,22	897,00
-800,17	903,00
-792,12	839,00
-784,09	874,00
-776,06	654,00
-768,05	777,00
-760,04	760,00
-752,05	759,00
-744,07	744,00
-736,09	899,00
-728,13	702,00
-720,17	847,00
-712,23	739,00
-704,29	685,00
-696,37	792,00
-688,45	908,00
-680,55	769,00
-672,65	779,00
-664,77	789,00
-656,89	807,00
-649,03	688,00
-641,17	928,00
-633,32	807,00
-625,49	776,00
-617,66	765,00
-609,84	873,00
-602,03	745,00
-594,23	839,00
-586,45	827,00
-578,67	764,00
-570,90	719,00
-563,14	717,00
-555,39	944,00
-547,65	837,00
-539,91	807,00
-532,19	838,00
-524,48	789,00
-516,78	735,00
-509,08	856,00
-501,40	864,00
-493,72	800,00
-486,06	760,00
-478,40	916,00
-470,76	713,00
-463,12	820,00
-455,49	780,00
-447,87	768,00
-440,26	791,00
-432,66	707,00
-425,07	858,00
-417,49	827,00
-409,92	624,00
-402,35	799,00
-394,80	649,00
-387,25	836,00
-379,72	845,00
-372,19	936,00
-364,67	874,00
-357,17	749,00
-349,67	859,00
-342,18	750,00
-334,69	897,00
-327,22	824,00
-319,76	738,00
-312,30	820,00
-304,86	860,00
-297,42	836,00
-290,00	775,00
-282,58	836,00
-275,17	816,00
-267,77	990,00
-260,37	854,00
-252,99	999,00
-245,62	869,00
-238,25	860,00
-230,90	731,00
-223,55	879,00
-216,21	871,00
-208,88	1045,00
-201,56	849,00
-194,25	973,00
-186,94	1018,00
-179,65	980,00
-172,36	988,00
-165,08	1004,00
-157,81	1123,00
-150,55	1206,00
-143,30	1132,00
-136,06	1193,00
-128,82	1196,00
-121,60	1185,00
-114,38	1411,00
-107,17	1531,00
-99,97	1671,00
-92,78	1608,00
-85,60	1751,00
-78,42	1875,00
-71,25	2039,00
-64,10	2206,00
-56,95	2551,00
-49,81	2786,00
-42,67	3323,00
-35,55	3911,00
-28,43	5102,00
-21,33	7947,00
-14,23	24619,00
-7,14	57498,00
-0,05	57284,00
7,02	57012,00
14,09	57319,00
21,14	20956,00
28,19	9229,00
35,23	6113,00
42,27	5033,00
49,29	4024,00
56,31	3526,00
63,32	3183,00
70,32	2766,00
77,31	2420,00
84,29	2170,00
91,27	2026,00
98,23	1981,00
105,19	1881,00
112,14	2162,00
119,09	2759,00
126,02	4051,00
132,95	4542,00
139,87	4614,00
146,78	4658,00
153,68	4484,00
160,58	4427,00
167,46	4154,00
174,34	4429,00
181,21	4382,00
188,08	4297,00
194,93	4311,00
201,78	4320,00
208,62	4246,00
215,45	4284,00
222,27	4195,00
229,09	4196,00
235,90	4121,00
242,70	4135,00
249,49	4219,00
256,27	3964,00
263,05	3949,00
269,82	3801,00
276,58	3899,00
283,33	3728,00
290,08	3746,00
296,82	3687,00
303,55	3545,00
310,27	3516,00
316,98	3615,00
323,69	3536,00
330,39	3425,00
337,08	3615,00
343,76	3538,00
350,44	3561,00
357,11	3414,00
363,77	3430,00
370,42	3397,00
377,07	3438,00
383,71	3429,00
390,34	3469,00
396,96	3454,00
403,58	3419,00
410,19	3545,00
416,79	3718,00
423,38	3804,00
429,97	3760,00
436,55	3708,00
443,12	3799,00
449,68	3763,00
456,24	3662,00
462,79	3594,00
469,33	3393,00
475,86	3224,00
482,39	3251,00
488,91	3253,00
495,42	3038,00
501,93	3050,00
508,42	2997,00
514,91	3004,00
521,40	2881,00
527,87	2986,00
534,34	2822,00
540,80	2919,00
547,25	3006,00
553,70	2829,00
560,14	2998,00
566,57	2920,00
573,00	2955,00
579,41	3027,00
585,83	3049,00
592,23	3069,00
598,62	3123,00
605,01	3187,00
611,40	3381,00
617,77	3204,00
624,14	3100,00
630,50	3072,00
636,85	2969,00
643,20	2866,00
649,54	2695,00
655,87	2736,00
662,20	2689,00
668,52	2748,00
674,83	2738,00
681,13	2540,00
687,43	2770,00
693,72	2544,00
700,00	2584,00
706,28	2584,00
712,55	2608,00
718,81	2744,00
725,07	2588,00
731,32	2532,00
737,56	2664,00
743,79	2571,00
750,02	2602,00
756,24	2367,00
762,46	2489,00
768,67	2771,00
774,87	2577,00
781,06	2449,00
787,25	2544,00
793,43	2566,00
799,60	2417,00
805,77	2617,00
811,93	2544,00
818,08	2591,00
824,23	2523,00
830,37	2735,00
836,50	2574,00
842,63	2596,00
848,75	2631,00
854,87	2509,00
860,97	2658,00
867,07	2579,00
873,17	2592,00
879,25	2607,00
885,33	2524,00
891,41	2686,00
897,47	2624,00
903,53	2498,00
909,59	2615,00
915,63	2454,00
921,67	2488,00
927,71	2427,00
933,74	2433,00
939,76	2253,00
945,77	2343,00
951,78	2485,00
957,78	2274,00
963,78	2442,00
969,77	2374,00
975,75	2333,00
981,72	2317,00
987,69	3573,00
993,66	2359,00
999,61	2443,00
1005,56	2407,00
1011,51	2414,00
1017,44	2448,00
1023,37	2514,00
1029,30	2431,00
1035,22	2471,00
1041,13	2523,00
1047,03	2680,00
1052,93	3125,00
1058,83	4556,00
1064,71	4874,00
1070,59	4232,00
1076,47	3403,00
1082,33	3153,00
1088,20	3151,00
1094,05	2854,00
1099,90	2671,00
1105,74	2658,00
1111,58	2674,00
1117,41	2980,00
1123,23	3910,00
1129,05	4699,00
1134,86	4188,00
1140,67	3231,00
1146,47	2651,00
1152,26	2481,00
1158,05	2409,00
1163,83	2671,00
1169,60	2681,00
1175,37	2601,00
1181,13	2378,00
1186,89	2266,00
1192,64	2382,00
1198,38	2410,00
1204,12	2237,00
1209,85	2176,00
1215,58	2288,00
1221,30	2355,00
1227,02	2345,00
1232,72	2307,00
1238,43	2197,00
1244,12	2323,00
1249,81	2268,00
1255,50	2435,00
1261,17	2322,00
1266,85	2426,00
1272,51	2520,00
1278,17	2660,00
1283,83	3026,00
1289,47	4366,00
1295,12	5983,00
1300,75	5258,00
1306,38	4171,00
1312,01	3362,00
1317,63	2893,00
1323,24	2662,00
1328,85	2504,00
1334,45	2393,00
1340,04	2432,00
1345,63	2371,00
1351,22	2509,00
1356,80	2378,00
1362,37	2538,00
1367,93	2444,00
1373,49	2582,00
1379,05	2476,00
1384,60	2420,00
1390,14	2379,00
1395,68	2298,00
1401,21	2463,00
1406,74	2729,00
1412,26	3225,00
1417,77	3897,00
1423,28	3762,00
1428,78	4227,00
1434,28	5118,00
1439,77	5892,00
1445,26	5865,00
1450,74	5402,00
1456,22	4879,00
1461,68	4807,00
1467,15	4539,00
1472,61	3817,00
1478,06	3432,00
1483,51	2946,00
1488,95	2583,00
1494,38	2529,00
1499,81	2344,00
1505,24	2247,00
1510,65	2292,00
1516,07	2215,00
1521,48	2154,00
1526,88	2071,00
1532,27	2099,00
1537,67	2085,00
1543,05	2138,00
1548,43	2046,00
1553,81	2086,00
1559,18	1886,00
1564,54	1975,00
1569,90	2009,00
1575,25	1876,00
1580,60	1819,00
1585,94	2027,00
1591,28	1850,00
1596,61	1898,00
1601,93	1893,00
1607,25	1970,00
1612,57	1904,00
1617,88	1895,00
1623,18	1989,00
1628,48	1817,00
1633,77	1842,00
1639,06	1910,00
1644,34	1775,00
1649,62	1653,00
1654,89	1902,00
1660,16	1740,00
1665,42	1905,00
1670,67	1742,00
1675,92	1639,00
1681,17	1702,00
1686,41	1814,00
1691,64	1724,00
1696,87	1731,00
1702,10	1715,00
1707,32	1710,00
1712,53	1758,00
1717,74	1657,00
1722,94	1754,00
1728,14	1676,00
1733,33	1639,00
1738,52	1649,00
1743,70	1656,00
1748,88	1653,00
1754,05	1743,00
1759,22	1513,00
1764,38	1923,00
1769,53	1632,00
1774,69	1724,00
1779,83	1585,00
1784,97	1662,00
1790,11	1643,00
1795,24	1585,00
1800,36	1552,00
1805,48	1607,00
1810,60	1590,00
1815,71	1579,00
1820,82	1549,00
1825,92	1484,00
1831,01	1500,00
1836,10	1547,00
1841,19	1599,00
1846,26	1412,00
1851,34	1473,00
1856,41	1613,00
1861,47	1416,00
1866,53	1669,00
1871,59	1518,00
1876,64	1618,00
1881,68	1467,00
1886,72	1534,00
1891,76	1465,00
1896,79	1393,00
1901,81	1383,00
1906,83	1499,00
1911,85	1421,00
1916,86	1453,00
1921,86	1457,00
1926,86	1414,00
1931,86	1509,00
1936,85	1464,00
1941,83	1332,00
1946,81	1414,00
1951,79	1296,00
1956,76	1367,00
1961,72	1235,00
1966,68	1317,00
1971,64	1324,00
1976,59	1414,00
1981,54	1404,00
1986,48	1443,00
1991,42	1229,00
1996,35	1586,00
2001,27	1369,00
2006,20	1235,00
2011,11	1377,00
2016,03	1308,00
2020,93	1266,00
2025,84	1316,00
2030,73	1312,00
2035,63	1097,00
2040,52	1285,00
2045,40	1302,00
2050,28	1353,00
2055,15	1236,00
2060,02	1183,00
2064,89	1360,00
2069,75	1339,00
2074,60	1285,00
2079,46	1125,00
2084,30	1278,00
2089,14	1124,00
2093,98	1325,00
2098,81	1275,00
2103,64	1229,00
2108,46	1375,00
2113,28	1276,00
2118,09	1251,00
2122,90	1236,00
2127,70	1265,00
2132,50	1353,00
2137,30	1231,00
2142,09	1177,00
2146,87	1137,00
2151,66	1213,00
2156,43	1156,00
2161,20	1194,00
2165,97	1403,00
2170,73	1190,00
2175,49	1348,00
2180,24	1324,00
2184,99	1442,00
2189,74	1383,00
2194,48	1381,00
2199,21	1410,00
2203,94	1270,00
2208,67	1138,00
2213,39	1159,00
2218,11	1286,00
2222,82	1246,00
2227,53	1237,00
2232,23	1332,00
2236,93	1298,00
2241,63	1221,00
2246,32	1261,00
2251,00	1183,00
2255,68	1149,00
2260,36	1198,00
2265,03	1210,00
2269,70	1398,00
2274,36	1192,00
2279,02	1222,00
2283,68	1101,00
2288,33	1255,00
2292,97	1235,00
2297,61	1123,00
2302,25	1236,00
2306,88	1138,00
2311,51	1071,00
2316,14	1132,00
2320,75	1048,00
2325,37	1066,00
2329,98	1256,00
2334,59	1151,00
2339,19	1168,00
2343,79	1064,00
2348,38	1145,00
2352,97	1057,00
2357,55	1168,00
2362,13	1058,00
2366,71	1103,00
2371,28	1272,00
2375,85	1158,00
2380,41	1179,00
2384,97	1088,00
2389,52	1180,00
2394,07	1174,00
2398,62	1026,00
2403,16	1180,00
2407,70	1015,00
2412,23	1045,00
2416,76	1172,00
2421,29	1133,00
2425,81	1237,00
2430,32	1221,00
2434,84	1095,00
2439,34	1006,00
2443,85	1245,00
2448,35	1136,00
2452,84	1009,00
2457,33	1132,00
2461,82	969,00
2466,30	1021,00
2470,78	1081,00
2475,25	1099,00
2479,72	1110,00
2484,19	1152,00
2488,65	1154,00
2493,11	1006,00
2497,56	1190,00
2502,01	942,00
2506,46	1283,00
2510,90	1043,00
2515,34	1054,00
2519,77	1071,00
2524,20	1031,00
2528,62	1091,00
2533,04	1171,00
2537,46	1054,00
2541,87	1106,00
2546,28	1099,00
2550,68	1218,00
2555,08	1141,00
2559,48	1182,00
2563,87	1008,00
2568,26	1042,00
2572,64	1095,00
2577,02	1185,00
2581,40	1041,00
2585,77	1188,00
2590,14	1074,00
2594,50	1033,00
2598,86	1177,00
2603,22	1089,00
2607,57	1024,00
2611,92	1156,00
2616,26	1226,00
2620,60	1159,00
2624,94	1113,00
2629,27	1155,00
2633,60	1024,00
2637,92	1224,00
2642,24	1224,00
2646,56	1124,00
2650,87	1012,00
2655,18	1278,00
2659,48	1058,00
2663,78	1134,00
2668,08	1140,00
2672,37	1221,00
2676,66	1177,00
2680,95	1110,00
2685,23	1246,00
2689,50	1225,00
2693,78	1168,00
2698,05	1205,00
2702,31	1249,00
2706,57	1388,00
2710,83	1413,00
2715,08	1513,00
2719,33	1558,00
2723,58	1442,00
2727,82	1516,00
2732,06	1442,00
2736,29	1460,00
2740,53	1326,00
2744,75	1357,00
2748,97	1252,00
2753,19	1323,00
2757,41	1377,00
2761,62	1342,00
2765,83	1308,00
2770,03	1258,00
2774,23	1406,00
2778,43	1258,00
2782,62	1270,00
2786,81	1433,00
2791,00	1350,00
2795,18	1388,00
2799,35	1426,00
2803,53	1508,00
2807,70	1461,00
2811,86	1594,00
2816,03	1777,00
2820,19	1753,00
2824,34	1788,00
2828,49	1917,00
2832,64	2233,00
2836,78	2663,00
2840,92	3089,00
2845,06	3740,00
2849,19	4088,00
2853,32	4241,00
2857,45	4205,00
2861,57	4158,00
2865,69	4057,00
2869,80	3941,00
2873,91	4138,00
2878,02	4532,00
2882,12	4886,00
2886,22	4921,00
2890,32	4649,00
2894,41	4398,00
2898,50	3981,00
2902,58	3734,00
2906,67	3479,00
2910,74	3312,00
2914,82	2997,00
2918,89	2906,00
2922,96	2701,00
2927,02	2601,00
2931,08	2391,00
2935,13	2102,00
2939,19	2180,00
2943,24	1987,00
2947,28	1951,00
2951,32	1666,00
2955,36	1636,00
2959,40	1522,00
2963,43	1424,00
2967,46	1472,00
2971,48	1383,00
2975,50	1355,00
2979,52	1306,00
2983,53	1299,00
2987,54	1200,00
2991,55	1218,00
2995,55	1276,00
2999,55	1051,00
3003,54	1138,00
3007,54	1124,00
3011,53	1060,00
3015,51	1032,00
3019,49	1030,00
3023,47	975,00
3027,45	1108,00
3031,42	979,00
3035,39	870,00
3039,35	956,00
3043,31	1077,00
3047,27	1068,00
3051,22	1039,00
3055,17	957,00
3059,12	880,00
3063,06	1010,00
3067,00	897,00
3070,94	879,00
3074,87	1018,00
3078,80	898,00
3082,73	875,00
3086,65	942,00
3090,57	851,00
3094,49	877,00
3098,40	855,00
3102,31	842,00
3106,22	958,00
3110,12	845,00
3114,02	783,00
3117,92	896,00
3121,81	928,00
3125,70	935,00
3129,58	785,00
3133,47	803,00
3137,34	939,00
3141,22	941,00
3145,09	899,00
3148,96	862,00
3152,83	869,00
3156,69	851,00
3160,55	820,00
3164,40	905,00
3168,26	885,00
3172,10	968,00
3175,95	846,00
3179,79	886,00
3183,63	960,00
3187,47	862,00
3191,30	887,00
3195,13	853,00
3198,95	719,00
3202,78	863,00
3206,60	784,00
3210,41	737,00
3214,23	808,00
3218,03	837,00
3221,84	813,00
3225,64	776,00
3229,44	742,00
3233,24	859,00
3237,03	821,00
3240,82	791,00
3244,61	759,00
3248,39	820,00
3252,17	871,00
3255,95	954,00
3259,72	914,00
3263,49	1009,00
3267,26	858,00
3271,03	793,00
3274,79	762,00
3278,54	819,00
3282,30	689,00
3286,05	850,00
3289,80	906,00
3293,54	780,00
3297,29	825,00
3301,02	789,00
3304,76	777,00
3308,49	870,00
3312,22	757,00
3315,95	867,00
3319,67	800,00
3323,39	877,00
3327,10	885,00
3330,82	897,00
3334,53	831,00
3338,24	790,00
3341,94	838,00
3345,64	801,00
3349,34	771,00
3353,03	844,00
3356,72	833,00
3360,41	804,00
3364,10	817,00
3367,78	792,00
3371,46	788,00
3375,13	795,00
3378,81	881,00
3382,48	817,00
3386,14	830,00
3389,81	803,00
3393,47	882,00
3397,12	936,00
3400,78	893,00
3404,43	805,00
3408,08	843,00
3411,72	755,00
3415,36	854,00
3419,00	776,00
3422,64	866,00
3426,27	829,00
3429,90	806,00
3433,53	746,00
3437,15	802,00
3440,77	712,00
3444,39	839,00
3448,00	836,00
3451,62	753,00
3455,22	824,00
3458,83	663,00
3462,43	731,00
3466,03	868,00
3469,63	762,00
3473,22	692,00
3476,81	747,00
3480,40	820,00
3483,99	767,00
3487,57	795,00
3491,15	814,00
3494,72	823,00
3498,29	856,00
3501,86	691,00
3505,43	769,00
3508,99	779,00
3512,56	685,00
3516,11	798,00
3519,67	780,00
3523,22	772,00
3526,77	790,00
3530,32	951,00
3533,86	853,00
3537,40	857,00
3540,94	847,00
3544,47	824,00
3548,00	712,00
3551,53	850,00
3555,06	802,00
3558,58	831,00
3562,10	797,00
3565,62	736,00
3569,13	739,00
3572,64	891,00
3576,15	659,00
3579,66	745,00
3583,16	764,00
3586,66	750,00
3590,16	773,00
3593,65	692,00
3597,14	717,00
3600,63	709,00
3604,11	772,00
3607,60	720,00
3611,08	763,00
3614,55	820,00
3618,03	663,00
3621,50	716,00
3624,97	699,00
3628,43	815,00
3631,90	723,00
3635,36	690,00
3638,81	763,00
3642,27	771,00
3645,72	749,00
3649,17	712,00
3652,61	756,00
3656,06	678,00
3659,50	713,00
3662,93	798,00
3666,37	931,00
3669,80	921,00
3673,23	795,00
3676,65	741,00
3680,08	792,00
3683,50	724,00
3686,92	757,00
3690,33	756,00
3693,74	764,00
3697,15	655,00
3700,56	802,00
3703,96	742,00
3707,36	594,00
3710,76	663,00
3714,16	659,00
3717,55	633,00
3720,94	663,00
3724,33	663,00
3727,71	793,00
3731,10	695,00
3734,48	733,00
3737,85	685,00
3741,23	630,00
3744,60	668,00
3747,97	606,00
3751,33	751,00
3754,69	657,00
3758,05	722,00
3761,41	603,00
3764,77	622,00
3768,12	600,00
3771,47	498,00
3774,82	642,00
3778,16	-7,00
3781,50	8,00
3784,84	2,00
3788,18	12,00
>>>>>End Processed Spectral Data<<<<<
