SpectraSuite Data File
++++++++++++++++++++++++++++++++++++
Date: Mon Jan 05 16:32:13 ICT 2026
User: Administrator
Dark Spectrum Present: Yes
Reference Spectrum Present: No
Number of Sampled Component Spectra: 1
Spectrometers: MAYP113682
Integration Time (usec): 3000000 (MAYP113682)
Spectra Averaged: 1 (MAYP113682)
Boxcar Smoothing: 0 (MAYP113682)
Correct for Electrical Dark: No (MAYP113682)
Strobe/Lamp Enabled: No (MAYP113682)
Correct for Detector Non-linearity: No (MAYP113682)
Correct for Stray Light: No (MAYP113682)
Number of Pixels in Processed Spectrum: 2068
>>>>>Begin Processed Spectral Data<<<<<
-37534,58	28,00
-37414,56	6,00
-37295,11	6,00
-37176,24	1,00
-37057,95	542,00
-36940,22	627,00
-36823,05	597,00
-36706,45	775,00
-36590,40	730,00
-36474,90	640,00
-36359,95	772,00
-36245,55	735,00
-36131,68	711,00
-36018,35	711,00
-35905,55	738,00
-35793,29	800,00
-35681,54	725,00
-35570,32	691,00
-35459,62	754,00
-35349,43	872,00
-35239,75	765,00
-35130,58	755,00
-35021,91	709,00
-34913,74	736,00
-34806,07	784,00
-34698,89	792,00
-34592,20	758,00
-34486,00	772,00
-34380,28	807,00
-34275,04	755,00
-34170,27	699,00
-34065,98	875,00
-33962,16	801,00
-33858,81	838,00
-33755,92	770,00
-33653,49	844,00
-33551,52	862,00
-33450,01	749,00
-33348,94	768,00
-33248,33	736,00
-33148,16	790,00
-33048,43	762,00
-32949,14	944,00
-32850,29	809,00
-32751,87	783,00
-32653,89	788,00
-32556,33	939,00
-32459,20	806,00
-32362,49	792,00
-32266,19	804,00
-32170,32	805,00
-32074,86	864,00
-31979,82	883,00
-31885,18	967,00
-31790,95	901,00
-31697,12	847,00
-31603,69	779,00
-31510,67	932,00
-31418,04	885,00
-31325,80	880,00
-31233,95	805,00
-31142,49	841,00
-31051,42	782,00
-30960,73	873,00
-30870,43	898,00
-30780,50	899,00
-30690,95	856,00
-30601,77	1038,00
-30512,97	862,00
-30424,53	891,00
-30336,46	809,00
-30248,76	820,00
-30161,42	914,00
-30074,44	795,00
-29987,81	932,00
-29901,55	915,00
-29815,63	810,00
-29730,07	899,00
-29644,86	794,00
-29560,00	876,00
-29475,48	866,00
-29391,30	824,00
-29307,47	830,00
-29223,97	780,00
-29140,81	776,00
-29057,99	895,00
-28975,50	758,00
-28893,34	969,00
-28811,51	751,00
-28730,00	926,00
-28648,82	780,00
-28567,97	782,00
-28487,43	737,00
-28407,21	809,00
-28327,32	726,00
-28247,73	976,00
-28168,46	781,00
-28089,50	901,00
-28010,85	753,00
-27932,51	762,00
-27854,48	811,00
-27776,75	786,00
-27699,32	845,00
-27622,19	925,00
-27545,37	853,00
-27468,84	853,00
-27392,60	856,00
-27316,66	827,00
-27241,01	781,00
-27165,66	782,00
-27090,59	729,00
-27015,81	937,00
-26941,31	908,00
-26867,10	827,00
-26793,17	946,00
-26719,52	845,00
-26646,15	763,00
-26573,06	782,00
-26500,24	791,00
-26427,70	854,00
-26355,43	794,00
-26283,43	879,00
-26211,71	783,00
-26140,25	843,00
-26069,06	916,00
-25998,13	692,00
-25927,46	720,00
-25857,06	790,00
-25786,92	784,00
-25717,04	816,00
-25647,42	897,00
-25578,05	699,00
-25508,94	800,00
-25440,09	872,00
-25371,48	839,00
-25303,13	907,00
-25235,02	756,00
-25167,17	838,00
-25099,56	817,00
-25032,19	813,00
-24965,07	782,00
-24898,20	714,00
-24831,56	746,00
-24765,17	833,00
-24699,01	801,00
-24633,10	887,00
-24567,41	869,00
-24501,97	753,00
-24436,75	783,00
-24371,77	766,00
-24307,03	780,00
-24242,51	847,00
-24178,22	781,00
-24114,16	734,00
-24050,32	867,00
-23986,71	780,00
-23923,32	767,00
-23860,16	864,00
-23797,22	771,00
-23734,50	808,00
-23672,00	739,00
-23609,71	783,00
-23547,65	711,00
-23485,80	819,00
-23424,16	706,00
-23362,74	986,00
-23301,53	773,00
-23240,54	745,00
-23179,75	750,00
-23119,17	706,00
-23058,80	775,00
-22998,64	893,00
-22938,68	789,00
-22878,93	798,00
-22819,39	721,00
-22760,04	730,00
-22700,90	831,00
-22641,96	808,00
-22583,22	750,00
-22524,68	792,00
-22466,33	763,00
-22408,19	816,00
-22350,23	769,00
-22292,48	756,00
-22234,92	826,00
-22177,55	795,00
-22120,37	934,00
-22063,38	774,00
-22006,58	796,00
-21949,98	745,00
-21893,56	652,00
-21837,33	798,00
-21781,28	736,00
-21725,42	775,00
-21669,74	825,00
-21614,25	841,00
-21558,94	818,00
-21503,81	865,00
-21448,86	897,00
-21394,10	849,00
-21339,51	741,00
-21285,10	740,00
-21230,86	704,00
-21176,81	773,00
-21122,93	717,00
-21069,22	735,00
-21015,69	854,00
-20962,33	876,00
-20909,14	745,00
-20856,13	820,00
-20803,28	803,00
-20750,61	749,00
-20698,10	663,00
-20645,76	832,00
-20593,59	982,00
-20541,59	811,00
-20489,75	840,00
-20438,07	713,00
-20386,56	843,00
-20335,22	784,00
-20284,03	767,00
-20233,01	739,00
-20182,15	774,00
-20131,45	775,00
-20080,91	664,00
-20030,52	827,00
-19980,30	756,00
-19930,23	735,00
-19880,32	824,00
-19830,56	739,00
-19780,96	859,00
-19731,52	827,00
-19682,23	811,00
-19633,09	754,00
-19584,10	756,00
-19535,26	842,00
-19486,58	870,00
-19438,04	720,00
-19389,66	882,00
-19341,42	766,00
-19293,33	793,00
-19245,39	787,00
-19197,60	879,00
-19149,95	825,00
-19102,45	803,00
-19055,09	758,00
-19007,87	859,00
-18960,80	825,00
-18913,87	772,00
-18867,09	718,00
-18820,44	947,00
-18773,94	739,00
-18727,57	789,00
-18681,35	636,00
-18635,26	866,00
-18589,31	740,00
-18543,50	753,00
-18497,83	774,00
-18452,29	757,00
-18406,89	701,00
-18361,63	839,00
-18316,50	859,00
-18271,50	866,00
-18226,63	885,00
-18181,90	854,00
-18137,30	863,00
-18092,84	766,00
-18048,50	863,00
-18004,29	720,00
-17960,22	772,00
-17916,27	733,00
-17872,45	814,00
-17828,76	872,00
-17785,20	781,00
-17741,77	835,00
-17698,46	772,00
-17655,28	720,00
-17612,22	830,00
-17569,29	738,00
-17526,48	890,00
-17483,79	857,00
-17441,23	737,00
-17398,79	747,00
-17356,48	681,00
-17314,28	902,00
-17272,21	768,00
-17230,26	798,00
-17188,42	855,00
-17146,71	810,00
-17105,12	712,00
-17063,64	751,00
-17022,28	789,00
-16981,04	736,00
-16939,92	753,00
-16898,91	914,00
-16858,02	711,00
-16817,25	814,00
-16776,59	805,00
-16736,04	766,00
-16695,61	810,00
-16655,29	782,00
-16615,09	677,00
-16574,99	819,00
-16535,01	792,00
-16495,15	861,00
-16455,39	848,00
-16415,74	758,00
-16376,21	740,00
-16336,78	781,00
-16297,46	798,00
-16258,26	676,00
-16219,16	781,00
-16180,17	776,00
-16141,28	856,00
-16102,51	841,00
-16063,84	755,00
-16025,27	759,00
-15986,82	710,00
-15948,46	760,00
-15910,22	828,00
-15872,07	720,00
-15834,04	857,00
-15796,10	732,00
-15758,27	994,00
-15720,54	804,00
-15682,91	744,00
-15645,39	929,00
-15607,97	782,00
-15570,64	811,00
-15533,42	836,00
-15496,30	791,00
-15459,28	822,00
-15422,36	762,00
-15385,54	780,00
-15348,82	836,00
-15312,19	919,00
-15275,66	806,00
-15239,23	811,00
-15202,90	676,00
-15166,67	751,00
-15130,53	907,00
-15094,48	737,00
-15058,54	793,00
-15022,68	753,00
-14986,93	745,00
-14951,26	887,00
-14915,69	825,00
-14880,22	657,00
-14844,84	704,00
-14809,55	832,00
-14774,35	838,00
-14739,25	733,00
-14704,24	785,00
-14669,32	778,00
-14634,49	740,00
-14599,75	860,00
-14565,10	843,00
-14530,55	819,00
-14496,08	803,00
-14461,70	847,00
-14427,41	802,00
-14393,21	631,00
-14359,10	639,00
-14325,07	859,00
-14291,14	793,00
-14257,29	833,00
-14223,52	790,00
-14189,85	931,00
-14156,26	798,00
-14122,76	732,00
-14089,34	704,00
-14056,01	781,00
-14022,76	759,00
-13989,60	889,00
-13956,52	791,00
-13923,53	783,00
-13890,62	782,00
-13857,79	730,00
-13825,05	703,00
-13792,39	681,00
-13759,81	884,00
-13727,31	720,00
-13694,90	806,00
-13662,57	893,00
-13630,31	827,00
-13598,14	828,00
-13566,05	659,00
-13534,05	668,00
-13502,12	779,00
-13470,27	803,00
-13438,50	846,00
-13406,80	701,00
-13375,19	765,00
-13343,66	814,00
-13312,20	859,00
-13280,83	758,00
-13249,53	749,00
-13218,30	628,00
-13187,16	756,00
-13156,09	866,00
-13125,10	855,00
-13094,18	832,00
-13063,34	859,00
-13032,58	719,00
-13001,89	814,00
-12971,28	782,00
-12940,74	841,00
-12910,27	754,00
-12879,88	788,00
-12849,57	826,00
-12819,33	910,00
-12789,16	787,00
-12759,06	728,00
-12729,04	743,00
-12699,09	2073,00
-12669,21	808,00
-12639,41	792,00
-12609,68	739,00
-12580,02	793,00
-12550,43	914,00
-12520,91	661,00
-12491,46	762,00
-12462,08	732,00
-12432,77	787,00
-12403,54	685,00
-12374,37	748,00
-12345,27	844,00
-12316,24	804,00
-12287,29	745,00
-12258,40	747,00
-12229,57	885,00
-12200,82	720,00
-12172,14	783,00
-12143,52	631,00
-12114,97	763,00
-12086,49	798,00
-12058,07	842,00
-12029,73	744,00
-12001,44	837,00
-11973,23	806,00
-11945,08	822,00
-11917,00	728,00
-11888,98	736,00
-11861,03	931,00
-11833,15	779,00
-11805,32	859,00
-11777,57	776,00
-11749,88	757,00
-11722,25	744,00
-11694,69	702,00
-11667,19	728,00
-11639,75	913,00
-11612,38	745,00
-11585,07	726,00
-11557,83	833,00
-11530,65	878,00
-11503,53	707,00
-11476,47	799,00
-11449,48	749,00
-11422,54	913,00
-11395,67	867,00
-11368,86	893,00
-11342,11	717,00
-11315,43	796,00
-11288,80	777,00
-11262,23	826,00
-11235,73	841,00
-11209,28	965,00
-11182,90	777,00
-11156,57	773,00
-11130,31	951,00
-11104,10	816,00
-11077,96	773,00
-11051,87	721,00
-11025,84	789,00
-10999,87	756,00
-10973,96	833,00
-10948,11	776,00
-10922,31	825,00
-10896,58	836,00
-10870,90	989,00
-10845,28	811,00
-10819,71	679,00
-10794,20	845,00
-10768,75	907,00
-10743,36	873,00
-10718,02	729,00
-10692,74	766,00
-10667,52	845,00
-10642,35	788,00
-10617,24	893,00
-10592,18	827,00
-10567,18	776,00
-10542,23	884,00
-10517,34	826,00
-10492,51	938,00
-10467,72	794,00
-10443,00	872,00
-10418,32	862,00
-10393,70	973,00
-10369,14	881,00
-10344,63	751,00
-10320,17	964,00
-10295,77	921,00
-10271,42	913,00
-10247,12	984,00
-10222,88	1044,00
-10198,68	903,00
-10174,54	1036,00
-10150,46	1105,00
-10126,42	1086,00
-10102,44	931,00
-10078,51	1089,00
-10054,63	1143,00
-10030,80	1086,00
-10007,03	1152,00
-9983,30	1102,00
-9959,63	1067,00
-9936,01	1314,00
-9912,44	1179,00
-9888,92	1271,00
-9865,44	1104,00
-9842,02	1181,00
-9818,65	1325,00
-9795,33	1112,00
-9772,06	1275,00
-9748,84	1198,00
-9725,67	1266,00
-9702,55	1496,00
-9679,47	1549,00
-9656,45	1672,00
-9633,47	1692,00
-9610,55	1604,00
-9587,67	1853,00
-9564,84	2042,00
-9542,06	1967,00
-9519,32	2250,00
-9496,64	2354,00
-9474,00	2367,00
-9451,41	2485,00
-9428,87	2488,00
-9406,37	2370,00
-9383,92	2378,00
-9361,52	2290,00
-9339,17	2608,00
-9316,86	2762,00
-9294,60	2998,00
-9272,38	3401,00
-9250,21	3684,00
-9228,09	3662,00
-9206,01	3646,00
-9183,98	3381,00
-9162,00	3132,00
-9140,06	3171,00
-9118,16	3120,00
-9096,31	3190,00
-9074,51	3342,00
-9052,75	3635,00
-9031,04	3338,00
-9009,37	2985,00
-8987,74	2829,00
-8966,16	2577,00
-8944,63	2461,00
-8923,14	2452,00
-8901,69	2412,00
-8880,29	2488,00
-8858,93	2703,00
-8837,61	2986,00
-8816,34	3023,00
-8795,11	3125,00
-8773,92	2747,00
-8752,78	2624,00
-8731,68	2529,00
-8710,62	2584,00
-8689,61	2470,00
-8668,63	2739,00
-8647,70	2891,00
-8626,82	2895,00
-8605,97	3030,00
-8585,17	2638,00
-8564,41	2493,00
-8543,69	2431,00
-8523,01	2255,00
-8502,37	2472,00
-8481,78	2417,00
-8461,23	2479,00
-8440,71	2687,00
-8420,24	2919,00
-8399,81	2979,00
-8379,42	2902,00
-8359,08	2708,00
-8338,77	2466,00
-8318,50	2280,00
-8298,27	2330,00
-8278,09	2530,00
-8257,94	2525,00
-8237,83	2732,00
-8217,76	2777,00
-8197,74	2698,00
-8177,75	2774,00
-8157,80	2486,00
-8137,89	2352,00
-8118,02	2131,00
-8098,19	2264,00
-8078,40	2203,00
-8058,65	2285,00
-8038,93	2405,00
-8019,26	2399,00
-7999,62	2311,00
-7980,02	2115,00
-7960,46	2046,00
-7940,94	1964,00
-7921,46	1972,00
-7902,01	1970,00
-7882,60	2059,00
-7863,23	1974,00
-7843,90	2037,00
-7824,61	2149,00
-7805,35	2292,00
-7786,13	2212,00
-7766,95	2265,00
-7747,80	2143,00
-7728,69	2099,00
-7709,62	2011,00
-7690,59	2165,00
-7671,59	2292,00
-7652,63	2325,00
-7633,70	2196,00
-7614,81	2247,00
-7595,96	2015,00
-7577,15	2033,00
-7558,37	1884,00
-7539,62	1950,00
-7520,91	2036,00
-7502,24	2119,00
-7483,60	2175,00
-7465,00	1950,00
-7446,44	1937,00
-7427,91	1665,00
-7409,41	1633,00
-7390,95	1647,00
-7372,53	1497,00
-7354,14	1580,00
-7335,78	1573,00
-7317,46	1666,00
-7299,18	1638,00
-7280,92	1814,00
-7262,71	2068,00
-7244,52	2070,00
-7226,38	2045,00
-7208,26	1921,00
-7190,18	1853,00
-7172,14	1808,00
-7154,12	1830,00
-7136,15	1718,00
-7118,20	1995,00
-7100,29	1973,00
-7082,41	2056,00
-7064,57	1907,00
-7046,76	1816,00
-7028,98	1569,00
-7011,24	1689,00
-6993,53	1396,00
-6975,85	1427,00
-6958,20	1357,00
-6940,59	1337,00
-6923,01	1169,00
-6905,46	1540,00
-6887,94	1603,00
-6870,46	-376,00
-6853,01	1965,00
-6835,59	1878,00
-6818,21	1604,00
-6800,85	1620,00
-6783,53	1359,00
-6766,24	1284,00
-6748,98	1234,00
-6731,76	1197,00
-6714,56	1128,00
-6697,40	966,00
-6680,26	1151,00
-6663,16	1258,00
-6646,09	1385,00
-6629,05	1596,00
-6612,05	1639,00
-6595,07	1529,00
-6578,13	1589,00
-6561,21	1306,00
-6544,33	1289,00
-6527,47	959,00
-6510,65	1118,00
-6493,86	977,00
-6477,10	996,00
-6460,36	1118,00
-6443,66	1000,00
-6426,99	1058,00
-6410,35	1081,00
-6393,74	1113,00
-6377,16	1112,00
-6360,61	1194,00
-6344,09	1177,00
-6327,59	1261,00
-6311,13	1373,00
-6294,70	1351,00
-6278,29	1315,00
-6261,92	1354,00
-6245,58	1476,00
-6229,26	1545,00
-6212,97	1372,00
-6196,72	1194,00
-6180,49	1220,00
-6164,29	886,00
-6148,12	1002,00
-6131,98	1030,00
-6115,86	943,00
-6099,78	923,00
-6083,72	905,00
-6067,69	902,00
-6051,69	965,00
-6035,72	968,00
-6019,78	929,00
-6003,87	1240,00
-5987,98	1228,00
-5972,12	1261,00
-5956,29	1242,00
-5940,49	1015,00
-5924,71	1188,00
-5908,96	1014,00
-5893,24	979,00
-5877,55	949,00
-5861,89	947,00
-5846,25	832,00
-5830,64	1026,00
-5815,05	966,00
-5799,50	967,00
-5783,97	1059,00
-5768,47	1120,00
-5752,99	1316,00
-5737,55	1059,00
-5722,12	1217,00
-5706,73	1212,00
-5691,36	1180,00
-5676,02	1034,00
-5660,71	989,00
-5645,42	914,00
-5630,16	1023,00
-5614,92	1120,00
-5599,71	877,00
-5584,53	1094,00
-5569,37	1075,00
-5554,24	2109,00
-5539,14	1010,00
-5524,06	1068,00
-5509,01	979,00
-5493,98	1066,00
-5478,98	1072,00
-5464,00	932,00
-5449,05	959,00
-5434,13	1038,00
-5419,23	948,00
-5404,36	899,00
-5389,51	1009,00
-5374,69	1170,00
-5359,89	1411,00
-5345,12	1374,00
-5330,37	1414,00
-5315,65	1223,00
-5300,95	1115,00
-5286,28	915,00
-5271,63	1027,00
-5257,01	1082,00
-5242,41	1039,00
-5227,84	926,00
-5213,29	1012,00
-5198,76	877,00
-5184,26	911,00
-5169,79	944,00
-5155,33	974,00
-5140,91	1067,00
-5126,51	1013,00
-5112,13	1092,00
-5097,77	1018,00
-5083,44	1025,00
-5069,13	816,00
-5054,85	1001,00
-5040,59	1001,00
-5026,36	1063,00
-5012,15	1082,00
-4997,96	1080,00
-4983,80	1010,00
-4969,66	861,00
-4955,54	924,00
-4941,44	1024,00
-4927,37	1018,00
-4913,33	1213,00
-4899,30	1270,00
-4885,30	1278,00
-4871,33	1079,00
-4857,37	922,00
-4843,44	796,00
-4829,53	1051,00
-4815,65	1075,00
-4801,79	862,00
-4787,95	1054,00
-4774,13	990,00
-4760,34	858,00
-4746,56	952,00
-4732,82	862,00
-4719,09	940,00
-4705,38	1094,00
-4691,70	1212,00
-4678,04	1254,00
-4664,41	1117,00
-4650,79	1230,00
-4637,20	879,00
-4623,63	845,00
-4610,08	1105,00
-4596,56	1070,00
-4583,05	971,00
-4569,57	918,00
-4556,11	1025,00
-4542,67	854,00
-4529,25	824,00
-4515,86	1015,00
-4502,49	1139,00
-4489,13	1178,00
-4475,80	1213,00
-4462,49	846,00
-4449,21	866,00
-4435,94	886,00
-4422,70	860,00
-4409,47	895,00
-4396,27	1059,00
-4383,09	871,00
-4369,93	843,00
-4356,79	784,00
-4343,67	882,00
-4330,58	1004,00
-4317,50	1009,00
-4304,45	1001,00
-4291,41	938,00
-4278,40	833,00
-4265,41	736,00
-4252,44	937,00
-4239,49	867,00
-4226,55	981,00
-4213,65	973,00
-4200,76	993,00
-4187,89	868,00
-4175,04	797,00
-4162,21	799,00
-4149,40	875,00
-4136,61	808,00
-4123,85	893,00
-4111,10	897,00
-4098,37	963,00
-4085,66	794,00
-4072,98	912,00
-4060,31	769,00
-4047,66	912,00
-4035,04	1005,00
-4022,43	844,00
-4009,84	822,00
-3997,27	704,00
-3984,72	779,00
-3972,19	1027,00
-3959,69	737,00
-3947,20	751,00
-3934,73	808,00
-3922,27	741,00
-3909,84	724,00
-3897,43	868,00
-3885,04	778,00
-3872,67	732,00
-3860,31	671,00
-3847,98	901,00
-3835,66	850,00
-3823,36	773,00
-3811,09	804,00
-3798,83	827,00
-3786,59	805,00
-3774,37	865,00
-3762,17	749,00
-3749,98	823,00
-3737,82	695,00
-3725,67	998,00
-3713,55	731,00
-3701,44	879,00
-3689,35	840,00
-3677,28	890,00
-3665,22	747,00
-3653,19	775,00
-3641,17	802,00
-3629,18	854,00
-3617,20	836,00
-3605,24	822,00
-3593,30	805,00
-3581,37	906,00
-3569,47	842,00
-3557,58	848,00
-3545,71	853,00
-3533,86	992,00
-3522,02	770,00
-3510,21	807,00
-3498,41	830,00
-3486,63	787,00
-3474,87	801,00
-3463,12	848,00
-3451,40	846,00
-3439,69	812,00
-3428,00	741,00
-3416,33	897,00
-3404,67	645,00
-3393,03	777,00
-3381,41	883,00
-3369,81	840,00
-3358,22	854,00
-3346,66	963,00
-3335,10	769,00
-3323,57	746,00
-3312,06	857,00
-3300,56	862,00
-3289,08	822,00
-3277,61	737,00
-3266,16	853,00
-3254,73	796,00
-3243,32	651,00
-3231,92	805,00
-3220,55	887,00
-3209,18	979,00
-3197,84	740,00
-3186,51	761,00
-3175,20	715,00
-3163,90	764,00
-3152,63	890,00
-3141,36	812,00
-3130,12	849,00
-3118,89	860,00
-3107,68	747,00
-3096,49	801,00
-3085,31	801,00
-3074,15	858,00
-3063,00	918,00
-3051,87	810,00
-3040,76	813,00
-3029,67	969,00
-3018,59	993,00
-3007,52	993,00
-2996,48	832,00
-2985,44	796,00
-2974,43	910,00
-2963,43	832,00
-2952,45	849,00
-2941,48	894,00
-2930,53	843,00
-2919,60	665,00
-2908,68	758,00
-2897,78	802,00
-2886,89	894,00
-2876,02	866,00
-2865,17	825,00
-2854,33	766,00
-2843,50	740,00
-2832,70	900,00
-2821,90	796,00
-2811,13	881,00
-2800,37	816,00
-2789,62	674,00
-2778,89	855,00
-2768,18	946,00
-2757,48	838,00
-2746,80	936,00
-2736,13	776,00
-2725,48	809,00
-2714,84	768,00
-2704,22	727,00
-2693,61	850,00
-2683,02	883,00
-2672,45	809,00
-2661,89	825,00
-2651,34	853,00
-2640,81	851,00
-2630,30	995,00
-2619,80	755,00
-2609,31	841,00
-2598,84	738,00
-2588,39	811,00
-2577,95	794,00
-2567,52	738,00
-2557,11	794,00
-2546,71	840,00
-2536,33	929,00
-2525,97	832,00
-2515,62	794,00
-2505,28	848,00
-2494,96	720,00
-2484,65	909,00
-2474,36	1092,00
-2464,08	764,00
-2453,82	967,00
-2443,57	831,00
-2433,33	677,00
-2423,11	837,00
-2412,91	912,00
-2402,72	653,00
-2392,54	814,00
-2382,38	803,00
-2372,23	853,00
-2362,09	1888,00
-2351,97	806,00
-2341,87	793,00
-2331,78	855,00
-2321,70	846,00
-2311,64	795,00
-2301,59	800,00
-2291,55	755,00
-2281,53	884,00
-2271,53	659,00
-2261,53	879,00
-2251,55	827,00
-2241,59	772,00
-2231,64	814,00
-2221,70	860,00
-2211,78	850,00
-2201,87	886,00
-2191,97	790,00
-2182,09	807,00
-2172,22	868,00
-2162,37	787,00
-2152,53	685,00
-2142,70	760,00
-2132,89	763,00
-2123,09	834,00
-2113,30	848,00
-2103,53	870,00
-2093,77	871,00
-2084,02	786,00
-2074,29	831,00
-2064,57	821,00
-2054,86	844,00
-2045,17	857,00
-2035,49	829,00
-2025,82	665,00
-2016,17	793,00
-2006,53	778,00
-1996,91	863,00
-1987,29	828,00
-1977,69	861,00
-1968,11	761,00
-1958,53	759,00
-1948,97	792,00
-1939,42	807,00
-1929,89	772,00
-1920,37	809,00
-1910,86	854,00
-1901,36	829,00
-1891,88	832,00
-1882,41	818,00
-1872,95	865,00
-1863,51	786,00
-1854,08	854,00
-1844,66	932,00
-1835,26	994,00
-1825,86	876,00
-1816,48	750,00
-1807,11	869,00
-1797,76	854,00
-1788,42	910,00
-1779,09	891,00
-1769,77	703,00
-1760,47	936,00
-1751,17	721,00
-1741,89	801,00
-1732,63	894,00
-1723,37	971,00
-1714,13	946,00
-1704,90	867,00
-1695,68	939,00
-1686,48	751,00
-1677,29	847,00
-1668,11	1009,00
-1658,94	726,00
-1649,78	834,00
-1640,64	828,00
-1631,51	837,00
-1622,39	856,00
-1613,28	891,00
-1604,19	937,00
-1595,10	822,00
-1586,03	785,00
-1576,97	870,00
-1567,93	803,00
-1558,89	886,00
-1549,87	863,00
-1540,86	789,00
-1531,86	788,00
-1522,87	770,00
-1513,90	899,00
-1504,93	831,00
-1495,98	866,00
-1487,04	972,00
-1478,12	739,00
-1469,20	842,00
-1460,30	862,00
-1451,40	1033,00
-1442,52	827,00
-1433,65	939,00
-1424,80	855,00
-1415,95	830,00
-1407,12	933,00
-1398,30	724,00
-1389,48	800,00
-1380,69	791,00
-1371,90	804,00
-1363,12	892,00
-1354,36	990,00
-1345,60	837,00
-1336,86	839,00
-1328,13	1014,00
-1319,41	828,00
-1310,70	746,00
-1302,01	774,00
-1293,32	727,00
-1284,65	837,00
-1275,99	863,00
-1267,33	984,00
-1258,69	859,00
-1250,06	875,00
-1241,45	762,00
-1232,84	947,00
-1224,25	825,00
-1215,66	912,00
-1207,09	946,00
-1198,53	774,00
-1189,97	812,00
-1181,43	771,00
-1172,91	803,00
-1164,39	910,00
-1155,88	673,00
-1147,38	743,00
-1138,90	836,00
-1130,43	779,00
-1121,96	867,00
-1113,51	818,00
-1105,07	760,00
-1096,64	892,00
-1088,22	842,00
-1079,81	916,00
-1071,41	869,00
-1063,02	874,00
-1054,65	905,00
-1046,28	864,00
-1037,92	850,00
-1029,58	781,00
-1021,24	858,00
-1012,92	1088,00
-1004,61	868,00
-996,30	1074,00
-988,01	758,00
-979,73	843,00
-971,46	937,00
-963,20	853,00
-954,95	731,00
-946,71	787,00
-938,48	861,00
-930,26	926,00
-922,06	895,00
-913,86	752,00
-905,67	747,00
-897,49	882,00
-889,33	663,00
-881,17	891,00
-873,02	813,00
-864,89	746,00
-856,76	811,00
-848,65	890,00
-840,54	888,00
-832,45	808,00
-824,36	729,00
-816,29	770,00
-808,22	916,00
-800,17	913,00
-792,12	832,00
-784,09	829,00
-776,06	822,00
-768,05	813,00
-760,04	826,00
-752,05	842,00
-744,07	809,00
-736,09	901,00
-728,13	667,00
-720,17	828,00
-712,23	785,00
-704,29	760,00
-696,37	781,00
-688,45	967,00
-680,55	713,00
-672,65	838,00
-664,77	775,00
-656,89	853,00
-649,03	724,00
-641,17	942,00
-633,32	785,00
-625,49	881,00
-617,66	820,00
-609,84	903,00
-602,03	749,00
-594,23	783,00
-586,45	905,00
-578,67	780,00
-570,90	825,00
-563,14	729,00
-555,39	868,00
-547,65	848,00
-539,91	888,00
-532,19	922,00
-524,48	831,00
-516,78	853,00
-509,08	828,00
-501,40	791,00
-493,72	826,00
-486,06	772,00
-478,40	916,00
-470,76	824,00
-463,12	679,00
-455,49	826,00
-447,87	777,00
-440,26	799,00
-432,66	789,00
-425,07	894,00
-417,49	916,00
-409,92	736,00
-402,35	776,00
-394,80	733,00
-387,25	851,00
-379,72	878,00
-372,19	857,00
-364,67	930,00
-357,17	728,00
-349,67	855,00
-342,18	896,00
-334,69	890,00
-327,22	860,00
-319,76	836,00
-312,30	846,00
-304,86	787,00
-297,42	921,00
-290,00	843,00
-282,58	828,00
-275,17	927,00
-267,77	962,00
-260,37	811,00
-252,99	912,00
-245,62	925,00
-238,25	864,00
-230,90	831,00
-223,55	884,00
-216,21	931,00
-208,88	1105,00
-201,56	932,00
-194,25	1045,00
-186,94	944,00
-179,65	983,00
-172,36	1019,00
-165,08	1037,00
-157,81	1117,00
-150,55	1125,00
-143,30	1171,00
-136,06	1238,00
-128,82	1229,00
-121,60	1224,00
-114,38	1324,00
-107,17	1496,00
-99,97	1648,00
-92,78	1629,00
-85,60	1741,00
-78,42	1888,00
-71,25	2101,00
-64,10	2273,00
-56,95	2567,00
-49,81	2847,00
-42,67	3430,00
-35,55	3901,00
-28,43	5173,00
-21,33	7970,00
-14,23	24850,00
-7,14	57498,00
-0,05	57284,00
7,02	57012,00
14,09	57319,00
21,14	21035,00
28,19	9174,00
35,23	6161,00
42,27	5052,00
49,29	4126,00
56,31	3594,00
63,32	3212,00
70,32	2822,00
77,31	2508,00
84,29	2101,00
91,27	2139,00
98,23	1995,00
105,19	1928,00
112,14	2033,00
119,09	2905,00
126,02	4246,00
132,95	4940,00
139,87	5030,00
146,78	5217,00
153,68	4952,00
160,58	4865,00
167,46	4698,00
174,34	4866,00
181,21	4854,00
188,08	4685,00
194,93	4864,00
201,78	4740,00
208,62	4762,00
215,45	4783,00
222,27	4679,00
229,09	4765,00
235,90	4610,00
242,70	4526,00
249,49	4645,00
256,27	4405,00
263,05	4332,00
269,82	4313,00
276,58	4316,00
283,33	4213,00
290,08	4200,00
296,82	4131,00
303,55	3962,00
310,27	3934,00
316,98	3976,00
323,69	3994,00
330,39	3892,00
337,08	4038,00
343,76	3956,00
350,44	3986,00
357,11	3826,00
363,77	3878,00
370,42	3843,00
377,07	3825,00
383,71	3780,00
390,34	3846,00
396,96	3796,00
403,58	3894,00
410,19	4018,00
416,79	4132,00
423,38	4208,00
429,97	4090,00
436,55	4056,00
443,12	4163,00
449,68	4219,00
456,24	4102,00
462,79	3976,00
469,33	3734,00
475,86	3619,00
482,39	3561,00
488,91	3592,00
495,42	3451,00
501,93	3386,00
508,42	3325,00
514,91	3350,00
521,40	3312,00
527,87	3321,00
534,34	3206,00
540,80	3227,00
547,25	3404,00
553,70	3270,00
560,14	3303,00
566,57	3349,00
573,00	3216,00
579,41	3344,00
585,83	3389,00
592,23	3437,00
598,62	3470,00
605,01	3483,00
611,40	3637,00
617,77	3653,00
624,14	3494,00
630,50	3261,00
636,85	3322,00
643,20	3198,00
649,54	2977,00
655,87	3034,00
662,20	3080,00
668,52	2912,00
674,83	3041,00
681,13	2850,00
687,43	2937,00
693,72	2868,00
700,00	2794,00
706,28	2859,00
712,55	2874,00
718,81	2831,00
725,07	2905,00
731,32	2810,00
737,56	2898,00
743,79	2808,00
750,02	2890,00
756,24	2646,00
762,46	2729,00
768,67	2950,00
774,87	2707,00
781,06	2698,00
787,25	2717,00
793,43	2721,00
799,60	2595,00
805,77	2841,00
811,93	2770,00
818,08	2809,00
824,23	2699,00
830,37	2885,00
836,50	2703,00
842,63	2873,00
848,75	2786,00
854,87	2714,00
860,97	2812,00
867,07	2811,00
873,17	2791,00
879,25	2781,00
885,33	2809,00
891,41	2754,00
897,47	2784,00
903,53	2813,00
909,59	2816,00
915,63	2641,00
921,67	2718,00
927,71	2704,00
933,74	2676,00
939,76	2453,00
945,77	2578,00
951,78	2723,00
957,78	2416,00
963,78	2570,00
969,77	2496,00
975,75	2597,00
981,72	2514,00
987,69	3837,00
993,66	2635,00
999,61	2611,00
1005,56	2512,00
1011,51	2582,00
1017,44	2591,00
1023,37	2631,00
1029,30	2612,00
1035,22	2644,00
1041,13	2670,00
1047,03	2850,00
1052,93	3416,00
1058,83	4673,00
1064,71	5223,00
1070,59	4402,00
1076,47	3572,00
1082,33	3268,00
1088,20	3179,00
1094,05	2991,00
1099,90	2630,00
1105,74	2733,00
1111,58	2909,00
1117,41	3073,00
1123,23	3966,00
1129,05	5025,00
1134,86	4549,00
1140,67	3478,00
1146,47	2802,00
1152,26	2736,00
1158,05	2548,00
1163,83	2741,00
1169,60	2806,00
1175,37	2728,00
1181,13	2645,00
1186,89	2446,00
1192,64	2376,00
1198,38	2564,00
1204,12	2326,00
1209,85	2419,00
1215,58	2394,00
1221,30	2412,00
1227,02	2425,00
1232,72	2386,00
1238,43	2317,00
1244,12	2301,00
1249,81	2348,00
1255,50	2576,00
1261,17	2517,00
1266,85	2549,00
1272,51	2635,00
1278,17	2813,00
1283,83	3119,00
1289,47	4516,00
1295,12	6231,00
1300,75	5402,00
1306,38	4248,00
1312,01	3444,00
1317,63	2987,00
1323,24	2781,00
1328,85	2664,00
1334,45	2489,00
1340,04	2543,00
1345,63	2477,00
1351,22	2623,00
1356,80	2508,00
1362,37	2709,00
1367,93	2701,00
1373,49	2736,00
1379,05	2556,00
1384,60	2619,00
1390,14	2487,00
1395,68	2561,00
1401,21	2582,00
1406,74	2810,00
1412,26	3464,00
1417,77	4030,00
1423,28	3806,00
1428,78	4190,00
1434,28	5172,00
1439,77	6004,00
1445,26	5960,00
1450,74	5441,00
1456,22	5138,00
1461,68	4980,00
1467,15	4605,00
1472,61	3935,00
1478,06	3499,00
1483,51	3099,00
1488,95	2601,00
1494,38	2651,00
1499,81	2412,00
1505,24	2391,00
1510,65	2365,00
1516,07	2372,00
1521,48	2303,00
1526,88	2152,00
1532,27	2188,00
1537,67	2141,00
1543,05	2235,00
1548,43	2009,00
1553,81	2190,00
1559,18	1982,00
1564,54	2121,00
1569,90	2077,00
1575,25	1931,00
1580,60	2004,00
1585,94	2046,00
1591,28	1987,00
1596,61	2012,00
1601,93	2068,00
1607,25	2063,00
1612,57	1965,00
1617,88	1980,00
1623,18	1986,00
1628,48	1979,00
1633,77	1934,00
1639,06	2004,00
1644,34	1821,00
1649,62	1883,00
1654,89	1962,00
1660,16	1753,00
1665,42	2128,00
1670,67	1910,00
1675,92	1730,00
1681,17	1866,00
1686,41	1717,00
1691,64	1892,00
1696,87	1856,00
1702,10	1722,00
1707,32	1797,00
1712,53	1840,00
1717,74	1786,00
1722,94	1810,00
1728,14	1728,00
1733,33	1696,00
1738,52	1723,00
1743,70	1707,00
1748,88	1705,00
1754,05	1854,00
1759,22	1653,00
1764,38	1995,00
1769,53	1775,00
1774,69	1755,00
1779,83	1686,00
1784,97	1697,00
1790,11	1703,00
1795,24	1708,00
1800,36	1648,00
1805,48	1553,00
1810,60	1714,00
1815,71	1619,00
1820,82	1577,00
1825,92	1593,00
1831,01	1642,00
1836,10	1647,00
1841,19	1757,00
1846,26	1488,00
1851,34	1506,00
1856,41	1580,00
1861,47	1582,00
1866,53	1734,00
1871,59	1539,00
1876,64	1593,00
1881,68	1573,00
1886,72	1551,00
1891,76	1515,00
1896,79	1544,00
1901,81	1402,00
1906,83	1506,00
1911,85	1500,00
1916,86	1512,00
1921,86	1469,00
1926,86	1461,00
1931,86	1558,00
1936,85	1419,00
1941,83	1425,00
1946,81	1328,00
1951,79	1334,00
1956,76	1400,00
1961,72	1300,00
1966,68	1448,00
1971,64	1435,00
1976,59	1503,00
1981,54	1411,00
1986,48	1442,00
1991,42	1293,00
1996,35	1634,00
2001,27	1434,00
2006,20	1389,00
2011,11	1382,00
2016,03	1366,00
2020,93	1244,00
2025,84	1368,00
2030,73	1410,00
2035,63	1306,00
2040,52	1410,00
2045,40	1337,00
2050,28	1337,00
2055,15	1333,00
2060,02	1249,00
2064,89	1381,00
2069,75	1363,00
2074,60	1284,00
2079,46	1304,00
2084,30	1328,00
2089,14	1191,00
2093,98	1469,00
2098,81	1334,00
2103,64	1319,00
2108,46	1389,00
2113,28	1420,00
2118,09	1281,00
2122,90	1260,00
2127,70	1307,00
2132,50	1552,00
2137,30	1316,00
2142,09	1244,00
2146,87	1221,00
2151,66	1230,00
2156,43	1209,00
2161,20	1257,00
2165,97	1319,00
2170,73	1239,00
2175,49	1380,00
2180,24	1329,00
2184,99	1447,00
2189,74	1458,00
2194,48	1386,00
2199,21	1366,00
2203,94	1282,00
2208,67	1215,00
2213,39	1068,00
2218,11	1294,00
2222,82	1296,00
2227,53	1220,00
2232,23	1345,00
2236,93	1342,00
2241,63	1188,00
2246,32	1371,00
2251,00	1221,00
2255,68	1214,00
2260,36	1216,00
2265,03	1262,00
2269,70	1356,00
2274,36	1257,00
2279,02	1190,00
2283,68	1225,00
2288,33	1254,00
2292,97	1293,00
2297,61	1185,00
2302,25	1282,00
2306,88	1185,00
2311,51	1092,00
2316,14	1148,00
2320,75	1152,00
2325,37	1022,00
2329,98	1206,00
2334,59	1128,00
2339,19	1078,00
2343,79	1075,00
2348,38	1149,00
2352,97	1037,00
2357,55	1278,00
2362,13	1128,00
2366,71	1157,00
2371,28	1186,00
2375,85	1189,00
2380,41	1195,00
2384,97	1126,00
2389,52	1224,00
2394,07	1222,00
2398,62	1190,00
2403,16	1242,00
2407,70	1079,00
2412,23	1029,00
2416,76	1175,00
2421,29	1142,00
2425,81	1278,00
2430,32	1208,00
2434,84	1091,00
2439,34	1113,00
2443,85	1262,00
2448,35	1119,00
2452,84	1149,00
2457,33	1130,00
2461,82	1015,00
2466,30	981,00
2470,78	1101,00
2475,25	1051,00
2479,72	1108,00
2484,19	1206,00
2488,65	1199,00
2493,11	1118,00
2497,56	1252,00
2502,01	889,00
2506,46	1115,00
2510,90	1076,00
2515,34	1041,00
2519,77	1105,00
2524,20	1044,00
2528,62	1113,00
2533,04	1159,00
2537,46	1099,00
2541,87	1100,00
2546,28	1122,00
2550,68	1165,00
2555,08	1139,00
2559,48	1125,00
2563,87	1064,00
2568,26	1010,00
2572,64	1193,00
2577,02	1129,00
2581,40	1035,00
2585,77	1153,00
2590,14	1166,00
2594,50	1033,00
2598,86	1173,00
2603,22	1095,00
2607,57	1041,00
2611,92	1194,00
2616,26	1232,00
2620,60	1264,00
2624,94	1083,00
2629,27	1224,00
2633,60	1046,00
2637,92	1267,00
2642,24	1312,00
2646,56	1201,00
2650,87	1080,00
2655,18	1189,00
2659,48	1118,00
2663,78	1128,00
2668,08	1180,00
2672,37	1282,00
2676,66	1134,00
2680,95	1078,00
2685,23	1325,00
2689,50	1225,00
2693,78	1277,00
2698,05	1189,00
2702,31	1343,00
2706,57	1379,00
2710,83	1416,00
2715,08	1462,00
2719,33	1533,00
2723,58	1505,00
2727,82	1432,00
2732,06	1388,00
2736,29	1370,00
2740,53	1350,00
2744,75	1261,00
2748,97	1335,00
2753,19	1318,00
2757,41	1319,00
2761,62	1302,00
2765,83	1325,00
2770,03	1226,00
2774,23	1335,00
2778,43	1280,00
2782,62	1410,00
2786,81	1349,00
2791,00	1390,00
2795,18	1409,00
2799,35	1569,00
2803,53	1518,00
2807,70	1504,00
2811,86	1516,00
2816,03	1779,00
2820,19	1728,00
2824,34	1844,00
2828,49	2009,00
2832,64	2323,00
2836,78	2643,00
2840,92	3041,00
2845,06	3742,00
2849,19	4126,00
2853,32	4281,00
2857,45	4161,00
2861,57	4199,00
2865,69	4044,00
2869,80	3991,00
2873,91	4147,00
2878,02	4686,00
2882,12	5020,00
2886,22	4929,00
2890,32	4612,00
2894,41	4295,00
2898,50	3949,00
2902,58	3735,00
2906,67	3461,00
2910,74	3211,00
2914,82	2880,00
2918,89	2880,00
2922,96	2577,00
2927,02	2463,00
2931,08	2233,00
2935,13	2193,00
2939,19	2184,00
2943,24	1963,00
2947,28	2002,00
2951,32	1687,00
2955,36	1581,00
2959,40	1687,00
2963,43	1520,00
2967,46	1408,00
2971,48	1421,00
2975,50	1284,00
2979,52	1373,00
2983,53	1305,00
2987,54	1116,00
2991,55	1265,00
2995,55	1208,00
2999,55	1116,00
3003,54	1056,00
3007,54	1159,00
3011,53	1165,00
3015,51	1037,00
3019,49	1108,00
3023,47	988,00
3027,45	1048,00
3031,42	954,00
3035,39	941,00
3039,35	1033,00
3043,31	1063,00
3047,27	1009,00
3051,22	1134,00
3055,17	1003,00
3059,12	955,00
3063,06	934,00
3067,00	889,00
3070,94	922,00
3074,87	1028,00
3078,80	955,00
3082,73	954,00
3086,65	882,00
3090,57	930,00
3094,49	863,00
3098,40	875,00
3102,31	847,00
3106,22	955,00
3110,12	870,00
3114,02	792,00
3117,92	919,00
3121,81	979,00
3125,70	951,00
3129,58	879,00
3133,47	887,00
3137,34	916,00
3141,22	954,00
3145,09	922,00
3148,96	929,00
3152,83	859,00
3156,69	966,00
3160,55	908,00
3164,40	970,00
3168,26	914,00
3172,10	978,00
3175,95	843,00
3179,79	938,00
3183,63	944,00
3187,47	905,00
3191,30	948,00
3195,13	854,00
3198,95	865,00
3202,78	889,00
3206,60	843,00
3210,41	798,00
3214,23	843,00
3218,03	874,00
3221,84	877,00
3225,64	800,00
3229,44	845,00
3233,24	925,00
3237,03	899,00
3240,82	828,00
3244,61	795,00
3248,39	780,00
3252,17	791,00
3255,95	967,00
3259,72	889,00
3263,49	1020,00
3267,26	779,00
3271,03	903,00
3274,79	850,00
3278,54	914,00
3282,30	794,00
3286,05	831,00
3289,80	887,00
3293,54	886,00
3297,29	854,00
3301,02	835,00
3304,76	837,00
3308,49	848,00
3312,22	814,00
3315,95	852,00
3319,67	778,00
3323,39	966,00
3327,10	919,00
3330,82	839,00
3334,53	823,00
3338,24	824,00
3341,94	757,00
3345,64	886,00
3349,34	782,00
3353,03	885,00
3356,72	879,00
3360,41	892,00
3364,10	719,00
3367,78	905,00
3371,46	771,00
3375,13	867,00
3378,81	824,00
3382,48	827,00
3386,14	895,00
3389,81	873,00
3393,47	907,00
3397,12	980,00
3400,78	879,00
3404,43	828,00
3408,08	926,00
3411,72	735,00
3415,36	779,00
3419,00	821,00
3422,64	740,00
3426,27	896,00
3429,90	873,00
3433,53	814,00
3437,15	843,00
3440,77	725,00
3444,39	725,00
3448,00	842,00
3451,62	747,00
3455,22	797,00
3458,83	779,00
3462,43	775,00
3466,03	898,00
3469,63	778,00
3473,22	772,00
3476,81	741,00
3480,40	860,00
3483,99	728,00
3487,57	787,00
3491,15	761,00
3494,72	825,00
3498,29	902,00
3501,86	753,00
3505,43	802,00
3508,99	702,00
3512,56	727,00
3516,11	904,00
3519,67	783,00
3523,22	846,00
3526,77	814,00
3530,32	1050,00
3533,86	785,00
3537,40	864,00
3540,94	849,00
3544,47	805,00
3548,00	695,00
3551,53	905,00
3555,06	737,00
3558,58	844,00
3562,10	838,00
3565,62	737,00
3569,13	880,00
3572,64	929,00
3576,15	700,00
3579,66	772,00
3583,16	816,00
3586,66	832,00
3590,16	725,00
3593,65	711,00
3597,14	705,00
3600,63	785,00
3604,11	791,00
3607,60	796,00
3611,08	810,00
3614,55	739,00
3618,03	758,00
3621,50	751,00
3624,97	753,00
3628,43	807,00
3631,90	724,00
3635,36	750,00
3638,81	722,00
3642,27	706,00
3645,72	759,00
3649,17	721,00
3652,61	804,00
3656,06	671,00
3659,50	730,00
3662,93	813,00
3666,37	801,00
3669,80	891,00
3673,23	783,00
3676,65	785,00
3680,08	892,00
3683,50	753,00
3686,92	649,00
3690,33	705,00
3693,74	707,00
3697,15	634,00
3700,56	782,00
3703,96	698,00
3707,36	535,00
3710,76	687,00
3714,16	616,00
3717,55	730,00
3720,94	664,00
3724,33	653,00
3727,71	769,00
3731,10	738,00
3734,48	747,00
3737,85	680,00
3741,23	636,00
3744,60	632,00
3747,97	649,00
3751,33	738,00
3754,69	730,00
3758,05	723,00
3761,41	621,00
3764,77	637,00
3768,12	655,00
3771,47	574,00
3774,82	679,00
3778,16	-11,00
3781,50	14,00
3784,84	3,00
3788,18	10,00
>>>>>End Processed Spectral Data<<<<<
