SpectraSuite Data File
++++++++++++++++++++++++++++++++++++
Date: Mon Jan 05 16:33:37 ICT 2026
User: Administrator
Dark Spectrum Present: Yes
Reference Spectrum Present: No
Number of Sampled Component Spectra: 1
Spectrometers: MAYP113682
Integration Time (usec): 3000000 (MAYP113682)
Spectra Averaged: 1 (MAYP113682)
Boxcar Smoothing: 0 (MAYP113682)
Correct for Electrical Dark: No (MAYP113682)
Strobe/Lamp Enabled: No (MAYP113682)
Correct for Detector Non-linearity: No (MAYP113682)
Correct for Stray Light: No (MAYP113682)
Number of Pixels in Processed Spectrum: 2068
>>>>>Begin Processed Spectral Data<<<<<
-37534,58	31,00
-37414,56	7,00
-37295,11	6,00
-37176,24	11,00
-37057,95	657,00
-36940,22	661,00
-36823,05	717,00
-36706,45	788,00
-36590,40	868,00
-36474,90	710,00
-36359,95	802,00
-36245,55	813,00
-36131,68	726,00
-36018,35	791,00
-35905,55	741,00
-35793,29	903,00
-35681,54	749,00
-35570,32	763,00
-35459,62	838,00
-35349,43	853,00
-35239,75	829,00
-35130,58	835,00
-35021,91	809,00
-34913,74	800,00
-34806,07	840,00
-34698,89	855,00
-34592,20	844,00
-34486,00	842,00
-34380,28	856,00
-34275,04	750,00
-34170,27	728,00
-34065,98	956,00
-33962,16	872,00
-33858,81	923,00
-33755,92	865,00
-33653,49	932,00
-33551,52	912,00
-33450,01	891,00
-33348,94	781,00
-33248,33	851,00
-33148,16	856,00
-33048,43	876,00
-32949,14	1098,00
-32850,29	950,00
-32751,87	791,00
-32653,89	941,00
-32556,33	966,00
-32459,20	841,00
-32362,49	834,00
-32266,19	857,00
-32170,32	864,00
-32074,86	848,00
-31979,82	945,00
-31885,18	953,00
-31790,95	914,00
-31697,12	986,00
-31603,69	970,00
-31510,67	931,00
-31418,04	922,00
-31325,80	868,00
-31233,95	864,00
-31142,49	898,00
-31051,42	859,00
-30960,73	1023,00
-30870,43	975,00
-30780,50	984,00
-30690,95	800,00
-30601,77	1037,00
-30512,97	909,00
-30424,53	915,00
-30336,46	903,00
-30248,76	846,00
-30161,42	988,00
-30074,44	794,00
-29987,81	1055,00
-29901,55	1007,00
-29815,63	891,00
-29730,07	978,00
-29644,86	976,00
-29560,00	915,00
-29475,48	1014,00
-29391,30	912,00
-29307,47	909,00
-29223,97	763,00
-29140,81	960,00
-29057,99	987,00
-28975,50	800,00
-28893,34	1033,00
-28811,51	823,00
-28730,00	931,00
-28648,82	891,00
-28567,97	920,00
-28487,43	869,00
-28407,21	930,00
-28327,32	820,00
-28247,73	1061,00
-28168,46	860,00
-28089,50	957,00
-28010,85	863,00
-27932,51	857,00
-27854,48	917,00
-27776,75	792,00
-27699,32	946,00
-27622,19	888,00
-27545,37	1013,00
-27468,84	946,00
-27392,60	962,00
-27316,66	921,00
-27241,01	919,00
-27165,66	840,00
-27090,59	798,00
-27015,81	982,00
-26941,31	960,00
-26867,10	783,00
-26793,17	998,00
-26719,52	962,00
-26646,15	838,00
-26573,06	909,00
-26500,24	847,00
-26427,70	881,00
-26355,43	826,00
-26283,43	930,00
-26211,71	962,00
-26140,25	889,00
-26069,06	922,00
-25998,13	772,00
-25927,46	883,00
-25857,06	778,00
-25786,92	890,00
-25717,04	848,00
-25647,42	1011,00
-25578,05	821,00
-25508,94	895,00
-25440,09	947,00
-25371,48	980,00
-25303,13	1009,00
-25235,02	844,00
-25167,17	960,00
-25099,56	819,00
-25032,19	848,00
-24965,07	817,00
-24898,20	766,00
-24831,56	921,00
-24765,17	948,00
-24699,01	821,00
-24633,10	883,00
-24567,41	966,00
-24501,97	888,00
-24436,75	865,00
-24371,77	846,00
-24307,03	875,00
-24242,51	881,00
-24178,22	824,00
-24114,16	807,00
-24050,32	946,00
-23986,71	883,00
-23923,32	890,00
-23860,16	902,00
-23797,22	840,00
-23734,50	838,00
-23672,00	918,00
-23609,71	858,00
-23547,65	796,00
-23485,80	944,00
-23424,16	683,00
-23362,74	1038,00
-23301,53	886,00
-23240,54	766,00
-23179,75	724,00
-23119,17	738,00
-23058,80	849,00
-22998,64	922,00
-22938,68	881,00
-22878,93	900,00
-22819,39	749,00
-22760,04	837,00
-22700,90	877,00
-22641,96	932,00
-22583,22	865,00
-22524,68	899,00
-22466,33	870,00
-22408,19	931,00
-22350,23	845,00
-22292,48	889,00
-22234,92	940,00
-22177,55	928,00
-22120,37	917,00
-22063,38	766,00
-22006,58	842,00
-21949,98	837,00
-21893,56	766,00
-21837,33	901,00
-21781,28	852,00
-21725,42	835,00
-21669,74	940,00
-21614,25	863,00
-21558,94	889,00
-21503,81	876,00
-21448,86	911,00
-21394,10	874,00
-21339,51	823,00
-21285,10	809,00
-21230,86	782,00
-21176,81	854,00
-21122,93	764,00
-21069,22	806,00
-21015,69	836,00
-20962,33	914,00
-20909,14	785,00
-20856,13	851,00
-20803,28	958,00
-20750,61	901,00
-20698,10	825,00
-20645,76	847,00
-20593,59	973,00
-20541,59	921,00
-20489,75	933,00
-20438,07	745,00
-20386,56	973,00
-20335,22	835,00
-20284,03	907,00
-20233,01	769,00
-20182,15	798,00
-20131,45	929,00
-20080,91	719,00
-20030,52	880,00
-19980,30	857,00
-19930,23	796,00
-19880,32	988,00
-19830,56	927,00
-19780,96	904,00
-19731,52	873,00
-19682,23	902,00
-19633,09	781,00
-19584,10	787,00
-19535,26	807,00
-19486,58	999,00
-19438,04	923,00
-19389,66	889,00
-19341,42	846,00
-19293,33	801,00
-19245,39	881,00
-19197,60	869,00
-19149,95	944,00
-19102,45	945,00
-19055,09	789,00
-19007,87	894,00
-18960,80	857,00
-18913,87	927,00
-18867,09	876,00
-18820,44	987,00
-18773,94	859,00
-18727,57	810,00
-18681,35	814,00
-18635,26	923,00
-18589,31	810,00
-18543,50	897,00
-18497,83	872,00
-18452,29	914,00
-18406,89	768,00
-18361,63	960,00
-18316,50	822,00
-18271,50	813,00
-18226,63	909,00
-18181,90	905,00
-18137,30	898,00
-18092,84	889,00
-18048,50	884,00
-18004,29	822,00
-17960,22	887,00
-17916,27	856,00
-17872,45	886,00
-17828,76	908,00
-17785,20	904,00
-17741,77	902,00
-17698,46	911,00
-17655,28	830,00
-17612,22	802,00
-17569,29	854,00
-17526,48	945,00
-17483,79	900,00
-17441,23	859,00
-17398,79	889,00
-17356,48	815,00
-17314,28	987,00
-17272,21	884,00
-17230,26	888,00
-17188,42	849,00
-17146,71	884,00
-17105,12	834,00
-17063,64	898,00
-17022,28	785,00
-16981,04	798,00
-16939,92	1000,00
-16898,91	963,00
-16858,02	842,00
-16817,25	840,00
-16776,59	779,00
-16736,04	826,00
-16695,61	883,00
-16655,29	897,00
-16615,09	813,00
-16574,99	831,00
-16535,01	819,00
-16495,15	931,00
-16455,39	849,00
-16415,74	778,00
-16376,21	818,00
-16336,78	776,00
-16297,46	822,00
-16258,26	800,00
-16219,16	854,00
-16180,17	805,00
-16141,28	913,00
-16102,51	889,00
-16063,84	773,00
-16025,27	915,00
-15986,82	794,00
-15948,46	840,00
-15910,22	853,00
-15872,07	799,00
-15834,04	873,00
-15796,10	828,00
-15758,27	1067,00
-15720,54	910,00
-15682,91	852,00
-15645,39	1039,00
-15607,97	871,00
-15570,64	845,00
-15533,42	955,00
-15496,30	825,00
-15459,28	925,00
-15422,36	809,00
-15385,54	829,00
-15348,82	889,00
-15312,19	973,00
-15275,66	791,00
-15239,23	966,00
-15202,90	894,00
-15166,67	831,00
-15130,53	1003,00
-15094,48	873,00
-15058,54	793,00
-15022,68	851,00
-14986,93	857,00
-14951,26	860,00
-14915,69	944,00
-14880,22	842,00
-14844,84	773,00
-14809,55	888,00
-14774,35	858,00
-14739,25	819,00
-14704,24	877,00
-14669,32	902,00
-14634,49	793,00
-14599,75	962,00
-14565,10	816,00
-14530,55	951,00
-14496,08	839,00
-14461,70	891,00
-14427,41	858,00
-14393,21	758,00
-14359,10	834,00
-14325,07	871,00
-14291,14	792,00
-14257,29	828,00
-14223,52	927,00
-14189,85	934,00
-14156,26	850,00
-14122,76	829,00
-14089,34	851,00
-14056,01	899,00
-14022,76	771,00
-13989,60	848,00
-13956,52	940,00
-13923,53	790,00
-13890,62	749,00
-13857,79	829,00
-13825,05	812,00
-13792,39	810,00
-13759,81	936,00
-13727,31	838,00
-13694,90	859,00
-13662,57	929,00
-13630,31	912,00
-13598,14	944,00
-13566,05	809,00
-13534,05	866,00
-13502,12	892,00
-13470,27	830,00
-13438,50	915,00
-13406,80	856,00
-13375,19	887,00
-13343,66	969,00
-13312,20	904,00
-13280,83	847,00
-13249,53	866,00
-13218,30	702,00
-13187,16	825,00
-13156,09	1062,00
-13125,10	850,00
-13094,18	899,00
-13063,34	869,00
-13032,58	776,00
-13001,89	924,00
-12971,28	892,00
-12940,74	857,00
-12910,27	928,00
-12879,88	892,00
-12849,57	839,00
-12819,33	964,00
-12789,16	924,00
-12759,06	788,00
-12729,04	852,00
-12699,09	1364,00
-12669,21	859,00
-12639,41	804,00
-12609,68	777,00
-12580,02	892,00
-12550,43	1003,00
-12520,91	724,00
-12491,46	800,00
-12462,08	772,00
-12432,77	880,00
-12403,54	874,00
-12374,37	832,00
-12345,27	907,00
-12316,24	935,00
-12287,29	893,00
-12258,40	849,00
-12229,57	942,00
-12200,82	829,00
-12172,14	819,00
-12143,52	739,00
-12114,97	847,00
-12086,49	920,00
-12058,07	1012,00
-12029,73	887,00
-12001,44	928,00
-11973,23	921,00
-11945,08	765,00
-11917,00	889,00
-11888,98	817,00
-11861,03	981,00
-11833,15	787,00
-11805,32	948,00
-11777,57	870,00
-11749,88	928,00
-11722,25	823,00
-11694,69	904,00
-11667,19	883,00
-11639,75	852,00
-11612,38	769,00
-11585,07	815,00
-11557,83	871,00
-11530,65	983,00
-11503,53	832,00
-11476,47	832,00
-11449,48	824,00
-11422,54	1035,00
-11395,67	838,00
-11368,86	1001,00
-11342,11	859,00
-11315,43	825,00
-11288,80	844,00
-11262,23	905,00
-11235,73	905,00
-11209,28	1036,00
-11182,90	800,00
-11156,57	798,00
-11130,31	1045,00
-11104,10	875,00
-11077,96	854,00
-11051,87	825,00
-11025,84	849,00
-10999,87	846,00
-10973,96	878,00
-10948,11	807,00
-10922,31	946,00
-10896,58	920,00
-10870,90	1022,00
-10845,28	972,00
-10819,71	836,00
-10794,20	982,00
-10768,75	975,00
-10743,36	966,00
-10718,02	888,00
-10692,74	864,00
-10667,52	826,00
-10642,35	894,00
-10617,24	973,00
-10592,18	968,00
-10567,18	867,00
-10542,23	999,00
-10517,34	964,00
-10492,51	1030,00
-10467,72	926,00
-10443,00	885,00
-10418,32	1064,00
-10393,70	987,00
-10369,14	968,00
-10344,63	860,00
-10320,17	1039,00
-10295,77	1011,00
-10271,42	1036,00
-10247,12	992,00
-10222,88	1106,00
-10198,68	1001,00
-10174,54	1111,00
-10150,46	1150,00
-10126,42	1253,00
-10102,44	1039,00
-10078,51	1113,00
-10054,63	1191,00
-10030,80	1185,00
-10007,03	1235,00
-9983,30	1249,00
-9959,63	1204,00
-9936,01	1349,00
-9912,44	1300,00
-9888,92	1369,00
-9865,44	1259,00
-9842,02	1344,00
-9818,65	1359,00
-9795,33	1121,00
-9772,06	1466,00
-9748,84	1379,00
-9725,67	1426,00
-9702,55	1571,00
-9679,47	1674,00
-9656,45	1886,00
-9633,47	1728,00
-9610,55	1732,00
-9587,67	1975,00
-9564,84	2131,00
-9542,06	2190,00
-9519,32	2314,00
-9496,64	2522,00
-9474,00	2640,00
-9451,41	2562,00
-9428,87	2712,00
-9406,37	2715,00
-9383,92	2471,00
-9361,52	2422,00
-9339,17	2672,00
-9316,86	2856,00
-9294,60	3175,00
-9272,38	3564,00
-9250,21	3823,00
-9228,09	3909,00
-9206,01	3921,00
-9183,98	3668,00
-9162,00	3332,00
-9140,06	3423,00
-9118,16	3217,00
-9096,31	3406,00
-9074,51	3476,00
-9052,75	3712,00
-9031,04	3591,00
-9009,37	3230,00
-8987,74	3053,00
-8966,16	2893,00
-8944,63	2605,00
-8923,14	2583,00
-8901,69	2612,00
-8880,29	2685,00
-8858,93	2985,00
-8837,61	3189,00
-8816,34	3263,00
-8795,11	3367,00
-8773,92	2986,00
-8752,78	2880,00
-8731,68	2638,00
-8710,62	2708,00
-8689,61	2644,00
-8668,63	2904,00
-8647,70	3179,00
-8626,82	3122,00
-8605,97	3140,00
-8585,17	2842,00
-8564,41	2636,00
-8543,69	2629,00
-8523,01	2411,00
-8502,37	2614,00
-8481,78	2612,00
-8461,23	2632,00
-8440,71	2901,00
-8420,24	3004,00
-8399,81	3089,00
-8379,42	3018,00
-8359,08	3052,00
-8338,77	2509,00
-8318,50	2420,00
-8298,27	2311,00
-8278,09	2646,00
-8257,94	2670,00
-8237,83	2832,00
-8217,76	2876,00
-8197,74	2925,00
-8177,75	2875,00
-8157,80	2600,00
-8137,89	2478,00
-8118,02	2365,00
-8098,19	2460,00
-8078,40	2378,00
-8058,65	2426,00
-8038,93	2564,00
-8019,26	2535,00
-7999,62	2432,00
-7980,02	2306,00
-7960,46	2250,00
-7940,94	2125,00
-7921,46	2134,00
-7902,01	2064,00
-7882,60	2192,00
-7863,23	2129,00
-7843,90	2136,00
-7824,61	2210,00
-7805,35	2404,00
-7786,13	2417,00
-7766,95	2316,00
-7747,80	2360,00
-7728,69	2184,00
-7709,62	2236,00
-7690,59	2306,00
-7671,59	2396,00
-7652,63	2412,00
-7633,70	2291,00
-7614,81	2483,00
-7595,96	2181,00
-7577,15	2072,00
-7558,37	2004,00
-7539,62	2145,00
-7520,91	2160,00
-7502,24	2235,00
-7483,60	2301,00
-7465,00	2181,00
-7446,44	2056,00
-7427,91	1758,00
-7409,41	1716,00
-7390,95	1754,00
-7372,53	1562,00
-7354,14	1855,00
-7335,78	1731,00
-7317,46	1838,00
-7299,18	1732,00
-7280,92	1938,00
-7262,71	2272,00
-7244,52	2234,00
-7226,38	2102,00
-7208,26	2180,00
-7190,18	1987,00
-7172,14	1979,00
-7154,12	1960,00
-7136,15	1956,00
-7118,20	2265,00
-7100,29	2130,00
-7082,41	2164,00
-7064,57	2084,00
-7046,76	1947,00
-7028,98	1788,00
-7011,24	1850,00
-6993,53	1496,00
-6975,85	1556,00
-6958,20	1459,00
-6940,59	1337,00
-6923,01	1374,00
-6905,46	1603,00
-6887,94	1682,00
-6870,46	2162,00
-6853,01	2053,00
-6835,59	1952,00
-6818,21	1772,00
-6800,85	1710,00
-6783,53	1529,00
-6766,24	1254,00
-6748,98	1247,00
-6731,76	1315,00
-6714,56	1240,00
-6697,40	1150,00
-6680,26	1074,00
-6663,16	1325,00
-6646,09	1444,00
-6629,05	1715,00
-6612,05	1766,00
-6595,07	1580,00
-6578,13	1687,00
-6561,21	1453,00
-6544,33	1302,00
-6527,47	1126,00
-6510,65	1172,00
-6493,86	1076,00
-6477,10	1127,00
-6460,36	1190,00
-6443,66	1032,00
-6426,99	1161,00
-6410,35	1133,00
-6393,74	1325,00
-6377,16	1273,00
-6360,61	1410,00
-6344,09	1231,00
-6327,59	1342,00
-6311,13	1495,00
-6294,70	1340,00
-6278,29	1527,00
-6261,92	1500,00
-6245,58	1629,00
-6229,26	1665,00
-6212,97	1628,00
-6196,72	1436,00
-6180,49	1327,00
-6164,29	951,00
-6148,12	1106,00
-6131,98	1105,00
-6115,86	949,00
-6099,78	995,00
-6083,72	966,00
-6067,69	918,00
-6051,69	973,00
-6035,72	1053,00
-6019,78	1127,00
-6003,87	1360,00
-5987,98	1395,00
-5972,12	1426,00
-5956,29	1382,00
-5940,49	1194,00
-5924,71	1328,00
-5908,96	1123,00
-5893,24	1094,00
-5877,55	1073,00
-5861,89	1127,00
-5846,25	992,00
-5830,64	1107,00
-5815,05	1001,00
-5799,50	1045,00
-5783,97	1104,00
-5768,47	1090,00
-5752,99	1360,00
-5737,55	1203,00
-5722,12	1363,00
-5706,73	1293,00
-5691,36	1341,00
-5676,02	1103,00
-5660,71	1060,00
-5645,42	1006,00
-5630,16	1145,00
-5614,92	1285,00
-5599,71	1105,00
-5584,53	1205,00
-5569,37	1165,00
-5554,24	1385,00
-5539,14	1083,00
-5524,06	1157,00
-5509,01	1103,00
-5493,98	1125,00
-5478,98	1298,00
-5464,00	1139,00
-5449,05	1015,00
-5434,13	1113,00
-5419,23	1062,00
-5404,36	1035,00
-5389,51	1133,00
-5374,69	1230,00
-5359,89	1387,00
-5345,12	1393,00
-5330,37	1552,00
-5315,65	1299,00
-5300,95	1227,00
-5286,28	1056,00
-5271,63	951,00
-5257,01	1074,00
-5242,41	1125,00
-5227,84	1024,00
-5213,29	1084,00
-5198,76	1033,00
-5184,26	989,00
-5169,79	1044,00
-5155,33	1154,00
-5140,91	1139,00
-5126,51	1090,00
-5112,13	1243,00
-5097,77	1147,00
-5083,44	1182,00
-5069,13	996,00
-5054,85	1049,00
-5040,59	1098,00
-5026,36	1143,00
-5012,15	1188,00
-4997,96	1189,00
-4983,80	1098,00
-4969,66	993,00
-4955,54	1003,00
-4941,44	1118,00
-4927,37	1081,00
-4913,33	1389,00
-4899,30	1382,00
-4885,30	1349,00
-4871,33	1126,00
-4857,37	1051,00
-4843,44	945,00
-4829,53	1186,00
-4815,65	1181,00
-4801,79	1008,00
-4787,95	1183,00
-4774,13	1002,00
-4760,34	1021,00
-4746,56	1048,00
-4732,82	939,00
-4719,09	1078,00
-4705,38	1286,00
-4691,70	1296,00
-4678,04	1357,00
-4664,41	1344,00
-4650,79	1233,00
-4637,20	989,00
-4623,63	945,00
-4610,08	1223,00
-4596,56	1201,00
-4583,05	1127,00
-4569,57	1040,00
-4556,11	1053,00
-4542,67	886,00
-4529,25	925,00
-4515,86	1034,00
-4502,49	1184,00
-4489,13	1323,00
-4475,80	1225,00
-4462,49	911,00
-4449,21	1082,00
-4435,94	1005,00
-4422,70	954,00
-4409,47	913,00
-4396,27	1105,00
-4383,09	960,00
-4369,93	993,00
-4356,79	861,00
-4343,67	947,00
-4330,58	1084,00
-4317,50	1085,00
-4304,45	1117,00
-4291,41	1013,00
-4278,40	960,00
-4265,41	837,00
-4252,44	962,00
-4239,49	969,00
-4226,55	1188,00
-4213,65	984,00
-4200,76	1068,00
-4187,89	880,00
-4175,04	803,00
-4162,21	912,00
-4149,40	972,00
-4136,61	963,00
-4123,85	907,00
-4111,10	876,00
-4098,37	1006,00
-4085,66	970,00
-4072,98	853,00
-4060,31	845,00
-4047,66	999,00
-4035,04	1030,00
-4022,43	869,00
-4009,84	882,00
-3997,27	794,00
-3984,72	934,00
-3972,19	961,00
-3959,69	926,00
-3947,20	832,00
-3934,73	855,00
-3922,27	785,00
-3909,84	823,00
-3897,43	939,00
-3885,04	934,00
-3872,67	838,00
-3860,31	828,00
-3847,98	955,00
-3835,66	892,00
-3823,36	826,00
-3811,09	798,00
-3798,83	891,00
-3786,59	936,00
-3774,37	1061,00
-3762,17	880,00
-3749,98	858,00
-3737,82	880,00
-3725,67	1037,00
-3713,55	789,00
-3701,44	919,00
-3689,35	878,00
-3677,28	1046,00
-3665,22	813,00
-3653,19	892,00
-3641,17	777,00
-3629,18	1005,00
-3617,20	850,00
-3605,24	900,00
-3593,30	909,00
-3581,37	1026,00
-3569,47	879,00
-3557,58	939,00
-3545,71	995,00
-3533,86	958,00
-3522,02	864,00
-3510,21	889,00
-3498,41	876,00
-3486,63	847,00
-3474,87	801,00
-3463,12	808,00
-3451,40	908,00
-3439,69	927,00
-3428,00	886,00
-3416,33	907,00
-3404,67	830,00
-3393,03	884,00
-3381,41	987,00
-3369,81	885,00
-3358,22	942,00
-3346,66	975,00
-3335,10	898,00
-3323,57	876,00
-3312,06	956,00
-3300,56	886,00
-3289,08	775,00
-3277,61	869,00
-3266,16	867,00
-3254,73	835,00
-3243,32	918,00
-3231,92	856,00
-3220,55	901,00
-3209,18	1057,00
-3197,84	801,00
-3186,51	823,00
-3175,20	912,00
-3163,90	856,00
-3152,63	932,00
-3141,36	801,00
-3130,12	907,00
-3118,89	930,00
-3107,68	909,00
-3096,49	972,00
-3085,31	850,00
-3074,15	829,00
-3063,00	958,00
-3051,87	924,00
-3040,76	836,00
-3029,67	1014,00
-3018,59	1079,00
-3007,52	1061,00
-2996,48	973,00
-2985,44	932,00
-2974,43	955,00
-2963,43	804,00
-2952,45	882,00
-2941,48	844,00
-2930,53	929,00
-2919,60	893,00
-2908,68	907,00
-2897,78	955,00
-2886,89	1017,00
-2876,02	965,00
-2865,17	810,00
-2854,33	902,00
-2843,50	934,00
-2832,70	892,00
-2821,90	917,00
-2811,13	881,00
-2800,37	892,00
-2789,62	713,00
-2778,89	948,00
-2768,18	956,00
-2757,48	890,00
-2746,80	1019,00
-2736,13	822,00
-2725,48	932,00
-2714,84	788,00
-2704,22	896,00
-2693,61	848,00
-2683,02	932,00
-2672,45	843,00
-2661,89	915,00
-2651,34	903,00
-2640,81	954,00
-2630,30	1011,00
-2619,80	839,00
-2609,31	1026,00
-2598,84	848,00
-2588,39	871,00
-2577,95	893,00
-2567,52	793,00
-2557,11	846,00
-2546,71	845,00
-2536,33	938,00
-2525,97	893,00
-2515,62	901,00
-2505,28	966,00
-2494,96	880,00
-2484,65	972,00
-2474,36	1250,00
-2464,08	849,00
-2453,82	1061,00
-2443,57	846,00
-2433,33	816,00
-2423,11	982,00
-2412,91	908,00
-2402,72	851,00
-2392,54	864,00
-2382,38	908,00
-2372,23	1002,00
-2362,09	818,00
-2351,97	806,00
-2341,87	736,00
-2331,78	964,00
-2321,70	908,00
-2311,64	934,00
-2301,59	888,00
-2291,55	825,00
-2281,53	972,00
-2271,53	747,00
-2261,53	1002,00
-2251,55	922,00
-2241,59	877,00
-2231,64	881,00
-2221,70	840,00
-2211,78	899,00
-2201,87	934,00
-2191,97	883,00
-2182,09	862,00
-2172,22	998,00
-2162,37	917,00
-2152,53	786,00
-2142,70	886,00
-2132,89	838,00
-2123,09	935,00
-2113,30	927,00
-2103,53	842,00
-2093,77	997,00
-2084,02	852,00
-2074,29	1043,00
-2064,57	881,00
-2054,86	947,00
-2045,17	999,00
-2035,49	896,00
-2025,82	836,00
-2016,17	888,00
-2006,53	893,00
-1996,91	954,00
-1987,29	832,00
-1977,69	901,00
-1968,11	861,00
-1958,53	782,00
-1948,97	824,00
-1939,42	820,00
-1929,89	884,00
-1920,37	900,00
-1910,86	846,00
-1901,36	994,00
-1891,88	997,00
-1882,41	906,00
-1872,95	887,00
-1863,51	898,00
-1854,08	914,00
-1844,66	1024,00
-1835,26	945,00
-1825,86	989,00
-1816,48	834,00
-1807,11	926,00
-1797,76	950,00
-1788,42	936,00
-1779,09	951,00
-1769,77	917,00
-1760,47	1021,00
-1751,17	839,00
-1741,89	913,00
-1732,63	864,00
-1723,37	1045,00
-1714,13	994,00
-1704,90	849,00
-1695,68	1023,00
-1686,48	752,00
-1677,29	879,00
-1668,11	1145,00
-1658,94	816,00
-1649,78	886,00
-1640,64	916,00
-1631,51	793,00
-1622,39	959,00
-1613,28	903,00
-1604,19	948,00
-1595,10	922,00
-1586,03	946,00
-1576,97	963,00
-1567,93	857,00
-1558,89	1013,00
-1549,87	977,00
-1540,86	855,00
-1531,86	850,00
-1522,87	870,00
-1513,90	993,00
-1504,93	921,00
-1495,98	906,00
-1487,04	962,00
-1478,12	889,00
-1469,20	875,00
-1460,30	926,00
-1451,40	1055,00
-1442,52	980,00
-1433,65	1055,00
-1424,80	906,00
-1415,95	819,00
-1407,12	1090,00
-1398,30	937,00
-1389,48	978,00
-1380,69	833,00
-1371,90	889,00
-1363,12	919,00
-1354,36	979,00
-1345,60	883,00
-1336,86	869,00
-1328,13	1019,00
-1319,41	969,00
-1310,70	936,00
-1302,01	837,00
-1293,32	831,00
-1284,65	893,00
-1275,99	957,00
-1267,33	977,00
-1258,69	954,00
-1250,06	905,00
-1241,45	797,00
-1232,84	1054,00
-1224,25	859,00
-1215,66	957,00
-1207,09	957,00
-1198,53	910,00
-1189,97	904,00
-1181,43	806,00
-1172,91	810,00
-1164,39	1024,00
-1155,88	805,00
-1147,38	798,00
-1138,90	866,00
-1130,43	817,00
-1121,96	909,00
-1113,51	906,00
-1105,07	929,00
-1096,64	970,00
-1088,22	976,00
-1079,81	967,00
-1071,41	1018,00
-1063,02	829,00
-1054,65	973,00
-1046,28	875,00
-1037,92	949,00
-1029,58	917,00
-1021,24	976,00
-1012,92	1186,00
-1004,61	985,00
-996,30	1057,00
-988,01	814,00
-979,73	903,00
-971,46	1017,00
-963,20	853,00
-954,95	833,00
-946,71	896,00
-938,48	919,00
-930,26	970,00
-922,06	916,00
-913,86	809,00
-905,67	808,00
-897,49	998,00
-889,33	805,00
-881,17	1006,00
-873,02	916,00
-864,89	836,00
-856,76	927,00
-848,65	1021,00
-840,54	985,00
-832,45	945,00
-824,36	741,00
-816,29	984,00
-808,22	920,00
-800,17	998,00
-792,12	925,00
-784,09	977,00
-776,06	867,00
-768,05	872,00
-760,04	929,00
-752,05	857,00
-744,07	994,00
-736,09	1027,00
-728,13	769,00
-720,17	903,00
-712,23	859,00
-704,29	868,00
-696,37	899,00
-688,45	1081,00
-680,55	826,00
-672,65	918,00
-664,77	909,00
-656,89	915,00
-649,03	847,00
-641,17	938,00
-633,32	847,00
-625,49	932,00
-617,66	829,00
-609,84	946,00
-602,03	831,00
-594,23	856,00
-586,45	957,00
-578,67	837,00
-570,90	923,00
-563,14	838,00
-555,39	954,00
-547,65	948,00
-539,91	921,00
-532,19	926,00
-524,48	943,00
-516,78	870,00
-509,08	928,00
-501,40	876,00
-493,72	850,00
-486,06	854,00
-478,40	1023,00
-470,76	871,00
-463,12	868,00
-455,49	870,00
-447,87	848,00
-440,26	854,00
-432,66	752,00
-425,07	953,00
-417,49	974,00
-409,92	741,00
-402,35	797,00
-394,80	806,00
-387,25	893,00
-379,72	925,00
-372,19	965,00
-364,67	990,00
-357,17	871,00
-349,67	961,00
-342,18	800,00
-334,69	885,00
-327,22	924,00
-319,76	827,00
-312,30	885,00
-304,86	886,00
-297,42	988,00
-290,00	918,00
-282,58	863,00
-275,17	1013,00
-267,77	1004,00
-260,37	932,00
-252,99	1032,00
-245,62	992,00
-238,25	1004,00
-230,90	914,00
-223,55	1008,00
-216,21	971,00
-208,88	1120,00
-201,56	971,00
-194,25	1066,00
-186,94	1033,00
-179,65	1041,00
-172,36	1054,00
-165,08	1129,00
-157,81	1223,00
-150,55	1248,00
-143,30	1252,00
-136,06	1182,00
-128,82	1312,00
-121,60	1325,00
-114,38	1394,00
-107,17	1565,00
-99,97	1667,00
-92,78	1729,00
-85,60	1820,00
-78,42	2045,00
-71,25	2135,00
-64,10	2281,00
-56,95	2537,00
-49,81	2889,00
-42,67	3516,00
-35,55	4079,00
-28,43	5148,00
-21,33	7964,00
-14,23	24580,00
-7,14	57498,00
-0,05	57284,00
7,02	57012,00
14,09	57319,00
21,14	20950,00
28,19	9321,00
35,23	6240,00
42,27	5087,00
49,29	4119,00
56,31	3744,00
63,32	3257,00
70,32	2782,00
77,31	2573,00
84,29	2280,00
91,27	2256,00
98,23	2106,00
105,19	2105,00
112,14	2216,00
119,09	3225,00
126,02	4710,00
132,95	5390,00
139,87	5478,00
146,78	5686,00
153,68	5473,00
160,58	5429,00
167,46	5249,00
174,34	5317,00
181,21	5408,00
188,08	5256,00
194,93	5350,00
201,78	5232,00
208,62	5367,00
215,45	5336,00
222,27	5286,00
229,09	5295,00
235,90	5061,00
242,70	5143,00
249,49	5178,00
256,27	5013,00
263,05	4918,00
269,82	4864,00
276,58	4950,00
283,33	4689,00
290,08	4721,00
296,82	4594,00
303,55	4455,00
310,27	4416,00
316,98	4558,00
323,69	4503,00
330,39	4461,00
337,08	4437,00
343,76	4461,00
350,44	4453,00
357,11	4384,00
363,77	4403,00
370,42	4388,00
377,07	4449,00
383,71	4158,00
390,34	4345,00
396,96	4345,00
403,58	4349,00
410,19	4467,00
416,79	4543,00
423,38	4744,00
429,97	4631,00
436,55	4401,00
443,12	4599,00
449,68	4584,00
456,24	4507,00
462,79	4331,00
469,33	4106,00
475,86	4121,00
482,39	3921,00
488,91	3901,00
495,42	3816,00
501,93	3893,00
508,42	3674,00
514,91	3817,00
521,40	3675,00
527,87	3698,00
534,34	3583,00
540,80	3680,00
547,25	3820,00
553,70	3659,00
560,14	3718,00
566,57	3675,00
573,00	3777,00
579,41	3789,00
585,83	3864,00
592,23	3793,00
598,62	3821,00
605,01	3956,00
611,40	4062,00
617,77	3942,00
624,14	3836,00
630,50	3667,00
636,85	3676,00
643,20	3519,00
649,54	3360,00
655,87	3380,00
662,20	3481,00
668,52	3365,00
674,83	3383,00
681,13	3275,00
687,43	3433,00
693,72	3135,00
700,00	3192,00
706,28	3249,00
712,55	3273,00
718,81	3230,00
725,07	3149,00
731,32	3223,00
737,56	3282,00
743,79	3149,00
750,02	3157,00
756,24	2963,00
762,46	3012,00
768,67	3330,00
774,87	3007,00
781,06	3064,00
787,25	3167,00
793,43	3094,00
799,60	3051,00
805,77	3270,00
811,93	3079,00
818,08	3094,00
824,23	3031,00
830,37	3331,00
836,50	3057,00
842,63	3170,00
848,75	3132,00
854,87	3041,00
860,97	3180,00
867,07	3114,00
873,17	3190,00
879,25	3081,00
885,33	3144,00
891,41	3143,00
897,47	3073,00
903,53	3014,00
909,59	2985,00
915,63	3029,00
921,67	2971,00
927,71	3021,00
933,74	2997,00
939,76	2864,00
945,77	2836,00
951,78	2969,00
957,78	2862,00
963,78	2873,00
969,77	2861,00
975,75	2871,00
981,72	2807,00
987,69	4250,00
993,66	2969,00
999,61	2960,00
1005,56	2848,00
1011,51	2889,00
1017,44	2868,00
1023,37	2937,00
1029,30	2896,00
1035,22	3035,00
1041,13	2899,00
1047,03	3222,00
1052,93	3588,00
1058,83	4930,00
1064,71	5473,00
1070,59	4626,00
1076,47	3846,00
1082,33	3546,00
1088,20	3502,00
1094,05	3323,00
1099,90	3049,00
1105,74	3072,00
1111,58	3194,00
1117,41	3309,00
1123,23	4201,00
1129,05	5001,00
1134,86	4584,00
1140,67	3646,00
1146,47	3124,00
1152,26	2995,00
1158,05	2883,00
1163,83	3075,00
1169,60	3068,00
1175,37	3024,00
1181,13	2875,00
1186,89	2712,00
1192,64	2733,00
1198,38	2835,00
1204,12	2661,00
1209,85	2695,00
1215,58	2733,00
1221,30	2699,00
1227,02	2703,00
1232,72	2677,00
1238,43	2665,00
1244,12	2704,00
1249,81	2710,00
1255,50	2829,00
1261,17	2783,00
1266,85	2873,00
1272,51	3004,00
1278,17	3087,00
1283,83	3439,00
1289,47	4737,00
1295,12	6209,00
1300,75	5627,00
1306,38	4526,00
1312,01	3739,00
1317,63	3252,00
1323,24	3054,00
1328,85	2977,00
1334,45	2738,00
1340,04	2845,00
1345,63	2823,00
1351,22	2988,00
1356,80	2775,00
1362,37	2973,00
1367,93	2936,00
1373,49	3081,00
1379,05	2853,00
1384,60	2767,00
1390,14	2731,00
1395,68	2870,00
1401,21	2871,00
1406,74	3071,00
1412,26	3610,00
1417,77	4290,00
1423,28	4123,00
1428,78	4405,00
1434,28	5428,00
1439,77	6332,00
1445,26	6079,00
1450,74	5787,00
1456,22	5275,00
1461,68	5059,00
1467,15	4842,00
1472,61	4071,00
1478,06	3785,00
1483,51	3261,00
1488,95	2873,00
1494,38	2977,00
1499,81	2727,00
1505,24	2657,00
1510,65	2560,00
1516,07	2585,00
1521,48	2571,00
1526,88	2456,00
1532,27	2529,00
1537,67	2448,00
1543,05	2488,00
1548,43	2412,00
1553,81	2436,00
1559,18	2225,00
1564,54	2339,00
1569,90	2387,00
1575,25	2196,00
1580,60	2147,00
1585,94	2352,00
1591,28	2268,00
1596,61	2229,00
1601,93	2271,00
1607,25	2363,00
1612,57	2210,00
1617,88	2278,00
1623,18	2359,00
1628,48	2183,00
1633,77	2254,00
1639,06	2238,00
1644,34	2192,00
1649,62	2105,00
1654,89	2157,00
1660,16	2151,00
1665,42	2180,00
1670,67	2009,00
1675,92	1882,00
1681,17	2054,00
1686,41	2127,00
1691,64	2166,00
1696,87	2104,00
1702,10	2048,00
1707,32	2090,00
1712,53	2082,00
1717,74	2039,00
1722,94	2075,00
1728,14	2007,00
1733,33	1948,00
1738,52	1891,00
1743,70	1974,00
1748,88	1876,00
1754,05	1953,00
1759,22	1836,00
1764,38	2159,00
1769,53	1987,00
1774,69	1950,00
1779,83	1820,00
1784,97	1866,00
1790,11	1858,00
1795,24	1829,00
1800,36	1991,00
1805,48	1826,00
1810,60	1940,00
1815,71	1816,00
1820,82	1743,00
1825,92	1947,00
1831,01	1853,00
1836,10	1741,00
1841,19	1953,00
1846,26	1665,00
1851,34	1889,00
1856,41	1876,00
1861,47	1707,00
1866,53	1890,00
1871,59	1721,00
1876,64	1703,00
1881,68	1795,00
1886,72	1697,00
1891,76	1736,00
1896,79	1730,00
1901,81	1667,00
1906,83	1723,00
1911,85	1630,00
1916,86	1733,00
1921,86	1639,00
1926,86	1664,00
1931,86	1718,00
1936,85	1694,00
1941,83	1566,00
1946,81	1570,00
1951,79	1600,00
1956,76	1610,00
1961,72	1385,00
1966,68	1672,00
1971,64	1522,00
1976,59	1593,00
1981,54	1557,00
1986,48	1730,00
1991,42	1456,00
1996,35	1785,00
2001,27	1473,00
2006,20	1514,00
2011,11	1620,00
2016,03	1548,00
2020,93	1421,00
2025,84	1571,00
2030,73	1538,00
2035,63	1347,00
2040,52	1520,00
2045,40	1490,00
2050,28	1576,00
2055,15	1562,00
2060,02	1426,00
2064,89	1538,00
2069,75	1551,00
2074,60	1532,00
2079,46	1385,00
2084,30	1356,00
2089,14	1339,00
2093,98	1485,00
2098,81	1438,00
2103,64	1472,00
2108,46	1481,00
2113,28	1485,00
2118,09	1504,00
2122,90	1473,00
2127,70	1453,00
2132,50	1529,00
2137,30	1438,00
2142,09	1326,00
2146,87	1330,00
2151,66	1417,00
2156,43	1459,00
2161,20	1394,00
2165,97	1525,00
2170,73	1450,00
2175,49	1606,00
2180,24	1535,00
2184,99	1594,00
2189,74	1684,00
2194,48	1492,00
2199,21	1525,00
2203,94	1469,00
2208,67	1356,00
2213,39	1271,00
2218,11	1420,00
2222,82	1295,00
2227,53	1407,00
2232,23	1480,00
2236,93	1445,00
2241,63	1401,00
2246,32	1454,00
2251,00	1383,00
2255,68	1397,00
2260,36	1379,00
2265,03	1471,00
2269,70	1574,00
2274,36	1363,00
2279,02	1451,00
2283,68	1392,00
2288,33	1360,00
2292,97	1373,00
2297,61	1441,00
2302,25	1339,00
2306,88	1296,00
2311,51	1286,00
2316,14	1299,00
2320,75	1304,00
2325,37	1226,00
2329,98	1368,00
2334,59	1246,00
2339,19	1280,00
2343,79	1228,00
2348,38	1283,00
2352,97	1266,00
2357,55	1354,00
2362,13	1248,00
2366,71	1210,00
2371,28	1383,00
2375,85	1289,00
2380,41	1267,00
2384,97	1300,00
2389,52	1251,00
2394,07	1315,00
2398,62	1249,00
2403,16	1315,00
2407,70	1084,00
2412,23	1208,00
2416,76	1351,00
2421,29	1415,00
2425,81	1280,00
2430,32	1303,00
2434,84	1203,00
2439,34	1172,00
2443,85	1373,00
2448,35	1215,00
2452,84	1249,00
2457,33	1226,00
2461,82	1136,00
2466,30	1077,00
2470,78	1338,00
2475,25	1228,00
2479,72	1237,00
2484,19	1271,00
2488,65	1284,00
2493,11	1108,00
2497,56	1326,00
2502,01	1161,00
2506,46	1266,00
2510,90	1203,00
2515,34	1190,00
2519,77	1267,00
2524,20	1243,00
2528,62	1240,00
2533,04	1244,00
2537,46	1194,00
2541,87	1190,00
2546,28	1233,00
2550,68	1288,00
2555,08	1293,00
2559,48	1216,00
2563,87	1133,00
2568,26	1105,00
2572,64	1240,00
2577,02	1225,00
2581,40	1095,00
2585,77	1251,00
2590,14	1234,00
2594,50	1199,00
2598,86	1317,00
2603,22	1198,00
2607,57	1197,00
2611,92	1284,00
2616,26	1360,00
2620,60	1287,00
2624,94	1180,00
2629,27	1317,00
2633,60	1222,00
2637,92	1335,00
2642,24	1378,00
2646,56	1218,00
2650,87	1140,00
2655,18	1419,00
2659,48	1155,00
2663,78	1256,00
2668,08	1270,00
2672,37	1308,00
2676,66	1295,00
2680,95	1238,00
2685,23	1374,00
2689,50	1235,00
2693,78	1215,00
2698,05	1337,00
2702,31	1367,00
2706,57	1475,00
2710,83	1586,00
2715,08	1589,00
2719,33	1558,00
2723,58	1526,00
2727,82	1537,00
2732,06	1530,00
2736,29	1541,00
2740,53	1476,00
2744,75	1395,00
2748,97	1421,00
2753,19	1440,00
2757,41	1457,00
2761,62	1390,00
2765,83	1407,00
2770,03	1248,00
2774,23	1417,00
2778,43	1357,00
2782,62	1398,00
2786,81	1431,00
2791,00	1482,00
2795,18	1503,00
2799,35	1666,00
2803,53	1616,00
2807,70	1624,00
2811,86	1643,00
2816,03	1780,00
2820,19	1776,00
2824,34	1898,00
2828,49	1948,00
2832,64	2367,00
2836,78	2641,00
2840,92	3133,00
2845,06	3692,00
2849,19	4158,00
2853,32	4229,00
2857,45	4252,00
2861,57	4152,00
2865,69	4094,00
2869,80	3873,00
2873,91	4105,00
2878,02	4574,00
2882,12	4865,00
2886,22	4891,00
2890,32	4591,00
2894,41	4290,00
2898,50	3965,00
2902,58	3714,00
2906,67	3476,00
2910,74	3304,00
2914,82	2931,00
2918,89	3012,00
2922,96	2629,00
2927,02	2467,00
2931,08	2384,00
2935,13	2233,00
2939,19	2240,00
2943,24	2043,00
2947,28	2091,00
2951,32	1759,00
2955,36	1649,00
2959,40	1671,00
2963,43	1605,00
2967,46	1504,00
2971,48	1459,00
2975,50	1341,00
2979,52	1429,00
2983,53	1355,00
2987,54	1376,00
2991,55	1329,00
2995,55	1272,00
2999,55	1259,00
3003,54	1133,00
3007,54	1218,00
3011,53	1212,00
3015,51	1160,00
3019,49	1229,00
3023,47	1022,00
3027,45	1214,00
3031,42	1093,00
3035,39	1059,00
3039,35	1164,00
3043,31	1099,00
3047,27	1080,00
3051,22	1129,00
3055,17	1038,00
3059,12	938,00
3063,06	1073,00
3067,00	981,00
3070,94	975,00
3074,87	1097,00
3078,80	1045,00
3082,73	1039,00
3086,65	967,00
3090,57	1027,00
3094,49	947,00
3098,40	991,00
3102,31	930,00
3106,22	1036,00
3110,12	1007,00
3114,02	898,00
3117,92	1068,00
3121,81	1049,00
3125,70	954,00
3129,58	942,00
3133,47	897,00
3137,34	1017,00
3141,22	1028,00
3145,09	944,00
3148,96	1046,00
3152,83	1027,00
3156,69	1036,00
3160,55	983,00
3164,40	1121,00
3168,26	1017,00
3172,10	1110,00
3175,95	1024,00
3179,79	1028,00
3183,63	990,00
3187,47	920,00
3191,30	979,00
3195,13	944,00
3198,95	880,00
3202,78	1003,00
3206,60	899,00
3210,41	930,00
3214,23	966,00
3218,03	933,00
3221,84	962,00
3225,64	957,00
3229,44	853,00
3233,24	969,00
3237,03	874,00
3240,82	901,00
3244,61	884,00
3248,39	894,00
3252,17	960,00
3255,95	1051,00
3259,72	963,00
3263,49	1176,00
3267,26	813,00
3271,03	881,00
3274,79	905,00
3278,54	941,00
3282,30	897,00
3286,05	953,00
3289,80	955,00
3293,54	943,00
3297,29	1043,00
3301,02	934,00
3304,76	990,00
3308,49	901,00
3312,22	871,00
3315,95	891,00
3319,67	852,00
3323,39	1016,00
3327,10	985,00
3330,82	932,00
3334,53	958,00
3338,24	914,00
3341,94	933,00
3345,64	918,00
3349,34	923,00
3353,03	996,00
3356,72	927,00
3360,41	963,00
3364,10	830,00
3367,78	862,00
3371,46	936,00
3375,13	863,00
3378,81	996,00
3382,48	886,00
3386,14	957,00
3389,81	985,00
3393,47	913,00
3397,12	1011,00
3400,78	1003,00
3404,43	940,00
3408,08	952,00
3411,72	887,00
3415,36	898,00
3419,00	963,00
3422,64	932,00
3426,27	986,00
3429,90	933,00
3433,53	877,00
3437,15	895,00
3440,77	787,00
3444,39	776,00
3448,00	820,00
3451,62	895,00
3455,22	893,00
3458,83	757,00
3462,43	834,00
3466,03	943,00
3469,63	850,00
3473,22	841,00
3476,81	780,00
3480,40	969,00
3483,99	791,00
3487,57	933,00
3491,15	886,00
3494,72	893,00
3498,29	983,00
3501,86	847,00
3505,43	907,00
3508,99	799,00
3512,56	784,00
3516,11	916,00
3519,67	906,00
3523,22	879,00
3526,77	863,00
3530,32	1101,00
3533,86	967,00
3537,40	1025,00
3540,94	1002,00
3544,47	888,00
3548,00	788,00
3551,53	893,00
3555,06	798,00
3558,58	912,00
3562,10	942,00
3565,62	799,00
3569,13	879,00
3572,64	940,00
3576,15	804,00
3579,66	789,00
3583,16	857,00
3586,66	815,00
3590,16	839,00
3593,65	870,00
3597,14	823,00
3600,63	867,00
3604,11	807,00
3607,60	851,00
3611,08	864,00
3614,55	808,00
3618,03	914,00
3621,50	805,00
3624,97	713,00
3628,43	841,00
3631,90	819,00
3635,36	777,00
3638,81	762,00
3642,27	815,00
3645,72	876,00
3649,17	805,00
3652,61	850,00
3656,06	786,00
3659,50	839,00
3662,93	799,00
3666,37	830,00
3669,80	1060,00
3673,23	897,00
3676,65	869,00
3680,08	943,00
3683,50	706,00
3686,92	882,00
3690,33	820,00
3693,74	796,00
3697,15	742,00
3700,56	910,00
3703,96	846,00
3707,36	687,00
3710,76	730,00
3714,16	812,00
3717,55	791,00
3720,94	762,00
3724,33	802,00
3727,71	775,00
3731,10	789,00
3734,48	863,00
3737,85	733,00
3741,23	744,00
3744,60	779,00
3747,97	665,00
3751,33	848,00
3754,69	752,00
3758,05	709,00
3761,41	727,00
3764,77	707,00
3768,12	787,00
3771,47	626,00
3774,82	659,00
3778,16	-7,00
3781,50	15,00
3784,84	5,00
3788,18	11,00
>>>>>End Processed Spectral Data<<<<<
