SpectraSuite Data File
++++++++++++++++++++++++++++++++++++
Date: Mon Jan 05 16:34:22 ICT 2026
User: Administrator
Dark Spectrum Present: Yes
Reference Spectrum Present: No
Number of Sampled Component Spectra: 1
Spectrometers: MAYP113682
Integration Time (usec): 3000000 (MAYP113682)
Spectra Averaged: 1 (MAYP113682)
Boxcar Smoothing: 0 (MAYP113682)
Correct for Electrical Dark: No (MAYP113682)
Strobe/Lamp Enabled: No (MAYP113682)
Correct for Detector Non-linearity: No (MAYP113682)
Correct for Stray Light: No (MAYP113682)
Number of Pixels in Processed Spectrum: 2068
>>>>>Begin Processed Spectral Data<<<<<
-37534,58	28,00
-37414,56	10,00
-37295,11	12,00
-37176,24	7,00
-37057,95	651,00
-36940,22	715,00
-36823,05	778,00
-36706,45	735,00
-36590,40	840,00
-36474,90	811,00
-36359,95	828,00
-36245,55	808,00
-36131,68	856,00
-36018,35	823,00
-35905,55	814,00
-35793,29	880,00
-35681,54	782,00
-35570,32	771,00
-35459,62	825,00
-35349,43	905,00
-35239,75	905,00
-35130,58	873,00
-35021,91	888,00
-34913,74	826,00
-34806,07	901,00
-34698,89	909,00
-34592,20	797,00
-34486,00	913,00
-34380,28	917,00
-34275,04	830,00
-34170,27	824,00
-34065,98	1021,00
-33962,16	910,00
-33858,81	966,00
-33755,92	885,00
-33653,49	1038,00
-33551,52	1058,00
-33450,01	889,00
-33348,94	851,00
-33248,33	839,00
-33148,16	926,00
-33048,43	906,00
-32949,14	1115,00
-32850,29	973,00
-32751,87	886,00
-32653,89	1024,00
-32556,33	1059,00
-32459,20	967,00
-32362,49	998,00
-32266,19	926,00
-32170,32	803,00
-32074,86	958,00
-31979,82	891,00
-31885,18	1101,00
-31790,95	975,00
-31697,12	891,00
-31603,69	1062,00
-31510,67	964,00
-31418,04	934,00
-31325,80	962,00
-31233,95	885,00
-31142,49	978,00
-31051,42	868,00
-30960,73	1074,00
-30870,43	978,00
-30780,50	888,00
-30690,95	934,00
-30601,77	1084,00
-30512,97	917,00
-30424,53	1007,00
-30336,46	949,00
-30248,76	1001,00
-30161,42	982,00
-30074,44	909,00
-29987,81	1036,00
-29901,55	1004,00
-29815,63	877,00
-29730,07	1021,00
-29644,86	1026,00
-29560,00	988,00
-29475,48	941,00
-29391,30	984,00
-29307,47	927,00
-29223,97	916,00
-29140,81	1017,00
-29057,99	998,00
-28975,50	879,00
-28893,34	1113,00
-28811,51	915,00
-28730,00	1022,00
-28648,82	970,00
-28567,97	942,00
-28487,43	914,00
-28407,21	947,00
-28327,32	900,00
-28247,73	1158,00
-28168,46	871,00
-28089,50	1025,00
-28010,85	896,00
-27932,51	886,00
-27854,48	929,00
-27776,75	925,00
-27699,32	913,00
-27622,19	921,00
-27545,37	929,00
-27468,84	970,00
-27392,60	1005,00
-27316,66	926,00
-27241,01	873,00
-27165,66	878,00
-27090,59	931,00
-27015,81	1035,00
-26941,31	984,00
-26867,10	863,00
-26793,17	1061,00
-26719,52	999,00
-26646,15	915,00
-26573,06	917,00
-26500,24	909,00
-26427,70	915,00
-26355,43	895,00
-26283,43	907,00
-26211,71	936,00
-26140,25	912,00
-26069,06	991,00
-25998,13	851,00
-25927,46	946,00
-25857,06	870,00
-25786,92	1018,00
-25717,04	891,00
-25647,42	997,00
-25578,05	852,00
-25508,94	934,00
-25440,09	967,00
-25371,48	979,00
-25303,13	1024,00
-25235,02	869,00
-25167,17	932,00
-25099,56	1007,00
-25032,19	905,00
-24965,07	857,00
-24898,20	851,00
-24831,56	899,00
-24765,17	956,00
-24699,01	834,00
-24633,10	1034,00
-24567,41	1019,00
-24501,97	874,00
-24436,75	936,00
-24371,77	952,00
-24307,03	910,00
-24242,51	872,00
-24178,22	845,00
-24114,16	923,00
-24050,32	1008,00
-23986,71	903,00
-23923,32	914,00
-23860,16	911,00
-23797,22	859,00
-23734,50	935,00
-23672,00	880,00
-23609,71	903,00
-23547,65	774,00
-23485,80	1000,00
-23424,16	766,00
-23362,74	1001,00
-23301,53	851,00
-23240,54	837,00
-23179,75	848,00
-23119,17	848,00
-23058,80	850,00
-22998,64	996,00
-22938,68	960,00
-22878,93	934,00
-22819,39	822,00
-22760,04	891,00
-22700,90	967,00
-22641,96	923,00
-22583,22	887,00
-22524,68	898,00
-22466,33	855,00
-22408,19	940,00
-22350,23	909,00
-22292,48	869,00
-22234,92	904,00
-22177,55	1031,00
-22120,37	1064,00
-22063,38	868,00
-22006,58	843,00
-21949,98	984,00
-21893,56	749,00
-21837,33	936,00
-21781,28	895,00
-21725,42	902,00
-21669,74	1049,00
-21614,25	915,00
-21558,94	1018,00
-21503,81	943,00
-21448,86	1006,00
-21394,10	837,00
-21339,51	844,00
-21285,10	836,00
-21230,86	897,00
-21176,81	855,00
-21122,93	905,00
-21069,22	853,00
-21015,69	828,00
-20962,33	1012,00
-20909,14	845,00
-20856,13	882,00
-20803,28	950,00
-20750,61	934,00
-20698,10	712,00
-20645,76	869,00
-20593,59	1042,00
-20541,59	976,00
-20489,75	913,00
-20438,07	720,00
-20386,56	961,00
-20335,22	870,00
-20284,03	896,00
-20233,01	852,00
-20182,15	908,00
-20131,45	930,00
-20080,91	829,00
-20030,52	944,00
-19980,30	888,00
-19930,23	802,00
-19880,32	899,00
-19830,56	960,00
-19780,96	937,00
-19731,52	869,00
-19682,23	906,00
-19633,09	841,00
-19584,10	785,00
-19535,26	837,00
-19486,58	1044,00
-19438,04	928,00
-19389,66	991,00
-19341,42	830,00
-19293,33	831,00
-19245,39	857,00
-19197,60	1050,00
-19149,95	964,00
-19102,45	923,00
-19055,09	796,00
-19007,87	896,00
-18960,80	945,00
-18913,87	937,00
-18867,09	863,00
-18820,44	1088,00
-18773,94	893,00
-18727,57	925,00
-18681,35	864,00
-18635,26	975,00
-18589,31	832,00
-18543,50	894,00
-18497,83	855,00
-18452,29	885,00
-18406,89	799,00
-18361,63	1032,00
-18316,50	990,00
-18271,50	889,00
-18226,63	987,00
-18181,90	851,00
-18137,30	973,00
-18092,84	873,00
-18048,50	944,00
-18004,29	947,00
-17960,22	888,00
-17916,27	860,00
-17872,45	950,00
-17828,76	1024,00
-17785,20	902,00
-17741,77	950,00
-17698,46	993,00
-17655,28	818,00
-17612,22	949,00
-17569,29	933,00
-17526,48	974,00
-17483,79	955,00
-17441,23	842,00
-17398,79	876,00
-17356,48	867,00
-17314,28	998,00
-17272,21	843,00
-17230,26	988,00
-17188,42	839,00
-17146,71	853,00
-17105,12	900,00
-17063,64	966,00
-17022,28	870,00
-16981,04	814,00
-16939,92	940,00
-16898,91	1011,00
-16858,02	842,00
-16817,25	1000,00
-16776,59	832,00
-16736,04	883,00
-16695,61	919,00
-16655,29	855,00
-16615,09	893,00
-16574,99	926,00
-16535,01	864,00
-16495,15	875,00
-16455,39	925,00
-16415,74	882,00
-16376,21	861,00
-16336,78	819,00
-16297,46	872,00
-16258,26	890,00
-16219,16	880,00
-16180,17	885,00
-16141,28	985,00
-16102,51	993,00
-16063,84	860,00
-16025,27	919,00
-15986,82	883,00
-15948,46	879,00
-15910,22	942,00
-15872,07	869,00
-15834,04	880,00
-15796,10	884,00
-15758,27	1091,00
-15720,54	806,00
-15682,91	851,00
-15645,39	994,00
-15607,97	984,00
-15570,64	861,00
-15533,42	988,00
-15496,30	917,00
-15459,28	948,00
-15422,36	823,00
-15385,54	899,00
-15348,82	924,00
-15312,19	1012,00
-15275,66	830,00
-15239,23	884,00
-15202,90	831,00
-15166,67	917,00
-15130,53	1026,00
-15094,48	908,00
-15058,54	860,00
-15022,68	913,00
-14986,93	894,00
-14951,26	912,00
-14915,69	991,00
-14880,22	922,00
-14844,84	883,00
-14809,55	939,00
-14774,35	984,00
-14739,25	836,00
-14704,24	920,00
-14669,32	951,00
-14634,49	858,00
-14599,75	964,00
-14565,10	839,00
-14530,55	899,00
-14496,08	936,00
-14461,70	984,00
-14427,41	810,00
-14393,21	750,00
-14359,10	784,00
-14325,07	1007,00
-14291,14	921,00
-14257,29	972,00
-14223,52	936,00
-14189,85	1085,00
-14156,26	814,00
-14122,76	851,00
-14089,34	852,00
-14056,01	907,00
-14022,76	883,00
-13989,60	949,00
-13956,52	971,00
-13923,53	887,00
-13890,62	769,00
-13857,79	829,00
-13825,05	837,00
-13792,39	808,00
-13759,81	955,00
-13727,31	924,00
-13694,90	925,00
-13662,57	988,00
-13630,31	1013,00
-13598,14	907,00
-13566,05	775,00
-13534,05	848,00
-13502,12	928,00
-13470,27	913,00
-13438,50	1014,00
-13406,80	810,00
-13375,19	885,00
-13343,66	927,00
-13312,20	935,00
-13280,83	970,00
-13249,53	928,00
-13218,30	731,00
-13187,16	907,00
-13156,09	1071,00
-13125,10	948,00
-13094,18	944,00
-13063,34	954,00
-13032,58	829,00
-13001,89	936,00
-12971,28	912,00
-12940,74	836,00
-12910,27	982,00
-12879,88	957,00
-12849,57	948,00
-12819,33	944,00
-12789,16	909,00
-12759,06	928,00
-12729,04	900,00
-12699,09	2224,00
-12669,21	884,00
-12639,41	944,00
-12609,68	873,00
-12580,02	943,00
-12550,43	1065,00
-12520,91	791,00
-12491,46	952,00
-12462,08	878,00
-12432,77	931,00
-12403,54	866,00
-12374,37	858,00
-12345,27	1024,00
-12316,24	907,00
-12287,29	808,00
-12258,40	878,00
-12229,57	980,00
-12200,82	892,00
-12172,14	899,00
-12143,52	725,00
-12114,97	868,00
-12086,49	923,00
-12058,07	1006,00
-12029,73	844,00
-12001,44	913,00
-11973,23	882,00
-11945,08	922,00
-11917,00	988,00
-11888,98	782,00
-11861,03	1034,00
-11833,15	898,00
-11805,32	955,00
-11777,57	944,00
-11749,88	936,00
-11722,25	769,00
-11694,69	844,00
-11667,19	904,00
-11639,75	1008,00
-11612,38	834,00
-11585,07	925,00
-11557,83	924,00
-11530,65	965,00
-11503,53	756,00
-11476,47	923,00
-11449,48	869,00
-11422,54	991,00
-11395,67	910,00
-11368,86	970,00
-11342,11	853,00
-11315,43	872,00
-11288,80	823,00
-11262,23	1002,00
-11235,73	864,00
-11209,28	1090,00
-11182,90	850,00
-11156,57	842,00
-11130,31	1047,00
-11104,10	910,00
-11077,96	854,00
-11051,87	867,00
-11025,84	836,00
-10999,87	944,00
-10973,96	925,00
-10948,11	879,00
-10922,31	933,00
-10896,58	927,00
-10870,90	1013,00
-10845,28	985,00
-10819,71	825,00
-10794,20	934,00
-10768,75	980,00
-10743,36	1007,00
-10718,02	832,00
-10692,74	915,00
-10667,52	888,00
-10642,35	886,00
-10617,24	948,00
-10592,18	929,00
-10567,18	815,00
-10542,23	999,00
-10517,34	936,00
-10492,51	975,00
-10467,72	910,00
-10443,00	996,00
-10418,32	1008,00
-10393,70	1037,00
-10369,14	979,00
-10344,63	877,00
-10320,17	1007,00
-10295,77	929,00
-10271,42	932,00
-10247,12	939,00
-10222,88	1015,00
-10198,68	919,00
-10174,54	946,00
-10150,46	1098,00
-10126,42	1094,00
-10102,44	1036,00
-10078,51	992,00
-10054,63	1057,00
-10030,80	1075,00
-10007,03	1146,00
-9983,30	1049,00
-9959,63	1079,00
-9936,01	1153,00
-9912,44	1109,00
-9888,92	1115,00
-9865,44	1120,00
-9842,02	1128,00
-9818,65	1289,00
-9795,33	1132,00
-9772,06	1192,00
-9748,84	1065,00
-9725,67	1098,00
-9702,55	1208,00
-9679,47	1327,00
-9656,45	1450,00
-9633,47	1267,00
-9610,55	1370,00
-9587,67	1364,00
-9564,84	1619,00
-9542,06	1437,00
-9519,32	1613,00
-9496,64	1779,00
-9474,00	1703,00
-9451,41	1680,00
-9428,87	1738,00
-9406,37	1792,00
-9383,92	1451,00
-9361,52	1487,00
-9339,17	1800,00
-9316,86	1771,00
-9294,60	2009,00
-9272,38	2163,00
-9250,21	2516,00
-9228,09	2345,00
-9206,01	2413,00
-9183,98	2144,00
-9162,00	1966,00
-9140,06	2035,00
-9118,16	1936,00
-9096,31	1926,00
-9074,51	2182,00
-9052,75	2357,00
-9031,04	2302,00
-9009,37	1996,00
-8987,74	1844,00
-8966,16	1849,00
-8944,63	1502,00
-8923,14	1628,00
-8901,69	1551,00
-8880,29	1603,00
-8858,93	1855,00
-8837,61	2103,00
-8816,34	2106,00
-8795,11	2175,00
-8773,92	1979,00
-8752,78	1768,00
-8731,68	1704,00
-8710,62	1942,00
-8689,61	1636,00
-8668,63	1869,00
-8647,70	2066,00
-8626,82	1990,00
-8605,97	2049,00
-8585,17	1884,00
-8564,41	1802,00
-8543,69	1676,00
-8523,01	1549,00
-8502,37	1788,00
-8481,78	1677,00
-8461,23	1723,00
-8440,71	1947,00
-8420,24	1938,00
-8399,81	2143,00
-8379,42	1943,00
-8359,08	1858,00
-8338,77	1664,00
-8318,50	1577,00
-8298,27	1555,00
-8278,09	1746,00
-8257,94	1798,00
-8237,83	1932,00
-8217,76	1953,00
-8197,74	1927,00
-8177,75	2032,00
-8157,80	1781,00
-8137,89	1701,00
-8118,02	1598,00
-8098,19	1679,00
-8078,40	1728,00
-8058,65	1603,00
-8038,93	1761,00
-8019,26	1773,00
-7999,62	1712,00
-7980,02	1575,00
-7960,46	1594,00
-7940,94	1488,00
-7921,46	1443,00
-7902,01	1433,00
-7882,60	1644,00
-7863,23	1472,00
-7843,90	1562,00
-7824,61	1539,00
-7805,35	1825,00
-7786,13	1616,00
-7766,95	1668,00
-7747,80	1650,00
-7728,69	1639,00
-7709,62	1612,00
-7690,59	1582,00
-7671,59	1660,00
-7652,63	1602,00
-7633,70	1599,00
-7614,81	1735,00
-7595,96	1465,00
-7577,15	1513,00
-7558,37	1416,00
-7539,62	1569,00
-7520,91	1549,00
-7502,24	1625,00
-7483,60	1609,00
-7465,00	1513,00
-7446,44	1501,00
-7427,91	1224,00
-7409,41	1220,00
-7390,95	1299,00
-7372,53	1104,00
-7354,14	1269,00
-7335,78	1336,00
-7317,46	1393,00
-7299,18	1280,00
-7280,92	1371,00
-7262,71	1565,00
-7244,52	1572,00
-7226,38	1378,00
-7208,26	1451,00
-7190,18	1386,00
-7172,14	1388,00
-7154,12	1389,00
-7136,15	1383,00
-7118,20	1492,00
-7100,29	1629,00
-7082,41	1485,00
-7064,57	1435,00
-7046,76	1421,00
-7028,98	1240,00
-7011,24	1392,00
-6993,53	1046,00
-6975,85	1175,00
-6958,20	1120,00
-6940,59	1011,00
-6923,01	934,00
-6905,46	1135,00
-6887,94	1149,00
-6870,46	1635,00
-6853,01	1381,00
-6835,59	1361,00
-6818,21	1218,00
-6800,85	1300,00
-6783,53	1202,00
-6766,24	868,00
-6748,98	998,00
-6731,76	975,00
-6714,56	912,00
-6697,40	836,00
-6680,26	907,00
-6663,16	1040,00
-6646,09	1173,00
-6629,05	1256,00
-6612,05	1191,00
-6595,07	1059,00
-6578,13	1220,00
-6561,21	999,00
-6544,33	1091,00
-6527,47	878,00
-6510,65	865,00
-6493,86	773,00
-6477,10	861,00
-6460,36	991,00
-6443,66	810,00
-6426,99	865,00
-6410,35	930,00
-6393,74	1053,00
-6377,16	927,00
-6360,61	974,00
-6344,09	921,00
-6327,59	951,00
-6311,13	1085,00
-6294,70	1100,00
-6278,29	1104,00
-6261,92	1103,00
-6245,58	1200,00
-6229,26	1222,00
-6212,97	1189,00
-6196,72	1016,00
-6180,49	1096,00
-6164,29	834,00
-6148,12	1007,00
-6131,98	974,00
-6115,86	755,00
-6099,78	832,00
-6083,72	764,00
-6067,69	766,00
-6051,69	849,00
-6035,72	961,00
-6019,78	898,00
-6003,87	1071,00
-5987,98	987,00
-5972,12	1086,00
-5956,29	983,00
-5940,49	931,00
-5924,71	1091,00
-5908,96	916,00
-5893,24	891,00
-5877,55	891,00
-5861,89	920,00
-5846,25	739,00
-5830,64	921,00
-5815,05	768,00
-5799,50	878,00
-5783,97	976,00
-5768,47	966,00
-5752,99	1181,00
-5737,55	900,00
-5722,12	1027,00
-5706,73	1071,00
-5691,36	1087,00
-5676,02	874,00
-5660,71	925,00
-5645,42	860,00
-5630,16	966,00
-5614,92	941,00
-5599,71	907,00
-5584,53	986,00
-5569,37	903,00
-5554,24	1940,00
-5539,14	804,00
-5524,06	961,00
-5509,01	914,00
-5493,98	864,00
-5478,98	908,00
-5464,00	880,00
-5449,05	825,00
-5434,13	905,00
-5419,23	865,00
-5404,36	804,00
-5389,51	920,00
-5374,69	988,00
-5359,89	966,00
-5345,12	1066,00
-5330,37	1124,00
-5315,65	1008,00
-5300,95	1031,00
-5286,28	911,00
-5271,63	784,00
-5257,01	940,00
-5242,41	960,00
-5227,84	795,00
-5213,29	898,00
-5198,76	861,00
-5184,26	961,00
-5169,79	878,00
-5155,33	905,00
-5140,91	826,00
-5126,51	894,00
-5112,13	893,00
-5097,77	932,00
-5083,44	1037,00
-5069,13	815,00
-5054,85	990,00
-5040,59	989,00
-5026,36	980,00
-5012,15	952,00
-4997,96	956,00
-4983,80	914,00
-4969,66	919,00
-4955,54	849,00
-4941,44	1005,00
-4927,37	894,00
-4913,33	1093,00
-4899,30	1042,00
-4885,30	1064,00
-4871,33	900,00
-4857,37	869,00
-4843,44	856,00
-4829,53	982,00
-4815,65	964,00
-4801,79	749,00
-4787,95	1005,00
-4774,13	895,00
-4760,34	825,00
-4746,56	927,00
-4732,82	845,00
-4719,09	895,00
-4705,38	1074,00
-4691,70	1004,00
-4678,04	1167,00
-4664,41	1048,00
-4650,79	1166,00
-4637,20	903,00
-4623,63	873,00
-4610,08	1009,00
-4596,56	975,00
-4583,05	802,00
-4569,57	925,00
-4556,11	995,00
-4542,67	865,00
-4529,25	862,00
-4515,86	961,00
-4502,49	980,00
-4489,13	1064,00
-4475,80	1114,00
-4462,49	815,00
-4449,21	1071,00
-4435,94	871,00
-4422,70	834,00
-4409,47	883,00
-4396,27	1051,00
-4383,09	868,00
-4369,93	960,00
-4356,79	844,00
-4343,67	1023,00
-4330,58	896,00
-4317,50	1003,00
-4304,45	955,00
-4291,41	919,00
-4278,40	957,00
-4265,41	856,00
-4252,44	969,00
-4239,49	845,00
-4226,55	918,00
-4213,65	1045,00
-4200,76	1039,00
-4187,89	941,00
-4175,04	815,00
-4162,21	865,00
-4149,40	938,00
-4136,61	958,00
-4123,85	909,00
-4111,10	957,00
-4098,37	1005,00
-4085,66	976,00
-4072,98	963,00
-4060,31	860,00
-4047,66	992,00
-4035,04	1122,00
-4022,43	916,00
-4009,84	927,00
-3997,27	805,00
-3984,72	832,00
-3972,19	995,00
-3959,69	962,00
-3947,20	832,00
-3934,73	926,00
-3922,27	811,00
-3909,84	823,00
-3897,43	962,00
-3885,04	1002,00
-3872,67	925,00
-3860,31	944,00
-3847,98	1061,00
-3835,66	871,00
-3823,36	941,00
-3811,09	838,00
-3798,83	982,00
-3786,59	894,00
-3774,37	996,00
-3762,17	920,00
-3749,98	899,00
-3737,82	925,00
-3725,67	1095,00
-3713,55	890,00
-3701,44	1024,00
-3689,35	922,00
-3677,28	1034,00
-3665,22	854,00
-3653,19	809,00
-3641,17	957,00
-3629,18	892,00
-3617,20	967,00
-3605,24	976,00
-3593,30	959,00
-3581,37	988,00
-3569,47	983,00
-3557,58	995,00
-3545,71	1004,00
-3533,86	917,00
-3522,02	829,00
-3510,21	936,00
-3498,41	1034,00
-3486,63	936,00
-3474,87	940,00
-3463,12	839,00
-3451,40	906,00
-3439,69	898,00
-3428,00	952,00
-3416,33	1005,00
-3404,67	857,00
-3393,03	915,00
-3381,41	1085,00
-3369,81	987,00
-3358,22	869,00
-3346,66	1096,00
-3335,10	947,00
-3323,57	854,00
-3312,06	967,00
-3300,56	1008,00
-3289,08	842,00
-3277,61	881,00
-3266,16	997,00
-3254,73	849,00
-3243,32	916,00
-3231,92	876,00
-3220,55	1019,00
-3209,18	1125,00
-3197,84	862,00
-3186,51	871,00
-3175,20	890,00
-3163,90	814,00
-3152,63	961,00
-3141,36	849,00
-3130,12	986,00
-3118,89	1035,00
-3107,68	901,00
-3096,49	1027,00
-3085,31	848,00
-3074,15	943,00
-3063,00	1004,00
-3051,87	926,00
-3040,76	903,00
-3029,67	1104,00
-3018,59	1150,00
-3007,52	1053,00
-2996,48	1000,00
-2985,44	895,00
-2974,43	942,00
-2963,43	890,00
-2952,45	934,00
-2941,48	986,00
-2930,53	947,00
-2919,60	847,00
-2908,68	864,00
-2897,78	907,00
-2886,89	1017,00
-2876,02	878,00
-2865,17	851,00
-2854,33	954,00
-2843,50	930,00
-2832,70	968,00
-2821,90	863,00
-2811,13	1039,00
-2800,37	960,00
-2789,62	786,00
-2778,89	955,00
-2768,18	928,00
-2757,48	1018,00
-2746,80	968,00
-2736,13	886,00
-2725,48	1042,00
-2714,84	903,00
-2704,22	815,00
-2693,61	924,00
-2683,02	850,00
-2672,45	963,00
-2661,89	909,00
-2651,34	1019,00
-2640,81	958,00
-2630,30	1025,00
-2619,80	879,00
-2609,31	955,00
-2598,84	851,00
-2588,39	959,00
-2577,95	920,00
-2567,52	830,00
-2557,11	846,00
-2546,71	881,00
-2536,33	1000,00
-2525,97	1013,00
-2515,62	930,00
-2505,28	983,00
-2494,96	969,00
-2484,65	1038,00
-2474,36	1296,00
-2464,08	844,00
-2453,82	1063,00
-2443,57	893,00
-2433,33	895,00
-2423,11	909,00
-2412,91	951,00
-2402,72	887,00
-2392,54	843,00
-2382,38	910,00
-2372,23	946,00
-2362,09	2082,00
-2351,97	819,00
-2341,87	904,00
-2331,78	944,00
-2321,70	1014,00
-2311,64	894,00
-2301,59	930,00
-2291,55	880,00
-2281,53	962,00
-2271,53	724,00
-2261,53	1009,00
-2251,55	989,00
-2241,59	920,00
-2231,64	1028,00
-2221,70	950,00
-2211,78	915,00
-2201,87	918,00
-2191,97	933,00
-2182,09	900,00
-2172,22	1015,00
-2162,37	863,00
-2152,53	857,00
-2142,70	891,00
-2132,89	906,00
-2123,09	985,00
-2113,30	980,00
-2103,53	879,00
-2093,77	1111,00
-2084,02	820,00
-2074,29	1034,00
-2064,57	937,00
-2054,86	1024,00
-2045,17	1033,00
-2035,49	954,00
-2025,82	898,00
-2016,17	862,00
-2006,53	827,00
-1996,91	962,00
-1987,29	867,00
-1977,69	990,00
-1968,11	804,00
-1958,53	875,00
-1948,97	953,00
-1939,42	870,00
-1929,89	858,00
-1920,37	909,00
-1910,86	900,00
-1901,36	937,00
-1891,88	933,00
-1882,41	971,00
-1872,95	938,00
-1863,51	948,00
-1854,08	944,00
-1844,66	1029,00
-1835,26	1077,00
-1825,86	1090,00
-1816,48	866,00
-1807,11	949,00
-1797,76	868,00
-1788,42	1021,00
-1779,09	957,00
-1769,77	913,00
-1760,47	1160,00
-1751,17	922,00
-1741,89	900,00
-1732,63	872,00
-1723,37	1174,00
-1714,13	1069,00
-1704,90	927,00
-1695,68	1049,00
-1686,48	911,00
-1677,29	855,00
-1668,11	1215,00
-1658,94	845,00
-1649,78	928,00
-1640,64	932,00
-1631,51	864,00
-1622,39	998,00
-1613,28	956,00
-1604,19	1026,00
-1595,10	925,00
-1586,03	917,00
-1576,97	871,00
-1567,93	918,00
-1558,89	1050,00
-1549,87	997,00
-1540,86	825,00
-1531,86	941,00
-1522,87	946,00
-1513,90	1059,00
-1504,93	998,00
-1495,98	1016,00
-1487,04	1052,00
-1478,12	960,00
-1469,20	938,00
-1460,30	935,00
-1451,40	1124,00
-1442,52	1000,00
-1433,65	1098,00
-1424,80	922,00
-1415,95	936,00
-1407,12	1199,00
-1398,30	941,00
-1389,48	1047,00
-1380,69	883,00
-1371,90	820,00
-1363,12	918,00
-1354,36	1046,00
-1345,60	915,00
-1336,86	943,00
-1328,13	1108,00
-1319,41	935,00
-1310,70	930,00
-1302,01	896,00
-1293,32	864,00
-1284,65	978,00
-1275,99	1003,00
-1267,33	1021,00
-1258,69	980,00
-1250,06	1006,00
-1241,45	789,00
-1232,84	1165,00
-1224,25	945,00
-1215,66	987,00
-1207,09	1028,00
-1198,53	876,00
-1189,97	930,00
-1181,43	829,00
-1172,91	1059,00
-1164,39	1011,00
-1155,88	848,00
-1147,38	759,00
-1138,90	945,00
-1130,43	953,00
-1121,96	937,00
-1113,51	884,00
-1105,07	875,00
-1096,64	983,00
-1088,22	1028,00
-1079,81	1115,00
-1071,41	1054,00
-1063,02	962,00
-1054,65	1083,00
-1046,28	887,00
-1037,92	1033,00
-1029,58	915,00
-1021,24	940,00
-1012,92	1336,00
-1004,61	892,00
-996,30	1189,00
-988,01	879,00
-979,73	957,00
-971,46	993,00
-963,20	964,00
-954,95	815,00
-946,71	936,00
-938,48	980,00
-930,26	1008,00
-922,06	983,00
-913,86	951,00
-905,67	897,00
-897,49	938,00
-889,33	814,00
-881,17	1035,00
-873,02	1027,00
-864,89	858,00
-856,76	921,00
-848,65	994,00
-840,54	996,00
-832,45	1004,00
-824,36	770,00
-816,29	925,00
-808,22	987,00
-800,17	1009,00
-792,12	973,00
-784,09	991,00
-776,06	833,00
-768,05	932,00
-760,04	970,00
-752,05	904,00
-744,07	961,00
-736,09	1037,00
-728,13	799,00
-720,17	868,00
-712,23	869,00
-704,29	824,00
-696,37	926,00
-688,45	1010,00
-680,55	931,00
-672,65	880,00
-664,77	889,00
-656,89	870,00
-649,03	947,00
-641,17	917,00
-633,32	947,00
-625,49	988,00
-617,66	815,00
-609,84	995,00
-602,03	810,00
-594,23	995,00
-586,45	1032,00
-578,67	916,00
-570,90	939,00
-563,14	884,00
-555,39	987,00
-547,65	947,00
-539,91	904,00
-532,19	934,00
-524,48	1052,00
-516,78	878,00
-509,08	961,00
-501,40	904,00
-493,72	885,00
-486,06	858,00
-478,40	1055,00
-470,76	878,00
-463,12	886,00
-455,49	923,00
-447,87	904,00
-440,26	888,00
-432,66	845,00
-425,07	1014,00
-417,49	971,00
-409,92	853,00
-402,35	860,00
-394,80	841,00
-387,25	895,00
-379,72	953,00
-372,19	999,00
-364,67	1030,00
-357,17	909,00
-349,67	987,00
-342,18	1023,00
-334,69	992,00
-327,22	1005,00
-319,76	1005,00
-312,30	969,00
-304,86	964,00
-297,42	1030,00
-290,00	925,00
-282,58	895,00
-275,17	1027,00
-267,77	1124,00
-260,37	945,00
-252,99	1084,00
-245,62	1055,00
-238,25	992,00
-230,90	913,00
-223,55	1120,00
-216,21	1034,00
-208,88	1229,00
-201,56	1058,00
-194,25	1085,00
-186,94	1047,00
-179,65	1181,00
-172,36	1292,00
-165,08	1168,00
-157,81	1333,00
-150,55	1216,00
-143,30	1214,00
-136,06	1269,00
-128,82	1344,00
-121,60	1418,00
-114,38	1496,00
-107,17	1567,00
-99,97	1729,00
-92,78	1744,00
-85,60	1841,00
-78,42	2081,00
-71,25	2153,00
-64,10	2290,00
-56,95	2616,00
-49,81	2943,00
-42,67	3531,00
-35,55	4067,00
-28,43	5157,00
-21,33	8199,00
-14,23	24800,00
-7,14	57498,00
-0,05	57284,00
7,02	57012,00
14,09	57319,00
21,14	20974,00
28,19	9351,00
35,23	6275,00
42,27	5080,00
49,29	4205,00
56,31	3684,00
63,32	3322,00
70,32	2841,00
77,31	2587,00
84,29	2309,00
91,27	2197,00
98,23	2128,00
105,19	2056,00
112,14	2305,00
119,09	3131,00
126,02	4545,00
132,95	5204,00
139,87	5493,00
146,78	5667,00
153,68	5387,00
160,58	5235,00
167,46	5085,00
174,34	5212,00
181,21	5143,00
188,08	5109,00
194,93	5210,00
201,78	5067,00
208,62	5185,00
215,45	5207,00
222,27	5079,00
229,09	5213,00
235,90	4901,00
242,70	4996,00
249,49	4998,00
256,27	4866,00
263,05	4737,00
269,82	4697,00
276,58	4742,00
283,33	4648,00
290,08	4587,00
296,82	4532,00
303,55	4270,00
310,27	4355,00
316,98	4376,00
323,69	4283,00
330,39	4205,00
337,08	4358,00
343,76	4274,00
350,44	4316,00
357,11	4331,00
363,77	4235,00
370,42	4191,00
377,07	4241,00
383,71	4289,00
390,34	4209,00
396,96	4306,00
403,58	4338,00
410,19	4319,00
416,79	4506,00
423,38	4445,00
429,97	4512,00
436,55	4375,00
443,12	4552,00
449,68	4612,00
456,24	4476,00
462,79	4268,00
469,33	4117,00
475,86	3972,00
482,39	3819,00
488,91	3856,00
495,42	3780,00
501,93	3762,00
508,42	3724,00
514,91	3695,00
521,40	3652,00
527,87	3588,00
534,34	3509,00
540,80	3551,00
547,25	3636,00
553,70	3627,00
560,14	3713,00
566,57	3697,00
573,00	3568,00
579,41	3640,00
585,83	3725,00
592,23	3791,00
598,62	3838,00
605,01	3813,00
611,40	3999,00
617,77	4007,00
624,14	3807,00
630,50	3662,00
636,85	3629,00
643,20	3448,00
649,54	3226,00
655,87	3337,00
662,20	3394,00
668,52	3308,00
674,83	3289,00
681,13	3192,00
687,43	3351,00
693,72	3094,00
700,00	3116,00
706,28	3168,00
712,55	3128,00
718,81	3292,00
725,07	3081,00
731,32	3186,00
737,56	3189,00
743,79	3008,00
750,02	3157,00
756,24	3005,00
762,46	2974,00
768,67	3236,00
774,87	2934,00
781,06	2958,00
787,25	3095,00
793,43	3066,00
799,60	2973,00
805,77	3258,00
811,93	2983,00
818,08	3098,00
824,23	2998,00
830,37	3346,00
836,50	2964,00
842,63	3072,00
848,75	3054,00
854,87	3048,00
860,97	3081,00
867,07	3008,00
873,17	3082,00
879,25	3017,00
885,33	3043,00
891,41	3158,00
897,47	3089,00
903,53	2925,00
909,59	3086,00
915,63	2926,00
921,67	2942,00
927,71	2960,00
933,74	2970,00
939,76	2713,00
945,77	2761,00
951,78	2881,00
957,78	2736,00
963,78	2821,00
969,77	2811,00
975,75	2777,00
981,72	2698,00
987,69	4013,00
993,66	2955,00
999,61	2924,00
1005,56	2869,00
1011,51	2839,00
1017,44	2777,00
1023,37	2969,00
1029,30	2875,00
1035,22	3006,00
1041,13	2888,00
1047,03	3106,00
1052,93	3737,00
1058,83	4989,00
1064,71	5485,00
1070,59	4685,00
1076,47	3932,00
1082,33	3654,00
1088,20	3509,00
1094,05	3234,00
1099,90	3000,00
1105,74	3023,00
1111,58	3127,00
1117,41	3315,00
1123,23	4243,00
1129,05	5295,00
1134,86	4717,00
1140,67	3752,00
1146,47	3210,00
1152,26	2962,00
1158,05	2893,00
1163,83	2939,00
1169,60	3096,00
1175,37	2999,00
1181,13	2893,00
1186,89	2661,00
1192,64	2686,00
1198,38	2913,00
1204,12	2571,00
1209,85	2637,00
1215,58	2653,00
1221,30	2841,00
1227,02	2764,00
1232,72	2671,00
1238,43	2611,00
1244,12	2661,00
1249,81	2720,00
1255,50	2816,00
1261,17	2736,00
1266,85	2860,00
1272,51	2953,00
1278,17	3232,00
1283,83	3428,00
1289,47	4810,00
1295,12	6422,00
1300,75	5827,00
1306,38	4580,00
1312,01	3630,00
1317,63	3280,00
1323,24	3033,00
1328,85	2910,00
1334,45	2784,00
1340,04	2777,00
1345,63	2768,00
1351,22	2949,00
1356,80	2753,00
1362,37	2943,00
1367,93	3034,00
1373,49	2946,00
1379,05	2838,00
1384,60	2797,00
1390,14	2878,00
1395,68	2818,00
1401,21	2817,00
1406,74	3062,00
1412,26	3668,00
1417,77	4379,00
1423,28	4118,00
1428,78	4541,00
1434,28	5647,00
1439,77	6423,00
1445,26	6176,00
1450,74	5794,00
1456,22	5399,00
1461,68	5201,00
1467,15	4895,00
1472,61	4194,00
1478,06	3713,00
1483,51	3365,00
1488,95	2859,00
1494,38	2950,00
1499,81	2675,00
1505,24	2572,00
1510,65	2714,00
1516,07	2545,00
1521,48	2484,00
1526,88	2442,00
1532,27	2408,00
1537,67	2410,00
1543,05	2474,00
1548,43	2329,00
1553,81	2492,00
1559,18	2214,00
1564,54	2354,00
1569,90	2204,00
1575,25	2200,00
1580,60	2191,00
1585,94	2260,00
1591,28	2251,00
1596,61	2278,00
1601,93	2181,00
1607,25	2361,00
1612,57	2155,00
1617,88	2286,00
1623,18	2274,00
1628,48	2192,00
1633,77	2199,00
1639,06	2262,00
1644,34	2096,00
1649,62	2018,00
1654,89	2161,00
1660,16	1987,00
1665,42	2268,00
1670,67	2102,00
1675,92	1983,00
1681,17	2006,00
1686,41	2036,00
1691,64	2101,00
1696,87	2061,00
1702,10	1983,00
1707,32	2044,00
1712,53	1945,00
1717,74	2112,00
1722,94	2134,00
1728,14	1908,00
1733,33	1966,00
1738,52	1841,00
1743,70	1985,00
1748,88	2018,00
1754,05	1919,00
1759,22	1873,00
1764,38	1282,00
1769,53	1977,00
1774,69	1934,00
1779,83	1895,00
1784,97	1961,00
1790,11	1848,00
1795,24	1837,00
1800,36	1919,00
1805,48	1828,00
1810,60	1896,00
1815,71	1856,00
1820,82	1778,00
1825,92	1879,00
1831,01	1799,00
1836,10	1850,00
1841,19	1841,00
1846,26	1688,00
1851,34	1790,00
1856,41	1842,00
1861,47	1776,00
1866,53	1848,00
1871,59	1782,00
1876,64	1811,00
1881,68	1807,00
1886,72	1692,00
1891,76	1759,00
1896,79	1723,00
1901,81	1687,00
1906,83	1787,00
1911,85	1632,00
1916,86	1792,00
1921,86	1611,00
1926,86	1667,00
1931,86	1705,00
1936,85	1671,00
1941,83	1597,00
1946,81	1630,00
1951,79	1516,00
1956,76	1566,00
1961,72	1463,00
1966,68	1593,00
1971,64	1541,00
1976,59	1618,00
1981,54	1540,00
1986,48	1745,00
1991,42	1443,00
1996,35	1804,00
2001,27	1538,00
2006,20	1508,00
2011,11	1668,00
2016,03	1576,00
2020,93	1415,00
2025,84	1498,00
2030,73	1482,00
2035,63	1359,00
2040,52	1560,00
2045,40	1616,00
2050,28	1526,00
2055,15	1530,00
2060,02	1393,00
2064,89	1625,00
2069,75	1525,00
2074,60	1527,00
2079,46	1392,00
2084,30	1473,00
2089,14	1419,00
2093,98	1671,00
2098,81	1461,00
2103,64	1546,00
2108,46	1511,00
2113,28	1567,00
2118,09	1515,00
2122,90	1589,00
2127,70	1418,00
2132,50	1529,00
2137,30	1461,00
2142,09	1362,00
2146,87	1338,00
2151,66	1491,00
2156,43	1441,00
2161,20	1385,00
2165,97	1571,00
2170,73	1404,00
2175,49	1599,00
2180,24	1606,00
2184,99	1597,00
2189,74	1702,00
2194,48	1505,00
2199,21	1609,00
2203,94	1373,00
2208,67	1426,00
2213,39	1259,00
2218,11	1496,00
2222,82	1408,00
2227,53	1426,00
2232,23	1422,00
2236,93	1523,00
2241,63	1425,00
2246,32	1479,00
2251,00	1456,00
2255,68	1458,00
2260,36	1323,00
2265,03	1507,00
2269,70	1524,00
2274,36	1360,00
2279,02	1429,00
2283,68	1409,00
2288,33	1403,00
2292,97	1491,00
2297,61	1361,00
2302,25	1372,00
2306,88	1308,00
2311,51	1262,00
2316,14	1297,00
2320,75	1238,00
2325,37	1248,00
2329,98	1407,00
2334,59	1339,00
2339,19	1332,00
2343,79	1225,00
2348,38	1339,00
2352,97	1262,00
2357,55	1287,00
2362,13	1268,00
2366,71	1267,00
2371,28	1425,00
2375,85	1306,00
2380,41	1396,00
2384,97	1281,00
2389,52	1435,00
2394,07	1402,00
2398,62	1275,00
2403,16	1398,00
2407,70	1186,00
2412,23	1245,00
2416,76	1328,00
2421,29	1230,00
2425,81	1381,00
2430,32	1378,00
2434,84	1188,00
2439,34	1345,00
2443,85	1372,00
2448,35	1213,00
2452,84	1263,00
2457,33	1262,00
2461,82	1107,00
2466,30	1119,00
2470,78	1345,00
2475,25	1232,00
2479,72	1235,00
2484,19	1320,00
2488,65	1322,00
2493,11	1209,00
2497,56	1439,00
2502,01	1150,00
2506,46	1298,00
2510,90	1205,00
2515,34	1156,00
2519,77	1255,00
2524,20	1274,00
2528,62	1272,00
2533,04	1319,00
2537,46	1292,00
2541,87	1287,00
2546,28	1278,00
2550,68	1342,00
2555,08	1267,00
2559,48	1337,00
2563,87	1136,00
2568,26	1251,00
2572,64	1264,00
2577,02	1319,00
2581,40	1157,00
2585,77	1275,00
2590,14	1238,00
2594,50	1201,00
2598,86	1352,00
2603,22	1261,00
2607,57	1224,00
2611,92	1336,00
2616,26	1449,00
2620,60	1394,00
2624,94	1252,00
2629,27	1366,00
2633,60	1232,00
2637,92	1369,00
2642,24	1501,00
2646,56	1266,00
2650,87	1185,00
2655,18	1398,00
2659,48	1207,00
2663,78	1241,00
2668,08	1273,00
2672,37	1354,00
2676,66	1230,00
2680,95	1245,00
2685,23	1421,00
2689,50	1347,00
2693,78	1400,00
2698,05	1289,00
2702,31	1412,00
2706,57	1505,00
2710,83	1570,00
2715,08	1613,00
2719,33	1710,00
2723,58	1616,00
2727,82	1689,00
2732,06	1536,00
2736,29	1539,00
2740,53	1473,00
2744,75	1432,00
2748,97	1459,00
2753,19	1461,00
2757,41	1520,00
2761,62	1469,00
2765,83	1506,00
2770,03	1396,00
2774,23	1400,00
2778,43	1413,00
2782,62	1465,00
2786,81	1523,00
2791,00	1518,00
2795,18	1553,00
2799,35	1668,00
2803,53	1699,00
2807,70	1727,00
2811,86	1729,00
2816,03	1880,00
2820,19	1892,00
2824,34	2047,00
2828,49	2075,00
2832,64	2421,00
2836,78	2878,00
2840,92	3226,00
2845,06	3875,00
2849,19	4363,00
2853,32	4398,00
2857,45	4423,00
2861,57	4343,00
2865,69	4219,00
2869,80	4118,00
2873,91	4325,00
2878,02	4864,00
2882,12	5142,00
2886,22	5113,00
2890,32	4891,00
2894,41	4594,00
2898,50	4056,00
2902,58	3833,00
2906,67	3694,00
2910,74	3357,00
2914,82	3087,00
2918,89	3091,00
2922,96	2741,00
2927,02	2555,00
2931,08	2555,00
2935,13	2315,00
2939,19	2337,00
2943,24	2148,00
2947,28	2069,00
2951,32	1822,00
2955,36	1670,00
2959,40	1860,00
2963,43	1609,00
2967,46	1543,00
2971,48	1521,00
2975,50	1456,00
2979,52	1557,00
2983,53	1408,00
2987,54	1362,00
2991,55	1367,00
2995,55	1333,00
2999,55	1364,00
3003,54	1144,00
3007,54	1306,00
3011,53	1214,00
3015,51	1130,00
3019,49	1204,00
3023,47	1141,00
3027,45	1255,00
3031,42	1056,00
3035,39	1109,00
3039,35	1107,00
3043,31	1209,00
3047,27	1106,00
3051,22	1199,00
3055,17	1032,00
3059,12	1044,00
3063,06	1144,00
3067,00	981,00
3070,94	1040,00
3074,87	1136,00
3078,80	1125,00
3082,73	1044,00
3086,65	1085,00
3090,57	1063,00
3094,49	1002,00
3098,40	1001,00
3102,31	1000,00
3106,22	1041,00
3110,12	1059,00
3114,02	972,00
3117,92	1058,00
3121,81	1026,00
3125,70	1037,00
3129,58	918,00
3133,47	927,00
3137,34	1025,00
3141,22	1012,00
3145,09	1038,00
3148,96	1035,00
3152,83	1011,00
3156,69	1134,00
3160,55	954,00
3164,40	1093,00
3168,26	1026,00
3172,10	1066,00
3175,95	1022,00
3179,79	1098,00
3183,63	1061,00
3187,47	1006,00
3191,30	1019,00
3195,13	1009,00
3198,95	952,00
3202,78	981,00
3206,60	932,00
3210,41	966,00
3214,23	955,00
3218,03	1056,00
3221,84	976,00
3225,64	1004,00
3229,44	908,00
3233,24	982,00
3237,03	968,00
3240,82	918,00
3244,61	918,00
3248,39	980,00
3252,17	986,00
3255,95	1024,00
3259,72	959,00
3263,49	1155,00
3267,26	923,00
3271,03	961,00
3274,79	959,00
3278,54	992,00
3282,30	831,00
3286,05	932,00
3289,80	1014,00
3293,54	961,00
3297,29	1013,00
3301,02	911,00
3304,76	891,00
3308,49	1053,00
3312,22	909,00
3315,95	986,00
3319,67	868,00
3323,39	1086,00
3327,10	1100,00
3330,82	933,00
3334,53	982,00
3338,24	966,00
3341,94	875,00
3345,64	1050,00
3349,34	951,00
3353,03	1082,00
3356,72	949,00
3360,41	1025,00
3364,10	895,00
3367,78	917,00
3371,46	943,00
3375,13	885,00
3378,81	1048,00
3382,48	907,00
3386,14	1063,00
3389,81	1034,00
3393,47	975,00
3397,12	1046,00
3400,78	1025,00
3404,43	932,00
3408,08	985,00
3411,72	912,00
3415,36	961,00
3419,00	1001,00
3422,64	939,00
3426,27	978,00
3429,90	909,00
3433,53	906,00
3437,15	892,00
3440,77	820,00
3444,39	960,00
3448,00	903,00
3451,62	893,00
3455,22	986,00
3458,83	830,00
3462,43	919,00
3466,03	965,00
3469,63	899,00
3473,22	903,00
3476,81	838,00
3480,40	1030,00
3483,99	838,00
3487,57	963,00
3491,15	909,00
3494,72	965,00
3498,29	1034,00
3501,86	865,00
3505,43	984,00
3508,99	838,00
3512,56	788,00
3516,11	882,00
3519,67	921,00
3523,22	874,00
3526,77	839,00
3530,32	1077,00
3533,86	963,00
3537,40	1007,00
3540,94	963,00
3544,47	864,00
3548,00	794,00
3551,53	937,00
3555,06	860,00
3558,58	972,00
3562,10	986,00
3565,62	799,00
3569,13	877,00
3572,64	1033,00
3576,15	816,00
3579,66	930,00
3583,16	959,00
3586,66	876,00
3590,16	871,00
3593,65	767,00
3597,14	829,00
3600,63	785,00
3604,11	896,00
3607,60	877,00
3611,08	940,00
3614,55	881,00
3618,03	857,00
3621,50	841,00
3624,97	816,00
3628,43	873,00
3631,90	834,00
3635,36	789,00
3638,81	871,00
3642,27	836,00
3645,72	793,00
3649,17	849,00
3652,61	798,00
3656,06	846,00
3659,50	822,00
3662,93	903,00
3666,37	982,00
3669,80	1034,00
3673,23	869,00
3676,65	880,00
3680,08	915,00
3683,50	839,00
3686,92	817,00
3690,33	744,00
3693,74	846,00
3697,15	778,00
3700,56	935,00
3703,96	835,00
3707,36	701,00
3710,76	801,00
3714,16	819,00
3717,55	822,00
3720,94	765,00
3724,33	846,00
3727,71	875,00
3731,10	818,00
3734,48	800,00
3737,85	712,00
3741,23	851,00
3744,60	812,00
3747,97	744,00
3751,33	850,00
3754,69	771,00
3758,05	776,00
3761,41	696,00
3764,77	712,00
3768,12	721,00
3771,47	687,00
3774,82	780,00
3778,16	-7,00
3781,50	14,00
3784,84	4,00
3788,18	10,00
>>>>>End Processed Spectral Data<<<<<
