SpectraSuite Data File
++++++++++++++++++++++++++++++++++++
Date: Mon Jan 05 16:34:13 ICT 2026
User: Administrator
Dark Spectrum Present: Yes
Reference Spectrum Present: No
Number of Sampled Component Spectra: 1
Spectrometers: MAYP113682
Integration Time (usec): 3000000 (MAYP113682)
Spectra Averaged: 1 (MAYP113682)
Boxcar Smoothing: 0 (MAYP113682)
Correct for Electrical Dark: No (MAYP113682)
Strobe/Lamp Enabled: No (MAYP113682)
Correct for Detector Non-linearity: No (MAYP113682)
Correct for Stray Light: No (MAYP113682)
Number of Pixels in Processed Spectrum: 2068
>>>>>Begin Processed Spectral Data<<<<<
-37534,58	32,00
-37414,56	9,00
-37295,11	10,00
-37176,24	4,00
-37057,95	663,00
-36940,22	681,00
-36823,05	748,00
-36706,45	866,00
-36590,40	893,00
-36474,90	727,00
-36359,95	825,00
-36245,55	852,00
-36131,68	731,00
-36018,35	845,00
-35905,55	871,00
-35793,29	939,00
-35681,54	783,00
-35570,32	843,00
-35459,62	918,00
-35349,43	917,00
-35239,75	780,00
-35130,58	817,00
-35021,91	926,00
-34913,74	853,00
-34806,07	820,00
-34698,89	891,00
-34592,20	826,00
-34486,00	858,00
-34380,28	941,00
-34275,04	814,00
-34170,27	773,00
-34065,98	994,00
-33962,16	930,00
-33858,81	943,00
-33755,92	817,00
-33653,49	997,00
-33551,52	995,00
-33450,01	1023,00
-33348,94	858,00
-33248,33	857,00
-33148,16	802,00
-33048,43	859,00
-32949,14	1082,00
-32850,29	986,00
-32751,87	836,00
-32653,89	979,00
-32556,33	999,00
-32459,20	919,00
-32362,49	901,00
-32266,19	895,00
-32170,32	833,00
-32074,86	945,00
-31979,82	946,00
-31885,18	1009,00
-31790,95	984,00
-31697,12	1021,00
-31603,69	972,00
-31510,67	963,00
-31418,04	936,00
-31325,80	891,00
-31233,95	873,00
-31142,49	910,00
-31051,42	850,00
-30960,73	1040,00
-30870,43	1025,00
-30780,50	865,00
-30690,95	905,00
-30601,77	1132,00
-30512,97	877,00
-30424,53	984,00
-30336,46	953,00
-30248,76	976,00
-30161,42	1016,00
-30074,44	858,00
-29987,81	995,00
-29901,55	1035,00
-29815,63	934,00
-29730,07	945,00
-29644,86	938,00
-29560,00	952,00
-29475,48	968,00
-29391,30	913,00
-29307,47	970,00
-29223,97	917,00
-29140,81	997,00
-29057,99	1039,00
-28975,50	810,00
-28893,34	1139,00
-28811,51	871,00
-28730,00	968,00
-28648,82	911,00
-28567,97	1007,00
-28487,43	947,00
-28407,21	876,00
-28327,32	846,00
-28247,73	1097,00
-28168,46	854,00
-28089,50	1081,00
-28010,85	908,00
-27932,51	912,00
-27854,48	1017,00
-27776,75	894,00
-27699,32	932,00
-27622,19	922,00
-27545,37	999,00
-27468,84	943,00
-27392,60	970,00
-27316,66	936,00
-27241,01	954,00
-27165,66	805,00
-27090,59	796,00
-27015,81	1043,00
-26941,31	1022,00
-26867,10	948,00
-26793,17	1095,00
-26719,52	942,00
-26646,15	817,00
-26573,06	919,00
-26500,24	975,00
-26427,70	978,00
-26355,43	899,00
-26283,43	906,00
-26211,71	932,00
-26140,25	945,00
-26069,06	1037,00
-25998,13	849,00
-25927,46	853,00
-25857,06	849,00
-25786,92	887,00
-25717,04	854,00
-25647,42	1040,00
-25578,05	945,00
-25508,94	906,00
-25440,09	926,00
-25371,48	930,00
-25303,13	926,00
-25235,02	898,00
-25167,17	845,00
-25099,56	1063,00
-25032,19	955,00
-24965,07	818,00
-24898,20	813,00
-24831,56	871,00
-24765,17	944,00
-24699,01	900,00
-24633,10	1001,00
-24567,41	912,00
-24501,97	863,00
-24436,75	938,00
-24371,77	927,00
-24307,03	854,00
-24242,51	870,00
-24178,22	887,00
-24114,16	875,00
-24050,32	1016,00
-23986,71	944,00
-23923,32	914,00
-23860,16	876,00
-23797,22	907,00
-23734,50	925,00
-23672,00	867,00
-23609,71	879,00
-23547,65	806,00
-23485,80	884,00
-23424,16	791,00
-23362,74	1096,00
-23301,53	932,00
-23240,54	814,00
-23179,75	788,00
-23119,17	861,00
-23058,80	841,00
-22998,64	928,00
-22938,68	919,00
-22878,93	969,00
-22819,39	842,00
-22760,04	870,00
-22700,90	895,00
-22641,96	944,00
-22583,22	921,00
-22524,68	862,00
-22466,33	819,00
-22408,19	953,00
-22350,23	795,00
-22292,48	821,00
-22234,92	1001,00
-22177,55	1014,00
-22120,37	1156,00
-22063,38	909,00
-22006,58	858,00
-21949,98	916,00
-21893,56	772,00
-21837,33	925,00
-21781,28	993,00
-21725,42	908,00
-21669,74	1037,00
-21614,25	914,00
-21558,94	933,00
-21503,81	936,00
-21448,86	893,00
-21394,10	824,00
-21339,51	856,00
-21285,10	792,00
-21230,86	787,00
-21176,81	886,00
-21122,93	861,00
-21069,22	769,00
-21015,69	869,00
-20962,33	937,00
-20909,14	739,00
-20856,13	944,00
-20803,28	907,00
-20750,61	904,00
-20698,10	805,00
-20645,76	834,00
-20593,59	1019,00
-20541,59	1047,00
-20489,75	885,00
-20438,07	819,00
-20386,56	1005,00
-20335,22	778,00
-20284,03	862,00
-20233,01	923,00
-20182,15	867,00
-20131,45	888,00
-20080,91	815,00
-20030,52	941,00
-19980,30	849,00
-19930,23	768,00
-19880,32	926,00
-19830,56	983,00
-19780,96	944,00
-19731,52	917,00
-19682,23	928,00
-19633,09	823,00
-19584,10	788,00
-19535,26	877,00
-19486,58	998,00
-19438,04	839,00
-19389,66	936,00
-19341,42	821,00
-19293,33	908,00
-19245,39	966,00
-19197,60	994,00
-19149,95	949,00
-19102,45	884,00
-19055,09	754,00
-19007,87	977,00
-18960,80	989,00
-18913,87	925,00
-18867,09	844,00
-18820,44	980,00
-18773,94	899,00
-18727,57	924,00
-18681,35	771,00
-18635,26	933,00
-18589,31	873,00
-18543,50	870,00
-18497,83	851,00
-18452,29	904,00
-18406,89	772,00
-18361,63	955,00
-18316,50	1005,00
-18271,50	833,00
-18226,63	959,00
-18181,90	1001,00
-18137,30	981,00
-18092,84	891,00
-18048,50	980,00
-18004,29	832,00
-17960,22	875,00
-17916,27	861,00
-17872,45	886,00
-17828,76	1034,00
-17785,20	933,00
-17741,77	919,00
-17698,46	894,00
-17655,28	819,00
-17612,22	893,00
-17569,29	864,00
-17526,48	936,00
-17483,79	905,00
-17441,23	808,00
-17398,79	878,00
-17356,48	772,00
-17314,28	1132,00
-17272,21	917,00
-17230,26	949,00
-17188,42	932,00
-17146,71	971,00
-17105,12	858,00
-17063,64	925,00
-17022,28	899,00
-16981,04	857,00
-16939,92	944,00
-16898,91	995,00
-16858,02	790,00
-16817,25	986,00
-16776,59	808,00
-16736,04	831,00
-16695,61	835,00
-16655,29	866,00
-16615,09	861,00
-16574,99	891,00
-16535,01	903,00
-16495,15	923,00
-16455,39	893,00
-16415,74	850,00
-16376,21	879,00
-16336,78	853,00
-16297,46	868,00
-16258,26	877,00
-16219,16	896,00
-16180,17	880,00
-16141,28	919,00
-16102,51	905,00
-16063,84	873,00
-16025,27	947,00
-15986,82	797,00
-15948,46	969,00
-15910,22	915,00
-15872,07	888,00
-15834,04	973,00
-15796,10	889,00
-15758,27	1001,00
-15720,54	862,00
-15682,91	857,00
-15645,39	1055,00
-15607,97	988,00
-15570,64	768,00
-15533,42	1041,00
-15496,30	895,00
-15459,28	922,00
-15422,36	906,00
-15385,54	803,00
-15348,82	914,00
-15312,19	1066,00
-15275,66	794,00
-15239,23	927,00
-15202,90	809,00
-15166,67	843,00
-15130,53	990,00
-15094,48	858,00
-15058,54	800,00
-15022,68	941,00
-14986,93	838,00
-14951,26	803,00
-14915,69	970,00
-14880,22	858,00
-14844,84	830,00
-14809,55	925,00
-14774,35	862,00
-14739,25	877,00
-14704,24	915,00
-14669,32	761,00
-14634,49	790,00
-14599,75	920,00
-14565,10	848,00
-14530,55	879,00
-14496,08	877,00
-14461,70	986,00
-14427,41	835,00
-14393,21	761,00
-14359,10	855,00
-14325,07	851,00
-14291,14	865,00
-14257,29	850,00
-14223,52	913,00
-14189,85	945,00
-14156,26	837,00
-14122,76	857,00
-14089,34	909,00
-14056,01	975,00
-14022,76	862,00
-13989,60	833,00
-13956,52	954,00
-13923,53	868,00
-13890,62	795,00
-13857,79	847,00
-13825,05	847,00
-13792,39	790,00
-13759,81	926,00
-13727,31	831,00
-13694,90	916,00
-13662,57	978,00
-13630,31	907,00
-13598,14	942,00
-13566,05	870,00
-13534,05	868,00
-13502,12	958,00
-13470,27	851,00
-13438,50	974,00
-13406,80	877,00
-13375,19	891,00
-13343,66	981,00
-13312,20	848,00
-13280,83	823,00
-13249,53	915,00
-13218,30	787,00
-13187,16	852,00
-13156,09	1085,00
-13125,10	926,00
-13094,18	925,00
-13063,34	930,00
-13032,58	815,00
-13001,89	901,00
-12971,28	948,00
-12940,74	890,00
-12910,27	978,00
-12879,88	913,00
-12849,57	955,00
-12819,33	991,00
-12789,16	924,00
-12759,06	916,00
-12729,04	868,00
-12699,09	2049,00
-12669,21	728,00
-12639,41	967,00
-12609,68	819,00
-12580,02	800,00
-12550,43	1067,00
-12520,91	833,00
-12491,46	972,00
-12462,08	772,00
-12432,77	954,00
-12403,54	814,00
-12374,37	884,00
-12345,27	972,00
-12316,24	885,00
-12287,29	918,00
-12258,40	886,00
-12229,57	970,00
-12200,82	785,00
-12172,14	867,00
-12143,52	723,00
-12114,97	874,00
-12086,49	982,00
-12058,07	947,00
-12029,73	859,00
-12001,44	988,00
-11973,23	901,00
-11945,08	891,00
-11917,00	986,00
-11888,98	933,00
-11861,03	1023,00
-11833,15	845,00
-11805,32	933,00
-11777,57	847,00
-11749,88	939,00
-11722,25	879,00
-11694,69	894,00
-11667,19	916,00
-11639,75	989,00
-11612,38	850,00
-11585,07	926,00
-11557,83	940,00
-11530,65	1032,00
-11503,53	839,00
-11476,47	856,00
-11449,48	893,00
-11422,54	996,00
-11395,67	929,00
-11368,86	1001,00
-11342,11	905,00
-11315,43	928,00
-11288,80	806,00
-11262,23	888,00
-11235,73	871,00
-11209,28	1088,00
-11182,90	892,00
-11156,57	898,00
-11130,31	1070,00
-11104,10	937,00
-11077,96	854,00
-11051,87	906,00
-11025,84	862,00
-10999,87	964,00
-10973,96	872,00
-10948,11	895,00
-10922,31	975,00
-10896,58	1010,00
-10870,90	1056,00
-10845,28	919,00
-10819,71	798,00
-10794,20	985,00
-10768,75	968,00
-10743,36	975,00
-10718,02	862,00
-10692,74	869,00
-10667,52	860,00
-10642,35	855,00
-10617,24	1021,00
-10592,18	995,00
-10567,18	863,00
-10542,23	937,00
-10517,34	980,00
-10492,51	1042,00
-10467,72	847,00
-10443,00	938,00
-10418,32	1028,00
-10393,70	1025,00
-10369,14	979,00
-10344,63	902,00
-10320,17	993,00
-10295,77	1052,00
-10271,42	988,00
-10247,12	1031,00
-10222,88	1032,00
-10198,68	946,00
-10174,54	995,00
-10150,46	1131,00
-10126,42	1188,00
-10102,44	1046,00
-10078,51	1004,00
-10054,63	1075,00
-10030,80	1100,00
-10007,03	1203,00
-9983,30	1133,00
-9959,63	1195,00
-9936,01	1202,00
-9912,44	1271,00
-9888,92	1193,00
-9865,44	1099,00
-9842,02	1222,00
-9818,65	1297,00
-9795,33	1098,00
-9772,06	1388,00
-9748,84	1272,00
-9725,67	1322,00
-9702,55	1345,00
-9679,47	1617,00
-9656,45	1652,00
-9633,47	1505,00
-9610,55	1576,00
-9587,67	1631,00
-9564,84	1759,00
-9542,06	1718,00
-9519,32	1994,00
-9496,64	2025,00
-9474,00	2049,00
-9451,41	2135,00
-9428,87	2151,00
-9406,37	2159,00
-9383,92	1931,00
-9361,52	1945,00
-9339,17	2175,00
-9316,86	2257,00
-9294,60	2527,00
-9272,38	2663,00
-9250,21	3019,00
-9228,09	2992,00
-9206,01	2975,00
-9183,98	2777,00
-9162,00	2652,00
-9140,06	2639,00
-9118,16	2450,00
-9096,31	2519,00
-9074,51	2837,00
-9052,75	2875,00
-9031,04	2800,00
-9009,37	2396,00
-8987,74	2420,00
-8966,16	2195,00
-8944,63	1957,00
-8923,14	1968,00
-8901,69	2013,00
-8880,29	2105,00
-8858,93	2351,00
-8837,61	2546,00
-8816,34	2590,00
-8795,11	2643,00
-8773,92	2457,00
-8752,78	2233,00
-8731,68	2103,00
-8710,62	2293,00
-8689,61	2092,00
-8668,63	2326,00
-8647,70	2629,00
-8626,82	2432,00
-8605,97	2515,00
-8585,17	2415,00
-8564,41	2211,00
-8543,69	2039,00
-8523,01	1873,00
-8502,37	2138,00
-8481,78	2122,00
-8461,23	2227,00
-8440,71	2365,00
-8420,24	2375,00
-8399,81	2520,00
-8379,42	2463,00
-8359,08	2408,00
-8338,77	2193,00
-8318,50	1824,00
-8298,27	1927,00
-8278,09	2109,00
-8257,94	2132,00
-8237,83	2370,00
-8217,76	2336,00
-8197,74	2487,00
-8177,75	2343,00
-8157,80	2148,00
-8137,89	2079,00
-8118,02	1985,00
-8098,19	1996,00
-8078,40	1941,00
-8058,65	2030,00
-8038,93	2143,00
-8019,26	2086,00
-7999,62	2024,00
-7980,02	1880,00
-7960,46	1837,00
-7940,94	1774,00
-7921,46	1742,00
-7902,01	1702,00
-7882,60	1872,00
-7863,23	1820,00
-7843,90	1785,00
-7824,61	1861,00
-7805,35	2161,00
-7786,13	1943,00
-7766,95	2019,00
-7747,80	1978,00
-7728,69	1845,00
-7709,62	1831,00
-7690,59	1855,00
-7671,59	2080,00
-7652,63	1920,00
-7633,70	2025,00
-7614,81	2037,00
-7595,96	1784,00
-7577,15	1716,00
-7558,37	1695,00
-7539,62	1767,00
-7520,91	1812,00
-7502,24	1908,00
-7483,60	1910,00
-7465,00	1837,00
-7446,44	1798,00
-7427,91	1506,00
-7409,41	1536,00
-7390,95	1410,00
-7372,53	1372,00
-7354,14	1487,00
-7335,78	1455,00
-7317,46	1552,00
-7299,18	1420,00
-7280,92	1662,00
-7262,71	1911,00
-7244,52	1797,00
-7226,38	1761,00
-7208,26	1691,00
-7190,18	1609,00
-7172,14	1737,00
-7154,12	1651,00
-7136,15	1675,00
-7118,20	1771,00
-7100,29	1836,00
-7082,41	1825,00
-7064,57	1687,00
-7046,76	1646,00
-7028,98	1441,00
-7011,24	1504,00
-6993,53	1268,00
-6975,85	1292,00
-6958,20	1323,00
-6940,59	1196,00
-6923,01	1102,00
-6905,46	1404,00
-6887,94	1365,00
-6870,46	1790,00
-6853,01	1758,00
-6835,59	1599,00
-6818,21	1427,00
-6800,85	1551,00
-6783,53	1250,00
-6766,24	1070,00
-6748,98	1098,00
-6731,76	1011,00
-6714,56	1088,00
-6697,40	913,00
-6680,26	1019,00
-6663,16	1159,00
-6646,09	1207,00
-6629,05	1403,00
-6612,05	1423,00
-6595,07	1331,00
-6578,13	1447,00
-6561,21	1229,00
-6544,33	1175,00
-6527,47	968,00
-6510,65	1025,00
-6493,86	783,00
-6477,10	937,00
-6460,36	972,00
-6443,66	970,00
-6426,99	962,00
-6410,35	953,00
-6393,74	1133,00
-6377,16	1038,00
-6360,61	1165,00
-6344,09	1060,00
-6327,59	1081,00
-6311,13	1252,00
-6294,70	1223,00
-6278,29	1276,00
-6261,92	1252,00
-6245,58	1337,00
-6229,26	1384,00
-6212,97	1401,00
-6196,72	1088,00
-6180,49	1223,00
-6164,29	904,00
-6148,12	1079,00
-6131,98	995,00
-6115,86	778,00
-6099,78	888,00
-6083,72	848,00
-6067,69	782,00
-6051,69	911,00
-6035,72	960,00
-6019,78	1007,00
-6003,87	1140,00
-5987,98	1184,00
-5972,12	1152,00
-5956,29	1141,00
-5940,49	957,00
-5924,71	1245,00
-5908,96	949,00
-5893,24	943,00
-5877,55	949,00
-5861,89	1011,00
-5846,25	812,00
-5830,64	850,00
-5815,05	857,00
-5799,50	966,00
-5783,97	1003,00
-5768,47	1096,00
-5752,99	1327,00
-5737,55	1094,00
-5722,12	1153,00
-5706,73	1206,00
-5691,36	1145,00
-5676,02	974,00
-5660,71	955,00
-5645,42	880,00
-5630,16	978,00
-5614,92	1067,00
-5599,71	1016,00
-5584,53	1108,00
-5569,37	949,00
-5554,24	2025,00
-5539,14	1008,00
-5524,06	1054,00
-5509,01	980,00
-5493,98	951,00
-5478,98	974,00
-5464,00	973,00
-5449,05	859,00
-5434,13	961,00
-5419,23	948,00
-5404,36	893,00
-5389,51	1025,00
-5374,69	1110,00
-5359,89	1204,00
-5345,12	1246,00
-5330,37	1246,00
-5315,65	1115,00
-5300,95	1009,00
-5286,28	917,00
-5271,63	899,00
-5257,01	1050,00
-5242,41	971,00
-5227,84	854,00
-5213,29	932,00
-5198,76	975,00
-5184,26	951,00
-5169,79	938,00
-5155,33	972,00
-5140,91	921,00
-5126,51	1032,00
-5112,13	971,00
-5097,77	1077,00
-5083,44	1103,00
-5069,13	918,00
-5054,85	963,00
-5040,59	963,00
-5026,36	1066,00
-5012,15	1140,00
-4997,96	1057,00
-4983,80	1007,00
-4969,66	1002,00
-4955,54	892,00
-4941,44	1043,00
-4927,37	986,00
-4913,33	1140,00
-4899,30	1190,00
-4885,30	1209,00
-4871,33	985,00
-4857,37	888,00
-4843,44	868,00
-4829,53	966,00
-4815,65	1060,00
-4801,79	770,00
-4787,95	1064,00
-4774,13	961,00
-4760,34	904,00
-4746,56	977,00
-4732,82	833,00
-4719,09	1005,00
-4705,38	1171,00
-4691,70	1282,00
-4678,04	1171,00
-4664,41	1226,00
-4650,79	1223,00
-4637,20	903,00
-4623,63	854,00
-4610,08	1035,00
-4596,56	1015,00
-4583,05	1008,00
-4569,57	931,00
-4556,11	1013,00
-4542,67	890,00
-4529,25	928,00
-4515,86	1012,00
-4502,49	1070,00
-4489,13	1101,00
-4475,80	1196,00
-4462,49	926,00
-4449,21	1015,00
-4435,94	901,00
-4422,70	878,00
-4409,47	773,00
-4396,27	987,00
-4383,09	1038,00
-4369,93	999,00
-4356,79	894,00
-4343,67	914,00
-4330,58	974,00
-4317,50	1077,00
-4304,45	941,00
-4291,41	1014,00
-4278,40	923,00
-4265,41	838,00
-4252,44	990,00
-4239,49	881,00
-4226,55	1089,00
-4213,65	956,00
-4200,76	1052,00
-4187,89	971,00
-4175,04	820,00
-4162,21	837,00
-4149,40	958,00
-4136,61	886,00
-4123,85	923,00
-4111,10	922,00
-4098,37	1059,00
-4085,66	874,00
-4072,98	983,00
-4060,31	829,00
-4047,66	989,00
-4035,04	1114,00
-4022,43	858,00
-4009,84	867,00
-3997,27	752,00
-3984,72	914,00
-3972,19	925,00
-3959,69	811,00
-3947,20	949,00
-3934,73	911,00
-3922,27	839,00
-3909,84	795,00
-3897,43	916,00
-3885,04	963,00
-3872,67	906,00
-3860,31	842,00
-3847,98	1027,00
-3835,66	896,00
-3823,36	847,00
-3811,09	898,00
-3798,83	872,00
-3786,59	948,00
-3774,37	954,00
-3762,17	905,00
-3749,98	940,00
-3737,82	917,00
-3725,67	1105,00
-3713,55	874,00
-3701,44	993,00
-3689,35	881,00
-3677,28	995,00
-3665,22	883,00
-3653,19	967,00
-3641,17	860,00
-3629,18	948,00
-3617,20	976,00
-3605,24	934,00
-3593,30	987,00
-3581,37	998,00
-3569,47	1023,00
-3557,58	933,00
-3545,71	927,00
-3533,86	937,00
-3522,02	822,00
-3510,21	930,00
-3498,41	988,00
-3486,63	903,00
-3474,87	880,00
-3463,12	879,00
-3451,40	943,00
-3439,69	943,00
-3428,00	936,00
-3416,33	997,00
-3404,67	881,00
-3393,03	944,00
-3381,41	1051,00
-3369,81	945,00
-3358,22	954,00
-3346,66	1074,00
-3335,10	953,00
-3323,57	837,00
-3312,06	987,00
-3300,56	966,00
-3289,08	882,00
-3277,61	882,00
-3266,16	989,00
-3254,73	918,00
-3243,32	877,00
-3231,92	860,00
-3220,55	1014,00
-3209,18	1103,00
-3197,84	845,00
-3186,51	842,00
-3175,20	879,00
-3163,90	784,00
-3152,63	1000,00
-3141,36	791,00
-3130,12	983,00
-3118,89	1051,00
-3107,68	808,00
-3096,49	909,00
-3085,31	896,00
-3074,15	971,00
-3063,00	995,00
-3051,87	973,00
-3040,76	829,00
-3029,67	1042,00
-3018,59	1171,00
-3007,52	1095,00
-2996,48	955,00
-2985,44	924,00
-2974,43	939,00
-2963,43	871,00
-2952,45	938,00
-2941,48	1019,00
-2930,53	964,00
-2919,60	862,00
-2908,68	894,00
-2897,78	914,00
-2886,89	1035,00
-2876,02	967,00
-2865,17	848,00
-2854,33	945,00
-2843,50	827,00
-2832,70	924,00
-2821,90	885,00
-2811,13	1012,00
-2800,37	936,00
-2789,62	753,00
-2778,89	1004,00
-2768,18	951,00
-2757,48	1023,00
-2746,80	957,00
-2736,13	886,00
-2725,48	965,00
-2714,84	785,00
-2704,22	889,00
-2693,61	882,00
-2683,02	906,00
-2672,45	977,00
-2661,89	970,00
-2651,34	1009,00
-2640,81	955,00
-2630,30	998,00
-2619,80	863,00
-2609,31	1048,00
-2598,84	846,00
-2588,39	894,00
-2577,95	900,00
-2567,52	795,00
-2557,11	900,00
-2546,71	918,00
-2536,33	1007,00
-2525,97	896,00
-2515,62	997,00
-2505,28	982,00
-2494,96	889,00
-2484,65	959,00
-2474,36	1322,00
-2464,08	875,00
-2453,82	1062,00
-2443,57	812,00
-2433,33	827,00
-2423,11	1013,00
-2412,91	981,00
-2402,72	869,00
-2392,54	886,00
-2382,38	954,00
-2372,23	977,00
-2362,09	1966,00
-2351,97	881,00
-2341,87	851,00
-2331,78	1022,00
-2321,70	967,00
-2311,64	977,00
-2301,59	896,00
-2291,55	882,00
-2281,53	960,00
-2271,53	827,00
-2261,53	1042,00
-2251,55	1002,00
-2241,59	925,00
-2231,64	931,00
-2221,70	920,00
-2211,78	978,00
-2201,87	1002,00
-2191,97	977,00
-2182,09	890,00
-2172,22	936,00
-2162,37	874,00
-2152,53	833,00
-2142,70	917,00
-2132,89	878,00
-2123,09	951,00
-2113,30	890,00
-2103,53	941,00
-2093,77	1035,00
-2084,02	959,00
-2074,29	1000,00
-2064,57	1007,00
-2054,86	942,00
-2045,17	976,00
-2035,49	911,00
-2025,82	858,00
-2016,17	910,00
-2006,53	934,00
-1996,91	948,00
-1987,29	931,00
-1977,69	963,00
-1968,11	943,00
-1958,53	829,00
-1948,97	1016,00
-1939,42	841,00
-1929,89	869,00
-1920,37	974,00
-1910,86	868,00
-1901,36	889,00
-1891,88	953,00
-1882,41	908,00
-1872,95	1005,00
-1863,51	998,00
-1854,08	882,00
-1844,66	942,00
-1835,26	975,00
-1825,86	1008,00
-1816,48	817,00
-1807,11	957,00
-1797,76	1020,00
-1788,42	987,00
-1779,09	1037,00
-1769,77	855,00
-1760,47	1128,00
-1751,17	791,00
-1741,89	885,00
-1732,63	943,00
-1723,37	1160,00
-1714,13	997,00
-1704,90	883,00
-1695,68	1129,00
-1686,48	838,00
-1677,29	934,00
-1668,11	1041,00
-1658,94	921,00
-1649,78	974,00
-1640,64	975,00
-1631,51	932,00
-1622,39	1003,00
-1613,28	965,00
-1604,19	1100,00
-1595,10	872,00
-1586,03	951,00
-1576,97	959,00
-1567,93	905,00
-1558,89	964,00
-1549,87	1037,00
-1540,86	840,00
-1531,86	892,00
-1522,87	896,00
-1513,90	1020,00
-1504,93	973,00
-1495,98	1084,00
-1487,04	1044,00
-1478,12	872,00
-1469,20	851,00
-1460,30	928,00
-1451,40	1111,00
-1442,52	976,00
-1433,65	987,00
-1424,80	990,00
-1415,95	895,00
-1407,12	1078,00
-1398,30	913,00
-1389,48	1048,00
-1380,69	875,00
-1371,90	841,00
-1363,12	1007,00
-1354,36	1027,00
-1345,60	944,00
-1336,86	1027,00
-1328,13	1147,00
-1319,41	955,00
-1310,70	988,00
-1302,01	794,00
-1293,32	917,00
-1284,65	951,00
-1275,99	1013,00
-1267,33	1153,00
-1258,69	932,00
-1250,06	968,00
-1241,45	865,00
-1232,84	1159,00
-1224,25	904,00
-1215,66	921,00
-1207,09	994,00
-1198,53	936,00
-1189,97	887,00
-1181,43	881,00
-1172,91	895,00
-1164,39	1170,00
-1155,88	782,00
-1147,38	827,00
-1138,90	916,00
-1130,43	903,00
-1121,96	911,00
-1113,51	961,00
-1105,07	968,00
-1096,64	1019,00
-1088,22	1049,00
-1079,81	1054,00
-1071,41	1098,00
-1063,02	810,00
-1054,65	1023,00
-1046,28	862,00
-1037,92	968,00
-1029,58	963,00
-1021,24	921,00
-1012,92	1243,00
-1004,61	921,00
-996,30	1090,00
-988,01	803,00
-979,73	917,00
-971,46	1098,00
-963,20	894,00
-954,95	812,00
-946,71	872,00
-938,48	938,00
-930,26	922,00
-922,06	1043,00
-913,86	961,00
-905,67	906,00
-897,49	974,00
-889,33	710,00
-881,17	935,00
-873,02	988,00
-864,89	864,00
-856,76	896,00
-848,65	949,00
-840,54	944,00
-832,45	909,00
-824,36	760,00
-816,29	980,00
-808,22	987,00
-800,17	982,00
-792,12	914,00
-784,09	1000,00
-776,06	930,00
-768,05	912,00
-760,04	956,00
-752,05	864,00
-744,07	979,00
-736,09	1084,00
-728,13	776,00
-720,17	960,00
-712,23	896,00
-704,29	861,00
-696,37	1007,00
-688,45	1053,00
-680,55	946,00
-672,65	997,00
-664,77	912,00
-656,89	940,00
-649,03	829,00
-641,17	1018,00
-633,32	964,00
-625,49	989,00
-617,66	891,00
-609,84	960,00
-602,03	916,00
-594,23	933,00
-586,45	934,00
-578,67	890,00
-570,90	955,00
-563,14	801,00
-555,39	944,00
-547,65	900,00
-539,91	942,00
-532,19	992,00
-524,48	1053,00
-516,78	920,00
-509,08	1095,00
-501,40	926,00
-493,72	988,00
-486,06	858,00
-478,40	1096,00
-470,76	923,00
-463,12	889,00
-455,49	1009,00
-447,87	876,00
-440,26	855,00
-432,66	769,00
-425,07	972,00
-417,49	876,00
-409,92	730,00
-402,35	866,00
-394,80	815,00
-387,25	977,00
-379,72	984,00
-372,19	950,00
-364,67	1051,00
-357,17	889,00
-349,67	1001,00
-342,18	916,00
-334,69	904,00
-327,22	907,00
-319,76	951,00
-312,30	934,00
-304,86	843,00
-297,42	940,00
-290,00	880,00
-282,58	900,00
-275,17	1033,00
-267,77	1058,00
-260,37	931,00
-252,99	972,00
-245,62	978,00
-238,25	914,00
-230,90	844,00
-223,55	1049,00
-216,21	982,00
-208,88	1118,00
-201,56	1032,00
-194,25	1073,00
-186,94	1073,00
-179,65	1141,00
-172,36	1113,00
-165,08	1127,00
-157,81	1274,00
-150,55	1283,00
-143,30	1298,00
-136,06	1265,00
-128,82	1269,00
-121,60	1359,00
-114,38	1469,00
-107,17	1614,00
-99,97	1793,00
-92,78	1724,00
-85,60	1796,00
-78,42	1992,00
-71,25	2200,00
-64,10	2365,00
-56,95	2596,00
-49,81	2909,00
-42,67	3553,00
-35,55	4118,00
-28,43	5085,00
-21,33	7990,00
-14,23	24474,00
-7,14	57498,00
-0,05	57284,00
7,02	57012,00
14,09	57319,00
21,14	20723,00
28,19	9105,00
35,23	6181,00
42,27	5025,00
49,29	4166,00
56,31	3592,00
63,32	3307,00
70,32	2891,00
77,31	2517,00
84,29	2282,00
91,27	2250,00
98,23	2151,00
105,19	2030,00
112,14	2159,00
119,09	2899,00
126,02	4447,00
132,95	5064,00
139,87	5127,00
146,78	5426,00
153,68	5090,00
160,58	4970,00
167,46	4897,00
174,34	5051,00
181,21	4835,00
188,08	4886,00
194,93	4930,00
201,78	4891,00
208,62	4923,00
215,45	4921,00
222,27	4946,00
229,09	4995,00
235,90	4773,00
242,70	4773,00
249,49	4786,00
256,27	4589,00
263,05	4589,00
269,82	4489,00
276,58	4450,00
283,33	4474,00
290,08	4316,00
296,82	4317,00
303,55	4198,00
310,27	4177,00
316,98	4241,00
323,69	4169,00
330,39	4098,00
337,08	4221,00
343,76	4292,00
350,44	4239,00
357,11	4156,00
363,77	4122,00
370,42	4125,00
377,07	4125,00
383,71	4073,00
390,34	4153,00
396,96	4115,00
403,58	4087,00
410,19	4236,00
416,79	4329,00
423,38	4454,00
429,97	4367,00
436,55	4386,00
443,12	4351,00
449,68	4450,00
456,24	4339,00
462,79	4197,00
469,33	4126,00
475,86	3954,00
482,39	3786,00
488,91	3850,00
495,42	3783,00
501,93	3730,00
508,42	3563,00
514,91	3692,00
521,40	3618,00
527,87	3617,00
534,34	3558,00
540,80	3578,00
547,25	3622,00
553,70	3636,00
560,14	3615,00
566,57	3668,00
573,00	3559,00
579,41	3681,00
585,83	3663,00
592,23	3757,00
598,62	3806,00
605,01	3857,00
611,40	4042,00
617,77	3911,00
624,14	3742,00
630,50	3566,00
636,85	3613,00
643,20	3510,00
649,54	3353,00
655,87	3346,00
662,20	3397,00
668,52	3328,00
674,83	3386,00
681,13	3172,00
687,43	3393,00
693,72	3185,00
700,00	3204,00
706,28	3251,00
712,55	3256,00
718,81	3237,00
725,07	3249,00
731,32	3177,00
737,56	3329,00
743,79	3192,00
750,02	3225,00
756,24	3133,00
762,46	3130,00
768,67	3393,00
774,87	3130,00
781,06	3126,00
787,25	3137,00
793,43	3141,00
799,60	3094,00
805,77	3340,00
811,93	3149,00
818,08	3146,00
824,23	3124,00
830,37	3376,00
836,50	3133,00
842,63	3231,00
848,75	3118,00
854,87	3083,00
860,97	3278,00
867,07	3146,00
873,17	3273,00
879,25	3157,00
885,33	3201,00
891,41	3167,00
897,47	3204,00
903,53	3001,00
909,59	3079,00
915,63	3090,00
921,67	3075,00
927,71	3223,00
933,74	3035,00
939,76	2799,00
945,77	2978,00
951,78	3179,00
957,78	2908,00
963,78	3013,00
969,77	2898,00
975,75	2925,00
981,72	2933,00
987,69	4260,00
993,66	3060,00
999,61	3036,00
1005,56	3003,00
1011,51	3005,00
1017,44	2953,00
1023,37	3096,00
1029,30	2948,00
1035,22	3116,00
1041,13	3095,00
1047,03	3337,00
1052,93	3734,00
1058,83	5084,00
1064,71	5409,00
1070,59	4762,00
1076,47	3939,00
1082,33	3661,00
1088,20	3580,00
1094,05	3413,00
1099,90	3121,00
1105,74	3166,00
1111,58	3252,00
1117,41	3583,00
1123,23	4387,00
1129,05	5379,00
1134,86	4983,00
1140,67	3915,00
1146,47	3308,00
1152,26	3149,00
1158,05	2999,00
1163,83	3177,00
1169,60	3296,00
1175,37	3194,00
1181,13	3036,00
1186,89	2868,00
1192,64	2932,00
1198,38	3048,00
1204,12	2725,00
1209,85	2833,00
1215,58	2944,00
1221,30	2954,00
1227,02	2863,00
1232,72	2978,00
1238,43	2844,00
1244,12	2812,00
1249,81	2833,00
1255,50	3021,00
1261,17	2942,00
1266,85	3069,00
1272,51	3145,00
1278,17	3416,00
1283,83	3606,00
1289,47	4941,00
1295,12	6454,00
1300,75	5844,00
1306,38	4613,00
1312,01	3784,00
1317,63	3406,00
1323,24	3141,00
1328,85	3120,00
1334,45	2888,00
1340,04	2959,00
1345,63	2925,00
1351,22	3105,00
1356,80	2985,00
1362,37	3132,00
1367,93	3109,00
1373,49	3152,00
1379,05	3067,00
1384,60	2984,00
1390,14	2920,00
1395,68	3055,00
1401,21	3033,00
1406,74	3176,00
1412,26	3810,00
1417,77	4453,00
1423,28	4359,00
1428,78	4648,00
1434,28	5641,00
1439,77	6420,00
1445,26	6183,00
1450,74	5968,00
1456,22	5470,00
1461,68	5242,00
1467,15	5046,00
1472,61	4310,00
1478,06	3990,00
1483,51	3514,00
1488,95	3117,00
1494,38	3168,00
1499,81	2849,00
1505,24	2751,00
1510,65	2823,00
1516,07	2711,00
1521,48	2746,00
1526,88	2602,00
1532,27	2626,00
1537,67	2623,00
1543,05	2688,00
1548,43	2560,00
1553,81	2650,00
1559,18	2377,00
1564,54	2455,00
1569,90	2479,00
1575,25	2374,00
1580,60	2318,00
1585,94	2434,00
1591,28	2444,00
1596,61	2475,00
1601,93	2481,00
1607,25	2595,00
1612,57	2354,00
1617,88	2532,00
1623,18	2450,00
1628,48	2395,00
1633,77	2388,00
1639,06	2384,00
1644,34	2297,00
1649,62	2253,00
1654,89	2284,00
1660,16	2243,00
1665,42	2369,00
1670,67	2337,00
1675,92	2120,00
1681,17	2244,00
1686,41	2270,00
1691,64	2256,00
1696,87	2274,00
1702,10	2236,00
1707,32	2293,00
1712,53	2329,00
1717,74	2201,00
1722,94	2351,00
1728,14	2118,00
1733,33	2182,00
1738,52	2074,00
1743,70	2164,00
1748,88	2107,00
1754,05	2207,00
1759,22	2144,00
1764,38	1386,00
1769,53	2164,00
1774,69	2195,00
1779,83	2078,00
1784,97	1986,00
1790,11	2187,00
1795,24	2051,00
1800,36	2098,00
1805,48	2063,00
1810,60	2127,00
1815,71	2024,00
1820,82	2025,00
1825,92	2082,00
1831,01	2027,00
1836,10	1953,00
1841,19	2067,00
1846,26	1894,00
1851,34	2041,00
1856,41	1949,00
1861,47	1929,00
1866,53	2093,00
1871,59	1872,00
1876,64	1970,00
1881,68	1971,00
1886,72	2068,00
1891,76	1853,00
1896,79	1822,00
1901,81	1873,00
1906,83	2003,00
1911,85	1831,00
1916,86	1893,00
1921,86	1898,00
1926,86	1886,00
1931,86	1886,00
1936,85	1795,00
1941,83	1836,00
1946,81	1773,00
1951,79	1782,00
1956,76	1799,00
1961,72	1662,00
1966,68	1782,00
1971,64	1824,00
1976,59	1707,00
1981,54	1719,00
1986,48	1819,00
1991,42	1682,00
1996,35	1998,00
2001,27	1722,00
2006,20	1709,00
2011,11	1696,00
2016,03	1784,00
2020,93	1638,00
2025,84	1774,00
2030,73	1655,00
2035,63	1572,00
2040,52	1779,00
2045,40	1778,00
2050,28	1693,00
2055,15	1759,00
2060,02	1599,00
2064,89	1791,00
2069,75	1779,00
2074,60	1739,00
2079,46	1561,00
2084,30	1575,00
2089,14	1553,00
2093,98	1693,00
2098,81	1672,00
2103,64	1697,00
2108,46	1692,00
2113,28	1633,00
2118,09	1731,00
2122,90	1736,00
2127,70	1611,00
2132,50	1728,00
2137,30	1605,00
2142,09	1568,00
2146,87	1530,00
2151,66	1694,00
2156,43	1594,00
2161,20	1578,00
2165,97	1680,00
2170,73	1608,00
2175,49	1754,00
2180,24	1736,00
2184,99	1780,00
2189,74	1822,00
2194,48	1728,00
2199,21	1713,00
2203,94	1579,00
2208,67	1503,00
2213,39	1400,00
2218,11	1656,00
2222,82	1513,00
2227,53	1522,00
2232,23	1626,00
2236,93	1618,00
2241,63	1544,00
2246,32	1752,00
2251,00	1565,00
2255,68	1542,00
2260,36	1581,00
2265,03	1613,00
2269,70	1698,00
2274,36	1516,00
2279,02	1631,00
2283,68	1563,00
2288,33	1560,00
2292,97	1516,00
2297,61	1553,00
2302,25	1564,00
2306,88	1478,00
2311,51	1430,00
2316,14	1457,00
2320,75	1441,00
2325,37	1456,00
2329,98	1528,00
2334,59	1495,00
2339,19	1367,00
2343,79	1397,00
2348,38	1485,00
2352,97	1369,00
2357,55	1538,00
2362,13	1429,00
2366,71	1419,00
2371,28	1598,00
2375,85	1470,00
2380,41	1490,00
2384,97	1355,00
2389,52	1493,00
2394,07	1548,00
2398,62	1437,00
2403,16	1480,00
2407,70	1342,00
2412,23	1346,00
2416,76	1476,00
2421,29	1510,00
2425,81	1533,00
2430,32	1443,00
2434,84	1322,00
2439,34	1363,00
2443,85	1503,00
2448,35	1409,00
2452,84	1318,00
2457,33	1388,00
2461,82	1318,00
2466,30	1327,00
2470,78	1467,00
2475,25	1355,00
2479,72	1359,00
2484,19	1438,00
2488,65	1427,00
2493,11	1327,00
2497,56	1500,00
2502,01	1292,00
2506,46	1460,00
2510,90	1326,00
2515,34	1287,00
2519,77	1386,00
2524,20	1372,00
2528,62	1340,00
2533,04	1462,00
2537,46	1361,00
2541,87	1350,00
2546,28	1340,00
2550,68	1411,00
2555,08	1308,00
2559,48	1380,00
2563,87	1293,00
2568,26	1233,00
2572,64	1367,00
2577,02	1343,00
2581,40	1238,00
2585,77	1420,00
2590,14	1336,00
2594,50	1297,00
2598,86	1404,00
2603,22	1301,00
2607,57	1357,00
2611,92	1404,00
2616,26	1504,00
2620,60	1475,00
2624,94	1329,00
2629,27	1443,00
2633,60	1191,00
2637,92	1548,00
2642,24	1531,00
2646,56	1294,00
2650,87	1232,00
2655,18	1410,00
2659,48	1323,00
2663,78	1331,00
2668,08	1402,00
2672,37	1450,00
2676,66	1408,00
2680,95	1281,00
2685,23	1532,00
2689,50	1388,00
2693,78	1432,00
2698,05	1442,00
2702,31	1468,00
2706,57	1597,00
2710,83	1655,00
2715,08	1768,00
2719,33	1742,00
2723,58	1616,00
2727,82	1665,00
2732,06	1649,00
2736,29	1607,00
2740,53	1494,00
2744,75	1483,00
2748,97	1535,00
2753,19	1441,00
2757,41	1574,00
2761,62	1542,00
2765,83	1495,00
2770,03	1418,00
2774,23	1626,00
2778,43	1529,00
2782,62	1511,00
2786,81	1643,00
2791,00	1573,00
2795,18	1756,00
2799,35	1661,00
2803,53	1647,00
2807,70	1813,00
2811,86	1804,00
2816,03	1987,00
2820,19	1926,00
2824,34	2009,00
2828,49	2138,00
2832,64	2517,00
2836,78	2836,00
2840,92	3250,00
2845,06	3923,00
2849,19	4308,00
2853,32	4387,00
2857,45	4341,00
2861,57	4262,00
2865,69	4141,00
2869,80	4065,00
2873,91	4263,00
2878,02	4718,00
2882,12	5043,00
2886,22	5082,00
2890,32	4857,00
2894,41	4378,00
2898,50	4098,00
2902,58	3821,00
2906,67	3654,00
2910,74	3322,00
2914,82	3051,00
2918,89	3007,00
2922,96	2801,00
2927,02	2518,00
2931,08	2525,00
2935,13	2355,00
2939,19	2271,00
2943,24	2165,00
2947,28	2083,00
2951,32	1797,00
2955,36	1744,00
2959,40	1836,00
2963,43	1662,00
2967,46	1577,00
2971,48	1545,00
2975,50	1431,00
2979,52	1593,00
2983,53	1486,00
2987,54	1323,00
2991,55	1429,00
2995,55	1342,00
2999,55	1250,00
3003,54	1171,00
3007,54	1393,00
3011,53	1308,00
3015,51	1208,00
3019,49	1250,00
3023,47	1062,00
3027,45	1230,00
3031,42	1190,00
3035,39	1134,00
3039,35	1148,00
3043,31	1227,00
3047,27	1117,00
3051,22	1133,00
3055,17	1071,00
3059,12	1013,00
3063,06	1123,00
3067,00	996,00
3070,94	1047,00
3074,87	1202,00
3078,80	1126,00
3082,73	1165,00
3086,65	1051,00
3090,57	1088,00
3094,49	1072,00
3098,40	1025,00
3102,31	1079,00
3106,22	1053,00
3110,12	1060,00
3114,02	923,00
3117,92	1024,00
3121,81	1032,00
3125,70	1084,00
3129,58	975,00
3133,47	968,00
3137,34	1147,00
3141,22	1106,00
3145,09	1081,00
3148,96	1067,00
3152,83	1072,00
3156,69	1086,00
3160,55	990,00
3164,40	1022,00
3168,26	1028,00
3172,10	1136,00
3175,95	1100,00
3179,79	1007,00
3183,63	1034,00
3187,47	1048,00
3191,30	984,00
3195,13	1112,00
3198,95	891,00
3202,78	1064,00
3206,60	980,00
3210,41	902,00
3214,23	1040,00
3218,03	1008,00
3221,84	1028,00
3225,64	1030,00
3229,44	969,00
3233,24	1068,00
3237,03	959,00
3240,82	986,00
3244,61	987,00
3248,39	930,00
3252,17	1016,00
3255,95	1088,00
3259,72	1049,00
3263,49	1172,00
3267,26	991,00
3271,03	910,00
3274,79	900,00
3278,54	963,00
3282,30	807,00
3286,05	1030,00
3289,80	959,00
3293,54	927,00
3297,29	1062,00
3301,02	944,00
3304,76	913,00
3308,49	1021,00
3312,22	912,00
3315,95	935,00
3319,67	975,00
3323,39	1093,00
3327,10	1064,00
3330,82	1012,00
3334,53	1002,00
3338,24	972,00
3341,94	907,00
3345,64	953,00
3349,34	876,00
3353,03	1003,00
3356,72	978,00
3360,41	1006,00
3364,10	870,00
3367,78	884,00
3371,46	901,00
3375,13	900,00
3378,81	983,00
3382,48	911,00
3386,14	1019,00
3389,81	1056,00
3393,47	922,00
3397,12	1099,00
3400,78	962,00
3404,43	934,00
3408,08	1019,00
3411,72	952,00
3415,36	911,00
3419,00	965,00
3422,64	923,00
3426,27	1014,00
3429,90	951,00
3433,53	874,00
3437,15	867,00
3440,77	801,00
3444,39	955,00
3448,00	909,00
3451,62	937,00
3455,22	938,00
3458,83	840,00
3462,43	952,00
3466,03	976,00
3469,63	824,00
3473,22	906,00
3476,81	803,00
3480,40	1026,00
3483,99	899,00
3487,57	969,00
3491,15	913,00
3494,72	934,00
3498,29	994,00
3501,86	852,00
3505,43	989,00
3508,99	849,00
3512,56	825,00
3516,11	963,00
3519,67	911,00
3523,22	914,00
3526,77	890,00
3530,32	1042,00
3533,86	982,00
3537,40	1027,00
3540,94	933,00
3544,47	932,00
3548,00	776,00
3551,53	992,00
3555,06	959,00
3558,58	990,00
3562,10	1032,00
3565,62	821,00
3569,13	927,00
3572,64	1009,00
3576,15	811,00
3579,66	822,00
3583,16	939,00
3586,66	909,00
3590,16	861,00
3593,65	774,00
3597,14	820,00
3600,63	924,00
3604,11	931,00
3607,60	920,00
3611,08	972,00
3614,55	868,00
3618,03	873,00
3621,50	804,00
3624,97	822,00
3628,43	929,00
3631,90	879,00
3635,36	772,00
3638,81	814,00
3642,27	795,00
3645,72	846,00
3649,17	792,00
3652,61	818,00
3656,06	767,00
3659,50	888,00
3662,93	869,00
3666,37	945,00
3669,80	1046,00
3673,23	863,00
3676,65	922,00
3680,08	994,00
3683,50	826,00
3686,92	795,00
3690,33	838,00
3693,74	848,00
3697,15	719,00
3700,56	912,00
3703,96	915,00
3707,36	740,00
3710,76	782,00
3714,16	652,00
3717,55	798,00
3720,94	789,00
3724,33	804,00
3727,71	874,00
3731,10	817,00
3734,48	818,00
3737,85	693,00
3741,23	793,00
3744,60	816,00
3747,97	716,00
3751,33	903,00
3754,69	724,00
3758,05	758,00
3761,41	700,00
3764,77	824,00
3768,12	754,00
3771,47	663,00
3774,82	777,00
3778,16	-13,00
3781,50	18,00
3784,84	3,00
3788,18	10,00
>>>>>End Processed Spectral Data<<<<<
