SpectraSuite Data File
++++++++++++++++++++++++++++++++++++
Date: Mon Jan 05 16:34:28 ICT 2026
User: Administrator
Dark Spectrum Present: Yes
Reference Spectrum Present: No
Number of Sampled Component Spectra: 1
Spectrometers: MAYP113682
Integration Time (usec): 3000000 (MAYP113682)
Spectra Averaged: 1 (MAYP113682)
Boxcar Smoothing: 0 (MAYP113682)
Correct for Electrical Dark: No (MAYP113682)
Strobe/Lamp Enabled: No (MAYP113682)
Correct for Detector Non-linearity: No (MAYP113682)
Correct for Stray Light: No (MAYP113682)
Number of Pixels in Processed Spectrum: 2068
>>>>>Begin Processed Spectral Data<<<<<
-37534,58	38,00
-37414,56	6,00
-37295,11	6,00
-37176,24	2,00
-37057,95	724,00
-36940,22	771,00
-36823,05	737,00
-36706,45	811,00
-36590,40	846,00
-36474,90	788,00
-36359,95	846,00
-36245,55	842,00
-36131,68	739,00
-36018,35	835,00
-35905,55	769,00
-35793,29	927,00
-35681,54	771,00
-35570,32	750,00
-35459,62	848,00
-35349,43	957,00
-35239,75	885,00
-35130,58	822,00
-35021,91	822,00
-34913,74	851,00
-34806,07	847,00
-34698,89	900,00
-34592,20	895,00
-34486,00	881,00
-34380,28	946,00
-34275,04	829,00
-34170,27	846,00
-34065,98	1000,00
-33962,16	940,00
-33858,81	944,00
-33755,92	858,00
-33653,49	967,00
-33551,52	1016,00
-33450,01	898,00
-33348,94	939,00
-33248,33	959,00
-33148,16	879,00
-33048,43	968,00
-32949,14	1049,00
-32850,29	1078,00
-32751,87	822,00
-32653,89	957,00
-32556,33	963,00
-32459,20	903,00
-32362,49	962,00
-32266,19	959,00
-32170,32	897,00
-32074,86	949,00
-31979,82	1026,00
-31885,18	1044,00
-31790,95	1019,00
-31697,12	988,00
-31603,69	1078,00
-31510,67	940,00
-31418,04	983,00
-31325,80	959,00
-31233,95	923,00
-31142,49	890,00
-31051,42	909,00
-30960,73	1069,00
-30870,43	956,00
-30780,50	967,00
-30690,95	914,00
-30601,77	1010,00
-30512,97	934,00
-30424,53	920,00
-30336,46	910,00
-30248,76	851,00
-30161,42	981,00
-30074,44	894,00
-29987,81	1018,00
-29901,55	1068,00
-29815,63	936,00
-29730,07	949,00
-29644,86	984,00
-29560,00	1031,00
-29475,48	963,00
-29391,30	959,00
-29307,47	904,00
-29223,97	905,00
-29140,81	979,00
-29057,99	1008,00
-28975,50	814,00
-28893,34	1060,00
-28811,51	916,00
-28730,00	1005,00
-28648,82	948,00
-28567,97	966,00
-28487,43	850,00
-28407,21	950,00
-28327,32	912,00
-28247,73	1069,00
-28168,46	883,00
-28089,50	1025,00
-28010,85	829,00
-27932,51	882,00
-27854,48	971,00
-27776,75	846,00
-27699,32	904,00
-27622,19	996,00
-27545,37	947,00
-27468,84	984,00
-27392,60	1011,00
-27316,66	919,00
-27241,01	1001,00
-27165,66	914,00
-27090,59	733,00
-27015,81	1012,00
-26941,31	1048,00
-26867,10	938,00
-26793,17	978,00
-26719,52	892,00
-26646,15	893,00
-26573,06	946,00
-26500,24	901,00
-26427,70	968,00
-26355,43	836,00
-26283,43	896,00
-26211,71	1023,00
-26140,25	938,00
-26069,06	1012,00
-25998,13	920,00
-25927,46	848,00
-25857,06	855,00
-25786,92	931,00
-25717,04	883,00
-25647,42	1010,00
-25578,05	923,00
-25508,94	943,00
-25440,09	955,00
-25371,48	904,00
-25303,13	1046,00
-25235,02	962,00
-25167,17	909,00
-25099,56	970,00
-25032,19	941,00
-24965,07	802,00
-24898,20	833,00
-24831,56	874,00
-24765,17	978,00
-24699,01	864,00
-24633,10	1004,00
-24567,41	872,00
-24501,97	901,00
-24436,75	927,00
-24371,77	901,00
-24307,03	849,00
-24242,51	884,00
-24178,22	862,00
-24114,16	929,00
-24050,32	995,00
-23986,71	1022,00
-23923,32	970,00
-23860,16	880,00
-23797,22	918,00
-23734,50	948,00
-23672,00	846,00
-23609,71	887,00
-23547,65	861,00
-23485,80	1022,00
-23424,16	741,00
-23362,74	1070,00
-23301,53	893,00
-23240,54	824,00
-23179,75	824,00
-23119,17	864,00
-23058,80	899,00
-22998,64	1001,00
-22938,68	928,00
-22878,93	896,00
-22819,39	844,00
-22760,04	900,00
-22700,90	939,00
-22641,96	938,00
-22583,22	950,00
-22524,68	859,00
-22466,33	881,00
-22408,19	929,00
-22350,23	858,00
-22292,48	862,00
-22234,92	1009,00
-22177,55	919,00
-22120,37	1091,00
-22063,38	899,00
-22006,58	906,00
-21949,98	895,00
-21893,56	806,00
-21837,33	919,00
-21781,28	892,00
-21725,42	910,00
-21669,74	924,00
-21614,25	952,00
-21558,94	962,00
-21503,81	1036,00
-21448,86	1095,00
-21394,10	920,00
-21339,51	871,00
-21285,10	778,00
-21230,86	771,00
-21176,81	860,00
-21122,93	870,00
-21069,22	821,00
-21015,69	921,00
-20962,33	1000,00
-20909,14	866,00
-20856,13	842,00
-20803,28	918,00
-20750,61	851,00
-20698,10	783,00
-20645,76	838,00
-20593,59	972,00
-20541,59	1008,00
-20489,75	911,00
-20438,07	801,00
-20386,56	998,00
-20335,22	806,00
-20284,03	891,00
-20233,01	938,00
-20182,15	876,00
-20131,45	1000,00
-20080,91	881,00
-20030,52	996,00
-19980,30	804,00
-19930,23	807,00
-19880,32	974,00
-19830,56	970,00
-19780,96	858,00
-19731,52	852,00
-19682,23	941,00
-19633,09	866,00
-19584,10	793,00
-19535,26	855,00
-19486,58	1037,00
-19438,04	887,00
-19389,66	977,00
-19341,42	903,00
-19293,33	915,00
-19245,39	927,00
-19197,60	998,00
-19149,95	895,00
-19102,45	967,00
-19055,09	840,00
-19007,87	954,00
-18960,80	901,00
-18913,87	990,00
-18867,09	906,00
-18820,44	1046,00
-18773,94	900,00
-18727,57	894,00
-18681,35	835,00
-18635,26	848,00
-18589,31	865,00
-18543,50	905,00
-18497,83	877,00
-18452,29	900,00
-18406,89	891,00
-18361,63	984,00
-18316,50	1030,00
-18271,50	955,00
-18226,63	1038,00
-18181,90	1054,00
-18137,30	941,00
-18092,84	891,00
-18048,50	1052,00
-18004,29	831,00
-17960,22	784,00
-17916,27	860,00
-17872,45	956,00
-17828,76	1008,00
-17785,20	949,00
-17741,77	978,00
-17698,46	912,00
-17655,28	822,00
-17612,22	841,00
-17569,29	869,00
-17526,48	929,00
-17483,79	1006,00
-17441,23	792,00
-17398,79	926,00
-17356,48	839,00
-17314,28	1060,00
-17272,21	878,00
-17230,26	957,00
-17188,42	862,00
-17146,71	909,00
-17105,12	875,00
-17063,64	884,00
-17022,28	898,00
-16981,04	806,00
-16939,92	989,00
-16898,91	1090,00
-16858,02	827,00
-16817,25	931,00
-16776,59	927,00
-16736,04	813,00
-16695,61	896,00
-16655,29	868,00
-16615,09	870,00
-16574,99	831,00
-16535,01	829,00
-16495,15	963,00
-16455,39	877,00
-16415,74	901,00
-16376,21	898,00
-16336,78	805,00
-16297,46	819,00
-16258,26	816,00
-16219,16	934,00
-16180,17	879,00
-16141,28	933,00
-16102,51	938,00
-16063,84	877,00
-16025,27	973,00
-15986,82	896,00
-15948,46	936,00
-15910,22	823,00
-15872,07	880,00
-15834,04	889,00
-15796,10	877,00
-15758,27	1138,00
-15720,54	882,00
-15682,91	956,00
-15645,39	949,00
-15607,97	957,00
-15570,64	809,00
-15533,42	920,00
-15496,30	867,00
-15459,28	924,00
-15422,36	902,00
-15385,54	870,00
-15348,82	898,00
-15312,19	1056,00
-15275,66	850,00
-15239,23	973,00
-15202,90	836,00
-15166,67	872,00
-15130,53	1018,00
-15094,48	888,00
-15058,54	865,00
-15022,68	841,00
-14986,93	873,00
-14951,26	958,00
-14915,69	928,00
-14880,22	848,00
-14844,84	918,00
-14809,55	894,00
-14774,35	935,00
-14739,25	931,00
-14704,24	938,00
-14669,32	921,00
-14634,49	802,00
-14599,75	929,00
-14565,10	907,00
-14530,55	844,00
-14496,08	946,00
-14461,70	961,00
-14427,41	866,00
-14393,21	866,00
-14359,10	824,00
-14325,07	977,00
-14291,14	849,00
-14257,29	944,00
-14223,52	967,00
-14189,85	1037,00
-14156,26	858,00
-14122,76	801,00
-14089,34	843,00
-14056,01	899,00
-14022,76	882,00
-13989,60	886,00
-13956,52	972,00
-13923,53	937,00
-13890,62	890,00
-13857,79	891,00
-13825,05	856,00
-13792,39	704,00
-13759,81	994,00
-13727,31	867,00
-13694,90	993,00
-13662,57	966,00
-13630,31	912,00
-13598,14	946,00
-13566,05	853,00
-13534,05	836,00
-13502,12	959,00
-13470,27	857,00
-13438,50	1001,00
-13406,80	871,00
-13375,19	891,00
-13343,66	960,00
-13312,20	958,00
-13280,83	895,00
-13249,53	935,00
-13218,30	804,00
-13187,16	786,00
-13156,09	1102,00
-13125,10	953,00
-13094,18	968,00
-13063,34	984,00
-13032,58	827,00
-13001,89	878,00
-12971,28	1019,00
-12940,74	817,00
-12910,27	907,00
-12879,88	912,00
-12849,57	936,00
-12819,33	924,00
-12789,16	955,00
-12759,06	940,00
-12729,04	828,00
-12699,09	2344,00
-12669,21	872,00
-12639,41	894,00
-12609,68	817,00
-12580,02	911,00
-12550,43	1007,00
-12520,91	800,00
-12491,46	857,00
-12462,08	701,00
-12432,77	827,00
-12403,54	940,00
-12374,37	855,00
-12345,27	991,00
-12316,24	854,00
-12287,29	899,00
-12258,40	790,00
-12229,57	1086,00
-12200,82	792,00
-12172,14	935,00
-12143,52	761,00
-12114,97	928,00
-12086,49	860,00
-12058,07	976,00
-12029,73	927,00
-12001,44	1022,00
-11973,23	972,00
-11945,08	898,00
-11917,00	946,00
-11888,98	846,00
-11861,03	1002,00
-11833,15	881,00
-11805,32	983,00
-11777,57	917,00
-11749,88	1006,00
-11722,25	910,00
-11694,69	870,00
-11667,19	945,00
-11639,75	1024,00
-11612,38	831,00
-11585,07	869,00
-11557,83	930,00
-11530,65	1010,00
-11503,53	819,00
-11476,47	854,00
-11449,48	833,00
-11422,54	1071,00
-11395,67	1005,00
-11368,86	913,00
-11342,11	876,00
-11315,43	907,00
-11288,80	852,00
-11262,23	870,00
-11235,73	919,00
-11209,28	1075,00
-11182,90	898,00
-11156,57	829,00
-11130,31	1076,00
-11104,10	877,00
-11077,96	933,00
-11051,87	908,00
-11025,84	814,00
-10999,87	1003,00
-10973,96	937,00
-10948,11	843,00
-10922,31	915,00
-10896,58	994,00
-10870,90	1047,00
-10845,28	960,00
-10819,71	886,00
-10794,20	965,00
-10768,75	952,00
-10743,36	1081,00
-10718,02	851,00
-10692,74	977,00
-10667,52	895,00
-10642,35	944,00
-10617,24	914,00
-10592,18	973,00
-10567,18	883,00
-10542,23	967,00
-10517,34	1014,00
-10492,51	1054,00
-10467,72	941,00
-10443,00	978,00
-10418,32	1019,00
-10393,70	976,00
-10369,14	948,00
-10344,63	799,00
-10320,17	1038,00
-10295,77	912,00
-10271,42	1006,00
-10247,12	1078,00
-10222,88	1141,00
-10198,68	948,00
-10174,54	1048,00
-10150,46	1208,00
-10126,42	1155,00
-10102,44	1056,00
-10078,51	1024,00
-10054,63	1206,00
-10030,80	1078,00
-10007,03	1182,00
-9983,30	1159,00
-9959,63	1104,00
-9936,01	1258,00
-9912,44	1216,00
-9888,92	1225,00
-9865,44	1146,00
-9842,02	1233,00
-9818,65	1288,00
-9795,33	1093,00
-9772,06	1197,00
-9748,84	1154,00
-9725,67	1218,00
-9702,55	1354,00
-9679,47	1481,00
-9656,45	1564,00
-9633,47	1414,00
-9610,55	1460,00
-9587,67	1749,00
-9564,84	1823,00
-9542,06	1780,00
-9519,32	1887,00
-9496,64	2096,00
-9474,00	1917,00
-9451,41	1959,00
-9428,87	2078,00
-9406,37	2073,00
-9383,92	1757,00
-9361,52	1833,00
-9339,17	2071,00
-9316,86	2145,00
-9294,60	2359,00
-9272,38	2601,00
-9250,21	3023,00
-9228,09	2877,00
-9206,01	2917,00
-9183,98	2628,00
-9162,00	2369,00
-9140,06	2539,00
-9118,16	2329,00
-9096,31	2495,00
-9074,51	2578,00
-9052,75	2769,00
-9031,04	2585,00
-9009,37	2414,00
-8987,74	2263,00
-8966,16	2202,00
-8944,63	1936,00
-8923,14	1894,00
-8901,69	1957,00
-8880,29	1888,00
-8858,93	2307,00
-8837,61	2448,00
-8816,34	2493,00
-8795,11	2518,00
-8773,92	2205,00
-8752,78	2259,00
-8731,68	1975,00
-8710,62	2178,00
-8689,61	2130,00
-8668,63	2189,00
-8647,70	2443,00
-8626,82	2420,00
-8605,97	2482,00
-8585,17	2246,00
-8564,41	2071,00
-8543,69	1933,00
-8523,01	1792,00
-8502,37	2086,00
-8481,78	2027,00
-8461,23	1897,00
-8440,71	2179,00
-8420,24	2223,00
-8399,81	2506,00
-8379,42	2317,00
-8359,08	2266,00
-8338,77	1963,00
-8318,50	1974,00
-8298,27	1827,00
-8278,09	2093,00
-8257,94	2137,00
-8237,83	2343,00
-8217,76	2348,00
-8197,74	2301,00
-8177,75	2319,00
-8157,80	2067,00
-8137,89	1905,00
-8118,02	1830,00
-8098,19	2010,00
-8078,40	1917,00
-8058,65	1899,00
-8038,93	2171,00
-8019,26	1988,00
-7999,62	2040,00
-7980,02	1781,00
-7960,46	1781,00
-7940,94	1775,00
-7921,46	1611,00
-7902,01	1641,00
-7882,60	1849,00
-7863,23	1777,00
-7843,90	1765,00
-7824,61	1792,00
-7805,35	2003,00
-7786,13	1938,00
-7766,95	1894,00
-7747,80	1912,00
-7728,69	1885,00
-7709,62	1826,00
-7690,59	1783,00
-7671,59	2027,00
-7652,63	1832,00
-7633,70	1950,00
-7614,81	1931,00
-7595,96	1809,00
-7577,15	1796,00
-7558,37	1614,00
-7539,62	1888,00
-7520,91	1879,00
-7502,24	1856,00
-7483,60	1817,00
-7465,00	1674,00
-7446,44	1799,00
-7427,91	1401,00
-7409,41	1476,00
-7390,95	1452,00
-7372,53	1252,00
-7354,14	1335,00
-7335,78	1370,00
-7317,46	1489,00
-7299,18	1350,00
-7280,92	1646,00
-7262,71	1772,00
-7244,52	1830,00
-7226,38	1767,00
-7208,26	1745,00
-7190,18	1651,00
-7172,14	1526,00
-7154,12	1596,00
-7136,15	1541,00
-7118,20	1711,00
-7100,29	1885,00
-7082,41	1755,00
-7064,57	1635,00
-7046,76	1594,00
-7028,98	1322,00
-7011,24	1444,00
-6993,53	1201,00
-6975,85	1287,00
-6958,20	1213,00
-6940,59	1067,00
-6923,01	1084,00
-6905,46	1349,00
-6887,94	1406,00
-6870,46	350,00
-6853,01	1613,00
-6835,59	1550,00
-6818,21	1315,00
-6800,85	1461,00
-6783,53	1136,00
-6766,24	1053,00
-6748,98	1091,00
-6731,76	987,00
-6714,56	1019,00
-6697,40	932,00
-6680,26	1014,00
-6663,16	1021,00
-6646,09	1362,00
-6629,05	1373,00
-6612,05	1358,00
-6595,07	1256,00
-6578,13	1387,00
-6561,21	1203,00
-6544,33	1093,00
-6527,47	947,00
-6510,65	978,00
-6493,86	880,00
-6477,10	952,00
-6460,36	1083,00
-6443,66	972,00
-6426,99	969,00
-6410,35	1037,00
-6393,74	1034,00
-6377,16	950,00
-6360,61	1115,00
-6344,09	1009,00
-6327,59	1037,00
-6311,13	1263,00
-6294,70	1105,00
-6278,29	1241,00
-6261,92	1294,00
-6245,58	1377,00
-6229,26	1364,00
-6212,97	1312,00
-6196,72	1029,00
-6180,49	1121,00
-6164,29	829,00
-6148,12	992,00
-6131,98	961,00
-6115,86	878,00
-6099,78	834,00
-6083,72	766,00
-6067,69	772,00
-6051,69	804,00
-6035,72	952,00
-6019,78	974,00
-6003,87	1110,00
-5987,98	1092,00
-5972,12	1140,00
-5956,29	1181,00
-5940,49	967,00
-5924,71	1120,00
-5908,96	953,00
-5893,24	916,00
-5877,55	897,00
-5861,89	961,00
-5846,25	764,00
-5830,64	974,00
-5815,05	873,00
-5799,50	880,00
-5783,97	975,00
-5768,47	1120,00
-5752,99	1209,00
-5737,55	968,00
-5722,12	1138,00
-5706,73	1083,00
-5691,36	1118,00
-5676,02	961,00
-5660,71	926,00
-5645,42	934,00
-5630,16	965,00
-5614,92	1109,00
-5599,71	946,00
-5584,53	1067,00
-5569,37	1026,00
-5554,24	2062,00
-5539,14	911,00
-5524,06	1077,00
-5509,01	999,00
-5493,98	918,00
-5478,98	1030,00
-5464,00	872,00
-5449,05	888,00
-5434,13	980,00
-5419,23	970,00
-5404,36	907,00
-5389,51	955,00
-5374,69	978,00
-5359,89	1261,00
-5345,12	1269,00
-5330,37	1280,00
-5315,65	1134,00
-5300,95	1037,00
-5286,28	995,00
-5271,63	929,00
-5257,01	982,00
-5242,41	1000,00
-5227,84	864,00
-5213,29	990,00
-5198,76	873,00
-5184,26	948,00
-5169,79	932,00
-5155,33	1014,00
-5140,91	982,00
-5126,51	986,00
-5112,13	968,00
-5097,77	1021,00
-5083,44	1093,00
-5069,13	858,00
-5054,85	981,00
-5040,59	1008,00
-5026,36	1049,00
-5012,15	1106,00
-4997,96	1055,00
-4983,80	951,00
-4969,66	915,00
-4955,54	920,00
-4941,44	1085,00
-4927,37	1026,00
-4913,33	1157,00
-4899,30	1072,00
-4885,30	1225,00
-4871,33	1015,00
-4857,37	891,00
-4843,44	854,00
-4829,53	1043,00
-4815,65	1059,00
-4801,79	786,00
-4787,95	1031,00
-4774,13	800,00
-4760,34	943,00
-4746,56	1059,00
-4732,82	847,00
-4719,09	988,00
-4705,38	1208,00
-4691,70	1180,00
-4678,04	1144,00
-4664,41	1156,00
-4650,79	1196,00
-4637,20	926,00
-4623,63	889,00
-4610,08	1081,00
-4596,56	1008,00
-4583,05	998,00
-4569,57	955,00
-4556,11	1023,00
-4542,67	1003,00
-4529,25	850,00
-4515,86	992,00
-4502,49	1157,00
-4489,13	1159,00
-4475,80	1150,00
-4462,49	927,00
-4449,21	1096,00
-4435,94	912,00
-4422,70	887,00
-4409,47	929,00
-4396,27	972,00
-4383,09	942,00
-4369,93	967,00
-4356,79	895,00
-4343,67	1019,00
-4330,58	970,00
-4317,50	1047,00
-4304,45	976,00
-4291,41	1002,00
-4278,40	957,00
-4265,41	940,00
-4252,44	991,00
-4239,49	865,00
-4226,55	1021,00
-4213,65	918,00
-4200,76	1029,00
-4187,89	962,00
-4175,04	924,00
-4162,21	881,00
-4149,40	945,00
-4136,61	970,00
-4123,85	845,00
-4111,10	851,00
-4098,37	1021,00
-4085,66	941,00
-4072,98	937,00
-4060,31	879,00
-4047,66	1128,00
-4035,04	1045,00
-4022,43	968,00
-4009,84	915,00
-3997,27	862,00
-3984,72	919,00
-3972,19	981,00
-3959,69	874,00
-3947,20	896,00
-3934,73	854,00
-3922,27	921,00
-3909,84	899,00
-3897,43	957,00
-3885,04	1060,00
-3872,67	917,00
-3860,31	879,00
-3847,98	1023,00
-3835,66	912,00
-3823,36	962,00
-3811,09	918,00
-3798,83	954,00
-3786,59	965,00
-3774,37	1064,00
-3762,17	883,00
-3749,98	971,00
-3737,82	921,00
-3725,67	1153,00
-3713,55	804,00
-3701,44	1016,00
-3689,35	921,00
-3677,28	1076,00
-3665,22	878,00
-3653,19	923,00
-3641,17	829,00
-3629,18	958,00
-3617,20	987,00
-3605,24	913,00
-3593,30	1043,00
-3581,37	945,00
-3569,47	991,00
-3557,58	1040,00
-3545,71	984,00
-3533,86	956,00
-3522,02	883,00
-3510,21	928,00
-3498,41	928,00
-3486,63	976,00
-3474,87	936,00
-3463,12	917,00
-3451,40	964,00
-3439,69	956,00
-3428,00	945,00
-3416,33	950,00
-3404,67	840,00
-3393,03	905,00
-3381,41	978,00
-3369,81	992,00
-3358,22	893,00
-3346,66	1096,00
-3335,10	988,00
-3323,57	850,00
-3312,06	965,00
-3300,56	965,00
-3289,08	893,00
-3277,61	873,00
-3266,16	969,00
-3254,73	947,00
-3243,32	964,00
-3231,92	861,00
-3220,55	933,00
-3209,18	1052,00
-3197,84	800,00
-3186,51	820,00
-3175,20	909,00
-3163,90	901,00
-3152,63	954,00
-3141,36	885,00
-3130,12	977,00
-3118,89	1026,00
-3107,68	861,00
-3096,49	938,00
-3085,31	921,00
-3074,15	884,00
-3063,00	935,00
-3051,87	936,00
-3040,76	904,00
-3029,67	1072,00
-3018,59	1152,00
-3007,52	1163,00
-2996,48	941,00
-2985,44	945,00
-2974,43	996,00
-2963,43	817,00
-2952,45	920,00
-2941,48	980,00
-2930,53	880,00
-2919,60	726,00
-2908,68	869,00
-2897,78	944,00
-2886,89	1013,00
-2876,02	1064,00
-2865,17	952,00
-2854,33	1085,00
-2843,50	897,00
-2832,70	981,00
-2821,90	937,00
-2811,13	1063,00
-2800,37	934,00
-2789,62	767,00
-2778,89	985,00
-2768,18	1040,00
-2757,48	990,00
-2746,80	1067,00
-2736,13	919,00
-2725,48	1012,00
-2714,84	762,00
-2704,22	947,00
-2693,61	856,00
-2683,02	963,00
-2672,45	908,00
-2661,89	933,00
-2651,34	934,00
-2640,81	969,00
-2630,30	1012,00
-2619,80	910,00
-2609,31	947,00
-2598,84	862,00
-2588,39	949,00
-2577,95	897,00
-2567,52	818,00
-2557,11	915,00
-2546,71	856,00
-2536,33	1113,00
-2525,97	951,00
-2515,62	954,00
-2505,28	1010,00
-2494,96	966,00
-2484,65	1055,00
-2474,36	1339,00
-2464,08	879,00
-2453,82	1042,00
-2443,57	911,00
-2433,33	926,00
-2423,11	1006,00
-2412,91	1012,00
-2402,72	870,00
-2392,54	908,00
-2382,38	926,00
-2372,23	1009,00
-2362,09	2023,00
-2351,97	946,00
-2341,87	822,00
-2331,78	974,00
-2321,70	1024,00
-2311,64	906,00
-2301,59	872,00
-2291,55	898,00
-2281,53	912,00
-2271,53	838,00
-2261,53	1047,00
-2251,55	973,00
-2241,59	893,00
-2231,64	877,00
-2221,70	915,00
-2211,78	1008,00
-2201,87	970,00
-2191,97	1030,00
-2182,09	907,00
-2172,22	994,00
-2162,37	899,00
-2152,53	821,00
-2142,70	871,00
-2132,89	944,00
-2123,09	980,00
-2113,30	951,00
-2103,53	879,00
-2093,77	929,00
-2084,02	872,00
-2074,29	1049,00
-2064,57	881,00
-2054,86	985,00
-2045,17	1099,00
-2035,49	961,00
-2025,82	832,00
-2016,17	860,00
-2006,53	833,00
-1996,91	975,00
-1987,29	961,00
-1977,69	947,00
-1968,11	857,00
-1958,53	898,00
-1948,97	878,00
-1939,42	905,00
-1929,89	841,00
-1920,37	919,00
-1910,86	845,00
-1901,36	923,00
-1891,88	873,00
-1882,41	986,00
-1872,95	1018,00
-1863,51	968,00
-1854,08	896,00
-1844,66	972,00
-1835,26	1027,00
-1825,86	957,00
-1816,48	859,00
-1807,11	980,00
-1797,76	940,00
-1788,42	996,00
-1779,09	913,00
-1769,77	941,00
-1760,47	1098,00
-1751,17	864,00
-1741,89	930,00
-1732,63	919,00
-1723,37	1121,00
-1714,13	989,00
-1704,90	923,00
-1695,68	1168,00
-1686,48	835,00
-1677,29	873,00
-1668,11	1088,00
-1658,94	904,00
-1649,78	935,00
-1640,64	968,00
-1631,51	972,00
-1622,39	1045,00
-1613,28	956,00
-1604,19	1065,00
-1595,10	1015,00
-1586,03	847,00
-1576,97	1013,00
-1567,93	897,00
-1558,89	1020,00
-1549,87	989,00
-1540,86	845,00
-1531,86	910,00
-1522,87	886,00
-1513,90	1036,00
-1504,93	979,00
-1495,98	1120,00
-1487,04	1098,00
-1478,12	944,00
-1469,20	937,00
-1460,30	1026,00
-1451,40	1033,00
-1442,52	1024,00
-1433,65	1004,00
-1424,80	927,00
-1415,95	851,00
-1407,12	1135,00
-1398,30	881,00
-1389,48	930,00
-1380,69	880,00
-1371,90	911,00
-1363,12	1017,00
-1354,36	1142,00
-1345,60	910,00
-1336,86	1009,00
-1328,13	1093,00
-1319,41	997,00
-1310,70	949,00
-1302,01	853,00
-1293,32	870,00
-1284,65	892,00
-1275,99	951,00
-1267,33	1111,00
-1258,69	1011,00
-1250,06	954,00
-1241,45	918,00
-1232,84	1142,00
-1224,25	1011,00
-1215,66	1020,00
-1207,09	965,00
-1198,53	941,00
-1189,97	937,00
-1181,43	820,00
-1172,91	992,00
-1164,39	1124,00
-1155,88	797,00
-1147,38	836,00
-1138,90	942,00
-1130,43	920,00
-1121,96	935,00
-1113,51	894,00
-1105,07	974,00
-1096,64	1025,00
-1088,22	927,00
-1079,81	959,00
-1071,41	1013,00
-1063,02	861,00
-1054,65	1026,00
-1046,28	883,00
-1037,92	993,00
-1029,58	924,00
-1021,24	1044,00
-1012,92	1307,00
-1004,61	930,00
-996,30	1324,00
-988,01	874,00
-979,73	928,00
-971,46	988,00
-963,20	915,00
-954,95	845,00
-946,71	957,00
-938,48	968,00
-930,26	999,00
-922,06	1005,00
-913,86	989,00
-905,67	811,00
-897,49	979,00
-889,33	767,00
-881,17	1060,00
-873,02	916,00
-864,89	825,00
-856,76	898,00
-848,65	1022,00
-840,54	1064,00
-832,45	979,00
-824,36	858,00
-816,29	941,00
-808,22	1075,00
-800,17	969,00
-792,12	973,00
-784,09	1013,00
-776,06	842,00
-768,05	1012,00
-760,04	914,00
-752,05	897,00
-744,07	903,00
-736,09	1057,00
-728,13	828,00
-720,17	940,00
-712,23	915,00
-704,29	853,00
-696,37	980,00
-688,45	1046,00
-680,55	925,00
-672,65	974,00
-664,77	892,00
-656,89	981,00
-649,03	857,00
-641,17	975,00
-633,32	976,00
-625,49	1023,00
-617,66	959,00
-609,84	980,00
-602,03	804,00
-594,23	916,00
-586,45	946,00
-578,67	897,00
-570,90	938,00
-563,14	827,00
-555,39	944,00
-547,65	963,00
-539,91	970,00
-532,19	1010,00
-524,48	994,00
-516,78	900,00
-509,08	990,00
-501,40	903,00
-493,72	943,00
-486,06	925,00
-478,40	1043,00
-470,76	845,00
-463,12	889,00
-455,49	945,00
-447,87	912,00
-440,26	887,00
-432,66	869,00
-425,07	1045,00
-417,49	973,00
-409,92	834,00
-402,35	848,00
-394,80	859,00
-387,25	964,00
-379,72	997,00
-372,19	973,00
-364,67	1019,00
-357,17	865,00
-349,67	966,00
-342,18	848,00
-334,69	965,00
-327,22	948,00
-319,76	935,00
-312,30	1080,00
-304,86	806,00
-297,42	983,00
-290,00	983,00
-282,58	898,00
-275,17	1024,00
-267,77	1092,00
-260,37	885,00
-252,99	1092,00
-245,62	1055,00
-238,25	1014,00
-230,90	897,00
-223,55	1177,00
-216,21	987,00
-208,88	1203,00
-201,56	1007,00
-194,25	1032,00
-186,94	1039,00
-179,65	1105,00
-172,36	1145,00
-165,08	1151,00
-157,81	1226,00
-150,55	1232,00
-143,30	1344,00
-136,06	1364,00
-128,82	1342,00
-121,60	1310,00
-114,38	1496,00
-107,17	1529,00
-99,97	1819,00
-92,78	1657,00
-85,60	1888,00
-78,42	2021,00
-71,25	2208,00
-64,10	2358,00
-56,95	2691,00
-49,81	2943,00
-42,67	3544,00
-35,55	4108,00
-28,43	5288,00
-21,33	8055,00
-14,23	24970,00
-7,14	57498,00
-0,05	57284,00
7,02	57012,00
14,09	57319,00
21,14	21158,00
28,19	9469,00
35,23	6243,00
42,27	5103,00
49,29	4350,00
56,31	3656,00
63,32	3368,00
70,32	2883,00
77,31	2630,00
84,29	2236,00
91,27	2216,00
98,23	2156,00
105,19	2075,00
112,14	2259,00
119,09	3073,00
126,02	4319,00
132,95	5002,00
139,87	5150,00
146,78	5214,00
153,68	5019,00
160,58	4850,00
167,46	4785,00
174,34	4866,00
181,21	4914,00
188,08	4743,00
194,93	4764,00
201,78	4848,00
208,62	4832,00
215,45	4835,00
222,27	4809,00
229,09	4775,00
235,90	4606,00
242,70	4717,00
249,49	4757,00
256,27	4525,00
263,05	4412,00
269,82	4341,00
276,58	4403,00
283,33	4294,00
290,08	4270,00
296,82	4145,00
303,55	4028,00
310,27	3874,00
316,98	4068,00
323,69	3966,00
330,39	3964,00
337,08	4097,00
343,76	4050,00
350,44	4069,00
357,11	3957,00
363,77	3959,00
370,42	3897,00
377,07	4032,00
383,71	3978,00
390,34	3880,00
396,96	3893,00
403,58	3908,00
410,19	4116,00
416,79	4039,00
423,38	4257,00
429,97	4243,00
436,55	4068,00
443,12	4183,00
449,68	4236,00
456,24	4235,00
462,79	3917,00
469,33	3838,00
475,86	3784,00
482,39	3533,00
488,91	3568,00
495,42	3526,00
501,93	3463,00
508,42	3408,00
514,91	3422,00
521,40	3397,00
527,87	3406,00
534,34	3212,00
540,80	3345,00
547,25	3367,00
553,70	3311,00
560,14	3408,00
566,57	3392,00
573,00	3277,00
579,41	3560,00
585,83	3518,00
592,23	3553,00
598,62	3604,00
605,01	3522,00
611,40	3805,00
617,77	3763,00
624,14	3474,00
630,50	3385,00
636,85	3418,00
643,20	3201,00
649,54	3099,00
655,87	3172,00
662,20	3138,00
668,52	3162,00
674,83	3112,00
681,13	3031,00
687,43	3089,00
693,72	2976,00
700,00	2867,00
706,28	2920,00
712,55	3045,00
718,81	3125,00
725,07	2932,00
731,32	2984,00
737,56	3044,00
743,79	2876,00
750,02	2948,00
756,24	2810,00
762,46	2842,00
768,67	3141,00
774,87	2878,00
781,06	2842,00
787,25	2922,00
793,43	2899,00
799,60	2781,00
805,77	3011,00
811,93	2894,00
818,08	2830,00
824,23	2815,00
830,37	3054,00
836,50	2872,00
842,63	2962,00
848,75	2874,00
854,87	2956,00
860,97	2963,00
867,07	2882,00
873,17	2958,00
879,25	2913,00
885,33	2914,00
891,41	3014,00
897,47	2899,00
903,53	2867,00
909,59	2853,00
915,63	2784,00
921,67	2763,00
927,71	2840,00
933,74	2791,00
939,76	2583,00
945,77	2566,00
951,78	2807,00
957,78	2588,00
963,78	2744,00
969,77	2655,00
975,75	2653,00
981,72	2591,00
987,69	3966,00
993,66	2798,00
999,61	2840,00
1005,56	2746,00
1011,51	2709,00
1017,44	2709,00
1023,37	2730,00
1029,30	2730,00
1035,22	2805,00
1041,13	2740,00
1047,03	2964,00
1052,93	3440,00
1058,83	4891,00
1064,71	5297,00
1070,59	4436,00
1076,47	3759,00
1082,33	3551,00
1088,20	3389,00
1094,05	3086,00
1099,90	2807,00
1105,74	2891,00
1111,58	2916,00
1117,41	3256,00
1123,23	4088,00
1129,05	4955,00
1134,86	4547,00
1140,67	3645,00
1146,47	2982,00
1152,26	2882,00
1158,05	2703,00
1163,83	2897,00
1169,60	2931,00
1175,37	2917,00
1181,13	2754,00
1186,89	2570,00
1192,64	2569,00
1198,38	2806,00
1204,12	2534,00
1209,85	2533,00
1215,58	2586,00
1221,30	2589,00
1227,02	2611,00
1232,72	2541,00
1238,43	2568,00
1244,12	2572,00
1249,81	2553,00
1255,50	2808,00
1261,17	2681,00
1266,85	2743,00
1272,51	2826,00
1278,17	2951,00
1283,83	3276,00
1289,47	4623,00
1295,12	6191,00
1300,75	5612,00
1306,38	4419,00
1312,01	3525,00
1317,63	3219,00
1323,24	2895,00
1328,85	2879,00
1334,45	2694,00
1340,04	2608,00
1345,63	2637,00
1351,22	2810,00
1356,80	2656,00
1362,37	2795,00
1367,93	2853,00
1373,49	2915,00
1379,05	2645,00
1384,60	2628,00
1390,14	2731,00
1395,68	2784,00
1401,21	2824,00
1406,74	2959,00
1412,26	3450,00
1417,77	4104,00
1423,28	4064,00
1428,78	4494,00
1434,28	5476,00
1439,77	6249,00
1445,26	6039,00
1450,74	5629,00
1456,22	5260,00
1461,68	5010,00
1467,15	4701,00
1472,61	3993,00
1478,06	3571,00
1483,51	3245,00
1488,95	2845,00
1494,38	2754,00
1499,81	2517,00
1505,24	2496,00
1510,65	2551,00
1516,07	2466,00
1521,48	2411,00
1526,88	2272,00
1532,27	2422,00
1537,67	2401,00
1543,05	2334,00
1548,43	2275,00
1553,81	2404,00
1559,18	2181,00
1564,54	2281,00
1569,90	2185,00
1575,25	2158,00
1580,60	2059,00
1585,94	2239,00
1591,28	2155,00
1596,61	2043,00
1601,93	2172,00
1607,25	2240,00
1612,57	2196,00
1617,88	2247,00
1623,18	2168,00
1628,48	2146,00
1633,77	2194,00
1639,06	2227,00
1644,34	2017,00
1649,62	1991,00
1654,89	2069,00
1660,16	2009,00
1665,42	2098,00
1670,67	1933,00
1675,92	1905,00
1681,17	2022,00
1686,41	1995,00
1691,64	2071,00
1696,87	2101,00
1702,10	1993,00
1707,32	1925,00
1712,53	1938,00
1717,74	1963,00
1722,94	2014,00
1728,14	1857,00
1733,33	1927,00
1738,52	1854,00
1743,70	1896,00
1748,88	1858,00
1754,05	1977,00
1759,22	1793,00
1764,38	1038,00
1769,53	1912,00
1774,69	1936,00
1779,83	1759,00
1784,97	1799,00
1790,11	1829,00
1795,24	1756,00
1800,36	1798,00
1805,48	1711,00
1810,60	1819,00
1815,71	1737,00
1820,82	1706,00
1825,92	1862,00
1831,01	1762,00
1836,10	1756,00
1841,19	1785,00
1846,26	1653,00
1851,34	1829,00
1856,41	1839,00
1861,47	1675,00
1866,53	1753,00
1871,59	1748,00
1876,64	1709,00
1881,68	1648,00
1886,72	1762,00
1891,76	1607,00
1896,79	1641,00
1901,81	1589,00
1906,83	1660,00
1911,85	1572,00
1916,86	1658,00
1921,86	1586,00
1926,86	1589,00
1931,86	1681,00
1936,85	1539,00
1941,83	1557,00
1946,81	1615,00
1951,79	1494,00
1956,76	1549,00
1961,72	1424,00
1966,68	1561,00
1971,64	1549,00
1976,59	1547,00
1981,54	1522,00
1986,48	1563,00
1991,42	1404,00
1996,35	1815,00
2001,27	1532,00
2006,20	1584,00
2011,11	1627,00
2016,03	1508,00
2020,93	1409,00
2025,84	1563,00
2030,73	1495,00
2035,63	1362,00
2040,52	1553,00
2045,40	1509,00
2050,28	1436,00
2055,15	1433,00
2060,02	1305,00
2064,89	1518,00
2069,75	1547,00
2074,60	1568,00
2079,46	1377,00
2084,30	1432,00
2089,14	1286,00
2093,98	1491,00
2098,81	1510,00
2103,64	1477,00
2108,46	1502,00
2113,28	1464,00
2118,09	1451,00
2122,90	1464,00
2127,70	1359,00
2132,50	1578,00
2137,30	1478,00
2142,09	1241,00
2146,87	1340,00
2151,66	1455,00
2156,43	1321,00
2161,20	1453,00
2165,97	1462,00
2170,73	1394,00
2175,49	1490,00
2180,24	1515,00
2184,99	1621,00
2189,74	1571,00
2194,48	1541,00
2199,21	1550,00
2203,94	1360,00
2208,67	1300,00
2213,39	1296,00
2218,11	1382,00
2222,82	1349,00
2227,53	1421,00
2232,23	1423,00
2236,93	1511,00
2241,63	1445,00
2246,32	1393,00
2251,00	1477,00
2255,68	1387,00
2260,36	1454,00
2265,03	1392,00
2269,70	1528,00
2274,36	1304,00
2279,02	1338,00
2283,68	1471,00
2288,33	1322,00
2292,97	1435,00
2297,61	1374,00
2302,25	1462,00
2306,88	1360,00
2311,51	1266,00
2316,14	1362,00
2320,75	1230,00
2325,37	1235,00
2329,98	1374,00
2334,59	1269,00
2339,19	1345,00
2343,79	1200,00
2348,38	1324,00
2352,97	1233,00
2357,55	1338,00
2362,13	1234,00
2366,71	1197,00
2371,28	1395,00
2375,85	1329,00
2380,41	1278,00
2384,97	1243,00
2389,52	1264,00
2394,07	1305,00
2398,62	1290,00
2403,16	1367,00
2407,70	1158,00
2412,23	1217,00
2416,76	1362,00
2421,29	1419,00
2425,81	1414,00
2430,32	1345,00
2434,84	1193,00
2439,34	1187,00
2443,85	1402,00
2448,35	1301,00
2452,84	1247,00
2457,33	1309,00
2461,82	1096,00
2466,30	1136,00
2470,78	1278,00
2475,25	1253,00
2479,72	1298,00
2484,19	1262,00
2488,65	1275,00
2493,11	1205,00
2497,56	1391,00
2502,01	1119,00
2506,46	1341,00
2510,90	1205,00
2515,34	1241,00
2519,77	1236,00
2524,20	1239,00
2528,62	1269,00
2533,04	1276,00
2537,46	1233,00
2541,87	1236,00
2546,28	1236,00
2550,68	1361,00
2555,08	1372,00
2559,48	1230,00
2563,87	1150,00
2568,26	1129,00
2572,64	1328,00
2577,02	1329,00
2581,40	1136,00
2585,77	1211,00
2590,14	1294,00
2594,50	1185,00
2598,86	1327,00
2603,22	1268,00
2607,57	1250,00
2611,92	1301,00
2616,26	1370,00
2620,60	1314,00
2624,94	1185,00
2629,27	1346,00
2633,60	1225,00
2637,92	1463,00
2642,24	1338,00
2646,56	1266,00
2650,87	1185,00
2655,18	1373,00
2659,48	1232,00
2663,78	1226,00
2668,08	1198,00
2672,37	1594,00
2676,66	1248,00
2680,95	1258,00
2685,23	1340,00
2689,50	1310,00
2693,78	1301,00
2698,05	1298,00
2702,31	1373,00
2706,57	1474,00
2710,83	1562,00
2715,08	1533,00
2719,33	1684,00
2723,58	1529,00
2727,82	1635,00
2732,06	1545,00
2736,29	1555,00
2740,53	1481,00
2744,75	1423,00
2748,97	1414,00
2753,19	1430,00
2757,41	1474,00
2761,62	1417,00
2765,83	1403,00
2770,03	1369,00
2774,23	1481,00
2778,43	1382,00
2782,62	1489,00
2786,81	1473,00
2791,00	1559,00
2795,18	1514,00
2799,35	1592,00
2803,53	1599,00
2807,70	1718,00
2811,86	1606,00
2816,03	1903,00
2820,19	1911,00
2824,34	1907,00
2828,49	2048,00
2832,64	2441,00
2836,78	2808,00
2840,92	3237,00
2845,06	3773,00
2849,19	4242,00
2853,32	4434,00
2857,45	4311,00
2861,57	4226,00
2865,69	4162,00
2869,80	4073,00
2873,91	4173,00
2878,02	4800,00
2882,12	5074,00
2886,22	5162,00
2890,32	4818,00
2894,41	4479,00
2898,50	4133,00
2902,58	3885,00
2906,67	3554,00
2910,74	3396,00
2914,82	3130,00
2918,89	3119,00
2922,96	2756,00
2927,02	2648,00
2931,08	2503,00
2935,13	2394,00
2939,19	2317,00
2943,24	2083,00
2947,28	2159,00
2951,32	1890,00
2955,36	1720,00
2959,40	1850,00
2963,43	1640,00
2967,46	1532,00
2971,48	1515,00
2975,50	1452,00
2979,52	1479,00
2983,53	1449,00
2987,54	1396,00
2991,55	1330,00
2995,55	1303,00
2999,55	1207,00
3003,54	1189,00
3007,54	1310,00
3011,53	1237,00
3015,51	1288,00
3019,49	1291,00
3023,47	1109,00
3027,45	1265,00
3031,42	1118,00
3035,39	1072,00
3039,35	1188,00
3043,31	1187,00
3047,27	1123,00
3051,22	1145,00
3055,17	1041,00
3059,12	982,00
3063,06	1091,00
3067,00	955,00
3070,94	980,00
3074,87	1217,00
3078,80	1054,00
3082,73	1152,00
3086,65	1018,00
3090,57	983,00
3094,49	982,00
3098,40	1079,00
3102,31	1026,00
3106,22	1081,00
3110,12	1023,00
3114,02	935,00
3117,92	1043,00
3121,81	1061,00
3125,70	1069,00
3129,58	978,00
3133,47	847,00
3137,34	1081,00
3141,22	1140,00
3145,09	1110,00
3148,96	930,00
3152,83	1026,00
3156,69	1060,00
3160,55	1018,00
3164,40	1103,00
3168,26	998,00
3172,10	1114,00
3175,95	1088,00
3179,79	992,00
3183,63	1059,00
3187,47	1004,00
3191,30	1026,00
3195,13	1066,00
3198,95	895,00
3202,78	1037,00
3206,60	934,00
3210,41	954,00
3214,23	955,00
3218,03	1000,00
3221,84	938,00
3225,64	992,00
3229,44	890,00
3233,24	1004,00
3237,03	929,00
3240,82	945,00
3244,61	880,00
3248,39	982,00
3252,17	1008,00
3255,95	1125,00
3259,72	1087,00
3263,49	1172,00
3267,26	972,00
3271,03	941,00
3274,79	899,00
3278,54	1037,00
3282,30	901,00
3286,05	988,00
3289,80	1024,00
3293,54	952,00
3297,29	949,00
3301,02	978,00
3304,76	902,00
3308,49	1041,00
3312,22	890,00
3315,95	949,00
3319,67	935,00
3323,39	1134,00
3327,10	1019,00
3330,82	938,00
3334,53	902,00
3338,24	920,00
3341,94	905,00
3345,64	981,00
3349,34	969,00
3353,03	1009,00
3356,72	944,00
3360,41	960,00
3364,10	820,00
3367,78	962,00
3371,46	902,00
3375,13	931,00
3378,81	1024,00
3382,48	869,00
3386,14	977,00
3389,81	1081,00
3393,47	946,00
3397,12	1168,00
3400,78	1002,00
3404,43	919,00
3408,08	955,00
3411,72	923,00
3415,36	940,00
3419,00	940,00
3422,64	930,00
3426,27	968,00
3429,90	905,00
3433,53	969,00
3437,15	903,00
3440,77	851,00
3444,39	976,00
3448,00	895,00
3451,62	940,00
3455,22	956,00
3458,83	826,00
3462,43	948,00
3466,03	1014,00
3469,63	793,00
3473,22	809,00
3476,81	806,00
3480,40	973,00
3483,99	819,00
3487,57	947,00
3491,15	971,00
3494,72	981,00
3498,29	987,00
3501,86	873,00
3505,43	927,00
3508,99	860,00
3512,56	798,00
3516,11	913,00
3519,67	925,00
3523,22	900,00
3526,77	927,00
3530,32	1038,00
3533,86	941,00
3537,40	1045,00
3540,94	1045,00
3544,47	911,00
3548,00	846,00
3551,53	982,00
3555,06	849,00
3558,58	934,00
3562,10	892,00
3565,62	837,00
3569,13	952,00
3572,64	1073,00
3576,15	779,00
3579,66	882,00
3583,16	938,00
3586,66	948,00
3590,16	842,00
3593,65	858,00
3597,14	880,00
3600,63	881,00
3604,11	953,00
3607,60	833,00
3611,08	937,00
3614,55	860,00
3618,03	833,00
3621,50	837,00
3624,97	789,00
3628,43	907,00
3631,90	821,00
3635,36	790,00
3638,81	910,00
3642,27	789,00
3645,72	859,00
3649,17	837,00
3652,61	800,00
3656,06	921,00
3659,50	955,00
3662,93	886,00
3666,37	904,00
3669,80	1006,00
3673,23	929,00
3676,65	943,00
3680,08	990,00
3683,50	775,00
3686,92	778,00
3690,33	864,00
3693,74	856,00
3697,15	736,00
3700,56	910,00
3703,96	907,00
3707,36	839,00
3710,76	744,00
3714,16	803,00
3717,55	805,00
3720,94	791,00
3724,33	814,00
3727,71	868,00
3731,10	830,00
3734,48	853,00
3737,85	693,00
3741,23	769,00
3744,60	829,00
3747,97	728,00
3751,33	839,00
3754,69	772,00
3758,05	749,00
3761,41	734,00
3764,77	775,00
3768,12	744,00
3771,47	662,00
3774,82	879,00
3778,16	-8,00
3781,50	15,00
3784,84	4,00
3788,18	12,00
>>>>>End Processed Spectral Data<<<<<
