SpectraSuite Data File
++++++++++++++++++++++++++++++++++++
Date: Mon Jan 05 16:32:10 ICT 2026
User: Administrator
Dark Spectrum Present: Yes
Reference Spectrum Present: No
Number of Sampled Component Spectra: 1
Spectrometers: MAYP113682
Integration Time (usec): 3000000 (MAYP113682)
Spectra Averaged: 1 (MAYP113682)
Boxcar Smoothing: 0 (MAYP113682)
Correct for Electrical Dark: No (MAYP113682)
Strobe/Lamp Enabled: No (MAYP113682)
Correct for Detector Non-linearity: No (MAYP113682)
Correct for Stray Light: No (MAYP113682)
Number of Pixels in Processed Spectrum: 2068
>>>>>Begin Processed Spectral Data<<<<<
-37534,58	23,00
-37414,56	7,00
-37295,11	6,00
-37176,24	11,00
-37057,95	562,00
-36940,22	683,00
-36823,05	585,00
-36706,45	725,00
-36590,40	707,00
-36474,90	632,00
-36359,95	745,00
-36245,55	732,00
-36131,68	698,00
-36018,35	707,00
-35905,55	793,00
-35793,29	761,00
-35681,54	680,00
-35570,32	730,00
-35459,62	728,00
-35349,43	783,00
-35239,75	794,00
-35130,58	736,00
-35021,91	721,00
-34913,74	717,00
-34806,07	768,00
-34698,89	832,00
-34592,20	746,00
-34486,00	779,00
-34380,28	824,00
-34275,04	673,00
-34170,27	690,00
-34065,98	886,00
-33962,16	775,00
-33858,81	812,00
-33755,92	738,00
-33653,49	857,00
-33551,52	818,00
-33450,01	765,00
-33348,94	834,00
-33248,33	800,00
-33148,16	777,00
-33048,43	763,00
-32949,14	939,00
-32850,29	867,00
-32751,87	773,00
-32653,89	886,00
-32556,33	860,00
-32459,20	792,00
-32362,49	829,00
-32266,19	779,00
-32170,32	696,00
-32074,86	821,00
-31979,82	873,00
-31885,18	902,00
-31790,95	935,00
-31697,12	918,00
-31603,69	836,00
-31510,67	837,00
-31418,04	732,00
-31325,80	740,00
-31233,95	817,00
-31142,49	811,00
-31051,42	770,00
-30960,73	897,00
-30870,43	939,00
-30780,50	760,00
-30690,95	802,00
-30601,77	896,00
-30512,97	822,00
-30424,53	834,00
-30336,46	767,00
-30248,76	874,00
-30161,42	928,00
-30074,44	820,00
-29987,81	947,00
-29901,55	899,00
-29815,63	770,00
-29730,07	890,00
-29644,86	882,00
-29560,00	886,00
-29475,48	983,00
-29391,30	815,00
-29307,47	881,00
-29223,97	754,00
-29140,81	792,00
-29057,99	876,00
-28975,50	790,00
-28893,34	903,00
-28811,51	795,00
-28730,00	877,00
-28648,82	823,00
-28567,97	838,00
-28487,43	800,00
-28407,21	825,00
-28327,32	806,00
-28247,73	996,00
-28168,46	779,00
-28089,50	882,00
-28010,85	781,00
-27932,51	750,00
-27854,48	807,00
-27776,75	743,00
-27699,32	842,00
-27622,19	819,00
-27545,37	843,00
-27468,84	836,00
-27392,60	821,00
-27316,66	880,00
-27241,01	794,00
-27165,66	793,00
-27090,59	689,00
-27015,81	939,00
-26941,31	848,00
-26867,10	825,00
-26793,17	890,00
-26719,52	851,00
-26646,15	840,00
-26573,06	770,00
-26500,24	766,00
-26427,70	804,00
-26355,43	737,00
-26283,43	821,00
-26211,71	798,00
-26140,25	890,00
-26069,06	909,00
-25998,13	782,00
-25927,46	811,00
-25857,06	800,00
-25786,92	808,00
-25717,04	697,00
-25647,42	850,00
-25578,05	738,00
-25508,94	756,00
-25440,09	802,00
-25371,48	841,00
-25303,13	908,00
-25235,02	844,00
-25167,17	866,00
-25099,56	817,00
-25032,19	784,00
-24965,07	672,00
-24898,20	734,00
-24831,56	793,00
-24765,17	797,00
-24699,01	674,00
-24633,10	856,00
-24567,41	879,00
-24501,97	861,00
-24436,75	822,00
-24371,77	757,00
-24307,03	848,00
-24242,51	849,00
-24178,22	782,00
-24114,16	813,00
-24050,32	873,00
-23986,71	861,00
-23923,32	826,00
-23860,16	828,00
-23797,22	814,00
-23734,50	814,00
-23672,00	743,00
-23609,71	812,00
-23547,65	720,00
-23485,80	881,00
-23424,16	716,00
-23362,74	947,00
-23301,53	849,00
-23240,54	655,00
-23179,75	666,00
-23119,17	758,00
-23058,80	809,00
-22998,64	864,00
-22938,68	787,00
-22878,93	855,00
-22819,39	695,00
-22760,04	743,00
-22700,90	733,00
-22641,96	717,00
-22583,22	794,00
-22524,68	800,00
-22466,33	823,00
-22408,19	796,00
-22350,23	739,00
-22292,48	801,00
-22234,92	802,00
-22177,55	818,00
-22120,37	1062,00
-22063,38	739,00
-22006,58	762,00
-21949,98	809,00
-21893,56	695,00
-21837,33	834,00
-21781,28	795,00
-21725,42	813,00
-21669,74	890,00
-21614,25	798,00
-21558,94	797,00
-21503,81	908,00
-21448,86	828,00
-21394,10	747,00
-21339,51	715,00
-21285,10	675,00
-21230,86	715,00
-21176,81	795,00
-21122,93	701,00
-21069,22	728,00
-21015,69	785,00
-20962,33	826,00
-20909,14	737,00
-20856,13	796,00
-20803,28	857,00
-20750,61	758,00
-20698,10	677,00
-20645,76	731,00
-20593,59	891,00
-20541,59	759,00
-20489,75	892,00
-20438,07	677,00
-20386,56	864,00
-20335,22	781,00
-20284,03	857,00
-20233,01	720,00
-20182,15	720,00
-20131,45	816,00
-20080,91	696,00
-20030,52	846,00
-19980,30	798,00
-19930,23	715,00
-19880,32	825,00
-19830,56	849,00
-19780,96	783,00
-19731,52	769,00
-19682,23	842,00
-19633,09	791,00
-19584,10	751,00
-19535,26	812,00
-19486,58	945,00
-19438,04	767,00
-19389,66	898,00
-19341,42	734,00
-19293,33	790,00
-19245,39	808,00
-19197,60	829,00
-19149,95	838,00
-19102,45	823,00
-19055,09	666,00
-19007,87	883,00
-18960,80	838,00
-18913,87	751,00
-18867,09	723,00
-18820,44	882,00
-18773,94	814,00
-18727,57	842,00
-18681,35	724,00
-18635,26	781,00
-18589,31	765,00
-18543,50	755,00
-18497,83	806,00
-18452,29	845,00
-18406,89	682,00
-18361,63	957,00
-18316,50	807,00
-18271,50	720,00
-18226,63	937,00
-18181,90	752,00
-18137,30	818,00
-18092,84	822,00
-18048,50	830,00
-18004,29	747,00
-17960,22	741,00
-17916,27	722,00
-17872,45	839,00
-17828,76	879,00
-17785,20	884,00
-17741,77	846,00
-17698,46	919,00
-17655,28	747,00
-17612,22	813,00
-17569,29	743,00
-17526,48	798,00
-17483,79	821,00
-17441,23	680,00
-17398,79	727,00
-17356,48	711,00
-17314,28	930,00
-17272,21	807,00
-17230,26	843,00
-17188,42	808,00
-17146,71	731,00
-17105,12	668,00
-17063,64	816,00
-17022,28	710,00
-16981,04	744,00
-16939,92	859,00
-16898,91	930,00
-16858,02	740,00
-16817,25	785,00
-16776,59	789,00
-16736,04	728,00
-16695,61	776,00
-16655,29	762,00
-16615,09	713,00
-16574,99	763,00
-16535,01	802,00
-16495,15	816,00
-16455,39	741,00
-16415,74	722,00
-16376,21	750,00
-16336,78	731,00
-16297,46	827,00
-16258,26	773,00
-16219,16	815,00
-16180,17	752,00
-16141,28	770,00
-16102,51	878,00
-16063,84	673,00
-16025,27	827,00
-15986,82	774,00
-15948,46	786,00
-15910,22	823,00
-15872,07	704,00
-15834,04	816,00
-15796,10	712,00
-15758,27	942,00
-15720,54	817,00
-15682,91	842,00
-15645,39	905,00
-15607,97	843,00
-15570,64	697,00
-15533,42	866,00
-15496,30	758,00
-15459,28	834,00
-15422,36	752,00
-15385,54	733,00
-15348,82	804,00
-15312,19	881,00
-15275,66	749,00
-15239,23	828,00
-15202,90	813,00
-15166,67	752,00
-15130,53	939,00
-15094,48	811,00
-15058,54	738,00
-15022,68	678,00
-14986,93	790,00
-14951,26	745,00
-14915,69	893,00
-14880,22	758,00
-14844,84	814,00
-14809,55	819,00
-14774,35	756,00
-14739,25	747,00
-14704,24	853,00
-14669,32	780,00
-14634,49	758,00
-14599,75	906,00
-14565,10	766,00
-14530,55	813,00
-14496,08	753,00
-14461,70	809,00
-14427,41	716,00
-14393,21	604,00
-14359,10	715,00
-14325,07	815,00
-14291,14	794,00
-14257,29	838,00
-14223,52	800,00
-14189,85	882,00
-14156,26	800,00
-14122,76	713,00
-14089,34	777,00
-14056,01	825,00
-14022,76	765,00
-13989,60	773,00
-13956,52	911,00
-13923,53	834,00
-13890,62	711,00
-13857,79	814,00
-13825,05	726,00
-13792,39	749,00
-13759,81	815,00
-13727,31	737,00
-13694,90	824,00
-13662,57	916,00
-13630,31	846,00
-13598,14	771,00
-13566,05	713,00
-13534,05	782,00
-13502,12	811,00
-13470,27	755,00
-13438,50	789,00
-13406,80	705,00
-13375,19	737,00
-13343,66	783,00
-13312,20	787,00
-13280,83	743,00
-13249,53	763,00
-13218,30	772,00
-13187,16	675,00
-13156,09	954,00
-13125,10	842,00
-13094,18	808,00
-13063,34	834,00
-13032,58	671,00
-13001,89	783,00
-12971,28	784,00
-12940,74	812,00
-12910,27	830,00
-12879,88	843,00
-12849,57	936,00
-12819,33	838,00
-12789,16	827,00
-12759,06	871,00
-12729,04	792,00
-12699,09	2131,00
-12669,21	799,00
-12639,41	864,00
-12609,68	761,00
-12580,02	830,00
-12550,43	882,00
-12520,91	743,00
-12491,46	729,00
-12462,08	652,00
-12432,77	817,00
-12403,54	767,00
-12374,37	737,00
-12345,27	945,00
-12316,24	776,00
-12287,29	791,00
-12258,40	759,00
-12229,57	880,00
-12200,82	747,00
-12172,14	797,00
-12143,52	608,00
-12114,97	732,00
-12086,49	887,00
-12058,07	856,00
-12029,73	808,00
-12001,44	928,00
-11973,23	782,00
-11945,08	769,00
-11917,00	852,00
-11888,98	698,00
-11861,03	865,00
-11833,15	734,00
-11805,32	894,00
-11777,57	845,00
-11749,88	877,00
-11722,25	721,00
-11694,69	705,00
-11667,19	802,00
-11639,75	960,00
-11612,38	755,00
-11585,07	749,00
-11557,83	791,00
-11530,65	980,00
-11503,53	695,00
-11476,47	787,00
-11449,48	799,00
-11422,54	913,00
-11395,67	780,00
-11368,86	874,00
-11342,11	703,00
-11315,43	752,00
-11288,80	727,00
-11262,23	793,00
-11235,73	809,00
-11209,28	959,00
-11182,90	789,00
-11156,57	838,00
-11130,31	957,00
-11104,10	858,00
-11077,96	774,00
-11051,87	834,00
-11025,84	747,00
-10999,87	808,00
-10973,96	742,00
-10948,11	730,00
-10922,31	890,00
-10896,58	872,00
-10870,90	895,00
-10845,28	803,00
-10819,71	726,00
-10794,20	797,00
-10768,75	819,00
-10743,36	829,00
-10718,02	725,00
-10692,74	869,00
-10667,52	756,00
-10642,35	742,00
-10617,24	853,00
-10592,18	905,00
-10567,18	798,00
-10542,23	862,00
-10517,34	880,00
-10492,51	981,00
-10467,72	836,00
-10443,00	858,00
-10418,32	930,00
-10393,70	937,00
-10369,14	906,00
-10344,63	831,00
-10320,17	923,00
-10295,77	949,00
-10271,42	810,00
-10247,12	936,00
-10222,88	960,00
-10198,68	877,00
-10174,54	920,00
-10150,46	1182,00
-10126,42	1114,00
-10102,44	923,00
-10078,51	1004,00
-10054,63	1096,00
-10030,80	1044,00
-10007,03	1173,00
-9983,30	1040,00
-9959,63	1159,00
-9936,01	1287,00
-9912,44	1170,00
-9888,92	1141,00
-9865,44	1110,00
-9842,02	1105,00
-9818,65	1275,00
-9795,33	1083,00
-9772,06	1216,00
-9748,84	1184,00
-9725,67	1310,00
-9702,55	1366,00
-9679,47	1549,00
-9656,45	1664,00
-9633,47	1484,00
-9610,55	1570,00
-9587,67	1775,00
-9564,84	1980,00
-9542,06	1921,00
-9519,32	2176,00
-9496,64	2272,00
-9474,00	2111,00
-9451,41	2225,00
-9428,87	2323,00
-9406,37	2263,00
-9383,92	2161,00
-9361,52	2014,00
-9339,17	2369,00
-9316,86	2487,00
-9294,60	2817,00
-9272,38	3066,00
-9250,21	3393,00
-9228,09	3411,00
-9206,01	3352,00
-9183,98	3174,00
-9162,00	2778,00
-9140,06	2970,00
-9118,16	2747,00
-9096,31	3030,00
-9074,51	3186,00
-9052,75	3229,00
-9031,04	3069,00
-9009,37	2799,00
-8987,74	2752,00
-8966,16	2473,00
-8944,63	2305,00
-8923,14	2297,00
-8901,69	2159,00
-8880,29	2266,00
-8858,93	2557,00
-8837,61	2694,00
-8816,34	2770,00
-8795,11	2874,00
-8773,92	2609,00
-8752,78	2569,00
-8731,68	2215,00
-8710,62	2545,00
-8689,61	2423,00
-8668,63	2562,00
-8647,70	2744,00
-8626,82	2729,00
-8605,97	2795,00
-8585,17	2494,00
-8564,41	2267,00
-8543,69	2180,00
-8523,01	2050,00
-8502,37	2296,00
-8481,78	2363,00
-8461,23	2325,00
-8440,71	2546,00
-8420,24	2617,00
-8399,81	2792,00
-8379,42	2593,00
-8359,08	2595,00
-8338,77	2231,00
-8318,50	2098,00
-8298,27	1976,00
-8278,09	2315,00
-8257,94	2364,00
-8237,83	2588,00
-8217,76	2546,00
-8197,74	2575,00
-8177,75	2673,00
-8157,80	2308,00
-8137,89	2216,00
-8118,02	2009,00
-8098,19	2098,00
-8078,40	2185,00
-8058,65	2128,00
-8038,93	2202,00
-8019,26	2190,00
-7999,62	2207,00
-7980,02	1942,00
-7960,46	1871,00
-7940,94	1817,00
-7921,46	1798,00
-7902,01	1848,00
-7882,60	1951,00
-7863,23	1888,00
-7843,90	1943,00
-7824,61	1997,00
-7805,35	2093,00
-7786,13	2026,00
-7766,95	2084,00
-7747,80	2007,00
-7728,69	2025,00
-7709,62	1996,00
-7690,59	1922,00
-7671,59	2193,00
-7652,63	2019,00
-7633,70	2005,00
-7614,81	2173,00
-7595,96	1952,00
-7577,15	1857,00
-7558,37	1764,00
-7539,62	1899,00
-7520,91	1929,00
-7502,24	1957,00
-7483,60	1963,00
-7465,00	1928,00
-7446,44	1859,00
-7427,91	1584,00
-7409,41	1460,00
-7390,95	1543,00
-7372,53	1483,00
-7354,14	1433,00
-7335,78	1463,00
-7317,46	1562,00
-7299,18	1513,00
-7280,92	1689,00
-7262,71	1954,00
-7244,52	1916,00
-7226,38	1893,00
-7208,26	1825,00
-7190,18	1728,00
-7172,14	1632,00
-7154,12	1722,00
-7136,15	1703,00
-7118,20	1901,00
-7100,29	2016,00
-7082,41	1935,00
-7064,57	1786,00
-7046,76	1727,00
-7028,98	1498,00
-7011,24	1561,00
-6993,53	1206,00
-6975,85	1339,00
-6958,20	1225,00
-6940,59	1312,00
-6923,01	1117,00
-6905,46	1497,00
-6887,94	1395,00
-6870,46	-421,00
-6853,01	1836,00
-6835,59	1635,00
-6818,21	1528,00
-6800,85	1543,00
-6783,53	1306,00
-6766,24	1145,00
-6748,98	1091,00
-6731,76	1080,00
-6714,56	1087,00
-6697,40	1062,00
-6680,26	993,00
-6663,16	1203,00
-6646,09	1409,00
-6629,05	1410,00
-6612,05	1470,00
-6595,07	1408,00
-6578,13	1506,00
-6561,21	1273,00
-6544,33	1274,00
-6527,47	992,00
-6510,65	1035,00
-6493,86	854,00
-6477,10	984,00
-6460,36	1056,00
-6443,66	1017,00
-6426,99	949,00
-6410,35	949,00
-6393,74	1087,00
-6377,16	1104,00
-6360,61	1204,00
-6344,09	1079,00
-6327,59	1124,00
-6311,13	1302,00
-6294,70	1176,00
-6278,29	1229,00
-6261,92	1234,00
-6245,58	1363,00
-6229,26	1397,00
-6212,97	1407,00
-6196,72	1159,00
-6180,49	1095,00
-6164,29	891,00
-6148,12	1000,00
-6131,98	967,00
-6115,86	841,00
-6099,78	852,00
-6083,72	849,00
-6067,69	885,00
-6051,69	801,00
-6035,72	952,00
-6019,78	948,00
-6003,87	1152,00
-5987,98	1153,00
-5972,12	1268,00
-5956,29	1200,00
-5940,49	955,00
-5924,71	1164,00
-5908,96	938,00
-5893,24	895,00
-5877,55	981,00
-5861,89	1001,00
-5846,25	810,00
-5830,64	879,00
-5815,05	880,00
-5799,50	897,00
-5783,97	916,00
-5768,47	1030,00
-5752,99	1237,00
-5737,55	1015,00
-5722,12	1233,00
-5706,73	1146,00
-5691,36	1248,00
-5676,02	984,00
-5660,71	957,00
-5645,42	850,00
-5630,16	1044,00
-5614,92	1091,00
-5599,71	997,00
-5584,53	1034,00
-5569,37	997,00
-5554,24	2077,00
-5539,14	867,00
-5524,06	996,00
-5509,01	983,00
-5493,98	1000,00
-5478,98	1039,00
-5464,00	980,00
-5449,05	914,00
-5434,13	889,00
-5419,23	858,00
-5404,36	892,00
-5389,51	1027,00
-5374,69	1136,00
-5359,89	1179,00
-5345,12	1242,00
-5330,37	1238,00
-5315,65	1136,00
-5300,95	1019,00
-5286,28	966,00
-5271,63	834,00
-5257,01	940,00
-5242,41	1036,00
-5227,84	881,00
-5213,29	795,00
-5198,76	857,00
-5184,26	915,00
-5169,79	891,00
-5155,33	933,00
-5140,91	1000,00
-5126,51	961,00
-5112,13	997,00
-5097,77	1015,00
-5083,44	1016,00
-5069,13	885,00
-5054,85	974,00
-5040,59	932,00
-5026,36	1019,00
-5012,15	1048,00
-4997,96	1017,00
-4983,80	982,00
-4969,66	825,00
-4955,54	800,00
-4941,44	955,00
-4927,37	1001,00
-4913,33	1098,00
-4899,30	1257,00
-4885,30	1134,00
-4871,33	903,00
-4857,37	930,00
-4843,44	801,00
-4829,53	924,00
-4815,65	1019,00
-4801,79	797,00
-4787,95	1010,00
-4774,13	902,00
-4760,34	873,00
-4746,56	945,00
-4732,82	819,00
-4719,09	949,00
-4705,38	1115,00
-4691,70	1100,00
-4678,04	1259,00
-4664,41	1129,00
-4650,79	1109,00
-4637,20	895,00
-4623,63	955,00
-4610,08	1024,00
-4596,56	937,00
-4583,05	849,00
-4569,57	924,00
-4556,11	967,00
-4542,67	804,00
-4529,25	854,00
-4515,86	927,00
-4502,49	1115,00
-4489,13	1124,00
-4475,80	1135,00
-4462,49	868,00
-4449,21	943,00
-4435,94	877,00
-4422,70	792,00
-4409,47	908,00
-4396,27	981,00
-4383,09	879,00
-4369,93	890,00
-4356,79	754,00
-4343,67	854,00
-4330,58	942,00
-4317,50	971,00
-4304,45	937,00
-4291,41	942,00
-4278,40	869,00
-4265,41	851,00
-4252,44	904,00
-4239,49	929,00
-4226,55	1017,00
-4213,65	859,00
-4200,76	930,00
-4187,89	857,00
-4175,04	716,00
-4162,21	753,00
-4149,40	881,00
-4136,61	816,00
-4123,85	729,00
-4111,10	864,00
-4098,37	964,00
-4085,66	881,00
-4072,98	951,00
-4060,31	805,00
-4047,66	884,00
-4035,04	1052,00
-4022,43	884,00
-4009,84	755,00
-3997,27	743,00
-3984,72	753,00
-3972,19	910,00
-3959,69	772,00
-3947,20	872,00
-3934,73	793,00
-3922,27	790,00
-3909,84	675,00
-3897,43	917,00
-3885,04	896,00
-3872,67	810,00
-3860,31	725,00
-3847,98	895,00
-3835,66	818,00
-3823,36	823,00
-3811,09	748,00
-3798,83	860,00
-3786,59	868,00
-3774,37	891,00
-3762,17	784,00
-3749,98	775,00
-3737,82	829,00
-3725,67	1031,00
-3713,55	761,00
-3701,44	822,00
-3689,35	835,00
-3677,28	935,00
-3665,22	793,00
-3653,19	733,00
-3641,17	791,00
-3629,18	809,00
-3617,20	881,00
-3605,24	852,00
-3593,30	834,00
-3581,37	795,00
-3569,47	897,00
-3557,58	764,00
-3545,71	826,00
-3533,86	881,00
-3522,02	763,00
-3510,21	760,00
-3498,41	765,00
-3486,63	737,00
-3474,87	771,00
-3463,12	839,00
-3451,40	864,00
-3439,69	817,00
-3428,00	756,00
-3416,33	802,00
-3404,67	748,00
-3393,03	806,00
-3381,41	853,00
-3369,81	855,00
-3358,22	867,00
-3346,66	980,00
-3335,10	897,00
-3323,57	760,00
-3312,06	801,00
-3300,56	956,00
-3289,08	792,00
-3277,61	764,00
-3266,16	859,00
-3254,73	765,00
-3243,32	751,00
-3231,92	733,00
-3220,55	862,00
-3209,18	968,00
-3197,84	774,00
-3186,51	695,00
-3175,20	814,00
-3163,90	770,00
-3152,63	865,00
-3141,36	838,00
-3130,12	784,00
-3118,89	822,00
-3107,68	795,00
-3096,49	864,00
-3085,31	840,00
-3074,15	801,00
-3063,00	844,00
-3051,87	820,00
-3040,76	770,00
-3029,67	964,00
-3018,59	985,00
-3007,52	951,00
-2996,48	872,00
-2985,44	872,00
-2974,43	848,00
-2963,43	712,00
-2952,45	856,00
-2941,48	781,00
-2930,53	823,00
-2919,60	718,00
-2908,68	729,00
-2897,78	774,00
-2886,89	894,00
-2876,02	791,00
-2865,17	811,00
-2854,33	787,00
-2843,50	793,00
-2832,70	851,00
-2821,90	782,00
-2811,13	875,00
-2800,37	794,00
-2789,62	723,00
-2778,89	871,00
-2768,18	893,00
-2757,48	791,00
-2746,80	855,00
-2736,13	850,00
-2725,48	795,00
-2714,84	658,00
-2704,22	781,00
-2693,61	779,00
-2683,02	907,00
-2672,45	843,00
-2661,89	828,00
-2651,34	850,00
-2640,81	834,00
-2630,30	894,00
-2619,80	820,00
-2609,31	884,00
-2598,84	729,00
-2588,39	846,00
-2577,95	806,00
-2567,52	709,00
-2557,11	750,00
-2546,71	853,00
-2536,33	883,00
-2525,97	808,00
-2515,62	826,00
-2505,28	824,00
-2494,96	809,00
-2484,65	839,00
-2474,36	1106,00
-2464,08	717,00
-2453,82	870,00
-2443,57	836,00
-2433,33	702,00
-2423,11	948,00
-2412,91	924,00
-2402,72	711,00
-2392,54	904,00
-2382,38	836,00
-2372,23	983,00
-2362,09	1833,00
-2351,97	822,00
-2341,87	777,00
-2331,78	823,00
-2321,70	827,00
-2311,64	808,00
-2301,59	833,00
-2291,55	784,00
-2281,53	842,00
-2271,53	713,00
-2261,53	887,00
-2251,55	826,00
-2241,59	805,00
-2231,64	741,00
-2221,70	783,00
-2211,78	847,00
-2201,87	917,00
-2191,97	776,00
-2182,09	748,00
-2172,22	898,00
-2162,37	760,00
-2152,53	717,00
-2142,70	788,00
-2132,89	805,00
-2123,09	835,00
-2113,30	804,00
-2103,53	781,00
-2093,77	836,00
-2084,02	884,00
-2074,29	932,00
-2064,57	797,00
-2054,86	895,00
-2045,17	908,00
-2035,49	822,00
-2025,82	774,00
-2016,17	828,00
-2006,53	797,00
-1996,91	853,00
-1987,29	808,00
-1977,69	873,00
-1968,11	764,00
-1958,53	792,00
-1948,97	799,00
-1939,42	823,00
-1929,89	796,00
-1920,37	754,00
-1910,86	742,00
-1901,36	809,00
-1891,88	851,00
-1882,41	860,00
-1872,95	868,00
-1863,51	879,00
-1854,08	852,00
-1844,66	859,00
-1835,26	906,00
-1825,86	834,00
-1816,48	718,00
-1807,11	820,00
-1797,76	809,00
-1788,42	844,00
-1779,09	788,00
-1769,77	721,00
-1760,47	952,00
-1751,17	818,00
-1741,89	780,00
-1732,63	854,00
-1723,37	921,00
-1714,13	886,00
-1704,90	852,00
-1695,68	988,00
-1686,48	757,00
-1677,29	794,00
-1668,11	974,00
-1658,94	826,00
-1649,78	806,00
-1640,64	819,00
-1631,51	767,00
-1622,39	840,00
-1613,28	804,00
-1604,19	918,00
-1595,10	870,00
-1586,03	756,00
-1576,97	814,00
-1567,93	796,00
-1558,89	836,00
-1549,87	896,00
-1540,86	757,00
-1531,86	868,00
-1522,87	709,00
-1513,90	908,00
-1504,93	813,00
-1495,98	874,00
-1487,04	871,00
-1478,12	718,00
-1469,20	844,00
-1460,30	855,00
-1451,40	959,00
-1442,52	854,00
-1433,65	972,00
-1424,80	807,00
-1415,95	780,00
-1407,12	1043,00
-1398,30	827,00
-1389,48	797,00
-1380,69	803,00
-1371,90	768,00
-1363,12	815,00
-1354,36	927,00
-1345,60	804,00
-1336,86	860,00
-1328,13	980,00
-1319,41	902,00
-1310,70	779,00
-1302,01	712,00
-1293,32	720,00
-1284,65	832,00
-1275,99	936,00
-1267,33	868,00
-1258,69	846,00
-1250,06	897,00
-1241,45	790,00
-1232,84	933,00
-1224,25	874,00
-1215,66	854,00
-1207,09	904,00
-1198,53	812,00
-1189,97	777,00
-1181,43	785,00
-1172,91	837,00
-1164,39	904,00
-1155,88	733,00
-1147,38	686,00
-1138,90	869,00
-1130,43	779,00
-1121,96	868,00
-1113,51	851,00
-1105,07	806,00
-1096,64	894,00
-1088,22	821,00
-1079,81	854,00
-1071,41	805,00
-1063,02	783,00
-1054,65	883,00
-1046,28	760,00
-1037,92	901,00
-1029,58	802,00
-1021,24	927,00
-1012,92	1121,00
-1004,61	937,00
-996,30	1034,00
-988,01	733,00
-979,73	819,00
-971,46	886,00
-963,20	816,00
-954,95	748,00
-946,71	820,00
-938,48	857,00
-930,26	908,00
-922,06	862,00
-913,86	793,00
-905,67	761,00
-897,49	938,00
-889,33	740,00
-881,17	885,00
-873,02	815,00
-864,89	749,00
-856,76	830,00
-848,65	894,00
-840,54	861,00
-832,45	779,00
-824,36	681,00
-816,29	933,00
-808,22	917,00
-800,17	893,00
-792,12	821,00
-784,09	930,00
-776,06	798,00
-768,05	851,00
-760,04	778,00
-752,05	776,00
-744,07	865,00
-736,09	879,00
-728,13	711,00
-720,17	840,00
-712,23	775,00
-704,29	761,00
-696,37	784,00
-688,45	936,00
-680,55	802,00
-672,65	780,00
-664,77	820,00
-656,89	756,00
-649,03	720,00
-641,17	932,00
-633,32	841,00
-625,49	866,00
-617,66	785,00
-609,84	858,00
-602,03	747,00
-594,23	849,00
-586,45	823,00
-578,67	780,00
-570,90	864,00
-563,14	738,00
-555,39	936,00
-547,65	871,00
-539,91	877,00
-532,19	807,00
-524,48	840,00
-516,78	831,00
-509,08	874,00
-501,40	798,00
-493,72	762,00
-486,06	771,00
-478,40	890,00
-470,76	710,00
-463,12	794,00
-455,49	764,00
-447,87	757,00
-440,26	824,00
-432,66	762,00
-425,07	849,00
-417,49	856,00
-409,92	651,00
-402,35	769,00
-394,80	755,00
-387,25	882,00
-379,72	900,00
-372,19	927,00
-364,67	815,00
-357,17	808,00
-349,67	897,00
-342,18	796,00
-334,69	932,00
-327,22	851,00
-319,76	866,00
-312,30	843,00
-304,86	889,00
-297,42	838,00
-290,00	857,00
-282,58	830,00
-275,17	891,00
-267,77	868,00
-260,37	870,00
-252,99	985,00
-245,62	922,00
-238,25	832,00
-230,90	785,00
-223,55	975,00
-216,21	932,00
-208,88	1049,00
-201,56	926,00
-194,25	947,00
-186,94	1015,00
-179,65	988,00
-172,36	1046,00
-165,08	1040,00
-157,81	1241,00
-150,55	1128,00
-143,30	1168,00
-136,06	1210,00
-128,82	1174,00
-121,60	1260,00
-114,38	1316,00
-107,17	1472,00
-99,97	1551,00
-92,78	1637,00
-85,60	1694,00
-78,42	1908,00
-71,25	2108,00
-64,10	2322,00
-56,95	2522,00
-49,81	2860,00
-42,67	3451,00
-35,55	3887,00
-28,43	5172,00
-21,33	8031,00
-14,23	24892,00
-7,14	57498,00
-0,05	57284,00
7,02	57012,00
14,09	57319,00
21,14	21210,00
28,19	9351,00
35,23	6234,00
42,27	5073,00
49,29	4160,00
56,31	3585,00
63,32	3355,00
70,32	2808,00
77,31	2434,00
84,29	2202,00
91,27	2147,00
98,23	2124,00
105,19	1938,00
112,14	2228,00
119,09	2989,00
126,02	4433,00
132,95	5070,00
139,87	5198,00
146,78	5367,00
153,68	5085,00
160,58	5145,00
167,46	4900,00
174,34	4951,00
181,21	4964,00
188,08	4905,00
194,93	5046,00
201,78	4922,00
208,62	5049,00
215,45	4955,00
222,27	4824,00
229,09	4983,00
235,90	4848,00
242,70	4675,00
249,49	4810,00
256,27	4659,00
263,05	4496,00
269,82	4483,00
276,58	4592,00
283,33	4388,00
290,08	4398,00
296,82	4383,00
303,55	4178,00
310,27	4151,00
316,98	4282,00
323,69	4086,00
330,39	4069,00
337,08	4207,00
343,76	4202,00
350,44	4188,00
357,11	4118,00
363,77	4105,00
370,42	4146,00
377,07	4084,00
383,71	4013,00
390,34	4062,00
396,96	4035,00
403,58	4049,00
410,19	4244,00
416,79	4223,00
423,38	4326,00
429,97	4377,00
436,55	4347,00
443,12	4396,00
449,68	4399,00
456,24	4251,00
462,79	4147,00
469,33	3911,00
475,86	3797,00
482,39	3693,00
488,91	3576,00
495,42	3635,00
501,93	3619,00
508,42	3572,00
514,91	3557,00
521,40	3510,00
527,87	3428,00
534,34	3364,00
540,80	3455,00
547,25	3538,00
553,70	3411,00
560,14	3441,00
566,57	3516,00
573,00	3435,00
579,41	3534,00
585,83	3491,00
592,23	3519,00
598,62	3668,00
605,01	3727,00
611,40	3742,00
617,77	3854,00
624,14	3503,00
630,50	3462,00
636,85	3360,00
643,20	3374,00
649,54	3176,00
655,87	3219,00
662,20	3254,00
668,52	3147,00
674,83	3210,00
681,13	3029,00
687,43	3070,00
693,72	3012,00
700,00	2948,00
706,28	2981,00
712,55	3104,00
718,81	3117,00
725,07	2914,00
731,32	3041,00
737,56	3029,00
743,79	3004,00
750,02	3073,00
756,24	2924,00
762,46	2991,00
768,67	3121,00
774,87	2926,00
781,06	2878,00
787,25	2996,00
793,43	2856,00
799,60	2898,00
805,77	3057,00
811,93	2866,00
818,08	3021,00
824,23	2883,00
830,37	3136,00
836,50	2910,00
842,63	2978,00
848,75	2956,00
854,87	2856,00
860,97	3084,00
867,07	2867,00
873,17	3026,00
879,25	2943,00
885,33	2906,00
891,41	2939,00
897,47	2981,00
903,53	2951,00
909,59	2912,00
915,63	2802,00
921,67	2778,00
927,71	2908,00
933,74	2791,00
939,76	2558,00
945,77	2662,00
951,78	2846,00
957,78	2668,00
963,78	2721,00
969,77	2698,00
975,75	2663,00
981,72	2685,00
987,69	3920,00
993,66	2766,00
999,61	2827,00
1005,56	2689,00
1011,51	2717,00
1017,44	2795,00
1023,37	2776,00
1029,30	2785,00
1035,22	2820,00
1041,13	2838,00
1047,03	3103,00
1052,93	3547,00
1058,83	4768,00
1064,71	5249,00
1070,59	4534,00
1076,47	3791,00
1082,33	3467,00
1088,20	3396,00
1094,05	3112,00
1099,90	2899,00
1105,74	2974,00
1111,58	2989,00
1117,41	3330,00
1123,23	4131,00
1129,05	4998,00
1134,86	4603,00
1140,67	3507,00
1146,47	3046,00
1152,26	2891,00
1158,05	2808,00
1163,83	2836,00
1169,60	3021,00
1175,37	2887,00
1181,13	2792,00
1186,89	2589,00
1192,64	2641,00
1198,38	2724,00
1204,12	2443,00
1209,85	2551,00
1215,58	2627,00
1221,30	2590,00
1227,02	2594,00
1232,72	2633,00
1238,43	2533,00
1244,12	2534,00
1249,81	2576,00
1255,50	2734,00
1261,17	2625,00
1266,85	2751,00
1272,51	2888,00
1278,17	3051,00
1283,83	3200,00
1289,47	4657,00
1295,12	6248,00
1300,75	5588,00
1306,38	4443,00
1312,01	3563,00
1317,63	3095,00
1323,24	2956,00
1328,85	2881,00
1334,45	2756,00
1340,04	2643,00
1345,63	2612,00
1351,22	2868,00
1356,80	2743,00
1362,37	2919,00
1367,93	2832,00
1373,49	2930,00
1379,05	2730,00
1384,60	2669,00
1390,14	2720,00
1395,68	2727,00
1401,21	2748,00
1406,74	2951,00
1412,26	3529,00
1417,77	4205,00
1423,28	3987,00
1428,78	4344,00
1434,28	5390,00
1439,77	6145,00
1445,26	6165,00
1450,74	5583,00
1456,22	5292,00
1461,68	5018,00
1467,15	4728,00
1472,61	4128,00
1478,06	3600,00
1483,51	3273,00
1488,95	2807,00
1494,38	2796,00
1499,81	2685,00
1505,24	2593,00
1510,65	2452,00
1516,07	2504,00
1521,48	2397,00
1526,88	2300,00
1532,27	2368,00
1537,67	2319,00
1543,05	2442,00
1548,43	2273,00
1553,81	2404,00
1559,18	2146,00
1564,54	2257,00
1569,90	2221,00
1575,25	2103,00
1580,60	2179,00
1585,94	2206,00
1591,28	2185,00
1596,61	2190,00
1601,93	2196,00
1607,25	2250,00
1612,57	2132,00
1617,88	2093,00
1623,18	2197,00
1628,48	2104,00
1633,77	2175,00
1639,06	2127,00
1644,34	2060,00
1649,62	1993,00
1654,89	2063,00
1660,16	1954,00
1665,42	2130,00
1670,67	2000,00
1675,92	1889,00
1681,17	2006,00
1686,41	1985,00
1691,64	2042,00
1696,87	2003,00
1702,10	1945,00
1707,32	1865,00
1712,53	2015,00
1717,74	1928,00
1722,94	2099,00
1728,14	1850,00
1733,33	1946,00
1738,52	1847,00
1743,70	1911,00
1748,88	1916,00
1754,05	1950,00
1759,22	1743,00
1764,38	2049,00
1769,53	1960,00
1774,69	1913,00
1779,83	1790,00
1784,97	1758,00
1790,11	1797,00
1795,24	1776,00
1800,36	1820,00
1805,48	1751,00
1810,60	1838,00
1815,71	1808,00
1820,82	1727,00
1825,92	1771,00
1831,01	1740,00
1836,10	1706,00
1841,19	1760,00
1846,26	1604,00
1851,34	1655,00
1856,41	1786,00
1861,47	1684,00
1866,53	1804,00
1871,59	1681,00
1876,64	1725,00
1881,68	1673,00
1886,72	1639,00
1891,76	1572,00
1896,79	1617,00
1901,81	1544,00
1906,83	1734,00
1911,85	1571,00
1916,86	1596,00
1921,86	1568,00
1926,86	1501,00
1931,86	1662,00
1936,85	1606,00
1941,83	1484,00
1946,81	1489,00
1951,79	1504,00
1956,76	1527,00
1961,72	1446,00
1966,68	1517,00
1971,64	1619,00
1976,59	1534,00
1981,54	1506,00
1986,48	1462,00
1991,42	1388,00
1996,35	1671,00
2001,27	1472,00
2006,20	1312,00
2011,11	1550,00
2016,03	1528,00
2020,93	1384,00
2025,84	1445,00
2030,73	1461,00
2035,63	1352,00
2040,52	1519,00
2045,40	1471,00
2050,28	1464,00
2055,15	1418,00
2060,02	1389,00
2064,89	1491,00
2069,75	1512,00
2074,60	1418,00
2079,46	1341,00
2084,30	1346,00
2089,14	1263,00
2093,98	1471,00
2098,81	1481,00
2103,64	1414,00
2108,46	1526,00
2113,28	1448,00
2118,09	1477,00
2122,90	1424,00
2127,70	1333,00
2132,50	1484,00
2137,30	1372,00
2142,09	1294,00
2146,87	1310,00
2151,66	1350,00
2156,43	1381,00
2161,20	1381,00
2165,97	1499,00
2170,73	1333,00
2175,49	1453,00
2180,24	1397,00
2184,99	1571,00
2189,74	1552,00
2194,48	1471,00
2199,21	1483,00
2203,94	1357,00
2208,67	1247,00
2213,39	1239,00
2218,11	1402,00
2222,82	1385,00
2227,53	1408,00
2232,23	1373,00
2236,93	1359,00
2241,63	1252,00
2246,32	1456,00
2251,00	1335,00
2255,68	1240,00
2260,36	1317,00
2265,03	1381,00
2269,70	1436,00
2274,36	1355,00
2279,02	1359,00
2283,68	1294,00
2288,33	1342,00
2292,97	1444,00
2297,61	1290,00
2302,25	1386,00
2306,88	1198,00
2311,51	1187,00
2316,14	1218,00
2320,75	1212,00
2325,37	1199,00
2329,98	1360,00
2334,59	1215,00
2339,19	1156,00
2343,79	1141,00
2348,38	1267,00
2352,97	1149,00
2357,55	1269,00
2362,13	1228,00
2366,71	1165,00
2371,28	1273,00
2375,85	1267,00
2380,41	1302,00
2384,97	1202,00
2389,52	1299,00
2394,07	1253,00
2398,62	1156,00
2403,16	1242,00
2407,70	1050,00
2412,23	1160,00
2416,76	1277,00
2421,29	1254,00
2425,81	1316,00
2430,32	1329,00
2434,84	1123,00
2439,34	1206,00
2443,85	1357,00
2448,35	1191,00
2452,84	1224,00
2457,33	1246,00
2461,82	1044,00
2466,30	1131,00
2470,78	1218,00
2475,25	1103,00
2479,72	1144,00
2484,19	1203,00
2488,65	1223,00
2493,11	1068,00
2497,56	1254,00
2502,01	1106,00
2506,46	1228,00
2510,90	1081,00
2515,34	1184,00
2519,77	1204,00
2524,20	1202,00
2528,62	1252,00
2533,04	1204,00
2537,46	1180,00
2541,87	1170,00
2546,28	1143,00
2550,68	1221,00
2555,08	1144,00
2559,48	1140,00
2563,87	1110,00
2568,26	1120,00
2572,64	1211,00
2577,02	1260,00
2581,40	1140,00
2585,77	1157,00
2590,14	1145,00
2594,50	1058,00
2598,86	1264,00
2603,22	1196,00
2607,57	1168,00
2611,92	1235,00
2616,26	1396,00
2620,60	1327,00
2624,94	1139,00
2629,27	1258,00
2633,60	1119,00
2637,92	1318,00
2642,24	1275,00
2646,56	1233,00
2650,87	1131,00
2655,18	1276,00
2659,48	1124,00
2663,78	1200,00
2668,08	1142,00
2672,37	1302,00
2676,66	1190,00
2680,95	1156,00
2685,23	1302,00
2689,50	1229,00
2693,78	1166,00
2698,05	1256,00
2702,31	1352,00
2706,57	1341,00
2710,83	1465,00
2715,08	1534,00
2719,33	1511,00
2723,58	1523,00
2727,82	1521,00
2732,06	1489,00
2736,29	1412,00
2740,53	1442,00
2744,75	1323,00
2748,97	1306,00
2753,19	1400,00
2757,41	1382,00
2761,62	1349,00
2765,83	1304,00
2770,03	1261,00
2774,23	1452,00
2778,43	1310,00
2782,62	1466,00
2786,81	1305,00
2791,00	1483,00
2795,18	1460,00
2799,35	1536,00
2803,53	1504,00
2807,70	1575,00
2811,86	1579,00
2816,03	1793,00
2820,19	1799,00
2824,34	1847,00
2828,49	2052,00
2832,64	2257,00
2836,78	2730,00
2840,92	3049,00
2845,06	3665,00
2849,19	4200,00
2853,32	4307,00
2857,45	4324,00
2861,57	4088,00
2865,69	4153,00
2869,80	3996,00
2873,91	4127,00
2878,02	4554,00
2882,12	4909,00
2886,22	4955,00
2890,32	4652,00
2894,41	4354,00
2898,50	3973,00
2902,58	3684,00
2906,67	3562,00
2910,74	3156,00
2914,82	2928,00
2918,89	2951,00
2922,96	2639,00
2927,02	2478,00
2931,08	2350,00
2935,13	2176,00
2939,19	2164,00
2943,24	2047,00
2947,28	1963,00
2951,32	1681,00
2955,36	1629,00
2959,40	1686,00
2963,43	1558,00
2967,46	1463,00
2971,48	1487,00
2975,50	1264,00
2979,52	1389,00
2983,53	1325,00
2987,54	1280,00
2991,55	1239,00
2995,55	1245,00
2999,55	1190,00
3003,54	1107,00
3007,54	1131,00
3011,53	1115,00
3015,51	1160,00
3019,49	1215,00
3023,47	972,00
3027,45	1091,00
3031,42	1000,00
3035,39	1002,00
3039,35	981,00
3043,31	1127,00
3047,27	1058,00
3051,22	995,00
3055,17	897,00
3059,12	945,00
3063,06	1001,00
3067,00	979,00
3070,94	875,00
3074,87	1071,00
3078,80	910,00
3082,73	999,00
3086,65	943,00
3090,57	1028,00
3094,49	940,00
3098,40	918,00
3102,31	931,00
3106,22	949,00
3110,12	887,00
3114,02	797,00
3117,92	964,00
3121,81	881,00
3125,70	977,00
3129,58	880,00
3133,47	804,00
3137,34	963,00
3141,22	938,00
3145,09	1009,00
3148,96	906,00
3152,83	928,00
3156,69	992,00
3160,55	871,00
3164,40	937,00
3168,26	907,00
3172,10	1043,00
3175,95	929,00
3179,79	929,00
3183,63	884,00
3187,47	877,00
3191,30	969,00
3195,13	891,00
3198,95	753,00
3202,78	911,00
3206,60	821,00
3210,41	841,00
3214,23	878,00
3218,03	894,00
3221,84	918,00
3225,64	854,00
3229,44	862,00
3233,24	865,00
3237,03	858,00
3240,82	788,00
3244,61	802,00
3248,39	807,00
3252,17	897,00
3255,95	884,00
3259,72	913,00
3263,49	1063,00
3267,26	848,00
3271,03	982,00
3274,79	781,00
3278,54	893,00
3282,30	766,00
3286,05	857,00
3289,80	866,00
3293,54	964,00
3297,29	824,00
3301,02	886,00
3304,76	801,00
3308,49	899,00
3312,22	753,00
3315,95	797,00
3319,67	886,00
3323,39	945,00
3327,10	902,00
3330,82	853,00
3334,53	829,00
3338,24	891,00
3341,94	828,00
3345,64	886,00
3349,34	767,00
3353,03	906,00
3356,72	841,00
3360,41	928,00
3364,10	771,00
3367,78	839,00
3371,46	888,00
3375,13	838,00
3378,81	950,00
3382,48	801,00
3386,14	949,00
3389,81	893,00
3393,47	899,00
3397,12	960,00
3400,78	847,00
3404,43	832,00
3408,08	881,00
3411,72	838,00
3415,36	841,00
3419,00	812,00
3422,64	814,00
3426,27	890,00
3429,90	888,00
3433,53	787,00
3437,15	705,00
3440,77	717,00
3444,39	768,00
3448,00	817,00
3451,62	880,00
3455,22	840,00
3458,83	743,00
3462,43	791,00
3466,03	826,00
3469,63	773,00
3473,22	873,00
3476,81	711,00
3480,40	846,00
3483,99	747,00
3487,57	858,00
3491,15	842,00
3494,72	829,00
3498,29	901,00
3501,86	725,00
3505,43	822,00
3508,99	761,00
3512,56	709,00
3516,11	918,00
3519,67	784,00
3523,22	881,00
3526,77	749,00
3530,32	983,00
3533,86	833,00
3537,40	963,00
3540,94	846,00
3544,47	837,00
3548,00	701,00
3551,53	842,00
3555,06	766,00
3558,58	816,00
3562,10	833,00
3565,62	742,00
3569,13	732,00
3572,64	929,00
3576,15	747,00
3579,66	735,00
3583,16	757,00
3586,66	820,00
3590,16	741,00
3593,65	700,00
3597,14	756,00
3600,63	732,00
3604,11	791,00
3607,60	798,00
3611,08	879,00
3614,55	806,00
3618,03	765,00
3621,50	716,00
3624,97	707,00
3628,43	747,00
3631,90	734,00
3635,36	695,00
3638,81	746,00
3642,27	820,00
3645,72	828,00
3649,17	639,00
3652,61	753,00
3656,06	727,00
3659,50	776,00
3662,93	717,00
3666,37	773,00
3669,80	911,00
3673,23	765,00
3676,65	749,00
3680,08	847,00
3683,50	671,00
3686,92	766,00
3690,33	716,00
3693,74	680,00
3697,15	588,00
3700,56	877,00
3703,96	703,00
3707,36	613,00
3710,76	702,00
3714,16	664,00
3717,55	713,00
3720,94	692,00
3724,33	731,00
3727,71	720,00
3731,10	735,00
3734,48	756,00
3737,85	678,00
3741,23	678,00
3744,60	688,00
3747,97	601,00
3751,33	713,00
3754,69	650,00
3758,05	663,00
3761,41	608,00
3764,77	648,00
3768,12	629,00
3771,47	633,00
3774,82	742,00
3778,16	-13,00
3781,50	16,00
3784,84	4,00
3788,18	7,00
>>>>>End Processed Spectral Data<<<<<
