SpectraSuite Data File
++++++++++++++++++++++++++++++++++++
Date: Mon Jan 05 16:34:37 ICT 2026
User: Administrator
Dark Spectrum Present: Yes
Reference Spectrum Present: No
Number of Sampled Component Spectra: 1
Spectrometers: MAYP113682
Integration Time (usec): 3000000 (MAYP113682)
Spectra Averaged: 1 (MAYP113682)
Boxcar Smoothing: 0 (MAYP113682)
Correct for Electrical Dark: No (MAYP113682)
Strobe/Lamp Enabled: No (MAYP113682)
Correct for Detector Non-linearity: No (MAYP113682)
Correct for Stray Light: No (MAYP113682)
Number of Pixels in Processed Spectrum: 2068
>>>>>Begin Processed Spectral Data<<<<<
-37534,58	29,00
-37414,56	9,00
-37295,11	4,00
-37176,24	3,00
-37057,95	622,00
-36940,22	703,00
-36823,05	726,00
-36706,45	843,00
-36590,40	848,00
-36474,90	743,00
-36359,95	870,00
-36245,55	884,00
-36131,68	781,00
-36018,35	768,00
-35905,55	768,00
-35793,29	916,00
-35681,54	785,00
-35570,32	776,00
-35459,62	856,00
-35349,43	950,00
-35239,75	911,00
-35130,58	863,00
-35021,91	862,00
-34913,74	822,00
-34806,07	809,00
-34698,89	929,00
-34592,20	813,00
-34486,00	913,00
-34380,28	981,00
-34275,04	855,00
-34170,27	801,00
-34065,98	1010,00
-33962,16	884,00
-33858,81	906,00
-33755,92	910,00
-33653,49	991,00
-33551,52	980,00
-33450,01	911,00
-33348,94	930,00
-33248,33	859,00
-33148,16	912,00
-33048,43	934,00
-32949,14	1142,00
-32850,29	1026,00
-32751,87	931,00
-32653,89	1000,00
-32556,33	981,00
-32459,20	967,00
-32362,49	896,00
-32266,19	982,00
-32170,32	838,00
-32074,86	971,00
-31979,82	992,00
-31885,18	1032,00
-31790,95	1038,00
-31697,12	985,00
-31603,69	963,00
-31510,67	1013,00
-31418,04	957,00
-31325,80	1000,00
-31233,95	863,00
-31142,49	886,00
-31051,42	885,00
-30960,73	1075,00
-30870,43	1000,00
-30780,50	979,00
-30690,95	938,00
-30601,77	1083,00
-30512,97	981,00
-30424,53	1056,00
-30336,46	876,00
-30248,76	934,00
-30161,42	1094,00
-30074,44	920,00
-29987,81	1031,00
-29901,55	1025,00
-29815,63	898,00
-29730,07	958,00
-29644,86	1050,00
-29560,00	1011,00
-29475,48	945,00
-29391,30	973,00
-29307,47	930,00
-29223,97	1013,00
-29140,81	1056,00
-29057,99	959,00
-28975,50	901,00
-28893,34	1180,00
-28811,51	900,00
-28730,00	1023,00
-28648,82	937,00
-28567,97	942,00
-28487,43	928,00
-28407,21	936,00
-28327,32	876,00
-28247,73	1112,00
-28168,46	925,00
-28089,50	1033,00
-28010,85	887,00
-27932,51	861,00
-27854,48	915,00
-27776,75	936,00
-27699,32	925,00
-27622,19	1018,00
-27545,37	861,00
-27468,84	1009,00
-27392,60	999,00
-27316,66	1016,00
-27241,01	1035,00
-27165,66	974,00
-27090,59	869,00
-27015,81	1018,00
-26941,31	946,00
-26867,10	866,00
-26793,17	1063,00
-26719,52	954,00
-26646,15	858,00
-26573,06	893,00
-26500,24	986,00
-26427,70	931,00
-26355,43	913,00
-26283,43	996,00
-26211,71	985,00
-26140,25	972,00
-26069,06	1071,00
-25998,13	805,00
-25927,46	952,00
-25857,06	765,00
-25786,92	907,00
-25717,04	866,00
-25647,42	1009,00
-25578,05	884,00
-25508,94	885,00
-25440,09	920,00
-25371,48	958,00
-25303,13	939,00
-25235,02	1011,00
-25167,17	929,00
-25099,56	933,00
-25032,19	903,00
-24965,07	826,00
-24898,20	832,00
-24831,56	867,00
-24765,17	954,00
-24699,01	837,00
-24633,10	946,00
-24567,41	1004,00
-24501,97	940,00
-24436,75	967,00
-24371,77	956,00
-24307,03	910,00
-24242,51	953,00
-24178,22	904,00
-24114,16	854,00
-24050,32	931,00
-23986,71	934,00
-23923,32	935,00
-23860,16	943,00
-23797,22	896,00
-23734,50	869,00
-23672,00	955,00
-23609,71	904,00
-23547,65	838,00
-23485,80	963,00
-23424,16	845,00
-23362,74	1074,00
-23301,53	945,00
-23240,54	831,00
-23179,75	903,00
-23119,17	905,00
-23058,80	939,00
-22998,64	1029,00
-22938,68	829,00
-22878,93	948,00
-22819,39	794,00
-22760,04	823,00
-22700,90	943,00
-22641,96	918,00
-22583,22	888,00
-22524,68	960,00
-22466,33	888,00
-22408,19	905,00
-22350,23	905,00
-22292,48	910,00
-22234,92	1054,00
-22177,55	1068,00
-22120,37	1149,00
-22063,38	926,00
-22006,58	884,00
-21949,98	849,00
-21893,56	788,00
-21837,33	897,00
-21781,28	958,00
-21725,42	857,00
-21669,74	1019,00
-21614,25	901,00
-21558,94	935,00
-21503,81	969,00
-21448,86	994,00
-21394,10	898,00
-21339,51	830,00
-21285,10	840,00
-21230,86	860,00
-21176,81	871,00
-21122,93	816,00
-21069,22	785,00
-21015,69	904,00
-20962,33	1077,00
-20909,14	891,00
-20856,13	970,00
-20803,28	951,00
-20750,61	827,00
-20698,10	749,00
-20645,76	816,00
-20593,59	1006,00
-20541,59	995,00
-20489,75	915,00
-20438,07	802,00
-20386,56	855,00
-20335,22	896,00
-20284,03	875,00
-20233,01	785,00
-20182,15	874,00
-20131,45	886,00
-20080,91	834,00
-20030,52	898,00
-19980,30	842,00
-19930,23	799,00
-19880,32	945,00
-19830,56	896,00
-19780,96	965,00
-19731,52	857,00
-19682,23	961,00
-19633,09	781,00
-19584,10	919,00
-19535,26	909,00
-19486,58	1060,00
-19438,04	904,00
-19389,66	1108,00
-19341,42	836,00
-19293,33	887,00
-19245,39	911,00
-19197,60	1019,00
-19149,95	987,00
-19102,45	949,00
-19055,09	890,00
-19007,87	907,00
-18960,80	882,00
-18913,87	963,00
-18867,09	876,00
-18820,44	966,00
-18773,94	909,00
-18727,57	944,00
-18681,35	874,00
-18635,26	906,00
-18589,31	857,00
-18543,50	886,00
-18497,83	942,00
-18452,29	933,00
-18406,89	835,00
-18361,63	961,00
-18316,50	947,00
-18271,50	842,00
-18226,63	919,00
-18181,90	933,00
-18137,30	996,00
-18092,84	853,00
-18048,50	994,00
-18004,29	898,00
-17960,22	824,00
-17916,27	864,00
-17872,45	902,00
-17828,76	960,00
-17785,20	872,00
-17741,77	912,00
-17698,46	907,00
-17655,28	869,00
-17612,22	864,00
-17569,29	886,00
-17526,48	901,00
-17483,79	992,00
-17441,23	838,00
-17398,79	843,00
-17356,48	823,00
-17314,28	1024,00
-17272,21	961,00
-17230,26	934,00
-17188,42	920,00
-17146,71	1003,00
-17105,12	926,00
-17063,64	911,00
-17022,28	856,00
-16981,04	798,00
-16939,92	968,00
-16898,91	980,00
-16858,02	863,00
-16817,25	976,00
-16776,59	911,00
-16736,04	870,00
-16695,61	1001,00
-16655,29	873,00
-16615,09	927,00
-16574,99	900,00
-16535,01	948,00
-16495,15	1000,00
-16455,39	943,00
-16415,74	796,00
-16376,21	875,00
-16336,78	868,00
-16297,46	884,00
-16258,26	813,00
-16219,16	910,00
-16180,17	847,00
-16141,28	951,00
-16102,51	990,00
-16063,84	872,00
-16025,27	934,00
-15986,82	858,00
-15948,46	865,00
-15910,22	865,00
-15872,07	860,00
-15834,04	966,00
-15796,10	908,00
-15758,27	1097,00
-15720,54	819,00
-15682,91	960,00
-15645,39	1038,00
-15607,97	907,00
-15570,64	797,00
-15533,42	1025,00
-15496,30	953,00
-15459,28	925,00
-15422,36	876,00
-15385,54	878,00
-15348,82	923,00
-15312,19	997,00
-15275,66	848,00
-15239,23	990,00
-15202,90	881,00
-15166,67	902,00
-15130,53	1021,00
-15094,48	928,00
-15058,54	873,00
-15022,68	831,00
-14986,93	952,00
-14951,26	902,00
-14915,69	1062,00
-14880,22	791,00
-14844,84	884,00
-14809,55	1029,00
-14774,35	934,00
-14739,25	855,00
-14704,24	986,00
-14669,32	922,00
-14634,49	909,00
-14599,75	979,00
-14565,10	812,00
-14530,55	1005,00
-14496,08	909,00
-14461,70	980,00
-14427,41	784,00
-14393,21	775,00
-14359,10	766,00
-14325,07	919,00
-14291,14	893,00
-14257,29	893,00
-14223,52	943,00
-14189,85	973,00
-14156,26	878,00
-14122,76	857,00
-14089,34	892,00
-14056,01	908,00
-14022,76	804,00
-13989,60	911,00
-13956,52	970,00
-13923,53	896,00
-13890,62	808,00
-13857,79	973,00
-13825,05	790,00
-13792,39	773,00
-13759,81	949,00
-13727,31	935,00
-13694,90	920,00
-13662,57	1003,00
-13630,31	889,00
-13598,14	1041,00
-13566,05	845,00
-13534,05	854,00
-13502,12	923,00
-13470,27	868,00
-13438,50	953,00
-13406,80	903,00
-13375,19	872,00
-13343,66	990,00
-13312,20	924,00
-13280,83	903,00
-13249,53	914,00
-13218,30	728,00
-13187,16	946,00
-13156,09	1076,00
-13125,10	925,00
-13094,18	882,00
-13063,34	968,00
-13032,58	776,00
-13001,89	969,00
-12971,28	939,00
-12940,74	932,00
-12910,27	976,00
-12879,88	978,00
-12849,57	968,00
-12819,33	1019,00
-12789,16	936,00
-12759,06	980,00
-12729,04	955,00
-12699,09	2429,00
-12669,21	886,00
-12639,41	963,00
-12609,68	894,00
-12580,02	853,00
-12550,43	1008,00
-12520,91	903,00
-12491,46	778,00
-12462,08	796,00
-12432,77	889,00
-12403,54	868,00
-12374,37	880,00
-12345,27	1058,00
-12316,24	887,00
-12287,29	932,00
-12258,40	934,00
-12229,57	990,00
-12200,82	749,00
-12172,14	926,00
-12143,52	817,00
-12114,97	916,00
-12086,49	950,00
-12058,07	999,00
-12029,73	901,00
-12001,44	1053,00
-11973,23	946,00
-11945,08	841,00
-11917,00	996,00
-11888,98	854,00
-11861,03	998,00
-11833,15	888,00
-11805,32	1014,00
-11777,57	970,00
-11749,88	937,00
-11722,25	880,00
-11694,69	883,00
-11667,19	870,00
-11639,75	1043,00
-11612,38	892,00
-11585,07	874,00
-11557,83	902,00
-11530,65	1062,00
-11503,53	911,00
-11476,47	886,00
-11449,48	812,00
-11422,54	990,00
-11395,67	1030,00
-11368,86	978,00
-11342,11	854,00
-11315,43	944,00
-11288,80	838,00
-11262,23	947,00
-11235,73	931,00
-11209,28	1093,00
-11182,90	927,00
-11156,57	863,00
-11130,31	1083,00
-11104,10	964,00
-11077,96	888,00
-11051,87	973,00
-11025,84	844,00
-10999,87	965,00
-10973,96	874,00
-10948,11	888,00
-10922,31	985,00
-10896,58	995,00
-10870,90	1047,00
-10845,28	1002,00
-10819,71	902,00
-10794,20	1024,00
-10768,75	973,00
-10743,36	1018,00
-10718,02	913,00
-10692,74	943,00
-10667,52	913,00
-10642,35	888,00
-10617,24	956,00
-10592,18	1002,00
-10567,18	896,00
-10542,23	940,00
-10517,34	942,00
-10492,51	1005,00
-10467,72	864,00
-10443,00	982,00
-10418,32	990,00
-10393,70	1101,00
-10369,14	933,00
-10344,63	830,00
-10320,17	1080,00
-10295,77	1024,00
-10271,42	924,00
-10247,12	967,00
-10222,88	1024,00
-10198,68	981,00
-10174,54	1046,00
-10150,46	1102,00
-10126,42	1144,00
-10102,44	960,00
-10078,51	932,00
-10054,63	1021,00
-10030,80	1043,00
-10007,03	1190,00
-9983,30	1113,00
-9959,63	1003,00
-9936,01	1212,00
-9912,44	1103,00
-9888,92	1200,00
-9865,44	1043,00
-9842,02	1108,00
-9818,65	1210,00
-9795,33	946,00
-9772,06	1125,00
-9748,84	1127,00
-9725,67	1162,00
-9702,55	1281,00
-9679,47	1349,00
-9656,45	1389,00
-9633,47	1220,00
-9610,55	1248,00
-9587,67	1461,00
-9564,84	1665,00
-9542,06	1475,00
-9519,32	1666,00
-9496,64	1729,00
-9474,00	1565,00
-9451,41	1659,00
-9428,87	1792,00
-9406,37	1728,00
-9383,92	1546,00
-9361,52	1551,00
-9339,17	1800,00
-9316,86	1787,00
-9294,60	1962,00
-9272,38	2135,00
-9250,21	2295,00
-9228,09	2343,00
-9206,01	2258,00
-9183,98	2200,00
-9162,00	1997,00
-9140,06	1975,00
-9118,16	1983,00
-9096,31	2038,00
-9074,51	2099,00
-9052,75	2278,00
-9031,04	2032,00
-9009,37	1873,00
-8987,74	1815,00
-8966,16	1807,00
-8944,63	1598,00
-8923,14	1694,00
-8901,69	1551,00
-8880,29	1628,00
-8858,93	1827,00
-8837,61	1943,00
-8816,34	1930,00
-8795,11	1996,00
-8773,92	1788,00
-8752,78	1865,00
-8731,68	1661,00
-8710,62	1798,00
-8689,61	1669,00
-8668,63	1787,00
-8647,70	2013,00
-8626,82	1901,00
-8605,97	1951,00
-8585,17	1770,00
-8564,41	1746,00
-8543,69	1687,00
-8523,01	1488,00
-8502,37	1713,00
-8481,78	1575,00
-8461,23	1565,00
-8440,71	1862,00
-8420,24	1885,00
-8399,81	2018,00
-8379,42	1855,00
-8359,08	1912,00
-8338,77	1634,00
-8318,50	1571,00
-8298,27	1477,00
-8278,09	1639,00
-8257,94	1666,00
-8237,83	1831,00
-8217,76	1768,00
-8197,74	1815,00
-8177,75	1854,00
-8157,80	1666,00
-8137,89	1588,00
-8118,02	1589,00
-8098,19	1723,00
-8078,40	1655,00
-8058,65	1614,00
-8038,93	1766,00
-8019,26	1681,00
-7999,62	1748,00
-7980,02	1564,00
-7960,46	1409,00
-7940,94	1464,00
-7921,46	1522,00
-7902,01	1325,00
-7882,60	1531,00
-7863,23	1507,00
-7843,90	1547,00
-7824,61	1519,00
-7805,35	1689,00
-7786,13	1567,00
-7766,95	1556,00
-7747,80	1574,00
-7728,69	1535,00
-7709,62	1491,00
-7690,59	1542,00
-7671,59	1567,00
-7652,63	1520,00
-7633,70	1567,00
-7614,81	1671,00
-7595,96	1435,00
-7577,15	1523,00
-7558,37	1357,00
-7539,62	1488,00
-7520,91	1447,00
-7502,24	1473,00
-7483,60	1585,00
-7465,00	1541,00
-7446,44	1531,00
-7427,91	1173,00
-7409,41	1289,00
-7390,95	1263,00
-7372,53	1150,00
-7354,14	1232,00
-7335,78	1262,00
-7317,46	1296,00
-7299,18	1200,00
-7280,92	1373,00
-7262,71	1565,00
-7244,52	1474,00
-7226,38	1482,00
-7208,26	1314,00
-7190,18	1382,00
-7172,14	1377,00
-7154,12	1358,00
-7136,15	1329,00
-7118,20	1558,00
-7100,29	1518,00
-7082,41	1456,00
-7064,57	1352,00
-7046,76	1347,00
-7028,98	1169,00
-7011,24	1303,00
-6993,53	1114,00
-6975,85	1177,00
-6958,20	1099,00
-6940,59	1117,00
-6923,01	1000,00
-6905,46	1180,00
-6887,94	1108,00
-6870,46	1550,00
-6853,01	1392,00
-6835,59	1354,00
-6818,21	1255,00
-6800,85	1308,00
-6783,53	1054,00
-6766,24	974,00
-6748,98	1028,00
-6731,76	863,00
-6714,56	990,00
-6697,40	892,00
-6680,26	906,00
-6663,16	1088,00
-6646,09	1134,00
-6629,05	1247,00
-6612,05	1119,00
-6595,07	1126,00
-6578,13	1226,00
-6561,21	1037,00
-6544,33	1083,00
-6527,47	901,00
-6510,65	952,00
-6493,86	795,00
-6477,10	942,00
-6460,36	1020,00
-6443,66	916,00
-6426,99	946,00
-6410,35	913,00
-6393,74	975,00
-6377,16	949,00
-6360,61	1036,00
-6344,09	964,00
-6327,59	956,00
-6311,13	1179,00
-6294,70	1024,00
-6278,29	1090,00
-6261,92	1104,00
-6245,58	1185,00
-6229,26	1307,00
-6212,97	1140,00
-6196,72	962,00
-6180,49	1130,00
-6164,29	1003,00
-6148,12	1065,00
-6131,98	1002,00
-6115,86	831,00
-6099,78	844,00
-6083,72	887,00
-6067,69	838,00
-6051,69	797,00
-6035,72	982,00
-6019,78	924,00
-6003,87	1023,00
-5987,98	1079,00
-5972,12	1110,00
-5956,29	1040,00
-5940,49	899,00
-5924,71	1160,00
-5908,96	893,00
-5893,24	982,00
-5877,55	1005,00
-5861,89	903,00
-5846,25	846,00
-5830,64	890,00
-5815,05	931,00
-5799,50	865,00
-5783,97	883,00
-5768,47	988,00
-5752,99	1224,00
-5737,55	888,00
-5722,12	1075,00
-5706,73	1025,00
-5691,36	1024,00
-5676,02	938,00
-5660,71	962,00
-5645,42	918,00
-5630,16	1015,00
-5614,92	1001,00
-5599,71	960,00
-5584,53	916,00
-5569,37	927,00
-5554,24	1947,00
-5539,14	946,00
-5524,06	964,00
-5509,01	976,00
-5493,98	974,00
-5478,98	1112,00
-5464,00	901,00
-5449,05	910,00
-5434,13	989,00
-5419,23	826,00
-5404,36	944,00
-5389,51	903,00
-5374,69	915,00
-5359,89	1063,00
-5345,12	1037,00
-5330,37	1230,00
-5315,65	1026,00
-5300,95	1035,00
-5286,28	955,00
-5271,63	861,00
-5257,01	930,00
-5242,41	927,00
-5227,84	916,00
-5213,29	926,00
-5198,76	888,00
-5184,26	967,00
-5169,79	911,00
-5155,33	903,00
-5140,91	910,00
-5126,51	913,00
-5112,13	921,00
-5097,77	978,00
-5083,44	985,00
-5069,13	789,00
-5054,85	1002,00
-5040,59	878,00
-5026,36	1001,00
-5012,15	1006,00
-4997,96	1036,00
-4983,80	974,00
-4969,66	863,00
-4955,54	902,00
-4941,44	916,00
-4927,37	894,00
-4913,33	1124,00
-4899,30	1054,00
-4885,30	1078,00
-4871,33	890,00
-4857,37	919,00
-4843,44	843,00
-4829,53	952,00
-4815,65	999,00
-4801,79	808,00
-4787,95	977,00
-4774,13	951,00
-4760,34	1012,00
-4746,56	1041,00
-4732,82	812,00
-4719,09	1003,00
-4705,38	1057,00
-4691,70	1027,00
-4678,04	1082,00
-4664,41	1038,00
-4650,79	1183,00
-4637,20	935,00
-4623,63	909,00
-4610,08	1041,00
-4596,56	969,00
-4583,05	848,00
-4569,57	914,00
-4556,11	1057,00
-4542,67	894,00
-4529,25	898,00
-4515,86	918,00
-4502,49	986,00
-4489,13	1103,00
-4475,80	1109,00
-4462,49	878,00
-4449,21	1017,00
-4435,94	904,00
-4422,70	830,00
-4409,47	763,00
-4396,27	953,00
-4383,09	883,00
-4369,93	932,00
-4356,79	819,00
-4343,67	948,00
-4330,58	982,00
-4317,50	953,00
-4304,45	964,00
-4291,41	958,00
-4278,40	1005,00
-4265,41	810,00
-4252,44	940,00
-4239,49	745,00
-4226,55	1016,00
-4213,65	960,00
-4200,76	1061,00
-4187,89	894,00
-4175,04	848,00
-4162,21	886,00
-4149,40	898,00
-4136,61	972,00
-4123,85	903,00
-4111,10	922,00
-4098,37	946,00
-4085,66	969,00
-4072,98	954,00
-4060,31	888,00
-4047,66	1057,00
-4035,04	1125,00
-4022,43	896,00
-4009,84	982,00
-3997,27	794,00
-3984,72	944,00
-3972,19	1021,00
-3959,69	944,00
-3947,20	792,00
-3934,73	938,00
-3922,27	883,00
-3909,84	936,00
-3897,43	948,00
-3885,04	965,00
-3872,67	999,00
-3860,31	821,00
-3847,98	1059,00
-3835,66	894,00
-3823,36	991,00
-3811,09	939,00
-3798,83	947,00
-3786,59	953,00
-3774,37	1015,00
-3762,17	807,00
-3749,98	909,00
-3737,82	952,00
-3725,67	1180,00
-3713,55	782,00
-3701,44	923,00
-3689,35	935,00
-3677,28	1092,00
-3665,22	823,00
-3653,19	959,00
-3641,17	865,00
-3629,18	984,00
-3617,20	944,00
-3605,24	914,00
-3593,30	953,00
-3581,37	943,00
-3569,47	1050,00
-3557,58	941,00
-3545,71	978,00
-3533,86	1007,00
-3522,02	893,00
-3510,21	916,00
-3498,41	897,00
-3486,63	941,00
-3474,87	956,00
-3463,12	948,00
-3451,40	918,00
-3439,69	1005,00
-3428,00	914,00
-3416,33	945,00
-3404,67	893,00
-3393,03	963,00
-3381,41	980,00
-3369,81	1028,00
-3358,22	1029,00
-3346,66	1120,00
-3335,10	968,00
-3323,57	939,00
-3312,06	944,00
-3300,56	847,00
-3289,08	855,00
-3277,61	937,00
-3266,16	941,00
-3254,73	929,00
-3243,32	892,00
-3231,92	791,00
-3220,55	1002,00
-3209,18	1114,00
-3197,84	865,00
-3186,51	788,00
-3175,20	925,00
-3163,90	896,00
-3152,63	999,00
-3141,36	914,00
-3130,12	936,00
-3118,89	953,00
-3107,68	929,00
-3096,49	938,00
-3085,31	868,00
-3074,15	933,00
-3063,00	946,00
-3051,87	948,00
-3040,76	914,00
-3029,67	1058,00
-3018,59	1127,00
-3007,52	1031,00
-2996,48	942,00
-2985,44	988,00
-2974,43	984,00
-2963,43	860,00
-2952,45	930,00
-2941,48	920,00
-2930,53	972,00
-2919,60	892,00
-2908,68	871,00
-2897,78	920,00
-2886,89	972,00
-2876,02	903,00
-2865,17	938,00
-2854,33	762,00
-2843,50	933,00
-2832,70	936,00
-2821,90	963,00
-2811,13	1004,00
-2800,37	959,00
-2789,62	778,00
-2778,89	1011,00
-2768,18	891,00
-2757,48	1042,00
-2746,80	1016,00
-2736,13	931,00
-2725,48	1051,00
-2714,84	810,00
-2704,22	928,00
-2693,61	997,00
-2683,02	929,00
-2672,45	968,00
-2661,89	992,00
-2651,34	967,00
-2640,81	998,00
-2630,30	1182,00
-2619,80	878,00
-2609,31	983,00
-2598,84	897,00
-2588,39	1003,00
-2577,95	850,00
-2567,52	806,00
-2557,11	907,00
-2546,71	932,00
-2536,33	1023,00
-2525,97	976,00
-2515,62	969,00
-2505,28	1013,00
-2494,96	913,00
-2484,65	1001,00
-2474,36	1204,00
-2464,08	872,00
-2453,82	1101,00
-2443,57	936,00
-2433,33	925,00
-2423,11	974,00
-2412,91	984,00
-2402,72	889,00
-2392,54	981,00
-2382,38	960,00
-2372,23	942,00
-2362,09	2021,00
-2351,97	856,00
-2341,87	879,00
-2331,78	998,00
-2321,70	1016,00
-2311,64	937,00
-2301,59	936,00
-2291,55	911,00
-2281,53	1006,00
-2271,53	835,00
-2261,53	1055,00
-2251,55	996,00
-2241,59	964,00
-2231,64	977,00
-2221,70	905,00
-2211,78	916,00
-2201,87	976,00
-2191,97	1026,00
-2182,09	915,00
-2172,22	960,00
-2162,37	893,00
-2152,53	880,00
-2142,70	895,00
-2132,89	853,00
-2123,09	1043,00
-2113,30	940,00
-2103,53	920,00
-2093,77	919,00
-2084,02	898,00
-2074,29	966,00
-2064,57	947,00
-2054,86	960,00
-2045,17	974,00
-2035,49	881,00
-2025,82	837,00
-2016,17	938,00
-2006,53	903,00
-1996,91	942,00
-1987,29	894,00
-1977,69	1001,00
-1968,11	878,00
-1958,53	872,00
-1948,97	968,00
-1939,42	909,00
-1929,89	959,00
-1920,37	925,00
-1910,86	874,00
-1901,36	956,00
-1891,88	1007,00
-1882,41	953,00
-1872,95	938,00
-1863,51	983,00
-1854,08	943,00
-1844,66	1030,00
-1835,26	1040,00
-1825,86	975,00
-1816,48	849,00
-1807,11	995,00
-1797,76	969,00
-1788,42	1061,00
-1779,09	986,00
-1769,77	960,00
-1760,47	1075,00
-1751,17	875,00
-1741,89	899,00
-1732,63	1057,00
-1723,37	1049,00
-1714,13	1115,00
-1704,90	943,00
-1695,68	1093,00
-1686,48	831,00
-1677,29	956,00
-1668,11	1159,00
-1658,94	954,00
-1649,78	937,00
-1640,64	968,00
-1631,51	943,00
-1622,39	1004,00
-1613,28	912,00
-1604,19	1124,00
-1595,10	872,00
-1586,03	901,00
-1576,97	983,00
-1567,93	880,00
-1558,89	1015,00
-1549,87	990,00
-1540,86	943,00
-1531,86	901,00
-1522,87	932,00
-1513,90	1059,00
-1504,93	1043,00
-1495,98	1034,00
-1487,04	982,00
-1478,12	876,00
-1469,20	905,00
-1460,30	1012,00
-1451,40	1099,00
-1442,52	960,00
-1433,65	1011,00
-1424,80	910,00
-1415,95	845,00
-1407,12	1182,00
-1398,30	1008,00
-1389,48	962,00
-1380,69	888,00
-1371,90	950,00
-1363,12	1020,00
-1354,36	1030,00
-1345,60	945,00
-1336,86	1107,00
-1328,13	1177,00
-1319,41	925,00
-1310,70	856,00
-1302,01	898,00
-1293,32	927,00
-1284,65	878,00
-1275,99	1017,00
-1267,33	1114,00
-1258,69	1008,00
-1250,06	966,00
-1241,45	855,00
-1232,84	1219,00
-1224,25	967,00
-1215,66	972,00
-1207,09	922,00
-1198,53	989,00
-1189,97	879,00
-1181,43	836,00
-1172,91	931,00
-1164,39	1091,00
-1155,88	834,00
-1147,38	851,00
-1138,90	904,00
-1130,43	776,00
-1121,96	924,00
-1113,51	956,00
-1105,07	939,00
-1096,64	1005,00
-1088,22	941,00
-1079,81	1012,00
-1071,41	1049,00
-1063,02	876,00
-1054,65	1037,00
-1046,28	915,00
-1037,92	1018,00
-1029,58	933,00
-1021,24	1035,00
-1012,92	1342,00
-1004,61	915,00
-996,30	1239,00
-988,01	830,00
-979,73	887,00
-971,46	1016,00
-963,20	922,00
-954,95	831,00
-946,71	969,00
-938,48	1025,00
-930,26	1000,00
-922,06	985,00
-913,86	960,00
-905,67	861,00
-897,49	917,00
-889,33	794,00
-881,17	1045,00
-873,02	996,00
-864,89	859,00
-856,76	904,00
-848,65	1018,00
-840,54	1042,00
-832,45	982,00
-824,36	715,00
-816,29	1008,00
-808,22	963,00
-800,17	965,00
-792,12	883,00
-784,09	1014,00
-776,06	893,00
-768,05	960,00
-760,04	966,00
-752,05	972,00
-744,07	1016,00
-736,09	1037,00
-728,13	792,00
-720,17	1017,00
-712,23	901,00
-704,29	873,00
-696,37	918,00
-688,45	1057,00
-680,55	1054,00
-672,65	948,00
-664,77	869,00
-656,89	896,00
-649,03	872,00
-641,17	996,00
-633,32	931,00
-625,49	986,00
-617,66	848,00
-609,84	957,00
-602,03	823,00
-594,23	951,00
-586,45	1018,00
-578,67	920,00
-570,90	921,00
-563,14	893,00
-555,39	1045,00
-547,65	1008,00
-539,91	980,00
-532,19	994,00
-524,48	1059,00
-516,78	895,00
-509,08	1014,00
-501,40	982,00
-493,72	932,00
-486,06	848,00
-478,40	1060,00
-470,76	960,00
-463,12	923,00
-455,49	921,00
-447,87	914,00
-440,26	943,00
-432,66	856,00
-425,07	998,00
-417,49	999,00
-409,92	763,00
-402,35	948,00
-394,80	837,00
-387,25	1032,00
-379,72	1018,00
-372,19	1012,00
-364,67	1051,00
-357,17	845,00
-349,67	942,00
-342,18	910,00
-334,69	991,00
-327,22	1041,00
-319,76	909,00
-312,30	949,00
-304,86	983,00
-297,42	967,00
-290,00	858,00
-282,58	959,00
-275,17	1006,00
-267,77	1096,00
-260,37	947,00
-252,99	1124,00
-245,62	1045,00
-238,25	967,00
-230,90	889,00
-223,55	1089,00
-216,21	992,00
-208,88	1197,00
-201,56	1069,00
-194,25	1133,00
-186,94	1190,00
-179,65	1161,00
-172,36	1218,00
-165,08	1103,00
-157,81	1246,00
-150,55	1277,00
-143,30	1194,00
-136,06	1260,00
-128,82	1404,00
-121,60	1288,00
-114,38	1461,00
-107,17	1672,00
-99,97	1798,00
-92,78	1744,00
-85,60	1860,00
-78,42	2083,00
-71,25	2069,00
-64,10	2367,00
-56,95	2673,00
-49,81	2893,00
-42,67	3539,00
-35,55	4065,00
-28,43	5159,00
-21,33	7894,00
-14,23	24644,00
-7,14	57498,00
-0,05	57284,00
7,02	57012,00
14,09	57319,00
21,14	20771,00
28,19	9289,00
35,23	6292,00
42,27	5083,00
49,29	4123,00
56,31	3706,00
63,32	3308,00
70,32	2924,00
77,31	2619,00
84,29	2269,00
91,27	2218,00
98,23	2126,00
105,19	2069,00
112,14	2244,00
119,09	3048,00
126,02	4523,00
132,95	5095,00
139,87	5295,00
146,78	5492,00
153,68	5337,00
160,58	5197,00
167,46	5027,00
174,34	5188,00
181,21	5140,00
188,08	4999,00
194,93	5074,00
201,78	5092,00
208,62	5155,00
215,45	5123,00
222,27	5133,00
229,09	5208,00
235,90	4793,00
242,70	4899,00
249,49	5011,00
256,27	4808,00
263,05	4688,00
269,82	4591,00
276,58	4705,00
283,33	4563,00
290,08	4510,00
296,82	4515,00
303,55	4313,00
310,27	4286,00
316,98	4345,00
323,69	4272,00
330,39	4298,00
337,08	4312,00
343,76	4323,00
350,44	4304,00
357,11	4373,00
363,77	4224,00
370,42	4213,00
377,07	4350,00
383,71	4147,00
390,34	4098,00
396,96	4201,00
403,58	4188,00
410,19	4336,00
416,79	4393,00
423,38	4513,00
429,97	4436,00
436,55	4404,00
443,12	4636,00
449,68	4503,00
456,24	4299,00
462,79	4295,00
469,33	4124,00
475,86	4025,00
482,39	3829,00
488,91	3902,00
495,42	3719,00
501,93	3792,00
508,42	3615,00
514,91	3710,00
521,40	3692,00
527,87	3637,00
534,34	3495,00
540,80	3546,00
547,25	3647,00
553,70	3477,00
560,14	3620,00
566,57	3575,00
573,00	3608,00
579,41	3633,00
585,83	3657,00
592,23	3652,00
598,62	3831,00
605,01	3907,00
611,40	3939,00
617,77	3822,00
624,14	3740,00
630,50	3596,00
636,85	3502,00
643,20	3445,00
649,54	3294,00
655,87	3350,00
662,20	3386,00
668,52	3345,00
674,83	3313,00
681,13	3294,00
687,43	3249,00
693,72	3120,00
700,00	3080,00
706,28	3200,00
712,55	3179,00
718,81	3199,00
725,07	3128,00
731,32	3093,00
737,56	3177,00
743,79	3166,00
750,02	3191,00
756,24	2929,00
762,46	3072,00
768,67	3276,00
774,87	2875,00
781,06	3024,00
787,25	3103,00
793,43	3091,00
799,60	2962,00
805,77	3105,00
811,93	3009,00
818,08	2995,00
824,23	2977,00
830,37	3280,00
836,50	2963,00
842,63	2988,00
848,75	3022,00
854,87	2969,00
860,97	3128,00
867,07	3076,00
873,17	3074,00
879,25	3108,00
885,33	3044,00
891,41	3092,00
897,47	3041,00
903,53	2951,00
909,59	3047,00
915,63	2980,00
921,67	2890,00
927,71	2944,00
933,74	2982,00
939,76	2786,00
945,77	2772,00
951,78	2974,00
957,78	2670,00
963,78	2848,00
969,77	2848,00
975,75	2796,00
981,72	2693,00
987,69	4122,00
993,66	2829,00
999,61	2984,00
1005,56	2843,00
1011,51	2801,00
1017,44	2867,00
1023,37	2946,00
1029,30	2851,00
1035,22	2973,00
1041,13	2877,00
1047,03	3148,00
1052,93	3588,00
1058,83	4913,00
1064,71	5390,00
1070,59	4577,00
1076,47	3806,00
1082,33	3529,00
1088,20	3497,00
1094,05	3217,00
1099,90	3038,00
1105,74	3010,00
1111,58	3015,00
1117,41	3332,00
1123,23	4369,00
1129,05	5273,00
1134,86	4693,00
1140,67	3766,00
1146,47	3166,00
1152,26	2912,00
1158,05	2836,00
1163,83	2995,00
1169,60	3012,00
1175,37	3069,00
1181,13	2872,00
1186,89	2714,00
1192,64	2749,00
1198,38	2812,00
1204,12	2634,00
1209,85	2621,00
1215,58	2671,00
1221,30	2772,00
1227,02	2639,00
1232,72	2599,00
1238,43	2591,00
1244,12	2585,00
1249,81	2632,00
1255,50	2869,00
1261,17	2780,00
1266,85	2928,00
1272,51	2879,00
1278,17	3072,00
1283,83	3319,00
1289,47	4860,00
1295,12	6375,00
1300,75	5607,00
1306,38	4407,00
1312,01	3716,00
1317,63	3246,00
1323,24	3022,00
1328,85	2898,00
1334,45	2722,00
1340,04	2788,00
1345,63	2707,00
1351,22	2898,00
1356,80	2751,00
1362,37	2890,00
1367,93	2927,00
1373,49	3007,00
1379,05	2868,00
1384,60	2695,00
1390,14	2731,00
1395,68	2794,00
1401,21	2860,00
1406,74	3109,00
1412,26	3637,00
1417,77	4367,00
1423,28	4073,00
1428,78	4558,00
1434,28	5642,00
1439,77	6296,00
1445,26	6198,00
1450,74	5799,00
1456,22	5376,00
1461,68	5243,00
1467,15	4823,00
1472,61	4153,00
1478,06	3808,00
1483,51	3289,00
1488,95	2954,00
1494,38	2971,00
1499,81	2624,00
1505,24	2615,00
1510,65	2607,00
1516,07	2523,00
1521,48	2580,00
1526,88	2423,00
1532,27	2458,00
1537,67	2322,00
1543,05	2492,00
1548,43	2321,00
1553,81	2469,00
1559,18	2239,00
1564,54	2270,00
1569,90	2326,00
1575,25	2250,00
1580,60	2129,00
1585,94	2334,00
1591,28	2255,00
1596,61	2265,00
1601,93	2221,00
1607,25	2284,00
1612,57	2166,00
1617,88	2306,00
1623,18	2257,00
1628,48	2172,00
1633,77	2124,00
1639,06	2236,00
1644,34	2049,00
1649,62	1989,00
1654,89	2166,00
1660,16	2088,00
1665,42	2209,00
1670,67	2098,00
1675,92	1927,00
1681,17	2024,00
1686,41	1998,00
1691,64	2078,00
1696,87	2071,00
1702,10	2036,00
1707,32	2028,00
1712,53	2006,00
1717,74	1991,00
1722,94	2116,00
1728,14	2032,00
1733,33	1982,00
1738,52	1808,00
1743,70	2082,00
1748,88	1853,00
1754,05	1967,00
1759,22	1900,00
1764,38	1101,00
1769,53	1987,00
1774,69	1982,00
1779,83	1905,00
1784,97	1899,00
1790,11	1896,00
1795,24	1845,00
1800,36	1884,00
1805,48	1878,00
1810,60	1849,00
1815,71	1883,00
1820,82	1824,00
1825,92	1911,00
1831,01	1835,00
1836,10	1769,00
1841,19	1838,00
1846,26	1610,00
1851,34	1850,00
1856,41	1873,00
1861,47	1788,00
1866,53	1889,00
1871,59	1840,00
1876,64	1754,00
1881,68	1832,00
1886,72	1814,00
1891,76	1735,00
1896,79	1694,00
1901,81	1680,00
1906,83	1802,00
1911,85	1674,00
1916,86	1703,00
1921,86	1664,00
1926,86	1620,00
1931,86	1755,00
1936,85	1630,00
1941,83	1629,00
1946,81	1677,00
1951,79	1591,00
1956,76	1584,00
1961,72	1476,00
1966,68	1690,00
1971,64	1538,00
1976,59	1674,00
1981,54	1565,00
1986,48	1734,00
1991,42	1440,00
1996,35	1839,00
2001,27	1559,00
2006,20	1511,00
2011,11	1623,00
2016,03	1539,00
2020,93	1426,00
2025,84	1581,00
2030,73	1559,00
2035,63	1464,00
2040,52	1521,00
2045,40	1484,00
2050,28	1507,00
2055,15	1575,00
2060,02	1394,00
2064,89	1637,00
2069,75	1621,00
2074,60	1545,00
2079,46	1396,00
2084,30	1453,00
2089,14	1329,00
2093,98	1641,00
2098,81	1526,00
2103,64	1515,00
2108,46	1535,00
2113,28	1553,00
2118,09	1499,00
2122,90	1518,00
2127,70	1355,00
2132,50	1531,00
2137,30	1455,00
2142,09	1332,00
2146,87	1329,00
2151,66	1520,00
2156,43	1435,00
2161,20	1441,00
2165,97	1652,00
2170,73	1473,00
2175,49	1636,00
2180,24	1491,00
2184,99	1665,00
2189,74	1721,00
2194,48	1544,00
2199,21	1589,00
2203,94	1425,00
2208,67	1383,00
2213,39	1272,00
2218,11	1453,00
2222,82	1411,00
2227,53	1494,00
2232,23	1470,00
2236,93	1477,00
2241,63	1397,00
2246,32	1481,00
2251,00	1448,00
2255,68	1461,00
2260,36	1429,00
2265,03	1496,00
2269,70	1536,00
2274,36	1359,00
2279,02	1463,00
2283,68	1313,00
2288,33	1410,00
2292,97	1477,00
2297,61	1388,00
2302,25	1388,00
2306,88	1364,00
2311,51	1308,00
2316,14	1353,00
2320,75	1264,00
2325,37	1212,00
2329,98	1348,00
2334,59	1298,00
2339,19	1350,00
2343,79	1208,00
2348,38	1320,00
2352,97	1291,00
2357,55	1384,00
2362,13	1255,00
2366,71	1265,00
2371,28	1397,00
2375,85	1307,00
2380,41	1433,00
2384,97	1270,00
2389,52	1405,00
2394,07	1439,00
2398,62	1270,00
2403,16	1403,00
2407,70	1169,00
2412,23	1277,00
2416,76	1440,00
2421,29	1335,00
2425,81	1436,00
2430,32	1347,00
2434,84	1195,00
2439,34	1166,00
2443,85	1518,00
2448,35	1287,00
2452,84	1290,00
2457,33	1278,00
2461,82	1146,00
2466,30	1179,00
2470,78	1301,00
2475,25	1195,00
2479,72	1347,00
2484,19	1333,00
2488,65	1334,00
2493,11	1224,00
2497,56	1393,00
2502,01	1201,00
2506,46	1363,00
2510,90	1245,00
2515,34	1195,00
2519,77	1282,00
2524,20	1274,00
2528,62	1324,00
2533,04	1297,00
2537,46	1282,00
2541,87	1313,00
2546,28	1272,00
2550,68	1384,00
2555,08	1292,00
2559,48	1307,00
2563,87	1161,00
2568,26	1161,00
2572,64	1312,00
2577,02	1323,00
2581,40	1160,00
2585,77	1234,00
2590,14	1287,00
2594,50	1225,00
2598,86	1257,00
2603,22	1282,00
2607,57	1258,00
2611,92	1341,00
2616,26	1462,00
2620,60	1397,00
2624,94	1273,00
2629,27	1350,00
2633,60	1191,00
2637,92	1382,00
2642,24	1490,00
2646,56	1281,00
2650,87	1194,00
2655,18	1412,00
2659,48	1219,00
2663,78	1304,00
2668,08	1307,00
2672,37	1405,00
2676,66	1335,00
2680,95	1297,00
2685,23	1405,00
2689,50	1372,00
2693,78	1355,00
2698,05	1293,00
2702,31	1472,00
2706,57	1460,00
2710,83	1692,00
2715,08	1682,00
2719,33	1714,00
2723,58	1710,00
2727,82	1695,00
2732,06	1541,00
2736,29	1660,00
2740,53	1495,00
2744,75	1506,00
2748,97	1410,00
2753,19	1418,00
2757,41	1470,00
2761,62	1517,00
2765,83	1576,00
2770,03	1332,00
2774,23	1460,00
2778,43	1415,00
2782,62	1493,00
2786,81	1467,00
2791,00	1532,00
2795,18	1569,00
2799,35	1672,00
2803,53	1683,00
2807,70	1705,00
2811,86	1715,00
2816,03	1835,00
2820,19	1841,00
2824,34	1900,00
2828,49	2133,00
2832,64	2384,00
2836,78	2788,00
2840,92	3131,00
2845,06	3918,00
2849,19	4352,00
2853,32	4440,00
2857,45	4289,00
2861,57	4191,00
2865,69	4192,00
2869,80	3987,00
2873,91	4205,00
2878,02	4747,00
2882,12	5152,00
2886,22	5083,00
2890,32	4849,00
2894,41	4515,00
2898,50	4093,00
2902,58	3809,00
2906,67	3612,00
2910,74	3386,00
2914,82	3036,00
2918,89	3028,00
2922,96	2701,00
2927,02	2503,00
2931,08	2531,00
2935,13	2231,00
2939,19	2311,00
2943,24	2133,00
2947,28	2070,00
2951,32	1882,00
2955,36	1725,00
2959,40	1811,00
2963,43	1677,00
2967,46	1532,00
2971,48	1550,00
2975,50	1422,00
2979,52	1535,00
2983,53	1399,00
2987,54	1366,00
2991,55	1360,00
2995,55	1297,00
2999,55	1195,00
3003,54	1220,00
3007,54	1304,00
3011,53	1261,00
3015,51	1154,00
3019,49	1268,00
3023,47	1068,00
3027,45	1201,00
3031,42	1109,00
3035,39	1116,00
3039,35	1134,00
3043,31	1172,00
3047,27	1162,00
3051,22	1247,00
3055,17	991,00
3059,12	1056,00
3063,06	1124,00
3067,00	1010,00
3070,94	1029,00
3074,87	1171,00
3078,80	1074,00
3082,73	1066,00
3086,65	1073,00
3090,57	1040,00
3094,49	1089,00
3098,40	1053,00
3102,31	1037,00
3106,22	1074,00
3110,12	1031,00
3114,02	876,00
3117,92	1051,00
3121,81	1016,00
3125,70	1029,00
3129,58	993,00
3133,47	906,00
3137,34	1103,00
3141,22	1186,00
3145,09	1110,00
3148,96	1111,00
3152,83	1075,00
3156,69	1057,00
3160,55	950,00
3164,40	1128,00
3168,26	1048,00
3172,10	1056,00
3175,95	1052,00
3179,79	996,00
3183,63	1009,00
3187,47	987,00
3191,30	1052,00
3195,13	1087,00
3198,95	925,00
3202,78	1040,00
3206,60	959,00
3210,41	911,00
3214,23	896,00
3218,03	1002,00
3221,84	1046,00
3225,64	941,00
3229,44	992,00
3233,24	1062,00
3237,03	1010,00
3240,82	932,00
3244,61	948,00
3248,39	966,00
3252,17	1071,00
3255,95	1083,00
3259,72	1005,00
3263,49	1164,00
3267,26	877,00
3271,03	917,00
3274,79	913,00
3278,54	987,00
3282,30	795,00
3286,05	998,00
3289,80	984,00
3293,54	992,00
3297,29	1018,00
3301,02	915,00
3304,76	971,00
3308,49	1074,00
3312,22	911,00
3315,95	1014,00
3319,67	863,00
3323,39	1082,00
3327,10	1011,00
3330,82	899,00
3334,53	968,00
3338,24	993,00
3341,94	1027,00
3345,64	1018,00
3349,34	985,00
3353,03	1066,00
3356,72	946,00
3360,41	956,00
3364,10	889,00
3367,78	936,00
3371,46	931,00
3375,13	1044,00
3378,81	946,00
3382,48	917,00
3386,14	1121,00
3389,81	1052,00
3393,47	996,00
3397,12	1173,00
3400,78	999,00
3404,43	929,00
3408,08	931,00
3411,72	914,00
3415,36	973,00
3419,00	999,00
3422,64	902,00
3426,27	975,00
3429,90	972,00
3433,53	900,00
3437,15	975,00
3440,77	830,00
3444,39	882,00
3448,00	933,00
3451,62	964,00
3455,22	962,00
3458,83	836,00
3462,43	928,00
3466,03	1026,00
3469,63	955,00
3473,22	858,00
3476,81	896,00
3480,40	1050,00
3483,99	932,00
3487,57	969,00
3491,15	900,00
3494,72	954,00
3498,29	1031,00
3501,86	919,00
3505,43	912,00
3508,99	932,00
3512,56	769,00
3516,11	953,00
3519,67	879,00
3523,22	1014,00
3526,77	864,00
3530,32	1117,00
3533,86	1013,00
3537,40	1072,00
3540,94	1008,00
3544,47	919,00
3548,00	911,00
3551,53	994,00
3555,06	919,00
3558,58	1000,00
3562,10	930,00
3565,62	808,00
3569,13	926,00
3572,64	1057,00
3576,15	758,00
3579,66	870,00
3583,16	918,00
3586,66	879,00
3590,16	904,00
3593,65	843,00
3597,14	797,00
3600,63	872,00
3604,11	838,00
3607,60	922,00
3611,08	1010,00
3614,55	989,00
3618,03	809,00
3621,50	841,00
3624,97	829,00
3628,43	892,00
3631,90	847,00
3635,36	809,00
3638,81	810,00
3642,27	858,00
3645,72	900,00
3649,17	816,00
3652,61	823,00
3656,06	828,00
3659,50	888,00
3662,93	809,00
3666,37	936,00
3669,80	1051,00
3673,23	958,00
3676,65	904,00
3680,08	943,00
3683,50	772,00
3686,92	840,00
3690,33	815,00
3693,74	834,00
3697,15	763,00
3700,56	1015,00
3703,96	862,00
3707,36	700,00
3710,76	765,00
3714,16	812,00
3717,55	817,00
3720,94	738,00
3724,33	816,00
3727,71	921,00
3731,10	817,00
3734,48	810,00
3737,85	758,00
3741,23	768,00
3744,60	806,00
3747,97	690,00
3751,33	825,00
3754,69	758,00
3758,05	807,00
3761,41	692,00
3764,77	777,00
3768,12	723,00
3771,47	620,00
3774,82	784,00
3778,16	-9,00
3781,50	19,00
3784,84	4,00
3788,18	16,00
>>>>>End Processed Spectral Data<<<<<
