SpectraSuite Data File
++++++++++++++++++++++++++++++++++++
Date: Mon Jan 05 16:33:46 ICT 2026
User: Administrator
Dark Spectrum Present: Yes
Reference Spectrum Present: No
Number of Sampled Component Spectra: 1
Spectrometers: MAYP113682
Integration Time (usec): 3000000 (MAYP113682)
Spectra Averaged: 1 (MAYP113682)
Boxcar Smoothing: 0 (MAYP113682)
Correct for Electrical Dark: No (MAYP113682)
Strobe/Lamp Enabled: No (MAYP113682)
Correct for Detector Non-linearity: No (MAYP113682)
Correct for Stray Light: No (MAYP113682)
Number of Pixels in Processed Spectrum: 2068
>>>>>Begin Processed Spectral Data<<<<<
-37534,58	28,00
-37414,56	4,00
-37295,11	8,00
-37176,24	4,00
-37057,95	629,00
-36940,22	655,00
-36823,05	673,00
-36706,45	739,00
-36590,40	851,00
-36474,90	748,00
-36359,95	792,00
-36245,55	865,00
-36131,68	780,00
-36018,35	801,00
-35905,55	735,00
-35793,29	876,00
-35681,54	711,00
-35570,32	852,00
-35459,62	738,00
-35349,43	925,00
-35239,75	917,00
-35130,58	812,00
-35021,91	854,00
-34913,74	852,00
-34806,07	876,00
-34698,89	896,00
-34592,20	808,00
-34486,00	870,00
-34380,28	862,00
-34275,04	767,00
-34170,27	774,00
-34065,98	931,00
-33962,16	913,00
-33858,81	905,00
-33755,92	849,00
-33653,49	964,00
-33551,52	965,00
-33450,01	894,00
-33348,94	880,00
-33248,33	783,00
-33148,16	825,00
-33048,43	824,00
-32949,14	1073,00
-32850,29	979,00
-32751,87	802,00
-32653,89	945,00
-32556,33	970,00
-32459,20	901,00
-32362,49	894,00
-32266,19	931,00
-32170,32	912,00
-32074,86	909,00
-31979,82	967,00
-31885,18	998,00
-31790,95	1007,00
-31697,12	979,00
-31603,69	937,00
-31510,67	1046,00
-31418,04	945,00
-31325,80	912,00
-31233,95	883,00
-31142,49	944,00
-31051,42	843,00
-30960,73	977,00
-30870,43	1010,00
-30780,50	928,00
-30690,95	894,00
-30601,77	1071,00
-30512,97	904,00
-30424,53	941,00
-30336,46	882,00
-30248,76	922,00
-30161,42	1047,00
-30074,44	893,00
-29987,81	968,00
-29901,55	1087,00
-29815,63	981,00
-29730,07	984,00
-29644,86	964,00
-29560,00	957,00
-29475,48	938,00
-29391,30	920,00
-29307,47	850,00
-29223,97	859,00
-29140,81	951,00
-29057,99	998,00
-28975,50	813,00
-28893,34	1027,00
-28811,51	847,00
-28730,00	932,00
-28648,82	917,00
-28567,97	896,00
-28487,43	947,00
-28407,21	905,00
-28327,32	854,00
-28247,73	1022,00
-28168,46	806,00
-28089,50	978,00
-28010,85	863,00
-27932,51	804,00
-27854,48	871,00
-27776,75	857,00
-27699,32	913,00
-27622,19	910,00
-27545,37	928,00
-27468,84	990,00
-27392,60	1061,00
-27316,66	861,00
-27241,01	918,00
-27165,66	861,00
-27090,59	827,00
-27015,81	992,00
-26941,31	979,00
-26867,10	804,00
-26793,17	1003,00
-26719,52	934,00
-26646,15	873,00
-26573,06	870,00
-26500,24	844,00
-26427,70	933,00
-26355,43	860,00
-26283,43	891,00
-26211,71	911,00
-26140,25	879,00
-26069,06	938,00
-25998,13	820,00
-25927,46	824,00
-25857,06	869,00
-25786,92	902,00
-25717,04	849,00
-25647,42	917,00
-25578,05	825,00
-25508,94	844,00
-25440,09	900,00
-25371,48	860,00
-25303,13	947,00
-25235,02	887,00
-25167,17	878,00
-25099,56	913,00
-25032,19	912,00
-24965,07	812,00
-24898,20	833,00
-24831,56	816,00
-24765,17	939,00
-24699,01	801,00
-24633,10	831,00
-24567,41	883,00
-24501,97	876,00
-24436,75	885,00
-24371,77	873,00
-24307,03	780,00
-24242,51	867,00
-24178,22	908,00
-24114,16	906,00
-24050,32	946,00
-23986,71	902,00
-23923,32	876,00
-23860,16	930,00
-23797,22	917,00
-23734,50	950,00
-23672,00	876,00
-23609,71	769,00
-23547,65	836,00
-23485,80	921,00
-23424,16	738,00
-23362,74	1028,00
-23301,53	922,00
-23240,54	733,00
-23179,75	767,00
-23119,17	779,00
-23058,80	879,00
-22998,64	1007,00
-22938,68	901,00
-22878,93	823,00
-22819,39	815,00
-22760,04	760,00
-22700,90	941,00
-22641,96	884,00
-22583,22	832,00
-22524,68	814,00
-22466,33	773,00
-22408,19	925,00
-22350,23	792,00
-22292,48	863,00
-22234,92	951,00
-22177,55	963,00
-22120,37	1063,00
-22063,38	828,00
-22006,58	896,00
-21949,98	758,00
-21893,56	738,00
-21837,33	863,00
-21781,28	809,00
-21725,42	862,00
-21669,74	955,00
-21614,25	874,00
-21558,94	912,00
-21503,81	937,00
-21448,86	951,00
-21394,10	848,00
-21339,51	828,00
-21285,10	800,00
-21230,86	818,00
-21176,81	851,00
-21122,93	891,00
-21069,22	751,00
-21015,69	901,00
-20962,33	953,00
-20909,14	839,00
-20856,13	848,00
-20803,28	913,00
-20750,61	819,00
-20698,10	772,00
-20645,76	824,00
-20593,59	992,00
-20541,59	971,00
-20489,75	902,00
-20438,07	735,00
-20386,56	1022,00
-20335,22	771,00
-20284,03	881,00
-20233,01	891,00
-20182,15	857,00
-20131,45	841,00
-20080,91	723,00
-20030,52	804,00
-19980,30	807,00
-19930,23	781,00
-19880,32	942,00
-19830,56	866,00
-19780,96	857,00
-19731,52	872,00
-19682,23	895,00
-19633,09	850,00
-19584,10	845,00
-19535,26	858,00
-19486,58	936,00
-19438,04	879,00
-19389,66	1050,00
-19341,42	843,00
-19293,33	888,00
-19245,39	930,00
-19197,60	989,00
-19149,95	919,00
-19102,45	918,00
-19055,09	807,00
-19007,87	905,00
-18960,80	854,00
-18913,87	866,00
-18867,09	883,00
-18820,44	1002,00
-18773,94	882,00
-18727,57	956,00
-18681,35	807,00
-18635,26	852,00
-18589,31	792,00
-18543,50	882,00
-18497,83	928,00
-18452,29	861,00
-18406,89	770,00
-18361,63	902,00
-18316,50	882,00
-18271,50	852,00
-18226,63	953,00
-18181,90	937,00
-18137,30	962,00
-18092,84	919,00
-18048,50	903,00
-18004,29	737,00
-17960,22	788,00
-17916,27	839,00
-17872,45	1012,00
-17828,76	982,00
-17785,20	916,00
-17741,77	887,00
-17698,46	958,00
-17655,28	846,00
-17612,22	839,00
-17569,29	873,00
-17526,48	926,00
-17483,79	869,00
-17441,23	795,00
-17398,79	894,00
-17356,48	767,00
-17314,28	1041,00
-17272,21	828,00
-17230,26	919,00
-17188,42	913,00
-17146,71	919,00
-17105,12	828,00
-17063,64	900,00
-17022,28	866,00
-16981,04	829,00
-16939,92	903,00
-16898,91	1014,00
-16858,02	818,00
-16817,25	855,00
-16776,59	797,00
-16736,04	834,00
-16695,61	870,00
-16655,29	854,00
-16615,09	877,00
-16574,99	925,00
-16535,01	866,00
-16495,15	888,00
-16455,39	869,00
-16415,74	852,00
-16376,21	843,00
-16336,78	791,00
-16297,46	839,00
-16258,26	827,00
-16219,16	854,00
-16180,17	893,00
-16141,28	927,00
-16102,51	897,00
-16063,84	774,00
-16025,27	851,00
-15986,82	787,00
-15948,46	934,00
-15910,22	796,00
-15872,07	896,00
-15834,04	880,00
-15796,10	853,00
-15758,27	1121,00
-15720,54	911,00
-15682,91	778,00
-15645,39	1017,00
-15607,97	916,00
-15570,64	818,00
-15533,42	941,00
-15496,30	860,00
-15459,28	964,00
-15422,36	842,00
-15385,54	784,00
-15348,82	896,00
-15312,19	970,00
-15275,66	844,00
-15239,23	822,00
-15202,90	792,00
-15166,67	805,00
-15130,53	985,00
-15094,48	921,00
-15058,54	802,00
-15022,68	822,00
-14986,93	795,00
-14951,26	905,00
-14915,69	967,00
-14880,22	797,00
-14844,84	834,00
-14809,55	968,00
-14774,35	824,00
-14739,25	905,00
-14704,24	898,00
-14669,32	797,00
-14634,49	866,00
-14599,75	905,00
-14565,10	808,00
-14530,55	868,00
-14496,08	891,00
-14461,70	871,00
-14427,41	800,00
-14393,21	764,00
-14359,10	877,00
-14325,07	851,00
-14291,14	889,00
-14257,29	907,00
-14223,52	861,00
-14189,85	1008,00
-14156,26	844,00
-14122,76	748,00
-14089,34	763,00
-14056,01	939,00
-14022,76	926,00
-13989,60	889,00
-13956,52	1015,00
-13923,53	895,00
-13890,62	819,00
-13857,79	843,00
-13825,05	813,00
-13792,39	835,00
-13759,81	822,00
-13727,31	807,00
-13694,90	874,00
-13662,57	945,00
-13630,31	884,00
-13598,14	930,00
-13566,05	761,00
-13534,05	918,00
-13502,12	918,00
-13470,27	831,00
-13438,50	1050,00
-13406,80	751,00
-13375,19	790,00
-13343,66	876,00
-13312,20	923,00
-13280,83	859,00
-13249,53	916,00
-13218,30	760,00
-13187,16	864,00
-13156,09	1043,00
-13125,10	887,00
-13094,18	912,00
-13063,34	988,00
-13032,58	763,00
-13001,89	928,00
-12971,28	947,00
-12940,74	891,00
-12910,27	907,00
-12879,88	908,00
-12849,57	931,00
-12819,33	958,00
-12789,16	948,00
-12759,06	793,00
-12729,04	833,00
-12699,09	2219,00
-12669,21	856,00
-12639,41	975,00
-12609,68	766,00
-12580,02	893,00
-12550,43	989,00
-12520,91	760,00
-12491,46	856,00
-12462,08	810,00
-12432,77	821,00
-12403,54	758,00
-12374,37	858,00
-12345,27	932,00
-12316,24	819,00
-12287,29	777,00
-12258,40	799,00
-12229,57	922,00
-12200,82	780,00
-12172,14	899,00
-12143,52	663,00
-12114,97	890,00
-12086,49	900,00
-12058,07	948,00
-12029,73	805,00
-12001,44	952,00
-11973,23	803,00
-11945,08	810,00
-11917,00	848,00
-11888,98	786,00
-11861,03	1078,00
-11833,15	882,00
-11805,32	955,00
-11777,57	884,00
-11749,88	896,00
-11722,25	844,00
-11694,69	840,00
-11667,19	819,00
-11639,75	897,00
-11612,38	877,00
-11585,07	812,00
-11557,83	911,00
-11530,65	972,00
-11503,53	912,00
-11476,47	887,00
-11449,48	751,00
-11422,54	979,00
-11395,67	942,00
-11368,86	904,00
-11342,11	772,00
-11315,43	862,00
-11288,80	848,00
-11262,23	892,00
-11235,73	839,00
-11209,28	1061,00
-11182,90	867,00
-11156,57	835,00
-11130,31	1116,00
-11104,10	902,00
-11077,96	839,00
-11051,87	858,00
-11025,84	822,00
-10999,87	925,00
-10973,96	902,00
-10948,11	865,00
-10922,31	997,00
-10896,58	909,00
-10870,90	1054,00
-10845,28	995,00
-10819,71	799,00
-10794,20	946,00
-10768,75	970,00
-10743,36	935,00
-10718,02	842,00
-10692,74	888,00
-10667,52	917,00
-10642,35	863,00
-10617,24	935,00
-10592,18	978,00
-10567,18	903,00
-10542,23	955,00
-10517,34	1010,00
-10492,51	1021,00
-10467,72	923,00
-10443,00	1038,00
-10418,32	950,00
-10393,70	1069,00
-10369,14	943,00
-10344,63	903,00
-10320,17	1016,00
-10295,77	954,00
-10271,42	1066,00
-10247,12	986,00
-10222,88	1173,00
-10198,68	999,00
-10174,54	1037,00
-10150,46	1158,00
-10126,42	1254,00
-10102,44	1061,00
-10078,51	1077,00
-10054,63	1108,00
-10030,80	1129,00
-10007,03	1219,00
-9983,30	1234,00
-9959,63	1235,00
-9936,01	1308,00
-9912,44	1304,00
-9888,92	1285,00
-9865,44	1262,00
-9842,02	1316,00
-9818,65	1430,00
-9795,33	1227,00
-9772,06	1420,00
-9748,84	1336,00
-9725,67	1453,00
-9702,55	1633,00
-9679,47	1773,00
-9656,45	1765,00
-9633,47	1691,00
-9610,55	1786,00
-9587,67	1990,00
-9564,84	2164,00
-9542,06	2076,00
-9519,32	2407,00
-9496,64	2533,00
-9474,00	2460,00
-9451,41	2674,00
-9428,87	2645,00
-9406,37	2672,00
-9383,92	2478,00
-9361,52	2490,00
-9339,17	2852,00
-9316,86	2845,00
-9294,60	3351,00
-9272,38	3584,00
-9250,21	3974,00
-9228,09	4067,00
-9206,01	3953,00
-9183,98	3574,00
-9162,00	3365,00
-9140,06	3414,00
-9118,16	3432,00
-9096,31	3394,00
-9074,51	3542,00
-9052,75	3781,00
-9031,04	3608,00
-9009,37	3263,00
-8987,74	3055,00
-8966,16	2910,00
-8944,63	2610,00
-8923,14	2691,00
-8901,69	2574,00
-8880,29	2638,00
-8858,93	2950,00
-8837,61	3210,00
-8816,34	3158,00
-8795,11	3373,00
-8773,92	2933,00
-8752,78	2928,00
-8731,68	2603,00
-8710,62	2859,00
-8689,61	2707,00
-8668,63	2918,00
-8647,70	3151,00
-8626,82	3238,00
-8605,97	3125,00
-8585,17	2897,00
-8564,41	2727,00
-8543,69	2640,00
-8523,01	2401,00
-8502,37	2746,00
-8481,78	2668,00
-8461,23	2669,00
-8440,71	2880,00
-8420,24	3005,00
-8399,81	3291,00
-8379,42	3020,00
-8359,08	3029,00
-8338,77	2697,00
-8318,50	2473,00
-8298,27	2419,00
-8278,09	2548,00
-8257,94	2664,00
-8237,83	3045,00
-8217,76	2995,00
-8197,74	2933,00
-8177,75	3039,00
-8157,80	2551,00
-8137,89	2450,00
-8118,02	2324,00
-8098,19	2438,00
-8078,40	2431,00
-8058,65	2448,00
-8038,93	2578,00
-8019,26	2572,00
-7999,62	2566,00
-7980,02	2377,00
-7960,46	2234,00
-7940,94	2149,00
-7921,46	2126,00
-7902,01	1984,00
-7882,60	2288,00
-7863,23	2006,00
-7843,90	2186,00
-7824,61	2201,00
-7805,35	2374,00
-7786,13	2326,00
-7766,95	2387,00
-7747,80	2333,00
-7728,69	2214,00
-7709,62	2308,00
-7690,59	2369,00
-7671,59	2367,00
-7652,63	2309,00
-7633,70	2425,00
-7614,81	2376,00
-7595,96	2087,00
-7577,15	2140,00
-7558,37	1996,00
-7539,62	2123,00
-7520,91	2126,00
-7502,24	2223,00
-7483,60	2357,00
-7465,00	2172,00
-7446,44	2134,00
-7427,91	1737,00
-7409,41	1789,00
-7390,95	1745,00
-7372,53	1578,00
-7354,14	1681,00
-7335,78	1665,00
-7317,46	1762,00
-7299,18	1707,00
-7280,92	1980,00
-7262,71	2231,00
-7244,52	2188,00
-7226,38	2170,00
-7208,26	2239,00
-7190,18	1922,00
-7172,14	1916,00
-7154,12	2021,00
-7136,15	1894,00
-7118,20	2245,00
-7100,29	2160,00
-7082,41	2175,00
-7064,57	2060,00
-7046,76	1961,00
-7028,98	1720,00
-7011,24	1831,00
-6993,53	1547,00
-6975,85	1523,00
-6958,20	1527,00
-6940,59	1442,00
-6923,01	1281,00
-6905,46	1706,00
-6887,94	1663,00
-6870,46	2142,00
-6853,01	1936,00
-6835,59	1953,00
-6818,21	1683,00
-6800,85	1825,00
-6783,53	1550,00
-6766,24	1325,00
-6748,98	1289,00
-6731,76	1221,00
-6714,56	1274,00
-6697,40	1152,00
-6680,26	1226,00
-6663,16	1270,00
-6646,09	1516,00
-6629,05	1728,00
-6612,05	1850,00
-6595,07	1722,00
-6578,13	1735,00
-6561,21	1468,00
-6544,33	1374,00
-6527,47	1209,00
-6510,65	1231,00
-6493,86	974,00
-6477,10	1164,00
-6460,36	1193,00
-6443,66	1124,00
-6426,99	1112,00
-6410,35	1179,00
-6393,74	1309,00
-6377,16	1232,00
-6360,61	1335,00
-6344,09	1311,00
-6327,59	1322,00
-6311,13	1409,00
-6294,70	1411,00
-6278,29	1520,00
-6261,92	1410,00
-6245,58	1622,00
-6229,26	1659,00
-6212,97	1460,00
-6196,72	1269,00
-6180,49	1374,00
-6164,29	1054,00
-6148,12	1161,00
-6131,98	1149,00
-6115,86	952,00
-6099,78	1001,00
-6083,72	937,00
-6067,69	981,00
-6051,69	1007,00
-6035,72	1088,00
-6019,78	1075,00
-6003,87	1245,00
-5987,98	1266,00
-5972,12	1419,00
-5956,29	1392,00
-5940,49	1225,00
-5924,71	1328,00
-5908,96	1069,00
-5893,24	1025,00
-5877,55	1047,00
-5861,89	1099,00
-5846,25	960,00
-5830,64	1142,00
-5815,05	978,00
-5799,50	994,00
-5783,97	1097,00
-5768,47	1119,00
-5752,99	1406,00
-5737,55	1209,00
-5722,12	1374,00
-5706,73	1326,00
-5691,36	1303,00
-5676,02	1080,00
-5660,71	1102,00
-5645,42	1021,00
-5630,16	1109,00
-5614,92	1149,00
-5599,71	1208,00
-5584,53	1172,00
-5569,37	1163,00
-5554,24	1374,00
-5539,14	1037,00
-5524,06	1104,00
-5509,01	1148,00
-5493,98	1086,00
-5478,98	1187,00
-5464,00	1132,00
-5449,05	1084,00
-5434,13	1076,00
-5419,23	1026,00
-5404,36	974,00
-5389,51	1193,00
-5374,69	1252,00
-5359,89	1398,00
-5345,12	1517,00
-5330,37	1572,00
-5315,65	1339,00
-5300,95	1176,00
-5286,28	1144,00
-5271,63	956,00
-5257,01	1055,00
-5242,41	1165,00
-5227,84	1012,00
-5213,29	1137,00
-5198,76	956,00
-5184,26	967,00
-5169,79	990,00
-5155,33	1072,00
-5140,91	1117,00
-5126,51	1182,00
-5112,13	1205,00
-5097,77	1170,00
-5083,44	1167,00
-5069,13	925,00
-5054,85	1056,00
-5040,59	1086,00
-5026,36	1183,00
-5012,15	1295,00
-4997,96	1124,00
-4983,80	1174,00
-4969,66	1025,00
-4955,54	960,00
-4941,44	1152,00
-4927,37	1184,00
-4913,33	1346,00
-4899,30	1370,00
-4885,30	1372,00
-4871,33	1153,00
-4857,37	1039,00
-4843,44	1024,00
-4829,53	1062,00
-4815,65	1190,00
-4801,79	880,00
-4787,95	1199,00
-4774,13	1005,00
-4760,34	944,00
-4746,56	1106,00
-4732,82	908,00
-4719,09	1100,00
-4705,38	1247,00
-4691,70	1391,00
-4678,04	1355,00
-4664,41	1196,00
-4650,79	1322,00
-4637,20	935,00
-4623,63	958,00
-4610,08	1137,00
-4596,56	1103,00
-4583,05	1115,00
-4569,57	1054,00
-4556,11	1055,00
-4542,67	967,00
-4529,25	944,00
-4515,86	1066,00
-4502,49	1204,00
-4489,13	1289,00
-4475,80	1238,00
-4462,49	914,00
-4449,21	1109,00
-4435,94	966,00
-4422,70	980,00
-4409,47	996,00
-4396,27	1011,00
-4383,09	983,00
-4369,93	949,00
-4356,79	915,00
-4343,67	973,00
-4330,58	1045,00
-4317,50	1129,00
-4304,45	1029,00
-4291,41	992,00
-4278,40	917,00
-4265,41	863,00
-4252,44	963,00
-4239,49	909,00
-4226,55	1112,00
-4213,65	1032,00
-4200,76	976,00
-4187,89	984,00
-4175,04	890,00
-4162,21	899,00
-4149,40	962,00
-4136,61	972,00
-4123,85	896,00
-4111,10	904,00
-4098,37	1039,00
-4085,66	980,00
-4072,98	946,00
-4060,31	869,00
-4047,66	1034,00
-4035,04	1066,00
-4022,43	902,00
-4009,84	928,00
-3997,27	824,00
-3984,72	797,00
-3972,19	942,00
-3959,69	870,00
-3947,20	946,00
-3934,73	885,00
-3922,27	847,00
-3909,84	830,00
-3897,43	972,00
-3885,04	889,00
-3872,67	830,00
-3860,31	877,00
-3847,98	1012,00
-3835,66	880,00
-3823,36	793,00
-3811,09	906,00
-3798,83	931,00
-3786,59	914,00
-3774,37	1046,00
-3762,17	850,00
-3749,98	896,00
-3737,82	872,00
-3725,67	1002,00
-3713,55	883,00
-3701,44	1001,00
-3689,35	922,00
-3677,28	1058,00
-3665,22	834,00
-3653,19	900,00
-3641,17	812,00
-3629,18	970,00
-3617,20	966,00
-3605,24	896,00
-3593,30	933,00
-3581,37	959,00
-3569,47	813,00
-3557,58	908,00
-3545,71	924,00
-3533,86	993,00
-3522,02	775,00
-3510,21	923,00
-3498,41	839,00
-3486,63	879,00
-3474,87	839,00
-3463,12	846,00
-3451,40	930,00
-3439,69	910,00
-3428,00	871,00
-3416,33	958,00
-3404,67	778,00
-3393,03	883,00
-3381,41	944,00
-3369,81	989,00
-3358,22	963,00
-3346,66	1104,00
-3335,10	913,00
-3323,57	806,00
-3312,06	906,00
-3300,56	964,00
-3289,08	840,00
-3277,61	873,00
-3266,16	925,00
-3254,73	874,00
-3243,32	862,00
-3231,92	834,00
-3220,55	915,00
-3209,18	1068,00
-3197,84	839,00
-3186,51	831,00
-3175,20	816,00
-3163,90	907,00
-3152,63	992,00
-3141,36	781,00
-3130,12	867,00
-3118,89	937,00
-3107,68	904,00
-3096,49	867,00
-3085,31	879,00
-3074,15	838,00
-3063,00	881,00
-3051,87	919,00
-3040,76	867,00
-3029,67	1036,00
-3018,59	1168,00
-3007,52	989,00
-2996,48	906,00
-2985,44	866,00
-2974,43	940,00
-2963,43	797,00
-2952,45	867,00
-2941,48	910,00
-2930,53	889,00
-2919,60	845,00
-2908,68	854,00
-2897,78	973,00
-2886,89	996,00
-2876,02	961,00
-2865,17	893,00
-2854,33	904,00
-2843,50	932,00
-2832,70	855,00
-2821,90	887,00
-2811,13	885,00
-2800,37	902,00
-2789,62	759,00
-2778,89	917,00
-2768,18	989,00
-2757,48	960,00
-2746,80	984,00
-2736,13	861,00
-2725,48	1000,00
-2714,84	767,00
-2704,22	946,00
-2693,61	923,00
-2683,02	831,00
-2672,45	962,00
-2661,89	952,00
-2651,34	988,00
-2640,81	956,00
-2630,30	1077,00
-2619,80	839,00
-2609,31	994,00
-2598,84	885,00
-2588,39	860,00
-2577,95	811,00
-2567,52	805,00
-2557,11	806,00
-2546,71	935,00
-2536,33	1039,00
-2525,97	869,00
-2515,62	1001,00
-2505,28	908,00
-2494,96	926,00
-2484,65	1040,00
-2474,36	1282,00
-2464,08	796,00
-2453,82	1043,00
-2443,57	901,00
-2433,33	838,00
-2423,11	967,00
-2412,91	943,00
-2402,72	885,00
-2392,54	910,00
-2382,38	861,00
-2372,23	1024,00
-2362,09	1963,00
-2351,97	829,00
-2341,87	819,00
-2331,78	857,00
-2321,70	921,00
-2311,64	915,00
-2301,59	857,00
-2291,55	857,00
-2281,53	941,00
-2271,53	748,00
-2261,53	928,00
-2251,55	852,00
-2241,59	839,00
-2231,64	918,00
-2221,70	951,00
-2211,78	940,00
-2201,87	949,00
-2191,97	924,00
-2182,09	790,00
-2172,22	874,00
-2162,37	757,00
-2152,53	769,00
-2142,70	810,00
-2132,89	893,00
-2123,09	953,00
-2113,30	865,00
-2103,53	924,00
-2093,77	910,00
-2084,02	856,00
-2074,29	939,00
-2064,57	948,00
-2054,86	979,00
-2045,17	1000,00
-2035,49	989,00
-2025,82	857,00
-2016,17	848,00
-2006,53	860,00
-1996,91	1006,00
-1987,29	872,00
-1977,69	914,00
-1968,11	868,00
-1958,53	871,00
-1948,97	894,00
-1939,42	833,00
-1929,89	924,00
-1920,37	829,00
-1910,86	860,00
-1901,36	891,00
-1891,88	967,00
-1882,41	873,00
-1872,95	850,00
-1863,51	964,00
-1854,08	968,00
-1844,66	1037,00
-1835,26	918,00
-1825,86	957,00
-1816,48	896,00
-1807,11	961,00
-1797,76	913,00
-1788,42	902,00
-1779,09	932,00
-1769,77	878,00
-1760,47	1112,00
-1751,17	847,00
-1741,89	912,00
-1732,63	958,00
-1723,37	1033,00
-1714,13	1034,00
-1704,90	887,00
-1695,68	1034,00
-1686,48	887,00
-1677,29	861,00
-1668,11	1059,00
-1658,94	912,00
-1649,78	914,00
-1640,64	963,00
-1631,51	852,00
-1622,39	947,00
-1613,28	960,00
-1604,19	1000,00
-1595,10	909,00
-1586,03	907,00
-1576,97	934,00
-1567,93	833,00
-1558,89	951,00
-1549,87	952,00
-1540,86	866,00
-1531,86	943,00
-1522,87	856,00
-1513,90	979,00
-1504,93	957,00
-1495,98	1091,00
-1487,04	1017,00
-1478,12	858,00
-1469,20	995,00
-1460,30	902,00
-1451,40	1047,00
-1442,52	878,00
-1433,65	1096,00
-1424,80	918,00
-1415,95	867,00
-1407,12	1071,00
-1398,30	881,00
-1389,48	904,00
-1380,69	806,00
-1371,90	826,00
-1363,12	903,00
-1354,36	962,00
-1345,60	902,00
-1336,86	975,00
-1328,13	1052,00
-1319,41	955,00
-1310,70	901,00
-1302,01	876,00
-1293,32	877,00
-1284,65	945,00
-1275,99	989,00
-1267,33	1032,00
-1258,69	1035,00
-1250,06	945,00
-1241,45	852,00
-1232,84	1092,00
-1224,25	907,00
-1215,66	936,00
-1207,09	990,00
-1198,53	891,00
-1189,97	915,00
-1181,43	833,00
-1172,91	910,00
-1164,39	962,00
-1155,88	765,00
-1147,38	814,00
-1138,90	879,00
-1130,43	898,00
-1121,96	857,00
-1113,51	859,00
-1105,07	954,00
-1096,64	1066,00
-1088,22	868,00
-1079,81	1031,00
-1071,41	974,00
-1063,02	826,00
-1054,65	1046,00
-1046,28	872,00
-1037,92	894,00
-1029,58	905,00
-1021,24	953,00
-1012,92	1252,00
-1004,61	896,00
-996,30	1188,00
-988,01	806,00
-979,73	857,00
-971,46	976,00
-963,20	995,00
-954,95	796,00
-946,71	919,00
-938,48	995,00
-930,26	929,00
-922,06	923,00
-913,86	842,00
-905,67	837,00
-897,49	1017,00
-889,33	762,00
-881,17	987,00
-873,02	896,00
-864,89	832,00
-856,76	859,00
-848,65	895,00
-840,54	1025,00
-832,45	935,00
-824,36	805,00
-816,29	967,00
-808,22	961,00
-800,17	980,00
-792,12	894,00
-784,09	947,00
-776,06	879,00
-768,05	886,00
-760,04	865,00
-752,05	880,00
-744,07	1004,00
-736,09	992,00
-728,13	801,00
-720,17	912,00
-712,23	866,00
-704,29	811,00
-696,37	977,00
-688,45	957,00
-680,55	830,00
-672,65	927,00
-664,77	870,00
-656,89	925,00
-649,03	915,00
-641,17	1004,00
-633,32	843,00
-625,49	919,00
-617,66	901,00
-609,84	897,00
-602,03	861,00
-594,23	932,00
-586,45	923,00
-578,67	898,00
-570,90	867,00
-563,14	784,00
-555,39	975,00
-547,65	942,00
-539,91	936,00
-532,19	927,00
-524,48	964,00
-516,78	820,00
-509,08	996,00
-501,40	946,00
-493,72	960,00
-486,06	834,00
-478,40	1066,00
-470,76	920,00
-463,12	892,00
-455,49	870,00
-447,87	860,00
-440,26	857,00
-432,66	857,00
-425,07	957,00
-417,49	971,00
-409,92	784,00
-402,35	856,00
-394,80	848,00
-387,25	939,00
-379,72	913,00
-372,19	1016,00
-364,67	1017,00
-357,17	934,00
-349,67	938,00
-342,18	915,00
-334,69	865,00
-327,22	913,00
-319,76	853,00
-312,30	896,00
-304,86	910,00
-297,42	948,00
-290,00	911,00
-282,58	913,00
-275,17	1016,00
-267,77	1022,00
-260,37	934,00
-252,99	995,00
-245,62	978,00
-238,25	1004,00
-230,90	935,00
-223,55	1085,00
-216,21	1050,00
-208,88	1166,00
-201,56	959,00
-194,25	1052,00
-186,94	1076,00
-179,65	1101,00
-172,36	1188,00
-165,08	1089,00
-157,81	1343,00
-150,55	1254,00
-143,30	1288,00
-136,06	1263,00
-128,82	1293,00
-121,60	1260,00
-114,38	1467,00
-107,17	1546,00
-99,97	1744,00
-92,78	1714,00
-85,60	1824,00
-78,42	2016,00
-71,25	2094,00
-64,10	2233,00
-56,95	2525,00
-49,81	2872,00
-42,67	3499,00
-35,55	3945,00
-28,43	5253,00
-21,33	7978,00
-14,23	24684,00
-7,14	57498,00
-0,05	57284,00
7,02	57012,00
14,09	57319,00
21,14	20895,00
28,19	9240,00
35,23	6189,00
42,27	5164,00
49,29	4112,00
56,31	3646,00
63,32	3291,00
70,32	2805,00
77,31	2582,00
84,29	2224,00
91,27	2199,00
98,23	2082,00
105,19	2017,00
112,14	2162,00
119,09	3078,00
126,02	4493,00
132,95	4967,00
139,87	5164,00
146,78	5363,00
153,68	5122,00
160,58	5033,00
167,46	4974,00
174,34	4931,00
181,21	4899,00
188,08	4841,00
194,93	4913,00
201,78	4943,00
208,62	4959,00
215,45	5056,00
222,27	4949,00
229,09	4994,00
235,90	4703,00
242,70	4701,00
249,49	4797,00
256,27	4576,00
263,05	4531,00
269,82	4467,00
276,58	4469,00
283,33	4363,00
290,08	4393,00
296,82	4356,00
303,55	4034,00
310,27	4120,00
316,98	4160,00
323,69	4174,00
330,39	4041,00
337,08	4102,00
343,76	4077,00
350,44	4184,00
357,11	4030,00
363,77	4001,00
370,42	4045,00
377,07	4012,00
383,71	4009,00
390,34	4049,00
396,96	4006,00
403,58	4020,00
410,19	4250,00
416,79	4148,00
423,38	4407,00
429,97	4269,00
436,55	4183,00
443,12	4279,00
449,68	4344,00
456,24	4145,00
462,79	4005,00
469,33	3869,00
475,86	3817,00
482,39	3646,00
488,91	3694,00
495,42	3583,00
501,93	3586,00
508,42	3431,00
514,91	3511,00
521,40	3444,00
527,87	3520,00
534,34	3340,00
540,80	3388,00
547,25	3458,00
553,70	3411,00
560,14	3411,00
566,57	3541,00
573,00	3447,00
579,41	3474,00
585,83	3602,00
592,23	3593,00
598,62	3608,00
605,01	3678,00
611,40	3844,00
617,77	3738,00
624,14	3550,00
630,50	3493,00
636,85	3360,00
643,20	3350,00
649,54	3191,00
655,87	3231,00
662,20	3112,00
668,52	3121,00
674,83	3144,00
681,13	3097,00
687,43	3122,00
693,72	2984,00
700,00	2915,00
706,28	3014,00
712,55	3011,00
718,81	3106,00
725,07	3000,00
731,32	2991,00
737,56	3144,00
743,79	2920,00
750,02	3006,00
756,24	2803,00
762,46	3012,00
768,67	3091,00
774,87	2928,00
781,06	2808,00
787,25	3012,00
793,43	2831,00
799,60	2825,00
805,77	3083,00
811,93	2873,00
818,08	2871,00
824,23	2881,00
830,37	3164,00
836,50	2910,00
842,63	2952,00
848,75	2942,00
854,87	2894,00
860,97	2970,00
867,07	2901,00
873,17	3036,00
879,25	3023,00
885,33	2860,00
891,41	2939,00
897,47	2947,00
903,53	2825,00
909,59	2943,00
915,63	2798,00
921,67	2758,00
927,71	2795,00
933,74	2869,00
939,76	2641,00
945,77	2685,00
951,78	2896,00
957,78	2620,00
963,78	2731,00
969,77	2764,00
975,75	2570,00
981,72	2675,00
987,69	4201,00
993,66	2829,00
999,61	2830,00
1005,56	2680,00
1011,51	2764,00
1017,44	2753,00
1023,37	2781,00
1029,30	2748,00
1035,22	2912,00
1041,13	2782,00
1047,03	3058,00
1052,93	3459,00
1058,83	4772,00
1064,71	5177,00
1070,59	4446,00
1076,47	3680,00
1082,33	3507,00
1088,20	3286,00
1094,05	3129,00
1099,90	2943,00
1105,74	2935,00
1111,58	2971,00
1117,41	3256,00
1123,23	4058,00
1129,05	4854,00
1134,86	4570,00
1140,67	3481,00
1146,47	2991,00
1152,26	2885,00
1158,05	2762,00
1163,83	2911,00
1169,60	3043,00
1175,37	2977,00
1181,13	2790,00
1186,89	2569,00
1192,64	2655,00
1198,38	2834,00
1204,12	2470,00
1209,85	2531,00
1215,58	2602,00
1221,30	2630,00
1227,02	2544,00
1232,72	2562,00
1238,43	2462,00
1244,12	2503,00
1249,81	2570,00
1255,50	2760,00
1261,17	2753,00
1266,85	2867,00
1272,51	2809,00
1278,17	2979,00
1283,83	3229,00
1289,47	4532,00
1295,12	6073,00
1300,75	5544,00
1306,38	4368,00
1312,01	3642,00
1317,63	3109,00
1323,24	2962,00
1328,85	2920,00
1334,45	2710,00
1340,04	2694,00
1345,63	2689,00
1351,22	2863,00
1356,80	2740,00
1362,37	2874,00
1367,93	2801,00
1373,49	2896,00
1379,05	2777,00
1384,60	2664,00
1390,14	2604,00
1395,68	2814,00
1401,21	2802,00
1406,74	2869,00
1412,26	3590,00
1417,77	4082,00
1423,28	3964,00
1428,78	4367,00
1434,28	5433,00
1439,77	6027,00
1445,26	5961,00
1450,74	5575,00
1456,22	5198,00
1461,68	5038,00
1467,15	4719,00
1472,61	3981,00
1478,06	3720,00
1483,51	3100,00
1488,95	2754,00
1494,38	2845,00
1499,81	2615,00
1505,24	2500,00
1510,65	2584,00
1516,07	2511,00
1521,48	2470,00
1526,88	2324,00
1532,27	2387,00
1537,67	2307,00
1543,05	2380,00
1548,43	2272,00
1553,81	2429,00
1559,18	2122,00
1564,54	2231,00
1569,90	2289,00
1575,25	2150,00
1580,60	2113,00
1585,94	2347,00
1591,28	2172,00
1596,61	2156,00
1601,93	2204,00
1607,25	2202,00
1612,57	2179,00
1617,88	2193,00
1623,18	2188,00
1628,48	2129,00
1633,77	2124,00
1639,06	2103,00
1644,34	2044,00
1649,62	2023,00
1654,89	2052,00
1660,16	1955,00
1665,42	2199,00
1670,67	2016,00
1675,92	1883,00
1681,17	1998,00
1686,41	2020,00
1691,64	2062,00
1696,87	2019,00
1702,10	1946,00
1707,32	1936,00
1712,53	1972,00
1717,74	1890,00
1722,94	2127,00
1728,14	1888,00
1733,33	1874,00
1738,52	1802,00
1743,70	1914,00
1748,88	1813,00
1754,05	2039,00
1759,22	1745,00
1764,38	2139,00
1769,53	1895,00
1774,69	1921,00
1779,83	1848,00
1784,97	1924,00
1790,11	1887,00
1795,24	1807,00
1800,36	1795,00
1805,48	1742,00
1810,60	1782,00
1815,71	1743,00
1820,82	1793,00
1825,92	1857,00
1831,01	1783,00
1836,10	1789,00
1841,19	1781,00
1846,26	1538,00
1851,34	1828,00
1856,41	1759,00
1861,47	1708,00
1866,53	1835,00
1871,59	1713,00
1876,64	1765,00
1881,68	1750,00
1886,72	1721,00
1891,76	1687,00
1896,79	1697,00
1901,81	1613,00
1906,83	1676,00
1911,85	1625,00
1916,86	1670,00
1921,86	1578,00
1926,86	1535,00
1931,86	1658,00
1936,85	1542,00
1941,83	1618,00
1946,81	1629,00
1951,79	1568,00
1956,76	1526,00
1961,72	1414,00
1966,68	1592,00
1971,64	1604,00
1976,59	1611,00
1981,54	1565,00
1986,48	1651,00
1991,42	1445,00
1996,35	1818,00
2001,27	1537,00
2006,20	1517,00
2011,11	1532,00
2016,03	1447,00
2020,93	1447,00
2025,84	1490,00
2030,73	1404,00
2035,63	1386,00
2040,52	1479,00
2045,40	1415,00
2050,28	1517,00
2055,15	1547,00
2060,02	1347,00
2064,89	1567,00
2069,75	1431,00
2074,60	1506,00
2079,46	1311,00
2084,30	1483,00
2089,14	1334,00
2093,98	1458,00
2098,81	1428,00
2103,64	1505,00
2108,46	1480,00
2113,28	1495,00
2118,09	1490,00
2122,90	1477,00
2127,70	1371,00
2132,50	1568,00
2137,30	1409,00
2142,09	1307,00
2146,87	1308,00
2151,66	1423,00
2156,43	1415,00
2161,20	1411,00
2165,97	1587,00
2170,73	1374,00
2175,49	1563,00
2180,24	1473,00
2184,99	1573,00
2189,74	1616,00
2194,48	1515,00
2199,21	1550,00
2203,94	1425,00
2208,67	1315,00
2213,39	1236,00
2218,11	1374,00
2222,82	1300,00
2227,53	1365,00
2232,23	1393,00
2236,93	1399,00
2241,63	1407,00
2246,32	1433,00
2251,00	1355,00
2255,68	1396,00
2260,36	1289,00
2265,03	1435,00
2269,70	1513,00
2274,36	1345,00
2279,02	1400,00
2283,68	1296,00
2288,33	1331,00
2292,97	1436,00
2297,61	1344,00
2302,25	1338,00
2306,88	1308,00
2311,51	1228,00
2316,14	1294,00
2320,75	1180,00
2325,37	1220,00
2329,98	1326,00
2334,59	1347,00
2339,19	1260,00
2343,79	1185,00
2348,38	1260,00
2352,97	1229,00
2357,55	1336,00
2362,13	1258,00
2366,71	1227,00
2371,28	1419,00
2375,85	1298,00
2380,41	1279,00
2384,97	1167,00
2389,52	1341,00
2394,07	1292,00
2398,62	1232,00
2403,16	1329,00
2407,70	1118,00
2412,23	1212,00
2416,76	1296,00
2421,29	1291,00
2425,81	1330,00
2430,32	1311,00
2434,84	1180,00
2439,34	1218,00
2443,85	1396,00
2448,35	1207,00
2452,84	1241,00
2457,33	1239,00
2461,82	1083,00
2466,30	1090,00
2470,78	1311,00
2475,25	1140,00
2479,72	1167,00
2484,19	1295,00
2488,65	1287,00
2493,11	1161,00
2497,56	1366,00
2502,01	1093,00
2506,46	1293,00
2510,90	1199,00
2515,34	1209,00
2519,77	1116,00
2524,20	1276,00
2528,62	1278,00
2533,04	1312,00
2537,46	1210,00
2541,87	1163,00
2546,28	1238,00
2550,68	1333,00
2555,08	1239,00
2559,48	1223,00
2563,87	1059,00
2568,26	1170,00
2572,64	1271,00
2577,02	1196,00
2581,40	1123,00
2585,77	1286,00
2590,14	1168,00
2594,50	1177,00
2598,86	1237,00
2603,22	1213,00
2607,57	1195,00
2611,92	1280,00
2616,26	1430,00
2620,60	1339,00
2624,94	1179,00
2629,27	1354,00
2633,60	1222,00
2637,92	1364,00
2642,24	1329,00
2646,56	1249,00
2650,87	1147,00
2655,18	1374,00
2659,48	1132,00
2663,78	1182,00
2668,08	1177,00
2672,37	1222,00
2676,66	1190,00
2680,95	1221,00
2685,23	1365,00
2689,50	1330,00
2693,78	1361,00
2698,05	1270,00
2702,31	1406,00
2706,57	1413,00
2710,83	1502,00
2715,08	1687,00
2719,33	1682,00
2723,58	1493,00
2727,82	1544,00
2732,06	1503,00
2736,29	1494,00
2740,53	1458,00
2744,75	1438,00
2748,97	1375,00
2753,19	1438,00
2757,41	1357,00
2761,62	1416,00
2765,83	1389,00
2770,03	1376,00
2774,23	1429,00
2778,43	1330,00
2782,62	1490,00
2786,81	1430,00
2791,00	1521,00
2795,18	1488,00
2799,35	1597,00
2803,53	1575,00
2807,70	1599,00
2811,86	1688,00
2816,03	1807,00
2820,19	1783,00
2824,34	1907,00
2828,49	2020,00
2832,64	2231,00
2836,78	2708,00
2840,92	3078,00
2845,06	3657,00
2849,19	4098,00
2853,32	4185,00
2857,45	4270,00
2861,57	4136,00
2865,69	3983,00
2869,80	3902,00
2873,91	4109,00
2878,02	4574,00
2882,12	4872,00
2886,22	4870,00
2890,32	4723,00
2894,41	4261,00
2898,50	3909,00
2902,58	3728,00
2906,67	3528,00
2910,74	3219,00
2914,82	2968,00
2918,89	2959,00
2922,96	2637,00
2927,02	2500,00
2931,08	2397,00
2935,13	2306,00
2939,19	2206,00
2943,24	2043,00
2947,28	2021,00
2951,32	1793,00
2955,36	1621,00
2959,40	1751,00
2963,43	1647,00
2967,46	1515,00
2971,48	1505,00
2975,50	1380,00
2979,52	1454,00
2983,53	1428,00
2987,54	1301,00
2991,55	1308,00
2995,55	1366,00
2999,55	1241,00
3003,54	1165,00
3007,54	1255,00
3011,53	1249,00
3015,51	1144,00
3019,49	1236,00
3023,47	1001,00
3027,45	1178,00
3031,42	1087,00
3035,39	1133,00
3039,35	1075,00
3043,31	1104,00
3047,27	1043,00
3051,22	1161,00
3055,17	1015,00
3059,12	1105,00
3063,06	1111,00
3067,00	1025,00
3070,94	927,00
3074,87	1181,00
3078,80	961,00
3082,73	1016,00
3086,65	986,00
3090,57	991,00
3094,49	1013,00
3098,40	1050,00
3102,31	950,00
3106,22	975,00
3110,12	933,00
3114,02	847,00
3117,92	1029,00
3121,81	968,00
3125,70	945,00
3129,58	919,00
3133,47	921,00
3137,34	1067,00
3141,22	1014,00
3145,09	1024,00
3148,96	932,00
3152,83	987,00
3156,69	1063,00
3160,55	922,00
3164,40	1040,00
3168,26	972,00
3172,10	1016,00
3175,95	989,00
3179,79	1020,00
3183,63	1004,00
3187,47	948,00
3191,30	1021,00
3195,13	938,00
3198,95	778,00
3202,78	1030,00
3206,60	914,00
3210,41	916,00
3214,23	954,00
3218,03	898,00
3221,84	980,00
3225,64	943,00
3229,44	944,00
3233,24	959,00
3237,03	946,00
3240,82	930,00
3244,61	889,00
3248,39	884,00
3252,17	975,00
3255,95	995,00
3259,72	1001,00
3263,49	1151,00
3267,26	952,00
3271,03	912,00
3274,79	915,00
3278,54	958,00
3282,30	794,00
3286,05	996,00
3289,80	998,00
3293,54	867,00
3297,29	942,00
3301,02	885,00
3304,76	1003,00
3308,49	945,00
3312,22	864,00
3315,95	960,00
3319,67	919,00
3323,39	1084,00
3327,10	968,00
3330,82	882,00
3334,53	979,00
3338,24	930,00
3341,94	960,00
3345,64	1012,00
3349,34	996,00
3353,03	1005,00
3356,72	912,00
3360,41	907,00
3364,10	861,00
3367,78	912,00
3371,46	932,00
3375,13	885,00
3378,81	1002,00
3382,48	911,00
3386,14	998,00
3389,81	963,00
3393,47	952,00
3397,12	1033,00
3400,78	989,00
3404,43	935,00
3408,08	976,00
3411,72	783,00
3415,36	811,00
3419,00	936,00
3422,64	908,00
3426,27	910,00
3429,90	911,00
3433,53	860,00
3437,15	945,00
3440,77	791,00
3444,39	896,00
3448,00	878,00
3451,62	971,00
3455,22	906,00
3458,83	774,00
3462,43	865,00
3466,03	945,00
3469,63	830,00
3473,22	885,00
3476,81	874,00
3480,40	986,00
3483,99	903,00
3487,57	1007,00
3491,15	930,00
3494,72	911,00
3498,29	982,00
3501,86	868,00
3505,43	848,00
3508,99	780,00
3512,56	746,00
3516,11	958,00
3519,67	857,00
3523,22	867,00
3526,77	829,00
3530,32	1020,00
3533,86	893,00
3537,40	1055,00
3540,94	906,00
3544,47	868,00
3548,00	829,00
3551,53	966,00
3555,06	853,00
3558,58	897,00
3562,10	914,00
3565,62	772,00
3569,13	873,00
3572,64	971,00
3576,15	779,00
3579,66	892,00
3583,16	875,00
3586,66	869,00
3590,16	909,00
3593,65	803,00
3597,14	869,00
3600,63	791,00
3604,11	908,00
3607,60	840,00
3611,08	873,00
3614,55	931,00
3618,03	830,00
3621,50	791,00
3624,97	732,00
3628,43	887,00
3631,90	827,00
3635,36	806,00
3638,81	795,00
3642,27	851,00
3645,72	883,00
3649,17	790,00
3652,61	826,00
3656,06	797,00
3659,50	863,00
3662,93	773,00
3666,37	920,00
3669,80	1036,00
3673,23	829,00
3676,65	833,00
3680,08	989,00
3683,50	751,00
3686,92	798,00
3690,33	865,00
3693,74	800,00
3697,15	754,00
3700,56	916,00
3703,96	777,00
3707,36	705,00
3710,76	683,00
3714,16	752,00
3717,55	745,00
3720,94	670,00
3724,33	818,00
3727,71	822,00
3731,10	817,00
3734,48	849,00
3737,85	768,00
3741,23	780,00
3744,60	765,00
3747,97	593,00
3751,33	854,00
3754,69	716,00
3758,05	763,00
3761,41	654,00
3764,77	696,00
3768,12	642,00
3771,47	676,00
3774,82	762,00
3778,16	-11,00
3781,50	14,00
3784,84	5,00
3788,18	12,00
>>>>>End Processed Spectral Data<<<<<
