SpectraSuite Data File
++++++++++++++++++++++++++++++++++++
Date: Mon Jan 05 16:32:49 ICT 2026
User: Administrator
Dark Spectrum Present: Yes
Reference Spectrum Present: No
Number of Sampled Component Spectra: 1
Spectrometers: MAYP113682
Integration Time (usec): 3000000 (MAYP113682)
Spectra Averaged: 1 (MAYP113682)
Boxcar Smoothing: 0 (MAYP113682)
Correct for Electrical Dark: No (MAYP113682)
Strobe/Lamp Enabled: No (MAYP113682)
Correct for Detector Non-linearity: No (MAYP113682)
Correct for Stray Light: No (MAYP113682)
Number of Pixels in Processed Spectrum: 2068
>>>>>Begin Processed Spectral Data<<<<<
-37534,58	34,00
-37414,56	5,00
-37295,11	8,00
-37176,24	4,00
-37057,95	618,00
-36940,22	629,00
-36823,05	638,00
-36706,45	756,00
-36590,40	749,00
-36474,90	694,00
-36359,95	787,00
-36245,55	832,00
-36131,68	724,00
-36018,35	711,00
-35905,55	753,00
-35793,29	866,00
-35681,54	738,00
-35570,32	724,00
-35459,62	745,00
-35349,43	841,00
-35239,75	825,00
-35130,58	779,00
-35021,91	789,00
-34913,74	776,00
-34806,07	812,00
-34698,89	838,00
-34592,20	833,00
-34486,00	856,00
-34380,28	900,00
-34275,04	689,00
-34170,27	717,00
-34065,98	896,00
-33962,16	787,00
-33858,81	874,00
-33755,92	763,00
-33653,49	897,00
-33551,52	860,00
-33450,01	831,00
-33348,94	821,00
-33248,33	787,00
-33148,16	793,00
-33048,43	711,00
-32949,14	947,00
-32850,29	916,00
-32751,87	816,00
-32653,89	896,00
-32556,33	966,00
-32459,20	803,00
-32362,49	768,00
-32266,19	861,00
-32170,32	800,00
-32074,86	871,00
-31979,82	912,00
-31885,18	886,00
-31790,95	913,00
-31697,12	931,00
-31603,69	961,00
-31510,67	951,00
-31418,04	810,00
-31325,80	802,00
-31233,95	893,00
-31142,49	822,00
-31051,42	855,00
-30960,73	919,00
-30870,43	985,00
-30780,50	868,00
-30690,95	784,00
-30601,77	1022,00
-30512,97	796,00
-30424,53	794,00
-30336,46	878,00
-30248,76	871,00
-30161,42	904,00
-30074,44	778,00
-29987,81	891,00
-29901,55	916,00
-29815,63	793,00
-29730,07	906,00
-29644,86	974,00
-29560,00	835,00
-29475,48	995,00
-29391,30	781,00
-29307,47	880,00
-29223,97	796,00
-29140,81	955,00
-29057,99	904,00
-28975,50	769,00
-28893,34	927,00
-28811,51	744,00
-28730,00	847,00
-28648,82	857,00
-28567,97	920,00
-28487,43	831,00
-28407,21	910,00
-28327,32	837,00
-28247,73	940,00
-28168,46	815,00
-28089,50	931,00
-28010,85	780,00
-27932,51	770,00
-27854,48	933,00
-27776,75	823,00
-27699,32	824,00
-27622,19	789,00
-27545,37	862,00
-27468,84	863,00
-27392,60	882,00
-27316,66	950,00
-27241,01	887,00
-27165,66	851,00
-27090,59	837,00
-27015,81	885,00
-26941,31	993,00
-26867,10	834,00
-26793,17	985,00
-26719,52	955,00
-26646,15	790,00
-26573,06	766,00
-26500,24	856,00
-26427,70	842,00
-26355,43	777,00
-26283,43	816,00
-26211,71	848,00
-26140,25	875,00
-26069,06	930,00
-25998,13	754,00
-25927,46	885,00
-25857,06	714,00
-25786,92	890,00
-25717,04	803,00
-25647,42	957,00
-25578,05	725,00
-25508,94	850,00
-25440,09	857,00
-25371,48	867,00
-25303,13	938,00
-25235,02	804,00
-25167,17	877,00
-25099,56	868,00
-25032,19	841,00
-24965,07	758,00
-24898,20	738,00
-24831,56	741,00
-24765,17	873,00
-24699,01	818,00
-24633,10	868,00
-24567,41	872,00
-24501,97	790,00
-24436,75	873,00
-24371,77	800,00
-24307,03	818,00
-24242,51	867,00
-24178,22	836,00
-24114,16	828,00
-24050,32	913,00
-23986,71	843,00
-23923,32	872,00
-23860,16	825,00
-23797,22	799,00
-23734,50	931,00
-23672,00	773,00
-23609,71	773,00
-23547,65	750,00
-23485,80	916,00
-23424,16	650,00
-23362,74	962,00
-23301,53	819,00
-23240,54	679,00
-23179,75	772,00
-23119,17	784,00
-23058,80	833,00
-22998,64	928,00
-22938,68	835,00
-22878,93	860,00
-22819,39	710,00
-22760,04	819,00
-22700,90	885,00
-22641,96	808,00
-22583,22	828,00
-22524,68	791,00
-22466,33	844,00
-22408,19	852,00
-22350,23	773,00
-22292,48	760,00
-22234,92	891,00
-22177,55	879,00
-22120,37	1035,00
-22063,38	754,00
-22006,58	825,00
-21949,98	768,00
-21893,56	638,00
-21837,33	896,00
-21781,28	840,00
-21725,42	803,00
-21669,74	964,00
-21614,25	810,00
-21558,94	838,00
-21503,81	843,00
-21448,86	885,00
-21394,10	791,00
-21339,51	782,00
-21285,10	757,00
-21230,86	777,00
-21176,81	811,00
-21122,93	728,00
-21069,22	791,00
-21015,69	780,00
-20962,33	849,00
-20909,14	819,00
-20856,13	829,00
-20803,28	843,00
-20750,61	834,00
-20698,10	706,00
-20645,76	808,00
-20593,59	904,00
-20541,59	854,00
-20489,75	895,00
-20438,07	732,00
-20386,56	870,00
-20335,22	731,00
-20284,03	799,00
-20233,01	778,00
-20182,15	771,00
-20131,45	845,00
-20080,91	766,00
-20030,52	864,00
-19980,30	833,00
-19930,23	722,00
-19880,32	864,00
-19830,56	763,00
-19780,96	858,00
-19731,52	821,00
-19682,23	853,00
-19633,09	797,00
-19584,10	739,00
-19535,26	773,00
-19486,58	934,00
-19438,04	783,00
-19389,66	957,00
-19341,42	779,00
-19293,33	813,00
-19245,39	787,00
-19197,60	884,00
-19149,95	800,00
-19102,45	864,00
-19055,09	730,00
-19007,87	848,00
-18960,80	842,00
-18913,87	797,00
-18867,09	837,00
-18820,44	953,00
-18773,94	824,00
-18727,57	857,00
-18681,35	755,00
-18635,26	841,00
-18589,31	778,00
-18543,50	810,00
-18497,83	829,00
-18452,29	783,00
-18406,89	758,00
-18361,63	906,00
-18316,50	895,00
-18271,50	792,00
-18226,63	870,00
-18181,90	870,00
-18137,30	919,00
-18092,84	842,00
-18048,50	839,00
-18004,29	754,00
-17960,22	731,00
-17916,27	739,00
-17872,45	925,00
-17828,76	924,00
-17785,20	822,00
-17741,77	902,00
-17698,46	946,00
-17655,28	854,00
-17612,22	806,00
-17569,29	742,00
-17526,48	848,00
-17483,79	836,00
-17441,23	805,00
-17398,79	895,00
-17356,48	760,00
-17314,28	961,00
-17272,21	830,00
-17230,26	893,00
-17188,42	782,00
-17146,71	814,00
-17105,12	755,00
-17063,64	783,00
-17022,28	810,00
-16981,04	750,00
-16939,92	912,00
-16898,91	1015,00
-16858,02	845,00
-16817,25	876,00
-16776,59	827,00
-16736,04	793,00
-16695,61	850,00
-16655,29	757,00
-16615,09	727,00
-16574,99	881,00
-16535,01	871,00
-16495,15	861,00
-16455,39	805,00
-16415,74	675,00
-16376,21	767,00
-16336,78	749,00
-16297,46	800,00
-16258,26	791,00
-16219,16	743,00
-16180,17	830,00
-16141,28	854,00
-16102,51	829,00
-16063,84	807,00
-16025,27	812,00
-15986,82	798,00
-15948,46	787,00
-15910,22	823,00
-15872,07	767,00
-15834,04	774,00
-15796,10	806,00
-15758,27	930,00
-15720,54	810,00
-15682,91	767,00
-15645,39	901,00
-15607,97	803,00
-15570,64	760,00
-15533,42	939,00
-15496,30	792,00
-15459,28	905,00
-15422,36	863,00
-15385,54	843,00
-15348,82	858,00
-15312,19	977,00
-15275,66	791,00
-15239,23	834,00
-15202,90	748,00
-15166,67	885,00
-15130,53	900,00
-15094,48	865,00
-15058,54	820,00
-15022,68	797,00
-14986,93	771,00
-14951,26	846,00
-14915,69	870,00
-14880,22	772,00
-14844,84	761,00
-14809,55	914,00
-14774,35	854,00
-14739,25	761,00
-14704,24	793,00
-14669,32	816,00
-14634,49	786,00
-14599,75	867,00
-14565,10	760,00
-14530,55	830,00
-14496,08	855,00
-14461,70	966,00
-14427,41	803,00
-14393,21	722,00
-14359,10	803,00
-14325,07	795,00
-14291,14	818,00
-14257,29	848,00
-14223,52	871,00
-14189,85	908,00
-14156,26	830,00
-14122,76	708,00
-14089,34	731,00
-14056,01	921,00
-14022,76	792,00
-13989,60	872,00
-13956,52	840,00
-13923,53	831,00
-13890,62	809,00
-13857,79	827,00
-13825,05	749,00
-13792,39	717,00
-13759,81	862,00
-13727,31	782,00
-13694,90	844,00
-13662,57	985,00
-13630,31	839,00
-13598,14	776,00
-13566,05	785,00
-13534,05	760,00
-13502,12	813,00
-13470,27	843,00
-13438,50	947,00
-13406,80	788,00
-13375,19	786,00
-13343,66	815,00
-13312,20	825,00
-13280,83	724,00
-13249,53	798,00
-13218,30	653,00
-13187,16	783,00
-13156,09	975,00
-13125,10	849,00
-13094,18	917,00
-13063,34	832,00
-13032,58	813,00
-13001,89	893,00
-12971,28	915,00
-12940,74	863,00
-12910,27	825,00
-12879,88	879,00
-12849,57	811,00
-12819,33	910,00
-12789,16	858,00
-12759,06	764,00
-12729,04	740,00
-12699,09	2129,00
-12669,21	772,00
-12639,41	916,00
-12609,68	781,00
-12580,02	841,00
-12550,43	978,00
-12520,91	725,00
-12491,46	797,00
-12462,08	740,00
-12432,77	816,00
-12403,54	813,00
-12374,37	818,00
-12345,27	855,00
-12316,24	849,00
-12287,29	849,00
-12258,40	758,00
-12229,57	923,00
-12200,82	704,00
-12172,14	840,00
-12143,52	671,00
-12114,97	887,00
-12086,49	837,00
-12058,07	900,00
-12029,73	830,00
-12001,44	874,00
-11973,23	795,00
-11945,08	873,00
-11917,00	827,00
-11888,98	703,00
-11861,03	890,00
-11833,15	828,00
-11805,32	944,00
-11777,57	792,00
-11749,88	896,00
-11722,25	822,00
-11694,69	804,00
-11667,19	891,00
-11639,75	895,00
-11612,38	753,00
-11585,07	868,00
-11557,83	788,00
-11530,65	999,00
-11503,53	741,00
-11476,47	842,00
-11449,48	810,00
-11422,54	951,00
-11395,67	793,00
-11368,86	880,00
-11342,11	777,00
-11315,43	783,00
-11288,80	733,00
-11262,23	829,00
-11235,73	860,00
-11209,28	1011,00
-11182,90	806,00
-11156,57	846,00
-11130,31	956,00
-11104,10	867,00
-11077,96	884,00
-11051,87	870,00
-11025,84	795,00
-10999,87	893,00
-10973,96	855,00
-10948,11	743,00
-10922,31	959,00
-10896,58	824,00
-10870,90	965,00
-10845,28	908,00
-10819,71	700,00
-10794,20	874,00
-10768,75	837,00
-10743,36	976,00
-10718,02	793,00
-10692,74	807,00
-10667,52	848,00
-10642,35	841,00
-10617,24	912,00
-10592,18	963,00
-10567,18	846,00
-10542,23	921,00
-10517,34	914,00
-10492,51	938,00
-10467,72	838,00
-10443,00	941,00
-10418,32	915,00
-10393,70	894,00
-10369,14	866,00
-10344,63	799,00
-10320,17	991,00
-10295,77	882,00
-10271,42	912,00
-10247,12	872,00
-10222,88	1006,00
-10198,68	951,00
-10174,54	1007,00
-10150,46	1061,00
-10126,42	1070,00
-10102,44	885,00
-10078,51	972,00
-10054,63	1113,00
-10030,80	1064,00
-10007,03	1145,00
-9983,30	1092,00
-9959,63	1075,00
-9936,01	1322,00
-9912,44	1196,00
-9888,92	1156,00
-9865,44	1051,00
-9842,02	1236,00
-9818,65	1331,00
-9795,33	1129,00
-9772,06	1256,00
-9748,84	1233,00
-9725,67	1279,00
-9702,55	1358,00
-9679,47	1471,00
-9656,45	1635,00
-9633,47	1477,00
-9610,55	1562,00
-9587,67	1731,00
-9564,84	1885,00
-9542,06	1794,00
-9519,32	2033,00
-9496,64	2043,00
-9474,00	2075,00
-9451,41	2213,00
-9428,87	2180,00
-9406,37	2301,00
-9383,92	1999,00
-9361,52	1974,00
-9339,17	2194,00
-9316,86	2380,00
-9294,60	2709,00
-9272,38	2937,00
-9250,21	3355,00
-9228,09	3207,00
-9206,01	3296,00
-9183,98	2953,00
-9162,00	2637,00
-9140,06	2859,00
-9118,16	2797,00
-9096,31	2736,00
-9074,51	2997,00
-9052,75	3098,00
-9031,04	3020,00
-9009,37	2751,00
-8987,74	2620,00
-8966,16	2307,00
-8944,63	2121,00
-8923,14	2177,00
-8901,69	2096,00
-8880,29	2231,00
-8858,93	2521,00
-8837,61	2657,00
-8816,34	2877,00
-8795,11	2790,00
-8773,92	2430,00
-8752,78	2354,00
-8731,68	2246,00
-8710,62	2377,00
-8689,61	2402,00
-8668,63	2470,00
-8647,70	2672,00
-8626,82	2634,00
-8605,97	2679,00
-8585,17	2451,00
-8564,41	2163,00
-8543,69	2122,00
-8523,01	1909,00
-8502,37	2282,00
-8481,78	2157,00
-8461,23	2226,00
-8440,71	2465,00
-8420,24	2608,00
-8399,81	2781,00
-8379,42	2638,00
-8359,08	2489,00
-8338,77	2263,00
-8318,50	2075,00
-8298,27	2010,00
-8278,09	2184,00
-8257,94	2444,00
-8237,83	2443,00
-8217,76	2514,00
-8197,74	2492,00
-8177,75	2518,00
-8157,80	2274,00
-8137,89	2073,00
-8118,02	2015,00
-8098,19	2090,00
-8078,40	2048,00
-8058,65	2125,00
-8038,93	2304,00
-8019,26	2212,00
-7999,62	2197,00
-7980,02	2000,00
-7960,46	1848,00
-7940,94	1945,00
-7921,46	1897,00
-7902,01	1889,00
-7882,60	1886,00
-7863,23	1798,00
-7843,90	1896,00
-7824,61	1908,00
-7805,35	2121,00
-7786,13	2065,00
-7766,95	2072,00
-7747,80	1914,00
-7728,69	1994,00
-7709,62	2015,00
-7690,59	1996,00
-7671,59	2154,00
-7652,63	1970,00
-7633,70	2087,00
-7614,81	2102,00
-7595,96	1956,00
-7577,15	1854,00
-7558,37	1846,00
-7539,62	1858,00
-7520,91	1945,00
-7502,24	2011,00
-7483,60	1921,00
-7465,00	1876,00
-7446,44	1799,00
-7427,91	1544,00
-7409,41	1558,00
-7390,95	1474,00
-7372,53	1416,00
-7354,14	1367,00
-7335,78	1399,00
-7317,46	1531,00
-7299,18	1508,00
-7280,92	1654,00
-7262,71	1935,00
-7244,52	1943,00
-7226,38	1891,00
-7208,26	1695,00
-7190,18	1793,00
-7172,14	1671,00
-7154,12	1713,00
-7136,15	1678,00
-7118,20	1761,00
-7100,29	1911,00
-7082,41	1941,00
-7064,57	1844,00
-7046,76	1748,00
-7028,98	1534,00
-7011,24	1461,00
-6993,53	1316,00
-6975,85	1234,00
-6958,20	1185,00
-6940,59	1106,00
-6923,01	1106,00
-6905,46	1342,00
-6887,94	1296,00
-6870,46	1810,00
-6853,01	1731,00
-6835,59	1725,00
-6818,21	1558,00
-6800,85	1464,00
-6783,53	1346,00
-6766,24	1073,00
-6748,98	1098,00
-6731,76	1030,00
-6714,56	1024,00
-6697,40	902,00
-6680,26	980,00
-6663,16	1072,00
-6646,09	1420,00
-6629,05	1451,00
-6612,05	1462,00
-6595,07	1409,00
-6578,13	1521,00
-6561,21	1203,00
-6544,33	1180,00
-6527,47	998,00
-6510,65	996,00
-6493,86	769,00
-6477,10	895,00
-6460,36	1089,00
-6443,66	984,00
-6426,99	955,00
-6410,35	1003,00
-6393,74	1117,00
-6377,16	1009,00
-6360,61	1035,00
-6344,09	1020,00
-6327,59	1147,00
-6311,13	1339,00
-6294,70	1268,00
-6278,29	1265,00
-6261,92	1283,00
-6245,58	1345,00
-6229,26	1452,00
-6212,97	1336,00
-6196,72	1092,00
-6180,49	1107,00
-6164,29	833,00
-6148,12	962,00
-6131,98	939,00
-6115,86	862,00
-6099,78	828,00
-6083,72	796,00
-6067,69	836,00
-6051,69	729,00
-6035,72	936,00
-6019,78	910,00
-6003,87	1181,00
-5987,98	1198,00
-5972,12	1184,00
-5956,29	1207,00
-5940,49	1042,00
-5924,71	1133,00
-5908,96	942,00
-5893,24	938,00
-5877,55	957,00
-5861,89	991,00
-5846,25	798,00
-5830,64	905,00
-5815,05	875,00
-5799,50	838,00
-5783,97	983,00
-5768,47	1014,00
-5752,99	1257,00
-5737,55	1048,00
-5722,12	1125,00
-5706,73	1152,00
-5691,36	1144,00
-5676,02	998,00
-5660,71	918,00
-5645,42	970,00
-5630,16	915,00
-5614,92	1145,00
-5599,71	959,00
-5584,53	1003,00
-5569,37	1005,00
-5554,24	1297,00
-5539,14	995,00
-5524,06	1007,00
-5509,01	955,00
-5493,98	874,00
-5478,98	1007,00
-5464,00	974,00
-5449,05	895,00
-5434,13	980,00
-5419,23	862,00
-5404,36	875,00
-5389,51	983,00
-5374,69	1198,00
-5359,89	1146,00
-5345,12	1195,00
-5330,37	1244,00
-5315,65	1135,00
-5300,95	1111,00
-5286,28	979,00
-5271,63	810,00
-5257,01	865,00
-5242,41	927,00
-5227,84	857,00
-5213,29	891,00
-5198,76	814,00
-5184,26	872,00
-5169,79	886,00
-5155,33	977,00
-5140,91	1030,00
-5126,51	979,00
-5112,13	977,00
-5097,77	1059,00
-5083,44	992,00
-5069,13	890,00
-5054,85	867,00
-5040,59	999,00
-5026,36	973,00
-5012,15	1099,00
-4997,96	1046,00
-4983,80	990,00
-4969,66	870,00
-4955,54	857,00
-4941,44	1056,00
-4927,37	916,00
-4913,33	1195,00
-4899,30	1171,00
-4885,30	1203,00
-4871,33	929,00
-4857,37	914,00
-4843,44	877,00
-4829,53	958,00
-4815,65	947,00
-4801,79	737,00
-4787,95	1036,00
-4774,13	864,00
-4760,34	898,00
-4746,56	924,00
-4732,82	873,00
-4719,09	931,00
-4705,38	1185,00
-4691,70	1187,00
-4678,04	1260,00
-4664,41	1126,00
-4650,79	1105,00
-4637,20	820,00
-4623,63	865,00
-4610,08	1060,00
-4596,56	935,00
-4583,05	1014,00
-4569,57	937,00
-4556,11	1067,00
-4542,67	804,00
-4529,25	890,00
-4515,86	1034,00
-4502,49	1002,00
-4489,13	1177,00
-4475,80	1153,00
-4462,49	903,00
-4449,21	1032,00
-4435,94	899,00
-4422,70	830,00
-4409,47	829,00
-4396,27	976,00
-4383,09	872,00
-4369,93	890,00
-4356,79	788,00
-4343,67	860,00
-4330,58	933,00
-4317,50	990,00
-4304,45	947,00
-4291,41	882,00
-4278,40	908,00
-4265,41	804,00
-4252,44	871,00
-4239,49	823,00
-4226,55	991,00
-4213,65	956,00
-4200,76	996,00
-4187,89	912,00
-4175,04	840,00
-4162,21	728,00
-4149,40	966,00
-4136,61	803,00
-4123,85	788,00
-4111,10	819,00
-4098,37	1040,00
-4085,66	932,00
-4072,98	842,00
-4060,31	832,00
-4047,66	962,00
-4035,04	1109,00
-4022,43	810,00
-4009,84	827,00
-3997,27	700,00
-3984,72	852,00
-3972,19	919,00
-3959,69	835,00
-3947,20	782,00
-3934,73	821,00
-3922,27	728,00
-3909,84	803,00
-3897,43	902,00
-3885,04	986,00
-3872,67	796,00
-3860,31	740,00
-3847,98	906,00
-3835,66	786,00
-3823,36	888,00
-3811,09	806,00
-3798,83	882,00
-3786,59	978,00
-3774,37	966,00
-3762,17	781,00
-3749,98	804,00
-3737,82	836,00
-3725,67	1049,00
-3713,55	791,00
-3701,44	895,00
-3689,35	770,00
-3677,28	985,00
-3665,22	752,00
-3653,19	827,00
-3641,17	835,00
-3629,18	874,00
-3617,20	855,00
-3605,24	785,00
-3593,30	970,00
-3581,37	911,00
-3569,47	855,00
-3557,58	798,00
-3545,71	896,00
-3533,86	818,00
-3522,02	818,00
-3510,21	926,00
-3498,41	931,00
-3486,63	857,00
-3474,87	893,00
-3463,12	784,00
-3451,40	894,00
-3439,69	789,00
-3428,00	773,00
-3416,33	929,00
-3404,67	763,00
-3393,03	874,00
-3381,41	924,00
-3369,81	869,00
-3358,22	916,00
-3346,66	947,00
-3335,10	846,00
-3323,57	789,00
-3312,06	820,00
-3300,56	924,00
-3289,08	778,00
-3277,61	800,00
-3266,16	873,00
-3254,73	860,00
-3243,32	873,00
-3231,92	759,00
-3220,55	937,00
-3209,18	1014,00
-3197,84	767,00
-3186,51	775,00
-3175,20	813,00
-3163,90	753,00
-3152,63	940,00
-3141,36	735,00
-3130,12	861,00
-3118,89	862,00
-3107,68	836,00
-3096,49	930,00
-3085,31	808,00
-3074,15	845,00
-3063,00	888,00
-3051,87	873,00
-3040,76	816,00
-3029,67	966,00
-3018,59	1109,00
-3007,52	963,00
-2996,48	1002,00
-2985,44	927,00
-2974,43	844,00
-2963,43	798,00
-2952,45	814,00
-2941,48	851,00
-2930,53	907,00
-2919,60	750,00
-2908,68	824,00
-2897,78	834,00
-2886,89	863,00
-2876,02	862,00
-2865,17	797,00
-2854,33	854,00
-2843,50	805,00
-2832,70	916,00
-2821,90	892,00
-2811,13	869,00
-2800,37	792,00
-2789,62	701,00
-2778,89	840,00
-2768,18	853,00
-2757,48	838,00
-2746,80	1029,00
-2736,13	834,00
-2725,48	936,00
-2714,84	839,00
-2704,22	863,00
-2693,61	773,00
-2683,02	898,00
-2672,45	896,00
-2661,89	832,00
-2651,34	883,00
-2640,81	859,00
-2630,30	1026,00
-2619,80	837,00
-2609,31	975,00
-2598,84	770,00
-2588,39	863,00
-2577,95	841,00
-2567,52	721,00
-2557,11	761,00
-2546,71	884,00
-2536,33	944,00
-2525,97	881,00
-2515,62	978,00
-2505,28	840,00
-2494,96	883,00
-2484,65	968,00
-2474,36	1139,00
-2464,08	793,00
-2453,82	986,00
-2443,57	882,00
-2433,33	825,00
-2423,11	902,00
-2412,91	907,00
-2402,72	822,00
-2392,54	877,00
-2382,38	812,00
-2372,23	970,00
-2362,09	1929,00
-2351,97	782,00
-2341,87	752,00
-2331,78	840,00
-2321,70	888,00
-2311,64	795,00
-2301,59	868,00
-2291,55	814,00
-2281,53	877,00
-2271,53	739,00
-2261,53	923,00
-2251,55	858,00
-2241,59	880,00
-2231,64	907,00
-2221,70	848,00
-2211,78	764,00
-2201,87	906,00
-2191,97	830,00
-2182,09	853,00
-2172,22	866,00
-2162,37	780,00
-2152,53	730,00
-2142,70	833,00
-2132,89	787,00
-2123,09	930,00
-2113,30	876,00
-2103,53	817,00
-2093,77	821,00
-2084,02	827,00
-2074,29	948,00
-2064,57	856,00
-2054,86	897,00
-2045,17	941,00
-2035,49	873,00
-2025,82	789,00
-2016,17	828,00
-2006,53	829,00
-1996,91	884,00
-1987,29	788,00
-1977,69	876,00
-1968,11	756,00
-1958,53	760,00
-1948,97	763,00
-1939,42	832,00
-1929,89	915,00
-1920,37	809,00
-1910,86	800,00
-1901,36	796,00
-1891,88	916,00
-1882,41	886,00
-1872,95	939,00
-1863,51	853,00
-1854,08	895,00
-1844,66	912,00
-1835,26	909,00
-1825,86	948,00
-1816,48	851,00
-1807,11	878,00
-1797,76	892,00
-1788,42	895,00
-1779,09	914,00
-1769,77	829,00
-1760,47	943,00
-1751,17	775,00
-1741,89	788,00
-1732,63	872,00
-1723,37	965,00
-1714,13	943,00
-1704,90	898,00
-1695,68	977,00
-1686,48	828,00
-1677,29	897,00
-1668,11	1099,00
-1658,94	807,00
-1649,78	908,00
-1640,64	822,00
-1631,51	871,00
-1622,39	880,00
-1613,28	822,00
-1604,19	1033,00
-1595,10	914,00
-1586,03	761,00
-1576,97	855,00
-1567,93	791,00
-1558,89	885,00
-1549,87	1063,00
-1540,86	804,00
-1531,86	896,00
-1522,87	818,00
-1513,90	908,00
-1504,93	925,00
-1495,98	962,00
-1487,04	949,00
-1478,12	870,00
-1469,20	874,00
-1460,30	810,00
-1451,40	992,00
-1442,52	907,00
-1433,65	1006,00
-1424,80	806,00
-1415,95	794,00
-1407,12	1075,00
-1398,30	849,00
-1389,48	905,00
-1380,69	902,00
-1371,90	865,00
-1363,12	938,00
-1354,36	953,00
-1345,60	854,00
-1336,86	793,00
-1328,13	966,00
-1319,41	876,00
-1310,70	882,00
-1302,01	844,00
-1293,32	789,00
-1284,65	777,00
-1275,99	878,00
-1267,33	1011,00
-1258,69	872,00
-1250,06	903,00
-1241,45	722,00
-1232,84	1027,00
-1224,25	837,00
-1215,66	825,00
-1207,09	917,00
-1198,53	851,00
-1189,97	863,00
-1181,43	722,00
-1172,91	816,00
-1164,39	986,00
-1155,88	701,00
-1147,38	740,00
-1138,90	819,00
-1130,43	787,00
-1121,96	782,00
-1113,51	867,00
-1105,07	774,00
-1096,64	992,00
-1088,22	909,00
-1079,81	895,00
-1071,41	913,00
-1063,02	831,00
-1054,65	978,00
-1046,28	819,00
-1037,92	845,00
-1029,58	833,00
-1021,24	900,00
-1012,92	1149,00
-1004,61	897,00
-996,30	1169,00
-988,01	723,00
-979,73	913,00
-971,46	957,00
-963,20	809,00
-954,95	791,00
-946,71	834,00
-938,48	859,00
-930,26	849,00
-922,06	881,00
-913,86	790,00
-905,67	798,00
-897,49	892,00
-889,33	700,00
-881,17	997,00
-873,02	853,00
-864,89	753,00
-856,76	724,00
-848,65	905,00
-840,54	945,00
-832,45	881,00
-824,36	722,00
-816,29	888,00
-808,22	922,00
-800,17	906,00
-792,12	878,00
-784,09	920,00
-776,06	794,00
-768,05	815,00
-760,04	796,00
-752,05	853,00
-744,07	889,00
-736,09	982,00
-728,13	679,00
-720,17	862,00
-712,23	789,00
-704,29	859,00
-696,37	821,00
-688,45	965,00
-680,55	814,00
-672,65	953,00
-664,77	800,00
-656,89	852,00
-649,03	785,00
-641,17	900,00
-633,32	862,00
-625,49	912,00
-617,66	817,00
-609,84	896,00
-602,03	752,00
-594,23	884,00
-586,45	864,00
-578,67	826,00
-570,90	902,00
-563,14	776,00
-555,39	944,00
-547,65	852,00
-539,91	920,00
-532,19	929,00
-524,48	943,00
-516,78	797,00
-509,08	941,00
-501,40	851,00
-493,72	797,00
-486,06	826,00
-478,40	995,00
-470,76	777,00
-463,12	810,00
-455,49	798,00
-447,87	815,00
-440,26	811,00
-432,66	795,00
-425,07	944,00
-417,49	946,00
-409,92	797,00
-402,35	831,00
-394,80	817,00
-387,25	856,00
-379,72	897,00
-372,19	791,00
-364,67	902,00
-357,17	775,00
-349,67	878,00
-342,18	798,00
-334,69	893,00
-327,22	805,00
-319,76	830,00
-312,30	878,00
-304,86	857,00
-297,42	921,00
-290,00	884,00
-282,58	902,00
-275,17	1034,00
-267,77	986,00
-260,37	984,00
-252,99	1018,00
-245,62	981,00
-238,25	945,00
-230,90	841,00
-223,55	944,00
-216,21	908,00
-208,88	1099,00
-201,56	948,00
-194,25	960,00
-186,94	1048,00
-179,65	1003,00
-172,36	1069,00
-165,08	998,00
-157,81	1167,00
-150,55	1146,00
-143,30	1202,00
-136,06	1222,00
-128,82	1255,00
-121,60	1235,00
-114,38	1380,00
-107,17	1552,00
-99,97	1598,00
-92,78	1655,00
-85,60	1686,00
-78,42	1944,00
-71,25	1988,00
-64,10	2269,00
-56,95	2508,00
-49,81	2837,00
-42,67	3307,00
-35,55	3930,00
-28,43	5049,00
-21,33	7843,00
-14,23	23980,00
-7,14	57498,00
-0,05	57284,00
7,02	57012,00
14,09	57319,00
21,14	20298,00
28,19	8959,00
35,23	6020,00
42,27	4931,00
49,29	4102,00
56,31	3485,00
63,32	3248,00
70,32	2662,00
77,31	2528,00
84,29	2134,00
91,27	2104,00
98,23	2067,00
105,19	1962,00
112,14	2233,00
119,09	3039,00
126,02	4640,00
132,95	5423,00
139,87	5675,00
146,78	5844,00
153,68	5636,00
160,58	5598,00
167,46	5365,00
174,34	5512,00
181,21	5400,00
188,08	5498,00
194,93	5569,00
201,78	5484,00
208,62	5505,00
215,45	5547,00
222,27	5554,00
229,09	5548,00
235,90	5302,00
242,70	5375,00
249,49	5419,00
256,27	5156,00
263,05	5050,00
269,82	5086,00
276,58	5048,00
283,33	4989,00
290,08	4889,00
296,82	4923,00
303,55	4779,00
310,27	4711,00
316,98	4784,00
323,69	4718,00
330,39	4627,00
337,08	4724,00
343,76	4664,00
350,44	4696,00
357,11	4684,00
363,77	4641,00
370,42	4665,00
377,07	4727,00
383,71	4544,00
390,34	4638,00
396,96	4553,00
403,58	4661,00
410,19	4797,00
416,79	4868,00
423,38	4961,00
429,97	4876,00
436,55	4779,00
443,12	4935,00
449,68	4983,00
456,24	4725,00
462,79	4747,00
469,33	4469,00
475,86	4317,00
482,39	4237,00
488,91	4388,00
495,42	4173,00
501,93	4129,00
508,42	4006,00
514,91	4008,00
521,40	3976,00
527,87	4120,00
534,34	3978,00
540,80	4007,00
547,25	3964,00
553,70	4038,00
560,14	4033,00
566,57	4076,00
573,00	4000,00
579,41	4117,00
585,83	4152,00
592,23	4135,00
598,62	4194,00
605,01	4270,00
611,40	4262,00
617,77	4218,00
624,14	3995,00
630,50	4011,00
636,85	3968,00
643,20	3762,00
649,54	3700,00
655,87	3746,00
662,20	3777,00
668,52	3653,00
674,83	3724,00
681,13	3568,00
687,43	3715,00
693,72	3484,00
700,00	3470,00
706,28	3595,00
712,55	3461,00
718,81	3602,00
725,07	3414,00
731,32	3538,00
737,56	3540,00
743,79	3433,00
750,02	3549,00
756,24	3497,00
762,46	3357,00
768,67	3632,00
774,87	3438,00
781,06	3261,00
787,25	3384,00
793,43	3328,00
799,60	3420,00
805,77	3519,00
811,93	3337,00
818,08	3374,00
824,23	3270,00
830,37	3512,00
836,50	3336,00
842,63	3282,00
848,75	3434,00
854,87	3249,00
860,97	3450,00
867,07	3313,00
873,17	3416,00
879,25	3349,00
885,33	3332,00
891,41	3449,00
897,47	3377,00
903,53	3213,00
909,59	3357,00
915,63	3228,00
921,67	3194,00
927,71	3269,00
933,74	3237,00
939,76	3020,00
945,77	3095,00
951,78	3263,00
957,78	3058,00
963,78	3117,00
969,77	3149,00
975,75	3095,00
981,72	3051,00
987,69	4497,00
993,66	3190,00
999,61	3144,00
1005,56	3061,00
1011,51	3132,00
1017,44	3112,00
1023,37	3190,00
1029,30	3015,00
1035,22	3219,00
1041,13	3155,00
1047,03	3362,00
1052,93	3813,00
1058,83	5006,00
1064,71	5419,00
1070,59	4689,00
1076,47	4016,00
1082,33	3813,00
1088,20	3713,00
1094,05	3441,00
1099,90	3265,00
1105,74	3290,00
1111,58	3299,00
1117,41	3612,00
1123,23	4354,00
1129,05	5221,00
1134,86	4786,00
1140,67	3898,00
1146,47	3387,00
1152,26	3216,00
1158,05	3042,00
1163,83	3097,00
1169,60	3326,00
1175,37	3242,00
1181,13	3095,00
1186,89	3003,00
1192,64	2921,00
1198,38	3058,00
1204,12	2796,00
1209,85	2892,00
1215,58	2891,00
1221,30	2896,00
1227,02	2895,00
1232,72	2914,00
1238,43	2822,00
1244,12	2841,00
1249,81	2876,00
1255,50	3048,00
1261,17	3130,00
1266,85	3096,00
1272,51	3128,00
1278,17	3274,00
1283,83	3544,00
1289,47	4853,00
1295,12	6219,00
1300,75	5587,00
1306,38	4615,00
1312,01	3808,00
1317,63	3424,00
1323,24	3217,00
1328,85	3124,00
1334,45	3025,00
1340,04	3044,00
1345,63	2931,00
1351,22	3058,00
1356,80	2990,00
1362,37	3181,00
1367,93	3130,00
1373,49	3272,00
1379,05	2981,00
1384,60	2965,00
1390,14	3048,00
1395,68	3018,00
1401,21	3044,00
1406,74	3240,00
1412,26	3759,00
1417,77	4371,00
1423,28	4203,00
1428,78	4534,00
1434,28	5512,00
1439,77	6220,00
1445,26	6032,00
1450,74	5804,00
1456,22	5287,00
1461,68	5198,00
1467,15	4789,00
1472,61	4192,00
1478,06	3926,00
1483,51	3427,00
1488,95	3115,00
1494,38	3151,00
1499,81	2951,00
1505,24	2832,00
1510,65	2910,00
1516,07	2763,00
1521,48	2654,00
1526,88	2539,00
1532,27	2708,00
1537,67	2570,00
1543,05	2652,00
1548,43	2607,00
1553,81	2720,00
1559,18	2454,00
1564,54	2580,00
1569,90	2587,00
1575,25	2487,00
1580,60	2403,00
1585,94	2554,00
1591,28	2513,00
1596,61	2444,00
1601,93	2448,00
1607,25	2591,00
1612,57	2388,00
1617,88	2459,00
1623,18	2439,00
1628,48	2454,00
1633,77	2423,00
1639,06	2488,00
1644,34	2329,00
1649,62	2250,00
1654,89	2310,00
1660,16	2274,00
1665,42	2375,00
1670,67	2186,00
1675,92	2149,00
1681,17	2208,00
1686,41	2234,00
1691,64	2263,00
1696,87	2284,00
1702,10	2320,00
1707,32	2286,00
1712,53	2208,00
1717,74	2142,00
1722,94	2331,00
1728,14	2185,00
1733,33	2139,00
1738,52	2091,00
1743,70	2230,00
1748,88	2104,00
1754,05	2214,00
1759,22	1945,00
1764,38	1309,00
1769,53	2110,00
1774,69	2136,00
1779,83	2057,00
1784,97	2044,00
1790,11	2117,00
1795,24	2161,00
1800,36	1998,00
1805,48	2059,00
1810,60	2068,00
1815,71	2007,00
1820,82	1976,00
1825,92	2007,00
1831,01	1946,00
1836,10	2021,00
1841,19	2011,00
1846,26	1819,00
1851,34	1942,00
1856,41	1957,00
1861,47	1874,00
1866,53	2097,00
1871,59	1976,00
1876,64	1970,00
1881,68	1974,00
1886,72	1915,00
1891,76	1893,00
1896,79	1904,00
1901,81	1788,00
1906,83	1988,00
1911,85	1787,00
1916,86	1905,00
1921,86	1813,00
1926,86	1762,00
1931,86	1913,00
1936,85	1720,00
1941,83	1768,00
1946,81	1736,00
1951,79	1718,00
1956,76	1726,00
1961,72	1637,00
1966,68	1741,00
1971,64	1738,00
1976,59	1670,00
1981,54	1686,00
1986,48	1798,00
1991,42	1524,00
1996,35	1883,00
2001,27	1673,00
2006,20	1565,00
2011,11	1724,00
2016,03	1606,00
2020,93	1661,00
2025,84	1694,00
2030,73	1555,00
2035,63	1554,00
2040,52	1644,00
2045,40	1609,00
2050,28	1571,00
2055,15	1689,00
2060,02	1556,00
2064,89	1769,00
2069,75	1585,00
2074,60	1629,00
2079,46	1507,00
2084,30	1647,00
2089,14	1525,00
2093,98	1680,00
2098,81	1618,00
2103,64	1623,00
2108,46	1560,00
2113,28	1527,00
2118,09	1557,00
2122,90	1618,00
2127,70	1538,00
2132,50	1612,00
2137,30	1558,00
2142,09	1538,00
2146,87	1368,00
2151,66	1619,00
2156,43	1520,00
2161,20	1564,00
2165,97	1589,00
2170,73	1520,00
2175,49	1588,00
2180,24	1575,00
2184,99	1728,00
2189,74	1654,00
2194,48	1597,00
2199,21	1637,00
2203,94	1455,00
2208,67	1483,00
2213,39	1343,00
2218,11	1524,00
2222,82	1447,00
2227,53	1516,00
2232,23	1609,00
2236,93	1587,00
2241,63	1404,00
2246,32	1553,00
2251,00	1463,00
2255,68	1431,00
2260,36	1498,00
2265,03	1458,00
2269,70	1610,00
2274,36	1411,00
2279,02	1480,00
2283,68	1442,00
2288,33	1480,00
2292,97	1510,00
2297,61	1373,00
2302,25	1459,00
2306,88	1355,00
2311,51	1320,00
2316,14	1374,00
2320,75	1282,00
2325,37	1282,00
2329,98	1387,00
2334,59	1373,00
2339,19	1263,00
2343,79	1257,00
2348,38	1367,00
2352,97	1316,00
2357,55	1386,00
2362,13	1324,00
2366,71	1229,00
2371,28	1442,00
2375,85	1404,00
2380,41	1429,00
2384,97	1288,00
2389,52	1439,00
2394,07	1433,00
2398,62	1344,00
2403,16	1307,00
2407,70	1183,00
2412,23	1269,00
2416,76	1313,00
2421,29	1377,00
2425,81	1455,00
2430,32	1446,00
2434,84	1288,00
2439,34	1317,00
2443,85	1528,00
2448,35	1229,00
2452,84	1242,00
2457,33	1362,00
2461,82	1176,00
2466,30	1165,00
2470,78	1305,00
2475,25	1339,00
2479,72	1350,00
2484,19	1337,00
2488,65	1334,00
2493,11	1225,00
2497,56	1325,00
2502,01	1093,00
2506,46	1307,00
2510,90	1150,00
2515,34	1201,00
2519,77	1180,00
2524,20	1189,00
2528,62	1257,00
2533,04	1337,00
2537,46	1235,00
2541,87	1250,00
2546,28	1173,00
2550,68	1279,00
2555,08	1290,00
2559,48	1316,00
2563,87	1152,00
2568,26	1146,00
2572,64	1302,00
2577,02	1245,00
2581,40	1140,00
2585,77	1241,00
2590,14	1206,00
2594,50	1227,00
2598,86	1249,00
2603,22	1275,00
2607,57	1235,00
2611,92	1279,00
2616,26	1327,00
2620,60	1314,00
2624,94	1233,00
2629,27	1356,00
2633,60	1199,00
2637,92	1363,00
2642,24	1277,00
2646,56	1265,00
2650,87	1172,00
2655,18	1366,00
2659,48	1180,00
2663,78	1264,00
2668,08	1275,00
2672,37	1260,00
2676,66	1229,00
2680,95	1236,00
2685,23	1353,00
2689,50	1288,00
2693,78	1315,00
2698,05	1313,00
2702,31	1402,00
2706,57	1502,00
2710,83	1498,00
2715,08	1567,00
2719,33	1616,00
2723,58	1523,00
2727,82	1647,00
2732,06	1478,00
2736,29	1507,00
2740,53	1431,00
2744,75	1406,00
2748,97	1395,00
2753,19	1407,00
2757,41	1405,00
2761,62	1405,00
2765,83	1383,00
2770,03	1327,00
2774,23	1521,00
2778,43	1422,00
2782,62	1301,00
2786,81	1413,00
2791,00	1458,00
2795,18	1540,00
2799,35	1568,00
2803,53	1577,00
2807,70	1536,00
2811,86	1625,00
2816,03	1788,00
2820,19	1795,00
2824,34	1879,00
2828,49	2002,00
2832,64	2226,00
2836,78	2629,00
2840,92	2917,00
2845,06	3550,00
2849,19	3955,00
2853,32	4049,00
2857,45	3909,00
2861,57	3896,00
2865,69	3865,00
2869,80	3751,00
2873,91	3954,00
2878,02	4288,00
2882,12	4670,00
2886,22	4638,00
2890,32	4356,00
2894,41	4133,00
2898,50	3789,00
2902,58	3471,00
2906,67	3337,00
2910,74	3120,00
2914,82	2752,00
2918,89	2855,00
2922,96	2539,00
2927,02	2359,00
2931,08	2290,00
2935,13	2167,00
2939,19	2055,00
2943,24	2016,00
2947,28	2038,00
2951,32	1703,00
2955,36	1568,00
2959,40	1785,00
2963,43	1484,00
2967,46	1483,00
2971,48	1386,00
2975,50	1392,00
2979,52	1382,00
2983,53	1365,00
2987,54	1280,00
2991,55	1302,00
2995,55	1304,00
2999,55	1227,00
3003,54	1149,00
3007,54	1223,00
3011,53	1174,00
3015,51	1157,00
3019,49	1244,00
3023,47	1065,00
3027,45	1240,00
3031,42	1068,00
3035,39	1044,00
3039,35	1134,00
3043,31	1152,00
3047,27	988,00
3051,22	1050,00
3055,17	988,00
3059,12	990,00
3063,06	1095,00
3067,00	964,00
3070,94	941,00
3074,87	1080,00
3078,80	983,00
3082,73	1027,00
3086,65	1006,00
3090,57	932,00
3094,49	950,00
3098,40	963,00
3102,31	959,00
3106,22	941,00
3110,12	972,00
3114,02	859,00
3117,92	1024,00
3121,81	992,00
3125,70	994,00
3129,58	933,00
3133,47	867,00
3137,34	1037,00
3141,22	1043,00
3145,09	1072,00
3148,96	915,00
3152,83	1013,00
3156,69	1046,00
3160,55	882,00
3164,40	974,00
3168,26	980,00
3172,10	1037,00
3175,95	1010,00
3179,79	1016,00
3183,63	946,00
3187,47	914,00
3191,30	971,00
3195,13	998,00
3198,95	840,00
3202,78	917,00
3206,60	869,00
3210,41	803,00
3214,23	847,00
3218,03	948,00
3221,84	965,00
3225,64	870,00
3229,44	918,00
3233,24	936,00
3237,03	901,00
3240,82	937,00
3244,61	883,00
3248,39	859,00
3252,17	967,00
3255,95	1034,00
3259,72	936,00
3263,49	1106,00
3267,26	950,00
3271,03	899,00
3274,79	794,00
3278,54	971,00
3282,30	711,00
3286,05	927,00
3289,80	955,00
3293,54	902,00
3297,29	939,00
3301,02	843,00
3304,76	919,00
3308,49	944,00
3312,22	777,00
3315,95	847,00
3319,67	871,00
3323,39	1053,00
3327,10	997,00
3330,82	889,00
3334,53	917,00
3338,24	890,00
3341,94	821,00
3345,64	986,00
3349,34	870,00
3353,03	960,00
3356,72	893,00
3360,41	910,00
3364,10	841,00
3367,78	842,00
3371,46	825,00
3375,13	875,00
3378,81	927,00
3382,48	853,00
3386,14	926,00
3389,81	923,00
3393,47	942,00
3397,12	975,00
3400,78	919,00
3404,43	864,00
3408,08	921,00
3411,72	805,00
3415,36	822,00
3419,00	848,00
3422,64	885,00
3426,27	909,00
3429,90	831,00
3433,53	802,00
3437,15	805,00
3440,77	742,00
3444,39	749,00
3448,00	848,00
3451,62	755,00
3455,22	939,00
3458,83	764,00
3462,43	852,00
3466,03	917,00
3469,63	785,00
3473,22	832,00
3476,81	754,00
3480,40	964,00
3483,99	731,00
3487,57	914,00
3491,15	847,00
3494,72	872,00
3498,29	947,00
3501,86	772,00
3505,43	834,00
3508,99	810,00
3512,56	732,00
3516,11	850,00
3519,67	809,00
3523,22	926,00
3526,77	898,00
3530,32	1027,00
3533,86	911,00
3537,40	924,00
3540,94	852,00
3544,47	888,00
3548,00	823,00
3551,53	874,00
3555,06	711,00
3558,58	941,00
3562,10	820,00
3565,62	754,00
3569,13	822,00
3572,64	955,00
3576,15	680,00
3579,66	802,00
3583,16	823,00
3586,66	844,00
3590,16	835,00
3593,65	851,00
3597,14	784,00
3600,63	768,00
3604,11	862,00
3607,60	776,00
3611,08	869,00
3614,55	859,00
3618,03	741,00
3621,50	788,00
3624,97	742,00
3628,43	794,00
3631,90	800,00
3635,36	682,00
3638,81	767,00
3642,27	744,00
3645,72	744,00
3649,17	741,00
3652,61	748,00
3656,06	716,00
3659,50	828,00
3662,93	810,00
3666,37	862,00
3669,80	974,00
3673,23	867,00
3676,65	762,00
3680,08	938,00
3683,50	728,00
3686,92	785,00
3690,33	777,00
3693,74	766,00
3697,15	623,00
3700,56	846,00
3703,96	823,00
3707,36	656,00
3710,76	672,00
3714,16	706,00
3717,55	737,00
3720,94	714,00
3724,33	769,00
3727,71	742,00
3731,10	763,00
3734,48	764,00
3737,85	654,00
3741,23	727,00
3744,60	726,00
3747,97	705,00
3751,33	836,00
3754,69	674,00
3758,05	685,00
3761,41	713,00
3764,77	707,00
3768,12	634,00
3771,47	636,00
3774,82	649,00
3778,16	-6,00
3781,50	11,00
3784,84	6,00
3788,18	8,00
>>>>>End Processed Spectral Data<<<<<
