SpectraSuite Data File
++++++++++++++++++++++++++++++++++++
Date: Mon Jan 05 16:31:43 ICT 2026
User: Administrator
Dark Spectrum Present: Yes
Reference Spectrum Present: No
Number of Sampled Component Spectra: 1
Spectrometers: MAYP113682
Integration Time (usec): 3000000 (MAYP113682)
Spectra Averaged: 1 (MAYP113682)
Boxcar Smoothing: 0 (MAYP113682)
Correct for Electrical Dark: No (MAYP113682)
Strobe/Lamp Enabled: No (MAYP113682)
Correct for Detector Non-linearity: No (MAYP113682)
Correct for Stray Light: No (MAYP113682)
Number of Pixels in Processed Spectrum: 2068
>>>>>Begin Processed Spectral Data<<<<<
-37534,58	31,00
-37414,56	10,00
-37295,11	6,00
-37176,24	2,00
-37057,95	605,00
-36940,22	578,00
-36823,05	637,00
-36706,45	729,00
-36590,40	666,00
-36474,90	618,00
-36359,95	671,00
-36245,55	748,00
-36131,68	638,00
-36018,35	693,00
-35905,55	663,00
-35793,29	766,00
-35681,54	718,00
-35570,32	713,00
-35459,62	702,00
-35349,43	787,00
-35239,75	790,00
-35130,58	754,00
-35021,91	725,00
-34913,74	684,00
-34806,07	762,00
-34698,89	808,00
-34592,20	649,00
-34486,00	823,00
-34380,28	835,00
-34275,04	654,00
-34170,27	738,00
-34065,98	855,00
-33962,16	825,00
-33858,81	784,00
-33755,92	726,00
-33653,49	904,00
-33551,52	843,00
-33450,01	768,00
-33348,94	779,00
-33248,33	759,00
-33148,16	709,00
-33048,43	770,00
-32949,14	858,00
-32850,29	965,00
-32751,87	726,00
-32653,89	864,00
-32556,33	795,00
-32459,20	747,00
-32362,49	823,00
-32266,19	726,00
-32170,32	730,00
-32074,86	767,00
-31979,82	812,00
-31885,18	872,00
-31790,95	926,00
-31697,12	894,00
-31603,69	835,00
-31510,67	792,00
-31418,04	831,00
-31325,80	714,00
-31233,95	779,00
-31142,49	819,00
-31051,42	703,00
-30960,73	954,00
-30870,43	912,00
-30780,50	749,00
-30690,95	834,00
-30601,77	928,00
-30512,97	794,00
-30424,53	858,00
-30336,46	718,00
-30248,76	812,00
-30161,42	927,00
-30074,44	792,00
-29987,81	894,00
-29901,55	819,00
-29815,63	783,00
-29730,07	824,00
-29644,86	866,00
-29560,00	879,00
-29475,48	869,00
-29391,30	789,00
-29307,47	837,00
-29223,97	822,00
-29140,81	817,00
-29057,99	929,00
-28975,50	763,00
-28893,34	932,00
-28811,51	784,00
-28730,00	854,00
-28648,82	829,00
-28567,97	856,00
-28487,43	760,00
-28407,21	808,00
-28327,32	760,00
-28247,73	973,00
-28168,46	729,00
-28089,50	835,00
-28010,85	730,00
-27932,51	751,00
-27854,48	807,00
-27776,75	774,00
-27699,32	771,00
-27622,19	798,00
-27545,37	821,00
-27468,84	881,00
-27392,60	872,00
-27316,66	848,00
-27241,01	746,00
-27165,66	828,00
-27090,59	706,00
-27015,81	859,00
-26941,31	876,00
-26867,10	737,00
-26793,17	848,00
-26719,52	805,00
-26646,15	746,00
-26573,06	797,00
-26500,24	762,00
-26427,70	836,00
-26355,43	748,00
-26283,43	820,00
-26211,71	804,00
-26140,25	837,00
-26069,06	939,00
-25998,13	733,00
-25927,46	801,00
-25857,06	705,00
-25786,92	827,00
-25717,04	682,00
-25647,42	803,00
-25578,05	731,00
-25508,94	878,00
-25440,09	836,00
-25371,48	778,00
-25303,13	880,00
-25235,02	812,00
-25167,17	780,00
-25099,56	761,00
-25032,19	764,00
-24965,07	668,00
-24898,20	695,00
-24831,56	701,00
-24765,17	859,00
-24699,01	746,00
-24633,10	808,00
-24567,41	785,00
-24501,97	662,00
-24436,75	776,00
-24371,77	744,00
-24307,03	667,00
-24242,51	804,00
-24178,22	746,00
-24114,16	768,00
-24050,32	828,00
-23986,71	807,00
-23923,32	823,00
-23860,16	878,00
-23797,22	767,00
-23734,50	758,00
-23672,00	749,00
-23609,71	765,00
-23547,65	803,00
-23485,80	847,00
-23424,16	633,00
-23362,74	913,00
-23301,53	803,00
-23240,54	660,00
-23179,75	673,00
-23119,17	753,00
-23058,80	771,00
-22998,64	865,00
-22938,68	768,00
-22878,93	771,00
-22819,39	637,00
-22760,04	783,00
-22700,90	775,00
-22641,96	815,00
-22583,22	802,00
-22524,68	806,00
-22466,33	761,00
-22408,19	734,00
-22350,23	807,00
-22292,48	803,00
-22234,92	862,00
-22177,55	824,00
-22120,37	910,00
-22063,38	744,00
-22006,58	812,00
-21949,98	766,00
-21893,56	642,00
-21837,33	829,00
-21781,28	794,00
-21725,42	782,00
-21669,74	770,00
-21614,25	716,00
-21558,94	808,00
-21503,81	862,00
-21448,86	851,00
-21394,10	749,00
-21339,51	720,00
-21285,10	675,00
-21230,86	684,00
-21176,81	784,00
-21122,93	643,00
-21069,22	643,00
-21015,69	794,00
-20962,33	821,00
-20909,14	731,00
-20856,13	795,00
-20803,28	822,00
-20750,61	760,00
-20698,10	678,00
-20645,76	710,00
-20593,59	928,00
-20541,59	855,00
-20489,75	766,00
-20438,07	658,00
-20386,56	774,00
-20335,22	717,00
-20284,03	696,00
-20233,01	758,00
-20182,15	701,00
-20131,45	792,00
-20080,91	639,00
-20030,52	800,00
-19980,30	740,00
-19930,23	709,00
-19880,32	820,00
-19830,56	688,00
-19780,96	773,00
-19731,52	727,00
-19682,23	848,00
-19633,09	639,00
-19584,10	734,00
-19535,26	737,00
-19486,58	937,00
-19438,04	657,00
-19389,66	840,00
-19341,42	765,00
-19293,33	737,00
-19245,39	749,00
-19197,60	902,00
-19149,95	819,00
-19102,45	818,00
-19055,09	635,00
-19007,87	766,00
-18960,80	840,00
-18913,87	722,00
-18867,09	752,00
-18820,44	795,00
-18773,94	720,00
-18727,57	821,00
-18681,35	701,00
-18635,26	800,00
-18589,31	673,00
-18543,50	810,00
-18497,83	777,00
-18452,29	841,00
-18406,89	685,00
-18361,63	930,00
-18316,50	865,00
-18271,50	772,00
-18226,63	832,00
-18181,90	786,00
-18137,30	835,00
-18092,84	711,00
-18048,50	827,00
-18004,29	766,00
-17960,22	761,00
-17916,27	759,00
-17872,45	841,00
-17828,76	847,00
-17785,20	772,00
-17741,77	804,00
-17698,46	808,00
-17655,28	825,00
-17612,22	791,00
-17569,29	734,00
-17526,48	761,00
-17483,79	768,00
-17441,23	704,00
-17398,79	776,00
-17356,48	718,00
-17314,28	802,00
-17272,21	768,00
-17230,26	784,00
-17188,42	768,00
-17146,71	773,00
-17105,12	689,00
-17063,64	742,00
-17022,28	749,00
-16981,04	694,00
-16939,92	737,00
-16898,91	917,00
-16858,02	711,00
-16817,25	778,00
-16776,59	806,00
-16736,04	729,00
-16695,61	814,00
-16655,29	722,00
-16615,09	716,00
-16574,99	765,00
-16535,01	806,00
-16495,15	740,00
-16455,39	773,00
-16415,74	667,00
-16376,21	655,00
-16336,78	662,00
-16297,46	800,00
-16258,26	635,00
-16219,16	700,00
-16180,17	704,00
-16141,28	859,00
-16102,51	823,00
-16063,84	725,00
-16025,27	807,00
-15986,82	600,00
-15948,46	724,00
-15910,22	741,00
-15872,07	754,00
-15834,04	814,00
-15796,10	767,00
-15758,27	946,00
-15720,54	717,00
-15682,91	798,00
-15645,39	853,00
-15607,97	745,00
-15570,64	688,00
-15533,42	842,00
-15496,30	763,00
-15459,28	760,00
-15422,36	814,00
-15385,54	758,00
-15348,82	806,00
-15312,19	871,00
-15275,66	733,00
-15239,23	829,00
-15202,90	678,00
-15166,67	740,00
-15130,53	832,00
-15094,48	773,00
-15058,54	717,00
-15022,68	659,00
-14986,93	704,00
-14951,26	838,00
-14915,69	828,00
-14880,22	691,00
-14844,84	754,00
-14809,55	807,00
-14774,35	769,00
-14739,25	705,00
-14704,24	808,00
-14669,32	723,00
-14634,49	737,00
-14599,75	848,00
-14565,10	676,00
-14530,55	728,00
-14496,08	848,00
-14461,70	726,00
-14427,41	777,00
-14393,21	619,00
-14359,10	674,00
-14325,07	789,00
-14291,14	770,00
-14257,29	796,00
-14223,52	800,00
-14189,85	851,00
-14156,26	803,00
-14122,76	681,00
-14089,34	739,00
-14056,01	727,00
-14022,76	767,00
-13989,60	780,00
-13956,52	895,00
-13923,53	752,00
-13890,62	689,00
-13857,79	704,00
-13825,05	669,00
-13792,39	729,00
-13759,81	828,00
-13727,31	728,00
-13694,90	744,00
-13662,57	889,00
-13630,31	816,00
-13598,14	716,00
-13566,05	647,00
-13534,05	842,00
-13502,12	670,00
-13470,27	795,00
-13438,50	845,00
-13406,80	732,00
-13375,19	678,00
-13343,66	782,00
-13312,20	791,00
-13280,83	748,00
-13249,53	832,00
-13218,30	650,00
-13187,16	822,00
-13156,09	952,00
-13125,10	797,00
-13094,18	744,00
-13063,34	819,00
-13032,58	681,00
-13001,89	811,00
-12971,28	805,00
-12940,74	778,00
-12910,27	822,00
-12879,88	763,00
-12849,57	877,00
-12819,33	836,00
-12789,16	827,00
-12759,06	820,00
-12729,04	633,00
-12699,09	2076,00
-12669,21	784,00
-12639,41	790,00
-12609,68	726,00
-12580,02	792,00
-12550,43	820,00
-12520,91	650,00
-12491,46	726,00
-12462,08	728,00
-12432,77	792,00
-12403,54	727,00
-12374,37	712,00
-12345,27	879,00
-12316,24	691,00
-12287,29	782,00
-12258,40	694,00
-12229,57	772,00
-12200,82	715,00
-12172,14	788,00
-12143,52	720,00
-12114,97	744,00
-12086,49	744,00
-12058,07	840,00
-12029,73	770,00
-12001,44	848,00
-11973,23	815,00
-11945,08	759,00
-11917,00	779,00
-11888,98	768,00
-11861,03	890,00
-11833,15	745,00
-11805,32	833,00
-11777,57	721,00
-11749,88	769,00
-11722,25	758,00
-11694,69	721,00
-11667,19	791,00
-11639,75	910,00
-11612,38	712,00
-11585,07	746,00
-11557,83	774,00
-11530,65	889,00
-11503,53	774,00
-11476,47	724,00
-11449,48	755,00
-11422,54	876,00
-11395,67	780,00
-11368,86	846,00
-11342,11	743,00
-11315,43	778,00
-11288,80	694,00
-11262,23	828,00
-11235,73	768,00
-11209,28	965,00
-11182,90	746,00
-11156,57	713,00
-11130,31	887,00
-11104,10	800,00
-11077,96	733,00
-11051,87	726,00
-11025,84	775,00
-10999,87	828,00
-10973,96	673,00
-10948,11	722,00
-10922,31	862,00
-10896,58	805,00
-10870,90	1007,00
-10845,28	795,00
-10819,71	706,00
-10794,20	919,00
-10768,75	880,00
-10743,36	877,00
-10718,02	716,00
-10692,74	768,00
-10667,52	784,00
-10642,35	774,00
-10617,24	866,00
-10592,18	824,00
-10567,18	748,00
-10542,23	859,00
-10517,34	836,00
-10492,51	862,00
-10467,72	728,00
-10443,00	887,00
-10418,32	865,00
-10393,70	870,00
-10369,14	865,00
-10344,63	785,00
-10320,17	890,00
-10295,77	957,00
-10271,42	891,00
-10247,12	978,00
-10222,88	1021,00
-10198,68	955,00
-10174,54	935,00
-10150,46	1138,00
-10126,42	1162,00
-10102,44	971,00
-10078,51	1020,00
-10054,63	1087,00
-10030,80	1133,00
-10007,03	1195,00
-9983,30	1124,00
-9959,63	1148,00
-9936,01	1273,00
-9912,44	1201,00
-9888,92	1242,00
-9865,44	1271,00
-9842,02	1275,00
-9818,65	1336,00
-9795,33	1246,00
-9772,06	1374,00
-9748,84	1329,00
-9725,67	1369,00
-9702,55	1545,00
-9679,47	1647,00
-9656,45	1915,00
-9633,47	1814,00
-9610,55	1826,00
-9587,67	1900,00
-9564,84	2207,00
-9542,06	2189,00
-9519,32	2424,00
-9496,64	2549,00
-9474,00	2577,00
-9451,41	2759,00
-9428,87	2769,00
-9406,37	2758,00
-9383,92	2421,00
-9361,52	2491,00
-9339,17	2842,00
-9316,86	2981,00
-9294,60	3385,00
-9272,38	3771,00
-9250,21	4055,00
-9228,09	4106,00
-9206,01	4164,00
-9183,98	3816,00
-9162,00	3477,00
-9140,06	3344,00
-9118,16	3562,00
-9096,31	3599,00
-9074,51	3799,00
-9052,75	4005,00
-9031,04	3696,00
-9009,37	3381,00
-8987,74	3181,00
-8966,16	2956,00
-8944,63	2684,00
-8923,14	2729,00
-8901,69	2687,00
-8880,29	2789,00
-8858,93	3121,00
-8837,61	3246,00
-8816,34	3420,00
-8795,11	3443,00
-8773,92	3126,00
-8752,78	2993,00
-8731,68	2819,00
-8710,62	2988,00
-8689,61	2770,00
-8668,63	3070,00
-8647,70	3313,00
-8626,82	3267,00
-8605,97	3251,00
-8585,17	2999,00
-8564,41	2791,00
-8543,69	2683,00
-8523,01	2517,00
-8502,37	2618,00
-8481,78	2731,00
-8461,23	2804,00
-8440,71	3019,00
-8420,24	3097,00
-8399,81	3269,00
-8379,42	3056,00
-8359,08	3046,00
-8338,77	2667,00
-8318,50	2543,00
-8298,27	2418,00
-8278,09	2686,00
-8257,94	2758,00
-8237,83	2998,00
-8217,76	2982,00
-8197,74	2997,00
-8177,75	3063,00
-8157,80	2735,00
-8137,89	2486,00
-8118,02	2430,00
-8098,19	2541,00
-8078,40	2453,00
-8058,65	2486,00
-8038,93	2650,00
-8019,26	2659,00
-7999,62	2540,00
-7980,02	2339,00
-7960,46	2255,00
-7940,94	2224,00
-7921,46	2140,00
-7902,01	2115,00
-7882,60	2277,00
-7863,23	2096,00
-7843,90	2128,00
-7824,61	2307,00
-7805,35	2526,00
-7786,13	2441,00
-7766,95	2429,00
-7747,80	2338,00
-7728,69	2253,00
-7709,62	2288,00
-7690,59	2289,00
-7671,59	2426,00
-7652,63	2372,00
-7633,70	2450,00
-7614,81	2368,00
-7595,96	2225,00
-7577,15	2192,00
-7558,37	2022,00
-7539,62	2193,00
-7520,91	2167,00
-7502,24	2249,00
-7483,60	2277,00
-7465,00	2120,00
-7446,44	2110,00
-7427,91	1856,00
-7409,41	1710,00
-7390,95	1732,00
-7372,53	1578,00
-7354,14	1727,00
-7335,78	1703,00
-7317,46	1765,00
-7299,18	1681,00
-7280,92	2006,00
-7262,71	2233,00
-7244,52	2305,00
-7226,38	2119,00
-7208,26	2131,00
-7190,18	2123,00
-7172,14	2008,00
-7154,12	2047,00
-7136,15	1928,00
-7118,20	2126,00
-7100,29	2183,00
-7082,41	2261,00
-7064,57	2150,00
-7046,76	2085,00
-7028,98	1782,00
-7011,24	1860,00
-6993,53	1509,00
-6975,85	1594,00
-6958,20	1454,00
-6940,59	1380,00
-6923,01	1321,00
-6905,46	1608,00
-6887,94	1722,00
-6870,46	2117,00
-6853,01	1949,00
-6835,59	2002,00
-6818,21	1790,00
-6800,85	1819,00
-6783,53	1458,00
-6766,24	1257,00
-6748,98	1337,00
-6731,76	1211,00
-6714,56	1174,00
-6697,40	1111,00
-6680,26	1099,00
-6663,16	1336,00
-6646,09	1550,00
-6629,05	1742,00
-6612,05	1663,00
-6595,07	1575,00
-6578,13	1627,00
-6561,21	1447,00
-6544,33	1319,00
-6527,47	1114,00
-6510,65	1084,00
-6493,86	963,00
-6477,10	1008,00
-6460,36	1200,00
-6443,66	1082,00
-6426,99	1149,00
-6410,35	1015,00
-6393,74	1306,00
-6377,16	1166,00
-6360,61	1286,00
-6344,09	1260,00
-6327,59	1288,00
-6311,13	1421,00
-6294,70	1441,00
-6278,29	1491,00
-6261,92	1440,00
-6245,58	1692,00
-6229,26	1650,00
-6212,97	1589,00
-6196,72	1265,00
-6180,49	1283,00
-6164,29	1006,00
-6148,12	1027,00
-6131,98	1009,00
-6115,86	899,00
-6099,78	870,00
-6083,72	936,00
-6067,69	926,00
-6051,69	885,00
-6035,72	954,00
-6019,78	1085,00
-6003,87	1276,00
-5987,98	1337,00
-5972,12	1399,00
-5956,29	1407,00
-5940,49	1263,00
-5924,71	1269,00
-5908,96	1123,00
-5893,24	935,00
-5877,55	992,00
-5861,89	1044,00
-5846,25	858,00
-5830,64	1054,00
-5815,05	981,00
-5799,50	1001,00
-5783,97	1017,00
-5768,47	1097,00
-5752,99	1359,00
-5737,55	1211,00
-5722,12	1351,00
-5706,73	1346,00
-5691,36	1185,00
-5676,02	1111,00
-5660,71	956,00
-5645,42	998,00
-5630,16	1098,00
-5614,92	1147,00
-5599,71	1109,00
-5584,53	1127,00
-5569,37	1094,00
-5554,24	2099,00
-5539,14	1007,00
-5524,06	1089,00
-5509,01	1065,00
-5493,98	1110,00
-5478,98	1151,00
-5464,00	1071,00
-5449,05	985,00
-5434,13	1058,00
-5419,23	960,00
-5404,36	977,00
-5389,51	1118,00
-5374,69	1230,00
-5359,89	1348,00
-5345,12	1470,00
-5330,37	1400,00
-5315,65	1230,00
-5300,95	1200,00
-5286,28	973,00
-5271,63	993,00
-5257,01	988,00
-5242,41	1066,00
-5227,84	951,00
-5213,29	1018,00
-5198,76	991,00
-5184,26	970,00
-5169,79	889,00
-5155,33	1029,00
-5140,91	1063,00
-5126,51	1102,00
-5112,13	1066,00
-5097,77	1089,00
-5083,44	1056,00
-5069,13	910,00
-5054,85	1018,00
-5040,59	1007,00
-5026,36	1041,00
-5012,15	1220,00
-4997,96	1054,00
-4983,80	1064,00
-4969,66	948,00
-4955,54	806,00
-4941,44	1138,00
-4927,37	1122,00
-4913,33	1348,00
-4899,30	1305,00
-4885,30	1339,00
-4871,33	1043,00
-4857,37	916,00
-4843,44	886,00
-4829,53	985,00
-4815,65	1057,00
-4801,79	844,00
-4787,95	1070,00
-4774,13	946,00
-4760,34	878,00
-4746,56	992,00
-4732,82	807,00
-4719,09	981,00
-4705,38	1307,00
-4691,70	1282,00
-4678,04	1411,00
-4664,41	1276,00
-4650,79	1210,00
-4637,20	915,00
-4623,63	835,00
-4610,08	1068,00
-4596,56	1095,00
-4583,05	1079,00
-4569,57	998,00
-4556,11	1009,00
-4542,67	892,00
-4529,25	885,00
-4515,86	967,00
-4502,49	1157,00
-4489,13	1333,00
-4475,80	1234,00
-4462,49	909,00
-4449,21	1040,00
-4435,94	901,00
-4422,70	764,00
-4409,47	901,00
-4396,27	1046,00
-4383,09	947,00
-4369,93	883,00
-4356,79	754,00
-4343,67	883,00
-4330,58	998,00
-4317,50	1088,00
-4304,45	1030,00
-4291,41	923,00
-4278,40	821,00
-4265,41	752,00
-4252,44	959,00
-4239,49	920,00
-4226,55	1048,00
-4213,65	1010,00
-4200,76	887,00
-4187,89	925,00
-4175,04	726,00
-4162,21	731,00
-4149,40	860,00
-4136,61	813,00
-4123,85	798,00
-4111,10	823,00
-4098,37	878,00
-4085,66	869,00
-4072,98	864,00
-4060,31	790,00
-4047,66	948,00
-4035,04	987,00
-4022,43	811,00
-4009,84	834,00
-3997,27	678,00
-3984,72	818,00
-3972,19	879,00
-3959,69	841,00
-3947,20	853,00
-3934,73	745,00
-3922,27	757,00
-3909,84	725,00
-3897,43	843,00
-3885,04	845,00
-3872,67	752,00
-3860,31	774,00
-3847,98	814,00
-3835,66	841,00
-3823,36	809,00
-3811,09	756,00
-3798,83	757,00
-3786,59	824,00
-3774,37	870,00
-3762,17	726,00
-3749,98	773,00
-3737,82	815,00
-3725,67	975,00
-3713,55	719,00
-3701,44	889,00
-3689,35	775,00
-3677,28	928,00
-3665,22	799,00
-3653,19	765,00
-3641,17	714,00
-3629,18	775,00
-3617,20	829,00
-3605,24	794,00
-3593,30	872,00
-3581,37	861,00
-3569,47	751,00
-3557,58	862,00
-3545,71	833,00
-3533,86	776,00
-3522,02	757,00
-3510,21	769,00
-3498,41	770,00
-3486,63	796,00
-3474,87	770,00
-3463,12	790,00
-3451,40	727,00
-3439,69	741,00
-3428,00	707,00
-3416,33	831,00
-3404,67	719,00
-3393,03	746,00
-3381,41	914,00
-3369,81	802,00
-3358,22	906,00
-3346,66	934,00
-3335,10	808,00
-3323,57	731,00
-3312,06	844,00
-3300,56	826,00
-3289,08	770,00
-3277,61	779,00
-3266,16	773,00
-3254,73	773,00
-3243,32	722,00
-3231,92	717,00
-3220,55	824,00
-3209,18	892,00
-3197,84	814,00
-3186,51	679,00
-3175,20	742,00
-3163,90	693,00
-3152,63	876,00
-3141,36	715,00
-3130,12	802,00
-3118,89	781,00
-3107,68	739,00
-3096,49	855,00
-3085,31	782,00
-3074,15	820,00
-3063,00	862,00
-3051,87	721,00
-3040,76	643,00
-3029,67	916,00
-3018,59	973,00
-3007,52	973,00
-2996,48	799,00
-2985,44	773,00
-2974,43	821,00
-2963,43	731,00
-2952,45	799,00
-2941,48	776,00
-2930,53	801,00
-2919,60	746,00
-2908,68	689,00
-2897,78	750,00
-2886,89	949,00
-2876,02	855,00
-2865,17	780,00
-2854,33	768,00
-2843,50	747,00
-2832,70	781,00
-2821,90	713,00
-2811,13	864,00
-2800,37	703,00
-2789,62	721,00
-2778,89	907,00
-2768,18	829,00
-2757,48	848,00
-2746,80	943,00
-2736,13	698,00
-2725,48	970,00
-2714,84	711,00
-2704,22	738,00
-2693,61	776,00
-2683,02	786,00
-2672,45	797,00
-2661,89	780,00
-2651,34	831,00
-2640,81	810,00
-2630,30	842,00
-2619,80	770,00
-2609,31	853,00
-2598,84	731,00
-2588,39	771,00
-2577,95	781,00
-2567,52	706,00
-2557,11	714,00
-2546,71	856,00
-2536,33	884,00
-2525,97	781,00
-2515,62	819,00
-2505,28	762,00
-2494,96	730,00
-2484,65	881,00
-2474,36	1080,00
-2464,08	697,00
-2453,82	972,00
-2443,57	759,00
-2433,33	719,00
-2423,11	877,00
-2412,91	864,00
-2402,72	718,00
-2392,54	714,00
-2382,38	780,00
-2372,23	944,00
-2362,09	1632,00
-2351,97	802,00
-2341,87	713,00
-2331,78	910,00
-2321,70	908,00
-2311,64	682,00
-2301,59	786,00
-2291,55	794,00
-2281,53	840,00
-2271,53	668,00
-2261,53	908,00
-2251,55	833,00
-2241,59	828,00
-2231,64	797,00
-2221,70	794,00
-2211,78	767,00
-2201,87	838,00
-2191,97	795,00
-2182,09	802,00
-2172,22	826,00
-2162,37	743,00
-2152,53	747,00
-2142,70	853,00
-2132,89	757,00
-2123,09	790,00
-2113,30	786,00
-2103,53	735,00
-2093,77	902,00
-2084,02	777,00
-2074,29	890,00
-2064,57	812,00
-2054,86	863,00
-2045,17	917,00
-2035,49	822,00
-2025,82	685,00
-2016,17	753,00
-2006,53	803,00
-1996,91	804,00
-1987,29	808,00
-1977,69	853,00
-1968,11	764,00
-1958,53	760,00
-1948,97	790,00
-1939,42	796,00
-1929,89	787,00
-1920,37	699,00
-1910,86	792,00
-1901,36	837,00
-1891,88	806,00
-1882,41	811,00
-1872,95	781,00
-1863,51	833,00
-1854,08	816,00
-1844,66	858,00
-1835,26	831,00
-1825,86	871,00
-1816,48	733,00
-1807,11	852,00
-1797,76	767,00
-1788,42	849,00
-1779,09	886,00
-1769,77	827,00
-1760,47	915,00
-1751,17	727,00
-1741,89	816,00
-1732,63	805,00
-1723,37	985,00
-1714,13	954,00
-1704,90	876,00
-1695,68	1030,00
-1686,48	720,00
-1677,29	785,00
-1668,11	961,00
-1658,94	753,00
-1649,78	783,00
-1640,64	836,00
-1631,51	763,00
-1622,39	897,00
-1613,28	790,00
-1604,19	879,00
-1595,10	819,00
-1586,03	747,00
-1576,97	861,00
-1567,93	749,00
-1558,89	821,00
-1549,87	860,00
-1540,86	801,00
-1531,86	752,00
-1522,87	779,00
-1513,90	934,00
-1504,93	841,00
-1495,98	873,00
-1487,04	898,00
-1478,12	765,00
-1469,20	773,00
-1460,30	876,00
-1451,40	885,00
-1442,52	895,00
-1433,65	887,00
-1424,80	830,00
-1415,95	750,00
-1407,12	946,00
-1398,30	782,00
-1389,48	882,00
-1380,69	701,00
-1371,90	715,00
-1363,12	817,00
-1354,36	964,00
-1345,60	758,00
-1336,86	815,00
-1328,13	924,00
-1319,41	839,00
-1310,70	821,00
-1302,01	822,00
-1293,32	785,00
-1284,65	782,00
-1275,99	827,00
-1267,33	999,00
-1258,69	845,00
-1250,06	754,00
-1241,45	750,00
-1232,84	1052,00
-1224,25	792,00
-1215,66	765,00
-1207,09	877,00
-1198,53	754,00
-1189,97	811,00
-1181,43	755,00
-1172,91	823,00
-1164,39	817,00
-1155,88	670,00
-1147,38	694,00
-1138,90	752,00
-1130,43	744,00
-1121,96	796,00
-1113,51	780,00
-1105,07	890,00
-1096,64	897,00
-1088,22	762,00
-1079,81	875,00
-1071,41	859,00
-1063,02	725,00
-1054,65	978,00
-1046,28	754,00
-1037,92	824,00
-1029,58	814,00
-1021,24	884,00
-1012,92	1094,00
-1004,61	755,00
-996,30	971,00
-988,01	688,00
-979,73	851,00
-971,46	883,00
-963,20	724,00
-954,95	723,00
-946,71	760,00
-938,48	891,00
-930,26	834,00
-922,06	750,00
-913,86	735,00
-905,67	756,00
-897,49	817,00
-889,33	655,00
-881,17	959,00
-873,02	821,00
-864,89	656,00
-856,76	750,00
-848,65	849,00
-840,54	861,00
-832,45	815,00
-824,36	686,00
-816,29	746,00
-808,22	853,00
-800,17	839,00
-792,12	820,00
-784,09	885,00
-776,06	622,00
-768,05	843,00
-760,04	776,00
-752,05	740,00
-744,07	759,00
-736,09	804,00
-728,13	624,00
-720,17	790,00
-712,23	742,00
-704,29	781,00
-696,37	887,00
-688,45	825,00
-680,55	789,00
-672,65	778,00
-664,77	784,00
-656,89	794,00
-649,03	731,00
-641,17	840,00
-633,32	769,00
-625,49	783,00
-617,66	795,00
-609,84	908,00
-602,03	733,00
-594,23	807,00
-586,45	832,00
-578,67	842,00
-570,90	768,00
-563,14	734,00
-555,39	824,00
-547,65	801,00
-539,91	781,00
-532,19	831,00
-524,48	792,00
-516,78	689,00
-509,08	842,00
-501,40	771,00
-493,72	852,00
-486,06	729,00
-478,40	961,00
-470,76	713,00
-463,12	814,00
-455,49	727,00
-447,87	732,00
-440,26	771,00
-432,66	700,00
-425,07	862,00
-417,49	824,00
-409,92	706,00
-402,35	782,00
-394,80	700,00
-387,25	880,00
-379,72	897,00
-372,19	832,00
-364,67	882,00
-357,17	745,00
-349,67	825,00
-342,18	791,00
-334,69	737,00
-327,22	813,00
-319,76	745,00
-312,30	730,00
-304,86	779,00
-297,42	814,00
-290,00	778,00
-282,58	799,00
-275,17	855,00
-267,77	933,00
-260,37	775,00
-252,99	891,00
-245,62	943,00
-238,25	817,00
-230,90	816,00
-223,55	982,00
-216,21	818,00
-208,88	1095,00
-201,56	880,00
-194,25	872,00
-186,94	990,00
-179,65	955,00
-172,36	1006,00
-165,08	1027,00
-157,81	1167,00
-150,55	1087,00
-143,30	1096,00
-136,06	1055,00
-128,82	1200,00
-121,60	1210,00
-114,38	1352,00
-107,17	1470,00
-99,97	1599,00
-92,78	1501,00
-85,60	1726,00
-78,42	1829,00
-71,25	1995,00
-64,10	2228,00
-56,95	2387,00
-49,81	2812,00
-42,67	3416,00
-35,55	3988,00
-28,43	5152,00
-21,33	7930,00
-14,23	24479,00
-7,14	57498,00
-0,05	57284,00
7,02	57012,00
14,09	57319,00
21,14	21260,00
28,19	9212,00
35,23	6113,00
42,27	4891,00
49,29	4114,00
56,31	3552,00
63,32	3226,00
70,32	2679,00
77,31	2372,00
84,29	2119,00
91,27	1970,00
98,23	1942,00
105,19	1818,00
112,14	2074,00
119,09	2727,00
126,02	4034,00
132,95	4444,00
139,87	4733,00
146,78	4751,00
153,68	4641,00
160,58	4458,00
167,46	4310,00
174,34	4332,00
181,21	4313,00
188,08	4195,00
194,93	4283,00
201,78	4328,00
208,62	4385,00
215,45	4288,00
222,27	4355,00
229,09	4423,00
235,90	4109,00
242,70	4098,00
249,49	4207,00
256,27	4013,00
263,05	3867,00
269,82	4014,00
276,58	3921,00
283,33	3764,00
290,08	3758,00
296,82	3610,00
303,55	3706,00
310,27	3531,00
316,98	3605,00
323,69	3558,00
330,39	3346,00
337,08	3611,00
343,76	3597,00
350,44	3623,00
357,11	3483,00
363,77	3513,00
370,42	3463,00
377,07	3573,00
383,71	3449,00
390,34	3420,00
396,96	3525,00
403,58	3456,00
410,19	3692,00
416,79	3731,00
423,38	3713,00
429,97	3818,00
436,55	3726,00
443,12	3734,00
449,68	3796,00
456,24	3684,00
462,79	3636,00
469,33	3394,00
475,86	3295,00
482,39	3159,00
488,91	3206,00
495,42	3130,00
501,93	3159,00
508,42	2962,00
514,91	2980,00
521,40	2972,00
527,87	2900,00
534,34	2868,00
540,80	2955,00
547,25	3068,00
553,70	2912,00
560,14	2977,00
566,57	2987,00
573,00	3024,00
579,41	3086,00
585,83	3160,00
592,23	3000,00
598,62	3201,00
605,01	3234,00
611,40	3409,00
617,77	3362,00
624,14	3257,00
630,50	3040,00
636,85	2915,00
643,20	2949,00
649,54	2797,00
655,87	2711,00
662,20	2772,00
668,52	2787,00
674,83	2801,00
681,13	2664,00
687,43	2768,00
693,72	2517,00
700,00	2580,00
706,28	2595,00
712,55	2715,00
718,81	2664,00
725,07	2597,00
731,32	2642,00
737,56	2692,00
743,79	2570,00
750,02	2654,00
756,24	2482,00
762,46	2485,00
768,67	2858,00
774,87	2542,00
781,06	2462,00
787,25	2591,00
793,43	2540,00
799,60	2542,00
805,77	2566,00
811,93	2571,00
818,08	2619,00
824,23	2612,00
830,37	2745,00
836,50	2548,00
842,63	2607,00
848,75	2595,00
854,87	2567,00
860,97	2736,00
867,07	2577,00
873,17	2627,00
879,25	2699,00
885,33	2623,00
891,41	2725,00
897,47	2641,00
903,53	2549,00
909,59	2639,00
915,63	2482,00
921,67	2455,00
927,71	2545,00
933,74	2463,00
939,76	2284,00
945,77	2357,00
951,78	2591,00
957,78	2321,00
963,78	2480,00
969,77	2345,00
975,75	2280,00
981,72	2342,00
987,69	3761,00
993,66	2425,00
999,61	2482,00
1005,56	2391,00
1011,51	2454,00
1017,44	2496,00
1023,37	2477,00
1029,30	2484,00
1035,22	2554,00
1041,13	2527,00
1047,03	2794,00
1052,93	3142,00
1058,83	4512,00
1064,71	5077,00
1070,59	4178,00
1076,47	3452,00
1082,33	3197,00
1088,20	3039,00
1094,05	2839,00
1099,90	2606,00
1105,74	2701,00
1111,58	2692,00
1117,41	2985,00
1123,23	3925,00
1129,05	4748,00
1134,86	4331,00
1140,67	3267,00
1146,47	2758,00
1152,26	2575,00
1158,05	2450,00
1163,83	2609,00
1169,60	2673,00
1175,37	2581,00
1181,13	2600,00
1186,89	2306,00
1192,64	2372,00
1198,38	2556,00
1204,12	2218,00
1209,85	2250,00
1215,58	2277,00
1221,30	2274,00
1227,02	2422,00
1232,72	2247,00
1238,43	2306,00
1244,12	2273,00
1249,81	2256,00
1255,50	2455,00
1261,17	2385,00
1266,85	2533,00
1272,51	2636,00
1278,17	2627,00
1283,83	2947,00
1289,47	4438,00
1295,12	5902,00
1300,75	5353,00
1306,38	4100,00
1312,01	3304,00
1317,63	2810,00
1323,24	2695,00
1328,85	2536,00
1334,45	2503,00
1340,04	2379,00
1345,63	2423,00
1351,22	2571,00
1356,80	2441,00
1362,37	2501,00
1367,93	2626,00
1373,49	2524,00
1379,05	2536,00
1384,60	2362,00
1390,14	2398,00
1395,68	2422,00
1401,21	2492,00
1406,74	2692,00
1412,26	3284,00
1417,77	3933,00
1423,28	3774,00
1428,78	4200,00
1434,28	5109,00
1439,77	5940,00
1445,26	5893,00
1450,74	5474,00
1456,22	4989,00
1461,68	4862,00
1467,15	4446,00
1472,61	3753,00
1478,06	3423,00
1483,51	2914,00
1488,95	2586,00
1494,38	2665,00
1499,81	2316,00
1505,24	2296,00
1510,65	2338,00
1516,07	2311,00
1521,48	2204,00
1526,88	2084,00
1532,27	2127,00
1537,67	2025,00
1543,05	2080,00
1548,43	1934,00
1553,81	2164,00
1559,18	1819,00
1564,54	1993,00
1569,90	1969,00
1575,25	1905,00
1580,60	1867,00
1585,94	1956,00
1591,28	1976,00
1596,61	1916,00
1601,93	1926,00
1607,25	2023,00
1612,57	1931,00
1617,88	1900,00
1623,18	1999,00
1628,48	1828,00
1633,77	1912,00
1639,06	1908,00
1644,34	1849,00
1649,62	1719,00
1654,89	1827,00
1660,16	1727,00
1665,42	1964,00
1670,67	1719,00
1675,92	1729,00
1681,17	1713,00
1686,41	1807,00
1691,64	1761,00
1696,87	1696,00
1702,10	1797,00
1707,32	1772,00
1712,53	1668,00
1717,74	1683,00
1722,94	1852,00
1728,14	1677,00
1733,33	1698,00
1738,52	1582,00
1743,70	1823,00
1748,88	1628,00
1754,05	1680,00
1759,22	1589,00
1764,38	1916,00
1769,53	1623,00
1774,69	1723,00
1779,83	1649,00
1784,97	1629,00
1790,11	1663,00
1795,24	1599,00
1800,36	1610,00
1805,48	1585,00
1810,60	1705,00
1815,71	1541,00
1820,82	1549,00
1825,92	1577,00
1831,01	1532,00
1836,10	1505,00
1841,19	1563,00
1846,26	1384,00
1851,34	1593,00
1856,41	1484,00
1861,47	1493,00
1866,53	1598,00
1871,59	1531,00
1876,64	1538,00
1881,68	1537,00
1886,72	1533,00
1891,76	1489,00
1896,79	1467,00
1901,81	1351,00
1906,83	1527,00
1911,85	1416,00
1916,86	1442,00
1921,86	1374,00
1926,86	1389,00
1931,86	1495,00
1936,85	1415,00
1941,83	1386,00
1946,81	1318,00
1951,79	1284,00
1956,76	1358,00
1961,72	1213,00
1966,68	1310,00
1971,64	1322,00
1976,59	1352,00
1981,54	1344,00
1986,48	1399,00
1991,42	1155,00
1996,35	1664,00
2001,27	1336,00
2006,20	1327,00
2011,11	1389,00
2016,03	1283,00
2020,93	1238,00
2025,84	1314,00
2030,73	1343,00
2035,63	1135,00
2040,52	1342,00
2045,40	1259,00
2050,28	1227,00
2055,15	1220,00
2060,02	1169,00
2064,89	1426,00
2069,75	1277,00
2074,60	1324,00
2079,46	1198,00
2084,30	1314,00
2089,14	1228,00
2093,98	1319,00
2098,81	1322,00
2103,64	1291,00
2108,46	1295,00
2113,28	1292,00
2118,09	1303,00
2122,90	1214,00
2127,70	1205,00
2132,50	1360,00
2137,30	1316,00
2142,09	1127,00
2146,87	1186,00
2151,66	1304,00
2156,43	1204,00
2161,20	1263,00
2165,97	1353,00
2170,73	1208,00
2175,49	1401,00
2180,24	1347,00
2184,99	1410,00
2189,74	1458,00
2194,48	1366,00
2199,21	1394,00
2203,94	1208,00
2208,67	1116,00
2213,39	1146,00
2218,11	1288,00
2222,82	1184,00
2227,53	1216,00
2232,23	1286,00
2236,93	1315,00
2241,63	1195,00
2246,32	1275,00
2251,00	1201,00
2255,68	1203,00
2260,36	1172,00
2265,03	1251,00
2269,70	1286,00
2274,36	1155,00
2279,02	1206,00
2283,68	1170,00
2288,33	1271,00
2292,97	1239,00
2297,61	1177,00
2302,25	1210,00
2306,88	1134,00
2311,51	1143,00
2316,14	1217,00
2320,75	1119,00
2325,37	1100,00
2329,98	1184,00
2334,59	1203,00
2339,19	1140,00
2343,79	1062,00
2348,38	1219,00
2352,97	1004,00
2357,55	1149,00
2362,13	1117,00
2366,71	1079,00
2371,28	1182,00
2375,85	1154,00
2380,41	1208,00
2384,97	1099,00
2389,52	1124,00
2394,07	1161,00
2398,62	1031,00
2403,16	1188,00
2407,70	977,00
2412,23	1032,00
2416,76	1171,00
2421,29	1118,00
2425,81	1179,00
2430,32	1213,00
2434,84	1077,00
2439,34	999,00
2443,85	1286,00
2448,35	1072,00
2452,84	1071,00
2457,33	1209,00
2461,82	1012,00
2466,30	1094,00
2470,78	1098,00
2475,25	1081,00
2479,72	1132,00
2484,19	1119,00
2488,65	1160,00
2493,11	1005,00
2497,56	1240,00
2502,01	952,00
2506,46	1069,00
2510,90	1074,00
2515,34	1044,00
2519,77	1071,00
2524,20	1106,00
2528,62	1092,00
2533,04	1116,00
2537,46	1083,00
2541,87	1060,00
2546,28	1126,00
2550,68	1168,00
2555,08	1075,00
2559,48	1130,00
2563,87	1041,00
2568,26	1037,00
2572,64	1088,00
2577,02	1135,00
2581,40	1008,00
2585,77	1152,00
2590,14	1084,00
2594,50	1037,00
2598,86	1178,00
2603,22	1039,00
2607,57	1109,00
2611,92	1165,00
2616,26	1293,00
2620,60	1217,00
2624,94	1133,00
2629,27	1181,00
2633,60	1082,00
2637,92	1306,00
2642,24	1325,00
2646,56	1135,00
2650,87	1041,00
2655,18	1258,00
2659,48	1106,00
2663,78	1109,00
2668,08	1090,00
2672,37	1169,00
2676,66	1177,00
2680,95	1085,00
2685,23	1310,00
2689,50	1266,00
2693,78	1161,00
2698,05	1172,00
2702,31	1326,00
2706,57	1407,00
2710,83	1393,00
2715,08	1491,00
2719,33	1494,00
2723,58	1429,00
2727,82	1495,00
2732,06	1397,00
2736,29	1375,00
2740,53	1366,00
2744,75	1272,00
2748,97	1334,00
2753,19	1273,00
2757,41	1375,00
2761,62	1332,00
2765,83	1303,00
2770,03	1305,00
2774,23	1397,00
2778,43	1153,00
2782,62	1416,00
2786,81	1280,00
2791,00	1371,00
2795,18	1392,00
2799,35	1488,00
2803,53	1488,00
2807,70	1576,00
2811,86	1567,00
2816,03	1732,00
2820,19	1771,00
2824,34	1684,00
2828,49	2024,00
2832,64	2216,00
2836,78	2655,00
2840,92	2947,00
2845,06	3723,00
2849,19	4151,00
2853,32	4196,00
2857,45	4150,00
2861,57	4196,00
2865,69	4124,00
2869,80	3978,00
2873,91	4111,00
2878,02	4572,00
2882,12	4934,00
2886,22	4849,00
2890,32	4624,00
2894,41	4334,00
2898,50	3879,00
2902,58	3800,00
2906,67	3488,00
2910,74	3256,00
2914,82	2979,00
2918,89	2966,00
2922,96	2609,00
2927,02	2443,00
2931,08	2377,00
2935,13	2196,00
2939,19	2136,00
2943,24	2003,00
2947,28	1942,00
2951,32	1698,00
2955,36	1581,00
2959,40	1683,00
2963,43	1475,00
2967,46	1393,00
2971,48	1401,00
2975,50	1322,00
2979,52	1384,00
2983,53	1231,00
2987,54	1233,00
2991,55	1119,00
2995,55	1121,00
2999,55	1160,00
3003,54	1075,00
3007,54	1195,00
3011,53	1139,00
3015,51	1025,00
3019,49	1115,00
3023,47	1032,00
3027,45	1078,00
3031,42	952,00
3035,39	963,00
3039,35	1066,00
3043,31	1023,00
3047,27	959,00
3051,22	1002,00
3055,17	983,00
3059,12	898,00
3063,06	964,00
3067,00	857,00
3070,94	843,00
3074,87	1087,00
3078,80	905,00
3082,73	976,00
3086,65	848,00
3090,57	830,00
3094,49	855,00
3098,40	925,00
3102,31	904,00
3106,22	912,00
3110,12	879,00
3114,02	844,00
3117,92	891,00
3121,81	821,00
3125,70	905,00
3129,58	882,00
3133,47	801,00
3137,34	866,00
3141,22	909,00
3145,09	853,00
3148,96	890,00
3152,83	897,00
3156,69	964,00
3160,55	816,00
3164,40	875,00
3168,26	952,00
3172,10	905,00
3175,95	892,00
3179,79	895,00
3183,63	829,00
3187,47	836,00
3191,30	914,00
3195,13	865,00
3198,95	748,00
3202,78	876,00
3206,60	817,00
3210,41	813,00
3214,23	703,00
3218,03	857,00
3221,84	905,00
3225,64	825,00
3229,44	828,00
3233,24	801,00
3237,03	818,00
3240,82	792,00
3244,61	801,00
3248,39	762,00
3252,17	948,00
3255,95	948,00
3259,72	852,00
3263,49	1005,00
3267,26	845,00
3271,03	858,00
3274,79	809,00
3278,54	811,00
3282,30	722,00
3286,05	821,00
3289,80	913,00
3293,54	850,00
3297,29	881,00
3301,02	752,00
3304,76	773,00
3308,49	817,00
3312,22	783,00
3315,95	793,00
3319,67	746,00
3323,39	893,00
3327,10	838,00
3330,82	812,00
3334,53	862,00
3338,24	811,00
3341,94	791,00
3345,64	870,00
3349,34	838,00
3353,03	823,00
3356,72	773,00
3360,41	837,00
3364,10	824,00
3367,78	764,00
3371,46	795,00
3375,13	795,00
3378,81	829,00
3382,48	784,00
3386,14	932,00
3389,81	876,00
3393,47	818,00
3397,12	881,00
3400,78	833,00
3404,43	771,00
3408,08	831,00
3411,72	817,00
3415,36	829,00
3419,00	844,00
3422,64	777,00
3426,27	829,00
3429,90	752,00
3433,53	780,00
3437,15	825,00
3440,77	697,00
3444,39	724,00
3448,00	783,00
3451,62	797,00
3455,22	801,00
3458,83	726,00
3462,43	860,00
3466,03	930,00
3469,63	741,00
3473,22	695,00
3476,81	740,00
3480,40	906,00
3483,99	761,00
3487,57	807,00
3491,15	834,00
3494,72	755,00
3498,29	784,00
3501,86	724,00
3505,43	806,00
3508,99	741,00
3512,56	644,00
3516,11	832,00
3519,67	760,00
3523,22	829,00
3526,77	673,00
3530,32	894,00
3533,86	805,00
3537,40	924,00
3540,94	752,00
3544,47	769,00
3548,00	738,00
3551,53	833,00
3555,06	777,00
3558,58	855,00
3562,10	805,00
3565,62	696,00
3569,13	755,00
3572,64	841,00
3576,15	647,00
3579,66	706,00
3583,16	704,00
3586,66	724,00
3590,16	692,00
3593,65	711,00
3597,14	719,00
3600,63	769,00
3604,11	808,00
3607,60	726,00
3611,08	745,00
3614,55	815,00
3618,03	645,00
3621,50	659,00
3624,97	609,00
3628,43	711,00
3631,90	776,00
3635,36	725,00
3638,81	777,00
3642,27	673,00
3645,72	756,00
3649,17	694,00
3652,61	678,00
3656,06	692,00
3659,50	747,00
3662,93	675,00
3666,37	783,00
3669,80	849,00
3673,23	770,00
3676,65	751,00
3680,08	719,00
3683,50	695,00
3686,92	656,00
3690,33	747,00
3693,74	714,00
3697,15	672,00
3700,56	757,00
3703,96	774,00
3707,36	638,00
3710,76	699,00
3714,16	634,00
3717,55	646,00
3720,94	588,00
3724,33	687,00
3727,71	702,00
3731,10	698,00
3734,48	765,00
3737,85	642,00
3741,23	704,00
3744,60	654,00
3747,97	636,00
3751,33	783,00
3754,69	640,00
3758,05	657,00
3761,41	592,00
3764,77	629,00
3768,12	668,00
3771,47	588,00
3774,82	733,00
3778,16	-8,00
3781,50	12,00
3784,84	8,00
3788,18	8,00
>>>>>End Processed Spectral Data<<<<<
