SpectraSuite Data File
++++++++++++++++++++++++++++++++++++
Date: Mon Jan 05 16:33:04 ICT 2026
User: Administrator
Dark Spectrum Present: Yes
Reference Spectrum Present: No
Number of Sampled Component Spectra: 1
Spectrometers: MAYP113682
Integration Time (usec): 3000000 (MAYP113682)
Spectra Averaged: 1 (MAYP113682)
Boxcar Smoothing: 0 (MAYP113682)
Correct for Electrical Dark: No (MAYP113682)
Strobe/Lamp Enabled: No (MAYP113682)
Correct for Detector Non-linearity: No (MAYP113682)
Correct for Stray Light: No (MAYP113682)
Number of Pixels in Processed Spectrum: 2068
>>>>>Begin Processed Spectral Data<<<<<
-37534,58	34,00
-37414,56	10,00
-37295,11	8,00
-37176,24	5,00
-37057,95	613,00
-36940,22	638,00
-36823,05	698,00
-36706,45	743,00
-36590,40	795,00
-36474,90	726,00
-36359,95	824,00
-36245,55	791,00
-36131,68	616,00
-36018,35	744,00
-35905,55	738,00
-35793,29	831,00
-35681,54	650,00
-35570,32	829,00
-35459,62	736,00
-35349,43	892,00
-35239,75	858,00
-35130,58	775,00
-35021,91	810,00
-34913,74	731,00
-34806,07	833,00
-34698,89	861,00
-34592,20	772,00
-34486,00	803,00
-34380,28	891,00
-34275,04	810,00
-34170,27	664,00
-34065,98	930,00
-33962,16	855,00
-33858,81	847,00
-33755,92	868,00
-33653,49	1003,00
-33551,52	903,00
-33450,01	876,00
-33348,94	806,00
-33248,33	824,00
-33148,16	737,00
-33048,43	777,00
-32949,14	1039,00
-32850,29	902,00
-32751,87	810,00
-32653,89	921,00
-32556,33	929,00
-32459,20	827,00
-32362,49	881,00
-32266,19	825,00
-32170,32	902,00
-32074,86	860,00
-31979,82	869,00
-31885,18	1040,00
-31790,95	995,00
-31697,12	876,00
-31603,69	861,00
-31510,67	935,00
-31418,04	866,00
-31325,80	828,00
-31233,95	787,00
-31142,49	794,00
-31051,42	845,00
-30960,73	1042,00
-30870,43	998,00
-30780,50	931,00
-30690,95	824,00
-30601,77	919,00
-30512,97	911,00
-30424,53	835,00
-30336,46	945,00
-30248,76	853,00
-30161,42	976,00
-30074,44	913,00
-29987,81	907,00
-29901,55	994,00
-29815,63	868,00
-29730,07	880,00
-29644,86	950,00
-29560,00	932,00
-29475,48	855,00
-29391,30	923,00
-29307,47	907,00
-29223,97	853,00
-29140,81	1000,00
-29057,99	911,00
-28975,50	779,00
-28893,34	1047,00
-28811,51	879,00
-28730,00	900,00
-28648,82	914,00
-28567,97	898,00
-28487,43	938,00
-28407,21	897,00
-28327,32	854,00
-28247,73	1045,00
-28168,46	782,00
-28089,50	902,00
-28010,85	842,00
-27932,51	740,00
-27854,48	857,00
-27776,75	848,00
-27699,32	942,00
-27622,19	880,00
-27545,37	939,00
-27468,84	995,00
-27392,60	891,00
-27316,66	870,00
-27241,01	904,00
-27165,66	849,00
-27090,59	785,00
-27015,81	910,00
-26941,31	981,00
-26867,10	817,00
-26793,17	1006,00
-26719,52	972,00
-26646,15	876,00
-26573,06	855,00
-26500,24	794,00
-26427,70	932,00
-26355,43	867,00
-26283,43	826,00
-26211,71	843,00
-26140,25	917,00
-26069,06	1001,00
-25998,13	767,00
-25927,46	810,00
-25857,06	781,00
-25786,92	873,00
-25717,04	806,00
-25647,42	948,00
-25578,05	781,00
-25508,94	900,00
-25440,09	807,00
-25371,48	884,00
-25303,13	972,00
-25235,02	824,00
-25167,17	826,00
-25099,56	939,00
-25032,19	827,00
-24965,07	699,00
-24898,20	774,00
-24831,56	860,00
-24765,17	896,00
-24699,01	798,00
-24633,10	914,00
-24567,41	856,00
-24501,97	875,00
-24436,75	888,00
-24371,77	801,00
-24307,03	864,00
-24242,51	932,00
-24178,22	840,00
-24114,16	839,00
-24050,32	998,00
-23986,71	809,00
-23923,32	794,00
-23860,16	775,00
-23797,22	806,00
-23734,50	871,00
-23672,00	869,00
-23609,71	852,00
-23547,65	818,00
-23485,80	873,00
-23424,16	768,00
-23362,74	893,00
-23301,53	858,00
-23240,54	751,00
-23179,75	757,00
-23119,17	846,00
-23058,80	777,00
-22998,64	892,00
-22938,68	832,00
-22878,93	858,00
-22819,39	738,00
-22760,04	775,00
-22700,90	772,00
-22641,96	854,00
-22583,22	819,00
-22524,68	885,00
-22466,33	873,00
-22408,19	901,00
-22350,23	778,00
-22292,48	792,00
-22234,92	788,00
-22177,55	934,00
-22120,37	1061,00
-22063,38	770,00
-22006,58	847,00
-21949,98	788,00
-21893,56	672,00
-21837,33	929,00
-21781,28	858,00
-21725,42	814,00
-21669,74	819,00
-21614,25	903,00
-21558,94	838,00
-21503,81	941,00
-21448,86	993,00
-21394,10	802,00
-21339,51	784,00
-21285,10	698,00
-21230,86	783,00
-21176,81	744,00
-21122,93	785,00
-21069,22	736,00
-21015,69	822,00
-20962,33	961,00
-20909,14	756,00
-20856,13	913,00
-20803,28	933,00
-20750,61	853,00
-20698,10	804,00
-20645,76	780,00
-20593,59	808,00
-20541,59	936,00
-20489,75	813,00
-20438,07	743,00
-20386,56	958,00
-20335,22	693,00
-20284,03	798,00
-20233,01	859,00
-20182,15	809,00
-20131,45	856,00
-20080,91	694,00
-20030,52	876,00
-19980,30	768,00
-19930,23	677,00
-19880,32	876,00
-19830,56	839,00
-19780,96	853,00
-19731,52	820,00
-19682,23	878,00
-19633,09	789,00
-19584,10	760,00
-19535,26	858,00
-19486,58	919,00
-19438,04	746,00
-19389,66	932,00
-19341,42	746,00
-19293,33	745,00
-19245,39	813,00
-19197,60	922,00
-19149,95	965,00
-19102,45	848,00
-19055,09	794,00
-19007,87	849,00
-18960,80	884,00
-18913,87	833,00
-18867,09	826,00
-18820,44	889,00
-18773,94	834,00
-18727,57	906,00
-18681,35	755,00
-18635,26	831,00
-18589,31	707,00
-18543,50	870,00
-18497,83	860,00
-18452,29	890,00
-18406,89	744,00
-18361,63	886,00
-18316,50	789,00
-18271,50	828,00
-18226,63	904,00
-18181,90	928,00
-18137,30	980,00
-18092,84	857,00
-18048,50	877,00
-18004,29	901,00
-17960,22	717,00
-17916,27	800,00
-17872,45	890,00
-17828,76	901,00
-17785,20	847,00
-17741,77	821,00
-17698,46	965,00
-17655,28	757,00
-17612,22	934,00
-17569,29	761,00
-17526,48	861,00
-17483,79	896,00
-17441,23	722,00
-17398,79	811,00
-17356,48	691,00
-17314,28	1000,00
-17272,21	864,00
-17230,26	958,00
-17188,42	872,00
-17146,71	858,00
-17105,12	768,00
-17063,64	845,00
-17022,28	762,00
-16981,04	769,00
-16939,92	841,00
-16898,91	928,00
-16858,02	765,00
-16817,25	844,00
-16776,59	881,00
-16736,04	847,00
-16695,61	920,00
-16655,29	793,00
-16615,09	776,00
-16574,99	873,00
-16535,01	772,00
-16495,15	847,00
-16455,39	797,00
-16415,74	750,00
-16376,21	775,00
-16336,78	796,00
-16297,46	768,00
-16258,26	826,00
-16219,16	938,00
-16180,17	781,00
-16141,28	869,00
-16102,51	878,00
-16063,84	870,00
-16025,27	820,00
-15986,82	720,00
-15948,46	806,00
-15910,22	821,00
-15872,07	770,00
-15834,04	895,00
-15796,10	840,00
-15758,27	965,00
-15720,54	851,00
-15682,91	829,00
-15645,39	955,00
-15607,97	905,00
-15570,64	869,00
-15533,42	923,00
-15496,30	887,00
-15459,28	896,00
-15422,36	859,00
-15385,54	697,00
-15348,82	918,00
-15312,19	978,00
-15275,66	812,00
-15239,23	907,00
-15202,90	843,00
-15166,67	764,00
-15130,53	914,00
-15094,48	853,00
-15058,54	821,00
-15022,68	784,00
-14986,93	761,00
-14951,26	870,00
-14915,69	854,00
-14880,22	734,00
-14844,84	820,00
-14809,55	877,00
-14774,35	902,00
-14739,25	811,00
-14704,24	888,00
-14669,32	778,00
-14634,49	805,00
-14599,75	923,00
-14565,10	741,00
-14530,55	844,00
-14496,08	831,00
-14461,70	887,00
-14427,41	831,00
-14393,21	774,00
-14359,10	834,00
-14325,07	844,00
-14291,14	806,00
-14257,29	848,00
-14223,52	847,00
-14189,85	989,00
-14156,26	835,00
-14122,76	767,00
-14089,34	755,00
-14056,01	880,00
-14022,76	741,00
-13989,60	903,00
-13956,52	905,00
-13923,53	787,00
-13890,62	799,00
-13857,79	839,00
-13825,05	827,00
-13792,39	763,00
-13759,81	901,00
-13727,31	766,00
-13694,90	850,00
-13662,57	998,00
-13630,31	929,00
-13598,14	849,00
-13566,05	790,00
-13534,05	801,00
-13502,12	794,00
-13470,27	866,00
-13438,50	884,00
-13406,80	741,00
-13375,19	806,00
-13343,66	888,00
-13312,20	970,00
-13280,83	781,00
-13249,53	881,00
-13218,30	699,00
-13187,16	808,00
-13156,09	993,00
-13125,10	776,00
-13094,18	888,00
-13063,34	877,00
-13032,58	778,00
-13001,89	840,00
-12971,28	868,00
-12940,74	806,00
-12910,27	893,00
-12879,88	879,00
-12849,57	852,00
-12819,33	922,00
-12789,16	871,00
-12759,06	828,00
-12729,04	776,00
-12699,09	2204,00
-12669,21	818,00
-12639,41	901,00
-12609,68	819,00
-12580,02	765,00
-12550,43	1009,00
-12520,91	725,00
-12491,46	787,00
-12462,08	751,00
-12432,77	882,00
-12403,54	838,00
-12374,37	771,00
-12345,27	937,00
-12316,24	900,00
-12287,29	794,00
-12258,40	840,00
-12229,57	885,00
-12200,82	791,00
-12172,14	823,00
-12143,52	664,00
-12114,97	759,00
-12086,49	813,00
-12058,07	892,00
-12029,73	858,00
-12001,44	904,00
-11973,23	830,00
-11945,08	909,00
-11917,00	908,00
-11888,98	753,00
-11861,03	956,00
-11833,15	852,00
-11805,32	918,00
-11777,57	850,00
-11749,88	911,00
-11722,25	813,00
-11694,69	864,00
-11667,19	783,00
-11639,75	948,00
-11612,38	885,00
-11585,07	814,00
-11557,83	814,00
-11530,65	912,00
-11503,53	713,00
-11476,47	898,00
-11449,48	811,00
-11422,54	862,00
-11395,67	830,00
-11368,86	909,00
-11342,11	696,00
-11315,43	823,00
-11288,80	737,00
-11262,23	808,00
-11235,73	841,00
-11209,28	993,00
-11182,90	879,00
-11156,57	812,00
-11130,31	1031,00
-11104,10	768,00
-11077,96	844,00
-11051,87	828,00
-11025,84	834,00
-10999,87	866,00
-10973,96	842,00
-10948,11	759,00
-10922,31	948,00
-10896,58	916,00
-10870,90	960,00
-10845,28	972,00
-10819,71	721,00
-10794,20	947,00
-10768,75	848,00
-10743,36	908,00
-10718,02	779,00
-10692,74	834,00
-10667,52	832,00
-10642,35	833,00
-10617,24	834,00
-10592,18	876,00
-10567,18	830,00
-10542,23	1023,00
-10517,34	875,00
-10492,51	913,00
-10467,72	921,00
-10443,00	911,00
-10418,32	952,00
-10393,70	972,00
-10369,14	922,00
-10344,63	797,00
-10320,17	918,00
-10295,77	958,00
-10271,42	892,00
-10247,12	979,00
-10222,88	1132,00
-10198,68	944,00
-10174,54	983,00
-10150,46	1137,00
-10126,42	1101,00
-10102,44	973,00
-10078,51	994,00
-10054,63	1150,00
-10030,80	978,00
-10007,03	1169,00
-9983,30	1009,00
-9959,63	1097,00
-9936,01	1236,00
-9912,44	1159,00
-9888,92	1234,00
-9865,44	1142,00
-9842,02	1179,00
-9818,65	1278,00
-9795,33	1053,00
-9772,06	1234,00
-9748,84	1170,00
-9725,67	1287,00
-9702,55	1303,00
-9679,47	1539,00
-9656,45	1650,00
-9633,47	1418,00
-9610,55	1532,00
-9587,67	1732,00
-9564,84	1901,00
-9542,06	1793,00
-9519,32	1960,00
-9496,64	2063,00
-9474,00	2032,00
-9451,41	2167,00
-9428,87	2190,00
-9406,37	2144,00
-9383,92	2187,00
-9361,52	2088,00
-9339,17	2231,00
-9316,86	2343,00
-9294,60	2647,00
-9272,38	2810,00
-9250,21	3223,00
-9228,09	3206,00
-9206,01	3212,00
-9183,98	2869,00
-9162,00	2641,00
-9140,06	2896,00
-9118,16	2695,00
-9096,31	2739,00
-9074,51	2870,00
-9052,75	3094,00
-9031,04	2866,00
-9009,37	2601,00
-8987,74	2567,00
-8966,16	2379,00
-8944,63	2042,00
-8923,14	2181,00
-8901,69	2188,00
-8880,29	2170,00
-8858,93	2480,00
-8837,61	2696,00
-8816,34	2700,00
-8795,11	2881,00
-8773,92	2496,00
-8752,78	2360,00
-8731,68	2211,00
-8710,62	2432,00
-8689,61	2256,00
-8668,63	2379,00
-8647,70	2737,00
-8626,82	2620,00
-8605,97	2614,00
-8585,17	2525,00
-8564,41	2187,00
-8543,69	2186,00
-8523,01	1936,00
-8502,37	2198,00
-8481,78	2184,00
-8461,23	2229,00
-8440,71	2402,00
-8420,24	2543,00
-8399,81	2748,00
-8379,42	2564,00
-8359,08	2568,00
-8338,77	2279,00
-8318,50	2065,00
-8298,27	1909,00
-8278,09	2134,00
-8257,94	2260,00
-8237,83	2435,00
-8217,76	2498,00
-8197,74	2565,00
-8177,75	2500,00
-8157,80	2152,00
-8137,89	2132,00
-8118,02	2084,00
-8098,19	2092,00
-8078,40	2097,00
-8058,65	2122,00
-8038,93	2211,00
-8019,26	2151,00
-7999,62	2292,00
-7980,02	2059,00
-7960,46	1855,00
-7940,94	1885,00
-7921,46	1766,00
-7902,01	1734,00
-7882,60	1940,00
-7863,23	1874,00
-7843,90	1799,00
-7824,61	1894,00
-7805,35	2099,00
-7786,13	2064,00
-7766,95	1980,00
-7747,80	2009,00
-7728,69	1992,00
-7709,62	1858,00
-7690,59	2037,00
-7671,59	1974,00
-7652,63	2057,00
-7633,70	2004,00
-7614,81	2101,00
-7595,96	1892,00
-7577,15	1822,00
-7558,37	1718,00
-7539,62	1750,00
-7520,91	1839,00
-7502,24	1919,00
-7483,60	1971,00
-7465,00	1832,00
-7446,44	1854,00
-7427,91	1435,00
-7409,41	1543,00
-7390,95	1464,00
-7372,53	1453,00
-7354,14	1434,00
-7335,78	1418,00
-7317,46	1546,00
-7299,18	1418,00
-7280,92	1659,00
-7262,71	1919,00
-7244,52	1882,00
-7226,38	1862,00
-7208,26	1845,00
-7190,18	1724,00
-7172,14	1664,00
-7154,12	1666,00
-7136,15	1621,00
-7118,20	1931,00
-7100,29	1854,00
-7082,41	1829,00
-7064,57	1847,00
-7046,76	1715,00
-7028,98	1417,00
-7011,24	1481,00
-6993,53	1260,00
-6975,85	1279,00
-6958,20	1173,00
-6940,59	1152,00
-6923,01	1149,00
-6905,46	1393,00
-6887,94	1370,00
-6870,46	1863,00
-6853,01	1796,00
-6835,59	1639,00
-6818,21	1482,00
-6800,85	1613,00
-6783,53	1277,00
-6766,24	1115,00
-6748,98	1127,00
-6731,76	1112,00
-6714,56	951,00
-6697,40	968,00
-6680,26	971,00
-6663,16	1092,00
-6646,09	1384,00
-6629,05	1390,00
-6612,05	1454,00
-6595,07	1388,00
-6578,13	1441,00
-6561,21	1273,00
-6544,33	1220,00
-6527,47	978,00
-6510,65	957,00
-6493,86	843,00
-6477,10	949,00
-6460,36	1120,00
-6443,66	978,00
-6426,99	1026,00
-6410,35	1036,00
-6393,74	1134,00
-6377,16	1037,00
-6360,61	1174,00
-6344,09	1084,00
-6327,59	1146,00
-6311,13	1221,00
-6294,70	1232,00
-6278,29	1305,00
-6261,92	1228,00
-6245,58	1410,00
-6229,26	1487,00
-6212,97	1407,00
-6196,72	1072,00
-6180,49	1150,00
-6164,29	825,00
-6148,12	1031,00
-6131,98	981,00
-6115,86	857,00
-6099,78	848,00
-6083,72	840,00
-6067,69	803,00
-6051,69	865,00
-6035,72	877,00
-6019,78	946,00
-6003,87	1147,00
-5987,98	1221,00
-5972,12	1119,00
-5956,29	1075,00
-5940,49	904,00
-5924,71	1221,00
-5908,96	985,00
-5893,24	970,00
-5877,55	889,00
-5861,89	1009,00
-5846,25	877,00
-5830,64	914,00
-5815,05	878,00
-5799,50	963,00
-5783,97	880,00
-5768,47	1049,00
-5752,99	1268,00
-5737,55	1024,00
-5722,12	1185,00
-5706,73	1141,00
-5691,36	1142,00
-5676,02	981,00
-5660,71	953,00
-5645,42	942,00
-5630,16	996,00
-5614,92	1044,00
-5599,71	1039,00
-5584,53	1047,00
-5569,37	988,00
-5554,24	1302,00
-5539,14	881,00
-5524,06	1101,00
-5509,01	935,00
-5493,98	976,00
-5478,98	1057,00
-5464,00	954,00
-5449,05	913,00
-5434,13	936,00
-5419,23	963,00
-5404,36	915,00
-5389,51	991,00
-5374,69	1065,00
-5359,89	1220,00
-5345,12	1314,00
-5330,37	1214,00
-5315,65	1169,00
-5300,95	1122,00
-5286,28	984,00
-5271,63	923,00
-5257,01	919,00
-5242,41	987,00
-5227,84	884,00
-5213,29	952,00
-5198,76	853,00
-5184,26	919,00
-5169,79	931,00
-5155,33	982,00
-5140,91	1010,00
-5126,51	1065,00
-5112,13	1072,00
-5097,77	1000,00
-5083,44	1096,00
-5069,13	882,00
-5054,85	944,00
-5040,59	1010,00
-5026,36	972,00
-5012,15	1083,00
-4997,96	1046,00
-4983,80	1017,00
-4969,66	953,00
-4955,54	863,00
-4941,44	1016,00
-4927,37	1003,00
-4913,33	1181,00
-4899,30	1142,00
-4885,30	1203,00
-4871,33	1047,00
-4857,37	927,00
-4843,44	844,00
-4829,53	949,00
-4815,65	1036,00
-4801,79	902,00
-4787,95	971,00
-4774,13	810,00
-4760,34	804,00
-4746,56	1056,00
-4732,82	885,00
-4719,09	962,00
-4705,38	1217,00
-4691,70	1273,00
-4678,04	1232,00
-4664,41	1073,00
-4650,79	1164,00
-4637,20	949,00
-4623,63	813,00
-4610,08	1064,00
-4596,56	995,00
-4583,05	944,00
-4569,57	886,00
-4556,11	1041,00
-4542,67	870,00
-4529,25	924,00
-4515,86	953,00
-4502,49	1116,00
-4489,13	1121,00
-4475,80	1130,00
-4462,49	951,00
-4449,21	1016,00
-4435,94	840,00
-4422,70	842,00
-4409,47	825,00
-4396,27	998,00
-4383,09	887,00
-4369,93	922,00
-4356,79	795,00
-4343,67	878,00
-4330,58	961,00
-4317,50	953,00
-4304,45	950,00
-4291,41	916,00
-4278,40	826,00
-4265,41	832,00
-4252,44	921,00
-4239,49	924,00
-4226,55	1034,00
-4213,65	888,00
-4200,76	1028,00
-4187,89	907,00
-4175,04	848,00
-4162,21	849,00
-4149,40	936,00
-4136,61	860,00
-4123,85	866,00
-4111,10	873,00
-4098,37	954,00
-4085,66	889,00
-4072,98	873,00
-4060,31	855,00
-4047,66	975,00
-4035,04	1072,00
-4022,43	952,00
-4009,84	852,00
-3997,27	702,00
-3984,72	806,00
-3972,19	949,00
-3959,69	777,00
-3947,20	787,00
-3934,73	851,00
-3922,27	721,00
-3909,84	814,00
-3897,43	910,00
-3885,04	933,00
-3872,67	842,00
-3860,31	741,00
-3847,98	976,00
-3835,66	858,00
-3823,36	834,00
-3811,09	820,00
-3798,83	868,00
-3786,59	820,00
-3774,37	916,00
-3762,17	729,00
-3749,98	769,00
-3737,82	775,00
-3725,67	1113,00
-3713,55	752,00
-3701,44	907,00
-3689,35	842,00
-3677,28	951,00
-3665,22	824,00
-3653,19	859,00
-3641,17	875,00
-3629,18	880,00
-3617,20	917,00
-3605,24	945,00
-3593,30	891,00
-3581,37	872,00
-3569,47	902,00
-3557,58	811,00
-3545,71	898,00
-3533,86	964,00
-3522,02	858,00
-3510,21	883,00
-3498,41	825,00
-3486,63	924,00
-3474,87	821,00
-3463,12	876,00
-3451,40	901,00
-3439,69	816,00
-3428,00	798,00
-3416,33	946,00
-3404,67	819,00
-3393,03	832,00
-3381,41	926,00
-3369,81	969,00
-3358,22	955,00
-3346,66	928,00
-3335,10	829,00
-3323,57	866,00
-3312,06	929,00
-3300,56	958,00
-3289,08	844,00
-3277,61	878,00
-3266,16	835,00
-3254,73	737,00
-3243,32	871,00
-3231,92	781,00
-3220,55	904,00
-3209,18	1008,00
-3197,84	815,00
-3186,51	842,00
-3175,20	804,00
-3163,90	790,00
-3152,63	887,00
-3141,36	780,00
-3130,12	889,00
-3118,89	936,00
-3107,68	839,00
-3096,49	984,00
-3085,31	870,00
-3074,15	887,00
-3063,00	1009,00
-3051,87	933,00
-3040,76	822,00
-3029,67	1014,00
-3018,59	1067,00
-3007,52	919,00
-2996,48	863,00
-2985,44	852,00
-2974,43	856,00
-2963,43	824,00
-2952,45	812,00
-2941,48	890,00
-2930,53	882,00
-2919,60	708,00
-2908,68	829,00
-2897,78	837,00
-2886,89	898,00
-2876,02	893,00
-2865,17	821,00
-2854,33	819,00
-2843,50	883,00
-2832,70	902,00
-2821,90	806,00
-2811,13	925,00
-2800,37	879,00
-2789,62	813,00
-2778,89	835,00
-2768,18	926,00
-2757,48	913,00
-2746,80	956,00
-2736,13	876,00
-2725,48	929,00
-2714,84	796,00
-2704,22	808,00
-2693,61	889,00
-2683,02	913,00
-2672,45	838,00
-2661,89	888,00
-2651,34	912,00
-2640,81	897,00
-2630,30	1016,00
-2619,80	802,00
-2609,31	943,00
-2598,84	822,00
-2588,39	889,00
-2577,95	783,00
-2567,52	763,00
-2557,11	813,00
-2546,71	867,00
-2536,33	864,00
-2525,97	789,00
-2515,62	835,00
-2505,28	922,00
-2494,96	881,00
-2484,65	916,00
-2474,36	1163,00
-2464,08	823,00
-2453,82	969,00
-2443,57	925,00
-2433,33	831,00
-2423,11	908,00
-2412,91	963,00
-2402,72	783,00
-2392,54	846,00
-2382,38	864,00
-2372,23	945,00
-2362,09	-1813,00
-2351,97	843,00
-2341,87	710,00
-2331,78	853,00
-2321,70	916,00
-2311,64	864,00
-2301,59	816,00
-2291,55	798,00
-2281,53	930,00
-2271,53	744,00
-2261,53	922,00
-2251,55	865,00
-2241,59	909,00
-2231,64	900,00
-2221,70	807,00
-2211,78	840,00
-2201,87	907,00
-2191,97	838,00
-2182,09	874,00
-2172,22	859,00
-2162,37	809,00
-2152,53	761,00
-2142,70	840,00
-2132,89	829,00
-2123,09	957,00
-2113,30	876,00
-2103,53	856,00
-2093,77	857,00
-2084,02	865,00
-2074,29	934,00
-2064,57	843,00
-2054,86	863,00
-2045,17	995,00
-2035,49	878,00
-2025,82	742,00
-2016,17	774,00
-2006,53	816,00
-1996,91	938,00
-1987,29	770,00
-1977,69	867,00
-1968,11	768,00
-1958,53	831,00
-1948,97	825,00
-1939,42	853,00
-1929,89	792,00
-1920,37	883,00
-1910,86	803,00
-1901,36	842,00
-1891,88	912,00
-1882,41	841,00
-1872,95	900,00
-1863,51	896,00
-1854,08	876,00
-1844,66	888,00
-1835,26	963,00
-1825,86	915,00
-1816,48	832,00
-1807,11	999,00
-1797,76	928,00
-1788,42	965,00
-1779,09	938,00
-1769,77	879,00
-1760,47	971,00
-1751,17	849,00
-1741,89	756,00
-1732,63	875,00
-1723,37	1043,00
-1714,13	973,00
-1704,90	868,00
-1695,68	974,00
-1686,48	767,00
-1677,29	874,00
-1668,11	1058,00
-1658,94	802,00
-1649,78	871,00
-1640,64	920,00
-1631,51	915,00
-1622,39	915,00
-1613,28	907,00
-1604,19	918,00
-1595,10	844,00
-1586,03	878,00
-1576,97	926,00
-1567,93	826,00
-1558,89	883,00
-1549,87	942,00
-1540,86	808,00
-1531,86	857,00
-1522,87	824,00
-1513,90	951,00
-1504,93	961,00
-1495,98	941,00
-1487,04	1000,00
-1478,12	776,00
-1469,20	800,00
-1460,30	925,00
-1451,40	1089,00
-1442,52	862,00
-1433,65	951,00
-1424,80	933,00
-1415,95	824,00
-1407,12	982,00
-1398,30	860,00
-1389,48	901,00
-1380,69	774,00
-1371,90	849,00
-1363,12	959,00
-1354,36	1022,00
-1345,60	829,00
-1336,86	953,00
-1328,13	984,00
-1319,41	852,00
-1310,70	837,00
-1302,01	787,00
-1293,32	867,00
-1284,65	868,00
-1275,99	939,00
-1267,33	1005,00
-1258,69	937,00
-1250,06	848,00
-1241,45	801,00
-1232,84	927,00
-1224,25	888,00
-1215,66	894,00
-1207,09	909,00
-1198,53	870,00
-1189,97	842,00
-1181,43	845,00
-1172,91	817,00
-1164,39	1025,00
-1155,88	789,00
-1147,38	751,00
-1138,90	951,00
-1130,43	787,00
-1121,96	890,00
-1113,51	878,00
-1105,07	955,00
-1096,64	959,00
-1088,22	970,00
-1079,81	984,00
-1071,41	1065,00
-1063,02	845,00
-1054,65	927,00
-1046,28	801,00
-1037,92	919,00
-1029,58	937,00
-1021,24	945,00
-1012,92	1133,00
-1004,61	827,00
-996,30	1159,00
-988,01	780,00
-979,73	903,00
-971,46	932,00
-963,20	837,00
-954,95	765,00
-946,71	778,00
-938,48	958,00
-930,26	939,00
-922,06	876,00
-913,86	852,00
-905,67	813,00
-897,49	966,00
-889,33	716,00
-881,17	957,00
-873,02	882,00
-864,89	773,00
-856,76	848,00
-848,65	899,00
-840,54	918,00
-832,45	936,00
-824,36	771,00
-816,29	855,00
-808,22	865,00
-800,17	1003,00
-792,12	855,00
-784,09	968,00
-776,06	698,00
-768,05	858,00
-760,04	835,00
-752,05	816,00
-744,07	847,00
-736,09	1021,00
-728,13	690,00
-720,17	920,00
-712,23	882,00
-704,29	793,00
-696,37	884,00
-688,45	982,00
-680,55	876,00
-672,65	857,00
-664,77	917,00
-656,89	809,00
-649,03	832,00
-641,17	1003,00
-633,32	906,00
-625,49	906,00
-617,66	843,00
-609,84	935,00
-602,03	803,00
-594,23	869,00
-586,45	973,00
-578,67	761,00
-570,90	854,00
-563,14	836,00
-555,39	877,00
-547,65	884,00
-539,91	900,00
-532,19	930,00
-524,48	955,00
-516,78	820,00
-509,08	980,00
-501,40	826,00
-493,72	916,00
-486,06	755,00
-478,40	908,00
-470,76	810,00
-463,12	874,00
-455,49	780,00
-447,87	811,00
-440,26	850,00
-432,66	828,00
-425,07	919,00
-417,49	958,00
-409,92	733,00
-402,35	821,00
-394,80	728,00
-387,25	791,00
-379,72	912,00
-372,19	911,00
-364,67	998,00
-357,17	820,00
-349,67	912,00
-342,18	906,00
-334,69	892,00
-327,22	842,00
-319,76	812,00
-312,30	927,00
-304,86	837,00
-297,42	885,00
-290,00	870,00
-282,58	979,00
-275,17	887,00
-267,77	1054,00
-260,37	963,00
-252,99	992,00
-245,62	996,00
-238,25	934,00
-230,90	772,00
-223,55	1069,00
-216,21	956,00
-208,88	1101,00
-201,56	994,00
-194,25	1036,00
-186,94	1074,00
-179,65	1010,00
-172,36	1076,00
-165,08	1074,00
-157,81	1097,00
-150,55	1144,00
-143,30	1196,00
-136,06	1276,00
-128,82	1294,00
-121,60	1238,00
-114,38	1357,00
-107,17	1524,00
-99,97	1755,00
-92,78	1688,00
-85,60	1743,00
-78,42	2017,00
-71,25	2152,00
-64,10	2376,00
-56,95	2619,00
-49,81	2840,00
-42,67	3542,00
-35,55	3979,00
-28,43	5220,00
-21,33	7899,00
-14,23	24673,00
-7,14	57498,00
-0,05	57284,00
7,02	57012,00
14,09	57319,00
21,14	20962,00
28,19	9249,00
35,23	6132,00
42,27	5009,00
49,29	4182,00
56,31	3621,00
63,32	3293,00
70,32	2812,00
77,31	2558,00
84,29	2300,00
91,27	2257,00
98,23	2145,00
105,19	1966,00
112,14	2212,00
119,09	3141,00
126,02	4759,00
132,95	5481,00
139,87	5692,00
146,78	5871,00
153,68	5645,00
160,58	5503,00
167,46	5430,00
174,34	5573,00
181,21	5442,00
188,08	5469,00
194,93	5439,00
201,78	5492,00
208,62	5396,00
215,45	5487,00
222,27	5593,00
229,09	5644,00
235,90	5164,00
242,70	5258,00
249,49	5383,00
256,27	5127,00
263,05	5232,00
269,82	5093,00
276,58	5078,00
283,33	4916,00
290,08	4956,00
296,82	4875,00
303,55	4741,00
310,27	4758,00
316,98	4829,00
323,69	4752,00
330,39	4733,00
337,08	4711,00
343,76	4672,00
350,44	4736,00
357,11	4755,00
363,77	4672,00
370,42	4615,00
377,07	4610,00
383,71	4615,00
390,34	4635,00
396,96	4576,00
403,58	4547,00
410,19	4809,00
416,79	4832,00
423,38	4941,00
429,97	4868,00
436,55	4793,00
443,12	4983,00
449,68	4971,00
456,24	4760,00
462,79	4780,00
469,33	4479,00
475,86	4327,00
482,39	4255,00
488,91	4332,00
495,42	4220,00
501,93	4228,00
508,42	4066,00
514,91	4222,00
521,40	4060,00
527,87	4140,00
534,34	4028,00
540,80	4079,00
547,25	4013,00
553,70	3992,00
560,14	3973,00
566,57	4065,00
573,00	4063,00
579,41	4159,00
585,83	4149,00
592,23	4145,00
598,62	4179,00
605,01	4164,00
611,40	4326,00
617,77	4376,00
624,14	4196,00
630,50	4012,00
636,85	3845,00
643,20	3920,00
649,54	3622,00
655,87	3758,00
662,20	3665,00
668,52	3636,00
674,83	3709,00
681,13	3525,00
687,43	3683,00
693,72	3512,00
700,00	3477,00
706,28	3517,00
712,55	3536,00
718,81	3607,00
725,07	3435,00
731,32	3617,00
737,56	3458,00
743,79	3458,00
750,02	3545,00
756,24	3315,00
762,46	3391,00
768,67	3722,00
774,87	3345,00
781,06	3330,00
787,25	3436,00
793,43	3347,00
799,60	3435,00
805,77	3529,00
811,93	3343,00
818,08	3450,00
824,23	3383,00
830,37	3578,00
836,50	3388,00
842,63	3396,00
848,75	3377,00
854,87	3349,00
860,97	3455,00
867,07	3336,00
873,17	3371,00
879,25	3365,00
885,33	3400,00
891,41	3491,00
897,47	3442,00
903,53	3282,00
909,59	3420,00
915,63	3289,00
921,67	3362,00
927,71	3182,00
933,74	3234,00
939,76	3026,00
945,77	3071,00
951,78	3264,00
957,78	3036,00
963,78	3199,00
969,77	3168,00
975,75	3025,00
981,72	3026,00
987,69	4464,00
993,66	3179,00
999,61	3141,00
1005,56	3188,00
1011,51	3116,00
1017,44	3077,00
1023,37	3209,00
1029,30	3037,00
1035,22	3256,00
1041,13	3244,00
1047,03	3458,00
1052,93	3914,00
1058,83	5108,00
1064,71	5718,00
1070,59	4828,00
1076,47	4062,00
1082,33	3847,00
1088,20	3693,00
1094,05	3424,00
1099,90	3230,00
1105,74	3266,00
1111,58	3361,00
1117,41	3571,00
1123,23	4401,00
1129,05	5279,00
1134,86	4809,00
1140,67	3942,00
1146,47	3375,00
1152,26	3260,00
1158,05	3123,00
1163,83	3266,00
1169,60	3336,00
1175,37	3236,00
1181,13	2995,00
1186,89	3004,00
1192,64	3002,00
1198,38	3154,00
1204,12	2966,00
1209,85	2902,00
1215,58	2923,00
1221,30	2930,00
1227,02	2949,00
1232,72	2902,00
1238,43	2805,00
1244,12	2909,00
1249,81	2908,00
1255,50	3087,00
1261,17	3034,00
1266,85	3119,00
1272,51	3171,00
1278,17	3365,00
1283,83	3557,00
1289,47	5055,00
1295,12	6350,00
1300,75	5947,00
1306,38	4582,00
1312,01	3988,00
1317,63	3419,00
1323,24	3225,00
1328,85	3203,00
1334,45	2894,00
1340,04	2992,00
1345,63	2922,00
1351,22	3131,00
1356,80	3048,00
1362,37	3127,00
1367,93	3107,00
1373,49	3195,00
1379,05	3061,00
1384,60	2908,00
1390,14	3023,00
1395,68	3027,00
1401,21	3039,00
1406,74	3311,00
1412,26	3843,00
1417,77	4472,00
1423,28	4161,00
1428,78	4668,00
1434,28	5636,00
1439,77	6433,00
1445,26	6279,00
1450,74	5859,00
1456,22	5522,00
1461,68	5395,00
1467,15	5077,00
1472,61	4385,00
1478,06	4000,00
1483,51	3470,00
1488,95	3071,00
1494,38	3047,00
1499,81	2810,00
1505,24	2744,00
1510,65	2759,00
1516,07	2772,00
1521,48	2701,00
1526,88	2577,00
1532,27	2624,00
1537,67	2676,00
1543,05	2678,00
1548,43	2585,00
1553,81	2683,00
1559,18	2407,00
1564,54	2514,00
1569,90	2479,00
1575,25	2376,00
1580,60	2294,00
1585,94	2528,00
1591,28	2421,00
1596,61	2408,00
1601,93	2392,00
1607,25	2453,00
1612,57	2391,00
1617,88	2429,00
1623,18	2427,00
1628,48	2384,00
1633,77	2370,00
1639,06	2374,00
1644,34	2391,00
1649,62	2248,00
1654,89	2278,00
1660,16	2216,00
1665,42	2405,00
1670,67	2302,00
1675,92	2233,00
1681,17	2138,00
1686,41	2202,00
1691,64	2301,00
1696,87	2277,00
1702,10	2175,00
1707,32	2235,00
1712,53	2170,00
1717,74	2118,00
1722,94	2295,00
1728,14	2186,00
1733,33	2129,00
1738,52	1984,00
1743,70	2147,00
1748,88	2155,00
1754,05	2117,00
1759,22	2024,00
1764,38	2441,00
1769,53	2040,00
1774,69	2220,00
1779,83	1980,00
1784,97	1953,00
1790,11	1993,00
1795,24	2020,00
1800,36	2053,00
1805,48	2035,00
1810,60	2032,00
1815,71	1992,00
1820,82	1900,00
1825,92	2096,00
1831,01	2010,00
1836,10	1934,00
1841,19	1963,00
1846,26	1812,00
1851,34	2004,00
1856,41	1991,00
1861,47	1877,00
1866,53	1994,00
1871,59	1867,00
1876,64	2087,00
1881,68	1882,00
1886,72	1909,00
1891,76	1884,00
1896,79	1866,00
1901,81	1720,00
1906,83	1928,00
1911,85	1803,00
1916,86	1793,00
1921,86	1707,00
1926,86	1722,00
1931,86	1845,00
1936,85	1764,00
1941,83	1684,00
1946,81	1682,00
1951,79	1634,00
1956,76	1761,00
1961,72	1582,00
1966,68	1743,00
1971,64	1728,00
1976,59	1753,00
1981,54	1653,00
1986,48	1704,00
1991,42	1556,00
1996,35	1933,00
2001,27	1617,00
2006,20	1584,00
2011,11	1740,00
2016,03	1702,00
2020,93	1534,00
2025,84	1646,00
2030,73	1550,00
2035,63	1543,00
2040,52	1613,00
2045,40	1661,00
2050,28	1656,00
2055,15	1607,00
2060,02	1431,00
2064,89	1630,00
2069,75	1613,00
2074,60	1536,00
2079,46	1495,00
2084,30	1526,00
2089,14	1444,00
2093,98	1617,00
2098,81	1496,00
2103,64	1552,00
2108,46	1589,00
2113,28	1646,00
2118,09	1587,00
2122,90	1602,00
2127,70	1459,00
2132,50	1564,00
2137,30	1552,00
2142,09	1437,00
2146,87	1488,00
2151,66	1535,00
2156,43	1513,00
2161,20	1572,00
2165,97	1568,00
2170,73	1482,00
2175,49	1633,00
2180,24	1596,00
2184,99	1698,00
2189,74	1633,00
2194,48	1566,00
2199,21	1576,00
2203,94	1493,00
2208,67	1450,00
2213,39	1339,00
2218,11	1512,00
2222,82	1437,00
2227,53	1448,00
2232,23	1439,00
2236,93	1481,00
2241,63	1439,00
2246,32	1517,00
2251,00	1487,00
2255,68	1508,00
2260,36	1437,00
2265,03	1507,00
2269,70	1566,00
2274,36	1392,00
2279,02	1522,00
2283,68	1423,00
2288,33	1454,00
2292,97	1416,00
2297,61	1405,00
2302,25	1412,00
2306,88	1368,00
2311,51	1282,00
2316,14	1412,00
2320,75	1275,00
2325,37	1298,00
2329,98	1423,00
2334,59	1292,00
2339,19	1310,00
2343,79	1240,00
2348,38	1333,00
2352,97	1298,00
2357,55	1443,00
2362,13	1292,00
2366,71	1279,00
2371,28	1395,00
2375,85	1286,00
2380,41	1364,00
2384,97	1266,00
2389,52	1315,00
2394,07	1402,00
2398,62	1267,00
2403,16	1394,00
2407,70	1145,00
2412,23	1265,00
2416,76	1314,00
2421,29	1328,00
2425,81	1429,00
2430,32	1371,00
2434,84	1321,00
2439,34	1189,00
2443,85	1477,00
2448,35	1230,00
2452,84	1220,00
2457,33	1400,00
2461,82	1180,00
2466,30	1322,00
2470,78	1300,00
2475,25	1203,00
2479,72	1261,00
2484,19	1281,00
2488,65	1361,00
2493,11	1199,00
2497,56	1412,00
2502,01	1166,00
2506,46	1301,00
2510,90	1121,00
2515,34	1227,00
2519,77	1215,00
2524,20	1180,00
2528,62	1288,00
2533,04	1292,00
2537,46	1170,00
2541,87	1274,00
2546,28	1223,00
2550,68	1296,00
2555,08	1294,00
2559,48	1282,00
2563,87	1090,00
2568,26	1162,00
2572,64	1301,00
2577,02	1313,00
2581,40	1098,00
2585,77	1336,00
2590,14	1216,00
2594,50	1227,00
2598,86	1335,00
2603,22	1258,00
2607,57	1165,00
2611,92	1332,00
2616,26	1418,00
2620,60	1355,00
2624,94	1277,00
2629,27	1371,00
2633,60	1156,00
2637,92	1418,00
2642,24	1341,00
2646,56	1271,00
2650,87	1191,00
2655,18	1321,00
2659,48	1190,00
2663,78	1145,00
2668,08	1283,00
2672,37	1285,00
2676,66	1294,00
2680,95	1210,00
2685,23	1354,00
2689,50	1284,00
2693,78	1348,00
2698,05	1352,00
2702,31	1405,00
2706,57	1509,00
2710,83	1545,00
2715,08	1661,00
2719,33	1627,00
2723,58	1548,00
2727,82	1637,00
2732,06	1521,00
2736,29	1487,00
2740,53	1382,00
2744,75	1402,00
2748,97	1411,00
2753,19	1439,00
2757,41	1452,00
2761,62	1511,00
2765,83	1452,00
2770,03	1299,00
2774,23	1429,00
2778,43	1354,00
2782,62	1422,00
2786,81	1401,00
2791,00	1514,00
2795,18	1536,00
2799,35	1547,00
2803,53	1531,00
2807,70	1674,00
2811,86	1680,00
2816,03	1794,00
2820,19	1827,00
2824,34	1872,00
2828,49	1991,00
2832,64	2302,00
2836,78	2711,00
2840,92	2994,00
2845,06	3699,00
2849,19	4096,00
2853,32	4243,00
2857,45	4218,00
2861,57	4095,00
2865,69	3948,00
2869,80	3913,00
2873,91	4043,00
2878,02	4505,00
2882,12	4917,00
2886,22	4864,00
2890,32	4616,00
2894,41	4323,00
2898,50	4045,00
2902,58	3773,00
2906,67	3491,00
2910,74	3211,00
2914,82	2929,00
2918,89	2967,00
2922,96	2531,00
2927,02	2533,00
2931,08	2412,00
2935,13	2220,00
2939,19	2164,00
2943,24	2045,00
2947,28	2003,00
2951,32	1729,00
2955,36	1670,00
2959,40	1761,00
2963,43	1643,00
2967,46	1418,00
2971,48	1355,00
2975,50	1374,00
2979,52	1446,00
2983,53	1413,00
2987,54	1251,00
2991,55	1322,00
2995,55	1257,00
2999,55	1152,00
3003,54	1140,00
3007,54	1313,00
3011,53	1209,00
3015,51	1145,00
3019,49	1152,00
3023,47	1045,00
3027,45	1115,00
3031,42	1079,00
3035,39	1030,00
3039,35	1037,00
3043,31	1117,00
3047,27	1025,00
3051,22	1129,00
3055,17	1004,00
3059,12	956,00
3063,06	1064,00
3067,00	941,00
3070,94	1010,00
3074,87	1094,00
3078,80	1025,00
3082,73	999,00
3086,65	1014,00
3090,57	947,00
3094,49	962,00
3098,40	964,00
3102,31	928,00
3106,22	977,00
3110,12	949,00
3114,02	898,00
3117,92	984,00
3121,81	972,00
3125,70	924,00
3129,58	884,00
3133,47	941,00
3137,34	1047,00
3141,22	932,00
3145,09	986,00
3148,96	900,00
3152,83	1013,00
3156,69	987,00
3160,55	909,00
3164,40	913,00
3168,26	970,00
3172,10	1008,00
3175,95	1006,00
3179,79	897,00
3183,63	952,00
3187,47	909,00
3191,30	953,00
3195,13	955,00
3198,95	850,00
3202,78	972,00
3206,60	873,00
3210,41	920,00
3214,23	876,00
3218,03	984,00
3221,84	947,00
3225,64	937,00
3229,44	940,00
3233,24	882,00
3237,03	974,00
3240,82	867,00
3244,61	851,00
3248,39	919,00
3252,17	894,00
3255,95	962,00
3259,72	996,00
3263,49	1138,00
3267,26	886,00
3271,03	890,00
3274,79	837,00
3278,54	936,00
3282,30	740,00
3286,05	973,00
3289,80	923,00
3293,54	850,00
3297,29	942,00
3301,02	882,00
3304,76	910,00
3308,49	1004,00
3312,22	798,00
3315,95	992,00
3319,67	845,00
3323,39	1006,00
3327,10	949,00
3330,82	862,00
3334,53	919,00
3338,24	931,00
3341,94	877,00
3345,64	923,00
3349,34	912,00
3353,03	993,00
3356,72	900,00
3360,41	993,00
3364,10	852,00
3367,78	882,00
3371,46	792,00
3375,13	940,00
3378,81	1000,00
3382,48	910,00
3386,14	929,00
3389,81	966,00
3393,47	840,00
3397,12	1038,00
3400,78	960,00
3404,43	874,00
3408,08	925,00
3411,72	847,00
3415,36	846,00
3419,00	901,00
3422,64	787,00
3426,27	902,00
3429,90	888,00
3433,53	905,00
3437,15	824,00
3440,77	770,00
3444,39	868,00
3448,00	855,00
3451,62	897,00
3455,22	916,00
3458,83	825,00
3462,43	887,00
3466,03	911,00
3469,63	850,00
3473,22	834,00
3476,81	807,00
3480,40	989,00
3483,99	828,00
3487,57	819,00
3491,15	850,00
3494,72	896,00
3498,29	922,00
3501,86	793,00
3505,43	833,00
3508,99	747,00
3512,56	736,00
3516,11	887,00
3519,67	812,00
3523,22	944,00
3526,77	810,00
3530,32	1044,00
3533,86	941,00
3537,40	984,00
3540,94	863,00
3544,47	830,00
3548,00	806,00
3551,53	867,00
3555,06	782,00
3558,58	949,00
3562,10	912,00
3565,62	780,00
3569,13	886,00
3572,64	957,00
3576,15	721,00
3579,66	794,00
3583,16	811,00
3586,66	862,00
3590,16	783,00
3593,65	791,00
3597,14	668,00
3600,63	797,00
3604,11	871,00
3607,60	769,00
3611,08	816,00
3614,55	909,00
3618,03	793,00
3621,50	738,00
3624,97	762,00
3628,43	823,00
3631,90	836,00
3635,36	687,00
3638,81	806,00
3642,27	816,00
3645,72	839,00
3649,17	694,00
3652,61	808,00
3656,06	695,00
3659,50	798,00
3662,93	767,00
3666,37	916,00
3669,80	1025,00
3673,23	868,00
3676,65	874,00
3680,08	910,00
3683,50	704,00
3686,92	805,00
3690,33	773,00
3693,74	718,00
3697,15	742,00
3700,56	928,00
3703,96	812,00
3707,36	671,00
3710,76	692,00
3714,16	761,00
3717,55	745,00
3720,94	733,00
3724,33	670,00
3727,71	864,00
3731,10	781,00
3734,48	811,00
3737,85	713,00
3741,23	705,00
3744,60	776,00
3747,97	652,00
3751,33	845,00
3754,69	652,00
3758,05	792,00
3761,41	685,00
3764,77	718,00
3768,12	705,00
3771,47	664,00
3774,82	749,00
3778,16	-10,00
3781,50	10,00
3784,84	2,00
3788,18	10,00
>>>>>End Processed Spectral Data<<<<<
