SpectraSuite Data File
++++++++++++++++++++++++++++++++++++
Date: Mon Jan 05 16:32:55 ICT 2026
User: Administrator
Dark Spectrum Present: Yes
Reference Spectrum Present: No
Number of Sampled Component Spectra: 1
Spectrometers: MAYP113682
Integration Time (usec): 3000000 (MAYP113682)
Spectra Averaged: 1 (MAYP113682)
Boxcar Smoothing: 0 (MAYP113682)
Correct for Electrical Dark: No (MAYP113682)
Strobe/Lamp Enabled: No (MAYP113682)
Correct for Detector Non-linearity: No (MAYP113682)
Correct for Stray Light: No (MAYP113682)
Number of Pixels in Processed Spectrum: 2068
>>>>>Begin Processed Spectral Data<<<<<
-37534,58	28,00
-37414,56	6,00
-37295,11	2,00
-37176,24	4,00
-37057,95	592,00
-36940,22	642,00
-36823,05	675,00
-36706,45	813,00
-36590,40	773,00
-36474,90	718,00
-36359,95	799,00
-36245,55	745,00
-36131,68	682,00
-36018,35	713,00
-35905,55	736,00
-35793,29	860,00
-35681,54	729,00
-35570,32	776,00
-35459,62	807,00
-35349,43	812,00
-35239,75	868,00
-35130,58	767,00
-35021,91	830,00
-34913,74	764,00
-34806,07	903,00
-34698,89	846,00
-34592,20	780,00
-34486,00	806,00
-34380,28	853,00
-34275,04	727,00
-34170,27	735,00
-34065,98	898,00
-33962,16	815,00
-33858,81	926,00
-33755,92	788,00
-33653,49	942,00
-33551,52	922,00
-33450,01	871,00
-33348,94	839,00
-33248,33	808,00
-33148,16	786,00
-33048,43	791,00
-32949,14	981,00
-32850,29	882,00
-32751,87	767,00
-32653,89	855,00
-32556,33	936,00
-32459,20	814,00
-32362,49	799,00
-32266,19	787,00
-32170,32	725,00
-32074,86	932,00
-31979,82	942,00
-31885,18	892,00
-31790,95	869,00
-31697,12	948,00
-31603,69	893,00
-31510,67	940,00
-31418,04	903,00
-31325,80	813,00
-31233,95	803,00
-31142,49	846,00
-31051,42	889,00
-30960,73	981,00
-30870,43	1043,00
-30780,50	959,00
-30690,95	885,00
-30601,77	1042,00
-30512,97	801,00
-30424,53	883,00
-30336,46	885,00
-30248,76	834,00
-30161,42	962,00
-30074,44	892,00
-29987,81	912,00
-29901,55	967,00
-29815,63	821,00
-29730,07	952,00
-29644,86	914,00
-29560,00	871,00
-29475,48	905,00
-29391,30	872,00
-29307,47	888,00
-29223,97	837,00
-29140,81	942,00
-29057,99	909,00
-28975,50	777,00
-28893,34	991,00
-28811,51	796,00
-28730,00	885,00
-28648,82	808,00
-28567,97	941,00
-28487,43	842,00
-28407,21	825,00
-28327,32	767,00
-28247,73	1136,00
-28168,46	790,00
-28089,50	949,00
-28010,85	797,00
-27932,51	810,00
-27854,48	905,00
-27776,75	806,00
-27699,32	865,00
-27622,19	832,00
-27545,37	911,00
-27468,84	948,00
-27392,60	908,00
-27316,66	872,00
-27241,01	845,00
-27165,66	794,00
-27090,59	745,00
-27015,81	932,00
-26941,31	906,00
-26867,10	852,00
-26793,17	913,00
-26719,52	890,00
-26646,15	817,00
-26573,06	843,00
-26500,24	904,00
-26427,70	887,00
-26355,43	747,00
-26283,43	896,00
-26211,71	876,00
-26140,25	836,00
-26069,06	917,00
-25998,13	717,00
-25927,46	848,00
-25857,06	733,00
-25786,92	897,00
-25717,04	744,00
-25647,42	919,00
-25578,05	757,00
-25508,94	806,00
-25440,09	882,00
-25371,48	895,00
-25303,13	867,00
-25235,02	901,00
-25167,17	890,00
-25099,56	779,00
-25032,19	871,00
-24965,07	789,00
-24898,20	761,00
-24831,56	817,00
-24765,17	780,00
-24699,01	853,00
-24633,10	876,00
-24567,41	886,00
-24501,97	841,00
-24436,75	838,00
-24371,77	819,00
-24307,03	824,00
-24242,51	805,00
-24178,22	739,00
-24114,16	893,00
-24050,32	915,00
-23986,71	859,00
-23923,32	882,00
-23860,16	788,00
-23797,22	856,00
-23734,50	802,00
-23672,00	787,00
-23609,71	855,00
-23547,65	831,00
-23485,80	933,00
-23424,16	767,00
-23362,74	978,00
-23301,53	855,00
-23240,54	693,00
-23179,75	767,00
-23119,17	779,00
-23058,80	759,00
-22998,64	872,00
-22938,68	806,00
-22878,93	815,00
-22819,39	754,00
-22760,04	849,00
-22700,90	856,00
-22641,96	853,00
-22583,22	867,00
-22524,68	818,00
-22466,33	798,00
-22408,19	854,00
-22350,23	780,00
-22292,48	850,00
-22234,92	959,00
-22177,55	838,00
-22120,37	1137,00
-22063,38	839,00
-22006,58	814,00
-21949,98	812,00
-21893,56	741,00
-21837,33	893,00
-21781,28	861,00
-21725,42	821,00
-21669,74	880,00
-21614,25	840,00
-21558,94	834,00
-21503,81	898,00
-21448,86	897,00
-21394,10	758,00
-21339,51	757,00
-21285,10	781,00
-21230,86	740,00
-21176,81	758,00
-21122,93	766,00
-21069,22	696,00
-21015,69	804,00
-20962,33	932,00
-20909,14	801,00
-20856,13	882,00
-20803,28	859,00
-20750,61	850,00
-20698,10	712,00
-20645,76	751,00
-20593,59	1001,00
-20541,59	921,00
-20489,75	903,00
-20438,07	678,00
-20386,56	989,00
-20335,22	796,00
-20284,03	757,00
-20233,01	839,00
-20182,15	801,00
-20131,45	789,00
-20080,91	694,00
-20030,52	853,00
-19980,30	802,00
-19930,23	817,00
-19880,32	865,00
-19830,56	867,00
-19780,96	865,00
-19731,52	765,00
-19682,23	787,00
-19633,09	813,00
-19584,10	742,00
-19535,26	877,00
-19486,58	1016,00
-19438,04	819,00
-19389,66	918,00
-19341,42	801,00
-19293,33	766,00
-19245,39	905,00
-19197,60	914,00
-19149,95	861,00
-19102,45	860,00
-19055,09	753,00
-19007,87	787,00
-18960,80	862,00
-18913,87	856,00
-18867,09	773,00
-18820,44	937,00
-18773,94	906,00
-18727,57	820,00
-18681,35	728,00
-18635,26	803,00
-18589,31	795,00
-18543,50	740,00
-18497,83	874,00
-18452,29	807,00
-18406,89	733,00
-18361,63	842,00
-18316,50	839,00
-18271,50	793,00
-18226,63	942,00
-18181,90	867,00
-18137,30	974,00
-18092,84	828,00
-18048,50	845,00
-18004,29	821,00
-17960,22	750,00
-17916,27	822,00
-17872,45	812,00
-17828,76	850,00
-17785,20	801,00
-17741,77	837,00
-17698,46	847,00
-17655,28	791,00
-17612,22	872,00
-17569,29	811,00
-17526,48	856,00
-17483,79	821,00
-17441,23	751,00
-17398,79	755,00
-17356,48	694,00
-17314,28	965,00
-17272,21	821,00
-17230,26	841,00
-17188,42	821,00
-17146,71	867,00
-17105,12	793,00
-17063,64	852,00
-17022,28	724,00
-16981,04	736,00
-16939,92	782,00
-16898,91	945,00
-16858,02	770,00
-16817,25	872,00
-16776,59	830,00
-16736,04	775,00
-16695,61	865,00
-16655,29	755,00
-16615,09	755,00
-16574,99	835,00
-16535,01	888,00
-16495,15	822,00
-16455,39	839,00
-16415,74	767,00
-16376,21	808,00
-16336,78	763,00
-16297,46	774,00
-16258,26	812,00
-16219,16	708,00
-16180,17	816,00
-16141,28	826,00
-16102,51	884,00
-16063,84	840,00
-16025,27	856,00
-15986,82	757,00
-15948,46	811,00
-15910,22	808,00
-15872,07	786,00
-15834,04	805,00
-15796,10	769,00
-15758,27	1013,00
-15720,54	873,00
-15682,91	815,00
-15645,39	999,00
-15607,97	845,00
-15570,64	741,00
-15533,42	926,00
-15496,30	883,00
-15459,28	875,00
-15422,36	830,00
-15385,54	804,00
-15348,82	777,00
-15312,19	865,00
-15275,66	708,00
-15239,23	900,00
-15202,90	855,00
-15166,67	755,00
-15130,53	940,00
-15094,48	866,00
-15058,54	775,00
-15022,68	786,00
-14986,93	677,00
-14951,26	982,00
-14915,69	804,00
-14880,22	808,00
-14844,84	797,00
-14809,55	875,00
-14774,35	848,00
-14739,25	822,00
-14704,24	831,00
-14669,32	789,00
-14634,49	703,00
-14599,75	861,00
-14565,10	817,00
-14530,55	845,00
-14496,08	817,00
-14461,70	857,00
-14427,41	805,00
-14393,21	690,00
-14359,10	798,00
-14325,07	824,00
-14291,14	784,00
-14257,29	860,00
-14223,52	840,00
-14189,85	936,00
-14156,26	798,00
-14122,76	737,00
-14089,34	769,00
-14056,01	859,00
-14022,76	749,00
-13989,60	909,00
-13956,52	921,00
-13923,53	871,00
-13890,62	788,00
-13857,79	762,00
-13825,05	777,00
-13792,39	785,00
-13759,81	792,00
-13727,31	863,00
-13694,90	773,00
-13662,57	884,00
-13630,31	805,00
-13598,14	882,00
-13566,05	781,00
-13534,05	819,00
-13502,12	801,00
-13470,27	832,00
-13438,50	924,00
-13406,80	742,00
-13375,19	741,00
-13343,66	871,00
-13312,20	885,00
-13280,83	780,00
-13249,53	845,00
-13218,30	705,00
-13187,16	734,00
-13156,09	993,00
-13125,10	894,00
-13094,18	766,00
-13063,34	859,00
-13032,58	827,00
-13001,89	795,00
-12971,28	879,00
-12940,74	862,00
-12910,27	884,00
-12879,88	865,00
-12849,57	922,00
-12819,33	870,00
-12789,16	884,00
-12759,06	860,00
-12729,04	719,00
-12699,09	2233,00
-12669,21	800,00
-12639,41	857,00
-12609,68	827,00
-12580,02	876,00
-12550,43	934,00
-12520,91	700,00
-12491,46	905,00
-12462,08	752,00
-12432,77	877,00
-12403,54	804,00
-12374,37	802,00
-12345,27	907,00
-12316,24	868,00
-12287,29	791,00
-12258,40	797,00
-12229,57	902,00
-12200,82	807,00
-12172,14	967,00
-12143,52	710,00
-12114,97	733,00
-12086,49	850,00
-12058,07	900,00
-12029,73	786,00
-12001,44	868,00
-11973,23	838,00
-11945,08	801,00
-11917,00	831,00
-11888,98	738,00
-11861,03	877,00
-11833,15	786,00
-11805,32	896,00
-11777,57	828,00
-11749,88	877,00
-11722,25	808,00
-11694,69	880,00
-11667,19	782,00
-11639,75	919,00
-11612,38	797,00
-11585,07	832,00
-11557,83	820,00
-11530,65	961,00
-11503,53	780,00
-11476,47	883,00
-11449,48	787,00
-11422,54	915,00
-11395,67	878,00
-11368,86	842,00
-11342,11	780,00
-11315,43	777,00
-11288,80	799,00
-11262,23	887,00
-11235,73	808,00
-11209,28	984,00
-11182,90	820,00
-11156,57	790,00
-11130,31	922,00
-11104,10	837,00
-11077,96	820,00
-11051,87	879,00
-11025,84	795,00
-10999,87	840,00
-10973,96	858,00
-10948,11	774,00
-10922,31	922,00
-10896,58	817,00
-10870,90	997,00
-10845,28	935,00
-10819,71	834,00
-10794,20	920,00
-10768,75	969,00
-10743,36	917,00
-10718,02	756,00
-10692,74	849,00
-10667,52	821,00
-10642,35	877,00
-10617,24	894,00
-10592,18	919,00
-10567,18	815,00
-10542,23	960,00
-10517,34	854,00
-10492,51	930,00
-10467,72	864,00
-10443,00	975,00
-10418,32	900,00
-10393,70	1031,00
-10369,14	852,00
-10344,63	792,00
-10320,17	1016,00
-10295,77	926,00
-10271,42	956,00
-10247,12	1000,00
-10222,88	1061,00
-10198,68	956,00
-10174,54	949,00
-10150,46	1116,00
-10126,42	1140,00
-10102,44	1018,00
-10078,51	950,00
-10054,63	1191,00
-10030,80	1171,00
-10007,03	1262,00
-9983,30	1175,00
-9959,63	1185,00
-9936,01	1303,00
-9912,44	1186,00
-9888,92	1301,00
-9865,44	1185,00
-9842,02	1381,00
-9818,65	1390,00
-9795,33	1178,00
-9772,06	1324,00
-9748,84	1381,00
-9725,67	1342,00
-9702,55	1517,00
-9679,47	1652,00
-9656,45	1788,00
-9633,47	1784,00
-9610,55	1800,00
-9587,67	1898,00
-9564,84	2102,00
-9542,06	2042,00
-9519,32	2365,00
-9496,64	2551,00
-9474,00	2417,00
-9451,41	2460,00
-9428,87	2599,00
-9406,37	2689,00
-9383,92	2379,00
-9361,52	2441,00
-9339,17	2598,00
-9316,86	2882,00
-9294,60	3234,00
-9272,38	3546,00
-9250,21	3814,00
-9228,09	3755,00
-9206,01	3862,00
-9183,98	3550,00
-9162,00	3312,00
-9140,06	3476,00
-9118,16	3319,00
-9096,31	3364,00
-9074,51	3517,00
-9052,75	3670,00
-9031,04	3565,00
-9009,37	3244,00
-8987,74	3011,00
-8966,16	2752,00
-8944,63	2601,00
-8923,14	2559,00
-8901,69	2521,00
-8880,29	2656,00
-8858,93	2903,00
-8837,61	3124,00
-8816,34	3172,00
-8795,11	3215,00
-8773,92	2907,00
-8752,78	2704,00
-8731,68	2590,00
-8710,62	2842,00
-8689,61	2698,00
-8668,63	2846,00
-8647,70	3092,00
-8626,82	2968,00
-8605,97	2986,00
-8585,17	2877,00
-8564,41	2623,00
-8543,69	2567,00
-8523,01	2424,00
-8502,37	2710,00
-8481,78	2567,00
-8461,23	2696,00
-8440,71	2718,00
-8420,24	2931,00
-8399,81	3152,00
-8379,42	2925,00
-8359,08	2840,00
-8338,77	2620,00
-8318,50	2405,00
-8298,27	2267,00
-8278,09	2651,00
-8257,94	2584,00
-8237,83	2749,00
-8217,76	2967,00
-8197,74	2851,00
-8177,75	2913,00
-8157,80	2500,00
-8137,89	2427,00
-8118,02	2380,00
-8098,19	2337,00
-8078,40	2511,00
-8058,65	2534,00
-8038,93	2430,00
-8019,26	2486,00
-7999,62	2392,00
-7980,02	2239,00
-7960,46	2216,00
-7940,94	2093,00
-7921,46	2023,00
-7902,01	2067,00
-7882,60	2267,00
-7863,23	2101,00
-7843,90	1999,00
-7824,61	2196,00
-7805,35	2450,00
-7786,13	2256,00
-7766,95	2306,00
-7747,80	2235,00
-7728,69	2234,00
-7709,62	2233,00
-7690,59	2203,00
-7671,59	2329,00
-7652,63	2317,00
-7633,70	2258,00
-7614,81	2417,00
-7595,96	2147,00
-7577,15	2066,00
-7558,37	1942,00
-7539,62	2016,00
-7520,91	2245,00
-7502,24	2167,00
-7483,60	2322,00
-7465,00	2133,00
-7446,44	2002,00
-7427,91	1705,00
-7409,41	1729,00
-7390,95	1671,00
-7372,53	1581,00
-7354,14	1767,00
-7335,78	1548,00
-7317,46	1787,00
-7299,18	1735,00
-7280,92	1958,00
-7262,71	2196,00
-7244,52	2179,00
-7226,38	2137,00
-7208,26	1952,00
-7190,18	2051,00
-7172,14	1920,00
-7154,12	1881,00
-7136,15	1822,00
-7118,20	2019,00
-7100,29	2189,00
-7082,41	2174,00
-7064,57	1995,00
-7046,76	1927,00
-7028,98	1768,00
-7011,24	1867,00
-6993,53	1412,00
-6975,85	1480,00
-6958,20	1392,00
-6940,59	1393,00
-6923,01	1285,00
-6905,46	1500,00
-6887,94	1660,00
-6870,46	2147,00
-6853,01	1905,00
-6835,59	1940,00
-6818,21	1712,00
-6800,85	1664,00
-6783,53	1430,00
-6766,24	1365,00
-6748,98	1265,00
-6731,76	1173,00
-6714,56	1207,00
-6697,40	1124,00
-6680,26	1123,00
-6663,16	1348,00
-6646,09	1492,00
-6629,05	1721,00
-6612,05	1638,00
-6595,07	1665,00
-6578,13	1666,00
-6561,21	1414,00
-6544,33	1336,00
-6527,47	1156,00
-6510,65	1207,00
-6493,86	1010,00
-6477,10	1139,00
-6460,36	1231,00
-6443,66	1095,00
-6426,99	1143,00
-6410,35	1172,00
-6393,74	1240,00
-6377,16	1185,00
-6360,61	1308,00
-6344,09	1217,00
-6327,59	1284,00
-6311,13	1382,00
-6294,70	1321,00
-6278,29	1377,00
-6261,92	1485,00
-6245,58	1557,00
-6229,26	1663,00
-6212,97	1526,00
-6196,72	1326,00
-6180,49	1294,00
-6164,29	997,00
-6148,12	1141,00
-6131,98	1091,00
-6115,86	918,00
-6099,78	877,00
-6083,72	962,00
-6067,69	928,00
-6051,69	890,00
-6035,72	1000,00
-6019,78	979,00
-6003,87	1321,00
-5987,98	1324,00
-5972,12	1420,00
-5956,29	1290,00
-5940,49	1114,00
-5924,71	1280,00
-5908,96	1030,00
-5893,24	1064,00
-5877,55	1028,00
-5861,89	1123,00
-5846,25	903,00
-5830,64	1030,00
-5815,05	921,00
-5799,50	989,00
-5783,97	1022,00
-5768,47	1088,00
-5752,99	1390,00
-5737,55	1225,00
-5722,12	1288,00
-5706,73	1358,00
-5691,36	1248,00
-5676,02	1018,00
-5660,71	1036,00
-5645,42	954,00
-5630,16	1047,00
-5614,92	1175,00
-5599,71	1102,00
-5584,53	1193,00
-5569,37	1093,00
-5554,24	1422,00
-5539,14	1058,00
-5524,06	1039,00
-5509,01	1148,00
-5493,98	1148,00
-5478,98	1177,00
-5464,00	1106,00
-5449,05	1104,00
-5434,13	1105,00
-5419,23	991,00
-5404,36	971,00
-5389,51	1067,00
-5374,69	1209,00
-5359,89	1312,00
-5345,12	1460,00
-5330,37	1323,00
-5315,65	1249,00
-5300,95	1247,00
-5286,28	1027,00
-5271,63	1053,00
-5257,01	1101,00
-5242,41	1050,00
-5227,84	956,00
-5213,29	1061,00
-5198,76	1040,00
-5184,26	1037,00
-5169,79	1031,00
-5155,33	1094,00
-5140,91	1099,00
-5126,51	1101,00
-5112,13	1189,00
-5097,77	1091,00
-5083,44	1071,00
-5069,13	965,00
-5054,85	955,00
-5040,59	1072,00
-5026,36	1061,00
-5012,15	1152,00
-4997,96	1149,00
-4983,80	1072,00
-4969,66	989,00
-4955,54	894,00
-4941,44	1037,00
-4927,37	1070,00
-4913,33	1319,00
-4899,30	1308,00
-4885,30	1350,00
-4871,33	1010,00
-4857,37	1005,00
-4843,44	902,00
-4829,53	1053,00
-4815,65	1169,00
-4801,79	934,00
-4787,95	1128,00
-4774,13	1006,00
-4760,34	912,00
-4746,56	1027,00
-4732,82	887,00
-4719,09	1053,00
-4705,38	1277,00
-4691,70	1284,00
-4678,04	1385,00
-4664,41	1223,00
-4650,79	1180,00
-4637,20	879,00
-4623,63	938,00
-4610,08	1117,00
-4596,56	1099,00
-4583,05	1113,00
-4569,57	1022,00
-4556,11	1016,00
-4542,67	974,00
-4529,25	895,00
-4515,86	1037,00
-4502,49	1219,00
-4489,13	1275,00
-4475,80	1236,00
-4462,49	945,00
-4449,21	1143,00
-4435,94	952,00
-4422,70	885,00
-4409,47	950,00
-4396,27	1087,00
-4383,09	946,00
-4369,93	921,00
-4356,79	867,00
-4343,67	950,00
-4330,58	1052,00
-4317,50	1141,00
-4304,45	1050,00
-4291,41	948,00
-4278,40	933,00
-4265,41	843,00
-4252,44	939,00
-4239,49	871,00
-4226,55	1006,00
-4213,65	942,00
-4200,76	964,00
-4187,89	878,00
-4175,04	816,00
-4162,21	856,00
-4149,40	955,00
-4136,61	931,00
-4123,85	872,00
-4111,10	880,00
-4098,37	901,00
-4085,66	955,00
-4072,98	915,00
-4060,31	773,00
-4047,66	976,00
-4035,04	1030,00
-4022,43	872,00
-4009,84	914,00
-3997,27	697,00
-3984,72	876,00
-3972,19	942,00
-3959,69	767,00
-3947,20	781,00
-3934,73	783,00
-3922,27	776,00
-3909,84	742,00
-3897,43	873,00
-3885,04	1005,00
-3872,67	828,00
-3860,31	843,00
-3847,98	900,00
-3835,66	868,00
-3823,36	840,00
-3811,09	770,00
-3798,83	890,00
-3786,59	902,00
-3774,37	936,00
-3762,17	703,00
-3749,98	851,00
-3737,82	772,00
-3725,67	1014,00
-3713,55	729,00
-3701,44	940,00
-3689,35	846,00
-3677,28	1008,00
-3665,22	786,00
-3653,19	878,00
-3641,17	762,00
-3629,18	844,00
-3617,20	916,00
-3605,24	819,00
-3593,30	808,00
-3581,37	989,00
-3569,47	906,00
-3557,58	928,00
-3545,71	861,00
-3533,86	876,00
-3522,02	813,00
-3510,21	822,00
-3498,41	857,00
-3486,63	861,00
-3474,87	897,00
-3463,12	750,00
-3451,40	843,00
-3439,69	872,00
-3428,00	794,00
-3416,33	911,00
-3404,67	818,00
-3393,03	901,00
-3381,41	856,00
-3369,81	992,00
-3358,22	915,00
-3346,66	1030,00
-3335,10	870,00
-3323,57	786,00
-3312,06	839,00
-3300,56	829,00
-3289,08	810,00
-3277,61	837,00
-3266,16	875,00
-3254,73	773,00
-3243,32	866,00
-3231,92	819,00
-3220,55	938,00
-3209,18	990,00
-3197,84	763,00
-3186,51	746,00
-3175,20	838,00
-3163,90	836,00
-3152,63	832,00
-3141,36	807,00
-3130,12	929,00
-3118,89	895,00
-3107,68	809,00
-3096,49	876,00
-3085,31	861,00
-3074,15	891,00
-3063,00	776,00
-3051,87	861,00
-3040,76	859,00
-3029,67	971,00
-3018,59	978,00
-3007,52	1006,00
-2996,48	955,00
-2985,44	890,00
-2974,43	947,00
-2963,43	854,00
-2952,45	928,00
-2941,48	855,00
-2930,53	905,00
-2919,60	766,00
-2908,68	763,00
-2897,78	794,00
-2886,89	995,00
-2876,02	864,00
-2865,17	776,00
-2854,33	822,00
-2843,50	832,00
-2832,70	836,00
-2821,90	852,00
-2811,13	963,00
-2800,37	895,00
-2789,62	755,00
-2778,89	908,00
-2768,18	867,00
-2757,48	884,00
-2746,80	911,00
-2736,13	777,00
-2725,48	1024,00
-2714,84	764,00
-2704,22	807,00
-2693,61	787,00
-2683,02	849,00
-2672,45	882,00
-2661,89	898,00
-2651,34	872,00
-2640,81	885,00
-2630,30	950,00
-2619,80	812,00
-2609,31	923,00
-2598,84	798,00
-2588,39	851,00
-2577,95	830,00
-2567,52	763,00
-2557,11	801,00
-2546,71	848,00
-2536,33	954,00
-2525,97	839,00
-2515,62	927,00
-2505,28	879,00
-2494,96	850,00
-2484,65	919,00
-2474,36	1128,00
-2464,08	793,00
-2453,82	936,00
-2443,57	860,00
-2433,33	792,00
-2423,11	954,00
-2412,91	937,00
-2402,72	768,00
-2392,54	831,00
-2382,38	856,00
-2372,23	998,00
-2362,09	-1520,00
-2351,97	841,00
-2341,87	712,00
-2331,78	986,00
-2321,70	839,00
-2311,64	829,00
-2301,59	837,00
-2291,55	882,00
-2281,53	892,00
-2271,53	779,00
-2261,53	919,00
-2251,55	842,00
-2241,59	782,00
-2231,64	894,00
-2221,70	792,00
-2211,78	879,00
-2201,87	946,00
-2191,97	844,00
-2182,09	874,00
-2172,22	894,00
-2162,37	810,00
-2152,53	729,00
-2142,70	835,00
-2132,89	856,00
-2123,09	1002,00
-2113,30	932,00
-2103,53	819,00
-2093,77	920,00
-2084,02	845,00
-2074,29	841,00
-2064,57	843,00
-2054,86	917,00
-2045,17	933,00
-2035,49	814,00
-2025,82	772,00
-2016,17	847,00
-2006,53	793,00
-1996,91	958,00
-1987,29	720,00
-1977,69	880,00
-1968,11	815,00
-1958,53	842,00
-1948,97	858,00
-1939,42	801,00
-1929,89	800,00
-1920,37	898,00
-1910,86	890,00
-1901,36	889,00
-1891,88	917,00
-1882,41	851,00
-1872,95	845,00
-1863,51	895,00
-1854,08	832,00
-1844,66	1007,00
-1835,26	920,00
-1825,86	899,00
-1816,48	761,00
-1807,11	917,00
-1797,76	901,00
-1788,42	954,00
-1779,09	857,00
-1769,77	779,00
-1760,47	925,00
-1751,17	782,00
-1741,89	867,00
-1732,63	887,00
-1723,37	960,00
-1714,13	962,00
-1704,90	815,00
-1695,68	1037,00
-1686,48	780,00
-1677,29	784,00
-1668,11	1107,00
-1658,94	794,00
-1649,78	771,00
-1640,64	859,00
-1631,51	777,00
-1622,39	977,00
-1613,28	869,00
-1604,19	950,00
-1595,10	881,00
-1586,03	848,00
-1576,97	894,00
-1567,93	817,00
-1558,89	881,00
-1549,87	1008,00
-1540,86	843,00
-1531,86	839,00
-1522,87	916,00
-1513,90	926,00
-1504,93	909,00
-1495,98	983,00
-1487,04	918,00
-1478,12	938,00
-1469,20	839,00
-1460,30	895,00
-1451,40	1044,00
-1442,52	890,00
-1433,65	959,00
-1424,80	894,00
-1415,95	846,00
-1407,12	1045,00
-1398,30	885,00
-1389,48	916,00
-1380,69	832,00
-1371,90	784,00
-1363,12	914,00
-1354,36	1011,00
-1345,60	844,00
-1336,86	845,00
-1328,13	970,00
-1319,41	887,00
-1310,70	870,00
-1302,01	820,00
-1293,32	779,00
-1284,65	908,00
-1275,99	934,00
-1267,33	973,00
-1258,69	962,00
-1250,06	909,00
-1241,45	814,00
-1232,84	1013,00
-1224,25	856,00
-1215,66	923,00
-1207,09	920,00
-1198,53	875,00
-1189,97	851,00
-1181,43	773,00
-1172,91	812,00
-1164,39	977,00
-1155,88	797,00
-1147,38	733,00
-1138,90	824,00
-1130,43	841,00
-1121,96	790,00
-1113,51	901,00
-1105,07	923,00
-1096,64	949,00
-1088,22	834,00
-1079,81	930,00
-1071,41	890,00
-1063,02	926,00
-1054,65	1016,00
-1046,28	823,00
-1037,92	863,00
-1029,58	861,00
-1021,24	849,00
-1012,92	1143,00
-1004,61	903,00
-996,30	1075,00
-988,01	753,00
-979,73	838,00
-971,46	892,00
-963,20	878,00
-954,95	754,00
-946,71	834,00
-938,48	870,00
-930,26	882,00
-922,06	898,00
-913,86	852,00
-905,67	775,00
-897,49	933,00
-889,33	731,00
-881,17	980,00
-873,02	905,00
-864,89	824,00
-856,76	832,00
-848,65	947,00
-840,54	895,00
-832,45	903,00
-824,36	789,00
-816,29	860,00
-808,22	949,00
-800,17	843,00
-792,12	901,00
-784,09	901,00
-776,06	886,00
-768,05	897,00
-760,04	809,00
-752,05	888,00
-744,07	875,00
-736,09	945,00
-728,13	729,00
-720,17	842,00
-712,23	949,00
-704,29	773,00
-696,37	859,00
-688,45	916,00
-680,55	848,00
-672,65	806,00
-664,77	863,00
-656,89	881,00
-649,03	723,00
-641,17	883,00
-633,32	890,00
-625,49	888,00
-617,66	841,00
-609,84	884,00
-602,03	805,00
-594,23	874,00
-586,45	866,00
-578,67	712,00
-570,90	876,00
-563,14	806,00
-555,39	918,00
-547,65	907,00
-539,91	916,00
-532,19	908,00
-524,48	929,00
-516,78	811,00
-509,08	906,00
-501,40	820,00
-493,72	916,00
-486,06	801,00
-478,40	1004,00
-470,76	742,00
-463,12	858,00
-455,49	809,00
-447,87	823,00
-440,26	796,00
-432,66	847,00
-425,07	903,00
-417,49	929,00
-409,92	746,00
-402,35	795,00
-394,80	813,00
-387,25	934,00
-379,72	829,00
-372,19	919,00
-364,67	945,00
-357,17	773,00
-349,67	920,00
-342,18	855,00
-334,69	875,00
-327,22	893,00
-319,76	872,00
-312,30	841,00
-304,86	904,00
-297,42	885,00
-290,00	809,00
-282,58	845,00
-275,17	954,00
-267,77	1007,00
-260,37	910,00
-252,99	1029,00
-245,62	934,00
-238,25	931,00
-230,90	777,00
-223,55	1049,00
-216,21	954,00
-208,88	1086,00
-201,56	972,00
-194,25	1065,00
-186,94	1004,00
-179,65	1008,00
-172,36	1046,00
-165,08	1130,00
-157,81	1121,00
-150,55	1225,00
-143,30	1178,00
-136,06	1170,00
-128,82	1262,00
-121,60	1274,00
-114,38	1400,00
-107,17	1518,00
-99,97	1648,00
-92,78	1650,00
-85,60	1759,00
-78,42	1920,00
-71,25	2078,00
-64,10	2258,00
-56,95	2521,00
-49,81	2810,00
-42,67	3439,00
-35,55	3969,00
-28,43	5128,00
-21,33	7910,00
-14,23	24683,00
-7,14	57498,00
-0,05	57284,00
7,02	57012,00
14,09	57319,00
21,14	20916,00
28,19	9224,00
35,23	6164,00
42,27	5054,00
49,29	4047,00
56,31	3644,00
63,32	3284,00
70,32	2758,00
77,31	2508,00
84,29	2231,00
91,27	2119,00
98,23	2083,00
105,19	1962,00
112,14	2148,00
119,09	2977,00
126,02	4297,00
132,95	4989,00
139,87	4994,00
146,78	5184,00
153,68	5065,00
160,58	4817,00
167,46	4710,00
174,34	4923,00
181,21	4835,00
188,08	4717,00
194,93	4745,00
201,78	4848,00
208,62	4794,00
215,45	4824,00
222,27	4793,00
229,09	4925,00
235,90	4553,00
242,70	4630,00
249,49	4699,00
256,27	4389,00
263,05	4445,00
269,82	4354,00
276,58	4354,00
283,33	4155,00
290,08	4174,00
296,82	4138,00
303,55	4042,00
310,27	3946,00
316,98	3991,00
323,69	4051,00
330,39	3961,00
337,08	3904,00
343,76	3999,00
350,44	4074,00
357,11	3972,00
363,77	3841,00
370,42	3833,00
377,07	3916,00
383,71	3962,00
390,34	3906,00
396,96	3838,00
403,58	3946,00
410,19	4131,00
416,79	4104,00
423,38	4269,00
429,97	4176,00
436,55	4082,00
443,12	4244,00
449,68	4225,00
456,24	4211,00
462,79	3931,00
469,33	3829,00
475,86	3630,00
482,39	3533,00
488,91	3557,00
495,42	3450,00
501,93	3498,00
508,42	3375,00
514,91	3429,00
521,40	3304,00
527,87	3349,00
534,34	3151,00
540,80	3315,00
547,25	3461,00
553,70	3305,00
560,14	3199,00
566,57	3409,00
573,00	3381,00
579,41	3362,00
585,83	3438,00
592,23	3497,00
598,62	3609,00
605,01	3505,00
611,40	3744,00
617,77	3595,00
624,14	3536,00
630,50	3348,00
636,85	3258,00
643,20	3199,00
649,54	3091,00
655,87	3110,00
662,20	3080,00
668,52	3075,00
674,83	2984,00
681,13	2906,00
687,43	3080,00
693,72	2932,00
700,00	2773,00
706,28	2901,00
712,55	2840,00
718,81	3016,00
725,07	2847,00
731,32	2873,00
737,56	2867,00
743,79	2900,00
750,02	2887,00
756,24	2799,00
762,46	2756,00
768,67	3042,00
774,87	2729,00
781,06	2728,00
787,25	2786,00
793,43	2871,00
799,60	2730,00
805,77	2883,00
811,93	2660,00
818,08	2810,00
824,23	2693,00
830,37	2971,00
836,50	2772,00
842,63	2815,00
848,75	2824,00
854,87	2725,00
860,97	2883,00
867,07	2790,00
873,17	2829,00
879,25	2778,00
885,33	2799,00
891,41	2871,00
897,47	2804,00
903,53	2662,00
909,59	2721,00
915,63	2728,00
921,67	2646,00
927,71	2825,00
933,74	2840,00
939,76	2475,00
945,77	2531,00
951,78	2779,00
957,78	2528,00
963,78	2711,00
969,77	2456,00
975,75	2476,00
981,72	2535,00
987,69	3945,00
993,66	2660,00
999,61	2673,00
1005,56	2640,00
1011,51	2550,00
1017,44	2702,00
1023,37	2683,00
1029,30	2605,00
1035,22	2695,00
1041,13	2634,00
1047,03	3016,00
1052,93	3346,00
1058,83	4874,00
1064,71	5293,00
1070,59	4484,00
1076,47	3618,00
1082,33	3405,00
1088,20	3241,00
1094,05	3076,00
1099,90	2775,00
1105,74	2764,00
1111,58	2909,00
1117,41	3086,00
1123,23	4197,00
1129,05	5136,00
1134,86	4653,00
1140,67	3504,00
1146,47	2958,00
1152,26	2669,00
1158,05	2631,00
1163,83	2757,00
1169,60	2877,00
1175,37	2834,00
1181,13	2640,00
1186,89	2492,00
1192,64	2545,00
1198,38	2676,00
1204,12	2255,00
1209,85	2421,00
1215,58	2384,00
1221,30	2433,00
1227,02	2534,00
1232,72	2533,00
1238,43	2420,00
1244,12	2454,00
1249,81	2441,00
1255,50	2670,00
1261,17	2602,00
1266,85	2627,00
1272,51	2664,00
1278,17	3017,00
1283,83	3111,00
1289,47	4816,00
1295,12	6191,00
1300,75	5561,00
1306,38	4401,00
1312,01	3542,00
1317,63	2933,00
1323,24	2889,00
1328,85	2664,00
1334,45	2499,00
1340,04	2610,00
1345,63	2509,00
1351,22	2664,00
1356,80	2560,00
1362,37	2766,00
1367,93	2624,00
1373,49	2812,00
1379,05	2613,00
1384,60	2484,00
1390,14	2551,00
1395,68	2623,00
1401,21	2755,00
1406,74	2839,00
1412,26	3521,00
1417,77	4087,00
1423,28	3890,00
1428,78	4361,00
1434,28	5487,00
1439,77	6325,00
1445,26	6056,00
1450,74	5709,00
1456,22	5210,00
1461,68	5076,00
1467,15	4773,00
1472,61	3908,00
1478,06	3658,00
1483,51	3095,00
1488,95	2697,00
1494,38	2751,00
1499,81	2445,00
1505,24	2331,00
1510,65	2391,00
1516,07	2430,00
1521,48	2350,00
1526,88	2253,00
1532,27	2227,00
1537,67	2291,00
1543,05	2261,00
1548,43	2129,00
1553,81	2287,00
1559,18	2018,00
1564,54	2157,00
1569,90	2063,00
1575,25	1997,00
1580,60	2006,00
1585,94	2152,00
1591,28	2005,00
1596,61	1999,00
1601,93	1886,00
1607,25	2125,00
1612,57	2005,00
1617,88	2073,00
1623,18	2056,00
1628,48	1932,00
1633,77	1992,00
1639,06	2080,00
1644,34	2012,00
1649,62	1928,00
1654,89	2003,00
1660,16	1812,00
1665,42	2082,00
1670,67	1891,00
1675,92	1815,00
1681,17	1951,00
1686,41	1866,00
1691,64	1932,00
1696,87	1963,00
1702,10	1822,00
1707,32	1888,00
1712,53	1894,00
1717,74	1874,00
1722,94	1889,00
1728,14	1759,00
1733,33	1778,00
1738,52	1693,00
1743,70	1782,00
1748,88	1649,00
1754,05	1803,00
1759,22	1710,00
1764,38	1109,00
1769,53	1790,00
1774,69	1700,00
1779,83	1730,00
1784,97	1690,00
1790,11	1699,00
1795,24	1601,00
1800,36	1713,00
1805,48	1583,00
1810,60	1798,00
1815,71	1644,00
1820,82	1541,00
1825,92	1706,00
1831,01	1661,00
1836,10	1697,00
1841,19	1741,00
1846,26	1517,00
1851,34	1698,00
1856,41	1653,00
1861,47	1650,00
1866,53	1689,00
1871,59	1630,00
1876,64	1691,00
1881,68	1550,00
1886,72	1500,00
1891,76	1573,00
1896,79	1566,00
1901,81	1429,00
1906,83	1561,00
1911,85	1487,00
1916,86	1612,00
1921,86	1443,00
1926,86	1524,00
1931,86	1500,00
1936,85	1560,00
1941,83	1503,00
1946,81	1409,00
1951,79	1397,00
1956,76	1469,00
1961,72	1357,00
1966,68	1505,00
1971,64	1454,00
1976,59	1433,00
1981,54	1482,00
1986,48	1475,00
1991,42	1322,00
1996,35	1600,00
2001,27	1429,00
2006,20	1358,00
2011,11	1488,00
2016,03	1483,00
2020,93	1324,00
2025,84	1503,00
2030,73	1421,00
2035,63	1326,00
2040,52	1464,00
2045,40	1403,00
2050,28	1424,00
2055,15	1465,00
2060,02	1352,00
2064,89	1438,00
2069,75	1467,00
2074,60	1472,00
2079,46	1294,00
2084,30	1400,00
2089,14	1305,00
2093,98	1629,00
2098,81	1642,00
2103,64	1848,00
2108,46	2114,00
2113,28	2149,00
2118,09	1937,00
2122,90	1829,00
2127,70	1531,00
2132,50	1497,00
2137,30	1372,00
2142,09	1290,00
2146,87	1261,00
2151,66	1395,00
2156,43	1394,00
2161,20	1353,00
2165,97	1415,00
2170,73	1408,00
2175,49	1429,00
2180,24	1418,00
2184,99	1598,00
2189,74	1493,00
2194,48	1487,00
2199,21	1384,00
2203,94	1393,00
2208,67	1256,00
2213,39	1224,00
2218,11	1450,00
2222,82	1279,00
2227,53	1316,00
2232,23	1284,00
2236,93	1326,00
2241,63	1290,00
2246,32	1308,00
2251,00	1379,00
2255,68	1360,00
2260,36	1234,00
2265,03	1334,00
2269,70	1344,00
2274,36	1301,00
2279,02	1306,00
2283,68	1232,00
2288,33	1258,00
2292,97	1320,00
2297,61	1203,00
2302,25	1269,00
2306,88	1255,00
2311,51	1207,00
2316,14	1198,00
2320,75	1091,00
2325,37	1127,00
2329,98	1202,00
2334,59	1242,00
2339,19	1181,00
2343,79	1050,00
2348,38	1234,00
2352,97	1159,00
2357,55	1172,00
2362,13	1178,00
2366,71	1115,00
2371,28	1339,00
2375,85	1289,00
2380,41	1199,00
2384,97	1174,00
2389,52	1237,00
2394,07	1296,00
2398,62	1203,00
2403,16	1222,00
2407,70	1063,00
2412,23	1159,00
2416,76	1285,00
2421,29	1211,00
2425,81	1305,00
2430,32	1195,00
2434,84	1037,00
2439,34	1156,00
2443,85	1278,00
2448,35	1199,00
2452,84	1071,00
2457,33	1227,00
2461,82	959,00
2466,30	1047,00
2470,78	1263,00
2475,25	1084,00
2479,72	1133,00
2484,19	1239,00
2488,65	1158,00
2493,11	1143,00
2497,56	1246,00
2502,01	1072,00
2506,46	1190,00
2510,90	1156,00
2515,34	1129,00
2519,77	1150,00
2524,20	1092,00
2528,62	1233,00
2533,04	1184,00
2537,46	1245,00
2541,87	1204,00
2546,28	1114,00
2550,68	1251,00
2555,08	1178,00
2559,48	1143,00
2563,87	1138,00
2568,26	1083,00
2572,64	1151,00
2577,02	1203,00
2581,40	1058,00
2585,77	1190,00
2590,14	1130,00
2594,50	1088,00
2598,86	1209,00
2603,22	1145,00
2607,57	1110,00
2611,92	1244,00
2616,26	1284,00
2620,60	1195,00
2624,94	1124,00
2629,27	1199,00
2633,60	1100,00
2637,92	1318,00
2642,24	1295,00
2646,56	1202,00
2650,87	1072,00
2655,18	1266,00
2659,48	1132,00
2663,78	1160,00
2668,08	1179,00
2672,37	1297,00
2676,66	1295,00
2680,95	1151,00
2685,23	1397,00
2689,50	1226,00
2693,78	1255,00
2698,05	1281,00
2702,31	1311,00
2706,57	1458,00
2710,83	1493,00
2715,08	1530,00
2719,33	1637,00
2723,58	1451,00
2727,82	1477,00
2732,06	1447,00
2736,29	1364,00
2740,53	1486,00
2744,75	1331,00
2748,97	1401,00
2753,19	1372,00
2757,41	1353,00
2761,62	1359,00
2765,83	1398,00
2770,03	1285,00
2774,23	1361,00
2778,43	1341,00
2782,62	1389,00
2786,81	1426,00
2791,00	1431,00
2795,18	1474,00
2799,35	1519,00
2803,53	1533,00
2807,70	1644,00
2811,86	1570,00
2816,03	1850,00
2820,19	1755,00
2824,34	1897,00
2828,49	1979,00
2832,64	2386,00
2836,78	2848,00
2840,92	3163,00
2845,06	3807,00
2849,19	4303,00
2853,32	4425,00
2857,45	4370,00
2861,57	4347,00
2865,69	4111,00
2869,80	4071,00
2873,91	4306,00
2878,02	4780,00
2882,12	5069,00
2886,22	5084,00
2890,32	4880,00
2894,41	4680,00
2898,50	3985,00
2902,58	3776,00
2906,67	3570,00
2910,74	3387,00
2914,82	3040,00
2918,89	3034,00
2922,96	2691,00
2927,02	2506,00
2931,08	2479,00
2935,13	2216,00
2939,19	2221,00
2943,24	2112,00
2947,28	2029,00
2951,32	1679,00
2955,36	1662,00
2959,40	1621,00
2963,43	1589,00
2967,46	1480,00
2971,48	1407,00
2975,50	1308,00
2979,52	1366,00
2983,53	1371,00
2987,54	1260,00
2991,55	1311,00
2995,55	1228,00
2999,55	1220,00
3003,54	1175,00
3007,54	1239,00
3011,53	1148,00
3015,51	1163,00
3019,49	1210,00
3023,47	1049,00
3027,45	1116,00
3031,42	1058,00
3035,39	1071,00
3039,35	1067,00
3043,31	1073,00
3047,27	1018,00
3051,22	1138,00
3055,17	1001,00
3059,12	933,00
3063,06	996,00
3067,00	915,00
3070,94	948,00
3074,87	1070,00
3078,80	941,00
3082,73	972,00
3086,65	923,00
3090,57	1003,00
3094,49	1016,00
3098,40	936,00
3102,31	952,00
3106,22	1012,00
3110,12	913,00
3114,02	849,00
3117,92	926,00
3121,81	936,00
3125,70	869,00
3129,58	789,00
3133,47	763,00
3137,34	974,00
3141,22	969,00
3145,09	943,00
3148,96	996,00
3152,83	1024,00
3156,69	956,00
3160,55	960,00
3164,40	987,00
3168,26	911,00
3172,10	1003,00
3175,95	934,00
3179,79	990,00
3183,63	1025,00
3187,47	870,00
3191,30	981,00
3195,13	907,00
3198,95	785,00
3202,78	957,00
3206,60	837,00
3210,41	840,00
3214,23	883,00
3218,03	947,00
3221,84	951,00
3225,64	898,00
3229,44	830,00
3233,24	932,00
3237,03	929,00
3240,82	827,00
3244,61	816,00
3248,39	865,00
3252,17	938,00
3255,95	1050,00
3259,72	901,00
3263,49	1091,00
3267,26	801,00
3271,03	980,00
3274,79	943,00
3278,54	941,00
3282,30	781,00
3286,05	880,00
3289,80	970,00
3293,54	843,00
3297,29	952,00
3301,02	792,00
3304,76	866,00
3308,49	905,00
3312,22	917,00
3315,95	852,00
3319,67	823,00
3323,39	943,00
3327,10	871,00
3330,82	914,00
3334,53	941,00
3338,24	913,00
3341,94	883,00
3345,64	898,00
3349,34	875,00
3353,03	919,00
3356,72	881,00
3360,41	936,00
3364,10	834,00
3367,78	834,00
3371,46	774,00
3375,13	889,00
3378,81	987,00
3382,48	845,00
3386,14	950,00
3389,81	965,00
3393,47	853,00
3397,12	1063,00
3400,78	913,00
3404,43	914,00
3408,08	883,00
3411,72	890,00
3415,36	877,00
3419,00	859,00
3422,64	799,00
3426,27	904,00
3429,90	871,00
3433,53	793,00
3437,15	888,00
3440,77	730,00
3444,39	848,00
3448,00	857,00
3451,62	823,00
3455,22	844,00
3458,83	726,00
3462,43	872,00
3466,03	917,00
3469,63	774,00
3473,22	775,00
3476,81	857,00
3480,40	898,00
3483,99	765,00
3487,57	940,00
3491,15	795,00
3494,72	887,00
3498,29	979,00
3501,86	775,00
3505,43	770,00
3508,99	736,00
3512,56	704,00
3516,11	873,00
3519,67	785,00
3523,22	872,00
3526,77	762,00
3530,32	1040,00
3533,86	861,00
3537,40	992,00
3540,94	871,00
3544,47	843,00
3548,00	898,00
3551,53	852,00
3555,06	842,00
3558,58	873,00
3562,10	805,00
3565,62	803,00
3569,13	807,00
3572,64	853,00
3576,15	691,00
3579,66	825,00
3583,16	855,00
3586,66	857,00
3590,16	755,00
3593,65	783,00
3597,14	703,00
3600,63	837,00
3604,11	823,00
3607,60	824,00
3611,08	835,00
3614,55	875,00
3618,03	825,00
3621,50	740,00
3624,97	643,00
3628,43	813,00
3631,90	774,00
3635,36	711,00
3638,81	787,00
3642,27	795,00
3645,72	821,00
3649,17	782,00
3652,61	728,00
3656,06	751,00
3659,50	746,00
3662,93	846,00
3666,37	849,00
3669,80	1033,00
3673,23	967,00
3676,65	824,00
3680,08	887,00
3683,50	683,00
3686,92	714,00
3690,33	775,00
3693,74	717,00
3697,15	639,00
3700,56	868,00
3703,96	750,00
3707,36	615,00
3710,76	670,00
3714,16	665,00
3717,55	725,00
3720,94	689,00
3724,33	785,00
3727,71	815,00
3731,10	745,00
3734,48	728,00
3737,85	659,00
3741,23	758,00
3744,60	714,00
3747,97	637,00
3751,33	812,00
3754,69	701,00
3758,05	718,00
3761,41	748,00
3764,77	647,00
3768,12	697,00
3771,47	661,00
3774,82	660,00
3778,16	-8,00
3781,50	11,00
3784,84	3,00
3788,18	11,00
>>>>>End Processed Spectral Data<<<<<
