SpectraSuite Data File
++++++++++++++++++++++++++++++++++++
Date: Mon Jan 05 16:32:16 ICT 2026
User: Administrator
Dark Spectrum Present: Yes
Reference Spectrum Present: No
Number of Sampled Component Spectra: 1
Spectrometers: MAYP113682
Integration Time (usec): 3000000 (MAYP113682)
Spectra Averaged: 1 (MAYP113682)
Boxcar Smoothing: 0 (MAYP113682)
Correct for Electrical Dark: No (MAYP113682)
Strobe/Lamp Enabled: No (MAYP113682)
Correct for Detector Non-linearity: No (MAYP113682)
Correct for Stray Light: No (MAYP113682)
Number of Pixels in Processed Spectrum: 2068
>>>>>Begin Processed Spectral Data<<<<<
-37534,58	26,00
-37414,56	6,00
-37295,11	10,00
-37176,24	3,00
-37057,95	609,00
-36940,22	638,00
-36823,05	750,00
-36706,45	672,00
-36590,40	726,00
-36474,90	633,00
-36359,95	743,00
-36245,55	774,00
-36131,68	730,00
-36018,35	676,00
-35905,55	675,00
-35793,29	767,00
-35681,54	721,00
-35570,32	742,00
-35459,62	735,00
-35349,43	753,00
-35239,75	798,00
-35130,58	802,00
-35021,91	733,00
-34913,74	669,00
-34806,07	780,00
-34698,89	785,00
-34592,20	637,00
-34486,00	795,00
-34380,28	770,00
-34275,04	723,00
-34170,27	717,00
-34065,98	865,00
-33962,16	820,00
-33858,81	810,00
-33755,92	784,00
-33653,49	891,00
-33551,52	874,00
-33450,01	792,00
-33348,94	793,00
-33248,33	809,00
-33148,16	740,00
-33048,43	775,00
-32949,14	930,00
-32850,29	893,00
-32751,87	743,00
-32653,89	829,00
-32556,33	888,00
-32459,20	779,00
-32362,49	835,00
-32266,19	895,00
-32170,32	695,00
-32074,86	865,00
-31979,82	879,00
-31885,18	927,00
-31790,95	918,00
-31697,12	930,00
-31603,69	914,00
-31510,67	909,00
-31418,04	883,00
-31325,80	782,00
-31233,95	795,00
-31142,49	788,00
-31051,42	818,00
-30960,73	1024,00
-30870,43	869,00
-30780,50	846,00
-30690,95	855,00
-30601,77	908,00
-30512,97	798,00
-30424,53	825,00
-30336,46	821,00
-30248,76	843,00
-30161,42	896,00
-30074,44	805,00
-29987,81	836,00
-29901,55	899,00
-29815,63	838,00
-29730,07	872,00
-29644,86	910,00
-29560,00	809,00
-29475,48	824,00
-29391,30	848,00
-29307,47	806,00
-29223,97	806,00
-29140,81	862,00
-29057,99	926,00
-28975,50	639,00
-28893,34	986,00
-28811,51	823,00
-28730,00	858,00
-28648,82	799,00
-28567,97	831,00
-28487,43	832,00
-28407,21	872,00
-28327,32	705,00
-28247,73	968,00
-28168,46	720,00
-28089,50	866,00
-28010,85	766,00
-27932,51	790,00
-27854,48	878,00
-27776,75	774,00
-27699,32	800,00
-27622,19	762,00
-27545,37	891,00
-27468,84	902,00
-27392,60	891,00
-27316,66	875,00
-27241,01	735,00
-27165,66	800,00
-27090,59	671,00
-27015,81	889,00
-26941,31	926,00
-26867,10	858,00
-26793,17	967,00
-26719,52	806,00
-26646,15	777,00
-26573,06	857,00
-26500,24	820,00
-26427,70	854,00
-26355,43	756,00
-26283,43	833,00
-26211,71	886,00
-26140,25	801,00
-26069,06	951,00
-25998,13	767,00
-25927,46	820,00
-25857,06	783,00
-25786,92	811,00
-25717,04	755,00
-25647,42	902,00
-25578,05	753,00
-25508,94	816,00
-25440,09	759,00
-25371,48	832,00
-25303,13	916,00
-25235,02	783,00
-25167,17	837,00
-25099,56	806,00
-25032,19	753,00
-24965,07	709,00
-24898,20	655,00
-24831,56	728,00
-24765,17	874,00
-24699,01	835,00
-24633,10	834,00
-24567,41	859,00
-24501,97	731,00
-24436,75	816,00
-24371,77	809,00
-24307,03	782,00
-24242,51	781,00
-24178,22	770,00
-24114,16	833,00
-24050,32	837,00
-23986,71	787,00
-23923,32	775,00
-23860,16	793,00
-23797,22	847,00
-23734,50	816,00
-23672,00	748,00
-23609,71	758,00
-23547,65	799,00
-23485,80	833,00
-23424,16	631,00
-23362,74	908,00
-23301,53	871,00
-23240,54	693,00
-23179,75	732,00
-23119,17	771,00
-23058,80	803,00
-22998,64	811,00
-22938,68	716,00
-22878,93	860,00
-22819,39	594,00
-22760,04	823,00
-22700,90	920,00
-22641,96	800,00
-22583,22	827,00
-22524,68	833,00
-22466,33	771,00
-22408,19	807,00
-22350,23	832,00
-22292,48	751,00
-22234,92	828,00
-22177,55	894,00
-22120,37	934,00
-22063,38	783,00
-22006,58	828,00
-21949,98	798,00
-21893,56	644,00
-21837,33	869,00
-21781,28	813,00
-21725,42	860,00
-21669,74	874,00
-21614,25	866,00
-21558,94	850,00
-21503,81	888,00
-21448,86	864,00
-21394,10	766,00
-21339,51	723,00
-21285,10	730,00
-21230,86	739,00
-21176,81	758,00
-21122,93	818,00
-21069,22	704,00
-21015,69	781,00
-20962,33	889,00
-20909,14	743,00
-20856,13	779,00
-20803,28	828,00
-20750,61	773,00
-20698,10	749,00
-20645,76	741,00
-20593,59	857,00
-20541,59	848,00
-20489,75	913,00
-20438,07	701,00
-20386,56	883,00
-20335,22	708,00
-20284,03	806,00
-20233,01	661,00
-20182,15	750,00
-20131,45	748,00
-20080,91	752,00
-20030,52	775,00
-19980,30	778,00
-19930,23	751,00
-19880,32	800,00
-19830,56	844,00
-19780,96	770,00
-19731,52	805,00
-19682,23	815,00
-19633,09	736,00
-19584,10	716,00
-19535,26	764,00
-19486,58	839,00
-19438,04	739,00
-19389,66	904,00
-19341,42	734,00
-19293,33	776,00
-19245,39	805,00
-19197,60	857,00
-19149,95	832,00
-19102,45	836,00
-19055,09	685,00
-19007,87	700,00
-18960,80	775,00
-18913,87	807,00
-18867,09	790,00
-18820,44	778,00
-18773,94	760,00
-18727,57	855,00
-18681,35	714,00
-18635,26	820,00
-18589,31	707,00
-18543,50	741,00
-18497,83	841,00
-18452,29	737,00
-18406,89	700,00
-18361,63	897,00
-18316,50	831,00
-18271,50	808,00
-18226,63	884,00
-18181,90	887,00
-18137,30	789,00
-18092,84	760,00
-18048,50	888,00
-18004,29	694,00
-17960,22	755,00
-17916,27	753,00
-17872,45	889,00
-17828,76	862,00
-17785,20	829,00
-17741,77	777,00
-17698,46	836,00
-17655,28	706,00
-17612,22	722,00
-17569,29	802,00
-17526,48	912,00
-17483,79	835,00
-17441,23	694,00
-17398,79	799,00
-17356,48	829,00
-17314,28	901,00
-17272,21	815,00
-17230,26	804,00
-17188,42	822,00
-17146,71	822,00
-17105,12	802,00
-17063,64	737,00
-17022,28	778,00
-16981,04	726,00
-16939,92	803,00
-16898,91	926,00
-16858,02	737,00
-16817,25	836,00
-16776,59	808,00
-16736,04	766,00
-16695,61	828,00
-16655,29	750,00
-16615,09	768,00
-16574,99	760,00
-16535,01	798,00
-16495,15	847,00
-16455,39	721,00
-16415,74	720,00
-16376,21	782,00
-16336,78	778,00
-16297,46	838,00
-16258,26	793,00
-16219,16	780,00
-16180,17	755,00
-16141,28	855,00
-16102,51	797,00
-16063,84	763,00
-16025,27	811,00
-15986,82	745,00
-15948,46	843,00
-15910,22	769,00
-15872,07	725,00
-15834,04	810,00
-15796,10	765,00
-15758,27	986,00
-15720,54	824,00
-15682,91	809,00
-15645,39	897,00
-15607,97	875,00
-15570,64	793,00
-15533,42	804,00
-15496,30	815,00
-15459,28	782,00
-15422,36	850,00
-15385,54	719,00
-15348,82	790,00
-15312,19	878,00
-15275,66	748,00
-15239,23	844,00
-15202,90	762,00
-15166,67	789,00
-15130,53	892,00
-15094,48	806,00
-15058,54	733,00
-15022,68	737,00
-14986,93	712,00
-14951,26	832,00
-14915,69	837,00
-14880,22	752,00
-14844,84	818,00
-14809,55	817,00
-14774,35	798,00
-14739,25	781,00
-14704,24	849,00
-14669,32	765,00
-14634,49	789,00
-14599,75	847,00
-14565,10	757,00
-14530,55	786,00
-14496,08	815,00
-14461,70	837,00
-14427,41	777,00
-14393,21	719,00
-14359,10	778,00
-14325,07	820,00
-14291,14	846,00
-14257,29	774,00
-14223,52	832,00
-14189,85	919,00
-14156,26	778,00
-14122,76	744,00
-14089,34	747,00
-14056,01	878,00
-14022,76	815,00
-13989,60	828,00
-13956,52	818,00
-13923,53	799,00
-13890,62	736,00
-13857,79	791,00
-13825,05	735,00
-13792,39	654,00
-13759,81	799,00
-13727,31	767,00
-13694,90	816,00
-13662,57	900,00
-13630,31	789,00
-13598,14	814,00
-13566,05	756,00
-13534,05	781,00
-13502,12	735,00
-13470,27	801,00
-13438,50	825,00
-13406,80	733,00
-13375,19	778,00
-13343,66	884,00
-13312,20	849,00
-13280,83	753,00
-13249,53	821,00
-13218,30	592,00
-13187,16	793,00
-13156,09	1030,00
-13125,10	858,00
-13094,18	845,00
-13063,34	846,00
-13032,58	688,00
-13001,89	849,00
-12971,28	853,00
-12940,74	832,00
-12910,27	914,00
-12879,88	864,00
-12849,57	823,00
-12819,33	871,00
-12789,16	798,00
-12759,06	830,00
-12729,04	862,00
-12699,09	2073,00
-12669,21	784,00
-12639,41	839,00
-12609,68	685,00
-12580,02	794,00
-12550,43	868,00
-12520,91	729,00
-12491,46	788,00
-12462,08	767,00
-12432,77	843,00
-12403,54	765,00
-12374,37	680,00
-12345,27	850,00
-12316,24	787,00
-12287,29	811,00
-12258,40	719,00
-12229,57	829,00
-12200,82	670,00
-12172,14	821,00
-12143,52	653,00
-12114,97	771,00
-12086,49	820,00
-12058,07	824,00
-12029,73	763,00
-12001,44	930,00
-11973,23	833,00
-11945,08	791,00
-11917,00	846,00
-11888,98	640,00
-11861,03	969,00
-11833,15	788,00
-11805,32	868,00
-11777,57	813,00
-11749,88	849,00
-11722,25	739,00
-11694,69	735,00
-11667,19	773,00
-11639,75	901,00
-11612,38	759,00
-11585,07	820,00
-11557,83	764,00
-11530,65	946,00
-11503,53	762,00
-11476,47	843,00
-11449,48	747,00
-11422,54	955,00
-11395,67	837,00
-11368,86	887,00
-11342,11	773,00
-11315,43	780,00
-11288,80	781,00
-11262,23	843,00
-11235,73	782,00
-11209,28	941,00
-11182,90	783,00
-11156,57	651,00
-11130,31	960,00
-11104,10	817,00
-11077,96	781,00
-11051,87	795,00
-11025,84	789,00
-10999,87	857,00
-10973,96	812,00
-10948,11	708,00
-10922,31	781,00
-10896,58	774,00
-10870,90	900,00
-10845,28	805,00
-10819,71	758,00
-10794,20	955,00
-10768,75	924,00
-10743,36	873,00
-10718,02	754,00
-10692,74	776,00
-10667,52	843,00
-10642,35	768,00
-10617,24	818,00
-10592,18	813,00
-10567,18	804,00
-10542,23	837,00
-10517,34	799,00
-10492,51	932,00
-10467,72	705,00
-10443,00	963,00
-10418,32	888,00
-10393,70	947,00
-10369,14	916,00
-10344,63	876,00
-10320,17	976,00
-10295,77	971,00
-10271,42	976,00
-10247,12	924,00
-10222,88	1076,00
-10198,68	928,00
-10174,54	945,00
-10150,46	1127,00
-10126,42	1094,00
-10102,44	1064,00
-10078,51	1013,00
-10054,63	1145,00
-10030,80	1103,00
-10007,03	1173,00
-9983,30	1093,00
-9959,63	1141,00
-9936,01	1240,00
-9912,44	1153,00
-9888,92	1148,00
-9865,44	1124,00
-9842,02	1264,00
-9818,65	1372,00
-9795,33	1187,00
-9772,06	1334,00
-9748,84	1317,00
-9725,67	1358,00
-9702,55	1375,00
-9679,47	1624,00
-9656,45	1780,00
-9633,47	1586,00
-9610,55	1730,00
-9587,67	1890,00
-9564,84	2044,00
-9542,06	2112,00
-9519,32	2300,00
-9496,64	2401,00
-9474,00	2347,00
-9451,41	2451,00
-9428,87	2537,00
-9406,37	2498,00
-9383,92	2351,00
-9361,52	2392,00
-9339,17	2688,00
-9316,86	2725,00
-9294,60	3199,00
-9272,38	3423,00
-9250,21	3791,00
-9228,09	3781,00
-9206,01	3712,00
-9183,98	3413,00
-9162,00	3124,00
-9140,06	3199,00
-9118,16	3162,00
-9096,31	3248,00
-9074,51	3500,00
-9052,75	3619,00
-9031,04	3479,00
-9009,37	3073,00
-8987,74	2890,00
-8966,16	2756,00
-8944,63	2563,00
-8923,14	2449,00
-8901,69	2573,00
-8880,29	2536,00
-8858,93	2786,00
-8837,61	3070,00
-8816,34	3137,00
-8795,11	3201,00
-8773,92	2904,00
-8752,78	2738,00
-8731,68	2434,00
-8710,62	2775,00
-8689,61	2512,00
-8668,63	2841,00
-8647,70	3108,00
-8626,82	2972,00
-8605,97	2867,00
-8585,17	2824,00
-8564,41	2537,00
-8543,69	2475,00
-8523,01	2265,00
-8502,37	2583,00
-8481,78	2466,00
-8461,23	2491,00
-8440,71	2866,00
-8420,24	2893,00
-8399,81	3143,00
-8379,42	3000,00
-8359,08	2933,00
-8338,77	2491,00
-8318,50	2366,00
-8298,27	2278,00
-8278,09	2504,00
-8257,94	2517,00
-8237,83	2733,00
-8217,76	2924,00
-8197,74	2878,00
-8177,75	2842,00
-8157,80	2565,00
-8137,89	2429,00
-8118,02	2306,00
-8098,19	2342,00
-8078,40	2348,00
-8058,65	2352,00
-8038,93	2422,00
-8019,26	2446,00
-7999,62	2414,00
-7980,02	2313,00
-7960,46	2152,00
-7940,94	2031,00
-7921,46	2109,00
-7902,01	2014,00
-7882,60	2072,00
-7863,23	1894,00
-7843,90	2061,00
-7824,61	2251,00
-7805,35	2353,00
-7786,13	2229,00
-7766,95	2317,00
-7747,80	2225,00
-7728,69	2164,00
-7709,62	2130,00
-7690,59	2178,00
-7671,59	2227,00
-7652,63	2238,00
-7633,70	2310,00
-7614,81	2335,00
-7595,96	2023,00
-7577,15	1907,00
-7558,37	1873,00
-7539,62	2103,00
-7520,91	2021,00
-7502,24	2193,00
-7483,60	2153,00
-7465,00	2073,00
-7446,44	1968,00
-7427,91	1688,00
-7409,41	1751,00
-7390,95	1600,00
-7372,53	1546,00
-7354,14	1571,00
-7335,78	1526,00
-7317,46	1657,00
-7299,18	1762,00
-7280,92	1844,00
-7262,71	2112,00
-7244,52	2098,00
-7226,38	2053,00
-7208,26	2099,00
-7190,18	1882,00
-7172,14	1795,00
-7154,12	1922,00
-7136,15	1911,00
-7118,20	2036,00
-7100,29	2189,00
-7082,41	2172,00
-7064,57	1944,00
-7046,76	1944,00
-7028,98	1642,00
-7011,24	1775,00
-6993,53	1450,00
-6975,85	1440,00
-6958,20	1475,00
-6940,59	1375,00
-6923,01	1228,00
-6905,46	1448,00
-6887,94	1522,00
-6870,46	171,00
-6853,01	1913,00
-6835,59	1905,00
-6818,21	1749,00
-6800,85	1597,00
-6783,53	1484,00
-6766,24	1256,00
-6748,98	1319,00
-6731,76	1211,00
-6714,56	1122,00
-6697,40	1049,00
-6680,26	1070,00
-6663,16	1282,00
-6646,09	1483,00
-6629,05	1635,00
-6612,05	1593,00
-6595,07	1539,00
-6578,13	1638,00
-6561,21	1411,00
-6544,33	1175,00
-6527,47	1086,00
-6510,65	1145,00
-6493,86	990,00
-6477,10	1109,00
-6460,36	1210,00
-6443,66	1051,00
-6426,99	1117,00
-6410,35	1035,00
-6393,74	1214,00
-6377,16	1171,00
-6360,61	1181,00
-6344,09	1198,00
-6327,59	1256,00
-6311,13	1443,00
-6294,70	1295,00
-6278,29	1377,00
-6261,92	1385,00
-6245,58	1539,00
-6229,26	1598,00
-6212,97	1507,00
-6196,72	1201,00
-6180,49	1167,00
-6164,29	963,00
-6148,12	1113,00
-6131,98	1135,00
-6115,86	864,00
-6099,78	932,00
-6083,72	814,00
-6067,69	835,00
-6051,69	924,00
-6035,72	1054,00
-6019,78	1035,00
-6003,87	1256,00
-5987,98	1236,00
-5972,12	1438,00
-5956,29	1287,00
-5940,49	1099,00
-5924,71	1198,00
-5908,96	1052,00
-5893,24	958,00
-5877,55	936,00
-5861,89	1030,00
-5846,25	876,00
-5830,64	996,00
-5815,05	992,00
-5799,50	937,00
-5783,97	970,00
-5768,47	1051,00
-5752,99	1341,00
-5737,55	1117,00
-5722,12	1236,00
-5706,73	1309,00
-5691,36	1222,00
-5676,02	1032,00
-5660,71	929,00
-5645,42	941,00
-5630,16	1084,00
-5614,92	1217,00
-5599,71	1055,00
-5584,53	1164,00
-5569,37	1059,00
-5554,24	1487,00
-5539,14	995,00
-5524,06	1014,00
-5509,01	1038,00
-5493,98	1103,00
-5478,98	1073,00
-5464,00	1041,00
-5449,05	1033,00
-5434,13	1044,00
-5419,23	1035,00
-5404,36	929,00
-5389,51	1020,00
-5374,69	1211,00
-5359,89	1355,00
-5345,12	1403,00
-5330,37	1438,00
-5315,65	1281,00
-5300,95	1075,00
-5286,28	1031,00
-5271,63	972,00
-5257,01	1049,00
-5242,41	1079,00
-5227,84	1007,00
-5213,29	1046,00
-5198,76	920,00
-5184,26	921,00
-5169,79	890,00
-5155,33	989,00
-5140,91	998,00
-5126,51	1096,00
-5112,13	1150,00
-5097,77	1031,00
-5083,44	1045,00
-5069,13	984,00
-5054,85	1009,00
-5040,59	1041,00
-5026,36	1071,00
-5012,15	1276,00
-4997,96	1080,00
-4983,80	1022,00
-4969,66	914,00
-4955,54	887,00
-4941,44	1008,00
-4927,37	1181,00
-4913,33	1167,00
-4899,30	1295,00
-4885,30	1379,00
-4871,33	1031,00
-4857,37	951,00
-4843,44	882,00
-4829,53	1062,00
-4815,65	996,00
-4801,79	844,00
-4787,95	1085,00
-4774,13	963,00
-4760,34	870,00
-4746,56	991,00
-4732,82	850,00
-4719,09	1002,00
-4705,38	1222,00
-4691,70	1257,00
-4678,04	1323,00
-4664,41	1177,00
-4650,79	1188,00
-4637,20	928,00
-4623,63	899,00
-4610,08	1111,00
-4596,56	1112,00
-4583,05	986,00
-4569,57	939,00
-4556,11	971,00
-4542,67	860,00
-4529,25	885,00
-4515,86	967,00
-4502,49	1181,00
-4489,13	1151,00
-4475,80	1265,00
-4462,49	932,00
-4449,21	999,00
-4435,94	881,00
-4422,70	890,00
-4409,47	879,00
-4396,27	1029,00
-4383,09	905,00
-4369,93	927,00
-4356,79	921,00
-4343,67	853,00
-4330,58	1040,00
-4317,50	1017,00
-4304,45	958,00
-4291,41	907,00
-4278,40	883,00
-4265,41	820,00
-4252,44	938,00
-4239,49	905,00
-4226,55	989,00
-4213,65	936,00
-4200,76	953,00
-4187,89	853,00
-4175,04	818,00
-4162,21	783,00
-4149,40	914,00
-4136,61	810,00
-4123,85	790,00
-4111,10	863,00
-4098,37	918,00
-4085,66	847,00
-4072,98	844,00
-4060,31	831,00
-4047,66	927,00
-4035,04	1121,00
-4022,43	797,00
-4009,84	819,00
-3997,27	690,00
-3984,72	832,00
-3972,19	873,00
-3959,69	805,00
-3947,20	770,00
-3934,73	772,00
-3922,27	764,00
-3909,84	758,00
-3897,43	830,00
-3885,04	876,00
-3872,67	822,00
-3860,31	772,00
-3847,98	912,00
-3835,66	773,00
-3823,36	764,00
-3811,09	756,00
-3798,83	837,00
-3786,59	844,00
-3774,37	848,00
-3762,17	693,00
-3749,98	792,00
-3737,82	849,00
-3725,67	968,00
-3713,55	846,00
-3701,44	852,00
-3689,35	810,00
-3677,28	858,00
-3665,22	806,00
-3653,19	835,00
-3641,17	798,00
-3629,18	898,00
-3617,20	811,00
-3605,24	795,00
-3593,30	805,00
-3581,37	889,00
-3569,47	874,00
-3557,58	824,00
-3545,71	917,00
-3533,86	894,00
-3522,02	805,00
-3510,21	839,00
-3498,41	897,00
-3486,63	813,00
-3474,87	792,00
-3463,12	745,00
-3451,40	829,00
-3439,69	860,00
-3428,00	759,00
-3416,33	878,00
-3404,67	750,00
-3393,03	836,00
-3381,41	921,00
-3369,81	864,00
-3358,22	791,00
-3346,66	936,00
-3335,10	863,00
-3323,57	757,00
-3312,06	859,00
-3300,56	852,00
-3289,08	783,00
-3277,61	828,00
-3266,16	836,00
-3254,73	770,00
-3243,32	872,00
-3231,92	774,00
-3220,55	833,00
-3209,18	1013,00
-3197,84	671,00
-3186,51	667,00
-3175,20	778,00
-3163,90	765,00
-3152,63	896,00
-3141,36	796,00
-3130,12	835,00
-3118,89	835,00
-3107,68	793,00
-3096,49	843,00
-3085,31	757,00
-3074,15	792,00
-3063,00	896,00
-3051,87	792,00
-3040,76	786,00
-3029,67	922,00
-3018,59	1011,00
-3007,52	964,00
-2996,48	865,00
-2985,44	786,00
-2974,43	844,00
-2963,43	799,00
-2952,45	809,00
-2941,48	822,00
-2930,53	796,00
-2919,60	731,00
-2908,68	796,00
-2897,78	828,00
-2886,89	854,00
-2876,02	868,00
-2865,17	801,00
-2854,33	822,00
-2843,50	857,00
-2832,70	789,00
-2821,90	768,00
-2811,13	823,00
-2800,37	807,00
-2789,62	712,00
-2778,89	790,00
-2768,18	857,00
-2757,48	873,00
-2746,80	906,00
-2736,13	806,00
-2725,48	917,00
-2714,84	710,00
-2704,22	868,00
-2693,61	801,00
-2683,02	883,00
-2672,45	872,00
-2661,89	796,00
-2651,34	855,00
-2640,81	864,00
-2630,30	926,00
-2619,80	771,00
-2609,31	883,00
-2598,84	731,00
-2588,39	798,00
-2577,95	818,00
-2567,52	736,00
-2557,11	783,00
-2546,71	829,00
-2536,33	806,00
-2525,97	851,00
-2515,62	861,00
-2505,28	727,00
-2494,96	768,00
-2484,65	934,00
-2474,36	1068,00
-2464,08	787,00
-2453,82	983,00
-2443,57	819,00
-2433,33	795,00
-2423,11	881,00
-2412,91	901,00
-2402,72	787,00
-2392,54	747,00
-2382,38	798,00
-2372,23	916,00
-2362,09	1782,00
-2351,97	729,00
-2341,87	715,00
-2331,78	829,00
-2321,70	930,00
-2311,64	818,00
-2301,59	844,00
-2291,55	818,00
-2281,53	887,00
-2271,53	711,00
-2261,53	890,00
-2251,55	805,00
-2241,59	832,00
-2231,64	856,00
-2221,70	741,00
-2211,78	816,00
-2201,87	809,00
-2191,97	939,00
-2182,09	811,00
-2172,22	869,00
-2162,37	788,00
-2152,53	811,00
-2142,70	768,00
-2132,89	782,00
-2123,09	834,00
-2113,30	857,00
-2103,53	764,00
-2093,77	898,00
-2084,02	755,00
-2074,29	904,00
-2064,57	872,00
-2054,86	867,00
-2045,17	919,00
-2035,49	842,00
-2025,82	754,00
-2016,17	808,00
-2006,53	824,00
-1996,91	816,00
-1987,29	756,00
-1977,69	842,00
-1968,11	758,00
-1958,53	703,00
-1948,97	789,00
-1939,42	842,00
-1929,89	728,00
-1920,37	776,00
-1910,86	741,00
-1901,36	841,00
-1891,88	782,00
-1882,41	809,00
-1872,95	867,00
-1863,51	845,00
-1854,08	837,00
-1844,66	907,00
-1835,26	955,00
-1825,86	872,00
-1816,48	746,00
-1807,11	859,00
-1797,76	790,00
-1788,42	889,00
-1779,09	785,00
-1769,77	807,00
-1760,47	978,00
-1751,17	746,00
-1741,89	736,00
-1732,63	807,00
-1723,37	976,00
-1714,13	881,00
-1704,90	787,00
-1695,68	957,00
-1686,48	718,00
-1677,29	670,00
-1668,11	915,00
-1658,94	693,00
-1649,78	864,00
-1640,64	886,00
-1631,51	789,00
-1622,39	838,00
-1613,28	824,00
-1604,19	918,00
-1595,10	808,00
-1586,03	774,00
-1576,97	892,00
-1567,93	805,00
-1558,89	905,00
-1549,87	847,00
-1540,86	739,00
-1531,86	796,00
-1522,87	749,00
-1513,90	901,00
-1504,93	839,00
-1495,98	941,00
-1487,04	879,00
-1478,12	752,00
-1469,20	882,00
-1460,30	836,00
-1451,40	957,00
-1442,52	854,00
-1433,65	947,00
-1424,80	832,00
-1415,95	822,00
-1407,12	999,00
-1398,30	781,00
-1389,48	871,00
-1380,69	728,00
-1371,90	742,00
-1363,12	883,00
-1354,36	928,00
-1345,60	832,00
-1336,86	819,00
-1328,13	1006,00
-1319,41	861,00
-1310,70	806,00
-1302,01	769,00
-1293,32	794,00
-1284,65	753,00
-1275,99	848,00
-1267,33	990,00
-1258,69	873,00
-1250,06	789,00
-1241,45	746,00
-1232,84	1011,00
-1224,25	841,00
-1215,66	897,00
-1207,09	810,00
-1198,53	854,00
-1189,97	779,00
-1181,43	870,00
-1172,91	801,00
-1164,39	989,00
-1155,88	741,00
-1147,38	657,00
-1138,90	763,00
-1130,43	745,00
-1121,96	833,00
-1113,51	835,00
-1105,07	803,00
-1096,64	854,00
-1088,22	865,00
-1079,81	1011,00
-1071,41	873,00
-1063,02	759,00
-1054,65	870,00
-1046,28	867,00
-1037,92	925,00
-1029,58	853,00
-1021,24	923,00
-1012,92	1046,00
-1004,61	860,00
-996,30	1071,00
-988,01	771,00
-979,73	825,00
-971,46	942,00
-963,20	797,00
-954,95	710,00
-946,71	818,00
-938,48	872,00
-930,26	878,00
-922,06	837,00
-913,86	791,00
-905,67	766,00
-897,49	947,00
-889,33	709,00
-881,17	954,00
-873,02	902,00
-864,89	732,00
-856,76	785,00
-848,65	899,00
-840,54	947,00
-832,45	864,00
-824,36	772,00
-816,29	754,00
-808,22	814,00
-800,17	854,00
-792,12	840,00
-784,09	930,00
-776,06	799,00
-768,05	777,00
-760,04	860,00
-752,05	849,00
-744,07	780,00
-736,09	898,00
-728,13	714,00
-720,17	843,00
-712,23	846,00
-704,29	774,00
-696,37	842,00
-688,45	893,00
-680,55	783,00
-672,65	780,00
-664,77	799,00
-656,89	779,00
-649,03	801,00
-641,17	912,00
-633,32	870,00
-625,49	880,00
-617,66	777,00
-609,84	789,00
-602,03	738,00
-594,23	853,00
-586,45	872,00
-578,67	772,00
-570,90	867,00
-563,14	781,00
-555,39	861,00
-547,65	842,00
-539,91	760,00
-532,19	850,00
-524,48	908,00
-516,78	725,00
-509,08	874,00
-501,40	745,00
-493,72	892,00
-486,06	757,00
-478,40	892,00
-470,76	747,00
-463,12	764,00
-455,49	757,00
-447,87	725,00
-440,26	860,00
-432,66	768,00
-425,07	881,00
-417,49	982,00
-409,92	741,00
-402,35	742,00
-394,80	650,00
-387,25	936,00
-379,72	898,00
-372,19	842,00
-364,67	897,00
-357,17	853,00
-349,67	843,00
-342,18	833,00
-334,69	850,00
-327,22	865,00
-319,76	812,00
-312,30	776,00
-304,86	784,00
-297,42	913,00
-290,00	800,00
-282,58	816,00
-275,17	902,00
-267,77	978,00
-260,37	882,00
-252,99	942,00
-245,62	944,00
-238,25	884,00
-230,90	845,00
-223,55	1000,00
-216,21	869,00
-208,88	1131,00
-201,56	926,00
-194,25	933,00
-186,94	991,00
-179,65	915,00
-172,36	1077,00
-165,08	1053,00
-157,81	1127,00
-150,55	1269,00
-143,30	1215,00
-136,06	1165,00
-128,82	1227,00
-121,60	1211,00
-114,38	1401,00
-107,17	1432,00
-99,97	1604,00
-92,78	1622,00
-85,60	1761,00
-78,42	1926,00
-71,25	2092,00
-64,10	2228,00
-56,95	2487,00
-49,81	2817,00
-42,67	3481,00
-35,55	4009,00
-28,43	5117,00
-21,33	7947,00
-14,23	24638,00
-7,14	57498,00
-0,05	57284,00
7,02	57012,00
14,09	57319,00
21,14	21137,00
28,19	9237,00
35,23	6215,00
42,27	5057,00
49,29	4170,00
56,31	3596,00
63,32	3221,00
70,32	2765,00
77,31	2564,00
84,29	2164,00
91,27	2107,00
98,23	2012,00
105,19	1899,00
112,14	2119,00
119,09	2853,00
126,02	4199,00
132,95	4751,00
139,87	4895,00
146,78	4959,00
153,68	4811,00
160,58	4594,00
167,46	4561,00
174,34	4631,00
181,21	4638,00
188,08	4524,00
194,93	4670,00
201,78	4504,00
208,62	4605,00
215,45	4592,00
222,27	4587,00
229,09	4560,00
235,90	4343,00
242,70	4417,00
249,49	4485,00
256,27	4292,00
263,05	4259,00
269,82	4221,00
276,58	4205,00
283,33	4105,00
290,08	3945,00
296,82	3878,00
303,55	3784,00
310,27	3795,00
316,98	3900,00
323,69	3851,00
330,39	3780,00
337,08	3777,00
343,76	3889,00
350,44	3815,00
357,11	3657,00
363,77	3625,00
370,42	3668,00
377,07	3746,00
383,71	3693,00
390,34	3776,00
396,96	3807,00
403,58	3755,00
410,19	3941,00
416,79	3954,00
423,38	4029,00
429,97	3961,00
436,55	3800,00
443,12	4035,00
449,68	4045,00
456,24	3911,00
462,79	3789,00
469,33	3547,00
475,86	3515,00
482,39	3453,00
488,91	3372,00
495,42	3314,00
501,93	3245,00
508,42	3202,00
514,91	3255,00
521,40	3192,00
527,87	3200,00
534,34	3117,00
540,80	3160,00
547,25	3268,00
553,70	3098,00
560,14	3197,00
566,57	3152,00
573,00	3204,00
579,41	3275,00
585,83	3237,00
592,23	3346,00
598,62	3427,00
605,01	3335,00
611,40	3557,00
617,77	3436,00
624,14	3379,00
630,50	3231,00
636,85	3122,00
643,20	3097,00
649,54	2883,00
655,87	2829,00
662,20	2834,00
668,52	3001,00
674,83	2966,00
681,13	2843,00
687,43	2862,00
693,72	2700,00
700,00	2739,00
706,28	2764,00
712,55	2771,00
718,81	2915,00
725,07	2736,00
731,32	2755,00
737,56	2817,00
743,79	2762,00
750,02	2885,00
756,24	2679,00
762,46	2682,00
768,67	2850,00
774,87	2605,00
781,06	2617,00
787,25	2676,00
793,43	2639,00
799,60	2592,00
805,77	2820,00
811,93	2643,00
818,08	2733,00
824,23	2630,00
830,37	2781,00
836,50	2614,00
842,63	2727,00
848,75	2677,00
854,87	2756,00
860,97	2786,00
867,07	2645,00
873,17	2783,00
879,25	2776,00
885,33	2819,00
891,41	2813,00
897,47	2784,00
903,53	2551,00
909,59	2745,00
915,63	2645,00
921,67	2621,00
927,71	2613,00
933,74	2653,00
939,76	2400,00
945,77	2480,00
951,78	2598,00
957,78	2400,00
963,78	2536,00
969,77	2429,00
975,75	2416,00
981,72	2465,00
987,69	3898,00
993,66	2603,00
999,61	2634,00
1005,56	2554,00
1011,51	2564,00
1017,44	2463,00
1023,37	2589,00
1029,30	2510,00
1035,22	2525,00
1041,13	2551,00
1047,03	2822,00
1052,93	3298,00
1058,83	4620,00
1064,71	5137,00
1070,59	4349,00
1076,47	3596,00
1082,33	3202,00
1088,20	3126,00
1094,05	2877,00
1099,90	2753,00
1105,74	2675,00
1111,58	2689,00
1117,41	3109,00
1123,23	3899,00
1129,05	4849,00
1134,86	4479,00
1140,67	3350,00
1146,47	2856,00
1152,26	2680,00
1158,05	2478,00
1163,83	2700,00
1169,60	2832,00
1175,37	2679,00
1181,13	2666,00
1186,89	2306,00
1192,64	2340,00
1198,38	2496,00
1204,12	2334,00
1209,85	2285,00
1215,58	2380,00
1221,30	2388,00
1227,02	2396,00
1232,72	2334,00
1238,43	2304,00
1244,12	2383,00
1249,81	2351,00
1255,50	2492,00
1261,17	2562,00
1266,85	2533,00
1272,51	2503,00
1278,17	2739,00
1283,83	3084,00
1289,47	4581,00
1295,12	6046,00
1300,75	5375,00
1306,38	4229,00
1312,01	3386,00
1317,63	2896,00
1323,24	2713,00
1328,85	2626,00
1334,45	2516,00
1340,04	2487,00
1345,63	2368,00
1351,22	2573,00
1356,80	2541,00
1362,37	2632,00
1367,93	2740,00
1373,49	2766,00
1379,05	2537,00
1384,60	2520,00
1390,14	2523,00
1395,68	2543,00
1401,21	2588,00
1406,74	2685,00
1412,26	3413,00
1417,77	3893,00
1423,28	3811,00
1428,78	4162,00
1434,28	5143,00
1439,77	5970,00
1445,26	5848,00
1450,74	5478,00
1456,22	5054,00
1461,68	4871,00
1467,15	4553,00
1472,61	3869,00
1478,06	3516,00
1483,51	3013,00
1488,95	2527,00
1494,38	2712,00
1499,81	2379,00
1505,24	2252,00
1510,65	2322,00
1516,07	2195,00
1521,48	2202,00
1526,88	2129,00
1532,27	2202,00
1537,67	2128,00
1543,05	2079,00
1548,43	2058,00
1553,81	2196,00
1559,18	1894,00
1564,54	2025,00
1569,90	1941,00
1575,25	1994,00
1580,60	1837,00
1585,94	2025,00
1591,28	1902,00
1596,61	1923,00
1601,93	1904,00
1607,25	2016,00
1612,57	1971,00
1617,88	1953,00
1623,18	1954,00
1628,48	1845,00
1633,77	1778,00
1639,06	1912,00
1644,34	1909,00
1649,62	1801,00
1654,89	1916,00
1660,16	1832,00
1665,42	2029,00
1670,67	1796,00
1675,92	1682,00
1681,17	1764,00
1686,41	1824,00
1691,64	1886,00
1696,87	1798,00
1702,10	1735,00
1707,32	1854,00
1712,53	1742,00
1717,74	1748,00
1722,94	1871,00
1728,14	1719,00
1733,33	1566,00
1738,52	1596,00
1743,70	1659,00
1748,88	1717,00
1754,05	1730,00
1759,22	1544,00
1764,38	1946,00
1769,53	1718,00
1774,69	1713,00
1779,83	1655,00
1784,97	1708,00
1790,11	1541,00
1795,24	1627,00
1800,36	1623,00
1805,48	1569,00
1810,60	1704,00
1815,71	1582,00
1820,82	1503,00
1825,92	1634,00
1831,01	1564,00
1836,10	1598,00
1841,19	1603,00
1846,26	1482,00
1851,34	1619,00
1856,41	1541,00
1861,47	1528,00
1866,53	1646,00
1871,59	1566,00
1876,64	1560,00
1881,68	1566,00
1886,72	1567,00
1891,76	1493,00
1896,79	1493,00
1901,81	1353,00
1906,83	1571,00
1911,85	1432,00
1916,86	1488,00
1921,86	1375,00
1926,86	1380,00
1931,86	1471,00
1936,85	1412,00
1941,83	1449,00
1946,81	1403,00
1951,79	1328,00
1956,76	1367,00
1961,72	1262,00
1966,68	1397,00
1971,64	1504,00
1976,59	1418,00
1981,54	1375,00
1986,48	1470,00
1991,42	1169,00
1996,35	1613,00
2001,27	1376,00
2006,20	1333,00
2011,11	1453,00
2016,03	1331,00
2020,93	1301,00
2025,84	1428,00
2030,73	1346,00
2035,63	1290,00
2040,52	1311,00
2045,40	1336,00
2050,28	1288,00
2055,15	1341,00
2060,02	1225,00
2064,89	1377,00
2069,75	1361,00
2074,60	1420,00
2079,46	1194,00
2084,30	1312,00
2089,14	1230,00
2093,98	1395,00
2098,81	1312,00
2103,64	1296,00
2108,46	1348,00
2113,28	1378,00
2118,09	1342,00
2122,90	1317,00
2127,70	1325,00
2132,50	1348,00
2137,30	1231,00
2142,09	1253,00
2146,87	1198,00
2151,66	1281,00
2156,43	1293,00
2161,20	1234,00
2165,97	1355,00
2170,73	1188,00
2175,49	1346,00
2180,24	1398,00
2184,99	1541,00
2189,74	1464,00
2194,48	1334,00
2199,21	1350,00
2203,94	1224,00
2208,67	1157,00
2213,39	1117,00
2218,11	1293,00
2222,82	1193,00
2227,53	1281,00
2232,23	1323,00
2236,93	1296,00
2241,63	1186,00
2246,32	1366,00
2251,00	1199,00
2255,68	1187,00
2260,36	1246,00
2265,03	1294,00
2269,70	1302,00
2274,36	1188,00
2279,02	1267,00
2283,68	1205,00
2288,33	1229,00
2292,97	1233,00
2297,61	1250,00
2302,25	1213,00
2306,88	1186,00
2311,51	1036,00
2316,14	1159,00
2320,75	1111,00
2325,37	1104,00
2329,98	1157,00
2334,59	1113,00
2339,19	1129,00
2343,79	1100,00
2348,38	1128,00
2352,97	1029,00
2357,55	1121,00
2362,13	1175,00
2366,71	1050,00
2371,28	1237,00
2375,85	1185,00
2380,41	1201,00
2384,97	1059,00
2389,52	1188,00
2394,07	1201,00
2398,62	1149,00
2403,16	1259,00
2407,70	1006,00
2412,23	1068,00
2416,76	1267,00
2421,29	1130,00
2425,81	1217,00
2430,32	1189,00
2434,84	973,00
2439,34	1109,00
2443,85	1257,00
2448,35	1128,00
2452,84	1080,00
2457,33	1158,00
2461,82	1054,00
2466,30	1068,00
2470,78	1113,00
2475,25	1067,00
2479,72	1142,00
2484,19	1227,00
2488,65	1154,00
2493,11	1089,00
2497,56	1265,00
2502,01	1054,00
2506,46	1094,00
2510,90	1061,00
2515,34	1040,00
2519,77	1127,00
2524,20	1135,00
2528,62	1168,00
2533,04	1215,00
2537,46	1132,00
2541,87	1137,00
2546,28	1061,00
2550,68	1150,00
2555,08	1140,00
2559,48	1106,00
2563,87	958,00
2568,26	1014,00
2572,64	1110,00
2577,02	1097,00
2581,40	1034,00
2585,77	1160,00
2590,14	1078,00
2594,50	1100,00
2598,86	1085,00
2603,22	1097,00
2607,57	1088,00
2611,92	1165,00
2616,26	1298,00
2620,60	1253,00
2624,94	1083,00
2629,27	1111,00
2633,60	1036,00
2637,92	1228,00
2642,24	1277,00
2646,56	1228,00
2650,87	1012,00
2655,18	1218,00
2659,48	1070,00
2663,78	1169,00
2668,08	1144,00
2672,37	1230,00
2676,66	1156,00
2680,95	1110,00
2685,23	1287,00
2689,50	1163,00
2693,78	1328,00
2698,05	1227,00
2702,31	1237,00
2706,57	1369,00
2710,83	1390,00
2715,08	1466,00
2719,33	1539,00
2723,58	1507,00
2727,82	1499,00
2732,06	1394,00
2736,29	1371,00
2740,53	1453,00
2744,75	1312,00
2748,97	1252,00
2753,19	1256,00
2757,41	1339,00
2761,62	1357,00
2765,83	1314,00
2770,03	1264,00
2774,23	1342,00
2778,43	1263,00
2782,62	1338,00
2786,81	1349,00
2791,00	1409,00
2795,18	1434,00
2799,35	1474,00
2803,53	1415,00
2807,70	1462,00
2811,86	1580,00
2816,03	1787,00
2820,19	1729,00
2824,34	1731,00
2828,49	2022,00
2832,64	2217,00
2836,78	2719,00
2840,92	3079,00
2845,06	3722,00
2849,19	4210,00
2853,32	4253,00
2857,45	4147,00
2861,57	4227,00
2865,69	4054,00
2869,80	3956,00
2873,91	4213,00
2878,02	4707,00
2882,12	5108,00
2886,22	5019,00
2890,32	4702,00
2894,41	4340,00
2898,50	3976,00
2902,58	3681,00
2906,67	3472,00
2910,74	3179,00
2914,82	3019,00
2918,89	2956,00
2922,96	2582,00
2927,02	2459,00
2931,08	2412,00
2935,13	2137,00
2939,19	2156,00
2943,24	2032,00
2947,28	1967,00
2951,32	1658,00
2955,36	1603,00
2959,40	1619,00
2963,43	1502,00
2967,46	1385,00
2971,48	1422,00
2975,50	1295,00
2979,52	1390,00
2983,53	1247,00
2987,54	1236,00
2991,55	1213,00
2995,55	1212,00
2999,55	1102,00
3003,54	1169,00
3007,54	1142,00
3011,53	1105,00
3015,51	1078,00
3019,49	1122,00
3023,47	968,00
3027,45	1087,00
3031,42	922,00
3035,39	1033,00
3039,35	1023,00
3043,31	1051,00
3047,27	1103,00
3051,22	1079,00
3055,17	1022,00
3059,12	933,00
3063,06	1050,00
3067,00	893,00
3070,94	874,00
3074,87	1035,00
3078,80	878,00
3082,73	965,00
3086,65	879,00
3090,57	907,00
3094,49	892,00
3098,40	872,00
3102,31	882,00
3106,22	940,00
3110,12	901,00
3114,02	849,00
3117,92	956,00
3121,81	914,00
3125,70	876,00
3129,58	808,00
3133,47	829,00
3137,34	929,00
3141,22	936,00
3145,09	924,00
3148,96	955,00
3152,83	917,00
3156,69	865,00
3160,55	783,00
3164,40	934,00
3168,26	895,00
3172,10	966,00
3175,95	818,00
3179,79	962,00
3183,63	936,00
3187,47	894,00
3191,30	898,00
3195,13	902,00
3198,95	783,00
3202,78	837,00
3206,60	748,00
3210,41	858,00
3214,23	894,00
3218,03	868,00
3221,84	919,00
3225,64	851,00
3229,44	816,00
3233,24	901,00
3237,03	878,00
3240,82	830,00
3244,61	807,00
3248,39	867,00
3252,17	886,00
3255,95	1010,00
3259,72	897,00
3263,49	1000,00
3267,26	812,00
3271,03	850,00
3274,79	770,00
3278,54	859,00
3282,30	777,00
3286,05	950,00
3289,80	904,00
3293,54	901,00
3297,29	968,00
3301,02	905,00
3304,76	868,00
3308,49	868,00
3312,22	740,00
3315,95	834,00
3319,67	811,00
3323,39	989,00
3327,10	936,00
3330,82	809,00
3334,53	929,00
3338,24	880,00
3341,94	817,00
3345,64	916,00
3349,34	811,00
3353,03	923,00
3356,72	889,00
3360,41	802,00
3364,10	762,00
3367,78	817,00
3371,46	794,00
3375,13	828,00
3378,81	891,00
3382,48	805,00
3386,14	871,00
3389,81	893,00
3393,47	877,00
3397,12	980,00
3400,78	809,00
3404,43	799,00
3408,08	915,00
3411,72	747,00
3415,36	777,00
3419,00	853,00
3422,64	786,00
3426,27	900,00
3429,90	858,00
3433,53	731,00
3437,15	807,00
3440,77	765,00
3444,39	819,00
3448,00	842,00
3451,62	810,00
3455,22	864,00
3458,83	750,00
3462,43	864,00
3466,03	945,00
3469,63	745,00
3473,22	799,00
3476,81	720,00
3480,40	863,00
3483,99	805,00
3487,57	810,00
3491,15	849,00
3494,72	787,00
3498,29	862,00
3501,86	797,00
3505,43	789,00
3508,99	775,00
3512,56	709,00
3516,11	861,00
3519,67	749,00
3523,22	823,00
3526,77	667,00
3530,32	925,00
3533,86	868,00
3537,40	905,00
3540,94	867,00
3544,47	842,00
3548,00	685,00
3551,53	921,00
3555,06	744,00
3558,58	868,00
3562,10	873,00
3565,62	719,00
3569,13	812,00
3572,64	895,00
3576,15	662,00
3579,66	852,00
3583,16	779,00
3586,66	881,00
3590,16	734,00
3593,65	790,00
3597,14	709,00
3600,63	756,00
3604,11	806,00
3607,60	734,00
3611,08	851,00
3614,55	800,00
3618,03	753,00
3621,50	778,00
3624,97	747,00
3628,43	759,00
3631,90	750,00
3635,36	720,00
3638,81	741,00
3642,27	779,00
3645,72	751,00
3649,17	720,00
3652,61	672,00
3656,06	674,00
3659,50	778,00
3662,93	731,00
3666,37	837,00
3669,80	923,00
3673,23	880,00
3676,65	810,00
3680,08	808,00
3683,50	719,00
3686,92	718,00
3690,33	720,00
3693,74	667,00
3697,15	738,00
3700,56	808,00
3703,96	835,00
3707,36	548,00
3710,76	664,00
3714,16	630,00
3717,55	767,00
3720,94	775,00
3724,33	658,00
3727,71	747,00
3731,10	751,00
3734,48	749,00
3737,85	658,00
3741,23	711,00
3744,60	710,00
3747,97	641,00
3751,33	802,00
3754,69	708,00
3758,05	717,00
3761,41	739,00
3764,77	656,00
3768,12	663,00
3771,47	560,00
3774,82	730,00
3778,16	-11,00
3781,50	15,00
3784,84	6,00
3788,18	9,00
>>>>>End Processed Spectral Data<<<<<
