SpectraSuite Data File
++++++++++++++++++++++++++++++++++++
Date: Mon Jan 05 16:32:52 ICT 2026
User: Administrator
Dark Spectrum Present: Yes
Reference Spectrum Present: No
Number of Sampled Component Spectra: 1
Spectrometers: MAYP113682
Integration Time (usec): 3000000 (MAYP113682)
Spectra Averaged: 1 (MAYP113682)
Boxcar Smoothing: 0 (MAYP113682)
Correct for Electrical Dark: No (MAYP113682)
Strobe/Lamp Enabled: No (MAYP113682)
Correct for Detector Non-linearity: No (MAYP113682)
Correct for Stray Light: No (MAYP113682)
Number of Pixels in Processed Spectrum: 2068
>>>>>Begin Processed Spectral Data<<<<<
-37534,58	26,00
-37414,56	9,00
-37295,11	12,00
-37176,24	8,00
-37057,95	555,00
-36940,22	664,00
-36823,05	670,00
-36706,45	835,00
-36590,40	789,00
-36474,90	699,00
-36359,95	765,00
-36245,55	769,00
-36131,68	713,00
-36018,35	712,00
-35905,55	701,00
-35793,29	813,00
-35681,54	802,00
-35570,32	765,00
-35459,62	732,00
-35349,43	880,00
-35239,75	871,00
-35130,58	754,00
-35021,91	747,00
-34913,74	803,00
-34806,07	750,00
-34698,89	792,00
-34592,20	756,00
-34486,00	786,00
-34380,28	871,00
-34275,04	766,00
-34170,27	726,00
-34065,98	925,00
-33962,16	867,00
-33858,81	859,00
-33755,92	814,00
-33653,49	856,00
-33551,52	885,00
-33450,01	916,00
-33348,94	894,00
-33248,33	776,00
-33148,16	848,00
-33048,43	834,00
-32949,14	963,00
-32850,29	855,00
-32751,87	857,00
-32653,89	901,00
-32556,33	916,00
-32459,20	860,00
-32362,49	811,00
-32266,19	820,00
-32170,32	823,00
-32074,86	900,00
-31979,82	887,00
-31885,18	971,00
-31790,95	935,00
-31697,12	839,00
-31603,69	890,00
-31510,67	921,00
-31418,04	881,00
-31325,80	885,00
-31233,95	729,00
-31142,49	816,00
-31051,42	808,00
-30960,73	1010,00
-30870,43	922,00
-30780,50	903,00
-30690,95	832,00
-30601,77	1009,00
-30512,97	835,00
-30424,53	966,00
-30336,46	819,00
-30248,76	852,00
-30161,42	1033,00
-30074,44	814,00
-29987,81	963,00
-29901,55	989,00
-29815,63	901,00
-29730,07	866,00
-29644,86	905,00
-29560,00	932,00
-29475,48	897,00
-29391,30	852,00
-29307,47	871,00
-29223,97	875,00
-29140,81	911,00
-29057,99	936,00
-28975,50	695,00
-28893,34	916,00
-28811,51	835,00
-28730,00	907,00
-28648,82	852,00
-28567,97	928,00
-28487,43	818,00
-28407,21	768,00
-28327,32	843,00
-28247,73	1036,00
-28168,46	806,00
-28089,50	891,00
-28010,85	780,00
-27932,51	753,00
-27854,48	837,00
-27776,75	842,00
-27699,32	887,00
-27622,19	865,00
-27545,37	939,00
-27468,84	942,00
-27392,60	895,00
-27316,66	848,00
-27241,01	831,00
-27165,66	776,00
-27090,59	732,00
-27015,81	916,00
-26941,31	921,00
-26867,10	731,00
-26793,17	958,00
-26719,52	942,00
-26646,15	833,00
-26573,06	867,00
-26500,24	836,00
-26427,70	896,00
-26355,43	824,00
-26283,43	834,00
-26211,71	920,00
-26140,25	811,00
-26069,06	887,00
-25998,13	764,00
-25927,46	838,00
-25857,06	802,00
-25786,92	890,00
-25717,04	811,00
-25647,42	893,00
-25578,05	789,00
-25508,94	853,00
-25440,09	890,00
-25371,48	867,00
-25303,13	922,00
-25235,02	799,00
-25167,17	843,00
-25099,56	845,00
-25032,19	805,00
-24965,07	773,00
-24898,20	768,00
-24831,56	808,00
-24765,17	843,00
-24699,01	781,00
-24633,10	842,00
-24567,41	867,00
-24501,97	828,00
-24436,75	875,00
-24371,77	835,00
-24307,03	868,00
-24242,51	752,00
-24178,22	772,00
-24114,16	765,00
-24050,32	875,00
-23986,71	842,00
-23923,32	874,00
-23860,16	815,00
-23797,22	818,00
-23734,50	826,00
-23672,00	756,00
-23609,71	803,00
-23547,65	802,00
-23485,80	858,00
-23424,16	708,00
-23362,74	1040,00
-23301,53	842,00
-23240,54	773,00
-23179,75	732,00
-23119,17	807,00
-23058,80	801,00
-22998,64	935,00
-22938,68	787,00
-22878,93	836,00
-22819,39	673,00
-22760,04	799,00
-22700,90	792,00
-22641,96	757,00
-22583,22	806,00
-22524,68	828,00
-22466,33	852,00
-22408,19	859,00
-22350,23	721,00
-22292,48	780,00
-22234,92	837,00
-22177,55	930,00
-22120,37	943,00
-22063,38	797,00
-22006,58	799,00
-21949,98	777,00
-21893,56	787,00
-21837,33	895,00
-21781,28	859,00
-21725,42	828,00
-21669,74	855,00
-21614,25	844,00
-21558,94	862,00
-21503,81	913,00
-21448,86	932,00
-21394,10	761,00
-21339,51	790,00
-21285,10	725,00
-21230,86	795,00
-21176,81	776,00
-21122,93	834,00
-21069,22	701,00
-21015,69	781,00
-20962,33	980,00
-20909,14	745,00
-20856,13	832,00
-20803,28	843,00
-20750,61	765,00
-20698,10	744,00
-20645,76	723,00
-20593,59	1016,00
-20541,59	892,00
-20489,75	963,00
-20438,07	735,00
-20386,56	912,00
-20335,22	817,00
-20284,03	845,00
-20233,01	819,00
-20182,15	828,00
-20131,45	796,00
-20080,91	663,00
-20030,52	910,00
-19980,30	844,00
-19930,23	705,00
-19880,32	877,00
-19830,56	765,00
-19780,96	860,00
-19731,52	794,00
-19682,23	847,00
-19633,09	813,00
-19584,10	755,00
-19535,26	807,00
-19486,58	939,00
-19438,04	753,00
-19389,66	951,00
-19341,42	779,00
-19293,33	796,00
-19245,39	910,00
-19197,60	931,00
-19149,95	878,00
-19102,45	871,00
-19055,09	743,00
-19007,87	889,00
-18960,80	862,00
-18913,87	815,00
-18867,09	785,00
-18820,44	919,00
-18773,94	881,00
-18727,57	835,00
-18681,35	737,00
-18635,26	828,00
-18589,31	736,00
-18543,50	746,00
-18497,83	828,00
-18452,29	790,00
-18406,89	707,00
-18361,63	897,00
-18316,50	870,00
-18271,50	813,00
-18226,63	965,00
-18181,90	900,00
-18137,30	868,00
-18092,84	733,00
-18048,50	910,00
-18004,29	768,00
-17960,22	670,00
-17916,27	834,00
-17872,45	902,00
-17828,76	891,00
-17785,20	782,00
-17741,77	844,00
-17698,46	863,00
-17655,28	727,00
-17612,22	954,00
-17569,29	737,00
-17526,48	904,00
-17483,79	907,00
-17441,23	733,00
-17398,79	779,00
-17356,48	792,00
-17314,28	976,00
-17272,21	827,00
-17230,26	862,00
-17188,42	800,00
-17146,71	846,00
-17105,12	763,00
-17063,64	862,00
-17022,28	858,00
-16981,04	832,00
-16939,92	888,00
-16898,91	938,00
-16858,02	767,00
-16817,25	866,00
-16776,59	848,00
-16736,04	787,00
-16695,61	858,00
-16655,29	813,00
-16615,09	740,00
-16574,99	800,00
-16535,01	839,00
-16495,15	864,00
-16455,39	869,00
-16415,74	741,00
-16376,21	808,00
-16336,78	773,00
-16297,46	787,00
-16258,26	801,00
-16219,16	845,00
-16180,17	830,00
-16141,28	807,00
-16102,51	843,00
-16063,84	808,00
-16025,27	855,00
-15986,82	765,00
-15948,46	832,00
-15910,22	793,00
-15872,07	864,00
-15834,04	748,00
-15796,10	785,00
-15758,27	985,00
-15720,54	674,00
-15682,91	865,00
-15645,39	931,00
-15607,97	833,00
-15570,64	789,00
-15533,42	983,00
-15496,30	842,00
-15459,28	868,00
-15422,36	799,00
-15385,54	841,00
-15348,82	841,00
-15312,19	1001,00
-15275,66	840,00
-15239,23	843,00
-15202,90	835,00
-15166,67	845,00
-15130,53	911,00
-15094,48	769,00
-15058,54	746,00
-15022,68	757,00
-14986,93	777,00
-14951,26	861,00
-14915,69	884,00
-14880,22	785,00
-14844,84	860,00
-14809,55	829,00
-14774,35	906,00
-14739,25	755,00
-14704,24	845,00
-14669,32	824,00
-14634,49	780,00
-14599,75	848,00
-14565,10	790,00
-14530,55	841,00
-14496,08	805,00
-14461,70	837,00
-14427,41	864,00
-14393,21	719,00
-14359,10	769,00
-14325,07	887,00
-14291,14	707,00
-14257,29	850,00
-14223,52	830,00
-14189,85	965,00
-14156,26	839,00
-14122,76	869,00
-14089,34	751,00
-14056,01	872,00
-14022,76	776,00
-13989,60	869,00
-13956,52	915,00
-13923,53	843,00
-13890,62	805,00
-13857,79	713,00
-13825,05	774,00
-13792,39	718,00
-13759,81	779,00
-13727,31	792,00
-13694,90	829,00
-13662,57	901,00
-13630,31	858,00
-13598,14	846,00
-13566,05	743,00
-13534,05	804,00
-13502,12	818,00
-13470,27	812,00
-13438,50	915,00
-13406,80	763,00
-13375,19	797,00
-13343,66	849,00
-13312,20	878,00
-13280,83	793,00
-13249,53	852,00
-13218,30	682,00
-13187,16	726,00
-13156,09	1002,00
-13125,10	839,00
-13094,18	845,00
-13063,34	791,00
-13032,58	725,00
-13001,89	848,00
-12971,28	878,00
-12940,74	738,00
-12910,27	884,00
-12879,88	863,00
-12849,57	840,00
-12819,33	801,00
-12789,16	877,00
-12759,06	868,00
-12729,04	791,00
-12699,09	2215,00
-12669,21	767,00
-12639,41	931,00
-12609,68	773,00
-12580,02	808,00
-12550,43	836,00
-12520,91	711,00
-12491,46	776,00
-12462,08	679,00
-12432,77	844,00
-12403,54	811,00
-12374,37	738,00
-12345,27	857,00
-12316,24	779,00
-12287,29	907,00
-12258,40	809,00
-12229,57	910,00
-12200,82	789,00
-12172,14	868,00
-12143,52	662,00
-12114,97	777,00
-12086,49	813,00
-12058,07	961,00
-12029,73	883,00
-12001,44	971,00
-11973,23	849,00
-11945,08	830,00
-11917,00	853,00
-11888,98	683,00
-11861,03	972,00
-11833,15	830,00
-11805,32	900,00
-11777,57	784,00
-11749,88	886,00
-11722,25	734,00
-11694,69	777,00
-11667,19	843,00
-11639,75	890,00
-11612,38	774,00
-11585,07	826,00
-11557,83	806,00
-11530,65	984,00
-11503,53	775,00
-11476,47	832,00
-11449,48	805,00
-11422,54	909,00
-11395,67	875,00
-11368,86	819,00
-11342,11	790,00
-11315,43	854,00
-11288,80	774,00
-11262,23	893,00
-11235,73	880,00
-11209,28	988,00
-11182,90	813,00
-11156,57	811,00
-11130,31	1042,00
-11104,10	772,00
-11077,96	801,00
-11051,87	775,00
-11025,84	767,00
-10999,87	777,00
-10973,96	873,00
-10948,11	802,00
-10922,31	889,00
-10896,58	854,00
-10870,90	979,00
-10845,28	931,00
-10819,71	744,00
-10794,20	952,00
-10768,75	892,00
-10743,36	889,00
-10718,02	880,00
-10692,74	864,00
-10667,52	790,00
-10642,35	764,00
-10617,24	884,00
-10592,18	973,00
-10567,18	765,00
-10542,23	942,00
-10517,34	856,00
-10492,51	983,00
-10467,72	798,00
-10443,00	1013,00
-10418,32	1007,00
-10393,70	985,00
-10369,14	899,00
-10344,63	884,00
-10320,17	1041,00
-10295,77	917,00
-10271,42	958,00
-10247,12	1029,00
-10222,88	1004,00
-10198,68	874,00
-10174,54	981,00
-10150,46	1168,00
-10126,42	1164,00
-10102,44	1033,00
-10078,51	1027,00
-10054,63	1124,00
-10030,80	1085,00
-10007,03	1157,00
-9983,30	1204,00
-9959,63	1196,00
-9936,01	1279,00
-9912,44	1265,00
-9888,92	1264,00
-9865,44	1160,00
-9842,02	1227,00
-9818,65	1402,00
-9795,33	1217,00
-9772,06	1306,00
-9748,84	1298,00
-9725,67	1352,00
-9702,55	1564,00
-9679,47	1551,00
-9656,45	1709,00
-9633,47	1464,00
-9610,55	1601,00
-9587,67	1811,00
-9564,84	2022,00
-9542,06	1997,00
-9519,32	2189,00
-9496,64	2369,00
-9474,00	2280,00
-9451,41	2360,00
-9428,87	2405,00
-9406,37	2617,00
-9383,92	2275,00
-9361,52	2259,00
-9339,17	2500,00
-9316,86	2778,00
-9294,60	3071,00
-9272,38	3214,00
-9250,21	3624,00
-9228,09	3653,00
-9206,01	3598,00
-9183,98	3261,00
-9162,00	3078,00
-9140,06	3232,00
-9118,16	3030,00
-9096,31	3192,00
-9074,51	3423,00
-9052,75	3541,00
-9031,04	3295,00
-9009,37	3116,00
-8987,74	2804,00
-8966,16	2578,00
-8944,63	2370,00
-8923,14	2459,00
-8901,69	2314,00
-8880,29	2438,00
-8858,93	2804,00
-8837,61	3074,00
-8816,34	3136,00
-8795,11	3169,00
-8773,92	2870,00
-8752,78	2707,00
-8731,68	2440,00
-8710,62	2634,00
-8689,61	2567,00
-8668,63	2715,00
-8647,70	2978,00
-8626,82	2894,00
-8605,97	2977,00
-8585,17	2630,00
-8564,41	2488,00
-8543,69	2408,00
-8523,01	2144,00
-8502,37	2535,00
-8481,78	2434,00
-8461,23	2392,00
-8440,71	2796,00
-8420,24	2872,00
-8399,81	3066,00
-8379,42	2849,00
-8359,08	2764,00
-8338,77	2443,00
-8318,50	2275,00
-8298,27	2210,00
-8278,09	2459,00
-8257,94	2564,00
-8237,83	2649,00
-8217,76	2722,00
-8197,74	2792,00
-8177,75	2681,00
-8157,80	2418,00
-8137,89	2336,00
-8118,02	2204,00
-8098,19	2317,00
-8078,40	2264,00
-8058,65	2306,00
-8038,93	2368,00
-8019,26	2366,00
-7999,62	2333,00
-7980,02	2191,00
-7960,46	2065,00
-7940,94	1958,00
-7921,46	1933,00
-7902,01	1944,00
-7882,60	2161,00
-7863,23	2048,00
-7843,90	1954,00
-7824,61	2162,00
-7805,35	2330,00
-7786,13	2268,00
-7766,95	2283,00
-7747,80	2221,00
-7728,69	2110,00
-7709,62	2064,00
-7690,59	2069,00
-7671,59	2301,00
-7652,63	2208,00
-7633,70	2241,00
-7614,81	2253,00
-7595,96	2109,00
-7577,15	1930,00
-7558,37	1934,00
-7539,62	2018,00
-7520,91	2061,00
-7502,24	2087,00
-7483,60	2171,00
-7465,00	2019,00
-7446,44	1989,00
-7427,91	1575,00
-7409,41	1615,00
-7390,95	1594,00
-7372,53	1479,00
-7354,14	1538,00
-7335,78	1562,00
-7317,46	1669,00
-7299,18	1619,00
-7280,92	1906,00
-7262,71	2103,00
-7244,52	2037,00
-7226,38	2102,00
-7208,26	1977,00
-7190,18	1983,00
-7172,14	1813,00
-7154,12	1940,00
-7136,15	1780,00
-7118,20	2023,00
-7100,29	2070,00
-7082,41	2130,00
-7064,57	1945,00
-7046,76	1877,00
-7028,98	1596,00
-7011,24	1786,00
-6993,53	1362,00
-6975,85	1397,00
-6958,20	1395,00
-6940,59	1304,00
-6923,01	1241,00
-6905,46	1490,00
-6887,94	1486,00
-6870,46	1984,00
-6853,01	1936,00
-6835,59	1790,00
-6818,21	1608,00
-6800,85	1544,00
-6783,53	1411,00
-6766,24	1206,00
-6748,98	1294,00
-6731,76	1135,00
-6714,56	1170,00
-6697,40	1028,00
-6680,26	1041,00
-6663,16	1194,00
-6646,09	1451,00
-6629,05	1630,00
-6612,05	1560,00
-6595,07	1522,00
-6578,13	1592,00
-6561,21	1319,00
-6544,33	1302,00
-6527,47	1033,00
-6510,65	1044,00
-6493,86	897,00
-6477,10	1003,00
-6460,36	1168,00
-6443,66	1116,00
-6426,99	1028,00
-6410,35	1130,00
-6393,74	1171,00
-6377,16	1102,00
-6360,61	1280,00
-6344,09	1146,00
-6327,59	1265,00
-6311,13	1391,00
-6294,70	1300,00
-6278,29	1321,00
-6261,92	1455,00
-6245,58	1520,00
-6229,26	1530,00
-6212,97	1468,00
-6196,72	1216,00
-6180,49	1232,00
-6164,29	1007,00
-6148,12	1034,00
-6131,98	1099,00
-6115,86	916,00
-6099,78	934,00
-6083,72	880,00
-6067,69	906,00
-6051,69	883,00
-6035,72	930,00
-6019,78	1053,00
-6003,87	1208,00
-5987,98	1221,00
-5972,12	1311,00
-5956,29	1189,00
-5940,49	1032,00
-5924,71	1242,00
-5908,96	997,00
-5893,24	1027,00
-5877,55	1045,00
-5861,89	1127,00
-5846,25	823,00
-5830,64	1003,00
-5815,05	999,00
-5799,50	930,00
-5783,97	1108,00
-5768,47	1053,00
-5752,99	1277,00
-5737,55	1103,00
-5722,12	1215,00
-5706,73	1274,00
-5691,36	1201,00
-5676,02	1011,00
-5660,71	941,00
-5645,42	984,00
-5630,16	1048,00
-5614,92	1145,00
-5599,71	951,00
-5584,53	1129,00
-5569,37	1126,00
-5554,24	1354,00
-5539,14	1036,00
-5524,06	1027,00
-5509,01	1110,00
-5493,98	1076,00
-5478,98	970,00
-5464,00	1049,00
-5449,05	897,00
-5434,13	1020,00
-5419,23	893,00
-5404,36	945,00
-5389,51	1029,00
-5374,69	1232,00
-5359,89	1318,00
-5345,12	1411,00
-5330,37	1312,00
-5315,65	1204,00
-5300,95	1166,00
-5286,28	1077,00
-5271,63	947,00
-5257,01	1045,00
-5242,41	1035,00
-5227,84	916,00
-5213,29	969,00
-5198,76	928,00
-5184,26	954,00
-5169,79	960,00
-5155,33	1082,00
-5140,91	1048,00
-5126,51	1066,00
-5112,13	1061,00
-5097,77	1056,00
-5083,44	1130,00
-5069,13	904,00
-5054,85	903,00
-5040,59	1066,00
-5026,36	977,00
-5012,15	1132,00
-4997,96	1109,00
-4983,80	1023,00
-4969,66	905,00
-4955,54	899,00
-4941,44	1040,00
-4927,37	1051,00
-4913,33	1272,00
-4899,30	1264,00
-4885,30	1293,00
-4871,33	981,00
-4857,37	929,00
-4843,44	798,00
-4829,53	1002,00
-4815,65	1094,00
-4801,79	868,00
-4787,95	1096,00
-4774,13	1003,00
-4760,34	940,00
-4746,56	1045,00
-4732,82	856,00
-4719,09	995,00
-4705,38	1225,00
-4691,70	1256,00
-4678,04	1336,00
-4664,41	1169,00
-4650,79	1226,00
-4637,20	957,00
-4623,63	933,00
-4610,08	1059,00
-4596,56	1094,00
-4583,05	997,00
-4569,57	872,00
-4556,11	1010,00
-4542,67	904,00
-4529,25	945,00
-4515,86	956,00
-4502,49	1135,00
-4489,13	1206,00
-4475,80	1182,00
-4462,49	926,00
-4449,21	1025,00
-4435,94	861,00
-4422,70	912,00
-4409,47	895,00
-4396,27	1049,00
-4383,09	997,00
-4369,93	919,00
-4356,79	775,00
-4343,67	894,00
-4330,58	961,00
-4317,50	1036,00
-4304,45	1085,00
-4291,41	1000,00
-4278,40	939,00
-4265,41	774,00
-4252,44	945,00
-4239,49	932,00
-4226,55	1034,00
-4213,65	950,00
-4200,76	988,00
-4187,89	890,00
-4175,04	859,00
-4162,21	864,00
-4149,40	855,00
-4136,61	849,00
-4123,85	820,00
-4111,10	797,00
-4098,37	910,00
-4085,66	863,00
-4072,98	893,00
-4060,31	855,00
-4047,66	1021,00
-4035,04	1133,00
-4022,43	853,00
-4009,84	924,00
-3997,27	762,00
-3984,72	909,00
-3972,19	854,00
-3959,69	837,00
-3947,20	849,00
-3934,73	876,00
-3922,27	817,00
-3909,84	772,00
-3897,43	821,00
-3885,04	905,00
-3872,67	811,00
-3860,31	795,00
-3847,98	982,00
-3835,66	889,00
-3823,36	861,00
-3811,09	804,00
-3798,83	898,00
-3786,59	835,00
-3774,37	873,00
-3762,17	707,00
-3749,98	824,00
-3737,82	804,00
-3725,67	996,00
-3713,55	770,00
-3701,44	837,00
-3689,35	797,00
-3677,28	948,00
-3665,22	787,00
-3653,19	901,00
-3641,17	877,00
-3629,18	854,00
-3617,20	895,00
-3605,24	801,00
-3593,30	970,00
-3581,37	868,00
-3569,47	835,00
-3557,58	855,00
-3545,71	879,00
-3533,86	1025,00
-3522,02	839,00
-3510,21	833,00
-3498,41	841,00
-3486,63	816,00
-3474,87	863,00
-3463,12	800,00
-3451,40	877,00
-3439,69	846,00
-3428,00	754,00
-3416,33	884,00
-3404,67	743,00
-3393,03	917,00
-3381,41	956,00
-3369,81	924,00
-3358,22	922,00
-3346,66	989,00
-3335,10	879,00
-3323,57	818,00
-3312,06	838,00
-3300,56	969,00
-3289,08	811,00
-3277,61	776,00
-3266,16	879,00
-3254,73	793,00
-3243,32	847,00
-3231,92	811,00
-3220,55	986,00
-3209,18	964,00
-3197,84	768,00
-3186,51	796,00
-3175,20	847,00
-3163,90	769,00
-3152,63	910,00
-3141,36	806,00
-3130,12	913,00
-3118,89	937,00
-3107,68	819,00
-3096,49	869,00
-3085,31	804,00
-3074,15	897,00
-3063,00	932,00
-3051,87	871,00
-3040,76	770,00
-3029,67	978,00
-3018,59	1112,00
-3007,52	1015,00
-2996,48	871,00
-2985,44	841,00
-2974,43	912,00
-2963,43	804,00
-2952,45	856,00
-2941,48	856,00
-2930,53	822,00
-2919,60	811,00
-2908,68	769,00
-2897,78	845,00
-2886,89	944,00
-2876,02	900,00
-2865,17	831,00
-2854,33	794,00
-2843,50	882,00
-2832,70	894,00
-2821,90	760,00
-2811,13	892,00
-2800,37	861,00
-2789,62	767,00
-2778,89	948,00
-2768,18	871,00
-2757,48	863,00
-2746,80	927,00
-2736,13	819,00
-2725,48	989,00
-2714,84	766,00
-2704,22	847,00
-2693,61	859,00
-2683,02	853,00
-2672,45	835,00
-2661,89	884,00
-2651,34	869,00
-2640,81	904,00
-2630,30	998,00
-2619,80	877,00
-2609,31	948,00
-2598,84	727,00
-2588,39	866,00
-2577,95	760,00
-2567,52	693,00
-2557,11	821,00
-2546,71	940,00
-2536,33	880,00
-2525,97	848,00
-2515,62	830,00
-2505,28	878,00
-2494,96	854,00
-2484,65	944,00
-2474,36	1216,00
-2464,08	818,00
-2453,82	952,00
-2443,57	751,00
-2433,33	792,00
-2423,11	946,00
-2412,91	930,00
-2402,72	838,00
-2392,54	890,00
-2382,38	853,00
-2372,23	916,00
-2362,09	1902,00
-2351,97	811,00
-2341,87	774,00
-2331,78	874,00
-2321,70	888,00
-2311,64	818,00
-2301,59	803,00
-2291,55	841,00
-2281,53	954,00
-2271,53	671,00
-2261,53	891,00
-2251,55	893,00
-2241,59	850,00
-2231,64	821,00
-2221,70	762,00
-2211,78	829,00
-2201,87	913,00
-2191,97	888,00
-2182,09	846,00
-2172,22	933,00
-2162,37	782,00
-2152,53	693,00
-2142,70	818,00
-2132,89	858,00
-2123,09	957,00
-2113,30	858,00
-2103,53	794,00
-2093,77	836,00
-2084,02	870,00
-2074,29	976,00
-2064,57	881,00
-2054,86	936,00
-2045,17	908,00
-2035,49	948,00
-2025,82	796,00
-2016,17	834,00
-2006,53	859,00
-1996,91	848,00
-1987,29	743,00
-1977,69	853,00
-1968,11	768,00
-1958,53	772,00
-1948,97	817,00
-1939,42	877,00
-1929,89	847,00
-1920,37	863,00
-1910,86	735,00
-1901,36	867,00
-1891,88	799,00
-1882,41	788,00
-1872,95	905,00
-1863,51	869,00
-1854,08	849,00
-1844,66	913,00
-1835,26	993,00
-1825,86	915,00
-1816,48	790,00
-1807,11	910,00
-1797,76	826,00
-1788,42	938,00
-1779,09	865,00
-1769,77	794,00
-1760,47	921,00
-1751,17	735,00
-1741,89	755,00
-1732,63	890,00
-1723,37	1087,00
-1714,13	884,00
-1704,90	867,00
-1695,68	994,00
-1686,48	844,00
-1677,29	858,00
-1668,11	987,00
-1658,94	787,00
-1649,78	786,00
-1640,64	900,00
-1631,51	851,00
-1622,39	915,00
-1613,28	923,00
-1604,19	950,00
-1595,10	801,00
-1586,03	904,00
-1576,97	859,00
-1567,93	839,00
-1558,89	891,00
-1549,87	954,00
-1540,86	756,00
-1531,86	765,00
-1522,87	853,00
-1513,90	897,00
-1504,93	962,00
-1495,98	940,00
-1487,04	987,00
-1478,12	773,00
-1469,20	902,00
-1460,30	865,00
-1451,40	1095,00
-1442,52	924,00
-1433,65	1000,00
-1424,80	911,00
-1415,95	917,00
-1407,12	1045,00
-1398,30	846,00
-1389,48	913,00
-1380,69	860,00
-1371,90	819,00
-1363,12	935,00
-1354,36	996,00
-1345,60	839,00
-1336,86	838,00
-1328,13	1102,00
-1319,41	945,00
-1310,70	842,00
-1302,01	809,00
-1293,32	741,00
-1284,65	877,00
-1275,99	900,00
-1267,33	1013,00
-1258,69	926,00
-1250,06	838,00
-1241,45	810,00
-1232,84	944,00
-1224,25	926,00
-1215,66	881,00
-1207,09	913,00
-1198,53	874,00
-1189,97	790,00
-1181,43	780,00
-1172,91	872,00
-1164,39	966,00
-1155,88	762,00
-1147,38	744,00
-1138,90	849,00
-1130,43	921,00
-1121,96	884,00
-1113,51	806,00
-1105,07	864,00
-1096,64	983,00
-1088,22	828,00
-1079,81	907,00
-1071,41	928,00
-1063,02	877,00
-1054,65	988,00
-1046,28	825,00
-1037,92	886,00
-1029,58	851,00
-1021,24	921,00
-1012,92	1138,00
-1004,61	840,00
-996,30	1049,00
-988,01	741,00
-979,73	911,00
-971,46	947,00
-963,20	844,00
-954,95	722,00
-946,71	928,00
-938,48	860,00
-930,26	976,00
-922,06	788,00
-913,86	761,00
-905,67	859,00
-897,49	937,00
-889,33	735,00
-881,17	933,00
-873,02	857,00
-864,89	772,00
-856,76	827,00
-848,65	925,00
-840,54	1028,00
-832,45	882,00
-824,36	705,00
-816,29	870,00
-808,22	907,00
-800,17	863,00
-792,12	880,00
-784,09	927,00
-776,06	784,00
-768,05	890,00
-760,04	873,00
-752,05	828,00
-744,07	842,00
-736,09	1007,00
-728,13	718,00
-720,17	835,00
-712,23	861,00
-704,29	763,00
-696,37	854,00
-688,45	960,00
-680,55	843,00
-672,65	872,00
-664,77	879,00
-656,89	869,00
-649,03	874,00
-641,17	898,00
-633,32	833,00
-625,49	857,00
-617,66	872,00
-609,84	919,00
-602,03	717,00
-594,23	840,00
-586,45	876,00
-578,67	831,00
-570,90	793,00
-563,14	797,00
-555,39	938,00
-547,65	923,00
-539,91	858,00
-532,19	946,00
-524,48	909,00
-516,78	786,00
-509,08	909,00
-501,40	933,00
-493,72	822,00
-486,06	813,00
-478,40	840,00
-470,76	760,00
-463,12	892,00
-455,49	864,00
-447,87	851,00
-440,26	796,00
-432,66	730,00
-425,07	997,00
-417,49	905,00
-409,92	744,00
-402,35	777,00
-394,80	743,00
-387,25	876,00
-379,72	850,00
-372,19	913,00
-364,67	989,00
-357,17	861,00
-349,67	865,00
-342,18	827,00
-334,69	879,00
-327,22	850,00
-319,76	884,00
-312,30	817,00
-304,86	778,00
-297,42	846,00
-290,00	917,00
-282,58	924,00
-275,17	1011,00
-267,77	1054,00
-260,37	821,00
-252,99	988,00
-245,62	919,00
-238,25	945,00
-230,90	855,00
-223,55	979,00
-216,21	978,00
-208,88	1094,00
-201,56	964,00
-194,25	1023,00
-186,94	1036,00
-179,65	1083,00
-172,36	1039,00
-165,08	1199,00
-157,81	1181,00
-150,55	1132,00
-143,30	1228,00
-136,06	1212,00
-128,82	1207,00
-121,60	1293,00
-114,38	1329,00
-107,17	1601,00
-99,97	1665,00
-92,78	1677,00
-85,60	1709,00
-78,42	1843,00
-71,25	2083,00
-64,10	2308,00
-56,95	2547,00
-49,81	2817,00
-42,67	3457,00
-35,55	3959,00
-28,43	5033,00
-21,33	7862,00
-14,23	24220,00
-7,14	57498,00
-0,05	57284,00
7,02	57012,00
14,09	57319,00
21,14	20492,00
28,19	9101,00
35,23	6114,00
42,27	4977,00
49,29	4098,00
56,31	3674,00
63,32	3244,00
70,32	2849,00
77,31	2510,00
84,29	2239,00
91,27	2154,00
98,23	2081,00
105,19	1953,00
112,14	2176,00
119,09	3047,00
126,02	4417,00
132,95	5024,00
139,87	5169,00
146,78	5288,00
153,68	5265,00
160,58	5126,00
167,46	4974,00
174,34	4915,00
181,21	5039,00
188,08	4865,00
194,93	5054,00
201,78	4791,00
208,62	4975,00
215,45	5034,00
222,27	4939,00
229,09	4976,00
235,90	4695,00
242,70	4775,00
249,49	4816,00
256,27	4618,00
263,05	4498,00
269,82	4629,00
276,58	4549,00
283,33	4551,00
290,08	4426,00
296,82	4319,00
303,55	4270,00
310,27	4136,00
316,98	4217,00
323,69	4213,00
330,39	4090,00
337,08	4187,00
343,76	4239,00
350,44	4105,00
357,11	4190,00
363,77	4084,00
370,42	4065,00
377,07	4225,00
383,71	4124,00
390,34	4096,00
396,96	4013,00
403,58	4085,00
410,19	4328,00
416,79	4285,00
423,38	4353,00
429,97	4359,00
436,55	4170,00
443,12	4371,00
449,68	4413,00
456,24	4236,00
462,79	4169,00
469,33	4015,00
475,86	3794,00
482,39	3729,00
488,91	3735,00
495,42	3615,00
501,93	3656,00
508,42	3547,00
514,91	3599,00
521,40	3512,00
527,87	3490,00
534,34	3405,00
540,80	3479,00
547,25	3420,00
553,70	3499,00
560,14	3461,00
566,57	3556,00
573,00	3473,00
579,41	3550,00
585,83	3649,00
592,23	3632,00
598,62	3674,00
605,01	3736,00
611,40	3855,00
617,77	3705,00
624,14	3644,00
630,50	3490,00
636,85	3392,00
643,20	3297,00
649,54	3156,00
655,87	3195,00
662,20	3166,00
668,52	3182,00
674,83	3189,00
681,13	3098,00
687,43	3220,00
693,72	3012,00
700,00	3028,00
706,28	3010,00
712,55	3058,00
718,81	3151,00
725,07	3014,00
731,32	2993,00
737,56	3091,00
743,79	3092,00
750,02	3031,00
756,24	2947,00
762,46	2892,00
768,67	3124,00
774,87	2810,00
781,06	2782,00
787,25	2913,00
793,43	2923,00
799,60	2867,00
805,77	3073,00
811,93	2925,00
818,08	2886,00
824,23	2827,00
830,37	3108,00
836,50	2852,00
842,63	2929,00
848,75	2863,00
854,87	2839,00
860,97	2984,00
867,07	2866,00
873,17	2925,00
879,25	2904,00
885,33	2949,00
891,41	2969,00
897,47	2882,00
903,53	2864,00
909,59	2821,00
915,63	2780,00
921,67	2768,00
927,71	2853,00
933,74	2749,00
939,76	2590,00
945,77	2694,00
951,78	2774,00
957,78	2637,00
963,78	2659,00
969,77	2682,00
975,75	2565,00
981,72	2615,00
987,69	3998,00
993,66	2754,00
999,61	2721,00
1005,56	2654,00
1011,51	2689,00
1017,44	2639,00
1023,37	2775,00
1029,30	2672,00
1035,22	2781,00
1041,13	2749,00
1047,03	2979,00
1052,93	3543,00
1058,83	4976,00
1064,71	5409,00
1070,59	4497,00
1076,47	3652,00
1082,33	3367,00
1088,20	3373,00
1094,05	3031,00
1099,90	2919,00
1105,74	2935,00
1111,58	2915,00
1117,41	3207,00
1123,23	4174,00
1129,05	5223,00
1134,86	4709,00
1140,67	3568,00
1146,47	3015,00
1152,26	2832,00
1158,05	2698,00
1163,83	2859,00
1169,60	2928,00
1175,37	2915,00
1181,13	2738,00
1186,89	2513,00
1192,64	2669,00
1198,38	2703,00
1204,12	2455,00
1209,85	2407,00
1215,58	2493,00
1221,30	2643,00
1227,02	2613,00
1232,72	2607,00
1238,43	2480,00
1244,12	2537,00
1249,81	2543,00
1255,50	2746,00
1261,17	2728,00
1266,85	2736,00
1272,51	2763,00
1278,17	2996,00
1283,83	3194,00
1289,47	4705,00
1295,12	6406,00
1300,75	5702,00
1306,38	4472,00
1312,01	3584,00
1317,63	3095,00
1323,24	2841,00
1328,85	2802,00
1334,45	2601,00
1340,04	2538,00
1345,63	2557,00
1351,22	2808,00
1356,80	2725,00
1362,37	2840,00
1367,93	2716,00
1373,49	2835,00
1379,05	2688,00
1384,60	2565,00
1390,14	2600,00
1395,68	2676,00
1401,21	2651,00
1406,74	2889,00
1412,26	3533,00
1417,77	4275,00
1423,28	4060,00
1428,78	4409,00
1434,28	5338,00
1439,77	6290,00
1445,26	6137,00
1450,74	5639,00
1456,22	5154,00
1461,68	5105,00
1467,15	4912,00
1472,61	4063,00
1478,06	3735,00
1483,51	3195,00
1488,95	2763,00
1494,38	2694,00
1499,81	2507,00
1505,24	2346,00
1510,65	2524,00
1516,07	2418,00
1521,48	2329,00
1526,88	2276,00
1532,27	2394,00
1537,67	2175,00
1543,05	2284,00
1548,43	2229,00
1553,81	2252,00
1559,18	2136,00
1564,54	2216,00
1569,90	2238,00
1575,25	2004,00
1580,60	2011,00
1585,94	2193,00
1591,28	2134,00
1596,61	2060,00
1601,93	2079,00
1607,25	2199,00
1612,57	2018,00
1617,88	2028,00
1623,18	2022,00
1628,48	1988,00
1633,77	2061,00
1639,06	2054,00
1644,34	2029,00
1649,62	1877,00
1654,89	2018,00
1660,16	1842,00
1665,42	2128,00
1670,67	1966,00
1675,92	1912,00
1681,17	1878,00
1686,41	1942,00
1691,64	1973,00
1696,87	1916,00
1702,10	1878,00
1707,32	1904,00
1712,53	1833,00
1717,74	1905,00
1722,94	1999,00
1728,14	1707,00
1733,33	1845,00
1738,52	1707,00
1743,70	1834,00
1748,88	1815,00
1754,05	1871,00
1759,22	1770,00
1764,38	1024,00
1769,53	1802,00
1774,69	1848,00
1779,83	1663,00
1784,97	1839,00
1790,11	1739,00
1795,24	1745,00
1800,36	1680,00
1805,48	1717,00
1810,60	1790,00
1815,71	1694,00
1820,82	1613,00
1825,92	1670,00
1831,01	1679,00
1836,10	1675,00
1841,19	1742,00
1846,26	1535,00
1851,34	1622,00
1856,41	1733,00
1861,47	1584,00
1866,53	1789,00
1871,59	1644,00
1876,64	1619,00
1881,68	1651,00
1886,72	1608,00
1891,76	1537,00
1896,79	1568,00
1901,81	1485,00
1906,83	1644,00
1911,85	1524,00
1916,86	1565,00
1921,86	1476,00
1926,86	1544,00
1931,86	1545,00
1936,85	1513,00
1941,83	1529,00
1946,81	1465,00
1951,79	1428,00
1956,76	1451,00
1961,72	1408,00
1966,68	1475,00
1971,64	1445,00
1976,59	1518,00
1981,54	1411,00
1986,48	1514,00
1991,42	1250,00
1996,35	1730,00
2001,27	1435,00
2006,20	1364,00
2011,11	1473,00
2016,03	1510,00
2020,93	1347,00
2025,84	1423,00
2030,73	1438,00
2035,63	1294,00
2040,52	1401,00
2045,40	1387,00
2050,28	1359,00
2055,15	1413,00
2060,02	1309,00
2064,89	1407,00
2069,75	1446,00
2074,60	1364,00
2079,46	1326,00
2084,30	1290,00
2089,14	1246,00
2093,98	1497,00
2098,81	1258,00
2103,64	1458,00
2108,46	1402,00
2113,28	1447,00
2118,09	1394,00
2122,90	1419,00
2127,70	1324,00
2132,50	1398,00
2137,30	1290,00
2142,09	1270,00
2146,87	1191,00
2151,66	1279,00
2156,43	1353,00
2161,20	1227,00
2165,97	1406,00
2170,73	1296,00
2175,49	1399,00
2180,24	1383,00
2184,99	1583,00
2189,74	1489,00
2194,48	1449,00
2199,21	1475,00
2203,94	1340,00
2208,67	1250,00
2213,39	1224,00
2218,11	1305,00
2222,82	1227,00
2227,53	1406,00
2232,23	1341,00
2236,93	1433,00
2241,63	1279,00
2246,32	1373,00
2251,00	1319,00
2255,68	1305,00
2260,36	1238,00
2265,03	1285,00
2269,70	1381,00
2274,36	1252,00
2279,02	1284,00
2283,68	1228,00
2288,33	1248,00
2292,97	1310,00
2297,61	1236,00
2302,25	1254,00
2306,88	1235,00
2311,51	1214,00
2316,14	1212,00
2320,75	1189,00
2325,37	1221,00
2329,98	1293,00
2334,59	1254,00
2339,19	1135,00
2343,79	1088,00
2348,38	1261,00
2352,97	1203,00
2357,55	1227,00
2362,13	1257,00
2366,71	1094,00
2371,28	1313,00
2375,85	1265,00
2380,41	1324,00
2384,97	1106,00
2389,52	1251,00
2394,07	1256,00
2398,62	1123,00
2403,16	1292,00
2407,70	1103,00
2412,23	1010,00
2416,76	1276,00
2421,29	1198,00
2425,81	1197,00
2430,32	1283,00
2434,84	1112,00
2439,34	1175,00
2443,85	1338,00
2448,35	1126,00
2452,84	1189,00
2457,33	1207,00
2461,82	1039,00
2466,30	1038,00
2470,78	1143,00
2475,25	1156,00
2479,72	1213,00
2484,19	1301,00
2488,65	1248,00
2493,11	1121,00
2497,56	1300,00
2502,01	978,00
2506,46	1150,00
2510,90	1095,00
2515,34	1118,00
2519,77	1170,00
2524,20	1099,00
2528,62	1145,00
2533,04	1168,00
2537,46	1143,00
2541,87	1163,00
2546,28	1149,00
2550,68	1251,00
2555,08	1197,00
2559,48	1101,00
2563,87	1034,00
2568,26	1037,00
2572,64	1275,00
2577,02	1267,00
2581,40	1042,00
2585,77	1185,00
2590,14	1181,00
2594,50	1097,00
2598,86	1240,00
2603,22	1172,00
2607,57	1110,00
2611,92	1202,00
2616,26	1276,00
2620,60	1270,00
2624,94	1089,00
2629,27	1241,00
2633,60	1161,00
2637,92	1271,00
2642,24	1282,00
2646,56	1203,00
2650,87	1054,00
2655,18	1368,00
2659,48	1148,00
2663,78	1167,00
2668,08	1215,00
2672,37	1267,00
2676,66	1259,00
2680,95	1188,00
2685,23	1335,00
2689,50	1195,00
2693,78	1310,00
2698,05	1190,00
2702,31	1339,00
2706,57	1448,00
2710,83	1533,00
2715,08	1506,00
2719,33	1596,00
2723,58	1551,00
2727,82	1591,00
2732,06	1478,00
2736,29	1470,00
2740,53	1396,00
2744,75	1426,00
2748,97	1344,00
2753,19	1370,00
2757,41	1366,00
2761,62	1320,00
2765,83	1345,00
2770,03	1302,00
2774,23	1503,00
2778,43	1285,00
2782,62	1400,00
2786,81	1404,00
2791,00	1489,00
2795,18	1473,00
2799,35	1547,00
2803,53	1566,00
2807,70	1706,00
2811,86	1674,00
2816,03	1830,00
2820,19	1816,00
2824,34	1944,00
2828,49	2051,00
2832,64	2324,00
2836,78	2802,00
2840,92	3177,00
2845,06	3907,00
2849,19	4308,00
2853,32	4426,00
2857,45	4341,00
2861,57	4300,00
2865,69	4144,00
2869,80	4130,00
2873,91	4238,00
2878,02	4674,00
2882,12	5147,00
2886,22	5105,00
2890,32	4813,00
2894,41	4545,00
2898,50	4020,00
2902,58	3766,00
2906,67	3551,00
2910,74	3331,00
2914,82	3017,00
2918,89	2997,00
2922,96	2686,00
2927,02	2599,00
2931,08	2412,00
2935,13	2186,00
2939,19	2235,00
2943,24	2089,00
2947,28	2063,00
2951,32	1809,00
2955,36	1619,00
2959,40	1660,00
2963,43	1470,00
2967,46	1520,00
2971,48	1447,00
2975,50	1370,00
2979,52	1376,00
2983,53	1399,00
2987,54	1272,00
2991,55	1300,00
2995,55	1318,00
2999,55	1123,00
3003,54	1152,00
3007,54	1174,00
3011,53	1210,00
3015,51	1130,00
3019,49	1185,00
3023,47	1060,00
3027,45	1117,00
3031,42	1050,00
3035,39	1044,00
3039,35	1002,00
3043,31	1046,00
3047,27	1103,00
3051,22	1095,00
3055,17	1002,00
3059,12	923,00
3063,06	1068,00
3067,00	899,00
3070,94	923,00
3074,87	1121,00
3078,80	1027,00
3082,73	951,00
3086,65	868,00
3090,57	1005,00
3094,49	881,00
3098,40	949,00
3102,31	944,00
3106,22	947,00
3110,12	960,00
3114,02	785,00
3117,92	955,00
3121,81	920,00
3125,70	896,00
3129,58	833,00
3133,47	826,00
3137,34	981,00
3141,22	1021,00
3145,09	925,00
3148,96	1061,00
3152,83	964,00
3156,69	957,00
3160,55	900,00
3164,40	971,00
3168,26	938,00
3172,10	1017,00
3175,95	959,00
3179,79	961,00
3183,63	918,00
3187,47	863,00
3191,30	1044,00
3195,13	949,00
3198,95	832,00
3202,78	904,00
3206,60	916,00
3210,41	822,00
3214,23	938,00
3218,03	981,00
3221,84	860,00
3225,64	885,00
3229,44	786,00
3233,24	953,00
3237,03	873,00
3240,82	810,00
3244,61	828,00
3248,39	808,00
3252,17	973,00
3255,95	1066,00
3259,72	891,00
3263,49	1042,00
3267,26	820,00
3271,03	880,00
3274,79	887,00
3278,54	914,00
3282,30	770,00
3286,05	894,00
3289,80	1003,00
3293,54	931,00
3297,29	870,00
3301,02	929,00
3304,76	838,00
3308,49	913,00
3312,22	793,00
3315,95	928,00
3319,67	860,00
3323,39	998,00
3327,10	924,00
3330,82	914,00
3334,53	919,00
3338,24	904,00
3341,94	843,00
3345,64	873,00
3349,34	835,00
3353,03	910,00
3356,72	849,00
3360,41	926,00
3364,10	819,00
3367,78	854,00
3371,46	884,00
3375,13	840,00
3378,81	893,00
3382,48	785,00
3386,14	957,00
3389,81	905,00
3393,47	875,00
3397,12	950,00
3400,78	890,00
3404,43	868,00
3408,08	897,00
3411,72	877,00
3415,36	771,00
3419,00	863,00
3422,64	804,00
3426,27	868,00
3429,90	862,00
3433,53	774,00
3437,15	803,00
3440,77	755,00
3444,39	830,00
3448,00	823,00
3451,62	850,00
3455,22	853,00
3458,83	797,00
3462,43	861,00
3466,03	888,00
3469,63	824,00
3473,22	826,00
3476,81	818,00
3480,40	1029,00
3483,99	802,00
3487,57	841,00
3491,15	812,00
3494,72	933,00
3498,29	898,00
3501,86	766,00
3505,43	856,00
3508,99	747,00
3512,56	777,00
3516,11	849,00
3519,67	814,00
3523,22	904,00
3526,77	775,00
3530,32	1055,00
3533,86	939,00
3537,40	1009,00
3540,94	911,00
3544,47	803,00
3548,00	822,00
3551,53	965,00
3555,06	800,00
3558,58	832,00
3562,10	900,00
3565,62	731,00
3569,13	803,00
3572,64	917,00
3576,15	737,00
3579,66	805,00
3583,16	837,00
3586,66	823,00
3590,16	790,00
3593,65	756,00
3597,14	712,00
3600,63	885,00
3604,11	814,00
3607,60	755,00
3611,08	775,00
3614,55	872,00
3618,03	791,00
3621,50	722,00
3624,97	741,00
3628,43	884,00
3631,90	731,00
3635,36	734,00
3638,81	749,00
3642,27	789,00
3645,72	806,00
3649,17	708,00
3652,61	703,00
3656,06	829,00
3659,50	795,00
3662,93	759,00
3666,37	845,00
3669,80	950,00
3673,23	861,00
3676,65	723,00
3680,08	855,00
3683,50	779,00
3686,92	789,00
3690,33	712,00
3693,74	802,00
3697,15	701,00
3700,56	878,00
3703,96	792,00
3707,36	622,00
3710,76	632,00
3714,16	645,00
3717,55	778,00
3720,94	740,00
3724,33	782,00
3727,71	793,00
3731,10	799,00
3734,48	771,00
3737,85	693,00
3741,23	760,00
3744,60	748,00
3747,97	649,00
3751,33	724,00
3754,69	649,00
3758,05	720,00
3761,41	694,00
3764,77	696,00
3768,12	714,00
3771,47	594,00
3774,82	740,00
3778,16	-12,00
3781,50	10,00
3784,84	3,00
3788,18	10,00
>>>>>End Processed Spectral Data<<<<<
