SpectraSuite Data File
++++++++++++++++++++++++++++++++++++
Date: Tue Mar 03 11:36:28 ICT 2026
User: user
Dark Spectrum Present: Yes
Reference Spectrum Present: No
Number of Sampled Component Spectra: 1
Spectrometers: MAYP113682
Integration Time (usec): 3000000 (MAYP113682)
Spectra Averaged: 1 (MAYP113682)
Boxcar Smoothing: 0 (MAYP113682)
Correct for Electrical Dark: No (MAYP113682)
Strobe/Lamp Enabled: No (MAYP113682)
Correct for Detector Non-linearity: No (MAYP113682)
Correct for Stray Light: No (MAYP113682)
Number of Pixels in Processed Spectrum: 2068
>>>>>Begin Processed Spectral Data<<<<<
-37534,58	3,00
-37414,56	2,00
-37295,11	3,00
-37176,24	2,00
-37057,95	-5,00
-36940,22	131,00
-36823,05	-49,00
-36706,45	-100,00
-36590,40	133,00
-36474,90	37,00
-36359,95	5,00
-36245,55	123,00
-36131,68	26,00
-36018,35	47,00
-35905,55	28,00
-35793,29	108,00
-35681,54	88,00
-35570,32	-13,00
-35459,62	-17,00
-35349,43	-65,00
-35239,75	-23,00
-35130,58	-16,00
-35021,91	129,00
-34913,74	-3,00
-34806,07	10,00
-34698,89	61,00
-34592,20	59,00
-34486,00	177,00
-34380,28	-34,00
-34275,04	-33,00
-34170,27	86,00
-34065,98	12,00
-33962,16	231,00
-33858,81	3,00
-33755,92	187,00
-33653,49	-9,00
-33551,52	88,00
-33450,01	18,00
-33348,94	137,00
-33248,33	42,00
-33148,16	-27,00
-33048,43	107,00
-32949,14	-76,00
-32850,29	67,00
-32751,87	37,00
-32653,89	56,00
-32556,33	116,00
-32459,20	-27,00
-32362,49	91,00
-32266,19	70,00
-32170,32	110,00
-32074,86	118,00
-31979,82	50,00
-31885,18	89,00
-31790,95	1,00
-31697,12	1,00
-31603,69	70,00
-31510,67	112,00
-31418,04	130,00
-31325,80	49,00
-31233,95	-31,00
-31142,49	28,00
-31051,42	80,00
-30960,73	184,00
-30870,43	35,00
-30780,50	-75,00
-30690,95	0,00
-30601,77	166,00
-30512,97	20,00
-30424,53	99,00
-30336,46	96,00
-30248,76	25,00
-30161,42	-64,00
-30074,44	-107,00
-29987,81	4,00
-29901,55	-18,00
-29815,63	45,00
-29730,07	125,00
-29644,86	-7,00
-29560,00	82,00
-29475,48	-36,00
-29391,30	-43,00
-29307,47	26,00
-29223,97	95,00
-29140,81	-14,00
-29057,99	81,00
-28975,50	23,00
-28893,34	58,00
-28811,51	-24,00
-28730,00	-21,00
-28648,82	-6,00
-28567,97	60,00
-28487,43	44,00
-28407,21	15,00
-28327,32	17,00
-28247,73	-9,00
-28168,46	75,00
-28089,50	-102,00
-28010,85	-43,00
-27932,51	108,00
-27854,48	144,00
-27776,75	150,00
-27699,32	-69,00
-27622,19	18,00
-27545,37	73,00
-27468,84	200,00
-27392,60	-10,00
-27316,66	-3,00
-27241,01	22,00
-27165,66	-79,00
-27090,59	86,00
-27015,81	-66,00
-26941,31	124,00
-26867,10	8,00
-26793,17	80,00
-26719,52	-14,00
-26646,15	142,00
-26573,06	15,00
-26500,24	-40,00
-26427,70	140,00
-26355,43	-26,00
-26283,43	-9,00
-26211,71	-15,00
-26140,25	71,00
-26069,06	-83,00
-25998,13	-60,00
-25927,46	197,00
-25857,06	-54,00
-25786,92	31,00
-25717,04	121,00
-25647,42	-10,00
-25578,05	-46,00
-25508,94	119,00
-25440,09	94,00
-25371,48	126,00
-25303,13	162,00
-25235,02	-46,00
-25167,17	81,00
-25099,56	100,00
-25032,19	-30,00
-24965,07	18,00
-24898,20	32,00
-24831,56	117,00
-24765,17	-3,00
-24699,01	-128,00
-24633,10	-16,00
-24567,41	154,00
-24501,97	89,00
-24436,75	68,00
-24371,77	-106,00
-24307,03	-81,00
-24242,51	75,00
-24178,22	20,00
-24114,16	-39,00
-24050,32	149,00
-23986,71	-20,00
-23923,32	139,00
-23860,16	79,00
-23797,22	-83,00
-23734,50	16,00
-23672,00	69,00
-23609,71	-24,00
-23547,65	1,00
-23485,80	-5,00
-23424,16	49,00
-23362,74	21,00
-23301,53	79,00
-23240,54	0,00
-23179,75	60,00
-23119,17	19,00
-23058,80	145,00
-22998,64	-79,00
-22938,68	177,00
-22878,93	137,00
-22819,39	37,00
-22760,04	52,00
-22700,90	29,00
-22641,96	107,00
-22583,22	211,00
-22524,68	-26,00
-22466,33	-26,00
-22408,19	-68,00
-22350,23	114,00
-22292,48	125,00
-22234,92	68,00
-22177,55	-3,00
-22120,37	-112,00
-22063,38	164,00
-22006,58	-1,00
-21949,98	137,00
-21893,56	43,00
-21837,33	-36,00
-21781,28	73,00
-21725,42	66,00
-21669,74	23,00
-21614,25	144,00
-21558,94	-25,00
-21503,81	34,00
-21448,86	77,00
-21394,10	-4,00
-21339,51	13,00
-21285,10	-59,00
-21230,86	50,00
-21176,81	-97,00
-21122,93	21,00
-21069,22	30,00
-21015,69	-18,00
-20962,33	-108,00
-20909,14	-71,00
-20856,13	113,00
-20803,28	-54,00
-20750,61	114,00
-20698,10	112,00
-20645,76	16,00
-20593,59	-87,00
-20541,59	-22,00
-20489,75	56,00
-20438,07	37,00
-20386,56	65,00
-20335,22	97,00
-20284,03	52,00
-20233,01	-8,00
-20182,15	149,00
-20131,45	119,00
-20080,91	-42,00
-20030,52	106,00
-19980,30	97,00
-19930,23	-11,00
-19880,32	-66,00
-19830,56	-55,00
-19780,96	12,00
-19731,52	-2,00
-19682,23	0,00
-19633,09	0,00
-19584,10	-26,00
-19535,26	92,00
-19486,58	100,00
-19438,04	73,00
-19389,66	83,00
-19341,42	52,00
-19293,33	68,00
-19245,39	67,00
-19197,60	160,00
-19149,95	64,00
-19102,45	-22,00
-19055,09	-21,00
-19007,87	-47,00
-18960,80	120,00
-18913,87	3,00
-18867,09	91,00
-18820,44	-51,00
-18773,94	77,00
-18727,57	-8,00
-18681,35	-39,00
-18635,26	126,00
-18589,31	46,00
-18543,50	17,00
-18497,83	4,00
-18452,29	-6,00
-18406,89	43,00
-18361,63	142,00
-18316,50	-79,00
-18271,50	-41,00
-18226,63	209,00
-18181,90	-18,00
-18137,30	36,00
-18092,84	164,00
-18048,50	27,00
-18004,29	46,00
-17960,22	-46,00
-17916,27	65,00
-17872,45	72,00
-17828,76	83,00
-17785,20	-105,00
-17741,77	23,00
-17698,46	112,00
-17655,28	103,00
-17612,22	23,00
-17569,29	126,00
-17526,48	85,00
-17483,79	-8,00
-17441,23	11,00
-17398,79	34,00
-17356,48	-114,00
-17314,28	-48,00
-17272,21	-22,00
-17230,26	-60,00
-17188,42	-31,00
-17146,71	-51,00
-17105,12	107,00
-17063,64	151,00
-17022,28	-108,00
-16981,04	-4,00
-16939,92	71,00
-16898,91	-4,00
-16858,02	-66,00
-16817,25	7,00
-16776,59	-61,00
-16736,04	79,00
-16695,61	70,00
-16655,29	73,00
-16615,09	-61,00
-16574,99	38,00
-16535,01	116,00
-16495,15	39,00
-16455,39	34,00
-16415,74	-5,00
-16376,21	17,00
-16336,78	19,00
-16297,46	-56,00
-16258,26	39,00
-16219,16	165,00
-16180,17	17,00
-16141,28	41,00
-16102,51	69,00
-16063,84	-173,00
-16025,27	149,00
-15986,82	43,00
-15948,46	-131,00
-15910,22	80,00
-15872,07	-37,00
-15834,04	-61,00
-15796,10	49,00
-15758,27	-40,00
-15720,54	-43,00
-15682,91	7,00
-15645,39	-13,00
-15607,97	135,00
-15570,64	95,00
-15533,42	47,00
-15496,30	0,00
-15459,28	13,00
-15422,36	38,00
-15385,54	7,00
-15348,82	78,00
-15312,19	168,00
-15275,66	-2,00
-15239,23	1,00
-15202,90	154,00
-15166,67	-122,00
-15130,53	64,00
-15094,48	150,00
-15058,54	63,00
-15022,68	73,00
-14986,93	51,00
-14951,26	83,00
-14915,69	135,00
-14880,22	28,00
-14844,84	-110,00
-14809,55	90,00
-14774,35	70,00
-14739,25	58,00
-14704,24	174,00
-14669,32	61,00
-14634,49	42,00
-14599,75	105,00
-14565,10	126,00
-14530,55	-83,00
-14496,08	135,00
-14461,70	-32,00
-14427,41	176,00
-14393,21	-40,00
-14359,10	11,00
-14325,07	144,00
-14291,14	66,00
-14257,29	-28,00
-14223,52	179,00
-14189,85	-2,00
-14156,26	16,00
-14122,76	67,00
-14089,34	-9,00
-14056,01	104,00
-14022,76	60,00
-13989,60	108,00
-13956,52	-104,00
-13923,53	50,00
-13890,62	99,00
-13857,79	-87,00
-13825,05	57,00
-13792,39	80,00
-13759,81	36,00
-13727,31	0,00
-13694,90	64,00
-13662,57	29,00
-13630,31	31,00
-13598,14	43,00
-13566,05	38,00
-13534,05	133,00
-13502,12	34,00
-13470,27	11,00
-13438,50	88,00
-13406,80	72,00
-13375,19	34,00
-13343,66	81,00
-13312,20	-5,00
-13280,83	5,00
-13249,53	-32,00
-13218,30	-48,00
-13187,16	53,00
-13156,09	-10,00
-13125,10	87,00
-13094,18	128,00
-13063,34	-7,00
-13032,58	19,00
-13001,89	70,00
-12971,28	75,00
-12940,74	-9,00
-12910,27	-28,00
-12879,88	55,00
-12849,57	146,00
-12819,33	104,00
-12789,16	109,00
-12759,06	-18,00
-12729,04	-41,00
-12699,09	-131,00
-12669,21	-8,00
-12639,41	101,00
-12609,68	47,00
-12580,02	31,00
-12550,43	-17,00
-12520,91	22,00
-12491,46	-32,00
-12462,08	31,00
-12432,77	60,00
-12403,54	30,00
-12374,37	-25,00
-12345,27	73,00
-12316,24	70,00
-12287,29	86,00
-12258,40	108,00
-12229,57	-106,00
-12200,82	75,00
-12172,14	7,00
-12143,52	9,00
-12114,97	45,00
-12086,49	4,00
-12058,07	116,00
-12029,73	184,00
-12001,44	114,00
-11973,23	-22,00
-11945,08	-41,00
-11917,00	66,00
-11888,98	-4,00
-11861,03	94,00
-11833,15	-59,00
-11805,32	75,00
-11777,57	-60,00
-11749,88	154,00
-11722,25	-75,00
-11694,69	46,00
-11667,19	108,00
-11639,75	-64,00
-11612,38	161,00
-11585,07	14,00
-11557,83	65,00
-11530,65	152,00
-11503,53	123,00
-11476,47	11,00
-11449,48	-19,00
-11422,54	132,00
-11395,67	48,00
-11368,86	69,00
-11342,11	-38,00
-11315,43	104,00
-11288,80	0,00
-11262,23	29,00
-11235,73	-106,00
-11209,28	114,00
-11182,90	-13,00
-11156,57	46,00
-11130,31	67,00
-11104,10	25,00
-11077,96	113,00
-11051,87	154,00
-11025,84	14,00
-10999,87	149,00
-10973,96	19,00
-10948,11	-61,00
-10922,31	13,00
-10896,58	61,00
-10870,90	110,00
-10845,28	70,00
-10819,71	61,00
-10794,20	134,00
-10768,75	172,00
-10743,36	28,00
-10718,02	165,00
-10692,74	152,00
-10667,52	208,00
-10642,35	-138,00
-10617,24	214,00
-10592,18	195,00
-10567,18	232,00
-10542,23	264,00
-10517,34	269,00
-10492,51	170,00
-10467,72	206,00
-10443,00	314,00
-10418,32	331,00
-10393,70	252,00
-10369,14	241,00
-10344,63	355,00
-10320,17	199,00
-10295,77	407,00
-10271,42	384,00
-10247,12	464,00
-10222,88	513,00
-10198,68	447,00
-10174,54	537,00
-10150,46	488,00
-10126,42	687,00
-10102,44	601,00
-10078,51	680,00
-10054,63	779,00
-10030,80	793,00
-10007,03	734,00
-9983,30	803,00
-9959,63	727,00
-9936,01	956,00
-9912,44	1025,00
-9888,92	1012,00
-9865,44	976,00
-9842,02	1075,00
-9818,65	1276,00
-9795,33	1170,00
-9772,06	1348,00
-9748,84	1322,00
-9725,67	1505,00
-9702,55	1712,00
-9679,47	2010,00
-9656,45	2267,00
-9633,47	2236,00
-9610,55	2383,00
-9587,67	2370,00
-9564,84	2632,00
-9542,06	2946,00
-9519,32	3224,00
-9496,64	3364,00
-9474,00	3944,00
-9451,41	3833,00
-9428,87	3770,00
-9406,37	3547,00
-9383,92	3373,00
-9361,52	3217,00
-9339,17	3372,00
-9316,86	3734,00
-9294,60	4067,00
-9272,38	4634,00
-9250,21	4958,00
-9228,09	5093,00
-9206,01	4723,00
-9183,98	4293,00
-9162,00	3748,00
-9140,06	3610,00
-9118,16	3578,00
-9096,31	3742,00
-9074,51	3956,00
-9052,75	3774,00
-9031,04	3686,00
-9009,37	3180,00
-8987,74	3000,00
-8966,16	2561,00
-8944,63	2236,00
-8923,14	2257,00
-8901,69	2284,00
-8880,29	2658,00
-8858,93	2895,00
-8837,61	3185,00
-8816,34	3328,00
-8795,11	3538,00
-8773,92	3109,00
-8752,78	2652,00
-8731,68	2667,00
-8710,62	2706,00
-8689,61	2797,00
-8668,63	3091,00
-8647,70	3410,00
-8626,82	3295,00
-8605,97	3072,00
-8585,17	2995,00
-8564,41	2626,00
-8543,69	2283,00
-8523,01	2190,00
-8502,37	2334,00
-8481,78	2505,00
-8461,23	2646,00
-8440,71	2807,00
-8420,24	3023,00
-8399,81	3038,00
-8379,42	2931,00
-8359,08	2781,00
-8338,77	2639,00
-8318,50	2201,00
-8298,27	2140,00
-8278,09	2359,00
-8257,94	2525,00
-8237,83	2660,00
-8217,76	2945,00
-8197,74	3108,00
-8177,75	2866,00
-8157,80	2432,00
-8137,89	2291,00
-8118,02	2320,00
-8098,19	2229,00
-8078,40	2289,00
-8058,65	2654,00
-8038,93	2558,00
-8019,26	2494,00
-7999,62	2325,00
-7980,02	2308,00
-7960,46	2340,00
-7940,94	2138,00
-7921,46	2069,00
-7902,01	2044,00
-7882,60	2173,00
-7863,23	2039,00
-7843,90	2229,00
-7824,61	2321,00
-7805,35	2541,00
-7786,13	2393,00
-7766,95	2458,00
-7747,80	2363,00
-7728,69	2202,00
-7709,62	2266,00
-7690,59	2395,00
-7671,59	2574,00
-7652,63	2618,00
-7633,70	2780,00
-7614,81	2574,00
-7595,96	2322,00
-7577,15	1956,00
-7558,37	2096,00
-7539,62	2196,00
-7520,91	2312,00
-7502,24	2400,00
-7483,60	2532,00
-7465,00	2427,00
-7446,44	2110,00
-7427,91	1920,00
-7409,41	1782,00
-7390,95	1615,00
-7372,53	1594,00
-7354,14	1544,00
-7335,78	1620,00
-7317,46	1633,00
-7299,18	1952,00
-7280,92	2196,00
-7262,71	2323,00
-7244,52	2582,00
-7226,38	2482,00
-7208,26	2473,00
-7190,18	2230,00
-7172,14	2342,00
-7154,12	2246,00
-7136,15	2096,00
-7118,20	2224,00
-7100,29	2377,00
-7082,41	2438,00
-7064,57	2345,00
-7046,76	2135,00
-7028,98	2102,00
-7011,24	1874,00
-6993,53	1464,00
-6975,85	1181,00
-6958,20	1144,00
-6940,59	1076,00
-6923,01	1221,00
-6905,46	1517,00
-6887,94	1732,00
-6870,46	2893,00
-6853,01	2300,00
-6835,59	2175,00
-6818,21	1919,00
-6800,85	1640,00
-6783,53	1381,00
-6766,24	1211,00
-6748,98	1121,00
-6731,76	976,00
-6714,56	823,00
-6697,40	792,00
-6680,26	935,00
-6663,16	1177,00
-6646,09	1382,00
-6629,05	1549,00
-6612,05	1825,00
-6595,07	1673,00
-6578,13	1789,00
-6561,21	1428,00
-6544,33	1000,00
-6527,47	740,00
-6510,65	768,00
-6493,86	808,00
-6477,10	728,00
-6460,36	841,00
-6443,66	801,00
-6426,99	771,00
-6410,35	889,00
-6393,74	767,00
-6377,16	1033,00
-6360,61	1039,00
-6344,09	1199,00
-6327,59	1203,00
-6311,13	1198,00
-6294,70	1229,00
-6278,29	1455,00
-6261,92	1554,00
-6245,58	1679,00
-6229,26	1678,00
-6212,97	1648,00
-6196,72	1142,00
-6180,49	854,00
-6164,29	545,00
-6148,12	388,00
-6131,98	400,00
-6115,86	359,00
-6099,78	386,00
-6083,72	425,00
-6067,69	368,00
-6051,69	268,00
-6035,72	521,00
-6019,78	596,00
-6003,87	687,00
-5987,98	1072,00
-5972,12	1314,00
-5956,29	1329,00
-5940,49	1084,00
-5924,71	965,00
-5908,96	567,00
-5893,24	397,00
-5877,55	484,00
-5861,89	434,00
-5846,25	624,00
-5830,64	687,00
-5815,05	679,00
-5799,50	494,00
-5783,97	607,00
-5768,47	708,00
-5752,99	829,00
-5737,55	1127,00
-5722,12	1257,00
-5706,73	1088,00
-5691,36	990,00
-5676,02	621,00
-5660,71	593,00
-5645,42	428,00
-5630,16	614,00
-5614,92	697,00
-5599,71	847,00
-5584,53	947,00
-5569,37	806,00
-5554,24	1741,00
-5539,14	691,00
-5524,06	677,00
-5509,01	718,00
-5493,98	807,00
-5478,98	900,00
-5464,00	784,00
-5449,05	693,00
-5434,13	552,00
-5419,23	453,00
-5404,36	624,00
-5389,51	841,00
-5374,69	989,00
-5359,89	1281,00
-5345,12	1420,00
-5330,37	1242,00
-5315,65	1009,00
-5300,95	752,00
-5286,28	786,00
-5271,63	705,00
-5257,01	777,00
-5242,41	837,00
-5227,84	650,00
-5213,29	458,00
-5198,76	280,00
-5184,26	409,00
-5169,79	525,00
-5155,33	639,00
-5140,91	700,00
-5126,51	738,00
-5112,13	937,00
-5097,77	765,00
-5083,44	515,00
-5069,13	434,00
-5054,85	495,00
-5040,59	573,00
-5026,36	684,00
-5012,15	747,00
-4997,96	763,00
-4983,80	534,00
-4969,66	386,00
-4955,54	410,00
-4941,44	589,00
-4927,37	781,00
-4913,33	1259,00
-4899,30	1282,00
-4885,30	1123,00
-4871,33	801,00
-4857,37	432,00
-4843,44	378,00
-4829,53	324,00
-4815,65	579,00
-4801,79	593,00
-4787,95	567,00
-4774,13	483,00
-4760,34	397,00
-4746,56	289,00
-4732,82	239,00
-4719,09	570,00
-4705,38	949,00
-4691,70	1028,00
-4678,04	1171,00
-4664,41	904,00
-4650,79	493,00
-4637,20	416,00
-4623,63	360,00
-4610,08	568,00
-4596,56	744,00
-4583,05	901,00
-4569,57	678,00
-4556,11	433,00
-4542,67	256,00
-4529,25	423,00
-4515,86	574,00
-4502,49	890,00
-4489,13	1067,00
-4475,80	724,00
-4462,49	554,00
-4449,21	280,00
-4435,94	165,00
-4422,70	466,00
-4409,47	542,00
-4396,27	598,00
-4383,09	498,00
-4369,93	250,00
-4356,79	160,00
-4343,67	265,00
-4330,58	425,00
-4317,50	569,00
-4304,45	576,00
-4291,41	256,00
-4278,40	120,00
-4265,41	165,00
-4252,44	333,00
-4239,49	522,00
-4226,55	537,00
-4213,65	472,00
-4200,76	242,00
-4187,89	177,00
-4175,04	200,00
-4162,21	187,00
-4149,40	143,00
-4136,61	202,00
-4123,85	82,00
-4111,10	102,00
-4098,37	252,00
-4085,66	184,00
-4072,98	117,00
-4060,31	109,00
-4047,66	169,00
-4035,04	220,00
-4022,43	291,00
-4009,84	57,00
-3997,27	230,00
-3984,72	126,00
-3972,19	35,00
-3959,69	18,00
-3947,20	163,00
-3934,73	3,00
-3922,27	130,00
-3909,84	149,00
-3897,43	-49,00
-3885,04	107,00
-3872,67	-47,00
-3860,31	57,00
-3847,98	106,00
-3835,66	44,00
-3823,36	45,00
-3811,09	15,00
-3798,83	-31,00
-3786,59	12,00
-3774,37	-22,00
-3762,17	32,00
-3749,98	-3,00
-3737,82	62,00
-3725,67	280,00
-3713,55	33,00
-3701,44	54,00
-3689,35	42,00
-3677,28	42,00
-3665,22	-34,00
-3653,19	-26,00
-3641,17	5,00
-3629,18	13,00
-3617,20	-17,00
-3605,24	22,00
-3593,30	21,00
-3581,37	63,00
-3569,47	9,00
-3557,58	96,00
-3545,71	-30,00
-3533,86	-23,00
-3522,02	-38,00
-3510,21	58,00
-3498,41	22,00
-3486,63	-50,00
-3474,87	-71,00
-3463,12	16,00
-3451,40	145,00
-3439,69	-108,00
-3428,00	36,00
-3416,33	-51,00
-3404,67	-26,00
-3393,03	-53,00
-3381,41	75,00
-3369,81	121,00
-3358,22	-14,00
-3346,66	198,00
-3335,10	-10,00
-3323,57	121,00
-3312,06	56,00
-3300,56	0,00
-3289,08	60,00
-3277,61	62,00
-3266,16	7,00
-3254,73	-47,00
-3243,32	-86,00
-3231,92	94,00
-3220,55	64,00
-3209,18	74,00
-3197,84	62,00
-3186,51	-58,00
-3175,20	-75,00
-3163,90	-90,00
-3152,63	52,00
-3141,36	87,00
-3130,12	89,00
-3118,89	85,00
-3107,68	7,00
-3096,49	94,00
-3085,31	-16,00
-3074,15	183,00
-3063,00	-24,00
-3051,87	-79,00
-3040,76	-42,00
-3029,67	80,00
-3018,59	117,00
-3007,52	83,00
-2996,48	71,00
-2985,44	-38,00
-2974,43	53,00
-2963,43	12,00
-2952,45	47,00
-2941,48	148,00
-2930,53	30,00
-2919,60	-26,00
-2908,68	48,00
-2897,78	57,00
-2886,89	17,00
-2876,02	28,00
-2865,17	24,00
-2854,33	-140,00
-2843,50	79,00
-2832,70	-10,00
-2821,90	55,00
-2811,13	-91,00
-2800,37	41,00
-2789,62	-12,00
-2778,89	64,00
-2768,18	43,00
-2757,48	-67,00
-2746,80	61,00
-2736,13	-88,00
-2725,48	15,00
-2714,84	32,00
-2704,22	60,00
-2693,61	55,00
-2683,02	-24,00
-2672,45	145,00
-2661,89	92,00
-2651,34	-1,00
-2640,81	71,00
-2630,30	-41,00
-2619,80	-52,00
-2609,31	132,00
-2598,84	111,00
-2588,39	69,00
-2577,95	-40,00
-2567,52	-37,00
-2557,11	158,00
-2546,71	81,00
-2536,33	61,00
-2525,97	-52,00
-2515,62	-80,00
-2505,28	90,00
-2494,96	-13,00
-2484,65	85,00
-2474,36	42,00
-2464,08	-53,00
-2453,82	17,00
-2443,57	71,00
-2433,33	44,00
-2423,11	-20,00
-2412,91	9,00
-2402,72	-24,00
-2392,54	88,00
-2382,38	67,00
-2372,23	125,00
-2362,09	8,00
-2351,97	61,00
-2341,87	13,00
-2331,78	-10,00
-2321,70	37,00
-2311,64	99,00
-2301,59	29,00
-2291,55	-39,00
-2281,53	-84,00
-2271,53	37,00
-2261,53	82,00
-2251,55	-40,00
-2241,59	-82,00
-2231,64	-31,00
-2221,70	42,00
-2211,78	11,00
-2201,87	-152,00
-2191,97	78,00
-2182,09	129,00
-2172,22	12,00
-2162,37	-21,00
-2152,53	55,00
-2142,70	78,00
-2132,89	-107,00
-2123,09	-97,00
-2113,30	71,00
-2103,53	43,00
-2093,77	100,00
-2084,02	44,00
-2074,29	139,00
-2064,57	22,00
-2054,86	144,00
-2045,17	-58,00
-2035,49	74,00
-2025,82	1,00
-2016,17	53,00
-2006,53	26,00
-1996,91	12,00
-1987,29	75,00
-1977,69	46,00
-1968,11	-36,00
-1958,53	-16,00
-1948,97	124,00
-1939,42	-47,00
-1929,89	97,00
-1920,37	44,00
-1910,86	-41,00
-1901,36	56,00
-1891,88	53,00
-1882,41	0,00
-1872,95	59,00
-1863,51	25,00
-1854,08	151,00
-1844,66	3,00
-1835,26	-27,00
-1825,86	-94,00
-1816,48	41,00
-1807,11	93,00
-1797,76	39,00
-1788,42	-14,00
-1779,09	69,00
-1769,77	-124,00
-1760,47	153,00
-1751,17	8,00
-1741,89	48,00
-1732,63	-19,00
-1723,37	96,00
-1714,13	21,00
-1704,90	-64,00
-1695,68	69,00
-1686,48	44,00
-1677,29	166,00
-1668,11	107,00
-1658,94	177,00
-1649,78	-8,00
-1640,64	56,00
-1631,51	-10,00
-1622,39	72,00
-1613,28	-12,00
-1604,19	-146,00
-1595,10	-2,00
-1586,03	23,00
-1576,97	-31,00
-1567,93	37,00
-1558,89	-109,00
-1549,87	20,00
-1540,86	18,00
-1531,86	-27,00
-1522,87	-31,00
-1513,90	6,00
-1504,93	32,00
-1495,98	77,00
-1487,04	154,00
-1478,12	44,00
-1469,20	14,00
-1460,30	-61,00
-1451,40	-68,00
-1442,52	25,00
-1433,65	49,00
-1424,80	75,00
-1415,95	-12,00
-1407,12	114,00
-1398,30	-10,00
-1389,48	-108,00
-1380,69	-23,00
-1371,90	57,00
-1363,12	80,00
-1354,36	114,00
-1345,60	68,00
-1336,86	-53,00
-1328,13	86,00
-1319,41	-26,00
-1310,70	-10,00
-1302,01	83,00
-1293,32	42,00
-1284,65	11,00
-1275,99	-20,00
-1267,33	127,00
-1258,69	5,00
-1250,06	-57,00
-1241,45	56,00
-1232,84	213,00
-1224,25	-15,00
-1215,66	4,00
-1207,09	31,00
-1198,53	96,00
-1189,97	105,00
-1181,43	17,00
-1172,91	51,00
-1164,39	66,00
-1155,88	81,00
-1147,38	142,00
-1138,90	-1,00
-1130,43	6,00
-1121,96	12,00
-1113,51	9,00
-1105,07	62,00
-1096,64	76,00
-1088,22	43,00
-1079,81	-8,00
-1071,41	20,00
-1063,02	65,00
-1054,65	40,00
-1046,28	-16,00
-1037,92	141,00
-1029,58	156,00
-1021,24	-24,00
-1012,92	18,00
-1004,61	121,00
-996,30	49,00
-988,01	-23,00
-979,73	135,00
-971,46	24,00
-963,20	36,00
-954,95	57,00
-946,71	31,00
-938,48	51,00
-930,26	33,00
-922,06	69,00
-913,86	38,00
-905,67	-65,00
-897,49	95,00
-889,33	-57,00
-881,17	100,00
-873,02	-101,00
-864,89	-56,00
-856,76	-56,00
-848,65	-86,00
-840,54	129,00
-832,45	31,00
-824,36	25,00
-816,29	106,00
-808,22	128,00
-800,17	83,00
-792,12	76,00
-784,09	15,00
-776,06	33,00
-768,05	57,00
-760,04	145,00
-752,05	179,00
-744,07	98,00
-736,09	21,00
-728,13	112,00
-720,17	70,00
-712,23	2,00
-704,29	48,00
-696,37	48,00
-688,45	13,00
-680,55	120,00
-672,65	51,00
-664,77	50,00
-656,89	10,00
-649,03	36,00
-641,17	124,00
-633,32	74,00
-625,49	176,00
-617,66	97,00
-609,84	-33,00
-602,03	70,00
-594,23	69,00
-586,45	98,00
-578,67	8,00
-570,90	22,00
-563,14	9,00
-555,39	-73,00
-547,65	-9,00
-539,91	31,00
-532,19	75,00
-524,48	-36,00
-516,78	67,00
-509,08	72,00
-501,40	-98,00
-493,72	28,00
-486,06	158,00
-478,40	116,00
-470,76	-19,00
-463,12	9,00
-455,49	80,00
-447,87	10,00
-440,26	-53,00
-432,66	76,00
-425,07	128,00
-417,49	102,00
-409,92	-1,00
-402,35	34,00
-394,80	82,00
-387,25	79,00
-379,72	50,00
-372,19	38,00
-364,67	158,00
-357,17	113,00
-349,67	21,00
-342,18	137,00
-334,69	68,00
-327,22	155,00
-319,76	101,00
-312,30	-44,00
-304,86	40,00
-297,42	91,00
-290,00	53,00
-282,58	158,00
-275,17	16,00
-267,77	224,00
-260,37	9,00
-252,99	90,00
-245,62	174,00
-238,25	161,00
-230,90	138,00
-223,55	225,00
-216,21	231,00
-208,88	125,00
-201,56	267,00
-194,25	218,00
-186,94	223,00
-179,65	204,00
-172,36	333,00
-165,08	289,00
-157,81	306,00
-150,55	241,00
-143,30	371,00
-136,06	350,00
-128,82	431,00
-121,60	589,00
-114,38	491,00
-107,17	553,00
-99,97	726,00
-92,78	773,00
-85,60	903,00
-78,42	1054,00
-71,25	1247,00
-64,10	1571,00
-56,95	1570,00
-49,81	1823,00
-42,67	2386,00
-35,55	3018,00
-28,43	4130,00
-21,33	7165,00
-14,23	24820,00
-7,14	54419,00
-0,05	54171,00
7,02	53809,00
14,09	54108,00
21,14	17644,00
28,19	7493,00
35,23	4856,00
42,27	3737,00
49,29	3069,00
56,31	2586,00
63,32	2087,00
70,32	1757,00
77,31	1630,00
84,29	1356,00
91,27	1301,00
98,23	1012,00
105,19	1036,00
112,14	1112,00
119,09	1730,00
126,02	2556,00
132,95	3040,00
139,87	3107,00
146,78	2976,00
153,68	3032,00
160,58	2910,00
167,46	2905,00
174,34	2900,00
181,21	2783,00
188,08	2823,00
194,93	2807,00
201,78	2823,00
208,62	2759,00
215,45	2786,00
222,27	2778,00
229,09	2726,00
235,90	2673,00
242,70	2648,00
249,49	2571,00
256,27	2622,00
263,05	2610,00
269,82	2566,00
276,58	2725,00
283,33	2584,00
290,08	2620,00
296,82	2658,00
303,55	2365,00
310,27	2564,00
316,98	2433,00
323,69	2422,00
330,39	2359,00
337,08	2396,00
343,76	2280,00
350,44	2389,00
357,11	2250,00
363,77	2317,00
370,42	2303,00
377,07	2330,00
383,71	2483,00
390,34	2176,00
396,96	2330,00
403,58	2224,00
410,19	2391,00
416,79	2293,00
423,38	2383,00
429,97	2344,00
436,55	2161,00
443,12	2113,00
449,68	2093,00
456,24	2064,00
462,79	2178,00
469,33	1959,00
475,86	1840,00
482,39	2001,00
488,91	2018,00
495,42	1865,00
501,93	2051,00
508,42	1856,00
514,91	1892,00
521,40	1904,00
527,87	1758,00
534,34	1931,00
540,80	1817,00
547,25	1800,00
553,70	1880,00
560,14	1915,00
566,57	1795,00
573,00	1698,00
579,41	1942,00
585,83	1602,00
592,23	1774,00
598,62	1693,00
605,01	1636,00
611,40	1696,00
617,77	1731,00
624,14	1611,00
630,50	1715,00
636,85	1618,00
643,20	1703,00
649,54	1621,00
655,87	1599,00
662,20	1591,00
668,52	1524,00
674,83	1639,00
681,13	1377,00
687,43	1544,00
693,72	1510,00
700,00	1604,00
706,28	1570,00
712,55	1574,00
718,81	1537,00
725,07	1733,00
731,32	1536,00
737,56	1605,00
743,79	1554,00
750,02	1566,00
756,24	1364,00
762,46	1664,00
768,67	1530,00
774,87	1478,00
781,06	1495,00
787,25	1457,00
793,43	1656,00
799,60	1504,00
805,77	1533,00
811,93	1608,00
818,08	1472,00
824,23	1477,00
830,37	1488,00
836,50	1409,00
842,63	1506,00
848,75	1470,00
854,87	1392,00
860,97	1552,00
867,07	1520,00
873,17	1373,00
879,25	1368,00
885,33	1529,00
891,41	1441,00
897,47	1361,00
903,53	1393,00
909,59	1278,00
915,63	1229,00
921,67	1334,00
927,71	1325,00
933,74	1235,00
939,76	1257,00
945,77	1209,00
951,78	1393,00
957,78	1195,00
963,78	1209,00
969,77	1313,00
975,75	1286,00
981,72	1278,00
987,69	1003,00
993,66	1309,00
999,61	1320,00
1005,56	1206,00
1011,51	1263,00
1017,44	1262,00
1023,37	1248,00
1029,30	1176,00
1035,22	1355,00
1041,13	1356,00
1047,03	1394,00
1052,93	1448,00
1058,83	1766,00
1064,71	1939,00
1070,59	1601,00
1076,47	1586,00
1082,33	1549,00
1088,20	1300,00
1094,05	1426,00
1099,90	1391,00
1105,74	1240,00
1111,58	1348,00
1117,41	1379,00
1123,23	1538,00
1129,05	1637,00
1134,86	1540,00
1140,67	1283,00
1146,47	1256,00
1152,26	1199,00
1158,05	1217,00
1163,83	1249,00
1169,60	1122,00
1175,37	1242,00
1181,13	1203,00
1186,89	1103,00
1192,64	1110,00
1198,38	1206,00
1204,12	1310,00
1209,85	1231,00
1215,58	992,00
1221,30	1177,00
1227,02	1110,00
1232,72	1145,00
1238,43	1222,00
1244,12	1178,00
1249,81	1045,00
1255,50	1081,00
1261,17	1201,00
1266,85	1313,00
1272,51	1286,00
1278,17	1302,00
1283,83	1301,00
1289,47	1665,00
1295,12	2107,00
1300,75	1881,00
1306,38	1641,00
1312,01	1562,00
1317,63	1378,00
1323,24	1311,00
1328,85	1261,00
1334,45	1194,00
1340,04	1243,00
1345,63	1231,00
1351,22	1266,00
1356,80	1193,00
1362,37	1234,00
1367,93	1165,00
1373,49	1235,00
1379,05	1439,00
1384,60	1333,00
1390,14	1218,00
1395,68	1163,00
1401,21	1213,00
1406,74	1309,00
1412,26	1397,00
1417,77	1309,00
1423,28	1543,00
1428,78	1690,00
1434,28	1944,00
1439,77	2062,00
1445,26	2031,00
1450,74	2032,00
1456,22	1948,00
1461,68	1794,00
1467,15	1691,00
1472,61	1618,00
1478,06	1358,00
1483,51	1225,00
1488,95	1096,00
1494,38	1088,00
1499,81	1132,00
1505,24	1071,00
1510,65	1023,00
1516,07	1241,00
1521,48	1096,00
1526,88	1063,00
1532,27	985,00
1537,67	1004,00
1543,05	1045,00
1548,43	1054,00
1553,81	1091,00
1559,18	1077,00
1564,54	1107,00
1569,90	943,00
1575,25	1009,00
1580,60	916,00
1585,94	965,00
1591,28	1043,00
1596,61	972,00
1601,93	829,00
1607,25	968,00
1612,57	878,00
1617,88	931,00
1623,18	1023,00
1628,48	806,00
1633,77	814,00
1639,06	954,00
1644,34	954,00
1649,62	850,00
1654,89	891,00
1660,16	929,00
1665,42	969,00
1670,67	933,00
1675,92	838,00
1681,17	911,00
1686,41	807,00
1691,64	767,00
1696,87	798,00
1702,10	819,00
1707,32	754,00
1712,53	782,00
1717,74	816,00
1722,94	674,00
1728,14	792,00
1733,33	748,00
1738,52	843,00
1743,70	872,00
1748,88	802,00
1754,05	708,00
1759,22	768,00
1764,38	-939,00
1769,53	781,00
1774,69	796,00
1779,83	700,00
1784,97	565,00
1790,11	733,00
1795,24	594,00
1800,36	655,00
1805,48	603,00
1810,60	686,00
1815,71	653,00
1820,82	780,00
1825,92	586,00
1831,01	619,00
1836,10	674,00
1841,19	690,00
1846,26	666,00
1851,34	523,00
1856,41	708,00
1861,47	649,00
1866,53	730,00
1871,59	625,00
1876,64	683,00
1881,68	689,00
1886,72	667,00
1891,76	613,00
1896,79	669,00
1901,81	652,00
1906,83	684,00
1911,85	541,00
1916,86	552,00
1921,86	467,00
1926,86	500,00
1931,86	531,00
1936,85	545,00
1941,83	522,00
1946,81	450,00
1951,79	497,00
1956,76	451,00
1961,72	324,00
1966,68	586,00
1971,64	635,00
1976,59	638,00
1981,54	527,00
1986,48	503,00
1991,42	574,00
1996,35	484,00
2001,27	484,00
2006,20	466,00
2011,11	505,00
2016,03	525,00
2020,93	372,00
2025,84	614,00
2030,73	376,00
2035,63	444,00
2040,52	553,00
2045,40	375,00
2050,28	360,00
2055,15	482,00
2060,02	413,00
2064,89	389,00
2069,75	389,00
2074,60	546,00
2079,46	605,00
2084,30	400,00
2089,14	423,00
2093,98	410,00
2098,81	398,00
2103,64	412,00
2108,46	481,00
2113,28	426,00
2118,09	440,00
2122,90	346,00
2127,70	398,00
2132,50	420,00
2137,30	362,00
2142,09	423,00
2146,87	366,00
2151,66	454,00
2156,43	374,00
2161,20	418,00
2165,97	372,00
2170,73	427,00
2175,49	352,00
2180,24	487,00
2184,99	282,00
2189,74	442,00
2194,48	368,00
2199,21	403,00
2203,94	463,00
2208,67	266,00
2213,39	576,00
2218,11	300,00
2222,82	484,00
2227,53	363,00
2232,23	294,00
2236,93	449,00
2241,63	427,00
2246,32	278,00
2251,00	285,00
2255,68	381,00
2260,36	280,00
2265,03	325,00
2269,70	395,00
2274,36	346,00
2279,02	364,00
2283,68	296,00
2288,33	204,00
2292,97	330,00
2297,61	343,00
2302,25	404,00
2306,88	152,00
2311,51	288,00
2316,14	196,00
2320,75	264,00
2325,37	195,00
2329,98	346,00
2334,59	289,00
2339,19	277,00
2343,79	299,00
2348,38	438,00
2352,97	268,00
2357,55	297,00
2362,13	263,00
2366,71	220,00
2371,28	239,00
2375,85	206,00
2380,41	155,00
2384,97	273,00
2389,52	245,00
2394,07	208,00
2398,62	293,00
2403,16	307,00
2407,70	129,00
2412,23	237,00
2416,76	136,00
2421,29	359,00
2425,81	275,00
2430,32	303,00
2434,84	344,00
2439,34	260,00
2443,85	270,00
2448,35	223,00
2452,84	282,00
2457,33	170,00
2461,82	330,00
2466,30	375,00
2470,78	332,00
2475,25	217,00
2479,72	364,00
2484,19	257,00
2488,65	161,00
2493,11	197,00
2497,56	232,00
2502,01	207,00
2506,46	385,00
2510,90	349,00
2515,34	230,00
2519,77	216,00
2524,20	266,00
2528,62	290,00
2533,04	179,00
2537,46	244,00
2541,87	132,00
2546,28	131,00
2550,68	242,00
2555,08	93,00
2559,48	260,00
2563,87	109,00
2568,26	212,00
2572,64	209,00
2577,02	300,00
2581,40	191,00
2585,77	242,00
2590,14	289,00
2594,50	260,00
2598,86	229,00
2603,22	117,00
2607,57	135,00
2611,92	324,00
2616,26	113,00
2620,60	207,00
2624,94	294,00
2629,27	215,00
2633,60	216,00
2637,92	241,00
2642,24	154,00
2646,56	204,00
2650,87	223,00
2655,18	179,00
2659,48	193,00
2663,78	180,00
2668,08	78,00
2672,37	232,00
2676,66	327,00
2680,95	219,00
2685,23	289,00
2689,50	225,00
2693,78	230,00
2698,05	208,00
2702,31	77,00
2706,57	334,00
2710,83	256,00
2715,08	253,00
2719,33	282,00
2723,58	228,00
2727,82	308,00
2732,06	332,00
2736,29	336,00
2740,53	208,00
2744,75	379,00
2748,97	322,00
2753,19	213,00
2757,41	262,00
2761,62	192,00
2765,83	255,00
2770,03	329,00
2774,23	354,00
2778,43	198,00
2782,62	336,00
2786,81	218,00
2791,00	308,00
2795,18	335,00
2799,35	406,00
2803,53	399,00
2807,70	492,00
2811,86	331,00
2816,03	400,00
2820,19	502,00
2824,34	487,00
2828,49	437,00
2832,64	587,00
2836,78	734,00
2840,92	1012,00
2845,06	1191,00
2849,19	1223,00
2853,32	1359,00
2857,45	1302,00
2861,57	1458,00
2865,69	1204,00
2869,80	1190,00
2873,91	1404,00
2878,02	1422,00
2882,12	1552,00
2886,22	1422,00
2890,32	1527,00
2894,41	1235,00
2898,50	1328,00
2902,58	1191,00
2906,67	1215,00
2910,74	970,00
2914,82	986,00
2918,89	1021,00
2922,96	853,00
2927,02	845,00
2931,08	829,00
2935,13	732,00
2939,19	768,00
2943,24	581,00
2947,28	608,00
2951,32	468,00
2955,36	364,00
2959,40	557,00
2963,43	385,00
2967,46	338,00
2971,48	275,00
2975,50	246,00
2979,52	424,00
2983,53	68,00
2987,54	86,00
2991,55	191,00
2995,55	196,00
2999,55	153,00
3003,54	159,00
3007,54	107,00
3011,53	74,00
3015,51	157,00
3019,49	26,00
3023,47	123,00
3027,45	96,00
3031,42	109,00
3035,39	194,00
3039,35	110,00
3043,31	101,00
3047,27	32,00
3051,22	166,00
3055,17	50,00
3059,12	149,00
3063,06	90,00
3067,00	108,00
3070,94	147,00
3074,87	24,00
3078,80	95,00
3082,73	203,00
3086,65	57,00
3090,57	65,00
3094,49	186,00
3098,40	17,00
3102,31	128,00
3106,22	34,00
3110,12	29,00
3114,02	-53,00
3117,92	231,00
3121,81	143,00
3125,70	128,00
3129,58	205,00
3133,47	193,00
3137,34	-62,00
3141,22	118,00
3145,09	206,00
3148,96	69,00
3152,83	121,00
3156,69	-41,00
3160,55	171,00
3164,40	100,00
3168,26	113,00
3172,10	65,00
3175,95	104,00
3179,79	104,00
3183,63	178,00
3187,47	157,00
3191,30	67,00
3195,13	56,00
3198,95	118,00
3202,78	-31,00
3206,60	71,00
3210,41	25,00
3214,23	94,00
3218,03	112,00
3221,84	69,00
3225,64	60,00
3229,44	216,00
3233,24	130,00
3237,03	208,00
3240,82	10,00
3244,61	158,00
3248,39	112,00
3252,17	156,00
3255,95	45,00
3259,72	54,00
3263,49	35,00
3267,26	182,00
3271,03	67,00
3274,79	5,00
3278,54	-11,00
3282,30	61,00
3286,05	115,00
3289,80	30,00
3293,54	74,00
3297,29	2,00
3301,02	70,00
3304,76	47,00
3308,49	-16,00
3312,22	77,00
3315,95	142,00
3319,67	56,00
3323,39	140,00
3327,10	127,00
3330,82	83,00
3334,53	87,00
3338,24	98,00
3341,94	-69,00
3345,64	69,00
3349,34	111,00
3353,03	166,00
3356,72	27,00
3360,41	0,00
3364,10	-19,00
3367,78	-63,00
3371,46	26,00
3375,13	79,00
3378,81	156,00
3382,48	117,00
3386,14	109,00
3389,81	-9,00
3393,47	118,00
3397,12	-57,00
3400,78	137,00
3404,43	-9,00
3408,08	133,00
3411,72	19,00
3415,36	170,00
3419,00	4,00
3422,64	68,00
3426,27	-3,00
3429,90	93,00
3433,53	53,00
3437,15	59,00
3440,77	67,00
3444,39	99,00
3448,00	104,00
3451,62	20,00
3455,22	43,00
3458,83	112,00
3462,43	68,00
3466,03	138,00
3469,63	23,00
3473,22	45,00
3476,81	27,00
3480,40	38,00
3483,99	141,00
3487,57	9,00
3491,15	149,00
3494,72	102,00
3498,29	18,00
3501,86	126,00
3505,43	96,00
3508,99	218,00
3512,56	-73,00
3516,11	-109,00
3519,67	176,00
3523,22	70,00
3526,77	34,00
3530,32	-31,00
3533,86	-115,00
3537,40	-58,00
3540,94	-32,00
3544,47	-14,00
3548,00	98,00
3551,53	240,00
3555,06	-4,00
3558,58	20,00
3562,10	156,00
3565,62	71,00
3569,13	76,00
3572,64	43,00
3576,15	-79,00
3579,66	32,00
3583,16	-34,00
3586,66	192,00
3590,16	58,00
3593,65	64,00
3597,14	9,00
3600,63	31,00
3604,11	-19,00
3607,60	21,00
3611,08	-96,00
3614,55	-13,00
3618,03	75,00
3621,50	-7,00
3624,97	21,00
3628,43	-38,00
3631,90	130,00
3635,36	57,00
3638,81	29,00
3642,27	-59,00
3645,72	108,00
3649,17	77,00
3652,61	-31,00
3656,06	80,00
3659,50	-24,00
3662,93	121,00
3666,37	-43,00
3669,80	-61,00
3673,23	-27,00
3676,65	8,00
3680,08	-57,00
3683,50	62,00
3686,92	82,00
3690,33	-13,00
3693,74	171,00
3697,15	-13,00
3700,56	128,00
3703,96	88,00
3707,36	-62,00
3710,76	-9,00
3714,16	47,00
3717,55	64,00
3720,94	-16,00
3724,33	-53,00
3727,71	-55,00
3731,10	48,00
3734,48	-21,00
3737,85	-42,00
3741,23	14,00
3744,60	-29,00
3747,97	179,00
3751,33	14,00
3754,69	-43,00
3758,05	11,00
3761,41	17,00
3764,77	34,00
3768,12	13,00
3771,47	29,00
3774,82	85,00
3778,16	-6,00
3781,50	-2,00
3784,84	6,00
3788,18	-1,00
>>>>>End Processed Spectral Data<<<<<
