SpectraSuite Data File
++++++++++++++++++++++++++++++++++++
Date: Tue Mar 03 11:35:40 ICT 2026
User: user
Dark Spectrum Present: Yes
Reference Spectrum Present: No
Number of Sampled Component Spectra: 1
Spectrometers: MAYP113682
Integration Time (usec): 3000000 (MAYP113682)
Spectra Averaged: 1 (MAYP113682)
Boxcar Smoothing: 0 (MAYP113682)
Correct for Electrical Dark: No (MAYP113682)
Strobe/Lamp Enabled: No (MAYP113682)
Correct for Detector Non-linearity: No (MAYP113682)
Correct for Stray Light: No (MAYP113682)
Number of Pixels in Processed Spectrum: 2068
>>>>>Begin Processed Spectral Data<<<<<
-37534,58	8,00
-37414,56	-2,00
-37295,11	0,00
-37176,24	0,00
-37057,95	24,00
-36940,22	45,00
-36823,05	-80,00
-36706,45	-72,00
-36590,40	118,00
-36474,90	-8,00
-36359,95	52,00
-36245,55	28,00
-36131,68	5,00
-36018,35	10,00
-35905,55	18,00
-35793,29	67,00
-35681,54	38,00
-35570,32	-5,00
-35459,62	40,00
-35349,43	-44,00
-35239,75	106,00
-35130,58	-84,00
-35021,91	60,00
-34913,74	29,00
-34806,07	29,00
-34698,89	31,00
-34592,20	-11,00
-34486,00	39,00
-34380,28	-5,00
-34275,04	-89,00
-34170,27	38,00
-34065,98	6,00
-33962,16	151,00
-33858,81	-37,00
-33755,92	151,00
-33653,49	-82,00
-33551,52	-157,00
-33450,01	22,00
-33348,94	105,00
-33248,33	117,00
-33148,16	-41,00
-33048,43	134,00
-32949,14	-79,00
-32850,29	114,00
-32751,87	-23,00
-32653,89	99,00
-32556,33	88,00
-32459,20	13,00
-32362,49	-3,00
-32266,19	-5,00
-32170,32	49,00
-32074,86	91,00
-31979,82	72,00
-31885,18	113,00
-31790,95	-47,00
-31697,12	-3,00
-31603,69	40,00
-31510,67	77,00
-31418,04	168,00
-31325,80	-2,00
-31233,95	1,00
-31142,49	52,00
-31051,42	87,00
-30960,73	24,00
-30870,43	47,00
-30780,50	-59,00
-30690,95	173,00
-30601,77	151,00
-30512,97	10,00
-30424,53	23,00
-30336,46	185,00
-30248,76	60,00
-30161,42	-45,00
-30074,44	-103,00
-29987,81	-44,00
-29901,55	-4,00
-29815,63	-23,00
-29730,07	124,00
-29644,86	-71,00
-29560,00	70,00
-29475,48	-47,00
-29391,30	21,00
-29307,47	55,00
-29223,97	10,00
-29140,81	-14,00
-29057,99	25,00
-28975,50	-36,00
-28893,34	70,00
-28811,51	-100,00
-28730,00	-86,00
-28648,82	-108,00
-28567,97	29,00
-28487,43	-21,00
-28407,21	-41,00
-28327,32	-72,00
-28247,73	-12,00
-28168,46	82,00
-28089,50	-18,00
-28010,85	-79,00
-27932,51	42,00
-27854,48	209,00
-27776,75	28,00
-27699,32	-54,00
-27622,19	104,00
-27545,37	125,00
-27468,84	213,00
-27392,60	-35,00
-27316,66	-116,00
-27241,01	87,00
-27165,66	20,00
-27090,59	44,00
-27015,81	-31,00
-26941,31	82,00
-26867,10	16,00
-26793,17	48,00
-26719,52	23,00
-26646,15	73,00
-26573,06	-1,00
-26500,24	-45,00
-26427,70	122,00
-26355,43	81,00
-26283,43	-92,00
-26211,71	22,00
-26140,25	77,00
-26069,06	-51,00
-25998,13	30,00
-25927,46	117,00
-25857,06	21,00
-25786,92	73,00
-25717,04	-32,00
-25647,42	-11,00
-25578,05	133,00
-25508,94	71,00
-25440,09	95,00
-25371,48	40,00
-25303,13	87,00
-25235,02	14,00
-25167,17	118,00
-25099,56	-53,00
-25032,19	-48,00
-24965,07	-36,00
-24898,20	160,00
-24831,56	48,00
-24765,17	-22,00
-24699,01	-136,00
-24633,10	-92,00
-24567,41	121,00
-24501,97	-79,00
-24436,75	38,00
-24371,77	-21,00
-24307,03	12,00
-24242,51	96,00
-24178,22	-36,00
-24114,16	-45,00
-24050,32	16,00
-23986,71	111,00
-23923,32	74,00
-23860,16	-46,00
-23797,22	89,00
-23734,50	86,00
-23672,00	133,00
-23609,71	-70,00
-23547,65	27,00
-23485,80	-27,00
-23424,16	21,00
-23362,74	46,00
-23301,53	52,00
-23240,54	56,00
-23179,75	27,00
-23119,17	58,00
-23058,80	10,00
-22998,64	-103,00
-22938,68	55,00
-22878,93	72,00
-22819,39	21,00
-22760,04	-1,00
-22700,90	79,00
-22641,96	67,00
-22583,22	34,00
-22524,68	8,00
-22466,33	-15,00
-22408,19	-17,00
-22350,23	39,00
-22292,48	47,00
-22234,92	84,00
-22177,55	77,00
-22120,37	-73,00
-22063,38	102,00
-22006,58	33,00
-21949,98	1,00
-21893,56	36,00
-21837,33	16,00
-21781,28	2,00
-21725,42	95,00
-21669,74	-102,00
-21614,25	37,00
-21558,94	62,00
-21503,81	166,00
-21448,86	127,00
-21394,10	-53,00
-21339,51	-8,00
-21285,10	-83,00
-21230,86	97,00
-21176,81	-69,00
-21122,93	51,00
-21069,22	67,00
-21015,69	-110,00
-20962,33	1,00
-20909,14	6,00
-20856,13	126,00
-20803,28	-98,00
-20750,61	72,00
-20698,10	12,00
-20645,76	-7,00
-20593,59	-6,00
-20541,59	-182,00
-20489,75	92,00
-20438,07	-42,00
-20386,56	51,00
-20335,22	94,00
-20284,03	40,00
-20233,01	2,00
-20182,15	85,00
-20131,45	135,00
-20080,91	-53,00
-20030,52	76,00
-19980,30	73,00
-19930,23	-2,00
-19880,32	125,00
-19830,56	-15,00
-19780,96	-100,00
-19731,52	-101,00
-19682,23	26,00
-19633,09	-104,00
-19584,10	-96,00
-19535,26	-4,00
-19486,58	-12,00
-19438,04	7,00
-19389,66	-26,00
-19341,42	108,00
-19293,33	29,00
-19245,39	57,00
-19197,60	152,00
-19149,95	29,00
-19102,45	-103,00
-19055,09	-4,00
-19007,87	79,00
-18960,80	31,00
-18913,87	-162,00
-18867,09	56,00
-18820,44	40,00
-18773,94	17,00
-18727,57	54,00
-18681,35	-75,00
-18635,26	135,00
-18589,31	99,00
-18543,50	15,00
-18497,83	-21,00
-18452,29	41,00
-18406,89	-13,00
-18361,63	46,00
-18316,50	-7,00
-18271,50	-51,00
-18226,63	239,00
-18181,90	-91,00
-18137,30	-22,00
-18092,84	108,00
-18048,50	77,00
-18004,29	-67,00
-17960,22	-14,00
-17916,27	-44,00
-17872,45	80,00
-17828,76	27,00
-17785,20	-137,00
-17741,77	16,00
-17698,46	41,00
-17655,28	39,00
-17612,22	115,00
-17569,29	-17,00
-17526,48	132,00
-17483,79	25,00
-17441,23	42,00
-17398,79	-88,00
-17356,48	-38,00
-17314,28	-44,00
-17272,21	-6,00
-17230,26	-27,00
-17188,42	34,00
-17146,71	-28,00
-17105,12	33,00
-17063,64	177,00
-17022,28	-69,00
-16981,04	17,00
-16939,92	42,00
-16898,91	-10,00
-16858,02	96,00
-16817,25	-28,00
-16776,59	-79,00
-16736,04	33,00
-16695,61	-24,00
-16655,29	70,00
-16615,09	-22,00
-16574,99	70,00
-16535,01	72,00
-16495,15	41,00
-16455,39	34,00
-16415,74	-21,00
-16376,21	-108,00
-16336,78	-1,00
-16297,46	-51,00
-16258,26	-73,00
-16219,16	124,00
-16180,17	67,00
-16141,28	36,00
-16102,51	45,00
-16063,84	10,00
-16025,27	157,00
-15986,82	46,00
-15948,46	-84,00
-15910,22	24,00
-15872,07	-10,00
-15834,04	55,00
-15796,10	58,00
-15758,27	52,00
-15720,54	-30,00
-15682,91	55,00
-15645,39	55,00
-15607,97	83,00
-15570,64	139,00
-15533,42	-59,00
-15496,30	-64,00
-15459,28	-37,00
-15422,36	-10,00
-15385,54	98,00
-15348,82	30,00
-15312,19	101,00
-15275,66	-34,00
-15239,23	16,00
-15202,90	125,00
-15166,67	-77,00
-15130,53	90,00
-15094,48	96,00
-15058,54	50,00
-15022,68	42,00
-14986,93	70,00
-14951,26	79,00
-14915,69	112,00
-14880,22	42,00
-14844,84	-92,00
-14809,55	72,00
-14774,35	-56,00
-14739,25	66,00
-14704,24	45,00
-14669,32	14,00
-14634,49	25,00
-14599,75	66,00
-14565,10	23,00
-14530,55	-45,00
-14496,08	151,00
-14461,70	-109,00
-14427,41	77,00
-14393,21	12,00
-14359,10	-187,00
-14325,07	214,00
-14291,14	84,00
-14257,29	-9,00
-14223,52	124,00
-14189,85	-64,00
-14156,26	77,00
-14122,76	96,00
-14089,34	113,00
-14056,01	57,00
-14022,76	-9,00
-13989,60	-54,00
-13956,52	16,00
-13923,53	25,00
-13890,62	24,00
-13857,79	-37,00
-13825,05	-64,00
-13792,39	-83,00
-13759,81	3,00
-13727,31	35,00
-13694,90	28,00
-13662,57	-37,00
-13630,31	17,00
-13598,14	86,00
-13566,05	59,00
-13534,05	62,00
-13502,12	60,00
-13470,27	20,00
-13438,50	13,00
-13406,80	70,00
-13375,19	-14,00
-13343,66	98,00
-13312,20	6,00
-13280,83	65,00
-13249,53	-13,00
-13218,30	-55,00
-13187,16	89,00
-13156,09	-8,00
-13125,10	75,00
-13094,18	104,00
-13063,34	-23,00
-13032,58	35,00
-13001,89	23,00
-12971,28	10,00
-12940,74	44,00
-12910,27	33,00
-12879,88	59,00
-12849,57	139,00
-12819,33	-24,00
-12789,16	43,00
-12759,06	-108,00
-12729,04	61,00
-12699,09	-39,00
-12669,21	-83,00
-12639,41	21,00
-12609,68	47,00
-12580,02	20,00
-12550,43	-118,00
-12520,91	-52,00
-12491,46	17,00
-12462,08	-52,00
-12432,77	113,00
-12403,54	-11,00
-12374,37	22,00
-12345,27	68,00
-12316,24	-60,00
-12287,29	71,00
-12258,40	165,00
-12229,57	-90,00
-12200,82	119,00
-12172,14	37,00
-12143,52	44,00
-12114,97	49,00
-12086,49	-11,00
-12058,07	75,00
-12029,73	51,00
-12001,44	122,00
-11973,23	-76,00
-11945,08	-54,00
-11917,00	-20,00
-11888,98	27,00
-11861,03	9,00
-11833,15	-37,00
-11805,32	55,00
-11777,57	-117,00
-11749,88	85,00
-11722,25	16,00
-11694,69	68,00
-11667,19	30,00
-11639,75	36,00
-11612,38	129,00
-11585,07	1,00
-11557,83	-43,00
-11530,65	57,00
-11503,53	115,00
-11476,47	46,00
-11449,48	30,00
-11422,54	8,00
-11395,67	-17,00
-11368,86	133,00
-11342,11	36,00
-11315,43	124,00
-11288,80	18,00
-11262,23	-12,00
-11235,73	11,00
-11209,28	86,00
-11182,90	41,00
-11156,57	142,00
-11130,31	81,00
-11104,10	-63,00
-11077,96	-27,00
-11051,87	91,00
-11025,84	13,00
-10999,87	77,00
-10973,96	-10,00
-10948,11	-74,00
-10922,31	-36,00
-10896,58	-47,00
-10870,90	107,00
-10845,28	130,00
-10819,71	59,00
-10794,20	138,00
-10768,75	85,00
-10743,36	52,00
-10718,02	74,00
-10692,74	12,00
-10667,52	61,00
-10642,35	-63,00
-10617,24	175,00
-10592,18	115,00
-10567,18	145,00
-10542,23	243,00
-10517,34	268,00
-10492,51	24,00
-10467,72	84,00
-10443,00	240,00
-10418,32	172,00
-10393,70	67,00
-10369,14	171,00
-10344,63	188,00
-10320,17	176,00
-10295,77	220,00
-10271,42	224,00
-10247,12	295,00
-10222,88	416,00
-10198,68	280,00
-10174,54	296,00
-10150,46	326,00
-10126,42	357,00
-10102,44	326,00
-10078,51	344,00
-10054,63	388,00
-10030,80	369,00
-10007,03	439,00
-9983,30	529,00
-9959,63	483,00
-9936,01	523,00
-9912,44	504,00
-9888,92	644,00
-9865,44	618,00
-9842,02	583,00
-9818,65	647,00
-9795,33	641,00
-9772,06	716,00
-9748,84	742,00
-9725,67	731,00
-9702,55	966,00
-9679,47	1066,00
-9656,45	1242,00
-9633,47	1279,00
-9610,55	1316,00
-9587,67	1381,00
-9564,84	1504,00
-9542,06	1579,00
-9519,32	1821,00
-9496,64	1957,00
-9474,00	2207,00
-9451,41	2154,00
-9428,87	2273,00
-9406,37	1964,00
-9383,92	1887,00
-9361,52	1671,00
-9339,17	1945,00
-9316,86	2159,00
-9294,60	2491,00
-9272,38	2732,00
-9250,21	2831,00
-9228,09	2976,00
-9206,01	2765,00
-9183,98	2397,00
-9162,00	2176,00
-9140,06	2063,00
-9118,16	2031,00
-9096,31	2141,00
-9074,51	2185,00
-9052,75	2145,00
-9031,04	2190,00
-9009,37	1779,00
-8987,74	1674,00
-8966,16	1561,00
-8944,63	1355,00
-8923,14	1238,00
-8901,69	1368,00
-8880,29	1482,00
-8858,93	1743,00
-8837,61	1863,00
-8816,34	1937,00
-8795,11	2045,00
-8773,92	1804,00
-8752,78	1547,00
-8731,68	1533,00
-8710,62	1580,00
-8689,61	1593,00
-8668,63	1691,00
-8647,70	2007,00
-8626,82	1922,00
-8605,97	1806,00
-8585,17	1723,00
-8564,41	1580,00
-8543,69	1346,00
-8523,01	1215,00
-8502,37	1261,00
-8481,78	1417,00
-8461,23	1551,00
-8440,71	1652,00
-8420,24	1795,00
-8399,81	1846,00
-8379,42	1714,00
-8359,08	1588,00
-8338,77	1500,00
-8318,50	1250,00
-8298,27	1200,00
-8278,09	1382,00
-8257,94	1502,00
-8237,83	1566,00
-8217,76	1638,00
-8197,74	1808,00
-8177,75	1674,00
-8157,80	1438,00
-8137,89	1289,00
-8118,02	1343,00
-8098,19	1176,00
-8078,40	1442,00
-8058,65	1622,00
-8038,93	1552,00
-8019,26	1451,00
-7999,62	1384,00
-7980,02	1343,00
-7960,46	1217,00
-7940,94	1227,00
-7921,46	1221,00
-7902,01	1066,00
-7882,60	1294,00
-7863,23	1178,00
-7843,90	1377,00
-7824,61	1331,00
-7805,35	1433,00
-7786,13	1379,00
-7766,95	1516,00
-7747,80	1401,00
-7728,69	1216,00
-7709,62	1257,00
-7690,59	1424,00
-7671,59	1468,00
-7652,63	1578,00
-7633,70	1644,00
-7614,81	1544,00
-7595,96	1326,00
-7577,15	1323,00
-7558,37	1305,00
-7539,62	1214,00
-7520,91	1394,00
-7502,24	1504,00
-7483,60	1441,00
-7465,00	1329,00
-7446,44	1172,00
-7427,91	1105,00
-7409,41	1171,00
-7390,95	941,00
-7372,53	923,00
-7354,14	869,00
-7335,78	869,00
-7317,46	921,00
-7299,18	1251,00
-7280,92	1292,00
-7262,71	1354,00
-7244,52	1397,00
-7226,38	1515,00
-7208,26	1453,00
-7190,18	1278,00
-7172,14	1349,00
-7154,12	1311,00
-7136,15	1236,00
-7118,20	1296,00
-7100,29	1421,00
-7082,41	1378,00
-7064,57	1319,00
-7046,76	1259,00
-7028,98	1246,00
-7011,24	1162,00
-6993,53	821,00
-6975,85	813,00
-6958,20	595,00
-6940,59	625,00
-6923,01	694,00
-6905,46	836,00
-6887,94	1104,00
-6870,46	-767,00
-6853,01	1426,00
-6835,59	1264,00
-6818,21	1100,00
-6800,85	983,00
-6783,53	755,00
-6766,24	680,00
-6748,98	643,00
-6731,76	595,00
-6714,56	551,00
-6697,40	530,00
-6680,26	438,00
-6663,16	711,00
-6646,09	841,00
-6629,05	760,00
-6612,05	1089,00
-6595,07	1151,00
-6578,13	986,00
-6561,21	832,00
-6544,33	637,00
-6527,47	430,00
-6510,65	381,00
-6493,86	462,00
-6477,10	498,00
-6460,36	497,00
-6443,66	497,00
-6426,99	462,00
-6410,35	463,00
-6393,74	524,00
-6377,16	695,00
-6360,61	687,00
-6344,09	659,00
-6327,59	646,00
-6311,13	674,00
-6294,70	651,00
-6278,29	722,00
-6261,92	899,00
-6245,58	957,00
-6229,26	970,00
-6212,97	1011,00
-6196,72	817,00
-6180,49	440,00
-6164,29	477,00
-6148,12	199,00
-6131,98	224,00
-6115,86	168,00
-6099,78	174,00
-6083,72	241,00
-6067,69	249,00
-6051,69	43,00
-6035,72	277,00
-6019,78	322,00
-6003,87	294,00
-5987,98	645,00
-5972,12	718,00
-5956,29	687,00
-5940,49	608,00
-5924,71	527,00
-5908,96	327,00
-5893,24	163,00
-5877,55	199,00
-5861,89	264,00
-5846,25	247,00
-5830,64	285,00
-5815,05	396,00
-5799,50	343,00
-5783,97	339,00
-5768,47	329,00
-5752,99	516,00
-5737,55	575,00
-5722,12	703,00
-5706,73	522,00
-5691,36	614,00
-5676,02	342,00
-5660,71	309,00
-5645,42	348,00
-5630,16	332,00
-5614,92	339,00
-5599,71	436,00
-5584,53	583,00
-5569,37	382,00
-5554,24	1453,00
-5539,14	421,00
-5524,06	335,00
-5509,01	354,00
-5493,98	384,00
-5478,98	545,00
-5464,00	563,00
-5449,05	344,00
-5434,13	245,00
-5419,23	228,00
-5404,36	319,00
-5389,51	425,00
-5374,69	639,00
-5359,89	616,00
-5345,12	752,00
-5330,37	737,00
-5315,65	548,00
-5300,95	401,00
-5286,28	478,00
-5271,63	357,00
-5257,01	394,00
-5242,41	475,00
-5227,84	370,00
-5213,29	306,00
-5198,76	215,00
-5184,26	335,00
-5169,79	253,00
-5155,33	215,00
-5140,91	369,00
-5126,51	440,00
-5112,13	471,00
-5097,77	396,00
-5083,44	330,00
-5069,13	214,00
-5054,85	279,00
-5040,59	465,00
-5026,36	445,00
-5012,15	310,00
-4997,96	440,00
-4983,80	364,00
-4969,66	158,00
-4955,54	203,00
-4941,44	444,00
-4927,37	509,00
-4913,33	755,00
-4899,30	790,00
-4885,30	546,00
-4871,33	434,00
-4857,37	265,00
-4843,44	333,00
-4829,53	307,00
-4815,65	299,00
-4801,79	319,00
-4787,95	402,00
-4774,13	262,00
-4760,34	266,00
-4746,56	110,00
-4732,82	83,00
-4719,09	403,00
-4705,38	539,00
-4691,70	494,00
-4678,04	613,00
-4664,41	499,00
-4650,79	252,00
-4637,20	144,00
-4623,63	182,00
-4610,08	278,00
-4596,56	386,00
-4583,05	494,00
-4569,57	425,00
-4556,11	264,00
-4542,67	76,00
-4529,25	265,00
-4515,86	391,00
-4502,49	508,00
-4489,13	551,00
-4475,80	451,00
-4462,49	334,00
-4449,21	201,00
-4435,94	102,00
-4422,70	331,00
-4409,47	342,00
-4396,27	289,00
-4383,09	286,00
-4369,93	176,00
-4356,79	113,00
-4343,67	100,00
-4330,58	208,00
-4317,50	237,00
-4304,45	324,00
-4291,41	344,00
-4278,40	111,00
-4265,41	178,00
-4252,44	215,00
-4239,49	290,00
-4226,55	346,00
-4213,65	286,00
-4200,76	158,00
-4187,89	52,00
-4175,04	171,00
-4162,21	51,00
-4149,40	26,00
-4136,61	54,00
-4123,85	82,00
-4111,10	51,00
-4098,37	117,00
-4085,66	179,00
-4072,98	56,00
-4060,31	80,00
-4047,66	75,00
-4035,04	148,00
-4022,43	149,00
-4009,84	3,00
-3997,27	91,00
-3984,72	134,00
-3972,19	-12,00
-3959,69	12,00
-3947,20	53,00
-3934,73	105,00
-3922,27	75,00
-3909,84	62,00
-3897,43	35,00
-3885,04	17,00
-3872,67	23,00
-3860,31	69,00
-3847,98	135,00
-3835,66	-85,00
-3823,36	4,00
-3811,09	27,00
-3798,83	-76,00
-3786,59	-46,00
-3774,37	32,00
-3762,17	59,00
-3749,98	84,00
-3737,82	39,00
-3725,67	164,00
-3713,55	-58,00
-3701,44	137,00
-3689,35	43,00
-3677,28	-43,00
-3665,22	-56,00
-3653,19	-14,00
-3641,17	44,00
-3629,18	-32,00
-3617,20	88,00
-3605,24	133,00
-3593,30	0,00
-3581,37	-25,00
-3569,47	12,00
-3557,58	55,00
-3545,71	-35,00
-3533,86	69,00
-3522,02	8,00
-3510,21	161,00
-3498,41	31,00
-3486,63	-42,00
-3474,87	-179,00
-3463,12	83,00
-3451,40	74,00
-3439,69	44,00
-3428,00	36,00
-3416,33	-109,00
-3404,67	41,00
-3393,03	-8,00
-3381,41	78,00
-3369,81	68,00
-3358,22	-162,00
-3346,66	84,00
-3335,10	0,00
-3323,57	96,00
-3312,06	9,00
-3300,56	32,00
-3289,08	-26,00
-3277,61	-22,00
-3266,16	1,00
-3254,73	45,00
-3243,32	-22,00
-3231,92	50,00
-3220,55	21,00
-3209,18	-8,00
-3197,84	126,00
-3186,51	-4,00
-3175,20	-103,00
-3163,90	-84,00
-3152,63	-58,00
-3141,36	28,00
-3130,12	-46,00
-3118,89	114,00
-3107,68	-33,00
-3096,49	175,00
-3085,31	-41,00
-3074,15	128,00
-3063,00	-49,00
-3051,87	-60,00
-3040,76	107,00
-3029,67	46,00
-3018,59	95,00
-3007,52	43,00
-2996,48	32,00
-2985,44	-141,00
-2974,43	159,00
-2963,43	-76,00
-2952,45	55,00
-2941,48	126,00
-2930,53	71,00
-2919,60	-95,00
-2908,68	103,00
-2897,78	81,00
-2886,89	12,00
-2876,02	-65,00
-2865,17	91,00
-2854,33	-124,00
-2843,50	83,00
-2832,70	-34,00
-2821,90	0,00
-2811,13	5,00
-2800,37	92,00
-2789,62	86,00
-2778,89	28,00
-2768,18	39,00
-2757,48	-9,00
-2746,80	64,00
-2736,13	-45,00
-2725,48	38,00
-2714,84	0,00
-2704,22	-10,00
-2693,61	-11,00
-2683,02	-1,00
-2672,45	149,00
-2661,89	131,00
-2651,34	42,00
-2640,81	40,00
-2630,30	-28,00
-2619,80	-112,00
-2609,31	-105,00
-2598,84	88,00
-2588,39	6,00
-2577,95	27,00
-2567,52	12,00
-2557,11	24,00
-2546,71	113,00
-2536,33	7,00
-2525,97	37,00
-2515,62	35,00
-2505,28	14,00
-2494,96	57,00
-2484,65	119,00
-2474,36	-140,00
-2464,08	-2,00
-2453,82	-17,00
-2443,57	37,00
-2433,33	0,00
-2423,11	-9,00
-2412,91	-22,00
-2402,72	7,00
-2392,54	-1,00
-2382,38	150,00
-2372,23	89,00
-2362,09	-94,00
-2351,97	16,00
-2341,87	32,00
-2331,78	-53,00
-2321,70	-6,00
-2311,64	35,00
-2301,59	159,00
-2291,55	-15,00
-2281,53	-115,00
-2271,53	93,00
-2261,53	-12,00
-2251,55	77,00
-2241,59	13,00
-2231,64	47,00
-2221,70	-46,00
-2211,78	-39,00
-2201,87	41,00
-2191,97	113,00
-2182,09	9,00
-2172,22	-31,00
-2162,37	26,00
-2152,53	142,00
-2142,70	71,00
-2132,89	-29,00
-2123,09	-74,00
-2113,30	56,00
-2103,53	70,00
-2093,77	67,00
-2084,02	34,00
-2074,29	75,00
-2064,57	85,00
-2054,86	68,00
-2045,17	30,00
-2035,49	7,00
-2025,82	15,00
-2016,17	148,00
-2006,53	22,00
-1996,91	-63,00
-1987,29	28,00
-1977,69	34,00
-1968,11	-32,00
-1958,53	31,00
-1948,97	-76,00
-1939,42	0,00
-1929,89	18,00
-1920,37	61,00
-1910,86	-65,00
-1901,36	-8,00
-1891,88	32,00
-1882,41	142,00
-1872,95	-10,00
-1863,51	-49,00
-1854,08	28,00
-1844,66	-1,00
-1835,26	-14,00
-1825,86	-21,00
-1816,48	95,00
-1807,11	18,00
-1797,76	15,00
-1788,42	16,00
-1779,09	-20,00
-1769,77	-79,00
-1760,47	45,00
-1751,17	-5,00
-1741,89	88,00
-1732,63	-83,00
-1723,37	88,00
-1714,13	46,00
-1704,90	-70,00
-1695,68	119,00
-1686,48	0,00
-1677,29	51,00
-1668,11	58,00
-1658,94	73,00
-1649,78	5,00
-1640,64	83,00
-1631,51	-34,00
-1622,39	123,00
-1613,28	-34,00
-1604,19	-201,00
-1595,10	-29,00
-1586,03	74,00
-1576,97	-47,00
-1567,93	43,00
-1558,89	-57,00
-1549,87	-130,00
-1540,86	49,00
-1531,86	91,00
-1522,87	-35,00
-1513,90	38,00
-1504,93	92,00
-1495,98	-76,00
-1487,04	122,00
-1478,12	159,00
-1469,20	39,00
-1460,30	4,00
-1451,40	-47,00
-1442,52	-14,00
-1433,65	-38,00
-1424,80	12,00
-1415,95	8,00
-1407,12	95,00
-1398,30	115,00
-1389,48	-56,00
-1380,69	-95,00
-1371,90	53,00
-1363,12	127,00
-1354,36	89,00
-1345,60	89,00
-1336,86	-63,00
-1328,13	134,00
-1319,41	-130,00
-1310,70	104,00
-1302,01	126,00
-1293,32	60,00
-1284,65	26,00
-1275,99	-59,00
-1267,33	34,00
-1258,69	-105,00
-1250,06	-101,00
-1241,45	114,00
-1232,84	165,00
-1224,25	-21,00
-1215,66	-27,00
-1207,09	-98,00
-1198,53	-9,00
-1189,97	129,00
-1181,43	-3,00
-1172,91	90,00
-1164,39	13,00
-1155,88	78,00
-1147,38	81,00
-1138,90	52,00
-1130,43	-46,00
-1121,96	48,00
-1113,51	70,00
-1105,07	100,00
-1096,64	115,00
-1088,22	18,00
-1079,81	-39,00
-1071,41	65,00
-1063,02	107,00
-1054,65	19,00
-1046,28	84,00
-1037,92	66,00
-1029,58	82,00
-1021,24	10,00
-1012,92	-143,00
-1004,61	45,00
-996,30	33,00
-988,01	-75,00
-979,73	3,00
-971,46	-56,00
-963,20	20,00
-954,95	45,00
-946,71	87,00
-938,48	-1,00
-930,26	73,00
-922,06	-47,00
-913,86	36,00
-905,67	-156,00
-897,49	-9,00
-889,33	-38,00
-881,17	58,00
-873,02	-60,00
-864,89	-63,00
-856,76	-72,00
-848,65	8,00
-840,54	18,00
-832,45	112,00
-824,36	-32,00
-816,29	-21,00
-808,22	165,00
-800,17	87,00
-792,12	15,00
-784,09	69,00
-776,06	72,00
-768,05	-16,00
-760,04	162,00
-752,05	87,00
-744,07	70,00
-736,09	-66,00
-728,13	-8,00
-720,17	90,00
-712,23	186,00
-704,29	79,00
-696,37	22,00
-688,45	-82,00
-680,55	88,00
-672,65	103,00
-664,77	41,00
-656,89	32,00
-649,03	-47,00
-641,17	21,00
-633,32	-70,00
-625,49	77,00
-617,66	67,00
-609,84	-106,00
-602,03	79,00
-594,23	52,00
-586,45	82,00
-578,67	93,00
-570,90	108,00
-563,14	2,00
-555,39	-89,00
-547,65	-35,00
-539,91	52,00
-532,19	71,00
-524,48	-57,00
-516,78	43,00
-509,08	114,00
-501,40	-37,00
-493,72	47,00
-486,06	89,00
-478,40	-29,00
-470,76	-33,00
-463,12	-12,00
-455,49	104,00
-447,87	48,00
-440,26	-60,00
-432,66	12,00
-425,07	140,00
-417,49	108,00
-409,92	-19,00
-402,35	131,00
-394,80	56,00
-387,25	159,00
-379,72	-92,00
-372,19	102,00
-364,67	33,00
-357,17	49,00
-349,67	-28,00
-342,18	80,00
-334,69	-19,00
-327,22	56,00
-319,76	143,00
-312,30	-5,00
-304,86	104,00
-297,42	149,00
-290,00	32,00
-282,58	174,00
-275,17	63,00
-267,77	90,00
-260,37	25,00
-252,99	86,00
-245,62	60,00
-238,25	65,00
-230,90	113,00
-223,55	116,00
-216,21	171,00
-208,88	43,00
-201,56	258,00
-194,25	20,00
-186,94	227,00
-179,65	116,00
-172,36	153,00
-165,08	188,00
-157,81	264,00
-150,55	147,00
-143,30	302,00
-136,06	280,00
-128,82	253,00
-121,60	268,00
-114,38	387,00
-107,17	319,00
-99,97	375,00
-92,78	450,00
-85,60	668,00
-78,42	595,00
-71,25	860,00
-64,10	963,00
-56,95	998,00
-49,81	1232,00
-42,67	1512,00
-35,55	1891,00
-28,43	2510,00
-21,33	4491,00
-14,23	15326,00
-7,14	54419,00
-0,05	54171,00
7,02	53809,00
14,09	41336,00
21,14	10884,00
28,19	4668,00
35,23	3189,00
42,27	2252,00
49,29	2022,00
56,31	1771,00
63,32	1373,00
70,32	1164,00
77,31	1033,00
84,29	910,00
91,27	734,00
98,23	715,00
105,19	643,00
112,14	694,00
119,09	1159,00
126,02	2001,00
132,95	2413,00
139,87	2452,00
146,78	2381,00
153,68	2560,00
160,58	2452,00
167,46	2458,00
174,34	2379,00
181,21	2357,00
188,08	2380,00
194,93	2405,00
201,78	2386,00
208,62	2346,00
215,45	2324,00
222,27	2335,00
229,09	2302,00
235,90	2352,00
242,70	2064,00
249,49	2199,00
256,27	2266,00
263,05	2104,00
269,82	2105,00
276,58	2273,00
283,33	2096,00
290,08	2262,00
296,82	2160,00
303,55	2080,00
310,27	1955,00
316,98	2015,00
323,69	2024,00
330,39	1960,00
337,08	1977,00
343,76	1856,00
350,44	2000,00
357,11	1937,00
363,77	1920,00
370,42	1853,00
377,07	1829,00
383,71	1943,00
390,34	1846,00
396,96	1912,00
403,58	1886,00
410,19	1911,00
416,79	1863,00
423,38	1946,00
429,97	1789,00
436,55	1759,00
443,12	1749,00
449,68	1710,00
456,24	1728,00
462,79	1675,00
469,33	1640,00
475,86	1593,00
482,39	1740,00
488,91	1740,00
495,42	1632,00
501,93	1616,00
508,42	1554,00
514,91	1509,00
521,40	1483,00
527,87	1635,00
534,34	1507,00
540,80	1550,00
547,25	1476,00
553,70	1544,00
560,14	1558,00
566,57	1488,00
573,00	1493,00
579,41	1489,00
585,83	1370,00
592,23	1487,00
598,62	1477,00
605,01	1449,00
611,40	1489,00
617,77	1457,00
624,14	1361,00
630,50	1386,00
636,85	1352,00
643,20	1355,00
649,54	1285,00
655,87	1391,00
662,20	1283,00
668,52	1311,00
674,83	1363,00
681,13	1163,00
687,43	1337,00
693,72	1362,00
700,00	1417,00
706,28	1408,00
712,55	1300,00
718,81	1318,00
725,07	1349,00
731,32	1304,00
737,56	1332,00
743,79	1252,00
750,02	1334,00
756,24	1143,00
762,46	1395,00
768,67	1366,00
774,87	1268,00
781,06	1305,00
787,25	1331,00
793,43	1175,00
799,60	1243,00
805,77	1273,00
811,93	1243,00
818,08	1186,00
824,23	1273,00
830,37	1291,00
836,50	1313,00
842,63	1227,00
848,75	1172,00
854,87	1345,00
860,97	1316,00
867,07	1216,00
873,17	1162,00
879,25	1116,00
885,33	1176,00
891,41	1210,00
897,47	1033,00
903,53	1305,00
909,59	1129,00
915,63	1023,00
921,67	1191,00
927,71	1095,00
933,74	966,00
939,76	1103,00
945,77	1035,00
951,78	1130,00
957,78	923,00
963,78	1005,00
969,77	1147,00
975,75	1067,00
981,72	1046,00
987,69	734,00
993,66	1054,00
999,61	1131,00
1005,56	1100,00
1011,51	1183,00
1017,44	1114,00
1023,37	977,00
1029,30	997,00
1035,22	1204,00
1041,13	1047,00
1047,03	1165,00
1052,93	1299,00
1058,83	1637,00
1064,71	1519,00
1070,59	1422,00
1076,47	1349,00
1082,33	1360,00
1088,20	1220,00
1094,05	1239,00
1099,90	1228,00
1105,74	1009,00
1111,58	1198,00
1117,41	1198,00
1123,23	1318,00
1129,05	1454,00
1134,86	1319,00
1140,67	1073,00
1146,47	1092,00
1152,26	1117,00
1158,05	1018,00
1163,83	1097,00
1169,60	964,00
1175,37	985,00
1181,13	1033,00
1186,89	944,00
1192,64	1075,00
1198,38	921,00
1204,12	1046,00
1209,85	983,00
1215,58	980,00
1221,30	1041,00
1227,02	941,00
1232,72	1032,00
1238,43	961,00
1244,12	1023,00
1249,81	880,00
1255,50	986,00
1261,17	1080,00
1266,85	1060,00
1272,51	1028,00
1278,17	1086,00
1283,83	1226,00
1289,47	1440,00
1295,12	1761,00
1300,75	1718,00
1306,38	1459,00
1312,01	1415,00
1317,63	1257,00
1323,24	1042,00
1328,85	1132,00
1334,45	1075,00
1340,04	1108,00
1345,63	955,00
1351,22	1068,00
1356,80	1121,00
1362,37	1044,00
1367,93	1032,00
1373,49	1068,00
1379,05	1144,00
1384,60	1025,00
1390,14	1093,00
1395,68	983,00
1401,21	1035,00
1406,74	1177,00
1412,26	1123,00
1417,77	1299,00
1423,28	1298,00
1428,78	1566,00
1434,28	1646,00
1439,77	1916,00
1445,26	1892,00
1450,74	1793,00
1456,22	1564,00
1461,68	1530,00
1467,15	1403,00
1472,61	1347,00
1478,06	1129,00
1483,51	1080,00
1488,95	1047,00
1494,38	1031,00
1499,81	1052,00
1505,24	991,00
1510,65	855,00
1516,07	1049,00
1521,48	968,00
1526,88	902,00
1532,27	954,00
1537,67	828,00
1543,05	983,00
1548,43	984,00
1553,81	867,00
1559,18	980,00
1564,54	868,00
1569,90	839,00
1575,25	899,00
1580,60	809,00
1585,94	878,00
1591,28	922,00
1596,61	783,00
1601,93	685,00
1607,25	839,00
1612,57	749,00
1617,88	792,00
1623,18	905,00
1628,48	670,00
1633,77	716,00
1639,06	832,00
1644,34	856,00
1649,62	732,00
1654,89	899,00
1660,16	647,00
1665,42	796,00
1670,67	689,00
1675,92	624,00
1681,17	815,00
1686,41	760,00
1691,64	784,00
1696,87	691,00
1702,10	717,00
1707,32	648,00
1712,53	689,00
1717,74	721,00
1722,94	682,00
1728,14	566,00
1733,33	617,00
1738,52	700,00
1743,70	553,00
1748,88	635,00
1754,05	625,00
1759,22	598,00
1764,38	670,00
1769,53	741,00
1774,69	574,00
1779,83	659,00
1784,97	489,00
1790,11	583,00
1795,24	482,00
1800,36	536,00
1805,48	536,00
1810,60	630,00
1815,71	606,00
1820,82	693,00
1825,92	647,00
1831,01	481,00
1836,10	554,00
1841,19	505,00
1846,26	496,00
1851,34	515,00
1856,41	505,00
1861,47	623,00
1866,53	578,00
1871,59	516,00
1876,64	481,00
1881,68	564,00
1886,72	541,00
1891,76	534,00
1896,79	574,00
1901,81	537,00
1906,83	464,00
1911,85	470,00
1916,86	484,00
1921,86	583,00
1926,86	480,00
1931,86	480,00
1936,85	444,00
1941,83	461,00
1946,81	458,00
1951,79	394,00
1956,76	432,00
1961,72	310,00
1966,68	474,00
1971,64	485,00
1976,59	569,00
1981,54	376,00
1986,48	508,00
1991,42	368,00
1996,35	364,00
2001,27	456,00
2006,20	347,00
2011,11	528,00
2016,03	398,00
2020,93	231,00
2025,84	438,00
2030,73	341,00
2035,63	358,00
2040,52	497,00
2045,40	280,00
2050,28	416,00
2055,15	373,00
2060,02	386,00
2064,89	355,00
2069,75	380,00
2074,60	391,00
2079,46	397,00
2084,30	333,00
2089,14	305,00
2093,98	388,00
2098,81	455,00
2103,64	372,00
2108,46	375,00
2113,28	301,00
2118,09	260,00
2122,90	309,00
2127,70	234,00
2132,50	276,00
2137,30	402,00
2142,09	344,00
2146,87	280,00
2151,66	405,00
2156,43	463,00
2161,20	383,00
2165,97	364,00
2170,73	342,00
2175,49	412,00
2180,24	382,00
2184,99	247,00
2189,74	324,00
2194,48	289,00
2199,21	408,00
2203,94	330,00
2208,67	240,00
2213,39	312,00
2218,11	308,00
2222,82	249,00
2227,53	317,00
2232,23	150,00
2236,93	227,00
2241,63	374,00
2246,32	263,00
2251,00	268,00
2255,68	367,00
2260,36	285,00
2265,03	119,00
2269,70	297,00
2274,36	242,00
2279,02	270,00
2283,68	314,00
2288,33	211,00
2292,97	296,00
2297,61	308,00
2302,25	337,00
2306,88	198,00
2311,51	170,00
2316,14	304,00
2320,75	248,00
2325,37	232,00
2329,98	213,00
2334,59	193,00
2339,19	298,00
2343,79	245,00
2348,38	262,00
2352,97	280,00
2357,55	134,00
2362,13	218,00
2366,71	175,00
2371,28	271,00
2375,85	209,00
2380,41	198,00
2384,97	253,00
2389,52	201,00
2394,07	136,00
2398,62	139,00
2403,16	304,00
2407,70	107,00
2412,23	186,00
2416,76	203,00
2421,29	241,00
2425,81	158,00
2430,32	221,00
2434,84	184,00
2439,34	191,00
2443,85	154,00
2448,35	180,00
2452,84	255,00
2457,33	101,00
2461,82	282,00
2466,30	273,00
2470,78	263,00
2475,25	242,00
2479,72	343,00
2484,19	202,00
2488,65	163,00
2493,11	242,00
2497,56	204,00
2502,01	223,00
2506,46	223,00
2510,90	306,00
2515,34	192,00
2519,77	117,00
2524,20	183,00
2528,62	243,00
2533,04	41,00
2537,46	216,00
2541,87	199,00
2546,28	240,00
2550,68	175,00
2555,08	67,00
2559,48	155,00
2563,87	215,00
2568,26	191,00
2572,64	201,00
2577,02	263,00
2581,40	202,00
2585,77	132,00
2590,14	276,00
2594,50	189,00
2598,86	200,00
2603,22	155,00
2607,57	122,00
2611,92	215,00
2616,26	21,00
2620,60	154,00
2624,94	177,00
2629,27	149,00
2633,60	220,00
2637,92	87,00
2642,24	209,00
2646,56	176,00
2650,87	68,00
2655,18	111,00
2659,48	225,00
2663,78	144,00
2668,08	134,00
2672,37	188,00
2676,66	188,00
2680,95	239,00
2685,23	238,00
2689,50	205,00
2693,78	113,00
2698,05	101,00
2702,31	202,00
2706,57	250,00
2710,83	298,00
2715,08	268,00
2719,33	340,00
2723,58	277,00
2727,82	154,00
2732,06	290,00
2736,29	289,00
2740,53	248,00
2744,75	310,00
2748,97	366,00
2753,19	141,00
2757,41	290,00
2761,62	230,00
2765,83	201,00
2770,03	224,00
2774,23	298,00
2778,43	145,00
2782,62	273,00
2786,81	219,00
2791,00	339,00
2795,18	374,00
2799,35	288,00
2803,53	286,00
2807,70	344,00
2811,86	341,00
2816,03	281,00
2820,19	357,00
2824,34	495,00
2828,49	552,00
2832,64	561,00
2836,78	601,00
2840,92	931,00
2845,06	1021,00
2849,19	1117,00
2853,32	1145,00
2857,45	1197,00
2861,57	1227,00
2865,69	987,00
2869,80	1024,00
2873,91	1162,00
2878,02	1205,00
2882,12	1427,00
2886,22	1324,00
2890,32	1280,00
2894,41	1114,00
2898,50	1121,00
2902,58	1193,00
2906,67	1017,00
2910,74	999,00
2914,82	924,00
2918,89	845,00
2922,96	836,00
2927,02	663,00
2931,08	674,00
2935,13	616,00
2939,19	608,00
2943,24	605,00
2947,28	458,00
2951,32	311,00
2955,36	282,00
2959,40	460,00
2963,43	360,00
2967,46	307,00
2971,48	191,00
2975,50	233,00
2979,52	381,00
2983,53	128,00
2987,54	118,00
2991,55	335,00
2995,55	107,00
2999,55	159,00
3003,54	133,00
3007,54	32,00
3011,53	104,00
3015,51	29,00
3019,49	134,00
3023,47	138,00
3027,45	92,00
3031,42	94,00
3035,39	174,00
3039,35	90,00
3043,31	102,00
3047,27	-36,00
3051,22	140,00
3055,17	30,00
3059,12	58,00
3063,06	108,00
3067,00	112,00
3070,94	129,00
3074,87	-11,00
3078,80	106,00
3082,73	136,00
3086,65	235,00
3090,57	61,00
3094,49	76,00
3098,40	-88,00
3102,31	72,00
3106,22	-9,00
3110,12	49,00
3114,02	-31,00
3117,92	163,00
3121,81	15,00
3125,70	-3,00
3129,58	124,00
3133,47	88,00
3137,34	-16,00
3141,22	91,00
3145,09	140,00
3148,96	28,00
3152,83	40,00
3156,69	-55,00
3160,55	199,00
3164,40	119,00
3168,26	101,00
3172,10	57,00
3175,95	97,00
3179,79	32,00
3183,63	20,00
3187,47	108,00
3191,30	71,00
3195,13	-7,00
3198,95	86,00
3202,78	65,00
3206,60	101,00
3210,41	11,00
3214,23	136,00
3218,03	120,00
3221,84	142,00
3225,64	106,00
3229,44	148,00
3233,24	65,00
3237,03	71,00
3240,82	-35,00
3244,61	133,00
3248,39	19,00
3252,17	93,00
3255,95	-68,00
3259,72	112,00
3263,49	26,00
3267,26	116,00
3271,03	21,00
3274,79	36,00
3278,54	56,00
3282,30	9,00
3286,05	5,00
3289,80	81,00
3293,54	109,00
3297,29	32,00
3301,02	-1,00
3304,76	45,00
3308,49	51,00
3312,22	132,00
3315,95	104,00
3319,67	89,00
3323,39	70,00
3327,10	146,00
3330,82	118,00
3334,53	47,00
3338,24	82,00
3341,94	-10,00
3345,64	91,00
3349,34	14,00
3353,03	149,00
3356,72	34,00
3360,41	14,00
3364,10	49,00
3367,78	-59,00
3371,46	-35,00
3375,13	91,00
3378,81	136,00
3382,48	172,00
3386,14	86,00
3389,81	-1,00
3393,47	61,00
3397,12	-42,00
3400,78	52,00
3404,43	-59,00
3408,08	125,00
3411,72	11,00
3415,36	136,00
3419,00	-160,00
3422,64	64,00
3426,27	0,00
3429,90	128,00
3433,53	65,00
3437,15	-28,00
3440,77	75,00
3444,39	20,00
3448,00	-37,00
3451,62	-9,00
3455,22	26,00
3458,83	-38,00
3462,43	-7,00
3466,03	-36,00
3469,63	-15,00
3473,22	42,00
3476,81	73,00
3480,40	63,00
3483,99	24,00
3487,57	67,00
3491,15	160,00
3494,72	106,00
3498,29	39,00
3501,86	83,00
3505,43	-1,00
3508,99	114,00
3512,56	-3,00
3516,11	-14,00
3519,67	160,00
3523,22	33,00
3526,77	80,00
3530,32	-80,00
3533,86	-33,00
3537,40	-25,00
3540,94	-140,00
3544,47	23,00
3548,00	19,00
3551,53	73,00
3555,06	-20,00
3558,58	49,00
3562,10	44,00
3565,62	45,00
3569,13	134,00
3572,64	113,00
3576,15	-55,00
3579,66	41,00
3583,16	34,00
3586,66	172,00
3590,16	-9,00
3593,65	121,00
3597,14	97,00
3600,63	25,00
3604,11	85,00
3607,60	17,00
3611,08	-85,00
3614,55	-54,00
3618,03	7,00
3621,50	-181,00
3624,97	56,00
3628,43	-93,00
3631,90	6,00
3635,36	64,00
3638,81	-45,00
3642,27	53,00
3645,72	164,00
3649,17	73,00
3652,61	41,00
3656,06	51,00
3659,50	-13,00
3662,93	-35,00
3666,37	14,00
3669,80	-41,00
3673,23	-94,00
3676,65	36,00
3680,08	-10,00
3683,50	4,00
3686,92	71,00
3690,33	11,00
3693,74	95,00
3697,15	11,00
3700,56	99,00
3703,96	41,00
3707,36	10,00
3710,76	-6,00
3714,16	77,00
3717,55	75,00
3720,94	42,00
3724,33	13,00
3727,71	-6,00
3731,10	-66,00
3734,48	-25,00
3737,85	-93,00
3741,23	-110,00
3744,60	-36,00
3747,97	110,00
3751,33	45,00
3754,69	47,00
3758,05	-21,00
3761,41	39,00
3764,77	86,00
3768,12	84,00
3771,47	46,00
3774,82	-25,00
3778,16	2,00
3781,50	2,00
3784,84	-4,00
3788,18	0,00
>>>>>End Processed Spectral Data<<<<<
