SpectraSuite Data File
++++++++++++++++++++++++++++++++++++
Date: Tue Mar 03 11:43:52 ICT 2026
User: user
Dark Spectrum Present: Yes
Reference Spectrum Present: No
Number of Sampled Component Spectra: 1
Spectrometers: MAYP113682
Integration Time (usec): 3000000 (MAYP113682)
Spectra Averaged: 1 (MAYP113682)
Boxcar Smoothing: 0 (MAYP113682)
Correct for Electrical Dark: No (MAYP113682)
Strobe/Lamp Enabled: No (MAYP113682)
Correct for Detector Non-linearity: No (MAYP113682)
Correct for Stray Light: No (MAYP113682)
Number of Pixels in Processed Spectrum: 2068
>>>>>Begin Processed Spectral Data<<<<<
-37534,58	12,00
-37414,56	-3,00
-37295,11	0,00
-37176,24	4,00
-37057,95	96,00
-36940,22	178,00
-36823,05	60,00
-36706,45	43,00
-36590,40	143,00
-36474,90	129,00
-36359,95	82,00
-36245,55	195,00
-36131,68	138,00
-36018,35	44,00
-35905,55	131,00
-35793,29	218,00
-35681,54	125,00
-35570,32	109,00
-35459,62	204,00
-35349,43	172,00
-35239,75	88,00
-35130,58	48,00
-35021,91	156,00
-34913,74	173,00
-34806,07	192,00
-34698,89	207,00
-34592,20	56,00
-34486,00	174,00
-34380,28	98,00
-34275,04	15,00
-34170,27	142,00
-34065,98	210,00
-33962,16	261,00
-33858,81	103,00
-33755,92	256,00
-33653,49	6,00
-33551,52	22,00
-33450,01	54,00
-33348,94	120,00
-33248,33	125,00
-33148,16	144,00
-33048,43	202,00
-32949,14	30,00
-32850,29	198,00
-32751,87	128,00
-32653,89	179,00
-32556,33	90,00
-32459,20	113,00
-32362,49	167,00
-32266,19	83,00
-32170,32	153,00
-32074,86	193,00
-31979,82	216,00
-31885,18	229,00
-31790,95	141,00
-31697,12	85,00
-31603,69	163,00
-31510,67	147,00
-31418,04	289,00
-31325,80	136,00
-31233,95	162,00
-31142,49	116,00
-31051,42	246,00
-30960,73	122,00
-30870,43	212,00
-30780,50	164,00
-30690,95	207,00
-30601,77	263,00
-30512,97	89,00
-30424,53	224,00
-30336,46	193,00
-30248,76	293,00
-30161,42	23,00
-30074,44	-24,00
-29987,81	116,00
-29901,55	65,00
-29815,63	113,00
-29730,07	260,00
-29644,86	87,00
-29560,00	231,00
-29475,48	158,00
-29391,30	61,00
-29307,47	144,00
-29223,97	52,00
-29140,81	159,00
-29057,99	182,00
-28975,50	98,00
-28893,34	142,00
-28811,51	94,00
-28730,00	41,00
-28648,82	214,00
-28567,97	298,00
-28487,43	45,00
-28407,21	134,00
-28327,32	127,00
-28247,73	183,00
-28168,46	158,00
-28089,50	39,00
-28010,85	29,00
-27932,51	170,00
-27854,48	220,00
-27776,75	181,00
-27699,32	84,00
-27622,19	125,00
-27545,37	140,00
-27468,84	269,00
-27392,60	140,00
-27316,66	68,00
-27241,01	183,00
-27165,66	162,00
-27090,59	163,00
-27015,81	150,00
-26941,31	242,00
-26867,10	96,00
-26793,17	97,00
-26719,52	169,00
-26646,15	194,00
-26573,06	91,00
-26500,24	162,00
-26427,70	240,00
-26355,43	90,00
-26283,43	11,00
-26211,71	67,00
-26140,25	94,00
-26069,06	122,00
-25998,13	140,00
-25927,46	245,00
-25857,06	88,00
-25786,92	167,00
-25717,04	80,00
-25647,42	159,00
-25578,05	178,00
-25508,94	166,00
-25440,09	127,00
-25371,48	282,00
-25303,13	186,00
-25235,02	87,00
-25167,17	208,00
-25099,56	159,00
-25032,19	69,00
-24965,07	260,00
-24898,20	157,00
-24831,56	291,00
-24765,17	44,00
-24699,01	43,00
-24633,10	39,00
-24567,41	202,00
-24501,97	232,00
-24436,75	266,00
-24371,77	44,00
-24307,03	249,00
-24242,51	203,00
-24178,22	73,00
-24114,16	98,00
-24050,32	189,00
-23986,71	200,00
-23923,32	187,00
-23860,16	71,00
-23797,22	192,00
-23734,50	62,00
-23672,00	195,00
-23609,71	79,00
-23547,65	145,00
-23485,80	151,00
-23424,16	211,00
-23362,74	89,00
-23301,53	129,00
-23240,54	112,00
-23179,75	163,00
-23119,17	288,00
-23058,80	118,00
-22998,64	75,00
-22938,68	209,00
-22878,93	94,00
-22819,39	258,00
-22760,04	70,00
-22700,90	99,00
-22641,96	176,00
-22583,22	230,00
-22524,68	177,00
-22466,33	-3,00
-22408,19	81,00
-22350,23	202,00
-22292,48	187,00
-22234,92	168,00
-22177,55	78,00
-22120,37	104,00
-22063,38	193,00
-22006,58	235,00
-21949,98	130,00
-21893,56	148,00
-21837,33	191,00
-21781,28	166,00
-21725,42	163,00
-21669,74	82,00
-21614,25	214,00
-21558,94	126,00
-21503,81	266,00
-21448,86	184,00
-21394,10	22,00
-21339,51	28,00
-21285,10	-19,00
-21230,86	184,00
-21176,81	113,00
-21122,93	165,00
-21069,22	175,00
-21015,69	113,00
-20962,33	112,00
-20909,14	159,00
-20856,13	174,00
-20803,28	-32,00
-20750,61	137,00
-20698,10	108,00
-20645,76	181,00
-20593,59	105,00
-20541,59	130,00
-20489,75	234,00
-20438,07	81,00
-20386,56	119,00
-20335,22	150,00
-20284,03	147,00
-20233,01	139,00
-20182,15	163,00
-20131,45	215,00
-20080,91	169,00
-20030,52	240,00
-19980,30	164,00
-19930,23	51,00
-19880,32	193,00
-19830,56	109,00
-19780,96	60,00
-19731,52	53,00
-19682,23	140,00
-19633,09	-19,00
-19584,10	87,00
-19535,26	179,00
-19486,58	157,00
-19438,04	171,00
-19389,66	160,00
-19341,42	265,00
-19293,33	209,00
-19245,39	208,00
-19197,60	212,00
-19149,95	85,00
-19102,45	6,00
-19055,09	72,00
-19007,87	68,00
-18960,80	247,00
-18913,87	122,00
-18867,09	148,00
-18820,44	123,00
-18773,94	319,00
-18727,57	150,00
-18681,35	100,00
-18635,26	71,00
-18589,31	167,00
-18543,50	106,00
-18497,83	16,00
-18452,29	181,00
-18406,89	109,00
-18361,63	101,00
-18316,50	7,00
-18271,50	95,00
-18226,63	257,00
-18181,90	79,00
-18137,30	181,00
-18092,84	318,00
-18048,50	173,00
-18004,29	37,00
-17960,22	68,00
-17916,27	105,00
-17872,45	163,00
-17828,76	174,00
-17785,20	97,00
-17741,77	101,00
-17698,46	167,00
-17655,28	214,00
-17612,22	133,00
-17569,29	86,00
-17526,48	289,00
-17483,79	103,00
-17441,23	134,00
-17398,79	56,00
-17356,48	121,00
-17314,28	141,00
-17272,21	168,00
-17230,26	61,00
-17188,42	100,00
-17146,71	225,00
-17105,12	156,00
-17063,64	249,00
-17022,28	53,00
-16981,04	188,00
-16939,92	207,00
-16898,91	54,00
-16858,02	110,00
-16817,25	174,00
-16776,59	116,00
-16736,04	130,00
-16695,61	182,00
-16655,29	193,00
-16615,09	40,00
-16574,99	118,00
-16535,01	184,00
-16495,15	132,00
-16455,39	155,00
-16415,74	71,00
-16376,21	126,00
-16336,78	41,00
-16297,46	16,00
-16258,26	108,00
-16219,16	247,00
-16180,17	222,00
-16141,28	165,00
-16102,51	125,00
-16063,84	83,00
-16025,27	96,00
-15986,82	200,00
-15948,46	23,00
-15910,22	147,00
-15872,07	153,00
-15834,04	124,00
-15796,10	143,00
-15758,27	122,00
-15720,54	44,00
-15682,91	154,00
-15645,39	179,00
-15607,97	253,00
-15570,64	174,00
-15533,42	134,00
-15496,30	71,00
-15459,28	109,00
-15422,36	220,00
-15385,54	55,00
-15348,82	103,00
-15312,19	231,00
-15275,66	66,00
-15239,23	160,00
-15202,90	191,00
-15166,67	-72,00
-15130,53	224,00
-15094,48	346,00
-15058,54	129,00
-15022,68	141,00
-14986,93	244,00
-14951,26	170,00
-14915,69	73,00
-14880,22	128,00
-14844,84	33,00
-14809,55	246,00
-14774,35	19,00
-14739,25	182,00
-14704,24	188,00
-14669,32	156,00
-14634,49	79,00
-14599,75	217,00
-14565,10	180,00
-14530,55	94,00
-14496,08	215,00
-14461,70	110,00
-14427,41	193,00
-14393,21	88,00
-14359,10	50,00
-14325,07	297,00
-14291,14	209,00
-14257,29	125,00
-14223,52	244,00
-14189,85	117,00
-14156,26	185,00
-14122,76	216,00
-14089,34	139,00
-14056,01	130,00
-14022,76	106,00
-13989,60	129,00
-13956,52	95,00
-13923,53	136,00
-13890,62	152,00
-13857,79	58,00
-13825,05	135,00
-13792,39	146,00
-13759,81	123,00
-13727,31	105,00
-13694,90	127,00
-13662,57	51,00
-13630,31	143,00
-13598,14	151,00
-13566,05	180,00
-13534,05	171,00
-13502,12	70,00
-13470,27	156,00
-13438,50	169,00
-13406,80	236,00
-13375,19	164,00
-13343,66	145,00
-13312,20	194,00
-13280,83	136,00
-13249,53	108,00
-13218,30	-10,00
-13187,16	84,00
-13156,09	151,00
-13125,10	234,00
-13094,18	113,00
-13063,34	12,00
-13032,58	60,00
-13001,89	204,00
-12971,28	131,00
-12940,74	184,00
-12910,27	134,00
-12879,88	256,00
-12849,57	238,00
-12819,33	54,00
-12789,16	185,00
-12759,06	28,00
-12729,04	187,00
-12699,09	222,00
-12669,21	103,00
-12639,41	94,00
-12609,68	159,00
-12580,02	135,00
-12550,43	136,00
-12520,91	81,00
-12491,46	111,00
-12462,08	171,00
-12432,77	217,00
-12403,54	164,00
-12374,37	124,00
-12345,27	189,00
-12316,24	159,00
-12287,29	96,00
-12258,40	186,00
-12229,57	22,00
-12200,82	187,00
-12172,14	141,00
-12143,52	207,00
-12114,97	120,00
-12086,49	-12,00
-12058,07	215,00
-12029,73	171,00
-12001,44	260,00
-11973,23	-16,00
-11945,08	24,00
-11917,00	191,00
-11888,98	111,00
-11861,03	200,00
-11833,15	95,00
-11805,32	235,00
-11777,57	91,00
-11749,88	151,00
-11722,25	82,00
-11694,69	64,00
-11667,19	-6,00
-11639,75	192,00
-11612,38	230,00
-11585,07	155,00
-11557,83	160,00
-11530,65	240,00
-11503,53	205,00
-11476,47	107,00
-11449,48	192,00
-11422,54	204,00
-11395,67	63,00
-11368,86	242,00
-11342,11	50,00
-11315,43	282,00
-11288,80	104,00
-11262,23	227,00
-11235,73	106,00
-11209,28	240,00
-11182,90	152,00
-11156,57	190,00
-11130,31	240,00
-11104,10	99,00
-11077,96	179,00
-11051,87	184,00
-11025,84	87,00
-10999,87	147,00
-10973,96	114,00
-10948,11	118,00
-10922,31	266,00
-10896,58	228,00
-10870,90	200,00
-10845,28	230,00
-10819,71	293,00
-10794,20	330,00
-10768,75	293,00
-10743,36	302,00
-10718,02	283,00
-10692,74	371,00
-10667,52	324,00
-10642,35	185,00
-10617,24	408,00
-10592,18	427,00
-10567,18	467,00
-10542,23	484,00
-10517,34	528,00
-10492,51	443,00
-10467,72	471,00
-10443,00	525,00
-10418,32	561,00
-10393,70	552,00
-10369,14	640,00
-10344,63	674,00
-10320,17	607,00
-10295,77	765,00
-10271,42	804,00
-10247,12	959,00
-10222,88	1175,00
-10198,68	1085,00
-10174,54	1202,00
-10150,46	1106,00
-10126,42	1261,00
-10102,44	1364,00
-10078,51	1316,00
-10054,63	1573,00
-10030,80	1577,00
-10007,03	1568,00
-9983,30	1659,00
-9959,63	1858,00
-9936,01	1921,00
-9912,44	1975,00
-9888,92	2207,00
-9865,44	2390,00
-9842,02	2317,00
-9818,65	2441,00
-9795,33	2474,00
-9772,06	2568,00
-9748,84	2702,00
-9725,67	2910,00
-9702,55	3618,00
-9679,47	4258,00
-9656,45	4505,00
-9633,47	4758,00
-9610,55	4948,00
-9587,67	4867,00
-9564,84	5268,00
-9542,06	6053,00
-9519,32	6540,00
-9496,64	7115,00
-9474,00	7966,00
-9451,41	8085,00
-9428,87	8037,00
-9406,37	7550,00
-9383,92	6938,00
-9361,52	6318,00
-9339,17	6671,00
-9316,86	7511,00
-9294,60	8304,00
-9272,38	9452,00
-9250,21	10226,00
-9228,09	10590,00
-9206,01	9739,00
-9183,98	8821,00
-9162,00	7654,00
-9140,06	7116,00
-9118,16	7007,00
-9096,31	7416,00
-9074,51	7901,00
-9052,75	7892,00
-9031,04	7534,00
-9009,37	6614,00
-8987,74	5895,00
-8966,16	5282,00
-8944,63	4595,00
-8923,14	4406,00
-8901,69	4750,00
-8880,29	5256,00
-8858,93	5926,00
-8837,61	6647,00
-8816,34	6983,00
-8795,11	7241,00
-8773,92	6665,00
-8752,78	5789,00
-8731,68	5408,00
-8710,62	5494,00
-8689,61	5742,00
-8668,63	6381,00
-8647,70	6970,00
-8626,82	6940,00
-8605,97	6602,00
-8585,17	6174,00
-8564,41	5526,00
-8543,69	5042,00
-8523,01	4703,00
-8502,37	4781,00
-8481,78	4977,00
-8461,23	5426,00
-8440,71	6026,00
-8420,24	6301,00
-8399,81	6492,00
-8379,42	6168,00
-8359,08	5874,00
-8338,77	5392,00
-8318,50	4675,00
-8298,27	4466,00
-8278,09	4819,00
-8257,94	5167,00
-8237,83	5739,00
-8217,76	6121,00
-8197,74	6428,00
-8177,75	5982,00
-8157,80	5490,00
-8137,89	5006,00
-8118,02	4843,00
-8098,19	4772,00
-8078,40	4836,00
-8058,65	5333,00
-8038,93	5384,00
-8019,26	5348,00
-7999,62	5320,00
-7980,02	4963,00
-7960,46	4837,00
-7940,94	4576,00
-7921,46	4583,00
-7902,01	4429,00
-7882,60	4637,00
-7863,23	4336,00
-7843,90	4836,00
-7824,61	5051,00
-7805,35	5267,00
-7786,13	5322,00
-7766,95	5521,00
-7747,80	5134,00
-7728,69	4701,00
-7709,62	4665,00
-7690,59	5127,00
-7671,59	5343,00
-7652,63	5587,00
-7633,70	5936,00
-7614,81	5533,00
-7595,96	4957,00
-7577,15	4524,00
-7558,37	4420,00
-7539,62	4663,00
-7520,91	5014,00
-7502,24	5401,00
-7483,60	5584,00
-7465,00	5184,00
-7446,44	4548,00
-7427,91	3972,00
-7409,41	3737,00
-7390,95	3358,00
-7372,53	3331,00
-7354,14	3273,00
-7335,78	3247,00
-7317,46	3570,00
-7299,18	4104,00
-7280,92	4545,00
-7262,71	5080,00
-7244,52	5554,00
-7226,38	5595,00
-7208,26	5365,00
-7190,18	4848,00
-7172,14	4589,00
-7154,12	4581,00
-7136,15	4545,00
-7118,20	4943,00
-7100,29	5186,00
-7082,41	5328,00
-7064,57	5208,00
-7046,76	4712,00
-7028,98	4187,00
-7011,24	3929,00
-6993,53	3227,00
-6975,85	2874,00
-6958,20	2436,00
-6940,59	2283,00
-6923,01	2541,00
-6905,46	3030,00
-6887,94	3565,00
-6870,46	2332,00
-6853,01	4786,00
-6835,59	4926,00
-6818,21	4225,00
-6800,85	3693,00
-6783,53	2913,00
-6766,24	2572,00
-6748,98	2166,00
-6731,76	2212,00
-6714,56	1898,00
-6697,40	1924,00
-6680,26	2001,00
-6663,16	2363,00
-6646,09	2848,00
-6629,05	3360,00
-6612,05	3871,00
-6595,07	3909,00
-6578,13	3548,00
-6561,21	2877,00
-6544,33	2225,00
-6527,47	1769,00
-6510,65	1465,00
-6493,86	1673,00
-6477,10	1641,00
-6460,36	1889,00
-6443,66	1642,00
-6426,99	1555,00
-6410,35	1722,00
-6393,74	1803,00
-6377,16	2172,00
-6360,61	2341,00
-6344,09	2713,00
-6327,59	2557,00
-6311,13	2577,00
-6294,70	2605,00
-6278,29	2900,00
-6261,92	3353,00
-6245,58	3600,00
-6229,26	3596,00
-6212,97	3424,00
-6196,72	2702,00
-6180,49	1772,00
-6164,29	1312,00
-6148,12	980,00
-6131,98	846,00
-6115,86	877,00
-6099,78	903,00
-6083,72	852,00
-6067,69	805,00
-6051,69	749,00
-6035,72	916,00
-6019,78	1254,00
-6003,87	1491,00
-5987,98	2290,00
-5972,12	2647,00
-5956,29	2832,00
-5940,49	2455,00
-5924,71	1869,00
-5908,96	1354,00
-5893,24	1104,00
-5877,55	1008,00
-5861,89	1166,00
-5846,25	1256,00
-5830,64	1197,00
-5815,05	1258,00
-5799,50	1190,00
-5783,97	1167,00
-5768,47	1456,00
-5752,99	1873,00
-5737,55	2285,00
-5722,12	2614,00
-5706,73	2495,00
-5691,36	2073,00
-5676,02	1449,00
-5660,71	1135,00
-5645,42	939,00
-5630,16	1148,00
-5614,92	1469,00
-5599,71	1876,00
-5584,53	1970,00
-5569,37	1833,00
-5554,24	1743,00
-5539,14	1567,00
-5524,06	1484,00
-5509,01	1521,00
-5493,98	1712,00
-5478,98	1798,00
-5464,00	1745,00
-5449,05	1441,00
-5434,13	1176,00
-5419,23	1004,00
-5404,36	1262,00
-5389,51	1684,00
-5374,69	2259,00
-5359,89	2544,00
-5345,12	2931,00
-5330,37	2568,00
-5315,65	2259,00
-5300,95	1792,00
-5286,28	1632,00
-5271,63	1542,00
-5257,01	1587,00
-5242,41	1625,00
-5227,84	1395,00
-5213,29	1143,00
-5198,76	926,00
-5184,26	820,00
-5169,79	857,00
-5155,33	1323,00
-5140,91	1637,00
-5126,51	1929,00
-5112,13	2000,00
-5097,77	1722,00
-5083,44	1325,00
-5069,13	962,00
-5054,85	1047,00
-5040,59	1284,00
-5026,36	1543,00
-5012,15	1667,00
-4997,96	1620,00
-4983,80	1215,00
-4969,66	888,00
-4955,54	874,00
-4941,44	1235,00
-4927,37	1902,00
-4913,33	2670,00
-4899,30	2948,00
-4885,30	2772,00
-4871,33	1917,00
-4857,37	1057,00
-4843,44	897,00
-4829,53	900,00
-4815,65	1136,00
-4801,79	1346,00
-4787,95	1343,00
-4774,13	1162,00
-4760,34	795,00
-4746,56	603,00
-4732,82	668,00
-4719,09	1241,00
-4705,38	1848,00
-4691,70	2281,00
-4678,04	2367,00
-4664,41	1877,00
-4650,79	1209,00
-4637,20	805,00
-4623,63	830,00
-4610,08	1296,00
-4596,56	1522,00
-4583,05	1609,00
-4569,57	1352,00
-4556,11	850,00
-4542,67	563,00
-4529,25	855,00
-4515,86	1308,00
-4502,49	1986,00
-4489,13	2167,00
-4475,80	1819,00
-4462,49	1259,00
-4449,21	741,00
-4435,94	637,00
-4422,70	980,00
-4409,47	1253,00
-4396,27	1281,00
-4383,09	1046,00
-4369,93	651,00
-4356,79	473,00
-4343,67	502,00
-4330,58	832,00
-4317,50	992,00
-4304,45	1066,00
-4291,41	660,00
-4278,40	479,00
-4265,41	468,00
-4252,44	725,00
-4239,49	1138,00
-4226,55	1242,00
-4213,65	926,00
-4200,76	591,00
-4187,89	372,00
-4175,04	293,00
-4162,21	442,00
-4149,40	440,00
-4136,61	406,00
-4123,85	223,00
-4111,10	303,00
-4098,37	403,00
-4085,66	445,00
-4072,98	397,00
-4060,31	315,00
-4047,66	309,00
-4035,04	415,00
-4022,43	471,00
-4009,84	315,00
-3997,27	347,00
-3984,72	355,00
-3972,19	263,00
-3959,69	188,00
-3947,20	256,00
-3934,73	90,00
-3922,27	173,00
-3909,84	178,00
-3897,43	158,00
-3885,04	243,00
-3872,67	132,00
-3860,31	208,00
-3847,98	234,00
-3835,66	36,00
-3823,36	134,00
-3811,09	151,00
-3798,83	52,00
-3786,59	145,00
-3774,37	237,00
-3762,17	233,00
-3749,98	124,00
-3737,82	54,00
-3725,67	246,00
-3713,55	168,00
-3701,44	183,00
-3689,35	272,00
-3677,28	76,00
-3665,22	56,00
-3653,19	142,00
-3641,17	118,00
-3629,18	36,00
-3617,20	153,00
-3605,24	144,00
-3593,30	74,00
-3581,37	25,00
-3569,47	257,00
-3557,58	87,00
-3545,71	68,00
-3533,86	243,00
-3522,02	85,00
-3510,21	195,00
-3498,41	217,00
-3486,63	33,00
-3474,87	106,00
-3463,12	243,00
-3451,40	156,00
-3439,69	102,00
-3428,00	180,00
-3416,33	106,00
-3404,67	120,00
-3393,03	47,00
-3381,41	201,00
-3369,81	344,00
-3358,22	127,00
-3346,66	222,00
-3335,10	136,00
-3323,57	168,00
-3312,06	139,00
-3300,56	129,00
-3289,08	100,00
-3277,61	178,00
-3266,16	89,00
-3254,73	105,00
-3243,32	123,00
-3231,92	101,00
-3220,55	204,00
-3209,18	102,00
-3197,84	197,00
-3186,51	89,00
-3175,20	45,00
-3163,90	97,00
-3152,63	141,00
-3141,36	202,00
-3130,12	200,00
-3118,89	180,00
-3107,68	82,00
-3096,49	270,00
-3085,31	177,00
-3074,15	178,00
-3063,00	139,00
-3051,87	-11,00
-3040,76	193,00
-3029,67	109,00
-3018,59	160,00
-3007,52	200,00
-2996,48	135,00
-2985,44	75,00
-2974,43	224,00
-2963,43	81,00
-2952,45	207,00
-2941,48	181,00
-2930,53	165,00
-2919,60	113,00
-2908,68	119,00
-2897,78	170,00
-2886,89	130,00
-2876,02	120,00
-2865,17	76,00
-2854,33	2,00
-2843,50	176,00
-2832,70	53,00
-2821,90	164,00
-2811,13	14,00
-2800,37	168,00
-2789,62	218,00
-2778,89	140,00
-2768,18	137,00
-2757,48	39,00
-2746,80	277,00
-2736,13	103,00
-2725,48	8,00
-2714,84	96,00
-2704,22	98,00
-2693,61	195,00
-2683,02	155,00
-2672,45	325,00
-2661,89	231,00
-2651,34	165,00
-2640,81	199,00
-2630,30	77,00
-2619,80	122,00
-2609,31	186,00
-2598,84	169,00
-2588,39	103,00
-2577,95	170,00
-2567,52	74,00
-2557,11	256,00
-2546,71	269,00
-2536,33	170,00
-2525,97	45,00
-2515,62	67,00
-2505,28	150,00
-2494,96	174,00
-2484,65	197,00
-2474,36	307,00
-2464,08	145,00
-2453,82	151,00
-2443,57	136,00
-2433,33	240,00
-2423,11	72,00
-2412,91	195,00
-2402,72	110,00
-2392,54	237,00
-2382,38	99,00
-2372,23	283,00
-2362,09	-4779,00
-2351,97	205,00
-2341,87	89,00
-2331,78	102,00
-2321,70	199,00
-2311,64	132,00
-2301,59	116,00
-2291,55	229,00
-2281,53	42,00
-2271,53	200,00
-2261,53	95,00
-2251,55	192,00
-2241,59	81,00
-2231,64	128,00
-2221,70	86,00
-2211,78	161,00
-2201,87	92,00
-2191,97	218,00
-2182,09	145,00
-2172,22	50,00
-2162,37	68,00
-2152,53	190,00
-2142,70	126,00
-2132,89	51,00
-2123,09	-32,00
-2113,30	198,00
-2103,53	131,00
-2093,77	182,00
-2084,02	153,00
-2074,29	199,00
-2064,57	120,00
-2054,86	171,00
-2045,17	177,00
-2035,49	95,00
-2025,82	185,00
-2016,17	210,00
-2006,53	110,00
-1996,91	109,00
-1987,29	178,00
-1977,69	78,00
-1968,11	26,00
-1958,53	112,00
-1948,97	108,00
-1939,42	91,00
-1929,89	165,00
-1920,37	87,00
-1910,86	31,00
-1901,36	186,00
-1891,88	67,00
-1882,41	253,00
-1872,95	164,00
-1863,51	147,00
-1854,08	267,00
-1844,66	147,00
-1835,26	54,00
-1825,86	45,00
-1816,48	189,00
-1807,11	77,00
-1797,76	50,00
-1788,42	118,00
-1779,09	135,00
-1769,77	100,00
-1760,47	131,00
-1751,17	200,00
-1741,89	166,00
-1732,63	49,00
-1723,37	144,00
-1714,13	86,00
-1704,90	49,00
-1695,68	59,00
-1686,48	192,00
-1677,29	274,00
-1668,11	234,00
-1658,94	239,00
-1649,78	64,00
-1640,64	149,00
-1631,51	92,00
-1622,39	243,00
-1613,28	18,00
-1604,19	-2,00
-1595,10	97,00
-1586,03	271,00
-1576,97	117,00
-1567,93	129,00
-1558,89	97,00
-1549,87	50,00
-1540,86	37,00
-1531,86	211,00
-1522,87	19,00
-1513,90	211,00
-1504,93	240,00
-1495,98	158,00
-1487,04	248,00
-1478,12	240,00
-1469,20	179,00
-1460,30	56,00
-1451,40	108,00
-1442,52	108,00
-1433,65	128,00
-1424,80	131,00
-1415,95	130,00
-1407,12	177,00
-1398,30	221,00
-1389,48	143,00
-1380,69	137,00
-1371,90	227,00
-1363,12	206,00
-1354,36	124,00
-1345,60	195,00
-1336,86	62,00
-1328,13	209,00
-1319,41	183,00
-1310,70	91,00
-1302,01	116,00
-1293,32	77,00
-1284,65	62,00
-1275,99	48,00
-1267,33	177,00
-1258,69	47,00
-1250,06	16,00
-1241,45	297,00
-1232,84	200,00
-1224,25	68,00
-1215,66	55,00
-1207,09	190,00
-1198,53	215,00
-1189,97	141,00
-1181,43	131,00
-1172,91	161,00
-1164,39	211,00
-1155,88	186,00
-1147,38	172,00
-1138,90	106,00
-1130,43	156,00
-1121,96	63,00
-1113,51	118,00
-1105,07	229,00
-1096,64	88,00
-1088,22	213,00
-1079,81	229,00
-1071,41	226,00
-1063,02	139,00
-1054,65	120,00
-1046,28	132,00
-1037,92	197,00
-1029,58	151,00
-1021,24	120,00
-1012,92	88,00
-1004,61	103,00
-996,30	144,00
-988,01	64,00
-979,73	220,00
-971,46	127,00
-963,20	105,00
-954,95	243,00
-946,71	171,00
-938,48	206,00
-930,26	108,00
-922,06	17,00
-913,86	85,00
-905,67	147,00
-897,49	81,00
-889,33	35,00
-881,17	143,00
-873,02	37,00
-864,89	76,00
-856,76	94,00
-848,65	138,00
-840,54	57,00
-832,45	146,00
-824,36	70,00
-816,29	164,00
-808,22	235,00
-800,17	226,00
-792,12	135,00
-784,09	83,00
-776,06	164,00
-768,05	115,00
-760,04	229,00
-752,05	266,00
-744,07	204,00
-736,09	8,00
-728,13	115,00
-720,17	106,00
-712,23	189,00
-704,29	191,00
-696,37	193,00
-688,45	87,00
-680,55	166,00
-672,65	224,00
-664,77	117,00
-656,89	159,00
-649,03	95,00
-641,17	156,00
-633,32	202,00
-625,49	177,00
-617,66	90,00
-609,84	86,00
-602,03	179,00
-594,23	116,00
-586,45	106,00
-578,67	179,00
-570,90	129,00
-563,14	153,00
-555,39	90,00
-547,65	84,00
-539,91	135,00
-532,19	212,00
-524,48	162,00
-516,78	186,00
-509,08	214,00
-501,40	105,00
-493,72	56,00
-486,06	168,00
-478,40	100,00
-470,76	96,00
-463,12	95,00
-455,49	197,00
-447,87	164,00
-440,26	23,00
-432,66	188,00
-425,07	142,00
-417,49	290,00
-409,92	68,00
-402,35	180,00
-394,80	119,00
-387,25	213,00
-379,72	152,00
-372,19	135,00
-364,67	169,00
-357,17	203,00
-349,67	119,00
-342,18	249,00
-334,69	108,00
-327,22	197,00
-319,76	148,00
-312,30	166,00
-304,86	151,00
-297,42	135,00
-290,00	218,00
-282,58	225,00
-275,17	198,00
-267,77	191,00
-260,37	198,00
-252,99	254,00
-245,62	92,00
-238,25	187,00
-230,90	107,00
-223,55	176,00
-216,21	268,00
-208,88	148,00
-201,56	338,00
-194,25	280,00
-186,94	223,00
-179,65	267,00
-172,36	296,00
-165,08	287,00
-157,81	255,00
-150,55	313,00
-143,30	365,00
-136,06	403,00
-128,82	368,00
-121,60	440,00
-114,38	536,00
-107,17	529,00
-99,97	618,00
-92,78	574,00
-85,60	772,00
-78,42	795,00
-71,25	979,00
-64,10	1178,00
-56,95	1241,00
-49,81	1404,00
-42,67	1719,00
-35,55	2303,00
-28,43	2917,00
-21,33	5050,00
-14,23	16924,00
-7,14	54419,00
-0,05	54171,00
7,02	53809,00
14,09	43775,00
21,14	11720,00
28,19	5093,00
35,23	3494,00
42,27	2471,00
49,29	2255,00
56,31	1911,00
63,32	1526,00
70,32	1304,00
77,31	1301,00
84,29	1033,00
91,27	729,00
98,23	729,00
105,19	721,00
112,14	782,00
119,09	1300,00
126,02	2237,00
132,95	2710,00
139,87	2859,00
146,78	2804,00
153,68	2787,00
160,58	2816,00
167,46	2802,00
174,34	2781,00
181,21	2675,00
188,08	2688,00
194,93	2730,00
201,78	2708,00
208,62	2613,00
215,45	2623,00
222,27	2670,00
229,09	2434,00
235,90	2648,00
242,70	2578,00
249,49	2538,00
256,27	2563,00
263,05	2296,00
269,82	2404,00
276,58	2554,00
283,33	2503,00
290,08	2545,00
296,82	2383,00
303,55	2297,00
310,27	2346,00
316,98	2289,00
323,69	2387,00
330,39	2216,00
337,08	2407,00
343,76	2106,00
350,44	2261,00
357,11	2212,00
363,77	2207,00
370,42	2199,00
377,07	2274,00
383,71	2214,00
390,34	2140,00
396,96	2238,00
403,58	2105,00
410,19	2258,00
416,79	2202,00
423,38	2113,00
429,97	2132,00
436,55	2006,00
443,12	2003,00
449,68	1983,00
456,24	1914,00
462,79	2058,00
469,33	1934,00
475,86	1840,00
482,39	1864,00
488,91	1920,00
495,42	1875,00
501,93	1954,00
508,42	1808,00
514,91	1827,00
521,40	1724,00
527,87	1739,00
534,34	1867,00
540,80	1828,00
547,25	1662,00
553,70	1777,00
560,14	1859,00
566,57	1714,00
573,00	1763,00
579,41	1767,00
585,83	1714,00
592,23	1701,00
598,62	1681,00
605,01	1764,00
611,40	1590,00
617,77	1695,00
624,14	1609,00
630,50	1565,00
636,85	1548,00
643,20	1584,00
649,54	1537,00
655,87	1512,00
662,20	1521,00
668,52	1501,00
674,83	1511,00
681,13	1328,00
687,43	1550,00
693,72	1394,00
700,00	1597,00
706,28	1464,00
712,55	1507,00
718,81	1570,00
725,07	1505,00
731,32	1527,00
737,56	1582,00
743,79	1523,00
750,02	1522,00
756,24	1301,00
762,46	1513,00
768,67	1520,00
774,87	1506,00
781,06	1491,00
787,25	1303,00
793,43	1489,00
799,60	1384,00
805,77	1545,00
811,93	1429,00
818,08	1412,00
824,23	1423,00
830,37	1566,00
836,50	1454,00
842,63	1573,00
848,75	1452,00
854,87	1490,00
860,97	1427,00
867,07	1429,00
873,17	1390,00
879,25	1342,00
885,33	1466,00
891,41	1395,00
897,47	1304,00
903,53	1321,00
909,59	1303,00
915,63	1237,00
921,67	1420,00
927,71	1327,00
933,74	1183,00
939,76	1140,00
945,77	1267,00
951,78	1284,00
957,78	1163,00
963,78	1118,00
969,77	1358,00
975,75	1295,00
981,72	1296,00
987,69	1532,00
993,66	1203,00
999,61	1254,00
1005,56	1210,00
1011,51	1375,00
1017,44	1240,00
1023,37	1295,00
1029,30	1160,00
1035,22	1318,00
1041,13	1247,00
1047,03	1348,00
1052,93	1434,00
1058,83	1611,00
1064,71	1766,00
1070,59	1449,00
1076,47	1464,00
1082,33	1488,00
1088,20	1356,00
1094,05	1259,00
1099,90	1298,00
1105,74	1180,00
1111,58	1337,00
1117,41	1366,00
1123,23	1490,00
1129,05	1584,00
1134,86	1500,00
1140,67	1237,00
1146,47	1194,00
1152,26	1255,00
1158,05	1235,00
1163,83	1222,00
1169,60	1144,00
1175,37	1183,00
1181,13	1169,00
1186,89	1104,00
1192,64	1208,00
1198,38	1222,00
1204,12	1248,00
1209,85	1258,00
1215,58	1075,00
1221,30	1185,00
1227,02	1162,00
1232,72	1164,00
1238,43	1110,00
1244,12	1119,00
1249,81	1101,00
1255,50	1172,00
1261,17	1232,00
1266,85	1212,00
1272,51	1269,00
1278,17	1245,00
1283,83	1279,00
1289,47	1673,00
1295,12	1909,00
1300,75	1766,00
1306,38	1577,00
1312,01	1430,00
1317,63	1207,00
1323,24	1239,00
1328,85	1282,00
1334,45	1235,00
1340,04	1359,00
1345,63	1140,00
1351,22	1349,00
1356,80	1268,00
1362,37	1135,00
1367,93	1318,00
1373,49	1281,00
1379,05	1387,00
1384,60	1241,00
1390,14	1137,00
1395,68	1179,00
1401,21	1063,00
1406,74	1268,00
1412,26	1385,00
1417,77	1358,00
1423,28	1494,00
1428,78	1467,00
1434,28	1816,00
1439,77	1959,00
1445,26	2029,00
1450,74	1979,00
1456,22	1685,00
1461,68	1706,00
1467,15	1640,00
1472,61	1501,00
1478,06	1267,00
1483,51	1095,00
1488,95	1292,00
1494,38	1173,00
1499,81	1040,00
1505,24	951,00
1510,65	1049,00
1516,07	1082,00
1521,48	1080,00
1526,88	1053,00
1532,27	1039,00
1537,67	1098,00
1543,05	1138,00
1548,43	1050,00
1553,81	1099,00
1559,18	1172,00
1564,54	1045,00
1569,90	994,00
1575,25	1050,00
1580,60	1001,00
1585,94	1126,00
1591,28	1120,00
1596,61	1024,00
1601,93	833,00
1607,25	1018,00
1612,57	857,00
1617,88	883,00
1623,18	900,00
1628,48	791,00
1633,77	957,00
1639,06	906,00
1644,34	909,00
1649,62	888,00
1654,89	919,00
1660,16	882,00
1665,42	888,00
1670,67	955,00
1675,92	827,00
1681,17	826,00
1686,41	864,00
1691,64	772,00
1696,87	728,00
1702,10	879,00
1707,32	833,00
1712,53	851,00
1717,74	862,00
1722,94	795,00
1728,14	787,00
1733,33	706,00
1738,52	793,00
1743,70	846,00
1748,88	749,00
1754,05	825,00
1759,22	733,00
1764,38	-931,00
1769,53	831,00
1774,69	702,00
1779,83	910,00
1784,97	642,00
1790,11	775,00
1795,24	662,00
1800,36	718,00
1805,48	611,00
1810,60	731,00
1815,71	790,00
1820,82	836,00
1825,92	713,00
1831,01	608,00
1836,10	739,00
1841,19	716,00
1846,26	712,00
1851,34	632,00
1856,41	695,00
1861,47	727,00
1866,53	763,00
1871,59	641,00
1876,64	679,00
1881,68	743,00
1886,72	654,00
1891,76	585,00
1896,79	629,00
1901,81	628,00
1906,83	620,00
1911,85	594,00
1916,86	573,00
1921,86	611,00
1926,86	628,00
1931,86	575,00
1936,85	542,00
1941,83	588,00
1946,81	557,00
1951,79	503,00
1956,76	507,00
1961,72	512,00
1966,68	580,00
1971,64	596,00
1976,59	553,00
1981,54	491,00
1986,48	531,00
1991,42	563,00
1996,35	475,00
2001,27	551,00
2006,20	494,00
2011,11	648,00
2016,03	567,00
2020,93	431,00
2025,84	555,00
2030,73	535,00
2035,63	484,00
2040,52	413,00
2045,40	344,00
2050,28	455,00
2055,15	518,00
2060,02	509,00
2064,89	537,00
2069,75	505,00
2074,60	515,00
2079,46	546,00
2084,30	477,00
2089,14	466,00
2093,98	584,00
2098,81	546,00
2103,64	581,00
2108,46	515,00
2113,28	495,00
2118,09	373,00
2122,90	542,00
2127,70	441,00
2132,50	443,00
2137,30	551,00
2142,09	535,00
2146,87	444,00
2151,66	462,00
2156,43	527,00
2161,20	431,00
2165,97	428,00
2170,73	480,00
2175,49	400,00
2180,24	460,00
2184,99	368,00
2189,74	455,00
2194,48	425,00
2199,21	533,00
2203,94	475,00
2208,67	422,00
2213,39	513,00
2218,11	435,00
2222,82	428,00
2227,53	461,00
2232,23	339,00
2236,93	484,00
2241,63	389,00
2246,32	341,00
2251,00	360,00
2255,68	470,00
2260,36	472,00
2265,03	274,00
2269,70	438,00
2274,36	406,00
2279,02	444,00
2283,68	288,00
2288,33	337,00
2292,97	514,00
2297,61	362,00
2302,25	472,00
2306,88	349,00
2311,51	336,00
2316,14	374,00
2320,75	429,00
2325,37	331,00
2329,98	356,00
2334,59	307,00
2339,19	382,00
2343,79	338,00
2348,38	370,00
2352,97	369,00
2357,55	347,00
2362,13	255,00
2366,71	279,00
2371,28	320,00
2375,85	364,00
2380,41	355,00
2384,97	308,00
2389,52	350,00
2394,07	307,00
2398,62	340,00
2403,16	369,00
2407,70	242,00
2412,23	370,00
2416,76	329,00
2421,29	379,00
2425,81	252,00
2430,32	348,00
2434,84	398,00
2439,34	320,00
2443,85	329,00
2448,35	397,00
2452,84	413,00
2457,33	200,00
2461,82	392,00
2466,30	339,00
2470,78	401,00
2475,25	207,00
2479,72	390,00
2484,19	327,00
2488,65	287,00
2493,11	315,00
2497,56	257,00
2502,01	388,00
2506,46	444,00
2510,90	410,00
2515,34	354,00
2519,77	269,00
2524,20	388,00
2528,62	280,00
2533,04	331,00
2537,46	296,00
2541,87	257,00
2546,28	257,00
2550,68	291,00
2555,08	204,00
2559,48	346,00
2563,87	213,00
2568,26	383,00
2572,64	206,00
2577,02	269,00
2581,40	238,00
2585,77	360,00
2590,14	343,00
2594,50	316,00
2598,86	342,00
2603,22	286,00
2607,57	278,00
2611,92	360,00
2616,26	206,00
2620,60	383,00
2624,94	296,00
2629,27	229,00
2633,60	216,00
2637,92	205,00
2642,24	285,00
2646,56	337,00
2650,87	138,00
2655,18	276,00
2659,48	308,00
2663,78	208,00
2668,08	330,00
2672,37	355,00
2676,66	371,00
2680,95	339,00
2685,23	208,00
2689,50	199,00
2693,78	339,00
2698,05	350,00
2702,31	290,00
2706,57	441,00
2710,83	403,00
2715,08	398,00
2719,33	496,00
2723,58	345,00
2727,82	405,00
2732,06	297,00
2736,29	506,00
2740,53	269,00
2744,75	367,00
2748,97	328,00
2753,19	341,00
2757,41	255,00
2761,62	462,00
2765,83	322,00
2770,03	262,00
2774,23	410,00
2778,43	317,00
2782,62	352,00
2786,81	320,00
2791,00	365,00
2795,18	535,00
2799,35	344,00
2803,53	429,00
2807,70	492,00
2811,86	360,00
2816,03	403,00
2820,19	425,00
2824,34	504,00
2828,49	518,00
2832,64	608,00
2836,78	681,00
2840,92	950,00
2845,06	1173,00
2849,19	1194,00
2853,32	1340,00
2857,45	1166,00
2861,57	1192,00
2865,69	1242,00
2869,80	1097,00
2873,91	1192,00
2878,02	1278,00
2882,12	1517,00
2886,22	1244,00
2890,32	1272,00
2894,41	1203,00
2898,50	1234,00
2902,58	1058,00
2906,67	1122,00
2910,74	1045,00
2914,82	893,00
2918,89	969,00
2922,96	800,00
2927,02	794,00
2931,08	696,00
2935,13	728,00
2939,19	751,00
2943,24	636,00
2947,28	632,00
2951,32	403,00
2955,36	349,00
2959,40	456,00
2963,43	460,00
2967,46	478,00
2971,48	343,00
2975,50	332,00
2979,52	491,00
2983,53	216,00
2987,54	209,00
2991,55	409,00
2995,55	331,00
2999,55	224,00
3003,54	200,00
3007,54	242,00
3011,53	115,00
3015,51	137,00
3019,49	174,00
3023,47	294,00
3027,45	178,00
3031,42	220,00
3035,39	177,00
3039,35	132,00
3043,31	314,00
3047,27	180,00
3051,22	185,00
3055,17	158,00
3059,12	287,00
3063,06	170,00
3067,00	131,00
3070,94	278,00
3074,87	173,00
3078,80	192,00
3082,73	250,00
3086,65	260,00
3090,57	172,00
3094,49	296,00
3098,40	86,00
3102,31	153,00
3106,22	205,00
3110,12	185,00
3114,02	63,00
3117,92	340,00
3121,81	150,00
3125,70	14,00
3129,58	274,00
3133,47	207,00
3137,34	98,00
3141,22	126,00
3145,09	232,00
3148,96	191,00
3152,83	165,00
3156,69	98,00
3160,55	306,00
3164,40	179,00
3168,26	292,00
3172,10	176,00
3175,95	234,00
3179,79	91,00
3183,63	180,00
3187,47	213,00
3191,30	237,00
3195,13	167,00
3198,95	224,00
3202,78	215,00
3206,60	86,00
3210,41	201,00
3214,23	215,00
3218,03	236,00
3221,84	249,00
3225,64	144,00
3229,44	183,00
3233,24	208,00
3237,03	269,00
3240,82	147,00
3244,61	225,00
3248,39	188,00
3252,17	204,00
3255,95	157,00
3259,72	260,00
3263,49	144,00
3267,26	190,00
3271,03	135,00
3274,79	50,00
3278,54	185,00
3282,30	147,00
3286,05	180,00
3289,80	123,00
3293,54	261,00
3297,29	91,00
3301,02	215,00
3304,76	184,00
3308,49	32,00
3312,22	194,00
3315,95	204,00
3319,67	146,00
3323,39	212,00
3327,10	206,00
3330,82	238,00
3334,53	84,00
3338,24	250,00
3341,94	89,00
3345,64	186,00
3349,34	198,00
3353,03	271,00
3356,72	184,00
3360,41	160,00
3364,10	115,00
3367,78	7,00
3371,46	208,00
3375,13	140,00
3378,81	201,00
3382,48	335,00
3386,14	185,00
3389,81	113,00
3393,47	136,00
3397,12	124,00
3400,78	190,00
3404,43	131,00
3408,08	211,00
3411,72	188,00
3415,36	165,00
3419,00	148,00
3422,64	153,00
3426,27	97,00
3429,90	225,00
3433,53	131,00
3437,15	94,00
3440,77	192,00
3444,39	191,00
3448,00	150,00
3451,62	118,00
3455,22	141,00
3458,83	234,00
3462,43	132,00
3466,03	191,00
3469,63	117,00
3473,22	101,00
3476,81	134,00
3480,40	184,00
3483,99	67,00
3487,57	117,00
3491,15	177,00
3494,72	187,00
3498,29	7,00
3501,86	239,00
3505,43	231,00
3508,99	228,00
3512,56	91,00
3516,11	47,00
3519,67	188,00
3523,22	352,00
3526,77	137,00
3530,32	65,00
3533,86	55,00
3537,40	149,00
3540,94	126,00
3544,47	209,00
3548,00	104,00
3551,53	159,00
3555,06	190,00
3558,58	176,00
3562,10	103,00
3565,62	85,00
3569,13	238,00
3572,64	116,00
3576,15	52,00
3579,66	184,00
3583,16	113,00
3586,66	222,00
3590,16	-2,00
3593,65	245,00
3597,14	173,00
3600,63	27,00
3604,11	178,00
3607,60	75,00
3611,08	17,00
3614,55	57,00
3618,03	88,00
3621,50	-59,00
3624,97	89,00
3628,43	59,00
3631,90	219,00
3635,36	48,00
3638,81	136,00
3642,27	93,00
3645,72	255,00
3649,17	57,00
3652,61	57,00
3656,06	63,00
3659,50	112,00
3662,93	229,00
3666,37	71,00
3669,80	63,00
3673,23	121,00
3676,65	96,00
3680,08	116,00
3683,50	68,00
3686,92	179,00
3690,33	163,00
3693,74	162,00
3697,15	76,00
3700,56	126,00
3703,96	111,00
3707,36	82,00
3710,76	35,00
3714,16	31,00
3717,55	159,00
3720,94	144,00
3724,33	54,00
3727,71	173,00
3731,10	-8,00
3734,48	115,00
3737,85	-3,00
3741,23	38,00
3744,60	200,00
3747,97	240,00
3751,33	125,00
3754,69	-10,00
3758,05	190,00
3761,41	87,00
3764,77	101,00
3768,12	51,00
3771,47	138,00
3774,82	151,00
3778,16	-6,00
3781,50	5,00
3784,84	-2,00
3788,18	3,00
>>>>>End Processed Spectral Data<<<<<
