SpectraSuite Data File
++++++++++++++++++++++++++++++++++++
Date: Tue Mar 03 10:49:59 ICT 2026
User: user
Dark Spectrum Present: Yes
Reference Spectrum Present: No
Number of Sampled Component Spectra: 1
Spectrometers: MAYP113682
Integration Time (usec): 3000000 (MAYP113682)
Spectra Averaged: 1 (MAYP113682)
Boxcar Smoothing: 0 (MAYP113682)
Correct for Electrical Dark: No (MAYP113682)
Strobe/Lamp Enabled: No (MAYP113682)
Correct for Detector Non-linearity: No (MAYP113682)
Correct for Stray Light: No (MAYP113682)
Number of Pixels in Processed Spectrum: 2068
>>>>>Begin Processed Spectral Data<<<<<
-37534,58	18,00
-37414,56	1,00
-37295,11	5,00
-37176,24	-8,00
-37057,95	238,00
-36940,22	285,00
-36823,05	350,00
-36706,45	359,00
-36590,40	367,00
-36474,90	363,00
-36359,95	411,00
-36245,55	292,00
-36131,68	412,00
-36018,35	417,00
-35905,55	368,00
-35793,29	344,00
-35681,54	359,00
-35570,32	380,00
-35459,62	376,00
-35349,43	378,00
-35239,75	295,00
-35130,58	392,00
-35021,91	367,00
-34913,74	334,00
-34806,07	268,00
-34698,89	362,00
-34592,20	303,00
-34486,00	321,00
-34380,28	428,00
-34275,04	296,00
-34170,27	349,00
-34065,98	373,00
-33962,16	346,00
-33858,81	365,00
-33755,92	433,00
-33653,49	457,00
-33551,52	446,00
-33450,01	445,00
-33348,94	346,00
-33248,33	363,00
-33148,16	365,00
-33048,43	354,00
-32949,14	357,00
-32850,29	360,00
-32751,87	422,00
-32653,89	415,00
-32556,33	404,00
-32459,20	526,00
-32362,49	332,00
-32266,19	406,00
-32170,32	354,00
-32074,86	412,00
-31979,82	437,00
-31885,18	446,00
-31790,95	550,00
-31697,12	316,00
-31603,69	366,00
-31510,67	457,00
-31418,04	336,00
-31325,80	383,00
-31233,95	366,00
-31142,49	433,00
-31051,42	473,00
-30960,73	480,00
-30870,43	484,00
-30780,50	493,00
-30690,95	430,00
-30601,77	429,00
-30512,97	262,00
-30424,53	409,00
-30336,46	393,00
-30248,76	436,00
-30161,42	449,00
-30074,44	474,00
-29987,81	323,00
-29901,55	417,00
-29815,63	418,00
-29730,07	489,00
-29644,86	479,00
-29560,00	473,00
-29475,48	407,00
-29391,30	325,00
-29307,47	311,00
-29223,97	443,00
-29140,81	351,00
-29057,99	385,00
-28975,50	375,00
-28893,34	442,00
-28811,51	258,00
-28730,00	276,00
-28648,82	367,00
-28567,97	378,00
-28487,43	418,00
-28407,21	316,00
-28327,32	376,00
-28247,73	433,00
-28168,46	376,00
-28089,50	418,00
-28010,85	326,00
-27932,51	438,00
-27854,48	490,00
-27776,75	304,00
-27699,32	336,00
-27622,19	589,00
-27545,37	402,00
-27468,84	370,00
-27392,60	458,00
-27316,66	438,00
-27241,01	510,00
-27165,66	508,00
-27090,59	359,00
-27015,81	369,00
-26941,31	409,00
-26867,10	447,00
-26793,17	400,00
-26719,52	425,00
-26646,15	385,00
-26573,06	388,00
-26500,24	418,00
-26427,70	437,00
-26355,43	455,00
-26283,43	447,00
-26211,71	432,00
-26140,25	403,00
-26069,06	437,00
-25998,13	347,00
-25927,46	445,00
-25857,06	334,00
-25786,92	367,00
-25717,04	404,00
-25647,42	458,00
-25578,05	388,00
-25508,94	330,00
-25440,09	552,00
-25371,48	424,00
-25303,13	448,00
-25235,02	383,00
-25167,17	557,00
-25099,56	406,00
-25032,19	342,00
-24965,07	380,00
-24898,20	419,00
-24831,56	425,00
-24765,17	462,00
-24699,01	336,00
-24633,10	293,00
-24567,41	408,00
-24501,97	434,00
-24436,75	487,00
-24371,77	440,00
-24307,03	373,00
-24242,51	497,00
-24178,22	425,00
-24114,16	358,00
-24050,32	386,00
-23986,71	421,00
-23923,32	409,00
-23860,16	403,00
-23797,22	278,00
-23734,50	317,00
-23672,00	392,00
-23609,71	406,00
-23547,65	502,00
-23485,80	417,00
-23424,16	419,00
-23362,74	431,00
-23301,53	375,00
-23240,54	299,00
-23179,75	369,00
-23119,17	323,00
-23058,80	355,00
-22998,64	480,00
-22938,68	420,00
-22878,93	371,00
-22819,39	363,00
-22760,04	237,00
-22700,90	279,00
-22641,96	406,00
-22583,22	402,00
-22524,68	311,00
-22466,33	416,00
-22408,19	301,00
-22350,23	321,00
-22292,48	463,00
-22234,92	418,00
-22177,55	441,00
-22120,37	419,00
-22063,38	409,00
-22006,58	411,00
-21949,98	422,00
-21893,56	336,00
-21837,33	402,00
-21781,28	362,00
-21725,42	439,00
-21669,74	375,00
-21614,25	506,00
-21558,94	443,00
-21503,81	476,00
-21448,86	396,00
-21394,10	372,00
-21339,51	330,00
-21285,10	352,00
-21230,86	367,00
-21176,81	312,00
-21122,93	321,00
-21069,22	369,00
-21015,69	393,00
-20962,33	420,00
-20909,14	323,00
-20856,13	266,00
-20803,28	557,00
-20750,61	383,00
-20698,10	385,00
-20645,76	412,00
-20593,59	389,00
-20541,59	296,00
-20489,75	459,00
-20438,07	317,00
-20386,56	472,00
-20335,22	458,00
-20284,03	414,00
-20233,01	332,00
-20182,15	383,00
-20131,45	452,00
-20080,91	382,00
-20030,52	331,00
-19980,30	287,00
-19930,23	433,00
-19880,32	437,00
-19830,56	294,00
-19780,96	421,00
-19731,52	343,00
-19682,23	317,00
-19633,09	330,00
-19584,10	287,00
-19535,26	384,00
-19486,58	364,00
-19438,04	366,00
-19389,66	448,00
-19341,42	325,00
-19293,33	419,00
-19245,39	381,00
-19197,60	404,00
-19149,95	376,00
-19102,45	343,00
-19055,09	427,00
-19007,87	506,00
-18960,80	301,00
-18913,87	378,00
-18867,09	497,00
-18820,44	453,00
-18773,94	368,00
-18727,57	396,00
-18681,35	284,00
-18635,26	366,00
-18589,31	347,00
-18543,50	426,00
-18497,83	375,00
-18452,29	320,00
-18406,89	400,00
-18361,63	430,00
-18316,50	403,00
-18271,50	392,00
-18226,63	409,00
-18181,90	408,00
-18137,30	400,00
-18092,84	251,00
-18048,50	420,00
-18004,29	452,00
-17960,22	446,00
-17916,27	368,00
-17872,45	405,00
-17828,76	495,00
-17785,20	347,00
-17741,77	307,00
-17698,46	442,00
-17655,28	274,00
-17612,22	405,00
-17569,29	372,00
-17526,48	433,00
-17483,79	283,00
-17441,23	386,00
-17398,79	252,00
-17356,48	490,00
-17314,28	342,00
-17272,21	329,00
-17230,26	340,00
-17188,42	456,00
-17146,71	386,00
-17105,12	300,00
-17063,64	303,00
-17022,28	402,00
-16981,04	375,00
-16939,92	338,00
-16898,91	392,00
-16858,02	464,00
-16817,25	344,00
-16776,59	427,00
-16736,04	356,00
-16695,61	345,00
-16655,29	307,00
-16615,09	424,00
-16574,99	313,00
-16535,01	408,00
-16495,15	426,00
-16455,39	371,00
-16415,74	256,00
-16376,21	441,00
-16336,78	401,00
-16297,46	404,00
-16258,26	456,00
-16219,16	433,00
-16180,17	416,00
-16141,28	429,00
-16102,51	440,00
-16063,84	387,00
-16025,27	353,00
-15986,82	271,00
-15948,46	314,00
-15910,22	322,00
-15872,07	479,00
-15834,04	314,00
-15796,10	391,00
-15758,27	320,00
-15720,54	241,00
-15682,91	351,00
-15645,39	441,00
-15607,97	351,00
-15570,64	366,00
-15533,42	305,00
-15496,30	442,00
-15459,28	383,00
-15422,36	403,00
-15385,54	394,00
-15348,82	414,00
-15312,19	516,00
-15275,66	489,00
-15239,23	310,00
-15202,90	421,00
-15166,67	296,00
-15130,53	338,00
-15094,48	348,00
-15058,54	377,00
-15022,68	470,00
-14986,93	423,00
-14951,26	260,00
-14915,69	353,00
-14880,22	276,00
-14844,84	405,00
-14809,55	384,00
-14774,35	433,00
-14739,25	318,00
-14704,24	446,00
-14669,32	296,00
-14634,49	302,00
-14599,75	452,00
-14565,10	325,00
-14530,55	396,00
-14496,08	426,00
-14461,70	404,00
-14427,41	293,00
-14393,21	382,00
-14359,10	392,00
-14325,07	311,00
-14291,14	297,00
-14257,29	476,00
-14223,52	422,00
-14189,85	443,00
-14156,26	415,00
-14122,76	291,00
-14089,34	429,00
-14056,01	408,00
-14022,76	455,00
-13989,60	380,00
-13956,52	469,00
-13923,53	389,00
-13890,62	391,00
-13857,79	420,00
-13825,05	340,00
-13792,39	408,00
-13759,81	390,00
-13727,31	273,00
-13694,90	480,00
-13662,57	370,00
-13630,31	380,00
-13598,14	388,00
-13566,05	318,00
-13534,05	357,00
-13502,12	338,00
-13470,27	368,00
-13438,50	346,00
-13406,80	393,00
-13375,19	327,00
-13343,66	296,00
-13312,20	314,00
-13280,83	420,00
-13249,53	376,00
-13218,30	326,00
-13187,16	437,00
-13156,09	449,00
-13125,10	421,00
-13094,18	405,00
-13063,34	382,00
-13032,58	312,00
-13001,89	396,00
-12971,28	484,00
-12940,74	336,00
-12910,27	395,00
-12879,88	375,00
-12849,57	402,00
-12819,33	433,00
-12789,16	375,00
-12759,06	333,00
-12729,04	480,00
-12699,09	1005,00
-12669,21	290,00
-12639,41	432,00
-12609,68	361,00
-12580,02	409,00
-12550,43	489,00
-12520,91	318,00
-12491,46	414,00
-12462,08	424,00
-12432,77	309,00
-12403,54	380,00
-12374,37	347,00
-12345,27	403,00
-12316,24	430,00
-12287,29	450,00
-12258,40	308,00
-12229,57	339,00
-12200,82	434,00
-12172,14	437,00
-12143,52	404,00
-12114,97	197,00
-12086,49	443,00
-12058,07	363,00
-12029,73	408,00
-12001,44	459,00
-11973,23	345,00
-11945,08	511,00
-11917,00	451,00
-11888,98	407,00
-11861,03	406,00
-11833,15	401,00
-11805,32	459,00
-11777,57	480,00
-11749,88	439,00
-11722,25	393,00
-11694,69	582,00
-11667,19	326,00
-11639,75	539,00
-11612,38	446,00
-11585,07	477,00
-11557,83	365,00
-11530,65	433,00
-11503,53	396,00
-11476,47	304,00
-11449,48	297,00
-11422,54	423,00
-11395,67	425,00
-11368,86	342,00
-11342,11	361,00
-11315,43	447,00
-11288,80	408,00
-11262,23	377,00
-11235,73	373,00
-11209,28	514,00
-11182,90	485,00
-11156,57	347,00
-11130,31	505,00
-11104,10	354,00
-11077,96	426,00
-11051,87	505,00
-11025,84	407,00
-10999,87	434,00
-10973,96	369,00
-10948,11	268,00
-10922,31	421,00
-10896,58	319,00
-10870,90	427,00
-10845,28	479,00
-10819,71	307,00
-10794,20	484,00
-10768,75	491,00
-10743,36	404,00
-10718,02	335,00
-10692,74	488,00
-10667,52	463,00
-10642,35	479,00
-10617,24	412,00
-10592,18	517,00
-10567,18	399,00
-10542,23	572,00
-10517,34	480,00
-10492,51	477,00
-10467,72	523,00
-10443,00	535,00
-10418,32	534,00
-10393,70	524,00
-10369,14	520,00
-10344,63	539,00
-10320,17	581,00
-10295,77	538,00
-10271,42	565,00
-10247,12	675,00
-10222,88	701,00
-10198,68	744,00
-10174,54	634,00
-10150,46	692,00
-10126,42	796,00
-10102,44	734,00
-10078,51	735,00
-10054,63	930,00
-10030,80	868,00
-10007,03	890,00
-9983,30	842,00
-9959,63	871,00
-9936,01	897,00
-9912,44	799,00
-9888,92	979,00
-9865,44	922,00
-9842,02	1062,00
-9818,65	1047,00
-9795,33	1076,00
-9772,06	1151,00
-9748,84	1103,00
-9725,67	1288,00
-9702,55	1231,00
-9679,47	1633,00
-9656,45	1577,00
-9633,47	1686,00
-9610,55	1790,00
-9587,67	1831,00
-9564,84	1960,00
-9542,06	2044,00
-9519,32	2202,00
-9496,64	2361,00
-9474,00	2456,00
-9451,41	2575,00
-9428,87	2599,00
-9406,37	2335,00
-9383,92	2264,00
-9361,52	2204,00
-9339,17	2204,00
-9316,86	2390,00
-9294,60	2811,00
-9272,38	2950,00
-9250,21	3220,00
-9228,09	3258,00
-9206,01	3013,00
-9183,98	2818,00
-9162,00	2518,00
-9140,06	2435,00
-9118,16	2284,00
-9096,31	2505,00
-9074,51	2426,00
-9052,75	2541,00
-9031,04	2546,00
-9009,37	2161,00
-8987,74	2006,00
-8966,16	1792,00
-8944,63	1738,00
-8923,14	1803,00
-8901,69	1637,00
-8880,29	1840,00
-8858,93	1987,00
-8837,61	2167,00
-8816,34	2396,00
-8795,11	2249,00
-8773,92	2123,00
-8752,78	2006,00
-8731,68	1835,00
-8710,62	1934,00
-8689,61	1918,00
-8668,63	2157,00
-8647,70	2188,00
-8626,82	2158,00
-8605,97	2068,00
-8585,17	1937,00
-8564,41	1833,00
-8543,69	1780,00
-8523,01	1635,00
-8502,37	1721,00
-8481,78	1775,00
-8461,23	1700,00
-8440,71	1892,00
-8420,24	1914,00
-8399,81	2180,00
-8379,42	2111,00
-8359,08	1913,00
-8338,77	1711,00
-8318,50	1698,00
-8298,27	1515,00
-8278,09	1667,00
-8257,94	1707,00
-8237,83	1854,00
-8217,76	2112,00
-8197,74	1992,00
-8177,75	1931,00
-8157,80	1725,00
-8137,89	1670,00
-8118,02	1630,00
-8098,19	1699,00
-8078,40	1582,00
-8058,65	1841,00
-8038,93	1737,00
-8019,26	1790,00
-7999,62	1771,00
-7980,02	1700,00
-7960,46	1645,00
-7940,94	1591,00
-7921,46	1639,00
-7902,01	1528,00
-7882,60	1612,00
-7863,23	1556,00
-7843,90	1645,00
-7824,61	1773,00
-7805,35	1800,00
-7786,13	1709,00
-7766,95	1769,00
-7747,80	1723,00
-7728,69	1648,00
-7709,62	1632,00
-7690,59	1733,00
-7671,59	1753,00
-7652,63	1813,00
-7633,70	1845,00
-7614,81	1867,00
-7595,96	1591,00
-7577,15	1651,00
-7558,37	1498,00
-7539,62	1772,00
-7520,91	1696,00
-7502,24	1860,00
-7483,60	1878,00
-7465,00	1677,00
-7446,44	1655,00
-7427,91	1413,00
-7409,41	1502,00
-7390,95	1165,00
-7372,53	1081,00
-7354,14	1329,00
-7335,78	1355,00
-7317,46	1448,00
-7299,18	1468,00
-7280,92	1640,00
-7262,71	1782,00
-7244,52	1824,00
-7226,38	1813,00
-7208,26	1744,00
-7190,18	1800,00
-7172,14	1543,00
-7154,12	1564,00
-7136,15	1532,00
-7118,20	1735,00
-7100,29	1851,00
-7082,41	1824,00
-7064,57	1723,00
-7046,76	1548,00
-7028,98	1397,00
-7011,24	1474,00
-6993,53	1159,00
-6975,85	1141,00
-6958,20	991,00
-6940,59	911,00
-6923,01	1053,00
-6905,46	1171,00
-6887,94	1397,00
-6870,46	1584,00
-6853,01	1662,00
-6835,59	1566,00
-6818,21	1476,00
-6800,85	1462,00
-6783,53	1261,00
-6766,24	967,00
-6748,98	997,00
-6731,76	870,00
-6714,56	993,00
-6697,40	893,00
-6680,26	912,00
-6663,16	1099,00
-6646,09	1188,00
-6629,05	1295,00
-6612,05	1421,00
-6595,07	1547,00
-6578,13	1234,00
-6561,21	1087,00
-6544,33	959,00
-6527,47	848,00
-6510,65	833,00
-6493,86	642,00
-6477,10	722,00
-6460,36	849,00
-6443,66	692,00
-6426,99	727,00
-6410,35	815,00
-6393,74	849,00
-6377,16	902,00
-6360,61	1029,00
-6344,09	1129,00
-6327,59	1178,00
-6311,13	1073,00
-6294,70	1001,00
-6278,29	1173,00
-6261,92	1223,00
-6245,58	1169,00
-6229,26	1294,00
-6212,97	1211,00
-6196,72	1025,00
-6180,49	944,00
-6164,29	610,00
-6148,12	684,00
-6131,98	695,00
-6115,86	571,00
-6099,78	601,00
-6083,72	603,00
-6067,69	545,00
-6051,69	530,00
-6035,72	625,00
-6019,78	734,00
-6003,87	859,00
-5987,98	982,00
-5972,12	1099,00
-5956,29	1082,00
-5940,49	957,00
-5924,71	964,00
-5908,96	743,00
-5893,24	667,00
-5877,55	683,00
-5861,89	556,00
-5846,25	712,00
-5830,64	708,00
-5815,05	745,00
-5799,50	759,00
-5783,97	755,00
-5768,47	801,00
-5752,99	914,00
-5737,55	934,00
-5722,12	1022,00
-5706,73	1126,00
-5691,36	957,00
-5676,02	815,00
-5660,71	665,00
-5645,42	691,00
-5630,16	748,00
-5614,92	719,00
-5599,71	941,00
-5584,53	1015,00
-5569,37	935,00
-5554,24	1722,00
-5539,14	731,00
-5524,06	884,00
-5509,01	796,00
-5493,98	760,00
-5478,98	955,00
-5464,00	702,00
-5449,05	728,00
-5434,13	754,00
-5419,23	607,00
-5404,36	570,00
-5389,51	786,00
-5374,69	986,00
-5359,89	1189,00
-5345,12	1096,00
-5330,37	1096,00
-5315,65	983,00
-5300,95	838,00
-5286,28	743,00
-5271,63	725,00
-5257,01	864,00
-5242,41	900,00
-5227,84	748,00
-5213,29	566,00
-5198,76	654,00
-5184,26	574,00
-5169,79	634,00
-5155,33	735,00
-5140,91	786,00
-5126,51	905,00
-5112,13	899,00
-5097,77	835,00
-5083,44	774,00
-5069,13	609,00
-5054,85	656,00
-5040,59	643,00
-5026,36	903,00
-5012,15	920,00
-4997,96	808,00
-4983,80	766,00
-4969,66	714,00
-4955,54	580,00
-4941,44	655,00
-4927,37	909,00
-4913,33	1045,00
-4899,30	1099,00
-4885,30	1183,00
-4871,33	917,00
-4857,37	678,00
-4843,44	567,00
-4829,53	524,00
-4815,65	764,00
-4801,79	701,00
-4787,95	788,00
-4774,13	689,00
-4760,34	667,00
-4746,56	493,00
-4732,82	668,00
-4719,09	595,00
-4705,38	919,00
-4691,70	1020,00
-4678,04	961,00
-4664,41	807,00
-4650,79	780,00
-4637,20	585,00
-4623,63	563,00
-4610,08	784,00
-4596,56	810,00
-4583,05	794,00
-4569,57	664,00
-4556,11	641,00
-4542,67	382,00
-4529,25	594,00
-4515,86	741,00
-4502,49	818,00
-4489,13	925,00
-4475,80	719,00
-4462,49	622,00
-4449,21	669,00
-4435,94	549,00
-4422,70	576,00
-4409,47	627,00
-4396,27	689,00
-4383,09	571,00
-4369,93	584,00
-4356,79	541,00
-4343,67	579,00
-4330,58	630,00
-4317,50	738,00
-4304,45	578,00
-4291,41	593,00
-4278,40	450,00
-4265,41	500,00
-4252,44	648,00
-4239,49	578,00
-4226,55	749,00
-4213,65	570,00
-4200,76	602,00
-4187,89	419,00
-4175,04	479,00
-4162,21	537,00
-4149,40	492,00
-4136,61	406,00
-4123,85	400,00
-4111,10	493,00
-4098,37	475,00
-4085,66	509,00
-4072,98	509,00
-4060,31	365,00
-4047,66	557,00
-4035,04	413,00
-4022,43	462,00
-4009,84	528,00
-3997,27	433,00
-3984,72	438,00
-3972,19	504,00
-3959,69	352,00
-3947,20	355,00
-3934,73	389,00
-3922,27	364,00
-3909,84	352,00
-3897,43	337,00
-3885,04	289,00
-3872,67	377,00
-3860,31	421,00
-3847,98	454,00
-3835,66	266,00
-3823,36	302,00
-3811,09	274,00
-3798,83	438,00
-3786,59	407,00
-3774,37	574,00
-3762,17	338,00
-3749,98	496,00
-3737,82	371,00
-3725,67	435,00
-3713,55	324,00
-3701,44	444,00
-3689,35	371,00
-3677,28	499,00
-3665,22	285,00
-3653,19	377,00
-3641,17	464,00
-3629,18	402,00
-3617,20	458,00
-3605,24	512,00
-3593,30	533,00
-3581,37	360,00
-3569,47	569,00
-3557,58	384,00
-3545,71	451,00
-3533,86	346,00
-3522,02	338,00
-3510,21	431,00
-3498,41	374,00
-3486,63	317,00
-3474,87	392,00
-3463,12	439,00
-3451,40	481,00
-3439,69	327,00
-3428,00	417,00
-3416,33	507,00
-3404,67	407,00
-3393,03	357,00
-3381,41	400,00
-3369,81	450,00
-3358,22	335,00
-3346,66	398,00
-3335,10	332,00
-3323,57	362,00
-3312,06	377,00
-3300,56	469,00
-3289,08	405,00
-3277,61	369,00
-3266,16	438,00
-3254,73	406,00
-3243,32	501,00
-3231,92	318,00
-3220,55	372,00
-3209,18	524,00
-3197,84	385,00
-3186,51	349,00
-3175,20	432,00
-3163,90	358,00
-3152,63	441,00
-3141,36	508,00
-3130,12	409,00
-3118,89	264,00
-3107,68	352,00
-3096,49	409,00
-3085,31	375,00
-3074,15	237,00
-3063,00	364,00
-3051,87	405,00
-3040,76	417,00
-3029,67	457,00
-3018,59	477,00
-3007,52	316,00
-2996,48	472,00
-2985,44	381,00
-2974,43	374,00
-2963,43	410,00
-2952,45	382,00
-2941,48	517,00
-2930,53	369,00
-2919,60	390,00
-2908,68	408,00
-2897,78	492,00
-2886,89	416,00
-2876,02	483,00
-2865,17	284,00
-2854,33	269,00
-2843,50	422,00
-2832,70	567,00
-2821,90	434,00
-2811,13	309,00
-2800,37	395,00
-2789,62	511,00
-2778,89	358,00
-2768,18	477,00
-2757,48	389,00
-2746,80	416,00
-2736,13	474,00
-2725,48	511,00
-2714,84	410,00
-2704,22	293,00
-2693,61	203,00
-2683,02	381,00
-2672,45	384,00
-2661,89	426,00
-2651,34	315,00
-2640,81	410,00
-2630,30	527,00
-2619,80	430,00
-2609,31	467,00
-2598,84	382,00
-2588,39	421,00
-2577,95	321,00
-2567,52	235,00
-2557,11	313,00
-2546,71	329,00
-2536,33	492,00
-2525,97	415,00
-2515,62	389,00
-2505,28	520,00
-2494,96	282,00
-2484,65	419,00
-2474,36	522,00
-2464,08	342,00
-2453,82	327,00
-2443,57	381,00
-2433,33	444,00
-2423,11	483,00
-2412,91	319,00
-2402,72	341,00
-2392,54	341,00
-2382,38	309,00
-2372,23	352,00
-2362,09	815,00
-2351,97	411,00
-2341,87	415,00
-2331,78	378,00
-2321,70	329,00
-2311,64	557,00
-2301,59	326,00
-2291,55	373,00
-2281,53	398,00
-2271,53	467,00
-2261,53	293,00
-2251,55	427,00
-2241,59	455,00
-2231,64	398,00
-2221,70	391,00
-2211,78	353,00
-2201,87	533,00
-2191,97	400,00
-2182,09	343,00
-2172,22	483,00
-2162,37	417,00
-2152,53	328,00
-2142,70	249,00
-2132,89	428,00
-2123,09	459,00
-2113,30	475,00
-2103,53	411,00
-2093,77	356,00
-2084,02	467,00
-2074,29	409,00
-2064,57	486,00
-2054,86	367,00
-2045,17	314,00
-2035,49	467,00
-2025,82	301,00
-2016,17	360,00
-2006,53	416,00
-1996,91	460,00
-1987,29	218,00
-1977,69	466,00
-1968,11	402,00
-1958,53	469,00
-1948,97	361,00
-1939,42	385,00
-1929,89	325,00
-1920,37	361,00
-1910,86	432,00
-1901,36	350,00
-1891,88	322,00
-1882,41	374,00
-1872,95	403,00
-1863,51	502,00
-1854,08	413,00
-1844,66	410,00
-1835,26	477,00
-1825,86	370,00
-1816,48	359,00
-1807,11	345,00
-1797,76	491,00
-1788,42	463,00
-1779,09	454,00
-1769,77	399,00
-1760,47	436,00
-1751,17	367,00
-1741,89	370,00
-1732,63	484,00
-1723,37	433,00
-1714,13	427,00
-1704,90	410,00
-1695,68	600,00
-1686,48	415,00
-1677,29	465,00
-1668,11	580,00
-1658,94	324,00
-1649,78	459,00
-1640,64	391,00
-1631,51	309,00
-1622,39	464,00
-1613,28	470,00
-1604,19	366,00
-1595,10	367,00
-1586,03	274,00
-1576,97	436,00
-1567,93	345,00
-1558,89	443,00
-1549,87	396,00
-1540,86	382,00
-1531,86	401,00
-1522,87	409,00
-1513,90	504,00
-1504,93	385,00
-1495,98	400,00
-1487,04	327,00
-1478,12	498,00
-1469,20	363,00
-1460,30	367,00
-1451,40	422,00
-1442,52	404,00
-1433,65	434,00
-1424,80	324,00
-1415,95	304,00
-1407,12	376,00
-1398,30	445,00
-1389,48	418,00
-1380,69	345,00
-1371,90	462,00
-1363,12	397,00
-1354,36	448,00
-1345,60	310,00
-1336,86	408,00
-1328,13	395,00
-1319,41	352,00
-1310,70	282,00
-1302,01	445,00
-1293,32	415,00
-1284,65	427,00
-1275,99	386,00
-1267,33	447,00
-1258,69	339,00
-1250,06	370,00
-1241,45	430,00
-1232,84	410,00
-1224,25	471,00
-1215,66	468,00
-1207,09	474,00
-1198,53	445,00
-1189,97	428,00
-1181,43	411,00
-1172,91	514,00
-1164,39	552,00
-1155,88	356,00
-1147,38	360,00
-1138,90	349,00
-1130,43	442,00
-1121,96	382,00
-1113,51	379,00
-1105,07	404,00
-1096,64	471,00
-1088,22	421,00
-1079,81	502,00
-1071,41	342,00
-1063,02	393,00
-1054,65	381,00
-1046,28	404,00
-1037,92	416,00
-1029,58	347,00
-1021,24	563,00
-1012,92	517,00
-1004,61	392,00
-996,30	548,00
-988,01	231,00
-979,73	411,00
-971,46	418,00
-963,20	411,00
-954,95	362,00
-946,71	393,00
-938,48	412,00
-930,26	382,00
-922,06	365,00
-913,86	516,00
-905,67	366,00
-897,49	349,00
-889,33	361,00
-881,17	483,00
-873,02	442,00
-864,89	368,00
-856,76	307,00
-848,65	453,00
-840,54	483,00
-832,45	514,00
-824,36	321,00
-816,29	587,00
-808,22	435,00
-800,17	376,00
-792,12	558,00
-784,09	508,00
-776,06	390,00
-768,05	529,00
-760,04	485,00
-752,05	383,00
-744,07	517,00
-736,09	481,00
-728,13	375,00
-720,17	316,00
-712,23	443,00
-704,29	459,00
-696,37	496,00
-688,45	435,00
-680,55	347,00
-672,65	282,00
-664,77	387,00
-656,89	464,00
-649,03	365,00
-641,17	417,00
-633,32	501,00
-625,49	422,00
-617,66	375,00
-609,84	407,00
-602,03	464,00
-594,23	356,00
-586,45	435,00
-578,67	416,00
-570,90	452,00
-563,14	361,00
-555,39	361,00
-547,65	394,00
-539,91	356,00
-532,19	424,00
-524,48	468,00
-516,78	358,00
-509,08	449,00
-501,40	385,00
-493,72	407,00
-486,06	385,00
-478,40	514,00
-470,76	412,00
-463,12	482,00
-455,49	413,00
-447,87	391,00
-440,26	354,00
-432,66	358,00
-425,07	326,00
-417,49	449,00
-409,92	311,00
-402,35	423,00
-394,80	382,00
-387,25	445,00
-379,72	380,00
-372,19	318,00
-364,67	360,00
-357,17	420,00
-349,67	394,00
-342,18	483,00
-334,69	600,00
-327,22	379,00
-319,76	437,00
-312,30	431,00
-304,86	536,00
-297,42	409,00
-290,00	451,00
-282,58	419,00
-275,17	521,00
-267,77	497,00
-260,37	620,00
-252,99	418,00
-245,62	485,00
-238,25	508,00
-230,90	497,00
-223,55	512,00
-216,21	597,00
-208,88	626,00
-201,56	629,00
-194,25	567,00
-186,94	640,00
-179,65	846,00
-172,36	702,00
-165,08	710,00
-157,81	647,00
-150,55	930,00
-143,30	846,00
-136,06	949,00
-128,82	1045,00
-121,60	1159,00
-114,38	1142,00
-107,17	1167,00
-99,97	1350,00
-92,78	1429,00
-85,60	1610,00
-78,42	1937,00
-71,25	2216,00
-64,10	2363,00
-56,95	2703,00
-49,81	3098,00
-42,67	3996,00
-35,55	4667,00
-28,43	6254,00
-21,33	10336,00
-14,23	33805,00
-7,14	56239,00
-0,05	55969,00
7,02	55668,00
14,09	55972,00
21,14	27188,00
28,19	11728,00
35,23	7515,00
42,27	5761,00
49,29	4830,00
56,31	4093,00
63,32	3558,00
70,32	2906,00
77,31	2514,00
84,29	2184,00
91,27	1974,00
98,23	1790,00
105,19	1780,00
112,14	1899,00
119,09	2341,00
126,02	3135,00
132,95	3134,00
139,87	3119,00
146,78	3024,00
153,68	2852,00
160,58	2922,00
167,46	2892,00
174,34	2807,00
181,21	2620,00
188,08	2708,00
194,93	2562,00
201,78	2731,00
208,62	2764,00
215,45	2655,00
222,27	2704,00
229,09	2640,00
235,90	2591,00
242,70	2478,00
249,49	2420,00
256,27	2488,00
263,05	2476,00
269,82	2417,00
276,58	2388,00
283,33	2417,00
290,08	2380,00
296,82	2317,00
303,55	2342,00
310,27	2478,00
316,98	2244,00
323,69	2280,00
330,39	2252,00
337,08	2189,00
343,76	2342,00
350,44	2217,00
357,11	2106,00
363,77	2249,00
370,42	2111,00
377,07	2175,00
383,71	2198,00
390,34	2120,00
396,96	2073,00
403,58	2159,00
410,19	2318,00
416,79	2242,00
423,38	2262,00
429,97	2113,00
436,55	2023,00
443,12	2063,00
449,68	1970,00
456,24	1963,00
462,79	1977,00
469,33	1922,00
475,86	1890,00
482,39	1820,00
488,91	1833,00
495,42	1853,00
501,93	1828,00
508,42	1841,00
514,91	1771,00
521,40	1839,00
527,87	1928,00
534,34	1659,00
540,80	1873,00
547,25	1869,00
553,70	1693,00
560,14	1604,00
566,57	1731,00
573,00	1764,00
579,41	1715,00
585,83	1644,00
592,23	1760,00
598,62	1761,00
605,01	1679,00
611,40	1641,00
617,77	1775,00
624,14	1726,00
630,50	1660,00
636,85	1639,00
643,20	1620,00
649,54	1583,00
655,87	1557,00
662,20	1672,00
668,52	1641,00
674,83	1601,00
681,13	1588,00
687,43	1616,00
693,72	1556,00
700,00	1504,00
706,28	1574,00
712,55	1521,00
718,81	1387,00
725,07	1510,00
731,32	1511,00
737,56	1500,00
743,79	1550,00
750,02	1670,00
756,24	1486,00
762,46	1564,00
768,67	1608,00
774,87	1584,00
781,06	1459,00
787,25	1561,00
793,43	1559,00
799,60	1561,00
805,77	1593,00
811,93	1558,00
818,08	1489,00
824,23	1595,00
830,37	1722,00
836,50	1588,00
842,63	1501,00
848,75	1592,00
854,87	1521,00
860,97	1572,00
867,07	1608,00
873,17	1606,00
879,25	1613,00
885,33	1519,00
891,41	1552,00
897,47	1577,00
903,53	1522,00
909,59	1521,00
915,63	1516,00
921,67	1460,00
927,71	1486,00
933,74	1328,00
939,76	1359,00
945,77	1401,00
951,78	1386,00
957,78	1368,00
963,78	1402,00
969,77	1495,00
975,75	1440,00
981,72	1348,00
987,69	1801,00
993,66	1309,00
999,61	1414,00
1005,56	1355,00
1011,51	1382,00
1017,44	1378,00
1023,37	1459,00
1029,30	1222,00
1035,22	1375,00
1041,13	1412,00
1047,03	1550,00
1052,93	1561,00
1058,83	1798,00
1064,71	1952,00
1070,59	1861,00
1076,47	1614,00
1082,33	1633,00
1088,20	1467,00
1094,05	1393,00
1099,90	1375,00
1105,74	1402,00
1111,58	1379,00
1117,41	1540,00
1123,23	1735,00
1129,05	1879,00
1134,86	1754,00
1140,67	1557,00
1146,47	1466,00
1152,26	1398,00
1158,05	1235,00
1163,83	1406,00
1169,60	1345,00
1175,37	1370,00
1181,13	1244,00
1186,89	1256,00
1192,64	1317,00
1198,38	1234,00
1204,12	1302,00
1209,85	1237,00
1215,58	1427,00
1221,30	1288,00
1227,02	1244,00
1232,72	1301,00
1238,43	1340,00
1244,12	1346,00
1249,81	1280,00
1255,50	1376,00
1261,17	1375,00
1266,85	1289,00
1272,51	1353,00
1278,17	1320,00
1283,83	1474,00
1289,47	1956,00
1295,12	2278,00
1300,75	2126,00
1306,38	1870,00
1312,01	1693,00
1317,63	1542,00
1323,24	1460,00
1328,85	1599,00
1334,45	1444,00
1340,04	1420,00
1345,63	1401,00
1351,22	1465,00
1356,80	1407,00
1362,37	1451,00
1367,93	1419,00
1373,49	1410,00
1379,05	1396,00
1384,60	1469,00
1390,14	1453,00
1395,68	1430,00
1401,21	1372,00
1406,74	1553,00
1412,26	1617,00
1417,77	1671,00
1423,28	1776,00
1428,78	1919,00
1434,28	2118,00
1439,77	2370,00
1445,26	2347,00
1450,74	2281,00
1456,22	2116,00
1461,68	2076,00
1467,15	1944,00
1472,61	1737,00
1478,06	1635,00
1483,51	1486,00
1488,95	1323,00
1494,38	1505,00
1499,81	1205,00
1505,24	1296,00
1510,65	1348,00
1516,07	1346,00
1521,48	1301,00
1526,88	1201,00
1532,27	1295,00
1537,67	1176,00
1543,05	1261,00
1548,43	1245,00
1553,81	1222,00
1559,18	1093,00
1564,54	1272,00
1569,90	1107,00
1575,25	1191,00
1580,60	1119,00
1585,94	1106,00
1591,28	1132,00
1596,61	990,00
1601,93	1055,00
1607,25	1088,00
1612,57	935,00
1617,88	1160,00
1623,18	1140,00
1628,48	1044,00
1633,77	1158,00
1639,06	1083,00
1644,34	1089,00
1649,62	1100,00
1654,89	1084,00
1660,16	1048,00
1665,42	1085,00
1670,67	1056,00
1675,92	974,00
1681,17	1059,00
1686,41	1134,00
1691,64	1073,00
1696,87	1121,00
1702,10	1104,00
1707,32	983,00
1712,53	951,00
1717,74	1012,00
1722,94	974,00
1728,14	1012,00
1733,33	859,00
1738,52	961,00
1743,70	1047,00
1748,88	930,00
1754,05	979,00
1759,22	902,00
1764,38	2374,00
1769,53	991,00
1774,69	1022,00
1779,83	1146,00
1784,97	967,00
1790,11	914,00
1795,24	1011,00
1800,36	941,00
1805,48	1004,00
1810,60	893,00
1815,71	992,00
1820,82	1045,00
1825,92	946,00
1831,01	842,00
1836,10	919,00
1841,19	958,00
1846,26	792,00
1851,34	787,00
1856,41	891,00
1861,47	848,00
1866,53	847,00
1871,59	819,00
1876,64	934,00
1881,68	920,00
1886,72	896,00
1891,76	930,00
1896,79	821,00
1901,81	855,00
1906,83	818,00
1911,85	831,00
1916,86	894,00
1921,86	886,00
1926,86	788,00
1931,86	706,00
1936,85	747,00
1941,83	786,00
1946,81	794,00
1951,79	879,00
1956,76	780,00
1961,72	839,00
1966,68	753,00
1971,64	804,00
1976,59	824,00
1981,54	720,00
1986,48	807,00
1991,42	715,00
1996,35	889,00
2001,27	795,00
2006,20	677,00
2011,11	727,00
2016,03	619,00
2020,93	656,00
2025,84	848,00
2030,73	864,00
2035,63	807,00
2040,52	736,00
2045,40	597,00
2050,28	715,00
2055,15	639,00
2060,02	667,00
2064,89	700,00
2069,75	713,00
2074,60	790,00
2079,46	722,00
2084,30	742,00
2089,14	730,00
2093,98	781,00
2098,81	765,00
2103,64	615,00
2108,46	782,00
2113,28	792,00
2118,09	713,00
2122,90	690,00
2127,70	678,00
2132,50	777,00
2137,30	776,00
2142,09	651,00
2146,87	638,00
2151,66	656,00
2156,43	644,00
2161,20	678,00
2165,97	685,00
2170,73	682,00
2175,49	705,00
2180,24	769,00
2184,99	809,00
2189,74	846,00
2194,48	663,00
2199,21	690,00
2203,94	693,00
2208,67	720,00
2213,39	649,00
2218,11	733,00
2222,82	681,00
2227,53	715,00
2232,23	776,00
2236,93	734,00
2241,63	740,00
2246,32	722,00
2251,00	630,00
2255,68	685,00
2260,36	663,00
2265,03	729,00
2269,70	589,00
2274,36	720,00
2279,02	613,00
2283,68	640,00
2288,33	683,00
2292,97	588,00
2297,61	558,00
2302,25	577,00
2306,88	580,00
2311,51	589,00
2316,14	651,00
2320,75	583,00
2325,37	501,00
2329,98	644,00
2334,59	466,00
2339,19	693,00
2343,79	535,00
2348,38	623,00
2352,97	624,00
2357,55	710,00
2362,13	687,00
2366,71	562,00
2371,28	599,00
2375,85	648,00
2380,41	636,00
2384,97	645,00
2389,52	567,00
2394,07	565,00
2398,62	567,00
2403,16	547,00
2407,70	593,00
2412,23	604,00
2416,76	689,00
2421,29	574,00
2425,81	684,00
2430,32	539,00
2434,84	509,00
2439,34	649,00
2443,85	668,00
2448,35	453,00
2452,84	577,00
2457,33	660,00
2461,82	535,00
2466,30	606,00
2470,78	562,00
2475,25	599,00
2479,72	544,00
2484,19	596,00
2488,65	485,00
2493,11	507,00
2497,56	735,00
2502,01	541,00
2506,46	592,00
2510,90	551,00
2515,34	515,00
2519,77	521,00
2524,20	593,00
2528,62	457,00
2533,04	574,00
2537,46	495,00
2541,87	613,00
2546,28	457,00
2550,68	589,00
2555,08	531,00
2559,48	493,00
2563,87	599,00
2568,26	467,00
2572,64	629,00
2577,02	569,00
2581,40	588,00
2585,77	579,00
2590,14	516,00
2594,50	511,00
2598,86	507,00
2603,22	506,00
2607,57	522,00
2611,92	658,00
2616,26	491,00
2620,60	554,00
2624,94	576,00
2629,27	548,00
2633,60	557,00
2637,92	753,00
2642,24	745,00
2646,56	656,00
2650,87	647,00
2655,18	573,00
2659,48	465,00
2663,78	630,00
2668,08	620,00
2672,37	664,00
2676,66	615,00
2680,95	599,00
2685,23	725,00
2689,50	491,00
2693,78	710,00
2698,05	619,00
2702,31	693,00
2706,57	601,00
2710,83	659,00
2715,08	533,00
2719,33	778,00
2723,58	710,00
2727,82	752,00
2732,06	705,00
2736,29	691,00
2740,53	644,00
2744,75	622,00
2748,97	658,00
2753,19	649,00
2757,41	643,00
2761,62	752,00
2765,83	648,00
2770,03	649,00
2774,23	569,00
2778,43	577,00
2782,62	632,00
2786,81	674,00
2791,00	661,00
2795,18	654,00
2799,35	655,00
2803,53	654,00
2807,70	788,00
2811,86	749,00
2816,03	939,00
2820,19	826,00
2824,34	791,00
2828,49	917,00
2832,64	903,00
2836,78	1096,00
2840,92	1371,00
2845,06	1479,00
2849,19	1706,00
2853,32	1766,00
2857,45	1880,00
2861,57	1704,00
2865,69	1635,00
2869,80	1790,00
2873,91	1726,00
2878,02	1878,00
2882,12	1893,00
2886,22	1873,00
2890,32	1860,00
2894,41	1785,00
2898,50	1639,00
2902,58	1442,00
2906,67	1538,00
2910,74	1393,00
2914,82	1433,00
2918,89	1350,00
2922,96	1275,00
2927,02	1216,00
2931,08	1141,00
2935,13	1057,00
2939,19	1097,00
2943,24	971,00
2947,28	963,00
2951,32	917,00
2955,36	785,00
2959,40	988,00
2963,43	793,00
2967,46	725,00
2971,48	730,00
2975,50	658,00
2979,52	740,00
2983,53	586,00
2987,54	674,00
2991,55	535,00
2995,55	510,00
2999,55	501,00
3003,54	511,00
3007,54	478,00
3011,53	458,00
3015,51	543,00
3019,49	527,00
3023,47	511,00
3027,45	464,00
3031,42	536,00
3035,39	498,00
3039,35	588,00
3043,31	524,00
3047,27	519,00
3051,22	540,00
3055,17	489,00
3059,12	464,00
3063,06	509,00
3067,00	444,00
3070,94	352,00
3074,87	576,00
3078,80	401,00
3082,73	554,00
3086,65	458,00
3090,57	364,00
3094,49	431,00
3098,40	413,00
3102,31	365,00
3106,22	398,00
3110,12	448,00
3114,02	474,00
3117,92	463,00
3121,81	394,00
3125,70	369,00
3129,58	412,00
3133,47	385,00
3137,34	468,00
3141,22	484,00
3145,09	426,00
3148,96	453,00
3152,83	322,00
3156,69	591,00
3160,55	425,00
3164,40	568,00
3168,26	378,00
3172,10	468,00
3175,95	526,00
3179,79	492,00
3183,63	487,00
3187,47	436,00
3191,30	467,00
3195,13	385,00
3198,95	277,00
3202,78	528,00
3206,60	351,00
3210,41	390,00
3214,23	540,00
3218,03	357,00
3221,84	460,00
3225,64	464,00
3229,44	385,00
3233,24	371,00
3237,03	616,00
3240,82	405,00
3244,61	268,00
3248,39	423,00
3252,17	473,00
3255,95	476,00
3259,72	290,00
3263,49	559,00
3267,26	440,00
3271,03	378,00
3274,79	349,00
3278,54	464,00
3282,30	450,00
3286,05	412,00
3289,80	519,00
3293,54	477,00
3297,29	476,00
3301,02	428,00
3304,76	359,00
3308,49	451,00
3312,22	362,00
3315,95	368,00
3319,67	439,00
3323,39	404,00
3327,10	367,00
3330,82	350,00
3334,53	412,00
3338,24	525,00
3341,94	458,00
3345,64	452,00
3349,34	358,00
3353,03	385,00
3356,72	547,00
3360,41	542,00
3364,10	471,00
3367,78	427,00
3371,46	476,00
3375,13	420,00
3378,81	412,00
3382,48	261,00
3386,14	423,00
3389,81	333,00
3393,47	446,00
3397,12	490,00
3400,78	517,00
3404,43	450,00
3408,08	456,00
3411,72	362,00
3415,36	443,00
3419,00	447,00
3422,64	399,00
3426,27	368,00
3429,90	379,00
3433,53	464,00
3437,15	364,00
3440,77	376,00
3444,39	429,00
3448,00	425,00
3451,62	412,00
3455,22	402,00
3458,83	406,00
3462,43	538,00
3466,03	335,00
3469,63	448,00
3473,22	465,00
3476,81	386,00
3480,40	472,00
3483,99	337,00
3487,57	463,00
3491,15	408,00
3494,72	391,00
3498,29	394,00
3501,86	362,00
3505,43	443,00
3508,99	400,00
3512,56	384,00
3516,11	365,00
3519,67	355,00
3523,22	500,00
3526,77	319,00
3530,32	441,00
3533,86	454,00
3537,40	392,00
3540,94	455,00
3544,47	341,00
3548,00	335,00
3551,53	461,00
3555,06	395,00
3558,58	369,00
3562,10	417,00
3565,62	388,00
3569,13	419,00
3572,64	433,00
3576,15	327,00
3579,66	364,00
3583,16	517,00
3586,66	447,00
3590,16	412,00
3593,65	387,00
3597,14	376,00
3600,63	334,00
3604,11	372,00
3607,60	266,00
3611,08	330,00
3614,55	385,00
3618,03	372,00
3621,50	362,00
3624,97	293,00
3628,43	439,00
3631,90	426,00
3635,36	418,00
3638,81	406,00
3642,27	381,00
3645,72	498,00
3649,17	391,00
3652,61	307,00
3656,06	470,00
3659,50	256,00
3662,93	358,00
3666,37	250,00
3669,80	419,00
3673,23	423,00
3676,65	496,00
3680,08	408,00
3683,50	394,00
3686,92	365,00
3690,33	390,00
3693,74	363,00
3697,15	325,00
3700,56	334,00
3703,96	390,00
3707,36	284,00
3710,76	378,00
3714,16	283,00
3717,55	312,00
3720,94	275,00
3724,33	396,00
3727,71	477,00
3731,10	337,00
3734,48	390,00
3737,85	315,00
3741,23	266,00
3744,60	353,00
3747,97	337,00
3751,33	296,00
3754,69	262,00
3758,05	304,00
3761,41	320,00
3764,77	365,00
3768,12	343,00
3771,47	283,00
3774,82	294,00
3778,16	-3,00
3781,50	4,00
3784,84	4,00
3788,18	2,00
>>>>>End Processed Spectral Data<<<<<
