SpectraSuite Data File
++++++++++++++++++++++++++++++++++++
Date: Tue Mar 03 10:53:53 ICT 2026
User: user
Dark Spectrum Present: Yes
Reference Spectrum Present: No
Number of Sampled Component Spectra: 1
Spectrometers: MAYP113682
Integration Time (usec): 3000000 (MAYP113682)
Spectra Averaged: 1 (MAYP113682)
Boxcar Smoothing: 0 (MAYP113682)
Correct for Electrical Dark: No (MAYP113682)
Strobe/Lamp Enabled: No (MAYP113682)
Correct for Detector Non-linearity: No (MAYP113682)
Correct for Stray Light: No (MAYP113682)
Number of Pixels in Processed Spectrum: 2068
>>>>>Begin Processed Spectral Data<<<<<
-37534,58	22,00
-37414,56	0,00
-37295,11	8,00
-37176,24	-1,00
-37057,95	401,00
-36940,22	359,00
-36823,05	506,00
-36706,45	523,00
-36590,40	563,00
-36474,90	546,00
-36359,95	580,00
-36245,55	469,00
-36131,68	579,00
-36018,35	534,00
-35905,55	549,00
-35793,29	578,00
-35681,54	688,00
-35570,32	540,00
-35459,62	633,00
-35349,43	555,00
-35239,75	633,00
-35130,58	528,00
-35021,91	521,00
-34913,74	615,00
-34806,07	656,00
-34698,89	617,00
-34592,20	537,00
-34486,00	574,00
-34380,28	579,00
-34275,04	502,00
-34170,27	567,00
-34065,98	626,00
-33962,16	609,00
-33858,81	571,00
-33755,92	650,00
-33653,49	638,00
-33551,52	707,00
-33450,01	677,00
-33348,94	616,00
-33248,33	604,00
-33148,16	517,00
-33048,43	599,00
-32949,14	758,00
-32850,29	608,00
-32751,87	528,00
-32653,89	621,00
-32556,33	612,00
-32459,20	729,00
-32362,49	560,00
-32266,19	665,00
-32170,32	642,00
-32074,86	610,00
-31979,82	721,00
-31885,18	813,00
-31790,95	695,00
-31697,12	701,00
-31603,69	661,00
-31510,67	647,00
-31418,04	609,00
-31325,80	637,00
-31233,95	590,00
-31142,49	647,00
-31051,42	683,00
-30960,73	693,00
-30870,43	725,00
-30780,50	696,00
-30690,95	589,00
-30601,77	650,00
-30512,97	609,00
-30424,53	652,00
-30336,46	661,00
-30248,76	685,00
-30161,42	689,00
-30074,44	630,00
-29987,81	730,00
-29901,55	712,00
-29815,63	692,00
-29730,07	675,00
-29644,86	625,00
-29560,00	707,00
-29475,48	736,00
-29391,30	573,00
-29307,47	554,00
-29223,97	617,00
-29140,81	601,00
-29057,99	619,00
-28975,50	617,00
-28893,34	663,00
-28811,51	605,00
-28730,00	651,00
-28648,82	529,00
-28567,97	672,00
-28487,43	634,00
-28407,21	630,00
-28327,32	620,00
-28247,73	719,00
-28168,46	592,00
-28089,50	694,00
-28010,85	560,00
-27932,51	565,00
-27854,48	687,00
-27776,75	575,00
-27699,32	581,00
-27622,19	708,00
-27545,37	700,00
-27468,84	641,00
-27392,60	639,00
-27316,66	702,00
-27241,01	775,00
-27165,66	544,00
-27090,59	609,00
-27015,81	610,00
-26941,31	686,00
-26867,10	680,00
-26793,17	668,00
-26719,52	678,00
-26646,15	594,00
-26573,06	620,00
-26500,24	589,00
-26427,70	634,00
-26355,43	639,00
-26283,43	661,00
-26211,71	732,00
-26140,25	616,00
-26069,06	749,00
-25998,13	584,00
-25927,46	573,00
-25857,06	567,00
-25786,92	667,00
-25717,04	669,00
-25647,42	742,00
-25578,05	543,00
-25508,94	665,00
-25440,09	712,00
-25371,48	763,00
-25303,13	528,00
-25235,02	642,00
-25167,17	755,00
-25099,56	691,00
-25032,19	562,00
-24965,07	626,00
-24898,20	685,00
-24831,56	645,00
-24765,17	671,00
-24699,01	611,00
-24633,10	537,00
-24567,41	572,00
-24501,97	707,00
-24436,75	606,00
-24371,77	717,00
-24307,03	590,00
-24242,51	671,00
-24178,22	634,00
-24114,16	582,00
-24050,32	662,00
-23986,71	741,00
-23923,32	656,00
-23860,16	604,00
-23797,22	515,00
-23734,50	605,00
-23672,00	692,00
-23609,71	696,00
-23547,65	717,00
-23485,80	717,00
-23424,16	573,00
-23362,74	699,00
-23301,53	613,00
-23240,54	568,00
-23179,75	637,00
-23119,17	641,00
-23058,80	610,00
-22998,64	662,00
-22938,68	699,00
-22878,93	550,00
-22819,39	630,00
-22760,04	540,00
-22700,90	679,00
-22641,96	596,00
-22583,22	610,00
-22524,68	514,00
-22466,33	632,00
-22408,19	573,00
-22350,23	588,00
-22292,48	623,00
-22234,92	658,00
-22177,55	630,00
-22120,37	635,00
-22063,38	714,00
-22006,58	589,00
-21949,98	653,00
-21893,56	564,00
-21837,33	608,00
-21781,28	653,00
-21725,42	664,00
-21669,74	658,00
-21614,25	718,00
-21558,94	675,00
-21503,81	695,00
-21448,86	636,00
-21394,10	636,00
-21339,51	557,00
-21285,10	554,00
-21230,86	608,00
-21176,81	548,00
-21122,93	613,00
-21069,22	609,00
-21015,69	612,00
-20962,33	723,00
-20909,14	567,00
-20856,13	547,00
-20803,28	770,00
-20750,61	647,00
-20698,10	543,00
-20645,76	685,00
-20593,59	767,00
-20541,59	653,00
-20489,75	606,00
-20438,07	613,00
-20386,56	707,00
-20335,22	571,00
-20284,03	579,00
-20233,01	523,00
-20182,15	636,00
-20131,45	639,00
-20080,91	612,00
-20030,52	601,00
-19980,30	521,00
-19930,23	669,00
-19880,32	632,00
-19830,56	658,00
-19780,96	618,00
-19731,52	658,00
-19682,23	549,00
-19633,09	610,00
-19584,10	597,00
-19535,26	542,00
-19486,58	603,00
-19438,04	619,00
-19389,66	556,00
-19341,42	592,00
-19293,33	612,00
-19245,39	712,00
-19197,60	561,00
-19149,95	592,00
-19102,45	599,00
-19055,09	662,00
-19007,87	755,00
-18960,80	621,00
-18913,87	692,00
-18867,09	643,00
-18820,44	579,00
-18773,94	704,00
-18727,57	652,00
-18681,35	531,00
-18635,26	578,00
-18589,31	536,00
-18543,50	654,00
-18497,83	645,00
-18452,29	589,00
-18406,89	606,00
-18361,63	840,00
-18316,50	706,00
-18271,50	581,00
-18226,63	672,00
-18181,90	676,00
-18137,30	670,00
-18092,84	494,00
-18048,50	618,00
-18004,29	629,00
-17960,22	655,00
-17916,27	656,00
-17872,45	778,00
-17828,76	754,00
-17785,20	597,00
-17741,77	508,00
-17698,46	604,00
-17655,28	537,00
-17612,22	556,00
-17569,29	564,00
-17526,48	622,00
-17483,79	554,00
-17441,23	545,00
-17398,79	500,00
-17356,48	648,00
-17314,28	628,00
-17272,21	594,00
-17230,26	596,00
-17188,42	630,00
-17146,71	673,00
-17105,12	594,00
-17063,64	530,00
-17022,28	608,00
-16981,04	561,00
-16939,92	555,00
-16898,91	669,00
-16858,02	689,00
-16817,25	666,00
-16776,59	648,00
-16736,04	559,00
-16695,61	641,00
-16655,29	624,00
-16615,09	645,00
-16574,99	613,00
-16535,01	607,00
-16495,15	655,00
-16455,39	532,00
-16415,74	556,00
-16376,21	622,00
-16336,78	587,00
-16297,46	630,00
-16258,26	618,00
-16219,16	591,00
-16180,17	578,00
-16141,28	681,00
-16102,51	686,00
-16063,84	687,00
-16025,27	554,00
-15986,82	547,00
-15948,46	502,00
-15910,22	657,00
-15872,07	634,00
-15834,04	455,00
-15796,10	626,00
-15758,27	608,00
-15720,54	531,00
-15682,91	519,00
-15645,39	628,00
-15607,97	479,00
-15570,64	649,00
-15533,42	562,00
-15496,30	588,00
-15459,28	618,00
-15422,36	610,00
-15385,54	683,00
-15348,82	651,00
-15312,19	795,00
-15275,66	663,00
-15239,23	525,00
-15202,90	615,00
-15166,67	586,00
-15130,53	529,00
-15094,48	580,00
-15058,54	622,00
-15022,68	677,00
-14986,93	639,00
-14951,26	639,00
-14915,69	611,00
-14880,22	556,00
-14844,84	634,00
-14809,55	611,00
-14774,35	632,00
-14739,25	608,00
-14704,24	630,00
-14669,32	640,00
-14634,49	517,00
-14599,75	633,00
-14565,10	558,00
-14530,55	628,00
-14496,08	547,00
-14461,70	570,00
-14427,41	565,00
-14393,21	587,00
-14359,10	662,00
-14325,07	642,00
-14291,14	617,00
-14257,29	669,00
-14223,52	628,00
-14189,85	605,00
-14156,26	681,00
-14122,76	587,00
-14089,34	576,00
-14056,01	665,00
-14022,76	610,00
-13989,60	602,00
-13956,52	716,00
-13923,53	608,00
-13890,62	721,00
-13857,79	613,00
-13825,05	601,00
-13792,39	674,00
-13759,81	668,00
-13727,31	573,00
-13694,90	641,00
-13662,57	636,00
-13630,31	669,00
-13598,14	671,00
-13566,05	576,00
-13534,05	535,00
-13502,12	634,00
-13470,27	567,00
-13438,50	639,00
-13406,80	564,00
-13375,19	561,00
-13343,66	488,00
-13312,20	580,00
-13280,83	649,00
-13249,53	560,00
-13218,30	490,00
-13187,16	646,00
-13156,09	744,00
-13125,10	649,00
-13094,18	510,00
-13063,34	675,00
-13032,58	501,00
-13001,89	624,00
-12971,28	721,00
-12940,74	599,00
-12910,27	640,00
-12879,88	500,00
-12849,57	580,00
-12819,33	643,00
-12789,16	617,00
-12759,06	549,00
-12729,04	703,00
-12699,09	1388,00
-12669,21	567,00
-12639,41	613,00
-12609,68	610,00
-12580,02	646,00
-12550,43	687,00
-12520,91	560,00
-12491,46	615,00
-12462,08	481,00
-12432,77	581,00
-12403,54	610,00
-12374,37	550,00
-12345,27	659,00
-12316,24	664,00
-12287,29	658,00
-12258,40	608,00
-12229,57	592,00
-12200,82	663,00
-12172,14	637,00
-12143,52	637,00
-12114,97	483,00
-12086,49	742,00
-12058,07	560,00
-12029,73	545,00
-12001,44	627,00
-11973,23	548,00
-11945,08	695,00
-11917,00	641,00
-11888,98	605,00
-11861,03	697,00
-11833,15	525,00
-11805,32	693,00
-11777,57	672,00
-11749,88	601,00
-11722,25	578,00
-11694,69	705,00
-11667,19	451,00
-11639,75	901,00
-11612,38	499,00
-11585,07	658,00
-11557,83	556,00
-11530,65	675,00
-11503,53	657,00
-11476,47	683,00
-11449,48	507,00
-11422,54	607,00
-11395,67	583,00
-11368,86	686,00
-11342,11	586,00
-11315,43	680,00
-11288,80	632,00
-11262,23	731,00
-11235,73	654,00
-11209,28	738,00
-11182,90	736,00
-11156,57	580,00
-11130,31	791,00
-11104,10	594,00
-11077,96	623,00
-11051,87	772,00
-11025,84	688,00
-10999,87	641,00
-10973,96	681,00
-10948,11	611,00
-10922,31	609,00
-10896,58	609,00
-10870,90	746,00
-10845,28	631,00
-10819,71	590,00
-10794,20	691,00
-10768,75	765,00
-10743,36	692,00
-10718,02	508,00
-10692,74	724,00
-10667,52	618,00
-10642,35	626,00
-10617,24	731,00
-10592,18	663,00
-10567,18	682,00
-10542,23	635,00
-10517,34	750,00
-10492,51	725,00
-10467,72	775,00
-10443,00	748,00
-10418,32	846,00
-10393,70	726,00
-10369,14	820,00
-10344,63	838,00
-10320,17	775,00
-10295,77	797,00
-10271,42	878,00
-10247,12	858,00
-10222,88	944,00
-10198,68	944,00
-10174,54	803,00
-10150,46	1018,00
-10126,42	1009,00
-10102,44	995,00
-10078,51	987,00
-10054,63	1159,00
-10030,80	1059,00
-10007,03	1212,00
-9983,30	1109,00
-9959,63	1121,00
-9936,01	1257,00
-9912,44	1135,00
-9888,92	1241,00
-9865,44	1319,00
-9842,02	1368,00
-9818,65	1454,00
-9795,33	1403,00
-9772,06	1387,00
-9748,84	1353,00
-9725,67	1594,00
-9702,55	1629,00
-9679,47	1979,00
-9656,45	1994,00
-9633,47	2036,00
-9610,55	2054,00
-9587,67	2183,00
-9564,84	2508,00
-9542,06	2367,00
-9519,32	2709,00
-9496,64	2849,00
-9474,00	2966,00
-9451,41	3054,00
-9428,87	3064,00
-9406,37	2800,00
-9383,92	2695,00
-9361,52	2660,00
-9339,17	2638,00
-9316,86	2965,00
-9294,60	3244,00
-9272,38	3421,00
-9250,21	3794,00
-9228,09	3833,00
-9206,01	3595,00
-9183,98	3280,00
-9162,00	3085,00
-9140,06	2815,00
-9118,16	2801,00
-9096,31	3038,00
-9074,51	3026,00
-9052,75	3099,00
-9031,04	3021,00
-9009,37	2668,00
-8987,74	2408,00
-8966,16	2284,00
-8944,63	2187,00
-8923,14	2177,00
-8901,69	1966,00
-8880,29	2245,00
-8858,93	2437,00
-8837,61	2765,00
-8816,34	2809,00
-8795,11	2917,00
-8773,92	2626,00
-8752,78	2449,00
-8731,68	2489,00
-8710,62	2297,00
-8689,61	2404,00
-8668,63	2571,00
-8647,70	2790,00
-8626,82	2767,00
-8605,97	2522,00
-8585,17	2512,00
-8564,41	2273,00
-8543,69	2147,00
-8523,01	2004,00
-8502,37	2218,00
-8481,78	2128,00
-8461,23	2212,00
-8440,71	2481,00
-8420,24	2494,00
-8399,81	2636,00
-8379,42	2589,00
-8359,08	2443,00
-8338,77	2192,00
-8318,50	2077,00
-8298,27	1890,00
-8278,09	2092,00
-8257,94	2216,00
-8237,83	2401,00
-8217,76	2449,00
-8197,74	2498,00
-8177,75	2347,00
-8157,80	2148,00
-8137,89	2096,00
-8118,02	2107,00
-8098,19	2163,00
-8078,40	1990,00
-8058,65	2207,00
-8038,93	2316,00
-8019,26	2248,00
-7999,62	2282,00
-7980,02	2043,00
-7960,46	2074,00
-7940,94	1898,00
-7921,46	1913,00
-7902,01	1856,00
-7882,60	2014,00
-7863,23	1985,00
-7843,90	2016,00
-7824,61	2210,00
-7805,35	2284,00
-7786,13	2158,00
-7766,95	2164,00
-7747,80	2155,00
-7728,69	2186,00
-7709,62	2037,00
-7690,59	2149,00
-7671,59	2219,00
-7652,63	2267,00
-7633,70	2299,00
-7614,81	2229,00
-7595,96	2015,00
-7577,15	2001,00
-7558,37	1923,00
-7539,62	2170,00
-7520,91	2190,00
-7502,24	2258,00
-7483,60	2418,00
-7465,00	2112,00
-7446,44	2028,00
-7427,91	1752,00
-7409,41	1904,00
-7390,95	1565,00
-7372,53	1420,00
-7354,14	1575,00
-7335,78	1566,00
-7317,46	1726,00
-7299,18	1721,00
-7280,92	1987,00
-7262,71	2233,00
-7244,52	2299,00
-7226,38	2224,00
-7208,26	2330,00
-7190,18	2247,00
-7172,14	2026,00
-7154,12	2021,00
-7136,15	1907,00
-7118,20	2129,00
-7100,29	2245,00
-7082,41	2178,00
-7064,57	2169,00
-7046,76	1938,00
-7028,98	1797,00
-7011,24	1840,00
-6993,53	1533,00
-6975,85	1480,00
-6958,20	1369,00
-6940,59	1247,00
-6923,01	1425,00
-6905,46	1440,00
-6887,94	1679,00
-6870,46	2083,00
-6853,01	2079,00
-6835,59	1988,00
-6818,21	1863,00
-6800,85	1895,00
-6783,53	1570,00
-6766,24	1272,00
-6748,98	1251,00
-6731,76	1108,00
-6714,56	1220,00
-6697,40	1173,00
-6680,26	1090,00
-6663,16	1491,00
-6646,09	1524,00
-6629,05	1676,00
-6612,05	1667,00
-6595,07	1861,00
-6578,13	1659,00
-6561,21	1447,00
-6544,33	1279,00
-6527,47	1208,00
-6510,65	1141,00
-6493,86	1013,00
-6477,10	1009,00
-6460,36	1123,00
-6443,66	1009,00
-6426,99	1125,00
-6410,35	1091,00
-6393,74	1112,00
-6377,16	1274,00
-6360,61	1447,00
-6344,09	1436,00
-6327,59	1464,00
-6311,13	1365,00
-6294,70	1374,00
-6278,29	1538,00
-6261,92	1543,00
-6245,58	1681,00
-6229,26	1690,00
-6212,97	1563,00
-6196,72	1376,00
-6180,49	1218,00
-6164,29	931,00
-6148,12	904,00
-6131,98	944,00
-6115,86	817,00
-6099,78	867,00
-6083,72	907,00
-6067,69	773,00
-6051,69	730,00
-6035,72	845,00
-6019,78	1004,00
-6003,87	1172,00
-5987,98	1320,00
-5972,12	1416,00
-5956,29	1483,00
-5940,49	1387,00
-5924,71	1223,00
-5908,96	1069,00
-5893,24	989,00
-5877,55	898,00
-5861,89	875,00
-5846,25	961,00
-5830,64	909,00
-5815,05	1013,00
-5799,50	882,00
-5783,97	1049,00
-5768,47	1103,00
-5752,99	1253,00
-5737,55	1383,00
-5722,12	1361,00
-5706,73	1513,00
-5691,36	1289,00
-5676,02	1154,00
-5660,71	998,00
-5645,42	892,00
-5630,16	1031,00
-5614,92	1052,00
-5599,71	1086,00
-5584,53	1214,00
-5569,37	1301,00
-5554,24	2238,00
-5539,14	1059,00
-5524,06	1106,00
-5509,01	1048,00
-5493,98	1018,00
-5478,98	1236,00
-5464,00	905,00
-5449,05	1099,00
-5434,13	978,00
-5419,23	901,00
-5404,36	928,00
-5389,51	1156,00
-5374,69	1271,00
-5359,89	1547,00
-5345,12	1446,00
-5330,37	1520,00
-5315,65	1362,00
-5300,95	1125,00
-5286,28	971,00
-5271,63	1021,00
-5257,01	1166,00
-5242,41	1160,00
-5227,84	966,00
-5213,29	892,00
-5198,76	796,00
-5184,26	945,00
-5169,79	829,00
-5155,33	1035,00
-5140,91	1025,00
-5126,51	1249,00
-5112,13	1240,00
-5097,77	1210,00
-5083,44	946,00
-5069,13	855,00
-5054,85	960,00
-5040,59	892,00
-5026,36	1110,00
-5012,15	1029,00
-4997,96	1104,00
-4983,80	1043,00
-4969,66	1017,00
-4955,54	934,00
-4941,44	878,00
-4927,37	1184,00
-4913,33	1466,00
-4899,30	1487,00
-4885,30	1476,00
-4871,33	1203,00
-4857,37	925,00
-4843,44	868,00
-4829,53	865,00
-4815,65	1005,00
-4801,79	931,00
-4787,95	1055,00
-4774,13	840,00
-4760,34	890,00
-4746,56	810,00
-4732,82	858,00
-4719,09	906,00
-4705,38	1194,00
-4691,70	1282,00
-4678,04	1386,00
-4664,41	1058,00
-4650,79	1181,00
-4637,20	876,00
-4623,63	831,00
-4610,08	999,00
-4596,56	1047,00
-4583,05	1106,00
-4569,57	927,00
-4556,11	942,00
-4542,67	672,00
-4529,25	844,00
-4515,86	1023,00
-4502,49	1147,00
-4489,13	1187,00
-4475,80	1115,00
-4462,49	961,00
-4449,21	952,00
-4435,94	808,00
-4422,70	861,00
-4409,47	986,00
-4396,27	941,00
-4383,09	989,00
-4369,93	846,00
-4356,79	782,00
-4343,67	914,00
-4330,58	916,00
-4317,50	900,00
-4304,45	835,00
-4291,41	883,00
-4278,40	688,00
-4265,41	645,00
-4252,44	876,00
-4239,49	841,00
-4226,55	1032,00
-4213,65	889,00
-4200,76	895,00
-4187,89	618,00
-4175,04	728,00
-4162,21	728,00
-4149,40	726,00
-4136,61	667,00
-4123,85	642,00
-4111,10	667,00
-4098,37	758,00
-4085,66	785,00
-4072,98	790,00
-4060,31	619,00
-4047,66	845,00
-4035,04	710,00
-4022,43	704,00
-4009,84	781,00
-3997,27	648,00
-3984,72	636,00
-3972,19	792,00
-3959,69	592,00
-3947,20	632,00
-3934,73	611,00
-3922,27	695,00
-3909,84	577,00
-3897,43	594,00
-3885,04	556,00
-3872,67	687,00
-3860,31	619,00
-3847,98	693,00
-3835,66	596,00
-3823,36	528,00
-3811,09	510,00
-3798,83	611,00
-3786,59	581,00
-3774,37	775,00
-3762,17	574,00
-3749,98	684,00
-3737,82	490,00
-3725,67	732,00
-3713,55	554,00
-3701,44	681,00
-3689,35	711,00
-3677,28	730,00
-3665,22	583,00
-3653,19	651,00
-3641,17	699,00
-3629,18	614,00
-3617,20	628,00
-3605,24	651,00
-3593,30	739,00
-3581,37	652,00
-3569,47	783,00
-3557,58	664,00
-3545,71	611,00
-3533,86	561,00
-3522,02	593,00
-3510,21	773,00
-3498,41	572,00
-3486,63	522,00
-3474,87	602,00
-3463,12	621,00
-3451,40	717,00
-3439,69	589,00
-3428,00	655,00
-3416,33	753,00
-3404,67	630,00
-3393,03	571,00
-3381,41	713,00
-3369,81	715,00
-3358,22	716,00
-3346,66	646,00
-3335,10	657,00
-3323,57	664,00
-3312,06	611,00
-3300,56	732,00
-3289,08	602,00
-3277,61	651,00
-3266,16	583,00
-3254,73	637,00
-3243,32	710,00
-3231,92	562,00
-3220,55	648,00
-3209,18	757,00
-3197,84	575,00
-3186,51	596,00
-3175,20	608,00
-3163,90	631,00
-3152,63	570,00
-3141,36	740,00
-3130,12	677,00
-3118,89	646,00
-3107,68	635,00
-3096,49	603,00
-3085,31	636,00
-3074,15	489,00
-3063,00	583,00
-3051,87	664,00
-3040,76	667,00
-3029,67	697,00
-3018,59	741,00
-3007,52	650,00
-2996,48	776,00
-2985,44	710,00
-2974,43	636,00
-2963,43	606,00
-2952,45	613,00
-2941,48	716,00
-2930,53	620,00
-2919,60	593,00
-2908,68	574,00
-2897,78	668,00
-2886,89	670,00
-2876,02	660,00
-2865,17	563,00
-2854,33	557,00
-2843,50	618,00
-2832,70	720,00
-2821,90	614,00
-2811,13	470,00
-2800,37	624,00
-2789,62	751,00
-2778,89	599,00
-2768,18	700,00
-2757,48	669,00
-2746,80	575,00
-2736,13	533,00
-2725,48	725,00
-2714,84	663,00
-2704,22	616,00
-2693,61	504,00
-2683,02	637,00
-2672,45	580,00
-2661,89	652,00
-2651,34	599,00
-2640,81	689,00
-2630,30	782,00
-2619,80	564,00
-2609,31	715,00
-2598,84	602,00
-2588,39	633,00
-2577,95	619,00
-2567,52	573,00
-2557,11	511,00
-2546,71	614,00
-2536,33	729,00
-2525,97	669,00
-2515,62	624,00
-2505,28	685,00
-2494,96	482,00
-2484,65	685,00
-2474,36	947,00
-2464,08	628,00
-2453,82	592,00
-2443,57	546,00
-2433,33	600,00
-2423,11	741,00
-2412,91	581,00
-2402,72	588,00
-2392,54	611,00
-2382,38	667,00
-2372,23	638,00
-2362,09	1173,00
-2351,97	689,00
-2341,87	615,00
-2331,78	662,00
-2321,70	652,00
-2311,64	610,00
-2301,59	543,00
-2291,55	548,00
-2281,53	754,00
-2271,53	636,00
-2261,53	678,00
-2251,55	691,00
-2241,59	703,00
-2231,64	683,00
-2221,70	615,00
-2211,78	698,00
-2201,87	742,00
-2191,97	651,00
-2182,09	597,00
-2172,22	686,00
-2162,37	569,00
-2152,53	609,00
-2142,70	515,00
-2132,89	516,00
-2123,09	678,00
-2113,30	700,00
-2103,53	669,00
-2093,77	562,00
-2084,02	653,00
-2074,29	594,00
-2064,57	659,00
-2054,86	615,00
-2045,17	605,00
-2035,49	679,00
-2025,82	596,00
-2016,17	573,00
-2006,53	665,00
-1996,91	741,00
-1987,29	495,00
-1977,69	572,00
-1968,11	622,00
-1958,53	607,00
-1948,97	731,00
-1939,42	530,00
-1929,89	532,00
-1920,37	646,00
-1910,86	628,00
-1901,36	672,00
-1891,88	580,00
-1882,41	663,00
-1872,95	677,00
-1863,51	660,00
-1854,08	707,00
-1844,66	664,00
-1835,26	632,00
-1825,86	662,00
-1816,48	684,00
-1807,11	612,00
-1797,76	664,00
-1788,42	624,00
-1779,09	655,00
-1769,77	673,00
-1760,47	736,00
-1751,17	618,00
-1741,89	545,00
-1732,63	713,00
-1723,37	717,00
-1714,13	675,00
-1704,90	589,00
-1695,68	733,00
-1686,48	676,00
-1677,29	663,00
-1668,11	849,00
-1658,94	662,00
-1649,78	623,00
-1640,64	636,00
-1631,51	642,00
-1622,39	693,00
-1613,28	717,00
-1604,19	680,00
-1595,10	574,00
-1586,03	575,00
-1576,97	559,00
-1567,93	575,00
-1558,89	688,00
-1549,87	573,00
-1540,86	615,00
-1531,86	558,00
-1522,87	622,00
-1513,90	833,00
-1504,93	669,00
-1495,98	703,00
-1487,04	657,00
-1478,12	646,00
-1469,20	668,00
-1460,30	640,00
-1451,40	829,00
-1442,52	623,00
-1433,65	747,00
-1424,80	528,00
-1415,95	607,00
-1407,12	673,00
-1398,30	610,00
-1389,48	682,00
-1380,69	640,00
-1371,90	588,00
-1363,12	668,00
-1354,36	687,00
-1345,60	628,00
-1336,86	713,00
-1328,13	689,00
-1319,41	696,00
-1310,70	540,00
-1302,01	615,00
-1293,32	574,00
-1284,65	610,00
-1275,99	658,00
-1267,33	736,00
-1258,69	584,00
-1250,06	656,00
-1241,45	630,00
-1232,84	686,00
-1224,25	657,00
-1215,66	719,00
-1207,09	712,00
-1198,53	660,00
-1189,97	626,00
-1181,43	669,00
-1172,91	696,00
-1164,39	886,00
-1155,88	540,00
-1147,38	703,00
-1138,90	578,00
-1130,43	669,00
-1121,96	690,00
-1113,51	608,00
-1105,07	645,00
-1096,64	762,00
-1088,22	678,00
-1079,81	707,00
-1071,41	583,00
-1063,02	555,00
-1054,65	600,00
-1046,28	556,00
-1037,92	618,00
-1029,58	644,00
-1021,24	764,00
-1012,92	862,00
-1004,61	694,00
-996,30	907,00
-988,01	473,00
-979,73	721,00
-971,46	714,00
-963,20	603,00
-954,95	483,00
-946,71	585,00
-938,48	591,00
-930,26	627,00
-922,06	607,00
-913,86	707,00
-905,67	626,00
-897,49	685,00
-889,33	570,00
-881,17	787,00
-873,02	627,00
-864,89	598,00
-856,76	575,00
-848,65	639,00
-840,54	716,00
-832,45	850,00
-824,36	552,00
-816,29	697,00
-808,22	666,00
-800,17	555,00
-792,12	767,00
-784,09	701,00
-776,06	587,00
-768,05	680,00
-760,04	540,00
-752,05	614,00
-744,07	686,00
-736,09	616,00
-728,13	573,00
-720,17	642,00
-712,23	664,00
-704,29	648,00
-696,37	641,00
-688,45	748,00
-680,55	628,00
-672,65	502,00
-664,77	676,00
-656,89	656,00
-649,03	513,00
-641,17	749,00
-633,32	701,00
-625,49	663,00
-617,66	603,00
-609,84	675,00
-602,03	620,00
-594,23	655,00
-586,45	697,00
-578,67	678,00
-570,90	651,00
-563,14	532,00
-555,39	498,00
-547,65	669,00
-539,91	613,00
-532,19	615,00
-524,48	701,00
-516,78	562,00
-509,08	575,00
-501,40	615,00
-493,72	670,00
-486,06	643,00
-478,40	814,00
-470,76	670,00
-463,12	688,00
-455,49	597,00
-447,87	670,00
-440,26	593,00
-432,66	537,00
-425,07	688,00
-417,49	634,00
-409,92	649,00
-402,35	581,00
-394,80	573,00
-387,25	705,00
-379,72	705,00
-372,19	655,00
-364,67	580,00
-357,17	734,00
-349,67	667,00
-342,18	668,00
-334,69	631,00
-327,22	591,00
-319,76	713,00
-312,30	631,00
-304,86	669,00
-297,42	558,00
-290,00	665,00
-282,58	631,00
-275,17	727,00
-267,77	620,00
-260,37	796,00
-252,99	688,00
-245,62	677,00
-238,25	707,00
-230,90	761,00
-223,55	806,00
-216,21	665,00
-208,88	767,00
-201,56	699,00
-194,25	730,00
-186,94	798,00
-179,65	805,00
-172,36	770,00
-165,08	783,00
-157,81	781,00
-150,55	880,00
-143,30	882,00
-136,06	829,00
-128,82	1025,00
-121,60	1076,00
-114,38	1058,00
-107,17	1020,00
-99,97	1255,00
-92,78	1251,00
-85,60	1243,00
-78,42	1536,00
-71,25	1664,00
-64,10	1791,00
-56,95	1874,00
-49,81	2208,00
-42,67	2629,00
-35,55	2986,00
-28,43	3914,00
-21,33	6213,00
-14,23	19386,00
-7,14	56239,00
-0,05	55969,00
7,02	55668,00
14,09	53523,00
21,14	15013,00
28,19	6747,00
35,23	4617,00
42,27	3582,00
49,29	3032,00
56,31	2720,00
63,32	2400,00
70,32	2046,00
77,31	1786,00
84,29	1601,00
91,27	1610,00
98,23	1399,00
105,19	1381,00
112,14	1422,00
119,09	1696,00
126,02	2153,00
132,95	2495,00
139,87	2480,00
146,78	2441,00
153,68	2360,00
160,58	2315,00
167,46	2296,00
174,34	2250,00
181,21	2403,00
188,08	2287,00
194,93	2238,00
201,78	2397,00
208,62	2343,00
215,45	2194,00
222,27	2215,00
229,09	2276,00
235,90	2134,00
242,70	2094,00
249,49	2224,00
256,27	2093,00
263,05	2241,00
269,82	2127,00
276,58	1996,00
283,33	2113,00
290,08	2026,00
296,82	2021,00
303,55	1949,00
310,27	2094,00
316,98	2026,00
323,69	1991,00
330,39	2015,00
337,08	1949,00
343,76	1975,00
350,44	1979,00
357,11	1890,00
363,77	1988,00
370,42	1857,00
377,07	2009,00
383,71	1956,00
390,34	1902,00
396,96	1751,00
403,58	1814,00
410,19	2016,00
416,79	2024,00
423,38	1867,00
429,97	1949,00
436,55	1790,00
443,12	1819,00
449,68	1792,00
456,24	1756,00
462,79	1692,00
469,33	1752,00
475,86	1759,00
482,39	1570,00
488,91	1580,00
495,42	1790,00
501,93	1554,00
508,42	1623,00
514,91	1691,00
521,40	1569,00
527,87	1672,00
534,34	1593,00
540,80	1547,00
547,25	1685,00
553,70	1642,00
560,14	1630,00
566,57	1633,00
573,00	1501,00
579,41	1528,00
585,83	1567,00
592,23	1531,00
598,62	1509,00
605,01	1467,00
611,40	1427,00
617,77	1644,00
624,14	1548,00
630,50	1553,00
636,85	1431,00
643,20	1554,00
649,54	1372,00
655,87	1504,00
662,20	1528,00
668,52	1600,00
674,83	1451,00
681,13	1404,00
687,43	1466,00
693,72	1457,00
700,00	1393,00
706,28	1489,00
712,55	1413,00
718,81	1499,00
725,07	1378,00
731,32	1336,00
737,56	1430,00
743,79	1404,00
750,02	1486,00
756,24	1314,00
762,46	1442,00
768,67	1564,00
774,87	1388,00
781,06	1395,00
787,25	1503,00
793,43	1478,00
799,60	1415,00
805,77	1487,00
811,93	1342,00
818,08	1254,00
824,23	1385,00
830,37	1614,00
836,50	1417,00
842,63	1357,00
848,75	1529,00
854,87	1382,00
860,97	1457,00
867,07	1508,00
873,17	1542,00
879,25	1445,00
885,33	1507,00
891,41	1453,00
897,47	1522,00
903,53	1401,00
909,59	1398,00
915,63	1439,00
921,67	1409,00
927,71	1414,00
933,74	1370,00
939,76	1312,00
945,77	1300,00
951,78	1339,00
957,78	1324,00
963,78	1311,00
969,77	1359,00
975,75	1232,00
981,72	1323,00
987,69	2355,00
993,66	1260,00
999,61	1445,00
1005,56	1455,00
1011,51	1382,00
1017,44	1341,00
1023,37	1386,00
1029,30	1303,00
1035,22	1329,00
1041,13	1246,00
1047,03	1424,00
1052,93	1445,00
1058,83	1605,00
1064,71	1822,00
1070,59	1613,00
1076,47	1427,00
1082,33	1463,00
1088,20	1472,00
1094,05	1319,00
1099,90	1317,00
1105,74	1294,00
1111,58	1292,00
1117,41	1445,00
1123,23	1635,00
1129,05	1796,00
1134,86	1603,00
1140,67	1557,00
1146,47	1358,00
1152,26	1305,00
1158,05	1223,00
1163,83	1407,00
1169,60	1156,00
1175,37	1278,00
1181,13	1244,00
1186,89	1257,00
1192,64	1344,00
1198,38	1338,00
1204,12	1263,00
1209,85	1175,00
1215,58	1341,00
1221,30	1284,00
1227,02	1254,00
1232,72	1360,00
1238,43	1232,00
1244,12	1154,00
1249,81	1277,00
1255,50	1322,00
1261,17	1334,00
1266,85	1218,00
1272,51	1261,00
1278,17	1438,00
1283,83	1404,00
1289,47	1684,00
1295,12	2045,00
1300,75	2007,00
1306,38	1680,00
1312,01	1573,00
1317,63	1483,00
1323,24	1288,00
1328,85	1487,00
1334,45	1354,00
1340,04	1347,00
1345,63	1445,00
1351,22	1402,00
1356,80	1356,00
1362,37	1486,00
1367,93	1341,00
1373,49	1309,00
1379,05	1364,00
1384,60	1448,00
1390,14	1374,00
1395,68	1388,00
1401,21	1285,00
1406,74	1421,00
1412,26	1494,00
1417,77	1606,00
1423,28	1622,00
1428,78	1738,00
1434,28	1944,00
1439,77	2036,00
1445,26	2011,00
1450,74	2146,00
1456,22	1875,00
1461,68	1880,00
1467,15	1794,00
1472,61	1536,00
1478,06	1674,00
1483,51	1365,00
1488,95	1366,00
1494,38	1378,00
1499,81	1246,00
1505,24	1225,00
1510,65	1229,00
1516,07	1192,00
1521,48	1123,00
1526,88	1233,00
1532,27	1214,00
1537,67	1137,00
1543,05	1312,00
1548,43	1182,00
1553,81	1342,00
1559,18	983,00
1564,54	1168,00
1569,90	1244,00
1575,25	1279,00
1580,60	1111,00
1585,94	1179,00
1591,28	1120,00
1596,61	1004,00
1601,93	1095,00
1607,25	1192,00
1612,57	1080,00
1617,88	1137,00
1623,18	1218,00
1628,48	1170,00
1633,77	1146,00
1639,06	1217,00
1644,34	1071,00
1649,62	1090,00
1654,89	1110,00
1660,16	1106,00
1665,42	1167,00
1670,67	1045,00
1675,92	960,00
1681,17	1085,00
1686,41	1063,00
1691,64	1033,00
1696,87	1112,00
1702,10	1113,00
1707,32	1077,00
1712,53	1061,00
1717,74	943,00
1722,94	1163,00
1728,14	1059,00
1733,33	933,00
1738,52	950,00
1743,70	1101,00
1748,88	1062,00
1754,05	1178,00
1759,22	989,00
1764,38	1135,00
1769,53	1035,00
1774,69	1096,00
1779,83	1068,00
1784,97	993,00
1790,11	917,00
1795,24	1110,00
1800,36	1032,00
1805,48	1039,00
1810,60	960,00
1815,71	1024,00
1820,82	1125,00
1825,92	948,00
1831,01	883,00
1836,10	931,00
1841,19	960,00
1846,26	880,00
1851,34	922,00
1856,41	921,00
1861,47	949,00
1866,53	923,00
1871,59	899,00
1876,64	1056,00
1881,68	1017,00
1886,72	994,00
1891,76	950,00
1896,79	916,00
1901,81	942,00
1906,83	984,00
1911,85	868,00
1916,86	1084,00
1921,86	860,00
1926,86	934,00
1931,86	899,00
1936,85	839,00
1941,83	962,00
1946,81	904,00
1951,79	923,00
1956,76	945,00
1961,72	902,00
1966,68	846,00
1971,64	796,00
1976,59	924,00
1981,54	815,00
1986,48	856,00
1991,42	860,00
1996,35	1039,00
2001,27	827,00
2006,20	885,00
2011,11	1014,00
2016,03	803,00
2020,93	711,00
2025,84	833,00
2030,73	1013,00
2035,63	915,00
2040,52	882,00
2045,40	726,00
2050,28	876,00
2055,15	956,00
2060,02	837,00
2064,89	805,00
2069,75	959,00
2074,60	960,00
2079,46	881,00
2084,30	740,00
2089,14	813,00
2093,98	851,00
2098,81	955,00
2103,64	724,00
2108,46	851,00
2113,28	892,00
2118,09	833,00
2122,90	844,00
2127,70	767,00
2132,50	887,00
2137,30	844,00
2142,09	824,00
2146,87	797,00
2151,66	913,00
2156,43	912,00
2161,20	852,00
2165,97	824,00
2170,73	778,00
2175,49	857,00
2180,24	790,00
2184,99	909,00
2189,74	932,00
2194,48	767,00
2199,21	842,00
2203,94	681,00
2208,67	862,00
2213,39	722,00
2218,11	779,00
2222,82	837,00
2227,53	709,00
2232,23	872,00
2236,93	789,00
2241,63	884,00
2246,32	733,00
2251,00	774,00
2255,68	795,00
2260,36	729,00
2265,03	879,00
2269,70	816,00
2274,36	766,00
2279,02	723,00
2283,68	855,00
2288,33	793,00
2292,97	747,00
2297,61	756,00
2302,25	764,00
2306,88	705,00
2311,51	787,00
2316,14	904,00
2320,75	738,00
2325,37	708,00
2329,98	864,00
2334,59	668,00
2339,19	851,00
2343,79	682,00
2348,38	720,00
2352,97	740,00
2357,55	829,00
2362,13	883,00
2366,71	763,00
2371,28	719,00
2375,85	808,00
2380,41	758,00
2384,97	767,00
2389,52	673,00
2394,07	785,00
2398,62	721,00
2403,16	738,00
2407,70	693,00
2412,23	797,00
2416,76	818,00
2421,29	773,00
2425,81	861,00
2430,32	695,00
2434,84	745,00
2439,34	823,00
2443,85	810,00
2448,35	680,00
2452,84	702,00
2457,33	790,00
2461,82	675,00
2466,30	701,00
2470,78	854,00
2475,25	832,00
2479,72	785,00
2484,19	745,00
2488,65	675,00
2493,11	742,00
2497,56	858,00
2502,01	610,00
2506,46	881,00
2510,90	722,00
2515,34	752,00
2519,77	720,00
2524,20	720,00
2528,62	750,00
2533,04	893,00
2537,46	628,00
2541,87	778,00
2546,28	705,00
2550,68	681,00
2555,08	744,00
2559,48	767,00
2563,87	748,00
2568,26	772,00
2572,64	806,00
2577,02	789,00
2581,40	620,00
2585,77	758,00
2590,14	789,00
2594,50	593,00
2598,86	707,00
2603,22	702,00
2607,57	715,00
2611,92	805,00
2616,26	762,00
2620,60	738,00
2624,94	675,00
2629,27	737,00
2633,60	801,00
2637,92	859,00
2642,24	837,00
2646,56	847,00
2650,87	803,00
2655,18	807,00
2659,48	657,00
2663,78	856,00
2668,08	835,00
2672,37	753,00
2676,66	863,00
2680,95	786,00
2685,23	873,00
2689,50	724,00
2693,78	775,00
2698,05	690,00
2702,31	872,00
2706,57	853,00
2710,83	866,00
2715,08	781,00
2719,33	938,00
2723,58	890,00
2727,82	957,00
2732,06	790,00
2736,29	939,00
2740,53	791,00
2744,75	835,00
2748,97	883,00
2753,19	692,00
2757,41	811,00
2761,62	868,00
2765,83	810,00
2770,03	806,00
2774,23	724,00
2778,43	725,00
2782,62	751,00
2786,81	774,00
2791,00	859,00
2795,18	790,00
2799,35	892,00
2803,53	718,00
2807,70	870,00
2811,86	807,00
2816,03	1003,00
2820,19	827,00
2824,34	836,00
2828,49	956,00
2832,64	1025,00
2836,78	1211,00
2840,92	1328,00
2845,06	1438,00
2849,19	1600,00
2853,32	1671,00
2857,45	1774,00
2861,57	1633,00
2865,69	1624,00
2869,80	1596,00
2873,91	1624,00
2878,02	1643,00
2882,12	1784,00
2886,22	1738,00
2890,32	1781,00
2894,41	1687,00
2898,50	1563,00
2902,58	1518,00
2906,67	1495,00
2910,74	1477,00
2914,82	1390,00
2918,89	1511,00
2922,96	1265,00
2927,02	1199,00
2931,08	1191,00
2935,13	1129,00
2939,19	1154,00
2943,24	1074,00
2947,28	1061,00
2951,32	1047,00
2955,36	972,00
2959,40	1054,00
2963,43	990,00
2967,46	936,00
2971,48	913,00
2975,50	866,00
2979,52	980,00
2983,53	886,00
2987,54	854,00
2991,55	822,00
2995,55	777,00
2999,55	760,00
3003,54	718,00
3007,54	836,00
3011,53	739,00
3015,51	818,00
3019,49	810,00
3023,47	648,00
3027,45	651,00
3031,42	748,00
3035,39	695,00
3039,35	722,00
3043,31	641,00
3047,27	704,00
3051,22	775,00
3055,17	704,00
3059,12	655,00
3063,06	668,00
3067,00	608,00
3070,94	617,00
3074,87	747,00
3078,80	662,00
3082,73	683,00
3086,65	698,00
3090,57	616,00
3094,49	642,00
3098,40	570,00
3102,31	590,00
3106,22	621,00
3110,12	667,00
3114,02	658,00
3117,92	723,00
3121,81	693,00
3125,70	534,00
3129,58	641,00
3133,47	609,00
3137,34	783,00
3141,22	717,00
3145,09	654,00
3148,96	684,00
3152,83	609,00
3156,69	778,00
3160,55	691,00
3164,40	753,00
3168,26	609,00
3172,10	704,00
3175,95	767,00
3179,79	696,00
3183,63	666,00
3187,47	668,00
3191,30	682,00
3195,13	582,00
3198,95	454,00
3202,78	682,00
3206,60	567,00
3210,41	572,00
3214,23	655,00
3218,03	598,00
3221,84	761,00
3225,64	598,00
3229,44	672,00
3233,24	531,00
3237,03	723,00
3240,82	628,00
3244,61	513,00
3248,39	587,00
3252,17	650,00
3255,95	793,00
3259,72	678,00
3263,49	768,00
3267,26	660,00
3271,03	606,00
3274,79	601,00
3278,54	757,00
3282,30	629,00
3286,05	589,00
3289,80	718,00
3293,54	710,00
3297,29	699,00
3301,02	661,00
3304,76	555,00
3308,49	682,00
3312,22	576,00
3315,95	611,00
3319,67	742,00
3323,39	661,00
3327,10	705,00
3330,82	543,00
3334,53	564,00
3338,24	613,00
3341,94	646,00
3345,64	652,00
3349,34	580,00
3353,03	656,00
3356,72	711,00
3360,41	717,00
3364,10	665,00
3367,78	623,00
3371,46	629,00
3375,13	689,00
3378,81	600,00
3382,48	565,00
3386,14	767,00
3389,81	579,00
3393,47	697,00
3397,12	748,00
3400,78	786,00
3404,43	551,00
3408,08	566,00
3411,72	629,00
3415,36	700,00
3419,00	730,00
3422,64	562,00
3426,27	649,00
3429,90	617,00
3433,53	642,00
3437,15	676,00
3440,77	613,00
3444,39	701,00
3448,00	614,00
3451,62	728,00
3455,22	647,00
3458,83	608,00
3462,43	718,00
3466,03	639,00
3469,63	735,00
3473,22	599,00
3476,81	618,00
3480,40	646,00
3483,99	607,00
3487,57	656,00
3491,15	628,00
3494,72	600,00
3498,29	668,00
3501,86	606,00
3505,43	688,00
3508,99	569,00
3512,56	589,00
3516,11	630,00
3519,67	595,00
3523,22	577,00
3526,77	638,00
3530,32	639,00
3533,86	616,00
3537,40	678,00
3540,94	741,00
3544,47	542,00
3548,00	586,00
3551,53	751,00
3555,06	495,00
3558,58	705,00
3562,10	660,00
3565,62	577,00
3569,13	589,00
3572,64	654,00
3576,15	559,00
3579,66	597,00
3583,16	669,00
3586,66	645,00
3590,16	635,00
3593,65	676,00
3597,14	523,00
3600,63	549,00
3604,11	599,00
3607,60	575,00
3611,08	639,00
3614,55	575,00
3618,03	675,00
3621,50	723,00
3624,97	601,00
3628,43	718,00
3631,90	571,00
3635,36	531,00
3638,81	595,00
3642,27	670,00
3645,72	641,00
3649,17	595,00
3652,61	578,00
3656,06	642,00
3659,50	457,00
3662,93	559,00
3666,37	517,00
3669,80	690,00
3673,23	645,00
3676,65	717,00
3680,08	615,00
3683,50	546,00
3686,92	673,00
3690,33	572,00
3693,74	624,00
3697,15	468,00
3700,56	620,00
3703,96	598,00
3707,36	401,00
3710,76	585,00
3714,16	489,00
3717,55	571,00
3720,94	556,00
3724,33	535,00
3727,71	589,00
3731,10	496,00
3734,48	641,00
3737,85	515,00
3741,23	450,00
3744,60	463,00
3747,97	495,00
3751,33	481,00
3754,69	518,00
3758,05	483,00
3761,41	539,00
3764,77	543,00
3768,12	480,00
3771,47	444,00
3774,82	484,00
3778,16	-7,00
3781,50	8,00
3784,84	9,00
3788,18	9,00
>>>>>End Processed Spectral Data<<<<<
