SpectraSuite Data File
++++++++++++++++++++++++++++++++++++
Date: Tue Mar 03 11:40:40 ICT 2026
User: user
Dark Spectrum Present: Yes
Reference Spectrum Present: No
Number of Sampled Component Spectra: 1
Spectrometers: MAYP113682
Integration Time (usec): 3000000 (MAYP113682)
Spectra Averaged: 1 (MAYP113682)
Boxcar Smoothing: 0 (MAYP113682)
Correct for Electrical Dark: No (MAYP113682)
Strobe/Lamp Enabled: No (MAYP113682)
Correct for Detector Non-linearity: No (MAYP113682)
Correct for Stray Light: No (MAYP113682)
Number of Pixels in Processed Spectrum: 2068
>>>>>Begin Processed Spectral Data<<<<<
-37534,58	8,00
-37414,56	-3,00
-37295,11	2,00
-37176,24	6,00
-37057,95	107,00
-36940,22	91,00
-36823,05	16,00
-36706,45	11,00
-36590,40	175,00
-36474,90	170,00
-36359,95	62,00
-36245,55	133,00
-36131,68	80,00
-36018,35	-23,00
-35905,55	160,00
-35793,29	173,00
-35681,54	76,00
-35570,32	69,00
-35459,62	204,00
-35349,43	79,00
-35239,75	190,00
-35130,58	43,00
-35021,91	58,00
-34913,74	85,00
-34806,07	47,00
-34698,89	-1,00
-34592,20	81,00
-34486,00	153,00
-34380,28	60,00
-34275,04	15,00
-34170,27	148,00
-34065,98	90,00
-33962,16	269,00
-33858,81	141,00
-33755,92	285,00
-33653,49	73,00
-33551,52	67,00
-33450,01	123,00
-33348,94	143,00
-33248,33	88,00
-33148,16	-7,00
-33048,43	142,00
-32949,14	-58,00
-32850,29	63,00
-32751,87	4,00
-32653,89	180,00
-32556,33	152,00
-32459,20	126,00
-32362,49	141,00
-32266,19	112,00
-32170,32	174,00
-32074,86	228,00
-31979,82	128,00
-31885,18	75,00
-31790,95	43,00
-31697,12	13,00
-31603,69	189,00
-31510,67	151,00
-31418,04	171,00
-31325,80	-95,00
-31233,95	45,00
-31142,49	172,00
-31051,42	168,00
-30960,73	258,00
-30870,43	86,00
-30780,50	72,00
-30690,95	85,00
-30601,77	172,00
-30512,97	195,00
-30424,53	46,00
-30336,46	184,00
-30248,76	211,00
-30161,42	-53,00
-30074,44	16,00
-29987,81	57,00
-29901,55	59,00
-29815,63	56,00
-29730,07	124,00
-29644,86	180,00
-29560,00	131,00
-29475,48	59,00
-29391,30	130,00
-29307,47	137,00
-29223,97	179,00
-29140,81	33,00
-29057,99	127,00
-28975,50	61,00
-28893,34	143,00
-28811,51	-19,00
-28730,00	116,00
-28648,82	120,00
-28567,97	130,00
-28487,43	67,00
-28407,21	3,00
-28327,32	23,00
-28247,73	164,00
-28168,46	92,00
-28089,50	12,00
-28010,85	7,00
-27932,51	114,00
-27854,48	161,00
-27776,75	136,00
-27699,32	-44,00
-27622,19	172,00
-27545,37	76,00
-27468,84	248,00
-27392,60	53,00
-27316,66	126,00
-27241,01	31,00
-27165,66	158,00
-27090,59	124,00
-27015,81	188,00
-26941,31	190,00
-26867,10	55,00
-26793,17	134,00
-26719,52	30,00
-26646,15	194,00
-26573,06	44,00
-26500,24	-4,00
-26427,70	186,00
-26355,43	42,00
-26283,43	-32,00
-26211,71	96,00
-26140,25	126,00
-26069,06	204,00
-25998,13	96,00
-25927,46	138,00
-25857,06	71,00
-25786,92	97,00
-25717,04	170,00
-25647,42	83,00
-25578,05	139,00
-25508,94	151,00
-25440,09	255,00
-25371,48	129,00
-25303,13	116,00
-25235,02	67,00
-25167,17	124,00
-25099,56	64,00
-25032,19	-2,00
-24965,07	76,00
-24898,20	127,00
-24831,56	267,00
-24765,17	81,00
-24699,01	-64,00
-24633,10	65,00
-24567,41	156,00
-24501,97	58,00
-24436,75	49,00
-24371,77	18,00
-24307,03	90,00
-24242,51	151,00
-24178,22	-6,00
-24114,16	57,00
-24050,32	140,00
-23986,71	123,00
-23923,32	160,00
-23860,16	57,00
-23797,22	73,00
-23734,50	149,00
-23672,00	72,00
-23609,71	64,00
-23547,65	34,00
-23485,80	16,00
-23424,16	120,00
-23362,74	25,00
-23301,53	19,00
-23240,54	109,00
-23179,75	-18,00
-23119,17	121,00
-23058,80	159,00
-22998,64	-64,00
-22938,68	170,00
-22878,93	153,00
-22819,39	156,00
-22760,04	103,00
-22700,90	129,00
-22641,96	140,00
-22583,22	125,00
-22524,68	91,00
-22466,33	73,00
-22408,19	137,00
-22350,23	207,00
-22292,48	121,00
-22234,92	130,00
-22177,55	70,00
-22120,37	88,00
-22063,38	139,00
-22006,58	136,00
-21949,98	119,00
-21893,56	45,00
-21837,33	125,00
-21781,28	120,00
-21725,42	-3,00
-21669,74	63,00
-21614,25	91,00
-21558,94	82,00
-21503,81	197,00
-21448,86	84,00
-21394,10	-25,00
-21339,51	45,00
-21285,10	-144,00
-21230,86	109,00
-21176,81	118,00
-21122,93	99,00
-21069,22	84,00
-21015,69	105,00
-20962,33	91,00
-20909,14	138,00
-20856,13	170,00
-20803,28	46,00
-20750,61	174,00
-20698,10	-51,00
-20645,76	5,00
-20593,59	148,00
-20541,59	-62,00
-20489,75	98,00
-20438,07	83,00
-20386,56	138,00
-20335,22	31,00
-20284,03	40,00
-20233,01	105,00
-20182,15	159,00
-20131,45	206,00
-20080,91	37,00
-20030,52	134,00
-19980,30	75,00
-19930,23	10,00
-19880,32	118,00
-19830,56	6,00
-19780,96	40,00
-19731,52	20,00
-19682,23	106,00
-19633,09	27,00
-19584,10	99,00
-19535,26	72,00
-19486,58	117,00
-19438,04	140,00
-19389,66	75,00
-19341,42	44,00
-19293,33	181,00
-19245,39	180,00
-19197,60	131,00
-19149,95	8,00
-19102,45	33,00
-19055,09	13,00
-19007,87	122,00
-18960,80	113,00
-18913,87	56,00
-18867,09	114,00
-18820,44	142,00
-18773,94	143,00
-18727,57	45,00
-18681,35	-28,00
-18635,26	181,00
-18589,31	102,00
-18543,50	72,00
-18497,83	24,00
-18452,29	114,00
-18406,89	14,00
-18361,63	149,00
-18316,50	-59,00
-18271,50	28,00
-18226,63	298,00
-18181,90	93,00
-18137,30	54,00
-18092,84	181,00
-18048,50	85,00
-18004,29	40,00
-17960,22	71,00
-17916,27	96,00
-17872,45	139,00
-17828,76	93,00
-17785,20	4,00
-17741,77	15,00
-17698,46	242,00
-17655,28	143,00
-17612,22	54,00
-17569,29	74,00
-17526,48	192,00
-17483,79	47,00
-17441,23	104,00
-17398,79	24,00
-17356,48	177,00
-17314,28	9,00
-17272,21	46,00
-17230,26	67,00
-17188,42	1,00
-17146,71	140,00
-17105,12	59,00
-17063,64	248,00
-17022,28	19,00
-16981,04	98,00
-16939,92	82,00
-16898,91	87,00
-16858,02	24,00
-16817,25	67,00
-16776,59	8,00
-16736,04	194,00
-16695,61	162,00
-16655,29	151,00
-16615,09	-24,00
-16574,99	67,00
-16535,01	113,00
-16495,15	145,00
-16455,39	39,00
-16415,74	72,00
-16376,21	81,00
-16336,78	136,00
-16297,46	-29,00
-16258,26	8,00
-16219,16	244,00
-16180,17	147,00
-16141,28	148,00
-16102,51	133,00
-16063,84	132,00
-16025,27	138,00
-15986,82	72,00
-15948,46	66,00
-15910,22	121,00
-15872,07	30,00
-15834,04	53,00
-15796,10	79,00
-15758,27	-55,00
-15720,54	57,00
-15682,91	115,00
-15645,39	167,00
-15607,97	142,00
-15570,64	159,00
-15533,42	52,00
-15496,30	102,00
-15459,28	68,00
-15422,36	101,00
-15385,54	150,00
-15348,82	135,00
-15312,19	70,00
-15275,66	-19,00
-15239,23	84,00
-15202,90	54,00
-15166,67	-29,00
-15130,53	158,00
-15094,48	200,00
-15058,54	29,00
-15022,68	161,00
-14986,93	25,00
-14951,26	110,00
-14915,69	110,00
-14880,22	130,00
-14844,84	16,00
-14809,55	155,00
-14774,35	52,00
-14739,25	101,00
-14704,24	259,00
-14669,32	19,00
-14634,49	49,00
-14599,75	129,00
-14565,10	277,00
-14530,55	27,00
-14496,08	219,00
-14461,70	112,00
-14427,41	206,00
-14393,21	43,00
-14359,10	39,00
-14325,07	244,00
-14291,14	152,00
-14257,29	74,00
-14223,52	187,00
-14189,85	28,00
-14156,26	115,00
-14122,76	60,00
-14089,34	148,00
-14056,01	253,00
-14022,76	42,00
-13989,60	132,00
-13956,52	122,00
-13923,53	145,00
-13890,62	136,00
-13857,79	-62,00
-13825,05	56,00
-13792,39	102,00
-13759,81	20,00
-13727,31	74,00
-13694,90	101,00
-13662,57	78,00
-13630,31	131,00
-13598,14	112,00
-13566,05	41,00
-13534,05	183,00
-13502,12	127,00
-13470,27	101,00
-13438,50	18,00
-13406,80	188,00
-13375,19	112,00
-13343,66	88,00
-13312,20	43,00
-13280,83	168,00
-13249,53	129,00
-13218,30	59,00
-13187,16	173,00
-13156,09	121,00
-13125,10	76,00
-13094,18	117,00
-13063,34	60,00
-13032,58	105,00
-13001,89	6,00
-12971,28	99,00
-12940,74	113,00
-12910,27	99,00
-12879,88	100,00
-12849,57	158,00
-12819,33	73,00
-12789,16	92,00
-12759,06	13,00
-12729,04	148,00
-12699,09	-1424,00
-12669,21	123,00
-12639,41	-3,00
-12609,68	145,00
-12580,02	97,00
-12550,43	42,00
-12520,91	55,00
-12491,46	47,00
-12462,08	74,00
-12432,77	222,00
-12403,54	172,00
-12374,37	68,00
-12345,27	165,00
-12316,24	19,00
-12287,29	97,00
-12258,40	145,00
-12229,57	92,00
-12200,82	155,00
-12172,14	44,00
-12143,52	132,00
-12114,97	131,00
-12086,49	10,00
-12058,07	225,00
-12029,73	204,00
-12001,44	154,00
-11973,23	-55,00
-11945,08	74,00
-11917,00	164,00
-11888,98	113,00
-11861,03	74,00
-11833,15	77,00
-11805,32	146,00
-11777,57	-62,00
-11749,88	135,00
-11722,25	58,00
-11694,69	89,00
-11667,19	64,00
-11639,75	105,00
-11612,38	154,00
-11585,07	76,00
-11557,83	39,00
-11530,65	207,00
-11503,53	124,00
-11476,47	60,00
-11449,48	162,00
-11422,54	170,00
-11395,67	-39,00
-11368,86	101,00
-11342,11	93,00
-11315,43	54,00
-11288,80	-19,00
-11262,23	-16,00
-11235,73	-16,00
-11209,28	133,00
-11182,90	81,00
-11156,57	109,00
-11130,31	79,00
-11104,10	62,00
-11077,96	51,00
-11051,87	228,00
-11025,84	103,00
-10999,87	152,00
-10973,96	38,00
-10948,11	35,00
-10922,31	100,00
-10896,58	-49,00
-10870,90	40,00
-10845,28	77,00
-10819,71	155,00
-10794,20	139,00
-10768,75	195,00
-10743,36	76,00
-10718,02	134,00
-10692,74	85,00
-10667,52	61,00
-10642,35	-51,00
-10617,24	222,00
-10592,18	184,00
-10567,18	62,00
-10542,23	216,00
-10517,34	144,00
-10492,51	-34,00
-10467,72	12,00
-10443,00	129,00
-10418,32	161,00
-10393,70	83,00
-10369,14	73,00
-10344,63	188,00
-10320,17	156,00
-10295,77	145,00
-10271,42	83,00
-10247,12	77,00
-10222,88	122,00
-10198,68	55,00
-10174,54	122,00
-10150,46	130,00
-10126,42	76,00
-10102,44	103,00
-10078,51	74,00
-10054,63	34,00
-10030,80	129,00
-10007,03	88,00
-9983,30	73,00
-9959,63	42,00
-9936,01	61,00
-9912,44	116,00
-9888,92	51,00
-9865,44	82,00
-9842,02	42,00
-9818,65	127,00
-9795,33	100,00
-9772,06	143,00
-9748,84	61,00
-9725,67	42,00
-9702,55	151,00
-9679,47	115,00
-9656,45	57,00
-9633,47	98,00
-9610,55	90,00
-9587,67	170,00
-9564,84	171,00
-9542,06	197,00
-9519,32	135,00
-9496,64	49,00
-9474,00	249,00
-9451,41	165,00
-9428,87	195,00
-9406,37	64,00
-9383,92	106,00
-9361,52	-15,00
-9339,17	172,00
-9316,86	173,00
-9294,60	128,00
-9272,38	192,00
-9250,21	145,00
-9228,09	75,00
-9206,01	255,00
-9183,98	201,00
-9162,00	194,00
-9140,06	161,00
-9118,16	158,00
-9096,31	220,00
-9074,51	136,00
-9052,75	86,00
-9031,04	191,00
-9009,37	66,00
-8987,74	112,00
-8966,16	229,00
-8944,63	83,00
-8923,14	179,00
-8901,69	97,00
-8880,29	106,00
-8858,93	209,00
-8837,61	165,00
-8816,34	158,00
-8795,11	185,00
-8773,92	93,00
-8752,78	13,00
-8731,68	210,00
-8710,62	103,00
-8689,61	-18,00
-8668,63	74,00
-8647,70	262,00
-8626,82	157,00
-8605,97	93,00
-8585,17	187,00
-8564,41	212,00
-8543,69	157,00
-8523,01	41,00
-8502,37	109,00
-8481,78	139,00
-8461,23	300,00
-8440,71	83,00
-8420,24	212,00
-8399,81	109,00
-8379,42	151,00
-8359,08	186,00
-8338,77	248,00
-8318,50	59,00
-8298,27	-20,00
-8278,09	196,00
-8257,94	140,00
-8237,83	207,00
-8217,76	67,00
-8197,74	168,00
-8177,75	246,00
-8157,80	80,00
-8137,89	129,00
-8118,02	223,00
-8098,19	128,00
-8078,40	89,00
-8058,65	245,00
-8038,93	214,00
-8019,26	167,00
-7999,62	77,00
-7980,02	155,00
-7960,46	123,00
-7940,94	156,00
-7921,46	26,00
-7902,01	119,00
-7882,60	201,00
-7863,23	59,00
-7843,90	181,00
-7824,61	117,00
-7805,35	174,00
-7786,13	30,00
-7766,95	162,00
-7747,80	84,00
-7728,69	208,00
-7709,62	48,00
-7690,59	137,00
-7671,59	158,00
-7652,63	68,00
-7633,70	230,00
-7614,81	229,00
-7595,96	140,00
-7577,15	297,00
-7558,37	163,00
-7539,62	187,00
-7520,91	78,00
-7502,24	147,00
-7483,60	239,00
-7465,00	194,00
-7446,44	80,00
-7427,91	42,00
-7409,41	257,00
-7390,95	126,00
-7372,53	169,00
-7354,14	129,00
-7335,78	82,00
-7317,46	117,00
-7299,18	199,00
-7280,92	171,00
-7262,71	62,00
-7244,52	77,00
-7226,38	125,00
-7208,26	219,00
-7190,18	134,00
-7172,14	278,00
-7154,12	235,00
-7136,15	62,00
-7118,20	121,00
-7100,29	272,00
-7082,41	291,00
-7064,57	212,00
-7046,76	200,00
-7028,98	281,00
-7011,24	220,00
-6993,53	127,00
-6975,85	185,00
-6958,20	89,00
-6940,59	56,00
-6923,01	122,00
-6905,46	174,00
-6887,94	133,00
-6870,46	1038,00
-6853,01	171,00
-6835,59	158,00
-6818,21	79,00
-6800,85	119,00
-6783,53	130,00
-6766,24	199,00
-6748,98	168,00
-6731,76	130,00
-6714,56	63,00
-6697,40	14,00
-6680,26	59,00
-6663,16	165,00
-6646,09	214,00
-6629,05	31,00
-6612,05	225,00
-6595,07	133,00
-6578,13	50,00
-6561,21	160,00
-6544,33	141,00
-6527,47	60,00
-6510,65	32,00
-6493,86	135,00
-6477,10	100,00
-6460,36	148,00
-6443,66	135,00
-6426,99	91,00
-6410,35	17,00
-6393,74	47,00
-6377,16	47,00
-6360,61	69,00
-6344,09	88,00
-6327,59	-74,00
-6311,13	73,00
-6294,70	176,00
-6278,29	107,00
-6261,92	152,00
-6245,58	136,00
-6229,26	96,00
-6212,97	219,00
-6196,72	166,00
-6180,49	34,00
-6164,29	126,00
-6148,12	125,00
-6131,98	192,00
-6115,86	78,00
-6099,78	91,00
-6083,72	49,00
-6067,69	165,00
-6051,69	81,00
-6035,72	80,00
-6019,78	61,00
-6003,87	-46,00
-5987,98	92,00
-5972,12	141,00
-5956,29	134,00
-5940,49	46,00
-5924,71	213,00
-5908,96	22,00
-5893,24	23,00
-5877,55	44,00
-5861,89	90,00
-5846,25	184,00
-5830,64	22,00
-5815,05	248,00
-5799,50	98,00
-5783,97	126,00
-5768,47	33,00
-5752,99	193,00
-5737,55	57,00
-5722,12	192,00
-5706,73	163,00
-5691,36	151,00
-5676,02	112,00
-5660,71	290,00
-5645,42	0,00
-5630,16	72,00
-5614,92	107,00
-5599,71	67,00
-5584,53	154,00
-5569,37	-44,00
-5554,24	130,00
-5539,14	153,00
-5524,06	131,00
-5509,01	108,00
-5493,98	194,00
-5478,98	181,00
-5464,00	211,00
-5449,05	116,00
-5434,13	48,00
-5419,23	128,00
-5404,36	111,00
-5389,51	156,00
-5374,69	72,00
-5359,89	160,00
-5345,12	59,00
-5330,37	89,00
-5315,65	218,00
-5300,95	55,00
-5286,28	218,00
-5271,63	118,00
-5257,01	199,00
-5242,41	172,00
-5227,84	126,00
-5213,29	189,00
-5198,76	155,00
-5184,26	105,00
-5169,79	135,00
-5155,33	222,00
-5140,91	43,00
-5126,51	90,00
-5112,13	163,00
-5097,77	165,00
-5083,44	145,00
-5069,13	-6,00
-5054,85	67,00
-5040,59	96,00
-5026,36	87,00
-5012,15	120,00
-4997,96	171,00
-4983,80	106,00
-4969,66	90,00
-4955,54	10,00
-4941,44	222,00
-4927,37	138,00
-4913,33	199,00
-4899,30	145,00
-4885,30	107,00
-4871,33	79,00
-4857,37	33,00
-4843,44	197,00
-4829,53	91,00
-4815,65	209,00
-4801,79	112,00
-4787,95	167,00
-4774,13	178,00
-4760,34	38,00
-4746,56	109,00
-4732,82	94,00
-4719,09	216,00
-4705,38	101,00
-4691,70	138,00
-4678,04	94,00
-4664,41	272,00
-4650,79	131,00
-4637,20	165,00
-4623,63	53,00
-4610,08	107,00
-4596,56	30,00
-4583,05	275,00
-4569,57	247,00
-4556,11	-22,00
-4542,67	81,00
-4529,25	81,00
-4515,86	108,00
-4502,49	104,00
-4489,13	100,00
-4475,80	62,00
-4462,49	202,00
-4449,21	74,00
-4435,94	-6,00
-4422,70	212,00
-4409,47	89,00
-4396,27	164,00
-4383,09	19,00
-4369,93	55,00
-4356,79	108,00
-4343,67	64,00
-4330,58	207,00
-4317,50	93,00
-4304,45	237,00
-4291,41	76,00
-4278,40	39,00
-4265,41	65,00
-4252,44	6,00
-4239,49	13,00
-4226,55	104,00
-4213,65	177,00
-4200,76	131,00
-4187,89	89,00
-4175,04	155,00
-4162,21	9,00
-4149,40	-16,00
-4136,61	146,00
-4123,85	57,00
-4111,10	196,00
-4098,37	53,00
-4085,66	177,00
-4072,98	9,00
-4060,31	102,00
-4047,66	112,00
-4035,04	102,00
-4022,43	51,00
-4009,84	160,00
-3997,27	172,00
-3984,72	139,00
-3972,19	128,00
-3959,69	56,00
-3947,20	112,00
-3934,73	145,00
-3922,27	140,00
-3909,84	129,00
-3897,43	95,00
-3885,04	175,00
-3872,67	36,00
-3860,31	142,00
-3847,98	225,00
-3835,66	59,00
-3823,36	173,00
-3811,09	72,00
-3798,83	61,00
-3786,59	110,00
-3774,37	129,00
-3762,17	78,00
-3749,98	13,00
-3737,82	93,00
-3725,67	264,00
-3713,55	56,00
-3701,44	190,00
-3689,35	146,00
-3677,28	-51,00
-3665,22	45,00
-3653,19	-9,00
-3641,17	66,00
-3629,18	92,00
-3617,20	136,00
-3605,24	183,00
-3593,30	61,00
-3581,37	42,00
-3569,47	6,00
-3557,58	95,00
-3545,71	85,00
-3533,86	76,00
-3522,02	-43,00
-3510,21	220,00
-3498,41	104,00
-3486,63	104,00
-3474,87	-113,00
-3463,12	122,00
-3451,40	298,00
-3439,69	44,00
-3428,00	132,00
-3416,33	-55,00
-3404,67	145,00
-3393,03	-65,00
-3381,41	177,00
-3369,81	316,00
-3358,22	106,00
-3346,66	151,00
-3335,10	99,00
-3323,57	166,00
-3312,06	254,00
-3300,56	187,00
-3289,08	35,00
-3277,61	184,00
-3266,16	46,00
-3254,73	60,00
-3243,32	-60,00
-3231,92	56,00
-3220,55	92,00
-3209,18	249,00
-3197,84	109,00
-3186,51	-29,00
-3175,20	54,00
-3163,90	46,00
-3152,63	35,00
-3141,36	120,00
-3130,12	85,00
-3118,89	160,00
-3107,68	29,00
-3096,49	100,00
-3085,31	62,00
-3074,15	76,00
-3063,00	198,00
-3051,87	-22,00
-3040,76	133,00
-3029,67	40,00
-3018,59	217,00
-3007,52	56,00
-2996,48	149,00
-2985,44	-7,00
-2974,43	116,00
-2963,43	79,00
-2952,45	88,00
-2941,48	191,00
-2930,53	129,00
-2919,60	24,00
-2908,68	-23,00
-2897,78	-2,00
-2886,89	64,00
-2876,02	86,00
-2865,17	152,00
-2854,33	-33,00
-2843,50	165,00
-2832,70	-110,00
-2821,90	62,00
-2811,13	-19,00
-2800,37	228,00
-2789,62	102,00
-2778,89	156,00
-2768,18	78,00
-2757,48	52,00
-2746,80	124,00
-2736,13	-23,00
-2725,48	73,00
-2714,84	172,00
-2704,22	40,00
-2693,61	165,00
-2683,02	71,00
-2672,45	131,00
-2661,89	183,00
-2651,34	110,00
-2640,81	134,00
-2630,30	42,00
-2619,80	60,00
-2609,31	128,00
-2598,84	105,00
-2588,39	81,00
-2577,95	40,00
-2567,52	44,00
-2557,11	239,00
-2546,71	234,00
-2536,33	61,00
-2525,97	75,00
-2515,62	-32,00
-2505,28	144,00
-2494,96	87,00
-2484,65	238,00
-2474,36	-228,00
-2464,08	93,00
-2453,82	94,00
-2443,57	58,00
-2433,33	65,00
-2423,11	0,00
-2412,91	61,00
-2402,72	11,00
-2392,54	181,00
-2382,38	171,00
-2372,23	227,00
-2362,09	231,00
-2351,97	135,00
-2341,87	132,00
-2331,78	-29,00
-2321,70	106,00
-2311,64	160,00
-2301,59	99,00
-2291,55	177,00
-2281,53	-107,00
-2271,53	116,00
-2261,53	-15,00
-2251,55	130,00
-2241,59	52,00
-2231,64	131,00
-2221,70	50,00
-2211,78	80,00
-2201,87	32,00
-2191,97	175,00
-2182,09	105,00
-2172,22	97,00
-2162,37	149,00
-2152,53	90,00
-2142,70	161,00
-2132,89	-2,00
-2123,09	50,00
-2113,30	79,00
-2103,53	116,00
-2093,77	95,00
-2084,02	58,00
-2074,29	227,00
-2064,57	121,00
-2054,86	181,00
-2045,17	93,00
-2035,49	115,00
-2025,82	112,00
-2016,17	62,00
-2006,53	115,00
-1996,91	8,00
-1987,29	63,00
-1977,69	137,00
-1968,11	79,00
-1958,53	12,00
-1948,97	108,00
-1939,42	53,00
-1929,89	230,00
-1920,37	107,00
-1910,86	39,00
-1901,36	111,00
-1891,88	56,00
-1882,41	167,00
-1872,95	121,00
-1863,51	-13,00
-1854,08	194,00
-1844,66	64,00
-1835,26	93,00
-1825,86	32,00
-1816,48	127,00
-1807,11	94,00
-1797,76	67,00
-1788,42	138,00
-1779,09	79,00
-1769,77	28,00
-1760,47	173,00
-1751,17	199,00
-1741,89	144,00
-1732,63	29,00
-1723,37	216,00
-1714,13	131,00
-1704,90	15,00
-1695,68	56,00
-1686,48	134,00
-1677,29	186,00
-1668,11	117,00
-1658,94	143,00
-1649,78	-5,00
-1640,64	72,00
-1631,51	-27,00
-1622,39	146,00
-1613,28	-2,00
-1604,19	-103,00
-1595,10	33,00
-1586,03	157,00
-1576,97	111,00
-1567,93	115,00
-1558,89	135,00
-1549,87	11,00
-1540,86	72,00
-1531,86	94,00
-1522,87	-32,00
-1513,90	110,00
-1504,93	91,00
-1495,98	0,00
-1487,04	133,00
-1478,12	132,00
-1469,20	24,00
-1460,30	76,00
-1451,40	46,00
-1442,52	40,00
-1433,65	31,00
-1424,80	70,00
-1415,95	49,00
-1407,12	103,00
-1398,30	140,00
-1389,48	-25,00
-1380,69	56,00
-1371,90	221,00
-1363,12	80,00
-1354,36	147,00
-1345,60	129,00
-1336,86	-17,00
-1328,13	110,00
-1319,41	26,00
-1310,70	136,00
-1302,01	13,00
-1293,32	125,00
-1284,65	120,00
-1275,99	83,00
-1267,33	118,00
-1258,69	-15,00
-1250,06	-1,00
-1241,45	284,00
-1232,84	206,00
-1224,25	115,00
-1215,66	132,00
-1207,09	115,00
-1198,53	154,00
-1189,97	77,00
-1181,43	65,00
-1172,91	60,00
-1164,39	146,00
-1155,88	167,00
-1147,38	101,00
-1138,90	95,00
-1130,43	126,00
-1121,96	91,00
-1113,51	64,00
-1105,07	114,00
-1096,64	150,00
-1088,22	128,00
-1079,81	131,00
-1071,41	199,00
-1063,02	153,00
-1054,65	150,00
-1046,28	165,00
-1037,92	123,00
-1029,58	150,00
-1021,24	-23,00
-1012,92	115,00
-1004,61	165,00
-996,30	126,00
-988,01	69,00
-979,73	250,00
-971,46	152,00
-963,20	96,00
-954,95	97,00
-946,71	104,00
-938,48	124,00
-930,26	77,00
-922,06	99,00
-913,86	111,00
-905,67	56,00
-897,49	151,00
-889,33	139,00
-881,17	151,00
-873,02	115,00
-864,89	30,00
-856,76	41,00
-848,65	120,00
-840,54	-5,00
-832,45	130,00
-824,36	32,00
-816,29	141,00
-808,22	259,00
-800,17	179,00
-792,12	112,00
-784,09	243,00
-776,06	56,00
-768,05	49,00
-760,04	278,00
-752,05	176,00
-744,07	134,00
-736,09	11,00
-728,13	141,00
-720,17	65,00
-712,23	72,00
-704,29	154,00
-696,37	44,00
-688,45	205,00
-680,55	162,00
-672,65	159,00
-664,77	164,00
-656,89	86,00
-649,03	72,00
-641,17	129,00
-633,32	178,00
-625,49	125,00
-617,66	120,00
-609,84	87,00
-602,03	132,00
-594,23	197,00
-586,45	128,00
-578,67	138,00
-570,90	132,00
-563,14	118,00
-555,39	15,00
-547,65	92,00
-539,91	154,00
-532,19	152,00
-524,48	138,00
-516,78	67,00
-509,08	112,00
-501,40	16,00
-493,72	104,00
-486,06	206,00
-478,40	88,00
-470,76	59,00
-463,12	20,00
-455,49	202,00
-447,87	96,00
-440,26	109,00
-432,66	116,00
-425,07	248,00
-417,49	182,00
-409,92	175,00
-402,35	193,00
-394,80	163,00
-387,25	206,00
-379,72	128,00
-372,19	206,00
-364,67	266,00
-357,17	312,00
-349,67	176,00
-342,18	261,00
-334,69	232,00
-327,22	250,00
-319,76	240,00
-312,30	16,00
-304,86	256,00
-297,42	248,00
-290,00	210,00
-282,58	280,00
-275,17	134,00
-267,77	273,00
-260,37	288,00
-252,99	292,00
-245,62	246,00
-238,25	214,00
-230,90	287,00
-223,55	373,00
-216,21	362,00
-208,88	334,00
-201,56	477,00
-194,25	393,00
-186,94	604,00
-179,65	507,00
-172,36	598,00
-165,08	519,00
-157,81	652,00
-150,55	684,00
-143,30	792,00
-136,06	720,00
-128,82	884,00
-121,60	1004,00
-114,38	1072,00
-107,17	1120,00
-99,97	1352,00
-92,78	1578,00
-85,60	1752,00
-78,42	2081,00
-71,25	2419,00
-64,10	2920,00
-56,95	3173,00
-49,81	3742,00
-42,67	4787,00
-35,55	6039,00
-28,43	8008,00
-21,33	13875,00
-14,23	46741,00
-7,14	54419,00
-0,05	54171,00
7,02	53809,00
14,09	54108,00
21,14	33559,00
28,19	14893,00
35,23	9671,00
42,27	7145,00
49,29	6153,00
56,31	4916,00
63,32	4101,00
70,32	3445,00
77,31	2932,00
84,29	2425,00
91,27	2197,00
98,23	1957,00
105,19	1808,00
112,14	1833,00
119,09	2256,00
126,02	3249,00
132,95	3465,00
139,87	3365,00
146,78	3321,00
153,68	3387,00
160,58	3159,00
167,46	3081,00
174,34	3081,00
181,21	2787,00
188,08	3060,00
194,93	2909,00
201,78	2910,00
208,62	2871,00
215,45	2865,00
222,27	2975,00
229,09	2696,00
235,90	2894,00
242,70	2725,00
249,49	2748,00
256,27	2726,00
263,05	2521,00
269,82	2646,00
276,58	2616,00
283,33	2626,00
290,08	2766,00
296,82	2626,00
303,55	2481,00
310,27	2498,00
316,98	2499,00
323,69	2427,00
330,39	2290,00
337,08	2408,00
343,76	2384,00
350,44	2464,00
357,11	2370,00
363,77	2362,00
370,42	2370,00
377,07	2421,00
383,71	2451,00
390,34	2267,00
396,96	2308,00
403,58	2389,00
410,19	2487,00
416,79	2488,00
423,38	2618,00
429,97	2422,00
436,55	2161,00
443,12	1967,00
449,68	2132,00
456,24	2144,00
462,79	2228,00
469,33	1949,00
475,86	1976,00
482,39	1957,00
488,91	2045,00
495,42	1863,00
501,93	2130,00
508,42	2029,00
514,91	1887,00
521,40	1788,00
527,87	1879,00
534,34	1838,00
540,80	1923,00
547,25	1899,00
553,70	1836,00
560,14	1948,00
566,57	1840,00
573,00	1825,00
579,41	1806,00
585,83	1706,00
592,23	1777,00
598,62	1782,00
605,01	1763,00
611,40	1753,00
617,77	1763,00
624,14	1618,00
630,50	1798,00
636,85	1562,00
643,20	1577,00
649,54	1533,00
655,87	1680,00
662,20	1569,00
668,52	1514,00
674,83	1651,00
681,13	1445,00
687,43	1667,00
693,72	1557,00
700,00	1587,00
706,28	1555,00
712,55	1623,00
718,81	1542,00
725,07	1663,00
731,32	1646,00
737,56	1676,00
743,79	1573,00
750,02	1711,00
756,24	1576,00
762,46	1555,00
768,67	1564,00
774,87	1510,00
781,06	1440,00
787,25	1462,00
793,43	1490,00
799,60	1504,00
805,77	1503,00
811,93	1566,00
818,08	1491,00
824,23	1539,00
830,37	1539,00
836,50	1531,00
842,63	1669,00
848,75	1523,00
854,87	1571,00
860,97	1576,00
867,07	1508,00
873,17	1574,00
879,25	1350,00
885,33	1537,00
891,41	1523,00
897,47	1309,00
903,53	1404,00
909,59	1323,00
915,63	1295,00
921,67	1366,00
927,71	1437,00
933,74	1249,00
939,76	1271,00
945,77	1365,00
951,78	1250,00
957,78	1299,00
963,78	1218,00
969,77	1500,00
975,75	1292,00
981,72	1254,00
987,69	1572,00
993,66	1327,00
999,61	1326,00
1005,56	1245,00
1011,51	1304,00
1017,44	1286,00
1023,37	1283,00
1029,30	1315,00
1035,22	1267,00
1041,13	1311,00
1047,03	1431,00
1052,93	1422,00
1058,83	1679,00
1064,71	1781,00
1070,59	1578,00
1076,47	1508,00
1082,33	1439,00
1088,20	1344,00
1094,05	1333,00
1099,90	1387,00
1105,74	1265,00
1111,58	1418,00
1117,41	1382,00
1123,23	1593,00
1129,05	1504,00
1134,86	1501,00
1140,67	1280,00
1146,47	1287,00
1152,26	1236,00
1158,05	1185,00
1163,83	1225,00
1169,60	1170,00
1175,37	1214,00
1181,13	1164,00
1186,89	1077,00
1192,64	1191,00
1198,38	1125,00
1204,12	1263,00
1209,85	1288,00
1215,58	1183,00
1221,30	1161,00
1227,02	1230,00
1232,72	1274,00
1238,43	1210,00
1244,12	1228,00
1249,81	1105,00
1255,50	1213,00
1261,17	1084,00
1266,85	1250,00
1272,51	1241,00
1278,17	1254,00
1283,83	1419,00
1289,47	1555,00
1295,12	2027,00
1300,75	1742,00
1306,38	1617,00
1312,01	1523,00
1317,63	1279,00
1323,24	1290,00
1328,85	1341,00
1334,45	1269,00
1340,04	1374,00
1345,63	1267,00
1351,22	1321,00
1356,80	1248,00
1362,37	1278,00
1367,93	1304,00
1373,49	1339,00
1379,05	1416,00
1384,60	1252,00
1390,14	1281,00
1395,68	1084,00
1401,21	1316,00
1406,74	1389,00
1412,26	1354,00
1417,77	1555,00
1423,28	1598,00
1428,78	1690,00
1434,28	1765,00
1439,77	2115,00
1445,26	2045,00
1450,74	1954,00
1456,22	1764,00
1461,68	1717,00
1467,15	1600,00
1472,61	1562,00
1478,06	1396,00
1483,51	1169,00
1488,95	1284,00
1494,38	1235,00
1499,81	1277,00
1505,24	1219,00
1510,65	975,00
1516,07	1171,00
1521,48	1189,00
1526,88	1182,00
1532,27	1110,00
1537,67	1066,00
1543,05	1085,00
1548,43	1031,00
1553,81	1143,00
1559,18	1036,00
1564,54	1177,00
1569,90	1133,00
1575,25	1086,00
1580,60	962,00
1585,94	1103,00
1591,28	1131,00
1596,61	1002,00
1601,93	828,00
1607,25	1098,00
1612,57	926,00
1617,88	924,00
1623,18	1113,00
1628,48	930,00
1633,77	1013,00
1639,06	993,00
1644,34	985,00
1649,62	939,00
1654,89	944,00
1660,16	891,00
1665,42	1019,00
1670,67	961,00
1675,92	923,00
1681,17	960,00
1686,41	842,00
1691,64	902,00
1696,87	779,00
1702,10	851,00
1707,32	876,00
1712,53	836,00
1717,74	896,00
1722,94	813,00
1728,14	843,00
1733,33	752,00
1738,52	825,00
1743,70	796,00
1748,88	835,00
1754,05	810,00
1759,22	906,00
1764,38	-834,00
1769,53	902,00
1774,69	806,00
1779,83	991,00
1784,97	707,00
1790,11	736,00
1795,24	719,00
1800,36	811,00
1805,48	600,00
1810,60	704,00
1815,71	850,00
1820,82	865,00
1825,92	763,00
1831,01	628,00
1836,10	692,00
1841,19	806,00
1846,26	724,00
1851,34	725,00
1856,41	697,00
1861,47	792,00
1866,53	693,00
1871,59	665,00
1876,64	630,00
1881,68	840,00
1886,72	607,00
1891,76	671,00
1896,79	644,00
1901,81	611,00
1906,83	628,00
1911,85	608,00
1916,86	577,00
1921,86	639,00
1926,86	704,00
1931,86	575,00
1936,85	633,00
1941,83	664,00
1946,81	525,00
1951,79	609,00
1956,76	502,00
1961,72	419,00
1966,68	661,00
1971,64	544,00
1976,59	676,00
1981,54	623,00
1986,48	562,00
1991,42	593,00
1996,35	560,00
2001,27	448,00
2006,20	586,00
2011,11	611,00
2016,03	533,00
2020,93	443,00
2025,84	595,00
2030,73	560,00
2035,63	510,00
2040,52	479,00
2045,40	404,00
2050,28	445,00
2055,15	492,00
2060,02	503,00
2064,89	478,00
2069,75	492,00
2074,60	501,00
2079,46	548,00
2084,30	448,00
2089,14	406,00
2093,98	584,00
2098,81	550,00
2103,64	541,00
2108,46	616,00
2113,28	567,00
2118,09	471,00
2122,90	474,00
2127,70	436,00
2132,50	504,00
2137,30	506,00
2142,09	581,00
2146,87	473,00
2151,66	517,00
2156,43	587,00
2161,20	559,00
2165,97	471,00
2170,73	481,00
2175,49	419,00
2180,24	521,00
2184,99	505,00
2189,74	431,00
2194,48	455,00
2199,21	497,00
2203,94	464,00
2208,67	315,00
2213,39	483,00
2218,11	448,00
2222,82	473,00
2227,53	549,00
2232,23	388,00
2236,93	426,00
2241,63	537,00
2246,32	246,00
2251,00	459,00
2255,68	444,00
2260,36	454,00
2265,03	366,00
2269,70	493,00
2274,36	364,00
2279,02	533,00
2283,68	376,00
2288,33	410,00
2292,97	512,00
2297,61	388,00
2302,25	457,00
2306,88	328,00
2311,51	349,00
2316,14	416,00
2320,75	321,00
2325,37	332,00
2329,98	360,00
2334,59	331,00
2339,19	308,00
2343,79	243,00
2348,38	510,00
2352,97	329,00
2357,55	412,00
2362,13	304,00
2366,71	243,00
2371,28	437,00
2375,85	271,00
2380,41	400,00
2384,97	408,00
2389,52	347,00
2394,07	212,00
2398,62	439,00
2403,16	291,00
2407,70	114,00
2412,23	333,00
2416,76	312,00
2421,29	314,00
2425,81	316,00
2430,32	367,00
2434,84	322,00
2439,34	372,00
2443,85	302,00
2448,35	284,00
2452,84	312,00
2457,33	272,00
2461,82	429,00
2466,30	314,00
2470,78	317,00
2475,25	297,00
2479,72	477,00
2484,19	312,00
2488,65	219,00
2493,11	307,00
2497,56	338,00
2502,01	238,00
2506,46	405,00
2510,90	425,00
2515,34	273,00
2519,77	242,00
2524,20	274,00
2528,62	364,00
2533,04	149,00
2537,46	366,00
2541,87	273,00
2546,28	181,00
2550,68	289,00
2555,08	97,00
2559,48	257,00
2563,87	228,00
2568,26	418,00
2572,64	257,00
2577,02	292,00
2581,40	231,00
2585,77	286,00
2590,14	212,00
2594,50	345,00
2598,86	180,00
2603,22	355,00
2607,57	206,00
2611,92	352,00
2616,26	154,00
2620,60	264,00
2624,94	245,00
2629,27	303,00
2633,60	297,00
2637,92	242,00
2642,24	279,00
2646,56	200,00
2650,87	114,00
2655,18	252,00
2659,48	358,00
2663,78	240,00
2668,08	322,00
2672,37	306,00
2676,66	294,00
2680,95	279,00
2685,23	333,00
2689,50	206,00
2693,78	271,00
2698,05	234,00
2702,31	228,00
2706,57	371,00
2710,83	213,00
2715,08	251,00
2719,33	310,00
2723,58	376,00
2727,82	261,00
2732,06	289,00
2736,29	373,00
2740,53	296,00
2744,75	340,00
2748,97	360,00
2753,19	301,00
2757,41	273,00
2761,62	327,00
2765,83	210,00
2770,03	251,00
2774,23	317,00
2778,43	242,00
2782,62	328,00
2786,81	318,00
2791,00	419,00
2795,18	369,00
2799,35	390,00
2803,53	373,00
2807,70	525,00
2811,86	393,00
2816,03	347,00
2820,19	488,00
2824,34	455,00
2828,49	528,00
2832,64	616,00
2836,78	653,00
2840,92	928,00
2845,06	1189,00
2849,19	1061,00
2853,32	1220,00
2857,45	1130,00
2861,57	1145,00
2865,69	1101,00
2869,80	977,00
2873,91	1259,00
2878,02	1250,00
2882,12	1289,00
2886,22	1270,00
2890,32	1322,00
2894,41	1082,00
2898,50	1170,00
2902,58	998,00
2906,67	1156,00
2910,74	875,00
2914,82	821,00
2918,89	941,00
2922,96	687,00
2927,02	781,00
2931,08	706,00
2935,13	625,00
2939,19	638,00
2943,24	481,00
2947,28	525,00
2951,32	333,00
2955,36	370,00
2959,40	453,00
2963,43	400,00
2967,46	281,00
2971,48	381,00
2975,50	253,00
2979,52	367,00
2983,53	186,00
2987,54	205,00
2991,55	355,00
2995,55	188,00
2999,55	256,00
3003,54	152,00
3007,54	149,00
3011,53	119,00
3015,51	204,00
3019,49	178,00
3023,47	206,00
3027,45	234,00
3031,42	148,00
3035,39	236,00
3039,35	150,00
3043,31	205,00
3047,27	120,00
3051,22	156,00
3055,17	65,00
3059,12	167,00
3063,06	171,00
3067,00	136,00
3070,94	224,00
3074,87	123,00
3078,80	203,00
3082,73	181,00
3086,65	117,00
3090,57	200,00
3094,49	229,00
3098,40	124,00
3102,31	75,00
3106,22	202,00
3110,12	60,00
3114,02	67,00
3117,92	243,00
3121,81	215,00
3125,70	31,00
3129,58	190,00
3133,47	107,00
3137,34	108,00
3141,22	127,00
3145,09	300,00
3148,96	211,00
3152,83	183,00
3156,69	39,00
3160,55	163,00
3164,40	192,00
3168,26	191,00
3172,10	174,00
3175,95	222,00
3179,79	184,00
3183,63	178,00
3187,47	162,00
3191,30	210,00
3195,13	-19,00
3198,95	247,00
3202,78	112,00
3206,60	139,00
3210,41	153,00
3214,23	187,00
3218,03	185,00
3221,84	169,00
3225,64	155,00
3229,44	179,00
3233,24	198,00
3237,03	259,00
3240,82	5,00
3244,61	161,00
3248,39	175,00
3252,17	158,00
3255,95	121,00
3259,72	194,00
3263,49	169,00
3267,26	134,00
3271,03	124,00
3274,79	91,00
3278,54	113,00
3282,30	202,00
3286,05	115,00
3289,80	103,00
3293,54	241,00
3297,29	150,00
3301,02	110,00
3304,76	60,00
3308,49	63,00
3312,22	164,00
3315,95	176,00
3319,67	167,00
3323,39	102,00
3327,10	263,00
3330,82	66,00
3334,53	158,00
3338,24	182,00
3341,94	96,00
3345,64	134,00
3349,34	144,00
3353,03	178,00
3356,72	153,00
3360,41	74,00
3364,10	117,00
3367,78	96,00
3371,46	56,00
3375,13	164,00
3378,81	253,00
3382,48	195,00
3386,14	157,00
3389,81	17,00
3393,47	171,00
3397,12	87,00
3400,78	173,00
3404,43	163,00
3408,08	46,00
3411,72	16,00
3415,36	100,00
3419,00	7,00
3422,64	123,00
3426,27	93,00
3429,90	143,00
3433,53	214,00
3437,15	103,00
3440,77	93,00
3444,39	202,00
3448,00	40,00
3451,62	124,00
3455,22	16,00
3458,83	107,00
3462,43	78,00
3466,03	133,00
3469,63	21,00
3473,22	71,00
3476,81	27,00
3480,40	83,00
3483,99	48,00
3487,57	48,00
3491,15	140,00
3494,72	208,00
3498,29	86,00
3501,86	155,00
3505,43	116,00
3508,99	55,00
3512,56	60,00
3516,11	112,00
3519,67	155,00
3523,22	263,00
3526,77	49,00
3530,32	116,00
3533,86	19,00
3537,40	21,00
3540,94	100,00
3544,47	60,00
3548,00	191,00
3551,53	116,00
3555,06	56,00
3558,58	110,00
3562,10	142,00
3565,62	79,00
3569,13	120,00
3572,64	172,00
3576,15	-48,00
3579,66	65,00
3583,16	91,00
3586,66	169,00
3590,16	160,00
3593,65	118,00
3597,14	135,00
3600,63	124,00
3604,11	134,00
3607,60	-38,00
3611,08	38,00
3614,55	-6,00
3618,03	112,00
3621,50	-76,00
3624,97	52,00
3628,43	42,00
3631,90	84,00
3635,36	-44,00
3638,81	24,00
3642,27	99,00
3645,72	155,00
3649,17	72,00
3652,61	74,00
3656,06	125,00
3659,50	56,00
3662,93	136,00
3666,37	-34,00
3669,80	-20,00
3673,23	64,00
3676,65	124,00
3680,08	69,00
3683,50	51,00
3686,92	87,00
3690,33	62,00
3693,74	134,00
3697,15	49,00
3700,56	105,00
3703,96	95,00
3707,36	-21,00
3710,76	-40,00
3714,16	48,00
3717,55	29,00
3720,94	165,00
3724,33	-52,00
3727,71	151,00
3731,10	-4,00
3734,48	67,00
3737,85	1,00
3741,23	38,00
3744,60	147,00
3747,97	166,00
3751,33	121,00
3754,69	27,00
3758,05	41,00
3761,41	128,00
3764,77	115,00
3768,12	16,00
3771,47	45,00
3774,82	69,00
3778,16	1,00
3781,50	5,00
3784,84	0,00
3788,18	0,00
>>>>>End Processed Spectral Data<<<<<
