SpectraSuite Data File
++++++++++++++++++++++++++++++++++++
Date: Tue Mar 03 12:16:04 ICT 2026
User: user
Dark Spectrum Present: Yes
Reference Spectrum Present: No
Number of Sampled Component Spectra: 1
Spectrometers: MAYP113682
Integration Time (usec): 3000000 (MAYP113682)
Spectra Averaged: 1 (MAYP113682)
Boxcar Smoothing: 0 (MAYP113682)
Correct for Electrical Dark: No (MAYP113682)
Strobe/Lamp Enabled: No (MAYP113682)
Correct for Detector Non-linearity: No (MAYP113682)
Correct for Stray Light: No (MAYP113682)
Number of Pixels in Processed Spectrum: 2068
>>>>>Begin Processed Spectral Data<<<<<
-37534,58	11,00
-37414,56	4,00
-37295,11	-1,00
-37176,24	-6,00
-37057,95	-46,00
-36940,22	14,00
-36823,05	85,00
-36706,45	11,00
-36590,40	2,00
-36474,90	98,00
-36359,95	153,00
-36245,55	103,00
-36131,68	75,00
-36018,35	85,00
-35905,55	8,00
-35793,29	-52,00
-35681,54	155,00
-35570,32	71,00
-35459,62	49,00
-35349,43	-8,00
-35239,75	38,00
-35130,58	19,00
-35021,91	112,00
-34913,74	-15,00
-34806,07	-18,00
-34698,89	39,00
-34592,20	32,00
-34486,00	42,00
-34380,28	-4,00
-34275,04	52,00
-34170,27	53,00
-34065,98	75,00
-33962,16	40,00
-33858,81	28,00
-33755,92	191,00
-33653,49	37,00
-33551,52	69,00
-33450,01	-10,00
-33348,94	2,00
-33248,33	110,00
-33148,16	66,00
-33048,43	129,00
-32949,14	7,00
-32850,29	-19,00
-32751,87	-46,00
-32653,89	-29,00
-32556,33	5,00
-32459,20	61,00
-32362,49	-17,00
-32266,19	123,00
-32170,32	-106,00
-32074,86	92,00
-31979,82	-72,00
-31885,18	72,00
-31790,95	50,00
-31697,12	53,00
-31603,69	142,00
-31510,67	60,00
-31418,04	3,00
-31325,80	167,00
-31233,95	-102,00
-31142,49	-22,00
-31051,42	123,00
-30960,73	12,00
-30870,43	-24,00
-30780,50	45,00
-30690,95	-62,00
-30601,77	161,00
-30512,97	-20,00
-30424,53	56,00
-30336,46	-55,00
-30248,76	86,00
-30161,42	27,00
-30074,44	16,00
-29987,81	-9,00
-29901,55	68,00
-29815,63	129,00
-29730,07	120,00
-29644,86	165,00
-29560,00	142,00
-29475,48	14,00
-29391,30	45,00
-29307,47	111,00
-29223,97	87,00
-29140,81	-39,00
-29057,99	16,00
-28975,50	-88,00
-28893,34	130,00
-28811,51	71,00
-28730,00	-2,00
-28648,82	93,00
-28567,97	53,00
-28487,43	-45,00
-28407,21	46,00
-28327,32	-15,00
-28247,73	65,00
-28168,46	149,00
-28089,50	24,00
-28010,85	-100,00
-27932,51	25,00
-27854,48	-45,00
-27776,75	-38,00
-27699,32	131,00
-27622,19	-2,00
-27545,37	102,00
-27468,84	63,00
-27392,60	177,00
-27316,66	79,00
-27241,01	94,00
-27165,66	74,00
-27090,59	122,00
-27015,81	96,00
-26941,31	154,00
-26867,10	11,00
-26793,17	207,00
-26719,52	71,00
-26646,15	105,00
-26573,06	160,00
-26500,24	58,00
-26427,70	-94,00
-26355,43	-58,00
-26283,43	13,00
-26211,71	49,00
-26140,25	38,00
-26069,06	41,00
-25998,13	18,00
-25927,46	110,00
-25857,06	30,00
-25786,92	49,00
-25717,04	-54,00
-25647,42	61,00
-25578,05	26,00
-25508,94	164,00
-25440,09	-98,00
-25371,48	217,00
-25303,13	61,00
-25235,02	119,00
-25167,17	46,00
-25099,56	-7,00
-25032,19	98,00
-24965,07	39,00
-24898,20	72,00
-24831,56	-14,00
-24765,17	40,00
-24699,01	80,00
-24633,10	-62,00
-24567,41	40,00
-24501,97	121,00
-24436,75	-97,00
-24371,77	112,00
-24307,03	51,00
-24242,51	89,00
-24178,22	40,00
-24114,16	-4,00
-24050,32	118,00
-23986,71	27,00
-23923,32	156,00
-23860,16	38,00
-23797,22	-38,00
-23734,50	51,00
-23672,00	42,00
-23609,71	69,00
-23547,65	4,00
-23485,80	108,00
-23424,16	193,00
-23362,74	41,00
-23301,53	-19,00
-23240,54	-35,00
-23179,75	-4,00
-23119,17	163,00
-23058,80	22,00
-22998,64	83,00
-22938,68	110,00
-22878,93	72,00
-22819,39	43,00
-22760,04	47,00
-22700,90	124,00
-22641,96	59,00
-22583,22	-53,00
-22524,68	109,00
-22466,33	11,00
-22408,19	56,00
-22350,23	169,00
-22292,48	-39,00
-22234,92	93,00
-22177,55	75,00
-22120,37	51,00
-22063,38	68,00
-22006,58	76,00
-21949,98	-56,00
-21893,56	48,00
-21837,33	-82,00
-21781,28	-35,00
-21725,42	76,00
-21669,74	-51,00
-21614,25	40,00
-21558,94	80,00
-21503,81	23,00
-21448,86	-76,00
-21394,10	84,00
-21339,51	39,00
-21285,10	-12,00
-21230,86	-69,00
-21176,81	-3,00
-21122,93	136,00
-21069,22	103,00
-21015,69	137,00
-20962,33	-20,00
-20909,14	-12,00
-20856,13	29,00
-20803,28	70,00
-20750,61	152,00
-20698,10	124,00
-20645,76	109,00
-20593,59	43,00
-20541,59	96,00
-20489,75	79,00
-20438,07	154,00
-20386,56	181,00
-20335,22	-36,00
-20284,03	43,00
-20233,01	-11,00
-20182,15	-127,00
-20131,45	163,00
-20080,91	26,00
-20030,52	115,00
-19980,30	87,00
-19930,23	26,00
-19880,32	43,00
-19830,56	115,00
-19780,96	-68,00
-19731,52	78,00
-19682,23	-51,00
-19633,09	106,00
-19584,10	81,00
-19535,26	0,00
-19486,58	144,00
-19438,04	127,00
-19389,66	74,00
-19341,42	-2,00
-19293,33	85,00
-19245,39	209,00
-19197,60	-30,00
-19149,95	104,00
-19102,45	-29,00
-19055,09	56,00
-19007,87	122,00
-18960,80	85,00
-18913,87	-5,00
-18867,09	-8,00
-18820,44	138,00
-18773,94	104,00
-18727,57	-53,00
-18681,35	115,00
-18635,26	69,00
-18589,31	116,00
-18543,50	108,00
-18497,83	52,00
-18452,29	28,00
-18406,89	62,00
-18361,63	13,00
-18316,50	-61,00
-18271,50	48,00
-18226,63	28,00
-18181,90	44,00
-18137,30	74,00
-18092,84	26,00
-18048,50	-81,00
-18004,29	-39,00
-17960,22	112,00
-17916,27	-1,00
-17872,45	-32,00
-17828,76	-50,00
-17785,20	112,00
-17741,77	-14,00
-17698,46	43,00
-17655,28	207,00
-17612,22	-15,00
-17569,29	21,00
-17526,48	-6,00
-17483,79	-2,00
-17441,23	38,00
-17398,79	-21,00
-17356,48	-76,00
-17314,28	127,00
-17272,21	-42,00
-17230,26	89,00
-17188,42	-101,00
-17146,71	113,00
-17105,12	120,00
-17063,64	5,00
-17022,28	-33,00
-16981,04	88,00
-16939,92	59,00
-16898,91	26,00
-16858,02	-50,00
-16817,25	209,00
-16776,59	30,00
-16736,04	-57,00
-16695,61	-40,00
-16655,29	92,00
-16615,09	-110,00
-16574,99	57,00
-16535,01	68,00
-16495,15	114,00
-16455,39	34,00
-16415,74	94,00
-16376,21	-43,00
-16336,78	58,00
-16297,46	52,00
-16258,26	10,00
-16219,16	-4,00
-16180,17	38,00
-16141,28	85,00
-16102,51	132,00
-16063,84	105,00
-16025,27	42,00
-15986,82	10,00
-15948,46	166,00
-15910,22	76,00
-15872,07	-1,00
-15834,04	-23,00
-15796,10	-72,00
-15758,27	-24,00
-15720,54	80,00
-15682,91	135,00
-15645,39	-23,00
-15607,97	4,00
-15570,64	64,00
-15533,42	42,00
-15496,30	32,00
-15459,28	58,00
-15422,36	62,00
-15385,54	38,00
-15348,82	-9,00
-15312,19	17,00
-15275,66	117,00
-15239,23	58,00
-15202,90	85,00
-15166,67	5,00
-15130,53	53,00
-15094,48	-18,00
-15058,54	64,00
-15022,68	101,00
-14986,93	34,00
-14951,26	57,00
-14915,69	-23,00
-14880,22	-10,00
-14844,84	-24,00
-14809,55	94,00
-14774,35	19,00
-14739,25	79,00
-14704,24	204,00
-14669,32	27,00
-14634,49	84,00
-14599,75	101,00
-14565,10	-67,00
-14530,55	40,00
-14496,08	-30,00
-14461,70	-67,00
-14427,41	94,00
-14393,21	-96,00
-14359,10	-36,00
-14325,07	-48,00
-14291,14	71,00
-14257,29	88,00
-14223,52	12,00
-14189,85	13,00
-14156,26	135,00
-14122,76	55,00
-14089,34	22,00
-14056,01	-50,00
-14022,76	-83,00
-13989,60	24,00
-13956,52	143,00
-13923,53	44,00
-13890,62	64,00
-13857,79	44,00
-13825,05	6,00
-13792,39	65,00
-13759,81	30,00
-13727,31	78,00
-13694,90	-39,00
-13662,57	42,00
-13630,31	52,00
-13598,14	42,00
-13566,05	117,00
-13534,05	83,00
-13502,12	28,00
-13470,27	113,00
-13438,50	65,00
-13406,80	47,00
-13375,19	67,00
-13343,66	53,00
-13312,20	73,00
-13280,83	62,00
-13249,53	18,00
-13218,30	93,00
-13187,16	63,00
-13156,09	108,00
-13125,10	1,00
-13094,18	-19,00
-13063,34	93,00
-13032,58	-22,00
-13001,89	149,00
-12971,28	-58,00
-12940,74	100,00
-12910,27	5,00
-12879,88	97,00
-12849,57	-10,00
-12819,33	132,00
-12789,16	-19,00
-12759,06	53,00
-12729,04	90,00
-12699,09	1770,00
-12669,21	33,00
-12639,41	-30,00
-12609,68	84,00
-12580,02	90,00
-12550,43	96,00
-12520,91	-16,00
-12491,46	131,00
-12462,08	-7,00
-12432,77	-15,00
-12403,54	-47,00
-12374,37	82,00
-12345,27	67,00
-12316,24	4,00
-12287,29	3,00
-12258,40	20,00
-12229,57	9,00
-12200,82	-10,00
-12172,14	-22,00
-12143,52	23,00
-12114,97	216,00
-12086,49	40,00
-12058,07	106,00
-12029,73	78,00
-12001,44	-49,00
-11973,23	57,00
-11945,08	-75,00
-11917,00	-25,00
-11888,98	67,00
-11861,03	-69,00
-11833,15	17,00
-11805,32	-24,00
-11777,57	-27,00
-11749,88	3,00
-11722,25	170,00
-11694,69	46,00
-11667,19	48,00
-11639,75	-41,00
-11612,38	-4,00
-11585,07	28,00
-11557,83	92,00
-11530,65	56,00
-11503,53	-1,00
-11476,47	-90,00
-11449,48	-29,00
-11422,54	40,00
-11395,67	76,00
-11368,86	164,00
-11342,11	113,00
-11315,43	99,00
-11288,80	141,00
-11262,23	-77,00
-11235,73	-43,00
-11209,28	10,00
-11182,90	162,00
-11156,57	-53,00
-11130,31	-64,00
-11104,10	92,00
-11077,96	94,00
-11051,87	-6,00
-11025,84	25,00
-10999,87	68,00
-10973,96	97,00
-10948,11	-62,00
-10922,31	45,00
-10896,58	31,00
-10870,90	-88,00
-10845,28	119,00
-10819,71	81,00
-10794,20	23,00
-10768,75	89,00
-10743,36	7,00
-10718,02	205,00
-10692,74	25,00
-10667,52	84,00
-10642,35	27,00
-10617,24	217,00
-10592,18	237,00
-10567,18	101,00
-10542,23	96,00
-10517,34	40,00
-10492,51	166,00
-10467,72	54,00
-10443,00	163,00
-10418,32	152,00
-10393,70	152,00
-10369,14	111,00
-10344,63	102,00
-10320,17	83,00
-10295,77	193,00
-10271,42	206,00
-10247,12	231,00
-10222,88	62,00
-10198,68	69,00
-10174,54	133,00
-10150,46	280,00
-10126,42	94,00
-10102,44	165,00
-10078,51	274,00
-10054,63	204,00
-10030,80	219,00
-10007,03	290,00
-9983,30	154,00
-9959,63	338,00
-9936,01	417,00
-9912,44	439,00
-9888,92	455,00
-9865,44	355,00
-9842,02	432,00
-9818,65	446,00
-9795,33	379,00
-9772,06	367,00
-9748,84	428,00
-9725,67	584,00
-9702,55	531,00
-9679,47	660,00
-9656,45	894,00
-9633,47	720,00
-9610,55	731,00
-9587,67	886,00
-9564,84	815,00
-9542,06	824,00
-9519,32	1008,00
-9496,64	1044,00
-9474,00	1012,00
-9451,41	1298,00
-9428,87	1329,00
-9406,37	1193,00
-9383,92	1156,00
-9361,52	1103,00
-9339,17	1075,00
-9316,86	1176,00
-9294,60	1241,00
-9272,38	1304,00
-9250,21	1606,00
-9228,09	1502,00
-9206,01	1475,00
-9183,98	1354,00
-9162,00	1261,00
-9140,06	927,00
-9118,16	1168,00
-9096,31	1166,00
-9074,51	1147,00
-9052,75	1255,00
-9031,04	1117,00
-9009,37	1022,00
-8987,74	882,00
-8966,16	879,00
-8944,63	760,00
-8923,14	826,00
-8901,69	699,00
-8880,29	907,00
-8858,93	987,00
-8837,61	1028,00
-8816,34	1093,00
-8795,11	1024,00
-8773,92	1028,00
-8752,78	896,00
-8731,68	849,00
-8710,62	858,00
-8689,61	919,00
-8668,63	1014,00
-8647,70	940,00
-8626,82	1062,00
-8605,97	960,00
-8585,17	1070,00
-8564,41	845,00
-8543,69	729,00
-8523,01	767,00
-8502,37	723,00
-8481,78	789,00
-8461,23	757,00
-8440,71	844,00
-8420,24	1014,00
-8399,81	1011,00
-8379,42	971,00
-8359,08	938,00
-8338,77	776,00
-8318,50	846,00
-8298,27	789,00
-8278,09	723,00
-8257,94	791,00
-8237,83	1010,00
-8217,76	1057,00
-8197,74	916,00
-8177,75	961,00
-8157,80	776,00
-8137,89	609,00
-8118,02	816,00
-8098,19	863,00
-8078,40	692,00
-8058,65	745,00
-8038,93	738,00
-8019,26	874,00
-7999,62	890,00
-7980,02	777,00
-7960,46	803,00
-7940,94	597,00
-7921,46	789,00
-7902,01	604,00
-7882,60	577,00
-7863,23	779,00
-7843,90	809,00
-7824,61	878,00
-7805,35	1024,00
-7786,13	813,00
-7766,95	770,00
-7747,80	778,00
-7728,69	776,00
-7709,62	794,00
-7690,59	844,00
-7671,59	876,00
-7652,63	904,00
-7633,70	872,00
-7614,81	810,00
-7595,96	765,00
-7577,15	800,00
-7558,37	856,00
-7539,62	650,00
-7520,91	729,00
-7502,24	788,00
-7483,60	882,00
-7465,00	793,00
-7446,44	597,00
-7427,91	629,00
-7409,41	447,00
-7390,95	544,00
-7372,53	571,00
-7354,14	529,00
-7335,78	618,00
-7317,46	561,00
-7299,18	594,00
-7280,92	698,00
-7262,71	867,00
-7244,52	975,00
-7226,38	822,00
-7208,26	906,00
-7190,18	839,00
-7172,14	795,00
-7154,12	767,00
-7136,15	697,00
-7118,20	762,00
-7100,29	933,00
-7082,41	791,00
-7064,57	794,00
-7046,76	746,00
-7028,98	625,00
-7011,24	491,00
-6993,53	542,00
-6975,85	495,00
-6958,20	384,00
-6940,59	383,00
-6923,01	445,00
-6905,46	393,00
-6887,94	590,00
-6870,46	3384,00
-6853,01	767,00
-6835,59	826,00
-6818,21	616,00
-6800,85	449,00
-6783,53	413,00
-6766,24	375,00
-6748,98	383,00
-6731,76	146,00
-6714,56	414,00
-6697,40	395,00
-6680,26	272,00
-6663,16	478,00
-6646,09	499,00
-6629,05	452,00
-6612,05	699,00
-6595,07	607,00
-6578,13	598,00
-6561,21	547,00
-6544,33	324,00
-6527,47	297,00
-6510,65	353,00
-6493,86	311,00
-6477,10	297,00
-6460,36	255,00
-6443,66	361,00
-6426,99	221,00
-6410,35	158,00
-6393,74	484,00
-6377,16	331,00
-6360,61	360,00
-6344,09	416,00
-6327,59	491,00
-6311,13	457,00
-6294,70	472,00
-6278,29	444,00
-6261,92	580,00
-6245,58	549,00
-6229,26	532,00
-6212,97	398,00
-6196,72	376,00
-6180,49	400,00
-6164,29	161,00
-6148,12	62,00
-6131,98	232,00
-6115,86	159,00
-6099,78	192,00
-6083,72	162,00
-6067,69	160,00
-6051,69	165,00
-6035,72	124,00
-6019,78	221,00
-6003,87	328,00
-5987,98	371,00
-5972,12	550,00
-5956,29	447,00
-5940,49	492,00
-5924,71	414,00
-5908,96	271,00
-5893,24	105,00
-5877,55	107,00
-5861,89	156,00
-5846,25	188,00
-5830,64	363,00
-5815,05	234,00
-5799,50	199,00
-5783,97	197,00
-5768,47	192,00
-5752,99	264,00
-5737,55	445,00
-5722,12	374,00
-5706,73	404,00
-5691,36	206,00
-5676,02	161,00
-5660,71	250,00
-5645,42	235,00
-5630,16	222,00
-5614,92	290,00
-5599,71	313,00
-5584,53	267,00
-5569,37	253,00
-5554,24	-752,00
-5539,14	270,00
-5524,06	290,00
-5509,01	296,00
-5493,98	289,00
-5478,98	379,00
-5464,00	201,00
-5449,05	260,00
-5434,13	157,00
-5419,23	335,00
-5404,36	277,00
-5389,51	389,00
-5374,69	413,00
-5359,89	495,00
-5345,12	392,00
-5330,37	296,00
-5315,65	383,00
-5300,95	293,00
-5286,28	386,00
-5271,63	303,00
-5257,01	192,00
-5242,41	117,00
-5227,84	268,00
-5213,29	191,00
-5198,76	68,00
-5184,26	127,00
-5169,79	231,00
-5155,33	195,00
-5140,91	319,00
-5126,51	361,00
-5112,13	296,00
-5097,77	241,00
-5083,44	157,00
-5069,13	170,00
-5054,85	184,00
-5040,59	213,00
-5026,36	275,00
-5012,15	312,00
-4997,96	145,00
-4983,80	252,00
-4969,66	84,00
-4955,54	217,00
-4941,44	272,00
-4927,37	337,00
-4913,33	395,00
-4899,30	406,00
-4885,30	404,00
-4871,33	274,00
-4857,37	184,00
-4843,44	164,00
-4829,53	195,00
-4815,65	215,00
-4801,79	346,00
-4787,95	264,00
-4774,13	169,00
-4760,34	216,00
-4746,56	164,00
-4732,82	57,00
-4719,09	112,00
-4705,38	295,00
-4691,70	351,00
-4678,04	335,00
-4664,41	260,00
-4650,79	229,00
-4637,20	223,00
-4623,63	167,00
-4610,08	196,00
-4596,56	274,00
-4583,05	232,00
-4569,57	328,00
-4556,11	223,00
-4542,67	175,00
-4529,25	143,00
-4515,86	197,00
-4502,49	312,00
-4489,13	354,00
-4475,80	125,00
-4462,49	155,00
-4449,21	274,00
-4435,94	66,00
-4422,70	119,00
-4409,47	268,00
-4396,27	123,00
-4383,09	274,00
-4369,93	84,00
-4356,79	116,00
-4343,67	150,00
-4330,58	218,00
-4317,50	200,00
-4304,45	128,00
-4291,41	171,00
-4278,40	142,00
-4265,41	160,00
-4252,44	120,00
-4239,49	267,00
-4226,55	120,00
-4213,65	226,00
-4200,76	163,00
-4187,89	74,00
-4175,04	44,00
-4162,21	121,00
-4149,40	76,00
-4136,61	106,00
-4123,85	11,00
-4111,10	24,00
-4098,37	219,00
-4085,66	154,00
-4072,98	17,00
-4060,31	119,00
-4047,66	25,00
-4035,04	94,00
-4022,43	127,00
-4009,84	240,00
-3997,27	61,00
-3984,72	29,00
-3972,19	47,00
-3959,69	87,00
-3947,20	17,00
-3934,73	38,00
-3922,27	23,00
-3909,84	57,00
-3897,43	108,00
-3885,04	-15,00
-3872,67	102,00
-3860,31	6,00
-3847,98	104,00
-3835,66	100,00
-3823,36	56,00
-3811,09	-11,00
-3798,83	166,00
-3786,59	37,00
-3774,37	147,00
-3762,17	-14,00
-3749,98	143,00
-3737,82	84,00
-3725,67	108,00
-3713,55	25,00
-3701,44	-44,00
-3689,35	80,00
-3677,28	6,00
-3665,22	17,00
-3653,19	86,00
-3641,17	109,00
-3629,18	5,00
-3617,20	-39,00
-3605,24	279,00
-3593,30	74,00
-3581,37	74,00
-3569,47	9,00
-3557,58	104,00
-3545,71	206,00
-3533,86	-15,00
-3522,02	-2,00
-3510,21	54,00
-3498,41	-66,00
-3486,63	38,00
-3474,87	85,00
-3463,12	70,00
-3451,40	71,00
-3439,69	45,00
-3428,00	208,00
-3416,33	128,00
-3404,67	89,00
-3393,03	59,00
-3381,41	153,00
-3369,81	203,00
-3358,22	139,00
-3346,66	-5,00
-3335,10	-154,00
-3323,57	-28,00
-3312,06	-92,00
-3300,56	60,00
-3289,08	103,00
-3277,61	77,00
-3266,16	25,00
-3254,73	0,00
-3243,32	75,00
-3231,92	46,00
-3220,55	5,00
-3209,18	138,00
-3197,84	3,00
-3186,51	39,00
-3175,20	63,00
-3163,90	-114,00
-3152,63	13,00
-3141,36	103,00
-3130,12	5,00
-3118,89	-99,00
-3107,68	62,00
-3096,49	30,00
-3085,31	98,00
-3074,15	135,00
-3063,00	35,00
-3051,87	-6,00
-3040,76	-33,00
-3029,67	3,00
-3018,59	71,00
-3007,52	120,00
-2996,48	10,00
-2985,44	72,00
-2974,43	62,00
-2963,43	-28,00
-2952,45	3,00
-2941,48	56,00
-2930,53	1,00
-2919,60	-15,00
-2908,68	126,00
-2897,78	2,00
-2886,89	-20,00
-2876,02	42,00
-2865,17	53,00
-2854,33	86,00
-2843,50	95,00
-2832,70	28,00
-2821,90	13,00
-2811,13	69,00
-2800,37	80,00
-2789,62	8,00
-2778,89	71,00
-2768,18	12,00
-2757,48	153,00
-2746,80	45,00
-2736,13	65,00
-2725,48	59,00
-2714,84	8,00
-2704,22	132,00
-2693,61	64,00
-2683,02	104,00
-2672,45	55,00
-2661,89	50,00
-2651,34	-9,00
-2640,81	11,00
-2630,30	35,00
-2619,80	0,00
-2609,31	82,00
-2598,84	-47,00
-2588,39	-12,00
-2577,95	-72,00
-2567,52	72,00
-2557,11	59,00
-2546,71	46,00
-2536,33	96,00
-2525,97	108,00
-2515,62	79,00
-2505,28	21,00
-2494,96	149,00
-2484,65	-12,00
-2474,36	-27,00
-2464,08	-9,00
-2453,82	-94,00
-2443,57	57,00
-2433,33	208,00
-2423,11	91,00
-2412,91	89,00
-2402,72	44,00
-2392,54	18,00
-2382,38	108,00
-2372,23	67,00
-2362,09	-1617,00
-2351,97	-17,00
-2341,87	72,00
-2331,78	-6,00
-2321,70	-20,00
-2311,64	152,00
-2301,59	124,00
-2291,55	56,00
-2281,53	121,00
-2271,53	108,00
-2261,53	-29,00
-2251,55	114,00
-2241,59	-35,00
-2231,64	35,00
-2221,70	-43,00
-2211,78	44,00
-2201,87	96,00
-2191,97	5,00
-2182,09	48,00
-2172,22	-21,00
-2162,37	159,00
-2152,53	36,00
-2142,70	96,00
-2132,89	43,00
-2123,09	20,00
-2113,30	170,00
-2103,53	110,00
-2093,77	27,00
-2084,02	-16,00
-2074,29	181,00
-2064,57	24,00
-2054,86	87,00
-2045,17	155,00
-2035,49	63,00
-2025,82	112,00
-2016,17	144,00
-2006,53	74,00
-1996,91	14,00
-1987,29	72,00
-1977,69	6,00
-1968,11	-34,00
-1958,53	47,00
-1948,97	80,00
-1939,42	117,00
-1929,89	117,00
-1920,37	40,00
-1910,86	68,00
-1901,36	52,00
-1891,88	23,00
-1882,41	-38,00
-1872,95	-2,00
-1863,51	-36,00
-1854,08	7,00
-1844,66	20,00
-1835,26	90,00
-1825,86	47,00
-1816,48	39,00
-1807,11	86,00
-1797,76	99,00
-1788,42	70,00
-1779,09	118,00
-1769,77	-97,00
-1760,47	180,00
-1751,17	-15,00
-1741,89	-62,00
-1732,63	-107,00
-1723,37	-32,00
-1714,13	125,00
-1704,90	144,00
-1695,68	132,00
-1686,48	51,00
-1677,29	134,00
-1668,11	32,00
-1658,94	69,00
-1649,78	-40,00
-1640,64	100,00
-1631,51	0,00
-1622,39	7,00
-1613,28	-116,00
-1604,19	25,00
-1595,10	145,00
-1586,03	40,00
-1576,97	-53,00
-1567,93	-40,00
-1558,89	72,00
-1549,87	-13,00
-1540,86	169,00
-1531,86	31,00
-1522,87	5,00
-1513,90	24,00
-1504,93	14,00
-1495,98	70,00
-1487,04	72,00
-1478,12	66,00
-1469,20	-113,00
-1460,30	65,00
-1451,40	146,00
-1442,52	177,00
-1433,65	69,00
-1424,80	5,00
-1415,95	166,00
-1407,12	-3,00
-1398,30	2,00
-1389,48	-28,00
-1380,69	36,00
-1371,90	11,00
-1363,12	32,00
-1354,36	18,00
-1345,60	60,00
-1336,86	76,00
-1328,13	85,00
-1319,41	-22,00
-1310,70	78,00
-1302,01	-10,00
-1293,32	59,00
-1284,65	76,00
-1275,99	70,00
-1267,33	50,00
-1258,69	19,00
-1250,06	86,00
-1241,45	65,00
-1232,84	-36,00
-1224,25	33,00
-1215,66	65,00
-1207,09	-54,00
-1198,53	60,00
-1189,97	33,00
-1181,43	-71,00
-1172,91	-58,00
-1164,39	88,00
-1155,88	-30,00
-1147,38	-43,00
-1138,90	-127,00
-1130,43	117,00
-1121,96	96,00
-1113,51	74,00
-1105,07	20,00
-1096,64	112,00
-1088,22	14,00
-1079,81	36,00
-1071,41	85,00
-1063,02	171,00
-1054,65	20,00
-1046,28	45,00
-1037,92	-78,00
-1029,58	136,00
-1021,24	52,00
-1012,92	24,00
-1004,61	9,00
-996,30	-34,00
-988,01	-30,00
-979,73	100,00
-971,46	104,00
-963,20	44,00
-954,95	-67,00
-946,71	49,00
-938,48	275,00
-930,26	24,00
-922,06	67,00
-913,86	115,00
-905,67	122,00
-897,49	161,00
-889,33	90,00
-881,17	101,00
-873,02	208,00
-864,89	-1,00
-856,76	114,00
-848,65	71,00
-840,54	-39,00
-832,45	88,00
-824,36	91,00
-816,29	-6,00
-808,22	33,00
-800,17	26,00
-792,12	-64,00
-784,09	112,00
-776,06	108,00
-768,05	26,00
-760,04	32,00
-752,05	117,00
-744,07	138,00
-736,09	154,00
-728,13	-59,00
-720,17	51,00
-712,23	-8,00
-704,29	33,00
-696,37	50,00
-688,45	102,00
-680,55	129,00
-672,65	80,00
-664,77	70,00
-656,89	160,00
-649,03	110,00
-641,17	69,00
-633,32	65,00
-625,49	75,00
-617,66	42,00
-609,84	-17,00
-602,03	13,00
-594,23	13,00
-586,45	131,00
-578,67	59,00
-570,90	-16,00
-563,14	-48,00
-555,39	156,00
-547,65	60,00
-539,91	92,00
-532,19	93,00
-524,48	68,00
-516,78	8,00
-509,08	-32,00
-501,40	67,00
-493,72	36,00
-486,06	69,00
-478,40	-12,00
-470,76	120,00
-463,12	66,00
-455,49	113,00
-447,87	121,00
-440,26	-4,00
-432,66	85,00
-425,07	53,00
-417,49	48,00
-409,92	30,00
-402,35	89,00
-394,80	111,00
-387,25	29,00
-379,72	-56,00
-372,19	30,00
-364,67	105,00
-357,17	151,00
-349,67	34,00
-342,18	100,00
-334,69	42,00
-327,22	178,00
-319,76	91,00
-312,30	217,00
-304,86	29,00
-297,42	153,00
-290,00	99,00
-282,58	124,00
-275,17	38,00
-267,77	34,00
-260,37	3,00
-252,99	90,00
-245,62	181,00
-238,25	177,00
-230,90	137,00
-223,55	133,00
-216,21	231,00
-208,88	306,00
-201,56	201,00
-194,25	435,00
-186,94	365,00
-179,65	295,00
-172,36	413,00
-165,08	373,00
-157,81	333,00
-150,55	435,00
-143,30	416,00
-136,06	500,00
-128,82	480,00
-121,60	438,00
-114,38	504,00
-107,17	771,00
-99,97	961,00
-92,78	871,00
-85,60	920,00
-78,42	1152,00
-71,25	1334,00
-64,10	1506,00
-56,95	1959,00
-49,81	2395,00
-42,67	2773,00
-35,55	3635,00
-28,43	4648,00
-21,33	8193,00
-14,23	28378,00
-7,14	54235,00
-0,05	53890,00
7,02	53525,00
14,09	53899,00
21,14	20509,00
28,19	8758,00
35,23	5571,00
42,27	4265,00
49,29	3579,00
56,31	3033,00
63,32	2599,00
70,32	1901,00
77,31	1896,00
84,29	1516,00
91,27	1378,00
98,23	1236,00
105,19	1200,00
112,14	1409,00
119,09	2107,00
126,02	3396,00
132,95	4307,00
139,87	4281,00
146,78	4373,00
153,68	4314,00
160,58	4152,00
167,46	4207,00
174,34	4241,00
181,21	4128,00
188,08	4113,00
194,93	4152,00
201,78	4132,00
208,62	3950,00
215,45	4035,00
222,27	4075,00
229,09	4121,00
235,90	4148,00
242,70	3945,00
249,49	3927,00
256,27	3808,00
263,05	3942,00
269,82	3952,00
276,58	3867,00
283,33	3883,00
290,08	3958,00
296,82	3650,00
303,55	3798,00
310,27	3727,00
316,98	3631,00
323,69	3542,00
330,39	3624,00
337,08	3565,00
343,76	3595,00
350,44	3549,00
357,11	3664,00
363,77	3525,00
370,42	3453,00
377,07	3411,00
383,71	3482,00
390,34	3344,00
396,96	3476,00
403,58	3534,00
410,19	3474,00
416,79	3400,00
423,38	3600,00
429,97	3316,00
436,55	3255,00
443,12	3181,00
449,68	3017,00
456,24	3304,00
462,79	3247,00
469,33	3176,00
475,86	3012,00
482,39	3041,00
488,91	3176,00
495,42	3065,00
501,93	3114,00
508,42	2932,00
514,91	2884,00
521,40	2852,00
527,87	2815,00
534,34	2940,00
540,80	2843,00
547,25	2952,00
553,70	2867,00
560,14	2833,00
566,57	2831,00
573,00	2837,00
579,41	2761,00
585,83	2779,00
592,23	2697,00
598,62	2651,00
605,01	2610,00
611,40	2778,00
617,77	2599,00
624,14	2756,00
630,50	2641,00
636,85	2627,00
643,20	2559,00
649,54	2540,00
655,87	2596,00
662,20	2325,00
668,52	2413,00
674,83	2390,00
681,13	2565,00
687,43	2540,00
693,72	2437,00
700,00	2424,00
706,28	2581,00
712,55	2477,00
718,81	2421,00
725,07	2410,00
731,32	2405,00
737,56	2458,00
743,79	2392,00
750,02	2438,00
756,24	2193,00
762,46	2271,00
768,67	2299,00
774,87	2392,00
781,06	2298,00
787,25	2103,00
793,43	2307,00
799,60	2298,00
805,77	2180,00
811,93	2256,00
818,08	2214,00
824,23	2243,00
830,37	2237,00
836,50	2207,00
842,63	2204,00
848,75	2152,00
854,87	2007,00
860,97	2178,00
867,07	2071,00
873,17	2196,00
879,25	2129,00
885,33	2108,00
891,41	2073,00
897,47	2149,00
903,53	2064,00
909,59	1951,00
915,63	1944,00
921,67	2013,00
927,71	1895,00
933,74	1897,00
939,76	1921,00
945,77	1965,00
951,78	1864,00
957,78	1994,00
963,78	1933,00
969,77	1964,00
975,75	1904,00
981,72	1911,00
987,69	1844,00
993,66	1888,00
999,61	1984,00
1005,56	1965,00
1011,51	2016,00
1017,44	1896,00
1023,37	1878,00
1029,30	1970,00
1035,22	1851,00
1041,13	2017,00
1047,03	2075,00
1052,93	2060,00
1058,83	2397,00
1064,71	2435,00
1070,59	2333,00
1076,47	2081,00
1082,33	2029,00
1088,20	1902,00
1094,05	2006,00
1099,90	1912,00
1105,74	1958,00
1111,58	1934,00
1117,41	1810,00
1123,23	2157,00
1129,05	2188,00
1134,86	2022,00
1140,67	1877,00
1146,47	1832,00
1152,26	1853,00
1158,05	1877,00
1163,83	1818,00
1169,60	1813,00
1175,37	1832,00
1181,13	1760,00
1186,89	1541,00
1192,64	1815,00
1198,38	1778,00
1204,12	1672,00
1209,85	1686,00
1215,58	1650,00
1221,30	1753,00
1227,02	1575,00
1232,72	1727,00
1238,43	1666,00
1244,12	1732,00
1249,81	1781,00
1255,50	1747,00
1261,17	1770,00
1266,85	1792,00
1272,51	1858,00
1278,17	1948,00
1283,83	1878,00
1289,47	2243,00
1295,12	2616,00
1300,75	2582,00
1306,38	2362,00
1312,01	2038,00
1317,63	1988,00
1323,24	1978,00
1328,85	1852,00
1334,45	1701,00
1340,04	1722,00
1345,63	1804,00
1351,22	1878,00
1356,80	1811,00
1362,37	2044,00
1367,93	1838,00
1373,49	1925,00
1379,05	1835,00
1384,60	1836,00
1390,14	1754,00
1395,68	1730,00
1401,21	1794,00
1406,74	1794,00
1412,26	2031,00
1417,77	2137,00
1423,28	2041,00
1428,78	2302,00
1434,28	2403,00
1439,77	2784,00
1445,26	2773,00
1450,74	2608,00
1456,22	2443,00
1461,68	2302,00
1467,15	2013,00
1472,61	2151,00
1478,06	2069,00
1483,51	1900,00
1488,95	1749,00
1494,38	1681,00
1499,81	1785,00
1505,24	1718,00
1510,65	1748,00
1516,07	1735,00
1521,48	1532,00
1526,88	1503,00
1532,27	1497,00
1537,67	1530,00
1543,05	1567,00
1548,43	1553,00
1553,81	1615,00
1559,18	1441,00
1564,54	1531,00
1569,90	1572,00
1575,25	1488,00
1580,60	1432,00
1585,94	1402,00
1591,28	1442,00
1596,61	1431,00
1601,93	1402,00
1607,25	1510,00
1612,57	1336,00
1617,88	1427,00
1623,18	1377,00
1628,48	1390,00
1633,77	1382,00
1639,06	1472,00
1644,34	1381,00
1649,62	1401,00
1654,89	1312,00
1660,16	1230,00
1665,42	1380,00
1670,67	1233,00
1675,92	1197,00
1681,17	1232,00
1686,41	1185,00
1691,64	1202,00
1696,87	1224,00
1702,10	1282,00
1707,32	1158,00
1712,53	1384,00
1717,74	1197,00
1722,94	1140,00
1728,14	1180,00
1733,33	1144,00
1738,52	1058,00
1743,70	1211,00
1748,88	1131,00
1754,05	1142,00
1759,22	1188,00
1764,38	2693,00
1769,53	1000,00
1774,69	1254,00
1779,83	1038,00
1784,97	1121,00
1790,11	1150,00
1795,24	1120,00
1800,36	1013,00
1805,48	1002,00
1810,60	1035,00
1815,71	988,00
1820,82	1049,00
1825,92	1088,00
1831,01	960,00
1836,10	1081,00
1841,19	938,00
1846,26	965,00
1851,34	1048,00
1856,41	995,00
1861,47	939,00
1866,53	1035,00
1871,59	1152,00
1876,64	959,00
1881,68	1178,00
1886,72	861,00
1891,76	1079,00
1896,79	954,00
1901,81	934,00
1906,83	1040,00
1911,85	923,00
1916,86	944,00
1921,86	837,00
1926,86	821,00
1931,86	822,00
1936,85	772,00
1941,83	883,00
1946,81	885,00
1951,79	842,00
1956,76	818,00
1961,72	826,00
1966,68	800,00
1971,64	787,00
1976,59	787,00
1981,54	793,00
1986,48	728,00
1991,42	784,00
1996,35	697,00
2001,27	659,00
2006,20	738,00
2011,11	672,00
2016,03	828,00
2020,93	615,00
2025,84	745,00
2030,73	672,00
2035,63	651,00
2040,52	609,00
2045,40	772,00
2050,28	603,00
2055,15	712,00
2060,02	648,00
2064,89	639,00
2069,75	650,00
2074,60	725,00
2079,46	732,00
2084,30	683,00
2089,14	714,00
2093,98	709,00
2098,81	679,00
2103,64	630,00
2108,46	533,00
2113,28	745,00
2118,09	560,00
2122,90	633,00
2127,70	616,00
2132,50	564,00
2137,30	668,00
2142,09	676,00
2146,87	461,00
2151,66	668,00
2156,43	738,00
2161,20	686,00
2165,97	517,00
2170,73	670,00
2175,49	645,00
2180,24	493,00
2184,99	624,00
2189,74	557,00
2194,48	519,00
2199,21	464,00
2203,94	576,00
2208,67	678,00
2213,39	487,00
2218,11	596,00
2222,82	573,00
2227,53	629,00
2232,23	508,00
2236,93	430,00
2241,63	519,00
2246,32	578,00
2251,00	534,00
2255,68	502,00
2260,36	462,00
2265,03	488,00
2269,70	470,00
2274,36	516,00
2279,02	452,00
2283,68	433,00
2288,33	460,00
2292,97	513,00
2297,61	483,00
2302,25	467,00
2306,88	569,00
2311,51	538,00
2316,14	422,00
2320,75	474,00
2325,37	415,00
2329,98	407,00
2334,59	392,00
2339,19	501,00
2343,79	352,00
2348,38	453,00
2352,97	431,00
2357,55	447,00
2362,13	387,00
2366,71	418,00
2371,28	427,00
2375,85	481,00
2380,41	479,00
2384,97	248,00
2389,52	380,00
2394,07	472,00
2398,62	468,00
2403,16	361,00
2407,70	424,00
2412,23	297,00
2416,76	522,00
2421,29	487,00
2425,81	448,00
2430,32	458,00
2434,84	355,00
2439,34	401,00
2443,85	500,00
2448,35	356,00
2452,84	229,00
2457,33	447,00
2461,82	298,00
2466,30	227,00
2470,78	421,00
2475,25	321,00
2479,72	434,00
2484,19	335,00
2488,65	301,00
2493,11	328,00
2497,56	283,00
2502,01	392,00
2506,46	335,00
2510,90	450,00
2515,34	466,00
2519,77	318,00
2524,20	362,00
2528,62	290,00
2533,04	366,00
2537,46	196,00
2541,87	350,00
2546,28	205,00
2550,68	368,00
2555,08	214,00
2559,48	383,00
2563,87	331,00
2568,26	317,00
2572,64	502,00
2577,02	398,00
2581,40	282,00
2585,77	197,00
2590,14	371,00
2594,50	327,00
2598,86	323,00
2603,22	305,00
2607,57	268,00
2611,92	215,00
2616,26	309,00
2620,60	348,00
2624,94	240,00
2629,27	312,00
2633,60	292,00
2637,92	372,00
2642,24	366,00
2646,56	287,00
2650,87	291,00
2655,18	177,00
2659,48	219,00
2663,78	240,00
2668,08	262,00
2672,37	296,00
2676,66	253,00
2680,95	366,00
2685,23	370,00
2689,50	266,00
2693,78	354,00
2698,05	386,00
2702,31	392,00
2706,57	358,00
2710,83	368,00
2715,08	370,00
2719,33	294,00
2723,58	373,00
2727,82	311,00
2732,06	391,00
2736,29	408,00
2740,53	405,00
2744,75	439,00
2748,97	314,00
2753,19	369,00
2757,41	201,00
2761,62	305,00
2765,83	373,00
2770,03	361,00
2774,23	346,00
2778,43	364,00
2782,62	335,00
2786,81	274,00
2791,00	334,00
2795,18	383,00
2799,35	476,00
2803,53	399,00
2807,70	258,00
2811,86	488,00
2816,03	608,00
2820,19	469,00
2824,34	497,00
2828,49	702,00
2832,64	670,00
2836,78	947,00
2840,92	946,00
2845,06	1283,00
2849,19	1335,00
2853,32	1475,00
2857,45	1402,00
2861,57	1351,00
2865,69	1382,00
2869,80	1356,00
2873,91	1325,00
2878,02	1566,00
2882,12	1551,00
2886,22	1618,00
2890,32	1486,00
2894,41	1436,00
2898,50	1292,00
2902,58	1309,00
2906,67	1122,00
2910,74	1005,00
2914,82	1103,00
2918,89	991,00
2922,96	953,00
2927,02	828,00
2931,08	753,00
2935,13	856,00
2939,19	629,00
2943,24	711,00
2947,28	573,00
2951,32	485,00
2955,36	540,00
2959,40	425,00
2963,43	527,00
2967,46	415,00
2971,48	392,00
2975,50	342,00
2979,52	327,00
2983,53	351,00
2987,54	182,00
2991,55	217,00
2995,55	262,00
2999,55	194,00
3003,54	153,00
3007,54	89,00
3011,53	304,00
3015,51	225,00
3019,49	199,00
3023,47	173,00
3027,45	259,00
3031,42	256,00
3035,39	233,00
3039,35	222,00
3043,31	140,00
3047,27	269,00
3051,22	156,00
3055,17	132,00
3059,12	188,00
3063,06	147,00
3067,00	169,00
3070,94	210,00
3074,87	200,00
3078,80	80,00
3082,73	250,00
3086,65	152,00
3090,57	101,00
3094,49	246,00
3098,40	297,00
3102,31	80,00
3106,22	96,00
3110,12	90,00
3114,02	80,00
3117,92	202,00
3121,81	42,00
3125,70	37,00
3129,58	59,00
3133,47	137,00
3137,34	160,00
3141,22	22,00
3145,09	147,00
3148,96	160,00
3152,83	182,00
3156,69	66,00
3160,55	211,00
3164,40	231,00
3168,26	121,00
3172,10	96,00
3175,95	99,00
3179,79	103,00
3183,63	71,00
3187,47	43,00
3191,30	115,00
3195,13	178,00
3198,95	149,00
3202,78	108,00
3206,60	38,00
3210,41	182,00
3214,23	243,00
3218,03	179,00
3221,84	128,00
3225,64	230,00
3229,44	99,00
3233,24	242,00
3237,03	73,00
3240,82	79,00
3244,61	37,00
3248,39	-15,00
3252,17	75,00
3255,95	125,00
3259,72	89,00
3263,49	77,00
3267,26	184,00
3271,03	173,00
3274,79	56,00
3278,54	184,00
3282,30	152,00
3286,05	130,00
3289,80	56,00
3293,54	256,00
3297,29	69,00
3301,02	126,00
3304,76	132,00
3308,49	-8,00
3312,22	135,00
3315,95	-4,00
3319,67	52,00
3323,39	40,00
3327,10	67,00
3330,82	126,00
3334,53	85,00
3338,24	133,00
3341,94	46,00
3345,64	174,00
3349,34	93,00
3353,03	124,00
3356,72	84,00
3360,41	166,00
3364,10	16,00
3367,78	60,00
3371,46	81,00
3375,13	155,00
3378,81	67,00
3382,48	180,00
3386,14	115,00
3389,81	-28,00
3393,47	168,00
3397,12	55,00
3400,78	83,00
3404,43	82,00
3408,08	-25,00
3411,72	73,00
3415,36	149,00
3419,00	43,00
3422,64	88,00
3426,27	26,00
3429,90	196,00
3433,53	67,00
3437,15	112,00
3440,77	180,00
3444,39	48,00
3448,00	43,00
3451,62	13,00
3455,22	138,00
3458,83	220,00
3462,43	80,00
3466,03	153,00
3469,63	41,00
3473,22	43,00
3476,81	-1,00
3480,40	-23,00
3483,99	-81,00
3487,57	-20,00
3491,15	76,00
3494,72	34,00
3498,29	78,00
3501,86	78,00
3505,43	84,00
3508,99	177,00
3512,56	20,00
3516,11	153,00
3519,67	-26,00
3523,22	-39,00
3526,77	-7,00
3530,32	64,00
3533,86	139,00
3537,40	89,00
3540,94	-43,00
3544,47	-57,00
3548,00	61,00
3551,53	39,00
3555,06	35,00
3558,58	52,00
3562,10	21,00
3565,62	-80,00
3569,13	-24,00
3572,64	-24,00
3576,15	20,00
3579,66	138,00
3583,16	188,00
3586,66	71,00
3590,16	101,00
3593,65	128,00
3597,14	16,00
3600,63	11,00
3604,11	102,00
3607,60	103,00
3611,08	134,00
3614,55	155,00
3618,03	53,00
3621,50	48,00
3624,97	51,00
3628,43	-6,00
3631,90	41,00
3635,36	48,00
3638,81	-23,00
3642,27	106,00
3645,72	-25,00
3649,17	-3,00
3652,61	66,00
3656,06	-32,00
3659,50	74,00
3662,93	74,00
3666,37	106,00
3669,80	235,00
3673,23	31,00
3676,65	144,00
3680,08	72,00
3683,50	-19,00
3686,92	112,00
3690,33	115,00
3693,74	9,00
3697,15	61,00
3700,56	79,00
3703,96	6,00
3707,36	85,00
3710,76	-27,00
3714,16	31,00
3717,55	109,00
3720,94	56,00
3724,33	31,00
3727,71	122,00
3731,10	49,00
3734,48	93,00
3737,85	84,00
3741,23	103,00
3744,60	67,00
3747,97	-1,00
3751,33	114,00
3754,69	88,00
3758,05	12,00
3761,41	61,00
3764,77	-50,00
3768,12	9,00
3771,47	1,00
3774,82	55,00
3778,16	6,00
3781,50	-5,00
3784,84	0,00
3788,18	0,00
>>>>>End Processed Spectral Data<<<<<
