SpectraSuite Data File
++++++++++++++++++++++++++++++++++++
Date: Tue Mar 03 10:30:59 ICT 2026
User: user
Dark Spectrum Present: Yes
Reference Spectrum Present: No
Number of Sampled Component Spectra: 1
Spectrometers: MAYP113682
Integration Time (usec): 3000000 (MAYP113682)
Spectra Averaged: 1 (MAYP113682)
Boxcar Smoothing: 0 (MAYP113682)
Correct for Electrical Dark: No (MAYP113682)
Strobe/Lamp Enabled: No (MAYP113682)
Correct for Detector Non-linearity: No (MAYP113682)
Correct for Stray Light: No (MAYP113682)
Number of Pixels in Processed Spectrum: 2068
>>>>>Begin Processed Spectral Data<<<<<
-37534,58	23,00
-37414,56	0,00
-37295,11	6,00
-37176,24	7,00
-37057,95	364,00
-36940,22	446,00
-36823,05	491,00
-36706,45	551,00
-36590,40	518,00
-36474,90	485,00
-36359,95	455,00
-36245,55	463,00
-36131,68	506,00
-36018,35	563,00
-35905,55	496,00
-35793,29	579,00
-35681,54	503,00
-35570,32	424,00
-35459,62	521,00
-35349,43	570,00
-35239,75	636,00
-35130,58	497,00
-35021,91	516,00
-34913,74	521,00
-34806,07	479,00
-34698,89	550,00
-34592,20	540,00
-34486,00	541,00
-34380,28	601,00
-34275,04	475,00
-34170,27	422,00
-34065,98	561,00
-33962,16	535,00
-33858,81	572,00
-33755,92	618,00
-33653,49	616,00
-33551,52	643,00
-33450,01	592,00
-33348,94	652,00
-33248,33	595,00
-33148,16	508,00
-33048,43	594,00
-32949,14	639,00
-32850,29	632,00
-32751,87	443,00
-32653,89	613,00
-32556,33	603,00
-32459,20	552,00
-32362,49	515,00
-32266,19	573,00
-32170,32	637,00
-32074,86	540,00
-31979,82	578,00
-31885,18	572,00
-31790,95	719,00
-31697,12	511,00
-31603,69	552,00
-31510,67	741,00
-31418,04	638,00
-31325,80	596,00
-31233,95	613,00
-31142,49	561,00
-31051,42	560,00
-30960,73	664,00
-30870,43	575,00
-30780,50	460,00
-30690,95	590,00
-30601,77	573,00
-30512,97	558,00
-30424,53	508,00
-30336,46	677,00
-30248,76	485,00
-30161,42	566,00
-30074,44	599,00
-29987,81	596,00
-29901,55	575,00
-29815,63	603,00
-29730,07	628,00
-29644,86	548,00
-29560,00	683,00
-29475,48	532,00
-29391,30	570,00
-29307,47	495,00
-29223,97	666,00
-29140,81	548,00
-29057,99	598,00
-28975,50	636,00
-28893,34	748,00
-28811,51	486,00
-28730,00	467,00
-28648,82	499,00
-28567,97	608,00
-28487,43	556,00
-28407,21	543,00
-28327,32	616,00
-28247,73	679,00
-28168,46	607,00
-28089,50	509,00
-28010,85	567,00
-27932,51	578,00
-27854,48	550,00
-27776,75	538,00
-27699,32	623,00
-27622,19	597,00
-27545,37	589,00
-27468,84	660,00
-27392,60	536,00
-27316,66	551,00
-27241,01	597,00
-27165,66	629,00
-27090,59	585,00
-27015,81	599,00
-26941,31	688,00
-26867,10	617,00
-26793,17	569,00
-26719,52	648,00
-26646,15	573,00
-26573,06	606,00
-26500,24	603,00
-26427,70	548,00
-26355,43	612,00
-26283,43	551,00
-26211,71	545,00
-26140,25	545,00
-26069,06	776,00
-25998,13	557,00
-25927,46	605,00
-25857,06	556,00
-25786,92	553,00
-25717,04	554,00
-25647,42	706,00
-25578,05	533,00
-25508,94	597,00
-25440,09	601,00
-25371,48	570,00
-25303,13	546,00
-25235,02	521,00
-25167,17	602,00
-25099,56	547,00
-25032,19	535,00
-24965,07	595,00
-24898,20	484,00
-24831,56	636,00
-24765,17	551,00
-24699,01	582,00
-24633,10	512,00
-24567,41	594,00
-24501,97	706,00
-24436,75	460,00
-24371,77	562,00
-24307,03	607,00
-24242,51	524,00
-24178,22	541,00
-24114,16	555,00
-24050,32	702,00
-23986,71	593,00
-23923,32	508,00
-23860,16	467,00
-23797,22	596,00
-23734,50	634,00
-23672,00	514,00
-23609,71	606,00
-23547,65	595,00
-23485,80	589,00
-23424,16	529,00
-23362,74	583,00
-23301,53	652,00
-23240,54	495,00
-23179,75	580,00
-23119,17	570,00
-23058,80	614,00
-22998,64	511,00
-22938,68	529,00
-22878,93	612,00
-22819,39	536,00
-22760,04	558,00
-22700,90	696,00
-22641,96	449,00
-22583,22	603,00
-22524,68	530,00
-22466,33	529,00
-22408,19	523,00
-22350,23	516,00
-22292,48	469,00
-22234,92	590,00
-22177,55	716,00
-22120,37	635,00
-22063,38	634,00
-22006,58	607,00
-21949,98	496,00
-21893,56	540,00
-21837,33	471,00
-21781,28	728,00
-21725,42	522,00
-21669,74	603,00
-21614,25	568,00
-21558,94	581,00
-21503,81	637,00
-21448,86	651,00
-21394,10	576,00
-21339,51	478,00
-21285,10	470,00
-21230,86	478,00
-21176,81	485,00
-21122,93	511,00
-21069,22	556,00
-21015,69	581,00
-20962,33	560,00
-20909,14	469,00
-20856,13	664,00
-20803,28	545,00
-20750,61	493,00
-20698,10	542,00
-20645,76	496,00
-20593,59	665,00
-20541,59	596,00
-20489,75	543,00
-20438,07	501,00
-20386,56	542,00
-20335,22	643,00
-20284,03	403,00
-20233,01	497,00
-20182,15	560,00
-20131,45	535,00
-20080,91	572,00
-20030,52	481,00
-19980,30	573,00
-19930,23	580,00
-19880,32	629,00
-19830,56	585,00
-19780,96	516,00
-19731,52	465,00
-19682,23	538,00
-19633,09	547,00
-19584,10	529,00
-19535,26	483,00
-19486,58	677,00
-19438,04	598,00
-19389,66	512,00
-19341,42	512,00
-19293,33	526,00
-19245,39	702,00
-19197,60	598,00
-19149,95	632,00
-19102,45	596,00
-19055,09	610,00
-19007,87	543,00
-18960,80	593,00
-18913,87	732,00
-18867,09	523,00
-18820,44	523,00
-18773,94	548,00
-18727,57	627,00
-18681,35	608,00
-18635,26	538,00
-18589,31	463,00
-18543,50	520,00
-18497,83	524,00
-18452,29	531,00
-18406,89	490,00
-18361,63	624,00
-18316,50	565,00
-18271,50	501,00
-18226,63	615,00
-18181,90	513,00
-18137,30	565,00
-18092,84	601,00
-18048,50	545,00
-18004,29	488,00
-17960,22	539,00
-17916,27	550,00
-17872,45	594,00
-17828,76	503,00
-17785,20	620,00
-17741,77	516,00
-17698,46	486,00
-17655,28	514,00
-17612,22	516,00
-17569,29	564,00
-17526,48	564,00
-17483,79	432,00
-17441,23	527,00
-17398,79	450,00
-17356,48	456,00
-17314,28	717,00
-17272,21	574,00
-17230,26	565,00
-17188,42	616,00
-17146,71	552,00
-17105,12	593,00
-17063,64	634,00
-17022,28	506,00
-16981,04	630,00
-16939,92	532,00
-16898,91	628,00
-16858,02	572,00
-16817,25	626,00
-16776,59	483,00
-16736,04	594,00
-16695,61	578,00
-16655,29	481,00
-16615,09	613,00
-16574,99	596,00
-16535,01	505,00
-16495,15	538,00
-16455,39	561,00
-16415,74	587,00
-16376,21	682,00
-16336,78	517,00
-16297,46	487,00
-16258,26	592,00
-16219,16	450,00
-16180,17	506,00
-16141,28	580,00
-16102,51	499,00
-16063,84	513,00
-16025,27	511,00
-15986,82	460,00
-15948,46	507,00
-15910,22	587,00
-15872,07	519,00
-15834,04	493,00
-15796,10	538,00
-15758,27	674,00
-15720,54	551,00
-15682,91	639,00
-15645,39	657,00
-15607,97	472,00
-15570,64	597,00
-15533,42	568,00
-15496,30	466,00
-15459,28	644,00
-15422,36	480,00
-15385,54	522,00
-15348,82	701,00
-15312,19	608,00
-15275,66	559,00
-15239,23	558,00
-15202,90	572,00
-15166,67	489,00
-15130,53	522,00
-15094,48	584,00
-15058,54	569,00
-15022,68	480,00
-14986,93	558,00
-14951,26	540,00
-14915,69	593,00
-14880,22	570,00
-14844,84	548,00
-14809,55	516,00
-14774,35	504,00
-14739,25	569,00
-14704,24	529,00
-14669,32	557,00
-14634,49	608,00
-14599,75	589,00
-14565,10	544,00
-14530,55	621,00
-14496,08	553,00
-14461,70	515,00
-14427,41	549,00
-14393,21	505,00
-14359,10	578,00
-14325,07	607,00
-14291,14	597,00
-14257,29	635,00
-14223,52	576,00
-14189,85	668,00
-14156,26	500,00
-14122,76	537,00
-14089,34	512,00
-14056,01	540,00
-14022,76	673,00
-13989,60	507,00
-13956,52	443,00
-13923,53	595,00
-13890,62	650,00
-13857,79	602,00
-13825,05	619,00
-13792,39	534,00
-13759,81	585,00
-13727,31	523,00
-13694,90	503,00
-13662,57	617,00
-13630,31	591,00
-13598,14	497,00
-13566,05	474,00
-13534,05	559,00
-13502,12	504,00
-13470,27	576,00
-13438,50	611,00
-13406,80	629,00
-13375,19	494,00
-13343,66	543,00
-13312,20	537,00
-13280,83	507,00
-13249,53	543,00
-13218,30	525,00
-13187,16	527,00
-13156,09	707,00
-13125,10	627,00
-13094,18	592,00
-13063,34	723,00
-13032,58	472,00
-13001,89	543,00
-12971,28	576,00
-12940,74	634,00
-12910,27	507,00
-12879,88	648,00
-12849,57	637,00
-12819,33	576,00
-12789,16	487,00
-12759,06	639,00
-12729,04	491,00
-12699,09	2287,00
-12669,21	480,00
-12639,41	534,00
-12609,68	513,00
-12580,02	508,00
-12550,43	658,00
-12520,91	570,00
-12491,46	537,00
-12462,08	588,00
-12432,77	585,00
-12403,54	478,00
-12374,37	587,00
-12345,27	545,00
-12316,24	544,00
-12287,29	556,00
-12258,40	474,00
-12229,57	525,00
-12200,82	528,00
-12172,14	471,00
-12143,52	464,00
-12114,97	502,00
-12086,49	583,00
-12058,07	609,00
-12029,73	584,00
-12001,44	689,00
-11973,23	500,00
-11945,08	654,00
-11917,00	604,00
-11888,98	592,00
-11861,03	491,00
-11833,15	638,00
-11805,32	592,00
-11777,57	611,00
-11749,88	672,00
-11722,25	529,00
-11694,69	505,00
-11667,19	616,00
-11639,75	695,00
-11612,38	583,00
-11585,07	576,00
-11557,83	603,00
-11530,65	623,00
-11503,53	557,00
-11476,47	615,00
-11449,48	517,00
-11422,54	592,00
-11395,67	595,00
-11368,86	546,00
-11342,11	598,00
-11315,43	591,00
-11288,80	536,00
-11262,23	673,00
-11235,73	615,00
-11209,28	576,00
-11182,90	678,00
-11156,57	612,00
-11130,31	608,00
-11104,10	660,00
-11077,96	595,00
-11051,87	593,00
-11025,84	594,00
-10999,87	599,00
-10973,96	570,00
-10948,11	596,00
-10922,31	570,00
-10896,58	556,00
-10870,90	695,00
-10845,28	617,00
-10819,71	430,00
-10794,20	652,00
-10768,75	647,00
-10743,36	674,00
-10718,02	502,00
-10692,74	553,00
-10667,52	535,00
-10642,35	676,00
-10617,24	603,00
-10592,18	685,00
-10567,18	721,00
-10542,23	673,00
-10517,34	687,00
-10492,51	572,00
-10467,72	622,00
-10443,00	687,00
-10418,32	677,00
-10393,70	660,00
-10369,14	717,00
-10344,63	718,00
-10320,17	712,00
-10295,77	672,00
-10271,42	840,00
-10247,12	730,00
-10222,88	775,00
-10198,68	647,00
-10174,54	804,00
-10150,46	898,00
-10126,42	896,00
-10102,44	973,00
-10078,51	933,00
-10054,63	1018,00
-10030,80	973,00
-10007,03	1047,00
-9983,30	1048,00
-9959,63	1041,00
-9936,01	1087,00
-9912,44	1056,00
-9888,92	1059,00
-9865,44	980,00
-9842,02	1193,00
-9818,65	1183,00
-9795,33	1102,00
-9772,06	1140,00
-9748,84	1185,00
-9725,67	1297,00
-9702,55	1464,00
-9679,47	1644,00
-9656,45	1725,00
-9633,47	1682,00
-9610,55	1737,00
-9587,67	1862,00
-9564,84	1951,00
-9542,06	2079,00
-9519,32	2164,00
-9496,64	2483,00
-9474,00	2464,00
-9451,41	2456,00
-9428,87	2568,00
-9406,37	2422,00
-9383,92	2219,00
-9361,52	2265,00
-9339,17	2204,00
-9316,86	2446,00
-9294,60	2678,00
-9272,38	2893,00
-9250,21	2942,00
-9228,09	3133,00
-9206,01	3114,00
-9183,98	2565,00
-9162,00	2432,00
-9140,06	2288,00
-9118,16	2313,00
-9096,31	2274,00
-9074,51	2407,00
-9052,75	2580,00
-9031,04	2328,00
-9009,37	2154,00
-8987,74	1964,00
-8966,16	1746,00
-8944,63	1664,00
-8923,14	1709,00
-8901,69	1769,00
-8880,29	1712,00
-8858,93	1978,00
-8837,61	2124,00
-8816,34	2191,00
-8795,11	2179,00
-8773,92	2085,00
-8752,78	1966,00
-8731,68	1860,00
-8710,62	1930,00
-8689,61	1887,00
-8668,63	2012,00
-8647,70	2222,00
-8626,82	2205,00
-8605,97	2128,00
-8585,17	2004,00
-8564,41	1791,00
-8543,69	1791,00
-8523,01	1593,00
-8502,37	1871,00
-8481,78	1728,00
-8461,23	1749,00
-8440,71	1974,00
-8420,24	2011,00
-8399,81	2030,00
-8379,42	2015,00
-8359,08	1949,00
-8338,77	1742,00
-8318,50	1595,00
-8298,27	1654,00
-8278,09	1646,00
-8257,94	1748,00
-8237,83	1780,00
-8217,76	1845,00
-8197,74	1951,00
-8177,75	1979,00
-8157,80	1832,00
-8137,89	1728,00
-8118,02	1642,00
-8098,19	1768,00
-8078,40	1794,00
-8058,65	1772,00
-8038,93	1750,00
-8019,26	1736,00
-7999,62	1774,00
-7980,02	1675,00
-7960,46	1539,00
-7940,94	1653,00
-7921,46	1524,00
-7902,01	1485,00
-7882,60	1676,00
-7863,23	1647,00
-7843,90	1701,00
-7824,61	1677,00
-7805,35	1805,00
-7786,13	1908,00
-7766,95	1764,00
-7747,80	1652,00
-7728,69	1602,00
-7709,62	1592,00
-7690,59	1781,00
-7671,59	1874,00
-7652,63	1792,00
-7633,70	1836,00
-7614,81	1925,00
-7595,96	1724,00
-7577,15	1585,00
-7558,37	1540,00
-7539,62	1720,00
-7520,91	1734,00
-7502,24	1837,00
-7483,60	1799,00
-7465,00	1740,00
-7446,44	1563,00
-7427,91	1386,00
-7409,41	1376,00
-7390,95	1334,00
-7372,53	1356,00
-7354,14	1264,00
-7335,78	1308,00
-7317,46	1366,00
-7299,18	1506,00
-7280,92	1564,00
-7262,71	1799,00
-7244,52	1806,00
-7226,38	1815,00
-7208,26	1875,00
-7190,18	1513,00
-7172,14	1628,00
-7154,12	1545,00
-7136,15	1555,00
-7118,20	1612,00
-7100,29	1684,00
-7082,41	1793,00
-7064,57	1729,00
-7046,76	1570,00
-7028,98	1526,00
-7011,24	1475,00
-6993,53	1168,00
-6975,85	1230,00
-6958,20	1092,00
-6940,59	1235,00
-6923,01	1125,00
-6905,46	1195,00
-6887,94	1307,00
-6870,46	1758,00
-6853,01	1641,00
-6835,59	1597,00
-6818,21	1480,00
-6800,85	1485,00
-6783,53	1125,00
-6766,24	1038,00
-6748,98	981,00
-6731,76	1052,00
-6714,56	1069,00
-6697,40	935,00
-6680,26	961,00
-6663,16	1086,00
-6646,09	1178,00
-6629,05	1371,00
-6612,05	1446,00
-6595,07	1371,00
-6578,13	1454,00
-6561,21	1253,00
-6544,33	1071,00
-6527,47	837,00
-6510,65	911,00
-6493,86	908,00
-6477,10	972,00
-6460,36	905,00
-6443,66	805,00
-6426,99	857,00
-6410,35	928,00
-6393,74	930,00
-6377,16	1000,00
-6360,61	1163,00
-6344,09	960,00
-6327,59	1067,00
-6311,13	1115,00
-6294,70	1149,00
-6278,29	1157,00
-6261,92	1283,00
-6245,58	1370,00
-6229,26	1363,00
-6212,97	1182,00
-6196,72	1076,00
-6180,49	1029,00
-6164,29	816,00
-6148,12	946,00
-6131,98	674,00
-6115,86	698,00
-6099,78	654,00
-6083,72	604,00
-6067,69	692,00
-6051,69	700,00
-6035,72	709,00
-6019,78	819,00
-6003,87	933,00
-5987,98	978,00
-5972,12	1064,00
-5956,29	1192,00
-5940,49	1025,00
-5924,71	893,00
-5908,96	772,00
-5893,24	838,00
-5877,55	736,00
-5861,89	903,00
-5846,25	686,00
-5830,64	813,00
-5815,05	825,00
-5799,50	796,00
-5783,97	719,00
-5768,47	928,00
-5752,99	911,00
-5737,55	1001,00
-5722,12	1137,00
-5706,73	1136,00
-5691,36	1035,00
-5676,02	846,00
-5660,71	842,00
-5645,42	707,00
-5630,16	815,00
-5614,92	966,00
-5599,71	995,00
-5584,53	1017,00
-5569,37	1032,00
-5554,24	882,00
-5539,14	812,00
-5524,06	844,00
-5509,01	825,00
-5493,98	804,00
-5478,98	994,00
-5464,00	837,00
-5449,05	789,00
-5434,13	673,00
-5419,23	774,00
-5404,36	800,00
-5389,51	862,00
-5374,69	1076,00
-5359,89	1270,00
-5345,12	1241,00
-5330,37	1259,00
-5315,65	1036,00
-5300,95	994,00
-5286,28	885,00
-5271,63	860,00
-5257,01	816,00
-5242,41	938,00
-5227,84	912,00
-5213,29	777,00
-5198,76	681,00
-5184,26	720,00
-5169,79	785,00
-5155,33	924,00
-5140,91	872,00
-5126,51	999,00
-5112,13	927,00
-5097,77	1003,00
-5083,44	861,00
-5069,13	812,00
-5054,85	730,00
-5040,59	771,00
-5026,36	917,00
-5012,15	963,00
-4997,96	880,00
-4983,80	726,00
-4969,66	723,00
-4955,54	717,00
-4941,44	798,00
-4927,37	1020,00
-4913,33	1164,00
-4899,30	1226,00
-4885,30	1112,00
-4871,33	1004,00
-4857,37	783,00
-4843,44	683,00
-4829,53	796,00
-4815,65	922,00
-4801,79	819,00
-4787,95	853,00
-4774,13	773,00
-4760,34	696,00
-4746,56	672,00
-4732,82	722,00
-4719,09	817,00
-4705,38	1039,00
-4691,70	1126,00
-4678,04	1189,00
-4664,41	962,00
-4650,79	987,00
-4637,20	781,00
-4623,63	721,00
-4610,08	853,00
-4596,56	945,00
-4583,05	902,00
-4569,57	970,00
-4556,11	854,00
-4542,67	750,00
-4529,25	665,00
-4515,86	868,00
-4502,49	1071,00
-4489,13	1058,00
-4475,80	969,00
-4462,49	775,00
-4449,21	737,00
-4435,94	644,00
-4422,70	822,00
-4409,47	866,00
-4396,27	925,00
-4383,09	878,00
-4369,93	700,00
-4356,79	613,00
-4343,67	747,00
-4330,58	727,00
-4317,50	832,00
-4304,45	833,00
-4291,41	629,00
-4278,40	637,00
-4265,41	565,00
-4252,44	803,00
-4239,49	751,00
-4226,55	964,00
-4213,65	727,00
-4200,76	757,00
-4187,89	585,00
-4175,04	521,00
-4162,21	748,00
-4149,40	676,00
-4136,61	599,00
-4123,85	565,00
-4111,10	589,00
-4098,37	558,00
-4085,66	683,00
-4072,98	675,00
-4060,31	669,00
-4047,66	676,00
-4035,04	682,00
-4022,43	669,00
-4009,84	604,00
-3997,27	620,00
-3984,72	582,00
-3972,19	593,00
-3959,69	512,00
-3947,20	618,00
-3934,73	610,00
-3922,27	433,00
-3909,84	588,00
-3897,43	541,00
-3885,04	725,00
-3872,67	494,00
-3860,31	556,00
-3847,98	621,00
-3835,66	505,00
-3823,36	597,00
-3811,09	481,00
-3798,83	564,00
-3786,59	534,00
-3774,37	617,00
-3762,17	542,00
-3749,98	548,00
-3737,82	525,00
-3725,67	599,00
-3713,55	595,00
-3701,44	495,00
-3689,35	613,00
-3677,28	721,00
-3665,22	641,00
-3653,19	591,00
-3641,17	550,00
-3629,18	582,00
-3617,20	558,00
-3605,24	630,00
-3593,30	488,00
-3581,37	609,00
-3569,47	595,00
-3557,58	536,00
-3545,71	619,00
-3533,86	641,00
-3522,02	572,00
-3510,21	554,00
-3498,41	596,00
-3486,63	589,00
-3474,87	567,00
-3463,12	601,00
-3451,40	566,00
-3439,69	546,00
-3428,00	633,00
-3416,33	651,00
-3404,67	557,00
-3393,03	591,00
-3381,41	610,00
-3369,81	532,00
-3358,22	540,00
-3346,66	701,00
-3335,10	627,00
-3323,57	529,00
-3312,06	702,00
-3300,56	506,00
-3289,08	524,00
-3277,61	513,00
-3266,16	591,00
-3254,73	659,00
-3243,32	514,00
-3231,92	488,00
-3220,55	639,00
-3209,18	603,00
-3197,84	551,00
-3186,51	497,00
-3175,20	569,00
-3163,90	521,00
-3152,63	552,00
-3141,36	604,00
-3130,12	644,00
-3118,89	611,00
-3107,68	677,00
-3096,49	539,00
-3085,31	555,00
-3074,15	621,00
-3063,00	570,00
-3051,87	541,00
-3040,76	573,00
-3029,67	568,00
-3018,59	662,00
-3007,52	544,00
-2996,48	540,00
-2985,44	494,00
-2974,43	589,00
-2963,43	616,00
-2952,45	449,00
-2941,48	548,00
-2930,53	554,00
-2919,60	498,00
-2908,68	585,00
-2897,78	566,00
-2886,89	669,00
-2876,02	594,00
-2865,17	587,00
-2854,33	602,00
-2843,50	585,00
-2832,70	626,00
-2821,90	605,00
-2811,13	506,00
-2800,37	539,00
-2789,62	631,00
-2778,89	584,00
-2768,18	585,00
-2757,48	595,00
-2746,80	601,00
-2736,13	495,00
-2725,48	614,00
-2714,84	579,00
-2704,22	559,00
-2693,61	527,00
-2683,02	578,00
-2672,45	532,00
-2661,89	623,00
-2651,34	708,00
-2640,81	540,00
-2630,30	671,00
-2619,80	582,00
-2609,31	697,00
-2598,84	471,00
-2588,39	532,00
-2577,95	605,00
-2567,52	504,00
-2557,11	579,00
-2546,71	667,00
-2536,33	642,00
-2525,97	526,00
-2515,62	602,00
-2505,28	605,00
-2494,96	628,00
-2484,65	640,00
-2474,36	398,00
-2464,08	540,00
-2453,82	590,00
-2443,57	501,00
-2433,33	484,00
-2423,11	521,00
-2412,91	605,00
-2402,72	627,00
-2392,54	544,00
-2382,38	577,00
-2372,23	573,00
-2362,09	4762,00
-2351,97	503,00
-2341,87	536,00
-2331,78	479,00
-2321,70	607,00
-2311,64	577,00
-2301,59	486,00
-2291,55	481,00
-2281,53	468,00
-2271,53	599,00
-2261,53	582,00
-2251,55	605,00
-2241,59	517,00
-2231,64	661,00
-2221,70	570,00
-2211,78	528,00
-2201,87	599,00
-2191,97	565,00
-2182,09	580,00
-2172,22	581,00
-2162,37	484,00
-2152,53	543,00
-2142,70	567,00
-2132,89	529,00
-2123,09	635,00
-2113,30	508,00
-2103,53	617,00
-2093,77	657,00
-2084,02	531,00
-2074,29	685,00
-2064,57	575,00
-2054,86	536,00
-2045,17	548,00
-2035,49	577,00
-2025,82	456,00
-2016,17	562,00
-2006,53	580,00
-1996,91	520,00
-1987,29	568,00
-1977,69	619,00
-1968,11	622,00
-1958,53	696,00
-1948,97	585,00
-1939,42	517,00
-1929,89	500,00
-1920,37	483,00
-1910,86	526,00
-1901,36	616,00
-1891,88	619,00
-1882,41	532,00
-1872,95	613,00
-1863,51	533,00
-1854,08	652,00
-1844,66	610,00
-1835,26	573,00
-1825,86	657,00
-1816,48	568,00
-1807,11	530,00
-1797,76	607,00
-1788,42	623,00
-1779,09	723,00
-1769,77	540,00
-1760,47	745,00
-1751,17	515,00
-1741,89	437,00
-1732,63	617,00
-1723,37	745,00
-1714,13	717,00
-1704,90	535,00
-1695,68	571,00
-1686,48	502,00
-1677,29	516,00
-1668,11	727,00
-1658,94	539,00
-1649,78	593,00
-1640,64	552,00
-1631,51	533,00
-1622,39	519,00
-1613,28	628,00
-1604,19	604,00
-1595,10	571,00
-1586,03	626,00
-1576,97	541,00
-1567,93	525,00
-1558,89	602,00
-1549,87	587,00
-1540,86	550,00
-1531,86	551,00
-1522,87	554,00
-1513,90	695,00
-1504,93	532,00
-1495,98	580,00
-1487,04	598,00
-1478,12	527,00
-1469,20	526,00
-1460,30	667,00
-1451,40	683,00
-1442,52	486,00
-1433,65	619,00
-1424,80	582,00
-1415,95	578,00
-1407,12	742,00
-1398,30	615,00
-1389,48	560,00
-1380,69	554,00
-1371,90	581,00
-1363,12	581,00
-1354,36	610,00
-1345,60	551,00
-1336,86	641,00
-1328,13	635,00
-1319,41	525,00
-1310,70	570,00
-1302,01	519,00
-1293,32	721,00
-1284,65	570,00
-1275,99	590,00
-1267,33	539,00
-1258,69	645,00
-1250,06	552,00
-1241,45	535,00
-1232,84	651,00
-1224,25	602,00
-1215,66	740,00
-1207,09	570,00
-1198,53	557,00
-1189,97	527,00
-1181,43	544,00
-1172,91	623,00
-1164,39	592,00
-1155,88	450,00
-1147,38	503,00
-1138,90	565,00
-1130,43	602,00
-1121,96	597,00
-1113,51	635,00
-1105,07	550,00
-1096,64	558,00
-1088,22	577,00
-1079,81	578,00
-1071,41	604,00
-1063,02	566,00
-1054,65	641,00
-1046,28	598,00
-1037,92	507,00
-1029,58	620,00
-1021,24	484,00
-1012,92	892,00
-1004,61	590,00
-996,30	655,00
-988,01	502,00
-979,73	513,00
-971,46	583,00
-963,20	463,00
-954,95	565,00
-946,71	575,00
-938,48	457,00
-930,26	517,00
-922,06	651,00
-913,86	564,00
-905,67	488,00
-897,49	492,00
-889,33	457,00
-881,17	706,00
-873,02	613,00
-864,89	583,00
-856,76	649,00
-848,65	539,00
-840,54	614,00
-832,45	640,00
-824,36	473,00
-816,29	614,00
-808,22	610,00
-800,17	531,00
-792,12	601,00
-784,09	663,00
-776,06	544,00
-768,05	586,00
-760,04	572,00
-752,05	475,00
-744,07	514,00
-736,09	590,00
-728,13	514,00
-720,17	589,00
-712,23	558,00
-704,29	597,00
-696,37	692,00
-688,45	565,00
-680,55	630,00
-672,65	589,00
-664,77	554,00
-656,89	470,00
-649,03	628,00
-641,17	651,00
-633,32	639,00
-625,49	580,00
-617,66	624,00
-609,84	520,00
-602,03	433,00
-594,23	461,00
-586,45	553,00
-578,67	693,00
-570,90	560,00
-563,14	640,00
-555,39	605,00
-547,65	635,00
-539,91	654,00
-532,19	618,00
-524,48	583,00
-516,78	604,00
-509,08	586,00
-501,40	553,00
-493,72	625,00
-486,06	531,00
-478,40	662,00
-470,76	564,00
-463,12	620,00
-455,49	583,00
-447,87	509,00
-440,26	515,00
-432,66	659,00
-425,07	633,00
-417,49	610,00
-409,92	561,00
-402,35	701,00
-394,80	543,00
-387,25	641,00
-379,72	620,00
-372,19	661,00
-364,67	587,00
-357,17	619,00
-349,67	675,00
-342,18	566,00
-334,69	691,00
-327,22	610,00
-319,76	730,00
-312,30	571,00
-304,86	654,00
-297,42	637,00
-290,00	701,00
-282,58	592,00
-275,17	689,00
-267,77	689,00
-260,37	584,00
-252,99	599,00
-245,62	659,00
-238,25	626,00
-230,90	580,00
-223,55	807,00
-216,21	752,00
-208,88	821,00
-201,56	768,00
-194,25	788,00
-186,94	846,00
-179,65	782,00
-172,36	945,00
-165,08	862,00
-157,81	965,00
-150,55	959,00
-143,30	997,00
-136,06	1141,00
-128,82	1171,00
-121,60	1179,00
-114,38	1324,00
-107,17	1502,00
-99,97	1577,00
-92,78	1551,00
-85,60	1740,00
-78,42	1930,00
-71,25	2242,00
-64,10	2402,00
-56,95	2798,00
-49,81	3217,00
-42,67	3795,00
-35,55	4618,00
-28,43	5829,00
-21,33	9581,00
-14,23	29416,00
-7,14	57727,00
-0,05	57480,00
7,02	57283,00
14,09	57420,00
21,14	26939,00
28,19	11473,00
35,23	7384,00
42,27	5690,00
49,29	4810,00
56,31	4021,00
63,32	3575,00
70,32	2916,00
77,31	2605,00
84,29	2267,00
91,27	2166,00
98,23	2068,00
105,19	1838,00
112,14	1820,00
119,09	2315,00
126,02	2915,00
132,95	3021,00
139,87	2981,00
146,78	2953,00
153,68	2810,00
160,58	2640,00
167,46	2617,00
174,34	2686,00
181,21	2561,00
188,08	2549,00
194,93	2631,00
201,78	2548,00
208,62	2457,00
215,45	2508,00
222,27	2598,00
229,09	2616,00
235,90	2391,00
242,70	2433,00
249,49	2554,00
256,27	2389,00
263,05	2471,00
269,82	2250,00
276,58	2420,00
283,33	2304,00
290,08	2239,00
296,82	2222,00
303,55	2198,00
310,27	2242,00
316,98	2218,00
323,69	2157,00
330,39	2142,00
337,08	2092,00
343,76	2231,00
350,44	2159,00
357,11	2109,00
363,77	2064,00
370,42	2013,00
377,07	2066,00
383,71	1971,00
390,34	1983,00
396,96	1913,00
403,58	1976,00
410,19	2089,00
416,79	2081,00
423,38	2123,00
429,97	2057,00
436,55	1883,00
443,12	1951,00
449,68	1958,00
456,24	1899,00
462,79	1872,00
469,33	1875,00
475,86	1881,00
482,39	1791,00
488,91	1867,00
495,42	1808,00
501,93	1765,00
508,42	1727,00
514,91	1788,00
521,40	1814,00
527,87	1800,00
534,34	1665,00
540,80	1742,00
547,25	1704,00
553,70	1685,00
560,14	1692,00
566,57	1709,00
573,00	1650,00
579,41	1675,00
585,83	1640,00
592,23	1693,00
598,62	1637,00
605,01	1597,00
611,40	1769,00
617,77	1659,00
624,14	1637,00
630,50	1609,00
636,85	1651,00
643,20	1597,00
649,54	1551,00
655,87	1584,00
662,20	1565,00
668,52	1600,00
674,83	1511,00
681,13	1561,00
687,43	1669,00
693,72	1582,00
700,00	1531,00
706,28	1571,00
712,55	1499,00
718,81	1596,00
725,07	1535,00
731,32	1494,00
737,56	1514,00
743,79	1560,00
750,02	1528,00
756,24	1577,00
762,46	1537,00
768,67	1713,00
774,87	1475,00
781,06	1510,00
787,25	1578,00
793,43	1558,00
799,60	1501,00
805,77	1506,00
811,93	1544,00
818,08	1509,00
824,23	1448,00
830,37	1639,00
836,50	1612,00
842,63	1467,00
848,75	1606,00
854,87	1504,00
860,97	1591,00
867,07	1642,00
873,17	1613,00
879,25	1592,00
885,33	1599,00
891,41	1494,00
897,47	1557,00
903,53	1389,00
909,59	1460,00
915,63	1528,00
921,67	1478,00
927,71	1392,00
933,74	1485,00
939,76	1311,00
945,77	1321,00
951,78	1377,00
957,78	1349,00
963,78	1489,00
969,77	1421,00
975,75	1297,00
981,72	1437,00
987,69	2345,00
993,66	1478,00
999,61	1443,00
1005,56	1404,00
1011,51	1387,00
1017,44	1375,00
1023,37	1351,00
1029,30	1406,00
1035,22	1375,00
1041,13	1442,00
1047,03	1443,00
1052,93	1560,00
1058,83	1760,00
1064,71	1902,00
1070,59	1767,00
1076,47	1606,00
1082,33	1428,00
1088,20	1557,00
1094,05	1528,00
1099,90	1412,00
1105,74	1477,00
1111,58	1331,00
1117,41	1367,00
1123,23	1679,00
1129,05	1830,00
1134,86	1694,00
1140,67	1374,00
1146,47	1422,00
1152,26	1365,00
1158,05	1279,00
1163,83	1398,00
1169,60	1361,00
1175,37	1464,00
1181,13	1334,00
1186,89	1313,00
1192,64	1288,00
1198,38	1271,00
1204,12	1319,00
1209,85	1247,00
1215,58	1443,00
1221,30	1319,00
1227,02	1327,00
1232,72	1315,00
1238,43	1207,00
1244,12	1268,00
1249,81	1287,00
1255,50	1415,00
1261,17	1402,00
1266,85	1424,00
1272,51	1358,00
1278,17	1433,00
1283,83	1413,00
1289,47	1734,00
1295,12	2178,00
1300,75	1967,00
1306,38	1707,00
1312,01	1643,00
1317,63	1496,00
1323,24	1501,00
1328,85	1493,00
1334,45	1489,00
1340,04	1480,00
1345,63	1405,00
1351,22	1530,00
1356,80	1443,00
1362,37	1527,00
1367,93	1371,00
1373,49	1518,00
1379,05	1462,00
1384,60	1454,00
1390,14	1353,00
1395,68	1484,00
1401,21	1420,00
1406,74	1488,00
1412,26	1484,00
1417,77	1638,00
1423,28	1648,00
1428,78	1880,00
1434,28	2098,00
1439,77	2209,00
1445,26	2137,00
1450,74	2076,00
1456,22	2036,00
1461,68	1955,00
1467,15	1906,00
1472,61	1758,00
1478,06	1684,00
1483,51	1530,00
1488,95	1359,00
1494,38	1464,00
1499,81	1330,00
1505,24	1343,00
1510,65	1344,00
1516,07	1375,00
1521,48	1254,00
1526,88	1211,00
1532,27	1192,00
1537,67	1254,00
1543,05	1262,00
1548,43	1196,00
1553,81	1289,00
1559,18	1177,00
1564,54	1229,00
1569,90	1216,00
1575,25	1178,00
1580,60	1326,00
1585,94	1199,00
1591,28	1184,00
1596,61	1090,00
1601,93	1157,00
1607,25	1245,00
1612,57	1212,00
1617,88	1232,00
1623,18	1201,00
1628,48	1131,00
1633,77	1340,00
1639,06	1309,00
1644,34	1126,00
1649,62	1115,00
1654,89	1220,00
1660,16	1043,00
1665,42	1184,00
1670,67	1098,00
1675,92	1167,00
1681,17	963,00
1686,41	1098,00
1691,64	1188,00
1696,87	1126,00
1702,10	1207,00
1707,32	1139,00
1712,53	1161,00
1717,74	1168,00
1722,94	1105,00
1728,14	1060,00
1733,33	1013,00
1738,52	1037,00
1743,70	1111,00
1748,88	1035,00
1754,05	1130,00
1759,22	1019,00
1764,38	1296,00
1769,53	988,00
1774,69	1030,00
1779,83	1034,00
1784,97	1084,00
1790,11	1030,00
1795,24	1037,00
1800,36	1063,00
1805,48	1081,00
1810,60	977,00
1815,71	951,00
1820,82	985,00
1825,92	1065,00
1831,01	908,00
1836,10	976,00
1841,19	1001,00
1846,26	1072,00
1851,34	913,00
1856,41	1055,00
1861,47	963,00
1866,53	1040,00
1871,59	937,00
1876,64	911,00
1881,68	1039,00
1886,72	984,00
1891,76	919,00
1896,79	1026,00
1901,81	959,00
1906,83	1026,00
1911,85	832,00
1916,86	962,00
1921,86	929,00
1926,86	942,00
1931,86	777,00
1936,85	864,00
1941,83	926,00
1946,81	914,00
1951,79	880,00
1956,76	830,00
1961,72	878,00
1966,68	813,00
1971,64	862,00
1976,59	867,00
1981,54	922,00
1986,48	993,00
1991,42	736,00
1996,35	966,00
2001,27	830,00
2006,20	841,00
2011,11	908,00
2016,03	898,00
2020,93	770,00
2025,84	928,00
2030,73	812,00
2035,63	828,00
2040,52	867,00
2045,40	850,00
2050,28	805,00
2055,15	931,00
2060,02	789,00
2064,89	887,00
2069,75	788,00
2074,60	742,00
2079,46	822,00
2084,30	886,00
2089,14	808,00
2093,98	877,00
2098,81	905,00
2103,64	817,00
2108,46	843,00
2113,28	798,00
2118,09	764,00
2122,90	714,00
2127,70	819,00
2132,50	871,00
2137,30	777,00
2142,09	821,00
2146,87	763,00
2151,66	801,00
2156,43	878,00
2161,20	847,00
2165,97	879,00
2170,73	853,00
2175,49	890,00
2180,24	877,00
2184,99	938,00
2189,74	902,00
2194,48	906,00
2199,21	833,00
2203,94	724,00
2208,67	793,00
2213,39	782,00
2218,11	695,00
2222,82	851,00
2227,53	728,00
2232,23	779,00
2236,93	777,00
2241,63	913,00
2246,32	817,00
2251,00	719,00
2255,68	944,00
2260,36	817,00
2265,03	770,00
2269,70	883,00
2274,36	737,00
2279,02	777,00
2283,68	810,00
2288,33	776,00
2292,97	843,00
2297,61	733,00
2302,25	819,00
2306,88	659,00
2311,51	635,00
2316,14	846,00
2320,75	753,00
2325,37	741,00
2329,98	848,00
2334,59	600,00
2339,19	697,00
2343,79	709,00
2348,38	729,00
2352,97	771,00
2357,55	697,00
2362,13	765,00
2366,71	704,00
2371,28	932,00
2375,85	758,00
2380,41	773,00
2384,97	809,00
2389,52	668,00
2394,07	899,00
2398,62	767,00
2403,16	723,00
2407,70	803,00
2412,23	702,00
2416,76	740,00
2421,29	598,00
2425,81	753,00
2430,32	758,00
2434,84	648,00
2439,34	713,00
2443,85	743,00
2448,35	725,00
2452,84	683,00
2457,33	688,00
2461,82	683,00
2466,30	714,00
2470,78	787,00
2475,25	630,00
2479,72	676,00
2484,19	660,00
2488,65	738,00
2493,11	589,00
2497,56	773,00
2502,01	656,00
2506,46	761,00
2510,90	606,00
2515,34	768,00
2519,77	802,00
2524,20	659,00
2528,62	643,00
2533,04	694,00
2537,46	568,00
2541,87	611,00
2546,28	659,00
2550,68	711,00
2555,08	778,00
2559,48	756,00
2563,87	664,00
2568,26	701,00
2572,64	738,00
2577,02	742,00
2581,40	553,00
2585,77	630,00
2590,14	641,00
2594,50	610,00
2598,86	637,00
2603,22	642,00
2607,57	597,00
2611,92	765,00
2616,26	785,00
2620,60	727,00
2624,94	618,00
2629,27	702,00
2633,60	667,00
2637,92	827,00
2642,24	790,00
2646,56	786,00
2650,87	550,00
2655,18	886,00
2659,48	674,00
2663,78	778,00
2668,08	810,00
2672,37	681,00
2676,66	758,00
2680,95	765,00
2685,23	763,00
2689,50	728,00
2693,78	817,00
2698,05	634,00
2702,31	786,00
2706,57	758,00
2710,83	821,00
2715,08	772,00
2719,33	856,00
2723,58	777,00
2727,82	867,00
2732,06	844,00
2736,29	853,00
2740,53	835,00
2744,75	778,00
2748,97	753,00
2753,19	752,00
2757,41	784,00
2761,62	742,00
2765,83	740,00
2770,03	696,00
2774,23	704,00
2778,43	704,00
2782,62	787,00
2786,81	680,00
2791,00	749,00
2795,18	910,00
2799,35	799,00
2803,53	858,00
2807,70	903,00
2811,86	748,00
2816,03	952,00
2820,19	876,00
2824,34	792,00
2828,49	913,00
2832,64	1003,00
2836,78	1144,00
2840,92	1392,00
2845,06	1439,00
2849,19	1582,00
2853,32	1693,00
2857,45	1648,00
2861,57	1612,00
2865,69	1498,00
2869,80	1565,00
2873,91	1463,00
2878,02	1710,00
2882,12	1760,00
2886,22	1636,00
2890,32	1682,00
2894,41	1657,00
2898,50	1518,00
2902,58	1520,00
2906,67	1480,00
2910,74	1380,00
2914,82	1281,00
2918,89	1289,00
2922,96	1249,00
2927,02	1106,00
2931,08	1101,00
2935,13	1078,00
2939,19	1131,00
2943,24	1003,00
2947,28	993,00
2951,32	874,00
2955,36	807,00
2959,40	967,00
2963,43	849,00
2967,46	881,00
2971,48	739,00
2975,50	891,00
2979,52	707,00
2983,53	783,00
2987,54	730,00
2991,55	822,00
2995,55	640,00
2999,55	678,00
3003,54	652,00
3007,54	683,00
3011,53	761,00
3015,51	655,00
3019,49	773,00
3023,47	714,00
3027,45	648,00
3031,42	619,00
3035,39	567,00
3039,35	605,00
3043,31	678,00
3047,27	692,00
3051,22	686,00
3055,17	549,00
3059,12	504,00
3063,06	665,00
3067,00	527,00
3070,94	676,00
3074,87	568,00
3078,80	599,00
3082,73	599,00
3086,65	607,00
3090,57	605,00
3094,49	622,00
3098,40	620,00
3102,31	670,00
3106,22	643,00
3110,12	562,00
3114,02	581,00
3117,92	584,00
3121,81	634,00
3125,70	577,00
3129,58	663,00
3133,47	536,00
3137,34	610,00
3141,22	601,00
3145,09	598,00
3148,96	643,00
3152,83	522,00
3156,69	517,00
3160,55	545,00
3164,40	646,00
3168,26	559,00
3172,10	740,00
3175,95	666,00
3179,79	619,00
3183,63	640,00
3187,47	633,00
3191,30	596,00
3195,13	585,00
3198,95	582,00
3202,78	608,00
3206,60	581,00
3210,41	492,00
3214,23	572,00
3218,03	580,00
3221,84	607,00
3225,64	589,00
3229,44	602,00
3233,24	566,00
3237,03	572,00
3240,82	571,00
3244,61	627,00
3248,39	509,00
3252,17	625,00
3255,95	615,00
3259,72	669,00
3263,49	735,00
3267,26	549,00
3271,03	555,00
3274,79	565,00
3278,54	569,00
3282,30	577,00
3286,05	714,00
3289,80	654,00
3293,54	585,00
3297,29	610,00
3301,02	579,00
3304,76	590,00
3308,49	620,00
3312,22	572,00
3315,95	537,00
3319,67	594,00
3323,39	669,00
3327,10	607,00
3330,82	617,00
3334,53	550,00
3338,24	587,00
3341,94	704,00
3345,64	614,00
3349,34	618,00
3353,03	642,00
3356,72	634,00
3360,41	601,00
3364,10	645,00
3367,78	544,00
3371,46	662,00
3375,13	503,00
3378,81	599,00
3382,48	577,00
3386,14	605,00
3389,81	642,00
3393,47	582,00
3397,12	683,00
3400,78	590,00
3404,43	582,00
3408,08	516,00
3411,72	548,00
3415,36	471,00
3419,00	624,00
3422,64	595,00
3426,27	648,00
3429,90	519,00
3433,53	608,00
3437,15	538,00
3440,77	487,00
3444,39	567,00
3448,00	563,00
3451,62	574,00
3455,22	650,00
3458,83	544,00
3462,43	588,00
3466,03	692,00
3469,63	480,00
3473,22	562,00
3476,81	539,00
3480,40	574,00
3483,99	516,00
3487,57	598,00
3491,15	452,00
3494,72	533,00
3498,29	547,00
3501,86	556,00
3505,43	597,00
3508,99	572,00
3512,56	577,00
3516,11	576,00
3519,67	557,00
3523,22	647,00
3526,77	634,00
3530,32	518,00
3533,86	634,00
3537,40	617,00
3540,94	493,00
3544,47	628,00
3548,00	504,00
3551,53	512,00
3555,06	547,00
3558,58	717,00
3562,10	540,00
3565,62	579,00
3569,13	489,00
3572,64	571,00
3576,15	583,00
3579,66	550,00
3583,16	501,00
3586,66	458,00
3590,16	571,00
3593,65	514,00
3597,14	471,00
3600,63	551,00
3604,11	574,00
3607,60	522,00
3611,08	473,00
3614,55	567,00
3618,03	557,00
3621,50	610,00
3624,97	502,00
3628,43	577,00
3631,90	605,00
3635,36	518,00
3638,81	597,00
3642,27	550,00
3645,72	522,00
3649,17	531,00
3652,61	497,00
3656,06	465,00
3659,50	481,00
3662,93	542,00
3666,37	557,00
3669,80	661,00
3673,23	456,00
3676,65	622,00
3680,08	597,00
3683,50	549,00
3686,92	614,00
3690,33	527,00
3693,74	501,00
3697,15	491,00
3700,56	520,00
3703,96	455,00
3707,36	479,00
3710,76	508,00
3714,16	508,00
3717,55	480,00
3720,94	605,00
3724,33	470,00
3727,71	485,00
3731,10	520,00
3734,48	490,00
3737,85	443,00
3741,23	549,00
3744,60	419,00
3747,97	435,00
3751,33	493,00
3754,69	388,00
3758,05	445,00
3761,41	449,00
3764,77	476,00
3768,12	560,00
3771,47	433,00
3774,82	503,00
3778,16	-7,00
3781,50	7,00
3784,84	3,00
3788,18	9,00
>>>>>End Processed Spectral Data<<<<<
