SpectraSuite Data File
++++++++++++++++++++++++++++++++++++
Date: Tue Mar 03 10:35:14 ICT 2026
User: user
Dark Spectrum Present: Yes
Reference Spectrum Present: No
Number of Sampled Component Spectra: 1
Spectrometers: MAYP113682
Integration Time (usec): 3000000 (MAYP113682)
Spectra Averaged: 1 (MAYP113682)
Boxcar Smoothing: 0 (MAYP113682)
Correct for Electrical Dark: No (MAYP113682)
Strobe/Lamp Enabled: No (MAYP113682)
Correct for Detector Non-linearity: No (MAYP113682)
Correct for Stray Light: No (MAYP113682)
Number of Pixels in Processed Spectrum: 2068
>>>>>Begin Processed Spectral Data<<<<<
-37534,58	32,00
-37414,56	7,00
-37295,11	13,00
-37176,24	7,00
-37057,95	725,00
-36940,22	651,00
-36823,05	700,00
-36706,45	852,00
-36590,40	812,00
-36474,90	804,00
-36359,95	827,00
-36245,55	854,00
-36131,68	835,00
-36018,35	792,00
-35905,55	844,00
-35793,29	936,00
-35681,54	855,00
-35570,32	735,00
-35459,62	738,00
-35349,43	879,00
-35239,75	899,00
-35130,58	788,00
-35021,91	805,00
-34913,74	882,00
-34806,07	949,00
-34698,89	842,00
-34592,20	871,00
-34486,00	935,00
-34380,28	933,00
-34275,04	831,00
-34170,27	805,00
-34065,98	884,00
-33962,16	851,00
-33858,81	931,00
-33755,92	983,00
-33653,49	934,00
-33551,52	976,00
-33450,01	909,00
-33348,94	917,00
-33248,33	912,00
-33148,16	869,00
-33048,43	904,00
-32949,14	993,00
-32850,29	929,00
-32751,87	855,00
-32653,89	954,00
-32556,33	1075,00
-32459,20	905,00
-32362,49	813,00
-32266,19	881,00
-32170,32	941,00
-32074,86	854,00
-31979,82	963,00
-31885,18	939,00
-31790,95	1102,00
-31697,12	1012,00
-31603,69	966,00
-31510,67	1053,00
-31418,04	1001,00
-31325,80	925,00
-31233,95	970,00
-31142,49	974,00
-31051,42	993,00
-30960,73	1049,00
-30870,43	1047,00
-30780,50	908,00
-30690,95	875,00
-30601,77	988,00
-30512,97	973,00
-30424,53	998,00
-30336,46	1030,00
-30248,76	881,00
-30161,42	952,00
-30074,44	910,00
-29987,81	1000,00
-29901,55	961,00
-29815,63	992,00
-29730,07	1000,00
-29644,86	942,00
-29560,00	1062,00
-29475,48	884,00
-29391,30	881,00
-29307,47	814,00
-29223,97	1054,00
-29140,81	969,00
-29057,99	891,00
-28975,50	939,00
-28893,34	1046,00
-28811,51	900,00
-28730,00	1010,00
-28648,82	890,00
-28567,97	1007,00
-28487,43	886,00
-28407,21	903,00
-28327,32	894,00
-28247,73	1028,00
-28168,46	957,00
-28089,50	965,00
-28010,85	942,00
-27932,51	830,00
-27854,48	928,00
-27776,75	825,00
-27699,32	903,00
-27622,19	961,00
-27545,37	917,00
-27468,84	992,00
-27392,60	951,00
-27316,66	884,00
-27241,01	1016,00
-27165,66	914,00
-27090,59	855,00
-27015,81	924,00
-26941,31	1047,00
-26867,10	985,00
-26793,17	1070,00
-26719,52	977,00
-26646,15	1027,00
-26573,06	919,00
-26500,24	933,00
-26427,70	918,00
-26355,43	971,00
-26283,43	943,00
-26211,71	936,00
-26140,25	984,00
-26069,06	1186,00
-25998,13	901,00
-25927,46	892,00
-25857,06	879,00
-25786,92	883,00
-25717,04	927,00
-25647,42	1015,00
-25578,05	862,00
-25508,94	994,00
-25440,09	950,00
-25371,48	915,00
-25303,13	996,00
-25235,02	889,00
-25167,17	924,00
-25099,56	1032,00
-25032,19	881,00
-24965,07	870,00
-24898,20	833,00
-24831,56	1059,00
-24765,17	986,00
-24699,01	869,00
-24633,10	954,00
-24567,41	926,00
-24501,97	1017,00
-24436,75	864,00
-24371,77	955,00
-24307,03	909,00
-24242,51	884,00
-24178,22	867,00
-24114,16	907,00
-24050,32	1058,00
-23986,71	961,00
-23923,32	924,00
-23860,16	838,00
-23797,22	930,00
-23734,50	989,00
-23672,00	866,00
-23609,71	983,00
-23547,65	897,00
-23485,80	973,00
-23424,16	874,00
-23362,74	945,00
-23301,53	1007,00
-23240,54	855,00
-23179,75	990,00
-23119,17	928,00
-23058,80	939,00
-22998,64	883,00
-22938,68	847,00
-22878,93	923,00
-22819,39	881,00
-22760,04	889,00
-22700,90	1037,00
-22641,96	909,00
-22583,22	961,00
-22524,68	901,00
-22466,33	877,00
-22408,19	870,00
-22350,23	931,00
-22292,48	910,00
-22234,92	978,00
-22177,55	1075,00
-22120,37	1049,00
-22063,38	936,00
-22006,58	961,00
-21949,98	855,00
-21893,56	848,00
-21837,33	949,00
-21781,28	990,00
-21725,42	873,00
-21669,74	1011,00
-21614,25	934,00
-21558,94	881,00
-21503,81	973,00
-21448,86	983,00
-21394,10	909,00
-21339,51	801,00
-21285,10	880,00
-21230,86	778,00
-21176,81	794,00
-21122,93	883,00
-21069,22	939,00
-21015,69	847,00
-20962,33	876,00
-20909,14	834,00
-20856,13	935,00
-20803,28	939,00
-20750,61	876,00
-20698,10	884,00
-20645,76	873,00
-20593,59	1059,00
-20541,59	906,00
-20489,75	935,00
-20438,07	829,00
-20386,56	1027,00
-20335,22	912,00
-20284,03	817,00
-20233,01	862,00
-20182,15	906,00
-20131,45	950,00
-20080,91	904,00
-20030,52	797,00
-19980,30	882,00
-19930,23	794,00
-19880,32	988,00
-19830,56	964,00
-19780,96	916,00
-19731,52	866,00
-19682,23	901,00
-19633,09	876,00
-19584,10	917,00
-19535,26	835,00
-19486,58	1027,00
-19438,04	966,00
-19389,66	920,00
-19341,42	773,00
-19293,33	939,00
-19245,39	926,00
-19197,60	937,00
-19149,95	974,00
-19102,45	1008,00
-19055,09	904,00
-19007,87	918,00
-18960,80	942,00
-18913,87	1002,00
-18867,09	838,00
-18820,44	900,00
-18773,94	871,00
-18727,57	959,00
-18681,35	929,00
-18635,26	916,00
-18589,31	761,00
-18543,50	872,00
-18497,83	863,00
-18452,29	890,00
-18406,89	807,00
-18361,63	1014,00
-18316,50	873,00
-18271,50	915,00
-18226,63	977,00
-18181,90	971,00
-18137,30	1023,00
-18092,84	938,00
-18048,50	891,00
-18004,29	818,00
-17960,22	851,00
-17916,27	908,00
-17872,45	939,00
-17828,76	879,00
-17785,20	968,00
-17741,77	842,00
-17698,46	905,00
-17655,28	924,00
-17612,22	822,00
-17569,29	917,00
-17526,48	889,00
-17483,79	797,00
-17441,23	933,00
-17398,79	801,00
-17356,48	887,00
-17314,28	1154,00
-17272,21	884,00
-17230,26	893,00
-17188,42	968,00
-17146,71	932,00
-17105,12	958,00
-17063,64	966,00
-17022,28	897,00
-16981,04	904,00
-16939,92	909,00
-16898,91	919,00
-16858,02	899,00
-16817,25	946,00
-16776,59	868,00
-16736,04	947,00
-16695,61	897,00
-16655,29	881,00
-16615,09	970,00
-16574,99	850,00
-16535,01	879,00
-16495,15	994,00
-16455,39	831,00
-16415,74	928,00
-16376,21	941,00
-16336,78	828,00
-16297,46	854,00
-16258,26	855,00
-16219,16	782,00
-16180,17	860,00
-16141,28	971,00
-16102,51	984,00
-16063,84	897,00
-16025,27	914,00
-15986,82	786,00
-15948,46	846,00
-15910,22	854,00
-15872,07	908,00
-15834,04	834,00
-15796,10	899,00
-15758,27	1028,00
-15720,54	879,00
-15682,91	939,00
-15645,39	1010,00
-15607,97	916,00
-15570,64	832,00
-15533,42	870,00
-15496,30	877,00
-15459,28	956,00
-15422,36	842,00
-15385,54	776,00
-15348,82	929,00
-15312,19	963,00
-15275,66	824,00
-15239,23	914,00
-15202,90	863,00
-15166,67	847,00
-15130,53	848,00
-15094,48	905,00
-15058,54	892,00
-15022,68	871,00
-14986,93	885,00
-14951,26	887,00
-14915,69	959,00
-14880,22	897,00
-14844,84	890,00
-14809,55	902,00
-14774,35	1007,00
-14739,25	945,00
-14704,24	833,00
-14669,32	865,00
-14634,49	915,00
-14599,75	919,00
-14565,10	880,00
-14530,55	951,00
-14496,08	850,00
-14461,70	866,00
-14427,41	851,00
-14393,21	876,00
-14359,10	864,00
-14325,07	983,00
-14291,14	873,00
-14257,29	1038,00
-14223,52	865,00
-14189,85	1099,00
-14156,26	904,00
-14122,76	816,00
-14089,34	821,00
-14056,01	915,00
-14022,76	971,00
-13989,60	879,00
-13956,52	798,00
-13923,53	876,00
-13890,62	914,00
-13857,79	842,00
-13825,05	868,00
-13792,39	889,00
-13759,81	867,00
-13727,31	872,00
-13694,90	837,00
-13662,57	913,00
-13630,31	924,00
-13598,14	859,00
-13566,05	895,00
-13534,05	917,00
-13502,12	807,00
-13470,27	921,00
-13438,50	916,00
-13406,80	964,00
-13375,19	797,00
-13343,66	912,00
-13312,20	989,00
-13280,83	910,00
-13249,53	843,00
-13218,30	835,00
-13187,16	821,00
-13156,09	1038,00
-13125,10	922,00
-13094,18	887,00
-13063,34	1079,00
-13032,58	745,00
-13001,89	895,00
-12971,28	910,00
-12940,74	981,00
-12910,27	889,00
-12879,88	980,00
-12849,57	1045,00
-12819,33	1015,00
-12789,16	923,00
-12759,06	951,00
-12729,04	945,00
-12699,09	3011,00
-12669,21	865,00
-12639,41	885,00
-12609,68	840,00
-12580,02	895,00
-12550,43	994,00
-12520,91	869,00
-12491,46	739,00
-12462,08	921,00
-12432,77	1006,00
-12403,54	893,00
-12374,37	889,00
-12345,27	962,00
-12316,24	821,00
-12287,29	963,00
-12258,40	883,00
-12229,57	883,00
-12200,82	954,00
-12172,14	812,00
-12143,52	745,00
-12114,97	893,00
-12086,49	886,00
-12058,07	1019,00
-12029,73	896,00
-12001,44	1085,00
-11973,23	880,00
-11945,08	983,00
-11917,00	1064,00
-11888,98	912,00
-11861,03	955,00
-11833,15	993,00
-11805,32	894,00
-11777,57	979,00
-11749,88	915,00
-11722,25	897,00
-11694,69	851,00
-11667,19	866,00
-11639,75	1082,00
-11612,38	887,00
-11585,07	866,00
-11557,83	881,00
-11530,65	889,00
-11503,53	985,00
-11476,47	921,00
-11449,48	789,00
-11422,54	925,00
-11395,67	937,00
-11368,86	975,00
-11342,11	813,00
-11315,43	904,00
-11288,80	788,00
-11262,23	1074,00
-11235,73	871,00
-11209,28	976,00
-11182,90	1118,00
-11156,57	964,00
-11130,31	1016,00
-11104,10	916,00
-11077,96	919,00
-11051,87	912,00
-11025,84	1019,00
-10999,87	981,00
-10973,96	891,00
-10948,11	957,00
-10922,31	965,00
-10896,58	1004,00
-10870,90	1023,00
-10845,28	999,00
-10819,71	860,00
-10794,20	1047,00
-10768,75	1074,00
-10743,36	1061,00
-10718,02	892,00
-10692,74	1030,00
-10667,52	875,00
-10642,35	1071,00
-10617,24	1078,00
-10592,18	1100,00
-10567,18	1052,00
-10542,23	1074,00
-10517,34	1113,00
-10492,51	1087,00
-10467,72	993,00
-10443,00	1014,00
-10418,32	1171,00
-10393,70	1096,00
-10369,14	1159,00
-10344,63	1095,00
-10320,17	1189,00
-10295,77	1230,00
-10271,42	1222,00
-10247,12	1271,00
-10222,88	1281,00
-10198,68	1155,00
-10174,54	1227,00
-10150,46	1389,00
-10126,42	1435,00
-10102,44	1489,00
-10078,51	1382,00
-10054,63	1499,00
-10030,80	1476,00
-10007,03	1570,00
-9983,30	1571,00
-9959,63	1556,00
-9936,01	1676,00
-9912,44	1715,00
-9888,92	1703,00
-9865,44	1647,00
-9842,02	1849,00
-9818,65	1882,00
-9795,33	1758,00
-9772,06	1885,00
-9748,84	1990,00
-9725,67	2190,00
-9702,55	2326,00
-9679,47	2642,00
-9656,45	2762,00
-9633,47	2604,00
-9610,55	2760,00
-9587,67	2964,00
-9564,84	3213,00
-9542,06	3307,00
-9519,32	3707,00
-9496,64	3820,00
-9474,00	3902,00
-9451,41	4019,00
-9428,87	4069,00
-9406,37	3787,00
-9383,92	3554,00
-9361,52	3520,00
-9339,17	3620,00
-9316,86	3803,00
-9294,60	4324,00
-9272,38	4728,00
-9250,21	4963,00
-9228,09	5000,00
-9206,01	4834,00
-9183,98	4303,00
-9162,00	3864,00
-9140,06	3861,00
-9118,16	3687,00
-9096,31	3775,00
-9074,51	3865,00
-9052,75	4106,00
-9031,04	3831,00
-9009,37	3487,00
-8987,74	3199,00
-8966,16	2905,00
-8944,63	2799,00
-8923,14	2790,00
-8901,69	2790,00
-8880,29	2972,00
-8858,93	3228,00
-8837,61	3400,00
-8816,34	3536,00
-8795,11	3591,00
-8773,92	3341,00
-8752,78	3103,00
-8731,68	2993,00
-8710,62	3031,00
-8689,61	3168,00
-8668,63	3204,00
-8647,70	3614,00
-8626,82	3530,00
-8605,97	3516,00
-8585,17	3287,00
-8564,41	2861,00
-8543,69	2836,00
-8523,01	2524,00
-8502,37	3029,00
-8481,78	2802,00
-8461,23	2951,00
-8440,71	3074,00
-8420,24	3244,00
-8399,81	3300,00
-8379,42	3154,00
-8359,08	3084,00
-8338,77	2889,00
-8318,50	2609,00
-8298,27	2588,00
-8278,09	2660,00
-8257,94	2820,00
-8237,83	3041,00
-8217,76	3103,00
-8197,74	3054,00
-8177,75	3259,00
-8157,80	2895,00
-8137,89	2836,00
-8118,02	2698,00
-8098,19	2770,00
-8078,40	2722,00
-8058,65	2880,00
-8038,93	2909,00
-8019,26	2844,00
-7999,62	2835,00
-7980,02	2697,00
-7960,46	2540,00
-7940,94	2639,00
-7921,46	2504,00
-7902,01	2502,00
-7882,60	2634,00
-7863,23	2582,00
-7843,90	2622,00
-7824,61	2670,00
-7805,35	2879,00
-7786,13	2791,00
-7766,95	2822,00
-7747,80	2816,00
-7728,69	2777,00
-7709,62	2594,00
-7690,59	2712,00
-7671,59	2856,00
-7652,63	2953,00
-7633,70	2882,00
-7614,81	2972,00
-7595,96	2637,00
-7577,15	2517,00
-7558,37	2532,00
-7539,62	2738,00
-7520,91	2741,00
-7502,24	2954,00
-7483,60	2864,00
-7465,00	2737,00
-7446,44	2554,00
-7427,91	2208,00
-7409,41	2297,00
-7390,95	2037,00
-7372,53	2105,00
-7354,14	2080,00
-7335,78	2110,00
-7317,46	2220,00
-7299,18	2317,00
-7280,92	2450,00
-7262,71	2975,00
-7244,52	2806,00
-7226,38	2941,00
-7208,26	2945,00
-7190,18	2616,00
-7172,14	2562,00
-7154,12	2373,00
-7136,15	2533,00
-7118,20	2725,00
-7100,29	2897,00
-7082,41	2752,00
-7064,57	2680,00
-7046,76	2501,00
-7028,98	2274,00
-7011,24	2296,00
-6993,53	1952,00
-6975,85	1890,00
-6958,20	1828,00
-6940,59	1845,00
-6923,01	1743,00
-6905,46	1910,00
-6887,94	2328,00
-6870,46	2792,00
-6853,01	2669,00
-6835,59	2709,00
-6818,21	2383,00
-6800,85	2356,00
-6783,53	1905,00
-6766,24	1662,00
-6748,98	1514,00
-6731,76	1636,00
-6714,56	1622,00
-6697,40	1502,00
-6680,26	1517,00
-6663,16	1714,00
-6646,09	1939,00
-6629,05	2144,00
-6612,05	2208,00
-6595,07	2191,00
-6578,13	2216,00
-6561,21	1825,00
-6544,33	1762,00
-6527,47	1372,00
-6510,65	1444,00
-6493,86	1461,00
-6477,10	1569,00
-6460,36	1525,00
-6443,66	1404,00
-6426,99	1427,00
-6410,35	1463,00
-6393,74	1541,00
-6377,16	1567,00
-6360,61	1752,00
-6344,09	1774,00
-6327,59	1750,00
-6311,13	1748,00
-6294,70	1910,00
-6278,29	1923,00
-6261,92	2014,00
-6245,58	2107,00
-6229,26	2090,00
-6212,97	1974,00
-6196,72	1724,00
-6180,49	1454,00
-6164,29	1270,00
-6148,12	1409,00
-6131,98	1232,00
-6115,86	1130,00
-6099,78	1179,00
-6083,72	1086,00
-6067,69	1166,00
-6051,69	1092,00
-6035,72	1155,00
-6019,78	1307,00
-6003,87	1611,00
-5987,98	1641,00
-5972,12	1742,00
-5956,29	1737,00
-5940,49	1633,00
-5924,71	1555,00
-5908,96	1233,00
-5893,24	1230,00
-5877,55	1194,00
-5861,89	1241,00
-5846,25	1237,00
-5830,64	1343,00
-5815,05	1256,00
-5799,50	1232,00
-5783,97	1147,00
-5768,47	1410,00
-5752,99	1664,00
-5737,55	1626,00
-5722,12	1733,00
-5706,73	1711,00
-5691,36	1680,00
-5676,02	1408,00
-5660,71	1415,00
-5645,42	1204,00
-5630,16	1332,00
-5614,92	1483,00
-5599,71	1486,00
-5584,53	1559,00
-5569,37	1526,00
-5554,24	1031,00
-5539,14	1413,00
-5524,06	1320,00
-5509,01	1380,00
-5493,98	1411,00
-5478,98	1531,00
-5464,00	1347,00
-5449,05	1263,00
-5434,13	1212,00
-5419,23	1265,00
-5404,36	1345,00
-5389,51	1442,00
-5374,69	1639,00
-5359,89	1984,00
-5345,12	1974,00
-5330,37	1982,00
-5315,65	1686,00
-5300,95	1522,00
-5286,28	1385,00
-5271,63	1257,00
-5257,01	1399,00
-5242,41	1424,00
-5227,84	1330,00
-5213,29	1267,00
-5198,76	1208,00
-5184,26	1153,00
-5169,79	1258,00
-5155,33	1404,00
-5140,91	1430,00
-5126,51	1586,00
-5112,13	1449,00
-5097,77	1521,00
-5083,44	1322,00
-5069,13	1238,00
-5054,85	1234,00
-5040,59	1298,00
-5026,36	1436,00
-5012,15	1491,00
-4997,96	1426,00
-4983,80	1275,00
-4969,66	1278,00
-4955,54	1137,00
-4941,44	1410,00
-4927,37	1512,00
-4913,33	1771,00
-4899,30	1952,00
-4885,30	1850,00
-4871,33	1522,00
-4857,37	1351,00
-4843,44	1075,00
-4829,53	1249,00
-4815,65	1452,00
-4801,79	1161,00
-4787,95	1288,00
-4774,13	1179,00
-4760,34	1127,00
-4746,56	1066,00
-4732,82	1129,00
-4719,09	1270,00
-4705,38	1680,00
-4691,70	1803,00
-4678,04	1862,00
-4664,41	1585,00
-4650,79	1499,00
-4637,20	1238,00
-4623,63	1170,00
-4610,08	1405,00
-4596,56	1524,00
-4583,05	1534,00
-4569,57	1517,00
-4556,11	1364,00
-4542,67	1069,00
-4529,25	1138,00
-4515,86	1402,00
-4502,49	1681,00
-4489,13	1701,00
-4475,80	1510,00
-4462,49	1189,00
-4449,21	1295,00
-4435,94	1086,00
-4422,70	1247,00
-4409,47	1286,00
-4396,27	1344,00
-4383,09	1270,00
-4369,93	1104,00
-4356,79	957,00
-4343,67	1200,00
-4330,58	1224,00
-4317,50	1312,00
-4304,45	1184,00
-4291,41	1177,00
-4278,40	1015,00
-4265,41	928,00
-4252,44	1169,00
-4239,49	1248,00
-4226,55	1498,00
-4213,65	1287,00
-4200,76	1099,00
-4187,89	923,00
-4175,04	943,00
-4162,21	1114,00
-4149,40	1045,00
-4136,61	1075,00
-4123,85	921,00
-4111,10	1063,00
-4098,37	967,00
-4085,66	1038,00
-4072,98	1040,00
-4060,31	979,00
-4047,66	1128,00
-4035,04	1160,00
-4022,43	965,00
-4009,84	1092,00
-3997,27	905,00
-3984,72	903,00
-3972,19	928,00
-3959,69	819,00
-3947,20	1018,00
-3934,73	961,00
-3922,27	837,00
-3909,84	876,00
-3897,43	859,00
-3885,04	1101,00
-3872,67	893,00
-3860,31	971,00
-3847,98	966,00
-3835,66	856,00
-3823,36	889,00
-3811,09	797,00
-3798,83	926,00
-3786,59	899,00
-3774,37	963,00
-3762,17	870,00
-3749,98	867,00
-3737,82	848,00
-3725,67	1112,00
-3713,55	899,00
-3701,44	866,00
-3689,35	1052,00
-3677,28	1108,00
-3665,22	1001,00
-3653,19	926,00
-3641,17	878,00
-3629,18	1014,00
-3617,20	910,00
-3605,24	1004,00
-3593,30	1029,00
-3581,37	870,00
-3569,47	1088,00
-3557,58	917,00
-3545,71	990,00
-3533,86	974,00
-3522,02	897,00
-3510,21	912,00
-3498,41	902,00
-3486,63	954,00
-3474,87	962,00
-3463,12	953,00
-3451,40	920,00
-3439,69	919,00
-3428,00	974,00
-3416,33	986,00
-3404,67	847,00
-3393,03	870,00
-3381,41	890,00
-3369,81	853,00
-3358,22	831,00
-3346,66	1015,00
-3335,10	1006,00
-3323,57	881,00
-3312,06	1077,00
-3300,56	925,00
-3289,08	959,00
-3277,61	856,00
-3266,16	925,00
-3254,73	1054,00
-3243,32	862,00
-3231,92	868,00
-3220,55	1048,00
-3209,18	961,00
-3197,84	838,00
-3186,51	806,00
-3175,20	939,00
-3163,90	910,00
-3152,63	1000,00
-3141,36	982,00
-3130,12	996,00
-3118,89	941,00
-3107,68	878,00
-3096,49	845,00
-3085,31	964,00
-3074,15	938,00
-3063,00	1051,00
-3051,87	969,00
-3040,76	832,00
-3029,67	1032,00
-3018,59	1061,00
-3007,52	985,00
-2996,48	893,00
-2985,44	911,00
-2974,43	939,00
-2963,43	928,00
-2952,45	831,00
-2941,48	946,00
-2930,53	981,00
-2919,60	922,00
-2908,68	954,00
-2897,78	942,00
-2886,89	1018,00
-2876,02	909,00
-2865,17	904,00
-2854,33	821,00
-2843,50	1004,00
-2832,70	1052,00
-2821,90	1147,00
-2811,13	856,00
-2800,37	877,00
-2789,62	1036,00
-2778,89	954,00
-2768,18	949,00
-2757,48	977,00
-2746,80	1001,00
-2736,13	891,00
-2725,48	927,00
-2714,84	958,00
-2704,22	910,00
-2693,61	919,00
-2683,02	1005,00
-2672,45	902,00
-2661,89	936,00
-2651,34	988,00
-2640,81	916,00
-2630,30	1113,00
-2619,80	875,00
-2609,31	1053,00
-2598,84	690,00
-2588,39	930,00
-2577,95	872,00
-2567,52	786,00
-2557,11	931,00
-2546,71	1011,00
-2536,33	1035,00
-2525,97	987,00
-2515,62	923,00
-2505,28	991,00
-2494,96	925,00
-2484,65	1040,00
-2474,36	1210,00
-2464,08	936,00
-2453,82	967,00
-2443,57	875,00
-2433,33	863,00
-2423,11	909,00
-2412,91	977,00
-2402,72	882,00
-2392,54	952,00
-2382,38	923,00
-2372,23	905,00
-2362,09	5625,00
-2351,97	858,00
-2341,87	945,00
-2331,78	926,00
-2321,70	1032,00
-2311,64	944,00
-2301,59	827,00
-2291,55	872,00
-2281,53	913,00
-2271,53	851,00
-2261,53	886,00
-2251,55	957,00
-2241,59	1055,00
-2231,64	1077,00
-2221,70	957,00
-2211,78	935,00
-2201,87	938,00
-2191,97	973,00
-2182,09	953,00
-2172,22	1043,00
-2162,37	811,00
-2152,53	893,00
-2142,70	853,00
-2132,89	935,00
-2123,09	1044,00
-2113,30	931,00
-2103,53	948,00
-2093,77	913,00
-2084,02	799,00
-2074,29	1018,00
-2064,57	1048,00
-2054,86	976,00
-2045,17	1024,00
-2035,49	874,00
-2025,82	926,00
-2016,17	927,00
-2006,53	898,00
-1996,91	936,00
-1987,29	862,00
-1977,69	956,00
-1968,11	908,00
-1958,53	979,00
-1948,97	976,00
-1939,42	785,00
-1929,89	852,00
-1920,37	887,00
-1910,86	898,00
-1901,36	1067,00
-1891,88	973,00
-1882,41	916,00
-1872,95	980,00
-1863,51	855,00
-1854,08	986,00
-1844,66	964,00
-1835,26	978,00
-1825,86	928,00
-1816,48	914,00
-1807,11	929,00
-1797,76	938,00
-1788,42	933,00
-1779,09	1030,00
-1769,77	868,00
-1760,47	1152,00
-1751,17	875,00
-1741,89	794,00
-1732,63	1001,00
-1723,37	1106,00
-1714,13	1107,00
-1704,90	924,00
-1695,68	1042,00
-1686,48	912,00
-1677,29	916,00
-1668,11	1204,00
-1658,94	897,00
-1649,78	942,00
-1640,64	855,00
-1631,51	943,00
-1622,39	925,00
-1613,28	923,00
-1604,19	1033,00
-1595,10	899,00
-1586,03	897,00
-1576,97	886,00
-1567,93	886,00
-1558,89	985,00
-1549,87	1001,00
-1540,86	898,00
-1531,86	947,00
-1522,87	961,00
-1513,90	1096,00
-1504,93	1021,00
-1495,98	960,00
-1487,04	935,00
-1478,12	906,00
-1469,20	940,00
-1460,30	1005,00
-1451,40	1038,00
-1442,52	853,00
-1433,65	1028,00
-1424,80	980,00
-1415,95	911,00
-1407,12	1259,00
-1398,30	1006,00
-1389,48	908,00
-1380,69	904,00
-1371,90	940,00
-1363,12	988,00
-1354,36	1017,00
-1345,60	954,00
-1336,86	967,00
-1328,13	1109,00
-1319,41	930,00
-1310,70	832,00
-1302,01	802,00
-1293,32	992,00
-1284,65	900,00
-1275,99	941,00
-1267,33	913,00
-1258,69	990,00
-1250,06	883,00
-1241,45	951,00
-1232,84	1042,00
-1224,25	1116,00
-1215,66	1070,00
-1207,09	926,00
-1198,53	990,00
-1189,97	956,00
-1181,43	837,00
-1172,91	1044,00
-1164,39	1088,00
-1155,88	843,00
-1147,38	906,00
-1138,90	918,00
-1130,43	958,00
-1121,96	927,00
-1113,51	925,00
-1105,07	932,00
-1096,64	935,00
-1088,22	954,00
-1079,81	968,00
-1071,41	1016,00
-1063,02	890,00
-1054,65	956,00
-1046,28	913,00
-1037,92	1019,00
-1029,58	941,00
-1021,24	901,00
-1012,92	1315,00
-1004,61	990,00
-996,30	1184,00
-988,01	788,00
-979,73	913,00
-971,46	945,00
-963,20	830,00
-954,95	904,00
-946,71	904,00
-938,48	822,00
-930,26	888,00
-922,06	906,00
-913,86	985,00
-905,67	876,00
-897,49	1036,00
-889,33	765,00
-881,17	1056,00
-873,02	960,00
-864,89	912,00
-856,76	865,00
-848,65	963,00
-840,54	954,00
-832,45	989,00
-824,36	800,00
-816,29	973,00
-808,22	1051,00
-800,17	865,00
-792,12	950,00
-784,09	1018,00
-776,06	922,00
-768,05	894,00
-760,04	804,00
-752,05	839,00
-744,07	983,00
-736,09	994,00
-728,13	876,00
-720,17	913,00
-712,23	896,00
-704,29	932,00
-696,37	1014,00
-688,45	981,00
-680,55	999,00
-672,65	976,00
-664,77	975,00
-656,89	849,00
-649,03	917,00
-641,17	960,00
-633,32	1006,00
-625,49	953,00
-617,66	924,00
-609,84	910,00
-602,03	873,00
-594,23	948,00
-586,45	982,00
-578,67	1037,00
-570,90	871,00
-563,14	989,00
-555,39	902,00
-547,65	1002,00
-539,91	1016,00
-532,19	937,00
-524,48	1036,00
-516,78	908,00
-509,08	999,00
-501,40	900,00
-493,72	968,00
-486,06	888,00
-478,40	1124,00
-470,76	941,00
-463,12	1022,00
-455,49	923,00
-447,87	836,00
-440,26	973,00
-432,66	925,00
-425,07	1074,00
-417,49	871,00
-409,92	897,00
-402,35	948,00
-394,80	903,00
-387,25	1024,00
-379,72	982,00
-372,19	969,00
-364,67	987,00
-357,17	961,00
-349,67	933,00
-342,18	952,00
-334,69	1049,00
-327,22	917,00
-319,76	1059,00
-312,30	982,00
-304,86	1012,00
-297,42	954,00
-290,00	1022,00
-282,58	1039,00
-275,17	1021,00
-267,77	1064,00
-260,37	963,00
-252,99	986,00
-245,62	1020,00
-238,25	969,00
-230,90	942,00
-223,55	1042,00
-216,21	1049,00
-208,88	1124,00
-201,56	1062,00
-194,25	1059,00
-186,94	1089,00
-179,65	1220,00
-172,36	1236,00
-165,08	1128,00
-157,81	1314,00
-150,55	1308,00
-143,30	1301,00
-136,06	1304,00
-128,82	1374,00
-121,60	1353,00
-114,38	1458,00
-107,17	1605,00
-99,97	1657,00
-92,78	1658,00
-85,60	1744,00
-78,42	1979,00
-71,25	2080,00
-64,10	2156,00
-56,95	2565,00
-49,81	2845,00
-42,67	3328,00
-35,55	3903,00
-28,43	4896,00
-21,33	7580,00
-14,23	22795,00
-7,14	57727,00
-0,05	57480,00
7,02	57283,00
14,09	57420,00
21,14	19982,00
28,19	8776,00
35,23	5891,00
42,27	4656,00
49,29	3992,00
56,31	3478,00
63,32	3176,00
70,32	2635,00
77,31	2534,00
84,29	2126,00
91,27	2204,00
98,23	2086,00
105,19	1781,00
112,14	1998,00
119,09	2212,00
126,02	2804,00
132,95	3013,00
139,87	2985,00
146,78	2927,00
153,68	2839,00
160,58	2692,00
167,46	2770,00
174,34	2692,00
181,21	2733,00
188,08	2741,00
194,93	2882,00
201,78	2602,00
208,62	2713,00
215,45	2637,00
222,27	2660,00
229,09	2784,00
235,90	2551,00
242,70	2572,00
249,49	2815,00
256,27	2586,00
263,05	2646,00
269,82	2402,00
276,58	2652,00
283,33	2361,00
290,08	2444,00
296,82	2382,00
303,55	2279,00
310,27	2426,00
316,98	2347,00
323,69	2383,00
330,39	2242,00
337,08	2455,00
343,76	2398,00
350,44	2292,00
357,11	2343,00
363,77	2263,00
370,42	2264,00
377,07	2321,00
383,71	2214,00
390,34	2252,00
396,96	2122,00
403,58	2143,00
410,19	2273,00
416,79	2309,00
423,38	2283,00
429,97	2240,00
436,55	2141,00
443,12	2188,00
449,68	2072,00
456,24	2095,00
462,79	2040,00
469,33	2134,00
475,86	2077,00
482,39	2070,00
488,91	2010,00
495,42	2017,00
501,93	1968,00
508,42	1988,00
514,91	2130,00
521,40	1959,00
527,87	2032,00
534,34	1925,00
540,80	1986,00
547,25	2108,00
553,70	1914,00
560,14	1955,00
566,57	2038,00
573,00	1862,00
579,41	1928,00
585,83	2002,00
592,23	1963,00
598,62	1908,00
605,01	1861,00
611,40	1984,00
617,77	1982,00
624,14	1877,00
630,50	1907,00
636,85	1874,00
643,20	1817,00
649,54	1777,00
655,87	1819,00
662,20	1847,00
668,52	1840,00
674,83	1889,00
681,13	1852,00
687,43	1922,00
693,72	1804,00
700,00	1799,00
706,28	1822,00
712,55	1800,00
718,81	1925,00
725,07	1819,00
731,32	1708,00
737,56	1770,00
743,79	1775,00
750,02	1751,00
756,24	1727,00
762,46	1739,00
768,67	2024,00
774,87	1838,00
781,06	1690,00
787,25	1847,00
793,43	1704,00
799,60	1692,00
805,77	1818,00
811,93	1805,00
818,08	1775,00
824,23	1753,00
830,37	1992,00
836,50	1888,00
842,63	1756,00
848,75	1815,00
854,87	1685,00
860,97	1771,00
867,07	1752,00
873,17	1817,00
879,25	1834,00
885,33	1850,00
891,41	1749,00
897,47	1850,00
903,53	1687,00
909,59	1812,00
915,63	1749,00
921,67	1770,00
927,71	1750,00
933,74	1810,00
939,76	1547,00
945,77	1610,00
951,78	1726,00
957,78	1616,00
963,78	1744,00
969,77	1576,00
975,75	1666,00
981,72	1632,00
987,69	3100,00
993,66	1835,00
999,61	1801,00
1005,56	1630,00
1011,51	1723,00
1017,44	1665,00
1023,37	1718,00
1029,30	1767,00
1035,22	1654,00
1041,13	1584,00
1047,03	1672,00
1052,93	1765,00
1058,83	1991,00
1064,71	2143,00
1070,59	2018,00
1076,47	1919,00
1082,33	1743,00
1088,20	1765,00
1094,05	1725,00
1099,90	1614,00
1105,74	1621,00
1111,58	1735,00
1117,41	1751,00
1123,23	1949,00
1129,05	2074,00
1134,86	2076,00
1140,67	1761,00
1146,47	1658,00
1152,26	1668,00
1158,05	1517,00
1163,83	1734,00
1169,60	1656,00
1175,37	1716,00
1181,13	1608,00
1186,89	1645,00
1192,64	1681,00
1198,38	1601,00
1204,12	1596,00
1209,85	1515,00
1215,58	1744,00
1221,30	1596,00
1227,02	1604,00
1232,72	1576,00
1238,43	1495,00
1244,12	1616,00
1249,81	1582,00
1255,50	1760,00
1261,17	1612,00
1266,85	1664,00
1272,51	1558,00
1278,17	1691,00
1283,83	1682,00
1289,47	1968,00
1295,12	2321,00
1300,75	2170,00
1306,38	1955,00
1312,01	1795,00
1317,63	1752,00
1323,24	1720,00
1328,85	1801,00
1334,45	1689,00
1340,04	1740,00
1345,63	1605,00
1351,22	1849,00
1356,80	1596,00
1362,37	1717,00
1367,93	1598,00
1373,49	1834,00
1379,05	1651,00
1384,60	1695,00
1390,14	1618,00
1395,68	1758,00
1401,21	1762,00
1406,74	1784,00
1412,26	1718,00
1417,77	1954,00
1423,28	1937,00
1428,78	2118,00
1434,28	2311,00
1439,77	2295,00
1445,26	2236,00
1450,74	2345,00
1456,22	2268,00
1461,68	2041,00
1467,15	2067,00
1472,61	2001,00
1478,06	2063,00
1483,51	1726,00
1488,95	1549,00
1494,38	1792,00
1499,81	1513,00
1505,24	1595,00
1510,65	1690,00
1516,07	1660,00
1521,48	1660,00
1526,88	1454,00
1532,27	1434,00
1537,67	1505,00
1543,05	1564,00
1548,43	1424,00
1553,81	1598,00
1559,18	1390,00
1564,54	1513,00
1569,90	1473,00
1575,25	1442,00
1580,60	1443,00
1585,94	1514,00
1591,28	1505,00
1596,61	1363,00
1601,93	1455,00
1607,25	1533,00
1612,57	1500,00
1617,88	1587,00
1623,18	1491,00
1628,48	1403,00
1633,77	1570,00
1639,06	1672,00
1644,34	1548,00
1649,62	1375,00
1654,89	1634,00
1660,16	1374,00
1665,42	1455,00
1670,67	1377,00
1675,92	1446,00
1681,17	1355,00
1686,41	1394,00
1691,64	1595,00
1696,87	1428,00
1702,10	1411,00
1707,32	1304,00
1712,53	1397,00
1717,74	1431,00
1722,94	1424,00
1728,14	1422,00
1733,33	1305,00
1738,52	1251,00
1743,70	1320,00
1748,88	1191,00
1754,05	1433,00
1759,22	1365,00
1764,38	464,00
1769,53	1356,00
1774,69	1439,00
1779,83	1311,00
1784,97	1423,00
1790,11	1358,00
1795,24	1293,00
1800,36	1406,00
1805,48	1373,00
1810,60	1290,00
1815,71	1260,00
1820,82	1284,00
1825,92	1317,00
1831,01	1231,00
1836,10	1297,00
1841,19	1335,00
1846,26	1358,00
1851,34	1275,00
1856,41	1352,00
1861,47	1226,00
1866,53	1299,00
1871,59	1225,00
1876,64	1221,00
1881,68	1352,00
1886,72	1326,00
1891,76	1177,00
1896,79	1316,00
1901,81	1283,00
1906,83	1381,00
1911,85	1116,00
1916,86	1278,00
1921,86	1321,00
1926,86	1247,00
1931,86	1201,00
1936,85	1059,00
1941,83	1293,00
1946,81	1228,00
1951,79	1236,00
1956,76	1259,00
1961,72	1061,00
1966,68	1120,00
1971,64	1123,00
1976,59	1247,00
1981,54	1157,00
1986,48	1353,00
1991,42	1049,00
1996,35	1277,00
2001,27	1134,00
2006,20	1212,00
2011,11	1303,00
2016,03	1149,00
2020,93	1051,00
2025,84	1204,00
2030,73	1117,00
2035,63	1143,00
2040,52	1257,00
2045,40	1130,00
2050,28	1141,00
2055,15	1174,00
2060,02	1050,00
2064,89	1243,00
2069,75	1218,00
2074,60	1066,00
2079,46	1157,00
2084,30	1170,00
2089,14	1135,00
2093,98	1204,00
2098,81	1192,00
2103,64	1102,00
2108,46	1139,00
2113,28	1056,00
2118,09	1102,00
2122,90	1111,00
2127,70	1095,00
2132,50	1261,00
2137,30	1086,00
2142,09	1058,00
2146,87	1022,00
2151,66	1104,00
2156,43	1170,00
2161,20	1186,00
2165,97	1156,00
2170,73	1053,00
2175,49	1254,00
2180,24	1168,00
2184,99	1218,00
2189,74	1304,00
2194,48	1197,00
2199,21	1149,00
2203,94	1036,00
2208,67	1117,00
2213,39	1046,00
2218,11	1138,00
2222,82	1112,00
2227,53	1045,00
2232,23	1142,00
2236,93	1081,00
2241,63	1238,00
2246,32	1136,00
2251,00	1063,00
2255,68	1286,00
2260,36	1135,00
2265,03	1079,00
2269,70	1213,00
2274,36	1052,00
2279,02	1162,00
2283,68	1153,00
2288,33	1130,00
2292,97	1141,00
2297,61	979,00
2302,25	1143,00
2306,88	1089,00
2311,51	1018,00
2316,14	1062,00
2320,75	1025,00
2325,37	1075,00
2329,98	1192,00
2334,59	929,00
2339,19	1031,00
2343,79	997,00
2348,38	1036,00
2352,97	984,00
2357,55	1091,00
2362,13	1078,00
2366,71	1086,00
2371,28	1161,00
2375,85	1091,00
2380,41	1219,00
2384,97	1068,00
2389,52	1124,00
2394,07	1234,00
2398,62	1170,00
2403,16	970,00
2407,70	1157,00
2412,23	1054,00
2416,76	1214,00
2421,29	1078,00
2425,81	1092,00
2430,32	1074,00
2434,84	930,00
2439,34	1116,00
2443,85	1172,00
2448,35	1047,00
2452,84	1006,00
2457,33	1162,00
2461,82	966,00
2466,30	1043,00
2470,78	1040,00
2475,25	1059,00
2479,72	1109,00
2484,19	966,00
2488,65	1185,00
2493,11	919,00
2497,56	1116,00
2502,01	945,00
2506,46	1241,00
2510,90	959,00
2515,34	1141,00
2519,77	1158,00
2524,20	1092,00
2528,62	1031,00
2533,04	1022,00
2537,46	920,00
2541,87	1028,00
2546,28	1019,00
2550,68	1029,00
2555,08	1078,00
2559,48	1058,00
2563,87	947,00
2568,26	1054,00
2572,64	993,00
2577,02	1075,00
2581,40	888,00
2585,77	1055,00
2590,14	1041,00
2594,50	894,00
2598,86	1010,00
2603,22	991,00
2607,57	998,00
2611,92	1185,00
2616,26	1032,00
2620,60	1056,00
2624,94	848,00
2629,27	1027,00
2633,60	1008,00
2637,92	1213,00
2642,24	1210,00
2646,56	986,00
2650,87	869,00
2655,18	1236,00
2659,48	1083,00
2663,78	1071,00
2668,08	1099,00
2672,37	1050,00
2676,66	1141,00
2680,95	1136,00
2685,23	1147,00
2689,50	991,00
2693,78	1080,00
2698,05	1007,00
2702,31	1139,00
2706,57	1055,00
2710,83	1190,00
2715,08	1106,00
2719,33	1226,00
2723,58	1205,00
2727,82	1053,00
2732,06	1152,00
2736,29	1122,00
2740,53	1124,00
2744,75	1083,00
2748,97	1208,00
2753,19	1032,00
2757,41	1157,00
2761,62	1160,00
2765,83	1096,00
2770,03	1038,00
2774,23	1034,00
2778,43	1057,00
2782,62	999,00
2786,81	1010,00
2791,00	1023,00
2795,18	1262,00
2799,35	1115,00
2803,53	1126,00
2807,70	1228,00
2811,86	1092,00
2816,03	1239,00
2820,19	1162,00
2824,34	1213,00
2828,49	1196,00
2832,64	1351,00
2836,78	1447,00
2840,92	1528,00
2845,06	1604,00
2849,19	1793,00
2853,32	1876,00
2857,45	1883,00
2861,57	1858,00
2865,69	1721,00
2869,80	1762,00
2873,91	1793,00
2878,02	1849,00
2882,12	1958,00
2886,22	1849,00
2890,32	2002,00
2894,41	1950,00
2898,50	1714,00
2902,58	1775,00
2906,67	1748,00
2910,74	1775,00
2914,82	1520,00
2918,89	1614,00
2922,96	1470,00
2927,02	1425,00
2931,08	1325,00
2935,13	1323,00
2939,19	1474,00
2943,24	1308,00
2947,28	1267,00
2951,32	1183,00
2955,36	1174,00
2959,40	1306,00
2963,43	1252,00
2967,46	1180,00
2971,48	1133,00
2975,50	1237,00
2979,52	1145,00
2983,53	1157,00
2987,54	1026,00
2991,55	1095,00
2995,55	996,00
2999,55	965,00
3003,54	982,00
3007,54	1064,00
3011,53	987,00
3015,51	1050,00
3019,49	1080,00
3023,47	996,00
3027,45	924,00
3031,42	955,00
3035,39	833,00
3039,35	948,00
3043,31	995,00
3047,27	1021,00
3051,22	1014,00
3055,17	859,00
3059,12	926,00
3063,06	973,00
3067,00	911,00
3070,94	1060,00
3074,87	939,00
3078,80	1051,00
3082,73	1010,00
3086,65	963,00
3090,57	868,00
3094,49	1004,00
3098,40	1022,00
3102,31	950,00
3106,22	952,00
3110,12	990,00
3114,02	862,00
3117,92	1012,00
3121,81	948,00
3125,70	960,00
3129,58	921,00
3133,47	951,00
3137,34	989,00
3141,22	961,00
3145,09	987,00
3148,96	1043,00
3152,83	937,00
3156,69	922,00
3160,55	862,00
3164,40	916,00
3168,26	981,00
3172,10	1170,00
3175,95	996,00
3179,79	1010,00
3183,63	1016,00
3187,47	984,00
3191,30	977,00
3195,13	1025,00
3198,95	892,00
3202,78	1000,00
3206,60	891,00
3210,41	798,00
3214,23	862,00
3218,03	958,00
3221,84	929,00
3225,64	915,00
3229,44	928,00
3233,24	942,00
3237,03	928,00
3240,82	933,00
3244,61	1006,00
3248,39	861,00
3252,17	1010,00
3255,95	1017,00
3259,72	988,00
3263,49	1095,00
3267,26	915,00
3271,03	902,00
3274,79	795,00
3278,54	819,00
3282,30	921,00
3286,05	986,00
3289,80	917,00
3293,54	953,00
3297,29	1000,00
3301,02	934,00
3304,76	981,00
3308,49	997,00
3312,22	792,00
3315,95	934,00
3319,67	878,00
3323,39	1035,00
3327,10	1010,00
3330,82	951,00
3334,53	985,00
3338,24	926,00
3341,94	1035,00
3345,64	875,00
3349,34	916,00
3353,03	969,00
3356,72	963,00
3360,41	924,00
3364,10	950,00
3367,78	864,00
3371,46	1026,00
3375,13	885,00
3378,81	998,00
3382,48	900,00
3386,14	981,00
3389,81	873,00
3393,47	1025,00
3397,12	1112,00
3400,78	909,00
3404,43	992,00
3408,08	961,00
3411,72	948,00
3415,36	945,00
3419,00	1072,00
3422,64	948,00
3426,27	879,00
3429,90	824,00
3433,53	929,00
3437,15	1017,00
3440,77	793,00
3444,39	981,00
3448,00	910,00
3451,62	946,00
3455,22	853,00
3458,83	837,00
3462,43	852,00
3466,03	965,00
3469,63	909,00
3473,22	846,00
3476,81	951,00
3480,40	920,00
3483,99	764,00
3487,57	962,00
3491,15	763,00
3494,72	883,00
3498,29	860,00
3501,86	886,00
3505,43	919,00
3508,99	966,00
3512,56	887,00
3516,11	1070,00
3519,67	875,00
3523,22	1051,00
3526,77	1002,00
3530,32	967,00
3533,86	884,00
3537,40	928,00
3540,94	937,00
3544,47	976,00
3548,00	873,00
3551,53	867,00
3555,06	863,00
3558,58	1131,00
3562,10	834,00
3565,62	882,00
3569,13	851,00
3572,64	907,00
3576,15	787,00
3579,66	970,00
3583,16	908,00
3586,66	887,00
3590,16	874,00
3593,65	894,00
3597,14	893,00
3600,63	933,00
3604,11	955,00
3607,60	851,00
3611,08	852,00
3614,55	900,00
3618,03	818,00
3621,50	855,00
3624,97	827,00
3628,43	921,00
3631,90	978,00
3635,36	859,00
3638,81	802,00
3642,27	827,00
3645,72	865,00
3649,17	881,00
3652,61	779,00
3656,06	901,00
3659,50	784,00
3662,93	847,00
3666,37	856,00
3669,80	962,00
3673,23	796,00
3676,65	892,00
3680,08	895,00
3683,50	836,00
3686,92	843,00
3690,33	814,00
3693,74	789,00
3697,15	718,00
3700,56	860,00
3703,96	911,00
3707,36	850,00
3710,76	777,00
3714,16	804,00
3717,55	834,00
3720,94	942,00
3724,33	777,00
3727,71	812,00
3731,10	862,00
3734,48	822,00
3737,85	673,00
3741,23	783,00
3744,60	699,00
3747,97	780,00
3751,33	850,00
3754,69	749,00
3758,05	825,00
3761,41	752,00
3764,77	783,00
3768,12	804,00
3771,47	671,00
3774,82	706,00
3778,16	-9,00
3781,50	14,00
3784,84	5,00
3788,18	11,00
>>>>>End Processed Spectral Data<<<<<
