SpectraSuite Data File
++++++++++++++++++++++++++++++++++++
Date: Tue Mar 03 12:08:07 ICT 2026
User: user
Dark Spectrum Present: Yes
Reference Spectrum Present: No
Number of Sampled Component Spectra: 1
Spectrometers: MAYP113682
Integration Time (usec): 3000000 (MAYP113682)
Spectra Averaged: 1 (MAYP113682)
Boxcar Smoothing: 0 (MAYP113682)
Correct for Electrical Dark: No (MAYP113682)
Strobe/Lamp Enabled: No (MAYP113682)
Correct for Detector Non-linearity: No (MAYP113682)
Correct for Stray Light: No (MAYP113682)
Number of Pixels in Processed Spectrum: 2068
>>>>>Begin Processed Spectral Data<<<<<
-37534,58	9,00
-37414,56	3,00
-37295,11	-1,00
-37176,24	-4,00
-37057,95	-14,00
-36940,22	-31,00
-36823,05	5,00
-36706,45	2,00
-36590,40	36,00
-36474,90	60,00
-36359,95	-15,00
-36245,55	125,00
-36131,68	58,00
-36018,35	16,00
-35905,55	-77,00
-35793,29	-24,00
-35681,54	-14,00
-35570,32	28,00
-35459,62	67,00
-35349,43	51,00
-35239,75	74,00
-35130,58	39,00
-35021,91	35,00
-34913,74	-64,00
-34806,07	12,00
-34698,89	18,00
-34592,20	-21,00
-34486,00	-47,00
-34380,28	-83,00
-34275,04	-11,00
-34170,27	8,00
-34065,98	18,00
-33962,16	4,00
-33858,81	45,00
-33755,92	-17,00
-33653,49	17,00
-33551,52	-55,00
-33450,01	62,00
-33348,94	-38,00
-33248,33	57,00
-33148,16	-72,00
-33048,43	188,00
-32949,14	-26,00
-32850,29	49,00
-32751,87	-50,00
-32653,89	-104,00
-32556,33	2,00
-32459,20	63,00
-32362,49	-151,00
-32266,19	71,00
-32170,32	-153,00
-32074,86	56,00
-31979,82	29,00
-31885,18	40,00
-31790,95	-8,00
-31697,12	52,00
-31603,69	124,00
-31510,67	-117,00
-31418,04	74,00
-31325,80	56,00
-31233,95	-112,00
-31142,49	13,00
-31051,42	63,00
-30960,73	-27,00
-30870,43	-91,00
-30780,50	55,00
-30690,95	-36,00
-30601,77	0,00
-30512,97	-73,00
-30424,53	4,00
-30336,46	45,00
-30248,76	25,00
-30161,42	36,00
-30074,44	21,00
-29987,81	27,00
-29901,55	40,00
-29815,63	26,00
-29730,07	-9,00
-29644,86	162,00
-29560,00	178,00
-29475,48	-34,00
-29391,30	-7,00
-29307,47	25,00
-29223,97	76,00
-29140,81	-57,00
-29057,99	-10,00
-28975,50	11,00
-28893,34	21,00
-28811,51	48,00
-28730,00	6,00
-28648,82	75,00
-28567,97	124,00
-28487,43	43,00
-28407,21	21,00
-28327,32	31,00
-28247,73	56,00
-28168,46	12,00
-28089,50	-31,00
-28010,85	-98,00
-27932,51	-67,00
-27854,48	12,00
-27776,75	-31,00
-27699,32	157,00
-27622,19	2,00
-27545,37	188,00
-27468,84	51,00
-27392,60	147,00
-27316,66	172,00
-27241,01	76,00
-27165,66	68,00
-27090,59	132,00
-27015,81	4,00
-26941,31	118,00
-26867,10	3,00
-26793,17	99,00
-26719,52	8,00
-26646,15	-18,00
-26573,06	87,00
-26500,24	-34,00
-26427,70	-78,00
-26355,43	-18,00
-26283,43	14,00
-26211,71	81,00
-26140,25	-5,00
-26069,06	-5,00
-25998,13	100,00
-25927,46	12,00
-25857,06	-20,00
-25786,92	-24,00
-25717,04	143,00
-25647,42	48,00
-25578,05	13,00
-25508,94	165,00
-25440,09	-141,00
-25371,48	102,00
-25303,13	87,00
-25235,02	-4,00
-25167,17	66,00
-25099,56	-42,00
-25032,19	74,00
-24965,07	-22,00
-24898,20	-25,00
-24831,56	10,00
-24765,17	-38,00
-24699,01	135,00
-24633,10	45,00
-24567,41	72,00
-24501,97	48,00
-24436,75	-169,00
-24371,77	192,00
-24307,03	-24,00
-24242,51	-81,00
-24178,22	24,00
-24114,16	-1,00
-24050,32	115,00
-23986,71	37,00
-23923,32	112,00
-23860,16	1,00
-23797,22	-19,00
-23734,50	-97,00
-23672,00	72,00
-23609,71	-28,00
-23547,65	-23,00
-23485,80	-17,00
-23424,16	80,00
-23362,74	-37,00
-23301,53	5,00
-23240,54	-23,00
-23179,75	-70,00
-23119,17	132,00
-23058,80	4,00
-22998,64	-21,00
-22938,68	68,00
-22878,93	91,00
-22819,39	10,00
-22760,04	-92,00
-22700,90	35,00
-22641,96	19,00
-22583,22	-5,00
-22524,68	77,00
-22466,33	37,00
-22408,19	-26,00
-22350,23	13,00
-22292,48	-8,00
-22234,92	85,00
-22177,55	-65,00
-22120,37	-30,00
-22063,38	65,00
-22006,58	-29,00
-21949,98	-180,00
-21893,56	-17,00
-21837,33	-166,00
-21781,28	15,00
-21725,42	36,00
-21669,74	-124,00
-21614,25	118,00
-21558,94	33,00
-21503,81	8,00
-21448,86	-82,00
-21394,10	74,00
-21339,51	102,00
-21285,10	-7,00
-21230,86	-136,00
-21176,81	-119,00
-21122,93	-19,00
-21069,22	190,00
-21015,69	-84,00
-20962,33	33,00
-20909,14	-50,00
-20856,13	52,00
-20803,28	15,00
-20750,61	19,00
-20698,10	83,00
-20645,76	93,00
-20593,59	22,00
-20541,59	112,00
-20489,75	51,00
-20438,07	106,00
-20386,56	42,00
-20335,22	-48,00
-20284,03	48,00
-20233,01	102,00
-20182,15	-31,00
-20131,45	-13,00
-20080,91	-89,00
-20030,52	-53,00
-19980,30	15,00
-19930,23	51,00
-19880,32	78,00
-19830,56	50,00
-19780,96	19,00
-19731,52	-4,00
-19682,23	-53,00
-19633,09	60,00
-19584,10	-39,00
-19535,26	-10,00
-19486,58	52,00
-19438,04	19,00
-19389,66	-12,00
-19341,42	50,00
-19293,33	12,00
-19245,39	105,00
-19197,60	-53,00
-19149,95	120,00
-19102,45	27,00
-19055,09	50,00
-19007,87	-53,00
-18960,80	96,00
-18913,87	-70,00
-18867,09	-164,00
-18820,44	76,00
-18773,94	-2,00
-18727,57	-92,00
-18681,35	8,00
-18635,26	0,00
-18589,31	78,00
-18543,50	54,00
-18497,83	76,00
-18452,29	-64,00
-18406,89	17,00
-18361,63	64,00
-18316,50	-100,00
-18271,50	-72,00
-18226,63	82,00
-18181,90	152,00
-18137,30	81,00
-18092,84	-106,00
-18048,50	-31,00
-18004,29	-104,00
-17960,22	84,00
-17916,27	48,00
-17872,45	-72,00
-17828,76	-41,00
-17785,20	29,00
-17741,77	-52,00
-17698,46	-54,00
-17655,28	-11,00
-17612,22	-54,00
-17569,29	-26,00
-17526,48	-86,00
-17483,79	-21,00
-17441,23	-54,00
-17398,79	3,00
-17356,48	-112,00
-17314,28	24,00
-17272,21	-72,00
-17230,26	-44,00
-17188,42	-150,00
-17146,71	5,00
-17105,12	-37,00
-17063,64	0,00
-17022,28	62,00
-16981,04	40,00
-16939,92	11,00
-16898,91	-40,00
-16858,02	-83,00
-16817,25	34,00
-16776,59	24,00
-16736,04	15,00
-16695,61	8,00
-16655,29	31,00
-16615,09	-10,00
-16574,99	82,00
-16535,01	110,00
-16495,15	-38,00
-16455,39	100,00
-16415,74	110,00
-16376,21	-11,00
-16336,78	-8,00
-16297,46	9,00
-16258,26	-29,00
-16219,16	30,00
-16180,17	128,00
-16141,28	-2,00
-16102,51	68,00
-16063,84	62,00
-16025,27	88,00
-15986,82	13,00
-15948,46	66,00
-15910,22	-69,00
-15872,07	55,00
-15834,04	8,00
-15796,10	-51,00
-15758,27	-8,00
-15720,54	90,00
-15682,91	33,00
-15645,39	-121,00
-15607,97	12,00
-15570,64	-16,00
-15533,42	-41,00
-15496,30	104,00
-15459,28	102,00
-15422,36	7,00
-15385,54	7,00
-15348,82	14,00
-15312,19	43,00
-15275,66	-33,00
-15239,23	-10,00
-15202,90	-8,00
-15166,67	4,00
-15130,53	-30,00
-15094,48	-51,00
-15058,54	-62,00
-15022,68	8,00
-14986,93	-1,00
-14951,26	-4,00
-14915,69	21,00
-14880,22	27,00
-14844,84	-11,00
-14809,55	-88,00
-14774,35	20,00
-14739,25	11,00
-14704,24	91,00
-14669,32	-11,00
-14634,49	41,00
-14599,75	100,00
-14565,10	-11,00
-14530,55	-43,00
-14496,08	-97,00
-14461,70	-3,00
-14427,41	92,00
-14393,21	-16,00
-14359,10	-41,00
-14325,07	-172,00
-14291,14	115,00
-14257,29	115,00
-14223,52	-25,00
-14189,85	21,00
-14156,26	-3,00
-14122,76	36,00
-14089,34	-4,00
-14056,01	31,00
-14022,76	-54,00
-13989,60	40,00
-13956,52	75,00
-13923,53	2,00
-13890,62	-48,00
-13857,79	60,00
-13825,05	-18,00
-13792,39	48,00
-13759,81	28,00
-13727,31	-4,00
-13694,90	47,00
-13662,57	-30,00
-13630,31	81,00
-13598,14	27,00
-13566,05	-4,00
-13534,05	34,00
-13502,12	52,00
-13470,27	91,00
-13438,50	-19,00
-13406,80	7,00
-13375,19	7,00
-13343,66	4,00
-13312,20	90,00
-13280,83	64,00
-13249,53	-19,00
-13218,30	85,00
-13187,16	46,00
-13156,09	1,00
-13125,10	-40,00
-13094,18	-87,00
-13063,34	108,00
-13032,58	-114,00
-13001,89	148,00
-12971,28	-42,00
-12940,74	103,00
-12910,27	-14,00
-12879,88	-21,00
-12849,57	-72,00
-12819,33	44,00
-12789,16	46,00
-12759,06	99,00
-12729,04	53,00
-12699,09	1654,00
-12669,21	57,00
-12639,41	-49,00
-12609,68	6,00
-12580,02	43,00
-12550,43	73,00
-12520,91	-53,00
-12491,46	0,00
-12462,08	36,00
-12432,77	-40,00
-12403,54	-4,00
-12374,37	-2,00
-12345,27	86,00
-12316,24	36,00
-12287,29	87,00
-12258,40	0,00
-12229,57	-12,00
-12200,82	39,00
-12172,14	-62,00
-12143,52	-205,00
-12114,97	96,00
-12086,49	87,00
-12058,07	31,00
-12029,73	59,00
-12001,44	31,00
-11973,23	-17,00
-11945,08	-80,00
-11917,00	-65,00
-11888,98	-107,00
-11861,03	-25,00
-11833,15	73,00
-11805,32	9,00
-11777,57	-112,00
-11749,88	94,00
-11722,25	110,00
-11694,69	-6,00
-11667,19	83,00
-11639,75	-44,00
-11612,38	-48,00
-11585,07	29,00
-11557,83	31,00
-11530,65	-75,00
-11503,53	-44,00
-11476,47	-96,00
-11449,48	-33,00
-11422,54	73,00
-11395,67	89,00
-11368,86	83,00
-11342,11	7,00
-11315,43	5,00
-11288,80	7,00
-11262,23	-46,00
-11235,73	-24,00
-11209,28	-110,00
-11182,90	69,00
-11156,57	-50,00
-11130,31	-60,00
-11104,10	-33,00
-11077,96	78,00
-11051,87	-85,00
-11025,84	-70,00
-10999,87	52,00
-10973,96	77,00
-10948,11	-72,00
-10922,31	-3,00
-10896,58	32,00
-10870,90	-75,00
-10845,28	-36,00
-10819,71	78,00
-10794,20	15,00
-10768,75	136,00
-10743,36	-63,00
-10718,02	53,00
-10692,74	28,00
-10667,52	75,00
-10642,35	153,00
-10617,24	214,00
-10592,18	161,00
-10567,18	179,00
-10542,23	117,00
-10517,34	88,00
-10492,51	118,00
-10467,72	0,00
-10443,00	206,00
-10418,32	209,00
-10393,70	101,00
-10369,14	182,00
-10344,63	289,00
-10320,17	260,00
-10295,77	263,00
-10271,42	253,00
-10247,12	318,00
-10222,88	161,00
-10198,68	392,00
-10174,54	175,00
-10150,46	362,00
-10126,42	286,00
-10102,44	342,00
-10078,51	206,00
-10054,63	502,00
-10030,80	441,00
-10007,03	509,00
-9983,30	468,00
-9959,63	481,00
-9936,01	479,00
-9912,44	637,00
-9888,92	667,00
-9865,44	595,00
-9842,02	616,00
-9818,65	714,00
-9795,33	744,00
-9772,06	660,00
-9748,84	797,00
-9725,67	958,00
-9702,55	1071,00
-9679,47	1257,00
-9656,45	1308,00
-9633,47	1377,00
-9610,55	1403,00
-9587,67	1426,00
-9564,84	1556,00
-9542,06	1655,00
-9519,32	2005,00
-9496,64	2028,00
-9474,00	2171,00
-9451,41	2356,00
-9428,87	2316,00
-9406,37	2145,00
-9383,92	2142,00
-9361,52	1770,00
-9339,17	2024,00
-9316,86	2118,00
-9294,60	2452,00
-9272,38	2674,00
-9250,21	2967,00
-9228,09	2958,00
-9206,01	2732,00
-9183,98	2516,00
-9162,00	2298,00
-9140,06	2009,00
-9118,16	2040,00
-9096,31	2144,00
-9074,51	2172,00
-9052,75	2289,00
-9031,04	2187,00
-9009,37	1798,00
-8987,74	1708,00
-8966,16	1564,00
-8944,63	1273,00
-8923,14	1381,00
-8901,69	1299,00
-8880,29	1520,00
-8858,93	1691,00
-8837,61	1858,00
-8816,34	1951,00
-8795,11	2035,00
-8773,92	1748,00
-8752,78	1621,00
-8731,68	1525,00
-8710,62	1641,00
-8689,61	1800,00
-8668,63	1815,00
-8647,70	1852,00
-8626,82	1885,00
-8605,97	1823,00
-8585,17	1656,00
-8564,41	1554,00
-8543,69	1346,00
-8523,01	1311,00
-8502,37	1400,00
-8481,78	1357,00
-8461,23	1556,00
-8440,71	1632,00
-8420,24	1742,00
-8399,81	1734,00
-8379,42	1637,00
-8359,08	1610,00
-8338,77	1352,00
-8318,50	1441,00
-8298,27	1255,00
-8278,09	1243,00
-8257,94	1438,00
-8237,83	1572,00
-8217,76	1687,00
-8197,74	1738,00
-8177,75	1635,00
-8157,80	1483,00
-8137,89	1285,00
-8118,02	1254,00
-8098,19	1362,00
-8078,40	1335,00
-8058,65	1448,00
-8038,93	1386,00
-8019,26	1568,00
-7999,62	1481,00
-7980,02	1285,00
-7960,46	1336,00
-7940,94	1178,00
-7921,46	1365,00
-7902,01	1130,00
-7882,60	1130,00
-7863,23	1267,00
-7843,90	1328,00
-7824,61	1445,00
-7805,35	1569,00
-7786,13	1471,00
-7766,95	1433,00
-7747,80	1361,00
-7728,69	1306,00
-7709,62	1326,00
-7690,59	1419,00
-7671,59	1540,00
-7652,63	1526,00
-7633,70	1590,00
-7614,81	1381,00
-7595,96	1375,00
-7577,15	1224,00
-7558,37	1251,00
-7539,62	1232,00
-7520,91	1406,00
-7502,24	1537,00
-7483,60	1581,00
-7465,00	1437,00
-7446,44	1183,00
-7427,91	1114,00
-7409,41	881,00
-7390,95	870,00
-7372,53	925,00
-7354,14	840,00
-7335,78	1031,00
-7317,46	963,00
-7299,18	1061,00
-7280,92	1184,00
-7262,71	1429,00
-7244,52	1500,00
-7226,38	1600,00
-7208,26	1429,00
-7190,18	1325,00
-7172,14	1273,00
-7154,12	1322,00
-7136,15	1270,00
-7118,20	1468,00
-7100,29	1522,00
-7082,41	1402,00
-7064,57	1367,00
-7046,76	1371,00
-7028,98	1115,00
-7011,24	952,00
-6993,53	882,00
-6975,85	778,00
-6958,20	677,00
-6940,59	648,00
-6923,01	742,00
-6905,46	783,00
-6887,94	1013,00
-6870,46	1235,00
-6853,01	1292,00
-6835,59	1370,00
-6818,21	1065,00
-6800,85	966,00
-6783,53	612,00
-6766,24	695,00
-6748,98	635,00
-6731,76	459,00
-6714,56	479,00
-6697,40	493,00
-6680,26	517,00
-6663,16	588,00
-6646,09	814,00
-6629,05	981,00
-6612,05	1054,00
-6595,07	907,00
-6578,13	955,00
-6561,21	872,00
-6544,33	459,00
-6527,47	489,00
-6510,65	420,00
-6493,86	508,00
-6477,10	378,00
-6460,36	363,00
-6443,66	528,00
-6426,99	395,00
-6410,35	443,00
-6393,74	532,00
-6377,16	617,00
-6360,61	644,00
-6344,09	842,00
-6327,59	691,00
-6311,13	741,00
-6294,70	805,00
-6278,29	829,00
-6261,92	975,00
-6245,58	928,00
-6229,26	1071,00
-6212,97	850,00
-6196,72	614,00
-6180,49	447,00
-6164,29	245,00
-6148,12	169,00
-6131,98	243,00
-6115,86	190,00
-6099,78	193,00
-6083,72	252,00
-6067,69	176,00
-6051,69	176,00
-6035,72	222,00
-6019,78	356,00
-6003,87	501,00
-5987,98	645,00
-5972,12	777,00
-5956,29	716,00
-5940,49	564,00
-5924,71	527,00
-5908,96	435,00
-5893,24	175,00
-5877,55	79,00
-5861,89	182,00
-5846,25	304,00
-5830,64	339,00
-5815,05	318,00
-5799,50	298,00
-5783,97	298,00
-5768,47	340,00
-5752,99	468,00
-5737,55	848,00
-5722,12	680,00
-5706,73	686,00
-5691,36	406,00
-5676,02	335,00
-5660,71	385,00
-5645,42	374,00
-5630,16	312,00
-5614,92	464,00
-5599,71	525,00
-5584,53	630,00
-5569,37	521,00
-5554,24	-631,00
-5539,14	394,00
-5524,06	325,00
-5509,01	397,00
-5493,98	516,00
-5478,98	445,00
-5464,00	316,00
-5449,05	397,00
-5434,13	302,00
-5419,23	445,00
-5404,36	258,00
-5389,51	440,00
-5374,69	633,00
-5359,89	746,00
-5345,12	817,00
-5330,37	510,00
-5315,65	580,00
-5300,95	437,00
-5286,28	407,00
-5271,63	434,00
-5257,01	368,00
-5242,41	358,00
-5227,84	236,00
-5213,29	351,00
-5198,76	119,00
-5184,26	133,00
-5169,79	291,00
-5155,33	183,00
-5140,91	533,00
-5126,51	477,00
-5112,13	539,00
-5097,77	321,00
-5083,44	328,00
-5069,13	158,00
-5054,85	176,00
-5040,59	510,00
-5026,36	473,00
-5012,15	486,00
-4997,96	368,00
-4983,80	370,00
-4969,66	316,00
-4955,54	242,00
-4941,44	432,00
-4927,37	400,00
-4913,33	722,00
-4899,30	679,00
-4885,30	744,00
-4871,33	489,00
-4857,37	332,00
-4843,44	245,00
-4829,53	312,00
-4815,65	260,00
-4801,79	452,00
-4787,95	271,00
-4774,13	309,00
-4760,34	114,00
-4746,56	219,00
-4732,82	115,00
-4719,09	306,00
-4705,38	503,00
-4691,70	688,00
-4678,04	519,00
-4664,41	463,00
-4650,79	418,00
-4637,20	148,00
-4623,63	179,00
-4610,08	296,00
-4596,56	392,00
-4583,05	455,00
-4569,57	384,00
-4556,11	241,00
-4542,67	132,00
-4529,25	82,00
-4515,86	414,00
-4502,49	467,00
-4489,13	508,00
-4475,80	456,00
-4462,49	307,00
-4449,21	376,00
-4435,94	151,00
-4422,70	372,00
-4409,47	409,00
-4396,27	376,00
-4383,09	380,00
-4369,93	49,00
-4356,79	143,00
-4343,67	55,00
-4330,58	229,00
-4317,50	265,00
-4304,45	253,00
-4291,41	163,00
-4278,40	118,00
-4265,41	216,00
-4252,44	248,00
-4239,49	248,00
-4226,55	273,00
-4213,65	259,00
-4200,76	197,00
-4187,89	50,00
-4175,04	136,00
-4162,21	164,00
-4149,40	210,00
-4136,61	178,00
-4123,85	161,00
-4111,10	71,00
-4098,37	81,00
-4085,66	197,00
-4072,98	48,00
-4060,31	51,00
-4047,66	102,00
-4035,04	86,00
-4022,43	123,00
-4009,84	248,00
-3997,27	128,00
-3984,72	-21,00
-3972,19	135,00
-3959,69	32,00
-3947,20	35,00
-3934,73	66,00
-3922,27	22,00
-3909,84	-23,00
-3897,43	15,00
-3885,04	-135,00
-3872,67	-6,00
-3860,31	-34,00
-3847,98	-44,00
-3835,66	92,00
-3823,36	-10,00
-3811,09	-34,00
-3798,83	88,00
-3786,59	-47,00
-3774,37	112,00
-3762,17	-5,00
-3749,98	100,00
-3737,82	41,00
-3725,67	66,00
-3713,55	-28,00
-3701,44	0,00
-3689,35	70,00
-3677,28	39,00
-3665,22	-63,00
-3653,19	25,00
-3641,17	19,00
-3629,18	-19,00
-3617,20	-29,00
-3605,24	105,00
-3593,30	-28,00
-3581,37	96,00
-3569,47	4,00
-3557,58	114,00
-3545,71	126,00
-3533,86	-3,00
-3522,02	36,00
-3510,21	-49,00
-3498,41	-59,00
-3486,63	35,00
-3474,87	61,00
-3463,12	-24,00
-3451,40	37,00
-3439,69	122,00
-3428,00	159,00
-3416,33	141,00
-3404,67	16,00
-3393,03	36,00
-3381,41	13,00
-3369,81	112,00
-3358,22	56,00
-3346,66	-36,00
-3335,10	-77,00
-3323,57	-55,00
-3312,06	-92,00
-3300,56	-32,00
-3289,08	-34,00
-3277,61	132,00
-3266,16	76,00
-3254,73	32,00
-3243,32	59,00
-3231,92	-26,00
-3220,55	-170,00
-3209,18	66,00
-3197,84	97,00
-3186,51	-2,00
-3175,20	-8,00
-3163,90	-96,00
-3152,63	-68,00
-3141,36	16,00
-3130,12	-54,00
-3118,89	-52,00
-3107,68	-20,00
-3096,49	32,00
-3085,31	21,00
-3074,15	-12,00
-3063,00	6,00
-3051,87	-7,00
-3040,76	21,00
-3029,67	-61,00
-3018,59	-2,00
-3007,52	-4,00
-2996,48	137,00
-2985,44	144,00
-2974,43	44,00
-2963,43	96,00
-2952,45	-37,00
-2941,48	7,00
-2930,53	-39,00
-2919,60	52,00
-2908,68	126,00
-2897,78	-9,00
-2886,89	-113,00
-2876,02	26,00
-2865,17	101,00
-2854,33	-62,00
-2843,50	47,00
-2832,70	-14,00
-2821,90	-47,00
-2811,13	-41,00
-2800,37	20,00
-2789,62	22,00
-2778,89	32,00
-2768,18	1,00
-2757,48	9,00
-2746,80	18,00
-2736,13	-111,00
-2725,48	-24,00
-2714,84	-55,00
-2704,22	105,00
-2693,61	-44,00
-2683,02	35,00
-2672,45	104,00
-2661,89	-6,00
-2651,34	-124,00
-2640,81	-10,00
-2630,30	-16,00
-2619,80	43,00
-2609,31	60,00
-2598,84	-67,00
-2588,39	-18,00
-2577,95	-161,00
-2567,52	-24,00
-2557,11	40,00
-2546,71	35,00
-2536,33	-96,00
-2525,97	44,00
-2515,62	106,00
-2505,28	-12,00
-2494,96	80,00
-2484,65	77,00
-2474,36	-20,00
-2464,08	-15,00
-2453,82	52,00
-2443,57	-71,00
-2433,33	61,00
-2423,11	41,00
-2412,91	-4,00
-2402,72	90,00
-2392,54	5,00
-2382,38	29,00
-2372,23	24,00
-2362,09	55,00
-2351,97	-29,00
-2341,87	43,00
-2331,78	-61,00
-2321,70	-26,00
-2311,64	133,00
-2301,59	92,00
-2291,55	-15,00
-2281,53	114,00
-2271,53	14,00
-2261,53	-106,00
-2251,55	51,00
-2241,59	-81,00
-2231,64	151,00
-2221,70	-99,00
-2211,78	-132,00
-2201,87	38,00
-2191,97	-31,00
-2182,09	23,00
-2172,22	-35,00
-2162,37	49,00
-2152,53	-76,00
-2142,70	-23,00
-2132,89	-7,00
-2123,09	-14,00
-2113,30	38,00
-2103,53	-79,00
-2093,77	-75,00
-2084,02	-32,00
-2074,29	-3,00
-2064,57	64,00
-2054,86	84,00
-2045,17	206,00
-2035,49	-61,00
-2025,82	18,00
-2016,17	155,00
-2006,53	-23,00
-1996,91	-18,00
-1987,29	11,00
-1977,69	-74,00
-1968,11	-62,00
-1958,53	113,00
-1948,97	29,00
-1939,42	67,00
-1929,89	133,00
-1920,37	-76,00
-1910,86	52,00
-1901,36	48,00
-1891,88	-13,00
-1882,41	-95,00
-1872,95	-11,00
-1863,51	-60,00
-1854,08	-40,00
-1844,66	-24,00
-1835,26	12,00
-1825,86	-3,00
-1816,48	3,00
-1807,11	80,00
-1797,76	76,00
-1788,42	107,00
-1779,09	38,00
-1769,77	-135,00
-1760,47	108,00
-1751,17	-48,00
-1741,89	-42,00
-1732,63	88,00
-1723,37	-80,00
-1714,13	42,00
-1704,90	14,00
-1695,68	4,00
-1686,48	37,00
-1677,29	144,00
-1668,11	64,00
-1658,94	-52,00
-1649,78	-216,00
-1640,64	10,00
-1631,51	60,00
-1622,39	0,00
-1613,28	-164,00
-1604,19	-8,00
-1595,10	12,00
-1586,03	-41,00
-1576,97	-148,00
-1567,93	-59,00
-1558,89	-26,00
-1549,87	-45,00
-1540,86	133,00
-1531,86	10,00
-1522,87	1,00
-1513,90	14,00
-1504,93	89,00
-1495,98	-44,00
-1487,04	84,00
-1478,12	68,00
-1469,20	-85,00
-1460,30	-92,00
-1451,40	20,00
-1442,52	167,00
-1433,65	156,00
-1424,80	-37,00
-1415,95	141,00
-1407,12	-174,00
-1398,30	24,00
-1389,48	-179,00
-1380,69	-26,00
-1371,90	-18,00
-1363,12	-82,00
-1354,36	-24,00
-1345,60	-90,00
-1336,86	-12,00
-1328,13	66,00
-1319,41	-44,00
-1310,70	25,00
-1302,01	-27,00
-1293,32	102,00
-1284,65	195,00
-1275,99	61,00
-1267,33	35,00
-1258,69	23,00
-1250,06	69,00
-1241,45	-12,00
-1232,84	86,00
-1224,25	247,00
-1215,66	38,00
-1207,09	-33,00
-1198,53	39,00
-1189,97	-85,00
-1181,43	73,00
-1172,91	-76,00
-1164,39	61,00
-1155,88	67,00
-1147,38	14,00
-1138,90	-128,00
-1130,43	-34,00
-1121,96	28,00
-1113,51	96,00
-1105,07	11,00
-1096,64	22,00
-1088,22	55,00
-1079,81	-148,00
-1071,41	28,00
-1063,02	81,00
-1054,65	-1,00
-1046,28	-80,00
-1037,92	-52,00
-1029,58	40,00
-1021,24	-40,00
-1012,92	-144,00
-1004,61	-3,00
-996,30	-102,00
-988,01	7,00
-979,73	0,00
-971,46	-39,00
-963,20	15,00
-954,95	-75,00
-946,71	6,00
-938,48	96,00
-930,26	-37,00
-922,06	30,00
-913,86	27,00
-905,67	41,00
-897,49	132,00
-889,33	105,00
-881,17	-2,00
-873,02	39,00
-864,89	60,00
-856,76	106,00
-848,65	34,00
-840,54	-77,00
-832,45	5,00
-824,36	11,00
-816,29	-3,00
-808,22	68,00
-800,17	-8,00
-792,12	-20,00
-784,09	179,00
-776,06	40,00
-768,05	-8,00
-760,04	82,00
-752,05	91,00
-744,07	27,00
-736,09	109,00
-728,13	-50,00
-720,17	54,00
-712,23	-61,00
-704,29	-22,00
-696,37	74,00
-688,45	-18,00
-680,55	24,00
-672,65	16,00
-664,77	50,00
-656,89	126,00
-649,03	182,00
-641,17	-24,00
-633,32	44,00
-625,49	12,00
-617,66	-3,00
-609,84	46,00
-602,03	4,00
-594,23	0,00
-586,45	94,00
-578,67	-2,00
-570,90	-6,00
-563,14	-90,00
-555,39	113,00
-547,65	119,00
-539,91	0,00
-532,19	79,00
-524,48	93,00
-516,78	74,00
-509,08	24,00
-501,40	27,00
-493,72	4,00
-486,06	-65,00
-478,40	-2,00
-470,76	27,00
-463,12	59,00
-455,49	58,00
-447,87	101,00
-440,26	65,00
-432,66	79,00
-425,07	94,00
-417,49	50,00
-409,92	-53,00
-402,35	21,00
-394,80	55,00
-387,25	75,00
-379,72	-25,00
-372,19	119,00
-364,67	131,00
-357,17	117,00
-349,67	18,00
-342,18	55,00
-334,69	118,00
-327,22	102,00
-319,76	35,00
-312,30	54,00
-304,86	-12,00
-297,42	143,00
-290,00	90,00
-282,58	114,00
-275,17	-50,00
-267,77	134,00
-260,37	101,00
-252,99	-20,00
-245,62	221,00
-238,25	202,00
-230,90	170,00
-223,55	82,00
-216,21	303,00
-208,88	288,00
-201,56	164,00
-194,25	413,00
-186,94	362,00
-179,65	349,00
-172,36	442,00
-165,08	300,00
-157,81	454,00
-150,55	466,00
-143,30	493,00
-136,06	531,00
-128,82	481,00
-121,60	694,00
-114,38	658,00
-107,17	983,00
-99,97	997,00
-92,78	1122,00
-85,60	1150,00
-78,42	1476,00
-71,25	1693,00
-64,10	1714,00
-56,95	2245,00
-49,81	2726,00
-42,67	3348,00
-35,55	4435,00
-28,43	5717,00
-21,33	9976,00
-14,23	34794,00
-7,14	54235,00
-0,05	53890,00
7,02	53525,00
14,09	53899,00
21,14	25372,00
28,19	10920,00
35,23	6919,00
42,27	5148,00
49,29	4395,00
56,31	3522,00
63,32	3060,00
70,32	2428,00
77,31	2141,00
84,29	1892,00
91,27	1580,00
98,23	1468,00
105,19	1368,00
112,14	1547,00
119,09	2149,00
126,02	3137,00
132,95	3808,00
139,87	3740,00
146,78	3663,00
153,68	3561,00
160,58	3401,00
167,46	3438,00
174,34	3339,00
181,21	3409,00
188,08	3320,00
194,93	3286,00
201,78	3168,00
208,62	3100,00
215,45	3107,00
222,27	3281,00
229,09	3134,00
235,90	3219,00
242,70	3160,00
249,49	3015,00
256,27	3080,00
263,05	3064,00
269,82	3121,00
276,58	3088,00
283,33	3058,00
290,08	3053,00
296,82	2949,00
303,55	3024,00
310,27	2864,00
316,98	2875,00
323,69	2853,00
330,39	2859,00
337,08	2788,00
343,76	2744,00
350,44	2786,00
357,11	2697,00
363,77	2766,00
370,42	2674,00
377,07	2757,00
383,71	2705,00
390,34	2513,00
396,96	2766,00
403,58	2743,00
410,19	2647,00
416,79	2615,00
423,38	2896,00
429,97	2533,00
436,55	2724,00
443,12	2474,00
449,68	2522,00
456,24	2469,00
462,79	2567,00
469,33	2457,00
475,86	2340,00
482,39	2360,00
488,91	2458,00
495,42	2359,00
501,93	2338,00
508,42	2222,00
514,91	2106,00
521,40	2242,00
527,87	2150,00
534,34	2296,00
540,80	2328,00
547,25	2200,00
553,70	2150,00
560,14	2231,00
566,57	2051,00
573,00	2131,00
579,41	1983,00
585,83	2170,00
592,23	2028,00
598,62	1968,00
605,01	1944,00
611,40	1948,00
617,77	2092,00
624,14	2067,00
630,50	1788,00
636,85	2007,00
643,20	1916,00
649,54	2014,00
655,87	1968,00
662,20	1843,00
668,52	1927,00
674,83	1931,00
681,13	1933,00
687,43	1842,00
693,72	1849,00
700,00	1814,00
706,28	2031,00
712,55	1937,00
718,81	1843,00
725,07	1834,00
731,32	1843,00
737,56	1949,00
743,79	1820,00
750,02	1818,00
756,24	1778,00
762,46	1835,00
768,67	1760,00
774,87	1774,00
781,06	1689,00
787,25	1751,00
793,43	1754,00
799,60	1683,00
805,77	1640,00
811,93	1784,00
818,08	1850,00
824,23	1772,00
830,37	1661,00
836,50	1689,00
842,63	1622,00
848,75	1617,00
854,87	1677,00
860,97	1770,00
867,07	1606,00
873,17	1728,00
879,25	1662,00
885,33	1701,00
891,41	1673,00
897,47	1687,00
903,53	1460,00
909,59	1454,00
915,63	1595,00
921,67	1487,00
927,71	1467,00
933,74	1536,00
939,76	1470,00
945,77	1528,00
951,78	1488,00
957,78	1529,00
963,78	1474,00
969,77	1447,00
975,75	1492,00
981,72	1573,00
987,69	1422,00
993,66	1471,00
999,61	1469,00
1005,56	1417,00
1011,51	1482,00
1017,44	1478,00
1023,37	1480,00
1029,30	1372,00
1035,22	1503,00
1041,13	1490,00
1047,03	1575,00
1052,93	1773,00
1058,83	1832,00
1064,71	1908,00
1070,59	1714,00
1076,47	1575,00
1082,33	1550,00
1088,20	1572,00
1094,05	1449,00
1099,90	1392,00
1105,74	1585,00
1111,58	1445,00
1117,41	1469,00
1123,23	1722,00
1129,05	1753,00
1134,86	1555,00
1140,67	1500,00
1146,47	1364,00
1152,26	1460,00
1158,05	1410,00
1163,83	1375,00
1169,60	1364,00
1175,37	1486,00
1181,13	1349,00
1186,89	1275,00
1192,64	1454,00
1198,38	1395,00
1204,12	1271,00
1209,85	1262,00
1215,58	1251,00
1221,30	1355,00
1227,02	1229,00
1232,72	1174,00
1238,43	1259,00
1244,12	1414,00
1249,81	1383,00
1255,50	1331,00
1261,17	1395,00
1266,85	1229,00
1272,51	1421,00
1278,17	1531,00
1283,83	1536,00
1289,47	1715,00
1295,12	2053,00
1300,75	1969,00
1306,38	1811,00
1312,01	1678,00
1317,63	1470,00
1323,24	1520,00
1328,85	1418,00
1334,45	1414,00
1340,04	1345,00
1345,63	1372,00
1351,22	1425,00
1356,80	1521,00
1362,37	1584,00
1367,93	1394,00
1373,49	1482,00
1379,05	1539,00
1384,60	1487,00
1390,14	1377,00
1395,68	1416,00
1401,21	1481,00
1406,74	1438,00
1412,26	1576,00
1417,77	1721,00
1423,28	1599,00
1428,78	1803,00
1434,28	2064,00
1439,77	2146,00
1445,26	2216,00
1450,74	2003,00
1456,22	1980,00
1461,68	1920,00
1467,15	1809,00
1472,61	1695,00
1478,06	1593,00
1483,51	1499,00
1488,95	1367,00
1494,38	1234,00
1499,81	1433,00
1505,24	1403,00
1510,65	1211,00
1516,07	1304,00
1521,48	1121,00
1526,88	1151,00
1532,27	1118,00
1537,67	1126,00
1543,05	1175,00
1548,43	1271,00
1553,81	1160,00
1559,18	1051,00
1564,54	1171,00
1569,90	1178,00
1575,25	1185,00
1580,60	1029,00
1585,94	1178,00
1591,28	1234,00
1596,61	1062,00
1601,93	1180,00
1607,25	1219,00
1612,57	1036,00
1617,88	1197,00
1623,18	1014,00
1628,48	1012,00
1633,77	1111,00
1639,06	1097,00
1644,34	1022,00
1649,62	1040,00
1654,89	1058,00
1660,16	881,00
1665,42	1077,00
1670,67	898,00
1675,92	960,00
1681,17	928,00
1686,41	1025,00
1691,64	931,00
1696,87	966,00
1702,10	929,00
1707,32	840,00
1712,53	1080,00
1717,74	963,00
1722,94	985,00
1728,14	813,00
1733,33	910,00
1738,52	815,00
1743,70	903,00
1748,88	948,00
1754,05	916,00
1759,22	837,00
1764,38	2387,00
1769,53	857,00
1774,69	998,00
1779,83	766,00
1784,97	784,00
1790,11	846,00
1795,24	741,00
1800,36	732,00
1805,48	759,00
1810,60	806,00
1815,71	776,00
1820,82	846,00
1825,92	791,00
1831,01	840,00
1836,10	938,00
1841,19	795,00
1846,26	797,00
1851,34	816,00
1856,41	817,00
1861,47	740,00
1866,53	737,00
1871,59	848,00
1876,64	770,00
1881,68	849,00
1886,72	601,00
1891,76	831,00
1896,79	795,00
1901,81	686,00
1906,83	673,00
1911,85	739,00
1916,86	665,00
1921,86	618,00
1926,86	671,00
1931,86	705,00
1936,85	609,00
1941,83	626,00
1946,81	685,00
1951,79	675,00
1956,76	685,00
1961,72	720,00
1966,68	562,00
1971,64	654,00
1976,59	514,00
1981,54	606,00
1986,48	658,00
1991,42	561,00
1996,35	494,00
2001,27	537,00
2006,20	592,00
2011,11	547,00
2016,03	603,00
2020,93	571,00
2025,84	575,00
2030,73	512,00
2035,63	443,00
2040,52	490,00
2045,40	581,00
2050,28	504,00
2055,15	518,00
2060,02	520,00
2064,89	478,00
2069,75	559,00
2074,60	551,00
2079,46	581,00
2084,30	439,00
2089,14	526,00
2093,98	557,00
2098,81	692,00
2103,64	495,00
2108,46	507,00
2113,28	540,00
2118,09	431,00
2122,90	501,00
2127,70	457,00
2132,50	332,00
2137,30	422,00
2142,09	457,00
2146,87	352,00
2151,66	585,00
2156,43	595,00
2161,20	558,00
2165,97	319,00
2170,73	522,00
2175,49	512,00
2180,24	552,00
2184,99	508,00
2189,74	501,00
2194,48	464,00
2199,21	350,00
2203,94	407,00
2208,67	466,00
2213,39	394,00
2218,11	512,00
2222,82	449,00
2227,53	457,00
2232,23	456,00
2236,93	410,00
2241,63	359,00
2246,32	410,00
2251,00	500,00
2255,68	360,00
2260,36	399,00
2265,03	428,00
2269,70	403,00
2274,36	391,00
2279,02	354,00
2283,68	248,00
2288,33	424,00
2292,97	306,00
2297,61	425,00
2302,25	386,00
2306,88	500,00
2311,51	284,00
2316,14	430,00
2320,75	414,00
2325,37	263,00
2329,98	340,00
2334,59	328,00
2339,19	447,00
2343,79	295,00
2348,38	477,00
2352,97	311,00
2357,55	300,00
2362,13	251,00
2366,71	316,00
2371,28	314,00
2375,85	340,00
2380,41	342,00
2384,97	248,00
2389,52	311,00
2394,07	327,00
2398,62	355,00
2403,16	360,00
2407,70	305,00
2412,23	197,00
2416,76	330,00
2421,29	225,00
2425,81	315,00
2430,32	362,00
2434,84	304,00
2439,34	328,00
2443,85	307,00
2448,35	209,00
2452,84	239,00
2457,33	322,00
2461,82	240,00
2466,30	240,00
2470,78	265,00
2475,25	244,00
2479,72	320,00
2484,19	299,00
2488,65	330,00
2493,11	200,00
2497,56	311,00
2502,01	239,00
2506,46	306,00
2510,90	214,00
2515,34	351,00
2519,77	171,00
2524,20	242,00
2528,62	316,00
2533,04	332,00
2537,46	227,00
2541,87	177,00
2546,28	88,00
2550,68	265,00
2555,08	143,00
2559,48	351,00
2563,87	198,00
2568,26	253,00
2572,64	328,00
2577,02	243,00
2581,40	164,00
2585,77	121,00
2590,14	358,00
2594,50	219,00
2598,86	252,00
2603,22	288,00
2607,57	175,00
2611,92	125,00
2616,26	240,00
2620,60	292,00
2624,94	281,00
2629,27	226,00
2633,60	176,00
2637,92	295,00
2642,24	148,00
2646,56	141,00
2650,87	178,00
2655,18	177,00
2659,48	173,00
2663,78	262,00
2668,08	286,00
2672,37	172,00
2676,66	238,00
2680,95	279,00
2685,23	267,00
2689,50	212,00
2693,78	261,00
2698,05	232,00
2702,31	396,00
2706,57	161,00
2710,83	275,00
2715,08	264,00
2719,33	232,00
2723,58	321,00
2727,82	261,00
2732,06	159,00
2736,29	381,00
2740,53	310,00
2744,75	321,00
2748,97	358,00
2753,19	202,00
2757,41	214,00
2761,62	194,00
2765,83	286,00
2770,03	186,00
2774,23	262,00
2778,43	283,00
2782,62	295,00
2786,81	215,00
2791,00	240,00
2795,18	223,00
2799,35	272,00
2803,53	333,00
2807,70	148,00
2811,86	271,00
2816,03	387,00
2820,19	409,00
2824,34	396,00
2828,49	579,00
2832,64	552,00
2836,78	699,00
2840,92	729,00
2845,06	1050,00
2849,19	988,00
2853,32	1212,00
2857,45	1114,00
2861,57	1073,00
2865,69	1126,00
2869,80	1089,00
2873,91	1035,00
2878,02	1082,00
2882,12	1204,00
2886,22	1255,00
2890,32	1139,00
2894,41	1111,00
2898,50	918,00
2902,58	1093,00
2906,67	880,00
2910,74	778,00
2914,82	885,00
2918,89	749,00
2922,96	753,00
2927,02	645,00
2931,08	557,00
2935,13	588,00
2939,19	488,00
2943,24	549,00
2947,28	406,00
2951,32	351,00
2955,36	430,00
2959,40	279,00
2963,43	480,00
2967,46	413,00
2971,48	261,00
2975,50	149,00
2979,52	318,00
2983,53	247,00
2987,54	74,00
2991,55	109,00
2995,55	179,00
2999,55	159,00
3003,54	128,00
3007,54	73,00
3011,53	195,00
3015,51	199,00
3019,49	84,00
3023,47	116,00
3027,45	224,00
3031,42	149,00
3035,39	116,00
3039,35	90,00
3043,31	103,00
3047,27	174,00
3051,22	92,00
3055,17	86,00
3059,12	185,00
3063,06	54,00
3067,00	117,00
3070,94	166,00
3074,87	171,00
3078,80	12,00
3082,73	111,00
3086,65	118,00
3090,57	17,00
3094,49	118,00
3098,40	205,00
3102,31	22,00
3106,22	120,00
3110,12	-1,00
3114,02	5,00
3117,92	118,00
3121,81	32,00
3125,70	-30,00
3129,58	76,00
3133,47	97,00
3137,34	96,00
3141,22	14,00
3145,09	131,00
3148,96	32,00
3152,83	147,00
3156,69	110,00
3160,55	71,00
3164,40	70,00
3168,26	40,00
3172,10	181,00
3175,95	14,00
3179,79	74,00
3183,63	89,00
3187,47	10,00
3191,30	163,00
3195,13	60,00
3198,95	62,00
3202,78	-35,00
3206,60	110,00
3210,41	75,00
3214,23	76,00
3218,03	47,00
3221,84	29,00
3225,64	75,00
3229,44	-69,00
3233,24	111,00
3237,03	-15,00
3240,82	52,00
3244,61	-9,00
3248,39	-61,00
3252,17	114,00
3255,95	18,00
3259,72	45,00
3263,49	61,00
3267,26	131,00
3271,03	113,00
3274,79	84,00
3278,54	33,00
3282,30	181,00
3286,05	48,00
3289,80	53,00
3293,54	144,00
3297,29	8,00
3301,02	3,00
3304,76	-3,00
3308,49	-62,00
3312,22	95,00
3315,95	12,00
3319,67	-28,00
3323,39	-84,00
3327,10	24,00
3330,82	56,00
3334,53	65,00
3338,24	10,00
3341,94	56,00
3345,64	161,00
3349,34	69,00
3353,03	147,00
3356,72	36,00
3360,41	137,00
3364,10	-59,00
3367,78	28,00
3371,46	-6,00
3375,13	85,00
3378,81	11,00
3382,48	103,00
3386,14	26,00
3389,81	-16,00
3393,47	-39,00
3397,12	74,00
3400,78	72,00
3404,43	139,00
3408,08	-86,00
3411,72	54,00
3415,36	108,00
3419,00	11,00
3422,64	117,00
3426,27	-65,00
3429,90	114,00
3433,53	52,00
3437,15	16,00
3440,77	184,00
3444,39	-27,00
3448,00	-33,00
3451,62	19,00
3455,22	95,00
3458,83	107,00
3462,43	117,00
3466,03	94,00
3469,63	58,00
3473,22	19,00
3476,81	-72,00
3480,40	-32,00
3483,99	-24,00
3487,57	-2,00
3491,15	-36,00
3494,72	-79,00
3498,29	17,00
3501,86	128,00
3505,43	80,00
3508,99	204,00
3512,56	-69,00
3516,11	15,00
3519,67	20,00
3523,22	-181,00
3526,77	-4,00
3530,32	87,00
3533,86	72,00
3537,40	17,00
3540,94	-48,00
3544,47	-62,00
3548,00	-19,00
3551,53	12,00
3555,06	103,00
3558,58	-93,00
3562,10	-27,00
3565,62	-35,00
3569,13	-144,00
3572,64	-4,00
3576,15	34,00
3579,66	-42,00
3583,16	27,00
3586,66	29,00
3590,16	11,00
3593,65	80,00
3597,14	35,00
3600,63	-32,00
3604,11	122,00
3607,60	131,00
3611,08	78,00
3614,55	131,00
3618,03	-65,00
3621,50	26,00
3624,97	17,00
3628,43	1,00
3631,90	-133,00
3635,36	-41,00
3638,81	-66,00
3642,27	10,00
3645,72	-160,00
3649,17	-17,00
3652,61	-40,00
3656,06	-19,00
3659,50	-2,00
3662,93	85,00
3666,37	114,00
3669,80	133,00
3673,23	1,00
3676,65	101,00
3680,08	-28,00
3683,50	23,00
3686,92	39,00
3690,33	112,00
3693,74	-56,00
3697,15	32,00
3700,56	-113,00
3703,96	-7,00
3707,36	27,00
3710,76	-94,00
3714,16	-30,00
3717,55	80,00
3720,94	3,00
3724,33	13,00
3727,71	19,00
3731,10	86,00
3734,48	8,00
3737,85	-5,00
3741,23	-68,00
3744,60	160,00
3747,97	-26,00
3751,33	8,00
3754,69	16,00
3758,05	-17,00
3761,41	-40,00
3764,77	-28,00
3768,12	52,00
3771,47	29,00
3774,82	-22,00
3778,16	2,00
3781,50	-2,00
3784,84	2,00
3788,18	-3,00
>>>>>End Processed Spectral Data<<<<<
