SpectraSuite Data File
++++++++++++++++++++++++++++++++++++
Date: Tue Mar 03 12:12:13 ICT 2026
User: user
Dark Spectrum Present: Yes
Reference Spectrum Present: No
Number of Sampled Component Spectra: 1
Spectrometers: MAYP113682
Integration Time (usec): 3000000 (MAYP113682)
Spectra Averaged: 1 (MAYP113682)
Boxcar Smoothing: 0 (MAYP113682)
Correct for Electrical Dark: No (MAYP113682)
Strobe/Lamp Enabled: No (MAYP113682)
Correct for Detector Non-linearity: No (MAYP113682)
Correct for Stray Light: No (MAYP113682)
Number of Pixels in Processed Spectrum: 2068
>>>>>Begin Processed Spectral Data<<<<<
-37534,58	9,00
-37414,56	2,00
-37295,11	0,00
-37176,24	-1,00
-37057,95	-61,00
-36940,22	77,00
-36823,05	18,00
-36706,45	-14,00
-36590,40	56,00
-36474,90	19,00
-36359,95	-70,00
-36245,55	-46,00
-36131,68	-25,00
-36018,35	43,00
-35905,55	-31,00
-35793,29	35,00
-35681,54	80,00
-35570,32	45,00
-35459,62	62,00
-35349,43	48,00
-35239,75	46,00
-35130,58	13,00
-35021,91	-17,00
-34913,74	-60,00
-34806,07	22,00
-34698,89	-2,00
-34592,20	-5,00
-34486,00	29,00
-34380,28	3,00
-34275,04	141,00
-34170,27	10,00
-34065,98	33,00
-33962,16	18,00
-33858,81	56,00
-33755,92	-47,00
-33653,49	59,00
-33551,52	77,00
-33450,01	-27,00
-33348,94	-21,00
-33248,33	81,00
-33148,16	-64,00
-33048,43	126,00
-32949,14	-60,00
-32850,29	-40,00
-32751,87	-51,00
-32653,89	-11,00
-32556,33	53,00
-32459,20	-3,00
-32362,49	-44,00
-32266,19	49,00
-32170,32	-17,00
-32074,86	86,00
-31979,82	-147,00
-31885,18	-23,00
-31790,95	26,00
-31697,12	21,00
-31603,69	74,00
-31510,67	-39,00
-31418,04	45,00
-31325,80	2,00
-31233,95	-59,00
-31142,49	101,00
-31051,42	173,00
-30960,73	-150,00
-30870,43	-3,00
-30780,50	69,00
-30690,95	-16,00
-30601,77	132,00
-30512,97	66,00
-30424,53	-91,00
-30336,46	-32,00
-30248,76	53,00
-30161,42	53,00
-30074,44	8,00
-29987,81	-21,00
-29901,55	147,00
-29815,63	-39,00
-29730,07	-5,00
-29644,86	142,00
-29560,00	71,00
-29475,48	30,00
-29391,30	115,00
-29307,47	95,00
-29223,97	48,00
-29140,81	-29,00
-29057,99	10,00
-28975,50	-79,00
-28893,34	140,00
-28811,51	125,00
-28730,00	56,00
-28648,82	32,00
-28567,97	80,00
-28487,43	75,00
-28407,21	0,00
-28327,32	51,00
-28247,73	7,00
-28168,46	49,00
-28089,50	120,00
-28010,85	-134,00
-27932,51	56,00
-27854,48	-18,00
-27776,75	-45,00
-27699,32	37,00
-27622,19	30,00
-27545,37	129,00
-27468,84	77,00
-27392,60	142,00
-27316,66	55,00
-27241,01	56,00
-27165,66	78,00
-27090,59	50,00
-27015,81	55,00
-26941,31	186,00
-26867,10	-81,00
-26793,17	151,00
-26719,52	25,00
-26646,15	99,00
-26573,06	108,00
-26500,24	3,00
-26427,70	-134,00
-26355,43	-64,00
-26283,43	-53,00
-26211,71	166,00
-26140,25	9,00
-26069,06	-5,00
-25998,13	17,00
-25927,46	29,00
-25857,06	-43,00
-25786,92	137,00
-25717,04	-22,00
-25647,42	17,00
-25578,05	89,00
-25508,94	188,00
-25440,09	-8,00
-25371,48	168,00
-25303,13	15,00
-25235,02	40,00
-25167,17	85,00
-25099,56	72,00
-25032,19	73,00
-24965,07	10,00
-24898,20	22,00
-24831,56	38,00
-24765,17	56,00
-24699,01	15,00
-24633,10	-92,00
-24567,41	33,00
-24501,97	63,00
-24436,75	-118,00
-24371,77	77,00
-24307,03	30,00
-24242,51	6,00
-24178,22	5,00
-24114,16	26,00
-24050,32	132,00
-23986,71	77,00
-23923,32	97,00
-23860,16	-71,00
-23797,22	9,00
-23734,50	-77,00
-23672,00	112,00
-23609,71	-6,00
-23547,65	2,00
-23485,80	77,00
-23424,16	220,00
-23362,74	-41,00
-23301,53	-6,00
-23240,54	17,00
-23179,75	65,00
-23119,17	92,00
-23058,80	-24,00
-22998,64	57,00
-22938,68	172,00
-22878,93	-3,00
-22819,39	100,00
-22760,04	-72,00
-22700,90	7,00
-22641,96	72,00
-22583,22	-101,00
-22524,68	57,00
-22466,33	-6,00
-22408,19	36,00
-22350,23	76,00
-22292,48	-174,00
-22234,92	59,00
-22177,55	-52,00
-22120,37	197,00
-22063,38	104,00
-22006,58	4,00
-21949,98	-5,00
-21893,56	27,00
-21837,33	-67,00
-21781,28	18,00
-21725,42	124,00
-21669,74	-107,00
-21614,25	130,00
-21558,94	36,00
-21503,81	107,00
-21448,86	-111,00
-21394,10	44,00
-21339,51	143,00
-21285,10	-12,00
-21230,86	-68,00
-21176,81	36,00
-21122,93	67,00
-21069,22	241,00
-21015,69	67,00
-20962,33	46,00
-20909,14	-57,00
-20856,13	1,00
-20803,28	-51,00
-20750,61	80,00
-20698,10	130,00
-20645,76	21,00
-20593,59	37,00
-20541,59	113,00
-20489,75	23,00
-20438,07	104,00
-20386,56	61,00
-20335,22	-60,00
-20284,03	17,00
-20233,01	61,00
-20182,15	-18,00
-20131,45	68,00
-20080,91	-11,00
-20030,52	6,00
-19980,30	35,00
-19930,23	10,00
-19880,32	49,00
-19830,56	114,00
-19780,96	-44,00
-19731,52	-51,00
-19682,23	-18,00
-19633,09	110,00
-19584,10	-17,00
-19535,26	16,00
-19486,58	175,00
-19438,04	79,00
-19389,66	-38,00
-19341,42	6,00
-19293,33	58,00
-19245,39	94,00
-19197,60	-159,00
-19149,95	33,00
-19102,45	27,00
-19055,09	53,00
-19007,87	-14,00
-18960,80	48,00
-18913,87	-27,00
-18867,09	-3,00
-18820,44	-8,00
-18773,94	76,00
-18727,57	-121,00
-18681,35	32,00
-18635,26	74,00
-18589,31	54,00
-18543,50	122,00
-18497,83	-17,00
-18452,29	40,00
-18406,89	-8,00
-18361,63	93,00
-18316,50	-31,00
-18271,50	129,00
-18226,63	29,00
-18181,90	84,00
-18137,30	122,00
-18092,84	-74,00
-18048,50	-49,00
-18004,29	-84,00
-17960,22	64,00
-17916,27	-14,00
-17872,45	6,00
-17828,76	-97,00
-17785,20	68,00
-17741,77	-11,00
-17698,46	27,00
-17655,28	-16,00
-17612,22	33,00
-17569,29	-96,00
-17526,48	-27,00
-17483,79	14,00
-17441,23	-12,00
-17398,79	42,00
-17356,48	-74,00
-17314,28	70,00
-17272,21	-27,00
-17230,26	98,00
-17188,42	-77,00
-17146,71	-16,00
-17105,12	-44,00
-17063,64	26,00
-17022,28	21,00
-16981,04	124,00
-16939,92	163,00
-16898,91	-44,00
-16858,02	-1,00
-16817,25	169,00
-16776,59	-15,00
-16736,04	-2,00
-16695,61	40,00
-16655,29	61,00
-16615,09	-57,00
-16574,99	37,00
-16535,01	13,00
-16495,15	35,00
-16455,39	-35,00
-16415,74	145,00
-16376,21	-80,00
-16336,78	40,00
-16297,46	4,00
-16258,26	3,00
-16219,16	-46,00
-16180,17	111,00
-16141,28	38,00
-16102,51	59,00
-16063,84	78,00
-16025,27	-8,00
-15986,82	10,00
-15948,46	50,00
-15910,22	85,00
-15872,07	-85,00
-15834,04	-60,00
-15796,10	-92,00
-15758,27	-64,00
-15720,54	85,00
-15682,91	6,00
-15645,39	-196,00
-15607,97	113,00
-15570,64	-44,00
-15533,42	-8,00
-15496,30	141,00
-15459,28	54,00
-15422,36	14,00
-15385,54	27,00
-15348,82	-58,00
-15312,19	28,00
-15275,66	40,00
-15239,23	-23,00
-15202,90	30,00
-15166,67	-3,00
-15130,53	-42,00
-15094,48	-29,00
-15058,54	52,00
-15022,68	-16,00
-14986,93	44,00
-14951,26	-13,00
-14915,69	-5,00
-14880,22	17,00
-14844,84	2,00
-14809,55	-41,00
-14774,35	-21,00
-14739,25	93,00
-14704,24	96,00
-14669,32	-43,00
-14634,49	-61,00
-14599,75	-52,00
-14565,10	45,00
-14530,55	15,00
-14496,08	-51,00
-14461,70	23,00
-14427,41	192,00
-14393,21	-88,00
-14359,10	-34,00
-14325,07	-44,00
-14291,14	103,00
-14257,29	155,00
-14223,52	65,00
-14189,85	-9,00
-14156,26	56,00
-14122,76	-21,00
-14089,34	-17,00
-14056,01	-51,00
-14022,76	-154,00
-13989,60	16,00
-13956,52	62,00
-13923,53	59,00
-13890,62	87,00
-13857,79	32,00
-13825,05	28,00
-13792,39	48,00
-13759,81	114,00
-13727,31	55,00
-13694,90	33,00
-13662,57	53,00
-13630,31	29,00
-13598,14	7,00
-13566,05	85,00
-13534,05	2,00
-13502,12	-36,00
-13470,27	216,00
-13438,50	27,00
-13406,80	104,00
-13375,19	-83,00
-13343,66	118,00
-13312,20	91,00
-13280,83	-86,00
-13249,53	39,00
-13218,30	29,00
-13187,16	90,00
-13156,09	-39,00
-13125,10	11,00
-13094,18	-65,00
-13063,34	146,00
-13032,58	-57,00
-13001,89	64,00
-12971,28	6,00
-12940,74	36,00
-12910,27	117,00
-12879,88	63,00
-12849,57	-32,00
-12819,33	97,00
-12789,16	-52,00
-12759,06	-67,00
-12729,04	5,00
-12699,09	1019,00
-12669,21	111,00
-12639,41	32,00
-12609,68	-10,00
-12580,02	3,00
-12550,43	-40,00
-12520,91	5,00
-12491,46	36,00
-12462,08	24,00
-12432,77	4,00
-12403,54	-22,00
-12374,37	-18,00
-12345,27	9,00
-12316,24	112,00
-12287,29	-6,00
-12258,40	27,00
-12229,57	39,00
-12200,82	12,00
-12172,14	75,00
-12143,52	-17,00
-12114,97	171,00
-12086,49	-53,00
-12058,07	114,00
-12029,73	-21,00
-12001,44	-16,00
-11973,23	-30,00
-11945,08	73,00
-11917,00	-2,00
-11888,98	-12,00
-11861,03	-86,00
-11833,15	136,00
-11805,32	-54,00
-11777,57	-88,00
-11749,88	47,00
-11722,25	57,00
-11694,69	-36,00
-11667,19	-6,00
-11639,75	5,00
-11612,38	70,00
-11585,07	-52,00
-11557,83	52,00
-11530,65	-54,00
-11503,53	-40,00
-11476,47	-40,00
-11449,48	31,00
-11422,54	-23,00
-11395,67	-13,00
-11368,86	83,00
-11342,11	52,00
-11315,43	76,00
-11288,80	-50,00
-11262,23	-74,00
-11235,73	155,00
-11209,28	4,00
-11182,90	23,00
-11156,57	59,00
-11130,31	-76,00
-11104,10	99,00
-11077,96	204,00
-11051,87	65,00
-11025,84	-55,00
-10999,87	138,00
-10973,96	144,00
-10948,11	6,00
-10922,31	65,00
-10896,58	131,00
-10870,90	-52,00
-10845,28	54,00
-10819,71	110,00
-10794,20	72,00
-10768,75	139,00
-10743,36	-47,00
-10718,02	219,00
-10692,74	145,00
-10667,52	72,00
-10642,35	79,00
-10617,24	118,00
-10592,18	227,00
-10567,18	209,00
-10542,23	219,00
-10517,34	106,00
-10492,51	118,00
-10467,72	131,00
-10443,00	156,00
-10418,32	184,00
-10393,70	221,00
-10369,14	161,00
-10344,63	180,00
-10320,17	169,00
-10295,77	196,00
-10271,42	299,00
-10247,12	375,00
-10222,88	203,00
-10198,68	230,00
-10174,54	249,00
-10150,46	343,00
-10126,42	304,00
-10102,44	412,00
-10078,51	439,00
-10054,63	516,00
-10030,80	535,00
-10007,03	531,00
-9983,30	533,00
-9959,63	578,00
-9936,01	639,00
-9912,44	622,00
-9888,92	735,00
-9865,44	664,00
-9842,02	736,00
-9818,65	787,00
-9795,33	647,00
-9772,06	818,00
-9748,84	900,00
-9725,67	960,00
-9702,55	1123,00
-9679,47	1368,00
-9656,45	1482,00
-9633,47	1480,00
-9610,55	1626,00
-9587,67	1563,00
-9564,84	1624,00
-9542,06	1702,00
-9519,32	1954,00
-9496,64	2196,00
-9474,00	2227,00
-9451,41	2393,00
-9428,87	2519,00
-9406,37	2335,00
-9383,92	2205,00
-9361,52	2037,00
-9339,17	2152,00
-9316,86	2314,00
-9294,60	2696,00
-9272,38	2971,00
-9250,21	3240,00
-9228,09	3316,00
-9206,01	3083,00
-9183,98	2691,00
-9162,00	2532,00
-9140,06	2178,00
-9118,16	2234,00
-9096,31	2495,00
-9074,51	2539,00
-9052,75	2561,00
-9031,04	2406,00
-9009,37	2153,00
-8987,74	1974,00
-8966,16	1656,00
-8944,63	1591,00
-8923,14	1474,00
-8901,69	1526,00
-8880,29	1763,00
-8858,93	1955,00
-8837,61	2134,00
-8816,34	2249,00
-8795,11	2173,00
-8773,92	2023,00
-8752,78	1751,00
-8731,68	1785,00
-8710,62	1917,00
-8689,61	1953,00
-8668,63	2023,00
-8647,70	1944,00
-8626,82	2050,00
-8605,97	2039,00
-8585,17	1920,00
-8564,41	1793,00
-8543,69	1496,00
-8523,01	1771,00
-8502,37	1512,00
-8481,78	1715,00
-8461,23	1725,00
-8440,71	1876,00
-8420,24	1952,00
-8399,81	1958,00
-8379,42	1946,00
-8359,08	1828,00
-8338,77	1635,00
-8318,50	1508,00
-8298,27	1438,00
-8278,09	1555,00
-8257,94	1523,00
-8237,83	1740,00
-8217,76	2012,00
-8197,74	1829,00
-8177,75	1893,00
-8157,80	1793,00
-8137,89	1355,00
-8118,02	1495,00
-8098,19	1586,00
-8078,40	1429,00
-8058,65	1662,00
-8038,93	1587,00
-8019,26	1724,00
-7999,62	1611,00
-7980,02	1357,00
-7960,46	1463,00
-7940,94	1350,00
-7921,46	1442,00
-7902,01	1306,00
-7882,60	1249,00
-7863,23	1477,00
-7843,90	1532,00
-7824,61	1530,00
-7805,35	1722,00
-7786,13	1623,00
-7766,95	1640,00
-7747,80	1567,00
-7728,69	1587,00
-7709,62	1407,00
-7690,59	1636,00
-7671,59	1687,00
-7652,63	1883,00
-7633,70	1709,00
-7614,81	1647,00
-7595,96	1547,00
-7577,15	1496,00
-7558,37	1480,00
-7539,62	1457,00
-7520,91	1506,00
-7502,24	1687,00
-7483,60	1654,00
-7465,00	1530,00
-7446,44	1442,00
-7427,91	1250,00
-7409,41	1055,00
-7390,95	1022,00
-7372,53	972,00
-7354,14	962,00
-7335,78	1069,00
-7317,46	1105,00
-7299,18	1172,00
-7280,92	1269,00
-7262,71	1617,00
-7244,52	1622,00
-7226,38	1628,00
-7208,26	1625,00
-7190,18	1555,00
-7172,14	1364,00
-7154,12	1431,00
-7136,15	1314,00
-7118,20	1482,00
-7100,29	1745,00
-7082,41	1574,00
-7064,57	1604,00
-7046,76	1356,00
-7028,98	1171,00
-7011,24	1043,00
-6993,53	1084,00
-6975,85	879,00
-6958,20	723,00
-6940,59	580,00
-6923,01	824,00
-6905,46	867,00
-6887,94	1114,00
-6870,46	4046,00
-6853,01	1359,00
-6835,59	1552,00
-6818,21	1340,00
-6800,85	934,00
-6783,53	793,00
-6766,24	699,00
-6748,98	623,00
-6731,76	437,00
-6714,56	593,00
-6697,40	568,00
-6680,26	620,00
-6663,16	758,00
-6646,09	874,00
-6629,05	984,00
-6612,05	1219,00
-6595,07	1119,00
-6578,13	1246,00
-6561,21	941,00
-6544,33	496,00
-6527,47	614,00
-6510,65	569,00
-6493,86	475,00
-6477,10	587,00
-6460,36	544,00
-6443,66	651,00
-6426,99	388,00
-6410,35	514,00
-6393,74	626,00
-6377,16	640,00
-6360,61	712,00
-6344,09	833,00
-6327,59	778,00
-6311,13	799,00
-6294,70	888,00
-6278,29	924,00
-6261,92	1064,00
-6245,58	1040,00
-6229,26	1145,00
-6212,97	960,00
-6196,72	800,00
-6180,49	560,00
-6164,29	290,00
-6148,12	155,00
-6131,98	325,00
-6115,86	218,00
-6099,78	273,00
-6083,72	246,00
-6067,69	308,00
-6051,69	116,00
-6035,72	274,00
-6019,78	357,00
-6003,87	601,00
-5987,98	726,00
-5972,12	834,00
-5956,29	804,00
-5940,49	724,00
-5924,71	646,00
-5908,96	556,00
-5893,24	228,00
-5877,55	186,00
-5861,89	221,00
-5846,25	271,00
-5830,64	563,00
-5815,05	401,00
-5799,50	316,00
-5783,97	353,00
-5768,47	452,00
-5752,99	555,00
-5737,55	853,00
-5722,12	736,00
-5706,73	823,00
-5691,36	584,00
-5676,02	427,00
-5660,71	363,00
-5645,42	411,00
-5630,16	372,00
-5614,92	448,00
-5599,71	588,00
-5584,53	607,00
-5569,37	632,00
-5554,24	582,00
-5539,14	470,00
-5524,06	421,00
-5509,01	497,00
-5493,98	606,00
-5478,98	514,00
-5464,00	504,00
-5449,05	492,00
-5434,13	353,00
-5419,23	401,00
-5404,36	442,00
-5389,51	529,00
-5374,69	832,00
-5359,89	833,00
-5345,12	974,00
-5330,37	752,00
-5315,65	695,00
-5300,95	644,00
-5286,28	515,00
-5271,63	533,00
-5257,01	312,00
-5242,41	391,00
-5227,84	363,00
-5213,29	319,00
-5198,76	155,00
-5184,26	155,00
-5169,79	354,00
-5155,33	275,00
-5140,91	522,00
-5126,51	559,00
-5112,13	584,00
-5097,77	319,00
-5083,44	369,00
-5069,13	346,00
-5054,85	334,00
-5040,59	453,00
-5026,36	593,00
-5012,15	556,00
-4997,96	456,00
-4983,80	383,00
-4969,66	260,00
-4955,54	385,00
-4941,44	435,00
-4927,37	597,00
-4913,33	826,00
-4899,30	798,00
-4885,30	831,00
-4871,33	489,00
-4857,37	314,00
-4843,44	211,00
-4829,53	331,00
-4815,65	353,00
-4801,79	469,00
-4787,95	291,00
-4774,13	363,00
-4760,34	280,00
-4746,56	246,00
-4732,82	149,00
-4719,09	375,00
-4705,38	547,00
-4691,70	699,00
-4678,04	688,00
-4664,41	580,00
-4650,79	384,00
-4637,20	238,00
-4623,63	364,00
-4610,08	305,00
-4596,56	461,00
-4583,05	463,00
-4569,57	568,00
-4556,11	278,00
-4542,67	220,00
-4529,25	191,00
-4515,86	465,00
-4502,49	634,00
-4489,13	628,00
-4475,80	573,00
-4462,49	303,00
-4449,21	338,00
-4435,94	255,00
-4422,70	413,00
-4409,47	342,00
-4396,27	472,00
-4383,09	353,00
-4369,93	172,00
-4356,79	147,00
-4343,67	170,00
-4330,58	277,00
-4317,50	392,00
-4304,45	250,00
-4291,41	224,00
-4278,40	158,00
-4265,41	232,00
-4252,44	304,00
-4239,49	299,00
-4226,55	323,00
-4213,65	216,00
-4200,76	106,00
-4187,89	100,00
-4175,04	51,00
-4162,21	226,00
-4149,40	69,00
-4136,61	131,00
-4123,85	-13,00
-4111,10	127,00
-4098,37	182,00
-4085,66	203,00
-4072,98	44,00
-4060,31	65,00
-4047,66	111,00
-4035,04	-31,00
-4022,43	145,00
-4009,84	226,00
-3997,27	128,00
-3984,72	87,00
-3972,19	82,00
-3959,69	33,00
-3947,20	106,00
-3934,73	81,00
-3922,27	79,00
-3909,84	33,00
-3897,43	76,00
-3885,04	-81,00
-3872,67	97,00
-3860,31	126,00
-3847,98	54,00
-3835,66	61,00
-3823,36	29,00
-3811,09	-13,00
-3798,83	108,00
-3786,59	51,00
-3774,37	112,00
-3762,17	-60,00
-3749,98	21,00
-3737,82	93,00
-3725,67	18,00
-3713,55	76,00
-3701,44	-64,00
-3689,35	6,00
-3677,28	26,00
-3665,22	63,00
-3653,19	23,00
-3641,17	47,00
-3629,18	-95,00
-3617,20	-12,00
-3605,24	32,00
-3593,30	22,00
-3581,37	83,00
-3569,47	29,00
-3557,58	56,00
-3545,71	141,00
-3533,86	-31,00
-3522,02	-105,00
-3510,21	50,00
-3498,41	68,00
-3486,63	6,00
-3474,87	66,00
-3463,12	-62,00
-3451,40	55,00
-3439,69	93,00
-3428,00	108,00
-3416,33	-31,00
-3404,67	59,00
-3393,03	-38,00
-3381,41	45,00
-3369,81	96,00
-3358,22	56,00
-3346,66	-13,00
-3335,10	-156,00
-3323,57	16,00
-3312,06	20,00
-3300,56	0,00
-3289,08	-13,00
-3277,61	89,00
-3266,16	29,00
-3254,73	58,00
-3243,32	55,00
-3231,92	62,00
-3220,55	-90,00
-3209,18	144,00
-3197,84	95,00
-3186,51	15,00
-3175,20	58,00
-3163,90	-55,00
-3152,63	-27,00
-3141,36	131,00
-3130,12	21,00
-3118,89	-19,00
-3107,68	78,00
-3096,49	112,00
-3085,31	115,00
-3074,15	-41,00
-3063,00	115,00
-3051,87	61,00
-3040,76	107,00
-3029,67	33,00
-3018,59	52,00
-3007,52	24,00
-2996,48	172,00
-2985,44	137,00
-2974,43	22,00
-2963,43	0,00
-2952,45	-62,00
-2941,48	8,00
-2930,53	83,00
-2919,60	-28,00
-2908,68	28,00
-2897,78	115,00
-2886,89	-19,00
-2876,02	30,00
-2865,17	89,00
-2854,33	-16,00
-2843,50	24,00
-2832,70	-49,00
-2821,90	-39,00
-2811,13	-55,00
-2800,37	84,00
-2789,62	30,00
-2778,89	172,00
-2768,18	92,00
-2757,48	-15,00
-2746,80	65,00
-2736,13	18,00
-2725,48	-62,00
-2714,84	32,00
-2704,22	48,00
-2693,61	1,00
-2683,02	93,00
-2672,45	-9,00
-2661,89	54,00
-2651,34	8,00
-2640,81	-56,00
-2630,30	115,00
-2619,80	65,00
-2609,31	-22,00
-2598,84	34,00
-2588,39	-100,00
-2577,95	-64,00
-2567,52	58,00
-2557,11	130,00
-2546,71	-27,00
-2536,33	28,00
-2525,97	17,00
-2515,62	125,00
-2505,28	-86,00
-2494,96	96,00
-2484,65	-105,00
-2474,36	-55,00
-2464,08	-6,00
-2453,82	56,00
-2443,57	-10,00
-2433,33	136,00
-2423,11	44,00
-2412,91	1,00
-2402,72	96,00
-2392,54	-20,00
-2382,38	108,00
-2372,23	104,00
-2362,09	291,00
-2351,97	-87,00
-2341,87	108,00
-2331,78	62,00
-2321,70	-57,00
-2311,64	77,00
-2301,59	41,00
-2291,55	48,00
-2281,53	95,00
-2271,53	83,00
-2261,53	15,00
-2251,55	131,00
-2241,59	25,00
-2231,64	37,00
-2221,70	33,00
-2211,78	28,00
-2201,87	67,00
-2191,97	-88,00
-2182,09	-56,00
-2172,22	-52,00
-2162,37	-1,00
-2152,53	18,00
-2142,70	75,00
-2132,89	52,00
-2123,09	-6,00
-2113,30	45,00
-2103,53	10,00
-2093,77	0,00
-2084,02	-90,00
-2074,29	115,00
-2064,57	-14,00
-2054,86	40,00
-2045,17	110,00
-2035,49	76,00
-2025,82	150,00
-2016,17	61,00
-2006,53	84,00
-1996,91	67,00
-1987,29	10,00
-1977,69	16,00
-1968,11	-42,00
-1958,53	109,00
-1948,97	9,00
-1939,42	27,00
-1929,89	110,00
-1920,37	-32,00
-1910,86	92,00
-1901,36	12,00
-1891,88	-14,00
-1882,41	-116,00
-1872,95	-24,00
-1863,51	-62,00
-1854,08	-25,00
-1844,66	20,00
-1835,26	20,00
-1825,86	-24,00
-1816,48	32,00
-1807,11	9,00
-1797,76	66,00
-1788,42	196,00
-1779,09	91,00
-1769,77	-51,00
-1760,47	112,00
-1751,17	62,00
-1741,89	-76,00
-1732,63	-10,00
-1723,37	-26,00
-1714,13	-7,00
-1704,90	177,00
-1695,68	18,00
-1686,48	48,00
-1677,29	33,00
-1668,11	80,00
-1658,94	-44,00
-1649,78	-88,00
-1640,64	80,00
-1631,51	0,00
-1622,39	-27,00
-1613,28	-196,00
-1604,19	49,00
-1595,10	56,00
-1586,03	-65,00
-1576,97	-28,00
-1567,93	-56,00
-1558,89	-9,00
-1549,87	-45,00
-1540,86	170,00
-1531,86	-1,00
-1522,87	12,00
-1513,90	6,00
-1504,93	64,00
-1495,98	-98,00
-1487,04	150,00
-1478,12	77,00
-1469,20	-98,00
-1460,30	29,00
-1451,40	24,00
-1442,52	149,00
-1433,65	99,00
-1424,80	-13,00
-1415,95	106,00
-1407,12	61,00
-1398,30	-19,00
-1389,48	49,00
-1380,69	-53,00
-1371,90	12,00
-1363,12	-40,00
-1354,36	105,00
-1345,60	-42,00
-1336,86	-49,00
-1328,13	33,00
-1319,41	63,00
-1310,70	89,00
-1302,01	0,00
-1293,32	59,00
-1284,65	110,00
-1275,99	89,00
-1267,33	178,00
-1258,69	-6,00
-1250,06	21,00
-1241,45	-12,00
-1232,84	2,00
-1224,25	52,00
-1215,66	110,00
-1207,09	-43,00
-1198,53	46,00
-1189,97	10,00
-1181,43	-3,00
-1172,91	-42,00
-1164,39	185,00
-1155,88	54,00
-1147,38	37,00
-1138,90	-107,00
-1130,43	-21,00
-1121,96	45,00
-1113,51	26,00
-1105,07	130,00
-1096,64	46,00
-1088,22	32,00
-1079,81	-122,00
-1071,41	-43,00
-1063,02	107,00
-1054,65	88,00
-1046,28	25,00
-1037,92	-63,00
-1029,58	56,00
-1021,24	-56,00
-1012,92	-97,00
-1004,61	29,00
-996,30	45,00
-988,01	-13,00
-979,73	-95,00
-971,46	27,00
-963,20	78,00
-954,95	-61,00
-946,71	-14,00
-938,48	198,00
-930,26	-27,00
-922,06	32,00
-913,86	91,00
-905,67	18,00
-897,49	-34,00
-889,33	95,00
-881,17	29,00
-873,02	35,00
-864,89	-88,00
-856,76	134,00
-848,65	47,00
-840,54	-7,00
-832,45	42,00
-824,36	-4,00
-816,29	81,00
-808,22	79,00
-800,17	25,00
-792,12	-70,00
-784,09	95,00
-776,06	-52,00
-768,05	-10,00
-760,04	-61,00
-752,05	93,00
-744,07	110,00
-736,09	15,00
-728,13	-31,00
-720,17	4,00
-712,23	-24,00
-704,29	40,00
-696,37	-33,00
-688,45	31,00
-680,55	117,00
-672,65	18,00
-664,77	104,00
-656,89	30,00
-649,03	95,00
-641,17	42,00
-633,32	69,00
-625,49	-40,00
-617,66	31,00
-609,84	102,00
-602,03	-33,00
-594,23	1,00
-586,45	61,00
-578,67	-20,00
-570,90	-1,00
-563,14	-2,00
-555,39	208,00
-547,65	31,00
-539,91	31,00
-532,19	95,00
-524,48	116,00
-516,78	103,00
-509,08	-43,00
-501,40	118,00
-493,72	-69,00
-486,06	30,00
-478,40	97,00
-470,76	40,00
-463,12	-4,00
-455,49	21,00
-447,87	87,00
-440,26	40,00
-432,66	60,00
-425,07	14,00
-417,49	25,00
-409,92	44,00
-402,35	86,00
-394,80	-20,00
-387,25	-15,00
-379,72	-35,00
-372,19	107,00
-364,67	49,00
-357,17	86,00
-349,67	-29,00
-342,18	123,00
-334,69	79,00
-327,22	206,00
-319,76	91,00
-312,30	86,00
-304,86	-61,00
-297,42	100,00
-290,00	55,00
-282,58	147,00
-275,17	41,00
-267,77	154,00
-260,37	40,00
-252,99	28,00
-245,62	232,00
-238,25	102,00
-230,90	96,00
-223,55	119,00
-216,21	120,00
-208,88	176,00
-201,56	155,00
-194,25	279,00
-186,94	239,00
-179,65	161,00
-172,36	328,00
-165,08	228,00
-157,81	255,00
-150,55	319,00
-143,30	353,00
-136,06	397,00
-128,82	348,00
-121,60	420,00
-114,38	428,00
-107,17	656,00
-99,97	712,00
-92,78	719,00
-85,60	691,00
-78,42	976,00
-71,25	1067,00
-64,10	1043,00
-56,95	1473,00
-49,81	1798,00
-42,67	2129,00
-35,55	2705,00
-28,43	3593,00
-21,33	6368,00
-14,23	22040,00
-7,14	54235,00
-0,05	53890,00
7,02	53525,00
14,09	53899,00
21,14	15390,00
28,19	6730,00
35,23	4272,00
42,27	3344,00
49,29	2791,00
56,31	2253,00
63,32	1923,00
70,32	1565,00
77,31	1395,00
84,29	1330,00
91,27	1047,00
98,23	951,00
105,19	917,00
112,14	1196,00
119,09	1731,00
126,02	2738,00
132,95	3576,00
139,87	3582,00
146,78	3767,00
153,68	3573,00
160,58	3476,00
167,46	3518,00
174,34	3560,00
181,21	3370,00
188,08	3456,00
194,93	3415,00
201,78	3259,00
208,62	3312,00
215,45	3392,00
222,27	3389,00
229,09	3503,00
235,90	3354,00
242,70	3347,00
249,49	3310,00
256,27	3128,00
263,05	3149,00
269,82	3260,00
276,58	3253,00
283,33	3202,00
290,08	3383,00
296,82	3124,00
303,55	3153,00
310,27	3047,00
316,98	3009,00
323,69	2958,00
330,39	3042,00
337,08	3106,00
343,76	2976,00
350,44	2998,00
357,11	2946,00
363,77	2877,00
370,42	2759,00
377,07	2919,00
383,71	2896,00
390,34	2717,00
396,96	2922,00
403,58	3023,00
410,19	2837,00
416,79	2930,00
423,38	2878,00
429,97	2816,00
436,55	2839,00
443,12	2679,00
449,68	2680,00
456,24	2611,00
462,79	2579,00
469,33	2596,00
475,86	2535,00
482,39	2504,00
488,91	2570,00
495,42	2400,00
501,93	2437,00
508,42	2406,00
514,91	2468,00
521,40	2282,00
527,87	2354,00
534,34	2368,00
540,80	2315,00
547,25	2306,00
553,70	2354,00
560,14	2338,00
566,57	2285,00
573,00	2343,00
579,41	2146,00
585,83	2261,00
592,23	2247,00
598,62	2232,00
605,01	2149,00
611,40	2103,00
617,77	2224,00
624,14	2183,00
630,50	1975,00
636,85	2198,00
643,20	2059,00
649,54	2160,00
655,87	2090,00
662,20	1960,00
668,52	2149,00
674,83	1964,00
681,13	2064,00
687,43	2105,00
693,72	1869,00
700,00	1944,00
706,28	1956,00
712,55	2025,00
718,81	1948,00
725,07	1844,00
731,32	1964,00
737,56	1995,00
743,79	1930,00
750,02	1917,00
756,24	1916,00
762,46	1859,00
768,67	1827,00
774,87	2028,00
781,06	1781,00
787,25	1782,00
793,43	1826,00
799,60	1789,00
805,77	1776,00
811,93	1928,00
818,08	1865,00
824,23	1924,00
830,37	1842,00
836,50	1742,00
842,63	1897,00
848,75	1712,00
854,87	1620,00
860,97	1756,00
867,07	1877,00
873,17	1701,00
879,25	1846,00
885,33	1738,00
891,41	1880,00
897,47	1795,00
903,53	1608,00
909,59	1580,00
915,63	1648,00
921,67	1723,00
927,71	1600,00
933,74	1555,00
939,76	1588,00
945,77	1627,00
951,78	1496,00
957,78	1631,00
963,78	1664,00
969,77	1661,00
975,75	1600,00
981,72	1688,00
987,69	1376,00
993,66	1623,00
999,61	1545,00
1005,56	1536,00
1011,51	1730,00
1017,44	1524,00
1023,37	1580,00
1029,30	1681,00
1035,22	1664,00
1041,13	1709,00
1047,03	1725,00
1052,93	1794,00
1058,83	1969,00
1064,71	1961,00
1070,59	1934,00
1076,47	1760,00
1082,33	1678,00
1088,20	1606,00
1094,05	1583,00
1099,90	1544,00
1105,74	1605,00
1111,58	1538,00
1117,41	1623,00
1123,23	1681,00
1129,05	1911,00
1134,86	1899,00
1140,67	1604,00
1146,47	1579,00
1152,26	1587,00
1158,05	1513,00
1163,83	1385,00
1169,60	1492,00
1175,37	1665,00
1181,13	1469,00
1186,89	1331,00
1192,64	1516,00
1198,38	1448,00
1204,12	1465,00
1209,85	1552,00
1215,58	1315,00
1221,30	1487,00
1227,02	1385,00
1232,72	1357,00
1238,43	1387,00
1244,12	1504,00
1249,81	1405,00
1255,50	1438,00
1261,17	1519,00
1266,85	1484,00
1272,51	1551,00
1278,17	1614,00
1283,83	1598,00
1289,47	1897,00
1295,12	2282,00
1300,75	2188,00
1306,38	1958,00
1312,01	1727,00
1317,63	1726,00
1323,24	1675,00
1328,85	1556,00
1334,45	1464,00
1340,04	1445,00
1345,63	1522,00
1351,22	1566,00
1356,80	1501,00
1362,37	1667,00
1367,93	1591,00
1373,49	1664,00
1379,05	1571,00
1384,60	1601,00
1390,14	1458,00
1395,68	1492,00
1401,21	1489,00
1406,74	1553,00
1412,26	1685,00
1417,77	1754,00
1423,28	1751,00
1428,78	1909,00
1434,28	2152,00
1439,77	2411,00
1445,26	2393,00
1450,74	2339,00
1456,22	2052,00
1461,68	2036,00
1467,15	1815,00
1472,61	1809,00
1478,06	1753,00
1483,51	1541,00
1488,95	1596,00
1494,38	1470,00
1499,81	1441,00
1505,24	1410,00
1510,65	1350,00
1516,07	1486,00
1521,48	1282,00
1526,88	1291,00
1532,27	1153,00
1537,67	1222,00
1543,05	1307,00
1548,43	1202,00
1553,81	1249,00
1559,18	1168,00
1564,54	1265,00
1569,90	1244,00
1575,25	1246,00
1580,60	1135,00
1585,94	1168,00
1591,28	1270,00
1596,61	1322,00
1601,93	1278,00
1607,25	1176,00
1612,57	1176,00
1617,88	1208,00
1623,18	1236,00
1628,48	1133,00
1633,77	1203,00
1639,06	1156,00
1644,34	1136,00
1649,62	1143,00
1654,89	1104,00
1660,16	1014,00
1665,42	1121,00
1670,67	1062,00
1675,92	1224,00
1681,17	1059,00
1686,41	952,00
1691,64	974,00
1696,87	973,00
1702,10	1052,00
1707,32	1025,00
1712,53	1137,00
1717,74	965,00
1722,94	976,00
1728,14	1008,00
1733,33	1038,00
1738,52	968,00
1743,70	973,00
1748,88	878,00
1754,05	942,00
1759,22	1032,00
1764,38	813,00
1769,53	868,00
1774,69	1038,00
1779,83	844,00
1784,97	832,00
1790,11	955,00
1795,24	858,00
1800,36	779,00
1805,48	845,00
1810,60	858,00
1815,71	946,00
1820,82	816,00
1825,92	879,00
1831,01	871,00
1836,10	907,00
1841,19	780,00
1846,26	845,00
1851,34	834,00
1856,41	858,00
1861,47	736,00
1866,53	807,00
1871,59	836,00
1876,64	805,00
1881,68	876,00
1886,72	784,00
1891,76	895,00
1896,79	790,00
1901,81	705,00
1906,83	755,00
1911,85	734,00
1916,86	769,00
1921,86	671,00
1926,86	649,00
1931,86	711,00
1936,85	653,00
1941,83	639,00
1946,81	805,00
1951,79	695,00
1956,76	673,00
1961,72	741,00
1966,68	616,00
1971,64	684,00
1976,59	574,00
1981,54	606,00
1986,48	669,00
1991,42	596,00
1996,35	547,00
2001,27	491,00
2006,20	539,00
2011,11	559,00
2016,03	649,00
2020,93	532,00
2025,84	674,00
2030,73	496,00
2035,63	464,00
2040,52	531,00
2045,40	721,00
2050,28	611,00
2055,15	645,00
2060,02	571,00
2064,89	504,00
2069,75	494,00
2074,60	706,00
2079,46	594,00
2084,30	535,00
2089,14	522,00
2093,98	583,00
2098,81	553,00
2103,64	468,00
2108,46	546,00
2113,28	449,00
2118,09	484,00
2122,90	538,00
2127,70	545,00
2132,50	464,00
2137,30	348,00
2142,09	532,00
2146,87	419,00
2151,66	552,00
2156,43	489,00
2161,20	556,00
2165,97	252,00
2170,73	537,00
2175,49	505,00
2180,24	461,00
2184,99	423,00
2189,74	551,00
2194,48	537,00
2199,21	422,00
2203,94	463,00
2208,67	475,00
2213,39	458,00
2218,11	497,00
2222,82	515,00
2227,53	493,00
2232,23	404,00
2236,93	354,00
2241,63	431,00
2246,32	455,00
2251,00	449,00
2255,68	353,00
2260,36	371,00
2265,03	423,00
2269,70	424,00
2274,36	342,00
2279,02	335,00
2283,68	288,00
2288,33	336,00
2292,97	344,00
2297,61	460,00
2302,25	363,00
2306,88	504,00
2311,51	287,00
2316,14	368,00
2320,75	330,00
2325,37	359,00
2329,98	327,00
2334,59	304,00
2339,19	429,00
2343,79	322,00
2348,38	416,00
2352,97	416,00
2357,55	357,00
2362,13	356,00
2366,71	276,00
2371,28	372,00
2375,85	365,00
2380,41	329,00
2384,97	363,00
2389,52	277,00
2394,07	425,00
2398,62	440,00
2403,16	418,00
2407,70	288,00
2412,23	181,00
2416,76	258,00
2421,29	345,00
2425,81	332,00
2430,32	301,00
2434,84	270,00
2439,34	324,00
2443,85	346,00
2448,35	335,00
2452,84	164,00
2457,33	414,00
2461,82	308,00
2466,30	252,00
2470,78	330,00
2475,25	269,00
2479,72	333,00
2484,19	327,00
2488,65	268,00
2493,11	253,00
2497,56	322,00
2502,01	242,00
2506,46	308,00
2510,90	240,00
2515,34	373,00
2519,77	291,00
2524,20	388,00
2528,62	239,00
2533,04	265,00
2537,46	299,00
2541,87	257,00
2546,28	194,00
2550,68	158,00
2555,08	116,00
2559,48	300,00
2563,87	195,00
2568,26	365,00
2572,64	344,00
2577,02	251,00
2581,40	214,00
2585,77	141,00
2590,14	297,00
2594,50	253,00
2598,86	235,00
2603,22	336,00
2607,57	255,00
2611,92	244,00
2616,26	176,00
2620,60	198,00
2624,94	241,00
2629,27	344,00
2633,60	236,00
2637,92	315,00
2642,24	249,00
2646,56	294,00
2650,87	208,00
2655,18	202,00
2659,48	197,00
2663,78	228,00
2668,08	258,00
2672,37	211,00
2676,66	69,00
2680,95	349,00
2685,23	347,00
2689,50	196,00
2693,78	361,00
2698,05	292,00
2702,31	470,00
2706,57	268,00
2710,83	398,00
2715,08	322,00
2719,33	190,00
2723,58	407,00
2727,82	287,00
2732,06	377,00
2736,29	408,00
2740,53	397,00
2744,75	373,00
2748,97	270,00
2753,19	321,00
2757,41	157,00
2761,62	225,00
2765,83	237,00
2770,03	263,00
2774,23	283,00
2778,43	352,00
2782,62	202,00
2786,81	291,00
2791,00	291,00
2795,18	339,00
2799,35	332,00
2803,53	378,00
2807,70	254,00
2811,86	331,00
2816,03	508,00
2820,19	415,00
2824,34	451,00
2828,49	661,00
2832,64	695,00
2836,78	740,00
2840,92	991,00
2845,06	1099,00
2849,19	1198,00
2853,32	1404,00
2857,45	1417,00
2861,57	1182,00
2865,69	1310,00
2869,80	1220,00
2873,91	1107,00
2878,02	1367,00
2882,12	1277,00
2886,22	1469,00
2890,32	1264,00
2894,41	1175,00
2898,50	1128,00
2902,58	1236,00
2906,67	963,00
2910,74	899,00
2914,82	919,00
2918,89	844,00
2922,96	881,00
2927,02	694,00
2931,08	631,00
2935,13	750,00
2939,19	550,00
2943,24	624,00
2947,28	537,00
2951,32	413,00
2955,36	502,00
2959,40	394,00
2963,43	391,00
2967,46	480,00
2971,48	359,00
2975,50	412,00
2979,52	287,00
2983,53	223,00
2987,54	239,00
2991,55	170,00
2995,55	199,00
2999,55	183,00
3003,54	180,00
3007,54	-45,00
3011,53	236,00
3015,51	231,00
3019,49	198,00
3023,47	129,00
3027,45	219,00
3031,42	210,00
3035,39	260,00
3039,35	114,00
3043,31	209,00
3047,27	213,00
3051,22	123,00
3055,17	109,00
3059,12	206,00
3063,06	118,00
3067,00	189,00
3070,94	122,00
3074,87	266,00
3078,80	226,00
3082,73	212,00
3086,65	147,00
3090,57	72,00
3094,49	248,00
3098,40	200,00
3102,31	35,00
3106,22	124,00
3110,12	34,00
3114,02	48,00
3117,92	230,00
3121,81	89,00
3125,70	-57,00
3129,58	-53,00
3133,47	200,00
3137,34	47,00
3141,22	83,00
3145,09	12,00
3148,96	58,00
3152,83	168,00
3156,69	-16,00
3160,55	22,00
3164,40	33,00
3168,26	-60,00
3172,10	174,00
3175,95	10,00
3179,79	78,00
3183,63	76,00
3187,47	59,00
3191,30	121,00
3195,13	139,00
3198,95	93,00
3202,78	92,00
3206,60	132,00
3210,41	62,00
3214,23	266,00
3218,03	195,00
3221,84	36,00
3225,64	118,00
3229,44	67,00
3233,24	115,00
3237,03	17,00
3240,82	85,00
3244,61	-9,00
3248,39	24,00
3252,17	112,00
3255,95	138,00
3259,72	144,00
3263,49	62,00
3267,26	124,00
3271,03	117,00
3274,79	25,00
3278,54	133,00
3282,30	97,00
3286,05	101,00
3289,80	-4,00
3293,54	152,00
3297,29	64,00
3301,02	41,00
3304,76	61,00
3308,49	-32,00
3312,22	96,00
3315,95	12,00
3319,67	88,00
3323,39	26,00
3327,10	-6,00
3330,82	158,00
3334,53	-18,00
3338,24	7,00
3341,94	86,00
3345,64	98,00
3349,34	-31,00
3353,03	136,00
3356,72	43,00
3360,41	193,00
3364,10	4,00
3367,78	49,00
3371,46	6,00
3375,13	22,00
3378,81	17,00
3382,48	53,00
3386,14	77,00
3389,81	-14,00
3393,47	147,00
3397,12	-25,00
3400,78	19,00
3404,43	122,00
3408,08	-51,00
3411,72	15,00
3415,36	193,00
3419,00	91,00
3422,64	157,00
3426,27	71,00
3429,90	80,00
3433,53	32,00
3437,15	40,00
3440,77	125,00
3444,39	37,00
3448,00	-42,00
3451,62	97,00
3455,22	23,00
3458,83	189,00
3462,43	81,00
3466,03	144,00
3469,63	155,00
3473,22	6,00
3476,81	-6,00
3480,40	60,00
3483,99	-57,00
3487,57	11,00
3491,15	3,00
3494,72	82,00
3498,29	65,00
3501,86	-2,00
3505,43	130,00
3508,99	223,00
3512,56	12,00
3516,11	66,00
3519,67	-82,00
3523,22	1,00
3526,77	-16,00
3530,32	40,00
3533,86	76,00
3537,40	91,00
3540,94	58,00
3544,47	17,00
3548,00	0,00
3551,53	-11,00
3555,06	83,00
3558,58	-26,00
3562,10	-102,00
3565,62	-26,00
3569,13	-107,00
3572,64	10,00
3576,15	41,00
3579,66	66,00
3583,16	81,00
3586,66	25,00
3590,16	45,00
3593,65	37,00
3597,14	72,00
3600,63	27,00
3604,11	94,00
3607,60	157,00
3611,08	160,00
3614,55	75,00
3618,03	73,00
3621,50	80,00
3624,97	-43,00
3628,43	49,00
3631,90	-88,00
3635,36	-31,00
3638,81	-44,00
3642,27	31,00
3645,72	-17,00
3649,17	71,00
3652,61	-1,00
3656,06	14,00
3659,50	26,00
3662,93	69,00
3666,37	32,00
3669,80	137,00
3673,23	5,00
3676,65	113,00
3680,08	131,00
3683,50	40,00
3686,92	71,00
3690,33	101,00
3693,74	-52,00
3697,15	-20,00
3700,56	-49,00
3703,96	56,00
3707,36	-56,00
3710,76	-114,00
3714,16	-18,00
3717,55	68,00
3720,94	53,00
3724,33	50,00
3727,71	55,00
3731,10	33,00
3734,48	-1,00
3737,85	-61,00
3741,23	-8,00
3744,60	140,00
3747,97	-44,00
3751,33	22,00
3754,69	96,00
3758,05	34,00
3761,41	44,00
3764,77	111,00
3768,12	94,00
3771,47	-54,00
3774,82	-15,00
3778,16	3,00
3781,50	-8,00
3784,84	-1,00
3788,18	-2,00
>>>>>End Processed Spectral Data<<<<<
