SpectraSuite Data File
++++++++++++++++++++++++++++++++++++
Date: Tue Mar 03 11:37:49 ICT 2026
User: user
Dark Spectrum Present: Yes
Reference Spectrum Present: No
Number of Sampled Component Spectra: 1
Spectrometers: MAYP113682
Integration Time (usec): 3000000 (MAYP113682)
Spectra Averaged: 1 (MAYP113682)
Boxcar Smoothing: 0 (MAYP113682)
Correct for Electrical Dark: No (MAYP113682)
Strobe/Lamp Enabled: No (MAYP113682)
Correct for Detector Non-linearity: No (MAYP113682)
Correct for Stray Light: No (MAYP113682)
Number of Pixels in Processed Spectrum: 2068
>>>>>Begin Processed Spectral Data<<<<<
-37534,58	5,00
-37414,56	-2,00
-37295,11	-4,00
-37176,24	2,00
-37057,95	-35,00
-36940,22	4,00
-36823,05	-53,00
-36706,45	-162,00
-36590,40	51,00
-36474,90	109,00
-36359,95	15,00
-36245,55	145,00
-36131,68	102,00
-36018,35	50,00
-35905,55	80,00
-35793,29	112,00
-35681,54	-4,00
-35570,32	-52,00
-35459,62	64,00
-35349,43	84,00
-35239,75	46,00
-35130,58	26,00
-35021,91	107,00
-34913,74	75,00
-34806,07	11,00
-34698,89	82,00
-34592,20	53,00
-34486,00	311,00
-34380,28	68,00
-34275,04	-39,00
-34170,27	179,00
-34065,98	107,00
-33962,16	55,00
-33858,81	71,00
-33755,92	223,00
-33653,49	11,00
-33551,52	-22,00
-33450,01	94,00
-33348,94	137,00
-33248,33	190,00
-33148,16	20,00
-33048,43	190,00
-32949,14	-59,00
-32850,29	152,00
-32751,87	32,00
-32653,89	105,00
-32556,33	57,00
-32459,20	1,00
-32362,49	220,00
-32266,19	7,00
-32170,32	78,00
-32074,86	200,00
-31979,82	238,00
-31885,18	146,00
-31790,95	141,00
-31697,12	-23,00
-31603,69	129,00
-31510,67	68,00
-31418,04	81,00
-31325,80	-47,00
-31233,95	86,00
-31142,49	129,00
-31051,42	157,00
-30960,73	161,00
-30870,43	24,00
-30780,50	9,00
-30690,95	45,00
-30601,77	146,00
-30512,97	38,00
-30424,53	80,00
-30336,46	62,00
-30248,76	135,00
-30161,42	-48,00
-30074,44	-99,00
-29987,81	35,00
-29901,55	-80,00
-29815,63	10,00
-29730,07	246,00
-29644,86	188,00
-29560,00	138,00
-29475,48	60,00
-29391,30	38,00
-29307,47	6,00
-29223,97	22,00
-29140,81	40,00
-29057,99	125,00
-28975,50	23,00
-28893,34	42,00
-28811,51	0,00
-28730,00	-5,00
-28648,82	15,00
-28567,97	111,00
-28487,43	24,00
-28407,21	-17,00
-28327,32	-13,00
-28247,73	142,00
-28168,46	122,00
-28089,50	21,00
-28010,85	-64,00
-27932,51	42,00
-27854,48	142,00
-27776,75	112,00
-27699,32	40,00
-27622,19	75,00
-27545,37	37,00
-27468,84	126,00
-27392,60	37,00
-27316,66	-44,00
-27241,01	79,00
-27165,66	34,00
-27090,59	138,00
-27015,81	42,00
-26941,31	62,00
-26867,10	85,00
-26793,17	95,00
-26719,52	98,00
-26646,15	193,00
-26573,06	27,00
-26500,24	-38,00
-26427,70	128,00
-26355,43	10,00
-26283,43	-62,00
-26211,71	4,00
-26140,25	17,00
-26069,06	69,00
-25998,13	58,00
-25927,46	107,00
-25857,06	-16,00
-25786,92	26,00
-25717,04	91,00
-25647,42	-16,00
-25578,05	30,00
-25508,94	154,00
-25440,09	110,00
-25371,48	70,00
-25303,13	78,00
-25235,02	91,00
-25167,17	51,00
-25099,56	81,00
-25032,19	-4,00
-24965,07	-40,00
-24898,20	-7,00
-24831,56	89,00
-24765,17	34,00
-24699,01	-99,00
-24633,10	-64,00
-24567,41	73,00
-24501,97	1,00
-24436,75	42,00
-24371,77	-107,00
-24307,03	59,00
-24242,51	62,00
-24178,22	28,00
-24114,16	15,00
-24050,32	51,00
-23986,71	37,00
-23923,32	56,00
-23860,16	116,00
-23797,22	77,00
-23734,50	-37,00
-23672,00	75,00
-23609,71	55,00
-23547,65	-34,00
-23485,80	91,00
-23424,16	176,00
-23362,74	104,00
-23301,53	56,00
-23240,54	57,00
-23179,75	68,00
-23119,17	46,00
-23058,80	30,00
-22998,64	49,00
-22938,68	45,00
-22878,93	51,00
-22819,39	38,00
-22760,04	29,00
-22700,90	80,00
-22641,96	81,00
-22583,22	97,00
-22524,68	25,00
-22466,33	35,00
-22408,19	99,00
-22350,23	168,00
-22292,48	108,00
-22234,92	56,00
-22177,55	101,00
-22120,37	70,00
-22063,38	111,00
-22006,58	31,00
-21949,98	98,00
-21893,56	-7,00
-21837,33	76,00
-21781,28	39,00
-21725,42	141,00
-21669,74	-44,00
-21614,25	132,00
-21558,94	-7,00
-21503,81	138,00
-21448,86	116,00
-21394,10	-8,00
-21339,51	-5,00
-21285,10	-59,00
-21230,86	-11,00
-21176,81	-45,00
-21122,93	-40,00
-21069,22	110,00
-21015,69	51,00
-20962,33	142,00
-20909,14	-2,00
-20856,13	115,00
-20803,28	71,00
-20750,61	68,00
-20698,10	23,00
-20645,76	77,00
-20593,59	73,00
-20541,59	-86,00
-20489,75	45,00
-20438,07	16,00
-20386,56	155,00
-20335,22	89,00
-20284,03	19,00
-20233,01	76,00
-20182,15	80,00
-20131,45	80,00
-20080,91	-11,00
-20030,52	94,00
-19980,30	55,00
-19930,23	85,00
-19880,32	89,00
-19830,56	-47,00
-19780,96	-8,00
-19731,52	5,00
-19682,23	46,00
-19633,09	-108,00
-19584,10	16,00
-19535,26	139,00
-19486,58	66,00
-19438,04	71,00
-19389,66	35,00
-19341,42	98,00
-19293,33	150,00
-19245,39	-2,00
-19197,60	29,00
-19149,95	99,00
-19102,45	-60,00
-19055,09	75,00
-19007,87	30,00
-18960,80	12,00
-18913,87	-110,00
-18867,09	104,00
-18820,44	96,00
-18773,94	132,00
-18727,57	44,00
-18681,35	-80,00
-18635,26	184,00
-18589,31	174,00
-18543,50	-45,00
-18497,83	-4,00
-18452,29	68,00
-18406,89	49,00
-18361,63	227,00
-18316,50	-3,00
-18271,50	-44,00
-18226,63	207,00
-18181,90	2,00
-18137,30	23,00
-18092,84	184,00
-18048,50	219,00
-18004,29	30,00
-17960,22	-2,00
-17916,27	6,00
-17872,45	76,00
-17828,76	103,00
-17785,20	16,00
-17741,77	39,00
-17698,46	108,00
-17655,28	200,00
-17612,22	13,00
-17569,29	140,00
-17526,48	92,00
-17483,79	60,00
-17441,23	82,00
-17398,79	-78,00
-17356,48	24,00
-17314,28	49,00
-17272,21	101,00
-17230,26	-62,00
-17188,42	-22,00
-17146,71	104,00
-17105,12	65,00
-17063,64	160,00
-17022,28	70,00
-16981,04	89,00
-16939,92	122,00
-16898,91	-1,00
-16858,02	56,00
-16817,25	58,00
-16776,59	-64,00
-16736,04	144,00
-16695,61	86,00
-16655,29	120,00
-16615,09	-55,00
-16574,99	83,00
-16535,01	60,00
-16495,15	19,00
-16455,39	-24,00
-16415,74	30,00
-16376,21	67,00
-16336,78	-4,00
-16297,46	-44,00
-16258,26	12,00
-16219,16	153,00
-16180,17	54,00
-16141,28	160,00
-16102,51	113,00
-16063,84	-26,00
-16025,27	162,00
-15986,82	85,00
-15948,46	-33,00
-15910,22	119,00
-15872,07	-11,00
-15834,04	29,00
-15796,10	121,00
-15758,27	3,00
-15720,54	-10,00
-15682,91	41,00
-15645,39	126,00
-15607,97	84,00
-15570,64	-22,00
-15533,42	123,00
-15496,30	11,00
-15459,28	37,00
-15422,36	-32,00
-15385,54	45,00
-15348,82	-30,00
-15312,19	101,00
-15275,66	-42,00
-15239,23	120,00
-15202,90	104,00
-15166,67	-22,00
-15130,53	72,00
-15094,48	133,00
-15058,54	85,00
-15022,68	37,00
-14986,93	-46,00
-14951,26	76,00
-14915,69	79,00
-14880,22	185,00
-14844,84	-38,00
-14809,55	150,00
-14774,35	39,00
-14739,25	148,00
-14704,24	48,00
-14669,32	161,00
-14634,49	96,00
-14599,75	51,00
-14565,10	181,00
-14530,55	-51,00
-14496,08	210,00
-14461,70	-61,00
-14427,41	112,00
-14393,21	43,00
-14359,10	-1,00
-14325,07	154,00
-14291,14	124,00
-14257,29	171,00
-14223,52	109,00
-14189,85	8,00
-14156,26	121,00
-14122,76	65,00
-14089,34	47,00
-14056,01	106,00
-14022,76	-23,00
-13989,60	17,00
-13956,52	-9,00
-13923,53	63,00
-13890,62	33,00
-13857,79	83,00
-13825,05	58,00
-13792,39	112,00
-13759,81	27,00
-13727,31	77,00
-13694,90	48,00
-13662,57	14,00
-13630,31	76,00
-13598,14	177,00
-13566,05	20,00
-13534,05	108,00
-13502,12	17,00
-13470,27	60,00
-13438,50	83,00
-13406,80	63,00
-13375,19	57,00
-13343,66	43,00
-13312,20	91,00
-13280,83	51,00
-13249,53	67,00
-13218,30	-26,00
-13187,16	58,00
-13156,09	96,00
-13125,10	73,00
-13094,18	78,00
-13063,34	20,00
-13032,58	1,00
-13001,89	64,00
-12971,28	4,00
-12940,74	168,00
-12910,27	36,00
-12879,88	103,00
-12849,57	154,00
-12819,33	-7,00
-12789,16	137,00
-12759,06	-113,00
-12729,04	97,00
-12699,09	-1416,00
-12669,21	19,00
-12639,41	39,00
-12609,68	51,00
-12580,02	-25,00
-12550,43	-42,00
-12520,91	14,00
-12491,46	-16,00
-12462,08	130,00
-12432,77	198,00
-12403,54	72,00
-12374,37	18,00
-12345,27	120,00
-12316,24	93,00
-12287,29	125,00
-12258,40	152,00
-12229,57	-79,00
-12200,82	198,00
-12172,14	93,00
-12143,52	103,00
-12114,97	103,00
-12086,49	89,00
-12058,07	127,00
-12029,73	150,00
-12001,44	145,00
-11973,23	-46,00
-11945,08	23,00
-11917,00	37,00
-11888,98	61,00
-11861,03	7,00
-11833,15	-46,00
-11805,32	104,00
-11777,57	-81,00
-11749,88	56,00
-11722,25	41,00
-11694,69	102,00
-11667,19	48,00
-11639,75	59,00
-11612,38	76,00
-11585,07	-9,00
-11557,83	-33,00
-11530,65	119,00
-11503,53	83,00
-11476,47	116,00
-11449,48	118,00
-11422,54	58,00
-11395,67	-15,00
-11368,86	75,00
-11342,11	59,00
-11315,43	125,00
-11288,80	44,00
-11262,23	-40,00
-11235,73	-91,00
-11209,28	120,00
-11182,90	38,00
-11156,57	56,00
-11130,31	12,00
-11104,10	-29,00
-11077,96	18,00
-11051,87	126,00
-11025,84	87,00
-10999,87	46,00
-10973,96	45,00
-10948,11	-23,00
-10922,31	77,00
-10896,58	56,00
-10870,90	119,00
-10845,28	131,00
-10819,71	45,00
-10794,20	188,00
-10768,75	81,00
-10743,36	20,00
-10718,02	105,00
-10692,74	136,00
-10667,52	139,00
-10642,35	-53,00
-10617,24	115,00
-10592,18	116,00
-10567,18	182,00
-10542,23	97,00
-10517,34	201,00
-10492,51	119,00
-10467,72	171,00
-10443,00	239,00
-10418,32	164,00
-10393,70	138,00
-10369,14	85,00
-10344,63	228,00
-10320,17	260,00
-10295,77	280,00
-10271,42	244,00
-10247,12	358,00
-10222,88	423,00
-10198,68	290,00
-10174,54	382,00
-10150,46	280,00
-10126,42	427,00
-10102,44	349,00
-10078,51	398,00
-10054,63	376,00
-10030,80	461,00
-10007,03	398,00
-9983,30	360,00
-9959,63	351,00
-9936,01	376,00
-9912,44	476,00
-9888,92	447,00
-9865,44	547,00
-9842,02	545,00
-9818,65	637,00
-9795,33	592,00
-9772,06	632,00
-9748,84	645,00
-9725,67	746,00
-9702,55	767,00
-9679,47	988,00
-9656,45	990,00
-9633,47	1113,00
-9610,55	1046,00
-9587,67	1130,00
-9564,84	1177,00
-9542,06	1392,00
-9519,32	1568,00
-9496,64	1561,00
-9474,00	1773,00
-9451,41	1842,00
-9428,87	1716,00
-9406,37	1654,00
-9383,92	1590,00
-9361,52	1425,00
-9339,17	1641,00
-9316,86	1756,00
-9294,60	1816,00
-9272,38	2224,00
-9250,21	2254,00
-9228,09	2397,00
-9206,01	2239,00
-9183,98	2106,00
-9162,00	1884,00
-9140,06	1703,00
-9118,16	1627,00
-9096,31	1744,00
-9074,51	1888,00
-9052,75	1847,00
-9031,04	2007,00
-9009,37	1506,00
-8987,74	1393,00
-8966,16	1397,00
-8944,63	1116,00
-8923,14	1088,00
-8901,69	1248,00
-8880,29	1248,00
-8858,93	1391,00
-8837,61	1595,00
-8816,34	1611,00
-8795,11	1745,00
-8773,92	1508,00
-8752,78	1196,00
-8731,68	1343,00
-8710,62	1270,00
-8689,61	1268,00
-8668,63	1494,00
-8647,70	1717,00
-8626,82	1557,00
-8605,97	1431,00
-8585,17	1387,00
-8564,41	1305,00
-8543,69	1146,00
-8523,01	968,00
-8502,37	1034,00
-8481,78	1193,00
-8461,23	1257,00
-8440,71	1347,00
-8420,24	1463,00
-8399,81	1421,00
-8379,42	1444,00
-8359,08	1333,00
-8338,77	1269,00
-8318,50	996,00
-8298,27	1068,00
-8278,09	1243,00
-8257,94	1229,00
-8237,83	1318,00
-8217,76	1328,00
-8197,74	1540,00
-8177,75	1392,00
-8157,80	1195,00
-8137,89	1133,00
-8118,02	1111,00
-8098,19	1117,00
-8078,40	1084,00
-8058,65	1353,00
-8038,93	1215,00
-8019,26	1254,00
-7999,62	1049,00
-7980,02	1036,00
-7960,46	1147,00
-7940,94	1100,00
-7921,46	1109,00
-7902,01	898,00
-7882,60	1133,00
-7863,23	959,00
-7843,90	1055,00
-7824,61	1073,00
-7805,35	1074,00
-7786,13	1105,00
-7766,95	1243,00
-7747,80	1102,00
-7728,69	1096,00
-7709,62	1000,00
-7690,59	1215,00
-7671,59	1259,00
-7652,63	1182,00
-7633,70	1319,00
-7614,81	1161,00
-7595,96	1011,00
-7577,15	1044,00
-7558,37	1058,00
-7539,62	1086,00
-7520,91	1073,00
-7502,24	1100,00
-7483,60	1191,00
-7465,00	1202,00
-7446,44	948,00
-7427,91	820,00
-7409,41	1023,00
-7390,95	690,00
-7372,53	784,00
-7354,14	707,00
-7335,78	716,00
-7317,46	711,00
-7299,18	929,00
-7280,92	958,00
-7262,71	1108,00
-7244,52	1070,00
-7226,38	1143,00
-7208,26	1189,00
-7190,18	1070,00
-7172,14	1073,00
-7154,12	1163,00
-7136,15	1003,00
-7118,20	993,00
-7100,29	1187,00
-7082,41	1106,00
-7064,57	979,00
-7046,76	968,00
-7028,98	963,00
-7011,24	878,00
-6993,53	649,00
-6975,85	541,00
-6958,20	530,00
-6940,59	466,00
-6923,01	552,00
-6905,46	705,00
-6887,94	857,00
-6870,46	-947,00
-6853,01	1154,00
-6835,59	995,00
-6818,21	911,00
-6800,85	741,00
-6783,53	595,00
-6766,24	562,00
-6748,98	503,00
-6731,76	463,00
-6714,56	421,00
-6697,40	379,00
-6680,26	437,00
-6663,16	595,00
-6646,09	628,00
-6629,05	690,00
-6612,05	849,00
-6595,07	847,00
-6578,13	754,00
-6561,21	691,00
-6544,33	506,00
-6527,47	303,00
-6510,65	336,00
-6493,86	381,00
-6477,10	376,00
-6460,36	448,00
-6443,66	337,00
-6426,99	405,00
-6410,35	452,00
-6393,74	420,00
-6377,16	501,00
-6360,61	570,00
-6344,09	538,00
-6327,59	471,00
-6311,13	430,00
-6294,70	621,00
-6278,29	659,00
-6261,92	637,00
-6245,58	847,00
-6229,26	698,00
-6212,97	855,00
-6196,72	689,00
-6180,49	362,00
-6164,29	256,00
-6148,12	163,00
-6131,98	149,00
-6115,86	124,00
-6099,78	269,00
-6083,72	257,00
-6067,69	285,00
-6051,69	85,00
-6035,72	292,00
-6019,78	321,00
-6003,87	307,00
-5987,98	495,00
-5972,12	508,00
-5956,29	607,00
-5940,49	456,00
-5924,71	543,00
-5908,96	256,00
-5893,24	200,00
-5877,55	144,00
-5861,89	355,00
-5846,25	362,00
-5830,64	290,00
-5815,05	375,00
-5799,50	294,00
-5783,97	302,00
-5768,47	299,00
-5752,99	328,00
-5737,55	527,00
-5722,12	550,00
-5706,73	545,00
-5691,36	438,00
-5676,02	269,00
-5660,71	317,00
-5645,42	245,00
-5630,16	317,00
-5614,92	369,00
-5599,71	346,00
-5584,53	475,00
-5569,37	276,00
-5554,24	1393,00
-5539,14	319,00
-5524,06	345,00
-5509,01	327,00
-5493,98	462,00
-5478,98	456,00
-5464,00	467,00
-5449,05	354,00
-5434,13	203,00
-5419,23	306,00
-5404,36	318,00
-5389,51	445,00
-5374,69	390,00
-5359,89	592,00
-5345,12	534,00
-5330,37	622,00
-5315,65	453,00
-5300,95	368,00
-5286,28	394,00
-5271,63	438,00
-5257,01	448,00
-5242,41	490,00
-5227,84	352,00
-5213,29	269,00
-5198,76	214,00
-5184,26	244,00
-5169,79	241,00
-5155,33	207,00
-5140,91	311,00
-5126,51	484,00
-5112,13	451,00
-5097,77	276,00
-5083,44	432,00
-5069,13	180,00
-5054,85	203,00
-5040,59	417,00
-5026,36	300,00
-5012,15	414,00
-4997,96	379,00
-4983,80	248,00
-4969,66	278,00
-4955,54	170,00
-4941,44	326,00
-4927,37	400,00
-4913,33	603,00
-4899,30	681,00
-4885,30	561,00
-4871,33	397,00
-4857,37	124,00
-4843,44	259,00
-4829,53	293,00
-4815,65	223,00
-4801,79	340,00
-4787,95	360,00
-4774,13	182,00
-4760,34	253,00
-4746,56	83,00
-4732,82	79,00
-4719,09	377,00
-4705,38	472,00
-4691,70	384,00
-4678,04	611,00
-4664,41	403,00
-4650,79	279,00
-4637,20	146,00
-4623,63	220,00
-4610,08	245,00
-4596,56	272,00
-4583,05	462,00
-4569,57	348,00
-4556,11	122,00
-4542,67	135,00
-4529,25	266,00
-4515,86	315,00
-4502,49	306,00
-4489,13	462,00
-4475,80	383,00
-4462,49	283,00
-4449,21	263,00
-4435,94	131,00
-4422,70	258,00
-4409,47	265,00
-4396,27	221,00
-4383,09	191,00
-4369,93	134,00
-4356,79	130,00
-4343,67	89,00
-4330,58	202,00
-4317,50	101,00
-4304,45	328,00
-4291,41	123,00
-4278,40	116,00
-4265,41	137,00
-4252,44	201,00
-4239,49	300,00
-4226,55	171,00
-4213,65	321,00
-4200,76	76,00
-4187,89	68,00
-4175,04	155,00
-4162,21	153,00
-4149,40	27,00
-4136,61	87,00
-4123,85	131,00
-4111,10	58,00
-4098,37	143,00
-4085,66	141,00
-4072,98	105,00
-4060,31	67,00
-4047,66	108,00
-4035,04	133,00
-4022,43	107,00
-4009,84	36,00
-3997,27	138,00
-3984,72	123,00
-3972,19	3,00
-3959,69	-5,00
-3947,20	117,00
-3934,73	28,00
-3922,27	89,00
-3909,84	104,00
-3897,43	19,00
-3885,04	72,00
-3872,67	-20,00
-3860,31	-3,00
-3847,98	122,00
-3835,66	-100,00
-3823,36	46,00
-3811,09	0,00
-3798,83	-16,00
-3786,59	155,00
-3774,37	108,00
-3762,17	106,00
-3749,98	18,00
-3737,82	-116,00
-3725,67	157,00
-3713,55	-11,00
-3701,44	123,00
-3689,35	143,00
-3677,28	50,00
-3665,22	28,00
-3653,19	3,00
-3641,17	23,00
-3629,18	36,00
-3617,20	-2,00
-3605,24	122,00
-3593,30	7,00
-3581,37	24,00
-3569,47	27,00
-3557,58	80,00
-3545,71	-128,00
-3533,86	93,00
-3522,02	28,00
-3510,21	186,00
-3498,41	9,00
-3486,63	23,00
-3474,87	-52,00
-3463,12	63,00
-3451,40	54,00
-3439,69	-49,00
-3428,00	45,00
-3416,33	36,00
-3404,67	2,00
-3393,03	23,00
-3381,41	111,00
-3369,81	218,00
-3358,22	17,00
-3346,66	125,00
-3335,10	33,00
-3323,57	65,00
-3312,06	53,00
-3300,56	61,00
-3289,08	135,00
-3277,61	51,00
-3266,16	42,00
-3254,73	37,00
-3243,32	62,00
-3231,92	31,00
-3220,55	161,00
-3209,18	0,00
-3197,84	70,00
-3186,51	-42,00
-3175,20	-42,00
-3163,90	-74,00
-3152,63	-1,00
-3141,36	185,00
-3130,12	73,00
-3118,89	80,00
-3107,68	32,00
-3096,49	159,00
-3085,31	-105,00
-3074,15	90,00
-3063,00	20,00
-3051,87	3,00
-3040,76	136,00
-3029,67	75,00
-3018,59	105,00
-3007,52	120,00
-2996,48	79,00
-2985,44	-16,00
-2974,43	194,00
-2963,43	7,00
-2952,45	46,00
-2941,48	136,00
-2930,53	21,00
-2919,60	-102,00
-2908,68	56,00
-2897,78	79,00
-2886,89	0,00
-2876,02	-12,00
-2865,17	80,00
-2854,33	-47,00
-2843,50	156,00
-2832,70	24,00
-2821,90	133,00
-2811,13	56,00
-2800,37	173,00
-2789,62	26,00
-2778,89	104,00
-2768,18	45,00
-2757,48	-21,00
-2746,80	86,00
-2736,13	22,00
-2725,48	-48,00
-2714,84	-16,00
-2704,22	55,00
-2693,61	59,00
-2683,02	25,00
-2672,45	183,00
-2661,89	62,00
-2651,34	153,00
-2640,81	91,00
-2630,30	30,00
-2619,80	-52,00
-2609,31	110,00
-2598,84	18,00
-2588,39	57,00
-2577,95	-16,00
-2567,52	-56,00
-2557,11	19,00
-2546,71	189,00
-2536,33	177,00
-2525,97	37,00
-2515,62	95,00
-2505,28	49,00
-2494,96	32,00
-2484,65	61,00
-2474,36	-83,00
-2464,08	99,00
-2453,82	106,00
-2443,57	14,00
-2433,33	99,00
-2423,11	-3,00
-2412,91	-19,00
-2402,72	-64,00
-2392,54	23,00
-2382,38	107,00
-2372,23	232,00
-2362,09	-4779,00
-2351,97	112,00
-2341,87	86,00
-2331,78	-18,00
-2321,70	133,00
-2311,64	47,00
-2301,59	110,00
-2291,55	133,00
-2281,53	52,00
-2271,53	108,00
-2261,53	70,00
-2251,55	93,00
-2241,59	6,00
-2231,64	81,00
-2221,70	29,00
-2211,78	1,00
-2201,87	80,00
-2191,97	194,00
-2182,09	93,00
-2172,22	33,00
-2162,37	59,00
-2152,53	6,00
-2142,70	92,00
-2132,89	17,00
-2123,09	-62,00
-2113,30	119,00
-2103,53	-78,00
-2093,77	120,00
-2084,02	-7,00
-2074,29	151,00
-2064,57	84,00
-2054,86	78,00
-2045,17	68,00
-2035,49	97,00
-2025,82	48,00
-2016,17	87,00
-2006,53	100,00
-1996,91	160,00
-1987,29	-24,00
-1977,69	18,00
-1968,11	24,00
-1958,53	51,00
-1948,97	56,00
-1939,42	-30,00
-1929,89	133,00
-1920,37	51,00
-1910,86	-86,00
-1901,36	126,00
-1891,88	-18,00
-1882,41	122,00
-1872,95	137,00
-1863,51	-69,00
-1854,08	91,00
-1844,66	86,00
-1835,26	29,00
-1825,86	-3,00
-1816,48	181,00
-1807,11	11,00
-1797,76	41,00
-1788,42	29,00
-1779,09	-44,00
-1769,77	-79,00
-1760,47	45,00
-1751,17	64,00
-1741,89	132,00
-1732,63	-27,00
-1723,37	225,00
-1714,13	96,00
-1704,90	18,00
-1695,68	211,00
-1686,48	20,00
-1677,29	-16,00
-1668,11	174,00
-1658,94	131,00
-1649,78	5,00
-1640,64	49,00
-1631,51	12,00
-1622,39	-12,00
-1613,28	-39,00
-1604,19	-173,00
-1595,10	74,00
-1586,03	135,00
-1576,97	-34,00
-1567,93	7,00
-1558,89	-68,00
-1549,87	13,00
-1540,86	59,00
-1531,86	61,00
-1522,87	24,00
-1513,90	52,00
-1504,93	96,00
-1495,98	44,00
-1487,04	96,00
-1478,12	111,00
-1469,20	-63,00
-1460,30	64,00
-1451,40	66,00
-1442,52	7,00
-1433,65	6,00
-1424,80	-48,00
-1415,95	-47,00
-1407,12	90,00
-1398,30	66,00
-1389,48	76,00
-1380,69	41,00
-1371,90	95,00
-1363,12	190,00
-1354,36	117,00
-1345,60	116,00
-1336,86	-54,00
-1328,13	114,00
-1319,41	-46,00
-1310,70	-2,00
-1302,01	65,00
-1293,32	4,00
-1284,65	74,00
-1275,99	45,00
-1267,33	65,00
-1258,69	15,00
-1250,06	-67,00
-1241,45	93,00
-1232,84	134,00
-1224,25	80,00
-1215,66	96,00
-1207,09	65,00
-1198,53	84,00
-1189,97	49,00
-1181,43	32,00
-1172,91	83,00
-1164,39	103,00
-1155,88	130,00
-1147,38	71,00
-1138,90	100,00
-1130,43	33,00
-1121,96	51,00
-1113,51	47,00
-1105,07	148,00
-1096,64	70,00
-1088,22	62,00
-1079,81	99,00
-1071,41	93,00
-1063,02	85,00
-1054,65	8,00
-1046,28	-33,00
-1037,92	144,00
-1029,58	186,00
-1021,24	-67,00
-1012,92	-67,00
-1004,61	120,00
-996,30	75,00
-988,01	-40,00
-979,73	31,00
-971,46	72,00
-963,20	152,00
-954,95	31,00
-946,71	94,00
-938,48	-73,00
-930,26	85,00
-922,06	9,00
-913,86	7,00
-905,67	18,00
-897,49	60,00
-889,33	-16,00
-881,17	41,00
-873,02	-14,00
-864,89	-47,00
-856,76	21,00
-848,65	37,00
-840,54	1,00
-832,45	103,00
-824,36	96,00
-816,29	140,00
-808,22	113,00
-800,17	130,00
-792,12	-34,00
-784,09	99,00
-776,06	128,00
-768,05	-15,00
-760,04	157,00
-752,05	85,00
-744,07	12,00
-736,09	40,00
-728,13	27,00
-720,17	177,00
-712,23	144,00
-704,29	111,00
-696,37	172,00
-688,45	27,00
-680,55	68,00
-672,65	166,00
-664,77	77,00
-656,89	-74,00
-649,03	76,00
-641,17	-56,00
-633,32	68,00
-625,49	32,00
-617,66	71,00
-609,84	12,00
-602,03	81,00
-594,23	92,00
-586,45	114,00
-578,67	24,00
-570,90	143,00
-563,14	46,00
-555,39	-87,00
-547,65	-75,00
-539,91	-7,00
-532,19	166,00
-524,48	63,00
-516,78	28,00
-509,08	61,00
-501,40	-24,00
-493,72	38,00
-486,06	120,00
-478,40	92,00
-470,76	-84,00
-463,12	46,00
-455,49	64,00
-447,87	136,00
-440,26	50,00
-432,66	81,00
-425,07	229,00
-417,49	216,00
-409,92	80,00
-402,35	66,00
-394,80	120,00
-387,25	167,00
-379,72	69,00
-372,19	100,00
-364,67	79,00
-357,17	80,00
-349,67	60,00
-342,18	39,00
-334,69	80,00
-327,22	159,00
-319,76	196,00
-312,30	28,00
-304,86	63,00
-297,42	174,00
-290,00	128,00
-282,58	228,00
-275,17	61,00
-267,77	257,00
-260,37	50,00
-252,99	162,00
-245,62	180,00
-238,25	123,00
-230,90	235,00
-223,55	163,00
-216,21	273,00
-208,88	259,00
-201,56	303,00
-194,25	243,00
-186,94	312,00
-179,65	203,00
-172,36	315,00
-165,08	234,00
-157,81	393,00
-150,55	439,00
-143,30	402,00
-136,06	374,00
-128,82	553,00
-121,60	614,00
-114,38	686,00
-107,17	648,00
-99,97	802,00
-92,78	886,00
-85,60	1156,00
-78,42	1215,00
-71,25	1442,00
-64,10	1816,00
-56,95	1876,00
-49,81	2268,00
-42,67	2937,00
-35,55	3676,00
-28,43	4895,00
-21,33	8426,00
-14,23	29094,00
-7,14	54419,00
-0,05	54171,00
7,02	53809,00
14,09	54108,00
21,14	21258,00
28,19	9072,00
35,23	5690,00
42,27	4324,00
49,29	3753,00
56,31	3003,00
63,32	2395,00
70,32	2043,00
77,31	1855,00
84,29	1525,00
91,27	1374,00
98,23	1181,00
105,19	1240,00
112,14	1262,00
119,09	1891,00
126,02	2787,00
132,95	3207,00
139,87	3319,00
146,78	3354,00
153,68	3311,00
160,58	3214,00
167,46	3254,00
174,34	3196,00
181,21	3158,00
188,08	3118,00
194,93	3041,00
201,78	3004,00
208,62	3087,00
215,45	3045,00
222,27	3088,00
229,09	2967,00
235,90	2907,00
242,70	2960,00
249,49	2846,00
256,27	2878,00
263,05	2769,00
269,82	2870,00
276,58	2736,00
283,33	2805,00
290,08	2881,00
296,82	2716,00
303,55	2658,00
310,27	2709,00
316,98	2565,00
323,69	2570,00
330,39	2536,00
337,08	2643,00
343,76	2484,00
350,44	2456,00
357,11	2503,00
363,77	2552,00
370,42	2472,00
377,07	2535,00
383,71	2559,00
390,34	2442,00
396,96	2457,00
403,58	2467,00
410,19	2493,00
416,79	2469,00
423,38	2580,00
429,97	2496,00
436,55	2289,00
443,12	2281,00
449,68	2296,00
456,24	2265,00
462,79	2275,00
469,33	2155,00
475,86	2102,00
482,39	2136,00
488,91	2137,00
495,42	2039,00
501,93	2173,00
508,42	2003,00
514,91	2045,00
521,40	1983,00
527,87	1939,00
534,34	1884,00
540,80	2083,00
547,25	1900,00
553,70	1981,00
560,14	2228,00
566,57	1924,00
573,00	1900,00
579,41	1897,00
585,83	1874,00
592,23	1851,00
598,62	1964,00
605,01	1935,00
611,40	1848,00
617,77	1979,00
624,14	1792,00
630,50	1813,00
636,85	1725,00
643,20	1754,00
649,54	1641,00
655,87	1727,00
662,20	1764,00
668,52	1782,00
674,83	1754,00
681,13	1587,00
687,43	1716,00
693,72	1637,00
700,00	1788,00
706,28	1771,00
712,55	1695,00
718,81	1831,00
725,07	1669,00
731,32	1679,00
737,56	1735,00
743,79	1648,00
750,02	1687,00
756,24	1585,00
762,46	1787,00
768,67	1685,00
774,87	1582,00
781,06	1531,00
787,25	1577,00
793,43	1687,00
799,60	1536,00
805,77	1585,00
811,93	1541,00
818,08	1612,00
824,23	1651,00
830,37	1664,00
836,50	1588,00
842,63	1740,00
848,75	1552,00
854,87	1690,00
860,97	1651,00
867,07	1692,00
873,17	1656,00
879,25	1473,00
885,33	1623,00
891,41	1680,00
897,47	1492,00
903,53	1525,00
909,59	1549,00
915,63	1519,00
921,67	1381,00
927,71	1413,00
933,74	1368,00
939,76	1390,00
945,77	1368,00
951,78	1439,00
957,78	1325,00
963,78	1448,00
969,77	1399,00
975,75	1407,00
981,72	1316,00
987,69	1427,00
993,66	1458,00
999,61	1487,00
1005,56	1422,00
1011,51	1485,00
1017,44	1418,00
1023,37	1378,00
1029,30	1396,00
1035,22	1497,00
1041,13	1412,00
1047,03	1571,00
1052,93	1576,00
1058,83	1955,00
1064,71	2091,00
1070,59	1824,00
1076,47	1779,00
1082,33	1575,00
1088,20	1540,00
1094,05	1541,00
1099,90	1499,00
1105,74	1328,00
1111,58	1492,00
1117,41	1622,00
1123,23	1647,00
1129,05	1774,00
1134,86	1605,00
1140,67	1337,00
1146,47	1402,00
1152,26	1364,00
1158,05	1291,00
1163,83	1264,00
1169,60	1237,00
1175,37	1262,00
1181,13	1263,00
1186,89	1279,00
1192,64	1253,00
1198,38	1267,00
1204,12	1364,00
1209,85	1355,00
1215,58	1228,00
1221,30	1247,00
1227,02	1204,00
1232,72	1207,00
1238,43	1279,00
1244,12	1285,00
1249,81	1217,00
1255,50	1267,00
1261,17	1339,00
1266,85	1310,00
1272,51	1301,00
1278,17	1277,00
1283,83	1429,00
1289,47	1820,00
1295,12	2281,00
1300,75	2117,00
1306,38	1817,00
1312,01	1632,00
1317,63	1452,00
1323,24	1374,00
1328,85	1457,00
1334,45	1434,00
1340,04	1481,00
1345,63	1310,00
1351,22	1371,00
1356,80	1269,00
1362,37	1445,00
1367,93	1354,00
1373,49	1331,00
1379,05	1611,00
1384,60	1344,00
1390,14	1335,00
1395,68	1232,00
1401,21	1363,00
1406,74	1442,00
1412,26	1504,00
1417,77	1548,00
1423,28	1623,00
1428,78	1914,00
1434,28	2110,00
1439,77	2264,00
1445,26	2361,00
1450,74	2262,00
1456,22	1980,00
1461,68	2007,00
1467,15	1835,00
1472,61	1724,00
1478,06	1452,00
1483,51	1431,00
1488,95	1313,00
1494,38	1187,00
1499,81	1235,00
1505,24	1176,00
1510,65	1103,00
1516,07	1213,00
1521,48	1195,00
1526,88	1136,00
1532,27	1131,00
1537,67	1130,00
1543,05	1176,00
1548,43	1077,00
1553,81	1088,00
1559,18	1160,00
1564,54	1115,00
1569,90	1096,00
1575,25	1145,00
1580,60	962,00
1585,94	1028,00
1591,28	1048,00
1596,61	950,00
1601,93	897,00
1607,25	1180,00
1612,57	910,00
1617,88	1024,00
1623,18	1057,00
1628,48	836,00
1633,77	1040,00
1639,06	1050,00
1644,34	1067,00
1649,62	964,00
1654,89	1047,00
1660,16	869,00
1665,42	1085,00
1670,67	1037,00
1675,92	865,00
1681,17	981,00
1686,41	875,00
1691,64	847,00
1696,87	794,00
1702,10	943,00
1707,32	821,00
1712,53	873,00
1717,74	972,00
1722,94	697,00
1728,14	866,00
1733,33	928,00
1738,52	844,00
1743,70	872,00
1748,88	902,00
1754,05	907,00
1759,22	791,00
1764,38	-892,00
1769,53	956,00
1774,69	872,00
1779,83	980,00
1784,97	655,00
1790,11	743,00
1795,24	682,00
1800,36	686,00
1805,48	669,00
1810,60	702,00
1815,71	837,00
1820,82	803,00
1825,92	714,00
1831,01	653,00
1836,10	701,00
1841,19	761,00
1846,26	800,00
1851,34	723,00
1856,41	788,00
1861,47	748,00
1866,53	764,00
1871,59	721,00
1876,64	692,00
1881,68	786,00
1886,72	705,00
1891,76	654,00
1896,79	667,00
1901,81	680,00
1906,83	677,00
1911,85	600,00
1916,86	698,00
1921,86	609,00
1926,86	531,00
1931,86	666,00
1936,85	656,00
1941,83	604,00
1946,81	554,00
1951,79	518,00
1956,76	566,00
1961,72	466,00
1966,68	607,00
1971,64	584,00
1976,59	691,00
1981,54	536,00
1986,48	624,00
1991,42	497,00
1996,35	486,00
2001,27	570,00
2006,20	535,00
2011,11	616,00
2016,03	458,00
2020,93	387,00
2025,84	541,00
2030,73	617,00
2035,63	454,00
2040,52	600,00
2045,40	362,00
2050,28	477,00
2055,15	544,00
2060,02	587,00
2064,89	564,00
2069,75	473,00
2074,60	626,00
2079,46	536,00
2084,30	449,00
2089,14	378,00
2093,98	498,00
2098,81	449,00
2103,64	566,00
2108,46	430,00
2113,28	511,00
2118,09	524,00
2122,90	375,00
2127,70	413,00
2132,50	372,00
2137,30	532,00
2142,09	482,00
2146,87	440,00
2151,66	469,00
2156,43	528,00
2161,20	480,00
2165,97	455,00
2170,73	472,00
2175,49	401,00
2180,24	497,00
2184,99	381,00
2189,74	499,00
2194,48	424,00
2199,21	536,00
2203,94	462,00
2208,67	391,00
2213,39	553,00
2218,11	309,00
2222,82	369,00
2227,53	440,00
2232,23	329,00
2236,93	443,00
2241,63	497,00
2246,32	257,00
2251,00	348,00
2255,68	438,00
2260,36	509,00
2265,03	316,00
2269,70	429,00
2274,36	356,00
2279,02	390,00
2283,68	403,00
2288,33	358,00
2292,97	346,00
2297,61	411,00
2302,25	406,00
2306,88	360,00
2311,51	465,00
2316,14	404,00
2320,75	358,00
2325,37	305,00
2329,98	324,00
2334,59	325,00
2339,19	426,00
2343,79	350,00
2348,38	334,00
2352,97	267,00
2357,55	345,00
2362,13	287,00
2366,71	245,00
2371,28	312,00
2375,85	302,00
2380,41	274,00
2384,97	354,00
2389,52	338,00
2394,07	196,00
2398,62	363,00
2403,16	395,00
2407,70	290,00
2412,23	318,00
2416,76	328,00
2421,29	293,00
2425,81	313,00
2430,32	346,00
2434,84	410,00
2439,34	388,00
2443,85	332,00
2448,35	217,00
2452,84	296,00
2457,33	190,00
2461,82	297,00
2466,30	376,00
2470,78	216,00
2475,25	353,00
2479,72	377,00
2484,19	312,00
2488,65	241,00
2493,11	243,00
2497,56	355,00
2502,01	256,00
2506,46	326,00
2510,90	294,00
2515,34	302,00
2519,77	216,00
2524,20	285,00
2528,62	280,00
2533,04	218,00
2537,46	321,00
2541,87	272,00
2546,28	163,00
2550,68	229,00
2555,08	86,00
2559,48	256,00
2563,87	127,00
2568,26	254,00
2572,64	276,00
2577,02	244,00
2581,40	327,00
2585,77	234,00
2590,14	309,00
2594,50	305,00
2598,86	246,00
2603,22	320,00
2607,57	116,00
2611,92	235,00
2616,26	152,00
2620,60	314,00
2624,94	308,00
2629,27	227,00
2633,60	216,00
2637,92	281,00
2642,24	251,00
2646,56	229,00
2650,87	194,00
2655,18	252,00
2659,48	383,00
2663,78	228,00
2668,08	338,00
2672,37	261,00
2676,66	348,00
2680,95	247,00
2685,23	318,00
2689,50	192,00
2693,78	164,00
2698,05	321,00
2702,31	272,00
2706,57	353,00
2710,83	240,00
2715,08	251,00
2719,33	355,00
2723,58	356,00
2727,82	320,00
2732,06	461,00
2736,29	407,00
2740,53	275,00
2744,75	332,00
2748,97	304,00
2753,19	298,00
2757,41	316,00
2761,62	377,00
2765,83	295,00
2770,03	203,00
2774,23	333,00
2778,43	287,00
2782,62	402,00
2786,81	344,00
2791,00	316,00
2795,18	374,00
2799,35	392,00
2803,53	363,00
2807,70	559,00
2811,86	445,00
2816,03	371,00
2820,19	534,00
2824,34	597,00
2828,49	569,00
2832,64	701,00
2836,78	791,00
2840,92	1084,00
2845,06	1319,00
2849,19	1373,00
2853,32	1375,00
2857,45	1531,00
2861,57	1402,00
2865,69	1360,00
2869,80	1336,00
2873,91	1336,00
2878,02	1654,00
2882,12	1604,00
2886,22	1548,00
2890,32	1587,00
2894,41	1484,00
2898,50	1427,00
2902,58	1291,00
2906,67	1353,00
2910,74	1020,00
2914,82	1052,00
2918,89	1111,00
2922,96	820,00
2927,02	908,00
2931,08	896,00
2935,13	848,00
2939,19	758,00
2943,24	570,00
2947,28	568,00
2951,32	459,00
2955,36	390,00
2959,40	593,00
2963,43	560,00
2967,46	369,00
2971,48	351,00
2975,50	378,00
2979,52	416,00
2983,53	174,00
2987,54	252,00
2991,55	298,00
2995,55	172,00
2999,55	299,00
3003,54	112,00
3007,54	184,00
3011,53	95,00
3015,51	95,00
3019,49	66,00
3023,47	203,00
3027,45	74,00
3031,42	156,00
3035,39	272,00
3039,35	103,00
3043,31	157,00
3047,27	16,00
3051,22	203,00
3055,17	80,00
3059,12	120,00
3063,06	191,00
3067,00	85,00
3070,94	125,00
3074,87	97,00
3078,80	169,00
3082,73	175,00
3086,65	244,00
3090,57	99,00
3094,49	229,00
3098,40	47,00
3102,31	235,00
3106,22	98,00
3110,12	-33,00
3114,02	71,00
3117,92	227,00
3121,81	95,00
3125,70	77,00
3129,58	88,00
3133,47	99,00
3137,34	-13,00
3141,22	22,00
3145,09	205,00
3148,96	81,00
3152,83	227,00
3156,69	24,00
3160,55	175,00
3164,40	68,00
3168,26	146,00
3172,10	53,00
3175,95	217,00
3179,79	96,00
3183,63	172,00
3187,47	75,00
3191,30	146,00
3195,13	-13,00
3198,95	116,00
3202,78	94,00
3206,60	53,00
3210,41	106,00
3214,23	148,00
3218,03	112,00
3221,84	205,00
3225,64	95,00
3229,44	104,00
3233,24	117,00
3237,03	151,00
3240,82	101,00
3244,61	121,00
3248,39	235,00
3252,17	148,00
3255,95	31,00
3259,72	136,00
3263,49	45,00
3267,26	206,00
3271,03	47,00
3274,79	137,00
3278,54	56,00
3282,30	173,00
3286,05	117,00
3289,80	87,00
3293,54	9,00
3297,29	68,00
3301,02	50,00
3304,76	141,00
3308,49	22,00
3312,22	149,00
3315,95	148,00
3319,67	59,00
3323,39	156,00
3327,10	124,00
3330,82	120,00
3334,53	45,00
3338,24	89,00
3341,94	-92,00
3345,64	129,00
3349,34	104,00
3353,03	62,00
3356,72	76,00
3360,41	76,00
3364,10	22,00
3367,78	36,00
3371,46	26,00
3375,13	19,00
3378,81	66,00
3382,48	153,00
3386,14	159,00
3389,81	81,00
3393,47	57,00
3397,12	67,00
3400,78	88,00
3404,43	4,00
3408,08	101,00
3411,72	84,00
3415,36	93,00
3419,00	71,00
3422,64	54,00
3426,27	13,00
3429,90	119,00
3433,53	102,00
3437,15	50,00
3440,77	118,00
3444,39	83,00
3448,00	104,00
3451,62	49,00
3455,22	24,00
3458,83	110,00
3462,43	45,00
3466,03	137,00
3469,63	26,00
3473,22	49,00
3476,81	-10,00
3480,40	-2,00
3483,99	32,00
3487,57	-36,00
3491,15	181,00
3494,72	101,00
3498,29	-53,00
3501,86	211,00
3505,43	100,00
3508,99	149,00
3512,56	12,00
3516,11	-22,00
3519,67	203,00
3523,22	102,00
3526,77	209,00
3530,32	45,00
3533,86	-66,00
3537,40	6,00
3540,94	20,00
3544,47	89,00
3548,00	108,00
3551,53	35,00
3555,06	133,00
3558,58	107,00
3562,10	72,00
3565,62	12,00
3569,13	180,00
3572,64	80,00
3576,15	24,00
3579,66	86,00
3583,16	55,00
3586,66	104,00
3590,16	-55,00
3593,65	77,00
3597,14	48,00
3600,63	45,00
3604,11	66,00
3607,60	41,00
3611,08	-73,00
3614,55	20,00
3618,03	52,00
3621,50	-102,00
3624,97	-1,00
3628,43	7,00
3631,90	117,00
3635,36	-24,00
3638,81	91,00
3642,27	-1,00
3645,72	111,00
3649,17	14,00
3652,61	113,00
3656,06	46,00
3659,50	-7,00
3662,93	99,00
3666,37	10,00
3669,80	-24,00
3673,23	-40,00
3676,65	4,00
3680,08	-21,00
3683,50	133,00
3686,92	149,00
3690,33	-61,00
3693,74	146,00
3697,15	-62,00
3700,56	60,00
3703,96	62,00
3707,36	-6,00
3710,76	-83,00
3714,16	-4,00
3717,55	83,00
3720,94	148,00
3724,33	-9,00
3727,71	88,00
3731,10	47,00
3734,48	12,00
3737,85	-89,00
3741,23	58,00
3744,60	141,00
3747,97	131,00
3751,33	41,00
3754,69	23,00
3758,05	61,00
3761,41	7,00
3764,77	95,00
3768,12	110,00
3771,47	5,00
3774,82	164,00
3778,16	-2,00
3781,50	1,00
3784,84	-3,00
3788,18	3,00
>>>>>End Processed Spectral Data<<<<<
