SpectraSuite Data File
++++++++++++++++++++++++++++++++++++
Date: Tue Mar 03 12:03:10 ICT 2026
User: user
Dark Spectrum Present: Yes
Reference Spectrum Present: No
Number of Sampled Component Spectra: 1
Spectrometers: MAYP113682
Integration Time (usec): 3000000 (MAYP113682)
Spectra Averaged: 1 (MAYP113682)
Boxcar Smoothing: 0 (MAYP113682)
Correct for Electrical Dark: No (MAYP113682)
Strobe/Lamp Enabled: No (MAYP113682)
Correct for Detector Non-linearity: No (MAYP113682)
Correct for Stray Light: No (MAYP113682)
Number of Pixels in Processed Spectrum: 2068
>>>>>Begin Processed Spectral Data<<<<<
-37534,58	13,00
-37414,56	2,00
-37295,11	-1,00
-37176,24	-8,00
-37057,95	-76,00
-36940,22	-54,00
-36823,05	13,00
-36706,45	-51,00
-36590,40	97,00
-36474,90	-36,00
-36359,95	9,00
-36245,55	-28,00
-36131,68	36,00
-36018,35	-33,00
-35905,55	1,00
-35793,29	-92,00
-35681,54	48,00
-35570,32	47,00
-35459,62	70,00
-35349,43	-72,00
-35239,75	35,00
-35130,58	187,00
-35021,91	30,00
-34913,74	-32,00
-34806,07	38,00
-34698,89	-33,00
-34592,20	17,00
-34486,00	-117,00
-34380,28	-137,00
-34275,04	59,00
-34170,27	4,00
-34065,98	-16,00
-33962,16	-8,00
-33858,81	-120,00
-33755,92	-5,00
-33653,49	-114,00
-33551,52	80,00
-33450,01	5,00
-33348,94	29,00
-33248,33	61,00
-33148,16	-38,00
-33048,43	204,00
-32949,14	-51,00
-32850,29	-85,00
-32751,87	-14,00
-32653,89	-36,00
-32556,33	8,00
-32459,20	14,00
-32362,49	-155,00
-32266,19	-67,00
-32170,32	-125,00
-32074,86	-59,00
-31979,82	-59,00
-31885,18	-103,00
-31790,95	41,00
-31697,12	-43,00
-31603,69	40,00
-31510,67	-112,00
-31418,04	20,00
-31325,80	68,00
-31233,95	-16,00
-31142,49	-26,00
-31051,42	-9,00
-30960,73	-28,00
-30870,43	2,00
-30780,50	-7,00
-30690,95	-15,00
-30601,77	17,00
-30512,97	0,00
-30424,53	6,00
-30336,46	67,00
-30248,76	-68,00
-30161,42	-42,00
-30074,44	-36,00
-29987,81	25,00
-29901,55	42,00
-29815,63	16,00
-29730,07	11,00
-29644,86	114,00
-29560,00	66,00
-29475,48	-12,00
-29391,30	-28,00
-29307,47	-4,00
-29223,97	-1,00
-29140,81	-60,00
-29057,99	-97,00
-28975,50	-40,00
-28893,34	2,00
-28811,51	55,00
-28730,00	-138,00
-28648,82	13,00
-28567,97	6,00
-28487,43	-21,00
-28407,21	54,00
-28327,32	89,00
-28247,73	-70,00
-28168,46	42,00
-28089,50	131,00
-28010,85	-171,00
-27932,51	-78,00
-27854,48	-4,00
-27776,75	-25,00
-27699,32	90,00
-27622,19	102,00
-27545,37	50,00
-27468,84	31,00
-27392,60	-32,00
-27316,66	86,00
-27241,01	102,00
-27165,66	76,00
-27090,59	-49,00
-27015,81	42,00
-26941,31	99,00
-26867,10	-58,00
-26793,17	142,00
-26719,52	43,00
-26646,15	42,00
-26573,06	103,00
-26500,24	-39,00
-26427,70	-70,00
-26355,43	-39,00
-26283,43	65,00
-26211,71	116,00
-26140,25	41,00
-26069,06	73,00
-25998,13	2,00
-25927,46	-4,00
-25857,06	28,00
-25786,92	15,00
-25717,04	-32,00
-25647,42	30,00
-25578,05	-90,00
-25508,94	161,00
-25440,09	-87,00
-25371,48	182,00
-25303,13	20,00
-25235,02	-9,00
-25167,17	12,00
-25099,56	-69,00
-25032,19	63,00
-24965,07	39,00
-24898,20	63,00
-24831,56	54,00
-24765,17	-79,00
-24699,01	138,00
-24633,10	84,00
-24567,41	68,00
-24501,97	26,00
-24436,75	-184,00
-24371,77	90,00
-24307,03	28,00
-24242,51	29,00
-24178,22	-23,00
-24114,16	6,00
-24050,32	52,00
-23986,71	117,00
-23923,32	86,00
-23860,16	-124,00
-23797,22	-53,00
-23734,50	7,00
-23672,00	56,00
-23609,71	99,00
-23547,65	-31,00
-23485,80	49,00
-23424,16	117,00
-23362,74	-2,00
-23301,53	45,00
-23240,54	16,00
-23179,75	-40,00
-23119,17	70,00
-23058,80	-43,00
-22998,64	-75,00
-22938,68	14,00
-22878,93	-6,00
-22819,39	-100,00
-22760,04	-32,00
-22700,90	72,00
-22641,96	38,00
-22583,22	-88,00
-22524,68	-10,00
-22466,33	-47,00
-22408,19	120,00
-22350,23	74,00
-22292,48	-159,00
-22234,92	-6,00
-22177,55	8,00
-22120,37	5,00
-22063,38	70,00
-22006,58	-60,00
-21949,98	-74,00
-21893,56	-36,00
-21837,33	-99,00
-21781,28	88,00
-21725,42	-12,00
-21669,74	-72,00
-21614,25	118,00
-21558,94	-9,00
-21503,81	-14,00
-21448,86	-24,00
-21394,10	130,00
-21339,51	70,00
-21285,10	43,00
-21230,86	-88,00
-21176,81	-61,00
-21122,93	-27,00
-21069,22	135,00
-21015,69	37,00
-20962,33	-24,00
-20909,14	32,00
-20856,13	-19,00
-20803,28	-34,00
-20750,61	-35,00
-20698,10	73,00
-20645,76	14,00
-20593,59	8,00
-20541,59	104,00
-20489,75	-26,00
-20438,07	105,00
-20386,56	20,00
-20335,22	-2,00
-20284,03	-98,00
-20233,01	7,00
-20182,15	-124,00
-20131,45	-29,00
-20080,91	-16,00
-20030,52	-54,00
-19980,30	142,00
-19930,23	28,00
-19880,32	81,00
-19830,56	122,00
-19780,96	-76,00
-19731,52	8,00
-19682,23	19,00
-19633,09	110,00
-19584,10	-23,00
-19535,26	-66,00
-19486,58	-18,00
-19438,04	11,00
-19389,66	14,00
-19341,42	87,00
-19293,33	-51,00
-19245,39	152,00
-19197,60	-44,00
-19149,95	135,00
-19102,45	-119,00
-19055,09	44,00
-19007,87	-74,00
-18960,80	-20,00
-18913,87	8,00
-18867,09	-46,00
-18820,44	62,00
-18773,94	48,00
-18727,57	-149,00
-18681,35	101,00
-18635,26	32,00
-18589,31	6,00
-18543,50	136,00
-18497,83	-11,00
-18452,29	48,00
-18406,89	-32,00
-18361,63	-56,00
-18316,50	-112,00
-18271,50	41,00
-18226,63	-16,00
-18181,90	72,00
-18137,30	-55,00
-18092,84	-42,00
-18048,50	-76,00
-18004,29	-47,00
-17960,22	-12,00
-17916,27	-18,00
-17872,45	-57,00
-17828,76	-20,00
-17785,20	138,00
-17741,77	-45,00
-17698,46	-103,00
-17655,28	-40,00
-17612,22	-126,00
-17569,29	-59,00
-17526,48	-18,00
-17483,79	-62,00
-17441,23	-125,00
-17398,79	-38,00
-17356,48	-132,00
-17314,28	-45,00
-17272,21	-30,00
-17230,26	78,00
-17188,42	-74,00
-17146,71	-91,00
-17105,12	142,00
-17063,64	-151,00
-17022,28	-24,00
-16981,04	12,00
-16939,92	5,00
-16898,91	-52,00
-16858,02	-84,00
-16817,25	113,00
-16776,59	0,00
-16736,04	-88,00
-16695,61	-18,00
-16655,29	70,00
-16615,09	-34,00
-16574,99	21,00
-16535,01	150,00
-16495,15	-4,00
-16455,39	-28,00
-16415,74	-42,00
-16376,21	-37,00
-16336,78	34,00
-16297,46	-79,00
-16258,26	12,00
-16219,16	-57,00
-16180,17	114,00
-16141,28	29,00
-16102,51	51,00
-16063,84	73,00
-16025,27	-17,00
-15986,82	25,00
-15948,46	147,00
-15910,22	37,00
-15872,07	-18,00
-15834,04	-116,00
-15796,10	-121,00
-15758,27	-47,00
-15720,54	41,00
-15682,91	-63,00
-15645,39	-53,00
-15607,97	36,00
-15570,64	-94,00
-15533,42	-108,00
-15496,30	16,00
-15459,28	32,00
-15422,36	12,00
-15385,54	-9,00
-15348,82	-98,00
-15312,19	54,00
-15275,66	-45,00
-15239,23	27,00
-15202,90	-15,00
-15166,67	-107,00
-15130,53	-90,00
-15094,48	17,00
-15058,54	-62,00
-15022,68	99,00
-14986,93	72,00
-14951,26	40,00
-14915,69	-135,00
-14880,22	-62,00
-14844,84	-115,00
-14809,55	22,00
-14774,35	2,00
-14739,25	22,00
-14704,24	82,00
-14669,32	-43,00
-14634,49	36,00
-14599,75	72,00
-14565,10	-57,00
-14530,55	78,00
-14496,08	-124,00
-14461,70	-9,00
-14427,41	35,00
-14393,21	-48,00
-14359,10	15,00
-14325,07	-76,00
-14291,14	95,00
-14257,29	112,00
-14223,52	4,00
-14189,85	-72,00
-14156,26	-3,00
-14122,76	85,00
-14089,34	2,00
-14056,01	-35,00
-14022,76	-76,00
-13989,60	0,00
-13956,52	-13,00
-13923,53	10,00
-13890,62	-94,00
-13857,79	-8,00
-13825,05	111,00
-13792,39	-16,00
-13759,81	73,00
-13727,31	104,00
-13694,90	24,00
-13662,57	-41,00
-13630,31	66,00
-13598,14	3,00
-13566,05	2,00
-13534,05	-36,00
-13502,12	-42,00
-13470,27	58,00
-13438,50	3,00
-13406,80	64,00
-13375,19	20,00
-13343,66	29,00
-13312,20	49,00
-13280,83	-28,00
-13249,53	-62,00
-13218,30	61,00
-13187,16	146,00
-13156,09	16,00
-13125,10	-74,00
-13094,18	-45,00
-13063,34	87,00
-13032,58	-26,00
-13001,89	-11,00
-12971,28	-115,00
-12940,74	7,00
-12910,27	50,00
-12879,88	-72,00
-12849,57	-75,00
-12819,33	46,00
-12789,16	-70,00
-12759,06	-18,00
-12729,04	26,00
-12699,09	1512,00
-12669,21	-56,00
-12639,41	-26,00
-12609,68	46,00
-12580,02	-25,00
-12550,43	112,00
-12520,91	-44,00
-12491,46	52,00
-12462,08	-16,00
-12432,77	-81,00
-12403,54	-117,00
-12374,37	31,00
-12345,27	5,00
-12316,24	-114,00
-12287,29	11,00
-12258,40	-22,00
-12229,57	101,00
-12200,82	-26,00
-12172,14	15,00
-12143,52	-101,00
-12114,97	37,00
-12086,49	24,00
-12058,07	66,00
-12029,73	83,00
-12001,44	-59,00
-11973,23	-34,00
-11945,08	24,00
-11917,00	-12,00
-11888,98	-51,00
-11861,03	-12,00
-11833,15	73,00
-11805,32	20,00
-11777,57	-67,00
-11749,88	144,00
-11722,25	124,00
-11694,69	-57,00
-11667,19	83,00
-11639,75	-30,00
-11612,38	-6,00
-11585,07	8,00
-11557,83	39,00
-11530,65	-125,00
-11503,53	-122,00
-11476,47	-19,00
-11449,48	-34,00
-11422,54	18,00
-11395,67	11,00
-11368,86	71,00
-11342,11	23,00
-11315,43	149,00
-11288,80	-104,00
-11262,23	-116,00
-11235,73	16,00
-11209,28	-60,00
-11182,90	-14,00
-11156,57	-100,00
-11130,31	-72,00
-11104,10	31,00
-11077,96	53,00
-11051,87	-61,00
-11025,84	8,00
-10999,87	65,00
-10973,96	-25,00
-10948,11	-8,00
-10922,31	9,00
-10896,58	89,00
-10870,90	-48,00
-10845,28	72,00
-10819,71	61,00
-10794,20	105,00
-10768,75	135,00
-10743,36	-21,00
-10718,02	125,00
-10692,74	89,00
-10667,52	139,00
-10642,35	84,00
-10617,24	129,00
-10592,18	245,00
-10567,18	171,00
-10542,23	232,00
-10517,34	136,00
-10492,51	154,00
-10467,72	89,00
-10443,00	159,00
-10418,32	189,00
-10393,70	272,00
-10369,14	258,00
-10344,63	172,00
-10320,17	188,00
-10295,77	241,00
-10271,42	264,00
-10247,12	349,00
-10222,88	228,00
-10198,68	313,00
-10174,54	325,00
-10150,46	496,00
-10126,42	366,00
-10102,44	389,00
-10078,51	378,00
-10054,63	519,00
-10030,80	612,00
-10007,03	598,00
-9983,30	644,00
-9959,63	698,00
-9936,01	736,00
-9912,44	817,00
-9888,92	882,00
-9865,44	822,00
-9842,02	913,00
-9818,65	908,00
-9795,33	896,00
-9772,06	973,00
-9748,84	976,00
-9725,67	1272,00
-9702,55	1396,00
-9679,47	1720,00
-9656,45	1756,00
-9633,47	1810,00
-9610,55	1963,00
-9587,67	1894,00
-9564,84	2095,00
-9542,06	2157,00
-9519,32	2610,00
-9496,64	2802,00
-9474,00	2995,00
-9451,41	3154,00
-9428,87	3195,00
-9406,37	2957,00
-9383,92	2655,00
-9361,52	2601,00
-9339,17	2624,00
-9316,86	2998,00
-9294,60	3269,00
-9272,38	3752,00
-9250,21	4102,00
-9228,09	3974,00
-9206,01	3805,00
-9183,98	3404,00
-9162,00	3044,00
-9140,06	2746,00
-9118,16	2869,00
-9096,31	3169,00
-9074,51	3132,00
-9052,75	3278,00
-9031,04	2940,00
-9009,37	2709,00
-8987,74	2424,00
-8966,16	2147,00
-8944,63	1832,00
-8923,14	1870,00
-8901,69	1867,00
-8880,29	2202,00
-8858,93	2344,00
-8837,61	2560,00
-8816,34	2785,00
-8795,11	2808,00
-8773,92	2503,00
-8752,78	2167,00
-8731,68	2209,00
-8710,62	2194,00
-8689,61	2471,00
-8668,63	2494,00
-8647,70	2619,00
-8626,82	2685,00
-8605,97	2490,00
-8585,17	2401,00
-8564,41	2185,00
-8543,69	1798,00
-8523,01	1857,00
-8502,37	1992,00
-8481,78	2055,00
-8461,23	2195,00
-8440,71	2356,00
-8420,24	2587,00
-8399,81	2467,00
-8379,42	2393,00
-8359,08	2378,00
-8338,77	1884,00
-8318,50	1996,00
-8298,27	1840,00
-8278,09	1919,00
-8257,94	2089,00
-8237,83	2348,00
-8217,76	2537,00
-8197,74	2282,00
-8177,75	2293,00
-8157,80	2141,00
-8137,89	1900,00
-8118,02	1894,00
-8098,19	1955,00
-8078,40	1836,00
-8058,65	2127,00
-8038,93	2081,00
-8019,26	2216,00
-7999,62	2145,00
-7980,02	1797,00
-7960,46	1798,00
-7940,94	1739,00
-7921,46	1768,00
-7902,01	1547,00
-7882,60	1710,00
-7863,23	1801,00
-7843,90	1874,00
-7824,61	2020,00
-7805,35	2061,00
-7786,13	1883,00
-7766,95	1897,00
-7747,80	1897,00
-7728,69	1890,00
-7709,62	1716,00
-7690,59	2099,00
-7671,59	2077,00
-7652,63	2155,00
-7633,70	2179,00
-7614,81	1975,00
-7595,96	1889,00
-7577,15	1692,00
-7558,37	1833,00
-7539,62	1812,00
-7520,91	1913,00
-7502,24	2044,00
-7483,60	2154,00
-7465,00	1836,00
-7446,44	1734,00
-7427,91	1512,00
-7409,41	1243,00
-7390,95	1186,00
-7372,53	1250,00
-7354,14	1188,00
-7335,78	1233,00
-7317,46	1263,00
-7299,18	1440,00
-7280,92	1700,00
-7262,71	2017,00
-7244,52	2103,00
-7226,38	2109,00
-7208,26	1949,00
-7190,18	1859,00
-7172,14	1814,00
-7154,12	1858,00
-7136,15	1630,00
-7118,20	1824,00
-7100,29	2018,00
-7082,41	1882,00
-7064,57	1957,00
-7046,76	1704,00
-7028,98	1554,00
-7011,24	1363,00
-6993,53	1320,00
-6975,85	991,00
-6958,20	866,00
-6940,59	922,00
-6923,01	987,00
-6905,46	1065,00
-6887,94	1423,00
-6870,46	4322,00
-6853,01	1758,00
-6835,59	1827,00
-6818,21	1447,00
-6800,85	1282,00
-6783,53	927,00
-6766,24	936,00
-6748,98	749,00
-6731,76	681,00
-6714,56	715,00
-6697,40	748,00
-6680,26	759,00
-6663,16	916,00
-6646,09	1117,00
-6629,05	1180,00
-6612,05	1439,00
-6595,07	1400,00
-6578,13	1337,00
-6561,21	1155,00
-6544,33	737,00
-6527,47	683,00
-6510,65	688,00
-6493,86	572,00
-6477,10	616,00
-6460,36	626,00
-6443,66	718,00
-6426,99	544,00
-6410,35	553,00
-6393,74	783,00
-6377,16	720,00
-6360,61	908,00
-6344,09	1000,00
-6327,59	936,00
-6311,13	898,00
-6294,70	996,00
-6278,29	1160,00
-6261,92	1380,00
-6245,58	1461,00
-6229,26	1385,00
-6212,97	1111,00
-6196,72	924,00
-6180,49	668,00
-6164,29	385,00
-6148,12	226,00
-6131,98	319,00
-6115,86	314,00
-6099,78	236,00
-6083,72	354,00
-6067,69	263,00
-6051,69	216,00
-6035,72	198,00
-6019,78	481,00
-6003,87	705,00
-5987,98	810,00
-5972,12	1035,00
-5956,29	1035,00
-5940,49	828,00
-5924,71	802,00
-5908,96	529,00
-5893,24	299,00
-5877,55	284,00
-5861,89	399,00
-5846,25	319,00
-5830,64	486,00
-5815,05	439,00
-5799,50	584,00
-5783,97	359,00
-5768,47	544,00
-5752,99	788,00
-5737,55	983,00
-5722,12	967,00
-5706,73	863,00
-5691,36	670,00
-5676,02	579,00
-5660,71	327,00
-5645,42	407,00
-5630,16	483,00
-5614,92	605,00
-5599,71	789,00
-5584,53	717,00
-5569,37	739,00
-5554,24	662,00
-5539,14	537,00
-5524,06	457,00
-5509,01	547,00
-5493,98	572,00
-5478,98	643,00
-5464,00	524,00
-5449,05	636,00
-5434,13	448,00
-5419,23	476,00
-5404,36	513,00
-5389,51	685,00
-5374,69	839,00
-5359,89	1029,00
-5345,12	1015,00
-5330,37	916,00
-5315,65	779,00
-5300,95	561,00
-5286,28	516,00
-5271,63	570,00
-5257,01	456,00
-5242,41	431,00
-5227,84	504,00
-5213,29	387,00
-5198,76	230,00
-5184,26	189,00
-5169,79	404,00
-5155,33	443,00
-5140,91	637,00
-5126,51	679,00
-5112,13	587,00
-5097,77	400,00
-5083,44	571,00
-5069,13	386,00
-5054,85	368,00
-5040,59	429,00
-5026,36	584,00
-5012,15	664,00
-4997,96	425,00
-4983,80	524,00
-4969,66	380,00
-4955,54	353,00
-4941,44	453,00
-4927,37	653,00
-4913,33	962,00
-4899,30	1033,00
-4885,30	896,00
-4871,33	630,00
-4857,37	334,00
-4843,44	212,00
-4829,53	287,00
-4815,65	324,00
-4801,79	537,00
-4787,95	343,00
-4774,13	330,00
-4760,34	278,00
-4746,56	250,00
-4732,82	194,00
-4719,09	391,00
-4705,38	696,00
-4691,70	840,00
-4678,04	817,00
-4664,41	650,00
-4650,79	337,00
-4637,20	308,00
-4623,63	400,00
-4610,08	447,00
-4596,56	499,00
-4583,05	692,00
-4569,57	488,00
-4556,11	316,00
-4542,67	167,00
-4529,25	211,00
-4515,86	538,00
-4502,49	737,00
-4489,13	677,00
-4475,80	664,00
-4462,49	403,00
-4449,21	497,00
-4435,94	310,00
-4422,70	344,00
-4409,47	520,00
-4396,27	416,00
-4383,09	508,00
-4369,93	193,00
-4356,79	252,00
-4343,67	108,00
-4330,58	195,00
-4317,50	417,00
-4304,45	309,00
-4291,41	296,00
-4278,40	174,00
-4265,41	269,00
-4252,44	231,00
-4239,49	351,00
-4226,55	345,00
-4213,65	357,00
-4200,76	187,00
-4187,89	155,00
-4175,04	171,00
-4162,21	219,00
-4149,40	105,00
-4136,61	51,00
-4123,85	100,00
-4111,10	65,00
-4098,37	193,00
-4085,66	235,00
-4072,98	-82,00
-4060,31	123,00
-4047,66	106,00
-4035,04	26,00
-4022,43	207,00
-4009,84	232,00
-3997,27	114,00
-3984,72	-62,00
-3972,19	116,00
-3959,69	57,00
-3947,20	57,00
-3934,73	4,00
-3922,27	74,00
-3909,84	-65,00
-3897,43	160,00
-3885,04	-139,00
-3872,67	78,00
-3860,31	54,00
-3847,98	21,00
-3835,66	80,00
-3823,36	-43,00
-3811,09	-27,00
-3798,83	40,00
-3786,59	-93,00
-3774,37	44,00
-3762,17	-110,00
-3749,98	148,00
-3737,82	112,00
-3725,67	82,00
-3713,55	4,00
-3701,44	-63,00
-3689,35	50,00
-3677,28	-66,00
-3665,22	-12,00
-3653,19	-73,00
-3641,17	51,00
-3629,18	29,00
-3617,20	-76,00
-3605,24	47,00
-3593,30	-13,00
-3581,37	94,00
-3569,47	-89,00
-3557,58	94,00
-3545,71	27,00
-3533,86	-23,00
-3522,02	-22,00
-3510,21	19,00
-3498,41	-7,00
-3486,63	-14,00
-3474,87	75,00
-3463,12	54,00
-3451,40	-38,00
-3439,69	148,00
-3428,00	13,00
-3416,33	-32,00
-3404,67	-20,00
-3393,03	-96,00
-3381,41	27,00
-3369,81	153,00
-3358,22	56,00
-3346,66	15,00
-3335,10	-103,00
-3323,57	-104,00
-3312,06	-161,00
-3300,56	56,00
-3289,08	-1,00
-3277,61	20,00
-3266,16	28,00
-3254,73	-120,00
-3243,32	29,00
-3231,92	6,00
-3220,55	-130,00
-3209,18	64,00
-3197,84	-16,00
-3186,51	-38,00
-3175,20	13,00
-3163,90	-114,00
-3152,63	45,00
-3141,36	-57,00
-3130,12	-90,00
-3118,89	-82,00
-3107,68	94,00
-3096,49	106,00
-3085,31	6,00
-3074,15	1,00
-3063,00	135,00
-3051,87	-99,00
-3040,76	101,00
-3029,67	-31,00
-3018,59	-15,00
-3007,52	-68,00
-2996,48	124,00
-2985,44	148,00
-2974,43	55,00
-2963,43	-32,00
-2952,45	-52,00
-2941,48	39,00
-2930,53	41,00
-2919,60	-59,00
-2908,68	63,00
-2897,78	-72,00
-2886,89	26,00
-2876,02	27,00
-2865,17	-5,00
-2854,33	-26,00
-2843,50	122,00
-2832,70	-68,00
-2821,90	-153,00
-2811,13	-147,00
-2800,37	27,00
-2789,62	-41,00
-2778,89	65,00
-2768,18	37,00
-2757,48	20,00
-2746,80	-18,00
-2736,13	-70,00
-2725,48	-28,00
-2714,84	-50,00
-2704,22	142,00
-2693,61	-31,00
-2683,02	38,00
-2672,45	11,00
-2661,89	-55,00
-2651,34	-100,00
-2640,81	-112,00
-2630,30	88,00
-2619,80	15,00
-2609,31	-40,00
-2598,84	-43,00
-2588,39	-127,00
-2577,95	-80,00
-2567,52	27,00
-2557,11	40,00
-2546,71	23,00
-2536,33	-85,00
-2525,97	-12,00
-2515,62	-8,00
-2505,28	-26,00
-2494,96	76,00
-2484,65	13,00
-2474,36	-55,00
-2464,08	-101,00
-2453,82	17,00
-2443,57	49,00
-2433,33	49,00
-2423,11	38,00
-2412,91	-5,00
-2402,72	-55,00
-2392,54	-14,00
-2382,38	14,00
-2372,23	19,00
-2362,09	-4915,00
-2351,97	-1,00
-2341,87	-12,00
-2331,78	-48,00
-2321,70	-125,00
-2311,64	67,00
-2301,59	111,00
-2291,55	39,00
-2281,53	114,00
-2271,53	14,00
-2261,53	-92,00
-2251,55	47,00
-2241,59	-91,00
-2231,64	-26,00
-2221,70	-92,00
-2211,78	-60,00
-2201,87	72,00
-2191,97	9,00
-2182,09	61,00
-2172,22	-112,00
-2162,37	29,00
-2152,53	1,00
-2142,70	28,00
-2132,89	-59,00
-2123,09	-2,00
-2113,30	61,00
-2103,53	-79,00
-2093,77	-77,00
-2084,02	40,00
-2074,29	233,00
-2064,57	18,00
-2054,86	47,00
-2045,17	72,00
-2035,49	23,00
-2025,82	43,00
-2016,17	170,00
-2006,53	-20,00
-1996,91	102,00
-1987,29	52,00
-1977,69	-58,00
-1968,11	-138,00
-1958,53	40,00
-1948,97	64,00
-1939,42	67,00
-1929,89	10,00
-1920,37	-22,00
-1910,86	-30,00
-1901,36	-115,00
-1891,88	-11,00
-1882,41	-76,00
-1872,95	-38,00
-1863,51	-20,00
-1854,08	-85,00
-1844,66	-109,00
-1835,26	-68,00
-1825,86	2,00
-1816,48	25,00
-1807,11	14,00
-1797,76	18,00
-1788,42	150,00
-1779,09	-21,00
-1769,77	-3,00
-1760,47	-33,00
-1751,17	-29,00
-1741,89	-72,00
-1732,63	-28,00
-1723,37	-65,00
-1714,13	-35,00
-1704,90	112,00
-1695,68	24,00
-1686,48	37,00
-1677,29	31,00
-1668,11	44,00
-1658,94	-81,00
-1649,78	-200,00
-1640,64	68,00
-1631,51	41,00
-1622,39	40,00
-1613,28	-183,00
-1604,19	21,00
-1595,10	60,00
-1586,03	-32,00
-1576,97	-201,00
-1567,93	-57,00
-1558,89	12,00
-1549,87	-38,00
-1540,86	16,00
-1531,86	118,00
-1522,87	8,00
-1513,90	-58,00
-1504,93	3,00
-1495,98	-4,00
-1487,04	3,00
-1478,12	46,00
-1469,20	-37,00
-1460,30	50,00
-1451,40	74,00
-1442,52	85,00
-1433,65	44,00
-1424,80	-16,00
-1415,95	66,00
-1407,12	10,00
-1398,30	-40,00
-1389,48	-124,00
-1380,69	-31,00
-1371,90	-17,00
-1363,12	14,00
-1354,36	17,00
-1345,60	-55,00
-1336,86	64,00
-1328,13	37,00
-1319,41	-5,00
-1310,70	75,00
-1302,01	28,00
-1293,32	42,00
-1284,65	45,00
-1275,99	43,00
-1267,33	-13,00
-1258,69	-1,00
-1250,06	-35,00
-1241,45	-100,00
-1232,84	-63,00
-1224,25	72,00
-1215,66	-33,00
-1207,09	22,00
-1198,53	-4,00
-1189,97	-33,00
-1181,43	32,00
-1172,91	-232,00
-1164,39	59,00
-1155,88	30,00
-1147,38	-56,00
-1138,90	-176,00
-1130,43	-20,00
-1121,96	-32,00
-1113,51	-100,00
-1105,07	33,00
-1096,64	89,00
-1088,22	-2,00
-1079,81	-60,00
-1071,41	53,00
-1063,02	238,00
-1054,65	113,00
-1046,28	-31,00
-1037,92	39,00
-1029,58	-21,00
-1021,24	-32,00
-1012,92	-116,00
-1004,61	-28,00
-996,30	-142,00
-988,01	36,00
-979,73	-50,00
-971,46	12,00
-963,20	44,00
-954,95	16,00
-946,71	12,00
-938,48	115,00
-930,26	-66,00
-922,06	12,00
-913,86	151,00
-905,67	55,00
-897,49	-18,00
-889,33	-58,00
-881,17	-3,00
-873,02	-1,00
-864,89	25,00
-856,76	54,00
-848,65	50,00
-840,54	-130,00
-832,45	60,00
-824,36	-97,00
-816,29	-112,00
-808,22	54,00
-800,17	15,00
-792,12	-109,00
-784,09	58,00
-776,06	68,00
-768,05	-102,00
-760,04	-6,00
-752,05	57,00
-744,07	27,00
-736,09	196,00
-728,13	-48,00
-720,17	30,00
-712,23	11,00
-704,29	16,00
-696,37	-100,00
-688,45	63,00
-680,55	133,00
-672,65	-7,00
-664,77	56,00
-656,89	131,00
-649,03	169,00
-641,17	-63,00
-633,32	20,00
-625,49	64,00
-617,66	29,00
-609,84	-5,00
-602,03	-115,00
-594,23	8,00
-586,45	56,00
-578,67	-68,00
-570,90	-149,00
-563,14	13,00
-555,39	-36,00
-547,65	13,00
-539,91	59,00
-532,19	-9,00
-524,48	-11,00
-516,78	80,00
-509,08	-60,00
-501,40	38,00
-493,72	-14,00
-486,06	-2,00
-478,40	-55,00
-470,76	117,00
-463,12	-2,00
-455,49	-15,00
-447,87	151,00
-440,26	97,00
-432,66	36,00
-425,07	37,00
-417,49	13,00
-409,92	-29,00
-402,35	88,00
-394,80	-41,00
-387,25	-3,00
-379,72	-58,00
-372,19	136,00
-364,67	36,00
-357,17	100,00
-349,67	-42,00
-342,18	96,00
-334,69	54,00
-327,22	128,00
-319,76	-10,00
-312,30	100,00
-304,86	21,00
-297,42	80,00
-290,00	160,00
-282,58	53,00
-275,17	43,00
-267,77	-10,00
-260,37	10,00
-252,99	-70,00
-245,62	174,00
-238,25	112,00
-230,90	203,00
-223,55	89,00
-216,21	100,00
-208,88	248,00
-201,56	189,00
-194,25	307,00
-186,94	217,00
-179,65	144,00
-172,36	397,00
-165,08	348,00
-157,81	379,00
-150,55	305,00
-143,30	376,00
-136,06	333,00
-128,82	399,00
-121,60	446,00
-114,38	376,00
-107,17	620,00
-99,97	744,00
-92,78	744,00
-85,60	901,00
-78,42	1037,00
-71,25	1265,00
-64,10	1212,00
-56,95	1633,00
-49,81	2081,00
-42,67	2347,00
-35,55	3234,00
-28,43	4000,00
-21,33	7069,00
-14,23	25037,00
-7,14	54235,00
-0,05	53890,00
7,02	53525,00
14,09	53899,00
21,14	17787,00
28,19	7701,00
35,23	4983,00
42,27	3669,00
49,29	3145,00
56,31	2681,00
63,32	2342,00
70,32	1748,00
77,31	1457,00
84,29	1384,00
91,27	1247,00
98,23	1037,00
105,19	1012,00
112,14	1298,00
119,09	2016,00
126,02	3315,00
132,95	4083,00
139,87	4158,00
146,78	4124,00
153,68	4046,00
160,58	4086,00
167,46	4006,00
174,34	3898,00
181,21	3874,00
188,08	4000,00
194,93	3886,00
201,78	3854,00
208,62	3836,00
215,45	3863,00
222,27	3861,00
229,09	3839,00
235,90	3905,00
242,70	3828,00
249,49	3759,00
256,27	3634,00
263,05	3667,00
269,82	3809,00
276,58	3768,00
283,33	3533,00
290,08	3721,00
296,82	3602,00
303,55	3547,00
310,27	3524,00
316,98	3413,00
323,69	3294,00
330,39	3387,00
337,08	3348,00
343,76	3348,00
350,44	3435,00
357,11	3357,00
363,77	3235,00
370,42	3142,00
377,07	3281,00
383,71	3215,00
390,34	3151,00
396,96	3361,00
403,58	3292,00
410,19	3290,00
416,79	3208,00
423,38	3343,00
429,97	3160,00
436,55	3092,00
443,12	3026,00
449,68	2988,00
456,24	3055,00
462,79	3027,00
469,33	2983,00
475,86	2831,00
482,39	2853,00
488,91	2967,00
495,42	2852,00
501,93	2725,00
508,42	2676,00
514,91	2664,00
521,40	2695,00
527,87	2662,00
534,34	2731,00
540,80	2694,00
547,25	2673,00
553,70	2692,00
560,14	2569,00
566,57	2652,00
573,00	2499,00
579,41	2521,00
585,83	2478,00
592,23	2603,00
598,62	2445,00
605,01	2474,00
611,40	2351,00
617,77	2409,00
624,14	2443,00
630,50	2393,00
636,85	2367,00
643,20	2278,00
649,54	2278,00
655,87	2294,00
662,20	2199,00
668,52	2411,00
674,83	2216,00
681,13	2294,00
687,43	2378,00
693,72	2182,00
700,00	2316,00
706,28	2260,00
712,55	2029,00
718,81	2259,00
725,07	2178,00
731,32	2161,00
737,56	2226,00
743,79	2202,00
750,02	2084,00
756,24	2056,00
762,46	2196,00
768,67	2030,00
774,87	2131,00
781,06	2062,00
787,25	1996,00
793,43	2098,00
799,60	2036,00
805,77	1913,00
811,93	2075,00
818,08	2060,00
824,23	2248,00
830,37	2018,00
836,50	2002,00
842,63	1952,00
848,75	2017,00
854,87	1962,00
860,97	1951,00
867,07	2011,00
873,17	1888,00
879,25	1952,00
885,33	1903,00
891,41	2030,00
897,47	1932,00
903,53	1691,00
909,59	1774,00
915,63	1848,00
921,67	1844,00
927,71	1744,00
933,74	1900,00
939,76	1596,00
945,77	1864,00
951,78	1730,00
957,78	1844,00
963,78	1767,00
969,77	1803,00
975,75	1796,00
981,72	1819,00
987,69	1644,00
993,66	1771,00
999,61	1648,00
1005,56	1613,00
1011,51	1712,00
1017,44	1725,00
1023,37	1702,00
1029,30	1808,00
1035,22	1767,00
1041,13	1715,00
1047,03	1752,00
1052,93	1972,00
1058,83	2031,00
1064,71	2185,00
1070,59	1982,00
1076,47	1965,00
1082,33	1782,00
1088,20	1749,00
1094,05	1800,00
1099,90	1728,00
1105,74	1722,00
1111,58	1613,00
1117,41	1638,00
1123,23	1814,00
1129,05	1997,00
1134,86	2011,00
1140,67	1720,00
1146,47	1596,00
1152,26	1646,00
1158,05	1691,00
1163,83	1641,00
1169,60	1580,00
1175,37	1646,00
1181,13	1724,00
1186,89	1521,00
1192,64	1665,00
1198,38	1552,00
1204,12	1655,00
1209,85	1568,00
1215,58	1470,00
1221,30	1611,00
1227,02	1423,00
1232,72	1527,00
1238,43	1510,00
1244,12	1659,00
1249,81	1577,00
1255,50	1555,00
1261,17	1678,00
1266,85	1576,00
1272,51	1773,00
1278,17	1643,00
1283,83	1662,00
1289,47	2001,00
1295,12	2315,00
1300,75	2262,00
1306,38	2004,00
1312,01	1983,00
1317,63	1766,00
1323,24	1916,00
1328,85	1634,00
1334,45	1661,00
1340,04	1558,00
1345,63	1655,00
1351,22	1601,00
1356,80	1644,00
1362,37	1801,00
1367,93	1622,00
1373,49	1910,00
1379,05	1741,00
1384,60	1681,00
1390,14	1594,00
1395,68	1695,00
1401,21	1672,00
1406,74	1630,00
1412,26	1794,00
1417,77	1854,00
1423,28	1874,00
1428,78	1990,00
1434,28	2250,00
1439,77	2331,00
1445,26	2523,00
1450,74	2259,00
1456,22	2156,00
1461,68	2039,00
1467,15	1978,00
1472,61	1909,00
1478,06	1701,00
1483,51	1548,00
1488,95	1547,00
1494,38	1608,00
1499,81	1545,00
1505,24	1537,00
1510,65	1555,00
1516,07	1639,00
1521,48	1491,00
1526,88	1359,00
1532,27	1377,00
1537,67	1383,00
1543,05	1428,00
1548,43	1396,00
1553,81	1339,00
1559,18	1266,00
1564,54	1306,00
1569,90	1370,00
1575,25	1322,00
1580,60	1237,00
1585,94	1378,00
1591,28	1375,00
1596,61	1322,00
1601,93	1334,00
1607,25	1492,00
1612,57	1193,00
1617,88	1405,00
1623,18	1316,00
1628,48	1173,00
1633,77	1298,00
1639,06	1381,00
1644,34	1280,00
1649,62	1286,00
1654,89	1245,00
1660,16	1191,00
1665,42	1263,00
1670,67	1076,00
1675,92	1277,00
1681,17	1106,00
1686,41	1104,00
1691,64	1085,00
1696,87	1108,00
1702,10	1135,00
1707,32	1122,00
1712,53	1178,00
1717,74	1117,00
1722,94	1167,00
1728,14	1042,00
1733,33	1042,00
1738,52	1024,00
1743,70	942,00
1748,88	1072,00
1754,05	1028,00
1759,22	993,00
1764,38	1006,00
1769,53	980,00
1774,69	1126,00
1779,83	1045,00
1784,97	938,00
1790,11	1044,00
1795,24	914,00
1800,36	858,00
1805,48	889,00
1810,60	998,00
1815,71	945,00
1820,82	793,00
1825,92	876,00
1831,01	864,00
1836,10	949,00
1841,19	880,00
1846,26	952,00
1851,34	922,00
1856,41	848,00
1861,47	912,00
1866,53	943,00
1871,59	845,00
1876,64	904,00
1881,68	924,00
1886,72	729,00
1891,76	962,00
1896,79	879,00
1901,81	883,00
1906,83	852,00
1911,85	816,00
1916,86	755,00
1921,86	802,00
1926,86	747,00
1931,86	786,00
1936,85	644,00
1941,83	832,00
1946,81	853,00
1951,79	785,00
1956,76	702,00
1961,72	820,00
1966,68	647,00
1971,64	731,00
1976,59	678,00
1981,54	633,00
1986,48	628,00
1991,42	686,00
1996,35	446,00
2001,27	666,00
2006,20	657,00
2011,11	554,00
2016,03	702,00
2020,93	599,00
2025,84	662,00
2030,73	608,00
2035,63	497,00
2040,52	568,00
2045,40	833,00
2050,28	575,00
2055,15	675,00
2060,02	619,00
2064,89	596,00
2069,75	502,00
2074,60	652,00
2079,46	653,00
2084,30	489,00
2089,14	617,00
2093,98	670,00
2098,81	657,00
2103,64	529,00
2108,46	570,00
2113,28	531,00
2118,09	500,00
2122,90	594,00
2127,70	556,00
2132,50	488,00
2137,30	471,00
2142,09	520,00
2146,87	446,00
2151,66	701,00
2156,43	606,00
2161,20	611,00
2165,97	384,00
2170,73	543,00
2175,49	748,00
2180,24	458,00
2184,99	500,00
2189,74	596,00
2194,48	473,00
2199,21	450,00
2203,94	467,00
2208,67	599,00
2213,39	396,00
2218,11	469,00
2222,82	500,00
2227,53	522,00
2232,23	528,00
2236,93	483,00
2241,63	411,00
2246,32	426,00
2251,00	467,00
2255,68	433,00
2260,36	425,00
2265,03	417,00
2269,70	415,00
2274,36	555,00
2279,02	391,00
2283,68	360,00
2288,33	416,00
2292,97	314,00
2297,61	374,00
2302,25	370,00
2306,88	536,00
2311,51	421,00
2316,14	387,00
2320,75	453,00
2325,37	319,00
2329,98	436,00
2334,59	367,00
2339,19	471,00
2343,79	349,00
2348,38	398,00
2352,97	390,00
2357,55	407,00
2362,13	369,00
2366,71	424,00
2371,28	344,00
2375,85	362,00
2380,41	297,00
2384,97	252,00
2389,52	364,00
2394,07	320,00
2398,62	325,00
2403,16	328,00
2407,70	330,00
2412,23	190,00
2416,76	418,00
2421,29	347,00
2425,81	265,00
2430,32	335,00
2434,84	334,00
2439,34	301,00
2443,85	464,00
2448,35	260,00
2452,84	247,00
2457,33	295,00
2461,82	279,00
2466,30	129,00
2470,78	413,00
2475,25	172,00
2479,72	345,00
2484,19	280,00
2488,65	347,00
2493,11	267,00
2497,56	338,00
2502,01	290,00
2506,46	244,00
2510,90	306,00
2515,34	321,00
2519,77	236,00
2524,20	266,00
2528,62	339,00
2533,04	297,00
2537,46	188,00
2541,87	219,00
2546,28	219,00
2550,68	276,00
2555,08	191,00
2559,48	260,00
2563,87	235,00
2568,26	328,00
2572,64	411,00
2577,02	180,00
2581,40	209,00
2585,77	177,00
2590,14	219,00
2594,50	232,00
2598,86	147,00
2603,22	236,00
2607,57	280,00
2611,92	216,00
2616,26	189,00
2620,60	252,00
2624,94	249,00
2629,27	176,00
2633,60	268,00
2637,92	164,00
2642,24	348,00
2646,56	188,00
2650,87	323,00
2655,18	217,00
2659,48	132,00
2663,78	363,00
2668,08	328,00
2672,37	198,00
2676,66	153,00
2680,95	242,00
2685,23	372,00
2689,50	326,00
2693,78	255,00
2698,05	368,00
2702,31	365,00
2706,57	275,00
2710,83	267,00
2715,08	345,00
2719,33	269,00
2723,58	396,00
2727,82	160,00
2732,06	231,00
2736,29	388,00
2740,53	363,00
2744,75	320,00
2748,97	332,00
2753,19	266,00
2757,41	191,00
2761,62	207,00
2765,83	338,00
2770,03	249,00
2774,23	290,00
2778,43	224,00
2782,62	243,00
2786,81	276,00
2791,00	294,00
2795,18	248,00
2799,35	348,00
2803,53	350,00
2807,70	119,00
2811,86	269,00
2816,03	454,00
2820,19	260,00
2824,34	348,00
2828,49	537,00
2832,64	504,00
2836,78	617,00
2840,92	791,00
2845,06	928,00
2849,19	1046,00
2853,32	1140,00
2857,45	1053,00
2861,57	1046,00
2865,69	1238,00
2869,80	1111,00
2873,91	1025,00
2878,02	1236,00
2882,12	1188,00
2886,22	1227,00
2890,32	1104,00
2894,41	1024,00
2898,50	1062,00
2902,58	860,00
2906,67	841,00
2910,74	821,00
2914,82	943,00
2918,89	699,00
2922,96	757,00
2927,02	654,00
2931,08	541,00
2935,13	562,00
2939,19	535,00
2943,24	488,00
2947,28	342,00
2951,32	394,00
2955,36	458,00
2959,40	203,00
2963,43	372,00
2967,46	245,00
2971,48	254,00
2975,50	204,00
2979,52	319,00
2983,53	328,00
2987,54	251,00
2991,55	131,00
2995,55	261,00
2999,55	191,00
3003,54	147,00
3007,54	-7,00
3011,53	194,00
3015,51	121,00
3019,49	267,00
3023,47	137,00
3027,45	304,00
3031,42	80,00
3035,39	144,00
3039,35	147,00
3043,31	44,00
3047,27	226,00
3051,22	48,00
3055,17	174,00
3059,12	129,00
3063,06	138,00
3067,00	84,00
3070,94	254,00
3074,87	144,00
3078,80	92,00
3082,73	110,00
3086,65	103,00
3090,57	71,00
3094,49	100,00
3098,40	243,00
3102,31	-22,00
3106,22	67,00
3110,12	73,00
3114,02	118,00
3117,92	184,00
3121,81	-45,00
3125,70	-103,00
3129,58	32,00
3133,47	91,00
3137,34	49,00
3141,22	139,00
3145,09	96,00
3148,96	7,00
3152,83	122,00
3156,69	8,00
3160,55	1,00
3164,40	6,00
3168,26	16,00
3172,10	147,00
3175,95	-52,00
3179,79	-20,00
3183,63	16,00
3187,47	51,00
3191,30	100,00
3195,13	85,00
3198,95	157,00
3202,78	-44,00
3206,60	28,00
3210,41	159,00
3214,23	112,00
3218,03	128,00
3221,84	64,00
3225,64	-32,00
3229,44	26,00
3233,24	101,00
3237,03	-13,00
3240,82	32,00
3244,61	48,00
3248,39	65,00
3252,17	108,00
3255,95	96,00
3259,72	65,00
3263,49	23,00
3267,26	218,00
3271,03	109,00
3274,79	55,00
3278,54	116,00
3282,30	66,00
3286,05	67,00
3289,80	-24,00
3293,54	82,00
3297,29	-6,00
3301,02	6,00
3304,76	14,00
3308,49	38,00
3312,22	3,00
3315,95	-84,00
3319,67	-4,00
3323,39	-35,00
3327,10	16,00
3330,82	41,00
3334,53	-25,00
3338,24	-26,00
3341,94	3,00
3345,64	102,00
3349,34	27,00
3353,03	124,00
3356,72	-13,00
3360,41	-5,00
3364,10	40,00
3367,78	46,00
3371,46	17,00
3375,13	90,00
3378,81	58,00
3382,48	28,00
3386,14	125,00
3389,81	74,00
3393,47	-105,00
3397,12	-38,00
3400,78	93,00
3404,43	101,00
3408,08	-13,00
3411,72	61,00
3415,36	52,00
3419,00	-125,00
3422,64	118,00
3426,27	5,00
3429,90	40,00
3433,53	108,00
3437,15	-86,00
3440,77	173,00
3444,39	-71,00
3448,00	-66,00
3451,62	46,00
3455,22	32,00
3458,83	110,00
3462,43	84,00
3466,03	66,00
3469,63	92,00
3473,22	76,00
3476,81	56,00
3480,40	-82,00
3483,99	-58,00
3487,57	-41,00
3491,15	89,00
3494,72	-65,00
3498,29	-22,00
3501,86	70,00
3505,43	142,00
3508,99	153,00
3512,56	12,00
3516,11	-17,00
3519,67	-27,00
3523,22	3,00
3526,77	-41,00
3530,32	65,00
3533,86	109,00
3537,40	22,00
3540,94	-17,00
3544,47	-5,00
3548,00	-56,00
3551,53	-25,00
3555,06	35,00
3558,58	-50,00
3562,10	3,00
3565,62	38,00
3569,13	-86,00
3572,64	-52,00
3576,15	-11,00
3579,66	4,00
3583,16	47,00
3586,66	3,00
3590,16	6,00
3593,65	8,00
3597,14	56,00
3600,63	-67,00
3604,11	-84,00
3607,60	98,00
3611,08	116,00
3614,55	104,00
3618,03	67,00
3621,50	32,00
3624,97	-115,00
3628,43	75,00
3631,90	-86,00
3635,36	21,00
3638,81	10,00
3642,27	75,00
3645,72	-1,00
3649,17	-123,00
3652,61	13,00
3656,06	-25,00
3659,50	-6,00
3662,93	13,00
3666,37	88,00
3669,80	170,00
3673,23	9,00
3676,65	128,00
3680,08	-28,00
3683,50	-92,00
3686,92	68,00
3690,33	-5,00
3693,74	-46,00
3697,15	-23,00
3700,56	-105,00
3703,96	-15,00
3707,36	-26,00
3710,76	-84,00
3714,16	-30,00
3717,55	104,00
3720,94	-26,00
3724,33	8,00
3727,71	43,00
3731,10	39,00
3734,48	45,00
3737,85	-13,00
3741,23	-5,00
3744,60	49,00
3747,97	17,00
3751,33	64,00
3754,69	-15,00
3758,05	-53,00
3761,41	26,00
3764,77	-5,00
3768,12	111,00
3771,47	7,00
3774,82	114,00
3778,16	1,00
3781,50	-5,00
3784,84	-1,00
3788,18	3,00
>>>>>End Processed Spectral Data<<<<<
