SpectraSuite Data File
++++++++++++++++++++++++++++++++++++
Date: Tue Mar 03 10:26:08 ICT 2026
User: user
Dark Spectrum Present: Yes
Reference Spectrum Present: No
Number of Sampled Component Spectra: 1
Spectrometers: MAYP113682
Integration Time (usec): 3000000 (MAYP113682)
Spectra Averaged: 1 (MAYP113682)
Boxcar Smoothing: 0 (MAYP113682)
Correct for Electrical Dark: No (MAYP113682)
Strobe/Lamp Enabled: No (MAYP113682)
Correct for Detector Non-linearity: No (MAYP113682)
Correct for Stray Light: No (MAYP113682)
Number of Pixels in Processed Spectrum: 2068
>>>>>Begin Processed Spectral Data<<<<<
-37534,58	13,00
-37414,56	1,00
-37295,11	-2,00
-37176,24	2,00
-37057,95	73,00
-36940,22	70,00
-36823,05	153,00
-36706,45	240,00
-36590,40	78,00
-36474,90	208,00
-36359,95	189,00
-36245,55	136,00
-36131,68	123,00
-36018,35	128,00
-35905,55	128,00
-35793,29	177,00
-35681,54	115,00
-35570,32	44,00
-35459,62	136,00
-35349,43	162,00
-35239,75	145,00
-35130,58	100,00
-35021,91	65,00
-34913,74	111,00
-34806,07	190,00
-34698,89	142,00
-34592,20	193,00
-34486,00	140,00
-34380,28	200,00
-34275,04	166,00
-34170,27	98,00
-34065,98	205,00
-33962,16	193,00
-33858,81	107,00
-33755,92	146,00
-33653,49	151,00
-33551,52	246,00
-33450,01	109,00
-33348,94	154,00
-33248,33	211,00
-33148,16	122,00
-33048,43	180,00
-32949,14	258,00
-32850,29	195,00
-32751,87	132,00
-32653,89	139,00
-32556,33	172,00
-32459,20	188,00
-32362,49	136,00
-32266,19	114,00
-32170,32	194,00
-32074,86	78,00
-31979,82	114,00
-31885,18	76,00
-31790,95	166,00
-31697,12	91,00
-31603,69	141,00
-31510,67	298,00
-31418,04	234,00
-31325,80	134,00
-31233,95	137,00
-31142,49	129,00
-31051,42	211,00
-30960,73	174,00
-30870,43	139,00
-30780,50	27,00
-30690,95	82,00
-30601,77	194,00
-30512,97	145,00
-30424,53	108,00
-30336,46	128,00
-30248,76	152,00
-30161,42	129,00
-30074,44	176,00
-29987,81	151,00
-29901,55	82,00
-29815,63	134,00
-29730,07	223,00
-29644,86	124,00
-29560,00	131,00
-29475,48	85,00
-29391,30	220,00
-29307,47	177,00
-29223,97	236,00
-29140,81	137,00
-29057,99	108,00
-28975,50	232,00
-28893,34	147,00
-28811,51	149,00
-28730,00	177,00
-28648,82	148,00
-28567,97	135,00
-28487,43	136,00
-28407,21	112,00
-28327,32	145,00
-28247,73	266,00
-28168,46	185,00
-28089,50	149,00
-28010,85	120,00
-27932,51	80,00
-27854,48	109,00
-27776,75	182,00
-27699,32	145,00
-27622,19	174,00
-27545,37	151,00
-27468,84	174,00
-27392,60	91,00
-27316,66	123,00
-27241,01	88,00
-27165,66	250,00
-27090,59	124,00
-27015,81	197,00
-26941,31	97,00
-26867,10	234,00
-26793,17	189,00
-26719,52	110,00
-26646,15	188,00
-26573,06	148,00
-26500,24	181,00
-26427,70	77,00
-26355,43	221,00
-26283,43	153,00
-26211,71	73,00
-26140,25	233,00
-26069,06	167,00
-25998,13	212,00
-25927,46	204,00
-25857,06	122,00
-25786,92	125,00
-25717,04	49,00
-25647,42	243,00
-25578,05	41,00
-25508,94	162,00
-25440,09	190,00
-25371,48	157,00
-25303,13	194,00
-25235,02	109,00
-25167,17	168,00
-25099,56	114,00
-25032,19	215,00
-24965,07	111,00
-24898,20	103,00
-24831,56	231,00
-24765,17	186,00
-24699,01	177,00
-24633,10	147,00
-24567,41	188,00
-24501,97	162,00
-24436,75	13,00
-24371,77	152,00
-24307,03	173,00
-24242,51	149,00
-24178,22	104,00
-24114,16	152,00
-24050,32	240,00
-23986,71	179,00
-23923,32	191,00
-23860,16	144,00
-23797,22	142,00
-23734,50	159,00
-23672,00	121,00
-23609,71	110,00
-23547,65	185,00
-23485,80	174,00
-23424,16	115,00
-23362,74	140,00
-23301,53	217,00
-23240,54	116,00
-23179,75	259,00
-23119,17	142,00
-23058,80	157,00
-22998,64	99,00
-22938,68	76,00
-22878,93	206,00
-22819,39	127,00
-22760,04	159,00
-22700,90	240,00
-22641,96	133,00
-22583,22	156,00
-22524,68	98,00
-22466,33	41,00
-22408,19	70,00
-22350,23	68,00
-22292,48	160,00
-22234,92	49,00
-22177,55	263,00
-22120,37	150,00
-22063,38	160,00
-22006,58	193,00
-21949,98	77,00
-21893,56	153,00
-21837,33	120,00
-21781,28	209,00
-21725,42	199,00
-21669,74	134,00
-21614,25	160,00
-21558,94	136,00
-21503,81	174,00
-21448,86	129,00
-21394,10	170,00
-21339,51	149,00
-21285,10	144,00
-21230,86	90,00
-21176,81	169,00
-21122,93	54,00
-21069,22	165,00
-21015,69	80,00
-20962,33	131,00
-20909,14	57,00
-20856,13	135,00
-20803,28	159,00
-20750,61	112,00
-20698,10	206,00
-20645,76	139,00
-20593,59	148,00
-20541,59	101,00
-20489,75	157,00
-20438,07	165,00
-20386,56	146,00
-20335,22	215,00
-20284,03	118,00
-20233,01	112,00
-20182,15	126,00
-20131,45	191,00
-20080,91	157,00
-20030,52	129,00
-19980,30	80,00
-19930,23	177,00
-19880,32	132,00
-19830,56	205,00
-19780,96	140,00
-19731,52	97,00
-19682,23	104,00
-19633,09	155,00
-19584,10	189,00
-19535,26	91,00
-19486,58	118,00
-19438,04	139,00
-19389,66	125,00
-19341,42	223,00
-19293,33	172,00
-19245,39	200,00
-19197,60	227,00
-19149,95	204,00
-19102,45	230,00
-19055,09	193,00
-19007,87	123,00
-18960,80	175,00
-18913,87	270,00
-18867,09	120,00
-18820,44	160,00
-18773,94	49,00
-18727,57	220,00
-18681,35	225,00
-18635,26	118,00
-18589,31	175,00
-18543,50	133,00
-18497,83	128,00
-18452,29	90,00
-18406,89	71,00
-18361,63	160,00
-18316,50	161,00
-18271,50	124,00
-18226,63	176,00
-18181,90	92,00
-18137,30	84,00
-18092,84	187,00
-18048,50	187,00
-18004,29	158,00
-17960,22	136,00
-17916,27	150,00
-17872,45	91,00
-17828,76	61,00
-17785,20	121,00
-17741,77	143,00
-17698,46	197,00
-17655,28	209,00
-17612,22	151,00
-17569,29	164,00
-17526,48	159,00
-17483,79	151,00
-17441,23	125,00
-17398,79	85,00
-17356,48	123,00
-17314,28	269,00
-17272,21	204,00
-17230,26	155,00
-17188,42	112,00
-17146,71	193,00
-17105,12	72,00
-17063,64	138,00
-17022,28	36,00
-16981,04	174,00
-16939,92	133,00
-16898,91	110,00
-16858,02	208,00
-16817,25	182,00
-16776,59	118,00
-16736,04	181,00
-16695,61	119,00
-16655,29	135,00
-16615,09	212,00
-16574,99	261,00
-16535,01	63,00
-16495,15	195,00
-16455,39	123,00
-16415,74	197,00
-16376,21	245,00
-16336,78	28,00
-16297,46	105,00
-16258,26	82,00
-16219,16	38,00
-16180,17	150,00
-16141,28	159,00
-16102,51	130,00
-16063,84	180,00
-16025,27	149,00
-15986,82	56,00
-15948,46	138,00
-15910,22	115,00
-15872,07	207,00
-15834,04	123,00
-15796,10	168,00
-15758,27	224,00
-15720,54	188,00
-15682,91	157,00
-15645,39	129,00
-15607,97	149,00
-15570,64	93,00
-15533,42	162,00
-15496,30	164,00
-15459,28	155,00
-15422,36	103,00
-15385,54	144,00
-15348,82	189,00
-15312,19	134,00
-15275,66	186,00
-15239,23	161,00
-15202,90	72,00
-15166,67	100,00
-15130,53	44,00
-15094,48	195,00
-15058,54	179,00
-15022,68	115,00
-14986,93	110,00
-14951,26	156,00
-14915,69	220,00
-14880,22	114,00
-14844,84	157,00
-14809,55	105,00
-14774,35	200,00
-14739,25	142,00
-14704,24	143,00
-14669,32	169,00
-14634,49	157,00
-14599,75	166,00
-14565,10	162,00
-14530,55	183,00
-14496,08	131,00
-14461,70	122,00
-14427,41	108,00
-14393,21	168,00
-14359,10	199,00
-14325,07	205,00
-14291,14	191,00
-14257,29	214,00
-14223,52	163,00
-14189,85	189,00
-14156,26	170,00
-14122,76	160,00
-14089,34	116,00
-14056,01	133,00
-14022,76	221,00
-13989,60	106,00
-13956,52	24,00
-13923,53	156,00
-13890,62	224,00
-13857,79	152,00
-13825,05	168,00
-13792,39	118,00
-13759,81	68,00
-13727,31	108,00
-13694,90	101,00
-13662,57	191,00
-13630,31	155,00
-13598,14	90,00
-13566,05	94,00
-13534,05	149,00
-13502,12	129,00
-13470,27	168,00
-13438,50	146,00
-13406,80	192,00
-13375,19	131,00
-13343,66	62,00
-13312,20	159,00
-13280,83	91,00
-13249,53	157,00
-13218,30	185,00
-13187,16	114,00
-13156,09	293,00
-13125,10	233,00
-13094,18	215,00
-13063,34	302,00
-13032,58	118,00
-13001,89	95,00
-12971,28	126,00
-12940,74	255,00
-12910,27	160,00
-12879,88	148,00
-12849,57	223,00
-12819,33	147,00
-12789,16	135,00
-12759,06	144,00
-12729,04	102,00
-12699,09	106,00
-12669,21	92,00
-12639,41	125,00
-12609,68	161,00
-12580,02	139,00
-12550,43	224,00
-12520,91	105,00
-12491,46	94,00
-12462,08	158,00
-12432,77	229,00
-12403,54	88,00
-12374,37	100,00
-12345,27	151,00
-12316,24	110,00
-12287,29	128,00
-12258,40	128,00
-12229,57	84,00
-12200,82	182,00
-12172,14	91,00
-12143,52	146,00
-12114,97	146,00
-12086,49	152,00
-12058,07	204,00
-12029,73	139,00
-12001,44	206,00
-11973,23	129,00
-11945,08	207,00
-11917,00	207,00
-11888,98	143,00
-11861,03	172,00
-11833,15	248,00
-11805,32	94,00
-11777,57	178,00
-11749,88	186,00
-11722,25	143,00
-11694,69	48,00
-11667,19	146,00
-11639,75	205,00
-11612,38	122,00
-11585,07	133,00
-11557,83	128,00
-11530,65	166,00
-11503,53	189,00
-11476,47	169,00
-11449,48	186,00
-11422,54	167,00
-11395,67	222,00
-11368,86	109,00
-11342,11	147,00
-11315,43	131,00
-11288,80	154,00
-11262,23	203,00
-11235,73	100,00
-11209,28	133,00
-11182,90	183,00
-11156,57	152,00
-11130,31	206,00
-11104,10	150,00
-11077,96	156,00
-11051,87	148,00
-11025,84	185,00
-10999,87	147,00
-10973,96	142,00
-10948,11	170,00
-10922,31	142,00
-10896,58	165,00
-10870,90	116,00
-10845,28	172,00
-10819,71	100,00
-10794,20	247,00
-10768,75	144,00
-10743,36	239,00
-10718,02	129,00
-10692,74	103,00
-10667,52	219,00
-10642,35	179,00
-10617,24	179,00
-10592,18	266,00
-10567,18	230,00
-10542,23	239,00
-10517,34	251,00
-10492,51	121,00
-10467,72	178,00
-10443,00	208,00
-10418,32	231,00
-10393,70	89,00
-10369,14	183,00
-10344,63	247,00
-10320,17	202,00
-10295,77	164,00
-10271,42	288,00
-10247,12	162,00
-10222,88	165,00
-10198,68	80,00
-10174,54	76,00
-10150,46	252,00
-10126,42	209,00
-10102,44	319,00
-10078,51	306,00
-10054,63	323,00
-10030,80	193,00
-10007,03	276,00
-9983,30	313,00
-9959,63	203,00
-9936,01	290,00
-9912,44	286,00
-9888,92	243,00
-9865,44	198,00
-9842,02	268,00
-9818,65	202,00
-9795,33	285,00
-9772,06	262,00
-9748,84	309,00
-9725,67	360,00
-9702,55	373,00
-9679,47	394,00
-9656,45	470,00
-9633,47	434,00
-9610,55	419,00
-9587,67	527,00
-9564,84	465,00
-9542,06	553,00
-9519,32	639,00
-9496,64	685,00
-9474,00	661,00
-9451,41	749,00
-9428,87	733,00
-9406,37	693,00
-9383,92	602,00
-9361,52	652,00
-9339,17	644,00
-9316,86	659,00
-9294,60	719,00
-9272,38	818,00
-9250,21	720,00
-9228,09	848,00
-9206,01	877,00
-9183,98	645,00
-9162,00	667,00
-9140,06	642,00
-9118,16	620,00
-9096,31	672,00
-9074,51	651,00
-9052,75	656,00
-9031,04	613,00
-9009,37	662,00
-8987,74	471,00
-8966,16	493,00
-8944,63	434,00
-8923,14	487,00
-8901,69	538,00
-8880,29	526,00
-8858,93	440,00
-8837,61	588,00
-8816,34	699,00
-8795,11	665,00
-8773,92	525,00
-8752,78	610,00
-8731,68	516,00
-8710,62	499,00
-8689,61	502,00
-8668,63	593,00
-8647,70	608,00
-8626,82	580,00
-8605,97	599,00
-8585,17	568,00
-8564,41	547,00
-8543,69	417,00
-8523,01	462,00
-8502,37	506,00
-8481,78	470,00
-8461,23	425,00
-8440,71	533,00
-8420,24	500,00
-8399,81	602,00
-8379,42	560,00
-8359,08	567,00
-8338,77	523,00
-8318,50	460,00
-8298,27	467,00
-8278,09	413,00
-8257,94	486,00
-8237,83	498,00
-8217,76	526,00
-8197,74	548,00
-8177,75	547,00
-8157,80	461,00
-8137,89	514,00
-8118,02	494,00
-8098,19	576,00
-8078,40	448,00
-8058,65	463,00
-8038,93	470,00
-8019,26	390,00
-7999,62	480,00
-7980,02	496,00
-7960,46	428,00
-7940,94	525,00
-7921,46	509,00
-7902,01	399,00
-7882,60	493,00
-7863,23	467,00
-7843,90	384,00
-7824,61	441,00
-7805,35	490,00
-7786,13	496,00
-7766,95	536,00
-7747,80	447,00
-7728,69	548,00
-7709,62	384,00
-7690,59	538,00
-7671,59	501,00
-7652,63	584,00
-7633,70	514,00
-7614,81	554,00
-7595,96	505,00
-7577,15	454,00
-7558,37	468,00
-7539,62	475,00
-7520,91	481,00
-7502,24	438,00
-7483,60	500,00
-7465,00	527,00
-7446,44	439,00
-7427,91	351,00
-7409,41	437,00
-7390,95	388,00
-7372,53	492,00
-7354,14	328,00
-7335,78	365,00
-7317,46	318,00
-7299,18	415,00
-7280,92	380,00
-7262,71	552,00
-7244,52	541,00
-7226,38	500,00
-7208,26	488,00
-7190,18	374,00
-7172,14	395,00
-7154,12	422,00
-7136,15	418,00
-7118,20	385,00
-7100,29	463,00
-7082,41	521,00
-7064,57	483,00
-7046,76	380,00
-7028,98	360,00
-7011,24	456,00
-6993,53	342,00
-6975,85	347,00
-6958,20	274,00
-6940,59	460,00
-6923,01	305,00
-6905,46	265,00
-6887,94	434,00
-6870,46	-322,00
-6853,01	437,00
-6835,59	395,00
-6818,21	408,00
-6800,85	421,00
-6783,53	307,00
-6766,24	262,00
-6748,98	261,00
-6731,76	347,00
-6714,56	308,00
-6697,40	323,00
-6680,26	213,00
-6663,16	369,00
-6646,09	259,00
-6629,05	386,00
-6612,05	382,00
-6595,07	353,00
-6578,13	461,00
-6561,21	384,00
-6544,33	325,00
-6527,47	182,00
-6510,65	298,00
-6493,86	213,00
-6477,10	313,00
-6460,36	268,00
-6443,66	239,00
-6426,99	295,00
-6410,35	247,00
-6393,74	310,00
-6377,16	179,00
-6360,61	307,00
-6344,09	343,00
-6327,59	253,00
-6311,13	283,00
-6294,70	334,00
-6278,29	287,00
-6261,92	415,00
-6245,58	328,00
-6229,26	432,00
-6212,97	238,00
-6196,72	262,00
-6180,49	235,00
-6164,29	204,00
-6148,12	319,00
-6131,98	181,00
-6115,86	98,00
-6099,78	248,00
-6083,72	241,00
-6067,69	156,00
-6051,69	203,00
-6035,72	104,00
-6019,78	147,00
-6003,87	240,00
-5987,98	243,00
-5972,12	248,00
-5956,29	270,00
-5940,49	241,00
-5924,71	252,00
-5908,96	143,00
-5893,24	255,00
-5877,55	131,00
-5861,89	257,00
-5846,25	199,00
-5830,64	191,00
-5815,05	171,00
-5799,50	283,00
-5783,97	114,00
-5768,47	281,00
-5752,99	210,00
-5737,55	216,00
-5722,12	327,00
-5706,73	340,00
-5691,36	299,00
-5676,02	285,00
-5660,71	280,00
-5645,42	126,00
-5630,16	261,00
-5614,92	286,00
-5599,71	245,00
-5584,53	258,00
-5569,37	259,00
-5554,24	306,00
-5539,14	160,00
-5524,06	305,00
-5509,01	259,00
-5493,98	198,00
-5478,98	228,00
-5464,00	244,00
-5449,05	259,00
-5434,13	152,00
-5419,23	134,00
-5404,36	273,00
-5389,51	176,00
-5374,69	289,00
-5359,89	499,00
-5345,12	314,00
-5330,37	354,00
-5315,65	300,00
-5300,95	346,00
-5286,28	170,00
-5271,63	211,00
-5257,01	253,00
-5242,41	305,00
-5227,84	283,00
-5213,29	276,00
-5198,76	225,00
-5184,26	210,00
-5169,79	156,00
-5155,33	284,00
-5140,91	229,00
-5126,51	226,00
-5112,13	225,00
-5097,77	281,00
-5083,44	177,00
-5069,13	197,00
-5054,85	128,00
-5040,59	208,00
-5026,36	218,00
-5012,15	270,00
-4997,96	253,00
-4983,80	163,00
-4969,66	214,00
-4955,54	245,00
-4941,44	260,00
-4927,37	306,00
-4913,33	273,00
-4899,30	426,00
-4885,30	368,00
-4871,33	311,00
-4857,37	192,00
-4843,44	206,00
-4829,53	193,00
-4815,65	356,00
-4801,79	263,00
-4787,95	222,00
-4774,13	206,00
-4760,34	177,00
-4746,56	219,00
-4732,82	178,00
-4719,09	220,00
-4705,38	277,00
-4691,70	345,00
-4678,04	346,00
-4664,41	311,00
-4650,79	263,00
-4637,20	236,00
-4623,63	213,00
-4610,08	319,00
-4596,56	188,00
-4583,05	310,00
-4569,57	308,00
-4556,11	270,00
-4542,67	195,00
-4529,25	205,00
-4515,86	254,00
-4502,49	301,00
-4489,13	314,00
-4475,80	202,00
-4462,49	282,00
-4449,21	190,00
-4435,94	244,00
-4422,70	246,00
-4409,47	346,00
-4396,27	332,00
-4383,09	316,00
-4369,93	213,00
-4356,79	163,00
-4343,67	226,00
-4330,58	236,00
-4317,50	277,00
-4304,45	240,00
-4291,41	204,00
-4278,40	218,00
-4265,41	89,00
-4252,44	245,00
-4239,49	217,00
-4226,55	439,00
-4213,65	225,00
-4200,76	213,00
-4187,89	77,00
-4175,04	108,00
-4162,21	154,00
-4149,40	144,00
-4136,61	122,00
-4123,85	165,00
-4111,10	196,00
-4098,37	104,00
-4085,66	167,00
-4072,98	226,00
-4060,31	218,00
-4047,66	250,00
-4035,04	171,00
-4022,43	218,00
-4009,84	193,00
-3997,27	144,00
-3984,72	90,00
-3972,19	176,00
-3959,69	96,00
-3947,20	198,00
-3934,73	178,00
-3922,27	118,00
-3909,84	198,00
-3897,43	101,00
-3885,04	231,00
-3872,67	117,00
-3860,31	168,00
-3847,98	198,00
-3835,66	115,00
-3823,36	149,00
-3811,09	100,00
-3798,83	204,00
-3786,59	88,00
-3774,37	97,00
-3762,17	183,00
-3749,98	113,00
-3737,82	199,00
-3725,67	135,00
-3713,55	210,00
-3701,44	70,00
-3689,35	151,00
-3677,28	168,00
-3665,22	251,00
-3653,19	131,00
-3641,17	139,00
-3629,18	140,00
-3617,20	202,00
-3605,24	172,00
-3593,30	175,00
-3581,37	168,00
-3569,47	204,00
-3557,58	129,00
-3545,71	174,00
-3533,86	217,00
-3522,02	173,00
-3510,21	147,00
-3498,41	218,00
-3486,63	185,00
-3474,87	185,00
-3463,12	160,00
-3451,40	173,00
-3439,69	135,00
-3428,00	221,00
-3416,33	237,00
-3404,67	110,00
-3393,03	44,00
-3381,41	132,00
-3369,81	119,00
-3358,22	85,00
-3346,66	260,00
-3335,10	188,00
-3323,57	113,00
-3312,06	250,00
-3300,56	103,00
-3289,08	182,00
-3277,61	139,00
-3266,16	126,00
-3254,73	189,00
-3243,32	51,00
-3231,92	152,00
-3220,55	148,00
-3209,18	156,00
-3197,84	121,00
-3186,51	195,00
-3175,20	80,00
-3163,90	136,00
-3152,63	135,00
-3141,36	143,00
-3130,12	219,00
-3118,89	203,00
-3107,68	98,00
-3096,49	114,00
-3085,31	138,00
-3074,15	250,00
-3063,00	200,00
-3051,87	77,00
-3040,76	148,00
-3029,67	137,00
-3018,59	233,00
-3007,52	133,00
-2996,48	121,00
-2985,44	91,00
-2974,43	140,00
-2963,43	164,00
-2952,45	109,00
-2941,48	162,00
-2930,53	179,00
-2919,60	77,00
-2908,68	222,00
-2897,78	160,00
-2886,89	109,00
-2876,02	131,00
-2865,17	159,00
-2854,33	55,00
-2843,50	153,00
-2832,70	146,00
-2821,90	123,00
-2811,13	63,00
-2800,37	153,00
-2789,62	214,00
-2778,89	202,00
-2768,18	155,00
-2757,48	196,00
-2746,80	108,00
-2736,13	103,00
-2725,48	115,00
-2714,84	175,00
-2704,22	222,00
-2693,61	146,00
-2683,02	148,00
-2672,45	185,00
-2661,89	226,00
-2651,34	271,00
-2640,81	150,00
-2630,30	197,00
-2619,80	82,00
-2609,31	288,00
-2598,84	107,00
-2588,39	83,00
-2577,95	166,00
-2567,52	135,00
-2557,11	95,00
-2546,71	327,00
-2536,33	242,00
-2525,97	230,00
-2515,62	156,00
-2505,28	131,00
-2494,96	215,00
-2484,65	221,00
-2474,36	-14,00
-2464,08	224,00
-2453,82	174,00
-2443,57	176,00
-2433,33	159,00
-2423,11	34,00
-2412,91	236,00
-2402,72	223,00
-2392,54	232,00
-2382,38	92,00
-2372,23	166,00
-2362,09	3820,00
-2351,97	33,00
-2341,87	140,00
-2331,78	57,00
-2321,70	211,00
-2311,64	128,00
-2301,59	99,00
-2291,55	136,00
-2281,53	138,00
-2271,53	142,00
-2261,53	102,00
-2251,55	78,00
-2241,59	228,00
-2231,64	208,00
-2221,70	164,00
-2211,78	120,00
-2201,87	175,00
-2191,97	168,00
-2182,09	108,00
-2172,22	142,00
-2162,37	104,00
-2152,53	168,00
-2142,70	217,00
-2132,89	211,00
-2123,09	224,00
-2113,30	154,00
-2103,53	171,00
-2093,77	127,00
-2084,02	128,00
-2074,29	185,00
-2064,57	199,00
-2054,86	124,00
-2045,17	223,00
-2035,49	169,00
-2025,82	114,00
-2016,17	161,00
-2006,53	97,00
-1996,91	146,00
-1987,29	143,00
-1977,69	285,00
-1968,11	112,00
-1958,53	240,00
-1948,97	92,00
-1939,42	163,00
-1929,89	109,00
-1920,37	152,00
-1910,86	125,00
-1901,36	203,00
-1891,88	139,00
-1882,41	109,00
-1872,95	133,00
-1863,51	59,00
-1854,08	181,00
-1844,66	145,00
-1835,26	237,00
-1825,86	157,00
-1816,48	125,00
-1807,11	150,00
-1797,76	220,00
-1788,42	155,00
-1779,09	154,00
-1769,77	174,00
-1760,47	138,00
-1751,17	136,00
-1741,89	54,00
-1732,63	80,00
-1723,37	237,00
-1714,13	223,00
-1704,90	156,00
-1695,68	110,00
-1686,48	139,00
-1677,29	167,00
-1668,11	205,00
-1658,94	129,00
-1649,78	70,00
-1640,64	139,00
-1631,51	199,00
-1622,39	136,00
-1613,28	214,00
-1604,19	153,00
-1595,10	106,00
-1586,03	188,00
-1576,97	117,00
-1567,93	153,00
-1558,89	100,00
-1549,87	211,00
-1540,86	113,00
-1531,86	154,00
-1522,87	156,00
-1513,90	132,00
-1504,93	73,00
-1495,98	140,00
-1487,04	131,00
-1478,12	111,00
-1469,20	150,00
-1460,30	198,00
-1451,40	182,00
-1442,52	58,00
-1433,65	162,00
-1424,80	190,00
-1415,95	228,00
-1407,12	210,00
-1398,30	197,00
-1389,48	151,00
-1380,69	132,00
-1371,90	106,00
-1363,12	151,00
-1354,36	176,00
-1345,60	178,00
-1336,86	74,00
-1328,13	143,00
-1319,41	135,00
-1310,70	148,00
-1302,01	138,00
-1293,32	252,00
-1284,65	158,00
-1275,99	202,00
-1267,33	134,00
-1258,69	164,00
-1250,06	160,00
-1241,45	196,00
-1232,84	124,00
-1224,25	231,00
-1215,66	223,00
-1207,09	72,00
-1198,53	179,00
-1189,97	181,00
-1181,43	104,00
-1172,91	217,00
-1164,39	222,00
-1155,88	142,00
-1147,38	117,00
-1138,90	116,00
-1130,43	230,00
-1121,96	214,00
-1113,51	84,00
-1105,07	154,00
-1096,64	95,00
-1088,22	77,00
-1079,81	150,00
-1071,41	162,00
-1063,02	153,00
-1054,65	179,00
-1046,28	202,00
-1037,92	176,00
-1029,58	129,00
-1021,24	142,00
-1012,92	205,00
-1004,61	208,00
-996,30	118,00
-988,01	125,00
-979,73	125,00
-971,46	171,00
-963,20	153,00
-954,95	152,00
-946,71	155,00
-938,48	127,00
-930,26	99,00
-922,06	160,00
-913,86	166,00
-905,67	99,00
-897,49	187,00
-889,33	127,00
-881,17	272,00
-873,02	260,00
-864,89	146,00
-856,76	192,00
-848,65	155,00
-840,54	131,00
-832,45	165,00
-824,36	160,00
-816,29	130,00
-808,22	189,00
-800,17	52,00
-792,12	200,00
-784,09	280,00
-776,06	162,00
-768,05	103,00
-760,04	155,00
-752,05	119,00
-744,07	93,00
-736,09	210,00
-728,13	113,00
-720,17	166,00
-712,23	118,00
-704,29	178,00
-696,37	203,00
-688,45	143,00
-680,55	179,00
-672,65	198,00
-664,77	236,00
-656,89	152,00
-649,03	173,00
-641,17	124,00
-633,32	191,00
-625,49	231,00
-617,66	110,00
-609,84	57,00
-602,03	61,00
-594,23	141,00
-586,45	168,00
-578,67	223,00
-570,90	261,00
-563,14	284,00
-555,39	209,00
-547,65	249,00
-539,91	142,00
-532,19	202,00
-524,48	155,00
-516,78	205,00
-509,08	151,00
-501,40	248,00
-493,72	236,00
-486,06	106,00
-478,40	240,00
-470,76	229,00
-463,12	161,00
-455,49	192,00
-447,87	130,00
-440,26	123,00
-432,66	247,00
-425,07	283,00
-417,49	58,00
-409,92	176,00
-402,35	191,00
-394,80	134,00
-387,25	234,00
-379,72	182,00
-372,19	108,00
-364,67	168,00
-357,17	173,00
-349,67	226,00
-342,18	212,00
-334,69	231,00
-327,22	283,00
-319,76	289,00
-312,30	285,00
-304,86	284,00
-297,42	228,00
-290,00	278,00
-282,58	257,00
-275,17	268,00
-267,77	308,00
-260,37	224,00
-252,99	122,00
-245,62	285,00
-238,25	272,00
-230,90	254,00
-223,55	327,00
-216,21	368,00
-208,88	349,00
-201,56	431,00
-194,25	338,00
-186,94	517,00
-179,65	530,00
-172,36	618,00
-165,08	532,00
-157,81	630,00
-150,55	680,00
-143,30	676,00
-136,06	739,00
-128,82	838,00
-121,60	829,00
-114,38	1075,00
-107,17	1152,00
-99,97	1151,00
-92,78	1265,00
-85,60	1562,00
-78,42	1735,00
-71,25	2001,00
-64,10	2261,00
-56,95	2766,00
-49,81	3219,00
-42,67	3949,00
-35,55	4897,00
-28,43	6300,00
-21,33	10375,00
-14,23	32705,00
-7,14	57727,00
-0,05	57480,00
7,02	57283,00
14,09	57420,00
21,14	30209,00
28,19	12873,00
35,23	8049,00
42,27	6123,00
49,29	5061,00
56,31	4093,00
63,32	3491,00
70,32	2816,00
77,31	2542,00
84,29	2131,00
91,27	1955,00
98,23	1759,00
105,19	1463,00
112,14	1556,00
119,09	1611,00
126,02	1911,00
132,95	2250,00
139,87	2157,00
146,78	2072,00
153,68	1996,00
160,58	1947,00
167,46	1994,00
174,34	1779,00
181,21	1834,00
188,08	1851,00
194,93	1973,00
201,78	1825,00
208,62	1731,00
215,45	1709,00
222,27	1775,00
229,09	1813,00
235,90	1710,00
242,70	1670,00
249,49	1771,00
256,27	1625,00
263,05	1707,00
269,82	1542,00
276,58	1731,00
283,33	1528,00
290,08	1452,00
296,82	1451,00
303,55	1486,00
310,27	1519,00
316,98	1450,00
323,69	1452,00
330,39	1473,00
337,08	1438,00
343,76	1458,00
350,44	1527,00
357,11	1340,00
363,77	1415,00
370,42	1340,00
377,07	1417,00
383,71	1333,00
390,34	1375,00
396,96	1324,00
403,58	1291,00
410,19	1489,00
416,79	1451,00
423,38	1458,00
429,97	1452,00
436,55	1301,00
443,12	1256,00
449,68	1269,00
456,24	1271,00
462,79	1245,00
469,33	1265,00
475,86	1172,00
482,39	1141,00
488,91	1166,00
495,42	1208,00
501,93	1084,00
508,42	1123,00
514,91	1186,00
521,40	1146,00
527,87	1064,00
534,34	1073,00
540,80	1112,00
547,25	1139,00
553,70	1091,00
560,14	1025,00
566,57	1144,00
573,00	1027,00
579,41	1207,00
585,83	1061,00
592,23	1117,00
598,62	1032,00
605,01	1069,00
611,40	1084,00
617,77	996,00
624,14	1036,00
630,50	1037,00
636,85	1058,00
643,20	1048,00
649,54	967,00
655,87	1010,00
662,20	1034,00
668,52	987,00
674,83	1016,00
681,13	1063,00
687,43	1026,00
693,72	987,00
700,00	1020,00
706,28	924,00
712,55	901,00
718,81	1055,00
725,07	955,00
731,32	924,00
737,56	943,00
743,79	930,00
750,02	882,00
756,24	1007,00
762,46	886,00
768,67	1030,00
774,87	967,00
781,06	883,00
787,25	1041,00
793,43	934,00
799,60	1000,00
805,77	949,00
811,93	953,00
818,08	1021,00
824,23	916,00
830,37	1040,00
836,50	938,00
842,63	1004,00
848,75	1009,00
854,87	929,00
860,97	1024,00
867,07	928,00
873,17	987,00
879,25	958,00
885,33	1014,00
891,41	869,00
897,47	962,00
903,53	900,00
909,59	947,00
915,63	1009,00
921,67	888,00
927,71	886,00
933,74	931,00
939,76	803,00
945,77	818,00
951,78	919,00
957,78	797,00
963,78	812,00
969,77	753,00
975,75	841,00
981,72	751,00
987,69	927,00
993,66	941,00
999,61	853,00
1005,56	806,00
1011,51	824,00
1017,44	783,00
1023,37	869,00
1029,30	915,00
1035,22	799,00
1041,13	866,00
1047,03	796,00
1052,93	900,00
1058,83	1047,00
1064,71	1065,00
1070,59	1142,00
1076,47	886,00
1082,33	853,00
1088,20	777,00
1094,05	922,00
1099,90	784,00
1105,74	830,00
1111,58	805,00
1117,41	731,00
1123,23	976,00
1129,05	1063,00
1134,86	1060,00
1140,67	756,00
1146,47	790,00
1152,26	777,00
1158,05	773,00
1163,83	770,00
1169,60	791,00
1175,37	791,00
1181,13	767,00
1186,89	753,00
1192,64	747,00
1198,38	717,00
1204,12	791,00
1209,85	705,00
1215,58	884,00
1221,30	700,00
1227,02	777,00
1232,72	712,00
1238,43	711,00
1244,12	806,00
1249,81	765,00
1255,50	779,00
1261,17	832,00
1266,85	778,00
1272,51	768,00
1278,17	854,00
1283,83	806,00
1289,47	1025,00
1295,12	1245,00
1300,75	1192,00
1306,38	993,00
1312,01	969,00
1317,63	951,00
1323,24	870,00
1328,85	876,00
1334,45	874,00
1340,04	900,00
1345,63	760,00
1351,22	925,00
1356,80	792,00
1362,37	987,00
1367,93	909,00
1373,49	894,00
1379,05	961,00
1384,60	838,00
1390,14	801,00
1395,68	905,00
1401,21	893,00
1406,74	831,00
1412,26	840,00
1417,77	886,00
1423,28	998,00
1428,78	1122,00
1434,28	1312,00
1439,77	1272,00
1445,26	1245,00
1450,74	1169,00
1456,22	1109,00
1461,68	1174,00
1467,15	1129,00
1472,61	1029,00
1478,06	917,00
1483,51	883,00
1488,95	847,00
1494,38	858,00
1499,81	796,00
1505,24	816,00
1510,65	743,00
1516,07	777,00
1521,48	763,00
1526,88	697,00
1532,27	595,00
1537,67	682,00
1543,05	672,00
1548,43	713,00
1553,81	705,00
1559,18	704,00
1564,54	697,00
1569,90	639,00
1575,25	685,00
1580,60	687,00
1585,94	737,00
1591,28	686,00
1596,61	520,00
1601,93	663,00
1607,25	620,00
1612,57	674,00
1617,88	701,00
1623,18	662,00
1628,48	566,00
1633,77	697,00
1639,06	712,00
1644,34	718,00
1649,62	672,00
1654,89	649,00
1660,16	564,00
1665,42	584,00
1670,67	603,00
1675,92	580,00
1681,17	525,00
1686,41	568,00
1691,64	640,00
1696,87	593,00
1702,10	607,00
1707,32	581,00
1712,53	540,00
1717,74	560,00
1722,94	560,00
1728,14	587,00
1733,33	531,00
1738,52	480,00
1743,70	624,00
1748,88	508,00
1754,05	569,00
1759,22	611,00
1764,38	-455,00
1769,53	490,00
1774,69	565,00
1779,83	570,00
1784,97	575,00
1790,11	532,00
1795,24	528,00
1800,36	450,00
1805,48	551,00
1810,60	469,00
1815,71	503,00
1820,82	562,00
1825,92	573,00
1831,01	417,00
1836,10	515,00
1841,19	584,00
1846,26	514,00
1851,34	533,00
1856,41	514,00
1861,47	522,00
1866,53	499,00
1871,59	415,00
1876,64	412,00
1881,68	536,00
1886,72	536,00
1891,76	409,00
1896,79	473,00
1901,81	465,00
1906,83	494,00
1911,85	455,00
1916,86	425,00
1921,86	482,00
1926,86	420,00
1931,86	317,00
1936,85	389,00
1941,83	492,00
1946,81	427,00
1951,79	353,00
1956,76	398,00
1961,72	368,00
1966,68	408,00
1971,64	363,00
1976,59	436,00
1981,54	446,00
1986,48	432,00
1991,42	337,00
1996,35	451,00
2001,27	377,00
2006,20	366,00
2011,11	454,00
2016,03	355,00
2020,93	360,00
2025,84	443,00
2030,73	414,00
2035,63	420,00
2040,52	360,00
2045,40	361,00
2050,28	370,00
2055,15	425,00
2060,02	343,00
2064,89	420,00
2069,75	392,00
2074,60	280,00
2079,46	315,00
2084,30	502,00
2089,14	357,00
2093,98	295,00
2098,81	445,00
2103,64	309,00
2108,46	369,00
2113,28	354,00
2118,09	301,00
2122,90	347,00
2127,70	310,00
2132,50	367,00
2137,30	369,00
2142,09	338,00
2146,87	316,00
2151,66	250,00
2156,43	355,00
2161,20	323,00
2165,97	352,00
2170,73	339,00
2175,49	331,00
2180,24	373,00
2184,99	477,00
2189,74	317,00
2194,48	349,00
2199,21	349,00
2203,94	255,00
2208,67	382,00
2213,39	349,00
2218,11	321,00
2222,82	355,00
2227,53	312,00
2232,23	343,00
2236,93	220,00
2241,63	411,00
2246,32	302,00
2251,00	289,00
2255,68	488,00
2260,36	331,00
2265,03	323,00
2269,70	299,00
2274,36	285,00
2279,02	290,00
2283,68	340,00
2288,33	319,00
2292,97	336,00
2297,61	230,00
2302,25	336,00
2306,88	350,00
2311,51	173,00
2316,14	308,00
2320,75	293,00
2325,37	279,00
2329,98	315,00
2334,59	198,00
2339,19	216,00
2343,79	241,00
2348,38	269,00
2352,97	287,00
2357,55	247,00
2362,13	259,00
2366,71	312,00
2371,28	413,00
2375,85	274,00
2380,41	403,00
2384,97	394,00
2389,52	186,00
2394,07	302,00
2398,62	331,00
2403,16	180,00
2407,70	256,00
2412,23	247,00
2416,76	320,00
2421,29	222,00
2425,81	241,00
2430,32	293,00
2434,84	199,00
2439,34	247,00
2443,85	249,00
2448,35	345,00
2452,84	233,00
2457,33	302,00
2461,82	328,00
2466,30	303,00
2470,78	408,00
2475,25	287,00
2479,72	318,00
2484,19	216,00
2488,65	234,00
2493,11	254,00
2497,56	228,00
2502,01	232,00
2506,46	250,00
2510,90	283,00
2515,34	350,00
2519,77	264,00
2524,20	223,00
2528,62	224,00
2533,04	308,00
2537,46	183,00
2541,87	250,00
2546,28	323,00
2550,68	192,00
2555,08	325,00
2559,48	294,00
2563,87	325,00
2568,26	305,00
2572,64	242,00
2577,02	269,00
2581,40	209,00
2585,77	327,00
2590,14	260,00
2594,50	174,00
2598,86	254,00
2603,22	235,00
2607,57	216,00
2611,92	277,00
2616,26	236,00
2620,60	269,00
2624,94	159,00
2629,27	261,00
2633,60	274,00
2637,92	328,00
2642,24	253,00
2646,56	300,00
2650,87	230,00
2655,18	315,00
2659,48	302,00
2663,78	278,00
2668,08	378,00
2672,37	250,00
2676,66	358,00
2680,95	277,00
2685,23	235,00
2689,50	300,00
2693,78	326,00
2698,05	291,00
2702,31	321,00
2706,57	239,00
2710,83	332,00
2715,08	276,00
2719,33	332,00
2723,58	304,00
2727,82	305,00
2732,06	395,00
2736,29	329,00
2740,53	298,00
2744,75	290,00
2748,97	335,00
2753,19	319,00
2757,41	288,00
2761,62	292,00
2765,83	317,00
2770,03	302,00
2774,23	244,00
2778,43	274,00
2782,62	320,00
2786,81	227,00
2791,00	242,00
2795,18	360,00
2799,35	360,00
2803,53	279,00
2807,70	345,00
2811,86	260,00
2816,03	372,00
2820,19	387,00
2824,34	382,00
2828,49	371,00
2832,64	470,00
2836,78	515,00
2840,92	686,00
2845,06	694,00
2849,19	734,00
2853,32	776,00
2857,45	824,00
2861,57	870,00
2865,69	741,00
2869,80	791,00
2873,91	756,00
2878,02	886,00
2882,12	922,00
2886,22	846,00
2890,32	861,00
2894,41	820,00
2898,50	777,00
2902,58	760,00
2906,67	645,00
2910,74	646,00
2914,82	555,00
2918,89	621,00
2922,96	525,00
2927,02	564,00
2931,08	475,00
2935,13	466,00
2939,19	568,00
2943,24	412,00
2947,28	383,00
2951,32	462,00
2955,36	319,00
2959,40	368,00
2963,43	312,00
2967,46	313,00
2971,48	276,00
2975,50	345,00
2979,52	311,00
2983,53	326,00
2987,54	239,00
2991,55	287,00
2995,55	227,00
2999,55	255,00
3003,54	189,00
3007,54	224,00
3011,53	274,00
3015,51	253,00
3019,49	329,00
3023,47	289,00
3027,45	198,00
3031,42	252,00
3035,39	155,00
3039,35	273,00
3043,31	251,00
3047,27	259,00
3051,22	241,00
3055,17	240,00
3059,12	224,00
3063,06	143,00
3067,00	219,00
3070,94	186,00
3074,87	259,00
3078,80	179,00
3082,73	208,00
3086,65	163,00
3090,57	204,00
3094,49	203,00
3098,40	219,00
3102,31	280,00
3106,22	225,00
3110,12	156,00
3114,02	174,00
3117,92	165,00
3121,81	223,00
3125,70	150,00
3129,58	243,00
3133,47	173,00
3137,34	153,00
3141,22	180,00
3145,09	148,00
3148,96	215,00
3152,83	117,00
3156,69	116,00
3160,55	27,00
3164,40	273,00
3168,26	176,00
3172,10	300,00
3175,95	211,00
3179,79	194,00
3183,63	266,00
3187,47	206,00
3191,30	167,00
3195,13	111,00
3198,95	191,00
3202,78	198,00
3206,60	169,00
3210,41	109,00
3214,23	162,00
3218,03	229,00
3221,84	176,00
3225,64	230,00
3229,44	216,00
3233,24	138,00
3237,03	187,00
3240,82	127,00
3244,61	273,00
3248,39	134,00
3252,17	213,00
3255,95	209,00
3259,72	229,00
3263,49	210,00
3267,26	163,00
3271,03	152,00
3274,79	227,00
3278,54	205,00
3282,30	193,00
3286,05	358,00
3289,80	280,00
3293,54	217,00
3297,29	131,00
3301,02	206,00
3304,76	214,00
3308,49	257,00
3312,22	148,00
3315,95	158,00
3319,67	169,00
3323,39	180,00
3327,10	102,00
3330,82	129,00
3334,53	270,00
3338,24	70,00
3341,94	284,00
3345,64	179,00
3349,34	278,00
3353,03	204,00
3356,72	230,00
3360,41	121,00
3364,10	133,00
3367,78	184,00
3371,46	249,00
3375,13	133,00
3378,81	223,00
3382,48	183,00
3386,14	142,00
3389,81	170,00
3393,47	204,00
3397,12	138,00
3400,78	184,00
3404,43	195,00
3408,08	164,00
3411,72	177,00
3415,36	148,00
3419,00	158,00
3422,64	128,00
3426,27	121,00
3429,90	112,00
3433,53	165,00
3437,15	232,00
3440,77	72,00
3444,39	139,00
3448,00	214,00
3451,62	194,00
3455,22	149,00
3458,83	167,00
3462,43	143,00
3466,03	202,00
3469,63	175,00
3473,22	205,00
3476,81	154,00
3480,40	147,00
3483,99	180,00
3487,57	105,00
3491,15	97,00
3494,72	192,00
3498,29	191,00
3501,86	140,00
3505,43	128,00
3508,99	222,00
3512,56	208,00
3516,11	244,00
3519,67	131,00
3523,22	196,00
3526,77	160,00
3530,32	126,00
3533,86	228,00
3537,40	171,00
3540,94	171,00
3544,47	212,00
3548,00	160,00
3551,53	160,00
3555,06	179,00
3558,58	244,00
3562,10	32,00
3565,62	131,00
3569,13	84,00
3572,64	98,00
3576,15	94,00
3579,66	139,00
3583,16	115,00
3586,66	177,00
3590,16	114,00
3593,65	126,00
3597,14	140,00
3600,63	208,00
3604,11	156,00
3607,60	154,00
3611,08	97,00
3614,55	123,00
3618,03	140,00
3621,50	137,00
3624,97	178,00
3628,43	153,00
3631,90	154,00
3635,36	115,00
3638,81	68,00
3642,27	168,00
3645,72	127,00
3649,17	176,00
3652,61	167,00
3656,06	150,00
3659,50	131,00
3662,93	193,00
3666,37	138,00
3669,80	305,00
3673,23	162,00
3676,65	133,00
3680,08	97,00
3683,50	194,00
3686,92	179,00
3690,33	110,00
3693,74	99,00
3697,15	99,00
3700,56	148,00
3703,96	132,00
3707,36	136,00
3710,76	93,00
3714,16	164,00
3717,55	144,00
3720,94	202,00
3724,33	117,00
3727,71	78,00
3731,10	183,00
3734,48	125,00
3737,85	70,00
3741,23	170,00
3744,60	65,00
3747,97	136,00
3751,33	24,00
3754,69	102,00
3758,05	139,00
3761,41	79,00
3764,77	162,00
3768,12	188,00
3771,47	74,00
3774,82	172,00
3778,16	-2,00
3781,50	5,00
3784,84	2,00
3788,18	6,00
>>>>>End Processed Spectral Data<<<<<
