SpectraSuite Data File
++++++++++++++++++++++++++++++++++++
Date: Tue Mar 03 11:12:07 ICT 2026
User: user
Dark Spectrum Present: Yes
Reference Spectrum Present: No
Number of Sampled Component Spectra: 1
Spectrometers: MAYP113682
Integration Time (usec): 3000000 (MAYP113682)
Spectra Averaged: 1 (MAYP113682)
Boxcar Smoothing: 0 (MAYP113682)
Correct for Electrical Dark: No (MAYP113682)
Strobe/Lamp Enabled: No (MAYP113682)
Correct for Detector Non-linearity: No (MAYP113682)
Correct for Stray Light: No (MAYP113682)
Number of Pixels in Processed Spectrum: 2068
>>>>>Begin Processed Spectral Data<<<<<
-37534,58	5,00
-37414,56	-9,00
-37295,11	4,00
-37176,24	2,00
-37057,95	65,00
-36940,22	41,00
-36823,05	-15,00
-36706,45	40,00
-36590,40	-57,00
-36474,90	71,00
-36359,95	16,00
-36245,55	34,00
-36131,68	96,00
-36018,35	76,00
-35905,55	188,00
-35793,29	67,00
-35681,54	63,00
-35570,32	-46,00
-35459,62	167,00
-35349,43	15,00
-35239,75	10,00
-35130,58	191,00
-35021,91	98,00
-34913,74	203,00
-34806,07	30,00
-34698,89	124,00
-34592,20	-16,00
-34486,00	23,00
-34380,28	31,00
-34275,04	-52,00
-34170,27	88,00
-34065,98	103,00
-33962,16	58,00
-33858,81	112,00
-33755,92	-16,00
-33653,49	1,00
-33551,52	76,00
-33450,01	47,00
-33348,94	78,00
-33248,33	-98,00
-33148,16	131,00
-33048,43	71,00
-32949,14	80,00
-32850,29	123,00
-32751,87	-124,00
-32653,89	40,00
-32556,33	135,00
-32459,20	-20,00
-32362,49	107,00
-32266,19	185,00
-32170,32	36,00
-32074,86	60,00
-31979,82	-16,00
-31885,18	39,00
-31790,95	26,00
-31697,12	-13,00
-31603,69	135,00
-31510,67	139,00
-31418,04	-19,00
-31325,80	9,00
-31233,95	63,00
-31142,49	123,00
-31051,42	77,00
-30960,73	75,00
-30870,43	82,00
-30780,50	88,00
-30690,95	112,00
-30601,77	203,00
-30512,97	-39,00
-30424,53	69,00
-30336,46	42,00
-30248,76	39,00
-30161,42	90,00
-30074,44	72,00
-29987,81	144,00
-29901,55	70,00
-29815,63	33,00
-29730,07	59,00
-29644,86	17,00
-29560,00	-35,00
-29475,48	52,00
-29391,30	98,00
-29307,47	-45,00
-29223,97	64,00
-29140,81	40,00
-29057,99	-8,00
-28975,50	56,00
-28893,34	145,00
-28811,51	-12,00
-28730,00	25,00
-28648,82	18,00
-28567,97	24,00
-28487,43	61,00
-28407,21	60,00
-28327,32	89,00
-28247,73	-21,00
-28168,46	-69,00
-28089,50	37,00
-28010,85	111,00
-27932,51	81,00
-27854,48	111,00
-27776,75	-5,00
-27699,32	-108,00
-27622,19	83,00
-27545,37	16,00
-27468,84	90,00
-27392,60	112,00
-27316,66	41,00
-27241,01	17,00
-27165,66	16,00
-27090,59	56,00
-27015,81	47,00
-26941,31	48,00
-26867,10	41,00
-26793,17	-45,00
-26719,52	157,00
-26646,15	-52,00
-26573,06	40,00
-26500,24	-45,00
-26427,70	-8,00
-26355,43	174,00
-26283,43	-104,00
-26211,71	102,00
-26140,25	64,00
-26069,06	78,00
-25998,13	125,00
-25927,46	-6,00
-25857,06	53,00
-25786,92	16,00
-25717,04	21,00
-25647,42	38,00
-25578,05	143,00
-25508,94	-24,00
-25440,09	14,00
-25371,48	60,00
-25303,13	24,00
-25235,02	51,00
-25167,17	38,00
-25099,56	54,00
-25032,19	17,00
-24965,07	33,00
-24898,20	36,00
-24831,56	31,00
-24765,17	13,00
-24699,01	120,00
-24633,10	71,00
-24567,41	8,00
-24501,97	131,00
-24436,75	103,00
-24371,77	-2,00
-24307,03	34,00
-24242,51	-15,00
-24178,22	131,00
-24114,16	-40,00
-24050,32	49,00
-23986,71	44,00
-23923,32	-1,00
-23860,16	84,00
-23797,22	115,00
-23734,50	56,00
-23672,00	44,00
-23609,71	33,00
-23547,65	119,00
-23485,80	75,00
-23424,16	-21,00
-23362,74	0,00
-23301,53	51,00
-23240,54	58,00
-23179,75	55,00
-23119,17	-8,00
-23058,80	3,00
-22998,64	13,00
-22938,68	-70,00
-22878,93	-28,00
-22819,39	50,00
-22760,04	51,00
-22700,90	40,00
-22641,96	41,00
-22583,22	-42,00
-22524,68	130,00
-22466,33	7,00
-22408,19	-14,00
-22350,23	63,00
-22292,48	170,00
-22234,92	46,00
-22177,55	0,00
-22120,37	85,00
-22063,38	14,00
-22006,58	-6,00
-21949,98	127,00
-21893,56	39,00
-21837,33	105,00
-21781,28	140,00
-21725,42	23,00
-21669,74	56,00
-21614,25	62,00
-21558,94	56,00
-21503,81	45,00
-21448,86	-54,00
-21394,10	118,00
-21339,51	105,00
-21285,10	30,00
-21230,86	20,00
-21176,81	151,00
-21122,93	94,00
-21069,22	39,00
-21015,69	-14,00
-20962,33	3,00
-20909,14	43,00
-20856,13	11,00
-20803,28	170,00
-20750,61	-10,00
-20698,10	110,00
-20645,76	49,00
-20593,59	27,00
-20541,59	38,00
-20489,75	71,00
-20438,07	11,00
-20386,56	23,00
-20335,22	114,00
-20284,03	-27,00
-20233,01	20,00
-20182,15	-7,00
-20131,45	62,00
-20080,91	117,00
-20030,52	116,00
-19980,30	13,00
-19930,23	-34,00
-19880,32	-43,00
-19830,56	90,00
-19780,96	67,00
-19731,52	103,00
-19682,23	-67,00
-19633,09	48,00
-19584,10	-64,00
-19535,26	64,00
-19486,58	85,00
-19438,04	32,00
-19389,66	-5,00
-19341,42	138,00
-19293,33	79,00
-19245,39	83,00
-19197,60	79,00
-19149,95	37,00
-19102,45	17,00
-19055,09	87,00
-19007,87	3,00
-18960,80	-37,00
-18913,87	11,00
-18867,09	64,00
-18820,44	137,00
-18773,94	65,00
-18727,57	56,00
-18681,35	-3,00
-18635,26	65,00
-18589,31	13,00
-18543,50	52,00
-18497,83	22,00
-18452,29	125,00
-18406,89	28,00
-18361,63	118,00
-18316,50	124,00
-18271,50	73,00
-18226,63	5,00
-18181,90	-31,00
-18137,30	11,00
-18092,84	145,00
-18048,50	-23,00
-18004,29	22,00
-17960,22	5,00
-17916,27	-19,00
-17872,45	-78,00
-17828,76	11,00
-17785,20	110,00
-17741,77	74,00
-17698,46	117,00
-17655,28	-7,00
-17612,22	171,00
-17569,29	82,00
-17526,48	0,00
-17483,79	15,00
-17441,23	94,00
-17398,79	-84,00
-17356,48	63,00
-17314,28	-36,00
-17272,21	18,00
-17230,26	69,00
-17188,42	104,00
-17146,71	59,00
-17105,12	55,00
-17063,64	126,00
-17022,28	74,00
-16981,04	32,00
-16939,92	71,00
-16898,91	-7,00
-16858,02	105,00
-16817,25	-6,00
-16776,59	-67,00
-16736,04	33,00
-16695,61	16,00
-16655,29	12,00
-16615,09	81,00
-16574,99	9,00
-16535,01	124,00
-16495,15	-31,00
-16455,39	61,00
-16415,74	12,00
-16376,21	46,00
-16336,78	27,00
-16297,46	214,00
-16258,26	21,00
-16219,16	86,00
-16180,17	-74,00
-16141,28	51,00
-16102,51	59,00
-16063,84	49,00
-16025,27	53,00
-15986,82	-5,00
-15948,46	-14,00
-15910,22	-23,00
-15872,07	61,00
-15834,04	72,00
-15796,10	45,00
-15758,27	133,00
-15720,54	41,00
-15682,91	45,00
-15645,39	66,00
-15607,97	58,00
-15570,64	20,00
-15533,42	146,00
-15496,30	111,00
-15459,28	45,00
-15422,36	55,00
-15385,54	54,00
-15348,82	-65,00
-15312,19	11,00
-15275,66	99,00
-15239,23	60,00
-15202,90	88,00
-15166,67	12,00
-15130,53	54,00
-15094,48	96,00
-15058,54	180,00
-15022,68	101,00
-14986,93	-31,00
-14951,26	48,00
-14915,69	114,00
-14880,22	-15,00
-14844,84	137,00
-14809,55	4,00
-14774,35	92,00
-14739,25	77,00
-14704,24	19,00
-14669,32	4,00
-14634,49	40,00
-14599,75	15,00
-14565,10	125,00
-14530,55	83,00
-14496,08	112,00
-14461,70	26,00
-14427,41	97,00
-14393,21	94,00
-14359,10	-11,00
-14325,07	16,00
-14291,14	112,00
-14257,29	-27,00
-14223,52	66,00
-14189,85	119,00
-14156,26	-3,00
-14122,76	-62,00
-14089,34	-90,00
-14056,01	-18,00
-14022,76	-3,00
-13989,60	57,00
-13956,52	154,00
-13923,53	76,00
-13890,62	26,00
-13857,79	-16,00
-13825,05	-21,00
-13792,39	52,00
-13759,81	28,00
-13727,31	95,00
-13694,90	-90,00
-13662,57	25,00
-13630,31	163,00
-13598,14	5,00
-13566,05	100,00
-13534,05	-29,00
-13502,12	7,00
-13470,27	-12,00
-13438,50	18,00
-13406,80	21,00
-13375,19	17,00
-13343,66	11,00
-13312,20	100,00
-13280,83	30,00
-13249,53	117,00
-13218,30	33,00
-13187,16	62,00
-13156,09	88,00
-13125,10	-96,00
-13094,18	-5,00
-13063,34	51,00
-13032,58	114,00
-13001,89	120,00
-12971,28	14,00
-12940,74	158,00
-12910,27	-13,00
-12879,88	131,00
-12849,57	13,00
-12819,33	90,00
-12789,16	132,00
-12759,06	42,00
-12729,04	95,00
-12699,09	1381,00
-12669,21	36,00
-12639,41	110,00
-12609,68	20,00
-12580,02	-61,00
-12550,43	-11,00
-12520,91	78,00
-12491,46	1,00
-12462,08	54,00
-12432,77	115,00
-12403,54	20,00
-12374,37	100,00
-12345,27	83,00
-12316,24	37,00
-12287,29	57,00
-12258,40	147,00
-12229,57	144,00
-12200,82	137,00
-12172,14	24,00
-12143,52	13,00
-12114,97	-46,00
-12086,49	61,00
-12058,07	94,00
-12029,73	81,00
-12001,44	65,00
-11973,23	104,00
-11945,08	-8,00
-11917,00	53,00
-11888,98	-75,00
-11861,03	74,00
-11833,15	30,00
-11805,32	53,00
-11777,57	29,00
-11749,88	-107,00
-11722,25	153,00
-11694,69	59,00
-11667,19	105,00
-11639,75	-81,00
-11612,38	110,00
-11585,07	70,00
-11557,83	87,00
-11530,65	-27,00
-11503,53	117,00
-11476,47	-18,00
-11449,48	105,00
-11422,54	123,00
-11395,67	137,00
-11368,86	41,00
-11342,11	89,00
-11315,43	-47,00
-11288,80	198,00
-11262,23	66,00
-11235,73	41,00
-11209,28	11,00
-11182,90	9,00
-11156,57	9,00
-11130,31	74,00
-11104,10	58,00
-11077,96	-4,00
-11051,87	18,00
-11025,84	-16,00
-10999,87	41,00
-10973,96	-79,00
-10948,11	-2,00
-10922,31	181,00
-10896,58	-46,00
-10870,90	96,00
-10845,28	7,00
-10819,71	75,00
-10794,20	-13,00
-10768,75	59,00
-10743,36	128,00
-10718,02	16,00
-10692,74	100,00
-10667,52	3,00
-10642,35	116,00
-10617,24	61,00
-10592,18	70,00
-10567,18	28,00
-10542,23	51,00
-10517,34	119,00
-10492,51	-60,00
-10467,72	80,00
-10443,00	71,00
-10418,32	71,00
-10393,70	106,00
-10369,14	-53,00
-10344,63	-28,00
-10320,17	-63,00
-10295,77	115,00
-10271,42	8,00
-10247,12	89,00
-10222,88	75,00
-10198,68	1,00
-10174,54	25,00
-10150,46	128,00
-10126,42	7,00
-10102,44	59,00
-10078,51	49,00
-10054,63	170,00
-10030,80	147,00
-10007,03	153,00
-9983,30	135,00
-9959,63	74,00
-9936,01	3,00
-9912,44	46,00
-9888,92	120,00
-9865,44	189,00
-9842,02	28,00
-9818,65	203,00
-9795,33	96,00
-9772,06	-14,00
-9748,84	27,00
-9725,67	79,00
-9702,55	-69,00
-9679,47	110,00
-9656,45	117,00
-9633,47	80,00
-9610,55	-63,00
-9587,67	85,00
-9564,84	49,00
-9542,06	17,00
-9519,32	209,00
-9496,64	144,00
-9474,00	247,00
-9451,41	56,00
-9428,87	272,00
-9406,37	224,00
-9383,92	166,00
-9361,52	162,00
-9339,17	222,00
-9316,86	140,00
-9294,60	216,00
-9272,38	171,00
-9250,21	224,00
-9228,09	205,00
-9206,01	319,00
-9183,98	184,00
-9162,00	172,00
-9140,06	206,00
-9118,16	204,00
-9096,31	231,00
-9074,51	158,00
-9052,75	188,00
-9031,04	159,00
-9009,37	143,00
-8987,74	66,00
-8966,16	129,00
-8944,63	123,00
-8923,14	-13,00
-8901,69	18,00
-8880,29	142,00
-8858,93	182,00
-8837,61	149,00
-8816,34	209,00
-8795,11	107,00
-8773,92	198,00
-8752,78	202,00
-8731,68	33,00
-8710,62	13,00
-8689,61	66,00
-8668,63	158,00
-8647,70	207,00
-8626,82	146,00
-8605,97	111,00
-8585,17	90,00
-8564,41	191,00
-8543,69	101,00
-8523,01	108,00
-8502,37	18,00
-8481,78	21,00
-8461,23	38,00
-8440,71	26,00
-8420,24	81,00
-8399,81	88,00
-8379,42	183,00
-8359,08	148,00
-8338,77	129,00
-8318,50	115,00
-8298,27	51,00
-8278,09	121,00
-8257,94	155,00
-8237,83	139,00
-8217,76	173,00
-8197,74	203,00
-8177,75	97,00
-8157,80	136,00
-8137,89	143,00
-8118,02	137,00
-8098,19	200,00
-8078,40	27,00
-8058,65	-7,00
-8038,93	191,00
-8019,26	262,00
-7999,62	133,00
-7980,02	67,00
-7960,46	56,00
-7940,94	145,00
-7921,46	186,00
-7902,01	153,00
-7882,60	43,00
-7863,23	180,00
-7843,90	216,00
-7824,61	150,00
-7805,35	101,00
-7786,13	130,00
-7766,95	117,00
-7747,80	112,00
-7728,69	214,00
-7709,62	158,00
-7690,59	74,00
-7671,59	301,00
-7652,63	143,00
-7633,70	181,00
-7614,81	62,00
-7595,96	94,00
-7577,15	163,00
-7558,37	130,00
-7539,62	-1,00
-7520,91	86,00
-7502,24	164,00
-7483,60	187,00
-7465,00	233,00
-7446,44	93,00
-7427,91	48,00
-7409,41	80,00
-7390,95	118,00
-7372,53	178,00
-7354,14	28,00
-7335,78	121,00
-7317,46	130,00
-7299,18	177,00
-7280,92	137,00
-7262,71	220,00
-7244,52	98,00
-7226,38	315,00
-7208,26	35,00
-7190,18	45,00
-7172,14	226,00
-7154,12	66,00
-7136,15	164,00
-7118,20	72,00
-7100,29	20,00
-7082,41	176,00
-7064,57	177,00
-7046,76	158,00
-7028,98	227,00
-7011,24	164,00
-6993,53	59,00
-6975,85	137,00
-6958,20	109,00
-6940,59	119,00
-6923,01	55,00
-6905,46	179,00
-6887,94	50,00
-6870,46	134,00
-6853,01	265,00
-6835,59	26,00
-6818,21	199,00
-6800,85	146,00
-6783,53	52,00
-6766,24	92,00
-6748,98	-2,00
-6731,76	153,00
-6714,56	204,00
-6697,40	-26,00
-6680,26	39,00
-6663,16	205,00
-6646,09	115,00
-6629,05	117,00
-6612,05	232,00
-6595,07	246,00
-6578,13	59,00
-6561,21	117,00
-6544,33	112,00
-6527,47	218,00
-6510,65	125,00
-6493,86	147,00
-6477,10	157,00
-6460,36	96,00
-6443,66	171,00
-6426,99	-10,00
-6410,35	-20,00
-6393,74	117,00
-6377,16	109,00
-6360,61	165,00
-6344,09	104,00
-6327,59	105,00
-6311,13	160,00
-6294,70	91,00
-6278,29	174,00
-6261,92	158,00
-6245,58	121,00
-6229,26	-19,00
-6212,97	104,00
-6196,72	157,00
-6180,49	-6,00
-6164,29	80,00
-6148,12	10,00
-6131,98	82,00
-6115,86	36,00
-6099,78	109,00
-6083,72	140,00
-6067,69	86,00
-6051,69	96,00
-6035,72	45,00
-6019,78	52,00
-6003,87	140,00
-5987,98	149,00
-5972,12	191,00
-5956,29	33,00
-5940,49	58,00
-5924,71	-20,00
-5908,96	58,00
-5893,24	29,00
-5877,55	72,00
-5861,89	110,00
-5846,25	18,00
-5830,64	28,00
-5815,05	4,00
-5799,50	109,00
-5783,97	135,00
-5768,47	79,00
-5752,99	152,00
-5737,55	87,00
-5722,12	113,00
-5706,73	127,00
-5691,36	180,00
-5676,02	70,00
-5660,71	90,00
-5645,42	104,00
-5630,16	-4,00
-5614,92	105,00
-5599,71	-12,00
-5584,53	97,00
-5569,37	188,00
-5554,24	204,00
-5539,14	119,00
-5524,06	52,00
-5509,01	145,00
-5493,98	60,00
-5478,98	175,00
-5464,00	133,00
-5449,05	82,00
-5434,13	16,00
-5419,23	-8,00
-5404,36	91,00
-5389,51	49,00
-5374,69	-19,00
-5359,89	179,00
-5345,12	160,00
-5330,37	224,00
-5315,65	172,00
-5300,95	154,00
-5286,28	59,00
-5271,63	133,00
-5257,01	78,00
-5242,41	-34,00
-5227,84	24,00
-5213,29	82,00
-5198,76	29,00
-5184,26	211,00
-5169,79	56,00
-5155,33	-104,00
-5140,91	123,00
-5126,51	118,00
-5112,13	88,00
-5097,77	147,00
-5083,44	46,00
-5069,13	88,00
-5054,85	87,00
-5040,59	165,00
-5026,36	161,00
-5012,15	99,00
-4997,96	38,00
-4983,80	28,00
-4969,66	-79,00
-4955,54	37,00
-4941,44	65,00
-4927,37	129,00
-4913,33	120,00
-4899,30	81,00
-4885,30	250,00
-4871,33	197,00
-4857,37	-3,00
-4843,44	108,00
-4829,53	153,00
-4815,65	48,00
-4801,79	111,00
-4787,95	205,00
-4774,13	146,00
-4760,34	202,00
-4746,56	-11,00
-4732,82	56,00
-4719,09	134,00
-4705,38	150,00
-4691,70	246,00
-4678,04	45,00
-4664,41	167,00
-4650,79	22,00
-4637,20	178,00
-4623,63	51,00
-4610,08	104,00
-4596,56	74,00
-4583,05	134,00
-4569,57	107,00
-4556,11	57,00
-4542,67	162,00
-4529,25	6,00
-4515,86	0,00
-4502,49	121,00
-4489,13	90,00
-4475,80	88,00
-4462,49	88,00
-4449,21	-54,00
-4435,94	118,00
-4422,70	-26,00
-4409,47	100,00
-4396,27	123,00
-4383,09	-36,00
-4369,93	24,00
-4356,79	84,00
-4343,67	118,00
-4330,58	158,00
-4317,50	61,00
-4304,45	-23,00
-4291,41	100,00
-4278,40	100,00
-4265,41	-47,00
-4252,44	-130,00
-4239,49	172,00
-4226,55	-44,00
-4213,65	68,00
-4200,76	78,00
-4187,89	67,00
-4175,04	82,00
-4162,21	95,00
-4149,40	122,00
-4136,61	-23,00
-4123,85	51,00
-4111,10	-21,00
-4098,37	20,00
-4085,66	128,00
-4072,98	62,00
-4060,31	95,00
-4047,66	-2,00
-4035,04	183,00
-4022,43	22,00
-4009,84	169,00
-3997,27	107,00
-3984,72	91,00
-3972,19	18,00
-3959,69	104,00
-3947,20	-55,00
-3934,73	56,00
-3922,27	-75,00
-3909,84	98,00
-3897,43	25,00
-3885,04	57,00
-3872,67	21,00
-3860,31	25,00
-3847,98	149,00
-3835,66	31,00
-3823,36	43,00
-3811,09	72,00
-3798,83	-4,00
-3786,59	106,00
-3774,37	16,00
-3762,17	67,00
-3749,98	-22,00
-3737,82	-120,00
-3725,67	10,00
-3713,55	73,00
-3701,44	-95,00
-3689,35	25,00
-3677,28	183,00
-3665,22	65,00
-3653,19	71,00
-3641,17	-44,00
-3629,18	159,00
-3617,20	103,00
-3605,24	86,00
-3593,30	26,00
-3581,37	-32,00
-3569,47	105,00
-3557,58	129,00
-3545,71	1,00
-3533,86	125,00
-3522,02	38,00
-3510,21	107,00
-3498,41	81,00
-3486,63	-97,00
-3474,87	74,00
-3463,12	-36,00
-3451,40	109,00
-3439,69	-13,00
-3428,00	52,00
-3416,33	-36,00
-3404,67	11,00
-3393,03	84,00
-3381,41	90,00
-3369,81	131,00
-3358,22	57,00
-3346,66	-66,00
-3335,10	95,00
-3323,57	3,00
-3312,06	113,00
-3300,56	40,00
-3289,08	66,00
-3277,61	79,00
-3266,16	-29,00
-3254,73	167,00
-3243,32	-2,00
-3231,92	-14,00
-3220,55	-96,00
-3209,18	27,00
-3197,84	-46,00
-3186,51	72,00
-3175,20	37,00
-3163,90	-7,00
-3152,63	-111,00
-3141,36	65,00
-3130,12	123,00
-3118,89	31,00
-3107,68	122,00
-3096,49	105,00
-3085,31	110,00
-3074,15	24,00
-3063,00	145,00
-3051,87	32,00
-3040,76	58,00
-3029,67	63,00
-3018,59	93,00
-3007,52	60,00
-2996,48	-1,00
-2985,44	93,00
-2974,43	85,00
-2963,43	78,00
-2952,45	65,00
-2941,48	122,00
-2930,53	109,00
-2919,60	58,00
-2908,68	84,00
-2897,78	87,00
-2886,89	88,00
-2876,02	122,00
-2865,17	79,00
-2854,33	-60,00
-2843,50	43,00
-2832,70	33,00
-2821,90	-34,00
-2811,13	121,00
-2800,37	102,00
-2789,62	29,00
-2778,89	-29,00
-2768,18	5,00
-2757,48	-8,00
-2746,80	15,00
-2736,13	56,00
-2725,48	-95,00
-2714,84	125,00
-2704,22	67,00
-2693,61	71,00
-2683,02	-51,00
-2672,45	-22,00
-2661,89	-53,00
-2651,34	-6,00
-2640,81	1,00
-2630,30	131,00
-2619,80	31,00
-2609,31	110,00
-2598,84	122,00
-2588,39	48,00
-2577,95	33,00
-2567,52	103,00
-2557,11	7,00
-2546,71	56,00
-2536,33	89,00
-2525,97	0,00
-2515,62	53,00
-2505,28	65,00
-2494,96	49,00
-2484,65	178,00
-2474,36	87,00
-2464,08	-68,00
-2453,82	167,00
-2443,57	-29,00
-2433,33	53,00
-2423,11	-49,00
-2412,91	110,00
-2402,72	57,00
-2392,54	74,00
-2382,38	48,00
-2372,23	155,00
-2362,09	53,00
-2351,97	-3,00
-2341,87	157,00
-2331,78	8,00
-2321,70	23,00
-2311,64	73,00
-2301,59	50,00
-2291,55	107,00
-2281,53	51,00
-2271,53	89,00
-2261,53	31,00
-2251,55	-63,00
-2241,59	-7,00
-2231,64	91,00
-2221,70	52,00
-2211,78	20,00
-2201,87	129,00
-2191,97	76,00
-2182,09	70,00
-2172,22	27,00
-2162,37	-60,00
-2152,53	46,00
-2142,70	147,00
-2132,89	26,00
-2123,09	-23,00
-2113,30	68,00
-2103,53	89,00
-2093,77	153,00
-2084,02	-15,00
-2074,29	63,00
-2064,57	13,00
-2054,86	28,00
-2045,17	-16,00
-2035,49	11,00
-2025,82	110,00
-2016,17	67,00
-2006,53	5,00
-1996,91	102,00
-1987,29	26,00
-1977,69	106,00
-1968,11	87,00
-1958,53	33,00
-1948,97	105,00
-1939,42	93,00
-1929,89	-26,00
-1920,37	-38,00
-1910,86	-10,00
-1901,36	159,00
-1891,88	43,00
-1882,41	-41,00
-1872,95	-53,00
-1863,51	128,00
-1854,08	22,00
-1844,66	116,00
-1835,26	-16,00
-1825,86	-155,00
-1816,48	65,00
-1807,11	-8,00
-1797,76	19,00
-1788,42	-21,00
-1779,09	-50,00
-1769,77	63,00
-1760,47	0,00
-1751,17	-68,00
-1741,89	31,00
-1732,63	155,00
-1723,37	-25,00
-1714,13	50,00
-1704,90	46,00
-1695,68	120,00
-1686,48	131,00
-1677,29	114,00
-1668,11	77,00
-1658,94	20,00
-1649,78	97,00
-1640,64	84,00
-1631,51	45,00
-1622,39	51,00
-1613,28	212,00
-1604,19	66,00
-1595,10	5,00
-1586,03	76,00
-1576,97	107,00
-1567,93	21,00
-1558,89	100,00
-1549,87	27,00
-1540,86	-1,00
-1531,86	7,00
-1522,87	93,00
-1513,90	-26,00
-1504,93	-4,00
-1495,98	32,00
-1487,04	55,00
-1478,12	46,00
-1469,20	46,00
-1460,30	98,00
-1451,40	56,00
-1442,52	-89,00
-1433,65	-77,00
-1424,80	8,00
-1415,95	58,00
-1407,12	27,00
-1398,30	133,00
-1389,48	74,00
-1380,69	38,00
-1371,90	-99,00
-1363,12	136,00
-1354,36	41,00
-1345,60	104,00
-1336,86	54,00
-1328,13	88,00
-1319,41	55,00
-1310,70	68,00
-1302,01	-32,00
-1293,32	-94,00
-1284,65	13,00
-1275,99	27,00
-1267,33	122,00
-1258,69	46,00
-1250,06	-17,00
-1241,45	128,00
-1232,84	125,00
-1224,25	131,00
-1215,66	58,00
-1207,09	32,00
-1198,53	44,00
-1189,97	141,00
-1181,43	17,00
-1172,91	88,00
-1164,39	111,00
-1155,88	53,00
-1147,38	56,00
-1138,90	42,00
-1130,43	-26,00
-1121,96	-77,00
-1113,51	-87,00
-1105,07	27,00
-1096,64	49,00
-1088,22	151,00
-1079,81	133,00
-1071,41	108,00
-1063,02	55,00
-1054,65	70,00
-1046,28	-10,00
-1037,92	28,00
-1029,58	-17,00
-1021,24	140,00
-1012,92	35,00
-1004,61	-27,00
-996,30	55,00
-988,01	103,00
-979,73	-30,00
-971,46	12,00
-963,20	-91,00
-954,95	138,00
-946,71	29,00
-938,48	114,00
-930,26	64,00
-922,06	-16,00
-913,86	52,00
-905,67	-12,00
-897,49	19,00
-889,33	61,00
-881,17	86,00
-873,02	26,00
-864,89	-62,00
-856,76	70,00
-848,65	126,00
-840,54	54,00
-832,45	-24,00
-824,36	-4,00
-816,29	48,00
-808,22	76,00
-800,17	51,00
-792,12	-48,00
-784,09	102,00
-776,06	30,00
-768,05	132,00
-760,04	106,00
-752,05	38,00
-744,07	14,00
-736,09	-46,00
-728,13	28,00
-720,17	189,00
-712,23	43,00
-704,29	53,00
-696,37	-41,00
-688,45	91,00
-680,55	70,00
-672,65	101,00
-664,77	-59,00
-656,89	19,00
-649,03	126,00
-641,17	-124,00
-633,32	-19,00
-625,49	-42,00
-617,66	-63,00
-609,84	163,00
-602,03	44,00
-594,23	-85,00
-586,45	219,00
-578,67	133,00
-570,90	88,00
-563,14	15,00
-555,39	69,00
-547,65	-74,00
-539,91	-2,00
-532,19	118,00
-524,48	91,00
-516,78	146,00
-509,08	135,00
-501,40	92,00
-493,72	61,00
-486,06	182,00
-478,40	28,00
-470,76	6,00
-463,12	-18,00
-455,49	94,00
-447,87	-80,00
-440,26	61,00
-432,66	80,00
-425,07	4,00
-417,49	37,00
-409,92	90,00
-402,35	91,00
-394,80	139,00
-387,25	14,00
-379,72	114,00
-372,19	68,00
-364,67	41,00
-357,17	0,00
-349,67	51,00
-342,18	98,00
-334,69	82,00
-327,22	107,00
-319,76	65,00
-312,30	124,00
-304,86	209,00
-297,42	176,00
-290,00	99,00
-282,58	40,00
-275,17	86,00
-267,77	11,00
-260,37	128,00
-252,99	155,00
-245,62	224,00
-238,25	280,00
-230,90	103,00
-223,55	178,00
-216,21	93,00
-208,88	210,00
-201,56	302,00
-194,25	264,00
-186,94	359,00
-179,65	234,00
-172,36	266,00
-165,08	202,00
-157,81	311,00
-150,55	422,00
-143,30	479,00
-136,06	491,00
-128,82	425,00
-121,60	578,00
-114,38	519,00
-107,17	712,00
-99,97	820,00
-92,78	958,00
-85,60	1103,00
-78,42	1187,00
-71,25	1496,00
-64,10	1565,00
-56,95	1993,00
-49,81	2200,00
-42,67	2708,00
-35,55	3440,00
-28,43	4781,00
-21,33	8126,00
-14,23	27237,00
-7,14	54975,00
-0,05	54612,00
7,02	54304,00
14,09	54647,00
21,14	20717,00
28,19	8684,00
35,23	5683,00
42,27	4118,00
49,29	3635,00
56,31	2920,00
63,32	2437,00
70,32	2034,00
77,31	1685,00
84,29	1470,00
91,27	1338,00
98,23	1076,00
105,19	974,00
112,14	1246,00
119,09	1582,00
126,02	1869,00
132,95	2140,00
139,87	2101,00
146,78	2069,00
153,68	1894,00
160,58	1859,00
167,46	1919,00
174,34	1757,00
181,21	1853,00
188,08	1838,00
194,93	1769,00
201,78	1766,00
208,62	1622,00
215,45	1681,00
222,27	1855,00
229,09	1787,00
235,90	1646,00
242,70	1719,00
249,49	1785,00
256,27	1486,00
263,05	1540,00
269,82	1493,00
276,58	1535,00
283,33	1556,00
290,08	1499,00
296,82	1512,00
303,55	1486,00
310,27	1483,00
316,98	1374,00
323,69	1461,00
330,39	1404,00
337,08	1402,00
343,76	1315,00
350,44	1330,00
357,11	1376,00
363,77	1392,00
370,42	1240,00
377,07	1340,00
383,71	1268,00
390,34	1335,00
396,96	1357,00
403,58	1247,00
410,19	1399,00
416,79	1384,00
423,38	1499,00
429,97	1315,00
436,55	1172,00
443,12	1215,00
449,68	1148,00
456,24	1060,00
462,79	1307,00
469,33	1097,00
475,86	1066,00
482,39	1079,00
488,91	1103,00
495,42	1096,00
501,93	1096,00
508,42	1085,00
514,91	1047,00
521,40	956,00
527,87	1115,00
534,34	1108,00
540,80	989,00
547,25	956,00
553,70	988,00
560,14	1123,00
566,57	1031,00
573,00	1055,00
579,41	989,00
585,83	856,00
592,23	1002,00
598,62	984,00
605,01	959,00
611,40	1125,00
617,77	996,00
624,14	1073,00
630,50	962,00
636,85	958,00
643,20	933,00
649,54	975,00
655,87	1045,00
662,20	963,00
668,52	972,00
674,83	881,00
681,13	924,00
687,43	819,00
693,72	830,00
700,00	821,00
706,28	793,00
712,55	928,00
718,81	948,00
725,07	818,00
731,32	885,00
737,56	937,00
743,79	888,00
750,02	845,00
756,24	958,00
762,46	865,00
768,67	853,00
774,87	910,00
781,06	874,00
787,25	827,00
793,43	970,00
799,60	854,00
805,77	928,00
811,93	837,00
818,08	985,00
824,23	945,00
830,37	1058,00
836,50	1040,00
842,63	896,00
848,75	978,00
854,87	882,00
860,97	783,00
867,07	939,00
873,17	1043,00
879,25	892,00
885,33	855,00
891,41	1047,00
897,47	874,00
903,53	903,00
909,59	890,00
915,63	762,00
921,67	823,00
927,71	697,00
933,74	803,00
939,76	734,00
945,77	744,00
951,78	623,00
957,78	748,00
963,78	732,00
969,77	749,00
975,75	860,00
981,72	780,00
987,69	836,00
993,66	775,00
999,61	770,00
1005,56	878,00
1011,51	825,00
1017,44	727,00
1023,37	806,00
1029,30	826,00
1035,22	874,00
1041,13	780,00
1047,03	858,00
1052,93	894,00
1058,83	1050,00
1064,71	1275,00
1070,59	1107,00
1076,47	971,00
1082,33	826,00
1088,20	760,00
1094,05	756,00
1099,90	815,00
1105,74	730,00
1111,58	866,00
1117,41	797,00
1123,23	950,00
1129,05	1086,00
1134,86	1036,00
1140,67	928,00
1146,47	742,00
1152,26	603,00
1158,05	772,00
1163,83	707,00
1169,60	653,00
1175,37	764,00
1181,13	661,00
1186,89	579,00
1192,64	733,00
1198,38	667,00
1204,12	572,00
1209,85	808,00
1215,58	665,00
1221,30	672,00
1227,02	634,00
1232,72	679,00
1238,43	615,00
1244,12	713,00
1249,81	734,00
1255,50	687,00
1261,17	694,00
1266,85	712,00
1272,51	739,00
1278,17	736,00
1283,83	881,00
1289,47	1071,00
1295,12	1272,00
1300,75	1145,00
1306,38	1106,00
1312,01	882,00
1317,63	892,00
1323,24	771,00
1328,85	862,00
1334,45	784,00
1340,04	917,00
1345,63	741,00
1351,22	828,00
1356,80	839,00
1362,37	807,00
1367,93	894,00
1373,49	801,00
1379,05	960,00
1384,60	748,00
1390,14	747,00
1395,68	765,00
1401,21	775,00
1406,74	831,00
1412,26	934,00
1417,77	963,00
1423,28	1079,00
1428,78	1171,00
1434,28	1339,00
1439,77	1513,00
1445,26	1485,00
1450,74	1342,00
1456,22	1254,00
1461,68	1207,00
1467,15	992,00
1472,61	1089,00
1478,06	957,00
1483,51	856,00
1488,95	825,00
1494,38	792,00
1499,81	747,00
1505,24	780,00
1510,65	714,00
1516,07	539,00
1521,48	765,00
1526,88	683,00
1532,27	579,00
1537,67	660,00
1543,05	714,00
1548,43	613,00
1553,81	541,00
1559,18	822,00
1564,54	697,00
1569,90	690,00
1575,25	582,00
1580,60	652,00
1585,94	611,00
1591,28	592,00
1596,61	615,00
1601,93	518,00
1607,25	645,00
1612,57	565,00
1617,88	607,00
1623,18	606,00
1628,48	567,00
1633,77	639,00
1639,06	462,00
1644,34	424,00
1649,62	530,00
1654,89	530,00
1660,16	609,00
1665,42	527,00
1670,67	527,00
1675,92	639,00
1681,17	461,00
1686,41	529,00
1691,64	686,00
1696,87	460,00
1702,10	573,00
1707,32	369,00
1712,53	564,00
1717,74	555,00
1722,94	498,00
1728,14	505,00
1733,33	419,00
1738,52	490,00
1743,70	494,00
1748,88	471,00
1754,05	496,00
1759,22	465,00
1764,38	-1164,00
1769,53	487,00
1774,69	378,00
1779,83	395,00
1784,97	472,00
1790,11	367,00
1795,24	440,00
1800,36	430,00
1805,48	465,00
1810,60	353,00
1815,71	460,00
1820,82	405,00
1825,92	291,00
1831,01	453,00
1836,10	408,00
1841,19	350,00
1846,26	501,00
1851,34	335,00
1856,41	337,00
1861,47	330,00
1866,53	301,00
1871,59	358,00
1876,64	422,00
1881,68	369,00
1886,72	397,00
1891,76	300,00
1896,79	348,00
1901,81	385,00
1906,83	310,00
1911,85	263,00
1916,86	206,00
1921,86	372,00
1926,86	453,00
1931,86	415,00
1936,85	350,00
1941,83	416,00
1946,81	353,00
1951,79	205,00
1956,76	353,00
1961,72	261,00
1966,68	175,00
1971,64	334,00
1976,59	321,00
1981,54	460,00
1986,48	373,00
1991,42	190,00
1996,35	362,00
2001,27	416,00
2006,20	338,00
2011,11	369,00
2016,03	311,00
2020,93	318,00
2025,84	331,00
2030,73	329,00
2035,63	317,00
2040,52	331,00
2045,40	185,00
2050,28	279,00
2055,15	385,00
2060,02	387,00
2064,89	307,00
2069,75	336,00
2074,60	320,00
2079,46	240,00
2084,30	255,00
2089,14	226,00
2093,98	329,00
2098,81	231,00
2103,64	318,00
2108,46	247,00
2113,28	394,00
2118,09	232,00
2122,90	388,00
2127,70	270,00
2132,50	235,00
2137,30	258,00
2142,09	160,00
2146,87	347,00
2151,66	252,00
2156,43	338,00
2161,20	265,00
2165,97	371,00
2170,73	96,00
2175,49	326,00
2180,24	261,00
2184,99	272,00
2189,74	379,00
2194,48	269,00
2199,21	293,00
2203,94	199,00
2208,67	174,00
2213,39	315,00
2218,11	286,00
2222,82	322,00
2227,53	330,00
2232,23	247,00
2236,93	134,00
2241,63	260,00
2246,32	356,00
2251,00	235,00
2255,68	84,00
2260,36	216,00
2265,03	190,00
2269,70	209,00
2274,36	250,00
2279,02	257,00
2283,68	169,00
2288,33	256,00
2292,97	283,00
2297,61	229,00
2302,25	345,00
2306,88	54,00
2311,51	248,00
2316,14	256,00
2320,75	200,00
2325,37	213,00
2329,98	175,00
2334,59	140,00
2339,19	284,00
2343,79	207,00
2348,38	212,00
2352,97	178,00
2357,55	174,00
2362,13	243,00
2366,71	277,00
2371,28	173,00
2375,85	196,00
2380,41	203,00
2384,97	193,00
2389,52	131,00
2394,07	147,00
2398,62	247,00
2403,16	91,00
2407,70	273,00
2412,23	198,00
2416,76	152,00
2421,29	123,00
2425,81	179,00
2430,32	157,00
2434,84	123,00
2439,34	272,00
2443,85	162,00
2448,35	180,00
2452,84	139,00
2457,33	175,00
2461,82	126,00
2466,30	158,00
2470,78	223,00
2475,25	175,00
2479,72	187,00
2484,19	162,00
2488,65	117,00
2493,11	51,00
2497,56	168,00
2502,01	203,00
2506,46	163,00
2510,90	151,00
2515,34	165,00
2519,77	123,00
2524,20	297,00
2528,62	113,00
2533,04	221,00
2537,46	170,00
2541,87	56,00
2546,28	210,00
2550,68	269,00
2555,08	132,00
2559,48	169,00
2563,87	176,00
2568,26	86,00
2572,64	96,00
2577,02	207,00
2581,40	145,00
2585,77	206,00
2590,14	172,00
2594,50	57,00
2598,86	73,00
2603,22	194,00
2607,57	341,00
2611,92	124,00
2616,26	174,00
2620,60	175,00
2624,94	177,00
2629,27	134,00
2633,60	109,00
2637,92	157,00
2642,24	221,00
2646,56	240,00
2650,87	122,00
2655,18	223,00
2659,48	109,00
2663,78	171,00
2668,08	160,00
2672,37	116,00
2676,66	206,00
2680,95	297,00
2685,23	214,00
2689,50	257,00
2693,78	95,00
2698,05	201,00
2702,31	292,00
2706,57	156,00
2710,83	150,00
2715,08	282,00
2719,33	262,00
2723,58	354,00
2727,82	228,00
2732,06	129,00
2736,29	357,00
2740,53	182,00
2744,75	135,00
2748,97	230,00
2753,19	237,00
2757,41	170,00
2761,62	199,00
2765,83	133,00
2770,03	246,00
2774,23	324,00
2778,43	223,00
2782,62	363,00
2786,81	228,00
2791,00	231,00
2795,18	279,00
2799,35	237,00
2803,53	319,00
2807,70	322,00
2811,86	282,00
2816,03	341,00
2820,19	400,00
2824,34	316,00
2828,49	424,00
2832,64	519,00
2836,78	644,00
2840,92	698,00
2845,06	875,00
2849,19	1001,00
2853,32	929,00
2857,45	987,00
2861,57	1018,00
2865,69	1001,00
2869,80	1010,00
2873,91	902,00
2878,02	989,00
2882,12	1081,00
2886,22	1119,00
2890,32	1093,00
2894,41	1093,00
2898,50	907,00
2902,58	900,00
2906,67	755,00
2910,74	771,00
2914,82	782,00
2918,89	666,00
2922,96	652,00
2927,02	593,00
2931,08	573,00
2935,13	549,00
2939,19	505,00
2943,24	492,00
2947,28	411,00
2951,32	299,00
2955,36	417,00
2959,40	319,00
2963,43	358,00
2967,46	272,00
2971,48	201,00
2975,50	214,00
2979,52	208,00
2983,53	319,00
2987,54	182,00
2991,55	177,00
2995,55	215,00
2999,55	338,00
3003,54	212,00
3007,54	136,00
3011,53	-20,00
3015,51	74,00
3019,49	117,00
3023,47	125,00
3027,45	163,00
3031,42	131,00
3035,39	188,00
3039,35	12,00
3043,31	36,00
3047,27	154,00
3051,22	14,00
3055,17	44,00
3059,12	13,00
3063,06	150,00
3067,00	90,00
3070,94	147,00
3074,87	103,00
3078,80	112,00
3082,73	61,00
3086,65	168,00
3090,57	41,00
3094,49	174,00
3098,40	-36,00
3102,31	128,00
3106,22	104,00
3110,12	168,00
3114,02	46,00
3117,92	163,00
3121,81	88,00
3125,70	80,00
3129,58	75,00
3133,47	0,00
3137,34	44,00
3141,22	167,00
3145,09	163,00
3148,96	82,00
3152,83	28,00
3156,69	278,00
3160,55	94,00
3164,40	110,00
3168,26	99,00
3172,10	68,00
3175,95	118,00
3179,79	104,00
3183,63	244,00
3187,47	130,00
3191,30	81,00
3195,13	46,00
3198,95	166,00
3202,78	-1,00
3206,60	28,00
3210,41	79,00
3214,23	161,00
3218,03	171,00
3221,84	26,00
3225,64	171,00
3229,44	82,00
3233,24	105,00
3237,03	60,00
3240,82	131,00
3244,61	78,00
3248,39	141,00
3252,17	81,00
3255,95	-45,00
3259,72	177,00
3263,49	44,00
3267,26	-46,00
3271,03	132,00
3274,79	39,00
3278,54	29,00
3282,30	-23,00
3286,05	6,00
3289,80	79,00
3293,54	132,00
3297,29	99,00
3301,02	108,00
3304,76	185,00
3308,49	-2,00
3312,22	-20,00
3315,95	131,00
3319,67	62,00
3323,39	82,00
3327,10	88,00
3330,82	43,00
3334,53	135,00
3338,24	86,00
3341,94	65,00
3345,64	151,00
3349,34	73,00
3353,03	192,00
3356,72	-49,00
3360,41	-21,00
3364,10	149,00
3367,78	80,00
3371,46	12,00
3375,13	-6,00
3378,81	-24,00
3382,48	134,00
3386,14	66,00
3389,81	92,00
3393,47	154,00
3397,12	-132,00
3400,78	126,00
3404,43	16,00
3408,08	128,00
3411,72	76,00
3415,36	37,00
3419,00	34,00
3422,64	102,00
3426,27	-12,00
3429,90	83,00
3433,53	153,00
3437,15	33,00
3440,77	106,00
3444,39	5,00
3448,00	82,00
3451,62	-115,00
3455,22	162,00
3458,83	66,00
3462,43	-1,00
3466,03	72,00
3469,63	-2,00
3473,22	203,00
3476,81	112,00
3480,40	115,00
3483,99	65,00
3487,57	-9,00
3491,15	3,00
3494,72	120,00
3498,29	56,00
3501,86	227,00
3505,43	-26,00
3508,99	-92,00
3512,56	53,00
3516,11	288,00
3519,67	-2,00
3523,22	-40,00
3526,77	40,00
3530,32	-50,00
3533,86	15,00
3537,40	77,00
3540,94	63,00
3544,47	50,00
3548,00	-3,00
3551,53	37,00
3555,06	-10,00
3558,58	65,00
3562,10	-32,00
3565,62	38,00
3569,13	106,00
3572,64	77,00
3576,15	69,00
3579,66	138,00
3583,16	-1,00
3586,66	53,00
3590,16	82,00
3593,65	65,00
3597,14	-70,00
3600,63	128,00
3604,11	-21,00
3607,60	130,00
3611,08	119,00
3614,55	11,00
3618,03	74,00
3621,50	-20,00
3624,97	136,00
3628,43	93,00
3631,90	122,00
3635,36	48,00
3638,81	5,00
3642,27	48,00
3645,72	-1,00
3649,17	8,00
3652,61	27,00
3656,06	91,00
3659,50	100,00
3662,93	166,00
3666,37	52,00
3669,80	0,00
3673,23	-17,00
3676,65	-38,00
3680,08	36,00
3683,50	91,00
3686,92	-18,00
3690,33	166,00
3693,74	-50,00
3697,15	63,00
3700,56	60,00
3703,96	-20,00
3707,36	68,00
3710,76	115,00
3714,16	-21,00
3717,55	43,00
3720,94	56,00
3724,33	18,00
3727,71	94,00
3731,10	31,00
3734,48	78,00
3737,85	8,00
3741,23	86,00
3744,60	41,00
3747,97	62,00
3751,33	135,00
3754,69	2,00
3758,05	120,00
3761,41	87,00
3764,77	108,00
3768,12	60,00
3771,47	25,00
3774,82	-52,00
3778,16	9,00
3781,50	-4,00
3784,84	2,00
3788,18	9,00
>>>>>End Processed Spectral Data<<<<<
