SpectraSuite Data File
++++++++++++++++++++++++++++++++++++
Date: Tue Mar 03 11:07:55 ICT 2026
User: user
Dark Spectrum Present: Yes
Reference Spectrum Present: No
Number of Sampled Component Spectra: 1
Spectrometers: MAYP113682
Integration Time (usec): 3000000 (MAYP113682)
Spectra Averaged: 1 (MAYP113682)
Boxcar Smoothing: 0 (MAYP113682)
Correct for Electrical Dark: No (MAYP113682)
Strobe/Lamp Enabled: No (MAYP113682)
Correct for Detector Non-linearity: No (MAYP113682)
Correct for Stray Light: No (MAYP113682)
Number of Pixels in Processed Spectrum: 2068
>>>>>Begin Processed Spectral Data<<<<<
-37534,58	1,00
-37414,56	1,00
-37295,11	2,00
-37176,24	7,00
-37057,95	35,00
-36940,22	157,00
-36823,05	22,00
-36706,45	174,00
-36590,40	72,00
-36474,90	21,00
-36359,95	104,00
-36245,55	-30,00
-36131,68	222,00
-36018,35	83,00
-35905,55	174,00
-35793,29	139,00
-35681,54	268,00
-35570,32	131,00
-35459,62	62,00
-35349,43	107,00
-35239,75	57,00
-35130,58	19,00
-35021,91	-6,00
-34913,74	222,00
-34806,07	158,00
-34698,89	137,00
-34592,20	83,00
-34486,00	130,00
-34380,28	85,00
-34275,04	132,00
-34170,27	83,00
-34065,98	132,00
-33962,16	5,00
-33858,81	71,00
-33755,92	240,00
-33653,49	36,00
-33551,52	65,00
-33450,01	117,00
-33348,94	44,00
-33248,33	250,00
-33148,16	98,00
-33048,43	111,00
-32949,14	176,00
-32850,29	78,00
-32751,87	174,00
-32653,89	45,00
-32556,33	141,00
-32459,20	-1,00
-32362,49	52,00
-32266,19	76,00
-32170,32	-11,00
-32074,86	124,00
-31979,82	105,00
-31885,18	148,00
-31790,95	159,00
-31697,12	106,00
-31603,69	106,00
-31510,67	90,00
-31418,04	133,00
-31325,80	130,00
-31233,95	170,00
-31142,49	22,00
-31051,42	68,00
-30960,73	70,00
-30870,43	224,00
-30780,50	74,00
-30690,95	23,00
-30601,77	140,00
-30512,97	120,00
-30424,53	171,00
-30336,46	221,00
-30248,76	143,00
-30161,42	163,00
-30074,44	79,00
-29987,81	222,00
-29901,55	-97,00
-29815,63	148,00
-29730,07	171,00
-29644,86	131,00
-29560,00	51,00
-29475,48	86,00
-29391,30	56,00
-29307,47	135,00
-29223,97	113,00
-29140,81	229,00
-29057,99	163,00
-28975,50	89,00
-28893,34	13,00
-28811,51	156,00
-28730,00	185,00
-28648,82	80,00
-28567,97	99,00
-28487,43	-54,00
-28407,21	216,00
-28327,32	140,00
-28247,73	294,00
-28168,46	223,00
-28089,50	15,00
-28010,85	44,00
-27932,51	32,00
-27854,48	98,00
-27776,75	-26,00
-27699,32	104,00
-27622,19	23,00
-27545,37	175,00
-27468,84	73,00
-27392,60	120,00
-27316,66	177,00
-27241,01	88,00
-27165,66	-14,00
-27090,59	86,00
-27015,81	-123,00
-26941,31	73,00
-26867,10	289,00
-26793,17	154,00
-26719,52	246,00
-26646,15	105,00
-26573,06	83,00
-26500,24	131,00
-26427,70	222,00
-26355,43	176,00
-26283,43	120,00
-26211,71	156,00
-26140,25	77,00
-26069,06	183,00
-25998,13	33,00
-25927,46	78,00
-25857,06	138,00
-25786,92	129,00
-25717,04	-10,00
-25647,42	92,00
-25578,05	104,00
-25508,94	94,00
-25440,09	58,00
-25371,48	160,00
-25303,13	97,00
-25235,02	84,00
-25167,17	49,00
-25099,56	54,00
-25032,19	28,00
-24965,07	139,00
-24898,20	-27,00
-24831,56	229,00
-24765,17	27,00
-24699,01	4,00
-24633,10	-6,00
-24567,41	158,00
-24501,97	204,00
-24436,75	68,00
-24371,77	109,00
-24307,03	55,00
-24242,51	117,00
-24178,22	136,00
-24114,16	56,00
-24050,32	67,00
-23986,71	101,00
-23923,32	156,00
-23860,16	162,00
-23797,22	-5,00
-23734,50	148,00
-23672,00	28,00
-23609,71	181,00
-23547,65	178,00
-23485,80	22,00
-23424,16	98,00
-23362,74	-16,00
-23301,53	67,00
-23240,54	87,00
-23179,75	94,00
-23119,17	16,00
-23058,80	139,00
-22998,64	21,00
-22938,68	158,00
-22878,93	176,00
-22819,39	-89,00
-22760,04	102,00
-22700,90	49,00
-22641,96	94,00
-22583,22	76,00
-22524,68	55,00
-22466,33	155,00
-22408,19	92,00
-22350,23	101,00
-22292,48	119,00
-22234,92	181,00
-22177,55	122,00
-22120,37	-18,00
-22063,38	87,00
-22006,58	154,00
-21949,98	149,00
-21893,56	182,00
-21837,33	108,00
-21781,28	102,00
-21725,42	77,00
-21669,74	92,00
-21614,25	64,00
-21558,94	96,00
-21503,81	100,00
-21448,86	137,00
-21394,10	80,00
-21339,51	113,00
-21285,10	225,00
-21230,86	119,00
-21176,81	43,00
-21122,93	-2,00
-21069,22	26,00
-21015,69	336,00
-20962,33	207,00
-20909,14	89,00
-20856,13	64,00
-20803,28	81,00
-20750,61	116,00
-20698,10	55,00
-20645,76	127,00
-20593,59	33,00
-20541,59	65,00
-20489,75	0,00
-20438,07	31,00
-20386,56	118,00
-20335,22	219,00
-20284,03	95,00
-20233,01	164,00
-20182,15	238,00
-20131,45	110,00
-20080,91	206,00
-20030,52	209,00
-19980,30	166,00
-19930,23	214,00
-19880,32	81,00
-19830,56	79,00
-19780,96	114,00
-19731,52	114,00
-19682,23	-34,00
-19633,09	88,00
-19584,10	174,00
-19535,26	213,00
-19486,58	166,00
-19438,04	103,00
-19389,66	118,00
-19341,42	-1,00
-19293,33	82,00
-19245,39	235,00
-19197,60	70,00
-19149,95	31,00
-19102,45	71,00
-19055,09	144,00
-19007,87	45,00
-18960,80	226,00
-18913,87	67,00
-18867,09	90,00
-18820,44	73,00
-18773,94	112,00
-18727,57	133,00
-18681,35	187,00
-18635,26	57,00
-18589,31	72,00
-18543,50	95,00
-18497,83	161,00
-18452,29	118,00
-18406,89	-84,00
-18361,63	90,00
-18316,50	89,00
-18271,50	49,00
-18226,63	172,00
-18181,90	22,00
-18137,30	117,00
-18092,84	103,00
-18048,50	155,00
-18004,29	127,00
-17960,22	168,00
-17916,27	61,00
-17872,45	56,00
-17828,76	74,00
-17785,20	135,00
-17741,77	68,00
-17698,46	167,00
-17655,28	98,00
-17612,22	45,00
-17569,29	112,00
-17526,48	150,00
-17483,79	272,00
-17441,23	139,00
-17398,79	146,00
-17356,48	93,00
-17314,28	142,00
-17272,21	125,00
-17230,26	108,00
-17188,42	170,00
-17146,71	111,00
-17105,12	88,00
-17063,64	157,00
-17022,28	225,00
-16981,04	-5,00
-16939,92	83,00
-16898,91	47,00
-16858,02	100,00
-16817,25	180,00
-16776,59	70,00
-16736,04	139,00
-16695,61	179,00
-16655,29	253,00
-16615,09	83,00
-16574,99	150,00
-16535,01	100,00
-16495,15	127,00
-16455,39	232,00
-16415,74	49,00
-16376,21	45,00
-16336,78	80,00
-16297,46	51,00
-16258,26	199,00
-16219,16	44,00
-16180,17	216,00
-16141,28	138,00
-16102,51	157,00
-16063,84	148,00
-16025,27	190,00
-15986,82	167,00
-15948,46	132,00
-15910,22	147,00
-15872,07	86,00
-15834,04	162,00
-15796,10	79,00
-15758,27	125,00
-15720,54	47,00
-15682,91	82,00
-15645,39	119,00
-15607,97	115,00
-15570,64	115,00
-15533,42	168,00
-15496,30	-15,00
-15459,28	86,00
-15422,36	127,00
-15385,54	46,00
-15348,82	148,00
-15312,19	227,00
-15275,66	98,00
-15239,23	84,00
-15202,90	38,00
-15166,67	21,00
-15130,53	42,00
-15094,48	166,00
-15058,54	109,00
-15022,68	31,00
-14986,93	72,00
-14951,26	82,00
-14915,69	104,00
-14880,22	87,00
-14844,84	57,00
-14809,55	48,00
-14774,35	215,00
-14739,25	129,00
-14704,24	104,00
-14669,32	-9,00
-14634,49	253,00
-14599,75	43,00
-14565,10	121,00
-14530,55	223,00
-14496,08	107,00
-14461,70	77,00
-14427,41	213,00
-14393,21	126,00
-14359,10	-35,00
-14325,07	142,00
-14291,14	152,00
-14257,29	73,00
-14223,52	49,00
-14189,85	7,00
-14156,26	94,00
-14122,76	220,00
-14089,34	119,00
-14056,01	73,00
-14022,76	79,00
-13989,60	50,00
-13956,52	166,00
-13923,53	150,00
-13890,62	164,00
-13857,79	88,00
-13825,05	243,00
-13792,39	131,00
-13759,81	165,00
-13727,31	142,00
-13694,90	23,00
-13662,57	74,00
-13630,31	143,00
-13598,14	152,00
-13566,05	64,00
-13534,05	136,00
-13502,12	108,00
-13470,27	134,00
-13438,50	141,00
-13406,80	101,00
-13375,19	103,00
-13343,66	60,00
-13312,20	20,00
-13280,83	77,00
-13249,53	90,00
-13218,30	67,00
-13187,16	14,00
-13156,09	81,00
-13125,10	162,00
-13094,18	65,00
-13063,34	30,00
-13032,58	155,00
-13001,89	120,00
-12971,28	52,00
-12940,74	116,00
-12910,27	119,00
-12879,88	44,00
-12849,57	223,00
-12819,33	61,00
-12789,16	-1,00
-12759,06	69,00
-12729,04	175,00
-12699,09	112,00
-12669,21	-8,00
-12639,41	100,00
-12609,68	82,00
-12580,02	241,00
-12550,43	235,00
-12520,91	44,00
-12491,46	57,00
-12462,08	177,00
-12432,77	-27,00
-12403,54	95,00
-12374,37	77,00
-12345,27	94,00
-12316,24	69,00
-12287,29	176,00
-12258,40	125,00
-12229,57	71,00
-12200,82	8,00
-12172,14	118,00
-12143,52	56,00
-12114,97	70,00
-12086,49	18,00
-12058,07	187,00
-12029,73	128,00
-12001,44	218,00
-11973,23	135,00
-11945,08	190,00
-11917,00	192,00
-11888,98	5,00
-11861,03	63,00
-11833,15	74,00
-11805,32	109,00
-11777,57	78,00
-11749,88	62,00
-11722,25	58,00
-11694,69	95,00
-11667,19	81,00
-11639,75	264,00
-11612,38	45,00
-11585,07	28,00
-11557,83	149,00
-11530,65	191,00
-11503,53	78,00
-11476,47	125,00
-11449,48	156,00
-11422,54	55,00
-11395,67	296,00
-11368,86	55,00
-11342,11	145,00
-11315,43	174,00
-11288,80	279,00
-11262,23	85,00
-11235,73	132,00
-11209,28	186,00
-11182,90	177,00
-11156,57	139,00
-11130,31	90,00
-11104,10	121,00
-11077,96	112,00
-11051,87	89,00
-11025,84	26,00
-10999,87	107,00
-10973,96	118,00
-10948,11	86,00
-10922,31	155,00
-10896,58	155,00
-10870,90	200,00
-10845,28	77,00
-10819,71	41,00
-10794,20	62,00
-10768,75	97,00
-10743,36	222,00
-10718,02	200,00
-10692,74	180,00
-10667,52	71,00
-10642,35	34,00
-10617,24	282,00
-10592,18	73,00
-10567,18	188,00
-10542,23	79,00
-10517,34	111,00
-10492,51	70,00
-10467,72	128,00
-10443,00	205,00
-10418,32	273,00
-10393,70	159,00
-10369,14	143,00
-10344,63	91,00
-10320,17	237,00
-10295,77	270,00
-10271,42	187,00
-10247,12	290,00
-10222,88	285,00
-10198,68	360,00
-10174,54	327,00
-10150,46	309,00
-10126,42	268,00
-10102,44	340,00
-10078,51	334,00
-10054,63	365,00
-10030,80	274,00
-10007,03	397,00
-9983,30	384,00
-9959,63	473,00
-9936,01	425,00
-9912,44	463,00
-9888,92	572,00
-9865,44	506,00
-9842,02	462,00
-9818,65	387,00
-9795,33	474,00
-9772,06	413,00
-9748,84	575,00
-9725,67	592,00
-9702,55	657,00
-9679,47	859,00
-9656,45	800,00
-9633,47	788,00
-9610,55	792,00
-9587,67	690,00
-9564,84	924,00
-9542,06	946,00
-9519,32	1031,00
-9496,64	1083,00
-9474,00	1331,00
-9451,41	1234,00
-9428,87	1214,00
-9406,37	1200,00
-9383,92	1095,00
-9361,52	1017,00
-9339,17	1107,00
-9316,86	1289,00
-9294,60	1488,00
-9272,38	1515,00
-9250,21	1693,00
-9228,09	1658,00
-9206,01	1505,00
-9183,98	1361,00
-9162,00	1165,00
-9140,06	1180,00
-9118,16	1204,00
-9096,31	1273,00
-9074,51	1345,00
-9052,75	1295,00
-9031,04	1156,00
-9009,37	1148,00
-8987,74	1029,00
-8966,16	1003,00
-8944,63	757,00
-8923,14	758,00
-8901,69	833,00
-8880,29	946,00
-8858,93	892,00
-8837,61	959,00
-8816,34	1047,00
-8795,11	953,00
-8773,92	948,00
-8752,78	887,00
-8731,68	978,00
-8710,62	859,00
-8689,61	951,00
-8668,63	942,00
-8647,70	1037,00
-8626,82	1014,00
-8605,97	1075,00
-8585,17	1005,00
-8564,41	837,00
-8543,69	852,00
-8523,01	782,00
-8502,37	806,00
-8481,78	829,00
-8461,23	966,00
-8440,71	922,00
-8420,24	1097,00
-8399,81	1065,00
-8379,42	976,00
-8359,08	1036,00
-8338,77	823,00
-8318,50	732,00
-8298,27	750,00
-8278,09	700,00
-8257,94	845,00
-8237,83	882,00
-8217,76	936,00
-8197,74	945,00
-8177,75	1008,00
-8157,80	890,00
-8137,89	811,00
-8118,02	846,00
-8098,19	705,00
-8078,40	757,00
-8058,65	792,00
-8038,93	976,00
-8019,26	880,00
-7999,62	770,00
-7980,02	826,00
-7960,46	797,00
-7940,94	718,00
-7921,46	654,00
-7902,01	757,00
-7882,60	662,00
-7863,23	884,00
-7843,90	634,00
-7824,61	864,00
-7805,35	839,00
-7786,13	858,00
-7766,95	834,00
-7747,80	871,00
-7728,69	800,00
-7709,62	763,00
-7690,59	772,00
-7671,59	896,00
-7652,63	913,00
-7633,70	974,00
-7614,81	896,00
-7595,96	763,00
-7577,15	703,00
-7558,37	799,00
-7539,62	801,00
-7520,91	806,00
-7502,24	858,00
-7483,60	833,00
-7465,00	804,00
-7446,44	830,00
-7427,91	632,00
-7409,41	556,00
-7390,95	449,00
-7372,53	615,00
-7354,14	653,00
-7335,78	662,00
-7317,46	596,00
-7299,18	649,00
-7280,92	839,00
-7262,71	814,00
-7244,52	978,00
-7226,38	845,00
-7208,26	946,00
-7190,18	975,00
-7172,14	807,00
-7154,12	609,00
-7136,15	784,00
-7118,20	749,00
-7100,29	764,00
-7082,41	852,00
-7064,57	908,00
-7046,76	891,00
-7028,98	748,00
-7011,24	774,00
-6993,53	597,00
-6975,85	444,00
-6958,20	446,00
-6940,59	438,00
-6923,01	533,00
-6905,46	586,00
-6887,94	613,00
-6870,46	734,00
-6853,01	787,00
-6835,59	681,00
-6818,21	639,00
-6800,85	748,00
-6783,53	420,00
-6766,24	401,00
-6748,98	392,00
-6731,76	348,00
-6714,56	481,00
-6697,40	310,00
-6680,26	267,00
-6663,16	559,00
-6646,09	729,00
-6629,05	618,00
-6612,05	729,00
-6595,07	649,00
-6578,13	526,00
-6561,21	465,00
-6544,33	465,00
-6527,47	321,00
-6510,65	397,00
-6493,86	335,00
-6477,10	269,00
-6460,36	393,00
-6443,66	231,00
-6426,99	297,00
-6410,35	428,00
-6393,74	452,00
-6377,16	412,00
-6360,61	514,00
-6344,09	510,00
-6327,59	575,00
-6311,13	626,00
-6294,70	536,00
-6278,29	584,00
-6261,92	756,00
-6245,58	644,00
-6229,26	686,00
-6212,97	593,00
-6196,72	486,00
-6180,49	421,00
-6164,29	340,00
-6148,12	387,00
-6131,98	239,00
-6115,86	264,00
-6099,78	161,00
-6083,72	213,00
-6067,69	242,00
-6051,69	216,00
-6035,72	181,00
-6019,78	295,00
-6003,87	309,00
-5987,98	488,00
-5972,12	472,00
-5956,29	495,00
-5940,49	404,00
-5924,71	389,00
-5908,96	223,00
-5893,24	332,00
-5877,55	327,00
-5861,89	115,00
-5846,25	375,00
-5830,64	270,00
-5815,05	220,00
-5799,50	333,00
-5783,97	244,00
-5768,47	191,00
-5752,99	342,00
-5737,55	379,00
-5722,12	493,00
-5706,73	383,00
-5691,36	375,00
-5676,02	317,00
-5660,71	381,00
-5645,42	316,00
-5630,16	288,00
-5614,92	303,00
-5599,71	386,00
-5584,53	491,00
-5569,37	332,00
-5554,24	-635,00
-5539,14	297,00
-5524,06	258,00
-5509,01	332,00
-5493,98	358,00
-5478,98	246,00
-5464,00	373,00
-5449,05	300,00
-5434,13	296,00
-5419,23	279,00
-5404,36	302,00
-5389,51	309,00
-5374,69	503,00
-5359,89	411,00
-5345,12	465,00
-5330,37	491,00
-5315,65	365,00
-5300,95	279,00
-5286,28	326,00
-5271,63	356,00
-5257,01	278,00
-5242,41	384,00
-5227,84	315,00
-5213,29	150,00
-5198,76	188,00
-5184,26	225,00
-5169,79	147,00
-5155,33	393,00
-5140,91	278,00
-5126,51	355,00
-5112,13	251,00
-5097,77	372,00
-5083,44	262,00
-5069,13	195,00
-5054,85	362,00
-5040,59	365,00
-5026,36	269,00
-5012,15	247,00
-4997,96	380,00
-4983,80	251,00
-4969,66	210,00
-4955,54	236,00
-4941,44	377,00
-4927,37	370,00
-4913,33	528,00
-4899,30	596,00
-4885,30	580,00
-4871,33	280,00
-4857,37	208,00
-4843,44	339,00
-4829,53	236,00
-4815,65	300,00
-4801,79	398,00
-4787,95	352,00
-4774,13	274,00
-4760,34	149,00
-4746,56	179,00
-4732,82	173,00
-4719,09	196,00
-4705,38	373,00
-4691,70	442,00
-4678,04	444,00
-4664,41	378,00
-4650,79	366,00
-4637,20	242,00
-4623,63	200,00
-4610,08	167,00
-4596,56	414,00
-4583,05	327,00
-4569,57	324,00
-4556,11	220,00
-4542,67	265,00
-4529,25	208,00
-4515,86	239,00
-4502,49	291,00
-4489,13	500,00
-4475,80	299,00
-4462,49	375,00
-4449,21	335,00
-4435,94	173,00
-4422,70	208,00
-4409,47	221,00
-4396,27	390,00
-4383,09	178,00
-4369,93	142,00
-4356,79	71,00
-4343,67	312,00
-4330,58	170,00
-4317,50	323,00
-4304,45	325,00
-4291,41	116,00
-4278,40	255,00
-4265,41	163,00
-4252,44	152,00
-4239,49	234,00
-4226,55	173,00
-4213,65	160,00
-4200,76	242,00
-4187,89	133,00
-4175,04	177,00
-4162,21	106,00
-4149,40	148,00
-4136,61	243,00
-4123,85	67,00
-4111,10	66,00
-4098,37	228,00
-4085,66	205,00
-4072,98	217,00
-4060,31	-3,00
-4047,66	169,00
-4035,04	270,00
-4022,43	135,00
-4009,84	66,00
-3997,27	107,00
-3984,72	135,00
-3972,19	187,00
-3959,69	97,00
-3947,20	70,00
-3934,73	76,00
-3922,27	194,00
-3909,84	147,00
-3897,43	110,00
-3885,04	-24,00
-3872,67	72,00
-3860,31	161,00
-3847,98	230,00
-3835,66	58,00
-3823,36	151,00
-3811,09	158,00
-3798,83	160,00
-3786,59	130,00
-3774,37	-25,00
-3762,17	130,00
-3749,98	-5,00
-3737,82	129,00
-3725,67	171,00
-3713,55	154,00
-3701,44	124,00
-3689,35	202,00
-3677,28	203,00
-3665,22	110,00
-3653,19	104,00
-3641,17	76,00
-3629,18	139,00
-3617,20	102,00
-3605,24	94,00
-3593,30	134,00
-3581,37	115,00
-3569,47	94,00
-3557,58	118,00
-3545,71	100,00
-3533,86	102,00
-3522,02	25,00
-3510,21	156,00
-3498,41	50,00
-3486,63	61,00
-3474,87	135,00
-3463,12	154,00
-3451,40	91,00
-3439,69	166,00
-3428,00	120,00
-3416,33	123,00
-3404,67	127,00
-3393,03	120,00
-3381,41	116,00
-3369,81	-24,00
-3358,22	131,00
-3346,66	34,00
-3335,10	83,00
-3323,57	47,00
-3312,06	201,00
-3300,56	74,00
-3289,08	38,00
-3277,61	16,00
-3266,16	28,00
-3254,73	142,00
-3243,32	144,00
-3231,92	134,00
-3220,55	61,00
-3209,18	99,00
-3197,84	97,00
-3186,51	2,00
-3175,20	110,00
-3163,90	-24,00
-3152,63	4,00
-3141,36	88,00
-3130,12	109,00
-3118,89	65,00
-3107,68	153,00
-3096,49	176,00
-3085,31	153,00
-3074,15	106,00
-3063,00	136,00
-3051,87	152,00
-3040,76	130,00
-3029,67	22,00
-3018,59	188,00
-3007,52	199,00
-2996,48	129,00
-2985,44	191,00
-2974,43	227,00
-2963,43	98,00
-2952,45	189,00
-2941,48	153,00
-2930,53	158,00
-2919,60	150,00
-2908,68	254,00
-2897,78	194,00
-2886,89	80,00
-2876,02	151,00
-2865,17	216,00
-2854,33	214,00
-2843,50	159,00
-2832,70	128,00
-2821,90	-3,00
-2811,13	90,00
-2800,37	204,00
-2789,62	148,00
-2778,89	95,00
-2768,18	127,00
-2757,48	91,00
-2746,80	117,00
-2736,13	83,00
-2725,48	178,00
-2714,84	20,00
-2704,22	183,00
-2693,61	104,00
-2683,02	160,00
-2672,45	142,00
-2661,89	71,00
-2651,34	163,00
-2640,81	73,00
-2630,30	181,00
-2619,80	12,00
-2609,31	-25,00
-2598,84	173,00
-2588,39	86,00
-2577,95	119,00
-2567,52	9,00
-2557,11	0,00
-2546,71	109,00
-2536,33	180,00
-2525,97	132,00
-2515,62	279,00
-2505,28	89,00
-2494,96	174,00
-2484,65	185,00
-2474,36	64,00
-2464,08	41,00
-2453,82	170,00
-2443,57	146,00
-2433,33	101,00
-2423,11	80,00
-2412,91	143,00
-2402,72	128,00
-2392,54	-24,00
-2382,38	237,00
-2372,23	121,00
-2362,09	4837,00
-2351,97	85,00
-2341,87	54,00
-2331,78	77,00
-2321,70	149,00
-2311,64	4,00
-2301,59	131,00
-2291,55	175,00
-2281,53	89,00
-2271,53	186,00
-2261,53	130,00
-2251,55	147,00
-2241,59	85,00
-2231,64	119,00
-2221,70	82,00
-2211,78	-11,00
-2201,87	52,00
-2191,97	104,00
-2182,09	31,00
-2172,22	141,00
-2162,37	76,00
-2152,53	110,00
-2142,70	72,00
-2132,89	57,00
-2123,09	102,00
-2113,30	154,00
-2103,53	99,00
-2093,77	18,00
-2084,02	101,00
-2074,29	119,00
-2064,57	174,00
-2054,86	-20,00
-2045,17	178,00
-2035,49	206,00
-2025,82	122,00
-2016,17	257,00
-2006,53	72,00
-1996,91	123,00
-1987,29	143,00
-1977,69	46,00
-1968,11	23,00
-1958,53	22,00
-1948,97	116,00
-1939,42	195,00
-1929,89	103,00
-1920,37	141,00
-1910,86	1,00
-1901,36	46,00
-1891,88	82,00
-1882,41	94,00
-1872,95	29,00
-1863,51	117,00
-1854,08	115,00
-1844,66	99,00
-1835,26	124,00
-1825,86	55,00
-1816,48	47,00
-1807,11	196,00
-1797,76	146,00
-1788,42	89,00
-1779,09	70,00
-1769,77	-45,00
-1760,47	201,00
-1751,17	74,00
-1741,89	71,00
-1732,63	163,00
-1723,37	42,00
-1714,13	125,00
-1704,90	89,00
-1695,68	144,00
-1686,48	2,00
-1677,29	52,00
-1668,11	215,00
-1658,94	48,00
-1649,78	151,00
-1640,64	205,00
-1631,51	19,00
-1622,39	82,00
-1613,28	75,00
-1604,19	118,00
-1595,10	115,00
-1586,03	119,00
-1576,97	104,00
-1567,93	88,00
-1558,89	267,00
-1549,87	120,00
-1540,86	8,00
-1531,86	189,00
-1522,87	103,00
-1513,90	115,00
-1504,93	148,00
-1495,98	152,00
-1487,04	-16,00
-1478,12	135,00
-1469,20	254,00
-1460,30	59,00
-1451,40	150,00
-1442,52	45,00
-1433,65	198,00
-1424,80	8,00
-1415,95	95,00
-1407,12	175,00
-1398,30	154,00
-1389,48	139,00
-1380,69	52,00
-1371,90	134,00
-1363,12	83,00
-1354,36	203,00
-1345,60	135,00
-1336,86	61,00
-1328,13	60,00
-1319,41	79,00
-1310,70	181,00
-1302,01	30,00
-1293,32	29,00
-1284,65	194,00
-1275,99	123,00
-1267,33	145,00
-1258,69	223,00
-1250,06	118,00
-1241,45	104,00
-1232,84	138,00
-1224,25	112,00
-1215,66	295,00
-1207,09	106,00
-1198,53	202,00
-1189,97	137,00
-1181,43	157,00
-1172,91	89,00
-1164,39	65,00
-1155,88	156,00
-1147,38	8,00
-1138,90	84,00
-1130,43	121,00
-1121,96	137,00
-1113,51	140,00
-1105,07	250,00
-1096,64	170,00
-1088,22	134,00
-1079,81	126,00
-1071,41	158,00
-1063,02	225,00
-1054,65	123,00
-1046,28	98,00
-1037,92	39,00
-1029,58	82,00
-1021,24	158,00
-1012,92	98,00
-1004,61	107,00
-996,30	83,00
-988,01	98,00
-979,73	199,00
-971,46	162,00
-963,20	92,00
-954,95	28,00
-946,71	162,00
-938,48	147,00
-930,26	181,00
-922,06	214,00
-913,86	118,00
-905,67	61,00
-897,49	200,00
-889,33	-3,00
-881,17	198,00
-873,02	188,00
-864,89	136,00
-856,76	138,00
-848,65	103,00
-840,54	59,00
-832,45	134,00
-824,36	30,00
-816,29	99,00
-808,22	94,00
-800,17	152,00
-792,12	71,00
-784,09	161,00
-776,06	130,00
-768,05	132,00
-760,04	35,00
-752,05	204,00
-744,07	85,00
-736,09	125,00
-728,13	-29,00
-720,17	242,00
-712,23	124,00
-704,29	139,00
-696,37	211,00
-688,45	98,00
-680,55	103,00
-672,65	201,00
-664,77	225,00
-656,89	116,00
-649,03	150,00
-641,17	129,00
-633,32	173,00
-625,49	153,00
-617,66	233,00
-609,84	182,00
-602,03	87,00
-594,23	313,00
-586,45	39,00
-578,67	90,00
-570,90	206,00
-563,14	89,00
-555,39	25,00
-547,65	270,00
-539,91	137,00
-532,19	49,00
-524,48	91,00
-516,78	56,00
-509,08	156,00
-501,40	64,00
-493,72	220,00
-486,06	94,00
-478,40	114,00
-470,76	181,00
-463,12	192,00
-455,49	184,00
-447,87	140,00
-440,26	211,00
-432,66	235,00
-425,07	195,00
-417,49	34,00
-409,92	256,00
-402,35	190,00
-394,80	139,00
-387,25	112,00
-379,72	180,00
-372,19	191,00
-364,67	181,00
-357,17	163,00
-349,67	279,00
-342,18	99,00
-334,69	301,00
-327,22	172,00
-319,76	168,00
-312,30	329,00
-304,86	235,00
-297,42	121,00
-290,00	249,00
-282,58	128,00
-275,17	217,00
-267,77	191,00
-260,37	312,00
-252,99	160,00
-245,62	387,00
-238,25	237,00
-230,90	258,00
-223,55	336,00
-216,21	290,00
-208,88	296,00
-201,56	500,00
-194,25	343,00
-186,94	556,00
-179,65	520,00
-172,36	607,00
-165,08	669,00
-157,81	766,00
-150,55	845,00
-143,30	657,00
-136,06	912,00
-128,82	945,00
-121,60	1114,00
-114,38	1260,00
-107,17	1423,00
-99,97	1451,00
-92,78	1782,00
-85,60	2056,00
-78,42	2201,00
-71,25	2644,00
-64,10	3080,00
-56,95	3565,00
-49,81	4247,00
-42,67	5201,00
-35,55	6657,00
-28,43	8682,00
-21,33	14847,00
-14,23	49740,00
-7,14	55138,00
-0,05	54843,00
7,02	54480,00
14,09	54841,00
21,14	36742,00
28,19	16607,00
35,23	10630,00
42,27	7847,00
49,29	6606,00
56,31	5430,00
63,32	4497,00
70,32	3702,00
77,31	3112,00
84,29	2736,00
91,27	2455,00
98,23	2127,00
105,19	1953,00
112,14	1869,00
119,09	2098,00
126,02	2372,00
132,95	2404,00
139,87	2313,00
146,78	2193,00
153,68	2140,00
160,58	1996,00
167,46	1985,00
174,34	1924,00
181,21	1884,00
188,08	1881,00
194,93	1878,00
201,78	1732,00
208,62	1715,00
215,45	1634,00
222,27	1639,00
229,09	1594,00
235,90	1742,00
242,70	1519,00
249,49	1642,00
256,27	1602,00
263,05	1571,00
269,82	1525,00
276,58	1520,00
283,33	1443,00
290,08	1553,00
296,82	1437,00
303,55	1333,00
310,27	1412,00
316,98	1424,00
323,69	1398,00
330,39	1340,00
337,08	1396,00
343,76	1286,00
350,44	1387,00
357,11	1263,00
363,77	1357,00
370,42	1230,00
377,07	1257,00
383,71	1131,00
390,34	1224,00
396,96	1281,00
403,58	1360,00
410,19	1397,00
416,79	1397,00
423,38	1391,00
429,97	1281,00
436,55	1171,00
443,12	1052,00
449,68	1082,00
456,24	1136,00
462,79	1098,00
469,33	989,00
475,86	1077,00
482,39	997,00
488,91	1181,00
495,42	1054,00
501,93	1023,00
508,42	1005,00
514,91	1011,00
521,40	913,00
527,87	949,00
534,34	931,00
540,80	1068,00
547,25	925,00
553,70	940,00
560,14	1043,00
566,57	951,00
573,00	992,00
579,41	940,00
585,83	911,00
592,23	1089,00
598,62	995,00
605,01	811,00
611,40	981,00
617,77	971,00
624,14	955,00
630,50	942,00
636,85	893,00
643,20	861,00
649,54	929,00
655,87	861,00
662,20	811,00
668,52	818,00
674,83	906,00
681,13	893,00
687,43	881,00
693,72	925,00
700,00	901,00
706,28	838,00
712,55	863,00
718,81	981,00
725,07	820,00
731,32	821,00
737,56	929,00
743,79	921,00
750,02	806,00
756,24	900,00
762,46	882,00
768,67	885,00
774,87	861,00
781,06	922,00
787,25	865,00
793,43	880,00
799,60	808,00
805,77	917,00
811,93	968,00
818,08	869,00
824,23	977,00
830,37	1006,00
836,50	954,00
842,63	804,00
848,75	947,00
854,87	952,00
860,97	883,00
867,07	811,00
873,17	966,00
879,25	929,00
885,33	871,00
891,41	803,00
897,47	801,00
903,53	785,00
909,59	903,00
915,63	849,00
921,67	689,00
927,71	858,00
933,74	723,00
939,76	820,00
945,77	699,00
951,78	689,00
957,78	678,00
963,78	678,00
969,77	678,00
975,75	738,00
981,72	729,00
987,69	668,00
993,66	653,00
999,61	794,00
1005,56	705,00
1011,51	765,00
1017,44	681,00
1023,37	794,00
1029,30	798,00
1035,22	816,00
1041,13	756,00
1047,03	678,00
1052,93	850,00
1058,83	1156,00
1064,71	1202,00
1070,59	1007,00
1076,47	960,00
1082,33	752,00
1088,20	851,00
1094,05	677,00
1099,90	640,00
1105,74	839,00
1111,58	700,00
1117,41	832,00
1123,23	1056,00
1129,05	1107,00
1134,86	901,00
1140,67	853,00
1146,47	790,00
1152,26	722,00
1158,05	723,00
1163,83	760,00
1169,60	673,00
1175,37	640,00
1181,13	739,00
1186,89	634,00
1192,64	575,00
1198,38	777,00
1204,12	730,00
1209,85	624,00
1215,58	640,00
1221,30	656,00
1227,02	622,00
1232,72	689,00
1238,43	679,00
1244,12	727,00
1249,81	648,00
1255,50	653,00
1261,17	686,00
1266,85	762,00
1272,51	799,00
1278,17	705,00
1283,83	932,00
1289,47	1083,00
1295,12	1360,00
1300,75	1224,00
1306,38	1064,00
1312,01	945,00
1317,63	812,00
1323,24	764,00
1328,85	769,00
1334,45	857,00
1340,04	846,00
1345,63	777,00
1351,22	860,00
1356,80	865,00
1362,37	858,00
1367,93	944,00
1373,49	898,00
1379,05	862,00
1384,60	893,00
1390,14	815,00
1395,68	803,00
1401,21	805,00
1406,74	933,00
1412,26	890,00
1417,77	1125,00
1423,28	1004,00
1428,78	1215,00
1434,28	1371,00
1439,77	1479,00
1445,26	1475,00
1450,74	1366,00
1456,22	1216,00
1461,68	1148,00
1467,15	1225,00
1472,61	965,00
1478,06	1062,00
1483,51	784,00
1488,95	899,00
1494,38	697,00
1499,81	783,00
1505,24	797,00
1510,65	686,00
1516,07	631,00
1521,48	807,00
1526,88	722,00
1532,27	654,00
1537,67	667,00
1543,05	696,00
1548,43	797,00
1553,81	665,00
1559,18	583,00
1564,54	631,00
1569,90	639,00
1575,25	594,00
1580,60	564,00
1585,94	608,00
1591,28	539,00
1596,61	623,00
1601,93	653,00
1607,25	573,00
1612,57	651,00
1617,88	703,00
1623,18	610,00
1628,48	666,00
1633,77	574,00
1639,06	648,00
1644,34	710,00
1649,62	688,00
1654,89	559,00
1660,16	583,00
1665,42	609,00
1670,67	592,00
1675,92	652,00
1681,17	705,00
1686,41	610,00
1691,64	513,00
1696,87	621,00
1702,10	552,00
1707,32	543,00
1712,53	495,00
1717,74	494,00
1722,94	556,00
1728,14	561,00
1733,33	551,00
1738,52	504,00
1743,70	548,00
1748,88	510,00
1754,05	496,00
1759,22	407,00
1764,38	2005,00
1769,53	505,00
1774,69	598,00
1779,83	368,00
1784,97	517,00
1790,11	479,00
1795,24	418,00
1800,36	314,00
1805,48	603,00
1810,60	443,00
1815,71	431,00
1820,82	369,00
1825,92	402,00
1831,01	522,00
1836,10	442,00
1841,19	199,00
1846,26	523,00
1851,34	379,00
1856,41	449,00
1861,47	415,00
1866,53	415,00
1871,59	442,00
1876,64	513,00
1881,68	491,00
1886,72	441,00
1891,76	630,00
1896,79	401,00
1901,81	389,00
1906,83	404,00
1911,85	292,00
1916,86	470,00
1921,86	406,00
1926,86	457,00
1931,86	398,00
1936,85	388,00
1941,83	461,00
1946,81	363,00
1951,79	499,00
1956,76	369,00
1961,72	430,00
1966,68	332,00
1971,64	394,00
1976,59	343,00
1981,54	440,00
1986,48	309,00
1991,42	402,00
1996,35	367,00
2001,27	334,00
2006,20	312,00
2011,11	428,00
2016,03	281,00
2020,93	403,00
2025,84	279,00
2030,73	332,00
2035,63	387,00
2040,52	426,00
2045,40	306,00
2050,28	281,00
2055,15	333,00
2060,02	275,00
2064,89	299,00
2069,75	364,00
2074,60	272,00
2079,46	299,00
2084,30	273,00
2089,14	395,00
2093,98	385,00
2098,81	256,00
2103,64	227,00
2108,46	402,00
2113,28	346,00
2118,09	323,00
2122,90	283,00
2127,70	319,00
2132,50	262,00
2137,30	304,00
2142,09	333,00
2146,87	284,00
2151,66	254,00
2156,43	392,00
2161,20	205,00
2165,97	256,00
2170,73	362,00
2175,49	367,00
2180,24	296,00
2184,99	342,00
2189,74	340,00
2194,48	349,00
2199,21	168,00
2203,94	368,00
2208,67	401,00
2213,39	346,00
2218,11	394,00
2222,82	255,00
2227,53	265,00
2232,23	411,00
2236,93	223,00
2241,63	326,00
2246,32	283,00
2251,00	218,00
2255,68	307,00
2260,36	254,00
2265,03	331,00
2269,70	284,00
2274,36	289,00
2279,02	152,00
2283,68	311,00
2288,33	308,00
2292,97	224,00
2297,61	239,00
2302,25	224,00
2306,88	298,00
2311,51	181,00
2316,14	282,00
2320,75	292,00
2325,37	226,00
2329,98	226,00
2334,59	231,00
2339,19	198,00
2343,79	139,00
2348,38	299,00
2352,97	209,00
2357,55	329,00
2362,13	279,00
2366,71	263,00
2371,28	138,00
2375,85	240,00
2380,41	190,00
2384,97	338,00
2389,52	260,00
2394,07	276,00
2398,62	265,00
2403,16	272,00
2407,70	348,00
2412,23	312,00
2416,76	228,00
2421,29	266,00
2425,81	246,00
2430,32	502,00
2434,84	266,00
2439,34	197,00
2443,85	290,00
2448,35	149,00
2452,84	243,00
2457,33	228,00
2461,82	233,00
2466,30	180,00
2470,78	312,00
2475,25	233,00
2479,72	269,00
2484,19	191,00
2488,65	257,00
2493,11	335,00
2497,56	316,00
2502,01	173,00
2506,46	211,00
2510,90	316,00
2515,34	250,00
2519,77	268,00
2524,20	255,00
2528,62	283,00
2533,04	155,00
2537,46	243,00
2541,87	144,00
2546,28	233,00
2550,68	229,00
2555,08	246,00
2559,48	332,00
2563,87	255,00
2568,26	183,00
2572,64	225,00
2577,02	208,00
2581,40	208,00
2585,77	239,00
2590,14	208,00
2594,50	150,00
2598,86	246,00
2603,22	215,00
2607,57	138,00
2611,92	231,00
2616,26	318,00
2620,60	197,00
2624,94	227,00
2629,27	226,00
2633,60	232,00
2637,92	338,00
2642,24	174,00
2646,56	184,00
2650,87	223,00
2655,18	318,00
2659,48	195,00
2663,78	249,00
2668,08	200,00
2672,37	180,00
2676,66	209,00
2680,95	254,00
2685,23	145,00
2689,50	251,00
2693,78	219,00
2698,05	213,00
2702,31	199,00
2706,57	257,00
2710,83	265,00
2715,08	185,00
2719,33	213,00
2723,58	437,00
2727,82	268,00
2732,06	410,00
2736,29	327,00
2740,53	363,00
2744,75	172,00
2748,97	139,00
2753,19	115,00
2757,41	418,00
2761,62	127,00
2765,83	192,00
2770,03	248,00
2774,23	236,00
2778,43	243,00
2782,62	330,00
2786,81	344,00
2791,00	367,00
2795,18	282,00
2799,35	295,00
2803,53	264,00
2807,70	320,00
2811,86	377,00
2816,03	309,00
2820,19	470,00
2824,34	446,00
2828,49	497,00
2832,64	580,00
2836,78	628,00
2840,92	738,00
2845,06	868,00
2849,19	1064,00
2853,32	1114,00
2857,45	1065,00
2861,57	972,00
2865,69	908,00
2869,80	1034,00
2873,91	1055,00
2878,02	1122,00
2882,12	1146,00
2886,22	1168,00
2890,32	1166,00
2894,41	1057,00
2898,50	881,00
2902,58	936,00
2906,67	847,00
2910,74	938,00
2914,82	782,00
2918,89	697,00
2922,96	669,00
2927,02	634,00
2931,08	581,00
2935,13	547,00
2939,19	594,00
2943,24	563,00
2947,28	458,00
2951,32	415,00
2955,36	482,00
2959,40	269,00
2963,43	330,00
2967,46	389,00
2971,48	312,00
2975,50	235,00
2979,52	278,00
2983,53	250,00
2987,54	217,00
2991,55	157,00
2995,55	219,00
2999,55	286,00
3003,54	174,00
3007,54	209,00
3011,53	199,00
3015,51	291,00
3019,49	159,00
3023,47	197,00
3027,45	166,00
3031,42	122,00
3035,39	210,00
3039,35	210,00
3043,31	239,00
3047,27	141,00
3051,22	187,00
3055,17	75,00
3059,12	183,00
3063,06	52,00
3067,00	265,00
3070,94	214,00
3074,87	246,00
3078,80	141,00
3082,73	172,00
3086,65	90,00
3090,57	50,00
3094,49	125,00
3098,40	243,00
3102,31	194,00
3106,22	110,00
3110,12	242,00
3114,02	219,00
3117,92	127,00
3121,81	173,00
3125,70	202,00
3129,58	157,00
3133,47	215,00
3137,34	34,00
3141,22	14,00
3145,09	139,00
3148,96	175,00
3152,83	-23,00
3156,69	259,00
3160,55	111,00
3164,40	171,00
3168,26	217,00
3172,10	224,00
3175,95	143,00
3179,79	196,00
3183,63	202,00
3187,47	214,00
3191,30	231,00
3195,13	141,00
3198,95	151,00
3202,78	109,00
3206,60	33,00
3210,41	197,00
3214,23	217,00
3218,03	272,00
3221,84	193,00
3225,64	268,00
3229,44	242,00
3233,24	140,00
3237,03	201,00
3240,82	198,00
3244,61	72,00
3248,39	222,00
3252,17	83,00
3255,95	190,00
3259,72	234,00
3263,49	244,00
3267,26	215,00
3271,03	100,00
3274,79	81,00
3278,54	158,00
3282,30	159,00
3286,05	145,00
3289,80	137,00
3293,54	263,00
3297,29	232,00
3301,02	21,00
3304,76	137,00
3308,49	157,00
3312,22	102,00
3315,95	149,00
3319,67	47,00
3323,39	185,00
3327,10	149,00
3330,82	185,00
3334,53	175,00
3338,24	74,00
3341,94	111,00
3345,64	116,00
3349,34	103,00
3353,03	157,00
3356,72	163,00
3360,41	166,00
3364,10	159,00
3367,78	77,00
3371,46	113,00
3375,13	68,00
3378,81	23,00
3382,48	69,00
3386,14	120,00
3389,81	145,00
3393,47	172,00
3397,12	195,00
3400,78	215,00
3404,43	149,00
3408,08	139,00
3411,72	165,00
3415,36	119,00
3419,00	217,00
3422,64	27,00
3426,27	189,00
3429,90	120,00
3433,53	121,00
3437,15	32,00
3440,77	138,00
3444,39	80,00
3448,00	84,00
3451,62	141,00
3455,22	98,00
3458,83	131,00
3462,43	48,00
3466,03	-2,00
3469,63	171,00
3473,22	119,00
3476,81	84,00
3480,40	5,00
3483,99	77,00
3487,57	164,00
3491,15	71,00
3494,72	139,00
3498,29	125,00
3501,86	164,00
3505,43	110,00
3508,99	116,00
3512,56	182,00
3516,11	2,00
3519,67	64,00
3523,22	70,00
3526,77	182,00
3530,32	281,00
3533,86	193,00
3537,40	79,00
3540,94	18,00
3544,47	74,00
3548,00	132,00
3551,53	102,00
3555,06	96,00
3558,58	141,00
3562,10	149,00
3565,62	67,00
3569,13	82,00
3572,64	103,00
3576,15	100,00
3579,66	94,00
3583,16	185,00
3586,66	134,00
3590,16	226,00
3593,65	149,00
3597,14	174,00
3600,63	-50,00
3604,11	181,00
3607,60	130,00
3611,08	-6,00
3614,55	104,00
3618,03	158,00
3621,50	220,00
3624,97	76,00
3628,43	112,00
3631,90	147,00
3635,36	113,00
3638,81	143,00
3642,27	129,00
3645,72	44,00
3649,17	10,00
3652,61	52,00
3656,06	170,00
3659,50	61,00
3662,93	23,00
3666,37	74,00
3669,80	104,00
3673,23	82,00
3676,65	239,00
3680,08	144,00
3683,50	149,00
3686,92	125,00
3690,33	76,00
3693,74	-8,00
3697,15	58,00
3700,56	213,00
3703,96	164,00
3707,36	18,00
3710,76	91,00
3714,16	-41,00
3717,55	164,00
3720,94	3,00
3724,33	160,00
3727,71	179,00
3731,10	89,00
3734,48	49,00
3737,85	81,00
3741,23	112,00
3744,60	27,00
3747,97	80,00
3751,33	46,00
3754,69	27,00
3758,05	57,00
3761,41	-27,00
3764,77	51,00
3768,12	118,00
3771,47	90,00
3774,82	107,00
3778,16	-8,00
3781,50	2,00
3784,84	-4,00
3788,18	7,00
>>>>>End Processed Spectral Data<<<<<
