SpectraSuite Data File
++++++++++++++++++++++++++++++++++++
Date: Tue Mar 03 11:13:52 ICT 2026
User: user
Dark Spectrum Present: Yes
Reference Spectrum Present: No
Number of Sampled Component Spectra: 1
Spectrometers: MAYP113682
Integration Time (usec): 3000000 (MAYP113682)
Spectra Averaged: 1 (MAYP113682)
Boxcar Smoothing: 0 (MAYP113682)
Correct for Electrical Dark: No (MAYP113682)
Strobe/Lamp Enabled: No (MAYP113682)
Correct for Detector Non-linearity: No (MAYP113682)
Correct for Stray Light: No (MAYP113682)
Number of Pixels in Processed Spectrum: 2068
>>>>>Begin Processed Spectral Data<<<<<
-37534,58	0,00
-37414,56	-11,00
-37295,11	3,00
-37176,24	3,00
-37057,95	82,00
-36940,22	121,00
-36823,05	13,00
-36706,45	29,00
-36590,40	-25,00
-36474,90	146,00
-36359,95	-21,00
-36245,55	75,00
-36131,68	122,00
-36018,35	99,00
-35905,55	153,00
-35793,29	99,00
-35681,54	122,00
-35570,32	54,00
-35459,62	190,00
-35349,43	28,00
-35239,75	21,00
-35130,58	144,00
-35021,91	92,00
-34913,74	233,00
-34806,07	74,00
-34698,89	118,00
-34592,20	83,00
-34486,00	41,00
-34380,28	122,00
-34275,04	59,00
-34170,27	102,00
-34065,98	159,00
-33962,16	33,00
-33858,81	98,00
-33755,92	166,00
-33653,49	106,00
-33551,52	101,00
-33450,01	81,00
-33348,94	201,00
-33248,33	-1,00
-33148,16	86,00
-33048,43	143,00
-32949,14	123,00
-32850,29	130,00
-32751,87	40,00
-32653,89	49,00
-32556,33	205,00
-32459,20	131,00
-32362,49	100,00
-32266,19	151,00
-32170,32	19,00
-32074,86	47,00
-31979,82	58,00
-31885,18	177,00
-31790,95	255,00
-31697,12	-63,00
-31603,69	146,00
-31510,67	216,00
-31418,04	85,00
-31325,80	84,00
-31233,95	-16,00
-31142,49	85,00
-31051,42	76,00
-30960,73	180,00
-30870,43	188,00
-30780,50	62,00
-30690,95	103,00
-30601,77	279,00
-30512,97	103,00
-30424,53	126,00
-30336,46	112,00
-30248,76	125,00
-30161,42	187,00
-30074,44	17,00
-29987,81	95,00
-29901,55	110,00
-29815,63	22,00
-29730,07	115,00
-29644,86	38,00
-29560,00	59,00
-29475,48	160,00
-29391,30	141,00
-29307,47	86,00
-29223,97	109,00
-29140,81	103,00
-29057,99	160,00
-28975,50	182,00
-28893,34	144,00
-28811,51	41,00
-28730,00	78,00
-28648,82	111,00
-28567,97	-3,00
-28487,43	192,00
-28407,21	155,00
-28327,32	179,00
-28247,73	31,00
-28168,46	33,00
-28089,50	44,00
-28010,85	177,00
-27932,51	68,00
-27854,48	99,00
-27776,75	97,00
-27699,32	-36,00
-27622,19	107,00
-27545,37	87,00
-27468,84	116,00
-27392,60	75,00
-27316,66	26,00
-27241,01	78,00
-27165,66	177,00
-27090,59	58,00
-27015,81	68,00
-26941,31	109,00
-26867,10	116,00
-26793,17	79,00
-26719,52	4,00
-26646,15	69,00
-26573,06	21,00
-26500,24	49,00
-26427,70	48,00
-26355,43	121,00
-26283,43	49,00
-26211,71	130,00
-26140,25	176,00
-26069,06	127,00
-25998,13	174,00
-25927,46	57,00
-25857,06	134,00
-25786,92	136,00
-25717,04	99,00
-25647,42	115,00
-25578,05	132,00
-25508,94	67,00
-25440,09	139,00
-25371,48	72,00
-25303,13	229,00
-25235,02	100,00
-25167,17	46,00
-25099,56	147,00
-25032,19	55,00
-24965,07	71,00
-24898,20	68,00
-24831,56	104,00
-24765,17	168,00
-24699,01	129,00
-24633,10	199,00
-24567,41	67,00
-24501,97	169,00
-24436,75	170,00
-24371,77	130,00
-24307,03	81,00
-24242,51	159,00
-24178,22	130,00
-24114,16	28,00
-24050,32	150,00
-23986,71	81,00
-23923,32	132,00
-23860,16	142,00
-23797,22	70,00
-23734,50	85,00
-23672,00	98,00
-23609,71	100,00
-23547,65	147,00
-23485,80	172,00
-23424,16	47,00
-23362,74	90,00
-23301,53	109,00
-23240,54	193,00
-23179,75	90,00
-23119,17	61,00
-23058,80	198,00
-22998,64	131,00
-22938,68	-7,00
-22878,93	-84,00
-22819,39	158,00
-22760,04	105,00
-22700,90	106,00
-22641,96	190,00
-22583,22	71,00
-22524,68	41,00
-22466,33	136,00
-22408,19	-5,00
-22350,23	62,00
-22292,48	109,00
-22234,92	75,00
-22177,55	155,00
-22120,37	141,00
-22063,38	126,00
-22006,58	138,00
-21949,98	181,00
-21893,56	130,00
-21837,33	106,00
-21781,28	220,00
-21725,42	141,00
-21669,74	131,00
-21614,25	70,00
-21558,94	226,00
-21503,81	124,00
-21448,86	81,00
-21394,10	144,00
-21339,51	150,00
-21285,10	29,00
-21230,86	107,00
-21176,81	213,00
-21122,93	108,00
-21069,22	116,00
-21015,69	17,00
-20962,33	162,00
-20909,14	63,00
-20856,13	44,00
-20803,28	222,00
-20750,61	120,00
-20698,10	46,00
-20645,76	27,00
-20593,59	71,00
-20541,59	92,00
-20489,75	38,00
-20438,07	73,00
-20386,56	109,00
-20335,22	247,00
-20284,03	79,00
-20233,01	85,00
-20182,15	107,00
-20131,45	37,00
-20080,91	127,00
-20030,52	189,00
-19980,30	51,00
-19930,23	22,00
-19880,32	57,00
-19830,56	173,00
-19780,96	54,00
-19731,52	225,00
-19682,23	29,00
-19633,09	76,00
-19584,10	45,00
-19535,26	84,00
-19486,58	65,00
-19438,04	146,00
-19389,66	-17,00
-19341,42	180,00
-19293,33	176,00
-19245,39	68,00
-19197,60	146,00
-19149,95	66,00
-19102,45	74,00
-19055,09	35,00
-19007,87	66,00
-18960,80	46,00
-18913,87	68,00
-18867,09	-6,00
-18820,44	265,00
-18773,94	-27,00
-18727,57	228,00
-18681,35	29,00
-18635,26	68,00
-18589,31	169,00
-18543,50	52,00
-18497,83	52,00
-18452,29	124,00
-18406,89	32,00
-18361,63	170,00
-18316,50	202,00
-18271,50	135,00
-18226,63	57,00
-18181,90	160,00
-18137,30	22,00
-18092,84	132,00
-18048,50	53,00
-18004,29	78,00
-17960,22	150,00
-17916,27	97,00
-17872,45	-13,00
-17828,76	46,00
-17785,20	185,00
-17741,77	177,00
-17698,46	21,00
-17655,28	109,00
-17612,22	114,00
-17569,29	94,00
-17526,48	65,00
-17483,79	114,00
-17441,23	135,00
-17398,79	-12,00
-17356,48	162,00
-17314,28	227,00
-17272,21	60,00
-17230,26	178,00
-17188,42	102,00
-17146,71	157,00
-17105,12	67,00
-17063,64	145,00
-17022,28	5,00
-16981,04	2,00
-16939,92	70,00
-16898,91	127,00
-16858,02	43,00
-16817,25	11,00
-16776,59	75,00
-16736,04	138,00
-16695,61	59,00
-16655,29	85,00
-16615,09	13,00
-16574,99	71,00
-16535,01	17,00
-16495,15	8,00
-16455,39	87,00
-16415,74	130,00
-16376,21	61,00
-16336,78	154,00
-16297,46	85,00
-16258,26	105,00
-16219,16	153,00
-16180,17	-10,00
-16141,28	114,00
-16102,51	20,00
-16063,84	55,00
-16025,27	146,00
-15986,82	87,00
-15948,46	92,00
-15910,22	92,00
-15872,07	-3,00
-15834,04	102,00
-15796,10	95,00
-15758,27	240,00
-15720,54	144,00
-15682,91	189,00
-15645,39	142,00
-15607,97	173,00
-15570,64	179,00
-15533,42	42,00
-15496,30	197,00
-15459,28	-26,00
-15422,36	6,00
-15385,54	109,00
-15348,82	120,00
-15312,19	76,00
-15275,66	223,00
-15239,23	168,00
-15202,90	57,00
-15166,67	77,00
-15130,53	96,00
-15094,48	99,00
-15058,54	179,00
-15022,68	91,00
-14986,93	184,00
-14951,26	119,00
-14915,69	45,00
-14880,22	53,00
-14844,84	146,00
-14809,55	65,00
-14774,35	96,00
-14739,25	162,00
-14704,24	109,00
-14669,32	112,00
-14634,49	93,00
-14599,75	99,00
-14565,10	121,00
-14530,55	116,00
-14496,08	145,00
-14461,70	14,00
-14427,41	134,00
-14393,21	88,00
-14359,10	129,00
-14325,07	150,00
-14291,14	137,00
-14257,29	-11,00
-14223,52	226,00
-14189,85	82,00
-14156,26	81,00
-14122,76	24,00
-14089,34	-33,00
-14056,01	164,00
-14022,76	153,00
-13989,60	115,00
-13956,52	119,00
-13923,53	226,00
-13890,62	121,00
-13857,79	-10,00
-13825,05	108,00
-13792,39	144,00
-13759,81	104,00
-13727,31	189,00
-13694,90	22,00
-13662,57	133,00
-13630,31	109,00
-13598,14	15,00
-13566,05	56,00
-13534,05	6,00
-13502,12	79,00
-13470,27	71,00
-13438,50	34,00
-13406,80	57,00
-13375,19	73,00
-13343,66	11,00
-13312,20	203,00
-13280,83	49,00
-13249,53	153,00
-13218,30	80,00
-13187,16	205,00
-13156,09	148,00
-13125,10	31,00
-13094,18	131,00
-13063,34	37,00
-13032,58	97,00
-13001,89	162,00
-12971,28	131,00
-12940,74	77,00
-12910,27	93,00
-12879,88	76,00
-12849,57	145,00
-12819,33	49,00
-12789,16	256,00
-12759,06	88,00
-12729,04	143,00
-12699,09	55,00
-12669,21	49,00
-12639,41	79,00
-12609,68	130,00
-12580,02	74,00
-12550,43	110,00
-12520,91	52,00
-12491,46	60,00
-12462,08	93,00
-12432,77	141,00
-12403,54	87,00
-12374,37	85,00
-12345,27	164,00
-12316,24	123,00
-12287,29	139,00
-12258,40	146,00
-12229,57	201,00
-12200,82	171,00
-12172,14	119,00
-12143,52	78,00
-12114,97	51,00
-12086,49	113,00
-12058,07	77,00
-12029,73	42,00
-12001,44	166,00
-11973,23	154,00
-11945,08	109,00
-11917,00	73,00
-11888,98	38,00
-11861,03	131,00
-11833,15	226,00
-11805,32	151,00
-11777,57	103,00
-11749,88	45,00
-11722,25	139,00
-11694,69	99,00
-11667,19	276,00
-11639,75	74,00
-11612,38	149,00
-11585,07	103,00
-11557,83	62,00
-11530,65	105,00
-11503,53	104,00
-11476,47	146,00
-11449,48	191,00
-11422,54	78,00
-11395,67	26,00
-11368,86	81,00
-11342,11	154,00
-11315,43	5,00
-11288,80	175,00
-11262,23	79,00
-11235,73	158,00
-11209,28	156,00
-11182,90	53,00
-11156,57	135,00
-11130,31	136,00
-11104,10	163,00
-11077,96	51,00
-11051,87	144,00
-11025,84	22,00
-10999,87	-26,00
-10973,96	-63,00
-10948,11	94,00
-10922,31	221,00
-10896,58	70,00
-10870,90	210,00
-10845,28	103,00
-10819,71	169,00
-10794,20	121,00
-10768,75	37,00
-10743,36	145,00
-10718,02	198,00
-10692,74	250,00
-10667,52	153,00
-10642,35	95,00
-10617,24	249,00
-10592,18	240,00
-10567,18	81,00
-10542,23	232,00
-10517,34	192,00
-10492,51	84,00
-10467,72	219,00
-10443,00	197,00
-10418,32	306,00
-10393,70	205,00
-10369,14	138,00
-10344,63	148,00
-10320,17	67,00
-10295,77	226,00
-10271,42	206,00
-10247,12	178,00
-10222,88	195,00
-10198,68	164,00
-10174,54	252,00
-10150,46	233,00
-10126,42	346,00
-10102,44	304,00
-10078,51	265,00
-10054,63	359,00
-10030,80	335,00
-10007,03	448,00
-9983,30	325,00
-9959,63	340,00
-9936,01	335,00
-9912,44	312,00
-9888,92	345,00
-9865,44	450,00
-9842,02	543,00
-9818,65	508,00
-9795,33	486,00
-9772,06	291,00
-9748,84	465,00
-9725,67	597,00
-9702,55	465,00
-9679,47	762,00
-9656,45	694,00
-9633,47	825,00
-9610,55	628,00
-9587,67	906,00
-9564,84	852,00
-9542,06	880,00
-9519,32	920,00
-9496,64	1075,00
-9474,00	1212,00
-9451,41	1049,00
-9428,87	1206,00
-9406,37	1257,00
-9383,92	983,00
-9361,52	1060,00
-9339,17	1127,00
-9316,86	1183,00
-9294,60	1269,00
-9272,38	1355,00
-9250,21	1572,00
-9228,09	1531,00
-9206,01	1485,00
-9183,98	1269,00
-9162,00	1247,00
-9140,06	1005,00
-9118,16	1059,00
-9096,31	1216,00
-9074,51	1085,00
-9052,75	1277,00
-9031,04	1075,00
-9009,37	960,00
-8987,74	872,00
-8966,16	795,00
-8944,63	771,00
-8923,14	702,00
-8901,69	680,00
-8880,29	853,00
-8858,93	835,00
-8837,61	1029,00
-8816,34	1046,00
-8795,11	1101,00
-8773,92	1066,00
-8752,78	1026,00
-8731,68	867,00
-8710,62	747,00
-8689,61	966,00
-8668,63	1130,00
-8647,70	1070,00
-8626,82	1174,00
-8605,97	898,00
-8585,17	875,00
-8564,41	839,00
-8543,69	763,00
-8523,01	655,00
-8502,37	800,00
-8481,78	657,00
-8461,23	878,00
-8440,71	831,00
-8420,24	816,00
-8399,81	959,00
-8379,42	980,00
-8359,08	964,00
-8338,77	791,00
-8318,50	704,00
-8298,27	724,00
-8278,09	785,00
-8257,94	808,00
-8237,83	823,00
-8217,76	914,00
-8197,74	966,00
-8177,75	870,00
-8157,80	802,00
-8137,89	834,00
-8118,02	697,00
-8098,19	842,00
-8078,40	554,00
-8058,65	815,00
-8038,93	753,00
-8019,26	876,00
-7999,62	787,00
-7980,02	734,00
-7960,46	779,00
-7940,94	698,00
-7921,46	711,00
-7902,01	768,00
-7882,60	732,00
-7863,23	669,00
-7843,90	767,00
-7824,61	744,00
-7805,35	882,00
-7786,13	872,00
-7766,95	790,00
-7747,80	893,00
-7728,69	774,00
-7709,62	772,00
-7690,59	741,00
-7671,59	995,00
-7652,63	811,00
-7633,70	911,00
-7614,81	795,00
-7595,96	749,00
-7577,15	671,00
-7558,37	521,00
-7539,62	717,00
-7520,91	671,00
-7502,24	782,00
-7483,60	896,00
-7465,00	907,00
-7446,44	730,00
-7427,91	658,00
-7409,41	548,00
-7390,95	554,00
-7372,53	566,00
-7354,14	548,00
-7335,78	607,00
-7317,46	661,00
-7299,18	657,00
-7280,92	582,00
-7262,71	731,00
-7244,52	752,00
-7226,38	888,00
-7208,26	653,00
-7190,18	682,00
-7172,14	700,00
-7154,12	671,00
-7136,15	861,00
-7118,20	749,00
-7100,29	583,00
-7082,41	988,00
-7064,57	783,00
-7046,76	768,00
-7028,98	771,00
-7011,24	573,00
-6993,53	477,00
-6975,85	423,00
-6958,20	417,00
-6940,59	365,00
-6923,01	424,00
-6905,46	563,00
-6887,94	577,00
-6870,46	-2073,00
-6853,01	875,00
-6835,59	605,00
-6818,21	788,00
-6800,85	674,00
-6783,53	489,00
-6766,24	443,00
-6748,98	325,00
-6731,76	398,00
-6714,56	390,00
-6697,40	324,00
-6680,26	352,00
-6663,16	505,00
-6646,09	533,00
-6629,05	596,00
-6612,05	605,00
-6595,07	625,00
-6578,13	497,00
-6561,21	502,00
-6544,33	522,00
-6527,47	413,00
-6510,65	336,00
-6493,86	345,00
-6477,10	237,00
-6460,36	303,00
-6443,66	467,00
-6426,99	261,00
-6410,35	255,00
-6393,74	420,00
-6377,16	499,00
-6360,61	419,00
-6344,09	423,00
-6327,59	461,00
-6311,13	488,00
-6294,70	418,00
-6278,29	573,00
-6261,92	548,00
-6245,58	711,00
-6229,26	527,00
-6212,97	566,00
-6196,72	480,00
-6180,49	491,00
-6164,29	273,00
-6148,12	217,00
-6131,98	202,00
-6115,86	190,00
-6099,78	167,00
-6083,72	186,00
-6067,69	243,00
-6051,69	170,00
-6035,72	310,00
-6019,78	257,00
-6003,87	502,00
-5987,98	390,00
-5972,12	467,00
-5956,29	531,00
-5940,49	350,00
-5924,71	273,00
-5908,96	115,00
-5893,24	258,00
-5877,55	238,00
-5861,89	274,00
-5846,25	263,00
-5830,64	194,00
-5815,05	147,00
-5799,50	292,00
-5783,97	246,00
-5768,47	223,00
-5752,99	335,00
-5737,55	397,00
-5722,12	485,00
-5706,73	517,00
-5691,36	383,00
-5676,02	316,00
-5660,71	231,00
-5645,42	280,00
-5630,16	146,00
-5614,92	380,00
-5599,71	385,00
-5584,53	416,00
-5569,37	419,00
-5554,24	-583,00
-5539,14	406,00
-5524,06	284,00
-5509,01	327,00
-5493,98	375,00
-5478,98	347,00
-5464,00	254,00
-5449,05	285,00
-5434,13	248,00
-5419,23	241,00
-5404,36	313,00
-5389,51	333,00
-5374,69	404,00
-5359,89	560,00
-5345,12	465,00
-5330,37	587,00
-5315,65	403,00
-5300,95	398,00
-5286,28	256,00
-5271,63	302,00
-5257,01	364,00
-5242,41	232,00
-5227,84	235,00
-5213,29	266,00
-5198,76	148,00
-5184,26	358,00
-5169,79	234,00
-5155,33	139,00
-5140,91	302,00
-5126,51	497,00
-5112,13	332,00
-5097,77	371,00
-5083,44	319,00
-5069,13	239,00
-5054,85	328,00
-5040,59	400,00
-5026,36	337,00
-5012,15	316,00
-4997,96	338,00
-4983,80	221,00
-4969,66	188,00
-4955,54	227,00
-4941,44	251,00
-4927,37	287,00
-4913,33	369,00
-4899,30	404,00
-4885,30	528,00
-4871,33	376,00
-4857,37	243,00
-4843,44	201,00
-4829,53	255,00
-4815,65	188,00
-4801,79	282,00
-4787,95	345,00
-4774,13	185,00
-4760,34	272,00
-4746,56	126,00
-4732,82	207,00
-4719,09	319,00
-4705,38	460,00
-4691,70	533,00
-4678,04	477,00
-4664,41	274,00
-4650,79	298,00
-4637,20	222,00
-4623,63	247,00
-4610,08	325,00
-4596,56	319,00
-4583,05	403,00
-4569,57	364,00
-4556,11	181,00
-4542,67	228,00
-4529,25	51,00
-4515,86	303,00
-4502,49	336,00
-4489,13	479,00
-4475,80	311,00
-4462,49	198,00
-4449,21	154,00
-4435,94	245,00
-4422,70	184,00
-4409,47	305,00
-4396,27	304,00
-4383,09	189,00
-4369,93	167,00
-4356,79	72,00
-4343,67	144,00
-4330,58	288,00
-4317,50	325,00
-4304,45	204,00
-4291,41	260,00
-4278,40	164,00
-4265,41	81,00
-4252,44	58,00
-4239,49	391,00
-4226,55	273,00
-4213,65	151,00
-4200,76	152,00
-4187,89	142,00
-4175,04	202,00
-4162,21	186,00
-4149,40	211,00
-4136,61	110,00
-4123,85	100,00
-4111,10	123,00
-4098,37	179,00
-4085,66	154,00
-4072,98	155,00
-4060,31	156,00
-4047,66	257,00
-4035,04	224,00
-4022,43	137,00
-4009,84	256,00
-3997,27	199,00
-3984,72	67,00
-3972,19	21,00
-3959,69	59,00
-3947,20	-22,00
-3934,73	119,00
-3922,27	14,00
-3909,84	46,00
-3897,43	136,00
-3885,04	58,00
-3872,67	97,00
-3860,31	165,00
-3847,98	170,00
-3835,66	87,00
-3823,36	147,00
-3811,09	70,00
-3798,83	166,00
-3786,59	203,00
-3774,37	206,00
-3762,17	131,00
-3749,98	122,00
-3737,82	126,00
-3725,67	125,00
-3713,55	102,00
-3701,44	-11,00
-3689,35	95,00
-3677,28	144,00
-3665,22	56,00
-3653,19	159,00
-3641,17	61,00
-3629,18	119,00
-3617,20	139,00
-3605,24	126,00
-3593,30	131,00
-3581,37	97,00
-3569,47	311,00
-3557,58	200,00
-3545,71	99,00
-3533,86	136,00
-3522,02	77,00
-3510,21	148,00
-3498,41	174,00
-3486,63	34,00
-3474,87	157,00
-3463,12	129,00
-3451,40	170,00
-3439,69	-9,00
-3428,00	155,00
-3416,33	11,00
-3404,67	107,00
-3393,03	75,00
-3381,41	112,00
-3369,81	194,00
-3358,22	197,00
-3346,66	53,00
-3335,10	154,00
-3323,57	-20,00
-3312,06	111,00
-3300,56	25,00
-3289,08	76,00
-3277,61	152,00
-3266,16	132,00
-3254,73	110,00
-3243,32	80,00
-3231,92	100,00
-3220,55	57,00
-3209,18	58,00
-3197,84	96,00
-3186,51	19,00
-3175,20	89,00
-3163,90	154,00
-3152,63	56,00
-3141,36	95,00
-3130,12	197,00
-3118,89	16,00
-3107,68	138,00
-3096,49	178,00
-3085,31	166,00
-3074,15	32,00
-3063,00	172,00
-3051,87	168,00
-3040,76	139,00
-3029,67	60,00
-3018,59	68,00
-3007,52	166,00
-2996,48	65,00
-2985,44	228,00
-2974,43	47,00
-2963,43	118,00
-2952,45	186,00
-2941,48	259,00
-2930,53	196,00
-2919,60	151,00
-2908,68	233,00
-2897,78	140,00
-2886,89	123,00
-2876,02	172,00
-2865,17	113,00
-2854,33	154,00
-2843,50	115,00
-2832,70	88,00
-2821,90	111,00
-2811,13	57,00
-2800,37	101,00
-2789,62	305,00
-2778,89	124,00
-2768,18	77,00
-2757,48	105,00
-2746,80	134,00
-2736,13	105,00
-2725,48	84,00
-2714,84	72,00
-2704,22	60,00
-2693,61	179,00
-2683,02	51,00
-2672,45	17,00
-2661,89	112,00
-2651,34	183,00
-2640,81	-14,00
-2630,30	201,00
-2619,80	85,00
-2609,31	235,00
-2598,84	182,00
-2588,39	114,00
-2577,95	106,00
-2567,52	98,00
-2557,11	67,00
-2546,71	77,00
-2536,33	230,00
-2525,97	91,00
-2515,62	164,00
-2505,28	68,00
-2494,96	92,00
-2484,65	167,00
-2474,36	232,00
-2464,08	108,00
-2453,82	126,00
-2443,57	79,00
-2433,33	51,00
-2423,11	173,00
-2412,91	141,00
-2402,72	49,00
-2392,54	168,00
-2382,38	150,00
-2372,23	178,00
-2362,09	-4652,00
-2351,97	186,00
-2341,87	73,00
-2331,78	21,00
-2321,70	56,00
-2311,64	97,00
-2301,59	150,00
-2291,55	105,00
-2281,53	207,00
-2271,53	36,00
-2261,53	62,00
-2251,55	43,00
-2241,59	100,00
-2231,64	216,00
-2221,70	32,00
-2211,78	85,00
-2201,87	71,00
-2191,97	236,00
-2182,09	160,00
-2172,22	171,00
-2162,37	35,00
-2152,53	91,00
-2142,70	96,00
-2132,89	78,00
-2123,09	26,00
-2113,30	144,00
-2103,53	157,00
-2093,77	98,00
-2084,02	82,00
-2074,29	147,00
-2064,57	-32,00
-2054,86	190,00
-2045,17	75,00
-2035,49	-85,00
-2025,82	286,00
-2016,17	181,00
-2006,53	138,00
-1996,91	119,00
-1987,29	102,00
-1977,69	162,00
-1968,11	169,00
-1958,53	25,00
-1948,97	103,00
-1939,42	173,00
-1929,89	93,00
-1920,37	54,00
-1910,86	137,00
-1901,36	205,00
-1891,88	89,00
-1882,41	36,00
-1872,95	100,00
-1863,51	127,00
-1854,08	88,00
-1844,66	227,00
-1835,26	97,00
-1825,86	43,00
-1816,48	179,00
-1807,11	1,00
-1797,76	80,00
-1788,42	101,00
-1779,09	87,00
-1769,77	10,00
-1760,47	139,00
-1751,17	115,00
-1741,89	57,00
-1732,63	-6,00
-1723,37	45,00
-1714,13	134,00
-1704,90	-24,00
-1695,68	283,00
-1686,48	139,00
-1677,29	189,00
-1668,11	181,00
-1658,94	112,00
-1649,78	68,00
-1640,64	105,00
-1631,51	106,00
-1622,39	111,00
-1613,28	40,00
-1604,19	194,00
-1595,10	4,00
-1586,03	87,00
-1576,97	92,00
-1567,93	26,00
-1558,89	120,00
-1549,87	180,00
-1540,86	-37,00
-1531,86	15,00
-1522,87	181,00
-1513,90	240,00
-1504,93	1,00
-1495,98	95,00
-1487,04	200,00
-1478,12	28,00
-1469,20	128,00
-1460,30	238,00
-1451,40	126,00
-1442,52	49,00
-1433,65	127,00
-1424,80	143,00
-1415,95	129,00
-1407,12	206,00
-1398,30	76,00
-1389,48	166,00
-1380,69	90,00
-1371,90	61,00
-1363,12	137,00
-1354,36	129,00
-1345,60	207,00
-1336,86	213,00
-1328,13	219,00
-1319,41	103,00
-1310,70	94,00
-1302,01	14,00
-1293,32	28,00
-1284,65	64,00
-1275,99	21,00
-1267,33	7,00
-1258,69	101,00
-1250,06	113,00
-1241,45	160,00
-1232,84	187,00
-1224,25	122,00
-1215,66	80,00
-1207,09	0,00
-1198,53	150,00
-1189,97	147,00
-1181,43	131,00
-1172,91	108,00
-1164,39	154,00
-1155,88	23,00
-1147,38	41,00
-1138,90	157,00
-1130,43	72,00
-1121,96	-24,00
-1113,51	-46,00
-1105,07	51,00
-1096,64	130,00
-1088,22	139,00
-1079,81	177,00
-1071,41	121,00
-1063,02	57,00
-1054,65	65,00
-1046,28	-95,00
-1037,92	128,00
-1029,58	97,00
-1021,24	185,00
-1012,92	97,00
-1004,61	47,00
-996,30	176,00
-988,01	161,00
-979,73	31,00
-971,46	83,00
-963,20	77,00
-954,95	185,00
-946,71	92,00
-938,48	172,00
-930,26	70,00
-922,06	92,00
-913,86	42,00
-905,67	27,00
-897,49	-5,00
-889,33	103,00
-881,17	143,00
-873,02	30,00
-864,89	21,00
-856,76	158,00
-848,65	165,00
-840,54	187,00
-832,45	-85,00
-824,36	94,00
-816,29	156,00
-808,22	102,00
-800,17	207,00
-792,12	144,00
-784,09	214,00
-776,06	93,00
-768,05	121,00
-760,04	203,00
-752,05	141,00
-744,07	112,00
-736,09	79,00
-728,13	183,00
-720,17	217,00
-712,23	147,00
-704,29	35,00
-696,37	-3,00
-688,45	194,00
-680,55	168,00
-672,65	121,00
-664,77	7,00
-656,89	145,00
-649,03	118,00
-641,17	88,00
-633,32	111,00
-625,49	128,00
-617,66	-66,00
-609,84	140,00
-602,03	103,00
-594,23	44,00
-586,45	216,00
-578,67	178,00
-570,90	107,00
-563,14	53,00
-555,39	192,00
-547,65	71,00
-539,91	123,00
-532,19	132,00
-524,48	105,00
-516,78	165,00
-509,08	191,00
-501,40	94,00
-493,72	145,00
-486,06	195,00
-478,40	168,00
-470,76	143,00
-463,12	110,00
-455,49	142,00
-447,87	45,00
-440,26	186,00
-432,66	260,00
-425,07	129,00
-417,49	94,00
-409,92	114,00
-402,35	183,00
-394,80	210,00
-387,25	61,00
-379,72	219,00
-372,19	185,00
-364,67	136,00
-357,17	109,00
-349,67	22,00
-342,18	134,00
-334,69	99,00
-327,22	205,00
-319,76	114,00
-312,30	172,00
-304,86	279,00
-297,42	135,00
-290,00	211,00
-282,58	98,00
-275,17	125,00
-267,77	94,00
-260,37	204,00
-252,99	183,00
-245,62	325,00
-238,25	286,00
-230,90	146,00
-223,55	352,00
-216,21	228,00
-208,88	205,00
-201,56	321,00
-194,25	289,00
-186,94	374,00
-179,65	260,00
-172,36	361,00
-165,08	319,00
-157,81	339,00
-150,55	389,00
-143,30	562,00
-136,06	507,00
-128,82	500,00
-121,60	611,00
-114,38	630,00
-107,17	722,00
-99,97	785,00
-92,78	894,00
-85,60	1114,00
-78,42	1227,00
-71,25	1385,00
-64,10	1468,00
-56,95	1940,00
-49,81	2196,00
-42,67	2583,00
-35,55	3284,00
-28,43	4486,00
-21,33	7499,00
-14,23	25261,00
-7,14	54975,00
-0,05	54612,00
7,02	54304,00
14,09	54647,00
21,14	18905,00
28,19	8073,00
35,23	5195,00
42,27	4003,00
49,29	3429,00
56,31	2747,00
63,32	2306,00
70,32	1904,00
77,31	1741,00
84,29	1495,00
91,27	1224,00
98,23	1115,00
105,19	1047,00
112,14	1152,00
119,09	1403,00
126,02	1914,00
132,95	2050,00
139,87	2211,00
146,78	2270,00
153,68	1928,00
160,58	1984,00
167,46	2080,00
174,34	1962,00
181,21	1823,00
188,08	1919,00
194,93	1909,00
201,78	1862,00
208,62	1851,00
215,45	1889,00
222,27	1838,00
229,09	1801,00
235,90	1711,00
242,70	1765,00
249,49	1663,00
256,27	1649,00
263,05	1743,00
269,82	1629,00
276,58	1728,00
283,33	1648,00
290,08	1709,00
296,82	1621,00
303,55	1569,00
310,27	1546,00
316,98	1507,00
323,69	1554,00
330,39	1458,00
337,08	1538,00
343,76	1505,00
350,44	1446,00
357,11	1424,00
363,77	1428,00
370,42	1452,00
377,07	1554,00
383,71	1291,00
390,34	1463,00
396,96	1450,00
403,58	1423,00
410,19	1375,00
416,79	1535,00
423,38	1449,00
429,97	1319,00
436,55	1262,00
443,12	1307,00
449,68	1239,00
456,24	1207,00
462,79	1380,00
469,33	1157,00
475,86	1185,00
482,39	1188,00
488,91	1242,00
495,42	1185,00
501,93	1155,00
508,42	1213,00
514,91	1210,00
521,40	1032,00
527,87	1173,00
534,34	1195,00
540,80	1153,00
547,25	993,00
553,70	1070,00
560,14	1173,00
566,57	1114,00
573,00	1194,00
579,41	1192,00
585,83	1101,00
592,23	1167,00
598,62	1009,00
605,01	1049,00
611,40	1136,00
617,77	1080,00
624,14	1155,00
630,50	1036,00
636,85	1113,00
643,20	1061,00
649,54	979,00
655,87	1082,00
662,20	939,00
668,52	1008,00
674,83	1045,00
681,13	952,00
687,43	875,00
693,72	969,00
700,00	891,00
706,28	876,00
712,55	949,00
718,81	1180,00
725,07	929,00
731,32	917,00
737,56	913,00
743,79	939,00
750,02	926,00
756,24	977,00
762,46	940,00
768,67	975,00
774,87	1088,00
781,06	1009,00
787,25	878,00
793,43	988,00
799,60	989,00
805,77	1094,00
811,93	917,00
818,08	1061,00
824,23	1039,00
830,37	1092,00
836,50	994,00
842,63	1197,00
848,75	1145,00
854,87	940,00
860,97	984,00
867,07	952,00
873,17	1101,00
879,25	947,00
885,33	1002,00
891,41	1115,00
897,47	1043,00
903,53	956,00
909,59	936,00
915,63	892,00
921,67	1079,00
927,71	952,00
933,74	970,00
939,76	820,00
945,77	859,00
951,78	773,00
957,78	919,00
963,78	835,00
969,77	850,00
975,75	934,00
981,72	896,00
987,69	1217,00
993,66	875,00
999,61	873,00
1005,56	907,00
1011,51	936,00
1017,44	836,00
1023,37	924,00
1029,30	994,00
1035,22	891,00
1041,13	853,00
1047,03	926,00
1052,93	1005,00
1058,83	1362,00
1064,71	1499,00
1070,59	1292,00
1076,47	1055,00
1082,33	1060,00
1088,20	957,00
1094,05	896,00
1099,90	897,00
1105,74	918,00
1111,58	895,00
1117,41	904,00
1123,23	1235,00
1129,05	1293,00
1134,86	1374,00
1140,67	1015,00
1146,47	933,00
1152,26	862,00
1158,05	808,00
1163,83	791,00
1169,60	843,00
1175,37	908,00
1181,13	803,00
1186,89	699,00
1192,64	758,00
1198,38	693,00
1204,12	813,00
1209,85	868,00
1215,58	658,00
1221,30	730,00
1227,02	730,00
1232,72	695,00
1238,43	617,00
1244,12	796,00
1249,81	836,00
1255,50	802,00
1261,17	728,00
1266,85	883,00
1272,51	801,00
1278,17	1002,00
1283,83	1077,00
1289,47	1280,00
1295,12	1552,00
1300,75	1520,00
1306,38	1397,00
1312,01	1093,00
1317,63	944,00
1323,24	901,00
1328,85	982,00
1334,45	1005,00
1340,04	979,00
1345,63	862,00
1351,22	1015,00
1356,80	1022,00
1362,37	955,00
1367,93	979,00
1373,49	962,00
1379,05	910,00
1384,60	897,00
1390,14	861,00
1395,68	983,00
1401,21	760,00
1406,74	1050,00
1412,26	1004,00
1417,77	1175,00
1423,28	1199,00
1428,78	1438,00
1434,28	1628,00
1439,77	1712,00
1445,26	1641,00
1450,74	1611,00
1456,22	1525,00
1461,68	1515,00
1467,15	1245,00
1472,61	1239,00
1478,06	1088,00
1483,51	1050,00
1488,95	888,00
1494,38	921,00
1499,81	855,00
1505,24	767,00
1510,65	752,00
1516,07	698,00
1521,48	793,00
1526,88	693,00
1532,27	771,00
1537,67	675,00
1543,05	785,00
1548,43	591,00
1553,81	729,00
1559,18	918,00
1564,54	791,00
1569,90	595,00
1575,25	689,00
1580,60	674,00
1585,94	746,00
1591,28	693,00
1596,61	635,00
1601,93	608,00
1607,25	624,00
1612,57	666,00
1617,88	675,00
1623,18	715,00
1628,48	581,00
1633,77	693,00
1639,06	668,00
1644,34	672,00
1649,62	539,00
1654,89	687,00
1660,16	522,00
1665,42	667,00
1670,67	677,00
1675,92	734,00
1681,17	580,00
1686,41	552,00
1691,64	739,00
1696,87	466,00
1702,10	624,00
1707,32	551,00
1712,53	514,00
1717,74	671,00
1722,94	585,00
1728,14	704,00
1733,33	636,00
1738,52	556,00
1743,70	512,00
1748,88	585,00
1754,05	599,00
1759,22	526,00
1764,38	533,00
1769,53	503,00
1774,69	576,00
1779,83	554,00
1784,97	442,00
1790,11	450,00
1795,24	606,00
1800,36	432,00
1805,48	488,00
1810,60	357,00
1815,71	518,00
1820,82	466,00
1825,92	341,00
1831,01	620,00
1836,10	460,00
1841,19	474,00
1846,26	397,00
1851,34	400,00
1856,41	530,00
1861,47	401,00
1866,53	467,00
1871,59	424,00
1876,64	499,00
1881,68	457,00
1886,72	460,00
1891,76	466,00
1896,79	422,00
1901,81	529,00
1906,83	338,00
1911,85	342,00
1916,86	405,00
1921,86	421,00
1926,86	494,00
1931,86	519,00
1936,85	374,00
1941,83	434,00
1946,81	409,00
1951,79	361,00
1956,76	444,00
1961,72	285,00
1966,68	352,00
1971,64	329,00
1976,59	504,00
1981,54	407,00
1986,48	386,00
1991,42	310,00
1996,35	449,00
2001,27	415,00
2006,20	391,00
2011,11	447,00
2016,03	372,00
2020,93	426,00
2025,84	339,00
2030,73	332,00
2035,63	313,00
2040,52	490,00
2045,40	325,00
2050,28	363,00
2055,15	349,00
2060,02	454,00
2064,89	279,00
2069,75	536,00
2074,60	344,00
2079,46	222,00
2084,30	278,00
2089,14	293,00
2093,98	362,00
2098,81	329,00
2103,64	379,00
2108,46	294,00
2113,28	413,00
2118,09	292,00
2122,90	355,00
2127,70	309,00
2132,50	319,00
2137,30	373,00
2142,09	254,00
2146,87	385,00
2151,66	422,00
2156,43	398,00
2161,20	329,00
2165,97	227,00
2170,73	344,00
2175,49	206,00
2180,24	322,00
2184,99	364,00
2189,74	355,00
2194,48	248,00
2199,21	361,00
2203,94	330,00
2208,67	332,00
2213,39	345,00
2218,11	254,00
2222,82	397,00
2227,53	235,00
2232,23	362,00
2236,93	196,00
2241,63	319,00
2246,32	460,00
2251,00	267,00
2255,68	191,00
2260,36	257,00
2265,03	268,00
2269,70	299,00
2274,36	407,00
2279,02	357,00
2283,68	233,00
2288,33	364,00
2292,97	372,00
2297,61	303,00
2302,25	235,00
2306,88	310,00
2311,51	384,00
2316,14	233,00
2320,75	217,00
2325,37	328,00
2329,98	209,00
2334,59	210,00
2339,19	388,00
2343,79	295,00
2348,38	187,00
2352,97	181,00
2357,55	206,00
2362,13	334,00
2366,71	319,00
2371,28	216,00
2375,85	247,00
2380,41	339,00
2384,97	307,00
2389,52	252,00
2394,07	156,00
2398,62	286,00
2403,16	277,00
2407,70	309,00
2412,23	253,00
2416,76	161,00
2421,29	247,00
2425,81	176,00
2430,32	269,00
2434,84	299,00
2439,34	311,00
2443,85	251,00
2448,35	193,00
2452,84	291,00
2457,33	246,00
2461,82	224,00
2466,30	221,00
2470,78	209,00
2475,25	307,00
2479,72	284,00
2484,19	215,00
2488,65	178,00
2493,11	205,00
2497,56	146,00
2502,01	306,00
2506,46	420,00
2510,90	281,00
2515,34	245,00
2519,77	185,00
2524,20	274,00
2528,62	106,00
2533,04	301,00
2537,46	324,00
2541,87	133,00
2546,28	246,00
2550,68	298,00
2555,08	291,00
2559,48	206,00
2563,87	211,00
2568,26	204,00
2572,64	161,00
2577,02	213,00
2581,40	184,00
2585,77	292,00
2590,14	318,00
2594,50	58,00
2598,86	189,00
2603,22	239,00
2607,57	437,00
2611,92	270,00
2616,26	240,00
2620,60	131,00
2624,94	166,00
2629,27	232,00
2633,60	216,00
2637,92	245,00
2642,24	258,00
2646,56	365,00
2650,87	197,00
2655,18	305,00
2659,48	142,00
2663,78	297,00
2668,08	297,00
2672,37	290,00
2676,66	296,00
2680,95	281,00
2685,23	373,00
2689,50	478,00
2693,78	177,00
2698,05	239,00
2702,31	203,00
2706,57	254,00
2710,83	274,00
2715,08	390,00
2719,33	363,00
2723,58	393,00
2727,82	291,00
2732,06	233,00
2736,29	457,00
2740,53	255,00
2744,75	337,00
2748,97	220,00
2753,19	306,00
2757,41	215,00
2761,62	350,00
2765,83	247,00
2770,03	359,00
2774,23	344,00
2778,43	306,00
2782,62	366,00
2786,81	300,00
2791,00	378,00
2795,18	460,00
2799,35	452,00
2803,53	390,00
2807,70	399,00
2811,86	336,00
2816,03	509,00
2820,19	527,00
2824,34	543,00
2828,49	498,00
2832,64	603,00
2836,78	763,00
2840,92	883,00
2845,06	1122,00
2849,19	1161,00
2853,32	1368,00
2857,45	1319,00
2861,57	1305,00
2865,69	1349,00
2869,80	1281,00
2873,91	1214,00
2878,02	1372,00
2882,12	1432,00
2886,22	1487,00
2890,32	1469,00
2894,41	1277,00
2898,50	1167,00
2902,58	1142,00
2906,67	1032,00
2910,74	988,00
2914,82	931,00
2918,89	891,00
2922,96	854,00
2927,02	836,00
2931,08	750,00
2935,13	759,00
2939,19	582,00
2943,24	673,00
2947,28	573,00
2951,32	511,00
2955,36	491,00
2959,40	508,00
2963,43	380,00
2967,46	333,00
2971,48	433,00
2975,50	392,00
2979,52	273,00
2983,53	515,00
2987,54	339,00
2991,55	315,00
2995,55	274,00
2999,55	336,00
3003,54	449,00
3007,54	156,00
3011,53	117,00
3015,51	190,00
3019,49	248,00
3023,47	112,00
3027,45	205,00
3031,42	228,00
3035,39	156,00
3039,35	109,00
3043,31	155,00
3047,27	182,00
3051,22	181,00
3055,17	138,00
3059,12	153,00
3063,06	226,00
3067,00	159,00
3070,94	229,00
3074,87	131,00
3078,80	138,00
3082,73	134,00
3086,65	216,00
3090,57	85,00
3094,49	161,00
3098,40	87,00
3102,31	180,00
3106,22	160,00
3110,12	326,00
3114,02	130,00
3117,92	145,00
3121,81	292,00
3125,70	191,00
3129,58	93,00
3133,47	58,00
3137,34	73,00
3141,22	135,00
3145,09	287,00
3148,96	155,00
3152,83	179,00
3156,69	311,00
3160,55	227,00
3164,40	249,00
3168,26	47,00
3172,10	151,00
3175,95	131,00
3179,79	209,00
3183,63	170,00
3187,47	141,00
3191,30	118,00
3195,13	127,00
3198,95	191,00
3202,78	102,00
3206,60	2,00
3210,41	148,00
3214,23	172,00
3218,03	282,00
3221,84	34,00
3225,64	127,00
3229,44	144,00
3233,24	157,00
3237,03	121,00
3240,82	89,00
3244,61	157,00
3248,39	11,00
3252,17	36,00
3255,95	27,00
3259,72	194,00
3263,49	106,00
3267,26	133,00
3271,03	164,00
3274,79	125,00
3278,54	88,00
3282,30	110,00
3286,05	95,00
3289,80	171,00
3293,54	207,00
3297,29	36,00
3301,02	154,00
3304,76	204,00
3308,49	25,00
3312,22	84,00
3315,95	216,00
3319,67	154,00
3323,39	213,00
3327,10	224,00
3330,82	99,00
3334,53	148,00
3338,24	90,00
3341,94	185,00
3345,64	126,00
3349,34	76,00
3353,03	299,00
3356,72	105,00
3360,41	-10,00
3364,10	120,00
3367,78	126,00
3371,46	143,00
3375,13	91,00
3378,81	138,00
3382,48	174,00
3386,14	132,00
3389,81	157,00
3393,47	264,00
3397,12	0,00
3400,78	67,00
3404,43	135,00
3408,08	104,00
3411,72	52,00
3415,36	92,00
3419,00	76,00
3422,64	130,00
3426,27	90,00
3429,90	170,00
3433,53	264,00
3437,15	139,00
3440,77	203,00
3444,39	63,00
3448,00	62,00
3451,62	34,00
3455,22	116,00
3458,83	146,00
3462,43	97,00
3466,03	116,00
3469,63	37,00
3473,22	167,00
3476,81	132,00
3480,40	185,00
3483,99	121,00
3487,57	140,00
3491,15	-42,00
3494,72	169,00
3498,29	70,00
3501,86	185,00
3505,43	93,00
3508,99	51,00
3512,56	113,00
3516,11	226,00
3519,67	102,00
3523,22	43,00
3526,77	81,00
3530,32	-5,00
3533,86	144,00
3537,40	123,00
3540,94	111,00
3544,47	64,00
3548,00	17,00
3551,53	147,00
3555,06	46,00
3558,58	60,00
3562,10	7,00
3565,62	166,00
3569,13	141,00
3572,64	26,00
3576,15	115,00
3579,66	120,00
3583,16	19,00
3586,66	69,00
3590,16	145,00
3593,65	138,00
3597,14	57,00
3600,63	136,00
3604,11	-19,00
3607,60	145,00
3611,08	164,00
3614,55	48,00
3618,03	168,00
3621,50	47,00
3624,97	172,00
3628,43	73,00
3631,90	105,00
3635,36	161,00
3638,81	-1,00
3642,27	149,00
3645,72	40,00
3649,17	170,00
3652,61	163,00
3656,06	103,00
3659,50	162,00
3662,93	130,00
3666,37	-13,00
3669,80	164,00
3673,23	142,00
3676,65	117,00
3680,08	139,00
3683,50	91,00
3686,92	37,00
3690,33	113,00
3693,74	91,00
3697,15	93,00
3700,56	113,00
3703,96	97,00
3707,36	157,00
3710,76	109,00
3714,16	32,00
3717,55	176,00
3720,94	134,00
3724,33	138,00
3727,71	174,00
3731,10	108,00
3734,48	189,00
3737,85	56,00
3741,23	111,00
3744,60	77,00
3747,97	80,00
3751,33	97,00
3754,69	107,00
3758,05	124,00
3761,41	191,00
3764,77	125,00
3768,12	90,00
3771,47	107,00
3774,82	2,00
3778,16	-1,00
3781,50	-1,00
3784,84	-6,00
3788,18	1,00
>>>>>End Processed Spectral Data<<<<<
