SpectraSuite Data File
++++++++++++++++++++++++++++++++++++
Date: Tue Mar 03 11:45:10 ICT 2026
User: user
Dark Spectrum Present: Yes
Reference Spectrum Present: No
Number of Sampled Component Spectra: 1
Spectrometers: MAYP113682
Integration Time (usec): 3000000 (MAYP113682)
Spectra Averaged: 1 (MAYP113682)
Boxcar Smoothing: 0 (MAYP113682)
Correct for Electrical Dark: No (MAYP113682)
Strobe/Lamp Enabled: No (MAYP113682)
Correct for Detector Non-linearity: No (MAYP113682)
Correct for Stray Light: No (MAYP113682)
Number of Pixels in Processed Spectrum: 2068
>>>>>Begin Processed Spectral Data<<<<<
-37534,58	5,00
-37414,56	4,00
-37295,11	-5,00
-37176,24	7,00
-37057,95	91,00
-36940,22	108,00
-36823,05	7,00
-36706,45	116,00
-36590,40	195,00
-36474,90	113,00
-36359,95	107,00
-36245,55	206,00
-36131,68	177,00
-36018,35	111,00
-35905,55	97,00
-35793,29	248,00
-35681,54	156,00
-35570,32	141,00
-35459,62	131,00
-35349,43	54,00
-35239,75	53,00
-35130,58	156,00
-35021,91	107,00
-34913,74	29,00
-34806,07	177,00
-34698,89	160,00
-34592,20	148,00
-34486,00	291,00
-34380,28	157,00
-34275,04	87,00
-34170,27	198,00
-34065,98	165,00
-33962,16	285,00
-33858,81	141,00
-33755,92	330,00
-33653,49	102,00
-33551,52	144,00
-33450,01	174,00
-33348,94	295,00
-33248,33	131,00
-33148,16	176,00
-33048,43	249,00
-32949,14	154,00
-32850,29	144,00
-32751,87	120,00
-32653,89	242,00
-32556,33	192,00
-32459,20	127,00
-32362,49	137,00
-32266,19	134,00
-32170,32	125,00
-32074,86	254,00
-31979,82	230,00
-31885,18	175,00
-31790,95	199,00
-31697,12	66,00
-31603,69	209,00
-31510,67	69,00
-31418,04	195,00
-31325,80	158,00
-31233,95	168,00
-31142,49	189,00
-31051,42	191,00
-30960,73	180,00
-30870,43	167,00
-30780,50	56,00
-30690,95	189,00
-30601,77	250,00
-30512,97	189,00
-30424,53	173,00
-30336,46	249,00
-30248,76	198,00
-30161,42	53,00
-30074,44	59,00
-29987,81	220,00
-29901,55	134,00
-29815,63	143,00
-29730,07	265,00
-29644,86	159,00
-29560,00	164,00
-29475,48	143,00
-29391,30	172,00
-29307,47	191,00
-29223,97	169,00
-29140,81	167,00
-29057,99	156,00
-28975,50	36,00
-28893,34	176,00
-28811,51	152,00
-28730,00	179,00
-28648,82	136,00
-28567,97	115,00
-28487,43	100,00
-28407,21	92,00
-28327,32	160,00
-28247,73	228,00
-28168,46	119,00
-28089,50	78,00
-28010,85	83,00
-27932,51	221,00
-27854,48	241,00
-27776,75	152,00
-27699,32	193,00
-27622,19	196,00
-27545,37	250,00
-27468,84	310,00
-27392,60	191,00
-27316,66	36,00
-27241,01	131,00
-27165,66	161,00
-27090,59	192,00
-27015,81	139,00
-26941,31	234,00
-26867,10	121,00
-26793,17	216,00
-26719,52	153,00
-26646,15	202,00
-26573,06	175,00
-26500,24	92,00
-26427,70	176,00
-26355,43	189,00
-26283,43	40,00
-26211,71	212,00
-26140,25	145,00
-26069,06	108,00
-25998,13	203,00
-25927,46	207,00
-25857,06	192,00
-25786,92	257,00
-25717,04	184,00
-25647,42	22,00
-25578,05	193,00
-25508,94	139,00
-25440,09	314,00
-25371,48	283,00
-25303,13	257,00
-25235,02	183,00
-25167,17	267,00
-25099,56	122,00
-25032,19	89,00
-24965,07	134,00
-24898,20	146,00
-24831,56	219,00
-24765,17	169,00
-24699,01	-34,00
-24633,10	191,00
-24567,41	240,00
-24501,97	169,00
-24436,75	77,00
-24371,77	56,00
-24307,03	99,00
-24242,51	163,00
-24178,22	250,00
-24114,16	124,00
-24050,32	197,00
-23986,71	121,00
-23923,32	203,00
-23860,16	87,00
-23797,22	147,00
-23734,50	93,00
-23672,00	267,00
-23609,71	176,00
-23547,65	146,00
-23485,80	95,00
-23424,16	123,00
-23362,74	151,00
-23301,53	112,00
-23240,54	201,00
-23179,75	96,00
-23119,17	192,00
-23058,80	209,00
-22998,64	152,00
-22938,68	166,00
-22878,93	151,00
-22819,39	186,00
-22760,04	148,00
-22700,90	71,00
-22641,96	216,00
-22583,22	162,00
-22524,68	117,00
-22466,33	171,00
-22408,19	132,00
-22350,23	170,00
-22292,48	212,00
-22234,92	116,00
-22177,55	183,00
-22120,37	216,00
-22063,38	216,00
-22006,58	211,00
-21949,98	222,00
-21893,56	214,00
-21837,33	227,00
-21781,28	203,00
-21725,42	214,00
-21669,74	98,00
-21614,25	335,00
-21558,94	162,00
-21503,81	217,00
-21448,86	140,00
-21394,10	196,00
-21339,51	90,00
-21285,10	44,00
-21230,86	172,00
-21176,81	70,00
-21122,93	157,00
-21069,22	309,00
-21015,69	204,00
-20962,33	199,00
-20909,14	135,00
-20856,13	334,00
-20803,28	8,00
-20750,61	270,00
-20698,10	159,00
-20645,76	97,00
-20593,59	144,00
-20541,59	138,00
-20489,75	246,00
-20438,07	98,00
-20386,56	209,00
-20335,22	208,00
-20284,03	160,00
-20233,01	154,00
-20182,15	185,00
-20131,45	118,00
-20080,91	112,00
-20030,52	185,00
-19980,30	159,00
-19930,23	84,00
-19880,32	198,00
-19830,56	64,00
-19780,96	98,00
-19731,52	79,00
-19682,23	158,00
-19633,09	81,00
-19584,10	66,00
-19535,26	166,00
-19486,58	151,00
-19438,04	231,00
-19389,66	75,00
-19341,42	186,00
-19293,33	198,00
-19245,39	37,00
-19197,60	200,00
-19149,95	131,00
-19102,45	-18,00
-19055,09	44,00
-19007,87	112,00
-18960,80	127,00
-18913,87	151,00
-18867,09	109,00
-18820,44	204,00
-18773,94	215,00
-18727,57	187,00
-18681,35	4,00
-18635,26	150,00
-18589,31	226,00
-18543,50	117,00
-18497,83	152,00
-18452,29	208,00
-18406,89	97,00
-18361,63	282,00
-18316,50	94,00
-18271,50	93,00
-18226,63	316,00
-18181,90	248,00
-18137,30	179,00
-18092,84	246,00
-18048,50	207,00
-18004,29	81,00
-17960,22	173,00
-17916,27	131,00
-17872,45	221,00
-17828,76	163,00
-17785,20	51,00
-17741,77	194,00
-17698,46	120,00
-17655,28	255,00
-17612,22	75,00
-17569,29	131,00
-17526,48	207,00
-17483,79	102,00
-17441,23	154,00
-17398,79	111,00
-17356,48	222,00
-17314,28	55,00
-17272,21	72,00
-17230,26	86,00
-17188,42	128,00
-17146,71	248,00
-17105,12	171,00
-17063,64	269,00
-17022,28	-5,00
-16981,04	136,00
-16939,92	204,00
-16898,91	142,00
-16858,02	187,00
-16817,25	170,00
-16776,59	90,00
-16736,04	175,00
-16695,61	78,00
-16655,29	176,00
-16615,09	4,00
-16574,99	116,00
-16535,01	266,00
-16495,15	30,00
-16455,39	183,00
-16415,74	57,00
-16376,21	88,00
-16336,78	75,00
-16297,46	63,00
-16258,26	181,00
-16219,16	284,00
-16180,17	200,00
-16141,28	207,00
-16102,51	128,00
-16063,84	55,00
-16025,27	270,00
-15986,82	230,00
-15948,46	108,00
-15910,22	109,00
-15872,07	101,00
-15834,04	103,00
-15796,10	164,00
-15758,27	65,00
-15720,54	171,00
-15682,91	193,00
-15645,39	222,00
-15607,97	206,00
-15570,64	185,00
-15533,42	143,00
-15496,30	101,00
-15459,28	120,00
-15422,36	169,00
-15385,54	107,00
-15348,82	63,00
-15312,19	161,00
-15275,66	101,00
-15239,23	160,00
-15202,90	219,00
-15166,67	84,00
-15130,53	160,00
-15094,48	208,00
-15058,54	173,00
-15022,68	190,00
-14986,93	210,00
-14951,26	225,00
-14915,69	109,00
-14880,22	316,00
-14844,84	31,00
-14809,55	213,00
-14774,35	170,00
-14739,25	135,00
-14704,24	222,00
-14669,32	221,00
-14634,49	79,00
-14599,75	296,00
-14565,10	257,00
-14530,55	47,00
-14496,08	320,00
-14461,70	94,00
-14427,41	231,00
-14393,21	227,00
-14359,10	79,00
-14325,07	167,00
-14291,14	253,00
-14257,29	195,00
-14223,52	214,00
-14189,85	114,00
-14156,26	132,00
-14122,76	180,00
-14089,34	249,00
-14056,01	188,00
-14022,76	124,00
-13989,60	148,00
-13956,52	145,00
-13923,53	144,00
-13890,62	170,00
-13857,79	154,00
-13825,05	85,00
-13792,39	174,00
-13759,81	59,00
-13727,31	222,00
-13694,90	112,00
-13662,57	101,00
-13630,31	148,00
-13598,14	200,00
-13566,05	104,00
-13534,05	150,00
-13502,12	117,00
-13470,27	39,00
-13438,50	161,00
-13406,80	150,00
-13375,19	117,00
-13343,66	179,00
-13312,20	196,00
-13280,83	216,00
-13249,53	160,00
-13218,30	135,00
-13187,16	141,00
-13156,09	179,00
-13125,10	227,00
-13094,18	204,00
-13063,34	89,00
-13032,58	37,00
-13001,89	193,00
-12971,28	122,00
-12940,74	128,00
-12910,27	114,00
-12879,88	247,00
-12849,57	291,00
-12819,33	82,00
-12789,16	184,00
-12759,06	92,00
-12729,04	188,00
-12699,09	357,00
-12669,21	47,00
-12639,41	210,00
-12609,68	172,00
-12580,02	198,00
-12550,43	69,00
-12520,91	145,00
-12491,46	121,00
-12462,08	96,00
-12432,77	257,00
-12403,54	142,00
-12374,37	175,00
-12345,27	281,00
-12316,24	237,00
-12287,29	162,00
-12258,40	169,00
-12229,57	51,00
-12200,82	276,00
-12172,14	164,00
-12143,52	134,00
-12114,97	105,00
-12086,49	76,00
-12058,07	224,00
-12029,73	134,00
-12001,44	259,00
-11973,23	47,00
-11945,08	115,00
-11917,00	116,00
-11888,98	158,00
-11861,03	191,00
-11833,15	49,00
-11805,32	251,00
-11777,57	130,00
-11749,88	215,00
-11722,25	106,00
-11694,69	183,00
-11667,19	208,00
-11639,75	133,00
-11612,38	370,00
-11585,07	134,00
-11557,83	163,00
-11530,65	250,00
-11503,53	192,00
-11476,47	153,00
-11449,48	137,00
-11422,54	158,00
-11395,67	83,00
-11368,86	125,00
-11342,11	184,00
-11315,43	264,00
-11288,80	99,00
-11262,23	117,00
-11235,73	72,00
-11209,28	273,00
-11182,90	70,00
-11156,57	155,00
-11130,31	259,00
-11104,10	202,00
-11077,96	129,00
-11051,87	200,00
-11025,84	161,00
-10999,87	172,00
-10973,96	146,00
-10948,11	124,00
-10922,31	182,00
-10896,58	114,00
-10870,90	207,00
-10845,28	179,00
-10819,71	172,00
-10794,20	202,00
-10768,75	205,00
-10743,36	225,00
-10718,02	178,00
-10692,74	136,00
-10667,52	249,00
-10642,35	62,00
-10617,24	334,00
-10592,18	267,00
-10567,18	247,00
-10542,23	372,00
-10517,34	381,00
-10492,51	149,00
-10467,72	137,00
-10443,00	374,00
-10418,32	319,00
-10393,70	314,00
-10369,14	179,00
-10344,63	413,00
-10320,17	252,00
-10295,77	302,00
-10271,42	328,00
-10247,12	417,00
-10222,88	587,00
-10198,68	379,00
-10174,54	438,00
-10150,46	370,00
-10126,42	489,00
-10102,44	473,00
-10078,51	460,00
-10054,63	500,00
-10030,80	586,00
-10007,03	506,00
-9983,30	651,00
-9959,63	663,00
-9936,01	754,00
-9912,44	630,00
-9888,92	705,00
-9865,44	717,00
-9842,02	708,00
-9818,65	937,00
-9795,33	744,00
-9772,06	920,00
-9748,84	909,00
-9725,67	947,00
-9702,55	1110,00
-9679,47	1317,00
-9656,45	1366,00
-9633,47	1425,00
-9610,55	1516,00
-9587,67	1445,00
-9564,84	1603,00
-9542,06	1922,00
-9519,32	2061,00
-9496,64	2129,00
-9474,00	2389,00
-9451,41	2410,00
-9428,87	2365,00
-9406,37	2227,00
-9383,92	2079,00
-9361,52	2004,00
-9339,17	2128,00
-9316,86	2328,00
-9294,60	2451,00
-9272,38	2937,00
-9250,21	3094,00
-9228,09	3081,00
-9206,01	2897,00
-9183,98	2587,00
-9162,00	2424,00
-9140,06	2227,00
-9118,16	2199,00
-9096,31	2213,00
-9074,51	2416,00
-9052,75	2390,00
-9031,04	2279,00
-9009,37	1974,00
-8987,74	1865,00
-8966,16	1795,00
-8944,63	1499,00
-8923,14	1379,00
-8901,69	1418,00
-8880,29	1744,00
-8858,93	1838,00
-8837,61	2149,00
-8816,34	2118,00
-8795,11	2195,00
-8773,92	2003,00
-8752,78	1716,00
-8731,68	1736,00
-8710,62	1833,00
-8689,61	1721,00
-8668,63	1977,00
-8647,70	2155,00
-8626,82	2018,00
-8605,97	1978,00
-8585,17	1896,00
-8564,41	1647,00
-8543,69	1423,00
-8523,01	1397,00
-8502,37	1537,00
-8481,78	1569,00
-8461,23	1726,00
-8440,71	1854,00
-8420,24	1905,00
-8399,81	2048,00
-8379,42	1788,00
-8359,08	1757,00
-8338,77	1673,00
-8318,50	1340,00
-8298,27	1264,00
-8278,09	1501,00
-8257,94	1632,00
-8237,83	1676,00
-8217,76	1798,00
-8197,74	1936,00
-8177,75	1868,00
-8157,80	1695,00
-8137,89	1541,00
-8118,02	1446,00
-8098,19	1414,00
-8078,40	1379,00
-8058,65	1677,00
-8038,93	1674,00
-8019,26	1630,00
-7999,62	1508,00
-7980,02	1478,00
-7960,46	1398,00
-7940,94	1427,00
-7921,46	1343,00
-7902,01	1309,00
-7882,60	1480,00
-7863,23	1278,00
-7843,90	1528,00
-7824,61	1568,00
-7805,35	1557,00
-7786,13	1398,00
-7766,95	1633,00
-7747,80	1563,00
-7728,69	1341,00
-7709,62	1374,00
-7690,59	1597,00
-7671,59	1627,00
-7652,63	1587,00
-7633,70	1751,00
-7614,81	1581,00
-7595,96	1307,00
-7577,15	1353,00
-7558,37	1263,00
-7539,62	1374,00
-7520,91	1480,00
-7502,24	1607,00
-7483,60	1555,00
-7465,00	1422,00
-7446,44	1258,00
-7427,91	1144,00
-7409,41	1208,00
-7390,95	1063,00
-7372,53	947,00
-7354,14	1016,00
-7335,78	1031,00
-7317,46	1092,00
-7299,18	1360,00
-7280,92	1400,00
-7262,71	1485,00
-7244,52	1564,00
-7226,38	1465,00
-7208,26	1570,00
-7190,18	1415,00
-7172,14	1361,00
-7154,12	1455,00
-7136,15	1344,00
-7118,20	1325,00
-7100,29	1507,00
-7082,41	1497,00
-7064,57	1496,00
-7046,76	1414,00
-7028,98	1279,00
-7011,24	1221,00
-6993,53	944,00
-6975,85	890,00
-6958,20	794,00
-6940,59	714,00
-6923,01	741,00
-6905,46	1020,00
-6887,94	1010,00
-6870,46	-639,00
-6853,01	1507,00
-6835,59	1286,00
-6818,21	1256,00
-6800,85	1133,00
-6783,53	832,00
-6766,24	784,00
-6748,98	783,00
-6731,76	700,00
-6714,56	587,00
-6697,40	526,00
-6680,26	602,00
-6663,16	841,00
-6646,09	921,00
-6629,05	995,00
-6612,05	1200,00
-6595,07	1136,00
-6578,13	1005,00
-6561,21	933,00
-6544,33	687,00
-6527,47	596,00
-6510,65	449,00
-6493,86	492,00
-6477,10	645,00
-6460,36	644,00
-6443,66	630,00
-6426,99	644,00
-6410,35	585,00
-6393,74	588,00
-6377,16	663,00
-6360,61	746,00
-6344,09	794,00
-6327,59	793,00
-6311,13	716,00
-6294,70	864,00
-6278,29	882,00
-6261,92	940,00
-6245,58	1095,00
-6229,26	1059,00
-6212,97	1086,00
-6196,72	964,00
-6180,49	668,00
-6164,29	422,00
-6148,12	432,00
-6131,98	400,00
-6115,86	333,00
-6099,78	411,00
-6083,72	340,00
-6067,69	506,00
-6051,69	333,00
-6035,72	382,00
-6019,78	472,00
-6003,87	509,00
-5987,98	789,00
-5972,12	777,00
-5956,29	838,00
-5940,49	726,00
-5924,71	618,00
-5908,96	498,00
-5893,24	311,00
-5877,55	311,00
-5861,89	466,00
-5846,25	375,00
-5830,64	400,00
-5815,05	425,00
-5799,50	452,00
-5783,97	494,00
-5768,47	522,00
-5752,99	624,00
-5737,55	652,00
-5722,12	907,00
-5706,73	706,00
-5691,36	623,00
-5676,02	423,00
-5660,71	492,00
-5645,42	328,00
-5630,16	498,00
-5614,92	549,00
-5599,71	634,00
-5584,53	595,00
-5569,37	452,00
-5554,24	1527,00
-5539,14	449,00
-5524,06	619,00
-5509,01	566,00
-5493,98	690,00
-5478,98	559,00
-5464,00	698,00
-5449,05	522,00
-5434,13	464,00
-5419,23	405,00
-5404,36	498,00
-5389,51	580,00
-5374,69	673,00
-5359,89	788,00
-5345,12	798,00
-5330,37	807,00
-5315,65	771,00
-5300,95	598,00
-5286,28	575,00
-5271,63	583,00
-5257,01	603,00
-5242,41	583,00
-5227,84	503,00
-5213,29	378,00
-5198,76	351,00
-5184,26	369,00
-5169,79	410,00
-5155,33	463,00
-5140,91	491,00
-5126,51	595,00
-5112,13	655,00
-5097,77	499,00
-5083,44	441,00
-5069,13	406,00
-5054,85	351,00
-5040,59	455,00
-5026,36	521,00
-5012,15	674,00
-4997,96	536,00
-4983,80	570,00
-4969,66	260,00
-4955,54	350,00
-4941,44	444,00
-4927,37	585,00
-4913,33	773,00
-4899,30	833,00
-4885,30	705,00
-4871,33	662,00
-4857,37	339,00
-4843,44	372,00
-4829,53	390,00
-4815,65	387,00
-4801,79	390,00
-4787,95	481,00
-4774,13	380,00
-4760,34	334,00
-4746,56	191,00
-4732,82	301,00
-4719,09	447,00
-4705,38	661,00
-4691,70	628,00
-4678,04	693,00
-4664,41	652,00
-4650,79	339,00
-4637,20	349,00
-4623,63	358,00
-4610,08	502,00
-4596,56	487,00
-4583,05	578,00
-4569,57	447,00
-4556,11	216,00
-4542,67	232,00
-4529,25	212,00
-4515,86	436,00
-4502,49	698,00
-4489,13	751,00
-4475,80	568,00
-4462,49	501,00
-4449,21	317,00
-4435,94	286,00
-4422,70	481,00
-4409,47	426,00
-4396,27	432,00
-4383,09	292,00
-4369,93	241,00
-4356,79	193,00
-4343,67	216,00
-4330,58	368,00
-4317,50	397,00
-4304,45	363,00
-4291,41	338,00
-4278,40	210,00
-4265,41	158,00
-4252,44	231,00
-4239,49	364,00
-4226,55	305,00
-4213,65	449,00
-4200,76	305,00
-4187,89	107,00
-4175,04	252,00
-4162,21	194,00
-4149,40	96,00
-4136,61	162,00
-4123,85	132,00
-4111,10	226,00
-4098,37	236,00
-4085,66	238,00
-4072,98	172,00
-4060,31	236,00
-4047,66	225,00
-4035,04	220,00
-4022,43	217,00
-4009,84	222,00
-3997,27	252,00
-3984,72	258,00
-3972,19	142,00
-3959,69	57,00
-3947,20	255,00
-3934,73	140,00
-3922,27	116,00
-3909,84	193,00
-3897,43	224,00
-3885,04	241,00
-3872,67	126,00
-3860,31	194,00
-3847,98	223,00
-3835,66	62,00
-3823,36	109,00
-3811,09	84,00
-3798,83	80,00
-3786,59	73,00
-3774,37	189,00
-3762,17	153,00
-3749,98	115,00
-3737,82	103,00
-3725,67	224,00
-3713,55	60,00
-3701,44	324,00
-3689,35	171,00
-3677,28	171,00
-3665,22	112,00
-3653,19	163,00
-3641,17	220,00
-3629,18	79,00
-3617,20	60,00
-3605,24	215,00
-3593,30	193,00
-3581,37	161,00
-3569,47	137,00
-3557,58	170,00
-3545,71	121,00
-3533,86	216,00
-3522,02	113,00
-3510,21	230,00
-3498,41	98,00
-3486,63	157,00
-3474,87	74,00
-3463,12	208,00
-3451,40	170,00
-3439,69	117,00
-3428,00	122,00
-3416,33	127,00
-3404,67	115,00
-3393,03	48,00
-3381,41	156,00
-3369,81	262,00
-3358,22	8,00
-3346,66	244,00
-3335,10	201,00
-3323,57	172,00
-3312,06	134,00
-3300,56	199,00
-3289,08	144,00
-3277,61	182,00
-3266,16	166,00
-3254,73	168,00
-3243,32	9,00
-3231,92	128,00
-3220,55	260,00
-3209,18	206,00
-3197,84	59,00
-3186,51	102,00
-3175,20	43,00
-3163,90	35,00
-3152,63	225,00
-3141,36	160,00
-3130,12	195,00
-3118,89	266,00
-3107,68	114,00
-3096,49	234,00
-3085,31	160,00
-3074,15	172,00
-3063,00	163,00
-3051,87	73,00
-3040,76	145,00
-3029,67	147,00
-3018,59	261,00
-3007,52	201,00
-2996,48	194,00
-2985,44	104,00
-2974,43	267,00
-2963,43	130,00
-2952,45	120,00
-2941,48	300,00
-2930,53	91,00
-2919,60	65,00
-2908,68	156,00
-2897,78	216,00
-2886,89	112,00
-2876,02	114,00
-2865,17	241,00
-2854,33	47,00
-2843,50	210,00
-2832,70	209,00
-2821,90	267,00
-2811,13	92,00
-2800,37	212,00
-2789,62	194,00
-2778,89	83,00
-2768,18	136,00
-2757,48	185,00
-2746,80	149,00
-2736,13	33,00
-2725,48	156,00
-2714,84	161,00
-2704,22	126,00
-2693,61	184,00
-2683,02	75,00
-2672,45	384,00
-2661,89	242,00
-2651,34	193,00
-2640,81	216,00
-2630,30	88,00
-2619,80	79,00
-2609,31	225,00
-2598,84	177,00
-2588,39	104,00
-2577,95	116,00
-2567,52	48,00
-2557,11	212,00
-2546,71	343,00
-2536,33	85,00
-2525,97	124,00
-2515,62	91,00
-2505,28	188,00
-2494,96	142,00
-2484,65	247,00
-2474,36	-252,00
-2464,08	124,00
-2453,82	181,00
-2443,57	171,00
-2433,33	183,00
-2423,11	165,00
-2412,91	162,00
-2402,72	131,00
-2392,54	221,00
-2382,38	124,00
-2372,23	320,00
-2362,09	317,00
-2351,97	193,00
-2341,87	200,00
-2331,78	26,00
-2321,70	209,00
-2311,64	239,00
-2301,59	197,00
-2291,55	149,00
-2281,53	-2,00
-2271,53	142,00
-2261,53	156,00
-2251,55	177,00
-2241,59	154,00
-2231,64	181,00
-2221,70	121,00
-2211,78	104,00
-2201,87	171,00
-2191,97	209,00
-2182,09	212,00
-2172,22	28,00
-2162,37	168,00
-2152,53	196,00
-2142,70	112,00
-2132,89	157,00
-2123,09	38,00
-2113,30	157,00
-2103,53	217,00
-2093,77	189,00
-2084,02	162,00
-2074,29	222,00
-2064,57	130,00
-2054,86	212,00
-2045,17	164,00
-2035,49	253,00
-2025,82	140,00
-2016,17	233,00
-2006,53	167,00
-1996,91	204,00
-1987,29	192,00
-1977,69	63,00
-1968,11	123,00
-1958,53	199,00
-1948,97	70,00
-1939,42	47,00
-1929,89	206,00
-1920,37	217,00
-1910,86	145,00
-1901,36	171,00
-1891,88	96,00
-1882,41	245,00
-1872,95	63,00
-1863,51	-17,00
-1854,08	208,00
-1844,66	123,00
-1835,26	158,00
-1825,86	28,00
-1816,48	202,00
-1807,11	162,00
-1797,76	116,00
-1788,42	164,00
-1779,09	139,00
-1769,77	60,00
-1760,47	254,00
-1751,17	279,00
-1741,89	288,00
-1732,63	30,00
-1723,37	240,00
-1714,13	224,00
-1704,90	122,00
-1695,68	266,00
-1686,48	198,00
-1677,29	160,00
-1668,11	263,00
-1658,94	249,00
-1649,78	104,00
-1640,64	129,00
-1631,51	-14,00
-1622,39	161,00
-1613,28	110,00
-1604,19	-57,00
-1595,10	94,00
-1586,03	264,00
-1576,97	125,00
-1567,93	194,00
-1558,89	164,00
-1549,87	68,00
-1540,86	102,00
-1531,86	158,00
-1522,87	54,00
-1513,90	191,00
-1504,93	256,00
-1495,98	180,00
-1487,04	218,00
-1478,12	215,00
-1469,20	109,00
-1460,30	124,00
-1451,40	84,00
-1442,52	171,00
-1433,65	150,00
-1424,80	148,00
-1415,95	142,00
-1407,12	217,00
-1398,30	210,00
-1389,48	103,00
-1380,69	23,00
-1371,90	140,00
-1363,12	213,00
-1354,36	227,00
-1345,60	200,00
-1336,86	70,00
-1328,13	149,00
-1319,41	54,00
-1310,70	78,00
-1302,01	263,00
-1293,32	209,00
-1284,65	217,00
-1275,99	89,00
-1267,33	294,00
-1258,69	91,00
-1250,06	91,00
-1241,45	168,00
-1232,84	184,00
-1224,25	129,00
-1215,66	145,00
-1207,09	233,00
-1198,53	97,00
-1189,97	185,00
-1181,43	125,00
-1172,91	105,00
-1164,39	210,00
-1155,88	170,00
-1147,38	239,00
-1138,90	90,00
-1130,43	100,00
-1121,96	152,00
-1113,51	184,00
-1105,07	187,00
-1096,64	270,00
-1088,22	168,00
-1079,81	147,00
-1071,41	194,00
-1063,02	103,00
-1054,65	182,00
-1046,28	159,00
-1037,92	173,00
-1029,58	212,00
-1021,24	75,00
-1012,92	79,00
-1004,61	167,00
-996,30	190,00
-988,01	89,00
-979,73	50,00
-971,46	153,00
-963,20	173,00
-954,95	253,00
-946,71	242,00
-938,48	169,00
-930,26	133,00
-922,06	148,00
-913,86	86,00
-905,67	117,00
-897,49	227,00
-889,33	109,00
-881,17	159,00
-873,02	188,00
-864,89	185,00
-856,76	-11,00
-848,65	132,00
-840,54	187,00
-832,45	168,00
-824,36	115,00
-816,29	170,00
-808,22	208,00
-800,17	208,00
-792,12	103,00
-784,09	195,00
-776,06	208,00
-768,05	126,00
-760,04	313,00
-752,05	218,00
-744,07	159,00
-736,09	66,00
-728,13	178,00
-720,17	171,00
-712,23	181,00
-704,29	187,00
-696,37	221,00
-688,45	201,00
-680,55	174,00
-672,65	204,00
-664,77	58,00
-656,89	54,00
-649,03	113,00
-641,17	216,00
-633,32	186,00
-625,49	201,00
-617,66	184,00
-609,84	86,00
-602,03	75,00
-594,23	129,00
-586,45	242,00
-578,67	108,00
-570,90	142,00
-563,14	123,00
-555,39	116,00
-547,65	127,00
-539,91	169,00
-532,19	364,00
-524,48	156,00
-516,78	117,00
-509,08	264,00
-501,40	77,00
-493,72	196,00
-486,06	248,00
-478,40	263,00
-470,76	187,00
-463,12	193,00
-455,49	167,00
-447,87	124,00
-440,26	134,00
-432,66	66,00
-425,07	306,00
-417,49	254,00
-409,92	238,00
-402,35	212,00
-394,80	261,00
-387,25	292,00
-379,72	123,00
-372,19	234,00
-364,67	220,00
-357,17	257,00
-349,67	225,00
-342,18	209,00
-334,69	234,00
-327,22	230,00
-319,76	222,00
-312,30	249,00
-304,86	186,00
-297,42	337,00
-290,00	189,00
-282,58	266,00
-275,17	161,00
-267,77	332,00
-260,37	216,00
-252,99	259,00
-245,62	262,00
-238,25	283,00
-230,90	363,00
-223,55	211,00
-216,21	412,00
-208,88	258,00
-201,56	426,00
-194,25	346,00
-186,94	371,00
-179,65	368,00
-172,36	490,00
-165,08	428,00
-157,81	574,00
-150,55	512,00
-143,30	597,00
-136,06	615,00
-128,82	764,00
-121,60	647,00
-114,38	782,00
-107,17	839,00
-99,97	1037,00
-92,78	1139,00
-85,60	1375,00
-78,42	1505,00
-71,25	1839,00
-64,10	2058,00
-56,95	2142,00
-49,81	2609,00
-42,67	3188,00
-35,55	4120,00
-28,43	5557,00
-21,33	9503,00
-14,23	32342,00
-7,14	54419,00
-0,05	54171,00
7,02	53809,00
14,09	54108,00
21,14	23779,00
28,19	9957,00
35,23	6437,00
42,27	4848,00
49,29	4149,00
56,31	3467,00
63,32	2890,00
70,32	2495,00
77,31	2158,00
84,29	1825,00
91,27	1651,00
98,23	1511,00
105,19	1466,00
112,14	1446,00
119,09	2223,00
126,02	3237,00
132,95	3653,00
139,87	3692,00
146,78	3481,00
153,68	3576,00
160,58	3403,00
167,46	3385,00
174,34	3422,00
181,21	3181,00
188,08	3328,00
194,93	3298,00
201,78	3233,00
208,62	3291,00
215,45	3253,00
222,27	3364,00
229,09	3321,00
235,90	3180,00
242,70	3188,00
249,49	3185,00
256,27	2982,00
263,05	2940,00
269,82	3068,00
276,58	3040,00
283,33	3015,00
290,08	2972,00
296,82	2918,00
303,55	2835,00
310,27	2877,00
316,98	2874,00
323,69	2772,00
330,39	2726,00
337,08	2811,00
343,76	2695,00
350,44	2737,00
357,11	2843,00
363,77	2708,00
370,42	2728,00
377,07	2757,00
383,71	2765,00
390,34	2611,00
396,96	2699,00
403,58	2674,00
410,19	2762,00
416,79	2827,00
423,38	2824,00
429,97	2701,00
436,55	2436,00
443,12	2479,00
449,68	2527,00
456,24	2523,00
462,79	2471,00
469,33	2326,00
475,86	2307,00
482,39	2343,00
488,91	2316,00
495,42	2208,00
501,93	2261,00
508,42	2198,00
514,91	2194,00
521,40	2159,00
527,87	2168,00
534,34	2280,00
540,80	2268,00
547,25	2256,00
553,70	2168,00
560,14	2177,00
566,57	2174,00
573,00	2136,00
579,41	2201,00
585,83	1962,00
592,23	2131,00
598,62	2078,00
605,01	2101,00
611,40	2055,00
617,77	2032,00
624,14	2022,00
630,50	1913,00
636,85	1952,00
643,20	1995,00
649,54	1767,00
655,87	2003,00
662,20	2022,00
668,52	1869,00
674,83	1921,00
681,13	1681,00
687,43	1941,00
693,72	1809,00
700,00	1867,00
706,28	1934,00
712,55	1841,00
718,81	1993,00
725,07	1811,00
731,32	1944,00
737,56	1943,00
743,79	1817,00
750,02	1871,00
756,24	1854,00
762,46	1899,00
768,67	1820,00
774,87	1827,00
781,06	1700,00
787,25	1698,00
793,43	1901,00
799,60	1756,00
805,77	1891,00
811,93	1723,00
818,08	1764,00
824,23	1868,00
830,37	1795,00
836,50	1880,00
842,63	1908,00
848,75	1781,00
854,87	1844,00
860,97	1867,00
867,07	1805,00
873,17	1718,00
879,25	1693,00
885,33	1900,00
891,41	1694,00
897,47	1684,00
903,53	1749,00
909,59	1656,00
915,63	1567,00
921,67	1693,00
927,71	1566,00
933,74	1509,00
939,76	1515,00
945,77	1525,00
951,78	1733,00
957,78	1503,00
963,78	1549,00
969,77	1718,00
975,75	1599,00
981,72	1674,00
987,69	1523,00
993,66	1636,00
999,61	1567,00
1005,56	1527,00
1011,51	1599,00
1017,44	1586,00
1023,37	1506,00
1029,30	1494,00
1035,22	1607,00
1041,13	1476,00
1047,03	1690,00
1052,93	1816,00
1058,83	1995,00
1064,71	2061,00
1070,59	1917,00
1076,47	1827,00
1082,33	1733,00
1088,20	1638,00
1094,05	1628,00
1099,90	1583,00
1105,74	1444,00
1111,58	1628,00
1117,41	1642,00
1123,23	1887,00
1129,05	1907,00
1134,86	1768,00
1140,67	1611,00
1146,47	1501,00
1152,26	1435,00
1158,05	1507,00
1163,83	1494,00
1169,60	1498,00
1175,37	1509,00
1181,13	1478,00
1186,89	1294,00
1192,64	1463,00
1198,38	1376,00
1204,12	1423,00
1209,85	1521,00
1215,58	1360,00
1221,30	1433,00
1227,02	1429,00
1232,72	1499,00
1238,43	1471,00
1244,12	1440,00
1249,81	1358,00
1255,50	1451,00
1261,17	1503,00
1266,85	1511,00
1272,51	1440,00
1278,17	1536,00
1283,83	1634,00
1289,47	1870,00
1295,12	2404,00
1300,75	2178,00
1306,38	1966,00
1312,01	1866,00
1317,63	1708,00
1323,24	1532,00
1328,85	1605,00
1334,45	1573,00
1340,04	1530,00
1345,63	1461,00
1351,22	1575,00
1356,80	1565,00
1362,37	1559,00
1367,93	1516,00
1373,49	1599,00
1379,05	1568,00
1384,60	1645,00
1390,14	1485,00
1395,68	1316,00
1401,21	1552,00
1406,74	1632,00
1412,26	1640,00
1417,77	1862,00
1423,28	1862,00
1428,78	1934,00
1434,28	2209,00
1439,77	2460,00
1445,26	2463,00
1450,74	2409,00
1456,22	2140,00
1461,68	2150,00
1467,15	1988,00
1472,61	1735,00
1478,06	1577,00
1483,51	1515,00
1488,95	1544,00
1494,38	1383,00
1499,81	1334,00
1505,24	1394,00
1510,65	1285,00
1516,07	1440,00
1521,48	1341,00
1526,88	1256,00
1532,27	1209,00
1537,67	1339,00
1543,05	1390,00
1548,43	1279,00
1553,81	1315,00
1559,18	1345,00
1564,54	1239,00
1569,90	1189,00
1575,25	1289,00
1580,60	1260,00
1585,94	1257,00
1591,28	1331,00
1596,61	1197,00
1601,93	1070,00
1607,25	1259,00
1612,57	1088,00
1617,88	1115,00
1623,18	1250,00
1628,48	1034,00
1633,77	1145,00
1639,06	1168,00
1644,34	1168,00
1649,62	1110,00
1654,89	1093,00
1660,16	1042,00
1665,42	1238,00
1670,67	1213,00
1675,92	1129,00
1681,17	1063,00
1686,41	1117,00
1691,64	1005,00
1696,87	1021,00
1702,10	1118,00
1707,32	1114,00
1712,53	926,00
1717,74	1001,00
1722,94	1078,00
1728,14	1019,00
1733,33	1020,00
1738,52	1074,00
1743,70	1003,00
1748,88	1060,00
1754,05	1048,00
1759,22	927,00
1764,38	997,00
1769,53	1048,00
1774,69	1000,00
1779,83	1065,00
1784,97	806,00
1790,11	1030,00
1795,24	886,00
1800,36	838,00
1805,48	827,00
1810,60	873,00
1815,71	954,00
1820,82	909,00
1825,92	939,00
1831,01	864,00
1836,10	871,00
1841,19	877,00
1846,26	788,00
1851,34	874,00
1856,41	991,00
1861,47	833,00
1866,53	928,00
1871,59	833,00
1876,64	756,00
1881,68	954,00
1886,72	828,00
1891,76	789,00
1896,79	779,00
1901,81	753,00
1906,83	858,00
1911,85	787,00
1916,86	726,00
1921,86	666,00
1926,86	820,00
1931,86	779,00
1936,85	895,00
1941,83	749,00
1946,81	789,00
1951,79	708,00
1956,76	694,00
1961,72	572,00
1966,68	661,00
1971,64	788,00
1976,59	718,00
1981,54	678,00
1986,48	759,00
1991,42	691,00
1996,35	652,00
2001,27	649,00
2006,20	694,00
2011,11	766,00
2016,03	710,00
2020,93	507,00
2025,84	781,00
2030,73	618,00
2035,63	743,00
2040,52	776,00
2045,40	472,00
2050,28	619,00
2055,15	708,00
2060,02	629,00
2064,89	704,00
2069,75	708,00
2074,60	730,00
2079,46	676,00
2084,30	585,00
2089,14	596,00
2093,98	697,00
2098,81	670,00
2103,64	590,00
2108,46	804,00
2113,28	632,00
2118,09	564,00
2122,90	629,00
2127,70	547,00
2132,50	566,00
2137,30	690,00
2142,09	702,00
2146,87	523,00
2151,66	571,00
2156,43	671,00
2161,20	625,00
2165,97	584,00
2170,73	671,00
2175,49	658,00
2180,24	633,00
2184,99	616,00
2189,74	594,00
2194,48	566,00
2199,21	727,00
2203,94	640,00
2208,67	590,00
2213,39	623,00
2218,11	611,00
2222,82	633,00
2227,53	527,00
2232,23	478,00
2236,93	521,00
2241,63	671,00
2246,32	499,00
2251,00	552,00
2255,68	617,00
2260,36	611,00
2265,03	429,00
2269,70	646,00
2274,36	478,00
2279,02	567,00
2283,68	473,00
2288,33	470,00
2292,97	494,00
2297,61	449,00
2302,25	523,00
2306,88	457,00
2311,51	520,00
2316,14	509,00
2320,75	485,00
2325,37	403,00
2329,98	524,00
2334,59	461,00
2339,19	450,00
2343,79	435,00
2348,38	530,00
2352,97	510,00
2357,55	498,00
2362,13	492,00
2366,71	449,00
2371,28	464,00
2375,85	412,00
2380,41	532,00
2384,97	465,00
2389,52	408,00
2394,07	418,00
2398,62	416,00
2403,16	402,00
2407,70	268,00
2412,23	450,00
2416,76	445,00
2421,29	391,00
2425,81	410,00
2430,32	463,00
2434,84	501,00
2439,34	405,00
2443,85	361,00
2448,35	318,00
2452,84	373,00
2457,33	372,00
2461,82	429,00
2466,30	446,00
2470,78	465,00
2475,25	409,00
2479,72	439,00
2484,19	379,00
2488,65	425,00
2493,11	390,00
2497,56	442,00
2502,01	359,00
2506,46	508,00
2510,90	472,00
2515,34	486,00
2519,77	378,00
2524,20	392,00
2528,62	386,00
2533,04	300,00
2537,46	350,00
2541,87	362,00
2546,28	306,00
2550,68	441,00
2555,08	228,00
2559,48	457,00
2563,87	301,00
2568,26	383,00
2572,64	330,00
2577,02	312,00
2581,40	413,00
2585,77	437,00
2590,14	399,00
2594,50	480,00
2598,86	259,00
2603,22	275,00
2607,57	252,00
2611,92	336,00
2616,26	244,00
2620,60	377,00
2624,94	429,00
2629,27	426,00
2633,60	432,00
2637,92	445,00
2642,24	386,00
2646,56	356,00
2650,87	218,00
2655,18	357,00
2659,48	428,00
2663,78	362,00
2668,08	358,00
2672,37	307,00
2676,66	502,00
2680,95	357,00
2685,23	378,00
2689,50	343,00
2693,78	280,00
2698,05	392,00
2702,31	378,00
2706,57	473,00
2710,83	498,00
2715,08	360,00
2719,33	436,00
2723,58	491,00
2727,82	469,00
2732,06	359,00
2736,29	443,00
2740,53	419,00
2744,75	394,00
2748,97	408,00
2753,19	350,00
2757,41	452,00
2761,62	349,00
2765,83	403,00
2770,03	403,00
2774,23	371,00
2778,43	419,00
2782,62	518,00
2786,81	371,00
2791,00	419,00
2795,18	434,00
2799,35	480,00
2803,53	347,00
2807,70	551,00
2811,86	513,00
2816,03	427,00
2820,19	539,00
2824,34	680,00
2828,49	681,00
2832,64	669,00
2836,78	857,00
2840,92	1229,00
2845,06	1330,00
2849,19	1466,00
2853,32	1492,00
2857,45	1477,00
2861,57	1445,00
2865,69	1328,00
2869,80	1257,00
2873,91	1519,00
2878,02	1510,00
2882,12	1662,00
2886,22	1521,00
2890,32	1650,00
2894,41	1390,00
2898,50	1397,00
2902,58	1372,00
2906,67	1290,00
2910,74	1106,00
2914,82	996,00
2918,89	1086,00
2922,96	1005,00
2927,02	951,00
2931,08	898,00
2935,13	930,00
2939,19	857,00
2943,24	796,00
2947,28	610,00
2951,32	464,00
2955,36	424,00
2959,40	625,00
2963,43	608,00
2967,46	513,00
2971,48	502,00
2975,50	432,00
2979,52	519,00
2983,53	324,00
2987,54	400,00
2991,55	333,00
2995,55	316,00
2999,55	254,00
3003,54	301,00
3007,54	248,00
3011,53	237,00
3015,51	214,00
3019,49	214,00
3023,47	284,00
3027,45	146,00
3031,42	238,00
3035,39	274,00
3039,35	195,00
3043,31	357,00
3047,27	100,00
3051,22	251,00
3055,17	178,00
3059,12	316,00
3063,06	219,00
3067,00	245,00
3070,94	279,00
3074,87	189,00
3078,80	269,00
3082,73	191,00
3086,65	144,00
3090,57	264,00
3094,49	164,00
3098,40	48,00
3102,31	279,00
3106,22	193,00
3110,12	107,00
3114,02	201,00
3117,92	411,00
3121,81	223,00
3125,70	118,00
3129,58	212,00
3133,47	224,00
3137,34	105,00
3141,22	218,00
3145,09	288,00
3148,96	199,00
3152,83	252,00
3156,69	154,00
3160,55	296,00
3164,40	236,00
3168,26	308,00
3172,10	256,00
3175,95	238,00
3179,79	165,00
3183,63	199,00
3187,47	251,00
3191,30	199,00
3195,13	141,00
3198,95	278,00
3202,78	168,00
3206,60	95,00
3210,41	202,00
3214,23	259,00
3218,03	152,00
3221,84	234,00
3225,64	168,00
3229,44	292,00
3233,24	245,00
3237,03	303,00
3240,82	122,00
3244,61	317,00
3248,39	138,00
3252,17	236,00
3255,95	191,00
3259,72	173,00
3263,49	165,00
3267,26	274,00
3271,03	143,00
3274,79	130,00
3278,54	239,00
3282,30	146,00
3286,05	183,00
3289,80	122,00
3293,54	357,00
3297,29	247,00
3301,02	218,00
3304,76	70,00
3308,49	63,00
3312,22	275,00
3315,95	277,00
3319,67	145,00
3323,39	215,00
3327,10	311,00
3330,82	230,00
3334,53	148,00
3338,24	213,00
3341,94	145,00
3345,64	139,00
3349,34	129,00
3353,03	316,00
3356,72	265,00
3360,41	93,00
3364,10	93,00
3367,78	169,00
3371,46	112,00
3375,13	91,00
3378,81	225,00
3382,48	267,00
3386,14	254,00
3389,81	175,00
3393,47	170,00
3397,12	58,00
3400,78	206,00
3404,43	83,00
3408,08	150,00
3411,72	155,00
3415,36	227,00
3419,00	33,00
3422,64	237,00
3426,27	109,00
3429,90	251,00
3433,53	229,00
3437,15	113,00
3440,77	198,00
3444,39	216,00
3448,00	248,00
3451,62	103,00
3455,22	78,00
3458,83	222,00
3462,43	211,00
3466,03	184,00
3469,63	141,00
3473,22	119,00
3476,81	179,00
3480,40	169,00
3483,99	102,00
3487,57	158,00
3491,15	227,00
3494,72	132,00
3498,29	130,00
3501,86	234,00
3505,43	271,00
3508,99	221,00
3512,56	197,00
3516,11	230,00
3519,67	177,00
3523,22	259,00
3526,77	310,00
3530,32	105,00
3533,86	1,00
3537,40	75,00
3540,94	265,00
3544,47	111,00
3548,00	170,00
3551,53	206,00
3555,06	88,00
3558,58	212,00
3562,10	164,00
3565,62	210,00
3569,13	209,00
3572,64	216,00
3576,15	81,00
3579,66	232,00
3583,16	154,00
3586,66	181,00
3590,16	94,00
3593,65	174,00
3597,14	157,00
3600,63	120,00
3604,11	149,00
3607,60	130,00
3611,08	128,00
3614,55	115,00
3618,03	219,00
3621,50	79,00
3624,97	151,00
3628,43	159,00
3631,90	277,00
3635,36	113,00
3638,81	202,00
3642,27	97,00
3645,72	235,00
3649,17	106,00
3652,61	172,00
3656,06	178,00
3659,50	15,00
3662,93	234,00
3666,37	114,00
3669,80	71,00
3673,23	128,00
3676,65	198,00
3680,08	93,00
3683,50	149,00
3686,92	132,00
3690,33	124,00
3693,74	246,00
3697,15	106,00
3700,56	241,00
3703,96	190,00
3707,36	86,00
3710,76	135,00
3714,16	56,00
3717,55	205,00
3720,94	263,00
3724,33	76,00
3727,71	179,00
3731,10	150,00
3734,48	142,00
3737,85	14,00
3741,23	99,00
3744,60	124,00
3747,97	256,00
3751,33	150,00
3754,69	59,00
3758,05	146,00
3761,41	98,00
3764,77	217,00
3768,12	149,00
3771,47	88,00
3774,82	183,00
3778,16	-7,00
3781,50	0,00
3784,84	-2,00
3788,18	-1,00
>>>>>End Processed Spectral Data<<<<<
