SpectraSuite Data File
++++++++++++++++++++++++++++++++++++
Date: Tue Mar 03 12:07:31 ICT 2026
User: user
Dark Spectrum Present: Yes
Reference Spectrum Present: No
Number of Sampled Component Spectra: 1
Spectrometers: MAYP113682
Integration Time (usec): 3000000 (MAYP113682)
Spectra Averaged: 1 (MAYP113682)
Boxcar Smoothing: 0 (MAYP113682)
Correct for Electrical Dark: No (MAYP113682)
Strobe/Lamp Enabled: No (MAYP113682)
Correct for Detector Non-linearity: No (MAYP113682)
Correct for Stray Light: No (MAYP113682)
Number of Pixels in Processed Spectrum: 2068
>>>>>Begin Processed Spectral Data<<<<<
-37534,58	11,00
-37414,56	5,00
-37295,11	-5,00
-37176,24	-2,00
-37057,95	-63,00
-36940,22	-8,00
-36823,05	-66,00
-36706,45	-3,00
-36590,40	92,00
-36474,90	36,00
-36359,95	-13,00
-36245,55	72,00
-36131,68	12,00
-36018,35	59,00
-35905,55	-69,00
-35793,29	-32,00
-35681,54	5,00
-35570,32	72,00
-35459,62	-18,00
-35349,43	-32,00
-35239,75	-5,00
-35130,58	134,00
-35021,91	-10,00
-34913,74	22,00
-34806,07	31,00
-34698,89	-81,00
-34592,20	81,00
-34486,00	22,00
-34380,28	-61,00
-34275,04	56,00
-34170,27	-38,00
-34065,98	93,00
-33962,16	-45,00
-33858,81	-14,00
-33755,92	7,00
-33653,49	-102,00
-33551,52	35,00
-33450,01	26,00
-33348,94	-22,00
-33248,33	70,00
-33148,16	-58,00
-33048,43	151,00
-32949,14	-73,00
-32850,29	-25,00
-32751,87	15,00
-32653,89	-120,00
-32556,33	22,00
-32459,20	-45,00
-32362,49	-25,00
-32266,19	108,00
-32170,32	-83,00
-32074,86	42,00
-31979,82	-103,00
-31885,18	-36,00
-31790,95	-10,00
-31697,12	2,00
-31603,69	87,00
-31510,67	-159,00
-31418,04	5,00
-31325,80	51,00
-31233,95	5,00
-31142,49	46,00
-31051,42	100,00
-30960,73	1,00
-30870,43	52,00
-30780,50	80,00
-30690,95	-89,00
-30601,77	52,00
-30512,97	45,00
-30424,53	61,00
-30336,46	-19,00
-30248,76	-16,00
-30161,42	10,00
-30074,44	8,00
-29987,81	-45,00
-29901,55	71,00
-29815,63	94,00
-29730,07	76,00
-29644,86	205,00
-29560,00	128,00
-29475,48	-21,00
-29391,30	-31,00
-29307,47	36,00
-29223,97	43,00
-29140,81	47,00
-29057,99	52,00
-28975,50	28,00
-28893,34	119,00
-28811,51	129,00
-28730,00	-87,00
-28648,82	63,00
-28567,97	-98,00
-28487,43	28,00
-28407,21	-115,00
-28327,32	43,00
-28247,73	27,00
-28168,46	24,00
-28089,50	22,00
-28010,85	-35,00
-27932,51	52,00
-27854,48	-34,00
-27776,75	-80,00
-27699,32	27,00
-27622,19	72,00
-27545,37	38,00
-27468,84	51,00
-27392,60	-50,00
-27316,66	60,00
-27241,01	101,00
-27165,66	54,00
-27090,59	51,00
-27015,81	-11,00
-26941,31	173,00
-26867,10	-24,00
-26793,17	192,00
-26719,52	22,00
-26646,15	102,00
-26573,06	93,00
-26500,24	-2,00
-26427,70	-123,00
-26355,43	-60,00
-26283,43	-13,00
-26211,71	158,00
-26140,25	3,00
-26069,06	16,00
-25998,13	31,00
-25927,46	37,00
-25857,06	93,00
-25786,92	61,00
-25717,04	-14,00
-25647,42	-11,00
-25578,05	36,00
-25508,94	166,00
-25440,09	-42,00
-25371,48	130,00
-25303,13	-13,00
-25235,02	65,00
-25167,17	134,00
-25099,56	-26,00
-25032,19	17,00
-24965,07	-61,00
-24898,20	35,00
-24831,56	-59,00
-24765,17	73,00
-24699,01	-2,00
-24633,10	2,00
-24567,41	10,00
-24501,97	129,00
-24436,75	-214,00
-24371,77	133,00
-24307,03	12,00
-24242,51	-11,00
-24178,22	56,00
-24114,16	20,00
-24050,32	160,00
-23986,71	83,00
-23923,32	50,00
-23860,16	-46,00
-23797,22	-27,00
-23734,50	-105,00
-23672,00	147,00
-23609,71	10,00
-23547,65	-20,00
-23485,80	4,00
-23424,16	65,00
-23362,74	-5,00
-23301,53	42,00
-23240,54	-113,00
-23179,75	-46,00
-23119,17	79,00
-23058,80	30,00
-22998,64	27,00
-22938,68	18,00
-22878,93	50,00
-22819,39	31,00
-22760,04	-56,00
-22700,90	149,00
-22641,96	-59,00
-22583,22	79,00
-22524,68	122,00
-22466,33	-80,00
-22408,19	43,00
-22350,23	14,00
-22292,48	-51,00
-22234,92	149,00
-22177,55	-112,00
-22120,37	16,00
-22063,38	19,00
-22006,58	-56,00
-21949,98	-87,00
-21893,56	10,00
-21837,33	-164,00
-21781,28	13,00
-21725,42	7,00
-21669,74	-79,00
-21614,25	134,00
-21558,94	2,00
-21503,81	11,00
-21448,86	-108,00
-21394,10	55,00
-21339,51	134,00
-21285,10	25,00
-21230,86	34,00
-21176,81	-63,00
-21122,93	54,00
-21069,22	41,00
-21015,69	-16,00
-20962,33	27,00
-20909,14	-29,00
-20856,13	-47,00
-20803,28	-89,00
-20750,61	18,00
-20698,10	201,00
-20645,76	110,00
-20593,59	-10,00
-20541,59	114,00
-20489,75	26,00
-20438,07	24,00
-20386,56	57,00
-20335,22	-28,00
-20284,03	-73,00
-20233,01	-35,00
-20182,15	-111,00
-20131,45	43,00
-20080,91	-23,00
-20030,52	-2,00
-19980,30	74,00
-19930,23	11,00
-19880,32	18,00
-19830,56	87,00
-19780,96	-16,00
-19731,52	-9,00
-19682,23	-25,00
-19633,09	84,00
-19584,10	-41,00
-19535,26	67,00
-19486,58	105,00
-19438,04	-25,00
-19389,66	-14,00
-19341,42	3,00
-19293,33	-11,00
-19245,39	99,00
-19197,60	18,00
-19149,95	108,00
-19102,45	-43,00
-19055,09	96,00
-19007,87	77,00
-18960,80	96,00
-18913,87	-67,00
-18867,09	-47,00
-18820,44	97,00
-18773,94	40,00
-18727,57	-186,00
-18681,35	-31,00
-18635,26	-4,00
-18589,31	-29,00
-18543,50	118,00
-18497,83	-44,00
-18452,29	79,00
-18406,89	39,00
-18361,63	7,00
-18316,50	-83,00
-18271,50	21,00
-18226,63	85,00
-18181,90	122,00
-18137,30	84,00
-18092,84	-81,00
-18048,50	31,00
-18004,29	60,00
-17960,22	2,00
-17916,27	115,00
-17872,45	9,00
-17828,76	13,00
-17785,20	65,00
-17741,77	-14,00
-17698,46	45,00
-17655,28	11,00
-17612,22	-6,00
-17569,29	-29,00
-17526,48	-152,00
-17483,79	-106,00
-17441,23	-80,00
-17398,79	2,00
-17356,48	-64,00
-17314,28	27,00
-17272,21	-41,00
-17230,26	31,00
-17188,42	-128,00
-17146,71	20,00
-17105,12	81,00
-17063,64	25,00
-17022,28	3,00
-16981,04	6,00
-16939,92	-12,00
-16898,91	9,00
-16858,02	-22,00
-16817,25	153,00
-16776,59	-37,00
-16736,04	83,00
-16695,61	-2,00
-16655,29	125,00
-16615,09	-69,00
-16574,99	-5,00
-16535,01	12,00
-16495,15	158,00
-16455,39	24,00
-16415,74	89,00
-16376,21	-99,00
-16336,78	25,00
-16297,46	-64,00
-16258,26	42,00
-16219,16	-30,00
-16180,17	99,00
-16141,28	125,00
-16102,51	142,00
-16063,84	-77,00
-16025,27	-17,00
-15986,82	0,00
-15948,46	61,00
-15910,22	37,00
-15872,07	12,00
-15834,04	-137,00
-15796,10	-99,00
-15758,27	42,00
-15720,54	62,00
-15682,91	25,00
-15645,39	-120,00
-15607,97	84,00
-15570,64	-43,00
-15533,42	-13,00
-15496,30	16,00
-15459,28	49,00
-15422,36	-14,00
-15385,54	83,00
-15348,82	-8,00
-15312,19	-50,00
-15275,66	-19,00
-15239,23	-65,00
-15202,90	71,00
-15166,67	-82,00
-15130,53	2,00
-15094,48	-15,00
-15058,54	5,00
-15022,68	100,00
-14986,93	52,00
-14951,26	-13,00
-14915,69	-52,00
-14880,22	32,00
-14844,84	-87,00
-14809,55	-44,00
-14774,35	-31,00
-14739,25	10,00
-14704,24	192,00
-14669,32	-47,00
-14634,49	125,00
-14599,75	77,00
-14565,10	-9,00
-14530,55	2,00
-14496,08	-60,00
-14461,70	90,00
-14427,41	-8,00
-14393,21	-160,00
-14359,10	59,00
-14325,07	-139,00
-14291,14	30,00
-14257,29	75,00
-14223,52	-60,00
-14189,85	5,00
-14156,26	-71,00
-14122,76	44,00
-14089,34	30,00
-14056,01	-83,00
-14022,76	-24,00
-13989,60	-43,00
-13956,52	86,00
-13923,53	111,00
-13890,62	-24,00
-13857,79	-31,00
-13825,05	102,00
-13792,39	-55,00
-13759,81	121,00
-13727,31	116,00
-13694,90	-69,00
-13662,57	-80,00
-13630,31	12,00
-13598,14	-8,00
-13566,05	-36,00
-13534,05	-10,00
-13502,12	-48,00
-13470,27	43,00
-13438,50	-42,00
-13406,80	25,00
-13375,19	-111,00
-13343,66	62,00
-13312,20	19,00
-13280,83	-112,00
-13249,53	-25,00
-13218,30	5,00
-13187,16	110,00
-13156,09	-55,00
-13125,10	-22,00
-13094,18	-118,00
-13063,34	180,00
-13032,58	-98,00
-13001,89	123,00
-12971,28	-10,00
-12940,74	10,00
-12910,27	11,00
-12879,88	-56,00
-12849,57	16,00
-12819,33	106,00
-12789,16	13,00
-12759,06	91,00
-12729,04	-59,00
-12699,09	28,00
-12669,21	143,00
-12639,41	-55,00
-12609,68	62,00
-12580,02	-22,00
-12550,43	46,00
-12520,91	-18,00
-12491,46	-45,00
-12462,08	78,00
-12432,77	-24,00
-12403,54	-94,00
-12374,37	41,00
-12345,27	-20,00
-12316,24	39,00
-12287,29	-7,00
-12258,40	-10,00
-12229,57	-18,00
-12200,82	32,00
-12172,14	-53,00
-12143,52	-57,00
-12114,97	6,00
-12086,49	-3,00
-12058,07	10,00
-12029,73	-53,00
-12001,44	-36,00
-11973,23	3,00
-11945,08	-67,00
-11917,00	1,00
-11888,98	-56,00
-11861,03	-136,00
-11833,15	68,00
-11805,32	-27,00
-11777,57	21,00
-11749,88	-23,00
-11722,25	76,00
-11694,69	-77,00
-11667,19	42,00
-11639,75	-38,00
-11612,38	-66,00
-11585,07	50,00
-11557,83	76,00
-11530,65	-120,00
-11503,53	-27,00
-11476,47	-8,00
-11449,48	2,00
-11422,54	-19,00
-11395,67	47,00
-11368,86	116,00
-11342,11	-20,00
-11315,43	104,00
-11288,80	-34,00
-11262,23	-114,00
-11235,73	54,00
-11209,28	-11,00
-11182,90	161,00
-11156,57	-1,00
-11130,31	-120,00
-11104,10	-3,00
-11077,96	153,00
-11051,87	133,00
-11025,84	-19,00
-10999,87	164,00
-10973,96	19,00
-10948,11	44,00
-10922,31	-11,00
-10896,58	83,00
-10870,90	-27,00
-10845,28	64,00
-10819,71	112,00
-10794,20	58,00
-10768,75	84,00
-10743,36	-46,00
-10718,02	166,00
-10692,74	128,00
-10667,52	123,00
-10642,35	41,00
-10617,24	139,00
-10592,18	211,00
-10567,18	160,00
-10542,23	224,00
-10517,34	123,00
-10492,51	75,00
-10467,72	171,00
-10443,00	228,00
-10418,32	215,00
-10393,70	181,00
-10369,14	252,00
-10344,63	238,00
-10320,17	327,00
-10295,77	293,00
-10271,42	349,00
-10247,12	327,00
-10222,88	326,00
-10198,68	423,00
-10174,54	359,00
-10150,46	376,00
-10126,42	457,00
-10102,44	431,00
-10078,51	467,00
-10054,63	588,00
-10030,80	474,00
-10007,03	622,00
-9983,30	694,00
-9959,63	642,00
-9936,01	705,00
-9912,44	742,00
-9888,92	855,00
-9865,44	847,00
-9842,02	900,00
-9818,65	905,00
-9795,33	940,00
-9772,06	960,00
-9748,84	1002,00
-9725,67	1285,00
-9702,55	1456,00
-9679,47	1708,00
-9656,45	1882,00
-9633,47	1810,00
-9610,55	1893,00
-9587,67	2024,00
-9564,84	2076,00
-9542,06	2166,00
-9519,32	2494,00
-9496,64	2831,00
-9474,00	2975,00
-9451,41	3099,00
-9428,87	3217,00
-9406,37	2964,00
-9383,92	2837,00
-9361,52	2519,00
-9339,17	2669,00
-9316,86	2750,00
-9294,60	3231,00
-9272,38	3465,00
-9250,21	4037,00
-9228,09	4035,00
-9206,01	3787,00
-9183,98	3379,00
-9162,00	2916,00
-9140,06	2708,00
-9118,16	2801,00
-9096,31	2956,00
-9074,51	2866,00
-9052,75	3078,00
-9031,04	2860,00
-9009,37	2682,00
-8987,74	2369,00
-8966,16	2107,00
-8944,63	1957,00
-8923,14	1806,00
-8901,69	1854,00
-8880,29	2071,00
-8858,93	2358,00
-8837,61	2524,00
-8816,34	2705,00
-8795,11	2839,00
-8773,92	2547,00
-8752,78	2241,00
-8731,68	2115,00
-8710,62	2184,00
-8689,61	2390,00
-8668,63	2495,00
-8647,70	2537,00
-8626,82	2622,00
-8605,97	2663,00
-8585,17	2458,00
-8564,41	2231,00
-8543,69	2022,00
-8523,01	1855,00
-8502,37	1975,00
-8481,78	1923,00
-8461,23	2115,00
-8440,71	2273,00
-8420,24	2414,00
-8399,81	2522,00
-8379,42	2338,00
-8359,08	2270,00
-8338,77	1826,00
-8318,50	1928,00
-8298,27	1723,00
-8278,09	1856,00
-8257,94	1941,00
-8237,83	2217,00
-8217,76	2440,00
-8197,74	2255,00
-8177,75	2264,00
-8157,80	2246,00
-8137,89	1878,00
-8118,02	1888,00
-8098,19	1891,00
-8078,40	1792,00
-8058,65	2105,00
-8038,93	2009,00
-8019,26	2052,00
-7999,62	2118,00
-7980,02	1814,00
-7960,46	1863,00
-7940,94	1847,00
-7921,46	1834,00
-7902,01	1674,00
-7882,60	1748,00
-7863,23	1891,00
-7843,90	1920,00
-7824,61	2014,00
-7805,35	2236,00
-7786,13	2120,00
-7766,95	2106,00
-7747,80	1916,00
-7728,69	1880,00
-7709,62	1704,00
-7690,59	2130,00
-7671,59	2180,00
-7652,63	2320,00
-7633,70	2312,00
-7614,81	1982,00
-7595,96	1930,00
-7577,15	1810,00
-7558,37	1920,00
-7539,62	1787,00
-7520,91	1911,00
-7502,24	2061,00
-7483,60	2107,00
-7465,00	2114,00
-7446,44	1785,00
-7427,91	1637,00
-7409,41	1378,00
-7390,95	1303,00
-7372,53	1308,00
-7354,14	1282,00
-7335,78	1318,00
-7317,46	1305,00
-7299,18	1432,00
-7280,92	1704,00
-7262,71	2024,00
-7244,52	2185,00
-7226,38	2189,00
-7208,26	2043,00
-7190,18	1952,00
-7172,14	1760,00
-7154,12	1832,00
-7136,15	1695,00
-7118,20	1978,00
-7100,29	2161,00
-7082,41	1899,00
-7064,57	1965,00
-7046,76	1886,00
-7028,98	1714,00
-7011,24	1387,00
-6993,53	1347,00
-6975,85	1067,00
-6958,20	990,00
-6940,59	840,00
-6923,01	1043,00
-6905,46	1191,00
-6887,94	1332,00
-6870,46	4348,00
-6853,01	1686,00
-6835,59	1875,00
-6818,21	1592,00
-6800,85	1404,00
-6783,53	1037,00
-6766,24	860,00
-6748,98	833,00
-6731,76	723,00
-6714,56	781,00
-6697,40	722,00
-6680,26	734,00
-6663,16	883,00
-6646,09	1249,00
-6629,05	1304,00
-6612,05	1501,00
-6595,07	1510,00
-6578,13	1374,00
-6561,21	1149,00
-6544,33	752,00
-6527,47	787,00
-6510,65	734,00
-6493,86	701,00
-6477,10	595,00
-6460,36	673,00
-6443,66	723,00
-6426,99	669,00
-6410,35	636,00
-6393,74	924,00
-6377,16	740,00
-6360,61	784,00
-6344,09	1094,00
-6327,59	1048,00
-6311,13	927,00
-6294,70	984,00
-6278,29	1049,00
-6261,92	1285,00
-6245,58	1391,00
-6229,26	1493,00
-6212,97	1274,00
-6196,72	1056,00
-6180,49	755,00
-6164,29	350,00
-6148,12	376,00
-6131,98	361,00
-6115,86	275,00
-6099,78	320,00
-6083,72	316,00
-6067,69	247,00
-6051,69	245,00
-6035,72	303,00
-6019,78	470,00
-6003,87	760,00
-5987,98	850,00
-5972,12	1028,00
-5956,29	1039,00
-5940,49	895,00
-5924,71	748,00
-5908,96	551,00
-5893,24	360,00
-5877,55	185,00
-5861,89	357,00
-5846,25	415,00
-5830,64	562,00
-5815,05	578,00
-5799,50	456,00
-5783,97	424,00
-5768,47	554,00
-5752,99	781,00
-5737,55	1004,00
-5722,12	1002,00
-5706,73	901,00
-5691,36	778,00
-5676,02	583,00
-5660,71	442,00
-5645,42	321,00
-5630,16	468,00
-5614,92	634,00
-5599,71	725,00
-5584,53	779,00
-5569,37	763,00
-5554,24	630,00
-5539,14	550,00
-5524,06	509,00
-5509,01	682,00
-5493,98	695,00
-5478,98	716,00
-5464,00	564,00
-5449,05	540,00
-5434,13	476,00
-5419,23	476,00
-5404,36	413,00
-5389,51	597,00
-5374,69	915,00
-5359,89	1047,00
-5345,12	1124,00
-5330,37	972,00
-5315,65	901,00
-5300,95	713,00
-5286,28	757,00
-5271,63	654,00
-5257,01	497,00
-5242,41	493,00
-5227,84	565,00
-5213,29	489,00
-5198,76	224,00
-5184,26	104,00
-5169,79	402,00
-5155,33	400,00
-5140,91	717,00
-5126,51	747,00
-5112,13	807,00
-5097,77	459,00
-5083,44	512,00
-5069,13	282,00
-5054,85	437,00
-5040,59	462,00
-5026,36	667,00
-5012,15	572,00
-4997,96	521,00
-4983,80	500,00
-4969,66	316,00
-4955,54	438,00
-4941,44	491,00
-4927,37	789,00
-4913,33	1080,00
-4899,30	1066,00
-4885,30	1136,00
-4871,33	760,00
-4857,37	448,00
-4843,44	312,00
-4829,53	298,00
-4815,65	404,00
-4801,79	655,00
-4787,95	530,00
-4774,13	427,00
-4760,34	336,00
-4746,56	228,00
-4732,82	197,00
-4719,09	422,00
-4705,38	666,00
-4691,70	840,00
-4678,04	943,00
-4664,41	808,00
-4650,79	457,00
-4637,20	285,00
-4623,63	398,00
-4610,08	464,00
-4596,56	608,00
-4583,05	711,00
-4569,57	612,00
-4556,11	314,00
-4542,67	163,00
-4529,25	234,00
-4515,86	589,00
-4502,49	718,00
-4489,13	778,00
-4475,80	806,00
-4462,49	367,00
-4449,21	480,00
-4435,94	296,00
-4422,70	363,00
-4409,47	517,00
-4396,27	608,00
-4383,09	460,00
-4369,93	188,00
-4356,79	163,00
-4343,67	184,00
-4330,58	357,00
-4317,50	419,00
-4304,45	403,00
-4291,41	287,00
-4278,40	176,00
-4265,41	174,00
-4252,44	276,00
-4239,49	452,00
-4226,55	483,00
-4213,65	321,00
-4200,76	208,00
-4187,89	74,00
-4175,04	105,00
-4162,21	267,00
-4149,40	285,00
-4136,61	148,00
-4123,85	52,00
-4111,10	52,00
-4098,37	69,00
-4085,66	201,00
-4072,98	44,00
-4060,31	73,00
-4047,66	154,00
-4035,04	94,00
-4022,43	217,00
-4009,84	237,00
-3997,27	70,00
-3984,72	79,00
-3972,19	99,00
-3959,69	26,00
-3947,20	109,00
-3934,73	-22,00
-3922,27	97,00
-3909,84	-60,00
-3897,43	124,00
-3885,04	-31,00
-3872,67	87,00
-3860,31	37,00
-3847,98	-56,00
-3835,66	79,00
-3823,36	19,00
-3811,09	-31,00
-3798,83	96,00
-3786,59	12,00
-3774,37	68,00
-3762,17	-77,00
-3749,98	91,00
-3737,82	23,00
-3725,67	-9,00
-3713,55	-31,00
-3701,44	-51,00
-3689,35	54,00
-3677,28	44,00
-3665,22	38,00
-3653,19	68,00
-3641,17	26,00
-3629,18	-68,00
-3617,20	2,00
-3605,24	99,00
-3593,30	27,00
-3581,37	-13,00
-3569,47	-6,00
-3557,58	58,00
-3545,71	108,00
-3533,86	-27,00
-3522,02	17,00
-3510,21	15,00
-3498,41	-26,00
-3486,63	-34,00
-3474,87	35,00
-3463,12	-88,00
-3451,40	-24,00
-3439,69	101,00
-3428,00	69,00
-3416,33	-34,00
-3404,67	8,00
-3393,03	-85,00
-3381,41	125,00
-3369,81	19,00
-3358,22	52,00
-3346,66	52,00
-3335,10	-185,00
-3323,57	-48,00
-3312,06	-3,00
-3300,56	0,00
-3289,08	-37,00
-3277,61	29,00
-3266,16	-9,00
-3254,73	-104,00
-3243,32	5,00
-3231,92	23,00
-3220,55	-91,00
-3209,18	78,00
-3197,84	24,00
-3186,51	-15,00
-3175,20	20,00
-3163,90	-50,00
-3152,63	27,00
-3141,36	75,00
-3130,12	-71,00
-3118,89	-41,00
-3107,68	20,00
-3096,49	60,00
-3085,31	8,00
-3074,15	-60,00
-3063,00	-33,00
-3051,87	-28,00
-3040,76	-32,00
-3029,67	-72,00
-3018,59	-18,00
-3007,52	-48,00
-2996,48	92,00
-2985,44	59,00
-2974,43	27,00
-2963,43	-16,00
-2952,45	-81,00
-2941,48	44,00
-2930,53	-36,00
-2919,60	-71,00
-2908,68	90,00
-2897,78	-9,00
-2886,89	79,00
-2876,02	14,00
-2865,17	78,00
-2854,33	-54,00
-2843,50	67,00
-2832,70	128,00
-2821,90	-6,00
-2811,13	-14,00
-2800,37	61,00
-2789,62	-29,00
-2778,89	94,00
-2768,18	-85,00
-2757,48	87,00
-2746,80	-39,00
-2736,13	12,00
-2725,48	34,00
-2714,84	30,00
-2704,22	79,00
-2693,61	15,00
-2683,02	68,00
-2672,45	28,00
-2661,89	-53,00
-2651,34	-37,00
-2640,81	-5,00
-2630,30	94,00
-2619,80	75,00
-2609,31	3,00
-2598,84	-66,00
-2588,39	-15,00
-2577,95	-126,00
-2567,52	47,00
-2557,11	-43,00
-2546,71	21,00
-2536,33	28,00
-2525,97	-31,00
-2515,62	-23,00
-2505,28	66,00
-2494,96	163,00
-2484,65	-106,00
-2474,36	-11,00
-2464,08	16,00
-2453,82	31,00
-2443,57	157,00
-2433,33	109,00
-2423,11	9,00
-2412,91	-73,00
-2402,72	50,00
-2392,54	-124,00
-2382,38	9,00
-2372,23	83,00
-2362,09	106,00
-2351,97	11,00
-2341,87	58,00
-2331,78	32,00
-2321,70	-28,00
-2311,64	56,00
-2301,59	68,00
-2291,55	80,00
-2281,53	135,00
-2271,53	53,00
-2261,53	-24,00
-2251,55	-2,00
-2241,59	-57,00
-2231,64	15,00
-2221,70	-1,00
-2211,78	-20,00
-2201,87	71,00
-2191,97	1,00
-2182,09	55,00
-2172,22	-8,00
-2162,37	153,00
-2152,53	24,00
-2142,70	8,00
-2132,89	0,00
-2123,09	14,00
-2113,30	36,00
-2103,53	7,00
-2093,77	3,00
-2084,02	-28,00
-2074,29	214,00
-2064,57	-12,00
-2054,86	52,00
-2045,17	72,00
-2035,49	-38,00
-2025,82	19,00
-2016,17	27,00
-2006,53	70,00
-1996,91	-61,00
-1987,29	11,00
-1977,69	-68,00
-1968,11	-28,00
-1958,53	57,00
-1948,97	32,00
-1939,42	3,00
-1929,89	66,00
-1920,37	-64,00
-1910,86	79,00
-1901,36	153,00
-1891,88	-61,00
-1882,41	-33,00
-1872,95	-44,00
-1863,51	-150,00
-1854,08	-81,00
-1844,66	24,00
-1835,26	-105,00
-1825,86	36,00
-1816,48	-22,00
-1807,11	30,00
-1797,76	18,00
-1788,42	106,00
-1779,09	-15,00
-1769,77	-141,00
-1760,47	125,00
-1751,17	65,00
-1741,89	68,00
-1732,63	-13,00
-1723,37	-12,00
-1714,13	3,00
-1704,90	93,00
-1695,68	-12,00
-1686,48	38,00
-1677,29	88,00
-1668,11	56,00
-1658,94	-84,00
-1649,78	-146,00
-1640,64	-22,00
-1631,51	12,00
-1622,39	43,00
-1613,28	-108,00
-1604,19	-44,00
-1595,10	82,00
-1586,03	-119,00
-1576,97	-77,00
-1567,93	-61,00
-1558,89	-68,00
-1549,87	47,00
-1540,86	63,00
-1531,86	-12,00
-1522,87	12,00
-1513,90	71,00
-1504,93	3,00
-1495,98	-1,00
-1487,04	115,00
-1478,12	105,00
-1469,20	34,00
-1460,30	-14,00
-1451,40	-24,00
-1442,52	143,00
-1433,65	-85,00
-1424,80	62,00
-1415,95	137,00
-1407,12	-22,00
-1398,30	-40,00
-1389,48	-94,00
-1380,69	44,00
-1371,90	-15,00
-1363,12	-72,00
-1354,36	40,00
-1345,60	32,00
-1336,86	9,00
-1328,13	108,00
-1319,41	-69,00
-1310,70	19,00
-1302,01	60,00
-1293,32	109,00
-1284,65	71,00
-1275,99	109,00
-1267,33	71,00
-1258,69	-56,00
-1250,06	-5,00
-1241,45	-98,00
-1232,84	2,00
-1224,25	50,00
-1215,66	-42,00
-1207,09	53,00
-1198,53	116,00
-1189,97	-65,00
-1181,43	22,00
-1172,91	-145,00
-1164,39	60,00
-1155,88	-111,00
-1147,38	-88,00
-1138,90	-56,00
-1130,43	149,00
-1121,96	33,00
-1113,51	31,00
-1105,07	77,00
-1096,64	35,00
-1088,22	-66,00
-1079,81	-85,00
-1071,41	-48,00
-1063,02	35,00
-1054,65	116,00
-1046,28	-35,00
-1037,92	-5,00
-1029,58	1,00
-1021,24	-45,00
-1012,92	-11,00
-1004,61	30,00
-996,30	-32,00
-988,01	-74,00
-979,73	-33,00
-971,46	1,00
-963,20	-45,00
-954,95	-61,00
-946,71	36,00
-938,48	70,00
-930,26	-113,00
-922,06	-38,00
-913,86	95,00
-905,67	-24,00
-897,49	-2,00
-889,33	26,00
-881,17	-14,00
-873,02	94,00
-864,89	-49,00
-856,76	58,00
-848,65	-19,00
-840,54	-62,00
-832,45	-10,00
-824,36	-42,00
-816,29	-146,00
-808,22	-1,00
-800,17	-37,00
-792,12	-43,00
-784,09	130,00
-776,06	-11,00
-768,05	-101,00
-760,04	20,00
-752,05	59,00
-744,07	17,00
-736,09	153,00
-728,13	-11,00
-720,17	-4,00
-712,23	6,00
-704,29	0,00
-696,37	8,00
-688,45	0,00
-680,55	100,00
-672,65	82,00
-664,77	32,00
-656,89	94,00
-649,03	78,00
-641,17	33,00
-633,32	6,00
-625,49	-33,00
-617,66	-47,00
-609,84	39,00
-602,03	-74,00
-594,23	32,00
-586,45	-22,00
-578,67	29,00
-570,90	-48,00
-563,14	15,00
-555,39	72,00
-547,65	106,00
-539,91	-30,00
-532,19	23,00
-524,48	-55,00
-516,78	79,00
-509,08	-37,00
-501,40	70,00
-493,72	-75,00
-486,06	-18,00
-478,40	22,00
-470,76	-20,00
-463,12	-48,00
-455,49	79,00
-447,87	153,00
-440,26	77,00
-432,66	-60,00
-425,07	24,00
-417,49	3,00
-409,92	46,00
-402,35	-57,00
-394,80	4,00
-387,25	48,00
-379,72	13,00
-372,19	57,00
-364,67	129,00
-357,17	12,00
-349,67	5,00
-342,18	48,00
-334,69	63,00
-327,22	107,00
-319,76	19,00
-312,30	152,00
-304,86	-72,00
-297,42	80,00
-290,00	48,00
-282,58	17,00
-275,17	-136,00
-267,77	66,00
-260,37	75,00
-252,99	-11,00
-245,62	59,00
-238,25	87,00
-230,90	154,00
-223,55	139,00
-216,21	183,00
-208,88	128,00
-201,56	121,00
-194,25	299,00
-186,94	207,00
-179,65	170,00
-172,36	357,00
-165,08	233,00
-157,81	368,00
-150,55	164,00
-143,30	161,00
-136,06	331,00
-128,82	294,00
-121,60	373,00
-114,38	327,00
-107,17	591,00
-99,97	608,00
-92,78	553,00
-85,60	637,00
-78,42	700,00
-71,25	875,00
-64,10	961,00
-56,95	1260,00
-49,81	1598,00
-42,67	1799,00
-35,55	2517,00
-28,43	3045,00
-21,33	5599,00
-14,23	19733,00
-7,14	54235,00
-0,05	53890,00
7,02	53525,00
14,09	50526,00
21,14	13925,00
28,19	6040,00
35,23	3858,00
42,27	2876,00
49,29	2563,00
56,31	2042,00
63,32	1814,00
70,32	1366,00
77,31	1323,00
84,29	1152,00
91,27	1067,00
98,23	797,00
105,19	915,00
112,14	1029,00
119,09	1640,00
126,02	2462,00
132,95	3051,00
139,87	3331,00
146,78	3256,00
153,68	3324,00
160,58	3101,00
167,46	3205,00
174,34	3187,00
181,21	3088,00
188,08	3077,00
194,93	3071,00
201,78	3077,00
208,62	3087,00
215,45	3099,00
222,27	3151,00
229,09	2939,00
235,90	3125,00
242,70	2966,00
249,49	2821,00
256,27	2759,00
263,05	2894,00
269,82	3032,00
276,58	2962,00
283,33	2861,00
290,08	2970,00
296,82	2885,00
303,55	2786,00
310,27	2735,00
316,98	2684,00
323,69	2642,00
330,39	2728,00
337,08	2733,00
343,76	2649,00
350,44	2691,00
357,11	2677,00
363,77	2703,00
370,42	2640,00
377,07	2675,00
383,71	2631,00
390,34	2530,00
396,96	2610,00
403,58	2638,00
410,19	2554,00
416,79	2658,00
423,38	2626,00
429,97	2432,00
436,55	2569,00
443,12	2373,00
449,68	2366,00
456,24	2396,00
462,79	2459,00
469,33	2368,00
475,86	2239,00
482,39	2234,00
488,91	2272,00
495,42	2239,00
501,93	2193,00
508,42	2216,00
514,91	2170,00
521,40	2055,00
527,87	2159,00
534,34	2200,00
540,80	2112,00
547,25	2121,00
553,70	2039,00
560,14	2080,00
566,57	2041,00
573,00	2191,00
579,41	2036,00
585,83	2097,00
592,23	1997,00
598,62	1939,00
605,01	2027,00
611,40	1951,00
617,77	1860,00
624,14	1940,00
630,50	1976,00
636,85	1891,00
643,20	1850,00
649,54	1861,00
655,87	1924,00
662,20	1856,00
668,52	1878,00
674,83	1819,00
681,13	1957,00
687,43	1850,00
693,72	1765,00
700,00	1740,00
706,28	1735,00
712,55	1791,00
718,81	1691,00
725,07	1637,00
731,32	1748,00
737,56	1914,00
743,79	1718,00
750,02	1686,00
756,24	1828,00
762,46	1698,00
768,67	1708,00
774,87	1780,00
781,06	1547,00
787,25	1674,00
793,43	1649,00
799,60	1645,00
805,77	1585,00
811,93	1660,00
818,08	1686,00
824,23	1750,00
830,37	1719,00
836,50	1612,00
842,63	1583,00
848,75	1584,00
854,87	1542,00
860,97	1611,00
867,07	1596,00
873,17	1627,00
879,25	1750,00
885,33	1441,00
891,41	1641,00
897,47	1475,00
903,53	1323,00
909,59	1415,00
915,63	1533,00
921,67	1479,00
927,71	1424,00
933,74	1401,00
939,76	1357,00
945,77	1495,00
951,78	1473,00
957,78	1446,00
963,78	1553,00
969,77	1408,00
975,75	1552,00
981,72	1561,00
987,69	960,00
993,66	1471,00
999,61	1376,00
1005,56	1437,00
1011,51	1494,00
1017,44	1438,00
1023,37	1324,00
1029,30	1535,00
1035,22	1439,00
1041,13	1552,00
1047,03	1474,00
1052,93	1747,00
1058,83	1747,00
1064,71	1859,00
1070,59	1691,00
1076,47	1640,00
1082,33	1480,00
1088,20	1472,00
1094,05	1382,00
1099,90	1348,00
1105,74	1422,00
1111,58	1344,00
1117,41	1365,00
1123,23	1589,00
1129,05	1679,00
1134,86	1630,00
1140,67	1484,00
1146,47	1252,00
1152,26	1349,00
1158,05	1357,00
1163,83	1328,00
1169,60	1306,00
1175,37	1438,00
1181,13	1295,00
1186,89	1217,00
1192,64	1236,00
1198,38	1398,00
1204,12	1281,00
1209,85	1274,00
1215,58	1154,00
1221,30	1215,00
1227,02	1241,00
1232,72	1188,00
1238,43	1291,00
1244,12	1320,00
1249,81	1394,00
1255,50	1232,00
1261,17	1385,00
1266,85	1295,00
1272,51	1495,00
1278,17	1285,00
1283,83	1439,00
1289,47	1633,00
1295,12	1971,00
1300,75	1896,00
1306,38	1808,00
1312,01	1598,00
1317,63	1482,00
1323,24	1464,00
1328,85	1350,00
1334,45	1285,00
1340,04	1304,00
1345,63	1409,00
1351,22	1446,00
1356,80	1457,00
1362,37	1543,00
1367,93	1355,00
1373,49	1407,00
1379,05	1438,00
1384,60	1376,00
1390,14	1285,00
1395,68	1308,00
1401,21	1427,00
1406,74	1369,00
1412,26	1570,00
1417,77	1691,00
1423,28	1509,00
1428,78	1715,00
1434,28	1912,00
1439,77	1979,00
1445,26	2040,00
1450,74	1983,00
1456,22	1879,00
1461,68	1748,00
1467,15	1695,00
1472,61	1661,00
1478,06	1507,00
1483,51	1339,00
1488,95	1247,00
1494,38	1281,00
1499,81	1311,00
1505,24	1182,00
1510,65	1303,00
1516,07	1174,00
1521,48	1225,00
1526,88	1031,00
1532,27	1107,00
1537,67	1183,00
1543,05	1243,00
1548,43	1187,00
1553,81	1140,00
1559,18	1076,00
1564,54	1003,00
1569,90	1093,00
1575,25	1083,00
1580,60	976,00
1585,94	1069,00
1591,28	1176,00
1596,61	1146,00
1601,93	1120,00
1607,25	950,00
1612,57	945,00
1617,88	1137,00
1623,18	1089,00
1628,48	1013,00
1633,77	972,00
1639,06	1108,00
1644,34	954,00
1649,62	958,00
1654,89	1074,00
1660,16	870,00
1665,42	982,00
1670,67	856,00
1675,92	969,00
1681,17	925,00
1686,41	807,00
1691,64	866,00
1696,87	901,00
1702,10	1037,00
1707,32	925,00
1712,53	996,00
1717,74	914,00
1722,94	916,00
1728,14	837,00
1733,33	867,00
1738,52	681,00
1743,70	935,00
1748,88	938,00
1754,05	759,00
1759,22	940,00
1764,38	2387,00
1769,53	728,00
1774,69	902,00
1779,83	683,00
1784,97	864,00
1790,11	788,00
1795,24	785,00
1800,36	666,00
1805,48	898,00
1810,60	887,00
1815,71	803,00
1820,82	690,00
1825,92	747,00
1831,01	752,00
1836,10	807,00
1841,19	717,00
1846,26	626,00
1851,34	728,00
1856,41	728,00
1861,47	600,00
1866,53	647,00
1871,59	802,00
1876,64	777,00
1881,68	859,00
1886,72	695,00
1891,76	799,00
1896,79	778,00
1901,81	647,00
1906,83	720,00
1911,85	654,00
1916,86	584,00
1921,86	614,00
1926,86	568,00
1931,86	584,00
1936,85	499,00
1941,83	663,00
1946,81	648,00
1951,79	718,00
1956,76	632,00
1961,72	564,00
1966,68	609,00
1971,64	613,00
1976,59	503,00
1981,54	516,00
1986,48	527,00
1991,42	593,00
1996,35	499,00
2001,27	425,00
2006,20	474,00
2011,11	497,00
2016,03	580,00
2020,93	537,00
2025,84	566,00
2030,73	603,00
2035,63	446,00
2040,52	450,00
2045,40	602,00
2050,28	440,00
2055,15	526,00
2060,02	555,00
2064,89	411,00
2069,75	432,00
2074,60	570,00
2079,46	504,00
2084,30	400,00
2089,14	440,00
2093,98	563,00
2098,81	550,00
2103,64	445,00
2108,46	368,00
2113,28	457,00
2118,09	336,00
2122,90	487,00
2127,70	512,00
2132,50	328,00
2137,30	356,00
2142,09	396,00
2146,87	381,00
2151,66	507,00
2156,43	455,00
2161,20	475,00
2165,97	335,00
2170,73	422,00
2175,49	446,00
2180,24	521,00
2184,99	332,00
2189,74	514,00
2194,48	451,00
2199,21	338,00
2203,94	285,00
2208,67	359,00
2213,39	475,00
2218,11	512,00
2222,82	435,00
2227,53	426,00
2232,23	380,00
2236,93	374,00
2241,63	344,00
2246,32	377,00
2251,00	312,00
2255,68	321,00
2260,36	336,00
2265,03	305,00
2269,70	380,00
2274,36	291,00
2279,02	378,00
2283,68	211,00
2288,33	301,00
2292,97	256,00
2297,61	282,00
2302,25	454,00
2306,88	432,00
2311,51	278,00
2316,14	329,00
2320,75	346,00
2325,37	318,00
2329,98	310,00
2334,59	326,00
2339,19	365,00
2343,79	279,00
2348,38	453,00
2352,97	267,00
2357,55	294,00
2362,13	312,00
2366,71	340,00
2371,28	309,00
2375,85	254,00
2380,41	351,00
2384,97	205,00
2389,52	327,00
2394,07	430,00
2398,62	322,00
2403,16	314,00
2407,70	210,00
2412,23	190,00
2416,76	397,00
2421,29	305,00
2425,81	230,00
2430,32	248,00
2434,84	239,00
2439,34	280,00
2443,85	410,00
2448,35	261,00
2452,84	262,00
2457,33	283,00
2461,82	197,00
2466,30	170,00
2470,78	254,00
2475,25	200,00
2479,72	328,00
2484,19	296,00
2488,65	317,00
2493,11	93,00
2497,56	240,00
2502,01	208,00
2506,46	151,00
2510,90	283,00
2515,34	174,00
2519,77	223,00
2524,20	300,00
2528,62	397,00
2533,04	257,00
2537,46	269,00
2541,87	216,00
2546,28	256,00
2550,68	132,00
2555,08	204,00
2559,48	286,00
2563,87	157,00
2568,26	261,00
2572,64	259,00
2577,02	110,00
2581,40	187,00
2585,77	197,00
2590,14	265,00
2594,50	257,00
2598,86	183,00
2603,22	225,00
2607,57	194,00
2611,92	141,00
2616,26	214,00
2620,60	193,00
2624,94	181,00
2629,27	226,00
2633,60	209,00
2637,92	249,00
2642,24	208,00
2646,56	200,00
2650,87	235,00
2655,18	196,00
2659,48	166,00
2663,78	134,00
2668,08	229,00
2672,37	170,00
2676,66	130,00
2680,95	285,00
2685,23	426,00
2689,50	202,00
2693,78	320,00
2698,05	309,00
2702,31	288,00
2706,57	209,00
2710,83	295,00
2715,08	338,00
2719,33	168,00
2723,58	345,00
2727,82	191,00
2732,06	228,00
2736,29	299,00
2740,53	293,00
2744,75	384,00
2748,97	307,00
2753,19	192,00
2757,41	118,00
2761,62	179,00
2765,83	307,00
2770,03	247,00
2774,23	277,00
2778,43	209,00
2782,62	231,00
2786,81	233,00
2791,00	275,00
2795,18	249,00
2799,35	257,00
2803,53	307,00
2807,70	141,00
2811,86	266,00
2816,03	365,00
2820,19	359,00
2824,34	355,00
2828,49	478,00
2832,64	462,00
2836,78	562,00
2840,92	708,00
2845,06	814,00
2849,19	1036,00
2853,32	1178,00
2857,45	1144,00
2861,57	1022,00
2865,69	1054,00
2869,80	938,00
2873,91	991,00
2878,02	1228,00
2882,12	1169,00
2886,22	1194,00
2890,32	1015,00
2894,41	983,00
2898,50	941,00
2902,58	954,00
2906,67	808,00
2910,74	796,00
2914,82	764,00
2918,89	679,00
2922,96	716,00
2927,02	505,00
2931,08	570,00
2935,13	544,00
2939,19	378,00
2943,24	516,00
2947,28	359,00
2951,32	405,00
2955,36	326,00
2959,40	301,00
2963,43	407,00
2967,46	343,00
2971,48	236,00
2975,50	220,00
2979,52	319,00
2983,53	231,00
2987,54	21,00
2991,55	140,00
2995,55	229,00
2999,55	163,00
3003,54	120,00
3007,54	52,00
3011,53	230,00
3015,51	175,00
3019,49	82,00
3023,47	136,00
3027,45	178,00
3031,42	155,00
3035,39	163,00
3039,35	131,00
3043,31	170,00
3047,27	131,00
3051,22	114,00
3055,17	58,00
3059,12	115,00
3063,06	94,00
3067,00	36,00
3070,94	112,00
3074,87	193,00
3078,80	93,00
3082,73	188,00
3086,65	11,00
3090,57	99,00
3094,49	144,00
3098,40	145,00
3102,31	65,00
3106,22	36,00
3110,12	56,00
3114,02	-48,00
3117,92	214,00
3121,81	30,00
3125,70	-157,00
3129,58	-60,00
3133,47	165,00
3137,34	172,00
3141,22	101,00
3145,09	77,00
3148,96	2,00
3152,83	60,00
3156,69	-110,00
3160,55	138,00
3164,40	31,00
3168,26	-14,00
3172,10	106,00
3175,95	-36,00
3179,79	93,00
3183,63	106,00
3187,47	61,00
3191,30	177,00
3195,13	144,00
3198,95	29,00
3202,78	-23,00
3206,60	27,00
3210,41	-36,00
3214,23	182,00
3218,03	119,00
3221,84	62,00
3225,64	100,00
3229,44	-21,00
3233,24	82,00
3237,03	-32,00
3240,82	29,00
3244,61	-25,00
3248,39	-68,00
3252,17	138,00
3255,95	96,00
3259,72	114,00
3263,49	-27,00
3267,26	42,00
3271,03	83,00
3274,79	27,00
3278,54	97,00
3282,30	23,00
3286,05	122,00
3289,80	-48,00
3293,54	176,00
3297,29	131,00
3301,02	-59,00
3304,76	-12,00
3308,49	27,00
3312,22	87,00
3315,95	-72,00
3319,67	18,00
3323,39	19,00
3327,10	-19,00
3330,82	81,00
3334,53	20,00
3338,24	-14,00
3341,94	26,00
3345,64	88,00
3349,34	49,00
3353,03	153,00
3356,72	38,00
3360,41	82,00
3364,10	-45,00
3367,78	-50,00
3371,46	-42,00
3375,13	96,00
3378,81	78,00
3382,48	20,00
3386,14	53,00
3389,81	24,00
3393,47	58,00
3397,12	26,00
3400,78	-3,00
3404,43	68,00
3408,08	-45,00
3411,72	136,00
3415,36	79,00
3419,00	-24,00
3422,64	81,00
3426,27	59,00
3429,90	61,00
3433,53	42,00
3437,15	8,00
3440,77	180,00
3444,39	-63,00
3448,00	-20,00
3451,62	30,00
3455,22	66,00
3458,83	136,00
3462,43	100,00
3466,03	24,00
3469,63	-33,00
3473,22	-1,00
3476,81	32,00
3480,40	-29,00
3483,99	-63,00
3487,57	-73,00
3491,15	119,00
3494,72	-12,00
3498,29	26,00
3501,86	59,00
3505,43	-24,00
3508,99	153,00
3512,56	-120,00
3516,11	55,00
3519,67	18,00
3523,22	-45,00
3526,77	-27,00
3530,32	-36,00
3533,86	28,00
3537,40	82,00
3540,94	108,00
3544,47	-171,00
3548,00	-39,00
3551,53	-34,00
3555,06	76,00
3558,58	-91,00
3562,10	18,00
3565,62	-113,00
3569,13	-155,00
3572,64	44,00
3576,15	40,00
3579,66	50,00
3583,16	76,00
3586,66	-11,00
3590,16	48,00
3593,65	75,00
3597,14	-7,00
3600,63	-65,00
3604,11	-68,00
3607,60	93,00
3611,08	0,00
3614,55	131,00
3618,03	-23,00
3621,50	10,00
3624,97	-8,00
3628,43	-20,00
3631,90	-48,00
3635,36	49,00
3638,81	-118,00
3642,27	26,00
3645,72	-103,00
3649,17	29,00
3652,61	37,00
3656,06	-35,00
3659,50	63,00
3662,93	90,00
3666,37	43,00
3669,80	144,00
3673,23	-35,00
3676,65	90,00
3680,08	102,00
3683,50	9,00
3686,92	38,00
3690,33	5,00
3693,74	41,00
3697,15	-68,00
3700,56	-94,00
3703,96	-87,00
3707,36	30,00
3710,76	-92,00
3714,16	-56,00
3717,55	145,00
3720,94	13,00
3724,33	99,00
3727,71	61,00
3731,10	14,00
3734,48	-40,00
3737,85	-53,00
3741,23	38,00
3744,60	160,00
3747,97	-6,00
3751,33	45,00
3754,69	96,00
3758,05	-29,00
3761,41	-25,00
3764,77	30,00
3768,12	57,00
3771,47	-27,00
3774,82	-1,00
3778,16	4,00
3781,50	0,00
3784,84	1,00
3788,18	2,00
>>>>>End Processed Spectral Data<<<<<
