SpectraSuite Data File
++++++++++++++++++++++++++++++++++++
Date: Tue Mar 03 12:13:01 ICT 2026
User: user
Dark Spectrum Present: Yes
Reference Spectrum Present: No
Number of Sampled Component Spectra: 1
Spectrometers: MAYP113682
Integration Time (usec): 3000000 (MAYP113682)
Spectra Averaged: 1 (MAYP113682)
Boxcar Smoothing: 0 (MAYP113682)
Correct for Electrical Dark: No (MAYP113682)
Strobe/Lamp Enabled: No (MAYP113682)
Correct for Detector Non-linearity: No (MAYP113682)
Correct for Stray Light: No (MAYP113682)
Number of Pixels in Processed Spectrum: 2068
>>>>>Begin Processed Spectral Data<<<<<
-37534,58	10,00
-37414,56	3,00
-37295,11	-1,00
-37176,24	0,00
-37057,95	-8,00
-36940,22	-14,00
-36823,05	56,00
-36706,45	2,00
-36590,40	-20,00
-36474,90	23,00
-36359,95	-10,00
-36245,55	53,00
-36131,68	66,00
-36018,35	30,00
-35905,55	-51,00
-35793,29	-59,00
-35681,54	12,00
-35570,32	31,00
-35459,62	-8,00
-35349,43	17,00
-35239,75	147,00
-35130,58	110,00
-35021,91	43,00
-34913,74	-36,00
-34806,07	23,00
-34698,89	-93,00
-34592,20	29,00
-34486,00	58,00
-34380,28	2,00
-34275,04	96,00
-34170,27	-65,00
-34065,98	64,00
-33962,16	17,00
-33858,81	27,00
-33755,92	54,00
-33653,49	-67,00
-33551,52	72,00
-33450,01	-39,00
-33348,94	90,00
-33248,33	10,00
-33148,16	8,00
-33048,43	128,00
-32949,14	77,00
-32850,29	-49,00
-32751,87	38,00
-32653,89	-127,00
-32556,33	-59,00
-32459,20	-11,00
-32362,49	-75,00
-32266,19	31,00
-32170,32	-28,00
-32074,86	73,00
-31979,82	-16,00
-31885,18	-40,00
-31790,95	14,00
-31697,12	-8,00
-31603,69	96,00
-31510,67	-22,00
-31418,04	45,00
-31325,80	143,00
-31233,95	9,00
-31142,49	94,00
-31051,42	165,00
-30960,73	49,00
-30870,43	87,00
-30780,50	-87,00
-30690,95	64,00
-30601,77	52,00
-30512,97	-60,00
-30424,53	-49,00
-30336,46	-70,00
-30248,76	-24,00
-30161,42	26,00
-30074,44	18,00
-29987,81	-46,00
-29901,55	96,00
-29815,63	9,00
-29730,07	14,00
-29644,86	184,00
-29560,00	135,00
-29475,48	14,00
-29391,30	92,00
-29307,47	8,00
-29223,97	21,00
-29140,81	-13,00
-29057,99	44,00
-28975,50	-8,00
-28893,34	78,00
-28811,51	117,00
-28730,00	-58,00
-28648,82	113,00
-28567,97	130,00
-28487,43	-85,00
-28407,21	25,00
-28327,32	63,00
-28247,73	90,00
-28168,46	-2,00
-28089,50	43,00
-28010,85	5,00
-27932,51	56,00
-27854,48	-76,00
-27776,75	19,00
-27699,32	95,00
-27622,19	96,00
-27545,37	70,00
-27468,84	52,00
-27392,60	68,00
-27316,66	68,00
-27241,01	138,00
-27165,66	121,00
-27090,59	14,00
-27015,81	12,00
-26941,31	152,00
-26867,10	-29,00
-26793,17	34,00
-26719,52	-50,00
-26646,15	119,00
-26573,06	162,00
-26500,24	80,00
-26427,70	-96,00
-26355,43	-67,00
-26283,43	8,00
-26211,71	51,00
-26140,25	-2,00
-26069,06	1,00
-25998,13	-10,00
-25927,46	63,00
-25857,06	108,00
-25786,92	-6,00
-25717,04	130,00
-25647,42	49,00
-25578,05	72,00
-25508,94	216,00
-25440,09	20,00
-25371,48	172,00
-25303,13	131,00
-25235,02	65,00
-25167,17	-14,00
-25099,56	86,00
-25032,19	132,00
-24965,07	35,00
-24898,20	-6,00
-24831,56	30,00
-24765,17	0,00
-24699,01	90,00
-24633,10	55,00
-24567,41	45,00
-24501,97	25,00
-24436,75	-89,00
-24371,77	197,00
-24307,03	138,00
-24242,51	-11,00
-24178,22	-7,00
-24114,16	57,00
-24050,32	59,00
-23986,71	29,00
-23923,32	16,00
-23860,16	4,00
-23797,22	-64,00
-23734,50	-91,00
-23672,00	91,00
-23609,71	147,00
-23547,65	82,00
-23485,80	38,00
-23424,16	186,00
-23362,74	-75,00
-23301,53	-33,00
-23240,54	20,00
-23179,75	76,00
-23119,17	90,00
-23058,80	-34,00
-22998,64	13,00
-22938,68	92,00
-22878,93	76,00
-22819,39	50,00
-22760,04	-84,00
-22700,90	145,00
-22641,96	11,00
-22583,22	-47,00
-22524,68	-2,00
-22466,33	-19,00
-22408,19	73,00
-22350,23	78,00
-22292,48	-175,00
-22234,92	80,00
-22177,55	11,00
-22120,37	42,00
-22063,38	100,00
-22006,58	-14,00
-21949,98	-27,00
-21893,56	-12,00
-21837,33	-110,00
-21781,28	-31,00
-21725,42	76,00
-21669,74	-17,00
-21614,25	107,00
-21558,94	5,00
-21503,81	-7,00
-21448,86	-177,00
-21394,10	65,00
-21339,51	56,00
-21285,10	-73,00
-21230,86	-55,00
-21176,81	-44,00
-21122,93	75,00
-21069,22	109,00
-21015,69	16,00
-20962,33	19,00
-20909,14	-29,00
-20856,13	-99,00
-20803,28	-69,00
-20750,61	155,00
-20698,10	129,00
-20645,76	109,00
-20593,59	-15,00
-20541,59	156,00
-20489,75	27,00
-20438,07	173,00
-20386,56	6,00
-20335,22	72,00
-20284,03	-14,00
-20233,01	-29,00
-20182,15	-121,00
-20131,45	41,00
-20080,91	-19,00
-20030,52	-58,00
-19980,30	111,00
-19930,23	7,00
-19880,32	62,00
-19830,56	18,00
-19780,96	-84,00
-19731,52	-3,00
-19682,23	-60,00
-19633,09	78,00
-19584,10	30,00
-19535,26	46,00
-19486,58	68,00
-19438,04	108,00
-19389,66	26,00
-19341,42	176,00
-19293,33	35,00
-19245,39	149,00
-19197,60	-3,00
-19149,95	96,00
-19102,45	28,00
-19055,09	145,00
-19007,87	76,00
-18960,80	128,00
-18913,87	-21,00
-18867,09	-76,00
-18820,44	127,00
-18773,94	215,00
-18727,57	-69,00
-18681,35	-5,00
-18635,26	18,00
-18589,31	25,00
-18543,50	129,00
-18497,83	-36,00
-18452,29	170,00
-18406,89	25,00
-18361,63	76,00
-18316,50	5,00
-18271,50	-85,00
-18226,63	0,00
-18181,90	86,00
-18137,30	113,00
-18092,84	-4,00
-18048,50	25,00
-18004,29	-6,00
-17960,22	93,00
-17916,27	38,00
-17872,45	63,00
-17828,76	33,00
-17785,20	84,00
-17741,77	66,00
-17698,46	0,00
-17655,28	41,00
-17612,22	42,00
-17569,29	-70,00
-17526,48	-103,00
-17483,79	-22,00
-17441,23	-4,00
-17398,79	4,00
-17356,48	-68,00
-17314,28	75,00
-17272,21	32,00
-17230,26	110,00
-17188,42	-24,00
-17146,71	-24,00
-17105,12	84,00
-17063,64	-69,00
-17022,28	33,00
-16981,04	112,00
-16939,92	9,00
-16898,91	9,00
-16858,02	-46,00
-16817,25	62,00
-16776,59	-6,00
-16736,04	-18,00
-16695,61	60,00
-16655,29	22,00
-16615,09	-70,00
-16574,99	-12,00
-16535,01	123,00
-16495,15	114,00
-16455,39	77,00
-16415,74	91,00
-16376,21	-92,00
-16336,78	54,00
-16297,46	14,00
-16258,26	61,00
-16219,16	25,00
-16180,17	55,00
-16141,28	194,00
-16102,51	24,00
-16063,84	132,00
-16025,27	30,00
-15986,82	79,00
-15948,46	14,00
-15910,22	60,00
-15872,07	-64,00
-15834,04	-62,00
-15796,10	-103,00
-15758,27	-30,00
-15720,54	132,00
-15682,91	97,00
-15645,39	-97,00
-15607,97	120,00
-15570,64	46,00
-15533,42	44,00
-15496,30	84,00
-15459,28	111,00
-15422,36	78,00
-15385,54	60,00
-15348,82	-71,00
-15312,19	9,00
-15275,66	45,00
-15239,23	-170,00
-15202,90	93,00
-15166,67	-78,00
-15130,53	73,00
-15094,48	-63,00
-15058,54	27,00
-15022,68	41,00
-14986,93	75,00
-14951,26	45,00
-14915,69	-12,00
-14880,22	1,00
-14844,84	-30,00
-14809,55	30,00
-14774,35	14,00
-14739,25	-113,00
-14704,24	152,00
-14669,32	13,00
-14634,49	39,00
-14599,75	85,00
-14565,10	-82,00
-14530,55	55,00
-14496,08	15,00
-14461,70	-22,00
-14427,41	35,00
-14393,21	-63,00
-14359,10	19,00
-14325,07	-28,00
-14291,14	-10,00
-14257,29	143,00
-14223,52	49,00
-14189,85	-19,00
-14156,26	53,00
-14122,76	67,00
-14089,34	19,00
-14056,01	-9,00
-14022,76	-61,00
-13989,60	-132,00
-13956,52	39,00
-13923,53	2,00
-13890,62	-39,00
-13857,79	36,00
-13825,05	43,00
-13792,39	48,00
-13759,81	9,00
-13727,31	108,00
-13694,90	54,00
-13662,57	-57,00
-13630,31	19,00
-13598,14	94,00
-13566,05	69,00
-13534,05	22,00
-13502,12	-41,00
-13470,27	85,00
-13438,50	46,00
-13406,80	152,00
-13375,19	0,00
-13343,66	90,00
-13312,20	96,00
-13280,83	14,00
-13249,53	-21,00
-13218,30	152,00
-13187,16	40,00
-13156,09	37,00
-13125,10	-32,00
-13094,18	-38,00
-13063,34	21,00
-13032,58	-1,00
-13001,89	72,00
-12971,28	24,00
-12940,74	7,00
-12910,27	66,00
-12879,88	77,00
-12849,57	-3,00
-12819,33	72,00
-12789,16	-62,00
-12759,06	-8,00
-12729,04	-33,00
-12699,09	180,00
-12669,21	12,00
-12639,41	-96,00
-12609,68	-16,00
-12580,02	91,00
-12550,43	56,00
-12520,91	-63,00
-12491,46	15,00
-12462,08	26,00
-12432,77	-43,00
-12403,54	-30,00
-12374,37	22,00
-12345,27	85,00
-12316,24	3,00
-12287,29	-76,00
-12258,40	86,00
-12229,57	-65,00
-12200,82	37,00
-12172,14	9,00
-12143,52	-22,00
-12114,97	92,00
-12086,49	51,00
-12058,07	6,00
-12029,73	-25,00
-12001,44	52,00
-11973,23	-19,00
-11945,08	68,00
-11917,00	-49,00
-11888,98	-31,00
-11861,03	18,00
-11833,15	115,00
-11805,32	-14,00
-11777,57	5,00
-11749,88	54,00
-11722,25	-16,00
-11694,69	-47,00
-11667,19	35,00
-11639,75	-128,00
-11612,38	9,00
-11585,07	-20,00
-11557,83	78,00
-11530,65	-100,00
-11503,53	48,00
-11476,47	-148,00
-11449,48	18,00
-11422,54	-69,00
-11395,67	6,00
-11368,86	89,00
-11342,11	82,00
-11315,43	51,00
-11288,80	37,00
-11262,23	-2,00
-11235,73	3,00
-11209,28	-44,00
-11182,90	91,00
-11156,57	83,00
-11130,31	-56,00
-11104,10	19,00
-11077,96	81,00
-11051,87	53,00
-11025,84	84,00
-10999,87	115,00
-10973,96	131,00
-10948,11	66,00
-10922,31	27,00
-10896,58	213,00
-10870,90	-119,00
-10845,28	71,00
-10819,71	115,00
-10794,20	59,00
-10768,75	233,00
-10743,36	-52,00
-10718,02	162,00
-10692,74	145,00
-10667,52	125,00
-10642,35	105,00
-10617,24	135,00
-10592,18	162,00
-10567,18	182,00
-10542,23	213,00
-10517,34	131,00
-10492,51	91,00
-10467,72	135,00
-10443,00	217,00
-10418,32	232,00
-10393,70	141,00
-10369,14	281,00
-10344,63	216,00
-10320,17	378,00
-10295,77	242,00
-10271,42	331,00
-10247,12	343,00
-10222,88	255,00
-10198,68	296,00
-10174,54	411,00
-10150,46	469,00
-10126,42	561,00
-10102,44	517,00
-10078,51	443,00
-10054,63	570,00
-10030,80	606,00
-10007,03	548,00
-9983,30	746,00
-9959,63	711,00
-9936,01	879,00
-9912,44	816,00
-9888,92	938,00
-9865,44	915,00
-9842,02	1027,00
-9818,65	1018,00
-9795,33	981,00
-9772,06	1088,00
-9748,84	1140,00
-9725,67	1313,00
-9702,55	1444,00
-9679,47	1738,00
-9656,45	1841,00
-9633,47	1910,00
-9610,55	2013,00
-9587,67	2180,00
-9564,84	2279,00
-9542,06	2368,00
-9519,32	2714,00
-9496,64	2948,00
-9474,00	2968,00
-9451,41	3377,00
-9428,87	3433,00
-9406,37	3249,00
-9383,92	2990,00
-9361,52	2867,00
-9339,17	2847,00
-9316,86	3160,00
-9294,60	3284,00
-9272,38	3658,00
-9250,21	3929,00
-9228,09	4015,00
-9206,01	3843,00
-9183,98	3569,00
-9162,00	3392,00
-9140,06	2915,00
-9118,16	2972,00
-9096,31	3014,00
-9074,51	3066,00
-9052,75	3226,00
-9031,04	2971,00
-9009,37	2660,00
-8987,74	2584,00
-8966,16	2308,00
-8944,63	2018,00
-8923,14	1973,00
-8901,69	2036,00
-8880,29	2263,00
-8858,93	2390,00
-8837,61	2645,00
-8816,34	2644,00
-8795,11	2907,00
-8773,92	2666,00
-8752,78	2446,00
-8731,68	2306,00
-8710,62	2400,00
-8689,61	2567,00
-8668,63	2680,00
-8647,70	2699,00
-8626,82	2790,00
-8605,97	2731,00
-8585,17	2493,00
-8564,41	2301,00
-8543,69	1976,00
-8523,01	2011,00
-8502,37	1981,00
-8481,78	1988,00
-8461,23	2094,00
-8440,71	2336,00
-8420,24	2553,00
-8399,81	2552,00
-8379,42	2456,00
-8359,08	2310,00
-8338,77	2065,00
-8318,50	2060,00
-8298,27	1904,00
-8278,09	1830,00
-8257,94	1921,00
-8237,83	2248,00
-8217,76	2375,00
-8197,74	2304,00
-8177,75	2428,00
-8157,80	2168,00
-8137,89	2028,00
-8118,02	1926,00
-8098,19	2037,00
-8078,40	1932,00
-8058,65	2097,00
-8038,93	2011,00
-8019,26	2168,00
-7999,62	2230,00
-7980,02	1989,00
-7960,46	1905,00
-7940,94	1844,00
-7921,46	1976,00
-7902,01	1743,00
-7882,60	1660,00
-7863,23	1939,00
-7843,90	2019,00
-7824,61	2059,00
-7805,35	2237,00
-7786,13	2194,00
-7766,95	2168,00
-7747,80	1959,00
-7728,69	1923,00
-7709,62	1900,00
-7690,59	2177,00
-7671,59	2212,00
-7652,63	2186,00
-7633,70	2305,00
-7614,81	2189,00
-7595,96	2077,00
-7577,15	1955,00
-7558,37	1864,00
-7539,62	1921,00
-7520,91	2006,00
-7502,24	2088,00
-7483,60	2076,00
-7465,00	2053,00
-7446,44	1982,00
-7427,91	1706,00
-7409,41	1492,00
-7390,95	1428,00
-7372,53	1355,00
-7354,14	1339,00
-7335,78	1401,00
-7317,46	1476,00
-7299,18	1365,00
-7280,92	1666,00
-7262,71	2055,00
-7244,52	2127,00
-7226,38	2197,00
-7208,26	2129,00
-7190,18	2088,00
-7172,14	1826,00
-7154,12	1791,00
-7136,15	1819,00
-7118,20	1942,00
-7100,29	2134,00
-7082,41	2027,00
-7064,57	2065,00
-7046,76	1856,00
-7028,98	1761,00
-7011,24	1427,00
-6993,53	1441,00
-6975,85	1168,00
-6958,20	1062,00
-6940,59	944,00
-6923,01	1037,00
-6905,46	1065,00
-6887,94	1421,00
-6870,46	1671,00
-6853,01	1862,00
-6835,59	1789,00
-6818,21	1575,00
-6800,85	1395,00
-6783,53	1111,00
-6766,24	1078,00
-6748,98	895,00
-6731,76	712,00
-6714,56	757,00
-6697,40	725,00
-6680,26	730,00
-6663,16	964,00
-6646,09	1032,00
-6629,05	1274,00
-6612,05	1462,00
-6595,07	1425,00
-6578,13	1449,00
-6561,21	1236,00
-6544,33	882,00
-6527,47	703,00
-6510,65	574,00
-6493,86	647,00
-6477,10	707,00
-6460,36	484,00
-6443,66	689,00
-6426,99	672,00
-6410,35	603,00
-6393,74	797,00
-6377,16	684,00
-6360,61	868,00
-6344,09	1063,00
-6327,59	1086,00
-6311,13	960,00
-6294,70	984,00
-6278,29	1046,00
-6261,92	1351,00
-6245,58	1402,00
-6229,26	1404,00
-6212,97	1271,00
-6196,72	1160,00
-6180,49	796,00
-6164,29	542,00
-6148,12	404,00
-6131,98	324,00
-6115,86	295,00
-6099,78	296,00
-6083,72	378,00
-6067,69	412,00
-6051,69	283,00
-6035,72	299,00
-6019,78	466,00
-6003,87	743,00
-5987,98	899,00
-5972,12	969,00
-5956,29	940,00
-5940,49	968,00
-5924,71	814,00
-5908,96	520,00
-5893,24	377,00
-5877,55	273,00
-5861,89	390,00
-5846,25	418,00
-5830,64	529,00
-5815,05	424,00
-5799,50	472,00
-5783,97	445,00
-5768,47	545,00
-5752,99	730,00
-5737,55	983,00
-5722,12	995,00
-5706,73	950,00
-5691,36	726,00
-5676,02	663,00
-5660,71	420,00
-5645,42	455,00
-5630,16	437,00
-5614,92	536,00
-5599,71	774,00
-5584,53	810,00
-5569,37	722,00
-5554,24	-420,00
-5539,14	613,00
-5524,06	493,00
-5509,01	675,00
-5493,98	692,00
-5478,98	734,00
-5464,00	590,00
-5449,05	586,00
-5434,13	523,00
-5419,23	460,00
-5404,36	538,00
-5389,51	597,00
-5374,69	853,00
-5359,89	1085,00
-5345,12	977,00
-5330,37	989,00
-5315,65	926,00
-5300,95	576,00
-5286,28	706,00
-5271,63	598,00
-5257,01	542,00
-5242,41	575,00
-5227,84	529,00
-5213,29	479,00
-5198,76	193,00
-5184,26	314,00
-5169,79	453,00
-5155,33	408,00
-5140,91	615,00
-5126,51	773,00
-5112,13	720,00
-5097,77	488,00
-5083,44	363,00
-5069,13	443,00
-5054,85	371,00
-5040,59	553,00
-5026,36	653,00
-5012,15	688,00
-4997,96	487,00
-4983,80	599,00
-4969,66	330,00
-4955,54	424,00
-4941,44	540,00
-4927,37	728,00
-4913,33	1134,00
-4899,30	990,00
-4885,30	1128,00
-4871,33	701,00
-4857,37	352,00
-4843,44	280,00
-4829,53	449,00
-4815,65	404,00
-4801,79	673,00
-4787,95	421,00
-4774,13	480,00
-4760,34	314,00
-4746,56	321,00
-4732,82	168,00
-4719,09	365,00
-4705,38	631,00
-4691,70	814,00
-4678,04	884,00
-4664,41	718,00
-4650,79	470,00
-4637,20	318,00
-4623,63	374,00
-4610,08	423,00
-4596,56	555,00
-4583,05	713,00
-4569,57	576,00
-4556,11	255,00
-4542,67	192,00
-4529,25	252,00
-4515,86	453,00
-4502,49	719,00
-4489,13	786,00
-4475,80	696,00
-4462,49	488,00
-4449,21	482,00
-4435,94	333,00
-4422,70	333,00
-4409,47	552,00
-4396,27	505,00
-4383,09	412,00
-4369,93	255,00
-4356,79	224,00
-4343,67	170,00
-4330,58	424,00
-4317,50	408,00
-4304,45	373,00
-4291,41	336,00
-4278,40	76,00
-4265,41	211,00
-4252,44	395,00
-4239,49	362,00
-4226,55	383,00
-4213,65	418,00
-4200,76	153,00
-4187,89	116,00
-4175,04	101,00
-4162,21	274,00
-4149,40	114,00
-4136,61	92,00
-4123,85	97,00
-4111,10	100,00
-4098,37	233,00
-4085,66	248,00
-4072,98	89,00
-4060,31	167,00
-4047,66	183,00
-4035,04	103,00
-4022,43	146,00
-4009,84	269,00
-3997,27	149,00
-3984,72	66,00
-3972,19	139,00
-3959,69	63,00
-3947,20	101,00
-3934,73	64,00
-3922,27	-12,00
-3909,84	-51,00
-3897,43	124,00
-3885,04	-100,00
-3872,67	44,00
-3860,31	76,00
-3847,98	36,00
-3835,66	92,00
-3823,36	-17,00
-3811,09	48,00
-3798,83	101,00
-3786,59	15,00
-3774,37	167,00
-3762,17	-74,00
-3749,98	180,00
-3737,82	25,00
-3725,67	164,00
-3713,55	11,00
-3701,44	7,00
-3689,35	106,00
-3677,28	-3,00
-3665,22	-28,00
-3653,19	-87,00
-3641,17	-21,00
-3629,18	-42,00
-3617,20	38,00
-3605,24	71,00
-3593,30	99,00
-3581,37	118,00
-3569,47	29,00
-3557,58	92,00
-3545,71	139,00
-3533,86	3,00
-3522,02	20,00
-3510,21	124,00
-3498,41	120,00
-3486,63	-145,00
-3474,87	116,00
-3463,12	41,00
-3451,40	34,00
-3439,69	177,00
-3428,00	-26,00
-3416,33	29,00
-3404,67	66,00
-3393,03	-23,00
-3381,41	102,00
-3369,81	86,00
-3358,22	80,00
-3346,66	31,00
-3335,10	2,00
-3323,57	-25,00
-3312,06	-67,00
-3300,56	105,00
-3289,08	17,00
-3277,61	75,00
-3266,16	50,00
-3254,73	-22,00
-3243,32	72,00
-3231,92	19,00
-3220,55	-2,00
-3209,18	122,00
-3197,84	73,00
-3186,51	58,00
-3175,20	49,00
-3163,90	-79,00
-3152,63	27,00
-3141,36	19,00
-3130,12	-15,00
-3118,89	-47,00
-3107,68	116,00
-3096,49	67,00
-3085,31	69,00
-3074,15	65,00
-3063,00	-14,00
-3051,87	37,00
-3040,76	33,00
-3029,67	9,00
-3018,59	37,00
-3007,52	82,00
-2996,48	121,00
-2985,44	129,00
-2974,43	100,00
-2963,43	117,00
-2952,45	51,00
-2941,48	169,00
-2930,53	-87,00
-2919,60	-16,00
-2908,68	102,00
-2897,78	82,00
-2886,89	80,00
-2876,02	26,00
-2865,17	129,00
-2854,33	-10,00
-2843,50	31,00
-2832,70	22,00
-2821,90	-93,00
-2811,13	16,00
-2800,37	49,00
-2789,62	28,00
-2778,89	96,00
-2768,18	-34,00
-2757,48	91,00
-2746,80	-11,00
-2736,13	-55,00
-2725,48	51,00
-2714,84	18,00
-2704,22	160,00
-2693,61	23,00
-2683,02	56,00
-2672,45	40,00
-2661,89	84,00
-2651,34	-71,00
-2640,81	-14,00
-2630,30	73,00
-2619,80	102,00
-2609,31	-7,00
-2598,84	-15,00
-2588,39	-132,00
-2577,95	-152,00
-2567,52	-9,00
-2557,11	15,00
-2546,71	92,00
-2536,33	-49,00
-2525,97	-32,00
-2515,62	22,00
-2505,28	-63,00
-2494,96	82,00
-2484,65	-32,00
-2474,36	18,00
-2464,08	86,00
-2453,82	87,00
-2443,57	34,00
-2433,33	69,00
-2423,11	92,00
-2412,91	32,00
-2402,72	18,00
-2392,54	-70,00
-2382,38	74,00
-2372,23	76,00
-2362,09	-4930,00
-2351,97	33,00
-2341,87	60,00
-2331,78	-16,00
-2321,70	-98,00
-2311,64	93,00
-2301,59	65,00
-2291,55	124,00
-2281,53	61,00
-2271,53	65,00
-2261,53	28,00
-2251,55	34,00
-2241,59	-52,00
-2231,64	103,00
-2221,70	-55,00
-2211,78	36,00
-2201,87	31,00
-2191,97	30,00
-2182,09	31,00
-2172,22	-36,00
-2162,37	202,00
-2152,53	-139,00
-2142,70	-11,00
-2132,89	56,00
-2123,09	70,00
-2113,30	24,00
-2103,53	54,00
-2093,77	-1,00
-2084,02	19,00
-2074,29	66,00
-2064,57	50,00
-2054,86	93,00
-2045,17	176,00
-2035,49	72,00
-2025,82	83,00
-2016,17	182,00
-2006,53	31,00
-1996,91	20,00
-1987,29	16,00
-1977,69	15,00
-1968,11	-76,00
-1958,53	184,00
-1948,97	41,00
-1939,42	54,00
-1929,89	83,00
-1920,37	-53,00
-1910,86	2,00
-1901,36	-46,00
-1891,88	-94,00
-1882,41	-86,00
-1872,95	72,00
-1863,51	-14,00
-1854,08	-10,00
-1844,66	19,00
-1835,26	46,00
-1825,86	71,00
-1816,48	131,00
-1807,11	97,00
-1797,76	48,00
-1788,42	153,00
-1779,09	73,00
-1769,77	-7,00
-1760,47	69,00
-1751,17	-11,00
-1741,89	-38,00
-1732,63	80,00
-1723,37	-34,00
-1714,13	26,00
-1704,90	128,00
-1695,68	148,00
-1686,48	23,00
-1677,29	69,00
-1668,11	-30,00
-1658,94	60,00
-1649,78	-120,00
-1640,64	188,00
-1631,51	0,00
-1622,39	27,00
-1613,28	-66,00
-1604,19	10,00
-1595,10	-46,00
-1586,03	-40,00
-1576,97	23,00
-1567,93	-69,00
-1558,89	-1,00
-1549,87	-27,00
-1540,86	145,00
-1531,86	83,00
-1522,87	101,00
-1513,90	-10,00
-1504,93	29,00
-1495,98	-18,00
-1487,04	111,00
-1478,12	56,00
-1469,20	-12,00
-1460,30	-97,00
-1451,40	116,00
-1442,52	157,00
-1433,65	67,00
-1424,80	-14,00
-1415,95	77,00
-1407,12	26,00
-1398,30	-86,00
-1389,48	-14,00
-1380,69	75,00
-1371,90	-15,00
-1363,12	31,00
-1354,36	36,00
-1345,60	58,00
-1336,86	122,00
-1328,13	146,00
-1319,41	-57,00
-1310,70	20,00
-1302,01	-23,00
-1293,32	13,00
-1284,65	91,00
-1275,99	128,00
-1267,33	30,00
-1258,69	9,00
-1250,06	-45,00
-1241,45	-23,00
-1232,84	32,00
-1224,25	114,00
-1215,66	-20,00
-1207,09	-40,00
-1198,53	156,00
-1189,97	65,00
-1181,43	62,00
-1172,91	-43,00
-1164,39	70,00
-1155,88	37,00
-1147,38	-16,00
-1138,90	-152,00
-1130,43	0,00
-1121,96	56,00
-1113,51	65,00
-1105,07	62,00
-1096,64	189,00
-1088,22	-2,00
-1079,81	-86,00
-1071,41	6,00
-1063,02	84,00
-1054,65	-48,00
-1046,28	-11,00
-1037,92	47,00
-1029,58	-5,00
-1021,24	0,00
-1012,92	-57,00
-1004,61	-91,00
-996,30	-6,00
-988,01	-22,00
-979,73	23,00
-971,46	52,00
-963,20	81,00
-954,95	-39,00
-946,71	21,00
-938,48	118,00
-930,26	-17,00
-922,06	27,00
-913,86	171,00
-905,67	42,00
-897,49	75,00
-889,33	-29,00
-881,17	85,00
-873,02	7,00
-864,89	15,00
-856,76	77,00
-848,65	121,00
-840,54	-63,00
-832,45	84,00
-824,36	28,00
-816,29	-43,00
-808,22	115,00
-800,17	9,00
-792,12	-43,00
-784,09	152,00
-776,06	56,00
-768,05	9,00
-760,04	135,00
-752,05	133,00
-744,07	37,00
-736,09	94,00
-728,13	0,00
-720,17	62,00
-712,23	-47,00
-704,29	24,00
-696,37	-64,00
-688,45	-17,00
-680,55	44,00
-672,65	95,00
-664,77	60,00
-656,89	94,00
-649,03	129,00
-641,17	2,00
-633,32	125,00
-625,49	57,00
-617,66	128,00
-609,84	24,00
-602,03	-20,00
-594,23	72,00
-586,45	-13,00
-578,67	78,00
-570,90	-58,00
-563,14	-29,00
-555,39	58,00
-547,65	-7,00
-539,91	13,00
-532,19	49,00
-524,48	-30,00
-516,78	44,00
-509,08	-14,00
-501,40	86,00
-493,72	-63,00
-486,06	-8,00
-478,40	68,00
-470,76	20,00
-463,12	74,00
-455,49	33,00
-447,87	170,00
-440,26	12,00
-432,66	135,00
-425,07	65,00
-417,49	-15,00
-409,92	19,00
-402,35	160,00
-394,80	9,00
-387,25	196,00
-379,72	-85,00
-372,19	40,00
-364,67	152,00
-357,17	83,00
-349,67	53,00
-342,18	116,00
-334,69	112,00
-327,22	75,00
-319,76	19,00
-312,30	52,00
-304,86	-52,00
-297,42	160,00
-290,00	47,00
-282,58	-15,00
-275,17	-40,00
-267,77	7,00
-260,37	160,00
-252,99	-8,00
-245,62	203,00
-238,25	220,00
-230,90	88,00
-223,55	79,00
-216,21	120,00
-208,88	203,00
-201,56	154,00
-194,25	219,00
-186,94	216,00
-179,65	149,00
-172,36	355,00
-165,08	239,00
-157,81	275,00
-150,55	324,00
-143,30	212,00
-136,06	304,00
-128,82	261,00
-121,60	277,00
-114,38	372,00
-107,17	453,00
-99,97	532,00
-92,78	438,00
-85,60	565,00
-78,42	644,00
-71,25	782,00
-64,10	776,00
-56,95	1072,00
-49,81	1384,00
-42,67	1511,00
-35,55	2138,00
-28,43	2608,00
-21,33	4509,00
-14,23	16226,00
-7,14	54235,00
-0,05	53890,00
7,02	53525,00
14,09	42046,00
21,14	10827,00
28,19	4954,00
35,23	3215,00
42,27	2353,00
49,29	1993,00
56,31	1641,00
63,32	1646,00
70,32	1020,00
77,31	1097,00
84,29	938,00
91,27	809,00
98,23	633,00
105,19	780,00
112,14	850,00
119,09	1465,00
126,02	2323,00
132,95	3133,00
139,87	3219,00
146,78	3276,00
153,68	3110,00
160,58	3080,00
167,46	3238,00
174,34	3093,00
181,21	2940,00
188,08	3032,00
194,93	3090,00
201,78	2936,00
208,62	2888,00
215,45	2971,00
222,27	2984,00
229,09	3053,00
235,90	2999,00
242,70	3038,00
249,49	2887,00
256,27	2720,00
263,05	2864,00
269,82	2929,00
276,58	2920,00
283,33	2853,00
290,08	3008,00
296,82	2708,00
303,55	2742,00
310,27	2735,00
316,98	2709,00
323,69	2659,00
330,39	2682,00
337,08	2825,00
343,76	2699,00
350,44	2622,00
357,11	2633,00
363,77	2635,00
370,42	2511,00
377,07	2573,00
383,71	2629,00
390,34	2504,00
396,96	2633,00
403,58	2590,00
410,19	2585,00
416,79	2525,00
423,38	2654,00
429,97	2401,00
436,55	2463,00
443,12	2450,00
449,68	2431,00
456,24	2271,00
462,79	2419,00
469,33	2255,00
475,86	2100,00
482,39	2244,00
488,91	2333,00
495,42	2241,00
501,93	2196,00
508,42	2116,00
514,91	2204,00
521,40	2068,00
527,87	2138,00
534,34	2176,00
540,80	2101,00
547,25	2058,00
553,70	2106,00
560,14	2049,00
566,57	2010,00
573,00	2040,00
579,41	1908,00
585,83	1988,00
592,23	2032,00
598,62	1844,00
605,01	2007,00
611,40	1932,00
617,77	1984,00
624,14	2020,00
630,50	1823,00
636,85	1934,00
643,20	1766,00
649,54	1915,00
655,87	1876,00
662,20	1700,00
668,52	1844,00
674,83	1728,00
681,13	1776,00
687,43	1839,00
693,72	1669,00
700,00	1740,00
706,28	1831,00
712,55	1798,00
718,81	1812,00
725,07	1764,00
731,32	1691,00
737,56	1850,00
743,79	1725,00
750,02	1800,00
756,24	1668,00
762,46	1740,00
768,67	1662,00
774,87	1787,00
781,06	1703,00
787,25	1690,00
793,43	1635,00
799,60	1572,00
805,77	1549,00
811,93	1672,00
818,08	1638,00
824,23	1694,00
830,37	1664,00
836,50	1501,00
842,63	1557,00
848,75	1544,00
854,87	1458,00
860,97	1562,00
867,07	1718,00
873,17	1514,00
879,25	1672,00
885,33	1545,00
891,41	1583,00
897,47	1573,00
903,53	1461,00
909,59	1385,00
915,63	1550,00
921,67	1560,00
927,71	1441,00
933,74	1404,00
939,76	1370,00
945,77	1496,00
951,78	1428,00
957,78	1487,00
963,78	1447,00
969,77	1545,00
975,75	1454,00
981,72	1531,00
987,69	1093,00
993,66	1436,00
999,61	1440,00
1005,56	1384,00
1011,51	1515,00
1017,44	1468,00
1023,37	1427,00
1029,30	1499,00
1035,22	1439,00
1041,13	1591,00
1047,03	1442,00
1052,93	1732,00
1058,83	1870,00
1064,71	1798,00
1070,59	1656,00
1076,47	1573,00
1082,33	1522,00
1088,20	1418,00
1094,05	1526,00
1099,90	1392,00
1105,74	1474,00
1111,58	1305,00
1117,41	1424,00
1123,23	1677,00
1129,05	1795,00
1134,86	1614,00
1140,67	1412,00
1146,47	1342,00
1152,26	1433,00
1158,05	1384,00
1163,83	1353,00
1169,60	1372,00
1175,37	1509,00
1181,13	1309,00
1186,89	1194,00
1192,64	1298,00
1198,38	1357,00
1204,12	1255,00
1209,85	1254,00
1215,58	1232,00
1221,30	1288,00
1227,02	1218,00
1232,72	1234,00
1238,43	1217,00
1244,12	1298,00
1249,81	1295,00
1255,50	1278,00
1261,17	1365,00
1266,85	1163,00
1272,51	1384,00
1278,17	1489,00
1283,83	1523,00
1289,47	1582,00
1295,12	2176,00
1300,75	1895,00
1306,38	1740,00
1312,01	1622,00
1317,63	1466,00
1323,24	1425,00
1328,85	1383,00
1334,45	1279,00
1340,04	1263,00
1345,63	1423,00
1351,22	1399,00
1356,80	1322,00
1362,37	1519,00
1367,93	1402,00
1373,49	1299,00
1379,05	1365,00
1384,60	1467,00
1390,14	1413,00
1395,68	1264,00
1401,21	1367,00
1406,74	1386,00
1412,26	1520,00
1417,77	1674,00
1423,28	1629,00
1428,78	1687,00
1434,28	1987,00
1439,77	2178,00
1445,26	2144,00
1450,74	2104,00
1456,22	1931,00
1461,68	1737,00
1467,15	1696,00
1472,61	1687,00
1478,06	1654,00
1483,51	1417,00
1488,95	1236,00
1494,38	1302,00
1499,81	1369,00
1505,24	1222,00
1510,65	1292,00
1516,07	1226,00
1521,48	1090,00
1526,88	1069,00
1532,27	1023,00
1537,67	1037,00
1543,05	1295,00
1548,43	1171,00
1553,81	1016,00
1559,18	1060,00
1564,54	1132,00
1569,90	1022,00
1575,25	1199,00
1580,60	973,00
1585,94	1115,00
1591,28	1140,00
1596,61	1046,00
1601,93	1094,00
1607,25	1011,00
1612,57	1064,00
1617,88	1137,00
1623,18	932,00
1628,48	917,00
1633,77	1022,00
1639,06	986,00
1644,34	994,00
1649,62	1001,00
1654,89	1082,00
1660,16	967,00
1665,42	928,00
1670,67	945,00
1675,92	1094,00
1681,17	857,00
1686,41	968,00
1691,64	889,00
1696,87	901,00
1702,10	1053,00
1707,32	776,00
1712,53	1136,00
1717,74	1024,00
1722,94	863,00
1728,14	804,00
1733,33	937,00
1738,52	816,00
1743,70	896,00
1748,88	863,00
1754,05	857,00
1759,22	848,00
1764,38	765,00
1769,53	947,00
1774,69	861,00
1779,83	843,00
1784,97	810,00
1790,11	810,00
1795,24	760,00
1800,36	689,00
1805,48	839,00
1810,60	738,00
1815,71	969,00
1820,82	789,00
1825,92	767,00
1831,01	763,00
1836,10	888,00
1841,19	799,00
1846,26	677,00
1851,34	760,00
1856,41	758,00
1861,47	691,00
1866,53	659,00
1871,59	697,00
1876,64	708,00
1881,68	804,00
1886,72	731,00
1891,76	744,00
1896,79	687,00
1901,81	666,00
1906,83	780,00
1911,85	691,00
1916,86	606,00
1921,86	717,00
1926,86	601,00
1931,86	645,00
1936,85	497,00
1941,83	644,00
1946,81	655,00
1951,79	673,00
1956,76	633,00
1961,72	616,00
1966,68	519,00
1971,64	598,00
1976,59	518,00
1981,54	597,00
1986,48	468,00
1991,42	576,00
1996,35	534,00
2001,27	552,00
2006,20	485,00
2011,11	487,00
2016,03	672,00
2020,93	525,00
2025,84	496,00
2030,73	505,00
2035,63	544,00
2040,52	538,00
2045,40	580,00
2050,28	413,00
2055,15	561,00
2060,02	496,00
2064,89	528,00
2069,75	458,00
2074,60	442,00
2079,46	565,00
2084,30	429,00
2089,14	541,00
2093,98	534,00
2098,81	572,00
2103,64	524,00
2108,46	437,00
2113,28	414,00
2118,09	462,00
2122,90	471,00
2127,70	388,00
2132,50	358,00
2137,30	256,00
2142,09	547,00
2146,87	300,00
2151,66	645,00
2156,43	497,00
2161,20	556,00
2165,97	391,00
2170,73	482,00
2175,49	492,00
2180,24	411,00
2184,99	273,00
2189,74	428,00
2194,48	435,00
2199,21	353,00
2203,94	444,00
2208,67	429,00
2213,39	479,00
2218,11	441,00
2222,82	314,00
2227,53	423,00
2232,23	488,00
2236,93	456,00
2241,63	462,00
2246,32	349,00
2251,00	434,00
2255,68	356,00
2260,36	296,00
2265,03	402,00
2269,70	428,00
2274,36	344,00
2279,02	372,00
2283,68	301,00
2288,33	258,00
2292,97	332,00
2297,61	387,00
2302,25	317,00
2306,88	509,00
2311,51	341,00
2316,14	372,00
2320,75	374,00
2325,37	307,00
2329,98	281,00
2334,59	410,00
2339,19	332,00
2343,79	306,00
2348,38	324,00
2352,97	325,00
2357,55	327,00
2362,13	291,00
2366,71	324,00
2371,28	348,00
2375,85	334,00
2380,41	210,00
2384,97	269,00
2389,52	296,00
2394,07	354,00
2398,62	240,00
2403,16	296,00
2407,70	298,00
2412,23	200,00
2416,76	414,00
2421,29	249,00
2425,81	327,00
2430,32	306,00
2434,84	305,00
2439,34	341,00
2443,85	443,00
2448,35	329,00
2452,84	187,00
2457,33	332,00
2461,82	250,00
2466,30	203,00
2470,78	484,00
2475,25	200,00
2479,72	361,00
2484,19	288,00
2488,65	359,00
2493,11	202,00
2497,56	215,00
2502,01	349,00
2506,46	229,00
2510,90	290,00
2515,34	397,00
2519,77	211,00
2524,20	302,00
2528,62	291,00
2533,04	197,00
2537,46	246,00
2541,87	190,00
2546,28	165,00
2550,68	281,00
2555,08	132,00
2559,48	356,00
2563,87	173,00
2568,26	291,00
2572,64	308,00
2577,02	323,00
2581,40	205,00
2585,77	195,00
2590,14	232,00
2594,50	237,00
2598,86	211,00
2603,22	243,00
2607,57	266,00
2611,92	208,00
2616,26	244,00
2620,60	274,00
2624,94	216,00
2629,27	315,00
2633,60	295,00
2637,92	203,00
2642,24	316,00
2646,56	183,00
2650,87	134,00
2655,18	114,00
2659,48	52,00
2663,78	284,00
2668,08	278,00
2672,37	230,00
2676,66	145,00
2680,95	285,00
2685,23	291,00
2689,50	224,00
2693,78	238,00
2698,05	277,00
2702,31	480,00
2706,57	272,00
2710,83	283,00
2715,08	273,00
2719,33	232,00
2723,58	408,00
2727,82	193,00
2732,06	285,00
2736,29	398,00
2740,53	349,00
2744,75	343,00
2748,97	369,00
2753,19	322,00
2757,41	151,00
2761,62	289,00
2765,83	169,00
2770,03	247,00
2774,23	257,00
2778,43	223,00
2782,62	244,00
2786,81	274,00
2791,00	283,00
2795,18	186,00
2799,35	326,00
2803,53	272,00
2807,70	276,00
2811,86	339,00
2816,03	389,00
2820,19	305,00
2824,34	426,00
2828,49	557,00
2832,64	526,00
2836,78	635,00
2840,92	758,00
2845,06	967,00
2849,19	1070,00
2853,32	1194,00
2857,45	1026,00
2861,57	1062,00
2865,69	1177,00
2869,80	1112,00
2873,91	1068,00
2878,02	1308,00
2882,12	1288,00
2886,22	1346,00
2890,32	1158,00
2894,41	1114,00
2898,50	979,00
2902,58	1040,00
2906,67	930,00
2910,74	696,00
2914,82	749,00
2918,89	811,00
2922,96	798,00
2927,02	624,00
2931,08	615,00
2935,13	625,00
2939,19	472,00
2943,24	476,00
2947,28	497,00
2951,32	377,00
2955,36	501,00
2959,40	297,00
2963,43	452,00
2967,46	371,00
2971,48	282,00
2975,50	246,00
2979,52	362,00
2983,53	231,00
2987,54	136,00
2991,55	237,00
2995,55	269,00
2999,55	196,00
3003,54	154,00
3007,54	-64,00
3011,53	202,00
3015,51	266,00
3019,49	243,00
3023,47	90,00
3027,45	168,00
3031,42	168,00
3035,39	159,00
3039,35	108,00
3043,31	153,00
3047,27	209,00
3051,22	115,00
3055,17	154,00
3059,12	180,00
3063,06	50,00
3067,00	126,00
3070,94	90,00
3074,87	113,00
3078,80	-16,00
3082,73	248,00
3086,65	115,00
3090,57	75,00
3094,49	225,00
3098,40	148,00
3102,31	25,00
3106,22	160,00
3110,12	155,00
3114,02	189,00
3117,92	156,00
3121,81	44,00
3125,70	-37,00
3129,58	76,00
3133,47	142,00
3137,34	160,00
3141,22	127,00
3145,09	80,00
3148,96	23,00
3152,83	136,00
3156,69	154,00
3160,55	142,00
3164,40	110,00
3168,26	-40,00
3172,10	42,00
3175,95	153,00
3179,79	2,00
3183,63	104,00
3187,47	153,00
3191,30	148,00
3195,13	124,00
3198,95	50,00
3202,78	144,00
3206,60	82,00
3210,41	56,00
3214,23	218,00
3218,03	94,00
3221,84	66,00
3225,64	9,00
3229,44	18,00
3233,24	81,00
3237,03	22,00
3240,82	60,00
3244,61	46,00
3248,39	-28,00
3252,17	198,00
3255,95	120,00
3259,72	152,00
3263,49	181,00
3267,26	159,00
3271,03	127,00
3274,79	47,00
3278,54	251,00
3282,30	97,00
3286,05	135,00
3289,80	31,00
3293,54	169,00
3297,29	154,00
3301,02	39,00
3304,76	69,00
3308,49	-24,00
3312,22	106,00
3315,95	-60,00
3319,67	-8,00
3323,39	70,00
3327,10	-6,00
3330,82	184,00
3334,53	101,00
3338,24	69,00
3341,94	66,00
3345,64	100,00
3349,34	125,00
3353,03	106,00
3356,72	7,00
3360,41	121,00
3364,10	36,00
3367,78	-2,00
3371,46	40,00
3375,13	129,00
3378,81	122,00
3382,48	104,00
3386,14	128,00
3389,81	128,00
3393,47	95,00
3397,12	36,00
3400,78	59,00
3404,43	90,00
3408,08	-25,00
3411,72	134,00
3415,36	147,00
3419,00	-21,00
3422,64	3,00
3426,27	44,00
3429,90	80,00
3433,53	108,00
3437,15	-97,00
3440,77	188,00
3444,39	61,00
3448,00	-5,00
3451,62	140,00
3455,22	24,00
3458,83	172,00
3462,43	136,00
3466,03	120,00
3469,63	126,00
3473,22	-37,00
3476,81	22,00
3480,40	71,00
3483,99	68,00
3487,57	12,00
3491,15	19,00
3494,72	7,00
3498,29	36,00
3501,86	92,00
3505,43	68,00
3508,99	176,00
3512,56	-105,00
3516,11	112,00
3519,67	-12,00
3523,22	99,00
3526,77	-79,00
3530,32	-17,00
3533,86	101,00
3537,40	17,00
3540,94	-41,00
3544,47	-23,00
3548,00	21,00
3551,53	-111,00
3555,06	73,00
3558,58	-38,00
3562,10	-22,00
3565,62	-31,00
3569,13	-76,00
3572,64	42,00
3576,15	27,00
3579,66	67,00
3583,16	56,00
3586,66	-43,00
3590,16	138,00
3593,65	9,00
3597,14	67,00
3600,63	-106,00
3604,11	86,00
3607,60	19,00
3611,08	147,00
3614,55	67,00
3618,03	-4,00
3621,50	118,00
3624,97	12,00
3628,43	128,00
3631,90	-25,00
3635,36	90,00
3638,81	-67,00
3642,27	6,00
3645,72	-61,00
3649,17	25,00
3652,61	-48,00
3656,06	14,00
3659,50	-58,00
3662,93	74,00
3666,37	64,00
3669,80	134,00
3673,23	-43,00
3676,65	168,00
3680,08	131,00
3683,50	28,00
3686,92	54,00
3690,33	24,00
3693,74	-70,00
3697,15	-76,00
3700,56	114,00
3703,96	-59,00
3707,36	41,00
3710,76	-66,00
3714,16	-46,00
3717,55	116,00
3720,94	16,00
3724,33	0,00
3727,71	50,00
3731,10	179,00
3734,48	8,00
3737,85	-9,00
3741,23	40,00
3744,60	104,00
3747,97	85,00
3751,33	38,00
3754,69	68,00
3758,05	-13,00
3761,41	59,00
3764,77	16,00
3768,12	83,00
3771,47	31,00
3774,82	59,00
3778,16	-2,00
3781,50	-9,00
3784,84	7,00
3788,18	5,00
>>>>>End Processed Spectral Data<<<<<
