SpectraSuite Data File
++++++++++++++++++++++++++++++++++++
Date: Tue Mar 03 10:33:05 ICT 2026
User: user
Dark Spectrum Present: Yes
Reference Spectrum Present: No
Number of Sampled Component Spectra: 1
Spectrometers: MAYP113682
Integration Time (usec): 3000000 (MAYP113682)
Spectra Averaged: 1 (MAYP113682)
Boxcar Smoothing: 0 (MAYP113682)
Correct for Electrical Dark: No (MAYP113682)
Strobe/Lamp Enabled: No (MAYP113682)
Correct for Detector Non-linearity: No (MAYP113682)
Correct for Stray Light: No (MAYP113682)
Number of Pixels in Processed Spectrum: 2068
>>>>>Begin Processed Spectral Data<<<<<
-37534,58	26,00
-37414,56	7,00
-37295,11	4,00
-37176,24	5,00
-37057,95	550,00
-36940,22	575,00
-36823,05	642,00
-36706,45	772,00
-36590,40	575,00
-36474,90	625,00
-36359,95	719,00
-36245,55	618,00
-36131,68	731,00
-36018,35	663,00
-35905,55	711,00
-35793,29	762,00
-35681,54	699,00
-35570,32	609,00
-35459,62	693,00
-35349,43	702,00
-35239,75	694,00
-35130,58	605,00
-35021,91	713,00
-34913,74	691,00
-34806,07	725,00
-34698,89	750,00
-34592,20	677,00
-34486,00	682,00
-34380,28	696,00
-34275,04	668,00
-34170,27	612,00
-34065,98	728,00
-33962,16	711,00
-33858,81	658,00
-33755,92	689,00
-33653,49	797,00
-33551,52	827,00
-33450,01	677,00
-33348,94	738,00
-33248,33	756,00
-33148,16	666,00
-33048,43	666,00
-32949,14	806,00
-32850,29	759,00
-32751,87	634,00
-32653,89	854,00
-32556,33	875,00
-32459,20	696,00
-32362,49	638,00
-32266,19	738,00
-32170,32	893,00
-32074,86	729,00
-31979,82	738,00
-31885,18	734,00
-31790,95	897,00
-31697,12	699,00
-31603,69	676,00
-31510,67	968,00
-31418,04	825,00
-31325,80	778,00
-31233,95	823,00
-31142,49	792,00
-31051,42	828,00
-30960,73	812,00
-30870,43	810,00
-30780,50	678,00
-30690,95	673,00
-30601,77	763,00
-30512,97	775,00
-30424,53	687,00
-30336,46	855,00
-30248,76	785,00
-30161,42	676,00
-30074,44	832,00
-29987,81	777,00
-29901,55	782,00
-29815,63	766,00
-29730,07	836,00
-29644,86	667,00
-29560,00	790,00
-29475,48	670,00
-29391,30	678,00
-29307,47	743,00
-29223,97	804,00
-29140,81	705,00
-29057,99	755,00
-28975,50	806,00
-28893,34	824,00
-28811,51	686,00
-28730,00	756,00
-28648,82	705,00
-28567,97	791,00
-28487,43	677,00
-28407,21	732,00
-28327,32	808,00
-28247,73	934,00
-28168,46	794,00
-28089,50	778,00
-28010,85	781,00
-27932,51	707,00
-27854,48	734,00
-27776,75	683,00
-27699,32	676,00
-27622,19	846,00
-27545,37	837,00
-27468,84	796,00
-27392,60	745,00
-27316,66	683,00
-27241,01	769,00
-27165,66	805,00
-27090,59	702,00
-27015,81	821,00
-26941,31	833,00
-26867,10	803,00
-26793,17	810,00
-26719,52	804,00
-26646,15	757,00
-26573,06	784,00
-26500,24	718,00
-26427,70	703,00
-26355,43	863,00
-26283,43	728,00
-26211,71	808,00
-26140,25	764,00
-26069,06	954,00
-25998,13	703,00
-25927,46	833,00
-25857,06	678,00
-25786,92	733,00
-25717,04	717,00
-25647,42	819,00
-25578,05	610,00
-25508,94	850,00
-25440,09	813,00
-25371,48	767,00
-25303,13	874,00
-25235,02	702,00
-25167,17	798,00
-25099,56	779,00
-25032,19	778,00
-24965,07	706,00
-24898,20	658,00
-24831,56	876,00
-24765,17	790,00
-24699,01	690,00
-24633,10	711,00
-24567,41	792,00
-24501,97	798,00
-24436,75	672,00
-24371,77	710,00
-24307,03	666,00
-24242,51	752,00
-24178,22	743,00
-24114,16	778,00
-24050,32	816,00
-23986,71	720,00
-23923,32	665,00
-23860,16	662,00
-23797,22	765,00
-23734,50	796,00
-23672,00	730,00
-23609,71	777,00
-23547,65	698,00
-23485,80	660,00
-23424,16	737,00
-23362,74	801,00
-23301,53	720,00
-23240,54	652,00
-23179,75	826,00
-23119,17	799,00
-23058,80	785,00
-22998,64	771,00
-22938,68	712,00
-22878,93	743,00
-22819,39	675,00
-22760,04	807,00
-22700,90	823,00
-22641,96	743,00
-22583,22	796,00
-22524,68	707,00
-22466,33	685,00
-22408,19	702,00
-22350,23	718,00
-22292,48	704,00
-22234,92	796,00
-22177,55	932,00
-22120,37	923,00
-22063,38	777,00
-22006,58	832,00
-21949,98	670,00
-21893,56	652,00
-21837,33	691,00
-21781,28	864,00
-21725,42	740,00
-21669,74	787,00
-21614,25	711,00
-21558,94	695,00
-21503,81	792,00
-21448,86	747,00
-21394,10	749,00
-21339,51	641,00
-21285,10	712,00
-21230,86	674,00
-21176,81	650,00
-21122,93	680,00
-21069,22	765,00
-21015,69	641,00
-20962,33	708,00
-20909,14	719,00
-20856,13	780,00
-20803,28	751,00
-20750,61	750,00
-20698,10	760,00
-20645,76	682,00
-20593,59	801,00
-20541,59	732,00
-20489,75	758,00
-20438,07	653,00
-20386,56	763,00
-20335,22	694,00
-20284,03	576,00
-20233,01	624,00
-20182,15	783,00
-20131,45	799,00
-20080,91	753,00
-20030,52	642,00
-19980,30	678,00
-19930,23	733,00
-19880,32	794,00
-19830,56	826,00
-19780,96	680,00
-19731,52	733,00
-19682,23	739,00
-19633,09	723,00
-19584,10	698,00
-19535,26	674,00
-19486,58	822,00
-19438,04	762,00
-19389,66	691,00
-19341,42	735,00
-19293,33	692,00
-19245,39	746,00
-19197,60	825,00
-19149,95	871,00
-19102,45	808,00
-19055,09	706,00
-19007,87	797,00
-18960,80	768,00
-18913,87	956,00
-18867,09	736,00
-18820,44	757,00
-18773,94	728,00
-18727,57	849,00
-18681,35	740,00
-18635,26	699,00
-18589,31	682,00
-18543,50	666,00
-18497,83	663,00
-18452,29	680,00
-18406,89	715,00
-18361,63	822,00
-18316,50	655,00
-18271,50	644,00
-18226,63	771,00
-18181,90	793,00
-18137,30	708,00
-18092,84	767,00
-18048,50	758,00
-18004,29	693,00
-17960,22	775,00
-17916,27	699,00
-17872,45	771,00
-17828,76	690,00
-17785,20	775,00
-17741,77	745,00
-17698,46	700,00
-17655,28	685,00
-17612,22	607,00
-17569,29	757,00
-17526,48	696,00
-17483,79	665,00
-17441,23	711,00
-17398,79	689,00
-17356,48	685,00
-17314,28	815,00
-17272,21	683,00
-17230,26	788,00
-17188,42	768,00
-17146,71	784,00
-17105,12	812,00
-17063,64	749,00
-17022,28	569,00
-16981,04	805,00
-16939,92	756,00
-16898,91	828,00
-16858,02	739,00
-16817,25	744,00
-16776,59	672,00
-16736,04	744,00
-16695,61	753,00
-16655,29	674,00
-16615,09	802,00
-16574,99	729,00
-16535,01	712,00
-16495,15	827,00
-16455,39	677,00
-16415,74	779,00
-16376,21	853,00
-16336,78	592,00
-16297,46	644,00
-16258,26	696,00
-16219,16	598,00
-16180,17	677,00
-16141,28	750,00
-16102,51	661,00
-16063,84	699,00
-16025,27	680,00
-15986,82	674,00
-15948,46	646,00
-15910,22	694,00
-15872,07	695,00
-15834,04	715,00
-15796,10	690,00
-15758,27	884,00
-15720,54	779,00
-15682,91	728,00
-15645,39	700,00
-15607,97	704,00
-15570,64	774,00
-15533,42	765,00
-15496,30	756,00
-15459,28	816,00
-15422,36	640,00
-15385,54	644,00
-15348,82	745,00
-15312,19	822,00
-15275,66	745,00
-15239,23	714,00
-15202,90	715,00
-15166,67	619,00
-15130,53	647,00
-15094,48	727,00
-15058,54	810,00
-15022,68	621,00
-14986,93	689,00
-14951,26	683,00
-14915,69	743,00
-14880,22	614,00
-14844,84	733,00
-14809,55	701,00
-14774,35	782,00
-14739,25	716,00
-14704,24	710,00
-14669,32	619,00
-14634,49	700,00
-14599,75	694,00
-14565,10	633,00
-14530,55	734,00
-14496,08	728,00
-14461,70	749,00
-14427,41	675,00
-14393,21	665,00
-14359,10	676,00
-14325,07	764,00
-14291,14	746,00
-14257,29	796,00
-14223,52	791,00
-14189,85	871,00
-14156,26	709,00
-14122,76	636,00
-14089,34	738,00
-14056,01	772,00
-14022,76	783,00
-13989,60	726,00
-13956,52	603,00
-13923,53	743,00
-13890,62	725,00
-13857,79	661,00
-13825,05	797,00
-13792,39	728,00
-13759,81	637,00
-13727,31	677,00
-13694,90	677,00
-13662,57	813,00
-13630,31	711,00
-13598,14	732,00
-13566,05	684,00
-13534,05	727,00
-13502,12	707,00
-13470,27	793,00
-13438,50	744,00
-13406,80	733,00
-13375,19	666,00
-13343,66	733,00
-13312,20	821,00
-13280,83	678,00
-13249,53	725,00
-13218,30	639,00
-13187,16	721,00
-13156,09	879,00
-13125,10	831,00
-13094,18	741,00
-13063,34	858,00
-13032,58	547,00
-13001,89	673,00
-12971,28	768,00
-12940,74	791,00
-12910,27	737,00
-12879,88	735,00
-12849,57	775,00
-12819,33	826,00
-12789,16	743,00
-12759,06	789,00
-12729,04	760,00
-12699,09	2536,00
-12669,21	636,00
-12639,41	750,00
-12609,68	662,00
-12580,02	665,00
-12550,43	819,00
-12520,91	633,00
-12491,46	602,00
-12462,08	662,00
-12432,77	782,00
-12403,54	651,00
-12374,37	689,00
-12345,27	792,00
-12316,24	735,00
-12287,29	768,00
-12258,40	689,00
-12229,57	603,00
-12200,82	776,00
-12172,14	665,00
-12143,52	628,00
-12114,97	730,00
-12086,49	785,00
-12058,07	877,00
-12029,73	780,00
-12001,44	936,00
-11973,23	679,00
-11945,08	817,00
-11917,00	827,00
-11888,98	745,00
-11861,03	704,00
-11833,15	739,00
-11805,32	681,00
-11777,57	828,00
-11749,88	790,00
-11722,25	687,00
-11694,69	638,00
-11667,19	782,00
-11639,75	807,00
-11612,38	767,00
-11585,07	706,00
-11557,83	747,00
-11530,65	846,00
-11503,53	832,00
-11476,47	708,00
-11449,48	624,00
-11422,54	703,00
-11395,67	833,00
-11368,86	805,00
-11342,11	678,00
-11315,43	724,00
-11288,80	597,00
-11262,23	806,00
-11235,73	762,00
-11209,28	800,00
-11182,90	838,00
-11156,57	749,00
-11130,31	837,00
-11104,10	780,00
-11077,96	822,00
-11051,87	702,00
-11025,84	863,00
-10999,87	732,00
-10973,96	712,00
-10948,11	762,00
-10922,31	817,00
-10896,58	808,00
-10870,90	880,00
-10845,28	799,00
-10819,71	720,00
-10794,20	826,00
-10768,75	859,00
-10743,36	809,00
-10718,02	700,00
-10692,74	777,00
-10667,52	745,00
-10642,35	869,00
-10617,24	860,00
-10592,18	970,00
-10567,18	855,00
-10542,23	886,00
-10517,34	911,00
-10492,51	832,00
-10467,72	886,00
-10443,00	900,00
-10418,32	938,00
-10393,70	955,00
-10369,14	986,00
-10344,63	964,00
-10320,17	1064,00
-10295,77	987,00
-10271,42	1088,00
-10247,12	1115,00
-10222,88	1158,00
-10198,68	1030,00
-10174,54	1128,00
-10150,46	1299,00
-10126,42	1212,00
-10102,44	1305,00
-10078,51	1361,00
-10054,63	1382,00
-10030,80	1365,00
-10007,03	1481,00
-9983,30	1523,00
-9959,63	1440,00
-9936,01	1608,00
-9912,44	1617,00
-9888,92	1581,00
-9865,44	1583,00
-9842,02	1702,00
-9818,65	1856,00
-9795,33	1701,00
-9772,06	1728,00
-9748,84	1864,00
-9725,67	2097,00
-9702,55	2328,00
-9679,47	2617,00
-9656,45	2746,00
-9633,47	2698,00
-9610,55	2821,00
-9587,67	2959,00
-9564,84	3196,00
-9542,06	3347,00
-9519,32	3695,00
-9496,64	3986,00
-9474,00	4111,00
-9451,41	4215,00
-9428,87	4171,00
-9406,37	3956,00
-9383,92	3748,00
-9361,52	3820,00
-9339,17	3812,00
-9316,86	4050,00
-9294,60	4463,00
-9272,38	4929,00
-9250,21	5183,00
-9228,09	5234,00
-9206,01	5072,00
-9183,98	4557,00
-9162,00	4129,00
-9140,06	3861,00
-9118,16	3784,00
-9096,31	3903,00
-9074,51	4088,00
-9052,75	4114,00
-9031,04	3982,00
-9009,37	3619,00
-8987,74	3171,00
-8966,16	2918,00
-8944,63	2667,00
-8923,14	2770,00
-8901,69	2717,00
-8880,29	2964,00
-8858,93	3391,00
-8837,61	3593,00
-8816,34	3643,00
-8795,11	3610,00
-8773,92	3424,00
-8752,78	3200,00
-8731,68	3092,00
-8710,62	3134,00
-8689,61	3205,00
-8668,63	3364,00
-8647,70	3738,00
-8626,82	3668,00
-8605,97	3497,00
-8585,17	3302,00
-8564,41	2930,00
-8543,69	2710,00
-8523,01	2691,00
-8502,37	2961,00
-8481,78	2910,00
-8461,23	2960,00
-8440,71	3176,00
-8420,24	3351,00
-8399,81	3433,00
-8379,42	3349,00
-8359,08	3208,00
-8338,77	2855,00
-8318,50	2787,00
-8298,27	2696,00
-8278,09	2632,00
-8257,94	2958,00
-8237,83	3081,00
-8217,76	3179,00
-8197,74	3230,00
-8177,75	3154,00
-8157,80	3014,00
-8137,89	2750,00
-8118,02	2709,00
-8098,19	2809,00
-8078,40	2765,00
-8058,65	2883,00
-8038,93	2897,00
-8019,26	2981,00
-7999,62	2914,00
-7980,02	2778,00
-7960,46	2687,00
-7940,94	2621,00
-7921,46	2645,00
-7902,01	2543,00
-7882,60	2665,00
-7863,23	2534,00
-7843,90	2693,00
-7824,61	2752,00
-7805,35	3052,00
-7786,13	3031,00
-7766,95	2904,00
-7747,80	2825,00
-7728,69	2765,00
-7709,62	2662,00
-7690,59	2876,00
-7671,59	2935,00
-7652,63	2922,00
-7633,70	3132,00
-7614,81	3062,00
-7595,96	2773,00
-7577,15	2632,00
-7558,37	2582,00
-7539,62	2697,00
-7520,91	2859,00
-7502,24	3072,00
-7483,60	3042,00
-7465,00	2873,00
-7446,44	2595,00
-7427,91	2243,00
-7409,41	2236,00
-7390,95	2062,00
-7372,53	2043,00
-7354,14	2014,00
-7335,78	2181,00
-7317,46	2186,00
-7299,18	2363,00
-7280,92	2596,00
-7262,71	2986,00
-7244,52	2979,00
-7226,38	3018,00
-7208,26	2972,00
-7190,18	2730,00
-7172,14	2587,00
-7154,12	2547,00
-7136,15	2621,00
-7118,20	2781,00
-7100,29	2952,00
-7082,41	2859,00
-7064,57	2742,00
-7046,76	2563,00
-7028,98	2351,00
-7011,24	2378,00
-6993,53	1925,00
-6975,85	1876,00
-6958,20	1726,00
-6940,59	1789,00
-6923,01	1724,00
-6905,46	1943,00
-6887,94	2331,00
-6870,46	473,00
-6853,01	2739,00
-6835,59	2763,00
-6818,21	2419,00
-6800,85	2345,00
-6783,53	1903,00
-6766,24	1591,00
-6748,98	1553,00
-6731,76	1497,00
-6714,56	1564,00
-6697,40	1465,00
-6680,26	1426,00
-6663,16	1797,00
-6646,09	1940,00
-6629,05	2248,00
-6612,05	2293,00
-6595,07	2326,00
-6578,13	2256,00
-6561,21	1795,00
-6544,33	1658,00
-6527,47	1362,00
-6510,65	1280,00
-6493,86	1285,00
-6477,10	1441,00
-6460,36	1397,00
-6443,66	1317,00
-6426,99	1349,00
-6410,35	1378,00
-6393,74	1422,00
-6377,16	1557,00
-6360,61	1711,00
-6344,09	1764,00
-6327,59	1785,00
-6311,13	1793,00
-6294,70	1802,00
-6278,29	1915,00
-6261,92	1997,00
-6245,58	2152,00
-6229,26	2165,00
-6212,97	1961,00
-6196,72	1739,00
-6180,49	1441,00
-6164,29	1247,00
-6148,12	1161,00
-6131,98	1102,00
-6115,86	1026,00
-6099,78	1087,00
-6083,72	925,00
-6067,69	984,00
-6051,69	918,00
-6035,72	1047,00
-6019,78	1237,00
-6003,87	1570,00
-5987,98	1622,00
-5972,12	1791,00
-5956,29	1825,00
-5940,49	1595,00
-5924,71	1448,00
-5908,96	1162,00
-5893,24	1142,00
-5877,55	1149,00
-5861,89	1148,00
-5846,25	1095,00
-5830,64	1221,00
-5815,05	1104,00
-5799,50	1225,00
-5783,97	1124,00
-5768,47	1367,00
-5752,99	1626,00
-5737,55	1556,00
-5722,12	1694,00
-5706,73	1737,00
-5691,36	1580,00
-5676,02	1348,00
-5660,71	1248,00
-5645,42	1077,00
-5630,16	1211,00
-5614,92	1409,00
-5599,71	1509,00
-5584,53	1473,00
-5569,37	1433,00
-5554,24	901,00
-5539,14	1338,00
-5524,06	1308,00
-5509,01	1349,00
-5493,98	1386,00
-5478,98	1408,00
-5464,00	1263,00
-5449,05	1345,00
-5434,13	1075,00
-5419,23	1219,00
-5404,36	1242,00
-5389,51	1347,00
-5374,69	1732,00
-5359,89	1953,00
-5345,12	1914,00
-5330,37	1931,00
-5315,65	1622,00
-5300,95	1453,00
-5286,28	1249,00
-5271,63	1268,00
-5257,01	1297,00
-5242,41	1312,00
-5227,84	1266,00
-5213,29	1161,00
-5198,76	1123,00
-5184,26	1028,00
-5169,79	1206,00
-5155,33	1361,00
-5140,91	1341,00
-5126,51	1530,00
-5112,13	1459,00
-5097,77	1417,00
-5083,44	1247,00
-5069,13	1122,00
-5054,85	1146,00
-5040,59	1249,00
-5026,36	1306,00
-5012,15	1424,00
-4997,96	1341,00
-4983,80	1157,00
-4969,66	1105,00
-4955,54	1072,00
-4941,44	1249,00
-4927,37	1557,00
-4913,33	1768,00
-4899,30	1975,00
-4885,30	1784,00
-4871,33	1488,00
-4857,37	1131,00
-4843,44	997,00
-4829,53	1081,00
-4815,65	1249,00
-4801,79	1102,00
-4787,95	1330,00
-4774,13	1125,00
-4760,34	991,00
-4746,56	867,00
-4732,82	991,00
-4719,09	1267,00
-4705,38	1595,00
-4691,70	1746,00
-4678,04	1759,00
-4664,41	1519,00
-4650,79	1374,00
-4637,20	1028,00
-4623,63	1103,00
-4610,08	1256,00
-4596,56	1427,00
-4583,05	1402,00
-4569,57	1247,00
-4556,11	1123,00
-4542,67	887,00
-4529,25	975,00
-4515,86	1280,00
-4502,49	1610,00
-4489,13	1645,00
-4475,80	1440,00
-4462,49	1196,00
-4449,21	1144,00
-4435,94	944,00
-4422,70	1071,00
-4409,47	1178,00
-4396,27	1278,00
-4383,09	1230,00
-4369,93	957,00
-4356,79	901,00
-4343,67	974,00
-4330,58	1035,00
-4317,50	1168,00
-4304,45	1113,00
-4291,41	1006,00
-4278,40	871,00
-4265,41	786,00
-4252,44	1038,00
-4239,49	1126,00
-4226,55	1275,00
-4213,65	1079,00
-4200,76	972,00
-4187,89	705,00
-4175,04	849,00
-4162,21	901,00
-4149,40	882,00
-4136,61	876,00
-4123,85	752,00
-4111,10	871,00
-4098,37	878,00
-4085,66	822,00
-4072,98	812,00
-4060,31	823,00
-4047,66	941,00
-4035,04	966,00
-4022,43	901,00
-4009,84	942,00
-3997,27	787,00
-3984,72	711,00
-3972,19	892,00
-3959,69	722,00
-3947,20	819,00
-3934,73	797,00
-3922,27	765,00
-3909,84	781,00
-3897,43	672,00
-3885,04	842,00
-3872,67	774,00
-3860,31	745,00
-3847,98	781,00
-3835,66	732,00
-3823,36	721,00
-3811,09	644,00
-3798,83	843,00
-3786,59	706,00
-3774,37	725,00
-3762,17	693,00
-3749,98	754,00
-3737,82	733,00
-3725,67	852,00
-3713,55	711,00
-3701,44	752,00
-3689,35	774,00
-3677,28	841,00
-3665,22	789,00
-3653,19	735,00
-3641,17	735,00
-3629,18	792,00
-3617,20	871,00
-3605,24	832,00
-3593,30	719,00
-3581,37	734,00
-3569,47	822,00
-3557,58	738,00
-3545,71	772,00
-3533,86	866,00
-3522,02	700,00
-3510,21	784,00
-3498,41	826,00
-3486,63	758,00
-3474,87	742,00
-3463,12	764,00
-3451,40	779,00
-3439,69	724,00
-3428,00	848,00
-3416,33	878,00
-3404,67	714,00
-3393,03	801,00
-3381,41	700,00
-3369,81	701,00
-3358,22	663,00
-3346,66	862,00
-3335,10	743,00
-3323,57	693,00
-3312,06	835,00
-3300,56	675,00
-3289,08	712,00
-3277,61	715,00
-3266,16	752,00
-3254,73	880,00
-3243,32	683,00
-3231,92	696,00
-3220,55	793,00
-3209,18	792,00
-3197,84	671,00
-3186,51	648,00
-3175,20	776,00
-3163,90	772,00
-3152,63	819,00
-3141,36	799,00
-3130,12	837,00
-3118,89	837,00
-3107,68	837,00
-3096,49	731,00
-3085,31	782,00
-3074,15	723,00
-3063,00	806,00
-3051,87	782,00
-3040,76	693,00
-3029,67	854,00
-3018,59	910,00
-3007,52	765,00
-2996,48	697,00
-2985,44	667,00
-2974,43	758,00
-2963,43	743,00
-2952,45	631,00
-2941,48	838,00
-2930,53	759,00
-2919,60	658,00
-2908,68	802,00
-2897,78	713,00
-2886,89	903,00
-2876,02	839,00
-2865,17	730,00
-2854,33	739,00
-2843,50	750,00
-2832,70	888,00
-2821,90	849,00
-2811,13	673,00
-2800,37	653,00
-2789,62	812,00
-2778,89	842,00
-2768,18	768,00
-2757,48	695,00
-2746,80	758,00
-2736,13	708,00
-2725,48	711,00
-2714,84	734,00
-2704,22	694,00
-2693,61	750,00
-2683,02	757,00
-2672,45	741,00
-2661,89	787,00
-2651,34	814,00
-2640,81	794,00
-2630,30	899,00
-2619,80	738,00
-2609,31	890,00
-2598,84	610,00
-2588,39	672,00
-2577,95	724,00
-2567,52	614,00
-2557,11	748,00
-2546,71	857,00
-2536,33	853,00
-2525,97	757,00
-2515,62	828,00
-2505,28	715,00
-2494,96	764,00
-2484,65	769,00
-2474,36	921,00
-2464,08	693,00
-2453,82	774,00
-2443,57	692,00
-2433,33	763,00
-2423,11	695,00
-2412,91	861,00
-2402,72	734,00
-2392,54	795,00
-2382,38	702,00
-2372,23	716,00
-2362,09	1307,00
-2351,97	758,00
-2341,87	730,00
-2331,78	802,00
-2321,70	721,00
-2311,64	808,00
-2301,59	618,00
-2291,55	738,00
-2281,53	709,00
-2271,53	701,00
-2261,53	841,00
-2251,55	709,00
-2241,59	750,00
-2231,64	876,00
-2221,70	710,00
-2211,78	772,00
-2201,87	773,00
-2191,97	787,00
-2182,09	665,00
-2172,22	746,00
-2162,37	671,00
-2152,53	753,00
-2142,70	774,00
-2132,89	718,00
-2123,09	731,00
-2113,30	770,00
-2103,53	743,00
-2093,77	807,00
-2084,02	634,00
-2074,29	842,00
-2064,57	874,00
-2054,86	739,00
-2045,17	847,00
-2035,49	817,00
-2025,82	663,00
-2016,17	715,00
-2006,53	743,00
-1996,91	760,00
-1987,29	728,00
-1977,69	729,00
-1968,11	771,00
-1958,53	774,00
-1948,97	697,00
-1939,42	699,00
-1929,89	696,00
-1920,37	752,00
-1910,86	785,00
-1901,36	769,00
-1891,88	773,00
-1882,41	800,00
-1872,95	815,00
-1863,51	787,00
-1854,08	827,00
-1844,66	787,00
-1835,26	802,00
-1825,86	767,00
-1816,48	741,00
-1807,11	687,00
-1797,76	789,00
-1788,42	734,00
-1779,09	917,00
-1769,77	773,00
-1760,47	841,00
-1751,17	690,00
-1741,89	662,00
-1732,63	757,00
-1723,37	800,00
-1714,13	868,00
-1704,90	774,00
-1695,68	767,00
-1686,48	702,00
-1677,29	691,00
-1668,11	1022,00
-1658,94	691,00
-1649,78	731,00
-1640,64	744,00
-1631,51	784,00
-1622,39	709,00
-1613,28	790,00
-1604,19	788,00
-1595,10	673,00
-1586,03	719,00
-1576,97	824,00
-1567,93	711,00
-1558,89	709,00
-1549,87	801,00
-1540,86	716,00
-1531,86	732,00
-1522,87	781,00
-1513,90	892,00
-1504,93	850,00
-1495,98	845,00
-1487,04	791,00
-1478,12	762,00
-1469,20	741,00
-1460,30	868,00
-1451,40	864,00
-1442,52	707,00
-1433,65	706,00
-1424,80	798,00
-1415,95	763,00
-1407,12	933,00
-1398,30	853,00
-1389,48	746,00
-1380,69	705,00
-1371,90	674,00
-1363,12	759,00
-1354,36	860,00
-1345,60	771,00
-1336,86	883,00
-1328,13	928,00
-1319,41	791,00
-1310,70	736,00
-1302,01	620,00
-1293,32	779,00
-1284,65	777,00
-1275,99	806,00
-1267,33	792,00
-1258,69	839,00
-1250,06	895,00
-1241,45	761,00
-1232,84	900,00
-1224,25	852,00
-1215,66	866,00
-1207,09	794,00
-1198,53	840,00
-1189,97	765,00
-1181,43	726,00
-1172,91	905,00
-1164,39	872,00
-1155,88	686,00
-1147,38	725,00
-1138,90	752,00
-1130,43	736,00
-1121,96	852,00
-1113,51	708,00
-1105,07	725,00
-1096,64	731,00
-1088,22	656,00
-1079,81	818,00
-1071,41	828,00
-1063,02	730,00
-1054,65	878,00
-1046,28	757,00
-1037,92	830,00
-1029,58	793,00
-1021,24	691,00
-1012,92	991,00
-1004,61	769,00
-996,30	843,00
-988,01	662,00
-979,73	745,00
-971,46	798,00
-963,20	709,00
-954,95	747,00
-946,71	705,00
-938,48	694,00
-930,26	730,00
-922,06	785,00
-913,86	830,00
-905,67	729,00
-897,49	787,00
-889,33	690,00
-881,17	875,00
-873,02	799,00
-864,89	674,00
-856,76	790,00
-848,65	749,00
-840,54	824,00
-832,45	848,00
-824,36	662,00
-816,29	816,00
-808,22	842,00
-800,17	689,00
-792,12	808,00
-784,09	809,00
-776,06	767,00
-768,05	671,00
-760,04	699,00
-752,05	682,00
-744,07	673,00
-736,09	769,00
-728,13	679,00
-720,17	706,00
-712,23	713,00
-704,29	794,00
-696,37	828,00
-688,45	739,00
-680,55	861,00
-672,65	824,00
-664,77	744,00
-656,89	703,00
-649,03	857,00
-641,17	696,00
-633,32	841,00
-625,49	745,00
-617,66	744,00
-609,84	731,00
-602,03	633,00
-594,23	732,00
-586,45	728,00
-578,67	788,00
-570,90	744,00
-563,14	801,00
-555,39	728,00
-547,65	855,00
-539,91	806,00
-532,19	823,00
-524,48	769,00
-516,78	783,00
-509,08	827,00
-501,40	736,00
-493,72	772,00
-486,06	654,00
-478,40	944,00
-470,76	756,00
-463,12	849,00
-455,49	689,00
-447,87	712,00
-440,26	762,00
-432,66	810,00
-425,07	875,00
-417,49	681,00
-409,92	719,00
-402,35	743,00
-394,80	718,00
-387,25	850,00
-379,72	737,00
-372,19	814,00
-364,67	706,00
-357,17	773,00
-349,67	808,00
-342,18	754,00
-334,69	877,00
-327,22	722,00
-319,76	950,00
-312,30	772,00
-304,86	758,00
-297,42	827,00
-290,00	786,00
-282,58	864,00
-275,17	761,00
-267,77	874,00
-260,37	825,00
-252,99	749,00
-245,62	845,00
-238,25	765,00
-230,90	689,00
-223,55	843,00
-216,21	782,00
-208,88	937,00
-201,56	889,00
-194,25	866,00
-186,94	908,00
-179,65	979,00
-172,36	1034,00
-165,08	944,00
-157,81	999,00
-150,55	1127,00
-143,30	1159,00
-136,06	1166,00
-128,82	1205,00
-121,60	1158,00
-114,38	1334,00
-107,17	1477,00
-99,97	1549,00
-92,78	1517,00
-85,60	1672,00
-78,42	1848,00
-71,25	2011,00
-64,10	2062,00
-56,95	2535,00
-49,81	2792,00
-42,67	3313,00
-35,55	3792,00
-28,43	4881,00
-21,33	7550,00
-14,23	23141,00
-7,14	57727,00
-0,05	57480,00
7,02	57283,00
14,09	57420,00
21,14	20844,00
28,19	9083,00
35,23	5890,00
42,27	4727,00
49,29	3961,00
56,31	3445,00
63,32	3043,00
70,32	2623,00
77,31	2294,00
84,29	1895,00
91,27	1946,00
98,23	1933,00
105,19	1660,00
112,14	1693,00
119,09	2016,00
126,02	2558,00
132,95	2638,00
139,87	2627,00
146,78	2597,00
153,68	2663,00
160,58	2432,00
167,46	2545,00
174,34	2480,00
181,21	2352,00
188,08	2427,00
194,93	2564,00
201,78	2267,00
208,62	2362,00
215,45	2346,00
222,27	2230,00
229,09	2525,00
235,90	2170,00
242,70	2219,00
249,49	2511,00
256,27	2231,00
263,05	2375,00
269,82	2157,00
276,58	2264,00
283,33	2098,00
290,08	2144,00
296,82	2081,00
303,55	2158,00
310,27	2091,00
316,98	2156,00
323,69	2162,00
330,39	2054,00
337,08	2068,00
343,76	2056,00
350,44	2075,00
357,11	2107,00
363,77	2082,00
370,42	1969,00
377,07	2032,00
383,71	1944,00
390,34	1987,00
396,96	1887,00
403,58	1826,00
410,19	2055,00
416,79	2022,00
423,38	2019,00
429,97	1916,00
436,55	1864,00
443,12	1872,00
449,68	1837,00
456,24	1828,00
462,79	1784,00
469,33	1916,00
475,86	1782,00
482,39	1666,00
488,91	1881,00
495,42	1750,00
501,93	1714,00
508,42	1717,00
514,91	1867,00
521,40	1744,00
527,87	1702,00
534,34	1629,00
540,80	1768,00
547,25	1759,00
553,70	1708,00
560,14	1656,00
566,57	1792,00
573,00	1693,00
579,41	1745,00
585,83	1754,00
592,23	1644,00
598,62	1586,00
605,01	1645,00
611,40	1644,00
617,77	1724,00
624,14	1628,00
630,50	1579,00
636,85	1664,00
643,20	1636,00
649,54	1561,00
655,87	1533,00
662,20	1621,00
668,52	1651,00
674,83	1597,00
681,13	1633,00
687,43	1611,00
693,72	1565,00
700,00	1545,00
706,28	1568,00
712,55	1616,00
718,81	1714,00
725,07	1539,00
731,32	1397,00
737,56	1587,00
743,79	1467,00
750,02	1626,00
756,24	1445,00
762,46	1507,00
768,67	1792,00
774,87	1595,00
781,06	1495,00
787,25	1641,00
793,43	1539,00
799,60	1501,00
805,77	1545,00
811,93	1495,00
818,08	1537,00
824,23	1451,00
830,37	1679,00
836,50	1650,00
842,63	1529,00
848,75	1542,00
854,87	1512,00
860,97	1564,00
867,07	1568,00
873,17	1630,00
879,25	1599,00
885,33	1637,00
891,41	1633,00
897,47	1578,00
903,53	1453,00
909,59	1629,00
915,63	1594,00
921,67	1483,00
927,71	1467,00
933,74	1487,00
939,76	1385,00
945,77	1421,00
951,78	1530,00
957,78	1321,00
963,78	1486,00
969,77	1508,00
975,75	1461,00
981,72	1407,00
987,69	2441,00
993,66	1594,00
999,61	1587,00
1005,56	1432,00
1011,51	1483,00
1017,44	1401,00
1023,37	1421,00
1029,30	1451,00
1035,22	1405,00
1041,13	1379,00
1047,03	1469,00
1052,93	1517,00
1058,83	1614,00
1064,71	1799,00
1070,59	1709,00
1076,47	1510,00
1082,33	1478,00
1088,20	1516,00
1094,05	1460,00
1099,90	1405,00
1105,74	1405,00
1111,58	1361,00
1117,41	1445,00
1123,23	1623,00
1129,05	1655,00
1134,86	1809,00
1140,67	1478,00
1146,47	1462,00
1152,26	1344,00
1158,05	1361,00
1163,83	1408,00
1169,60	1410,00
1175,37	1450,00
1181,13	1468,00
1186,89	1401,00
1192,64	1328,00
1198,38	1453,00
1204,12	1377,00
1209,85	1314,00
1215,58	1429,00
1221,30	1253,00
1227,02	1312,00
1232,72	1401,00
1238,43	1339,00
1244,12	1390,00
1249,81	1319,00
1255,50	1394,00
1261,17	1332,00
1266,85	1439,00
1272,51	1417,00
1278,17	1403,00
1283,83	1426,00
1289,47	1711,00
1295,12	2009,00
1300,75	1913,00
1306,38	1652,00
1312,01	1582,00
1317,63	1444,00
1323,24	1513,00
1328,85	1503,00
1334,45	1406,00
1340,04	1442,00
1345,63	1296,00
1351,22	1582,00
1356,80	1480,00
1362,37	1542,00
1367,93	1436,00
1373,49	1581,00
1379,05	1500,00
1384,60	1565,00
1390,14	1377,00
1395,68	1482,00
1401,21	1503,00
1406,74	1471,00
1412,26	1485,00
1417,77	1696,00
1423,28	1616,00
1428,78	1796,00
1434,28	2021,00
1439,77	1975,00
1445,26	1895,00
1450,74	1959,00
1456,22	1849,00
1461,68	1913,00
1467,15	1850,00
1472,61	1689,00
1478,06	1731,00
1483,51	1566,00
1488,95	1334,00
1494,38	1679,00
1499,81	1362,00
1505,24	1382,00
1510,65	1372,00
1516,07	1417,00
1521,48	1413,00
1526,88	1240,00
1532,27	1185,00
1537,67	1350,00
1543,05	1329,00
1548,43	1215,00
1553,81	1314,00
1559,18	1270,00
1564,54	1259,00
1569,90	1234,00
1575,25	1267,00
1580,60	1249,00
1585,94	1283,00
1591,28	1238,00
1596,61	1159,00
1601,93	1229,00
1607,25	1315,00
1612,57	1214,00
1617,88	1298,00
1623,18	1268,00
1628,48	1237,00
1633,77	1227,00
1639,06	1407,00
1644,34	1283,00
1649,62	1103,00
1654,89	1344,00
1660,16	1192,00
1665,42	1254,00
1670,67	1190,00
1675,92	1172,00
1681,17	1040,00
1686,41	1256,00
1691,64	1324,00
1696,87	1260,00
1702,10	1229,00
1707,32	1128,00
1712,53	1207,00
1717,74	1181,00
1722,94	1192,00
1728,14	1177,00
1733,33	1126,00
1738,52	1098,00
1743,70	1228,00
1748,88	1144,00
1754,05	1208,00
1759,22	1136,00
1764,38	1182,00
1769,53	1204,00
1774,69	1194,00
1779,83	1087,00
1784,97	1230,00
1790,11	1110,00
1795,24	1148,00
1800,36	1235,00
1805,48	1150,00
1810,60	1054,00
1815,71	1142,00
1820,82	1102,00
1825,92	1183,00
1831,01	1007,00
1836,10	1066,00
1841,19	1202,00
1846,26	1136,00
1851,34	1007,00
1856,41	1196,00
1861,47	947,00
1866,53	1125,00
1871,59	989,00
1876,64	1003,00
1881,68	1188,00
1886,72	1020,00
1891,76	955,00
1896,79	1063,00
1901,81	1084,00
1906,83	1068,00
1911,85	998,00
1916,86	1072,00
1921,86	1033,00
1926,86	1064,00
1931,86	918,00
1936,85	962,00
1941,83	1053,00
1946,81	1033,00
1951,79	959,00
1956,76	995,00
1961,72	918,00
1966,68	888,00
1971,64	905,00
1976,59	1038,00
1981,54	962,00
1986,48	1006,00
1991,42	813,00
1996,35	1117,00
2001,27	932,00
2006,20	1020,00
2011,11	1078,00
2016,03	976,00
2020,93	928,00
2025,84	1050,00
2030,73	847,00
2035,63	954,00
2040,52	949,00
2045,40	921,00
2050,28	1016,00
2055,15	945,00
2060,02	938,00
2064,89	1022,00
2069,75	976,00
2074,60	832,00
2079,46	961,00
2084,30	996,00
2089,14	946,00
2093,98	1025,00
2098,81	954,00
2103,64	975,00
2108,46	886,00
2113,28	985,00
2118,09	889,00
2122,90	905,00
2127,70	915,00
2132,50	993,00
2137,30	934,00
2142,09	919,00
2146,87	814,00
2151,66	879,00
2156,43	943,00
2161,20	915,00
2165,97	936,00
2170,73	873,00
2175,49	885,00
2180,24	896,00
2184,99	978,00
2189,74	1040,00
2194,48	907,00
2199,21	972,00
2203,94	802,00
2208,67	913,00
2213,39	873,00
2218,11	890,00
2222,82	953,00
2227,53	790,00
2232,23	997,00
2236,93	939,00
2241,63	1031,00
2246,32	931,00
2251,00	885,00
2255,68	1069,00
2260,36	896,00
2265,03	859,00
2269,70	1060,00
2274,36	820,00
2279,02	908,00
2283,68	930,00
2288,33	892,00
2292,97	848,00
2297,61	899,00
2302,25	879,00
2306,88	787,00
2311,51	731,00
2316,14	915,00
2320,75	780,00
2325,37	921,00
2329,98	907,00
2334,59	712,00
2339,19	781,00
2343,79	808,00
2348,38	849,00
2352,97	813,00
2357,55	926,00
2362,13	900,00
2366,71	874,00
2371,28	956,00
2375,85	888,00
2380,41	944,00
2384,97	946,00
2389,52	852,00
2394,07	951,00
2398,62	850,00
2403,16	767,00
2407,70	899,00
2412,23	825,00
2416,76	973,00
2421,29	817,00
2425,81	883,00
2430,32	912,00
2434,84	699,00
2439,34	912,00
2443,85	847,00
2448,35	880,00
2452,84	853,00
2457,33	943,00
2461,82	772,00
2466,30	846,00
2470,78	862,00
2475,25	875,00
2479,72	886,00
2484,19	836,00
2488,65	859,00
2493,11	772,00
2497,56	983,00
2502,01	735,00
2506,46	915,00
2510,90	855,00
2515,34	866,00
2519,77	867,00
2524,20	884,00
2528,62	823,00
2533,04	884,00
2537,46	802,00
2541,87	739,00
2546,28	908,00
2550,68	824,00
2555,08	864,00
2559,48	920,00
2563,87	879,00
2568,26	733,00
2572,64	874,00
2577,02	885,00
2581,40	738,00
2585,77	803,00
2590,14	867,00
2594,50	773,00
2598,86	846,00
2603,22	799,00
2607,57	795,00
2611,92	881,00
2616,26	922,00
2620,60	914,00
2624,94	694,00
2629,27	958,00
2633,60	901,00
2637,92	964,00
2642,24	893,00
2646,56	850,00
2650,87	716,00
2655,18	938,00
2659,48	797,00
2663,78	902,00
2668,08	822,00
2672,37	802,00
2676,66	881,00
2680,95	807,00
2685,23	896,00
2689,50	872,00
2693,78	953,00
2698,05	784,00
2702,31	965,00
2706,57	870,00
2710,83	888,00
2715,08	888,00
2719,33	1003,00
2723,58	942,00
2727,82	941,00
2732,06	968,00
2736,29	991,00
2740,53	919,00
2744,75	923,00
2748,97	932,00
2753,19	895,00
2757,41	954,00
2761,62	909,00
2765,83	858,00
2770,03	818,00
2774,23	880,00
2778,43	860,00
2782,62	918,00
2786,81	769,00
2791,00	926,00
2795,18	1028,00
2799,35	975,00
2803,53	894,00
2807,70	1018,00
2811,86	860,00
2816,03	981,00
2820,19	1037,00
2824,34	933,00
2828,49	1005,00
2832,64	1143,00
2836,78	1211,00
2840,92	1248,00
2845,06	1322,00
2849,19	1497,00
2853,32	1501,00
2857,45	1536,00
2861,57	1549,00
2865,69	1465,00
2869,80	1453,00
2873,91	1337,00
2878,02	1569,00
2882,12	1745,00
2886,22	1489,00
2890,32	1624,00
2894,41	1613,00
2898,50	1425,00
2902,58	1413,00
2906,67	1359,00
2910,74	1361,00
2914,82	1290,00
2918,89	1269,00
2922,96	1277,00
2927,02	1218,00
2931,08	1060,00
2935,13	1090,00
2939,19	1102,00
2943,24	998,00
2947,28	1126,00
2951,32	960,00
2955,36	888,00
2959,40	1169,00
2963,43	977,00
2967,46	907,00
2971,48	973,00
2975,50	909,00
2979,52	955,00
2983,53	951,00
2987,54	885,00
2991,55	976,00
2995,55	782,00
2999,55	815,00
3003,54	768,00
3007,54	805,00
3011,53	859,00
3015,51	839,00
3019,49	969,00
3023,47	727,00
3027,45	845,00
3031,42	746,00
3035,39	696,00
3039,35	872,00
3043,31	891,00
3047,27	820,00
3051,22	835,00
3055,17	795,00
3059,12	749,00
3063,06	816,00
3067,00	712,00
3070,94	840,00
3074,87	792,00
3078,80	747,00
3082,73	894,00
3086,65	810,00
3090,57	760,00
3094,49	696,00
3098,40	812,00
3102,31	907,00
3106,22	769,00
3110,12	756,00
3114,02	752,00
3117,92	854,00
3121,81	822,00
3125,70	723,00
3129,58	773,00
3133,47	754,00
3137,34	751,00
3141,22	847,00
3145,09	823,00
3148,96	887,00
3152,83	717,00
3156,69	766,00
3160,55	591,00
3164,40	871,00
3168,26	834,00
3172,10	886,00
3175,95	864,00
3179,79	856,00
3183,63	780,00
3187,47	822,00
3191,30	816,00
3195,13	741,00
3198,95	729,00
3202,78	776,00
3206,60	673,00
3210,41	657,00
3214,23	718,00
3218,03	777,00
3221,84	755,00
3225,64	758,00
3229,44	744,00
3233,24	746,00
3237,03	676,00
3240,82	696,00
3244,61	789,00
3248,39	694,00
3252,17	775,00
3255,95	838,00
3259,72	781,00
3263,49	873,00
3267,26	711,00
3271,03	810,00
3274,79	737,00
3278,54	713,00
3282,30	681,00
3286,05	776,00
3289,80	861,00
3293,54	752,00
3297,29	821,00
3301,02	724,00
3304,76	782,00
3308,49	760,00
3312,22	726,00
3315,95	717,00
3319,67	752,00
3323,39	819,00
3327,10	815,00
3330,82	752,00
3334,53	796,00
3338,24	771,00
3341,94	853,00
3345,64	739,00
3349,34	806,00
3353,03	772,00
3356,72	766,00
3360,41	788,00
3364,10	734,00
3367,78	723,00
3371,46	837,00
3375,13	728,00
3378,81	721,00
3382,48	816,00
3386,14	786,00
3389,81	792,00
3393,47	825,00
3397,12	826,00
3400,78	843,00
3404,43	786,00
3408,08	708,00
3411,72	794,00
3415,36	652,00
3419,00	764,00
3422,64	691,00
3426,27	792,00
3429,90	615,00
3433,53	756,00
3437,15	696,00
3440,77	625,00
3444,39	787,00
3448,00	741,00
3451,62	775,00
3455,22	732,00
3458,83	616,00
3462,43	761,00
3466,03	740,00
3469,63	729,00
3473,22	695,00
3476,81	760,00
3480,40	734,00
3483,99	605,00
3487,57	826,00
3491,15	602,00
3494,72	686,00
3498,29	718,00
3501,86	718,00
3505,43	702,00
3508,99	766,00
3512,56	712,00
3516,11	799,00
3519,67	830,00
3523,22	850,00
3526,77	837,00
3530,32	805,00
3533,86	776,00
3537,40	747,00
3540,94	716,00
3544,47	759,00
3548,00	716,00
3551,53	768,00
3555,06	712,00
3558,58	896,00
3562,10	772,00
3565,62	710,00
3569,13	777,00
3572,64	815,00
3576,15	647,00
3579,66	755,00
3583,16	732,00
3586,66	726,00
3590,16	690,00
3593,65	699,00
3597,14	639,00
3600,63	734,00
3604,11	692,00
3607,60	690,00
3611,08	721,00
3614,55	783,00
3618,03	668,00
3621,50	692,00
3624,97	706,00
3628,43	751,00
3631,90	755,00
3635,36	642,00
3638,81	715,00
3642,27	705,00
3645,72	757,00
3649,17	686,00
3652,61	665,00
3656,06	732,00
3659,50	620,00
3662,93	692,00
3666,37	694,00
3669,80	835,00
3673,23	696,00
3676,65	752,00
3680,08	730,00
3683,50	634,00
3686,92	723,00
3690,33	662,00
3693,74	646,00
3697,15	577,00
3700,56	703,00
3703,96	695,00
3707,36	656,00
3710,76	636,00
3714,16	653,00
3717,55	632,00
3720,94	709,00
3724,33	660,00
3727,71	624,00
3731,10	656,00
3734,48	683,00
3737,85	552,00
3741,23	680,00
3744,60	530,00
3747,97	623,00
3751,33	594,00
3754,69	520,00
3758,05	616,00
3761,41	532,00
3764,77	625,00
3768,12	604,00
3771,47	621,00
3774,82	683,00
3778,16	-11,00
3781,50	16,00
3784,84	4,00
3788,18	10,00
>>>>>End Processed Spectral Data<<<<<
