SpectraSuite Data File
++++++++++++++++++++++++++++++++++++
Date: Tue Mar 03 10:35:50 ICT 2026
User: user
Dark Spectrum Present: Yes
Reference Spectrum Present: No
Number of Sampled Component Spectra: 1
Spectrometers: MAYP113682
Integration Time (usec): 3000000 (MAYP113682)
Spectra Averaged: 1 (MAYP113682)
Boxcar Smoothing: 0 (MAYP113682)
Correct for Electrical Dark: No (MAYP113682)
Strobe/Lamp Enabled: No (MAYP113682)
Correct for Detector Non-linearity: No (MAYP113682)
Correct for Stray Light: No (MAYP113682)
Number of Pixels in Processed Spectrum: 2068
>>>>>Begin Processed Spectral Data<<<<<
-37534,58	34,00
-37414,56	3,00
-37295,11	11,00
-37176,24	8,00
-37057,95	699,00
-36940,22	676,00
-36823,05	770,00
-36706,45	913,00
-36590,40	859,00
-36474,90	773,00
-36359,95	905,00
-36245,55	843,00
-36131,68	836,00
-36018,35	866,00
-35905,55	886,00
-35793,29	984,00
-35681,54	862,00
-35570,32	802,00
-35459,62	874,00
-35349,43	903,00
-35239,75	981,00
-35130,58	889,00
-35021,91	900,00
-34913,74	912,00
-34806,07	889,00
-34698,89	955,00
-34592,20	886,00
-34486,00	982,00
-34380,28	955,00
-34275,04	932,00
-34170,27	810,00
-34065,98	988,00
-33962,16	980,00
-33858,81	1061,00
-33755,92	991,00
-33653,49	1034,00
-33551,52	1025,00
-33450,01	935,00
-33348,94	1024,00
-33248,33	1001,00
-33148,16	941,00
-33048,43	883,00
-32949,14	1031,00
-32850,29	1078,00
-32751,87	911,00
-32653,89	1100,00
-32556,33	1016,00
-32459,20	981,00
-32362,49	873,00
-32266,19	958,00
-32170,32	1024,00
-32074,86	943,00
-31979,82	1039,00
-31885,18	1040,00
-31790,95	1105,00
-31697,12	1033,00
-31603,69	981,00
-31510,67	1129,00
-31418,04	1115,00
-31325,80	968,00
-31233,95	1006,00
-31142,49	1014,00
-31051,42	934,00
-30960,73	1145,00
-30870,43	1058,00
-30780,50	910,00
-30690,95	914,00
-30601,77	1044,00
-30512,97	975,00
-30424,53	988,00
-30336,46	1024,00
-30248,76	907,00
-30161,42	944,00
-30074,44	1094,00
-29987,81	1092,00
-29901,55	995,00
-29815,63	948,00
-29730,07	1026,00
-29644,86	921,00
-29560,00	1031,00
-29475,48	895,00
-29391,30	955,00
-29307,47	870,00
-29223,97	1103,00
-29140,81	1023,00
-29057,99	1071,00
-28975,50	1018,00
-28893,34	1152,00
-28811,51	888,00
-28730,00	937,00
-28648,82	987,00
-28567,97	979,00
-28487,43	910,00
-28407,21	1002,00
-28327,32	987,00
-28247,73	1072,00
-28168,46	986,00
-28089,50	965,00
-28010,85	971,00
-27932,51	847,00
-27854,48	1007,00
-27776,75	945,00
-27699,32	957,00
-27622,19	966,00
-27545,37	1028,00
-27468,84	1081,00
-27392,60	1068,00
-27316,66	979,00
-27241,01	1060,00
-27165,66	1011,00
-27090,59	895,00
-27015,81	1065,00
-26941,31	1036,00
-26867,10	945,00
-26793,17	1108,00
-26719,52	1062,00
-26646,15	1040,00
-26573,06	980,00
-26500,24	1023,00
-26427,70	923,00
-26355,43	1056,00
-26283,43	981,00
-26211,71	974,00
-26140,25	941,00
-26069,06	1233,00
-25998,13	940,00
-25927,46	972,00
-25857,06	879,00
-25786,92	992,00
-25717,04	914,00
-25647,42	1076,00
-25578,05	848,00
-25508,94	1032,00
-25440,09	958,00
-25371,48	974,00
-25303,13	1015,00
-25235,02	955,00
-25167,17	981,00
-25099,56	1014,00
-25032,19	913,00
-24965,07	871,00
-24898,20	907,00
-24831,56	1032,00
-24765,17	1015,00
-24699,01	980,00
-24633,10	1020,00
-24567,41	1002,00
-24501,97	1142,00
-24436,75	864,00
-24371,77	1044,00
-24307,03	939,00
-24242,51	924,00
-24178,22	967,00
-24114,16	886,00
-24050,32	1131,00
-23986,71	978,00
-23923,32	929,00
-23860,16	821,00
-23797,22	981,00
-23734,50	1012,00
-23672,00	934,00
-23609,71	1047,00
-23547,65	882,00
-23485,80	1018,00
-23424,16	886,00
-23362,74	965,00
-23301,53	1034,00
-23240,54	945,00
-23179,75	946,00
-23119,17	1013,00
-23058,80	983,00
-22998,64	996,00
-22938,68	896,00
-22878,93	1017,00
-22819,39	1017,00
-22760,04	904,00
-22700,90	1026,00
-22641,96	912,00
-22583,22	964,00
-22524,68	979,00
-22466,33	935,00
-22408,19	939,00
-22350,23	933,00
-22292,48	906,00
-22234,92	1050,00
-22177,55	1220,00
-22120,37	1246,00
-22063,38	1072,00
-22006,58	1004,00
-21949,98	864,00
-21893,56	843,00
-21837,33	951,00
-21781,28	1101,00
-21725,42	971,00
-21669,74	1042,00
-21614,25	933,00
-21558,94	1012,00
-21503,81	1082,00
-21448,86	1063,00
-21394,10	989,00
-21339,51	865,00
-21285,10	902,00
-21230,86	810,00
-21176,81	950,00
-21122,93	919,00
-21069,22	1058,00
-21015,69	859,00
-20962,33	883,00
-20909,14	954,00
-20856,13	1027,00
-20803,28	1004,00
-20750,61	922,00
-20698,10	946,00
-20645,76	834,00
-20593,59	1026,00
-20541,59	1022,00
-20489,75	903,00
-20438,07	899,00
-20386,56	1017,00
-20335,22	950,00
-20284,03	823,00
-20233,01	857,00
-20182,15	941,00
-20131,45	1002,00
-20080,91	979,00
-20030,52	865,00
-19980,30	863,00
-19930,23	911,00
-19880,32	1067,00
-19830,56	960,00
-19780,96	940,00
-19731,52	921,00
-19682,23	992,00
-19633,09	929,00
-19584,10	972,00
-19535,26	921,00
-19486,58	1040,00
-19438,04	1063,00
-19389,66	896,00
-19341,42	727,00
-19293,33	956,00
-19245,39	1023,00
-19197,60	981,00
-19149,95	1079,00
-19102,45	998,00
-19055,09	977,00
-19007,87	926,00
-18960,80	930,00
-18913,87	1086,00
-18867,09	935,00
-18820,44	917,00
-18773,94	925,00
-18727,57	958,00
-18681,35	912,00
-18635,26	963,00
-18589,31	791,00
-18543,50	888,00
-18497,83	937,00
-18452,29	931,00
-18406,89	858,00
-18361,63	1063,00
-18316,50	905,00
-18271,50	978,00
-18226,63	1012,00
-18181,90	969,00
-18137,30	973,00
-18092,84	991,00
-18048,50	976,00
-18004,29	877,00
-17960,22	992,00
-17916,27	963,00
-17872,45	982,00
-17828,76	966,00
-17785,20	986,00
-17741,77	941,00
-17698,46	1066,00
-17655,28	919,00
-17612,22	897,00
-17569,29	977,00
-17526,48	936,00
-17483,79	891,00
-17441,23	1026,00
-17398,79	878,00
-17356,48	858,00
-17314,28	1094,00
-17272,21	964,00
-17230,26	945,00
-17188,42	985,00
-17146,71	958,00
-17105,12	1018,00
-17063,64	994,00
-17022,28	770,00
-16981,04	934,00
-16939,92	1024,00
-16898,91	1014,00
-16858,02	935,00
-16817,25	987,00
-16776,59	895,00
-16736,04	1005,00
-16695,61	949,00
-16655,29	929,00
-16615,09	979,00
-16574,99	976,00
-16535,01	887,00
-16495,15	1002,00
-16455,39	880,00
-16415,74	975,00
-16376,21	935,00
-16336,78	773,00
-16297,46	846,00
-16258,26	977,00
-16219,16	805,00
-16180,17	913,00
-16141,28	1027,00
-16102,51	949,00
-16063,84	959,00
-16025,27	965,00
-15986,82	850,00
-15948,46	922,00
-15910,22	899,00
-15872,07	916,00
-15834,04	952,00
-15796,10	934,00
-15758,27	1113,00
-15720,54	1014,00
-15682,91	945,00
-15645,39	1023,00
-15607,97	964,00
-15570,64	947,00
-15533,42	1034,00
-15496,30	925,00
-15459,28	1126,00
-15422,36	827,00
-15385,54	837,00
-15348,82	968,00
-15312,19	993,00
-15275,66	991,00
-15239,23	977,00
-15202,90	1001,00
-15166,67	781,00
-15130,53	922,00
-15094,48	939,00
-15058,54	992,00
-15022,68	907,00
-14986,93	835,00
-14951,26	944,00
-14915,69	939,00
-14880,22	987,00
-14844,84	900,00
-14809,55	931,00
-14774,35	976,00
-14739,25	1002,00
-14704,24	889,00
-14669,32	852,00
-14634,49	879,00
-14599,75	952,00
-14565,10	913,00
-14530,55	1079,00
-14496,08	975,00
-14461,70	951,00
-14427,41	861,00
-14393,21	872,00
-14359,10	910,00
-14325,07	1022,00
-14291,14	917,00
-14257,29	968,00
-14223,52	1017,00
-14189,85	1076,00
-14156,26	911,00
-14122,76	945,00
-14089,34	896,00
-14056,01	943,00
-14022,76	963,00
-13989,60	869,00
-13956,52	909,00
-13923,53	904,00
-13890,62	1026,00
-13857,79	905,00
-13825,05	874,00
-13792,39	878,00
-13759,81	1008,00
-13727,31	935,00
-13694,90	890,00
-13662,57	1039,00
-13630,31	992,00
-13598,14	930,00
-13566,05	902,00
-13534,05	979,00
-13502,12	887,00
-13470,27	961,00
-13438,50	982,00
-13406,80	928,00
-13375,19	970,00
-13343,66	947,00
-13312,20	993,00
-13280,83	957,00
-13249,53	937,00
-13218,30	910,00
-13187,16	842,00
-13156,09	1052,00
-13125,10	1007,00
-13094,18	962,00
-13063,34	1077,00
-13032,58	772,00
-13001,89	949,00
-12971,28	1026,00
-12940,74	945,00
-12910,27	957,00
-12879,88	1004,00
-12849,57	1007,00
-12819,33	1028,00
-12789,16	927,00
-12759,06	1018,00
-12729,04	1000,00
-12699,09	3072,00
-12669,21	843,00
-12639,41	980,00
-12609,68	904,00
-12580,02	938,00
-12550,43	1083,00
-12520,91	889,00
-12491,46	919,00
-12462,08	978,00
-12432,77	985,00
-12403,54	978,00
-12374,37	998,00
-12345,27	970,00
-12316,24	888,00
-12287,29	903,00
-12258,40	856,00
-12229,57	887,00
-12200,82	919,00
-12172,14	899,00
-12143,52	833,00
-12114,97	972,00
-12086,49	1045,00
-12058,07	1008,00
-12029,73	930,00
-12001,44	1142,00
-11973,23	1029,00
-11945,08	1038,00
-11917,00	1086,00
-11888,98	961,00
-11861,03	980,00
-11833,15	1034,00
-11805,32	981,00
-11777,57	971,00
-11749,88	1020,00
-11722,25	820,00
-11694,69	834,00
-11667,19	925,00
-11639,75	1151,00
-11612,38	985,00
-11585,07	1003,00
-11557,83	1044,00
-11530,65	1037,00
-11503,53	1014,00
-11476,47	960,00
-11449,48	806,00
-11422,54	997,00
-11395,67	966,00
-11368,86	971,00
-11342,11	922,00
-11315,43	961,00
-11288,80	816,00
-11262,23	1099,00
-11235,73	944,00
-11209,28	1020,00
-11182,90	1074,00
-11156,57	949,00
-11130,31	1072,00
-11104,10	1018,00
-11077,96	934,00
-11051,87	926,00
-11025,84	1067,00
-10999,87	937,00
-10973,96	954,00
-10948,11	938,00
-10922,31	1067,00
-10896,58	996,00
-10870,90	1137,00
-10845,28	974,00
-10819,71	913,00
-10794,20	1108,00
-10768,75	1087,00
-10743,36	1001,00
-10718,02	906,00
-10692,74	1015,00
-10667,52	919,00
-10642,35	1080,00
-10617,24	1078,00
-10592,18	1143,00
-10567,18	978,00
-10542,23	1116,00
-10517,34	1157,00
-10492,51	1127,00
-10467,72	1001,00
-10443,00	1083,00
-10418,32	1117,00
-10393,70	1056,00
-10369,14	1091,00
-10344,63	1080,00
-10320,17	1225,00
-10295,77	1176,00
-10271,42	1274,00
-10247,12	1304,00
-10222,88	1316,00
-10198,68	1133,00
-10174,54	1252,00
-10150,46	1398,00
-10126,42	1340,00
-10102,44	1460,00
-10078,51	1356,00
-10054,63	1604,00
-10030,80	1461,00
-10007,03	1611,00
-9983,30	1544,00
-9959,63	1508,00
-9936,01	1660,00
-9912,44	1527,00
-9888,92	1592,00
-9865,44	1631,00
-9842,02	1734,00
-9818,65	1790,00
-9795,33	1640,00
-9772,06	1727,00
-9748,84	1791,00
-9725,67	2001,00
-9702,55	2108,00
-9679,47	2481,00
-9656,45	2591,00
-9633,47	2478,00
-9610,55	2615,00
-9587,67	2624,00
-9564,84	2934,00
-9542,06	3001,00
-9519,32	3363,00
-9496,64	3507,00
-9474,00	3588,00
-9451,41	3782,00
-9428,87	3770,00
-9406,37	3581,00
-9383,92	3290,00
-9361,52	3302,00
-9339,17	3319,00
-9316,86	3463,00
-9294,60	3863,00
-9272,38	4435,00
-9250,21	4593,00
-9228,09	4590,00
-9206,01	4631,00
-9183,98	4005,00
-9162,00	3699,00
-9140,06	3416,00
-9118,16	3388,00
-9096,31	3578,00
-9074,51	3604,00
-9052,75	3864,00
-9031,04	3670,00
-9009,37	3294,00
-8987,74	3045,00
-8966,16	2788,00
-8944,63	2710,00
-8923,14	2634,00
-8901,69	2644,00
-8880,29	2780,00
-8858,93	3038,00
-8837,61	3155,00
-8816,34	3440,00
-8795,11	3394,00
-8773,92	3333,00
-8752,78	2959,00
-8731,68	2784,00
-8710,62	2958,00
-8689,61	2964,00
-8668,63	3137,00
-8647,70	3395,00
-8626,82	3308,00
-8605,97	3328,00
-8585,17	3149,00
-8564,41	2942,00
-8543,69	2670,00
-8523,01	2582,00
-8502,37	2830,00
-8481,78	2706,00
-8461,23	2720,00
-8440,71	3112,00
-8420,24	3116,00
-8399,81	3265,00
-8379,42	3170,00
-8359,08	3098,00
-8338,77	2836,00
-8318,50	2517,00
-8298,27	2538,00
-8278,09	2624,00
-8257,94	2743,00
-8237,83	2981,00
-8217,76	2931,00
-8197,74	2970,00
-8177,75	3203,00
-8157,80	2810,00
-8137,89	2655,00
-8118,02	2648,00
-8098,19	2732,00
-8078,40	2691,00
-8058,65	2796,00
-8038,93	2843,00
-8019,26	2745,00
-7999,62	2826,00
-7980,02	2554,00
-7960,46	2521,00
-7940,94	2526,00
-7921,46	2569,00
-7902,01	2464,00
-7882,60	2534,00
-7863,23	2456,00
-7843,90	2607,00
-7824,61	2554,00
-7805,35	2896,00
-7786,13	2789,00
-7766,95	2909,00
-7747,80	2744,00
-7728,69	2758,00
-7709,62	2435,00
-7690,59	2701,00
-7671,59	2719,00
-7652,63	2877,00
-7633,70	2888,00
-7614,81	2946,00
-7595,96	2590,00
-7577,15	2543,00
-7558,37	2523,00
-7539,62	2695,00
-7520,91	2677,00
-7502,24	2793,00
-7483,60	2851,00
-7465,00	2769,00
-7446,44	2490,00
-7427,91	2249,00
-7409,41	2233,00
-7390,95	2039,00
-7372,53	2128,00
-7354,14	1984,00
-7335,78	2139,00
-7317,46	2111,00
-7299,18	2286,00
-7280,92	2459,00
-7262,71	2904,00
-7244,52	2799,00
-7226,38	2875,00
-7208,26	2931,00
-7190,18	2565,00
-7172,14	2532,00
-7154,12	2480,00
-7136,15	2542,00
-7118,20	2701,00
-7100,29	2883,00
-7082,41	2762,00
-7064,57	2662,00
-7046,76	2557,00
-7028,98	2457,00
-7011,24	2415,00
-6993,53	1938,00
-6975,85	1908,00
-6958,20	1760,00
-6940,59	1920,00
-6923,01	1743,00
-6905,46	1894,00
-6887,94	2111,00
-6870,46	2804,00
-6853,01	2676,00
-6835,59	2678,00
-6818,21	2375,00
-6800,85	2241,00
-6783,53	1915,00
-6766,24	1732,00
-6748,98	1589,00
-6731,76	1621,00
-6714,56	1687,00
-6697,40	1484,00
-6680,26	1501,00
-6663,16	1737,00
-6646,09	1984,00
-6629,05	2111,00
-6612,05	2186,00
-6595,07	2230,00
-6578,13	2216,00
-6561,21	1877,00
-6544,33	1809,00
-6527,47	1421,00
-6510,65	1541,00
-6493,86	1441,00
-6477,10	1486,00
-6460,36	1550,00
-6443,66	1491,00
-6426,99	1430,00
-6410,35	1556,00
-6393,74	1605,00
-6377,16	1677,00
-6360,61	1771,00
-6344,09	1792,00
-6327,59	1735,00
-6311,13	1785,00
-6294,70	1906,00
-6278,29	1991,00
-6261,92	1927,00
-6245,58	2196,00
-6229,26	2139,00
-6212,97	2045,00
-6196,72	1886,00
-6180,49	1558,00
-6164,29	1428,00
-6148,12	1445,00
-6131,98	1231,00
-6115,86	1223,00
-6099,78	1170,00
-6083,72	1180,00
-6067,69	1089,00
-6051,69	1075,00
-6035,72	1189,00
-6019,78	1367,00
-6003,87	1574,00
-5987,98	1712,00
-5972,12	1767,00
-5956,29	1858,00
-5940,49	1676,00
-5924,71	1659,00
-5908,96	1320,00
-5893,24	1325,00
-5877,55	1339,00
-5861,89	1358,00
-5846,25	1285,00
-5830,64	1429,00
-5815,05	1301,00
-5799,50	1250,00
-5783,97	1338,00
-5768,47	1483,00
-5752,99	1655,00
-5737,55	1629,00
-5722,12	1868,00
-5706,73	1822,00
-5691,36	1703,00
-5676,02	1511,00
-5660,71	1404,00
-5645,42	1229,00
-5630,16	1398,00
-5614,92	1547,00
-5599,71	1585,00
-5584,53	1573,00
-5569,37	1598,00
-5554,24	1751,00
-5539,14	1356,00
-5524,06	1402,00
-5509,01	1463,00
-5493,98	1448,00
-5478,98	1546,00
-5464,00	1432,00
-5449,05	1415,00
-5434,13	1284,00
-5419,23	1331,00
-5404,36	1342,00
-5389,51	1448,00
-5374,69	1700,00
-5359,89	2018,00
-5345,12	1978,00
-5330,37	2070,00
-5315,65	1718,00
-5300,95	1623,00
-5286,28	1421,00
-5271,63	1436,00
-5257,01	1465,00
-5242,41	1469,00
-5227,84	1410,00
-5213,29	1367,00
-5198,76	1268,00
-5184,26	1181,00
-5169,79	1315,00
-5155,33	1520,00
-5140,91	1488,00
-5126,51	1662,00
-5112,13	1507,00
-5097,77	1590,00
-5083,44	1445,00
-5069,13	1254,00
-5054,85	1265,00
-5040,59	1341,00
-5026,36	1448,00
-5012,15	1647,00
-4997,96	1567,00
-4983,80	1409,00
-4969,66	1204,00
-4955,54	1159,00
-4941,44	1409,00
-4927,37	1621,00
-4913,33	1831,00
-4899,30	2003,00
-4885,30	1928,00
-4871,33	1624,00
-4857,37	1401,00
-4843,44	1192,00
-4829,53	1266,00
-4815,65	1455,00
-4801,79	1341,00
-4787,95	1396,00
-4774,13	1226,00
-4760,34	1190,00
-4746,56	1169,00
-4732,82	1211,00
-4719,09	1394,00
-4705,38	1666,00
-4691,70	1918,00
-4678,04	1884,00
-4664,41	1653,00
-4650,79	1602,00
-4637,20	1324,00
-4623,63	1327,00
-4610,08	1440,00
-4596,56	1635,00
-4583,05	1512,00
-4569,57	1422,00
-4556,11	1367,00
-4542,67	1150,00
-4529,25	1167,00
-4515,86	1465,00
-4502,49	1781,00
-4489,13	1771,00
-4475,80	1587,00
-4462,49	1336,00
-4449,21	1350,00
-4435,94	1185,00
-4422,70	1303,00
-4409,47	1290,00
-4396,27	1434,00
-4383,09	1438,00
-4369,93	1143,00
-4356,79	1068,00
-4343,67	1163,00
-4330,58	1267,00
-4317,50	1404,00
-4304,45	1401,00
-4291,41	1206,00
-4278,40	1030,00
-4265,41	993,00
-4252,44	1279,00
-4239,49	1313,00
-4226,55	1556,00
-4213,65	1361,00
-4200,76	1095,00
-4187,89	989,00
-4175,04	1032,00
-4162,21	1191,00
-4149,40	1126,00
-4136,61	1131,00
-4123,85	989,00
-4111,10	1109,00
-4098,37	1025,00
-4085,66	1050,00
-4072,98	1081,00
-4060,31	1073,00
-4047,66	1237,00
-4035,04	1247,00
-4022,43	1112,00
-4009,84	1170,00
-3997,27	942,00
-3984,72	923,00
-3972,19	1132,00
-3959,69	980,00
-3947,20	964,00
-3934,73	904,00
-3922,27	909,00
-3909,84	1000,00
-3897,43	928,00
-3885,04	1105,00
-3872,67	893,00
-3860,31	1008,00
-3847,98	1059,00
-3835,66	845,00
-3823,36	1035,00
-3811,09	883,00
-3798,83	1050,00
-3786,59	900,00
-3774,37	1088,00
-3762,17	854,00
-3749,98	971,00
-3737,82	898,00
-3725,67	1080,00
-3713,55	959,00
-3701,44	897,00
-3689,35	1108,00
-3677,28	1140,00
-3665,22	1054,00
-3653,19	1004,00
-3641,17	943,00
-3629,18	1004,00
-3617,20	993,00
-3605,24	1080,00
-3593,30	982,00
-3581,37	1008,00
-3569,47	1123,00
-3557,58	1041,00
-3545,71	1043,00
-3533,86	1114,00
-3522,02	999,00
-3510,21	992,00
-3498,41	966,00
-3486,63	1023,00
-3474,87	1054,00
-3463,12	975,00
-3451,40	915,00
-3439,69	920,00
-3428,00	1023,00
-3416,33	1128,00
-3404,67	858,00
-3393,03	978,00
-3381,41	1006,00
-3369,81	952,00
-3358,22	832,00
-3346,66	1145,00
-3335,10	1061,00
-3323,57	968,00
-3312,06	1115,00
-3300,56	932,00
-3289,08	910,00
-3277,61	949,00
-3266,16	996,00
-3254,73	1120,00
-3243,32	975,00
-3231,92	967,00
-3220,55	1060,00
-3209,18	1040,00
-3197,84	910,00
-3186,51	843,00
-3175,20	945,00
-3163,90	960,00
-3152,63	1064,00
-3141,36	998,00
-3130,12	1055,00
-3118,89	1082,00
-3107,68	1054,00
-3096,49	936,00
-3085,31	987,00
-3074,15	943,00
-3063,00	983,00
-3051,87	949,00
-3040,76	962,00
-3029,67	1016,00
-3018,59	1222,00
-3007,52	1084,00
-2996,48	1023,00
-2985,44	885,00
-2974,43	1083,00
-2963,43	877,00
-2952,45	856,00
-2941,48	990,00
-2930,53	1022,00
-2919,60	984,00
-2908,68	1018,00
-2897,78	972,00
-2886,89	1055,00
-2876,02	983,00
-2865,17	931,00
-2854,33	883,00
-2843,50	1000,00
-2832,70	1058,00
-2821,90	1044,00
-2811,13	941,00
-2800,37	905,00
-2789,62	1118,00
-2778,89	1032,00
-2768,18	953,00
-2757,48	947,00
-2746,80	1049,00
-2736,13	970,00
-2725,48	1033,00
-2714,84	982,00
-2704,22	1004,00
-2693,61	911,00
-2683,02	1024,00
-2672,45	982,00
-2661,89	1045,00
-2651,34	1090,00
-2640,81	967,00
-2630,30	1166,00
-2619,80	976,00
-2609,31	1130,00
-2598,84	804,00
-2588,39	944,00
-2577,95	931,00
-2567,52	901,00
-2557,11	915,00
-2546,71	1105,00
-2536,33	1072,00
-2525,97	1021,00
-2515,62	932,00
-2505,28	1038,00
-2494,96	941,00
-2484,65	1083,00
-2474,36	961,00
-2464,08	1019,00
-2453,82	1000,00
-2443,57	919,00
-2433,33	953,00
-2423,11	946,00
-2412,91	1064,00
-2402,72	957,00
-2392,54	1021,00
-2382,38	952,00
-2372,23	1041,00
-2362,09	1709,00
-2351,97	945,00
-2341,87	901,00
-2331,78	967,00
-2321,70	1061,00
-2311,64	978,00
-2301,59	848,00
-2291,55	920,00
-2281,53	1006,00
-2271,53	895,00
-2261,53	955,00
-2251,55	965,00
-2241,59	1049,00
-2231,64	1087,00
-2221,70	1023,00
-2211,78	1077,00
-2201,87	1088,00
-2191,97	1036,00
-2182,09	964,00
-2172,22	1000,00
-2162,37	891,00
-2152,53	975,00
-2142,70	919,00
-2132,89	938,00
-2123,09	1061,00
-2113,30	965,00
-2103,53	936,00
-2093,77	1062,00
-2084,02	904,00
-2074,29	1167,00
-2064,57	1065,00
-2054,86	996,00
-2045,17	1059,00
-2035,49	1058,00
-2025,82	869,00
-2016,17	920,00
-2006,53	901,00
-1996,91	961,00
-1987,29	926,00
-1977,69	1071,00
-1968,11	957,00
-1958,53	1068,00
-1948,97	987,00
-1939,42	861,00
-1929,89	868,00
-1920,37	961,00
-1910,86	1036,00
-1901,36	1003,00
-1891,88	1051,00
-1882,41	1016,00
-1872,95	974,00
-1863,51	900,00
-1854,08	1069,00
-1844,66	1018,00
-1835,26	994,00
-1825,86	1002,00
-1816,48	933,00
-1807,11	956,00
-1797,76	1087,00
-1788,42	997,00
-1779,09	1151,00
-1769,77	996,00
-1760,47	1216,00
-1751,17	964,00
-1741,89	779,00
-1732,63	1073,00
-1723,37	1161,00
-1714,13	1080,00
-1704,90	976,00
-1695,68	1063,00
-1686,48	940,00
-1677,29	965,00
-1668,11	1302,00
-1658,94	965,00
-1649,78	988,00
-1640,64	935,00
-1631,51	1016,00
-1622,39	971,00
-1613,28	1013,00
-1604,19	1068,00
-1595,10	957,00
-1586,03	1025,00
-1576,97	971,00
-1567,93	964,00
-1558,89	1087,00
-1549,87	1091,00
-1540,86	928,00
-1531,86	1053,00
-1522,87	1041,00
-1513,90	1081,00
-1504,93	1080,00
-1495,98	996,00
-1487,04	1025,00
-1478,12	925,00
-1469,20	918,00
-1460,30	1093,00
-1451,40	1111,00
-1442,52	972,00
-1433,65	992,00
-1424,80	1032,00
-1415,95	920,00
-1407,12	1311,00
-1398,30	980,00
-1389,48	894,00
-1380,69	1039,00
-1371,90	957,00
-1363,12	976,00
-1354,36	1083,00
-1345,60	991,00
-1336,86	1044,00
-1328,13	1137,00
-1319,41	931,00
-1310,70	924,00
-1302,01	994,00
-1293,32	1045,00
-1284,65	946,00
-1275,99	1078,00
-1267,33	932,00
-1258,69	1013,00
-1250,06	1000,00
-1241,45	903,00
-1232,84	1052,00
-1224,25	1177,00
-1215,66	1074,00
-1207,09	1149,00
-1198,53	1044,00
-1189,97	934,00
-1181,43	940,00
-1172,91	1149,00
-1164,39	1110,00
-1155,88	897,00
-1147,38	1000,00
-1138,90	971,00
-1130,43	968,00
-1121,96	1056,00
-1113,51	999,00
-1105,07	926,00
-1096,64	945,00
-1088,22	983,00
-1079,81	1042,00
-1071,41	1049,00
-1063,02	918,00
-1054,65	1078,00
-1046,28	960,00
-1037,92	989,00
-1029,58	990,00
-1021,24	930,00
-1012,92	1254,00
-1004,61	1033,00
-996,30	1213,00
-988,01	840,00
-979,73	911,00
-971,46	1065,00
-963,20	934,00
-954,95	929,00
-946,71	987,00
-938,48	921,00
-930,26	904,00
-922,06	1023,00
-913,86	1025,00
-905,67	892,00
-897,49	1079,00
-889,33	833,00
-881,17	1039,00
-873,02	1059,00
-864,89	924,00
-856,76	972,00
-848,65	1036,00
-840,54	1017,00
-832,45	1109,00
-824,36	815,00
-816,29	1085,00
-808,22	1102,00
-800,17	978,00
-792,12	992,00
-784,09	1221,00
-776,06	1018,00
-768,05	938,00
-760,04	946,00
-752,05	958,00
-744,07	993,00
-736,09	1113,00
-728,13	898,00
-720,17	985,00
-712,23	884,00
-704,29	1071,00
-696,37	1040,00
-688,45	1023,00
-680,55	1052,00
-672,65	1026,00
-664,77	1004,00
-656,89	933,00
-649,03	1034,00
-641,17	974,00
-633,32	1023,00
-625,49	1026,00
-617,66	959,00
-609,84	982,00
-602,03	854,00
-594,23	979,00
-586,45	999,00
-578,67	1023,00
-570,90	1012,00
-563,14	929,00
-555,39	867,00
-547,65	1108,00
-539,91	1055,00
-532,19	1043,00
-524,48	1116,00
-516,78	924,00
-509,08	1027,00
-501,40	965,00
-493,72	1002,00
-486,06	868,00
-478,40	1177,00
-470,76	1002,00
-463,12	1025,00
-455,49	1012,00
-447,87	905,00
-440,26	953,00
-432,66	981,00
-425,07	1152,00
-417,49	912,00
-409,92	939,00
-402,35	945,00
-394,80	904,00
-387,25	1110,00
-379,72	1056,00
-372,19	1007,00
-364,67	1019,00
-357,17	965,00
-349,67	1027,00
-342,18	1010,00
-334,69	1110,00
-327,22	980,00
-319,76	1099,00
-312,30	1010,00
-304,86	1035,00
-297,42	1023,00
-290,00	1074,00
-282,58	1083,00
-275,17	1040,00
-267,77	1161,00
-260,37	1074,00
-252,99	1023,00
-245,62	1107,00
-238,25	961,00
-230,90	1005,00
-223,55	1106,00
-216,21	1084,00
-208,88	1261,00
-201,56	1226,00
-194,25	1152,00
-186,94	1224,00
-179,65	1197,00
-172,36	1334,00
-165,08	1280,00
-157,81	1297,00
-150,55	1416,00
-143,30	1347,00
-136,06	1410,00
-128,82	1484,00
-121,60	1519,00
-114,38	1664,00
-107,17	1884,00
-99,97	1884,00
-92,78	1897,00
-85,60	2072,00
-78,42	2331,00
-71,25	2529,00
-64,10	2599,00
-56,95	3129,00
-49,81	3335,00
-42,67	3998,00
-35,55	4641,00
-28,43	5858,00
-21,33	9395,00
-14,23	28624,00
-7,14	57727,00
-0,05	57480,00
7,02	57283,00
14,09	57420,00
21,14	25306,00
28,19	10983,00
35,23	7136,00
42,27	5684,00
49,29	4813,00
56,31	4206,00
63,32	3807,00
70,32	3109,00
77,31	2988,00
84,29	2508,00
91,27	2460,00
98,23	2336,00
105,19	2119,00
112,14	2153,00
119,09	2542,00
126,02	3073,00
132,95	3074,00
139,87	3098,00
146,78	3221,00
153,68	3083,00
160,58	2862,00
167,46	2892,00
174,34	2857,00
181,21	2780,00
188,08	2819,00
194,93	2810,00
201,78	2787,00
208,62	2689,00
215,45	2738,00
222,27	2771,00
229,09	2791,00
235,90	2681,00
242,70	2700,00
249,49	2830,00
256,27	2674,00
263,05	2811,00
269,82	2429,00
276,58	2695,00
283,33	2521,00
290,08	2533,00
296,82	2388,00
303,55	2385,00
310,27	2462,00
316,98	2481,00
323,69	2377,00
330,39	2267,00
337,08	2419,00
343,76	2475,00
350,44	2368,00
357,11	2464,00
363,77	2357,00
370,42	2306,00
377,07	2377,00
383,71	2294,00
390,34	2366,00
396,96	2208,00
403,58	2232,00
410,19	2332,00
416,79	2430,00
423,38	2358,00
429,97	2327,00
436,55	2173,00
443,12	2150,00
449,68	2199,00
456,24	2146,00
462,79	2140,00
469,33	2268,00
475,86	2106,00
482,39	2057,00
488,91	2177,00
495,42	2065,00
501,93	2075,00
508,42	1960,00
514,91	2169,00
521,40	2006,00
527,87	2000,00
534,34	1943,00
540,80	2074,00
547,25	2158,00
553,70	1951,00
560,14	1976,00
566,57	2033,00
573,00	1946,00
579,41	2012,00
585,83	1986,00
592,23	2095,00
598,62	1929,00
605,01	1868,00
611,40	1905,00
617,77	1953,00
624,14	1956,00
630,50	1977,00
636,85	1955,00
643,20	1951,00
649,54	1839,00
655,87	1819,00
662,20	1853,00
668,52	2004,00
674,83	1967,00
681,13	1937,00
687,43	2042,00
693,72	1847,00
700,00	1855,00
706,28	1967,00
712,55	1823,00
718,81	2043,00
725,07	1904,00
731,32	1697,00
737,56	1874,00
743,79	1773,00
750,02	1891,00
756,24	1714,00
762,46	1811,00
768,67	2068,00
774,87	1921,00
781,06	1736,00
787,25	1892,00
793,43	1847,00
799,60	1809,00
805,77	1853,00
811,93	1887,00
818,08	1805,00
824,23	1767,00
830,37	1990,00
836,50	1858,00
842,63	1851,00
848,75	1844,00
854,87	1761,00
860,97	1898,00
867,07	1841,00
873,17	1945,00
879,25	1857,00
885,33	1901,00
891,41	1851,00
897,47	1946,00
903,53	1857,00
909,59	1890,00
915,63	1925,00
921,67	1915,00
927,71	1831,00
933,74	1885,00
939,76	1648,00
945,77	1646,00
951,78	1813,00
957,78	1600,00
963,78	1760,00
969,77	1633,00
975,75	1696,00
981,72	1760,00
987,69	3213,00
993,66	1829,00
999,61	1853,00
1005,56	1676,00
1011,51	1767,00
1017,44	1684,00
1023,37	1776,00
1029,30	1805,00
1035,22	1709,00
1041,13	1668,00
1047,03	1780,00
1052,93	1852,00
1058,83	2001,00
1064,71	2111,00
1070,59	2112,00
1076,47	1924,00
1082,33	1803,00
1088,20	1819,00
1094,05	1809,00
1099,90	1713,00
1105,74	1726,00
1111,58	1705,00
1117,41	1743,00
1123,23	2151,00
1129,05	2160,00
1134,86	2124,00
1140,67	1791,00
1146,47	1775,00
1152,26	1681,00
1158,05	1652,00
1163,83	1664,00
1169,60	1673,00
1175,37	1716,00
1181,13	1708,00
1186,89	1674,00
1192,64	1646,00
1198,38	1685,00
1204,12	1614,00
1209,85	1560,00
1215,58	1801,00
1221,30	1777,00
1227,02	1638,00
1232,72	1700,00
1238,43	1577,00
1244,12	1624,00
1249,81	1586,00
1255,50	1858,00
1261,17	1686,00
1266,85	1675,00
1272,51	1579,00
1278,17	1782,00
1283,83	1731,00
1289,47	2003,00
1295,12	2418,00
1300,75	2322,00
1306,38	2159,00
1312,01	1923,00
1317,63	1868,00
1323,24	1814,00
1328,85	1905,00
1334,45	1769,00
1340,04	1750,00
1345,63	1619,00
1351,22	1872,00
1356,80	1713,00
1362,37	1858,00
1367,93	1656,00
1373,49	1930,00
1379,05	1754,00
1384,60	1742,00
1390,14	1737,00
1395,68	1899,00
1401,21	1851,00
1406,74	1714,00
1412,26	1714,00
1417,77	2024,00
1423,28	1911,00
1428,78	2185,00
1434,28	2387,00
1439,77	2446,00
1445,26	2380,00
1450,74	2530,00
1456,22	2299,00
1461,68	2266,00
1467,15	2140,00
1472,61	2006,00
1478,06	2157,00
1483,51	1869,00
1488,95	1644,00
1494,38	1848,00
1499,81	1523,00
1505,24	1634,00
1510,65	1754,00
1516,07	1716,00
1521,48	1665,00
1526,88	1540,00
1532,27	1444,00
1537,67	1583,00
1543,05	1643,00
1548,43	1526,00
1553,81	1572,00
1559,18	1559,00
1564,54	1541,00
1569,90	1570,00
1575,25	1496,00
1580,60	1558,00
1585,94	1658,00
1591,28	1575,00
1596,61	1362,00
1601,93	1433,00
1607,25	1638,00
1612,57	1541,00
1617,88	1566,00
1623,18	1575,00
1628,48	1516,00
1633,77	1531,00
1639,06	1676,00
1644,34	1454,00
1649,62	1491,00
1654,89	1566,00
1660,16	1361,00
1665,42	1595,00
1670,67	1471,00
1675,92	1457,00
1681,17	1345,00
1686,41	1360,00
1691,64	1636,00
1696,87	1558,00
1702,10	1431,00
1707,32	1442,00
1712,53	1445,00
1717,74	1464,00
1722,94	1425,00
1728,14	1427,00
1733,33	1337,00
1738,52	1306,00
1743,70	1481,00
1748,88	1339,00
1754,05	1504,00
1759,22	1410,00
1764,38	1848,00
1769,53	1345,00
1774,69	1485,00
1779,83	1407,00
1784,97	1453,00
1790,11	1417,00
1795,24	1403,00
1800,36	1403,00
1805,48	1441,00
1810,60	1260,00
1815,71	1346,00
1820,82	1399,00
1825,92	1464,00
1831,01	1299,00
1836,10	1299,00
1841,19	1312,00
1846,26	1318,00
1851,34	1324,00
1856,41	1422,00
1861,47	1304,00
1866,53	1428,00
1871,59	1337,00
1876,64	1287,00
1881,68	1426,00
1886,72	1400,00
1891,76	1306,00
1896,79	1309,00
1901,81	1267,00
1906,83	1436,00
1911,85	1221,00
1916,86	1295,00
1921,86	1244,00
1926,86	1289,00
1931,86	1146,00
1936,85	1217,00
1941,83	1241,00
1946,81	1227,00
1951,79	1266,00
1956,76	1246,00
1961,72	1168,00
1966,68	1195,00
1971,64	1161,00
1976,59	1251,00
1981,54	1252,00
1986,48	1272,00
1991,42	1095,00
1996,35	1481,00
2001,27	1185,00
2006,20	1148,00
2011,11	1255,00
2016,03	1200,00
2020,93	1176,00
2025,84	1276,00
2030,73	1203,00
2035,63	1118,00
2040,52	1314,00
2045,40	1108,00
2050,28	1239,00
2055,15	1322,00
2060,02	1099,00
2064,89	1375,00
2069,75	1214,00
2074,60	1172,00
2079,46	1151,00
2084,30	1252,00
2089,14	1201,00
2093,98	1307,00
2098,81	1205,00
2103,64	1192,00
2108,46	1230,00
2113,28	1161,00
2118,09	1170,00
2122,90	1183,00
2127,70	1085,00
2132,50	1280,00
2137,30	1169,00
2142,09	1129,00
2146,87	1054,00
2151,66	1142,00
2156,43	1277,00
2161,20	1141,00
2165,97	1223,00
2170,73	1186,00
2175,49	1269,00
2180,24	1177,00
2184,99	1280,00
2189,74	1325,00
2194,48	1170,00
2199,21	1297,00
2203,94	1137,00
2208,67	1185,00
2213,39	1165,00
2218,11	1173,00
2222,82	1154,00
2227,53	1054,00
2232,23	1196,00
2236,93	1136,00
2241,63	1294,00
2246,32	1183,00
2251,00	1112,00
2255,68	1283,00
2260,36	1196,00
2265,03	1173,00
2269,70	1266,00
2274,36	1123,00
2279,02	1230,00
2283,68	1180,00
2288,33	1134,00
2292,97	1167,00
2297,61	1078,00
2302,25	1095,00
2306,88	1066,00
2311,51	1020,00
2316,14	1178,00
2320,75	1046,00
2325,37	1114,00
2329,98	1171,00
2334,59	961,00
2339,19	1066,00
2343,79	1012,00
2348,38	1154,00
2352,97	1084,00
2357,55	1153,00
2362,13	1115,00
2366,71	1192,00
2371,28	1245,00
2375,85	1154,00
2380,41	1218,00
2384,97	1226,00
2389,52	1125,00
2394,07	1179,00
2398,62	1185,00
2403,16	1094,00
2407,70	1051,00
2412,23	1079,00
2416,76	1140,00
2421,29	982,00
2425,81	1191,00
2430,32	1180,00
2434,84	906,00
2439,34	1137,00
2443,85	1191,00
2448,35	1170,00
2452,84	1044,00
2457,33	1164,00
2461,82	1052,00
2466,30	1036,00
2470,78	1184,00
2475,25	1099,00
2479,72	1174,00
2484,19	1080,00
2488,65	1163,00
2493,11	959,00
2497,56	1086,00
2502,01	1059,00
2506,46	1288,00
2510,90	1031,00
2515,34	1155,00
2519,77	1149,00
2524,20	1072,00
2528,62	1020,00
2533,04	1045,00
2537,46	951,00
2541,87	951,00
2546,28	1161,00
2550,68	1069,00
2555,08	1192,00
2559,48	1166,00
2563,87	1096,00
2568,26	972,00
2572,64	1068,00
2577,02	1176,00
2581,40	990,00
2585,77	1112,00
2590,14	1054,00
2594,50	955,00
2598,86	1090,00
2603,22	975,00
2607,57	1041,00
2611,92	1136,00
2616,26	1125,00
2620,60	1132,00
2624,94	920,00
2629,27	1166,00
2633,60	1022,00
2637,92	1209,00
2642,24	1217,00
2646,56	1107,00
2650,87	950,00
2655,18	1232,00
2659,48	1030,00
2663,78	1110,00
2668,08	1115,00
2672,37	1094,00
2676,66	1208,00
2680,95	1103,00
2685,23	1104,00
2689,50	1094,00
2693,78	1123,00
2698,05	1078,00
2702,31	1194,00
2706,57	1051,00
2710,83	1190,00
2715,08	1028,00
2719,33	1355,00
2723,58	1183,00
2727,82	1222,00
2732,06	1200,00
2736,29	1179,00
2740,53	1142,00
2744,75	1136,00
2748,97	1233,00
2753,19	1170,00
2757,41	1110,00
2761,62	1294,00
2765,83	1207,00
2770,03	988,00
2774,23	1113,00
2778,43	1075,00
2782,62	1116,00
2786,81	1048,00
2791,00	1101,00
2795,18	1297,00
2799,35	1260,00
2803,53	1254,00
2807,70	1244,00
2811,86	1105,00
2816,03	1310,00
2820,19	1251,00
2824,34	1261,00
2828,49	1259,00
2832,64	1304,00
2836,78	1529,00
2840,92	1664,00
2845,06	1770,00
2849,19	1876,00
2853,32	1892,00
2857,45	2011,00
2861,57	2085,00
2865,69	1811,00
2869,80	1845,00
2873,91	1790,00
2878,02	2067,00
2882,12	2182,00
2886,22	1985,00
2890,32	2100,00
2894,41	2043,00
2898,50	1831,00
2902,58	1805,00
2906,67	1857,00
2910,74	1760,00
2914,82	1617,00
2918,89	1681,00
2922,96	1650,00
2927,02	1502,00
2931,08	1421,00
2935,13	1444,00
2939,19	1472,00
2943,24	1331,00
2947,28	1376,00
2951,32	1188,00
2955,36	1184,00
2959,40	1380,00
2963,43	1332,00
2967,46	1185,00
2971,48	1171,00
2975,50	1208,00
2979,52	1271,00
2983,53	1218,00
2987,54	1081,00
2991,55	1200,00
2995,55	1058,00
2999,55	1040,00
3003,54	1041,00
3007,54	1063,00
3011,53	1048,00
3015,51	1183,00
3019,49	1280,00
3023,47	1058,00
3027,45	1059,00
3031,42	1042,00
3035,39	986,00
3039,35	1003,00
3043,31	1133,00
3047,27	1048,00
3051,22	1150,00
3055,17	987,00
3059,12	987,00
3063,06	994,00
3067,00	904,00
3070,94	1001,00
3074,87	1103,00
3078,80	1041,00
3082,73	968,00
3086,65	1014,00
3090,57	925,00
3094,49	971,00
3098,40	1011,00
3102,31	1096,00
3106,22	1048,00
3110,12	993,00
3114,02	917,00
3117,92	1112,00
3121,81	990,00
3125,70	1003,00
3129,58	976,00
3133,47	910,00
3137,34	968,00
3141,22	974,00
3145,09	1046,00
3148,96	988,00
3152,83	915,00
3156,69	977,00
3160,55	890,00
3164,40	1036,00
3168,26	992,00
3172,10	1147,00
3175,95	997,00
3179,79	1053,00
3183,63	1086,00
3187,47	1066,00
3191,30	912,00
3195,13	1013,00
3198,95	893,00
3202,78	1054,00
3206,60	847,00
3210,41	886,00
3214,23	889,00
3218,03	924,00
3221,84	988,00
3225,64	966,00
3229,44	983,00
3233,24	1009,00
3237,03	1031,00
3240,82	971,00
3244,61	977,00
3248,39	894,00
3252,17	1012,00
3255,95	1103,00
3259,72	1038,00
3263,49	1175,00
3267,26	878,00
3271,03	875,00
3274,79	928,00
3278,54	906,00
3282,30	853,00
3286,05	1040,00
3289,80	1054,00
3293,54	1054,00
3297,29	1007,00
3301,02	976,00
3304,76	1017,00
3308,49	1027,00
3312,22	918,00
3315,95	874,00
3319,67	935,00
3323,39	1163,00
3327,10	1004,00
3330,82	997,00
3334,53	922,00
3338,24	971,00
3341,94	1076,00
3345,64	947,00
3349,34	1013,00
3353,03	1065,00
3356,72	1058,00
3360,41	1079,00
3364,10	956,00
3367,78	997,00
3371,46	965,00
3375,13	978,00
3378,81	1064,00
3382,48	962,00
3386,14	984,00
3389,81	974,00
3393,47	1061,00
3397,12	1014,00
3400,78	984,00
3404,43	1042,00
3408,08	1020,00
3411,72	1015,00
3415,36	1005,00
3419,00	1044,00
3422,64	922,00
3426,27	1029,00
3429,90	887,00
3433,53	959,00
3437,15	933,00
3440,77	804,00
3444,39	952,00
3448,00	971,00
3451,62	1007,00
3455,22	943,00
3458,83	830,00
3462,43	987,00
3466,03	1024,00
3469,63	951,00
3473,22	838,00
3476,81	898,00
3480,40	1007,00
3483,99	772,00
3487,57	1052,00
3491,15	854,00
3494,72	918,00
3498,29	882,00
3501,86	1001,00
3505,43	915,00
3508,99	982,00
3512,56	946,00
3516,11	1014,00
3519,67	983,00
3523,22	1033,00
3526,77	965,00
3530,32	941,00
3533,86	1020,00
3537,40	1019,00
3540,94	973,00
3544,47	999,00
3548,00	888,00
3551,53	1038,00
3555,06	932,00
3558,58	1130,00
3562,10	922,00
3565,62	759,00
3569,13	882,00
3572,64	1002,00
3576,15	792,00
3579,66	968,00
3583,16	973,00
3586,66	885,00
3590,16	873,00
3593,65	925,00
3597,14	788,00
3600,63	1004,00
3604,11	920,00
3607,60	928,00
3611,08	912,00
3614,55	913,00
3618,03	891,00
3621,50	973,00
3624,97	840,00
3628,43	955,00
3631,90	1001,00
3635,36	899,00
3638,81	866,00
3642,27	948,00
3645,72	953,00
3649,17	978,00
3652,61	850,00
3656,06	811,00
3659,50	842,00
3662,93	892,00
3666,37	864,00
3669,80	1034,00
3673,23	912,00
3676,65	924,00
3680,08	1023,00
3683,50	900,00
3686,92	971,00
3690,33	850,00
3693,74	836,00
3697,15	782,00
3700,56	903,00
3703,96	905,00
3707,36	850,00
3710,76	792,00
3714,16	761,00
3717,55	773,00
3720,94	999,00
3724,33	783,00
3727,71	839,00
3731,10	963,00
3734,48	870,00
3737,85	717,00
3741,23	838,00
3744,60	808,00
3747,97	746,00
3751,33	811,00
3754,69	734,00
3758,05	842,00
3761,41	817,00
3764,77	838,00
3768,12	802,00
3771,47	695,00
3774,82	809,00
3778,16	-12,00
3781,50	14,00
3784,84	16,00
3788,18	8,00
>>>>>End Processed Spectral Data<<<<<
