SpectraSuite Data File
++++++++++++++++++++++++++++++++++++
Date: Tue Mar 03 11:11:19 ICT 2026
User: user
Dark Spectrum Present: Yes
Reference Spectrum Present: No
Number of Sampled Component Spectra: 1
Spectrometers: MAYP113682
Integration Time (usec): 3000000 (MAYP113682)
Spectra Averaged: 1 (MAYP113682)
Boxcar Smoothing: 0 (MAYP113682)
Correct for Electrical Dark: No (MAYP113682)
Strobe/Lamp Enabled: No (MAYP113682)
Correct for Detector Non-linearity: No (MAYP113682)
Correct for Stray Light: No (MAYP113682)
Number of Pixels in Processed Spectrum: 2068
>>>>>Begin Processed Spectral Data<<<<<
-37534,58	-1,00
-37414,56	-8,00
-37295,11	4,00
-37176,24	-1,00
-37057,95	5,00
-36940,22	54,00
-36823,05	-90,00
-36706,45	52,00
-36590,40	-151,00
-36474,90	150,00
-36359,95	-8,00
-36245,55	119,00
-36131,68	44,00
-36018,35	1,00
-35905,55	46,00
-35793,29	24,00
-35681,54	-59,00
-35570,32	21,00
-35459,62	33,00
-35349,43	-10,00
-35239,75	-123,00
-35130,58	98,00
-35021,91	52,00
-34913,74	76,00
-34806,07	-3,00
-34698,89	104,00
-34592,20	54,00
-34486,00	57,00
-34380,28	-40,00
-34275,04	-26,00
-34170,27	56,00
-34065,98	70,00
-33962,16	-24,00
-33858,81	70,00
-33755,92	-38,00
-33653,49	11,00
-33551,52	-3,00
-33450,01	25,00
-33348,94	-27,00
-33248,33	-54,00
-33148,16	8,00
-33048,43	76,00
-32949,14	82,00
-32850,29	-32,00
-32751,87	-81,00
-32653,89	-40,00
-32556,33	41,00
-32459,20	-5,00
-32362,49	51,00
-32266,19	36,00
-32170,32	45,00
-32074,86	-7,00
-31979,82	33,00
-31885,18	-103,00
-31790,95	143,00
-31697,12	-34,00
-31603,69	139,00
-31510,67	57,00
-31418,04	16,00
-31325,80	33,00
-31233,95	23,00
-31142,49	19,00
-31051,42	-15,00
-30960,73	13,00
-30870,43	55,00
-30780,50	64,00
-30690,95	82,00
-30601,77	82,00
-30512,97	46,00
-30424,53	55,00
-30336,46	66,00
-30248,76	56,00
-30161,42	138,00
-30074,44	-80,00
-29987,81	94,00
-29901,55	34,00
-29815,63	-82,00
-29730,07	-50,00
-29644,86	-54,00
-29560,00	19,00
-29475,48	36,00
-29391,30	150,00
-29307,47	0,00
-29223,97	55,00
-29140,81	-40,00
-29057,99	-68,00
-28975,50	27,00
-28893,34	40,00
-28811,51	-52,00
-28730,00	-54,00
-28648,82	75,00
-28567,97	-56,00
-28487,43	6,00
-28407,21	40,00
-28327,32	60,00
-28247,73	-141,00
-28168,46	18,00
-28089,50	-1,00
-28010,85	71,00
-27932,51	40,00
-27854,48	34,00
-27776,75	80,00
-27699,32	-92,00
-27622,19	-15,00
-27545,37	-50,00
-27468,84	23,00
-27392,60	95,00
-27316,66	23,00
-27241,01	36,00
-27165,66	122,00
-27090,59	20,00
-27015,81	-67,00
-26941,31	58,00
-26867,10	55,00
-26793,17	-62,00
-26719,52	-23,00
-26646,15	-44,00
-26573,06	10,00
-26500,24	-79,00
-26427,70	-14,00
-26355,43	-48,00
-26283,43	-57,00
-26211,71	-3,00
-26140,25	199,00
-26069,06	-1,00
-25998,13	2,00
-25927,46	-78,00
-25857,06	73,00
-25786,92	84,00
-25717,04	49,00
-25647,42	89,00
-25578,05	19,00
-25508,94	-58,00
-25440,09	-31,00
-25371,48	10,00
-25303,13	129,00
-25235,02	-26,00
-25167,17	25,00
-25099,56	56,00
-25032,19	-14,00
-24965,07	-31,00
-24898,20	-39,00
-24831,56	-64,00
-24765,17	0,00
-24699,01	-38,00
-24633,10	50,00
-24567,41	-39,00
-24501,97	47,00
-24436,75	159,00
-24371,77	-7,00
-24307,03	12,00
-24242,51	52,00
-24178,22	17,00
-24114,16	-4,00
-24050,32	26,00
-23986,71	-31,00
-23923,32	26,00
-23860,16	115,00
-23797,22	105,00
-23734,50	-20,00
-23672,00	21,00
-23609,71	35,00
-23547,65	52,00
-23485,80	125,00
-23424,16	6,00
-23362,74	27,00
-23301,53	61,00
-23240,54	48,00
-23179,75	-48,00
-23119,17	-24,00
-23058,80	2,00
-22998,64	-30,00
-22938,68	-41,00
-22878,93	-74,00
-22819,39	-24,00
-22760,04	2,00
-22700,90	-2,00
-22641,96	-44,00
-22583,22	-82,00
-22524,68	-31,00
-22466,33	52,00
-22408,19	-47,00
-22350,23	-18,00
-22292,48	-4,00
-22234,92	67,00
-22177,55	-45,00
-22120,37	63,00
-22063,38	-36,00
-22006,58	34,00
-21949,98	17,00
-21893,56	25,00
-21837,33	35,00
-21781,28	16,00
-21725,42	27,00
-21669,74	0,00
-21614,25	32,00
-21558,94	45,00
-21503,81	-52,00
-21448,86	-48,00
-21394,10	144,00
-21339,51	110,00
-21285,10	-42,00
-21230,86	56,00
-21176,81	-28,00
-21122,93	-72,00
-21069,22	14,00
-21015,69	87,00
-20962,33	-17,00
-20909,14	-38,00
-20856,13	39,00
-20803,28	85,00
-20750,61	0,00
-20698,10	126,00
-20645,76	-63,00
-20593,59	-3,00
-20541,59	59,00
-20489,75	5,00
-20438,07	50,00
-20386,56	-9,00
-20335,22	219,00
-20284,03	-38,00
-20233,01	-5,00
-20182,15	-57,00
-20131,45	-11,00
-20080,91	-2,00
-20030,52	100,00
-19980,30	51,00
-19930,23	-73,00
-19880,32	49,00
-19830,56	34,00
-19780,96	-6,00
-19731,52	25,00
-19682,23	-93,00
-19633,09	-7,00
-19584,10	-75,00
-19535,26	12,00
-19486,58	13,00
-19438,04	19,00
-19389,66	25,00
-19341,42	1,00
-19293,33	-43,00
-19245,39	104,00
-19197,60	-38,00
-19149,95	-140,00
-19102,45	96,00
-19055,09	-10,00
-19007,87	65,00
-18960,80	3,00
-18913,87	-24,00
-18867,09	80,00
-18820,44	98,00
-18773,94	-46,00
-18727,57	93,00
-18681,35	-41,00
-18635,26	10,00
-18589,31	-71,00
-18543,50	-43,00
-18497,83	-31,00
-18452,29	87,00
-18406,89	3,00
-18361,63	76,00
-18316,50	49,00
-18271,50	17,00
-18226,63	13,00
-18181,90	22,00
-18137,30	-110,00
-18092,84	20,00
-18048,50	-84,00
-18004,29	-97,00
-17960,22	11,00
-17916,27	-31,00
-17872,45	-106,00
-17828,76	-58,00
-17785,20	142,00
-17741,77	-5,00
-17698,46	-6,00
-17655,28	37,00
-17612,22	163,00
-17569,29	-7,00
-17526,48	-83,00
-17483,79	62,00
-17441,23	14,00
-17398,79	-16,00
-17356,48	41,00
-17314,28	3,00
-17272,21	41,00
-17230,26	20,00
-17188,42	77,00
-17146,71	132,00
-17105,12	-31,00
-17063,64	-14,00
-17022,28	30,00
-16981,04	-160,00
-16939,92	24,00
-16898,91	11,00
-16858,02	15,00
-16817,25	-30,00
-16776,59	108,00
-16736,04	-2,00
-16695,61	-72,00
-16655,29	-61,00
-16615,09	-69,00
-16574,99	34,00
-16535,01	-13,00
-16495,15	18,00
-16455,39	-2,00
-16415,74	41,00
-16376,21	-1,00
-16336,78	2,00
-16297,46	-4,00
-16258,26	-90,00
-16219,16	127,00
-16180,17	-57,00
-16141,28	-55,00
-16102,51	16,00
-16063,84	-26,00
-16025,27	104,00
-15986,82	36,00
-15948,46	17,00
-15910,22	-30,00
-15872,07	44,00
-15834,04	14,00
-15796,10	13,00
-15758,27	136,00
-15720,54	84,00
-15682,91	56,00
-15645,39	-3,00
-15607,97	30,00
-15570,64	-46,00
-15533,42	-52,00
-15496,30	0,00
-15459,28	45,00
-15422,36	-37,00
-15385,54	78,00
-15348,82	66,00
-15312,19	-63,00
-15275,66	117,00
-15239,23	5,00
-15202,90	-22,00
-15166,67	-13,00
-15130,53	33,00
-15094,48	25,00
-15058,54	165,00
-15022,68	40,00
-14986,93	35,00
-14951,26	-56,00
-14915,69	-35,00
-14880,22	-92,00
-14844,84	68,00
-14809,55	-23,00
-14774,35	58,00
-14739,25	108,00
-14704,24	12,00
-14669,32	-37,00
-14634,49	85,00
-14599,75	-19,00
-14565,10	104,00
-14530,55	137,00
-14496,08	1,00
-14461,70	-92,00
-14427,41	-83,00
-14393,21	80,00
-14359,10	-39,00
-14325,07	28,00
-14291,14	126,00
-14257,29	-104,00
-14223,52	64,00
-14189,85	-38,00
-14156,26	4,00
-14122,76	-6,00
-14089,34	-72,00
-14056,01	117,00
-14022,76	79,00
-13989,60	131,00
-13956,52	39,00
-13923,53	104,00
-13890,62	-22,00
-13857,79	-24,00
-13825,05	74,00
-13792,39	53,00
-13759,81	4,00
-13727,31	93,00
-13694,90	-76,00
-13662,57	-71,00
-13630,31	-10,00
-13598,14	-21,00
-13566,05	-7,00
-13534,05	-31,00
-13502,12	-79,00
-13470,27	-21,00
-13438,50	-50,00
-13406,80	60,00
-13375,19	49,00
-13343,66	7,00
-13312,20	62,00
-13280,83	-24,00
-13249,53	-28,00
-13218,30	-38,00
-13187,16	10,00
-13156,09	126,00
-13125,10	11,00
-13094,18	-36,00
-13063,34	-43,00
-13032,58	23,00
-13001,89	156,00
-12971,28	-26,00
-12940,74	38,00
-12910,27	-74,00
-12879,88	20,00
-12849,57	90,00
-12819,33	-1,00
-12789,16	109,00
-12759,06	96,00
-12729,04	24,00
-12699,09	-177,00
-12669,21	37,00
-12639,41	30,00
-12609,68	27,00
-12580,02	-83,00
-12550,43	-101,00
-12520,91	9,00
-12491,46	-11,00
-12462,08	0,00
-12432,77	62,00
-12403,54	-7,00
-12374,37	0,00
-12345,27	53,00
-12316,24	22,00
-12287,29	-19,00
-12258,40	66,00
-12229,57	110,00
-12200,82	47,00
-12172,14	15,00
-12143,52	-1,00
-12114,97	-108,00
-12086,49	-42,00
-12058,07	50,00
-12029,73	14,00
-12001,44	88,00
-11973,23	119,00
-11945,08	-105,00
-11917,00	-38,00
-11888,98	-74,00
-11861,03	5,00
-11833,15	101,00
-11805,32	5,00
-11777,57	84,00
-11749,88	-135,00
-11722,25	125,00
-11694,69	-42,00
-11667,19	81,00
-11639,75	-8,00
-11612,38	-43,00
-11585,07	69,00
-11557,83	55,00
-11530,65	-30,00
-11503,53	-22,00
-11476,47	-6,00
-11449,48	21,00
-11422,54	32,00
-11395,67	31,00
-11368,86	0,00
-11342,11	16,00
-11315,43	-188,00
-11288,80	-4,00
-11262,23	-10,00
-11235,73	74,00
-11209,28	42,00
-11182,90	39,00
-11156,57	36,00
-11130,31	-24,00
-11104,10	136,00
-11077,96	23,00
-11051,87	31,00
-11025,84	-78,00
-10999,87	-40,00
-10973,96	-109,00
-10948,11	11,00
-10922,31	87,00
-10896,58	-36,00
-10870,90	19,00
-10845,28	-2,00
-10819,71	-2,00
-10794,20	52,00
-10768,75	-17,00
-10743,36	61,00
-10718,02	-27,00
-10692,74	108,00
-10667,52	1,00
-10642,35	85,00
-10617,24	57,00
-10592,18	67,00
-10567,18	-31,00
-10542,23	71,00
-10517,34	147,00
-10492,51	-88,00
-10467,72	52,00
-10443,00	59,00
-10418,32	114,00
-10393,70	87,00
-10369,14	-50,00
-10344,63	-83,00
-10320,17	-67,00
-10295,77	63,00
-10271,42	40,00
-10247,12	-19,00
-10222,88	63,00
-10198,68	-13,00
-10174,54	13,00
-10150,46	39,00
-10126,42	29,00
-10102,44	78,00
-10078,51	84,00
-10054,63	56,00
-10030,80	159,00
-10007,03	16,00
-9983,30	85,00
-9959,63	113,00
-9936,01	-5,00
-9912,44	-73,00
-9888,92	-48,00
-9865,44	64,00
-9842,02	77,00
-9818,65	85,00
-9795,33	88,00
-9772,06	-8,00
-9748,84	-13,00
-9725,67	9,00
-9702,55	-117,00
-9679,47	158,00
-9656,45	59,00
-9633,47	116,00
-9610,55	34,00
-9587,67	153,00
-9564,84	137,00
-9542,06	14,00
-9519,32	41,00
-9496,64	80,00
-9474,00	177,00
-9451,41	163,00
-9428,87	176,00
-9406,37	151,00
-9383,92	19,00
-9361,52	143,00
-9339,17	256,00
-9316,86	136,00
-9294,60	104,00
-9272,38	109,00
-9250,21	306,00
-9228,09	155,00
-9206,01	201,00
-9183,98	190,00
-9162,00	220,00
-9140,06	90,00
-9118,16	146,00
-9096,31	146,00
-9074,51	154,00
-9052,75	113,00
-9031,04	139,00
-9009,37	201,00
-8987,74	30,00
-8966,16	42,00
-8944,63	80,00
-8923,14	117,00
-8901,69	5,00
-8880,29	207,00
-8858,93	130,00
-8837,61	191,00
-8816,34	100,00
-8795,11	242,00
-8773,92	157,00
-8752,78	179,00
-8731,68	150,00
-8710,62	-50,00
-8689,61	67,00
-8668,63	243,00
-8647,70	186,00
-8626,82	210,00
-8605,97	54,00
-8585,17	42,00
-8564,41	98,00
-8543,69	238,00
-8523,01	80,00
-8502,37	80,00
-8481,78	-65,00
-8461,23	36,00
-8440,71	53,00
-8420,24	86,00
-8399,81	76,00
-8379,42	132,00
-8359,08	104,00
-8338,77	84,00
-8318,50	165,00
-8298,27	57,00
-8278,09	87,00
-8257,94	149,00
-8237,83	0,00
-8217,76	15,00
-8197,74	228,00
-8177,75	113,00
-8157,80	159,00
-8137,89	134,00
-8118,02	82,00
-8098,19	203,00
-8078,40	0,00
-8058,65	50,00
-8038,93	142,00
-8019,26	148,00
-7999,62	134,00
-7980,02	42,00
-7960,46	100,00
-7940,94	124,00
-7921,46	222,00
-7902,01	120,00
-7882,60	105,00
-7863,23	20,00
-7843,90	73,00
-7824,61	17,00
-7805,35	120,00
-7786,13	158,00
-7766,95	91,00
-7747,80	113,00
-7728,69	122,00
-7709,62	64,00
-7690,59	68,00
-7671,59	115,00
-7652,63	31,00
-7633,70	145,00
-7614,81	176,00
-7595,96	94,00
-7577,15	109,00
-7558,37	68,00
-7539,62	68,00
-7520,91	105,00
-7502,24	23,00
-7483,60	148,00
-7465,00	147,00
-7446,44	156,00
-7427,91	-42,00
-7409,41	-31,00
-7390,95	5,00
-7372,53	11,00
-7354,14	52,00
-7335,78	154,00
-7317,46	174,00
-7299,18	44,00
-7280,92	118,00
-7262,71	201,00
-7244,52	13,00
-7226,38	255,00
-7208,26	50,00
-7190,18	37,00
-7172,14	171,00
-7154,12	83,00
-7136,15	103,00
-7118,20	123,00
-7100,29	54,00
-7082,41	78,00
-7064,57	110,00
-7046,76	137,00
-7028,98	126,00
-7011,24	47,00
-6993,53	53,00
-6975,85	79,00
-6958,20	-2,00
-6940,59	46,00
-6923,01	-18,00
-6905,46	105,00
-6887,94	69,00
-6870,46	-4,00
-6853,01	159,00
-6835,59	-64,00
-6818,21	99,00
-6800,85	92,00
-6783,53	43,00
-6766,24	103,00
-6748,98	17,00
-6731,76	67,00
-6714,56	31,00
-6697,40	-6,00
-6680,26	25,00
-6663,16	85,00
-6646,09	-16,00
-6629,05	146,00
-6612,05	146,00
-6595,07	182,00
-6578,13	-55,00
-6561,21	164,00
-6544,33	66,00
-6527,47	152,00
-6510,65	54,00
-6493,86	118,00
-6477,10	86,00
-6460,36	35,00
-6443,66	93,00
-6426,99	-21,00
-6410,35	-100,00
-6393,74	17,00
-6377,16	128,00
-6360,61	135,00
-6344,09	73,00
-6327,59	157,00
-6311,13	188,00
-6294,70	-3,00
-6278,29	228,00
-6261,92	116,00
-6245,58	122,00
-6229,26	41,00
-6212,97	71,00
-6196,72	187,00
-6180,49	119,00
-6164,29	3,00
-6148,12	78,00
-6131,98	69,00
-6115,86	-69,00
-6099,78	85,00
-6083,72	25,00
-6067,69	-123,00
-6051,69	71,00
-6035,72	123,00
-6019,78	43,00
-6003,87	160,00
-5987,98	54,00
-5972,12	149,00
-5956,29	84,00
-5940,49	-112,00
-5924,71	-26,00
-5908,96	-14,00
-5893,24	5,00
-5877,55	19,00
-5861,89	-11,00
-5846,25	27,00
-5830,64	-11,00
-5815,05	-29,00
-5799,50	-3,00
-5783,97	88,00
-5768,47	53,00
-5752,99	31,00
-5737,55	182,00
-5722,12	110,00
-5706,73	-9,00
-5691,36	92,00
-5676,02	-8,00
-5660,71	79,00
-5645,42	64,00
-5630,16	-8,00
-5614,92	168,00
-5599,71	95,00
-5584,53	147,00
-5569,37	137,00
-5554,24	95,00
-5539,14	85,00
-5524,06	57,00
-5509,01	266,00
-5493,98	71,00
-5478,98	93,00
-5464,00	38,00
-5449,05	51,00
-5434,13	-57,00
-5419,23	18,00
-5404,36	89,00
-5389,51	-37,00
-5374,69	80,00
-5359,89	80,00
-5345,12	41,00
-5330,37	220,00
-5315,65	188,00
-5300,95	68,00
-5286,28	92,00
-5271,63	102,00
-5257,01	80,00
-5242,41	15,00
-5227,84	33,00
-5213,29	66,00
-5198,76	12,00
-5184,26	35,00
-5169,79	67,00
-5155,33	-69,00
-5140,91	-23,00
-5126,51	60,00
-5112,13	83,00
-5097,77	185,00
-5083,44	58,00
-5069,13	3,00
-5054,85	100,00
-5040,59	133,00
-5026,36	74,00
-5012,15	24,00
-4997,96	122,00
-4983,80	-5,00
-4969,66	74,00
-4955,54	59,00
-4941,44	-37,00
-4927,37	-107,00
-4913,33	82,00
-4899,30	102,00
-4885,30	76,00
-4871,33	79,00
-4857,37	-9,00
-4843,44	74,00
-4829,53	-10,00
-4815,65	90,00
-4801,79	-19,00
-4787,95	142,00
-4774,13	-37,00
-4760,34	70,00
-4746,56	-47,00
-4732,82	26,00
-4719,09	84,00
-4705,38	103,00
-4691,70	97,00
-4678,04	76,00
-4664,41	104,00
-4650,79	-8,00
-4637,20	119,00
-4623,63	1,00
-4610,08	-7,00
-4596,56	27,00
-4583,05	160,00
-4569,57	164,00
-4556,11	22,00
-4542,67	-4,00
-4529,25	-33,00
-4515,86	104,00
-4502,49	17,00
-4489,13	115,00
-4475,80	37,00
-4462,49	-17,00
-4449,21	-86,00
-4435,94	112,00
-4422,70	-41,00
-4409,47	19,00
-4396,27	12,00
-4383,09	77,00
-4369,93	-35,00
-4356,79	30,00
-4343,67	25,00
-4330,58	36,00
-4317,50	36,00
-4304,45	29,00
-4291,41	77,00
-4278,40	110,00
-4265,41	-69,00
-4252,44	-94,00
-4239,49	104,00
-4226,55	-3,00
-4213,65	-2,00
-4200,76	-26,00
-4187,89	-18,00
-4175,04	6,00
-4162,21	155,00
-4149,40	-28,00
-4136,61	18,00
-4123,85	-23,00
-4111,10	-65,00
-4098,37	-10,00
-4085,66	8,00
-4072,98	103,00
-4060,31	23,00
-4047,66	92,00
-4035,04	128,00
-4022,43	-24,00
-4009,84	139,00
-3997,27	71,00
-3984,72	-96,00
-3972,19	-104,00
-3959,69	19,00
-3947,20	8,00
-3934,73	94,00
-3922,27	-80,00
-3909,84	-92,00
-3897,43	74,00
-3885,04	-8,00
-3872,67	-43,00
-3860,31	-3,00
-3847,98	62,00
-3835,66	-1,00
-3823,36	13,00
-3811,09	7,00
-3798,83	17,00
-3786,59	-21,00
-3774,37	-28,00
-3762,17	7,00
-3749,98	22,00
-3737,82	-163,00
-3725,67	-11,00
-3713,55	48,00
-3701,44	-149,00
-3689,35	-72,00
-3677,28	186,00
-3665,22	62,00
-3653,19	45,00
-3641,17	-60,00
-3629,18	127,00
-3617,20	35,00
-3605,24	47,00
-3593,30	15,00
-3581,37	-12,00
-3569,47	66,00
-3557,58	39,00
-3545,71	-57,00
-3533,86	135,00
-3522,02	-73,00
-3510,21	37,00
-3498,41	3,00
-3486,63	-27,00
-3474,87	12,00
-3463,12	36,00
-3451,40	66,00
-3439,69	-21,00
-3428,00	24,00
-3416,33	-85,00
-3404,67	48,00
-3393,03	31,00
-3381,41	101,00
-3369,81	113,00
-3358,22	-15,00
-3346,66	-44,00
-3335,10	90,00
-3323,57	-24,00
-3312,06	-40,00
-3300,56	-32,00
-3289,08	-23,00
-3277,61	8,00
-3266,16	-4,00
-3254,73	45,00
-3243,32	-176,00
-3231,92	7,00
-3220,55	-62,00
-3209,18	-57,00
-3197,84	0,00
-3186,51	41,00
-3175,20	58,00
-3163,90	70,00
-3152,63	-27,00
-3141,36	35,00
-3130,12	63,00
-3118,89	-81,00
-3107,68	35,00
-3096,49	79,00
-3085,31	64,00
-3074,15	-32,00
-3063,00	158,00
-3051,87	40,00
-3040,76	-74,00
-3029,67	59,00
-3018,59	-95,00
-3007,52	-6,00
-2996,48	26,00
-2985,44	101,00
-2974,43	14,00
-2963,43	61,00
-2952,45	84,00
-2941,48	188,00
-2930,53	78,00
-2919,60	-19,00
-2908,68	53,00
-2897,78	-16,00
-2886,89	75,00
-2876,02	1,00
-2865,17	49,00
-2854,33	-46,00
-2843,50	-49,00
-2832,70	-58,00
-2821,90	-78,00
-2811,13	-72,00
-2800,37	65,00
-2789,62	60,00
-2778,89	117,00
-2768,18	-64,00
-2757,48	1,00
-2746,80	6,00
-2736,13	-57,00
-2725,48	-66,00
-2714,84	-19,00
-2704,22	-42,00
-2693,61	42,00
-2683,02	-114,00
-2672,45	-43,00
-2661,89	15,00
-2651,34	20,00
-2640,81	69,00
-2630,30	137,00
-2619,80	46,00
-2609,31	-45,00
-2598,84	72,00
-2588,39	27,00
-2577,95	8,00
-2567,52	30,00
-2557,11	-7,00
-2546,71	-42,00
-2536,33	113,00
-2525,97	55,00
-2515,62	54,00
-2505,28	90,00
-2494,96	68,00
-2484,65	115,00
-2474,36	50,00
-2464,08	-50,00
-2453,82	106,00
-2443,57	74,00
-2433,33	78,00
-2423,11	-13,00
-2412,91	25,00
-2402,72	-52,00
-2392,54	-4,00
-2382,38	128,00
-2372,23	57,00
-2362,09	-209,00
-2351,97	34,00
-2341,87	86,00
-2331,78	-165,00
-2321,70	-89,00
-2311,64	-113,00
-2301,59	0,00
-2291,55	-50,00
-2281,53	32,00
-2271,53	54,00
-2261,53	45,00
-2251,55	16,00
-2241,59	-11,00
-2231,64	4,00
-2221,70	8,00
-2211,78	55,00
-2201,87	8,00
-2191,97	130,00
-2182,09	25,00
-2172,22	20,00
-2162,37	-13,00
-2152,53	4,00
-2142,70	35,00
-2132,89	46,00
-2123,09	-51,00
-2113,30	60,00
-2103,53	7,00
-2093,77	86,00
-2084,02	63,00
-2074,29	-30,00
-2064,57	-50,00
-2054,86	113,00
-2045,17	39,00
-2035,49	-21,00
-2025,82	-6,00
-2016,17	23,00
-2006,53	38,00
-1996,91	6,00
-1987,29	-52,00
-1977,69	64,00
-1968,11	114,00
-1958,53	-27,00
-1948,97	-13,00
-1939,42	-10,00
-1929,89	22,00
-1920,37	-23,00
-1910,86	-21,00
-1901,36	66,00
-1891,88	52,00
-1882,41	-21,00
-1872,95	-48,00
-1863,51	55,00
-1854,08	2,00
-1844,66	29,00
-1835,26	5,00
-1825,86	15,00
-1816,48	-30,00
-1807,11	-62,00
-1797,76	9,00
-1788,42	-42,00
-1779,09	-44,00
-1769,77	-42,00
-1760,47	-56,00
-1751,17	-28,00
-1741,89	-88,00
-1732,63	25,00
-1723,37	-84,00
-1714,13	110,00
-1704,90	-90,00
-1695,68	88,00
-1686,48	-2,00
-1677,29	132,00
-1668,11	23,00
-1658,94	79,00
-1649,78	13,00
-1640,64	-19,00
-1631,51	-13,00
-1622,39	139,00
-1613,28	27,00
-1604,19	31,00
-1595,10	-27,00
-1586,03	115,00
-1576,97	-1,00
-1567,93	44,00
-1558,89	-18,00
-1549,87	-24,00
-1540,86	-49,00
-1531,86	-84,00
-1522,87	68,00
-1513,90	17,00
-1504,93	-43,00
-1495,98	8,00
-1487,04	70,00
-1478,12	-21,00
-1469,20	27,00
-1460,30	197,00
-1451,40	92,00
-1442,52	-15,00
-1433,65	13,00
-1424,80	-32,00
-1415,95	121,00
-1407,12	6,00
-1398,30	46,00
-1389,48	-6,00
-1380,69	14,00
-1371,90	-97,00
-1363,12	75,00
-1354,36	17,00
-1345,60	71,00
-1336,86	74,00
-1328,13	99,00
-1319,41	65,00
-1310,70	32,00
-1302,01	-115,00
-1293,32	-76,00
-1284,65	-50,00
-1275,99	30,00
-1267,33	-3,00
-1258,69	-47,00
-1250,06	63,00
-1241,45	103,00
-1232,84	-47,00
-1224,25	35,00
-1215,66	61,00
-1207,09	-69,00
-1198,53	68,00
-1189,97	18,00
-1181,43	142,00
-1172,91	108,00
-1164,39	93,00
-1155,88	39,00
-1147,38	25,00
-1138,90	1,00
-1130,43	-46,00
-1121,96	-162,00
-1113,51	1,00
-1105,07	-45,00
-1096,64	76,00
-1088,22	14,00
-1079,81	72,00
-1071,41	34,00
-1063,02	13,00
-1054,65	14,00
-1046,28	3,00
-1037,92	-10,00
-1029,58	-67,00
-1021,24	51,00
-1012,92	-30,00
-1004,61	75,00
-996,30	108,00
-988,01	62,00
-979,73	-9,00
-971,46	15,00
-963,20	22,00
-954,95	33,00
-946,71	7,00
-938,48	12,00
-930,26	24,00
-922,06	52,00
-913,86	28,00
-905,67	8,00
-897,49	5,00
-889,33	-16,00
-881,17	75,00
-873,02	-79,00
-864,89	4,00
-856,76	105,00
-848,65	26,00
-840,54	85,00
-832,45	-52,00
-824,36	7,00
-816,29	91,00
-808,22	21,00
-800,17	22,00
-792,12	-87,00
-784,09	56,00
-776,06	81,00
-768,05	57,00
-760,04	-2,00
-752,05	-5,00
-744,07	-10,00
-736,09	-46,00
-728,13	142,00
-720,17	69,00
-712,23	67,00
-704,29	-45,00
-696,37	-3,00
-688,45	109,00
-680,55	3,00
-672,65	-21,00
-664,77	-44,00
-656,89	73,00
-649,03	-4,00
-641,17	-62,00
-633,32	-4,00
-625,49	6,00
-617,66	-109,00
-609,84	29,00
-602,03	53,00
-594,23	-97,00
-586,45	208,00
-578,67	51,00
-570,90	-15,00
-563,14	2,00
-555,39	129,00
-547,65	-85,00
-539,91	-9,00
-532,19	64,00
-524,48	-91,00
-516,78	68,00
-509,08	131,00
-501,40	83,00
-493,72	70,00
-486,06	24,00
-478,40	-2,00
-470,76	22,00
-463,12	10,00
-455,49	112,00
-447,87	40,00
-440,26	15,00
-432,66	144,00
-425,07	42,00
-417,49	-43,00
-409,92	132,00
-402,35	97,00
-394,80	86,00
-387,25	10,00
-379,72	120,00
-372,19	104,00
-364,67	105,00
-357,17	21,00
-349,67	-24,00
-342,18	28,00
-334,69	85,00
-327,22	10,00
-319,76	-4,00
-312,30	-15,00
-304,86	217,00
-297,42	45,00
-290,00	140,00
-282,58	90,00
-275,17	-17,00
-267,77	88,00
-260,37	211,00
-252,99	127,00
-245,62	214,00
-238,25	216,00
-230,90	139,00
-223,55	97,00
-216,21	63,00
-208,88	155,00
-201,56	196,00
-194,25	169,00
-186,94	414,00
-179,65	229,00
-172,36	132,00
-165,08	233,00
-157,81	310,00
-150,55	345,00
-143,30	412,00
-136,06	415,00
-128,82	397,00
-121,60	489,00
-114,38	513,00
-107,17	649,00
-99,97	726,00
-92,78	830,00
-85,60	1025,00
-78,42	1039,00
-71,25	1350,00
-64,10	1372,00
-56,95	1779,00
-49,81	2085,00
-42,67	2528,00
-35,55	3142,00
-28,43	4379,00
-21,33	7399,00
-14,23	24847,00
-7,14	54975,00
-0,05	54612,00
7,02	54304,00
14,09	54647,00
21,14	19266,00
28,19	8202,00
35,23	5187,00
42,27	3752,00
49,29	3426,00
56,31	2572,00
63,32	2174,00
70,32	1853,00
77,31	1653,00
84,29	1283,00
91,27	899,00
98,23	1010,00
105,19	941,00
112,14	1077,00
119,09	1393,00
126,02	2073,00
132,95	2312,00
139,87	2373,00
146,78	2245,00
153,68	2056,00
160,58	2075,00
167,46	2094,00
174,34	2056,00
181,21	1941,00
188,08	1910,00
194,93	1981,00
201,78	1913,00
208,62	1875,00
215,45	1942,00
222,27	2007,00
229,09	1983,00
235,90	1803,00
242,70	1874,00
249,49	1713,00
256,27	1820,00
263,05	1673,00
269,82	1714,00
276,58	1756,00
283,33	1666,00
290,08	1682,00
296,82	1638,00
303,55	1797,00
310,27	1589,00
316,98	1548,00
323,69	1573,00
330,39	1446,00
337,08	1606,00
343,76	1524,00
350,44	1484,00
357,11	1441,00
363,77	1404,00
370,42	1456,00
377,07	1502,00
383,71	1340,00
390,34	1451,00
396,96	1358,00
403,58	1419,00
410,19	1466,00
416,79	1412,00
423,38	1461,00
429,97	1365,00
436,55	1272,00
443,12	1317,00
449,68	1238,00
456,24	1354,00
462,79	1374,00
469,33	1209,00
475,86	1188,00
482,39	1194,00
488,91	1217,00
495,42	1202,00
501,93	1186,00
508,42	1181,00
514,91	1026,00
521,40	1001,00
527,87	1165,00
534,34	1304,00
540,80	1056,00
547,25	1121,00
553,70	1036,00
560,14	1236,00
566,57	1111,00
573,00	998,00
579,41	1247,00
585,83	1083,00
592,23	1107,00
598,62	1114,00
605,01	1126,00
611,40	1177,00
617,77	981,00
624,14	1049,00
630,50	1014,00
636,85	1003,00
643,20	997,00
649,54	909,00
655,87	1152,00
662,20	894,00
668,52	980,00
674,83	1042,00
681,13	977,00
687,43	973,00
693,72	987,00
700,00	949,00
706,28	817,00
712,55	937,00
718,81	1010,00
725,07	825,00
731,32	916,00
737,56	990,00
743,79	923,00
750,02	987,00
756,24	1030,00
762,46	1024,00
768,67	899,00
774,87	1033,00
781,06	871,00
787,25	860,00
793,43	1013,00
799,60	1043,00
805,77	1054,00
811,93	957,00
818,08	1009,00
824,23	961,00
830,37	1120,00
836,50	1062,00
842,63	993,00
848,75	976,00
854,87	944,00
860,97	942,00
867,07	977,00
873,17	1094,00
879,25	1015,00
885,33	991,00
891,41	985,00
897,47	928,00
903,53	969,00
909,59	941,00
915,63	816,00
921,67	939,00
927,71	887,00
933,74	911,00
939,76	805,00
945,77	771,00
951,78	709,00
957,78	759,00
963,78	767,00
969,77	802,00
975,75	968,00
981,72	846,00
987,69	737,00
993,66	784,00
999,61	840,00
1005,56	898,00
1011,51	907,00
1017,44	736,00
1023,37	795,00
1029,30	892,00
1035,22	987,00
1041,13	957,00
1047,03	891,00
1052,93	1090,00
1058,83	1483,00
1064,71	1568,00
1070,59	1293,00
1076,47	1163,00
1082,33	1018,00
1088,20	1071,00
1094,05	903,00
1099,90	914,00
1105,74	860,00
1111,58	996,00
1117,41	826,00
1123,23	1201,00
1129,05	1317,00
1134,86	1179,00
1140,67	1036,00
1146,47	928,00
1152,26	730,00
1158,05	846,00
1163,83	783,00
1169,60	654,00
1175,37	818,00
1181,13	640,00
1186,89	791,00
1192,64	726,00
1198,38	689,00
1204,12	717,00
1209,85	724,00
1215,58	739,00
1221,30	713,00
1227,02	730,00
1232,72	781,00
1238,43	737,00
1244,12	820,00
1249,81	745,00
1255,50	679,00
1261,17	799,00
1266,85	800,00
1272,51	731,00
1278,17	858,00
1283,83	1080,00
1289,47	1424,00
1295,12	1727,00
1300,75	1540,00
1306,38	1399,00
1312,01	1094,00
1317,63	1041,00
1323,24	909,00
1328,85	954,00
1334,45	1002,00
1340,04	892,00
1345,63	789,00
1351,22	1019,00
1356,80	965,00
1362,37	949,00
1367,93	1034,00
1373,49	938,00
1379,05	918,00
1384,60	879,00
1390,14	911,00
1395,68	934,00
1401,21	893,00
1406,74	939,00
1412,26	1040,00
1417,77	1086,00
1423,28	1210,00
1428,78	1392,00
1434,28	1652,00
1439,77	1756,00
1445,26	1745,00
1450,74	1732,00
1456,22	1481,00
1461,68	1527,00
1467,15	1285,00
1472,61	1172,00
1478,06	1093,00
1483,51	991,00
1488,95	850,00
1494,38	876,00
1499,81	894,00
1505,24	787,00
1510,65	563,00
1516,07	733,00
1521,48	775,00
1526,88	749,00
1532,27	769,00
1537,67	634,00
1543,05	696,00
1548,43	651,00
1553,81	577,00
1559,18	742,00
1564,54	799,00
1569,90	644,00
1575,25	611,00
1580,60	675,00
1585,94	645,00
1591,28	623,00
1596,61	666,00
1601,93	498,00
1607,25	639,00
1612,57	650,00
1617,88	619,00
1623,18	728,00
1628,48	575,00
1633,77	627,00
1639,06	669,00
1644,34	504,00
1649,62	471,00
1654,89	609,00
1660,16	537,00
1665,42	485,00
1670,67	563,00
1675,92	548,00
1681,17	561,00
1686,41	610,00
1691,64	576,00
1696,87	485,00
1702,10	613,00
1707,32	444,00
1712,53	564,00
1717,74	591,00
1722,94	575,00
1728,14	523,00
1733,33	539,00
1738,52	416,00
1743,70	483,00
1748,88	535,00
1754,05	437,00
1759,22	546,00
1764,38	454,00
1769,53	358,00
1774,69	454,00
1779,83	437,00
1784,97	405,00
1790,11	444,00
1795,24	399,00
1800,36	353,00
1805,48	484,00
1810,60	404,00
1815,71	532,00
1820,82	499,00
1825,92	206,00
1831,01	510,00
1836,10	429,00
1841,19	377,00
1846,26	414,00
1851,34	389,00
1856,41	568,00
1861,47	408,00
1866,53	415,00
1871,59	456,00
1876,64	525,00
1881,68	307,00
1886,72	373,00
1891,76	443,00
1896,79	438,00
1901,81	471,00
1906,83	291,00
1911,85	327,00
1916,86	340,00
1921,86	367,00
1926,86	354,00
1931,86	424,00
1936,85	438,00
1941,83	391,00
1946,81	304,00
1951,79	209,00
1956,76	343,00
1961,72	290,00
1966,68	312,00
1971,64	324,00
1976,59	335,00
1981,54	355,00
1986,48	271,00
1991,42	210,00
1996,35	349,00
2001,27	341,00
2006,20	436,00
2011,11	321,00
2016,03	244,00
2020,93	246,00
2025,84	266,00
2030,73	341,00
2035,63	338,00
2040,52	466,00
2045,40	248,00
2050,28	353,00
2055,15	359,00
2060,02	370,00
2064,89	202,00
2069,75	353,00
2074,60	320,00
2079,46	211,00
2084,30	199,00
2089,14	224,00
2093,98	303,00
2098,81	214,00
2103,64	381,00
2108,46	279,00
2113,28	264,00
2118,09	256,00
2122,90	380,00
2127,70	181,00
2132,50	273,00
2137,30	264,00
2142,09	214,00
2146,87	302,00
2151,66	303,00
2156,43	306,00
2161,20	386,00
2165,97	223,00
2170,73	159,00
2175,49	288,00
2180,24	313,00
2184,99	320,00
2189,74	359,00
2194,48	242,00
2199,21	263,00
2203,94	247,00
2208,67	182,00
2213,39	230,00
2218,11	183,00
2222,82	302,00
2227,53	197,00
2232,23	296,00
2236,93	191,00
2241,63	230,00
2246,32	372,00
2251,00	220,00
2255,68	113,00
2260,36	191,00
2265,03	153,00
2269,70	273,00
2274,36	260,00
2279,02	244,00
2283,68	114,00
2288,33	268,00
2292,97	172,00
2297,61	170,00
2302,25	178,00
2306,88	265,00
2311,51	222,00
2316,14	209,00
2320,75	155,00
2325,37	281,00
2329,98	142,00
2334,59	137,00
2339,19	329,00
2343,79	313,00
2348,38	110,00
2352,97	184,00
2357,55	199,00
2362,13	205,00
2366,71	155,00
2371,28	137,00
2375,85	282,00
2380,41	220,00
2384,97	153,00
2389,52	119,00
2394,07	90,00
2398,62	232,00
2403,16	35,00
2407,70	176,00
2412,23	152,00
2416,76	146,00
2421,29	133,00
2425,81	129,00
2430,32	266,00
2434,84	306,00
2439,34	286,00
2443,85	120,00
2448,35	82,00
2452,84	86,00
2457,33	276,00
2461,82	118,00
2466,30	129,00
2470,78	150,00
2475,25	203,00
2479,72	198,00
2484,19	161,00
2488,65	111,00
2493,11	121,00
2497,56	176,00
2502,01	170,00
2506,46	258,00
2510,90	175,00
2515,34	123,00
2519,77	37,00
2524,20	198,00
2528,62	-41,00
2533,04	263,00
2537,46	177,00
2541,87	-8,00
2546,28	161,00
2550,68	217,00
2555,08	145,00
2559,48	172,00
2563,87	176,00
2568,26	30,00
2572,64	100,00
2577,02	87,00
2581,40	127,00
2585,77	167,00
2590,14	193,00
2594,50	39,00
2598,86	86,00
2603,22	244,00
2607,57	252,00
2611,92	87,00
2616,26	64,00
2620,60	141,00
2624,94	256,00
2629,27	232,00
2633,60	152,00
2637,92	214,00
2642,24	305,00
2646,56	297,00
2650,87	138,00
2655,18	174,00
2659,48	150,00
2663,78	105,00
2668,08	238,00
2672,37	146,00
2676,66	189,00
2680,95	171,00
2685,23	237,00
2689,50	218,00
2693,78	210,00
2698,05	278,00
2702,31	127,00
2706,57	200,00
2710,83	160,00
2715,08	228,00
2719,33	316,00
2723,58	359,00
2727,82	289,00
2732,06	229,00
2736,29	304,00
2740,53	200,00
2744,75	211,00
2748,97	233,00
2753,19	335,00
2757,41	162,00
2761,62	320,00
2765,83	115,00
2770,03	366,00
2774,23	359,00
2778,43	207,00
2782,62	330,00
2786,81	269,00
2791,00	362,00
2795,18	352,00
2799,35	336,00
2803,53	297,00
2807,70	335,00
2811,86	260,00
2816,03	440,00
2820,19	468,00
2824,34	458,00
2828,49	526,00
2832,64	664,00
2836,78	733,00
2840,92	948,00
2845,06	1136,00
2849,19	1260,00
2853,32	1369,00
2857,45	1267,00
2861,57	1400,00
2865,69	1381,00
2869,80	1371,00
2873,91	1225,00
2878,02	1413,00
2882,12	1526,00
2886,22	1494,00
2890,32	1373,00
2894,41	1411,00
2898,50	1211,00
2902,58	1215,00
2906,67	975,00
2910,74	1031,00
2914,82	1049,00
2918,89	916,00
2922,96	860,00
2927,02	825,00
2931,08	757,00
2935,13	714,00
2939,19	635,00
2943,24	605,00
2947,28	473,00
2951,32	526,00
2955,36	492,00
2959,40	353,00
2963,43	289,00
2967,46	288,00
2971,48	355,00
2975,50	187,00
2979,52	235,00
2983,53	320,00
2987,54	192,00
2991,55	213,00
2995,55	217,00
2999,55	230,00
3003,54	238,00
3007,54	54,00
3011,53	13,00
3015,51	168,00
3019,49	89,00
3023,47	101,00
3027,45	181,00
3031,42	195,00
3035,39	138,00
3039,35	90,00
3043,31	115,00
3047,27	120,00
3051,22	55,00
3055,17	91,00
3059,12	45,00
3063,06	37,00
3067,00	43,00
3070,94	129,00
3074,87	14,00
3078,80	182,00
3082,73	-1,00
3086,65	111,00
3090,57	48,00
3094,49	74,00
3098,40	84,00
3102,31	113,00
3106,22	69,00
3110,12	89,00
3114,02	22,00
3117,92	58,00
3121,81	112,00
3125,70	103,00
3129,58	44,00
3133,47	6,00
3137,34	1,00
3141,22	31,00
3145,09	115,00
3148,96	79,00
3152,83	-32,00
3156,69	163,00
3160,55	135,00
3164,40	129,00
3168,26	35,00
3172,10	169,00
3175,95	-16,00
3179,79	2,00
3183,63	108,00
3187,47	110,00
3191,30	60,00
3195,13	42,00
3198,95	146,00
3202,78	32,00
3206,60	-3,00
3210,41	71,00
3214,23	115,00
3218,03	44,00
3221,84	12,00
3225,64	33,00
3229,44	135,00
3233,24	17,00
3237,03	55,00
3240,82	85,00
3244,61	63,00
3248,39	69,00
3252,17	62,00
3255,95	-74,00
3259,72	80,00
3263,49	141,00
3267,26	56,00
3271,03	83,00
3274,79	98,00
3278,54	22,00
3282,30	-1,00
3286,05	-79,00
3289,80	40,00
3293,54	147,00
3297,29	23,00
3301,02	149,00
3304,76	148,00
3308,49	-10,00
3312,22	34,00
3315,95	79,00
3319,67	-7,00
3323,39	81,00
3327,10	71,00
3330,82	5,00
3334,53	85,00
3338,24	109,00
3341,94	53,00
3345,64	14,00
3349,34	105,00
3353,03	246,00
3356,72	50,00
3360,41	-13,00
3364,10	62,00
3367,78	5,00
3371,46	110,00
3375,13	-60,00
3378,81	49,00
3382,48	65,00
3386,14	40,00
3389,81	42,00
3393,47	77,00
3397,12	-133,00
3400,78	70,00
3404,43	-40,00
3408,08	-33,00
3411,72	-58,00
3415,36	48,00
3419,00	13,00
3422,64	49,00
3426,27	5,00
3429,90	46,00
3433,53	140,00
3437,15	2,00
3440,77	102,00
3444,39	-90,00
3448,00	19,00
3451,62	-47,00
3455,22	20,00
3458,83	64,00
3462,43	-34,00
3466,03	59,00
3469,63	12,00
3473,22	198,00
3476,81	-3,00
3480,40	100,00
3483,99	46,00
3487,57	-72,00
3491,15	-20,00
3494,72	112,00
3498,29	73,00
3501,86	152,00
3505,43	-27,00
3508,99	-62,00
3512,56	166,00
3516,11	151,00
3519,67	-9,00
3523,22	-97,00
3526,77	-8,00
3530,32	-39,00
3533,86	-56,00
3537,40	136,00
3540,94	-13,00
3544,47	-40,00
3548,00	34,00
3551,53	-21,00
3555,06	-23,00
3558,58	41,00
3562,10	-172,00
3565,62	66,00
3569,13	73,00
3572,64	-51,00
3576,15	12,00
3579,66	48,00
3583,16	-33,00
3586,66	71,00
3590,16	-26,00
3593,65	40,00
3597,14	49,00
3600,63	20,00
3604,11	-46,00
3607,60	84,00
3611,08	73,00
3614,55	-70,00
3618,03	71,00
3621,50	-71,00
3624,97	58,00
3628,43	94,00
3631,90	113,00
3635,36	81,00
3638,81	9,00
3642,27	61,00
3645,72	-27,00
3649,17	-58,00
3652,61	-14,00
3656,06	54,00
3659,50	36,00
3662,93	-8,00
3666,37	-7,00
3669,80	-44,00
3673,23	37,00
3676,65	19,00
3680,08	-55,00
3683,50	142,00
3686,92	21,00
3690,33	11,00
3693,74	-33,00
3697,15	46,00
3700,56	60,00
3703,96	-30,00
3707,36	93,00
3710,76	33,00
3714,16	5,00
3717,55	-46,00
3720,94	123,00
3724,33	-29,00
3727,71	33,00
3731,10	-11,00
3734,48	79,00
3737,85	31,00
3741,23	-24,00
3744,60	51,00
3747,97	31,00
3751,33	-28,00
3754,69	28,00
3758,05	118,00
3761,41	-19,00
3764,77	79,00
3768,12	3,00
3771,47	-51,00
3774,82	-84,00
3778,16	5,00
3781,50	-3,00
3784,84	-2,00
3788,18	5,00
>>>>>End Processed Spectral Data<<<<<
