SpectraSuite Data File
++++++++++++++++++++++++++++++++++++
Date: Tue Mar 03 11:23:04 ICT 2026
User: user
Dark Spectrum Present: Yes
Reference Spectrum Present: No
Number of Sampled Component Spectra: 1
Spectrometers: MAYP113682
Integration Time (usec): 3000000 (MAYP113682)
Spectra Averaged: 1 (MAYP113682)
Boxcar Smoothing: 0 (MAYP113682)
Correct for Electrical Dark: No (MAYP113682)
Strobe/Lamp Enabled: No (MAYP113682)
Correct for Detector Non-linearity: No (MAYP113682)
Correct for Stray Light: No (MAYP113682)
Number of Pixels in Processed Spectrum: 2068
>>>>>Begin Processed Spectral Data<<<<<
-37534,58	8,00
-37414,56	-4,00
-37295,11	0,00
-37176,24	7,00
-37057,95	96,00
-36940,22	213,00
-36823,05	162,00
-36706,45	71,00
-36590,40	136,00
-36474,90	86,00
-36359,95	152,00
-36245,55	152,00
-36131,68	11,00
-36018,35	112,00
-35905,55	145,00
-35793,29	152,00
-35681,54	185,00
-35570,32	60,00
-35459,62	145,00
-35349,43	250,00
-35239,75	9,00
-35130,58	168,00
-35021,91	85,00
-34913,74	175,00
-34806,07	99,00
-34698,89	124,00
-34592,20	180,00
-34486,00	34,00
-34380,28	171,00
-34275,04	116,00
-34170,27	108,00
-34065,98	87,00
-33962,16	87,00
-33858,81	96,00
-33755,92	146,00
-33653,49	142,00
-33551,52	65,00
-33450,01	112,00
-33348,94	153,00
-33248,33	87,00
-33148,16	164,00
-33048,43	172,00
-32949,14	156,00
-32850,29	145,00
-32751,87	253,00
-32653,89	-10,00
-32556,33	136,00
-32459,20	145,00
-32362,49	138,00
-32266,19	93,00
-32170,32	208,00
-32074,86	109,00
-31979,82	110,00
-31885,18	210,00
-31790,95	261,00
-31697,12	152,00
-31603,69	130,00
-31510,67	176,00
-31418,04	137,00
-31325,80	137,00
-31233,95	73,00
-31142,49	276,00
-31051,42	32,00
-30960,73	72,00
-30870,43	139,00
-30780,50	192,00
-30690,95	48,00
-30601,77	95,00
-30512,97	-46,00
-30424,53	119,00
-30336,46	136,00
-30248,76	27,00
-30161,42	210,00
-30074,44	221,00
-29987,81	38,00
-29901,55	32,00
-29815,63	112,00
-29730,07	64,00
-29644,86	95,00
-29560,00	46,00
-29475,48	272,00
-29391,30	128,00
-29307,47	78,00
-29223,97	180,00
-29140,81	187,00
-29057,99	186,00
-28975,50	117,00
-28893,34	119,00
-28811,51	-20,00
-28730,00	264,00
-28648,82	67,00
-28567,97	175,00
-28487,43	76,00
-28407,21	69,00
-28327,32	-51,00
-28247,73	197,00
-28168,46	186,00
-28089,50	3,00
-28010,85	112,00
-27932,51	7,00
-27854,48	99,00
-27776,75	83,00
-27699,32	65,00
-27622,19	51,00
-27545,37	86,00
-27468,84	229,00
-27392,60	64,00
-27316,66	166,00
-27241,01	198,00
-27165,66	234,00
-27090,59	103,00
-27015,81	59,00
-26941,31	139,00
-26867,10	61,00
-26793,17	54,00
-26719,52	35,00
-26646,15	257,00
-26573,06	172,00
-26500,24	170,00
-26427,70	22,00
-26355,43	173,00
-26283,43	119,00
-26211,71	42,00
-26140,25	6,00
-26069,06	200,00
-25998,13	130,00
-25927,46	134,00
-25857,06	119,00
-25786,92	30,00
-25717,04	158,00
-25647,42	24,00
-25578,05	176,00
-25508,94	233,00
-25440,09	167,00
-25371,48	76,00
-25303,13	32,00
-25235,02	112,00
-25167,17	279,00
-25099,56	190,00
-25032,19	43,00
-24965,07	68,00
-24898,20	50,00
-24831,56	250,00
-24765,17	136,00
-24699,01	162,00
-24633,10	99,00
-24567,41	201,00
-24501,97	219,00
-24436,75	161,00
-24371,77	90,00
-24307,03	52,00
-24242,51	194,00
-24178,22	257,00
-24114,16	300,00
-24050,32	171,00
-23986,71	180,00
-23923,32	236,00
-23860,16	206,00
-23797,22	80,00
-23734,50	219,00
-23672,00	126,00
-23609,71	-7,00
-23547,65	169,00
-23485,80	204,00
-23424,16	136,00
-23362,74	85,00
-23301,53	3,00
-23240,54	98,00
-23179,75	29,00
-23119,17	209,00
-23058,80	4,00
-22998,64	63,00
-22938,68	147,00
-22878,93	106,00
-22819,39	222,00
-22760,04	180,00
-22700,90	124,00
-22641,96	110,00
-22583,22	118,00
-22524,68	123,00
-22466,33	39,00
-22408,19	80,00
-22350,23	9,00
-22292,48	190,00
-22234,92	126,00
-22177,55	120,00
-22120,37	243,00
-22063,38	94,00
-22006,58	168,00
-21949,98	135,00
-21893,56	225,00
-21837,33	63,00
-21781,28	152,00
-21725,42	63,00
-21669,74	47,00
-21614,25	105,00
-21558,94	102,00
-21503,81	108,00
-21448,86	189,00
-21394,10	192,00
-21339,51	150,00
-21285,10	45,00
-21230,86	95,00
-21176,81	77,00
-21122,93	184,00
-21069,22	58,00
-21015,69	4,00
-20962,33	73,00
-20909,14	167,00
-20856,13	98,00
-20803,28	160,00
-20750,61	191,00
-20698,10	122,00
-20645,76	59,00
-20593,59	-6,00
-20541,59	238,00
-20489,75	4,00
-20438,07	95,00
-20386,56	62,00
-20335,22	128,00
-20284,03	120,00
-20233,01	187,00
-20182,15	146,00
-20131,45	144,00
-20080,91	168,00
-20030,52	97,00
-19980,30	139,00
-19930,23	36,00
-19880,32	129,00
-19830,56	108,00
-19780,96	154,00
-19731,52	191,00
-19682,23	89,00
-19633,09	192,00
-19584,10	82,00
-19535,26	179,00
-19486,58	123,00
-19438,04	225,00
-19389,66	225,00
-19341,42	236,00
-19293,33	143,00
-19245,39	89,00
-19197,60	52,00
-19149,95	233,00
-19102,45	89,00
-19055,09	112,00
-19007,87	216,00
-18960,80	193,00
-18913,87	136,00
-18867,09	-25,00
-18820,44	108,00
-18773,94	182,00
-18727,57	118,00
-18681,35	16,00
-18635,26	137,00
-18589,31	211,00
-18543,50	235,00
-18497,83	114,00
-18452,29	163,00
-18406,89	96,00
-18361,63	21,00
-18316,50	28,00
-18271,50	147,00
-18226,63	7,00
-18181,90	200,00
-18137,30	125,00
-18092,84	144,00
-18048,50	122,00
-18004,29	117,00
-17960,22	171,00
-17916,27	104,00
-17872,45	134,00
-17828,76	-19,00
-17785,20	176,00
-17741,77	120,00
-17698,46	137,00
-17655,28	79,00
-17612,22	3,00
-17569,29	62,00
-17526,48	154,00
-17483,79	205,00
-17441,23	85,00
-17398,79	79,00
-17356,48	119,00
-17314,28	116,00
-17272,21	164,00
-17230,26	113,00
-17188,42	210,00
-17146,71	145,00
-17105,12	110,00
-17063,64	180,00
-17022,28	52,00
-16981,04	143,00
-16939,92	150,00
-16898,91	194,00
-16858,02	-27,00
-16817,25	280,00
-16776,59	70,00
-16736,04	155,00
-16695,61	196,00
-16655,29	166,00
-16615,09	141,00
-16574,99	179,00
-16535,01	147,00
-16495,15	17,00
-16455,39	144,00
-16415,74	-65,00
-16376,21	248,00
-16336,78	167,00
-16297,46	145,00
-16258,26	112,00
-16219,16	-6,00
-16180,17	121,00
-16141,28	171,00
-16102,51	146,00
-16063,84	96,00
-16025,27	22,00
-15986,82	169,00
-15948,46	169,00
-15910,22	82,00
-15872,07	131,00
-15834,04	138,00
-15796,10	136,00
-15758,27	188,00
-15720,54	127,00
-15682,91	81,00
-15645,39	209,00
-15607,97	19,00
-15570,64	59,00
-15533,42	208,00
-15496,30	84,00
-15459,28	132,00
-15422,36	183,00
-15385,54	66,00
-15348,82	118,00
-15312,19	168,00
-15275,66	132,00
-15239,23	162,00
-15202,90	175,00
-15166,67	172,00
-15130,53	151,00
-15094,48	17,00
-15058,54	133,00
-15022,68	156,00
-14986,93	41,00
-14951,26	97,00
-14915,69	234,00
-14880,22	30,00
-14844,84	60,00
-14809,55	90,00
-14774,35	78,00
-14739,25	164,00
-14704,24	177,00
-14669,32	103,00
-14634,49	164,00
-14599,75	124,00
-14565,10	106,00
-14530,55	235,00
-14496,08	11,00
-14461,70	156,00
-14427,41	236,00
-14393,21	126,00
-14359,10	213,00
-14325,07	167,00
-14291,14	101,00
-14257,29	41,00
-14223,52	219,00
-14189,85	112,00
-14156,26	165,00
-14122,76	143,00
-14089,34	173,00
-14056,01	93,00
-14022,76	98,00
-13989,60	92,00
-13956,52	149,00
-13923,53	168,00
-13890,62	206,00
-13857,79	226,00
-13825,05	151,00
-13792,39	148,00
-13759,81	95,00
-13727,31	-28,00
-13694,90	106,00
-13662,57	162,00
-13630,31	231,00
-13598,14	99,00
-13566,05	59,00
-13534,05	139,00
-13502,12	207,00
-13470,27	228,00
-13438,50	238,00
-13406,80	167,00
-13375,19	13,00
-13343,66	39,00
-13312,20	174,00
-13280,83	129,00
-13249,53	175,00
-13218,30	51,00
-13187,16	50,00
-13156,09	113,00
-13125,10	212,00
-13094,18	154,00
-13063,34	151,00
-13032,58	72,00
-13001,89	82,00
-12971,28	105,00
-12940,74	98,00
-12910,27	72,00
-12879,88	-43,00
-12849,57	191,00
-12819,33	235,00
-12789,16	199,00
-12759,06	42,00
-12729,04	135,00
-12699,09	1711,00
-12669,21	159,00
-12639,41	11,00
-12609,68	51,00
-12580,02	246,00
-12550,43	129,00
-12520,91	140,00
-12491,46	151,00
-12462,08	156,00
-12432,77	113,00
-12403,54	305,00
-12374,37	234,00
-12345,27	196,00
-12316,24	38,00
-12287,29	43,00
-12258,40	118,00
-12229,57	13,00
-12200,82	131,00
-12172,14	170,00
-12143,52	52,00
-12114,97	178,00
-12086,49	184,00
-12058,07	227,00
-12029,73	109,00
-12001,44	120,00
-11973,23	128,00
-11945,08	189,00
-11917,00	153,00
-11888,98	133,00
-11861,03	35,00
-11833,15	236,00
-11805,32	164,00
-11777,57	144,00
-11749,88	75,00
-11722,25	127,00
-11694,69	81,00
-11667,19	77,00
-11639,75	120,00
-11612,38	146,00
-11585,07	87,00
-11557,83	125,00
-11530,65	92,00
-11503,53	102,00
-11476,47	51,00
-11449,48	113,00
-11422,54	225,00
-11395,67	212,00
-11368,86	109,00
-11342,11	178,00
-11315,43	123,00
-11288,80	112,00
-11262,23	118,00
-11235,73	94,00
-11209,28	204,00
-11182,90	127,00
-11156,57	322,00
-11130,31	183,00
-11104,10	97,00
-11077,96	158,00
-11051,87	164,00
-11025,84	161,00
-10999,87	164,00
-10973,96	122,00
-10948,11	142,00
-10922,31	258,00
-10896,58	247,00
-10870,90	244,00
-10845,28	200,00
-10819,71	257,00
-10794,20	166,00
-10768,75	167,00
-10743,36	186,00
-10718,02	155,00
-10692,74	196,00
-10667,52	233,00
-10642,35	204,00
-10617,24	184,00
-10592,18	248,00
-10567,18	239,00
-10542,23	99,00
-10517,34	246,00
-10492,51	356,00
-10467,72	231,00
-10443,00	115,00
-10418,32	202,00
-10393,70	241,00
-10369,14	208,00
-10344,63	296,00
-10320,17	281,00
-10295,77	343,00
-10271,42	242,00
-10247,12	416,00
-10222,88	306,00
-10198,68	380,00
-10174,54	440,00
-10150,46	397,00
-10126,42	454,00
-10102,44	522,00
-10078,51	540,00
-10054,63	525,00
-10030,80	477,00
-10007,03	472,00
-9983,30	584,00
-9959,63	591,00
-9936,01	808,00
-9912,44	617,00
-9888,92	726,00
-9865,44	700,00
-9842,02	750,00
-9818,65	745,00
-9795,33	746,00
-9772,06	785,00
-9748,84	934,00
-9725,67	946,00
-9702,55	1002,00
-9679,47	1382,00
-9656,45	1341,00
-9633,47	1363,00
-9610,55	1405,00
-9587,67	1413,00
-9564,84	1485,00
-9542,06	1805,00
-9519,32	1732,00
-9496,64	2101,00
-9474,00	2233,00
-9451,41	2278,00
-9428,87	2174,00
-9406,37	2097,00
-9383,92	1884,00
-9361,52	1803,00
-9339,17	1945,00
-9316,86	2195,00
-9294,60	2567,00
-9272,38	2692,00
-9250,21	2921,00
-9228,09	2833,00
-9206,01	2748,00
-9183,98	2426,00
-9162,00	2187,00
-9140,06	1969,00
-9118,16	1954,00
-9096,31	2013,00
-9074,51	2209,00
-9052,75	2334,00
-9031,04	2069,00
-9009,37	1811,00
-8987,74	1656,00
-8966,16	1470,00
-8944,63	1365,00
-8923,14	1253,00
-8901,69	1375,00
-8880,29	1576,00
-8858,93	1790,00
-8837,61	1747,00
-8816,34	1913,00
-8795,11	1952,00
-8773,92	1706,00
-8752,78	1686,00
-8731,68	1318,00
-8710,62	1520,00
-8689,61	1642,00
-8668,63	1706,00
-8647,70	1835,00
-8626,82	1876,00
-8605,97	1650,00
-8585,17	1642,00
-8564,41	1569,00
-8543,69	1332,00
-8523,01	1373,00
-8502,37	1445,00
-8481,78	1426,00
-8461,23	1541,00
-8440,71	1606,00
-8420,24	1639,00
-8399,81	1657,00
-8379,42	1640,00
-8359,08	1620,00
-8338,77	1483,00
-8318,50	1331,00
-8298,27	1298,00
-8278,09	1407,00
-8257,94	1423,00
-8237,83	1539,00
-8217,76	1630,00
-8197,74	1761,00
-8177,75	1646,00
-8157,80	1446,00
-8137,89	1449,00
-8118,02	1251,00
-8098,19	1368,00
-8078,40	1358,00
-8058,65	1521,00
-8038,93	1532,00
-8019,26	1528,00
-7999,62	1380,00
-7980,02	1376,00
-7960,46	1207,00
-7940,94	1448,00
-7921,46	1209,00
-7902,01	1119,00
-7882,60	1214,00
-7863,23	1267,00
-7843,90	1300,00
-7824,61	1384,00
-7805,35	1422,00
-7786,13	1470,00
-7766,95	1337,00
-7747,80	1446,00
-7728,69	1252,00
-7709,62	1338,00
-7690,59	1462,00
-7671,59	1545,00
-7652,63	1457,00
-7633,70	1482,00
-7614,81	1520,00
-7595,96	1494,00
-7577,15	1200,00
-7558,37	1079,00
-7539,62	1322,00
-7520,91	1378,00
-7502,24	1512,00
-7483,60	1351,00
-7465,00	1429,00
-7446,44	1184,00
-7427,91	1057,00
-7409,41	995,00
-7390,95	977,00
-7372,53	972,00
-7354,14	840,00
-7335,78	853,00
-7317,46	1001,00
-7299,18	1235,00
-7280,92	1299,00
-7262,71	1338,00
-7244,52	1468,00
-7226,38	1463,00
-7208,26	1354,00
-7190,18	1366,00
-7172,14	1351,00
-7154,12	1136,00
-7136,15	1262,00
-7118,20	1241,00
-7100,29	1472,00
-7082,41	1422,00
-7064,57	1311,00
-7046,76	1297,00
-7028,98	1116,00
-7011,24	915,00
-6993,53	980,00
-6975,85	756,00
-6958,20	723,00
-6940,59	622,00
-6923,01	656,00
-6905,46	903,00
-6887,94	1045,00
-6870,46	1291,00
-6853,01	1261,00
-6835,59	1235,00
-6818,21	987,00
-6800,85	1061,00
-6783,53	782,00
-6766,24	671,00
-6748,98	640,00
-6731,76	506,00
-6714,56	597,00
-6697,40	491,00
-6680,26	684,00
-6663,16	688,00
-6646,09	814,00
-6629,05	1115,00
-6612,05	1034,00
-6595,07	1036,00
-6578,13	970,00
-6561,21	786,00
-6544,33	565,00
-6527,47	595,00
-6510,65	512,00
-6493,86	444,00
-6477,10	593,00
-6460,36	687,00
-6443,66	459,00
-6426,99	485,00
-6410,35	485,00
-6393,74	636,00
-6377,16	620,00
-6360,61	718,00
-6344,09	775,00
-6327,59	720,00
-6311,13	832,00
-6294,70	778,00
-6278,29	817,00
-6261,92	901,00
-6245,58	920,00
-6229,26	940,00
-6212,97	823,00
-6196,72	826,00
-6180,49	608,00
-6164,29	403,00
-6148,12	210,00
-6131,98	265,00
-6115,86	214,00
-6099,78	304,00
-6083,72	458,00
-6067,69	354,00
-6051,69	331,00
-6035,72	381,00
-6019,78	320,00
-6003,87	586,00
-5987,98	637,00
-5972,12	764,00
-5956,29	707,00
-5940,49	579,00
-5924,71	425,00
-5908,96	544,00
-5893,24	243,00
-5877,55	329,00
-5861,89	403,00
-5846,25	345,00
-5830,64	382,00
-5815,05	385,00
-5799,50	494,00
-5783,97	472,00
-5768,47	519,00
-5752,99	619,00
-5737,55	679,00
-5722,12	637,00
-5706,73	699,00
-5691,36	555,00
-5676,02	440,00
-5660,71	361,00
-5645,42	379,00
-5630,16	349,00
-5614,92	593,00
-5599,71	459,00
-5584,53	565,00
-5569,37	587,00
-5554,24	595,00
-5539,14	546,00
-5524,06	412,00
-5509,01	501,00
-5493,98	477,00
-5478,98	552,00
-5464,00	405,00
-5449,05	479,00
-5434,13	540,00
-5419,23	428,00
-5404,36	391,00
-5389,51	584,00
-5374,69	610,00
-5359,89	848,00
-5345,12	810,00
-5330,37	675,00
-5315,65	610,00
-5300,95	366,00
-5286,28	401,00
-5271,63	520,00
-5257,01	553,00
-5242,41	518,00
-5227,84	328,00
-5213,29	272,00
-5198,76	314,00
-5184,26	199,00
-5169,79	335,00
-5155,33	331,00
-5140,91	563,00
-5126,51	524,00
-5112,13	601,00
-5097,77	441,00
-5083,44	281,00
-5069,13	234,00
-5054,85	322,00
-5040,59	359,00
-5026,36	540,00
-5012,15	456,00
-4997,96	510,00
-4983,80	427,00
-4969,66	384,00
-4955,54	368,00
-4941,44	317,00
-4927,37	629,00
-4913,33	731,00
-4899,30	769,00
-4885,30	836,00
-4871,33	540,00
-4857,37	376,00
-4843,44	305,00
-4829,53	336,00
-4815,65	273,00
-4801,79	343,00
-4787,95	440,00
-4774,13	191,00
-4760,34	262,00
-4746,56	260,00
-4732,82	296,00
-4719,09	341,00
-4705,38	545,00
-4691,70	654,00
-4678,04	595,00
-4664,41	628,00
-4650,79	304,00
-4637,20	184,00
-4623,63	237,00
-4610,08	497,00
-4596,56	604,00
-4583,05	493,00
-4569,57	413,00
-4556,11	341,00
-4542,67	288,00
-4529,25	371,00
-4515,86	374,00
-4502,49	593,00
-4489,13	687,00
-4475,80	610,00
-4462,49	348,00
-4449,21	246,00
-4435,94	327,00
-4422,70	349,00
-4409,47	436,00
-4396,27	523,00
-4383,09	390,00
-4369,93	296,00
-4356,79	217,00
-4343,67	202,00
-4330,58	295,00
-4317,50	296,00
-4304,45	270,00
-4291,41	405,00
-4278,40	262,00
-4265,41	185,00
-4252,44	263,00
-4239,49	357,00
-4226,55	517,00
-4213,65	328,00
-4200,76	287,00
-4187,89	240,00
-4175,04	142,00
-4162,21	184,00
-4149,40	152,00
-4136,61	196,00
-4123,85	235,00
-4111,10	136,00
-4098,37	345,00
-4085,66	256,00
-4072,98	76,00
-4060,31	71,00
-4047,66	301,00
-4035,04	359,00
-4022,43	147,00
-4009,84	169,00
-3997,27	146,00
-3984,72	26,00
-3972,19	140,00
-3959,69	27,00
-3947,20	203,00
-3934,73	102,00
-3922,27	161,00
-3909,84	145,00
-3897,43	148,00
-3885,04	131,00
-3872,67	211,00
-3860,31	256,00
-3847,98	124,00
-3835,66	157,00
-3823,36	124,00
-3811,09	167,00
-3798,83	104,00
-3786,59	70,00
-3774,37	99,00
-3762,17	128,00
-3749,98	243,00
-3737,82	123,00
-3725,67	276,00
-3713,55	52,00
-3701,44	183,00
-3689,35	236,00
-3677,28	81,00
-3665,22	77,00
-3653,19	90,00
-3641,17	103,00
-3629,18	213,00
-3617,20	155,00
-3605,24	104,00
-3593,30	77,00
-3581,37	111,00
-3569,47	114,00
-3557,58	187,00
-3545,71	172,00
-3533,86	70,00
-3522,02	121,00
-3510,21	253,00
-3498,41	-18,00
-3486,63	124,00
-3474,87	111,00
-3463,12	117,00
-3451,40	42,00
-3439,69	91,00
-3428,00	124,00
-3416,33	124,00
-3404,67	206,00
-3393,03	63,00
-3381,41	58,00
-3369,81	149,00
-3358,22	134,00
-3346,66	174,00
-3335,10	58,00
-3323,57	-12,00
-3312,06	49,00
-3300,56	206,00
-3289,08	42,00
-3277,61	-17,00
-3266,16	152,00
-3254,73	149,00
-3243,32	194,00
-3231,92	158,00
-3220,55	69,00
-3209,18	43,00
-3197,84	195,00
-3186,51	227,00
-3175,20	151,00
-3163,90	310,00
-3152,63	62,00
-3141,36	74,00
-3130,12	163,00
-3118,89	219,00
-3107,68	40,00
-3096,49	153,00
-3085,31	90,00
-3074,15	126,00
-3063,00	93,00
-3051,87	160,00
-3040,76	34,00
-3029,67	111,00
-3018,59	112,00
-3007,52	101,00
-2996,48	284,00
-2985,44	83,00
-2974,43	297,00
-2963,43	160,00
-2952,45	103,00
-2941,48	147,00
-2930,53	133,00
-2919,60	71,00
-2908,68	83,00
-2897,78	122,00
-2886,89	55,00
-2876,02	160,00
-2865,17	90,00
-2854,33	60,00
-2843,50	245,00
-2832,70	85,00
-2821,90	178,00
-2811,13	92,00
-2800,37	15,00
-2789,62	93,00
-2778,89	91,00
-2768,18	149,00
-2757,48	101,00
-2746,80	54,00
-2736,13	109,00
-2725,48	186,00
-2714,84	108,00
-2704,22	213,00
-2693,61	57,00
-2683,02	65,00
-2672,45	236,00
-2661,89	162,00
-2651,34	104,00
-2640,81	165,00
-2630,30	69,00
-2619,80	115,00
-2609,31	153,00
-2598,84	131,00
-2588,39	162,00
-2577,95	181,00
-2567,52	111,00
-2557,11	154,00
-2546,71	129,00
-2536,33	265,00
-2525,97	159,00
-2515,62	99,00
-2505,28	211,00
-2494,96	101,00
-2484,65	244,00
-2474,36	130,00
-2464,08	250,00
-2453,82	200,00
-2443,57	194,00
-2433,33	140,00
-2423,11	39,00
-2412,91	211,00
-2402,72	119,00
-2392,54	154,00
-2382,38	92,00
-2372,23	75,00
-2362,09	218,00
-2351,97	174,00
-2341,87	263,00
-2331,78	180,00
-2321,70	166,00
-2311,64	165,00
-2301,59	164,00
-2291,55	68,00
-2281,53	198,00
-2271,53	112,00
-2261,53	117,00
-2251,55	116,00
-2241,59	23,00
-2231,64	202,00
-2221,70	43,00
-2211,78	105,00
-2201,87	128,00
-2191,97	212,00
-2182,09	27,00
-2172,22	196,00
-2162,37	171,00
-2152,53	137,00
-2142,70	116,00
-2132,89	225,00
-2123,09	105,00
-2113,30	134,00
-2103,53	99,00
-2093,77	193,00
-2084,02	71,00
-2074,29	100,00
-2064,57	214,00
-2054,86	145,00
-2045,17	103,00
-2035,49	199,00
-2025,82	222,00
-2016,17	135,00
-2006,53	118,00
-1996,91	100,00
-1987,29	190,00
-1977,69	115,00
-1968,11	45,00
-1958,53	116,00
-1948,97	140,00
-1939,42	25,00
-1929,89	84,00
-1920,37	192,00
-1910,86	81,00
-1901,36	-3,00
-1891,88	81,00
-1882,41	133,00
-1872,95	83,00
-1863,51	27,00
-1854,08	-24,00
-1844,66	143,00
-1835,26	148,00
-1825,86	121,00
-1816,48	219,00
-1807,11	109,00
-1797,76	154,00
-1788,42	128,00
-1779,09	127,00
-1769,77	91,00
-1760,47	147,00
-1751,17	99,00
-1741,89	132,00
-1732,63	230,00
-1723,37	128,00
-1714,13	215,00
-1704,90	136,00
-1695,68	74,00
-1686,48	202,00
-1677,29	179,00
-1668,11	183,00
-1658,94	142,00
-1649,78	95,00
-1640,64	103,00
-1631,51	119,00
-1622,39	148,00
-1613,28	153,00
-1604,19	184,00
-1595,10	190,00
-1586,03	138,00
-1576,97	120,00
-1567,93	42,00
-1558,89	64,00
-1549,87	161,00
-1540,86	233,00
-1531,86	85,00
-1522,87	115,00
-1513,90	208,00
-1504,93	192,00
-1495,98	162,00
-1487,04	197,00
-1478,12	226,00
-1469,20	69,00
-1460,30	260,00
-1451,40	143,00
-1442,52	136,00
-1433,65	115,00
-1424,80	178,00
-1415,95	73,00
-1407,12	130,00
-1398,30	172,00
-1389,48	181,00
-1380,69	78,00
-1371,90	98,00
-1363,12	97,00
-1354,36	-6,00
-1345,60	95,00
-1336,86	165,00
-1328,13	107,00
-1319,41	56,00
-1310,70	52,00
-1302,01	106,00
-1293,32	189,00
-1284,65	162,00
-1275,99	211,00
-1267,33	98,00
-1258,69	-98,00
-1250,06	109,00
-1241,45	97,00
-1232,84	182,00
-1224,25	169,00
-1215,66	118,00
-1207,09	17,00
-1198,53	125,00
-1189,97	269,00
-1181,43	76,00
-1172,91	95,00
-1164,39	215,00
-1155,88	134,00
-1147,38	33,00
-1138,90	121,00
-1130,43	71,00
-1121,96	118,00
-1113,51	169,00
-1105,07	50,00
-1096,64	198,00
-1088,22	79,00
-1079,81	142,00
-1071,41	170,00
-1063,02	106,00
-1054,65	148,00
-1046,28	182,00
-1037,92	72,00
-1029,58	56,00
-1021,24	75,00
-1012,92	207,00
-1004,61	113,00
-996,30	198,00
-988,01	136,00
-979,73	156,00
-971,46	192,00
-963,20	19,00
-954,95	192,00
-946,71	83,00
-938,48	167,00
-930,26	253,00
-922,06	201,00
-913,86	88,00
-905,67	254,00
-897,49	127,00
-889,33	94,00
-881,17	246,00
-873,02	166,00
-864,89	193,00
-856,76	98,00
-848,65	112,00
-840,54	135,00
-832,45	115,00
-824,36	17,00
-816,29	111,00
-808,22	94,00
-800,17	136,00
-792,12	45,00
-784,09	271,00
-776,06	175,00
-768,05	195,00
-760,04	154,00
-752,05	131,00
-744,07	237,00
-736,09	158,00
-728,13	223,00
-720,17	128,00
-712,23	222,00
-704,29	77,00
-696,37	67,00
-688,45	265,00
-680,55	246,00
-672,65	-13,00
-664,77	84,00
-656,89	88,00
-649,03	63,00
-641,17	280,00
-633,32	227,00
-625,49	248,00
-617,66	104,00
-609,84	129,00
-602,03	70,00
-594,23	193,00
-586,45	44,00
-578,67	136,00
-570,90	170,00
-563,14	126,00
-555,39	81,00
-547,65	89,00
-539,91	200,00
-532,19	124,00
-524,48	167,00
-516,78	165,00
-509,08	85,00
-501,40	133,00
-493,72	-57,00
-486,06	112,00
-478,40	4,00
-470,76	161,00
-463,12	73,00
-455,49	164,00
-447,87	13,00
-440,26	186,00
-432,66	88,00
-425,07	68,00
-417,49	138,00
-409,92	99,00
-402,35	142,00
-394,80	50,00
-387,25	212,00
-379,72	317,00
-372,19	182,00
-364,67	330,00
-357,17	29,00
-349,67	188,00
-342,18	128,00
-334,69	236,00
-327,22	224,00
-319,76	58,00
-312,30	274,00
-304,86	146,00
-297,42	151,00
-290,00	180,00
-282,58	261,00
-275,17	215,00
-267,77	171,00
-260,37	160,00
-252,99	243,00
-245,62	210,00
-238,25	150,00
-230,90	159,00
-223,55	186,00
-216,21	273,00
-208,88	179,00
-201,56	283,00
-194,25	422,00
-186,94	448,00
-179,65	340,00
-172,36	448,00
-165,08	442,00
-157,81	451,00
-150,55	662,00
-143,30	500,00
-136,06	646,00
-128,82	533,00
-121,60	678,00
-114,38	852,00
-107,17	898,00
-99,97	945,00
-92,78	1002,00
-85,60	1216,00
-78,42	1286,00
-71,25	1576,00
-64,10	1766,00
-56,95	2117,00
-49,81	2356,00
-42,67	3050,00
-35,55	3695,00
-28,43	5024,00
-21,33	8670,00
-14,23	29040,00
-7,14	54802,00
-0,05	54494,00
7,02	54069,00
14,09	54443,00
21,14	21589,00
28,19	9325,00
35,23	5894,00
42,27	4350,00
49,29	3827,00
56,31	3059,00
63,32	2510,00
70,32	2278,00
77,31	1905,00
84,29	1633,00
91,27	1470,00
98,23	1258,00
105,19	1139,00
112,14	1245,00
119,09	1722,00
126,02	2137,00
132,95	2464,00
139,87	2576,00
146,78	2276,00
153,68	2243,00
160,58	2330,00
167,46	2350,00
174,34	2233,00
181,21	2257,00
188,08	2077,00
194,93	2114,00
201,78	2055,00
208,62	2083,00
215,45	1979,00
222,27	1980,00
229,09	1970,00
235,90	1974,00
242,70	1841,00
249,49	2001,00
256,27	1886,00
263,05	1919,00
269,82	1775,00
276,58	1821,00
283,33	1910,00
290,08	1835,00
296,82	1893,00
303,55	1652,00
310,27	1724,00
316,98	1652,00
323,69	1705,00
330,39	1810,00
337,08	1757,00
343,76	1699,00
350,44	1786,00
357,11	1914,00
363,77	1498,00
370,42	1601,00
377,07	1589,00
383,71	1700,00
390,34	1523,00
396,96	1590,00
403,58	1664,00
410,19	1656,00
416,79	1668,00
423,38	1733,00
429,97	1648,00
436,55	1452,00
443,12	1572,00
449,68	1415,00
456,24	1250,00
462,79	1442,00
469,33	1426,00
475,86	1314,00
482,39	1458,00
488,91	1554,00
495,42	1342,00
501,93	1352,00
508,42	1402,00
514,91	1180,00
521,40	1323,00
527,87	1356,00
534,34	1386,00
540,80	1325,00
547,25	1182,00
553,70	1280,00
560,14	1264,00
566,57	1190,00
573,00	1214,00
579,41	1247,00
585,83	1269,00
592,23	1294,00
598,62	1312,00
605,01	1200,00
611,40	1095,00
617,77	1164,00
624,14	1156,00
630,50	984,00
636,85	1149,00
643,20	1232,00
649,54	1176,00
655,87	1105,00
662,20	1135,00
668,52	1132,00
674,83	1141,00
681,13	1159,00
687,43	1144,00
693,72	954,00
700,00	1093,00
706,28	1056,00
712,55	1102,00
718,81	1141,00
725,07	1078,00
731,32	1177,00
737,56	1192,00
743,79	1182,00
750,02	1130,00
756,24	1197,00
762,46	1024,00
768,67	1246,00
774,87	1151,00
781,06	1137,00
787,25	1105,00
793,43	1092,00
799,60	1026,00
805,77	998,00
811,93	1185,00
818,08	1038,00
824,23	1047,00
830,37	1082,00
836,50	1069,00
842,63	1077,00
848,75	1131,00
854,87	1182,00
860,97	1092,00
867,07	1146,00
873,17	1088,00
879,25	1111,00
885,33	1136,00
891,41	1057,00
897,47	1152,00
903,53	1143,00
909,59	1016,00
915,63	973,00
921,67	993,00
927,71	1136,00
933,74	1101,00
939,76	910,00
945,77	906,00
951,78	1060,00
957,78	929,00
963,78	848,00
969,77	833,00
975,75	891,00
981,72	992,00
987,69	781,00
993,66	869,00
999,61	1010,00
1005,56	1098,00
1011,51	914,00
1017,44	1029,00
1023,37	996,00
1029,30	1004,00
1035,22	1020,00
1041,13	1023,00
1047,03	1090,00
1052,93	981,00
1058,83	1378,00
1064,71	1358,00
1070,59	1182,00
1076,47	1115,00
1082,33	1050,00
1088,20	941,00
1094,05	1057,00
1099,90	979,00
1105,74	782,00
1111,58	967,00
1117,41	1054,00
1123,23	1298,00
1129,05	1407,00
1134,86	1222,00
1140,67	1148,00
1146,47	1026,00
1152,26	976,00
1158,05	881,00
1163,83	883,00
1169,60	901,00
1175,37	990,00
1181,13	865,00
1186,89	825,00
1192,64	864,00
1198,38	891,00
1204,12	777,00
1209,85	831,00
1215,58	917,00
1221,30	786,00
1227,02	888,00
1232,72	894,00
1238,43	907,00
1244,12	890,00
1249,81	831,00
1255,50	821,00
1261,17	874,00
1266,85	944,00
1272,51	1016,00
1278,17	1022,00
1283,83	1065,00
1289,47	1368,00
1295,12	1637,00
1300,75	1651,00
1306,38	1190,00
1312,01	1108,00
1317,63	1146,00
1323,24	906,00
1328,85	1043,00
1334,45	1122,00
1340,04	917,00
1345,63	957,00
1351,22	1030,00
1356,80	924,00
1362,37	1011,00
1367,93	1014,00
1373,49	1210,00
1379,05	910,00
1384,60	972,00
1390,14	1014,00
1395,68	943,00
1401,21	1003,00
1406,74	1115,00
1412,26	1039,00
1417,77	1211,00
1423,28	1283,00
1428,78	1236,00
1434,28	1520,00
1439,77	1835,00
1445,26	1724,00
1450,74	1676,00
1456,22	1646,00
1461,68	1565,00
1467,15	1464,00
1472,61	1206,00
1478,06	1051,00
1483,51	1081,00
1488,95	936,00
1494,38	980,00
1499,81	985,00
1505,24	859,00
1510,65	853,00
1516,07	765,00
1521,48	841,00
1526,88	765,00
1532,27	844,00
1537,67	883,00
1543,05	834,00
1548,43	833,00
1553,81	788,00
1559,18	860,00
1564,54	829,00
1569,90	785,00
1575,25	730,00
1580,60	708,00
1585,94	767,00
1591,28	756,00
1596,61	727,00
1601,93	918,00
1607,25	728,00
1612,57	823,00
1617,88	698,00
1623,18	766,00
1628,48	629,00
1633,77	797,00
1639,06	705,00
1644,34	742,00
1649,62	608,00
1654,89	748,00
1660,16	627,00
1665,42	706,00
1670,67	585,00
1675,92	615,00
1681,17	682,00
1686,41	728,00
1691,64	566,00
1696,87	681,00
1702,10	680,00
1707,32	645,00
1712,53	632,00
1717,74	748,00
1722,94	569,00
1728,14	663,00
1733,33	664,00
1738,52	568,00
1743,70	479,00
1748,88	673,00
1754,05	663,00
1759,22	596,00
1764,38	-981,00
1769,53	586,00
1774,69	671,00
1779,83	557,00
1784,97	517,00
1790,11	615,00
1795,24	502,00
1800,36	606,00
1805,48	484,00
1810,60	487,00
1815,71	477,00
1820,82	532,00
1825,92	587,00
1831,01	491,00
1836,10	681,00
1841,19	474,00
1846,26	577,00
1851,34	630,00
1856,41	476,00
1861,47	528,00
1866,53	507,00
1871,59	534,00
1876,64	532,00
1881,68	532,00
1886,72	521,00
1891,76	502,00
1896,79	432,00
1901,81	494,00
1906,83	558,00
1911,85	448,00
1916,86	474,00
1921,86	473,00
1926,86	408,00
1931,86	473,00
1936,85	427,00
1941,83	565,00
1946,81	367,00
1951,79	600,00
1956,76	464,00
1961,72	468,00
1966,68	495,00
1971,64	390,00
1976,59	456,00
1981,54	349,00
1986,48	453,00
1991,42	485,00
1996,35	425,00
2001,27	429,00
2006,20	404,00
2011,11	485,00
2016,03	393,00
2020,93	439,00
2025,84	472,00
2030,73	535,00
2035,63	218,00
2040,52	491,00
2045,40	569,00
2050,28	405,00
2055,15	282,00
2060,02	337,00
2064,89	324,00
2069,75	374,00
2074,60	351,00
2079,46	354,00
2084,30	376,00
2089,14	441,00
2093,98	323,00
2098,81	505,00
2103,64	401,00
2108,46	499,00
2113,28	369,00
2118,09	521,00
2122,90	435,00
2127,70	261,00
2132,50	377,00
2137,30	384,00
2142,09	310,00
2146,87	284,00
2151,66	327,00
2156,43	348,00
2161,20	337,00
2165,97	352,00
2170,73	316,00
2175,49	593,00
2180,24	306,00
2184,99	311,00
2189,74	428,00
2194,48	385,00
2199,21	342,00
2203,94	401,00
2208,67	541,00
2213,39	411,00
2218,11	337,00
2222,82	208,00
2227,53	381,00
2232,23	424,00
2236,93	307,00
2241,63	245,00
2246,32	398,00
2251,00	405,00
2255,68	280,00
2260,36	313,00
2265,03	435,00
2269,70	342,00
2274,36	310,00
2279,02	278,00
2283,68	280,00
2288,33	308,00
2292,97	228,00
2297,61	375,00
2302,25	329,00
2306,88	422,00
2311,51	352,00
2316,14	297,00
2320,75	317,00
2325,37	231,00
2329,98	363,00
2334,59	305,00
2339,19	303,00
2343,79	255,00
2348,38	272,00
2352,97	461,00
2357,55	269,00
2362,13	365,00
2366,71	333,00
2371,28	494,00
2375,85	304,00
2380,41	290,00
2384,97	351,00
2389,52	316,00
2394,07	290,00
2398,62	226,00
2403,16	440,00
2407,70	306,00
2412,23	251,00
2416,76	327,00
2421,29	287,00
2425,81	332,00
2430,32	283,00
2434,84	264,00
2439,34	335,00
2443,85	264,00
2448,35	253,00
2452,84	214,00
2457,33	287,00
2461,82	150,00
2466,30	232,00
2470,78	195,00
2475,25	256,00
2479,72	214,00
2484,19	368,00
2488,65	205,00
2493,11	287,00
2497,56	295,00
2502,01	249,00
2506,46	288,00
2510,90	179,00
2515,34	259,00
2519,77	302,00
2524,20	305,00
2528,62	183,00
2533,04	174,00
2537,46	230,00
2541,87	303,00
2546,28	259,00
2550,68	176,00
2555,08	108,00
2559,48	214,00
2563,87	426,00
2568,26	267,00
2572,64	210,00
2577,02	187,00
2581,40	243,00
2585,77	285,00
2590,14	197,00
2594,50	312,00
2598,86	255,00
2603,22	218,00
2607,57	268,00
2611,92	108,00
2616,26	256,00
2620,60	271,00
2624,94	263,00
2629,27	160,00
2633,60	342,00
2637,92	249,00
2642,24	323,00
2646,56	168,00
2650,87	201,00
2655,18	262,00
2659,48	145,00
2663,78	355,00
2668,08	293,00
2672,37	400,00
2676,66	328,00
2680,95	312,00
2685,23	315,00
2689,50	347,00
2693,78	201,00
2698,05	334,00
2702,31	404,00
2706,57	245,00
2710,83	355,00
2715,08	363,00
2719,33	353,00
2723,58	388,00
2727,82	411,00
2732,06	304,00
2736,29	403,00
2740,53	378,00
2744,75	296,00
2748,97	401,00
2753,19	316,00
2757,41	264,00
2761,62	352,00
2765,83	390,00
2770,03	382,00
2774,23	452,00
2778,43	373,00
2782,62	374,00
2786,81	447,00
2791,00	384,00
2795,18	365,00
2799,35	401,00
2803,53	399,00
2807,70	440,00
2811,86	358,00
2816,03	379,00
2820,19	551,00
2824,34	555,00
2828,49	474,00
2832,64	644,00
2836,78	730,00
2840,92	914,00
2845,06	1073,00
2849,19	1132,00
2853,32	1251,00
2857,45	1273,00
2861,57	1174,00
2865,69	1232,00
2869,80	1065,00
2873,91	1221,00
2878,02	1300,00
2882,12	1286,00
2886,22	1288,00
2890,32	1287,00
2894,41	1194,00
2898,50	1165,00
2902,58	1058,00
2906,67	1030,00
2910,74	957,00
2914,82	965,00
2918,89	834,00
2922,96	758,00
2927,02	776,00
2931,08	777,00
2935,13	618,00
2939,19	631,00
2943,24	625,00
2947,28	594,00
2951,32	647,00
2955,36	399,00
2959,40	473,00
2963,43	571,00
2967,46	455,00
2971,48	329,00
2975,50	342,00
2979,52	265,00
2983,53	326,00
2987,54	345,00
2991,55	333,00
2995,55	405,00
2999,55	250,00
3003,54	223,00
3007,54	42,00
3011,53	288,00
3015,51	182,00
3019,49	244,00
3023,47	234,00
3027,45	118,00
3031,42	163,00
3035,39	150,00
3039,35	160,00
3043,31	206,00
3047,27	169,00
3051,22	350,00
3055,17	284,00
3059,12	118,00
3063,06	286,00
3067,00	216,00
3070,94	262,00
3074,87	229,00
3078,80	135,00
3082,73	219,00
3086,65	240,00
3090,57	157,00
3094,49	202,00
3098,40	268,00
3102,31	121,00
3106,22	194,00
3110,12	293,00
3114,02	174,00
3117,92	268,00
3121,81	97,00
3125,70	140,00
3129,58	246,00
3133,47	160,00
3137,34	94,00
3141,22	256,00
3145,09	128,00
3148,96	211,00
3152,83	247,00
3156,69	251,00
3160,55	224,00
3164,40	158,00
3168,26	213,00
3172,10	123,00
3175,95	192,00
3179,79	315,00
3183,63	231,00
3187,47	246,00
3191,30	143,00
3195,13	112,00
3198,95	234,00
3202,78	100,00
3206,60	97,00
3210,41	181,00
3214,23	144,00
3218,03	239,00
3221,84	263,00
3225,64	123,00
3229,44	54,00
3233,24	118,00
3237,03	231,00
3240,82	204,00
3244,61	55,00
3248,39	185,00
3252,17	163,00
3255,95	63,00
3259,72	124,00
3263,49	154,00
3267,26	180,00
3271,03	56,00
3274,79	194,00
3278,54	42,00
3282,30	97,00
3286,05	229,00
3289,80	276,00
3293,54	165,00
3297,29	326,00
3301,02	141,00
3304,76	102,00
3308,49	84,00
3312,22	112,00
3315,95	217,00
3319,67	97,00
3323,39	119,00
3327,10	258,00
3330,82	131,00
3334,53	165,00
3338,24	112,00
3341,94	223,00
3345,64	234,00
3349,34	205,00
3353,03	116,00
3356,72	58,00
3360,41	236,00
3364,10	146,00
3367,78	120,00
3371,46	207,00
3375,13	76,00
3378,81	149,00
3382,48	148,00
3386,14	127,00
3389,81	202,00
3393,47	36,00
3397,12	220,00
3400,78	189,00
3404,43	85,00
3408,08	274,00
3411,72	64,00
3415,36	122,00
3419,00	132,00
3422,64	94,00
3426,27	161,00
3429,90	273,00
3433,53	174,00
3437,15	159,00
3440,77	158,00
3444,39	155,00
3448,00	146,00
3451,62	195,00
3455,22	98,00
3458,83	237,00
3462,43	68,00
3466,03	90,00
3469,63	97,00
3473,22	124,00
3476,81	219,00
3480,40	114,00
3483,99	181,00
3487,57	179,00
3491,15	-15,00
3494,72	79,00
3498,29	168,00
3501,86	126,00
3505,43	141,00
3508,99	31,00
3512,56	192,00
3516,11	133,00
3519,67	196,00
3523,22	166,00
3526,77	128,00
3530,32	119,00
3533,86	114,00
3537,40	205,00
3540,94	148,00
3544,47	150,00
3548,00	225,00
3551,53	165,00
3555,06	163,00
3558,58	89,00
3562,10	170,00
3565,62	213,00
3569,13	236,00
3572,64	135,00
3576,15	76,00
3579,66	178,00
3583,16	0,00
3586,66	122,00
3590,16	107,00
3593,65	282,00
3597,14	80,00
3600,63	161,00
3604,11	69,00
3607,60	153,00
3611,08	187,00
3614,55	192,00
3618,03	191,00
3621,50	24,00
3624,97	180,00
3628,43	216,00
3631,90	122,00
3635,36	69,00
3638,81	44,00
3642,27	138,00
3645,72	200,00
3649,17	146,00
3652,61	22,00
3656,06	185,00
3659,50	160,00
3662,93	6,00
3666,37	142,00
3669,80	-42,00
3673,23	81,00
3676,65	88,00
3680,08	73,00
3683,50	175,00
3686,92	62,00
3690,33	71,00
3693,74	111,00
3697,15	63,00
3700,56	62,00
3703,96	79,00
3707,36	207,00
3710,76	137,00
3714,16	56,00
3717,55	59,00
3720,94	86,00
3724,33	15,00
3727,71	271,00
3731,10	122,00
3734,48	74,00
3737,85	143,00
3741,23	119,00
3744,60	222,00
3747,97	139,00
3751,33	164,00
3754,69	113,00
3758,05	162,00
3761,41	141,00
3764,77	169,00
3768,12	49,00
3771,47	171,00
3774,82	78,00
3778,16	3,00
3781,50	0,00
3784,84	-7,00
3788,18	9,00
>>>>>End Processed Spectral Data<<<<<
