SpectraSuite Data File
++++++++++++++++++++++++++++++++++++
Date: Tue Mar 03 10:31:38 ICT 2026
User: user
Dark Spectrum Present: Yes
Reference Spectrum Present: No
Number of Sampled Component Spectra: 1
Spectrometers: MAYP113682
Integration Time (usec): 3000000 (MAYP113682)
Spectra Averaged: 1 (MAYP113682)
Boxcar Smoothing: 0 (MAYP113682)
Correct for Electrical Dark: No (MAYP113682)
Strobe/Lamp Enabled: No (MAYP113682)
Correct for Detector Non-linearity: No (MAYP113682)
Correct for Stray Light: No (MAYP113682)
Number of Pixels in Processed Spectrum: 2068
>>>>>Begin Processed Spectral Data<<<<<
-37534,58	26,00
-37414,56	-3,00
-37295,11	10,00
-37176,24	-3,00
-37057,95	517,00
-36940,22	510,00
-36823,05	471,00
-36706,45	629,00
-36590,40	543,00
-36474,90	514,00
-36359,95	594,00
-36245,55	546,00
-36131,68	619,00
-36018,35	550,00
-35905,55	563,00
-35793,29	676,00
-35681,54	535,00
-35570,32	435,00
-35459,62	532,00
-35349,43	614,00
-35239,75	558,00
-35130,58	525,00
-35021,91	569,00
-34913,74	583,00
-34806,07	610,00
-34698,89	566,00
-34592,20	581,00
-34486,00	564,00
-34380,28	627,00
-34275,04	588,00
-34170,27	493,00
-34065,98	597,00
-33962,16	583,00
-33858,81	596,00
-33755,92	682,00
-33653,49	750,00
-33551,52	676,00
-33450,01	621,00
-33348,94	631,00
-33248,33	586,00
-33148,16	600,00
-33048,43	598,00
-32949,14	761,00
-32850,29	706,00
-32751,87	683,00
-32653,89	673,00
-32556,33	736,00
-32459,20	591,00
-32362,49	581,00
-32266,19	565,00
-32170,32	648,00
-32074,86	644,00
-31979,82	631,00
-31885,18	629,00
-31790,95	726,00
-31697,12	625,00
-31603,69	613,00
-31510,67	767,00
-31418,04	689,00
-31325,80	615,00
-31233,95	708,00
-31142,49	654,00
-31051,42	655,00
-30960,73	704,00
-30870,43	712,00
-30780,50	508,00
-30690,95	580,00
-30601,77	683,00
-30512,97	659,00
-30424,53	610,00
-30336,46	640,00
-30248,76	600,00
-30161,42	633,00
-30074,44	637,00
-29987,81	615,00
-29901,55	614,00
-29815,63	660,00
-29730,07	677,00
-29644,86	651,00
-29560,00	709,00
-29475,48	563,00
-29391,30	523,00
-29307,47	575,00
-29223,97	720,00
-29140,81	506,00
-29057,99	653,00
-28975,50	667,00
-28893,34	665,00
-28811,51	595,00
-28730,00	569,00
-28648,82	583,00
-28567,97	672,00
-28487,43	579,00
-28407,21	657,00
-28327,32	666,00
-28247,73	782,00
-28168,46	644,00
-28089,50	639,00
-28010,85	629,00
-27932,51	615,00
-27854,48	545,00
-27776,75	636,00
-27699,32	648,00
-27622,19	664,00
-27545,37	624,00
-27468,84	754,00
-27392,60	682,00
-27316,66	578,00
-27241,01	647,00
-27165,66	660,00
-27090,59	667,00
-27015,81	632,00
-26941,31	709,00
-26867,10	621,00
-26793,17	587,00
-26719,52	617,00
-26646,15	621,00
-26573,06	584,00
-26500,24	630,00
-26427,70	646,00
-26355,43	688,00
-26283,43	643,00
-26211,71	716,00
-26140,25	749,00
-26069,06	849,00
-25998,13	592,00
-25927,46	647,00
-25857,06	566,00
-25786,92	655,00
-25717,04	612,00
-25647,42	722,00
-25578,05	550,00
-25508,94	655,00
-25440,09	688,00
-25371,48	650,00
-25303,13	646,00
-25235,02	562,00
-25167,17	614,00
-25099,56	688,00
-25032,19	581,00
-24965,07	553,00
-24898,20	576,00
-24831,56	728,00
-24765,17	698,00
-24699,01	649,00
-24633,10	619,00
-24567,41	619,00
-24501,97	702,00
-24436,75	575,00
-24371,77	646,00
-24307,03	596,00
-24242,51	625,00
-24178,22	522,00
-24114,16	534,00
-24050,32	760,00
-23986,71	682,00
-23923,32	584,00
-23860,16	575,00
-23797,22	601,00
-23734,50	653,00
-23672,00	569,00
-23609,71	590,00
-23547,65	631,00
-23485,80	629,00
-23424,16	520,00
-23362,74	635,00
-23301,53	740,00
-23240,54	557,00
-23179,75	605,00
-23119,17	668,00
-23058,80	633,00
-22998,64	519,00
-22938,68	605,00
-22878,93	665,00
-22819,39	568,00
-22760,04	622,00
-22700,90	715,00
-22641,96	617,00
-22583,22	623,00
-22524,68	541,00
-22466,33	608,00
-22408,19	591,00
-22350,23	606,00
-22292,48	626,00
-22234,92	722,00
-22177,55	809,00
-22120,37	711,00
-22063,38	591,00
-22006,58	675,00
-21949,98	586,00
-21893,56	555,00
-21837,33	654,00
-21781,28	805,00
-21725,42	568,00
-21669,74	661,00
-21614,25	617,00
-21558,94	669,00
-21503,81	624,00
-21448,86	768,00
-21394,10	629,00
-21339,51	474,00
-21285,10	529,00
-21230,86	574,00
-21176,81	621,00
-21122,93	576,00
-21069,22	642,00
-21015,69	499,00
-20962,33	544,00
-20909,14	560,00
-20856,13	589,00
-20803,28	623,00
-20750,61	579,00
-20698,10	657,00
-20645,76	519,00
-20593,59	738,00
-20541,59	635,00
-20489,75	637,00
-20438,07	564,00
-20386,56	577,00
-20335,22	605,00
-20284,03	587,00
-20233,01	523,00
-20182,15	610,00
-20131,45	643,00
-20080,91	599,00
-20030,52	614,00
-19980,30	627,00
-19930,23	585,00
-19880,32	725,00
-19830,56	613,00
-19780,96	586,00
-19731,52	588,00
-19682,23	616,00
-19633,09	647,00
-19584,10	587,00
-19535,26	532,00
-19486,58	747,00
-19438,04	678,00
-19389,66	636,00
-19341,42	609,00
-19293,33	597,00
-19245,39	727,00
-19197,60	642,00
-19149,95	663,00
-19102,45	654,00
-19055,09	608,00
-19007,87	524,00
-18960,80	612,00
-18913,87	729,00
-18867,09	587,00
-18820,44	644,00
-18773,94	571,00
-18727,57	686,00
-18681,35	640,00
-18635,26	621,00
-18589,31	503,00
-18543,50	545,00
-18497,83	516,00
-18452,29	567,00
-18406,89	502,00
-18361,63	699,00
-18316,50	556,00
-18271,50	605,00
-18226,63	657,00
-18181,90	665,00
-18137,30	539,00
-18092,84	708,00
-18048,50	636,00
-18004,29	544,00
-17960,22	590,00
-17916,27	560,00
-17872,45	640,00
-17828,76	605,00
-17785,20	655,00
-17741,77	618,00
-17698,46	667,00
-17655,28	571,00
-17612,22	553,00
-17569,29	649,00
-17526,48	513,00
-17483,79	565,00
-17441,23	659,00
-17398,79	623,00
-17356,48	591,00
-17314,28	701,00
-17272,21	723,00
-17230,26	641,00
-17188,42	584,00
-17146,71	684,00
-17105,12	657,00
-17063,64	691,00
-17022,28	540,00
-16981,04	666,00
-16939,92	606,00
-16898,91	643,00
-16858,02	562,00
-16817,25	642,00
-16776,59	527,00
-16736,04	633,00
-16695,61	660,00
-16655,29	524,00
-16615,09	658,00
-16574,99	671,00
-16535,01	622,00
-16495,15	643,00
-16455,39	589,00
-16415,74	589,00
-16376,21	707,00
-16336,78	435,00
-16297,46	596,00
-16258,26	545,00
-16219,16	489,00
-16180,17	588,00
-16141,28	589,00
-16102,51	536,00
-16063,84	600,00
-16025,27	615,00
-15986,82	552,00
-15948,46	606,00
-15910,22	546,00
-15872,07	629,00
-15834,04	467,00
-15796,10	596,00
-15758,27	759,00
-15720,54	623,00
-15682,91	654,00
-15645,39	732,00
-15607,97	654,00
-15570,64	566,00
-15533,42	565,00
-15496,30	499,00
-15459,28	654,00
-15422,36	496,00
-15385,54	544,00
-15348,82	609,00
-15312,19	575,00
-15275,66	588,00
-15239,23	594,00
-15202,90	561,00
-15166,67	536,00
-15130,53	500,00
-15094,48	638,00
-15058,54	673,00
-15022,68	592,00
-14986,93	549,00
-14951,26	593,00
-14915,69	625,00
-14880,22	550,00
-14844,84	606,00
-14809,55	532,00
-14774,35	679,00
-14739,25	657,00
-14704,24	581,00
-14669,32	522,00
-14634,49	614,00
-14599,75	709,00
-14565,10	582,00
-14530,55	689,00
-14496,08	548,00
-14461,70	625,00
-14427,41	512,00
-14393,21	641,00
-14359,10	588,00
-14325,07	684,00
-14291,14	599,00
-14257,29	711,00
-14223,52	639,00
-14189,85	777,00
-14156,26	605,00
-14122,76	587,00
-14089,34	627,00
-14056,01	519,00
-14022,76	608,00
-13989,60	502,00
-13956,52	566,00
-13923,53	573,00
-13890,62	596,00
-13857,79	589,00
-13825,05	586,00
-13792,39	559,00
-13759,81	596,00
-13727,31	650,00
-13694,90	622,00
-13662,57	628,00
-13630,31	577,00
-13598,14	627,00
-13566,05	608,00
-13534,05	672,00
-13502,12	576,00
-13470,27	581,00
-13438,50	641,00
-13406,80	630,00
-13375,19	572,00
-13343,66	542,00
-13312,20	674,00
-13280,83	524,00
-13249,53	629,00
-13218,30	555,00
-13187,16	638,00
-13156,09	798,00
-13125,10	685,00
-13094,18	562,00
-13063,34	796,00
-13032,58	461,00
-13001,89	573,00
-12971,28	676,00
-12940,74	590,00
-12910,27	631,00
-12879,88	727,00
-12849,57	723,00
-12819,33	658,00
-12789,16	574,00
-12759,06	607,00
-12729,04	626,00
-12699,09	2424,00
-12669,21	497,00
-12639,41	608,00
-12609,68	582,00
-12580,02	616,00
-12550,43	636,00
-12520,91	602,00
-12491,46	515,00
-12462,08	640,00
-12432,77	663,00
-12403,54	628,00
-12374,37	615,00
-12345,27	704,00
-12316,24	545,00
-12287,29	628,00
-12258,40	532,00
-12229,57	500,00
-12200,82	589,00
-12172,14	525,00
-12143,52	562,00
-12114,97	503,00
-12086,49	608,00
-12058,07	744,00
-12029,73	501,00
-12001,44	845,00
-11973,23	593,00
-11945,08	715,00
-11917,00	664,00
-11888,98	632,00
-11861,03	642,00
-11833,15	666,00
-11805,32	622,00
-11777,57	693,00
-11749,88	675,00
-11722,25	593,00
-11694,69	517,00
-11667,19	606,00
-11639,75	784,00
-11612,38	564,00
-11585,07	611,00
-11557,83	648,00
-11530,65	651,00
-11503,53	649,00
-11476,47	660,00
-11449,48	537,00
-11422,54	642,00
-11395,67	679,00
-11368,86	599,00
-11342,11	589,00
-11315,43	583,00
-11288,80	484,00
-11262,23	780,00
-11235,73	595,00
-11209,28	617,00
-11182,90	768,00
-11156,57	698,00
-11130,31	666,00
-11104,10	565,00
-11077,96	668,00
-11051,87	581,00
-11025,84	734,00
-10999,87	670,00
-10973,96	682,00
-10948,11	645,00
-10922,31	699,00
-10896,58	646,00
-10870,90	762,00
-10845,28	603,00
-10819,71	544,00
-10794,20	720,00
-10768,75	612,00
-10743,36	718,00
-10718,02	569,00
-10692,74	684,00
-10667,52	572,00
-10642,35	631,00
-10617,24	772,00
-10592,18	773,00
-10567,18	740,00
-10542,23	753,00
-10517,34	798,00
-10492,51	745,00
-10467,72	676,00
-10443,00	733,00
-10418,32	843,00
-10393,70	775,00
-10369,14	754,00
-10344,63	738,00
-10320,17	943,00
-10295,77	786,00
-10271,42	925,00
-10247,12	879,00
-10222,88	886,00
-10198,68	820,00
-10174,54	941,00
-10150,46	1084,00
-10126,42	947,00
-10102,44	1164,00
-10078,51	983,00
-10054,63	1192,00
-10030,80	1126,00
-10007,03	1223,00
-9983,30	1112,00
-9959,63	1155,00
-9936,01	1263,00
-9912,44	1249,00
-9888,92	1195,00
-9865,44	1231,00
-9842,02	1338,00
-9818,65	1390,00
-9795,33	1315,00
-9772,06	1309,00
-9748,84	1447,00
-9725,67	1574,00
-9702,55	1791,00
-9679,47	2005,00
-9656,45	2093,00
-9633,47	2017,00
-9610,55	2116,00
-9587,67	2291,00
-9564,84	2353,00
-9542,06	2535,00
-9519,32	2850,00
-9496,64	3056,00
-9474,00	3058,00
-9451,41	3177,00
-9428,87	3110,00
-9406,37	3031,00
-9383,92	2812,00
-9361,52	2815,00
-9339,17	2921,00
-9316,86	2996,00
-9294,60	3372,00
-9272,38	3746,00
-9250,21	3853,00
-9228,09	3978,00
-9206,01	3854,00
-9183,98	3340,00
-9162,00	3110,00
-9140,06	2942,00
-9118,16	2912,00
-9096,31	2976,00
-9074,51	3014,00
-9052,75	3242,00
-9031,04	3007,00
-9009,37	2646,00
-8987,74	2580,00
-8966,16	2279,00
-8944,63	2074,00
-8923,14	2137,00
-8901,69	2178,00
-8880,29	2268,00
-8858,93	2396,00
-8837,61	2629,00
-8816,34	2735,00
-8795,11	2843,00
-8773,92	2711,00
-8752,78	2479,00
-8731,68	2316,00
-8710,62	2337,00
-8689,61	2436,00
-8668,63	2525,00
-8647,70	2728,00
-8626,82	2793,00
-8605,97	2658,00
-8585,17	2472,00
-8564,41	2250,00
-8543,69	2140,00
-8523,01	2055,00
-8502,37	2222,00
-8481,78	2184,00
-8461,23	2227,00
-8440,71	2394,00
-8420,24	2516,00
-8399,81	2593,00
-8379,42	2547,00
-8359,08	2386,00
-8338,77	2227,00
-8318,50	2020,00
-8298,27	2091,00
-8278,09	2120,00
-8257,94	2206,00
-8237,83	2379,00
-8217,76	2422,00
-8197,74	2388,00
-8177,75	2484,00
-8157,80	2300,00
-8137,89	2137,00
-8118,02	2058,00
-8098,19	2165,00
-8078,40	2139,00
-8058,65	2307,00
-8038,93	2192,00
-8019,26	2267,00
-7999,62	2224,00
-7980,02	2009,00
-7960,46	2086,00
-7940,94	2008,00
-7921,46	2032,00
-7902,01	1888,00
-7882,60	1926,00
-7863,23	1960,00
-7843,90	2056,00
-7824,61	2146,00
-7805,35	2256,00
-7786,13	2227,00
-7766,95	2252,00
-7747,80	2078,00
-7728,69	2103,00
-7709,62	1931,00
-7690,59	2238,00
-7671,59	2248,00
-7652,63	2279,00
-7633,70	2333,00
-7614,81	2403,00
-7595,96	2142,00
-7577,15	1996,00
-7558,37	1957,00
-7539,62	2037,00
-7520,91	2169,00
-7502,24	2213,00
-7483,60	2341,00
-7465,00	2169,00
-7446,44	1989,00
-7427,91	1643,00
-7409,41	1745,00
-7390,95	1683,00
-7372,53	1702,00
-7354,14	1581,00
-7335,78	1627,00
-7317,46	1688,00
-7299,18	1813,00
-7280,92	1976,00
-7262,71	2220,00
-7244,52	2308,00
-7226,38	2243,00
-7208,26	2319,00
-7190,18	1993,00
-7172,14	1975,00
-7154,12	1864,00
-7136,15	2026,00
-7118,20	2132,00
-7100,29	2203,00
-7082,41	2220,00
-7064,57	2185,00
-7046,76	1988,00
-7028,98	1815,00
-7011,24	1826,00
-6993,53	1517,00
-6975,85	1463,00
-6958,20	1445,00
-6940,59	1405,00
-6923,01	1346,00
-6905,46	1489,00
-6887,94	1746,00
-6870,46	-58,00
-6853,01	2146,00
-6835,59	2070,00
-6818,21	1914,00
-6800,85	1721,00
-6783,53	1398,00
-6766,24	1294,00
-6748,98	1179,00
-6731,76	1208,00
-6714,56	1179,00
-6697,40	1080,00
-6680,26	1158,00
-6663,16	1282,00
-6646,09	1522,00
-6629,05	1645,00
-6612,05	1697,00
-6595,07	1702,00
-6578,13	1757,00
-6561,21	1471,00
-6544,33	1319,00
-6527,47	1008,00
-6510,65	1075,00
-6493,86	1065,00
-6477,10	1141,00
-6460,36	1141,00
-6443,66	1052,00
-6426,99	1037,00
-6410,35	1076,00
-6393,74	1161,00
-6377,16	1184,00
-6360,61	1324,00
-6344,09	1282,00
-6327,59	1292,00
-6311,13	1351,00
-6294,70	1435,00
-6278,29	1457,00
-6261,92	1589,00
-6245,58	1577,00
-6229,26	1573,00
-6212,97	1435,00
-6196,72	1357,00
-6180,49	1042,00
-6164,29	1030,00
-6148,12	966,00
-6131,98	860,00
-6115,86	867,00
-6099,78	815,00
-6083,72	716,00
-6067,69	774,00
-6051,69	751,00
-6035,72	822,00
-6019,78	961,00
-6003,87	1132,00
-5987,98	1289,00
-5972,12	1316,00
-5956,29	1461,00
-5940,49	1299,00
-5924,71	1140,00
-5908,96	900,00
-5893,24	879,00
-5877,55	800,00
-5861,89	881,00
-5846,25	921,00
-5830,64	942,00
-5815,05	894,00
-5799,50	928,00
-5783,97	930,00
-5768,47	959,00
-5752,99	1235,00
-5737,55	1180,00
-5722,12	1398,00
-5706,73	1288,00
-5691,36	1262,00
-5676,02	1055,00
-5660,71	1024,00
-5645,42	848,00
-5630,16	1005,00
-5614,92	1105,00
-5599,71	991,00
-5584,53	1211,00
-5569,37	1165,00
-5554,24	1343,00
-5539,14	965,00
-5524,06	984,00
-5509,01	1014,00
-5493,98	1020,00
-5478,98	1071,00
-5464,00	897,00
-5449,05	1014,00
-5434,13	853,00
-5419,23	938,00
-5404,36	1004,00
-5389,51	1059,00
-5374,69	1245,00
-5359,89	1541,00
-5345,12	1515,00
-5330,37	1430,00
-5315,65	1324,00
-5300,95	1145,00
-5286,28	990,00
-5271,63	1004,00
-5257,01	947,00
-5242,41	1011,00
-5227,84	987,00
-5213,29	976,00
-5198,76	829,00
-5184,26	815,00
-5169,79	855,00
-5155,33	1047,00
-5140,91	1100,00
-5126,51	1171,00
-5112,13	1087,00
-5097,77	1081,00
-5083,44	962,00
-5069,13	920,00
-5054,85	881,00
-5040,59	991,00
-5026,36	1067,00
-5012,15	1198,00
-4997,96	1028,00
-4983,80	918,00
-4969,66	870,00
-4955,54	831,00
-4941,44	1014,00
-4927,37	1101,00
-4913,33	1412,00
-4899,30	1489,00
-4885,30	1412,00
-4871,33	1210,00
-4857,37	1048,00
-4843,44	801,00
-4829,53	883,00
-4815,65	1087,00
-4801,79	908,00
-4787,95	937,00
-4774,13	865,00
-4760,34	807,00
-4746,56	786,00
-4732,82	769,00
-4719,09	895,00
-4705,38	1262,00
-4691,70	1334,00
-4678,04	1418,00
-4664,41	1150,00
-4650,79	1051,00
-4637,20	843,00
-4623,63	851,00
-4610,08	1003,00
-4596,56	1169,00
-4583,05	1119,00
-4569,57	1046,00
-4556,11	881,00
-4542,67	736,00
-4529,25	805,00
-4515,86	1037,00
-4502,49	1241,00
-4489,13	1339,00
-4475,80	1142,00
-4462,49	898,00
-4449,21	961,00
-4435,94	766,00
-4422,70	812,00
-4409,47	976,00
-4396,27	952,00
-4383,09	942,00
-4369,93	804,00
-4356,79	665,00
-4343,67	877,00
-4330,58	851,00
-4317,50	978,00
-4304,45	1002,00
-4291,41	810,00
-4278,40	648,00
-4265,41	577,00
-4252,44	860,00
-4239,49	892,00
-4226,55	1118,00
-4213,65	958,00
-4200,76	764,00
-4187,89	642,00
-4175,04	655,00
-4162,21	767,00
-4149,40	725,00
-4136,61	736,00
-4123,85	626,00
-4111,10	666,00
-4098,37	595,00
-4085,66	775,00
-4072,98	740,00
-4060,31	695,00
-4047,66	725,00
-4035,04	814,00
-4022,43	809,00
-4009,84	682,00
-3997,27	750,00
-3984,72	561,00
-3972,19	589,00
-3959,69	574,00
-3947,20	681,00
-3934,73	631,00
-3922,27	601,00
-3909,84	672,00
-3897,43	553,00
-3885,04	751,00
-3872,67	598,00
-3860,31	603,00
-3847,98	699,00
-3835,66	504,00
-3823,36	588,00
-3811,09	635,00
-3798,83	725,00
-3786,59	579,00
-3774,37	639,00
-3762,17	546,00
-3749,98	645,00
-3737,82	671,00
-3725,67	692,00
-3713,55	636,00
-3701,44	597,00
-3689,35	667,00
-3677,28	660,00
-3665,22	687,00
-3653,19	685,00
-3641,17	567,00
-3629,18	700,00
-3617,20	620,00
-3605,24	705,00
-3593,30	650,00
-3581,37	565,00
-3569,47	772,00
-3557,58	623,00
-3545,71	690,00
-3533,86	615,00
-3522,02	655,00
-3510,21	648,00
-3498,41	655,00
-3486,63	637,00
-3474,87	674,00
-3463,12	690,00
-3451,40	681,00
-3439,69	596,00
-3428,00	705,00
-3416,33	646,00
-3404,67	593,00
-3393,03	575,00
-3381,41	616,00
-3369,81	599,00
-3358,22	576,00
-3346,66	703,00
-3335,10	665,00
-3323,57	550,00
-3312,06	806,00
-3300,56	615,00
-3289,08	649,00
-3277,61	606,00
-3266,16	672,00
-3254,73	730,00
-3243,32	535,00
-3231,92	703,00
-3220,55	659,00
-3209,18	762,00
-3197,84	534,00
-3186,51	609,00
-3175,20	638,00
-3163,90	633,00
-3152,63	599,00
-3141,36	593,00
-3130,12	688,00
-3118,89	716,00
-3107,68	598,00
-3096,49	576,00
-3085,31	627,00
-3074,15	623,00
-3063,00	620,00
-3051,87	583,00
-3040,76	519,00
-3029,67	656,00
-3018,59	798,00
-3007,52	653,00
-2996,48	668,00
-2985,44	617,00
-2974,43	628,00
-2963,43	683,00
-2952,45	536,00
-2941,48	704,00
-2930,53	630,00
-2919,60	529,00
-2908,68	642,00
-2897,78	581,00
-2886,89	675,00
-2876,02	607,00
-2865,17	678,00
-2854,33	515,00
-2843,50	619,00
-2832,70	715,00
-2821,90	699,00
-2811,13	560,00
-2800,37	628,00
-2789,62	664,00
-2778,89	626,00
-2768,18	609,00
-2757,48	656,00
-2746,80	731,00
-2736,13	581,00
-2725,48	606,00
-2714,84	603,00
-2704,22	629,00
-2693,61	574,00
-2683,02	672,00
-2672,45	689,00
-2661,89	672,00
-2651,34	683,00
-2640,81	591,00
-2630,30	752,00
-2619,80	547,00
-2609,31	768,00
-2598,84	493,00
-2588,39	556,00
-2577,95	631,00
-2567,52	468,00
-2557,11	602,00
-2546,71	620,00
-2536,33	705,00
-2525,97	596,00
-2515,62	600,00
-2505,28	670,00
-2494,96	659,00
-2484,65	669,00
-2474,36	467,00
-2464,08	602,00
-2453,82	687,00
-2443,57	569,00
-2433,33	563,00
-2423,11	590,00
-2412,91	728,00
-2402,72	624,00
-2392,54	696,00
-2382,38	536,00
-2372,23	673,00
-2362,09	4883,00
-2351,97	570,00
-2341,87	645,00
-2331,78	618,00
-2321,70	701,00
-2311,64	660,00
-2301,59	538,00
-2291,55	542,00
-2281,53	572,00
-2271,53	612,00
-2261,53	573,00
-2251,55	572,00
-2241,59	700,00
-2231,64	659,00
-2221,70	618,00
-2211,78	689,00
-2201,87	607,00
-2191,97	684,00
-2182,09	622,00
-2172,22	725,00
-2162,37	570,00
-2152,53	637,00
-2142,70	660,00
-2132,89	576,00
-2123,09	640,00
-2113,30	663,00
-2103,53	640,00
-2093,77	635,00
-2084,02	582,00
-2074,29	714,00
-2064,57	673,00
-2054,86	569,00
-2045,17	662,00
-2035,49	679,00
-2025,82	584,00
-2016,17	602,00
-2006,53	590,00
-1996,91	646,00
-1987,29	616,00
-1977,69	704,00
-1968,11	562,00
-1958,53	662,00
-1948,97	646,00
-1939,42	484,00
-1929,89	512,00
-1920,37	587,00
-1910,86	685,00
-1901,36	634,00
-1891,88	656,00
-1882,41	598,00
-1872,95	588,00
-1863,51	614,00
-1854,08	634,00
-1844,66	630,00
-1835,26	649,00
-1825,86	710,00
-1816,48	636,00
-1807,11	649,00
-1797,76	664,00
-1788,42	613,00
-1779,09	763,00
-1769,77	660,00
-1760,47	792,00
-1751,17	625,00
-1741,89	482,00
-1732,63	701,00
-1723,37	768,00
-1714,13	718,00
-1704,90	550,00
-1695,68	663,00
-1686,48	642,00
-1677,29	625,00
-1668,11	808,00
-1658,94	585,00
-1649,78	684,00
-1640,64	585,00
-1631,51	593,00
-1622,39	642,00
-1613,28	702,00
-1604,19	654,00
-1595,10	548,00
-1586,03	629,00
-1576,97	688,00
-1567,93	560,00
-1558,89	649,00
-1549,87	671,00
-1540,86	555,00
-1531,86	618,00
-1522,87	662,00
-1513,90	671,00
-1504,93	651,00
-1495,98	597,00
-1487,04	735,00
-1478,12	658,00
-1469,20	575,00
-1460,30	681,00
-1451,40	810,00
-1442,52	557,00
-1433,65	615,00
-1424,80	624,00
-1415,95	599,00
-1407,12	768,00
-1398,30	693,00
-1389,48	622,00
-1380,69	650,00
-1371,90	625,00
-1363,12	671,00
-1354,36	702,00
-1345,60	648,00
-1336,86	692,00
-1328,13	734,00
-1319,41	570,00
-1310,70	536,00
-1302,01	585,00
-1293,32	617,00
-1284,65	687,00
-1275,99	657,00
-1267,33	599,00
-1258,69	611,00
-1250,06	640,00
-1241,45	595,00
-1232,84	678,00
-1224,25	688,00
-1215,66	739,00
-1207,09	701,00
-1198,53	640,00
-1189,97	641,00
-1181,43	588,00
-1172,91	741,00
-1164,39	752,00
-1155,88	561,00
-1147,38	540,00
-1138,90	658,00
-1130,43	623,00
-1121,96	691,00
-1113,51	669,00
-1105,07	675,00
-1096,64	620,00
-1088,22	629,00
-1079,81	650,00
-1071,41	658,00
-1063,02	639,00
-1054,65	738,00
-1046,28	586,00
-1037,92	632,00
-1029,58	599,00
-1021,24	560,00
-1012,92	818,00
-1004,61	694,00
-996,30	792,00
-988,01	534,00
-979,73	601,00
-971,46	637,00
-963,20	628,00
-954,95	644,00
-946,71	622,00
-938,48	549,00
-930,26	611,00
-922,06	662,00
-913,86	667,00
-905,67	645,00
-897,49	725,00
-889,33	572,00
-881,17	668,00
-873,02	609,00
-864,89	650,00
-856,76	695,00
-848,65	638,00
-840,54	574,00
-832,45	645,00
-824,36	607,00
-816,29	746,00
-808,22	753,00
-800,17	643,00
-792,12	628,00
-784,09	796,00
-776,06	656,00
-768,05	615,00
-760,04	680,00
-752,05	555,00
-744,07	569,00
-736,09	708,00
-728,13	617,00
-720,17	588,00
-712,23	612,00
-704,29	618,00
-696,37	686,00
-688,45	668,00
-680,55	635,00
-672,65	639,00
-664,77	668,00
-656,89	564,00
-649,03	630,00
-641,17	589,00
-633,32	708,00
-625,49	666,00
-617,66	686,00
-609,84	588,00
-602,03	537,00
-594,23	600,00
-586,45	530,00
-578,67	635,00
-570,90	618,00
-563,14	705,00
-555,39	588,00
-547,65	685,00
-539,91	644,00
-532,19	656,00
-524,48	628,00
-516,78	641,00
-509,08	680,00
-501,40	677,00
-493,72	653,00
-486,06	614,00
-478,40	862,00
-470,76	624,00
-463,12	626,00
-455,49	583,00
-447,87	593,00
-440,26	666,00
-432,66	633,00
-425,07	758,00
-417,49	573,00
-409,92	562,00
-402,35	714,00
-394,80	549,00
-387,25	750,00
-379,72	610,00
-372,19	738,00
-364,67	653,00
-357,17	620,00
-349,67	658,00
-342,18	648,00
-334,69	768,00
-327,22	737,00
-319,76	787,00
-312,30	754,00
-304,86	662,00
-297,42	686,00
-290,00	780,00
-282,58	730,00
-275,17	709,00
-267,77	764,00
-260,37	654,00
-252,99	561,00
-245,62	683,00
-238,25	620,00
-230,90	740,00
-223,55	695,00
-216,21	753,00
-208,88	938,00
-201,56	790,00
-194,25	774,00
-186,94	777,00
-179,65	929,00
-172,36	1006,00
-165,08	929,00
-157,81	1000,00
-150,55	1085,00
-143,30	1046,00
-136,06	1113,00
-128,82	1197,00
-121,60	1133,00
-114,38	1261,00
-107,17	1483,00
-99,97	1528,00
-92,78	1597,00
-85,60	1829,00
-78,42	1973,00
-71,25	2155,00
-64,10	2310,00
-56,95	2792,00
-49,81	3084,00
-42,67	3778,00
-35,55	4497,00
-28,43	5725,00
-21,33	9207,00
-14,23	28081,00
-7,14	57727,00
-0,05	57480,00
7,02	57283,00
14,09	57420,00
21,14	25704,00
28,19	11015,00
35,23	7041,00
42,27	5500,00
49,29	4697,00
56,31	3911,00
63,32	3434,00
70,32	2846,00
77,31	2695,00
84,29	2233,00
91,27	2178,00
98,23	1972,00
105,19	1768,00
112,14	1852,00
119,09	2172,00
126,02	2670,00
132,95	2766,00
139,87	2781,00
146,78	2753,00
153,68	2715,00
160,58	2628,00
167,46	2572,00
174,34	2518,00
181,21	2550,00
188,08	2466,00
194,93	2589,00
201,78	2465,00
208,62	2468,00
215,45	2433,00
222,27	2474,00
229,09	2406,00
235,90	2333,00
242,70	2296,00
249,49	2557,00
256,27	2315,00
263,05	2421,00
269,82	2263,00
276,58	2413,00
283,33	2220,00
290,08	2275,00
296,82	2168,00
303,55	2134,00
310,27	2250,00
316,98	2208,00
323,69	2082,00
330,39	1994,00
337,08	2183,00
343,76	2105,00
350,44	2093,00
357,11	2162,00
363,77	1981,00
370,42	1964,00
377,07	2059,00
383,71	2036,00
390,34	2009,00
396,96	1989,00
403,58	1932,00
410,19	2032,00
416,79	2071,00
423,38	2080,00
429,97	1999,00
436,55	1860,00
443,12	1940,00
449,68	1830,00
456,24	1813,00
462,79	1798,00
469,33	1842,00
475,86	1793,00
482,39	1730,00
488,91	1874,00
495,42	1647,00
501,93	1732,00
508,42	1710,00
514,91	1803,00
521,40	1800,00
527,87	1695,00
534,34	1647,00
540,80	1791,00
547,25	1724,00
553,70	1696,00
560,14	1588,00
566,57	1679,00
573,00	1711,00
579,41	1762,00
585,83	1725,00
592,23	1778,00
598,62	1621,00
605,01	1635,00
611,40	1626,00
617,77	1725,00
624,14	1541,00
630,50	1616,00
636,85	1644,00
643,20	1673,00
649,54	1438,00
655,87	1590,00
662,20	1634,00
668,52	1571,00
674,83	1727,00
681,13	1698,00
687,43	1503,00
693,72	1574,00
700,00	1537,00
706,28	1515,00
712,55	1508,00
718,81	1655,00
725,07	1524,00
731,32	1387,00
737,56	1558,00
743,79	1448,00
750,02	1539,00
756,24	1488,00
762,46	1489,00
768,67	1707,00
774,87	1525,00
781,06	1483,00
787,25	1597,00
793,43	1435,00
799,60	1461,00
805,77	1565,00
811,93	1542,00
818,08	1403,00
824,23	1478,00
830,37	1648,00
836,50	1530,00
842,63	1533,00
848,75	1575,00
854,87	1538,00
860,97	1642,00
867,07	1542,00
873,17	1593,00
879,25	1604,00
885,33	1605,00
891,41	1515,00
897,47	1557,00
903,53	1498,00
909,59	1583,00
915,63	1529,00
921,67	1536,00
927,71	1422,00
933,74	1533,00
939,76	1471,00
945,77	1401,00
951,78	1490,00
957,78	1268,00
963,78	1475,00
969,77	1394,00
975,75	1359,00
981,72	1420,00
987,69	2536,00
993,66	1535,00
999,61	1517,00
1005,56	1393,00
1011,51	1426,00
1017,44	1326,00
1023,37	1418,00
1029,30	1497,00
1035,22	1340,00
1041,13	1382,00
1047,03	1429,00
1052,93	1455,00
1058,83	1747,00
1064,71	1728,00
1070,59	1748,00
1076,47	1569,00
1082,33	1450,00
1088,20	1570,00
1094,05	1386,00
1099,90	1391,00
1105,74	1322,00
1111,58	1416,00
1117,41	1459,00
1123,23	1631,00
1129,05	1730,00
1134,86	1791,00
1140,67	1396,00
1146,47	1412,00
1152,26	1326,00
1158,05	1296,00
1163,83	1418,00
1169,60	1384,00
1175,37	1418,00
1181,13	1393,00
1186,89	1337,00
1192,64	1361,00
1198,38	1329,00
1204,12	1279,00
1209,85	1220,00
1215,58	1418,00
1221,30	1376,00
1227,02	1289,00
1232,72	1295,00
1238,43	1300,00
1244,12	1336,00
1249,81	1257,00
1255,50	1444,00
1261,17	1324,00
1266,85	1462,00
1272,51	1312,00
1278,17	1432,00
1283,83	1437,00
1289,47	1659,00
1295,12	1993,00
1300,75	1890,00
1306,38	1713,00
1312,01	1532,00
1317,63	1424,00
1323,24	1466,00
1328,85	1556,00
1334,45	1395,00
1340,04	1393,00
1345,63	1291,00
1351,22	1548,00
1356,80	1437,00
1362,37	1550,00
1367,93	1354,00
1373,49	1512,00
1379,05	1375,00
1384,60	1451,00
1390,14	1353,00
1395,68	1443,00
1401,21	1564,00
1406,74	1410,00
1412,26	1459,00
1417,77	1663,00
1423,28	1647,00
1428,78	1819,00
1434,28	2056,00
1439,77	2086,00
1445,26	1959,00
1450,74	2136,00
1456,22	1929,00
1461,68	1864,00
1467,15	1823,00
1472,61	1797,00
1478,06	1701,00
1483,51	1585,00
1488,95	1336,00
1494,38	1505,00
1499,81	1290,00
1505,24	1296,00
1510,65	1351,00
1516,07	1326,00
1521,48	1293,00
1526,88	1203,00
1532,27	1227,00
1537,67	1245,00
1543,05	1314,00
1548,43	1218,00
1553,81	1374,00
1559,18	1221,00
1564,54	1225,00
1569,90	1224,00
1575,25	1175,00
1580,60	1221,00
1585,94	1272,00
1591,28	1258,00
1596,61	1128,00
1601,93	1206,00
1607,25	1272,00
1612,57	1234,00
1617,88	1289,00
1623,18	1200,00
1628,48	1148,00
1633,77	1307,00
1639,06	1366,00
1644,34	1172,00
1649,62	1171,00
1654,89	1314,00
1660,16	1113,00
1665,42	1242,00
1670,67	1118,00
1675,92	1130,00
1681,17	992,00
1686,41	1018,00
1691,64	1227,00
1696,87	1196,00
1702,10	1172,00
1707,32	1087,00
1712,53	1158,00
1717,74	1192,00
1722,94	1107,00
1728,14	1132,00
1733,33	1002,00
1738,52	990,00
1743,70	1111,00
1748,88	1004,00
1754,05	1133,00
1759,22	1116,00
1764,38	136,00
1769,53	1056,00
1774,69	1175,00
1779,83	1062,00
1784,97	1172,00
1790,11	1078,00
1795,24	1119,00
1800,36	1055,00
1805,48	1129,00
1810,60	1076,00
1815,71	1017,00
1820,82	1105,00
1825,92	1111,00
1831,01	997,00
1836,10	994,00
1841,19	1048,00
1846,26	1052,00
1851,34	976,00
1856,41	1074,00
1861,47	944,00
1866,53	1032,00
1871,59	989,00
1876,64	935,00
1881,68	1026,00
1886,72	1054,00
1891,76	954,00
1896,79	979,00
1901,81	917,00
1906,83	1056,00
1911,85	923,00
1916,86	995,00
1921,86	952,00
1926,86	956,00
1931,86	829,00
1936,85	870,00
1941,83	999,00
1946,81	886,00
1951,79	947,00
1956,76	878,00
1961,72	864,00
1966,68	971,00
1971,64	890,00
1976,59	1000,00
1981,54	854,00
1986,48	969,00
1991,42	839,00
1996,35	1011,00
2001,27	853,00
2006,20	906,00
2011,11	979,00
2016,03	906,00
2020,93	873,00
2025,84	987,00
2030,73	855,00
2035,63	870,00
2040,52	879,00
2045,40	892,00
2050,28	911,00
2055,15	897,00
2060,02	784,00
2064,89	929,00
2069,75	922,00
2074,60	833,00
2079,46	876,00
2084,30	901,00
2089,14	920,00
2093,98	921,00
2098,81	894,00
2103,64	855,00
2108,46	802,00
2113,28	803,00
2118,09	835,00
2122,90	889,00
2127,70	895,00
2132,50	950,00
2137,30	837,00
2142,09	817,00
2146,87	782,00
2151,66	806,00
2156,43	923,00
2161,20	818,00
2165,97	827,00
2170,73	829,00
2175,49	876,00
2180,24	878,00
2184,99	904,00
2189,74	915,00
2194,48	892,00
2199,21	892,00
2203,94	791,00
2208,67	844,00
2213,39	865,00
2218,11	814,00
2222,82	861,00
2227,53	783,00
2232,23	962,00
2236,93	870,00
2241,63	882,00
2246,32	843,00
2251,00	793,00
2255,68	989,00
2260,36	839,00
2265,03	773,00
2269,70	942,00
2274,36	778,00
2279,02	862,00
2283,68	970,00
2288,33	769,00
2292,97	856,00
2297,61	688,00
2302,25	780,00
2306,88	737,00
2311,51	623,00
2316,14	859,00
2320,75	765,00
2325,37	768,00
2329,98	863,00
2334,59	680,00
2339,19	733,00
2343,79	758,00
2348,38	685,00
2352,97	833,00
2357,55	785,00
2362,13	781,00
2366,71	806,00
2371,28	939,00
2375,85	827,00
2380,41	932,00
2384,97	877,00
2389,52	799,00
2394,07	841,00
2398,62	804,00
2403,16	737,00
2407,70	821,00
2412,23	756,00
2416,76	785,00
2421,29	700,00
2425,81	816,00
2430,32	843,00
2434,84	612,00
2439,34	764,00
2443,85	765,00
2448,35	833,00
2452,84	655,00
2457,33	776,00
2461,82	743,00
2466,30	759,00
2470,78	802,00
2475,25	710,00
2479,72	749,00
2484,19	693,00
2488,65	833,00
2493,11	702,00
2497,56	726,00
2502,01	672,00
2506,46	875,00
2510,90	682,00
2515,34	717,00
2519,77	807,00
2524,20	704,00
2528,62	744,00
2533,04	740,00
2537,46	625,00
2541,87	689,00
2546,28	732,00
2550,68	757,00
2555,08	785,00
2559,48	839,00
2563,87	746,00
2568,26	650,00
2572,64	667,00
2577,02	777,00
2581,40	646,00
2585,77	749,00
2590,14	796,00
2594,50	647,00
2598,86	800,00
2603,22	719,00
2607,57	710,00
2611,92	782,00
2616,26	760,00
2620,60	828,00
2624,94	659,00
2629,27	754,00
2633,60	736,00
2637,92	935,00
2642,24	807,00
2646,56	687,00
2650,87	635,00
2655,18	884,00
2659,48	702,00
2663,78	702,00
2668,08	801,00
2672,37	694,00
2676,66	832,00
2680,95	744,00
2685,23	719,00
2689,50	757,00
2693,78	773,00
2698,05	747,00
2702,31	812,00
2706,57	691,00
2710,83	892,00
2715,08	833,00
2719,33	932,00
2723,58	867,00
2727,82	802,00
2732,06	824,00
2736,29	848,00
2740,53	847,00
2744,75	767,00
2748,97	929,00
2753,19	862,00
2757,41	819,00
2761,62	764,00
2765,83	714,00
2770,03	725,00
2774,23	695,00
2778,43	780,00
2782,62	784,00
2786,81	786,00
2791,00	792,00
2795,18	912,00
2799,35	803,00
2803,53	897,00
2807,70	873,00
2811,86	733,00
2816,03	929,00
2820,19	854,00
2824,34	885,00
2828,49	874,00
2832,64	1002,00
2836,78	1117,00
2840,92	1315,00
2845,06	1350,00
2849,19	1435,00
2853,32	1408,00
2857,45	1552,00
2861,57	1564,00
2865,69	1402,00
2869,80	1433,00
2873,91	1320,00
2878,02	1627,00
2882,12	1649,00
2886,22	1432,00
2890,32	1677,00
2894,41	1504,00
2898,50	1447,00
2902,58	1419,00
2906,67	1324,00
2910,74	1369,00
2914,82	1205,00
2918,89	1288,00
2922,96	1217,00
2927,02	1150,00
2931,08	1113,00
2935,13	995,00
2939,19	1068,00
2943,24	946,00
2947,28	943,00
2951,32	909,00
2955,36	814,00
2959,40	949,00
2963,43	903,00
2967,46	819,00
2971,48	794,00
2975,50	878,00
2979,52	776,00
2983,53	834,00
2987,54	780,00
2991,55	817,00
2995,55	657,00
2999,55	685,00
3003,54	668,00
3007,54	663,00
3011,53	723,00
3015,51	662,00
3019,49	845,00
3023,47	693,00
3027,45	705,00
3031,42	595,00
3035,39	646,00
3039,35	681,00
3043,31	768,00
3047,27	687,00
3051,22	716,00
3055,17	684,00
3059,12	553,00
3063,06	695,00
3067,00	672,00
3070,94	689,00
3074,87	676,00
3078,80	602,00
3082,73	659,00
3086,65	704,00
3090,57	751,00
3094,49	612,00
3098,40	680,00
3102,31	747,00
3106,22	653,00
3110,12	636,00
3114,02	568,00
3117,92	671,00
3121,81	705,00
3125,70	677,00
3129,58	639,00
3133,47	595,00
3137,34	726,00
3141,22	768,00
3145,09	682,00
3148,96	759,00
3152,83	618,00
3156,69	662,00
3160,55	549,00
3164,40	756,00
3168,26	652,00
3172,10	786,00
3175,95	615,00
3179,79	676,00
3183,63	684,00
3187,47	673,00
3191,30	659,00
3195,13	601,00
3198,95	616,00
3202,78	604,00
3206,60	554,00
3210,41	560,00
3214,23	646,00
3218,03	649,00
3221,84	608,00
3225,64	637,00
3229,44	668,00
3233,24	661,00
3237,03	561,00
3240,82	601,00
3244,61	683,00
3248,39	565,00
3252,17	744,00
3255,95	801,00
3259,72	722,00
3263,49	763,00
3267,26	588,00
3271,03	631,00
3274,79	651,00
3278,54	545,00
3282,30	608,00
3286,05	682,00
3289,80	738,00
3293,54	654,00
3297,29	598,00
3301,02	672,00
3304,76	674,00
3308,49	709,00
3312,22	599,00
3315,95	629,00
3319,67	608,00
3323,39	721,00
3327,10	613,00
3330,82	625,00
3334,53	713,00
3338,24	546,00
3341,94	784,00
3345,64	572,00
3349,34	720,00
3353,03	646,00
3356,72	651,00
3360,41	717,00
3364,10	680,00
3367,78	584,00
3371,46	752,00
3375,13	625,00
3378,81	713,00
3382,48	625,00
3386,14	709,00
3389,81	638,00
3393,47	610,00
3397,12	709,00
3400,78	648,00
3404,43	730,00
3408,08	566,00
3411,72	651,00
3415,36	550,00
3419,00	681,00
3422,64	627,00
3426,27	664,00
3429,90	528,00
3433,53	607,00
3437,15	648,00
3440,77	521,00
3444,39	681,00
3448,00	599,00
3451,62	703,00
3455,22	630,00
3458,83	590,00
3462,43	650,00
3466,03	749,00
3469,63	642,00
3473,22	593,00
3476,81	571,00
3480,40	603,00
3483,99	570,00
3487,57	639,00
3491,15	554,00
3494,72	590,00
3498,29	539,00
3501,86	672,00
3505,43	599,00
3508,99	687,00
3512,56	661,00
3516,11	684,00
3519,67	646,00
3523,22	706,00
3526,77	640,00
3530,32	562,00
3533,86	712,00
3537,40	669,00
3540,94	570,00
3544,47	643,00
3548,00	625,00
3551,53	642,00
3555,06	597,00
3558,58	745,00
3562,10	552,00
3565,62	637,00
3569,13	538,00
3572,64	631,00
3576,15	573,00
3579,66	604,00
3583,16	664,00
3586,66	581,00
3590,16	599,00
3593,65	489,00
3597,14	478,00
3600,63	651,00
3604,11	617,00
3607,60	619,00
3611,08	602,00
3614,55	634,00
3618,03	604,00
3621,50	571,00
3624,97	520,00
3628,43	581,00
3631,90	628,00
3635,36	515,00
3638,81	567,00
3642,27	526,00
3645,72	545,00
3649,17	614,00
3652,61	514,00
3656,06	483,00
3659,50	513,00
3662,93	593,00
3666,37	588,00
3669,80	740,00
3673,23	568,00
3676,65	571,00
3680,08	519,00
3683,50	611,00
3686,92	590,00
3690,33	568,00
3693,74	478,00
3697,15	483,00
3700,56	548,00
3703,96	540,00
3707,36	498,00
3710,76	562,00
3714,16	513,00
3717,55	505,00
3720,94	663,00
3724,33	569,00
3727,71	493,00
3731,10	542,00
3734,48	496,00
3737,85	484,00
3741,23	582,00
3744,60	561,00
3747,97	433,00
3751,33	464,00
3754,69	496,00
3758,05	564,00
3761,41	470,00
3764,77	543,00
3768,12	494,00
3771,47	447,00
3774,82	515,00
3778,16	-3,00
3781,50	9,00
3784,84	3,00
3788,18	11,00
>>>>>End Processed Spectral Data<<<<<
