SpectraSuite Data File
++++++++++++++++++++++++++++++++++++
Date: Tue Mar 03 10:46:02 ICT 2026
User: user
Dark Spectrum Present: Yes
Reference Spectrum Present: No
Number of Sampled Component Spectra: 1
Spectrometers: MAYP113682
Integration Time (usec): 3000000 (MAYP113682)
Spectra Averaged: 1 (MAYP113682)
Boxcar Smoothing: 0 (MAYP113682)
Correct for Electrical Dark: No (MAYP113682)
Strobe/Lamp Enabled: No (MAYP113682)
Correct for Detector Non-linearity: No (MAYP113682)
Correct for Stray Light: No (MAYP113682)
Number of Pixels in Processed Spectrum: 2068
>>>>>Begin Processed Spectral Data<<<<<
-37534,58	9,00
-37414,56	-4,00
-37295,11	2,00
-37176,24	-3,00
-37057,95	23,00
-36940,22	78,00
-36823,05	90,00
-36706,45	73,00
-36590,40	94,00
-36474,90	182,00
-36359,95	201,00
-36245,55	-25,00
-36131,68	130,00
-36018,35	64,00
-35905,55	193,00
-35793,29	141,00
-35681,54	150,00
-35570,32	296,00
-35459,62	187,00
-35349,43	77,00
-35239,75	181,00
-35130,58	94,00
-35021,91	60,00
-34913,74	160,00
-34806,07	176,00
-34698,89	115,00
-34592,20	127,00
-34486,00	100,00
-34380,28	85,00
-34275,04	12,00
-34170,27	62,00
-34065,98	163,00
-33962,16	45,00
-33858,81	181,00
-33755,92	53,00
-33653,49	159,00
-33551,52	155,00
-33450,01	78,00
-33348,94	113,00
-33248,33	159,00
-33148,16	55,00
-33048,43	124,00
-32949,14	-16,00
-32850,29	190,00
-32751,87	82,00
-32653,89	89,00
-32556,33	197,00
-32459,20	193,00
-32362,49	101,00
-32266,19	105,00
-32170,32	141,00
-32074,86	113,00
-31979,82	171,00
-31885,18	221,00
-31790,95	207,00
-31697,12	74,00
-31603,69	-12,00
-31510,67	130,00
-31418,04	72,00
-31325,80	93,00
-31233,95	104,00
-31142,49	123,00
-31051,42	117,00
-30960,73	239,00
-30870,43	115,00
-30780,50	125,00
-30690,95	116,00
-30601,77	123,00
-30512,97	115,00
-30424,53	181,00
-30336,46	123,00
-30248,76	170,00
-30161,42	160,00
-30074,44	68,00
-29987,81	119,00
-29901,55	155,00
-29815,63	84,00
-29730,07	182,00
-29644,86	161,00
-29560,00	244,00
-29475,48	157,00
-29391,30	144,00
-29307,47	84,00
-29223,97	211,00
-29140,81	100,00
-29057,99	126,00
-28975,50	142,00
-28893,34	157,00
-28811,51	116,00
-28730,00	146,00
-28648,82	104,00
-28567,97	112,00
-28487,43	147,00
-28407,21	78,00
-28327,32	51,00
-28247,73	76,00
-28168,46	104,00
-28089,50	225,00
-28010,85	66,00
-27932,51	183,00
-27854,48	225,00
-27776,75	65,00
-27699,32	104,00
-27622,19	365,00
-27545,37	172,00
-27468,84	139,00
-27392,60	99,00
-27316,66	181,00
-27241,01	315,00
-27165,66	107,00
-27090,59	83,00
-27015,81	149,00
-26941,31	149,00
-26867,10	183,00
-26793,17	235,00
-26719,52	147,00
-26646,15	157,00
-26573,06	188,00
-26500,24	104,00
-26427,70	139,00
-26355,43	185,00
-26283,43	192,00
-26211,71	100,00
-26140,25	128,00
-26069,06	187,00
-25998,13	107,00
-25927,46	82,00
-25857,06	76,00
-25786,92	137,00
-25717,04	163,00
-25647,42	257,00
-25578,05	149,00
-25508,94	82,00
-25440,09	227,00
-25371,48	181,00
-25303,13	111,00
-25235,02	137,00
-25167,17	270,00
-25099,56	116,00
-25032,19	116,00
-24965,07	148,00
-24898,20	135,00
-24831,56	159,00
-24765,17	107,00
-24699,01	153,00
-24633,10	101,00
-24567,41	100,00
-24501,97	142,00
-24436,75	190,00
-24371,77	198,00
-24307,03	133,00
-24242,51	153,00
-24178,22	257,00
-24114,16	148,00
-24050,32	88,00
-23986,71	248,00
-23923,32	118,00
-23860,16	154,00
-23797,22	48,00
-23734,50	43,00
-23672,00	204,00
-23609,71	129,00
-23547,65	197,00
-23485,80	222,00
-23424,16	141,00
-23362,74	95,00
-23301,53	139,00
-23240,54	96,00
-23179,75	235,00
-23119,17	69,00
-23058,80	80,00
-22998,64	190,00
-22938,68	145,00
-22878,93	80,00
-22819,39	144,00
-22760,04	70,00
-22700,90	69,00
-22641,96	145,00
-22583,22	180,00
-22524,68	74,00
-22466,33	322,00
-22408,19	111,00
-22350,23	115,00
-22292,48	136,00
-22234,92	126,00
-22177,55	42,00
-22120,37	17,00
-22063,38	183,00
-22006,58	112,00
-21949,98	212,00
-21893,56	14,00
-21837,33	185,00
-21781,28	104,00
-21725,42	214,00
-21669,74	141,00
-21614,25	234,00
-21558,94	117,00
-21503,81	167,00
-21448,86	111,00
-21394,10	140,00
-21339,51	112,00
-21285,10	122,00
-21230,86	159,00
-21176,81	92,00
-21122,93	106,00
-21069,22	185,00
-21015,69	166,00
-20962,33	200,00
-20909,14	135,00
-20856,13	89,00
-20803,28	215,00
-20750,61	97,00
-20698,10	149,00
-20645,76	186,00
-20593,59	231,00
-20541,59	51,00
-20489,75	131,00
-20438,07	145,00
-20386,56	80,00
-20335,22	118,00
-20284,03	186,00
-20233,01	166,00
-20182,15	20,00
-20131,45	173,00
-20080,91	74,00
-20030,52	171,00
-19980,30	72,00
-19930,23	90,00
-19880,32	112,00
-19830,56	71,00
-19780,96	133,00
-19731,52	151,00
-19682,23	43,00
-19633,09	178,00
-19584,10	120,00
-19535,26	116,00
-19486,58	27,00
-19438,04	148,00
-19389,66	133,00
-19341,42	43,00
-19293,33	158,00
-19245,39	138,00
-19197,60	133,00
-19149,95	3,00
-19102,45	92,00
-19055,09	180,00
-19007,87	246,00
-18960,80	95,00
-18913,87	163,00
-18867,09	244,00
-18820,44	123,00
-18773,94	158,00
-18727,57	94,00
-18681,35	49,00
-18635,26	148,00
-18589,31	111,00
-18543,50	185,00
-18497,83	206,00
-18452,29	77,00
-18406,89	84,00
-18361,63	257,00
-18316,50	148,00
-18271,50	188,00
-18226,63	150,00
-18181,90	137,00
-18137,30	263,00
-18092,84	89,00
-18048,50	68,00
-18004,29	135,00
-17960,22	230,00
-17916,27	98,00
-17872,45	174,00
-17828,76	106,00
-17785,20	178,00
-17741,77	73,00
-17698,46	152,00
-17655,28	83,00
-17612,22	169,00
-17569,29	122,00
-17526,48	153,00
-17483,79	80,00
-17441,23	97,00
-17398,79	44,00
-17356,48	142,00
-17314,28	26,00
-17272,21	88,00
-17230,26	112,00
-17188,42	140,00
-17146,71	170,00
-17105,12	154,00
-17063,64	33,00
-17022,28	172,00
-16981,04	47,00
-16939,92	39,00
-16898,91	171,00
-16858,02	188,00
-16817,25	160,00
-16776,59	152,00
-16736,04	105,00
-16695,61	151,00
-16655,29	162,00
-16615,09	127,00
-16574,99	92,00
-16535,01	149,00
-16495,15	82,00
-16455,39	149,00
-16415,74	71,00
-16376,21	110,00
-16336,78	203,00
-16297,46	184,00
-16258,26	180,00
-16219,16	113,00
-16180,17	113,00
-16141,28	227,00
-16102,51	153,00
-16063,84	100,00
-16025,27	86,00
-15986,82	103,00
-15948,46	3,00
-15910,22	58,00
-15872,07	134,00
-15834,04	31,00
-15796,10	78,00
-15758,27	105,00
-15720,54	-25,00
-15682,91	106,00
-15645,39	36,00
-15607,97	20,00
-15570,64	148,00
-15533,42	32,00
-15496,30	107,00
-15459,28	105,00
-15422,36	83,00
-15385,54	180,00
-15348,82	150,00
-15312,19	222,00
-15275,66	214,00
-15239,23	114,00
-15202,90	194,00
-15166,67	88,00
-15130,53	48,00
-15094,48	148,00
-15058,54	194,00
-15022,68	126,00
-14986,93	112,00
-14951,26	132,00
-14915,69	159,00
-14880,22	139,00
-14844,84	202,00
-14809,55	77,00
-14774,35	131,00
-14739,25	84,00
-14704,24	229,00
-14669,32	95,00
-14634,49	100,00
-14599,75	154,00
-14565,10	193,00
-14530,55	150,00
-14496,08	146,00
-14461,70	58,00
-14427,41	80,00
-14393,21	138,00
-14359,10	172,00
-14325,07	70,00
-14291,14	78,00
-14257,29	174,00
-14223,52	143,00
-14189,85	145,00
-14156,26	189,00
-14122,76	85,00
-14089,34	159,00
-14056,01	133,00
-14022,76	141,00
-13989,60	162,00
-13956,52	211,00
-13923,53	75,00
-13890,62	218,00
-13857,79	133,00
-13825,05	155,00
-13792,39	205,00
-13759,81	160,00
-13727,31	64,00
-13694,90	178,00
-13662,57	157,00
-13630,31	119,00
-13598,14	228,00
-13566,05	151,00
-13534,05	71,00
-13502,12	202,00
-13470,27	108,00
-13438,50	109,00
-13406,80	94,00
-13375,19	104,00
-13343,66	65,00
-13312,20	133,00
-13280,83	101,00
-13249,53	133,00
-13218,30	125,00
-13187,16	192,00
-13156,09	88,00
-13125,10	106,00
-13094,18	68,00
-13063,34	198,00
-13032,58	42,00
-13001,89	104,00
-12971,28	164,00
-12940,74	24,00
-12910,27	273,00
-12879,88	55,00
-12849,57	141,00
-12819,33	163,00
-12789,16	75,00
-12759,06	131,00
-12729,04	223,00
-12699,09	404,00
-12669,21	130,00
-12639,41	234,00
-12609,68	189,00
-12580,02	123,00
-12550,43	167,00
-12520,91	121,00
-12491,46	210,00
-12462,08	151,00
-12432,77	115,00
-12403,54	84,00
-12374,37	136,00
-12345,27	182,00
-12316,24	204,00
-12287,29	152,00
-12258,40	13,00
-12229,57	41,00
-12200,82	128,00
-12172,14	219,00
-12143,52	142,00
-12114,97	76,00
-12086,49	202,00
-12058,07	77,00
-12029,73	118,00
-12001,44	201,00
-11973,23	139,00
-11945,08	148,00
-11917,00	140,00
-11888,98	121,00
-11861,03	154,00
-11833,15	63,00
-11805,32	202,00
-11777,57	243,00
-11749,88	135,00
-11722,25	47,00
-11694,69	188,00
-11667,19	-9,00
-11639,75	264,00
-11612,38	148,00
-11585,07	146,00
-11557,83	149,00
-11530,65	189,00
-11503,53	200,00
-11476,47	204,00
-11449,48	86,00
-11422,54	54,00
-11395,67	223,00
-11368,86	46,00
-11342,11	99,00
-11315,43	97,00
-11288,80	111,00
-11262,23	25,00
-11235,73	130,00
-11209,28	309,00
-11182,90	195,00
-11156,57	156,00
-11130,31	217,00
-11104,10	190,00
-11077,96	136,00
-11051,87	234,00
-11025,84	237,00
-10999,87	230,00
-10973,96	102,00
-10948,11	99,00
-10922,31	136,00
-10896,58	75,00
-10870,90	141,00
-10845,28	194,00
-10819,71	50,00
-10794,20	131,00
-10768,75	249,00
-10743,36	96,00
-10718,02	159,00
-10692,74	165,00
-10667,52	312,00
-10642,35	218,00
-10617,24	248,00
-10592,18	210,00
-10567,18	226,00
-10542,23	168,00
-10517,34	170,00
-10492,51	201,00
-10467,72	197,00
-10443,00	288,00
-10418,32	276,00
-10393,70	235,00
-10369,14	321,00
-10344,63	296,00
-10320,17	326,00
-10295,77	273,00
-10271,42	352,00
-10247,12	334,00
-10222,88	479,00
-10198,68	496,00
-10174,54	403,00
-10150,46	458,00
-10126,42	520,00
-10102,44	634,00
-10078,51	615,00
-10054,63	623,00
-10030,80	574,00
-10007,03	568,00
-9983,30	635,00
-9959,63	537,00
-9936,01	705,00
-9912,44	685,00
-9888,92	819,00
-9865,44	843,00
-9842,02	936,00
-9818,65	863,00
-9795,33	942,00
-9772,06	835,00
-9748,84	882,00
-9725,67	1149,00
-9702,55	1098,00
-9679,47	1369,00
-9656,45	1468,00
-9633,47	1617,00
-9610,55	1609,00
-9587,67	1689,00
-9564,84	1879,00
-9542,06	1948,00
-9519,32	2102,00
-9496,64	2328,00
-9474,00	2483,00
-9451,41	2567,00
-9428,87	2520,00
-9406,37	2395,00
-9383,92	2264,00
-9361,52	2154,00
-9339,17	2288,00
-9316,86	2427,00
-9294,60	2623,00
-9272,38	2820,00
-9250,21	3139,00
-9228,09	3214,00
-9206,01	3094,00
-9183,98	2935,00
-9162,00	2544,00
-9140,06	2403,00
-9118,16	2363,00
-9096,31	2538,00
-9074,51	2554,00
-9052,75	2422,00
-9031,04	2477,00
-9009,37	2114,00
-8987,74	1967,00
-8966,16	1747,00
-8944,63	1702,00
-8923,14	1601,00
-8901,69	1584,00
-8880,29	1822,00
-8858,93	1892,00
-8837,61	2234,00
-8816,34	2248,00
-8795,11	2300,00
-8773,92	2068,00
-8752,78	1945,00
-8731,68	1926,00
-8710,62	1833,00
-8689,61	1940,00
-8668,63	2161,00
-8647,70	2314,00
-8626,82	2222,00
-8605,97	2138,00
-8585,17	1873,00
-8564,41	1819,00
-8543,69	1693,00
-8523,01	1587,00
-8502,37	1669,00
-8481,78	1706,00
-8461,23	1729,00
-8440,71	1939,00
-8420,24	1982,00
-8399,81	2080,00
-8379,42	2071,00
-8359,08	1854,00
-8338,77	1600,00
-8318,50	1645,00
-8298,27	1391,00
-8278,09	1579,00
-8257,94	1731,00
-8237,83	1800,00
-8217,76	1964,00
-8197,74	1974,00
-8177,75	1959,00
-8157,80	1721,00
-8137,89	1699,00
-8118,02	1603,00
-8098,19	1601,00
-8078,40	1543,00
-8058,65	1780,00
-8038,93	1798,00
-8019,26	1748,00
-7999,62	1791,00
-7980,02	1692,00
-7960,46	1652,00
-7940,94	1467,00
-7921,46	1532,00
-7902,01	1550,00
-7882,60	1515,00
-7863,23	1538,00
-7843,90	1506,00
-7824,61	1715,00
-7805,35	1767,00
-7786,13	1801,00
-7766,95	1800,00
-7747,80	1747,00
-7728,69	1575,00
-7709,62	1541,00
-7690,59	1656,00
-7671,59	1913,00
-7652,63	1895,00
-7633,70	1822,00
-7614,81	1778,00
-7595,96	1643,00
-7577,15	1560,00
-7558,37	1634,00
-7539,62	1607,00
-7520,91	1645,00
-7502,24	1709,00
-7483,60	1962,00
-7465,00	1558,00
-7446,44	1560,00
-7427,91	1425,00
-7409,41	1409,00
-7390,95	1104,00
-7372,53	1126,00
-7354,14	1204,00
-7335,78	1259,00
-7317,46	1236,00
-7299,18	1366,00
-7280,92	1499,00
-7262,71	1733,00
-7244,52	1786,00
-7226,38	1786,00
-7208,26	1792,00
-7190,18	1766,00
-7172,14	1498,00
-7154,12	1483,00
-7136,15	1483,00
-7118,20	1624,00
-7100,29	1709,00
-7082,41	1778,00
-7064,57	1654,00
-7046,76	1544,00
-7028,98	1392,00
-7011,24	1341,00
-6993,53	1191,00
-6975,85	1091,00
-6958,20	904,00
-6940,59	791,00
-6923,01	897,00
-6905,46	1039,00
-6887,94	1204,00
-6870,46	-1023,00
-6853,01	1676,00
-6835,59	1387,00
-6818,21	1467,00
-6800,85	1337,00
-6783,53	1057,00
-6766,24	797,00
-6748,98	804,00
-6731,76	659,00
-6714,56	753,00
-6697,40	659,00
-6680,26	777,00
-6663,16	915,00
-6646,09	980,00
-6629,05	1259,00
-6612,05	1265,00
-6595,07	1459,00
-6578,13	1158,00
-6561,21	1040,00
-6544,33	812,00
-6527,47	762,00
-6510,65	622,00
-6493,86	584,00
-6477,10	557,00
-6460,36	613,00
-6443,66	517,00
-6426,99	594,00
-6410,35	605,00
-6393,74	620,00
-6377,16	708,00
-6360,61	931,00
-6344,09	908,00
-6327,59	1064,00
-6311,13	1023,00
-6294,70	855,00
-6278,29	1037,00
-6261,92	1127,00
-6245,58	1151,00
-6229,26	1152,00
-6212,97	1197,00
-6196,72	995,00
-6180,49	705,00
-6164,29	388,00
-6148,12	373,00
-6131,98	489,00
-6115,86	366,00
-6099,78	374,00
-6083,72	447,00
-6067,69	322,00
-6051,69	294,00
-6035,72	280,00
-6019,78	478,00
-6003,87	651,00
-5987,98	767,00
-5972,12	1008,00
-5956,29	957,00
-5940,49	888,00
-5924,71	737,00
-5908,96	528,00
-5893,24	461,00
-5877,55	470,00
-5861,89	365,00
-5846,25	472,00
-5830,64	539,00
-5815,05	489,00
-5799,50	494,00
-5783,97	606,00
-5768,47	661,00
-5752,99	743,00
-5737,55	841,00
-5722,12	885,00
-5706,73	985,00
-5691,36	781,00
-5676,02	640,00
-5660,71	519,00
-5645,42	498,00
-5630,16	482,00
-5614,92	544,00
-5599,71	661,00
-5584,53	870,00
-5569,37	761,00
-5554,24	1576,00
-5539,14	567,00
-5524,06	612,00
-5509,01	567,00
-5493,98	622,00
-5478,98	699,00
-5464,00	405,00
-5449,05	589,00
-5434,13	477,00
-5419,23	407,00
-5404,36	439,00
-5389,51	633,00
-5374,69	849,00
-5359,89	933,00
-5345,12	939,00
-5330,37	933,00
-5315,65	795,00
-5300,95	578,00
-5286,28	539,00
-5271,63	595,00
-5257,01	683,00
-5242,41	701,00
-5227,84	575,00
-5213,29	453,00
-5198,76	237,00
-5184,26	447,00
-5169,79	396,00
-5155,33	556,00
-5140,91	673,00
-5126,51	738,00
-5112,13	735,00
-5097,77	611,00
-5083,44	511,00
-5069,13	447,00
-5054,85	526,00
-5040,59	390,00
-5026,36	607,00
-5012,15	635,00
-4997,96	656,00
-4983,80	521,00
-4969,66	522,00
-4955,54	438,00
-4941,44	431,00
-4927,37	733,00
-4913,33	892,00
-4899,30	987,00
-4885,30	1012,00
-4871,33	779,00
-4857,37	500,00
-4843,44	462,00
-4829,53	431,00
-4815,65	384,00
-4801,79	508,00
-4787,95	636,00
-4774,13	366,00
-4760,34	341,00
-4746,56	313,00
-4732,82	362,00
-4719,09	373,00
-4705,38	756,00
-4691,70	861,00
-4678,04	892,00
-4664,41	616,00
-4650,79	571,00
-4637,20	442,00
-4623,63	353,00
-4610,08	582,00
-4596,56	657,00
-4583,05	641,00
-4569,57	507,00
-4556,11	370,00
-4542,67	242,00
-4529,25	378,00
-4515,86	517,00
-4502,49	681,00
-4489,13	820,00
-4475,80	581,00
-4462,49	480,00
-4449,21	409,00
-4435,94	355,00
-4422,70	435,00
-4409,47	502,00
-4396,27	549,00
-4383,09	449,00
-4369,93	321,00
-4356,79	309,00
-4343,67	245,00
-4330,58	345,00
-4317,50	460,00
-4304,45	377,00
-4291,41	347,00
-4278,40	182,00
-4265,41	253,00
-4252,44	381,00
-4239,49	428,00
-4226,55	574,00
-4213,65	436,00
-4200,76	390,00
-4187,89	236,00
-4175,04	264,00
-4162,21	238,00
-4149,40	273,00
-4136,61	201,00
-4123,85	198,00
-4111,10	193,00
-4098,37	214,00
-4085,66	304,00
-4072,98	258,00
-4060,31	198,00
-4047,66	342,00
-4035,04	226,00
-4022,43	121,00
-4009,84	217,00
-3997,27	98,00
-3984,72	74,00
-3972,19	158,00
-3959,69	119,00
-3947,20	98,00
-3934,73	132,00
-3922,27	160,00
-3909,84	136,00
-3897,43	79,00
-3885,04	145,00
-3872,67	118,00
-3860,31	133,00
-3847,98	171,00
-3835,66	127,00
-3823,36	71,00
-3811,09	107,00
-3798,83	184,00
-3786,59	90,00
-3774,37	298,00
-3762,17	300,00
-3749,98	186,00
-3737,82	63,00
-3725,67	74,00
-3713,55	106,00
-3701,44	187,00
-3689,35	115,00
-3677,28	210,00
-3665,22	34,00
-3653,19	139,00
-3641,17	270,00
-3629,18	94,00
-3617,20	208,00
-3605,24	115,00
-3593,30	351,00
-3581,37	172,00
-3569,47	219,00
-3557,58	93,00
-3545,71	107,00
-3533,86	24,00
-3522,02	103,00
-3510,21	113,00
-3498,41	23,00
-3486,63	83,00
-3474,87	126,00
-3463,12	86,00
-3451,40	110,00
-3439,69	113,00
-3428,00	134,00
-3416,33	107,00
-3404,67	85,00
-3393,03	184,00
-3381,41	132,00
-3369,81	118,00
-3358,22	179,00
-3346,66	104,00
-3335,10	97,00
-3323,57	123,00
-3312,06	59,00
-3300,56	163,00
-3289,08	109,00
-3277,61	94,00
-3266,16	36,00
-3254,73	187,00
-3243,32	159,00
-3231,92	137,00
-3220,55	71,00
-3209,18	191,00
-3197,84	110,00
-3186,51	124,00
-3175,20	123,00
-3163,90	177,00
-3152,63	119,00
-3141,36	229,00
-3130,12	178,00
-3118,89	101,00
-3107,68	39,00
-3096,49	88,00
-3085,31	194,00
-3074,15	-8,00
-3063,00	57,00
-3051,87	169,00
-3040,76	151,00
-3029,67	176,00
-3018,59	224,00
-3007,52	146,00
-2996,48	202,00
-2985,44	123,00
-2974,43	156,00
-2963,43	169,00
-2952,45	167,00
-2941,48	194,00
-2930,53	163,00
-2919,60	139,00
-2908,68	103,00
-2897,78	210,00
-2886,89	130,00
-2876,02	218,00
-2865,17	43,00
-2854,33	80,00
-2843,50	180,00
-2832,70	214,00
-2821,90	52,00
-2811,13	-9,00
-2800,37	203,00
-2789,62	139,00
-2778,89	107,00
-2768,18	112,00
-2757,48	165,00
-2746,80	121,00
-2736,13	61,00
-2725,48	234,00
-2714,84	91,00
-2704,22	81,00
-2693,61	-11,00
-2683,02	68,00
-2672,45	180,00
-2661,89	187,00
-2651,34	125,00
-2640,81	177,00
-2630,30	239,00
-2619,80	97,00
-2609,31	202,00
-2598,84	163,00
-2588,39	151,00
-2577,95	174,00
-2567,52	192,00
-2557,11	-22,00
-2546,71	84,00
-2536,33	143,00
-2525,97	145,00
-2515,62	146,00
-2505,28	161,00
-2494,96	8,00
-2484,65	177,00
-2474,36	258,00
-2464,08	155,00
-2453,82	43,00
-2443,57	112,00
-2433,33	120,00
-2423,11	211,00
-2412,91	174,00
-2402,72	101,00
-2392,54	90,00
-2382,38	93,00
-2372,23	180,00
-2362,09	-3962,00
-2351,97	218,00
-2341,87	122,00
-2331,78	172,00
-2321,70	112,00
-2311,64	200,00
-2301,59	90,00
-2291,55	122,00
-2281,53	218,00
-2271,53	77,00
-2261,53	72,00
-2251,55	204,00
-2241,59	196,00
-2231,64	125,00
-2221,70	171,00
-2211,78	225,00
-2201,87	159,00
-2191,97	132,00
-2182,09	155,00
-2172,22	258,00
-2162,37	79,00
-2152,53	121,00
-2142,70	113,00
-2132,89	53,00
-2123,09	93,00
-2113,30	136,00
-2103,53	85,00
-2093,77	101,00
-2084,02	222,00
-2074,29	95,00
-2064,57	213,00
-2054,86	78,00
-2045,17	18,00
-2035,49	187,00
-2025,82	87,00
-2016,17	91,00
-2006,53	170,00
-1996,91	199,00
-1987,29	7,00
-1977,69	173,00
-1968,11	49,00
-1958,53	189,00
-1948,97	108,00
-1939,42	14,00
-1929,89	90,00
-1920,37	89,00
-1910,86	108,00
-1901,36	91,00
-1891,88	87,00
-1882,41	96,00
-1872,95	164,00
-1863,51	178,00
-1854,08	156,00
-1844,66	65,00
-1835,26	152,00
-1825,86	139,00
-1816,48	164,00
-1807,11	106,00
-1797,76	165,00
-1788,42	122,00
-1779,09	254,00
-1769,77	62,00
-1760,47	130,00
-1751,17	128,00
-1741,89	65,00
-1732,63	133,00
-1723,37	122,00
-1714,13	182,00
-1704,90	87,00
-1695,68	203,00
-1686,48	238,00
-1677,29	99,00
-1668,11	209,00
-1658,94	91,00
-1649,78	120,00
-1640,64	165,00
-1631,51	164,00
-1622,39	148,00
-1613,28	216,00
-1604,19	180,00
-1595,10	124,00
-1586,03	73,00
-1576,97	159,00
-1567,93	96,00
-1558,89	70,00
-1549,87	118,00
-1540,86	96,00
-1531,86	159,00
-1522,87	189,00
-1513,90	192,00
-1504,93	116,00
-1495,98	105,00
-1487,04	102,00
-1478,12	107,00
-1469,20	170,00
-1460,30	131,00
-1451,40	135,00
-1442,52	192,00
-1433,65	135,00
-1424,80	146,00
-1415,95	96,00
-1407,12	95,00
-1398,30	109,00
-1389,48	209,00
-1380,69	90,00
-1371,90	48,00
-1363,12	222,00
-1354,36	225,00
-1345,60	95,00
-1336,86	98,00
-1328,13	35,00
-1319,41	142,00
-1310,70	115,00
-1302,01	194,00
-1293,32	125,00
-1284,65	76,00
-1275,99	112,00
-1267,33	130,00
-1258,69	155,00
-1250,06	166,00
-1241,45	98,00
-1232,84	150,00
-1224,25	198,00
-1215,66	55,00
-1207,09	172,00
-1198,53	144,00
-1189,97	148,00
-1181,43	170,00
-1172,91	209,00
-1164,39	260,00
-1155,88	142,00
-1147,38	142,00
-1138,90	-23,00
-1130,43	194,00
-1121,96	145,00
-1113,51	133,00
-1105,07	144,00
-1096,64	278,00
-1088,22	170,00
-1079,81	121,00
-1071,41	98,00
-1063,02	111,00
-1054,65	68,00
-1046,28	125,00
-1037,92	113,00
-1029,58	77,00
-1021,24	174,00
-1012,92	106,00
-1004,61	199,00
-996,30	115,00
-988,01	35,00
-979,73	54,00
-971,46	112,00
-963,20	127,00
-954,95	139,00
-946,71	36,00
-938,48	85,00
-930,26	149,00
-922,06	139,00
-913,86	236,00
-905,67	124,00
-897,49	179,00
-889,33	128,00
-881,17	157,00
-873,02	132,00
-864,89	168,00
-856,76	75,00
-848,65	108,00
-840,54	203,00
-832,45	159,00
-824,36	205,00
-816,29	265,00
-808,22	166,00
-800,17	73,00
-792,12	227,00
-784,09	147,00
-776,06	80,00
-768,05	210,00
-760,04	169,00
-752,05	175,00
-744,07	166,00
-736,09	85,00
-728,13	63,00
-720,17	203,00
-712,23	240,00
-704,29	176,00
-696,37	176,00
-688,45	193,00
-680,55	55,00
-672,65	107,00
-664,77	203,00
-656,89	137,00
-649,03	36,00
-641,17	118,00
-633,32	193,00
-625,49	200,00
-617,66	158,00
-609,84	194,00
-602,03	185,00
-594,23	156,00
-586,45	68,00
-578,67	197,00
-570,90	242,00
-563,14	124,00
-555,39	182,00
-547,65	216,00
-539,91	113,00
-532,19	156,00
-524,48	200,00
-516,78	115,00
-509,08	117,00
-501,40	105,00
-493,72	257,00
-486,06	129,00
-478,40	215,00
-470,76	121,00
-463,12	58,00
-455,49	73,00
-447,87	177,00
-440,26	164,00
-432,66	99,00
-425,07	135,00
-417,49	89,00
-409,92	171,00
-402,35	128,00
-394,80	116,00
-387,25	179,00
-379,72	176,00
-372,19	93,00
-364,67	18,00
-357,17	75,00
-349,67	160,00
-342,18	270,00
-334,69	199,00
-327,22	132,00
-319,76	128,00
-312,30	199,00
-304,86	217,00
-297,42	92,00
-290,00	234,00
-282,58	161,00
-275,17	220,00
-267,77	128,00
-260,37	144,00
-252,99	80,00
-245,62	156,00
-238,25	191,00
-230,90	181,00
-223,55	206,00
-216,21	181,00
-208,88	210,00
-201,56	357,00
-194,25	266,00
-186,94	330,00
-179,65	434,00
-172,36	279,00
-165,08	353,00
-157,81	300,00
-150,55	391,00
-143,30	417,00
-136,06	417,00
-128,82	577,00
-121,60	644,00
-114,38	531,00
-107,17	595,00
-99,97	696,00
-92,78	687,00
-85,60	818,00
-78,42	1030,00
-71,25	1197,00
-64,10	1322,00
-56,95	1406,00
-49,81	1767,00
-42,67	2138,00
-35,55	2562,00
-28,43	3392,00
-21,33	5457,00
-14,23	18434,00
-7,14	56239,00
-0,05	55969,00
7,02	55668,00
14,09	54542,00
21,14	14965,00
28,19	6352,00
35,23	4124,00
42,27	3221,00
49,29	2660,00
56,31	2229,00
63,32	1856,00
70,32	1574,00
77,31	1357,00
84,29	1132,00
91,27	1015,00
98,23	873,00
105,19	949,00
112,14	932,00
119,09	1185,00
126,02	1601,00
132,95	1731,00
139,87	1818,00
146,78	1712,00
153,68	1660,00
160,58	1690,00
167,46	1686,00
174,34	1579,00
181,21	1586,00
188,08	1653,00
194,93	1548,00
201,78	1612,00
208,62	1554,00
215,45	1507,00
222,27	1572,00
229,09	1583,00
235,90	1463,00
242,70	1493,00
249,49	1368,00
256,27	1424,00
263,05	1534,00
269,82	1443,00
276,58	1415,00
283,33	1423,00
290,08	1376,00
296,82	1419,00
303,55	1309,00
310,27	1497,00
316,98	1412,00
323,69	1333,00
330,39	1404,00
337,08	1332,00
343,76	1347,00
350,44	1378,00
357,11	1221,00
363,77	1352,00
370,42	1208,00
377,07	1197,00
383,71	1300,00
390,34	1289,00
396,96	1180,00
403,58	1278,00
410,19	1331,00
416,79	1319,00
423,38	1293,00
429,97	1342,00
436,55	1164,00
443,12	1148,00
449,68	1125,00
456,24	1170,00
462,79	1175,00
469,33	1097,00
475,86	1083,00
482,39	1098,00
488,91	969,00
495,42	1139,00
501,93	1136,00
508,42	1136,00
514,91	1149,00
521,40	1007,00
527,87	1150,00
534,34	988,00
540,80	1046,00
547,25	1027,00
553,70	1044,00
560,14	979,00
566,57	1029,00
573,00	1060,00
579,41	1000,00
585,83	1037,00
592,23	963,00
598,62	1112,00
605,01	896,00
611,40	938,00
617,77	1072,00
624,14	1111,00
630,50	1101,00
636,85	895,00
643,20	953,00
649,54	881,00
655,87	941,00
662,20	993,00
668,52	1074,00
674,83	930,00
681,13	919,00
687,43	966,00
693,72	898,00
700,00	874,00
706,28	918,00
712,55	823,00
718,81	864,00
725,07	832,00
731,32	851,00
737,56	783,00
743,79	859,00
750,02	999,00
756,24	939,00
762,46	906,00
768,67	855,00
774,87	968,00
781,06	811,00
787,25	872,00
793,43	911,00
799,60	933,00
805,77	908,00
811,93	1015,00
818,08	893,00
824,23	837,00
830,37	932,00
836,50	834,00
842,63	799,00
848,75	966,00
854,87	903,00
860,97	897,00
867,07	900,00
873,17	1003,00
879,25	982,00
885,33	931,00
891,41	770,00
897,47	953,00
903,53	923,00
909,59	875,00
915,63	874,00
921,67	843,00
927,71	844,00
933,74	809,00
939,76	780,00
945,77	784,00
951,78	800,00
957,78	867,00
963,78	784,00
969,77	839,00
975,75	754,00
981,72	771,00
987,69	948,00
993,66	616,00
999,61	912,00
1005,56	899,00
1011,51	908,00
1017,44	837,00
1023,37	859,00
1029,30	688,00
1035,22	863,00
1041,13	827,00
1047,03	858,00
1052,93	933,00
1058,83	983,00
1064,71	1045,00
1070,59	1035,00
1076,47	756,00
1082,33	900,00
1088,20	732,00
1094,05	771,00
1099,90	773,00
1105,74	765,00
1111,58	771,00
1117,41	827,00
1123,23	831,00
1129,05	952,00
1134,86	878,00
1140,67	842,00
1146,47	747,00
1152,26	684,00
1158,05	690,00
1163,83	775,00
1169,60	622,00
1175,37	829,00
1181,13	702,00
1186,89	718,00
1192,64	796,00
1198,38	638,00
1204,12	757,00
1209,85	587,00
1215,58	834,00
1221,30	778,00
1227,02	686,00
1232,72	697,00
1238,43	722,00
1244,12	808,00
1249,81	787,00
1255,50	808,00
1261,17	878,00
1266,85	647,00
1272,51	809,00
1278,17	767,00
1283,83	855,00
1289,47	1000,00
1295,12	1176,00
1300,75	1163,00
1306,38	1098,00
1312,01	1019,00
1317,63	998,00
1323,24	851,00
1328,85	867,00
1334,45	914,00
1340,04	845,00
1345,63	890,00
1351,22	874,00
1356,80	890,00
1362,37	911,00
1367,93	936,00
1373,49	880,00
1379,05	871,00
1384,60	960,00
1390,14	985,00
1395,68	923,00
1401,21	823,00
1406,74	828,00
1412,26	1031,00
1417,77	929,00
1423,28	1022,00
1428,78	1157,00
1434,28	1082,00
1439,77	1280,00
1445,26	1250,00
1450,74	1335,00
1456,22	1119,00
1461,68	1136,00
1467,15	1214,00
1472,61	950,00
1478,06	935,00
1483,51	957,00
1488,95	884,00
1494,38	804,00
1499,81	817,00
1505,24	768,00
1510,65	627,00
1516,07	811,00
1521,48	668,00
1526,88	776,00
1532,27	733,00
1537,67	673,00
1543,05	727,00
1548,43	735,00
1553,81	675,00
1559,18	735,00
1564,54	757,00
1569,90	712,00
1575,25	730,00
1580,60	693,00
1585,94	637,00
1591,28	621,00
1596,61	616,00
1601,93	667,00
1607,25	560,00
1612,57	636,00
1617,88	757,00
1623,18	851,00
1628,48	707,00
1633,77	732,00
1639,06	666,00
1644,34	654,00
1649,62	647,00
1654,89	677,00
1660,16	623,00
1665,42	606,00
1670,67	629,00
1675,92	593,00
1681,17	587,00
1686,41	658,00
1691,64	568,00
1696,87	614,00
1702,10	628,00
1707,32	681,00
1712,53	526,00
1717,74	644,00
1722,94	695,00
1728,14	646,00
1733,33	537,00
1738,52	614,00
1743,70	568,00
1748,88	618,00
1754,05	713,00
1759,22	643,00
1764,38	1936,00
1769,53	568,00
1774,69	667,00
1779,83	619,00
1784,97	643,00
1790,11	579,00
1795,24	626,00
1800,36	550,00
1805,48	595,00
1810,60	567,00
1815,71	498,00
1820,82	646,00
1825,92	502,00
1831,01	654,00
1836,10	491,00
1841,19	610,00
1846,26	513,00
1851,34	498,00
1856,41	565,00
1861,47	560,00
1866,53	475,00
1871,59	459,00
1876,64	600,00
1881,68	618,00
1886,72	538,00
1891,76	540,00
1896,79	441,00
1901,81	591,00
1906,83	532,00
1911,85	425,00
1916,86	603,00
1921,86	439,00
1926,86	501,00
1931,86	494,00
1936,85	471,00
1941,83	522,00
1946,81	498,00
1951,79	448,00
1956,76	511,00
1961,72	489,00
1966,68	461,00
1971,64	450,00
1976,59	440,00
1981,54	403,00
1986,48	494,00
1991,42	493,00
1996,35	438,00
2001,27	402,00
2006,20	435,00
2011,11	443,00
2016,03	395,00
2020,93	332,00
2025,84	461,00
2030,73	501,00
2035,63	559,00
2040,52	437,00
2045,40	350,00
2050,28	421,00
2055,15	436,00
2060,02	427,00
2064,89	392,00
2069,75	402,00
2074,60	517,00
2079,46	391,00
2084,30	376,00
2089,14	415,00
2093,98	406,00
2098,81	452,00
2103,64	424,00
2108,46	402,00
2113,28	450,00
2118,09	464,00
2122,90	428,00
2127,70	372,00
2132,50	491,00
2137,30	451,00
2142,09	442,00
2146,87	353,00
2151,66	458,00
2156,43	436,00
2161,20	430,00
2165,97	344,00
2170,73	259,00
2175,49	439,00
2180,24	444,00
2184,99	435,00
2189,74	477,00
2194,48	376,00
2199,21	449,00
2203,94	343,00
2208,67	445,00
2213,39	374,00
2218,11	448,00
2222,82	451,00
2227,53	385,00
2232,23	480,00
2236,93	358,00
2241,63	400,00
2246,32	316,00
2251,00	345,00
2255,68	355,00
2260,36	370,00
2265,03	400,00
2269,70	356,00
2274,36	454,00
2279,02	300,00
2283,68	487,00
2288,33	422,00
2292,97	361,00
2297,61	335,00
2302,25	349,00
2306,88	293,00
2311,51	322,00
2316,14	402,00
2320,75	278,00
2325,37	316,00
2329,98	279,00
2334,59	322,00
2339,19	364,00
2343,79	245,00
2348,38	361,00
2352,97	385,00
2357,55	298,00
2362,13	464,00
2366,71	341,00
2371,28	335,00
2375,85	403,00
2380,41	293,00
2384,97	340,00
2389,52	238,00
2394,07	303,00
2398,62	351,00
2403,16	351,00
2407,70	318,00
2412,23	444,00
2416,76	423,00
2421,29	228,00
2425,81	522,00
2430,32	206,00
2434,84	343,00
2439,34	382,00
2443,85	438,00
2448,35	249,00
2452,84	283,00
2457,33	437,00
2461,82	326,00
2466,30	371,00
2470,78	372,00
2475,25	380,00
2479,72	369,00
2484,19	397,00
2488,65	297,00
2493,11	350,00
2497,56	441,00
2502,01	221,00
2506,46	408,00
2510,90	284,00
2515,34	304,00
2519,77	400,00
2524,20	280,00
2528,62	292,00
2533,04	344,00
2537,46	288,00
2541,87	363,00
2546,28	268,00
2550,68	211,00
2555,08	284,00
2559,48	341,00
2563,87	258,00
2568,26	270,00
2572,64	352,00
2577,02	317,00
2581,40	266,00
2585,77	278,00
2590,14	376,00
2594,50	277,00
2598,86	326,00
2603,22	188,00
2607,57	335,00
2611,92	362,00
2616,26	259,00
2620,60	312,00
2624,94	293,00
2629,27	320,00
2633,60	382,00
2637,92	375,00
2642,24	329,00
2646,56	345,00
2650,87	265,00
2655,18	292,00
2659,48	232,00
2663,78	356,00
2668,08	350,00
2672,37	351,00
2676,66	303,00
2680,95	280,00
2685,23	321,00
2689,50	210,00
2693,78	359,00
2698,05	297,00
2702,31	412,00
2706,57	351,00
2710,83	347,00
2715,08	273,00
2719,33	343,00
2723,58	287,00
2727,82	455,00
2732,06	320,00
2736,29	462,00
2740,53	308,00
2744,75	236,00
2748,97	387,00
2753,19	263,00
2757,41	353,00
2761,62	363,00
2765,83	219,00
2770,03	321,00
2774,23	226,00
2778,43	257,00
2782,62	220,00
2786,81	293,00
2791,00	360,00
2795,18	241,00
2799,35	454,00
2803,53	194,00
2807,70	388,00
2811,86	358,00
2816,03	393,00
2820,19	288,00
2824,34	318,00
2828,49	380,00
2832,64	416,00
2836,78	394,00
2840,92	610,00
2845,06	617,00
2849,19	699,00
2853,32	715,00
2857,45	856,00
2861,57	757,00
2865,69	761,00
2869,80	740,00
2873,91	818,00
2878,02	778,00
2882,12	757,00
2886,22	750,00
2890,32	733,00
2894,41	698,00
2898,50	671,00
2902,58	632,00
2906,67	668,00
2910,74	645,00
2914,82	552,00
2918,89	661,00
2922,96	553,00
2927,02	404,00
2931,08	460,00
2935,13	486,00
2939,19	444,00
2943,24	467,00
2947,28	434,00
2951,32	454,00
2955,36	296,00
2959,40	377,00
2963,43	302,00
2967,46	356,00
2971,48	349,00
2975,50	333,00
2979,52	349,00
2983,53	393,00
2987,54	266,00
2991,55	352,00
2995,55	211,00
2999,55	259,00
3003,54	320,00
3007,54	316,00
3011,53	290,00
3015,51	90,00
3019,49	246,00
3023,47	174,00
3027,45	193,00
3031,42	257,00
3035,39	242,00
3039,35	229,00
3043,31	207,00
3047,27	197,00
3051,22	282,00
3055,17	278,00
3059,12	220,00
3063,06	205,00
3067,00	227,00
3070,94	180,00
3074,87	284,00
3078,80	259,00
3082,73	170,00
3086,65	212,00
3090,57	121,00
3094,49	189,00
3098,40	213,00
3102,31	141,00
3106,22	223,00
3110,12	101,00
3114,02	88,00
3117,92	271,00
3121,81	169,00
3125,70	78,00
3129,58	251,00
3133,47	153,00
3137,34	159,00
3141,22	149,00
3145,09	180,00
3148,96	219,00
3152,83	48,00
3156,69	247,00
3160,55	154,00
3164,40	262,00
3168,26	187,00
3172,10	140,00
3175,95	306,00
3179,79	237,00
3183,63	262,00
3187,47	196,00
3191,30	164,00
3195,13	162,00
3198,95	69,00
3202,78	172,00
3206,60	149,00
3210,41	103,00
3214,23	191,00
3218,03	164,00
3221,84	252,00
3225,64	166,00
3229,44	180,00
3233,24	132,00
3237,03	223,00
3240,82	167,00
3244,61	66,00
3248,39	179,00
3252,17	230,00
3255,95	206,00
3259,72	189,00
3263,49	171,00
3267,26	190,00
3271,03	162,00
3274,79	94,00
3278,54	175,00
3282,30	138,00
3286,05	169,00
3289,80	231,00
3293,54	171,00
3297,29	181,00
3301,02	149,00
3304,76	160,00
3308,49	243,00
3312,22	144,00
3315,95	215,00
3319,67	156,00
3323,39	187,00
3327,10	286,00
3330,82	115,00
3334,53	85,00
3338,24	232,00
3341,94	188,00
3345,64	250,00
3349,34	135,00
3353,03	197,00
3356,72	222,00
3360,41	232,00
3364,10	199,00
3367,78	188,00
3371,46	301,00
3375,13	228,00
3378,81	134,00
3382,48	103,00
3386,14	220,00
3389,81	115,00
3393,47	225,00
3397,12	225,00
3400,78	270,00
3404,43	171,00
3408,08	112,00
3411,72	122,00
3415,36	144,00
3419,00	287,00
3422,64	162,00
3426,27	190,00
3429,90	39,00
3433,53	74,00
3437,15	126,00
3440,77	150,00
3444,39	87,00
3448,00	146,00
3451,62	83,00
3455,22	181,00
3458,83	131,00
3462,43	152,00
3466,03	16,00
3469,63	220,00
3473,22	147,00
3476,81	205,00
3480,40	119,00
3483,99	117,00
3487,57	156,00
3491,15	159,00
3494,72	157,00
3498,29	171,00
3501,86	72,00
3505,43	63,00
3508,99	146,00
3512,56	80,00
3516,11	230,00
3519,67	98,00
3523,22	137,00
3526,77	94,00
3530,32	184,00
3533,86	73,00
3537,40	153,00
3540,94	145,00
3544,47	116,00
3548,00	-6,00
3551,53	187,00
3555,06	124,00
3558,58	67,00
3562,10	158,00
3565,62	39,00
3569,13	108,00
3572,64	106,00
3576,15	129,00
3579,66	75,00
3583,16	276,00
3586,66	242,00
3590,16	130,00
3593,65	135,00
3597,14	156,00
3600,63	157,00
3604,11	141,00
3607,60	124,00
3611,08	45,00
3614,55	125,00
3618,03	168,00
3621,50	45,00
3624,97	71,00
3628,43	168,00
3631,90	110,00
3635,36	98,00
3638,81	124,00
3642,27	135,00
3645,72	263,00
3649,17	166,00
3652,61	110,00
3656,06	157,00
3659,50	49,00
3662,93	100,00
3666,37	9,00
3669,80	212,00
3673,23	275,00
3676,65	281,00
3680,08	135,00
3683,50	131,00
3686,92	157,00
3690,33	103,00
3693,74	162,00
3697,15	107,00
3700,56	106,00
3703,96	127,00
3707,36	18,00
3710,76	228,00
3714,16	144,00
3717,55	89,00
3720,94	135,00
3724,33	67,00
3727,71	233,00
3731,10	148,00
3734,48	112,00
3737,85	61,00
3741,23	104,00
3744,60	68,00
3747,97	170,00
3751,33	-26,00
3754,69	140,00
3758,05	38,00
3761,41	138,00
3764,77	103,00
3768,12	160,00
3771,47	80,00
3774,82	26,00
3778,16	3,00
3781,50	3,00
3784,84	3,00
3788,18	-1,00
>>>>>End Processed Spectral Data<<<<<
