SpectraSuite Data File
++++++++++++++++++++++++++++++++++++
Date: Tue Mar 03 10:48:44 ICT 2026
User: user
Dark Spectrum Present: Yes
Reference Spectrum Present: No
Number of Sampled Component Spectra: 1
Spectrometers: MAYP113682
Integration Time (usec): 3000000 (MAYP113682)
Spectra Averaged: 1 (MAYP113682)
Boxcar Smoothing: 0 (MAYP113682)
Correct for Electrical Dark: No (MAYP113682)
Strobe/Lamp Enabled: No (MAYP113682)
Correct for Detector Non-linearity: No (MAYP113682)
Correct for Stray Light: No (MAYP113682)
Number of Pixels in Processed Spectrum: 2068
>>>>>Begin Processed Spectral Data<<<<<
-37534,58	9,00
-37414,56	2,00
-37295,11	6,00
-37176,24	-5,00
-37057,95	106,00
-36940,22	206,00
-36823,05	277,00
-36706,45	233,00
-36590,40	307,00
-36474,90	253,00
-36359,95	349,00
-36245,55	270,00
-36131,68	297,00
-36018,35	248,00
-35905,55	305,00
-35793,29	282,00
-35681,54	325,00
-35570,32	322,00
-35459,62	371,00
-35349,43	302,00
-35239,75	363,00
-35130,58	320,00
-35021,91	203,00
-34913,74	391,00
-34806,07	255,00
-34698,89	299,00
-34592,20	201,00
-34486,00	334,00
-34380,28	361,00
-34275,04	214,00
-34170,27	221,00
-34065,98	376,00
-33962,16	208,00
-33858,81	318,00
-33755,92	390,00
-33653,49	375,00
-33551,52	334,00
-33450,01	362,00
-33348,94	328,00
-33248,33	305,00
-33148,16	294,00
-33048,43	347,00
-32949,14	219,00
-32850,29	304,00
-32751,87	227,00
-32653,89	378,00
-32556,33	326,00
-32459,20	388,00
-32362,49	314,00
-32266,19	440,00
-32170,32	272,00
-32074,86	323,00
-31979,82	388,00
-31885,18	441,00
-31790,95	425,00
-31697,12	163,00
-31603,69	217,00
-31510,67	356,00
-31418,04	208,00
-31325,80	216,00
-31233,95	349,00
-31142,49	356,00
-31051,42	260,00
-30960,73	401,00
-30870,43	328,00
-30780,50	278,00
-30690,95	226,00
-30601,77	349,00
-30512,97	277,00
-30424,53	341,00
-30336,46	214,00
-30248,76	333,00
-30161,42	315,00
-30074,44	325,00
-29987,81	307,00
-29901,55	366,00
-29815,63	324,00
-29730,07	313,00
-29644,86	312,00
-29560,00	388,00
-29475,48	417,00
-29391,30	307,00
-29307,47	403,00
-29223,97	325,00
-29140,81	331,00
-29057,99	323,00
-28975,50	387,00
-28893,34	424,00
-28811,51	225,00
-28730,00	326,00
-28648,82	241,00
-28567,97	273,00
-28487,43	298,00
-28407,21	219,00
-28327,32	235,00
-28247,73	302,00
-28168,46	316,00
-28089,50	321,00
-28010,85	162,00
-27932,51	287,00
-27854,48	316,00
-27776,75	246,00
-27699,32	289,00
-27622,19	442,00
-27545,37	276,00
-27468,84	392,00
-27392,60	301,00
-27316,66	413,00
-27241,01	389,00
-27165,66	320,00
-27090,59	227,00
-27015,81	266,00
-26941,31	339,00
-26867,10	352,00
-26793,17	375,00
-26719,52	311,00
-26646,15	262,00
-26573,06	380,00
-26500,24	325,00
-26427,70	322,00
-26355,43	344,00
-26283,43	297,00
-26211,71	306,00
-26140,25	332,00
-26069,06	266,00
-25998,13	306,00
-25927,46	299,00
-25857,06	249,00
-25786,92	284,00
-25717,04	312,00
-25647,42	441,00
-25578,05	341,00
-25508,94	329,00
-25440,09	392,00
-25371,48	352,00
-25303,13	298,00
-25235,02	305,00
-25167,17	414,00
-25099,56	380,00
-25032,19	303,00
-24965,07	276,00
-24898,20	318,00
-24831,56	333,00
-24765,17	370,00
-24699,01	357,00
-24633,10	290,00
-24567,41	205,00
-24501,97	357,00
-24436,75	341,00
-24371,77	339,00
-24307,03	314,00
-24242,51	307,00
-24178,22	324,00
-24114,16	217,00
-24050,32	377,00
-23986,71	428,00
-23923,32	290,00
-23860,16	300,00
-23797,22	277,00
-23734,50	289,00
-23672,00	331,00
-23609,71	383,00
-23547,65	438,00
-23485,80	391,00
-23424,16	305,00
-23362,74	337,00
-23301,53	251,00
-23240,54	294,00
-23179,75	419,00
-23119,17	272,00
-23058,80	276,00
-22998,64	426,00
-22938,68	354,00
-22878,93	219,00
-22819,39	353,00
-22760,04	180,00
-22700,90	345,00
-22641,96	291,00
-22583,22	304,00
-22524,68	187,00
-22466,33	336,00
-22408,19	261,00
-22350,23	320,00
-22292,48	265,00
-22234,92	312,00
-22177,55	331,00
-22120,37	217,00
-22063,38	418,00
-22006,58	251,00
-21949,98	373,00
-21893,56	212,00
-21837,33	361,00
-21781,28	283,00
-21725,42	382,00
-21669,74	309,00
-21614,25	437,00
-21558,94	368,00
-21503,81	295,00
-21448,86	268,00
-21394,10	354,00
-21339,51	238,00
-21285,10	234,00
-21230,86	362,00
-21176,81	279,00
-21122,93	225,00
-21069,22	342,00
-21015,69	352,00
-20962,33	389,00
-20909,14	229,00
-20856,13	247,00
-20803,28	434,00
-20750,61	286,00
-20698,10	279,00
-20645,76	373,00
-20593,59	364,00
-20541,59	294,00
-20489,75	235,00
-20438,07	315,00
-20386,56	372,00
-20335,22	289,00
-20284,03	282,00
-20233,01	285,00
-20182,15	210,00
-20131,45	296,00
-20080,91	241,00
-20030,52	361,00
-19980,30	258,00
-19930,23	333,00
-19880,32	301,00
-19830,56	331,00
-19780,96	385,00
-19731,52	290,00
-19682,23	183,00
-19633,09	326,00
-19584,10	346,00
-19535,26	278,00
-19486,58	267,00
-19438,04	323,00
-19389,66	321,00
-19341,42	191,00
-19293,33	348,00
-19245,39	293,00
-19197,60	321,00
-19149,95	254,00
-19102,45	320,00
-19055,09	257,00
-19007,87	327,00
-18960,80	234,00
-18913,87	375,00
-18867,09	363,00
-18820,44	307,00
-18773,94	330,00
-18727,57	303,00
-18681,35	243,00
-18635,26	314,00
-18589,31	186,00
-18543,50	197,00
-18497,83	284,00
-18452,29	264,00
-18406,89	288,00
-18361,63	551,00
-18316,50	338,00
-18271,50	310,00
-18226,63	453,00
-18181,90	295,00
-18137,30	342,00
-18092,84	210,00
-18048,50	273,00
-18004,29	337,00
-17960,22	422,00
-17916,27	261,00
-17872,45	256,00
-17828,76	385,00
-17785,20	364,00
-17741,77	323,00
-17698,46	361,00
-17655,28	289,00
-17612,22	367,00
-17569,29	294,00
-17526,48	352,00
-17483,79	231,00
-17441,23	288,00
-17398,79	224,00
-17356,48	323,00
-17314,28	305,00
-17272,21	289,00
-17230,26	311,00
-17188,42	311,00
-17146,71	345,00
-17105,12	338,00
-17063,64	171,00
-17022,28	238,00
-16981,04	346,00
-16939,92	213,00
-16898,91	292,00
-16858,02	337,00
-16817,25	202,00
-16776,59	240,00
-16736,04	248,00
-16695,61	323,00
-16655,29	357,00
-16615,09	306,00
-16574,99	257,00
-16535,01	383,00
-16495,15	317,00
-16455,39	368,00
-16415,74	220,00
-16376,21	306,00
-16336,78	287,00
-16297,46	462,00
-16258,26	342,00
-16219,16	407,00
-16180,17	271,00
-16141,28	334,00
-16102,51	307,00
-16063,84	331,00
-16025,27	270,00
-15986,82	214,00
-15948,46	162,00
-15910,22	364,00
-15872,07	285,00
-15834,04	208,00
-15796,10	394,00
-15758,27	307,00
-15720,54	265,00
-15682,91	187,00
-15645,39	310,00
-15607,97	232,00
-15570,64	335,00
-15533,42	319,00
-15496,30	348,00
-15459,28	202,00
-15422,36	327,00
-15385,54	400,00
-15348,82	327,00
-15312,19	450,00
-15275,66	410,00
-15239,23	270,00
-15202,90	320,00
-15166,67	203,00
-15130,53	306,00
-15094,48	321,00
-15058,54	307,00
-15022,68	329,00
-14986,93	292,00
-14951,26	303,00
-14915,69	354,00
-14880,22	215,00
-14844,84	363,00
-14809,55	282,00
-14774,35	312,00
-14739,25	230,00
-14704,24	376,00
-14669,32	190,00
-14634,49	294,00
-14599,75	273,00
-14565,10	312,00
-14530,55	367,00
-14496,08	305,00
-14461,70	303,00
-14427,41	180,00
-14393,21	259,00
-14359,10	277,00
-14325,07	292,00
-14291,14	306,00
-14257,29	304,00
-14223,52	326,00
-14189,85	292,00
-14156,26	393,00
-14122,76	280,00
-14089,34	343,00
-14056,01	323,00
-14022,76	387,00
-13989,60	295,00
-13956,52	444,00
-13923,53	206,00
-13890,62	327,00
-13857,79	225,00
-13825,05	382,00
-13792,39	362,00
-13759,81	320,00
-13727,31	187,00
-13694,90	364,00
-13662,57	321,00
-13630,31	328,00
-13598,14	288,00
-13566,05	327,00
-13534,05	264,00
-13502,12	358,00
-13470,27	232,00
-13438,50	280,00
-13406,80	308,00
-13375,19	269,00
-13343,66	213,00
-13312,20	358,00
-13280,83	371,00
-13249,53	326,00
-13218,30	306,00
-13187,16	364,00
-13156,09	350,00
-13125,10	367,00
-13094,18	338,00
-13063,34	408,00
-13032,58	251,00
-13001,89	321,00
-12971,28	377,00
-12940,74	214,00
-12910,27	337,00
-12879,88	337,00
-12849,57	273,00
-12819,33	372,00
-12789,16	218,00
-12759,06	204,00
-12729,04	371,00
-12699,09	588,00
-12669,21	263,00
-12639,41	325,00
-12609,68	303,00
-12580,02	384,00
-12550,43	355,00
-12520,91	301,00
-12491,46	339,00
-12462,08	249,00
-12432,77	218,00
-12403,54	328,00
-12374,37	341,00
-12345,27	317,00
-12316,24	324,00
-12287,29	345,00
-12258,40	175,00
-12229,57	239,00
-12200,82	223,00
-12172,14	393,00
-12143,52	261,00
-12114,97	183,00
-12086,49	387,00
-12058,07	259,00
-12029,73	300,00
-12001,44	347,00
-11973,23	337,00
-11945,08	342,00
-11917,00	312,00
-11888,98	299,00
-11861,03	384,00
-11833,15	341,00
-11805,32	317,00
-11777,57	303,00
-11749,88	419,00
-11722,25	316,00
-11694,69	393,00
-11667,19	189,00
-11639,75	534,00
-11612,38	233,00
-11585,07	352,00
-11557,83	335,00
-11530,65	334,00
-11503,53	372,00
-11476,47	312,00
-11449,48	314,00
-11422,54	257,00
-11395,67	336,00
-11368,86	252,00
-11342,11	278,00
-11315,43	322,00
-11288,80	318,00
-11262,23	364,00
-11235,73	332,00
-11209,28	431,00
-11182,90	451,00
-11156,57	352,00
-11130,31	374,00
-11104,10	283,00
-11077,96	281,00
-11051,87	394,00
-11025,84	340,00
-10999,87	382,00
-10973,96	262,00
-10948,11	284,00
-10922,31	312,00
-10896,58	303,00
-10870,90	484,00
-10845,28	396,00
-10819,71	223,00
-10794,20	349,00
-10768,75	404,00
-10743,36	283,00
-10718,02	297,00
-10692,74	400,00
-10667,52	334,00
-10642,35	320,00
-10617,24	455,00
-10592,18	364,00
-10567,18	427,00
-10542,23	356,00
-10517,34	416,00
-10492,51	376,00
-10467,72	408,00
-10443,00	441,00
-10418,32	427,00
-10393,70	441,00
-10369,14	512,00
-10344,63	407,00
-10320,17	441,00
-10295,77	465,00
-10271,42	506,00
-10247,12	509,00
-10222,88	557,00
-10198,68	592,00
-10174,54	475,00
-10150,46	555,00
-10126,42	700,00
-10102,44	643,00
-10078,51	561,00
-10054,63	673,00
-10030,80	764,00
-10007,03	779,00
-9983,30	676,00
-9959,63	653,00
-9936,01	739,00
-9912,44	647,00
-9888,92	729,00
-9865,44	888,00
-9842,02	849,00
-9818,65	960,00
-9795,33	905,00
-9772,06	841,00
-9748,84	783,00
-9725,67	1143,00
-9702,55	1061,00
-9679,47	1235,00
-9656,45	1153,00
-9633,47	1310,00
-9610,55	1319,00
-9587,67	1331,00
-9564,84	1648,00
-9542,06	1473,00
-9519,32	1689,00
-9496,64	1907,00
-9474,00	1970,00
-9451,41	2021,00
-9428,87	1990,00
-9406,37	1861,00
-9383,92	1715,00
-9361,52	1714,00
-9339,17	1744,00
-9316,86	1795,00
-9294,60	2013,00
-9272,38	2251,00
-9250,21	2531,00
-9228,09	2498,00
-9206,01	2373,00
-9183,98	2222,00
-9162,00	1906,00
-9140,06	1859,00
-9118,16	1785,00
-9096,31	1849,00
-9074,51	1874,00
-9052,75	1926,00
-9031,04	1913,00
-9009,37	1724,00
-8987,74	1521,00
-8966,16	1378,00
-8944,63	1306,00
-8923,14	1253,00
-8901,69	1262,00
-8880,29	1415,00
-8858,93	1573,00
-8837,61	1751,00
-8816,34	1799,00
-8795,11	1751,00
-8773,92	1569,00
-8752,78	1526,00
-8731,68	1527,00
-8710,62	1563,00
-8689,61	1499,00
-8668,63	1642,00
-8647,70	1832,00
-8626,82	1703,00
-8605,97	1632,00
-8585,17	1556,00
-8564,41	1463,00
-8543,69	1345,00
-8523,01	1258,00
-8502,37	1355,00
-8481,78	1324,00
-8461,23	1429,00
-8440,71	1534,00
-8420,24	1469,00
-8399,81	1744,00
-8379,42	1655,00
-8359,08	1441,00
-8338,77	1206,00
-8318,50	1241,00
-8298,27	1064,00
-8278,09	1200,00
-8257,94	1269,00
-8237,83	1531,00
-8217,76	1535,00
-8197,74	1442,00
-8177,75	1515,00
-8157,80	1411,00
-8137,89	1326,00
-8118,02	1342,00
-8098,19	1329,00
-8078,40	1146,00
-8058,65	1405,00
-8038,93	1362,00
-8019,26	1409,00
-7999,62	1310,00
-7980,02	1249,00
-7960,46	1197,00
-7940,94	1210,00
-7921,46	1227,00
-7902,01	1175,00
-7882,60	1337,00
-7863,23	1251,00
-7843,90	1271,00
-7824,61	1301,00
-7805,35	1420,00
-7786,13	1463,00
-7766,95	1389,00
-7747,80	1344,00
-7728,69	1267,00
-7709,62	1256,00
-7690,59	1316,00
-7671,59	1528,00
-7652,63	1419,00
-7633,70	1465,00
-7614,81	1394,00
-7595,96	1249,00
-7577,15	1088,00
-7558,37	1166,00
-7539,62	1342,00
-7520,91	1341,00
-7502,24	1492,00
-7483,60	1560,00
-7465,00	1290,00
-7446,44	1208,00
-7427,91	1097,00
-7409,41	1197,00
-7390,95	951,00
-7372,53	902,00
-7354,14	1032,00
-7335,78	1103,00
-7317,46	988,00
-7299,18	999,00
-7280,92	1263,00
-7262,71	1397,00
-7244,52	1369,00
-7226,38	1461,00
-7208,26	1469,00
-7190,18	1397,00
-7172,14	1221,00
-7154,12	1265,00
-7136,15	1180,00
-7118,20	1351,00
-7100,29	1441,00
-7082,41	1338,00
-7064,57	1345,00
-7046,76	1244,00
-7028,98	1073,00
-7011,24	1230,00
-6993,53	960,00
-6975,85	985,00
-6958,20	840,00
-6940,59	761,00
-6923,01	985,00
-6905,46	890,00
-6887,94	1100,00
-6870,46	1222,00
-6853,01	1310,00
-6835,59	1235,00
-6818,21	1216,00
-6800,85	1118,00
-6783,53	1015,00
-6766,24	781,00
-6748,98	722,00
-6731,76	692,00
-6714,56	766,00
-6697,40	634,00
-6680,26	687,00
-6663,16	886,00
-6646,09	916,00
-6629,05	1004,00
-6612,05	1082,00
-6595,07	1245,00
-6578,13	968,00
-6561,21	822,00
-6544,33	687,00
-6527,47	727,00
-6510,65	676,00
-6493,86	634,00
-6477,10	589,00
-6460,36	730,00
-6443,66	574,00
-6426,99	613,00
-6410,35	629,00
-6393,74	588,00
-6377,16	759,00
-6360,61	882,00
-6344,09	866,00
-6327,59	946,00
-6311,13	863,00
-6294,70	871,00
-6278,29	966,00
-6261,92	1011,00
-6245,58	910,00
-6229,26	1032,00
-6212,97	925,00
-6196,72	895,00
-6180,49	740,00
-6164,29	362,00
-6148,12	535,00
-6131,98	513,00
-6115,86	436,00
-6099,78	621,00
-6083,72	491,00
-6067,69	440,00
-6051,69	414,00
-6035,72	392,00
-6019,78	502,00
-6003,87	669,00
-5987,98	893,00
-5972,12	818,00
-5956,29	794,00
-5940,49	819,00
-5924,71	712,00
-5908,96	562,00
-5893,24	547,00
-5877,55	527,00
-5861,89	434,00
-5846,25	566,00
-5830,64	588,00
-5815,05	593,00
-5799,50	459,00
-5783,97	528,00
-5768,47	703,00
-5752,99	774,00
-5737,55	764,00
-5722,12	810,00
-5706,73	806,00
-5691,36	780,00
-5676,02	660,00
-5660,71	516,00
-5645,42	515,00
-5630,16	603,00
-5614,92	568,00
-5599,71	621,00
-5584,53	803,00
-5569,37	751,00
-5554,24	591,00
-5539,14	658,00
-5524,06	707,00
-5509,01	511,00
-5493,98	623,00
-5478,98	736,00
-5464,00	465,00
-5449,05	550,00
-5434,13	619,00
-5419,23	523,00
-5404,36	582,00
-5389,51	608,00
-5374,69	767,00
-5359,89	919,00
-5345,12	788,00
-5330,37	848,00
-5315,65	857,00
-5300,95	721,00
-5286,28	565,00
-5271,63	655,00
-5257,01	765,00
-5242,41	656,00
-5227,84	588,00
-5213,29	517,00
-5198,76	432,00
-5184,26	528,00
-5169,79	475,00
-5155,33	580,00
-5140,91	628,00
-5126,51	830,00
-5112,13	746,00
-5097,77	687,00
-5083,44	615,00
-5069,13	539,00
-5054,85	523,00
-5040,59	575,00
-5026,36	635,00
-5012,15	618,00
-4997,96	608,00
-4983,80	570,00
-4969,66	500,00
-4955,54	507,00
-4941,44	501,00
-4927,37	657,00
-4913,33	741,00
-4899,30	879,00
-4885,30	947,00
-4871,33	738,00
-4857,37	572,00
-4843,44	560,00
-4829,53	429,00
-4815,65	581,00
-4801,79	644,00
-4787,95	618,00
-4774,13	424,00
-4760,34	444,00
-4746,56	409,00
-4732,82	453,00
-4719,09	480,00
-4705,38	677,00
-4691,70	751,00
-4678,04	846,00
-4664,41	611,00
-4650,79	570,00
-4637,20	513,00
-4623,63	444,00
-4610,08	545,00
-4596,56	617,00
-4583,05	582,00
-4569,57	556,00
-4556,11	559,00
-4542,67	323,00
-4529,25	481,00
-4515,86	593,00
-4502,49	713,00
-4489,13	720,00
-4475,80	614,00
-4462,49	523,00
-4449,21	496,00
-4435,94	459,00
-4422,70	467,00
-4409,47	548,00
-4396,27	615,00
-4383,09	490,00
-4369,93	488,00
-4356,79	441,00
-4343,67	442,00
-4330,58	490,00
-4317,50	462,00
-4304,45	389,00
-4291,41	458,00
-4278,40	264,00
-4265,41	338,00
-4252,44	513,00
-4239,49	424,00
-4226,55	591,00
-4213,65	483,00
-4200,76	470,00
-4187,89	343,00
-4175,04	501,00
-4162,21	364,00
-4149,40	483,00
-4136,61	320,00
-4123,85	351,00
-4111,10	375,00
-4098,37	443,00
-4085,66	373,00
-4072,98	438,00
-4060,31	406,00
-4047,66	465,00
-4035,04	379,00
-4022,43	465,00
-4009,84	398,00
-3997,27	358,00
-3984,72	378,00
-3972,19	384,00
-3959,69	190,00
-3947,20	250,00
-3934,73	327,00
-3922,27	297,00
-3909,84	360,00
-3897,43	218,00
-3885,04	275,00
-3872,67	428,00
-3860,31	325,00
-3847,98	384,00
-3835,66	202,00
-3823,36	228,00
-3811,09	257,00
-3798,83	340,00
-3786,59	246,00
-3774,37	397,00
-3762,17	355,00
-3749,98	328,00
-3737,82	176,00
-3725,67	398,00
-3713,55	292,00
-3701,44	287,00
-3689,35	396,00
-3677,28	334,00
-3665,22	248,00
-3653,19	274,00
-3641,17	298,00
-3629,18	309,00
-3617,20	333,00
-3605,24	329,00
-3593,30	372,00
-3581,37	362,00
-3569,47	304,00
-3557,58	322,00
-3545,71	307,00
-3533,86	215,00
-3522,02	248,00
-3510,21	327,00
-3498,41	256,00
-3486,63	288,00
-3474,87	324,00
-3463,12	324,00
-3451,40	356,00
-3439,69	358,00
-3428,00	365,00
-3416,33	378,00
-3404,67	337,00
-3393,03	381,00
-3381,41	280,00
-3369,81	406,00
-3358,22	295,00
-3346,66	293,00
-3335,10	275,00
-3323,57	256,00
-3312,06	257,00
-3300,56	367,00
-3289,08	315,00
-3277,61	266,00
-3266,16	267,00
-3254,73	368,00
-3243,32	373,00
-3231,92	323,00
-3220,55	226,00
-3209,18	358,00
-3197,84	271,00
-3186,51	231,00
-3175,20	339,00
-3163,90	291,00
-3152,63	275,00
-3141,36	393,00
-3130,12	416,00
-3118,89	165,00
-3107,68	342,00
-3096,49	340,00
-3085,31	343,00
-3074,15	152,00
-3063,00	432,00
-3051,87	263,00
-3040,76	320,00
-3029,67	336,00
-3018,59	501,00
-3007,52	243,00
-2996,48	456,00
-2985,44	314,00
-2974,43	288,00
-2963,43	320,00
-2952,45	349,00
-2941,48	384,00
-2930,53	236,00
-2919,60	353,00
-2908,68	272,00
-2897,78	339,00
-2886,89	389,00
-2876,02	424,00
-2865,17	215,00
-2854,33	221,00
-2843,50	293,00
-2832,70	444,00
-2821,90	320,00
-2811,13	253,00
-2800,37	280,00
-2789,62	457,00
-2778,89	307,00
-2768,18	322,00
-2757,48	314,00
-2746,80	318,00
-2736,13	283,00
-2725,48	348,00
-2714,84	274,00
-2704,22	279,00
-2693,61	220,00
-2683,02	278,00
-2672,45	391,00
-2661,89	374,00
-2651,34	296,00
-2640,81	341,00
-2630,30	523,00
-2619,80	352,00
-2609,31	372,00
-2598,84	340,00
-2588,39	251,00
-2577,95	273,00
-2567,52	321,00
-2557,11	155,00
-2546,71	347,00
-2536,33	250,00
-2525,97	358,00
-2515,62	260,00
-2505,28	328,00
-2494,96	234,00
-2484,65	305,00
-2474,36	345,00
-2464,08	382,00
-2453,82	187,00
-2443,57	306,00
-2433,33	335,00
-2423,11	415,00
-2412,91	312,00
-2402,72	347,00
-2392,54	173,00
-2382,38	262,00
-2372,23	340,00
-2362,09	547,00
-2351,97	367,00
-2341,87	317,00
-2331,78	300,00
-2321,70	303,00
-2311,64	377,00
-2301,59	269,00
-2291,55	277,00
-2281,53	331,00
-2271,53	331,00
-2261,53	309,00
-2251,55	326,00
-2241,59	340,00
-2231,64	249,00
-2221,70	337,00
-2211,78	284,00
-2201,87	410,00
-2191,97	275,00
-2182,09	279,00
-2172,22	443,00
-2162,37	282,00
-2152,53	363,00
-2142,70	246,00
-2132,89	327,00
-2123,09	387,00
-2113,30	372,00
-2103,53	346,00
-2093,77	310,00
-2084,02	328,00
-2074,29	320,00
-2064,57	368,00
-2054,86	291,00
-2045,17	224,00
-2035,49	365,00
-2025,82	274,00
-2016,17	222,00
-2006,53	260,00
-1996,91	518,00
-1987,29	212,00
-1977,69	352,00
-1968,11	292,00
-1958,53	302,00
-1948,97	350,00
-1939,42	229,00
-1929,89	237,00
-1920,37	313,00
-1910,86	322,00
-1901,36	316,00
-1891,88	288,00
-1882,41	290,00
-1872,95	415,00
-1863,51	311,00
-1854,08	397,00
-1844,66	302,00
-1835,26	283,00
-1825,86	330,00
-1816,48	225,00
-1807,11	366,00
-1797,76	341,00
-1788,42	296,00
-1779,09	361,00
-1769,77	331,00
-1760,47	388,00
-1751,17	310,00
-1741,89	208,00
-1732,63	353,00
-1723,37	305,00
-1714,13	303,00
-1704,90	302,00
-1695,68	354,00
-1686,48	303,00
-1677,29	246,00
-1668,11	429,00
-1658,94	366,00
-1649,78	345,00
-1640,64	275,00
-1631,51	277,00
-1622,39	362,00
-1613,28	401,00
-1604,19	325,00
-1595,10	308,00
-1586,03	184,00
-1576,97	381,00
-1567,93	337,00
-1558,89	348,00
-1549,87	313,00
-1540,86	400,00
-1531,86	336,00
-1522,87	333,00
-1513,90	479,00
-1504,93	284,00
-1495,98	312,00
-1487,04	242,00
-1478,12	461,00
-1469,20	299,00
-1460,30	340,00
-1451,40	373,00
-1442,52	340,00
-1433,65	387,00
-1424,80	370,00
-1415,95	233,00
-1407,12	298,00
-1398,30	341,00
-1389,48	370,00
-1380,69	298,00
-1371,90	295,00
-1363,12	392,00
-1354,36	350,00
-1345,60	349,00
-1336,86	341,00
-1328,13	226,00
-1319,41	394,00
-1310,70	285,00
-1302,01	333,00
-1293,32	305,00
-1284,65	380,00
-1275,99	334,00
-1267,33	308,00
-1258,69	255,00
-1250,06	277,00
-1241,45	255,00
-1232,84	281,00
-1224,25	326,00
-1215,66	293,00
-1207,09	341,00
-1198,53	293,00
-1189,97	282,00
-1181,43	335,00
-1172,91	365,00
-1164,39	526,00
-1155,88	248,00
-1147,38	323,00
-1138,90	399,00
-1130,43	405,00
-1121,96	330,00
-1113,51	294,00
-1105,07	349,00
-1096,64	365,00
-1088,22	337,00
-1079,81	331,00
-1071,41	337,00
-1063,02	259,00
-1054,65	382,00
-1046,28	369,00
-1037,92	348,00
-1029,58	202,00
-1021,24	405,00
-1012,92	390,00
-1004,61	284,00
-996,30	369,00
-988,01	177,00
-979,73	324,00
-971,46	316,00
-963,20	325,00
-954,95	255,00
-946,71	295,00
-938,48	289,00
-930,26	324,00
-922,06	290,00
-913,86	411,00
-905,67	333,00
-897,49	317,00
-889,33	304,00
-881,17	421,00
-873,02	253,00
-864,89	287,00
-856,76	279,00
-848,65	357,00
-840,54	423,00
-832,45	489,00
-824,36	354,00
-816,29	388,00
-808,22	323,00
-800,17	316,00
-792,12	423,00
-784,09	352,00
-776,06	259,00
-768,05	343,00
-760,04	305,00
-752,05	414,00
-744,07	402,00
-736,09	326,00
-728,13	280,00
-720,17	294,00
-712,23	442,00
-704,29	431,00
-696,37	346,00
-688,45	443,00
-680,55	383,00
-672,65	252,00
-664,77	400,00
-656,89	306,00
-649,03	281,00
-641,17	323,00
-633,32	339,00
-625,49	317,00
-617,66	426,00
-609,84	349,00
-602,03	350,00
-594,23	300,00
-586,45	331,00
-578,67	398,00
-570,90	446,00
-563,14	308,00
-555,39	203,00
-547,65	346,00
-539,91	275,00
-532,19	314,00
-524,48	324,00
-516,78	287,00
-509,08	336,00
-501,40	296,00
-493,72	305,00
-486,06	319,00
-478,40	422,00
-470,76	297,00
-463,12	316,00
-455,49	256,00
-447,87	343,00
-440,26	341,00
-432,66	283,00
-425,07	375,00
-417,49	346,00
-409,92	329,00
-402,35	345,00
-394,80	255,00
-387,25	366,00
-379,72	339,00
-372,19	307,00
-364,67	377,00
-357,17	379,00
-349,67	327,00
-342,18	348,00
-334,69	325,00
-327,22	331,00
-319,76	436,00
-312,30	341,00
-304,86	450,00
-297,42	476,00
-290,00	391,00
-282,58	341,00
-275,17	447,00
-267,77	455,00
-260,37	524,00
-252,99	366,00
-245,62	421,00
-238,25	460,00
-230,90	568,00
-223,55	612,00
-216,21	535,00
-208,88	510,00
-201,56	505,00
-194,25	590,00
-186,94	700,00
-179,65	748,00
-172,36	790,00
-165,08	702,00
-157,81	721,00
-150,55	879,00
-143,30	900,00
-136,06	926,00
-128,82	1111,00
-121,60	1221,00
-114,38	1332,00
-107,17	1413,00
-99,97	1566,00
-92,78	1701,00
-85,60	1881,00
-78,42	2163,00
-71,25	2442,00
-64,10	2973,00
-56,95	3230,00
-49,81	3877,00
-42,67	4745,00
-35,55	5775,00
-28,43	7623,00
-21,33	12913,00
-14,23	42025,00
-7,14	56239,00
-0,05	55969,00
7,02	55668,00
14,09	55972,00
21,14	33243,00
28,19	14501,00
35,23	9439,00
42,27	7096,00
49,29	5955,00
56,31	4913,00
63,32	4299,00
70,32	3588,00
77,31	3036,00
84,29	2725,00
91,27	2405,00
98,23	2224,00
105,19	2002,00
112,14	2063,00
119,09	2503,00
126,02	3132,00
132,95	3313,00
139,87	3156,00
146,78	3032,00
153,68	2868,00
160,58	2954,00
167,46	2745,00
174,34	2792,00
181,21	2685,00
188,08	2662,00
194,93	2562,00
201,78	2653,00
208,62	2687,00
215,45	2566,00
222,27	2593,00
229,09	2515,00
235,90	2500,00
242,70	2418,00
249,49	2503,00
256,27	2358,00
263,05	2378,00
269,82	2411,00
276,58	2258,00
283,33	2328,00
290,08	2271,00
296,82	2206,00
303,55	2148,00
310,27	2352,00
316,98	2177,00
323,69	2143,00
330,39	2156,00
337,08	2192,00
343,76	2182,00
350,44	2090,00
357,11	2161,00
363,77	2115,00
370,42	1988,00
377,07	2075,00
383,71	2015,00
390,34	1992,00
396,96	1883,00
403,58	2088,00
410,19	2187,00
416,79	2124,00
423,38	2218,00
429,97	2072,00
436,55	1859,00
443,12	1882,00
449,68	1786,00
456,24	1805,00
462,79	1802,00
469,33	1888,00
475,86	1871,00
482,39	1639,00
488,91	1727,00
495,42	1799,00
501,93	1704,00
508,42	1718,00
514,91	1639,00
521,40	1640,00
527,87	1688,00
534,34	1588,00
540,80	1638,00
547,25	1635,00
553,70	1589,00
560,14	1593,00
566,57	1660,00
573,00	1693,00
579,41	1604,00
585,83	1597,00
592,23	1591,00
598,62	1690,00
605,01	1530,00
611,40	1493,00
617,77	1559,00
624,14	1651,00
630,50	1608,00
636,85	1497,00
643,20	1515,00
649,54	1455,00
655,87	1472,00
662,20	1522,00
668,52	1589,00
674,83	1537,00
681,13	1492,00
687,43	1449,00
693,72	1416,00
700,00	1352,00
706,28	1430,00
712,55	1459,00
718,81	1434,00
725,07	1382,00
731,32	1401,00
737,56	1377,00
743,79	1391,00
750,02	1488,00
756,24	1415,00
762,46	1372,00
768,67	1501,00
774,87	1494,00
781,06	1334,00
787,25	1346,00
793,43	1428,00
799,60	1488,00
805,77	1521,00
811,93	1519,00
818,08	1366,00
824,23	1448,00
830,37	1528,00
836,50	1439,00
842,63	1406,00
848,75	1514,00
854,87	1519,00
860,97	1388,00
867,07	1501,00
873,17	1479,00
879,25	1474,00
885,33	1398,00
891,41	1472,00
897,47	1449,00
903,53	1375,00
909,59	1385,00
915,63	1352,00
921,67	1377,00
927,71	1298,00
933,74	1346,00
939,76	1249,00
945,77	1196,00
951,78	1344,00
957,78	1265,00
963,78	1197,00
969,77	1361,00
975,75	1188,00
981,72	1167,00
987,69	1820,00
993,66	1216,00
999,61	1220,00
1005,56	1430,00
1011,51	1271,00
1017,44	1289,00
1023,37	1299,00
1029,30	1198,00
1035,22	1366,00
1041,13	1295,00
1047,03	1350,00
1052,93	1469,00
1058,83	1696,00
1064,71	1749,00
1070,59	1698,00
1076,47	1470,00
1082,33	1454,00
1088,20	1334,00
1094,05	1262,00
1099,90	1267,00
1105,74	1249,00
1111,58	1265,00
1117,41	1431,00
1123,23	1585,00
1129,05	1799,00
1134,86	1581,00
1140,67	1405,00
1146,47	1239,00
1152,26	1241,00
1158,05	1081,00
1163,83	1295,00
1169,60	1164,00
1175,37	1225,00
1181,13	1181,00
1186,89	1084,00
1192,64	1237,00
1198,38	1083,00
1204,12	1126,00
1209,85	1136,00
1215,58	1199,00
1221,30	1260,00
1227,02	1134,00
1232,72	1151,00
1238,43	1018,00
1244,12	1147,00
1249,81	1237,00
1255,50	1227,00
1261,17	1304,00
1266,85	1237,00
1272,51	1163,00
1278,17	1235,00
1283,83	1418,00
1289,47	1880,00
1295,12	2113,00
1300,75	2052,00
1306,38	1815,00
1312,01	1537,00
1317,63	1485,00
1323,24	1352,00
1328,85	1350,00
1334,45	1295,00
1340,04	1307,00
1345,63	1370,00
1351,22	1326,00
1356,80	1256,00
1362,37	1233,00
1367,93	1330,00
1373,49	1266,00
1379,05	1339,00
1384,60	1338,00
1390,14	1327,00
1395,68	1396,00
1401,21	1281,00
1406,74	1435,00
1412,26	1462,00
1417,77	1543,00
1423,28	1704,00
1428,78	1822,00
1434,28	1916,00
1439,77	2220,00
1445,26	2241,00
1450,74	2120,00
1456,22	2013,00
1461,68	1939,00
1467,15	1891,00
1472,61	1522,00
1478,06	1433,00
1483,51	1378,00
1488,95	1241,00
1494,38	1347,00
1499,81	1197,00
1505,24	1175,00
1510,65	1100,00
1516,07	1148,00
1521,48	1122,00
1526,88	1056,00
1532,27	1067,00
1537,67	1027,00
1543,05	1156,00
1548,43	1036,00
1553,81	1161,00
1559,18	1060,00
1564,54	1160,00
1569,90	1048,00
1575,25	1092,00
1580,60	1046,00
1585,94	1012,00
1591,28	1026,00
1596,61	991,00
1601,93	949,00
1607,25	932,00
1612,57	961,00
1617,88	1025,00
1623,18	1104,00
1628,48	1019,00
1633,77	1012,00
1639,06	988,00
1644,34	948,00
1649,62	962,00
1654,89	1002,00
1660,16	938,00
1665,42	1001,00
1670,67	938,00
1675,92	844,00
1681,17	884,00
1686,41	845,00
1691,64	1007,00
1696,87	964,00
1702,10	910,00
1707,32	974,00
1712,53	966,00
1717,74	933,00
1722,94	1028,00
1728,14	865,00
1733,33	790,00
1738,52	882,00
1743,70	896,00
1748,88	905,00
1754,05	923,00
1759,22	851,00
1764,38	936,00
1769,53	877,00
1774,69	956,00
1779,83	854,00
1784,97	863,00
1790,11	802,00
1795,24	868,00
1800,36	820,00
1805,48	825,00
1810,60	836,00
1815,71	758,00
1820,82	908,00
1825,92	850,00
1831,01	762,00
1836,10	751,00
1841,19	773,00
1846,26	746,00
1851,34	755,00
1856,41	913,00
1861,47	691,00
1866,53	764,00
1871,59	736,00
1876,64	786,00
1881,68	813,00
1886,72	862,00
1891,76	768,00
1896,79	709,00
1901,81	766,00
1906,83	732,00
1911,85	672,00
1916,86	861,00
1921,86	768,00
1926,86	709,00
1931,86	624,00
1936,85	647,00
1941,83	653,00
1946,81	615,00
1951,79	756,00
1956,76	700,00
1961,72	654,00
1966,68	659,00
1971,64	683,00
1976,59	683,00
1981,54	615,00
1986,48	657,00
1991,42	608,00
1996,35	802,00
2001,27	692,00
2006,20	649,00
2011,11	661,00
2016,03	641,00
2020,93	617,00
2025,84	701,00
2030,73	762,00
2035,63	738,00
2040,52	710,00
2045,40	599,00
2050,28	550,00
2055,15	656,00
2060,02	651,00
2064,89	538,00
2069,75	718,00
2074,60	764,00
2079,46	696,00
2084,30	548,00
2089,14	606,00
2093,98	670,00
2098,81	728,00
2103,64	653,00
2108,46	705,00
2113,28	765,00
2118,09	612,00
2122,90	626,00
2127,70	672,00
2132,50	658,00
2137,30	662,00
2142,09	669,00
2146,87	601,00
2151,66	630,00
2156,43	729,00
2161,20	673,00
2165,97	578,00
2170,73	641,00
2175,49	728,00
2180,24	683,00
2184,99	728,00
2189,74	752,00
2194,48	609,00
2199,21	654,00
2203,94	490,00
2208,67	685,00
2213,39	565,00
2218,11	656,00
2222,82	653,00
2227,53	583,00
2232,23	661,00
2236,93	642,00
2241,63	723,00
2246,32	581,00
2251,00	524,00
2255,68	569,00
2260,36	608,00
2265,03	603,00
2269,70	550,00
2274,36	564,00
2279,02	556,00
2283,68	533,00
2288,33	622,00
2292,97	547,00
2297,61	521,00
2302,25	529,00
2306,88	533,00
2311,51	359,00
2316,14	610,00
2320,75	495,00
2325,37	468,00
2329,98	518,00
2334,59	426,00
2339,19	636,00
2343,79	514,00
2348,38	474,00
2352,97	540,00
2357,55	600,00
2362,13	566,00
2366,71	526,00
2371,28	552,00
2375,85	492,00
2380,41	631,00
2384,97	542,00
2389,52	498,00
2394,07	578,00
2398,62	488,00
2403,16	519,00
2407,70	514,00
2412,23	550,00
2416,76	540,00
2421,29	430,00
2425,81	551,00
2430,32	430,00
2434,84	561,00
2439,34	471,00
2443,85	554,00
2448,35	475,00
2452,84	450,00
2457,33	567,00
2461,82	460,00
2466,30	462,00
2470,78	545,00
2475,25	509,00
2479,72	557,00
2484,19	521,00
2488,65	459,00
2493,11	501,00
2497,56	630,00
2502,01	375,00
2506,46	603,00
2510,90	462,00
2515,34	488,00
2519,77	384,00
2524,20	431,00
2528,62	425,00
2533,04	544,00
2537,46	349,00
2541,87	424,00
2546,28	468,00
2550,68	467,00
2555,08	358,00
2559,48	533,00
2563,87	494,00
2568,26	399,00
2572,64	504,00
2577,02	482,00
2581,40	435,00
2585,77	496,00
2590,14	466,00
2594,50	340,00
2598,86	376,00
2603,22	388,00
2607,57	490,00
2611,92	496,00
2616,26	457,00
2620,60	474,00
2624,94	415,00
2629,27	530,00
2633,60	532,00
2637,92	610,00
2642,24	551,00
2646,56	564,00
2650,87	450,00
2655,18	577,00
2659,48	425,00
2663,78	489,00
2668,08	543,00
2672,37	527,00
2676,66	525,00
2680,95	529,00
2685,23	591,00
2689,50	469,00
2693,78	528,00
2698,05	477,00
2702,31	516,00
2706,57	576,00
2710,83	614,00
2715,08	472,00
2719,33	643,00
2723,58	597,00
2727,82	592,00
2732,06	606,00
2736,29	526,00
2740,53	518,00
2744,75	535,00
2748,97	578,00
2753,19	491,00
2757,41	627,00
2761,62	689,00
2765,83	476,00
2770,03	477,00
2774,23	487,00
2778,43	523,00
2782,62	496,00
2786,81	547,00
2791,00	644,00
2795,18	529,00
2799,35	623,00
2803,53	534,00
2807,70	720,00
2811,86	550,00
2816,03	774,00
2820,19	695,00
2824,34	751,00
2828,49	763,00
2832,64	743,00
2836,78	1064,00
2840,92	1282,00
2845,06	1401,00
2849,19	1575,00
2853,32	1579,00
2857,45	1775,00
2861,57	1705,00
2865,69	1617,00
2869,80	1528,00
2873,91	1597,00
2878,02	1609,00
2882,12	1763,00
2886,22	1751,00
2890,32	1610,00
2894,41	1611,00
2898,50	1451,00
2902,58	1406,00
2906,67	1439,00
2910,74	1337,00
2914,82	1147,00
2918,89	1203,00
2922,96	1124,00
2927,02	1016,00
2931,08	999,00
2935,13	946,00
2939,19	888,00
2943,24	862,00
2947,28	839,00
2951,32	755,00
2955,36	734,00
2959,40	788,00
2963,43	745,00
2967,46	667,00
2971,48	626,00
2975,50	556,00
2979,52	713,00
2983,53	532,00
2987,54	530,00
2991,55	521,00
2995,55	392,00
2999,55	358,00
3003,54	421,00
3007,54	498,00
3011,53	402,00
3015,51	411,00
3019,49	450,00
3023,47	423,00
3027,45	434,00
3031,42	517,00
3035,39	417,00
3039,35	445,00
3043,31	341,00
3047,27	430,00
3051,22	499,00
3055,17	431,00
3059,12	335,00
3063,06	358,00
3067,00	290,00
3070,94	303,00
3074,87	388,00
3078,80	381,00
3082,73	449,00
3086,65	331,00
3090,57	309,00
3094,49	383,00
3098,40	226,00
3102,31	302,00
3106,22	366,00
3110,12	374,00
3114,02	301,00
3117,92	375,00
3121,81	320,00
3125,70	291,00
3129,58	336,00
3133,47	347,00
3137,34	390,00
3141,22	335,00
3145,09	369,00
3148,96	407,00
3152,83	309,00
3156,69	494,00
3160,55	350,00
3164,40	466,00
3168,26	353,00
3172,10	414,00
3175,95	400,00
3179,79	386,00
3183,63	365,00
3187,47	459,00
3191,30	358,00
3195,13	301,00
3198,95	206,00
3202,78	456,00
3206,60	291,00
3210,41	310,00
3214,23	385,00
3218,03	285,00
3221,84	444,00
3225,64	399,00
3229,44	360,00
3233,24	305,00
3237,03	449,00
3240,82	296,00
3244,61	324,00
3248,39	271,00
3252,17	409,00
3255,95	422,00
3259,72	398,00
3263,49	336,00
3267,26	298,00
3271,03	285,00
3274,79	310,00
3278,54	407,00
3282,30	325,00
3286,05	410,00
3289,80	388,00
3293,54	339,00
3297,29	390,00
3301,02	340,00
3304,76	339,00
3308,49	382,00
3312,22	327,00
3315,95	362,00
3319,67	353,00
3323,39	469,00
3327,10	368,00
3330,82	257,00
3334,53	308,00
3338,24	449,00
3341,94	422,00
3345,64	370,00
3349,34	354,00
3353,03	336,00
3356,72	414,00
3360,41	489,00
3364,10	363,00
3367,78	359,00
3371,46	361,00
3375,13	387,00
3378,81	372,00
3382,48	221,00
3386,14	410,00
3389,81	294,00
3393,47	396,00
3397,12	440,00
3400,78	456,00
3404,43	327,00
3408,08	379,00
3411,72	293,00
3415,36	315,00
3419,00	340,00
3422,64	284,00
3426,27	374,00
3429,90	283,00
3433,53	330,00
3437,15	324,00
3440,77	306,00
3444,39	317,00
3448,00	355,00
3451,62	287,00
3455,22	254,00
3458,83	300,00
3462,43	290,00
3466,03	263,00
3469,63	322,00
3473,22	299,00
3476,81	339,00
3480,40	276,00
3483,99	310,00
3487,57	392,00
3491,15	406,00
3494,72	274,00
3498,29	387,00
3501,86	198,00
3505,43	290,00
3508,99	382,00
3512,56	392,00
3516,11	343,00
3519,67	371,00
3523,22	342,00
3526,77	297,00
3530,32	307,00
3533,86	321,00
3537,40	350,00
3540,94	379,00
3544,47	299,00
3548,00	396,00
3551,53	344,00
3555,06	211,00
3558,58	301,00
3562,10	392,00
3565,62	287,00
3569,13	270,00
3572,64	309,00
3576,15	322,00
3579,66	229,00
3583,16	456,00
3586,66	356,00
3590,16	237,00
3593,65	367,00
3597,14	297,00
3600,63	341,00
3604,11	286,00
3607,60	218,00
3611,08	257,00
3614,55	276,00
3618,03	357,00
3621,50	277,00
3624,97	302,00
3628,43	299,00
3631,90	406,00
3635,36	276,00
3638,81	237,00
3642,27	288,00
3645,72	314,00
3649,17	338,00
3652,61	293,00
3656,06	268,00
3659,50	184,00
3662,93	276,00
3666,37	293,00
3669,80	308,00
3673,23	407,00
3676,65	379,00
3680,08	323,00
3683,50	236,00
3686,92	327,00
3690,33	283,00
3693,74	263,00
3697,15	276,00
3700,56	307,00
3703,96	392,00
3707,36	124,00
3710,76	307,00
3714,16	231,00
3717,55	275,00
3720,94	299,00
3724,33	236,00
3727,71	413,00
3731,10	281,00
3734,48	303,00
3737,85	168,00
3741,23	189,00
3744,60	251,00
3747,97	245,00
3751,33	235,00
3754,69	274,00
3758,05	241,00
3761,41	235,00
3764,77	216,00
3768,12	289,00
3771,47	229,00
3774,82	289,00
3778,16	-9,00
3781,50	2,00
3784,84	0,00
3788,18	2,00
>>>>>End Processed Spectral Data<<<<<
