SpectraSuite Data File
++++++++++++++++++++++++++++++++++++
Date: Tue Mar 03 12:10:13 ICT 2026
User: user
Dark Spectrum Present: Yes
Reference Spectrum Present: No
Number of Sampled Component Spectra: 1
Spectrometers: MAYP113682
Integration Time (usec): 3000000 (MAYP113682)
Spectra Averaged: 1 (MAYP113682)
Boxcar Smoothing: 0 (MAYP113682)
Correct for Electrical Dark: No (MAYP113682)
Strobe/Lamp Enabled: No (MAYP113682)
Correct for Detector Non-linearity: No (MAYP113682)
Correct for Stray Light: No (MAYP113682)
Number of Pixels in Processed Spectrum: 2068
>>>>>Begin Processed Spectral Data<<<<<
-37534,58	6,00
-37414,56	3,00
-37295,11	0,00
-37176,24	-4,00
-37057,95	5,00
-36940,22	63,00
-36823,05	28,00
-36706,45	-122,00
-36590,40	61,00
-36474,90	50,00
-36359,95	3,00
-36245,55	26,00
-36131,68	45,00
-36018,35	48,00
-35905,55	-43,00
-35793,29	-88,00
-35681,54	39,00
-35570,32	159,00
-35459,62	100,00
-35349,43	-56,00
-35239,75	70,00
-35130,58	80,00
-35021,91	47,00
-34913,74	-47,00
-34806,07	75,00
-34698,89	-62,00
-34592,20	73,00
-34486,00	-36,00
-34380,28	-100,00
-34275,04	79,00
-34170,27	-73,00
-34065,98	-22,00
-33962,16	-38,00
-33858,81	18,00
-33755,92	72,00
-33653,49	-71,00
-33551,52	5,00
-33450,01	-37,00
-33348,94	-32,00
-33248,33	88,00
-33148,16	-49,00
-33048,43	63,00
-32949,14	7,00
-32850,29	-46,00
-32751,87	-86,00
-32653,89	-45,00
-32556,33	-22,00
-32459,20	30,00
-32362,49	-36,00
-32266,19	-4,00
-32170,32	-59,00
-32074,86	57,00
-31979,82	80,00
-31885,18	-22,00
-31790,95	13,00
-31697,12	88,00
-31603,69	72,00
-31510,67	-58,00
-31418,04	54,00
-31325,80	-39,00
-31233,95	-116,00
-31142,49	111,00
-31051,42	137,00
-30960,73	-25,00
-30870,43	29,00
-30780,50	79,00
-30690,95	-88,00
-30601,77	56,00
-30512,97	-7,00
-30424,53	-59,00
-30336,46	20,00
-30248,76	-20,00
-30161,42	-41,00
-30074,44	60,00
-29987,81	-7,00
-29901,55	44,00
-29815,63	141,00
-29730,07	11,00
-29644,86	135,00
-29560,00	98,00
-29475,48	86,00
-29391,30	20,00
-29307,47	15,00
-29223,97	-65,00
-29140,81	8,00
-29057,99	20,00
-28975,50	3,00
-28893,34	162,00
-28811,51	49,00
-28730,00	65,00
-28648,82	2,00
-28567,97	72,00
-28487,43	-23,00
-28407,21	-40,00
-28327,32	58,00
-28247,73	-54,00
-28168,46	23,00
-28089,50	77,00
-28010,85	-39,00
-27932,51	0,00
-27854,48	-97,00
-27776,75	-54,00
-27699,32	104,00
-27622,19	-30,00
-27545,37	143,00
-27468,84	92,00
-27392,60	88,00
-27316,66	84,00
-27241,01	81,00
-27165,66	91,00
-27090,59	16,00
-27015,81	63,00
-26941,31	170,00
-26867,10	3,00
-26793,17	162,00
-26719,52	-42,00
-26646,15	80,00
-26573,06	57,00
-26500,24	-40,00
-26427,70	-131,00
-26355,43	-76,00
-26283,43	82,00
-26211,71	65,00
-26140,25	96,00
-26069,06	91,00
-25998,13	14,00
-25927,46	36,00
-25857,06	-14,00
-25786,92	17,00
-25717,04	80,00
-25647,42	-38,00
-25578,05	23,00
-25508,94	155,00
-25440,09	-134,00
-25371,48	222,00
-25303,13	80,00
-25235,02	42,00
-25167,17	70,00
-25099,56	27,00
-25032,19	42,00
-24965,07	32,00
-24898,20	140,00
-24831,56	-6,00
-24765,17	-36,00
-24699,01	-81,00
-24633,10	-89,00
-24567,41	75,00
-24501,97	3,00
-24436,75	-57,00
-24371,77	109,00
-24307,03	13,00
-24242,51	-91,00
-24178,22	80,00
-24114,16	48,00
-24050,32	124,00
-23986,71	-9,00
-23923,32	32,00
-23860,16	-4,00
-23797,22	-10,00
-23734,50	-13,00
-23672,00	34,00
-23609,71	98,00
-23547,65	-9,00
-23485,80	140,00
-23424,16	112,00
-23362,74	1,00
-23301,53	-83,00
-23240,54	-6,00
-23179,75	32,00
-23119,17	67,00
-23058,80	-42,00
-22998,64	51,00
-22938,68	111,00
-22878,93	30,00
-22819,39	39,00
-22760,04	-47,00
-22700,90	101,00
-22641,96	-4,00
-22583,22	26,00
-22524,68	129,00
-22466,33	-83,00
-22408,19	16,00
-22350,23	131,00
-22292,48	-111,00
-22234,92	36,00
-22177,55	-53,00
-22120,37	24,00
-22063,38	171,00
-22006,58	-67,00
-21949,98	8,00
-21893,56	0,00
-21837,33	47,00
-21781,28	-33,00
-21725,42	71,00
-21669,74	-11,00
-21614,25	122,00
-21558,94	64,00
-21503,81	100,00
-21448,86	-80,00
-21394,10	9,00
-21339,51	134,00
-21285,10	-53,00
-21230,86	30,00
-21176,81	-85,00
-21122,93	12,00
-21069,22	84,00
-21015,69	46,00
-20962,33	0,00
-20909,14	4,00
-20856,13	-14,00
-20803,28	-74,00
-20750,61	79,00
-20698,10	93,00
-20645,76	54,00
-20593,59	-5,00
-20541,59	37,00
-20489,75	143,00
-20438,07	88,00
-20386,56	15,00
-20335,22	-76,00
-20284,03	-71,00
-20233,01	-12,00
-20182,15	-20,00
-20131,45	-26,00
-20080,91	-55,00
-20030,52	-15,00
-19980,30	38,00
-19930,23	-3,00
-19880,32	124,00
-19830,56	174,00
-19780,96	-22,00
-19731,52	41,00
-19682,23	-8,00
-19633,09	160,00
-19584,10	-18,00
-19535,26	31,00
-19486,58	144,00
-19438,04	64,00
-19389,66	-62,00
-19341,42	39,00
-19293,33	2,00
-19245,39	125,00
-19197,60	-104,00
-19149,95	69,00
-19102,45	-65,00
-19055,09	24,00
-19007,87	2,00
-18960,80	40,00
-18913,87	-61,00
-18867,09	-88,00
-18820,44	117,00
-18773,94	149,00
-18727,57	-164,00
-18681,35	60,00
-18635,26	136,00
-18589,31	-51,00
-18543,50	94,00
-18497,83	15,00
-18452,29	22,00
-18406,89	-75,00
-18361,63	-29,00
-18316,50	-2,00
-18271,50	24,00
-18226,63	-91,00
-18181,90	104,00
-18137,30	-82,00
-18092,84	-90,00
-18048,50	-8,00
-18004,29	-31,00
-17960,22	96,00
-17916,27	14,00
-17872,45	9,00
-17828,76	-76,00
-17785,20	-30,00
-17741,77	-40,00
-17698,46	22,00
-17655,28	154,00
-17612,22	-86,00
-17569,29	-15,00
-17526,48	-21,00
-17483,79	17,00
-17441,23	-56,00
-17398,79	-54,00
-17356,48	-83,00
-17314,28	112,00
-17272,21	67,00
-17230,26	16,00
-17188,42	-100,00
-17146,71	57,00
-17105,12	40,00
-17063,64	-140,00
-17022,28	-10,00
-16981,04	81,00
-16939,92	-62,00
-16898,91	-142,00
-16858,02	-84,00
-16817,25	127,00
-16776,59	-67,00
-16736,04	-24,00
-16695,61	48,00
-16655,29	95,00
-16615,09	62,00
-16574,99	-42,00
-16535,01	-53,00
-16495,15	40,00
-16455,39	28,00
-16415,74	14,00
-16376,21	-94,00
-16336,78	-24,00
-16297,46	53,00
-16258,26	59,00
-16219,16	5,00
-16180,17	56,00
-16141,28	-46,00
-16102,51	243,00
-16063,84	-7,00
-16025,27	40,00
-15986,82	4,00
-15948,46	78,00
-15910,22	84,00
-15872,07	-27,00
-15834,04	-7,00
-15796,10	-121,00
-15758,27	-88,00
-15720,54	163,00
-15682,91	-56,00
-15645,39	-61,00
-15607,97	159,00
-15570,64	-26,00
-15533,42	42,00
-15496,30	73,00
-15459,28	4,00
-15422,36	-34,00
-15385,54	-22,00
-15348,82	-64,00
-15312,19	-10,00
-15275,66	13,00
-15239,23	-22,00
-15202,90	7,00
-15166,67	-70,00
-15130,53	-17,00
-15094,48	-54,00
-15058,54	-109,00
-15022,68	67,00
-14986,93	39,00
-14951,26	-65,00
-14915,69	-58,00
-14880,22	-9,00
-14844,84	7,00
-14809,55	-29,00
-14774,35	21,00
-14739,25	-18,00
-14704,24	171,00
-14669,32	-80,00
-14634,49	-52,00
-14599,75	100,00
-14565,10	77,00
-14530,55	-26,00
-14496,08	26,00
-14461,70	114,00
-14427,41	68,00
-14393,21	-51,00
-14359,10	-10,00
-14325,07	-44,00
-14291,14	8,00
-14257,29	8,00
-14223,52	-37,00
-14189,85	41,00
-14156,26	-89,00
-14122,76	113,00
-14089,34	-17,00
-14056,01	-59,00
-14022,76	-165,00
-13989,60	51,00
-13956,52	-25,00
-13923,53	100,00
-13890,62	-39,00
-13857,79	1,00
-13825,05	30,00
-13792,39	81,00
-13759,81	92,00
-13727,31	88,00
-13694,90	-29,00
-13662,57	9,00
-13630,31	-55,00
-13598,14	36,00
-13566,05	-29,00
-13534,05	42,00
-13502,12	-1,00
-13470,27	115,00
-13438,50	92,00
-13406,80	88,00
-13375,19	64,00
-13343,66	27,00
-13312,20	70,00
-13280,83	4,00
-13249,53	-47,00
-13218,30	90,00
-13187,16	51,00
-13156,09	-30,00
-13125,10	37,00
-13094,18	-79,00
-13063,34	121,00
-13032,58	-61,00
-13001,89	94,00
-12971,28	-58,00
-12940,74	13,00
-12910,27	-23,00
-12879,88	9,00
-12849,57	55,00
-12819,33	76,00
-12789,16	1,00
-12759,06	39,00
-12729,04	-49,00
-12699,09	1586,00
-12669,21	51,00
-12639,41	5,00
-12609,68	67,00
-12580,02	32,00
-12550,43	142,00
-12520,91	-72,00
-12491,46	76,00
-12462,08	24,00
-12432,77	-8,00
-12403,54	-53,00
-12374,37	-20,00
-12345,27	-54,00
-12316,24	34,00
-12287,29	-1,00
-12258,40	-6,00
-12229,57	-19,00
-12200,82	-66,00
-12172,14	-68,00
-12143,52	21,00
-12114,97	14,00
-12086,49	58,00
-12058,07	74,00
-12029,73	88,00
-12001,44	-26,00
-11973,23	69,00
-11945,08	36,00
-11917,00	-28,00
-11888,98	22,00
-11861,03	-91,00
-11833,15	139,00
-11805,32	-22,00
-11777,57	-88,00
-11749,88	26,00
-11722,25	116,00
-11694,69	-84,00
-11667,19	46,00
-11639,75	19,00
-11612,38	-16,00
-11585,07	-44,00
-11557,83	142,00
-11530,65	-22,00
-11503,53	8,00
-11476,47	-50,00
-11449,48	1,00
-11422,54	-20,00
-11395,67	20,00
-11368,86	7,00
-11342,11	24,00
-11315,43	53,00
-11288,80	-86,00
-11262,23	-42,00
-11235,73	-16,00
-11209,28	70,00
-11182,90	71,00
-11156,57	-44,00
-11130,31	-38,00
-11104,10	97,00
-11077,96	60,00
-11051,87	-13,00
-11025,84	-21,00
-10999,87	80,00
-10973,96	-14,00
-10948,11	56,00
-10922,31	51,00
-10896,58	127,00
-10870,90	-101,00
-10845,28	40,00
-10819,71	61,00
-10794,20	67,00
-10768,75	43,00
-10743,36	42,00
-10718,02	110,00
-10692,74	51,00
-10667,52	142,00
-10642,35	47,00
-10617,24	149,00
-10592,18	111,00
-10567,18	226,00
-10542,23	220,00
-10517,34	184,00
-10492,51	140,00
-10467,72	80,00
-10443,00	152,00
-10418,32	125,00
-10393,70	251,00
-10369,14	206,00
-10344,63	260,00
-10320,17	238,00
-10295,77	367,00
-10271,42	361,00
-10247,12	345,00
-10222,88	211,00
-10198,68	379,00
-10174,54	269,00
-10150,46	450,00
-10126,42	435,00
-10102,44	449,00
-10078,51	400,00
-10054,63	650,00
-10030,80	419,00
-10007,03	515,00
-9983,30	625,00
-9959,63	668,00
-9936,01	752,00
-9912,44	789,00
-9888,92	883,00
-9865,44	760,00
-9842,02	816,00
-9818,65	917,00
-9795,33	820,00
-9772,06	892,00
-9748,84	812,00
-9725,67	1162,00
-9702,55	1384,00
-9679,47	1540,00
-9656,45	1785,00
-9633,47	1810,00
-9610,55	1721,00
-9587,67	1754,00
-9564,84	1922,00
-9542,06	2046,00
-9519,32	2413,00
-9496,64	2681,00
-9474,00	2625,00
-9451,41	2994,00
-9428,87	2919,00
-9406,37	2738,00
-9383,92	2514,00
-9361,52	2463,00
-9339,17	2504,00
-9316,86	2778,00
-9294,60	3054,00
-9272,38	3449,00
-9250,21	3733,00
-9228,09	3819,00
-9206,01	3520,00
-9183,98	3066,00
-9162,00	2746,00
-9140,06	2479,00
-9118,16	2706,00
-9096,31	2951,00
-9074,51	2796,00
-9052,75	2854,00
-9031,04	2651,00
-9009,37	2411,00
-8987,74	2196,00
-8966,16	1905,00
-8944,63	1779,00
-8923,14	1688,00
-8901,69	1773,00
-8880,29	1933,00
-8858,93	2319,00
-8837,61	2453,00
-8816,34	2531,00
-8795,11	2620,00
-8773,92	2263,00
-8752,78	2074,00
-8731,68	2005,00
-8710,62	2008,00
-8689,61	2259,00
-8668,63	2387,00
-8647,70	2371,00
-8626,82	2431,00
-8605,97	2407,00
-8585,17	2088,00
-8564,41	2005,00
-8543,69	1733,00
-8523,01	1713,00
-8502,37	1706,00
-8481,78	1806,00
-8461,23	2018,00
-8440,71	2210,00
-8420,24	2255,00
-8399,81	2309,00
-8379,42	2198,00
-8359,08	2127,00
-8338,77	1792,00
-8318,50	1783,00
-8298,27	1734,00
-8278,09	1712,00
-8257,94	1862,00
-8237,83	2016,00
-8217,76	2392,00
-8197,74	2177,00
-8177,75	2272,00
-8157,80	1938,00
-8137,89	1684,00
-8118,02	1706,00
-8098,19	1869,00
-8078,40	1676,00
-8058,65	2063,00
-8038,93	1828,00
-8019,26	2024,00
-7999,62	1955,00
-7980,02	1669,00
-7960,46	1679,00
-7940,94	1617,00
-7921,46	1575,00
-7902,01	1475,00
-7882,60	1464,00
-7863,23	1739,00
-7843,90	1690,00
-7824,61	1819,00
-7805,35	1862,00
-7786,13	1774,00
-7766,95	1847,00
-7747,80	1617,00
-7728,69	1688,00
-7709,62	1618,00
-7690,59	1781,00
-7671,59	1908,00
-7652,63	2060,00
-7633,70	1938,00
-7614,81	1852,00
-7595,96	1741,00
-7577,15	1645,00
-7558,37	1697,00
-7539,62	1622,00
-7520,91	1890,00
-7502,24	1873,00
-7483,60	1860,00
-7465,00	1741,00
-7446,44	1599,00
-7427,91	1373,00
-7409,41	1169,00
-7390,95	1087,00
-7372,53	1119,00
-7354,14	1093,00
-7335,78	1159,00
-7317,46	1337,00
-7299,18	1380,00
-7280,92	1672,00
-7262,71	1802,00
-7244,52	1907,00
-7226,38	1989,00
-7208,26	1836,00
-7190,18	1693,00
-7172,14	1606,00
-7154,12	1584,00
-7136,15	1590,00
-7118,20	1703,00
-7100,29	1959,00
-7082,41	1816,00
-7064,57	1732,00
-7046,76	1648,00
-7028,98	1487,00
-7011,24	1078,00
-6993,53	1127,00
-6975,85	934,00
-6958,20	790,00
-6940,59	833,00
-6923,01	925,00
-6905,46	953,00
-6887,94	1330,00
-6870,46	3834,00
-6853,01	1598,00
-6835,59	1683,00
-6818,21	1373,00
-6800,85	1074,00
-6783,53	842,00
-6766,24	744,00
-6748,98	791,00
-6731,76	688,00
-6714,56	577,00
-6697,40	699,00
-6680,26	629,00
-6663,16	739,00
-6646,09	1064,00
-6629,05	1168,00
-6612,05	1356,00
-6595,07	1348,00
-6578,13	1179,00
-6561,21	983,00
-6544,33	752,00
-6527,47	628,00
-6510,65	476,00
-6493,86	622,00
-6477,10	610,00
-6460,36	456,00
-6443,66	647,00
-6426,99	520,00
-6410,35	492,00
-6393,74	768,00
-6377,16	754,00
-6360,61	806,00
-6344,09	877,00
-6327,59	928,00
-6311,13	765,00
-6294,70	968,00
-6278,29	950,00
-6261,92	1131,00
-6245,58	1197,00
-6229,26	1248,00
-6212,97	1021,00
-6196,72	970,00
-6180,49	560,00
-6164,29	331,00
-6148,12	346,00
-6131,98	287,00
-6115,86	229,00
-6099,78	257,00
-6083,72	242,00
-6067,69	356,00
-6051,69	135,00
-6035,72	259,00
-6019,78	424,00
-6003,87	504,00
-5987,98	821,00
-5972,12	988,00
-5956,29	840,00
-5940,49	791,00
-5924,71	699,00
-5908,96	442,00
-5893,24	282,00
-5877,55	269,00
-5861,89	361,00
-5846,25	387,00
-5830,64	498,00
-5815,05	457,00
-5799,50	389,00
-5783,97	399,00
-5768,47	451,00
-5752,99	702,00
-5737,55	804,00
-5722,12	991,00
-5706,73	726,00
-5691,36	568,00
-5676,02	471,00
-5660,71	262,00
-5645,42	416,00
-5630,16	389,00
-5614,92	504,00
-5599,71	709,00
-5584,53	660,00
-5569,37	567,00
-5554,24	514,00
-5539,14	380,00
-5524,06	397,00
-5509,01	488,00
-5493,98	566,00
-5478,98	526,00
-5464,00	536,00
-5449,05	565,00
-5434,13	419,00
-5419,23	470,00
-5404,36	433,00
-5389,51	490,00
-5374,69	835,00
-5359,89	901,00
-5345,12	932,00
-5330,37	868,00
-5315,65	668,00
-5300,95	480,00
-5286,28	504,00
-5271,63	505,00
-5257,01	472,00
-5242,41	396,00
-5227,84	503,00
-5213,29	403,00
-5198,76	145,00
-5184,26	110,00
-5169,79	394,00
-5155,33	285,00
-5140,91	534,00
-5126,51	574,00
-5112,13	672,00
-5097,77	343,00
-5083,44	404,00
-5069,13	322,00
-5054,85	277,00
-5040,59	509,00
-5026,36	560,00
-5012,15	524,00
-4997,96	429,00
-4983,80	359,00
-4969,66	322,00
-4955,54	393,00
-4941,44	544,00
-4927,37	584,00
-4913,33	898,00
-4899,30	880,00
-4885,30	929,00
-4871,33	700,00
-4857,37	341,00
-4843,44	278,00
-4829,53	336,00
-4815,65	394,00
-4801,79	481,00
-4787,95	289,00
-4774,13	360,00
-4760,34	338,00
-4746,56	317,00
-4732,82	220,00
-4719,09	330,00
-4705,38	578,00
-4691,70	754,00
-4678,04	827,00
-4664,41	608,00
-4650,79	431,00
-4637,20	309,00
-4623,63	311,00
-4610,08	427,00
-4596,56	479,00
-4583,05	478,00
-4569,57	480,00
-4556,11	225,00
-4542,67	194,00
-4529,25	142,00
-4515,86	412,00
-4502,49	582,00
-4489,13	755,00
-4475,80	569,00
-4462,49	423,00
-4449,21	461,00
-4435,94	277,00
-4422,70	354,00
-4409,47	397,00
-4396,27	416,00
-4383,09	503,00
-4369,93	146,00
-4356,79	119,00
-4343,67	110,00
-4330,58	387,00
-4317,50	337,00
-4304,45	261,00
-4291,41	358,00
-4278,40	182,00
-4265,41	123,00
-4252,44	217,00
-4239,49	404,00
-4226,55	360,00
-4213,65	305,00
-4200,76	190,00
-4187,89	71,00
-4175,04	-13,00
-4162,21	180,00
-4149,40	189,00
-4136,61	15,00
-4123,85	27,00
-4111,10	12,00
-4098,37	141,00
-4085,66	231,00
-4072,98	74,00
-4060,31	93,00
-4047,66	2,00
-4035,04	48,00
-4022,43	177,00
-4009,84	176,00
-3997,27	76,00
-3984,72	12,00
-3972,19	127,00
-3959,69	101,00
-3947,20	158,00
-3934,73	71,00
-3922,27	36,00
-3909,84	40,00
-3897,43	69,00
-3885,04	-34,00
-3872,67	74,00
-3860,31	24,00
-3847,98	-59,00
-3835,66	117,00
-3823,36	108,00
-3811,09	-55,00
-3798,83	30,00
-3786,59	-1,00
-3774,37	99,00
-3762,17	-22,00
-3749,98	28,00
-3737,82	77,00
-3725,67	-5,00
-3713,55	42,00
-3701,44	-59,00
-3689,35	-20,00
-3677,28	-52,00
-3665,22	-58,00
-3653,19	23,00
-3641,17	7,00
-3629,18	-44,00
-3617,20	-30,00
-3605,24	159,00
-3593,30	-14,00
-3581,37	54,00
-3569,47	-22,00
-3557,58	92,00
-3545,71	114,00
-3533,86	-8,00
-3522,02	42,00
-3510,21	59,00
-3498,41	63,00
-3486,63	2,00
-3474,87	4,00
-3463,12	-56,00
-3451,40	149,00
-3439,69	96,00
-3428,00	89,00
-3416,33	77,00
-3404,67	-5,00
-3393,03	-66,00
-3381,41	71,00
-3369,81	89,00
-3358,22	120,00
-3346,66	36,00
-3335,10	-97,00
-3323,57	62,00
-3312,06	-30,00
-3300,56	-19,00
-3289,08	98,00
-3277,61	73,00
-3266,16	107,00
-3254,73	-36,00
-3243,32	91,00
-3231,92	24,00
-3220,55	-37,00
-3209,18	143,00
-3197,84	-9,00
-3186,51	-2,00
-3175,20	84,00
-3163,90	-38,00
-3152,63	-49,00
-3141,36	57,00
-3130,12	45,00
-3118,89	-16,00
-3107,68	22,00
-3096,49	19,00
-3085,31	5,00
-3074,15	-15,00
-3063,00	36,00
-3051,87	-11,00
-3040,76	80,00
-3029,67	32,00
-3018,59	-52,00
-3007,52	-44,00
-2996,48	172,00
-2985,44	182,00
-2974,43	-42,00
-2963,43	-27,00
-2952,45	4,00
-2941,48	168,00
-2930,53	25,00
-2919,60	-29,00
-2908,68	44,00
-2897,78	31,00
-2886,89	68,00
-2876,02	-36,00
-2865,17	60,00
-2854,33	-31,00
-2843,50	105,00
-2832,70	-62,00
-2821,90	-18,00
-2811,13	3,00
-2800,37	-53,00
-2789,62	-13,00
-2778,89	63,00
-2768,18	-78,00
-2757,48	75,00
-2746,80	5,00
-2736,13	-8,00
-2725,48	94,00
-2714,84	-1,00
-2704,22	107,00
-2693,61	29,00
-2683,02	33,00
-2672,45	120,00
-2661,89	93,00
-2651,34	-57,00
-2640,81	-45,00
-2630,30	-33,00
-2619,80	13,00
-2609,31	23,00
-2598,84	-22,00
-2588,39	52,00
-2577,95	-148,00
-2567,52	-18,00
-2557,11	-6,00
-2546,71	11,00
-2536,33	-144,00
-2525,97	2,00
-2515,62	82,00
-2505,28	-26,00
-2494,96	124,00
-2484,65	-36,00
-2474,36	67,00
-2464,08	-36,00
-2453,82	96,00
-2443,57	36,00
-2433,33	80,00
-2423,11	60,00
-2412,91	100,00
-2402,72	127,00
-2392,54	-17,00
-2382,38	58,00
-2372,23	86,00
-2362,09	-446,00
-2351,97	-12,00
-2341,87	72,00
-2331,78	-64,00
-2321,70	-29,00
-2311,64	61,00
-2301,59	12,00
-2291,55	-14,00
-2281,53	111,00
-2271,53	0,00
-2261,53	-40,00
-2251,55	109,00
-2241,59	-98,00
-2231,64	22,00
-2221,70	-3,00
-2211,78	59,00
-2201,87	-21,00
-2191,97	-10,00
-2182,09	-14,00
-2172,22	48,00
-2162,37	-57,00
-2152,53	31,00
-2142,70	40,00
-2132,89	-15,00
-2123,09	66,00
-2113,30	53,00
-2103,53	8,00
-2093,77	-16,00
-2084,02	-8,00
-2074,29	120,00
-2064,57	-35,00
-2054,86	44,00
-2045,17	132,00
-2035,49	1,00
-2025,82	90,00
-2016,17	34,00
-2006,53	-57,00
-1996,91	6,00
-1987,29	10,00
-1977,69	63,00
-1968,11	-82,00
-1958,53	18,00
-1948,97	13,00
-1939,42	13,00
-1929,89	142,00
-1920,37	-51,00
-1910,86	-68,00
-1901,36	15,00
-1891,88	-76,00
-1882,41	-81,00
-1872,95	-40,00
-1863,51	-75,00
-1854,08	-46,00
-1844,66	25,00
-1835,26	-47,00
-1825,86	-35,00
-1816,48	18,00
-1807,11	-40,00
-1797,76	-28,00
-1788,42	62,00
-1779,09	28,00
-1769,77	-69,00
-1760,47	29,00
-1751,17	-27,00
-1741,89	-44,00
-1732,63	80,00
-1723,37	-28,00
-1714,13	-54,00
-1704,90	35,00
-1695,68	49,00
-1686,48	-61,00
-1677,29	97,00
-1668,11	-77,00
-1658,94	-3,00
-1649,78	-95,00
-1640,64	16,00
-1631,51	9,00
-1622,39	-2,00
-1613,28	-118,00
-1604,19	45,00
-1595,10	40,00
-1586,03	-62,00
-1576,97	-16,00
-1567,93	-59,00
-1558,89	-53,00
-1549,87	-85,00
-1540,86	167,00
-1531,86	27,00
-1522,87	-33,00
-1513,90	50,00
-1504,93	51,00
-1495,98	-27,00
-1487,04	63,00
-1478,12	73,00
-1469,20	-110,00
-1460,30	53,00
-1451,40	44,00
-1442,52	154,00
-1433,65	-29,00
-1424,80	8,00
-1415,95	94,00
-1407,12	-20,00
-1398,30	21,00
-1389,48	-35,00
-1380,69	3,00
-1371,90	-63,00
-1363,12	-42,00
-1354,36	66,00
-1345,60	-22,00
-1336,86	8,00
-1328,13	110,00
-1319,41	35,00
-1310,70	-11,00
-1302,01	73,00
-1293,32	31,00
-1284,65	115,00
-1275,99	-75,00
-1267,33	32,00
-1258,69	-100,00
-1250,06	29,00
-1241,45	-86,00
-1232,84	-63,00
-1224,25	43,00
-1215,66	9,00
-1207,09	-86,00
-1198,53	86,00
-1189,97	-31,00
-1181,43	37,00
-1172,91	-106,00
-1164,39	99,00
-1155,88	-36,00
-1147,38	0,00
-1138,90	-147,00
-1130,43	-76,00
-1121,96	-2,00
-1113,51	26,00
-1105,07	-58,00
-1096,64	105,00
-1088,22	-26,00
-1079,81	-87,00
-1071,41	41,00
-1063,02	19,00
-1054,65	45,00
-1046,28	25,00
-1037,92	-22,00
-1029,58	37,00
-1021,24	0,00
-1012,92	-87,00
-1004,61	-23,00
-996,30	-21,00
-988,01	28,00
-979,73	-36,00
-971,46	104,00
-963,20	15,00
-954,95	19,00
-946,71	46,00
-938,48	159,00
-930,26	-67,00
-922,06	0,00
-913,86	193,00
-905,67	13,00
-897,49	72,00
-889,33	-38,00
-881,17	24,00
-873,02	28,00
-864,89	-115,00
-856,76	114,00
-848,65	133,00
-840,54	-99,00
-832,45	16,00
-824,36	-69,00
-816,29	26,00
-808,22	39,00
-800,17	31,00
-792,12	-26,00
-784,09	72,00
-776,06	-10,00
-768,05	21,00
-760,04	124,00
-752,05	154,00
-744,07	41,00
-736,09	80,00
-728,13	9,00
-720,17	66,00
-712,23	-24,00
-704,29	9,00
-696,37	29,00
-688,45	54,00
-680,55	141,00
-672,65	64,00
-664,77	24,00
-656,89	147,00
-649,03	137,00
-641,17	10,00
-633,32	-47,00
-625,49	100,00
-617,66	54,00
-609,84	126,00
-602,03	-31,00
-594,23	41,00
-586,45	158,00
-578,67	48,00
-570,90	17,00
-563,14	19,00
-555,39	13,00
-547,65	-14,00
-539,91	-27,00
-532,19	123,00
-524,48	22,00
-516,78	32,00
-509,08	24,00
-501,40	1,00
-493,72	-57,00
-486,06	-49,00
-478,40	-40,00
-470,76	85,00
-463,12	79,00
-455,49	-37,00
-447,87	41,00
-440,26	58,00
-432,66	79,00
-425,07	102,00
-417,49	120,00
-409,92	23,00
-402,35	10,00
-394,80	-20,00
-387,25	41,00
-379,72	-109,00
-372,19	144,00
-364,67	123,00
-357,17	-11,00
-349,67	18,00
-342,18	116,00
-334,69	86,00
-327,22	137,00
-319,76	20,00
-312,30	125,00
-304,86	52,00
-297,42	208,00
-290,00	0,00
-282,58	60,00
-275,17	-42,00
-267,77	44,00
-260,37	-13,00
-252,99	15,00
-245,62	248,00
-238,25	142,00
-230,90	203,00
-223,55	172,00
-216,21	180,00
-208,88	213,00
-201,56	289,00
-194,25	381,00
-186,94	357,00
-179,65	268,00
-172,36	364,00
-165,08	361,00
-157,81	273,00
-150,55	343,00
-143,30	341,00
-136,06	496,00
-128,82	472,00
-121,60	533,00
-114,38	551,00
-107,17	757,00
-99,97	844,00
-92,78	918,00
-85,60	951,00
-78,42	1106,00
-71,25	1356,00
-64,10	1456,00
-56,95	1993,00
-49,81	2300,00
-42,67	2705,00
-35,55	3553,00
-28,43	4703,00
-21,33	8096,00
-14,23	28466,00
-7,14	54235,00
-0,05	53890,00
7,02	53525,00
14,09	53899,00
21,14	20971,00
28,19	8848,00
35,23	5755,00
42,27	4244,00
49,29	3553,00
56,31	3045,00
63,32	2499,00
70,32	2004,00
77,31	1814,00
84,29	1676,00
91,27	1399,00
98,23	1184,00
105,19	1116,00
112,14	1467,00
119,09	2016,00
126,02	3152,00
132,95	3872,00
139,87	3939,00
146,78	3839,00
153,68	3842,00
160,58	3790,00
167,46	3738,00
174,34	3632,00
181,21	3622,00
188,08	3668,00
194,93	3600,00
201,78	3488,00
208,62	3453,00
215,45	3509,00
222,27	3553,00
229,09	3503,00
235,90	3525,00
242,70	3473,00
249,49	3409,00
256,27	3410,00
263,05	3355,00
269,82	3497,00
276,58	3364,00
283,33	3292,00
290,08	3439,00
296,82	3167,00
303,55	3298,00
310,27	3099,00
316,98	3157,00
323,69	3217,00
330,39	3098,00
337,08	3183,00
343,76	3128,00
350,44	3196,00
357,11	3068,00
363,77	3113,00
370,42	2953,00
377,07	2990,00
383,71	3031,00
390,34	2967,00
396,96	3092,00
403,58	3053,00
410,19	3037,00
416,79	2982,00
423,38	3171,00
429,97	2946,00
436,55	2899,00
443,12	2818,00
449,68	2757,00
456,24	2706,00
462,79	2864,00
469,33	2830,00
475,86	2673,00
482,39	2652,00
488,91	2785,00
495,42	2564,00
501,93	2508,00
508,42	2508,00
514,91	2568,00
521,40	2466,00
527,87	2467,00
534,34	2479,00
540,80	2383,00
547,25	2424,00
553,70	2476,00
560,14	2426,00
566,57	2445,00
573,00	2463,00
579,41	2329,00
585,83	2314,00
592,23	2381,00
598,62	2261,00
605,01	2246,00
611,40	2250,00
617,77	2292,00
624,14	2298,00
630,50	2240,00
636,85	2295,00
643,20	2153,00
649,54	2228,00
655,87	2192,00
662,20	2032,00
668,52	2247,00
674,83	2050,00
681,13	2213,00
687,43	2108,00
693,72	2119,00
700,00	2082,00
706,28	2057,00
712,55	2058,00
718,81	2019,00
725,07	2042,00
731,32	1953,00
737,56	1903,00
743,79	2086,00
750,02	2093,00
756,24	2049,00
762,46	1928,00
768,67	1980,00
774,87	1988,00
781,06	1827,00
787,25	1812,00
793,43	1906,00
799,60	2010,00
805,77	1825,00
811,93	1914,00
818,08	1895,00
824,23	1990,00
830,37	1920,00
836,50	1798,00
842,63	1846,00
848,75	1752,00
854,87	1867,00
860,97	1864,00
867,07	1958,00
873,17	1762,00
879,25	1909,00
885,33	1822,00
891,41	1901,00
897,47	1755,00
903,53	1731,00
909,59	1792,00
915,63	1838,00
921,67	1667,00
927,71	1620,00
933,74	1729,00
939,76	1645,00
945,77	1766,00
951,78	1564,00
957,78	1730,00
963,78	1655,00
969,77	1697,00
975,75	1642,00
981,72	1703,00
987,69	1294,00
993,66	1627,00
999,61	1666,00
1005,56	1607,00
1011,51	1679,00
1017,44	1604,00
1023,37	1659,00
1029,30	1749,00
1035,22	1647,00
1041,13	1683,00
1047,03	1671,00
1052,93	1955,00
1058,83	1979,00
1064,71	2079,00
1070,59	1926,00
1076,47	1781,00
1082,33	1643,00
1088,20	1612,00
1094,05	1630,00
1099,90	1621,00
1105,74	1708,00
1111,58	1684,00
1117,41	1597,00
1123,23	1818,00
1129,05	1891,00
1134,86	1825,00
1140,67	1633,00
1146,47	1490,00
1152,26	1595,00
1158,05	1537,00
1163,83	1600,00
1169,60	1463,00
1175,37	1625,00
1181,13	1500,00
1186,89	1368,00
1192,64	1564,00
1198,38	1527,00
1204,12	1487,00
1209,85	1409,00
1215,58	1414,00
1221,30	1451,00
1227,02	1426,00
1232,72	1415,00
1238,43	1386,00
1244,12	1562,00
1249,81	1427,00
1255,50	1374,00
1261,17	1540,00
1266,85	1496,00
1272,51	1661,00
1278,17	1585,00
1283,83	1611,00
1289,47	1897,00
1295,12	2237,00
1300,75	2192,00
1306,38	2041,00
1312,01	1811,00
1317,63	1752,00
1323,24	1657,00
1328,85	1632,00
1334,45	1572,00
1340,04	1429,00
1345,63	1585,00
1351,22	1587,00
1356,80	1637,00
1362,37	1728,00
1367,93	1516,00
1373,49	1658,00
1379,05	1699,00
1384,60	1605,00
1390,14	1523,00
1395,68	1559,00
1401,21	1672,00
1406,74	1555,00
1412,26	1713,00
1417,77	1771,00
1423,28	1761,00
1428,78	1995,00
1434,28	2080,00
1439,77	2399,00
1445,26	2378,00
1450,74	2235,00
1456,22	2240,00
1461,68	1984,00
1467,15	1864,00
1472,61	1813,00
1478,06	1725,00
1483,51	1603,00
1488,95	1468,00
1494,38	1407,00
1499,81	1453,00
1505,24	1431,00
1510,65	1273,00
1516,07	1380,00
1521,48	1327,00
1526,88	1283,00
1532,27	1373,00
1537,67	1200,00
1543,05	1357,00
1548,43	1407,00
1553,81	1395,00
1559,18	1280,00
1564,54	1227,00
1569,90	1285,00
1575,25	1345,00
1580,60	1208,00
1585,94	1383,00
1591,28	1347,00
1596,61	1268,00
1601,93	1273,00
1607,25	1267,00
1612,57	1256,00
1617,88	1296,00
1623,18	1244,00
1628,48	1164,00
1633,77	1123,00
1639,06	1260,00
1644,34	1111,00
1649,62	1173,00
1654,89	1168,00
1660,16	1131,00
1665,42	1163,00
1670,67	1110,00
1675,92	1188,00
1681,17	994,00
1686,41	1176,00
1691,64	970,00
1696,87	1075,00
1702,10	1187,00
1707,32	1032,00
1712,53	1107,00
1717,74	1064,00
1722,94	1096,00
1728,14	941,00
1733,33	1082,00
1738,52	983,00
1743,70	1041,00
1748,88	1009,00
1754,05	961,00
1759,22	1078,00
1764,38	853,00
1769,53	1013,00
1774,69	1054,00
1779,83	851,00
1784,97	948,00
1790,11	934,00
1795,24	906,00
1800,36	762,00
1805,48	948,00
1810,60	814,00
1815,71	939,00
1820,82	856,00
1825,92	925,00
1831,01	905,00
1836,10	946,00
1841,19	843,00
1846,26	882,00
1851,34	878,00
1856,41	870,00
1861,47	847,00
1866,53	891,00
1871,59	900,00
1876,64	762,00
1881,68	906,00
1886,72	776,00
1891,76	912,00
1896,79	814,00
1901,81	751,00
1906,83	755,00
1911,85	860,00
1916,86	732,00
1921,86	677,00
1926,86	669,00
1931,86	680,00
1936,85	611,00
1941,83	705,00
1946,81	729,00
1951,79	660,00
1956,76	641,00
1961,72	788,00
1966,68	617,00
1971,64	713,00
1976,59	653,00
1981,54	581,00
1986,48	638,00
1991,42	694,00
1996,35	654,00
2001,27	624,00
2006,20	670,00
2011,11	550,00
2016,03	718,00
2020,93	602,00
2025,84	581,00
2030,73	608,00
2035,63	627,00
2040,52	570,00
2045,40	713,00
2050,28	585,00
2055,15	663,00
2060,02	620,00
2064,89	528,00
2069,75	491,00
2074,60	647,00
2079,46	538,00
2084,30	608,00
2089,14	592,00
2093,98	577,00
2098,81	629,00
2103,64	606,00
2108,46	561,00
2113,28	487,00
2118,09	497,00
2122,90	524,00
2127,70	481,00
2132,50	504,00
2137,30	465,00
2142,09	555,00
2146,87	462,00
2151,66	640,00
2156,43	578,00
2161,20	518,00
2165,97	431,00
2170,73	534,00
2175,49	611,00
2180,24	587,00
2184,99	553,00
2189,74	515,00
2194,48	511,00
2199,21	402,00
2203,94	487,00
2208,67	510,00
2213,39	488,00
2218,11	617,00
2222,82	466,00
2227,53	509,00
2232,23	437,00
2236,93	428,00
2241,63	439,00
2246,32	427,00
2251,00	450,00
2255,68	351,00
2260,36	420,00
2265,03	419,00
2269,70	459,00
2274,36	422,00
2279,02	425,00
2283,68	342,00
2288,33	416,00
2292,97	356,00
2297,61	439,00
2302,25	362,00
2306,88	532,00
2311,51	385,00
2316,14	424,00
2320,75	420,00
2325,37	401,00
2329,98	382,00
2334,59	401,00
2339,19	422,00
2343,79	265,00
2348,38	441,00
2352,97	319,00
2357,55	385,00
2362,13	359,00
2366,71	363,00
2371,28	382,00
2375,85	327,00
2380,41	292,00
2384,97	294,00
2389,52	364,00
2394,07	426,00
2398,62	418,00
2403,16	289,00
2407,70	440,00
2412,23	263,00
2416,76	292,00
2421,29	331,00
2425,81	299,00
2430,32	254,00
2434,84	331,00
2439,34	370,00
2443,85	392,00
2448,35	314,00
2452,84	189,00
2457,33	445,00
2461,82	293,00
2466,30	194,00
2470,78	365,00
2475,25	236,00
2479,72	293,00
2484,19	196,00
2488,65	375,00
2493,11	225,00
2497,56	205,00
2502,01	337,00
2506,46	199,00
2510,90	284,00
2515,34	309,00
2519,77	315,00
2524,20	397,00
2528,62	234,00
2533,04	233,00
2537,46	358,00
2541,87	249,00
2546,28	198,00
2550,68	278,00
2555,08	222,00
2559,48	277,00
2563,87	254,00
2568,26	278,00
2572,64	299,00
2577,02	302,00
2581,40	147,00
2585,77	199,00
2590,14	272,00
2594,50	202,00
2598,86	225,00
2603,22	315,00
2607,57	196,00
2611,92	189,00
2616,26	195,00
2620,60	244,00
2624,94	211,00
2629,27	256,00
2633,60	346,00
2637,92	343,00
2642,24	279,00
2646,56	229,00
2650,87	288,00
2655,18	307,00
2659,48	112,00
2663,78	226,00
2668,08	289,00
2672,37	226,00
2676,66	181,00
2680,95	246,00
2685,23	224,00
2689,50	286,00
2693,78	369,00
2698,05	222,00
2702,31	393,00
2706,57	313,00
2710,83	275,00
2715,08	323,00
2719,33	195,00
2723,58	329,00
2727,82	215,00
2732,06	432,00
2736,29	436,00
2740,53	421,00
2744,75	397,00
2748,97	273,00
2753,19	336,00
2757,41	41,00
2761,62	160,00
2765,83	357,00
2770,03	188,00
2774,23	362,00
2778,43	304,00
2782,62	236,00
2786,81	280,00
2791,00	216,00
2795,18	306,00
2799,35	340,00
2803,53	390,00
2807,70	116,00
2811,86	347,00
2816,03	392,00
2820,19	437,00
2824,34	546,00
2828,49	589,00
2832,64	538,00
2836,78	626,00
2840,92	784,00
2845,06	1126,00
2849,19	1163,00
2853,32	1258,00
2857,45	1267,00
2861,57	1135,00
2865,69	1113,00
2869,80	1092,00
2873,91	979,00
2878,02	1226,00
2882,12	1176,00
2886,22	1374,00
2890,32	1230,00
2894,41	1122,00
2898,50	1015,00
2902,58	1041,00
2906,67	923,00
2910,74	760,00
2914,82	891,00
2918,89	736,00
2922,96	766,00
2927,02	626,00
2931,08	602,00
2935,13	538,00
2939,19	520,00
2943,24	484,00
2947,28	539,00
2951,32	413,00
2955,36	380,00
2959,40	283,00
2963,43	424,00
2967,46	396,00
2971,48	157,00
2975,50	234,00
2979,52	217,00
2983,53	301,00
2987,54	178,00
2991,55	201,00
2995,55	184,00
2999,55	157,00
3003,54	166,00
3007,54	-65,00
3011,53	172,00
3015,51	278,00
3019,49	99,00
3023,47	191,00
3027,45	196,00
3031,42	185,00
3035,39	196,00
3039,35	124,00
3043,31	69,00
3047,27	191,00
3051,22	63,00
3055,17	150,00
3059,12	143,00
3063,06	37,00
3067,00	127,00
3070,94	153,00
3074,87	170,00
3078,80	116,00
3082,73	123,00
3086,65	147,00
3090,57	56,00
3094,49	158,00
3098,40	182,00
3102,31	85,00
3106,22	112,00
3110,12	96,00
3114,02	124,00
3117,92	262,00
3121,81	78,00
3125,70	-9,00
3129,58	56,00
3133,47	152,00
3137,34	27,00
3141,22	136,00
3145,09	85,00
3148,96	107,00
3152,83	206,00
3156,69	-54,00
3160,55	-2,00
3164,40	125,00
3168,26	72,00
3172,10	75,00
3175,95	30,00
3179,79	93,00
3183,63	50,00
3187,47	130,00
3191,30	76,00
3195,13	16,00
3198,95	65,00
3202,78	87,00
3206,60	135,00
3210,41	94,00
3214,23	198,00
3218,03	68,00
3221,84	5,00
3225,64	89,00
3229,44	-53,00
3233,24	106,00
3237,03	3,00
3240,82	116,00
3244,61	-56,00
3248,39	-90,00
3252,17	178,00
3255,95	130,00
3259,72	117,00
3263,49	34,00
3267,26	104,00
3271,03	87,00
3274,79	71,00
3278,54	136,00
3282,30	93,00
3286,05	44,00
3289,80	37,00
3293,54	164,00
3297,29	24,00
3301,02	31,00
3304,76	36,00
3308,49	-64,00
3312,22	73,00
3315,95	-20,00
3319,67	32,00
3323,39	27,00
3327,10	21,00
3330,82	145,00
3334,53	121,00
3338,24	-27,00
3341,94	34,00
3345,64	54,00
3349,34	11,00
3353,03	70,00
3356,72	24,00
3360,41	80,00
3364,10	22,00
3367,78	83,00
3371,46	92,00
3375,13	116,00
3378,81	89,00
3382,48	-38,00
3386,14	221,00
3389,81	24,00
3393,47	61,00
3397,12	22,00
3400,78	35,00
3404,43	116,00
3408,08	-39,00
3411,72	93,00
3415,36	64,00
3419,00	-38,00
3422,64	176,00
3426,27	-10,00
3429,90	60,00
3433,53	41,00
3437,15	-103,00
3440,77	148,00
3444,39	61,00
3448,00	-50,00
3451,62	30,00
3455,22	9,00
3458,83	142,00
3462,43	-28,00
3466,03	72,00
3469,63	49,00
3473,22	-5,00
3476,81	-31,00
3480,40	-26,00
3483,99	-5,00
3487,57	-40,00
3491,15	20,00
3494,72	-3,00
3498,29	-62,00
3501,86	72,00
3505,43	94,00
3508,99	213,00
3512,56	-85,00
3516,11	63,00
3519,67	-44,00
3523,22	-81,00
3526,77	-68,00
3530,32	-60,00
3533,86	37,00
3537,40	-6,00
3540,94	-63,00
3544,47	-18,00
3548,00	30,00
3551,53	-42,00
3555,06	44,00
3558,58	-25,00
3562,10	-25,00
3565,62	-44,00
3569,13	-92,00
3572,64	24,00
3576,15	40,00
3579,66	34,00
3583,16	68,00
3586,66	85,00
3590,16	-49,00
3593,65	-34,00
3597,14	52,00
3600,63	-29,00
3604,11	-18,00
3607,60	65,00
3611,08	142,00
3614,55	76,00
3618,03	18,00
3621,50	108,00
3624,97	-8,00
3628,43	-36,00
3631,90	-80,00
3635,36	79,00
3638,81	-4,00
3642,27	67,00
3645,72	-70,00
3649,17	-11,00
3652,61	8,00
3656,06	-16,00
3659,50	-11,00
3662,93	79,00
3666,37	31,00
3669,80	203,00
3673,23	-4,00
3676,65	184,00
3680,08	83,00
3683,50	31,00
3686,92	78,00
3690,33	61,00
3693,74	-4,00
3697,15	29,00
3700,56	-78,00
3703,96	21,00
3707,36	40,00
3710,76	-121,00
3714,16	60,00
3717,55	112,00
3720,94	32,00
3724,33	-8,00
3727,71	130,00
3731,10	163,00
3734,48	-42,00
3737,85	-44,00
3741,23	100,00
3744,60	72,00
3747,97	-7,00
3751,33	-5,00
3754,69	124,00
3758,05	-15,00
3761,41	77,00
3764,77	-15,00
3768,12	-9,00
3771,47	7,00
3774,82	42,00
3778,16	0,00
3781,50	-8,00
3784,84	-4,00
3788,18	2,00
>>>>>End Processed Spectral Data<<<<<
