SpectraSuite Data File
++++++++++++++++++++++++++++++++++++
Date: Tue Mar 03 12:04:43 ICT 2026
User: user
Dark Spectrum Present: Yes
Reference Spectrum Present: No
Number of Sampled Component Spectra: 1
Spectrometers: MAYP113682
Integration Time (usec): 3000000 (MAYP113682)
Spectra Averaged: 1 (MAYP113682)
Boxcar Smoothing: 0 (MAYP113682)
Correct for Electrical Dark: No (MAYP113682)
Strobe/Lamp Enabled: No (MAYP113682)
Correct for Detector Non-linearity: No (MAYP113682)
Correct for Stray Light: No (MAYP113682)
Number of Pixels in Processed Spectrum: 2068
>>>>>Begin Processed Spectral Data<<<<<
-37534,58	10,00
-37414,56	2,00
-37295,11	-1,00
-37176,24	-2,00
-37057,95	-90,00
-36940,22	84,00
-36823,05	-28,00
-36706,45	-42,00
-36590,40	49,00
-36474,90	61,00
-36359,95	-10,00
-36245,55	-45,00
-36131,68	17,00
-36018,35	29,00
-35905,55	-144,00
-35793,29	11,00
-35681,54	-1,00
-35570,32	47,00
-35459,62	-41,00
-35349,43	-36,00
-35239,75	25,00
-35130,58	71,00
-35021,91	38,00
-34913,74	-48,00
-34806,07	-55,00
-34698,89	-65,00
-34592,20	113,00
-34486,00	-43,00
-34380,28	-89,00
-34275,04	15,00
-34170,27	17,00
-34065,98	3,00
-33962,16	8,00
-33858,81	68,00
-33755,92	68,00
-33653,49	27,00
-33551,52	96,00
-33450,01	-15,00
-33348,94	-27,00
-33248,33	133,00
-33148,16	-92,00
-33048,43	151,00
-32949,14	34,00
-32850,29	-77,00
-32751,87	-42,00
-32653,89	30,00
-32556,33	25,00
-32459,20	40,00
-32362,49	-118,00
-32266,19	-9,00
-32170,32	-61,00
-32074,86	128,00
-31979,82	-107,00
-31885,18	-29,00
-31790,95	-29,00
-31697,12	85,00
-31603,69	62,00
-31510,67	-124,00
-31418,04	-80,00
-31325,80	9,00
-31233,95	-52,00
-31142,49	-27,00
-31051,42	15,00
-30960,73	36,00
-30870,43	-36,00
-30780,50	-27,00
-30690,95	-52,00
-30601,77	86,00
-30512,97	-20,00
-30424,53	12,00
-30336,46	1,00
-30248,76	-1,00
-30161,42	-88,00
-30074,44	-40,00
-29987,81	27,00
-29901,55	119,00
-29815,63	10,00
-29730,07	140,00
-29644,86	101,00
-29560,00	108,00
-29475,48	39,00
-29391,30	46,00
-29307,47	-14,00
-29223,97	-17,00
-29140,81	-199,00
-29057,99	50,00
-28975,50	-71,00
-28893,34	24,00
-28811,51	40,00
-28730,00	-79,00
-28648,82	13,00
-28567,97	106,00
-28487,43	35,00
-28407,21	-74,00
-28327,32	65,00
-28247,73	-9,00
-28168,46	54,00
-28089,50	26,00
-28010,85	-20,00
-27932,51	-27,00
-27854,48	-27,00
-27776,75	-64,00
-27699,32	54,00
-27622,19	78,00
-27545,37	36,00
-27468,84	99,00
-27392,60	-16,00
-27316,66	84,00
-27241,01	96,00
-27165,66	-13,00
-27090,59	3,00
-27015,81	-9,00
-26941,31	215,00
-26867,10	-37,00
-26793,17	-23,00
-26719,52	32,00
-26646,15	31,00
-26573,06	71,00
-26500,24	61,00
-26427,70	-115,00
-26355,43	-182,00
-26283,43	13,00
-26211,71	196,00
-26140,25	52,00
-26069,06	1,00
-25998,13	-52,00
-25927,46	68,00
-25857,06	28,00
-25786,92	31,00
-25717,04	8,00
-25647,42	66,00
-25578,05	-61,00
-25508,94	89,00
-25440,09	-102,00
-25371,48	195,00
-25303,13	44,00
-25235,02	-89,00
-25167,17	6,00
-25099,56	-27,00
-25032,19	81,00
-24965,07	-57,00
-24898,20	51,00
-24831,56	-4,00
-24765,17	-39,00
-24699,01	-34,00
-24633,10	-76,00
-24567,41	123,00
-24501,97	23,00
-24436,75	-105,00
-24371,77	73,00
-24307,03	43,00
-24242,51	5,00
-24178,22	70,00
-24114,16	71,00
-24050,32	-25,00
-23986,71	12,00
-23923,32	40,00
-23860,16	-23,00
-23797,22	-51,00
-23734,50	-106,00
-23672,00	47,00
-23609,71	67,00
-23547,65	55,00
-23485,80	84,00
-23424,16	125,00
-23362,74	77,00
-23301,53	-16,00
-23240,54	-59,00
-23179,75	-27,00
-23119,17	-35,00
-23058,80	18,00
-22998,64	56,00
-22938,68	90,00
-22878,93	2,00
-22819,39	-76,00
-22760,04	-32,00
-22700,90	74,00
-22641,96	9,00
-22583,22	-45,00
-22524,68	-10,00
-22466,33	29,00
-22408,19	-37,00
-22350,23	80,00
-22292,48	-108,00
-22234,92	25,00
-22177,55	-41,00
-22120,37	121,00
-22063,38	82,00
-22006,58	18,00
-21949,98	-118,00
-21893,56	-21,00
-21837,33	-91,00
-21781,28	-6,00
-21725,42	68,00
-21669,74	-53,00
-21614,25	31,00
-21558,94	-76,00
-21503,81	-37,00
-21448,86	-60,00
-21394,10	2,00
-21339,51	15,00
-21285,10	-50,00
-21230,86	-93,00
-21176,81	-108,00
-21122,93	40,00
-21069,22	113,00
-21015,69	-9,00
-20962,33	34,00
-20909,14	-64,00
-20856,13	-101,00
-20803,28	-114,00
-20750,61	150,00
-20698,10	58,00
-20645,76	38,00
-20593,59	-20,00
-20541,59	20,00
-20489,75	29,00
-20438,07	95,00
-20386,56	10,00
-20335,22	-39,00
-20284,03	-87,00
-20233,01	49,00
-20182,15	-140,00
-20131,45	68,00
-20080,91	-69,00
-20030,52	-65,00
-19980,30	37,00
-19930,23	69,00
-19880,32	-66,00
-19830,56	151,00
-19780,96	-17,00
-19731,52	82,00
-19682,23	-57,00
-19633,09	160,00
-19584,10	15,00
-19535,26	-24,00
-19486,58	78,00
-19438,04	23,00
-19389,66	-70,00
-19341,42	-11,00
-19293,33	34,00
-19245,39	146,00
-19197,60	-48,00
-19149,95	144,00
-19102,45	11,00
-19055,09	101,00
-19007,87	45,00
-18960,80	-46,00
-18913,87	-32,00
-18867,09	-128,00
-18820,44	-1,00
-18773,94	154,00
-18727,57	-48,00
-18681,35	-7,00
-18635,26	34,00
-18589,31	54,00
-18543,50	33,00
-18497,83	50,00
-18452,29	25,00
-18406,89	28,00
-18361,63	-24,00
-18316,50	29,00
-18271,50	26,00
-18226,63	-3,00
-18181,90	-3,00
-18137,30	4,00
-18092,84	-169,00
-18048,50	-108,00
-18004,29	-51,00
-17960,22	-5,00
-17916,27	-37,00
-17872,45	-16,00
-17828,76	60,00
-17785,20	-70,00
-17741,77	0,00
-17698,46	-112,00
-17655,28	72,00
-17612,22	2,00
-17569,29	-43,00
-17526,48	-154,00
-17483,79	-61,00
-17441,23	-68,00
-17398,79	4,00
-17356,48	-73,00
-17314,28	-2,00
-17272,21	94,00
-17230,26	4,00
-17188,42	-103,00
-17146,71	21,00
-17105,12	29,00
-17063,64	-124,00
-17022,28	35,00
-16981,04	40,00
-16939,92	-4,00
-16898,91	-104,00
-16858,02	-97,00
-16817,25	99,00
-16776,59	60,00
-16736,04	-72,00
-16695,61	-60,00
-16655,29	80,00
-16615,09	-21,00
-16574,99	-96,00
-16535,01	55,00
-16495,15	41,00
-16455,39	7,00
-16415,74	28,00
-16376,21	-106,00
-16336,78	8,00
-16297,46	-24,00
-16258,26	17,00
-16219,16	-82,00
-16180,17	34,00
-16141,28	82,00
-16102,51	119,00
-16063,84	92,00
-16025,27	-66,00
-15986,82	-68,00
-15948,46	36,00
-15910,22	-56,00
-15872,07	-44,00
-15834,04	-98,00
-15796,10	-129,00
-15758,27	29,00
-15720,54	76,00
-15682,91	62,00
-15645,39	-210,00
-15607,97	36,00
-15570,64	55,00
-15533,42	-78,00
-15496,30	24,00
-15459,28	61,00
-15422,36	-15,00
-15385,54	-29,00
-15348,82	-73,00
-15312,19	24,00
-15275,66	65,00
-15239,23	-26,00
-15202,90	65,00
-15166,67	-115,00
-15130,53	-94,00
-15094,48	-22,00
-15058,54	-8,00
-15022,68	61,00
-14986,93	17,00
-14951,26	49,00
-14915,69	-49,00
-14880,22	33,00
-14844,84	-119,00
-14809,55	-11,00
-14774,35	43,00
-14739,25	-21,00
-14704,24	220,00
-14669,32	72,00
-14634,49	24,00
-14599,75	-20,00
-14565,10	-64,00
-14530,55	39,00
-14496,08	1,00
-14461,70	-9,00
-14427,41	-5,00
-14393,21	-112,00
-14359,10	-62,00
-14325,07	-135,00
-14291,14	129,00
-14257,29	81,00
-14223,52	60,00
-14189,85	-11,00
-14156,26	-49,00
-14122,76	55,00
-14089,34	14,00
-14056,01	-53,00
-14022,76	-15,00
-13989,60	-8,00
-13956,52	102,00
-13923,53	-48,00
-13890,62	-24,00
-13857,79	15,00
-13825,05	-58,00
-13792,39	74,00
-13759,81	38,00
-13727,31	182,00
-13694,90	-59,00
-13662,57	14,00
-13630,31	-76,00
-13598,14	67,00
-13566,05	0,00
-13534,05	-90,00
-13502,12	-54,00
-13470,27	75,00
-13438,50	117,00
-13406,80	-32,00
-13375,19	21,00
-13343,66	-44,00
-13312,20	99,00
-13280,83	-115,00
-13249,53	-31,00
-13218,30	118,00
-13187,16	98,00
-13156,09	52,00
-13125,10	-34,00
-13094,18	-127,00
-13063,34	35,00
-13032,58	5,00
-13001,89	5,00
-12971,28	47,00
-12940,74	125,00
-12910,27	-43,00
-12879,88	98,00
-12849,57	-2,00
-12819,33	0,00
-12789,16	-35,00
-12759,06	28,00
-12729,04	75,00
-12699,09	1639,00
-12669,21	-33,00
-12639,41	-6,00
-12609,68	-85,00
-12580,02	-39,00
-12550,43	34,00
-12520,91	-4,00
-12491,46	45,00
-12462,08	-33,00
-12432,77	-66,00
-12403,54	-52,00
-12374,37	16,00
-12345,27	4,00
-12316,24	-80,00
-12287,29	24,00
-12258,40	-22,00
-12229,57	-41,00
-12200,82	28,00
-12172,14	2,00
-12143,52	-39,00
-12114,97	56,00
-12086,49	65,00
-12058,07	50,00
-12029,73	24,00
-12001,44	-65,00
-11973,23	4,00
-11945,08	6,00
-11917,00	-75,00
-11888,98	7,00
-11861,03	-76,00
-11833,15	92,00
-11805,32	25,00
-11777,57	-50,00
-11749,88	-20,00
-11722,25	100,00
-11694,69	86,00
-11667,19	104,00
-11639,75	-76,00
-11612,38	37,00
-11585,07	5,00
-11557,83	94,00
-11530,65	-15,00
-11503,53	27,00
-11476,47	-18,00
-11449,48	-21,00
-11422,54	-15,00
-11395,67	43,00
-11368,86	11,00
-11342,11	108,00
-11315,43	108,00
-11288,80	-63,00
-11262,23	-106,00
-11235,73	-58,00
-11209,28	-2,00
-11182,90	33,00
-11156,57	-48,00
-11130,31	-77,00
-11104,10	24,00
-11077,96	77,00
-11051,87	-43,00
-11025,84	-56,00
-10999,87	42,00
-10973,96	59,00
-10948,11	-94,00
-10922,31	81,00
-10896,58	75,00
-10870,90	-108,00
-10845,28	5,00
-10819,71	77,00
-10794,20	22,00
-10768,75	38,00
-10743,36	-45,00
-10718,02	186,00
-10692,74	40,00
-10667,52	-13,00
-10642,35	47,00
-10617,24	133,00
-10592,18	98,00
-10567,18	125,00
-10542,23	181,00
-10517,34	107,00
-10492,51	64,00
-10467,72	108,00
-10443,00	76,00
-10418,32	136,00
-10393,70	141,00
-10369,14	185,00
-10344,63	184,00
-10320,17	251,00
-10295,77	216,00
-10271,42	296,00
-10247,12	372,00
-10222,88	243,00
-10198,68	168,00
-10174,54	232,00
-10150,46	307,00
-10126,42	383,00
-10102,44	313,00
-10078,51	327,00
-10054,63	417,00
-10030,80	371,00
-10007,03	466,00
-9983,30	552,00
-9959,63	517,00
-9936,01	621,00
-9912,44	557,00
-9888,92	620,00
-9865,44	668,00
-9842,02	771,00
-9818,65	544,00
-9795,33	680,00
-9772,06	773,00
-9748,84	812,00
-9725,67	1060,00
-9702,55	1107,00
-9679,47	1305,00
-9656,45	1373,00
-9633,47	1474,00
-9610,55	1478,00
-9587,67	1578,00
-9564,84	1527,00
-9542,06	1720,00
-9519,32	1967,00
-9496,64	2108,00
-9474,00	2142,00
-9451,41	2424,00
-9428,87	2406,00
-9406,37	2386,00
-9383,92	2214,00
-9361,52	1923,00
-9339,17	1997,00
-9316,86	2222,00
-9294,60	2621,00
-9272,38	2804,00
-9250,21	3051,00
-9228,09	3162,00
-9206,01	2910,00
-9183,98	2722,00
-9162,00	2355,00
-9140,06	2138,00
-9118,16	2164,00
-9096,31	2333,00
-9074,51	2433,00
-9052,75	2471,00
-9031,04	2283,00
-9009,37	2064,00
-8987,74	1787,00
-8966,16	1652,00
-8944,63	1519,00
-8923,14	1458,00
-8901,69	1393,00
-8880,29	1711,00
-8858,93	1862,00
-8837,61	2060,00
-8816,34	2143,00
-8795,11	2163,00
-8773,92	2039,00
-8752,78	1719,00
-8731,68	1719,00
-8710,62	1826,00
-8689,61	1873,00
-8668,63	1870,00
-8647,70	2053,00
-8626,82	2032,00
-8605,97	2007,00
-8585,17	1784,00
-8564,41	1551,00
-8543,69	1450,00
-8523,01	1452,00
-8502,37	1565,00
-8481,78	1523,00
-8461,23	1695,00
-8440,71	1818,00
-8420,24	1975,00
-8399,81	2000,00
-8379,42	1794,00
-8359,08	1806,00
-8338,77	1532,00
-8318,50	1440,00
-8298,27	1363,00
-8278,09	1515,00
-8257,94	1624,00
-8237,83	1800,00
-8217,76	2000,00
-8197,74	1844,00
-8177,75	1825,00
-8157,80	1581,00
-8137,89	1423,00
-8118,02	1356,00
-8098,19	1484,00
-8078,40	1474,00
-8058,65	1691,00
-8038,93	1549,00
-8019,26	1699,00
-7999,62	1612,00
-7980,02	1468,00
-7960,46	1354,00
-7940,94	1374,00
-7921,46	1434,00
-7902,01	1335,00
-7882,60	1233,00
-7863,23	1385,00
-7843,90	1504,00
-7824,61	1577,00
-7805,35	1632,00
-7786,13	1641,00
-7766,95	1591,00
-7747,80	1415,00
-7728,69	1395,00
-7709,62	1378,00
-7690,59	1590,00
-7671,59	1621,00
-7652,63	1735,00
-7633,70	1728,00
-7614,81	1655,00
-7595,96	1511,00
-7577,15	1428,00
-7558,37	1460,00
-7539,62	1353,00
-7520,91	1409,00
-7502,24	1509,00
-7483,60	1639,00
-7465,00	1481,00
-7446,44	1360,00
-7427,91	1116,00
-7409,41	951,00
-7390,95	984,00
-7372,53	1014,00
-7354,14	918,00
-7335,78	1020,00
-7317,46	1113,00
-7299,18	1038,00
-7280,92	1245,00
-7262,71	1465,00
-7244,52	1723,00
-7226,38	1617,00
-7208,26	1572,00
-7190,18	1455,00
-7172,14	1352,00
-7154,12	1423,00
-7136,15	1274,00
-7118,20	1434,00
-7100,29	1594,00
-7082,41	1506,00
-7064,57	1479,00
-7046,76	1269,00
-7028,98	1188,00
-7011,24	1019,00
-6993,53	1013,00
-6975,85	831,00
-6958,20	706,00
-6940,59	652,00
-6923,01	706,00
-6905,46	700,00
-6887,94	1124,00
-6870,46	1186,00
-6853,01	1390,00
-6835,59	1356,00
-6818,21	1149,00
-6800,85	964,00
-6783,53	745,00
-6766,24	690,00
-6748,98	628,00
-6731,76	385,00
-6714,56	589,00
-6697,40	600,00
-6680,26	601,00
-6663,16	739,00
-6646,09	793,00
-6629,05	984,00
-6612,05	1163,00
-6595,07	1156,00
-6578,13	1097,00
-6561,21	882,00
-6544,33	576,00
-6527,47	554,00
-6510,65	431,00
-6493,86	455,00
-6477,10	464,00
-6460,36	364,00
-6443,66	484,00
-6426,99	462,00
-6410,35	391,00
-6393,74	676,00
-6377,16	598,00
-6360,61	588,00
-6344,09	682,00
-6327,59	840,00
-6311,13	760,00
-6294,70	784,00
-6278,29	836,00
-6261,92	1037,00
-6245,58	1051,00
-6229,26	1140,00
-6212,97	969,00
-6196,72	909,00
-6180,49	584,00
-6164,29	362,00
-6148,12	172,00
-6131,98	274,00
-6115,86	218,00
-6099,78	158,00
-6083,72	256,00
-6067,69	299,00
-6051,69	308,00
-6035,72	242,00
-6019,78	460,00
-6003,87	544,00
-5987,98	620,00
-5972,12	817,00
-5956,29	727,00
-5940,49	663,00
-5924,71	627,00
-5908,96	384,00
-5893,24	315,00
-5877,55	135,00
-5861,89	254,00
-5846,25	263,00
-5830,64	424,00
-5815,05	371,00
-5799,50	363,00
-5783,97	272,00
-5768,47	472,00
-5752,99	561,00
-5737,55	631,00
-5722,12	795,00
-5706,73	746,00
-5691,36	453,00
-5676,02	498,00
-5660,71	375,00
-5645,42	350,00
-5630,16	319,00
-5614,92	360,00
-5599,71	622,00
-5584,53	563,00
-5569,37	645,00
-5554,24	422,00
-5539,14	407,00
-5524,06	380,00
-5509,01	508,00
-5493,98	452,00
-5478,98	470,00
-5464,00	474,00
-5449,05	348,00
-5434,13	368,00
-5419,23	409,00
-5404,36	336,00
-5389,51	410,00
-5374,69	699,00
-5359,89	755,00
-5345,12	992,00
-5330,37	672,00
-5315,65	663,00
-5300,95	565,00
-5286,28	562,00
-5271,63	402,00
-5257,01	320,00
-5242,41	269,00
-5227,84	367,00
-5213,29	300,00
-5198,76	26,00
-5184,26	-12,00
-5169,79	310,00
-5155,33	237,00
-5140,91	531,00
-5126,51	558,00
-5112,13	522,00
-5097,77	316,00
-5083,44	363,00
-5069,13	170,00
-5054,85	281,00
-5040,59	344,00
-5026,36	381,00
-5012,15	457,00
-4997,96	411,00
-4983,80	396,00
-4969,66	282,00
-4955,54	247,00
-4941,44	409,00
-4927,37	572,00
-4913,33	748,00
-4899,30	785,00
-4885,30	741,00
-4871,33	466,00
-4857,37	251,00
-4843,44	200,00
-4829,53	253,00
-4815,65	309,00
-4801,79	492,00
-4787,95	330,00
-4774,13	161,00
-4760,34	240,00
-4746,56	274,00
-4732,82	126,00
-4719,09	346,00
-4705,38	431,00
-4691,70	678,00
-4678,04	600,00
-4664,41	524,00
-4650,79	295,00
-4637,20	223,00
-4623,63	255,00
-4610,08	375,00
-4596,56	436,00
-4583,05	552,00
-4569,57	381,00
-4556,11	277,00
-4542,67	163,00
-4529,25	182,00
-4515,86	396,00
-4502,49	653,00
-4489,13	546,00
-4475,80	468,00
-4462,49	417,00
-4449,21	386,00
-4435,94	150,00
-4422,70	277,00
-4409,47	388,00
-4396,27	307,00
-4383,09	327,00
-4369,93	70,00
-4356,79	73,00
-4343,67	130,00
-4330,58	309,00
-4317,50	286,00
-4304,45	224,00
-4291,41	238,00
-4278,40	159,00
-4265,41	228,00
-4252,44	135,00
-4239,49	292,00
-4226,55	271,00
-4213,65	237,00
-4200,76	86,00
-4187,89	4,00
-4175,04	25,00
-4162,21	240,00
-4149,40	121,00
-4136,61	77,00
-4123,85	152,00
-4111,10	89,00
-4098,37	99,00
-4085,66	137,00
-4072,98	43,00
-4060,31	146,00
-4047,66	-7,00
-4035,04	22,00
-4022,43	248,00
-4009,84	245,00
-3997,27	40,00
-3984,72	64,00
-3972,19	93,00
-3959,69	-85,00
-3947,20	-84,00
-3934,73	32,00
-3922,27	65,00
-3909,84	-33,00
-3897,43	141,00
-3885,04	-148,00
-3872,67	-49,00
-3860,31	18,00
-3847,98	-48,00
-3835,66	80,00
-3823,36	-5,00
-3811,09	25,00
-3798,83	97,00
-3786,59	42,00
-3774,37	100,00
-3762,17	-83,00
-3749,98	63,00
-3737,82	149,00
-3725,67	-49,00
-3713,55	-18,00
-3701,44	-120,00
-3689,35	-49,00
-3677,28	-46,00
-3665,22	-34,00
-3653,19	3,00
-3641,17	-21,00
-3629,18	-132,00
-3617,20	-32,00
-3605,24	-25,00
-3593,30	-3,00
-3581,37	38,00
-3569,47	-41,00
-3557,58	93,00
-3545,71	46,00
-3533,86	-17,00
-3522,02	-19,00
-3510,21	26,00
-3498,41	-7,00
-3486,63	-28,00
-3474,87	103,00
-3463,12	24,00
-3451,40	2,00
-3439,69	94,00
-3428,00	93,00
-3416,33	18,00
-3404,67	-79,00
-3393,03	-10,00
-3381,41	144,00
-3369,81	56,00
-3358,22	85,00
-3346,66	-81,00
-3335,10	-37,00
-3323,57	17,00
-3312,06	-35,00
-3300,56	60,00
-3289,08	48,00
-3277,61	39,00
-3266,16	13,00
-3254,73	-54,00
-3243,32	69,00
-3231,92	-38,00
-3220,55	-20,00
-3209,18	112,00
-3197,84	43,00
-3186,51	-12,00
-3175,20	-9,00
-3163,90	-42,00
-3152,63	-66,00
-3141,36	15,00
-3130,12	-29,00
-3118,89	-35,00
-3107,68	4,00
-3096,49	8,00
-3085,31	26,00
-3074,15	21,00
-3063,00	15,00
-3051,87	22,00
-3040,76	6,00
-3029,67	-46,00
-3018,59	-101,00
-3007,52	153,00
-2996,48	74,00
-2985,44	81,00
-2974,43	46,00
-2963,43	46,00
-2952,45	-22,00
-2941,48	45,00
-2930,53	-95,00
-2919,60	52,00
-2908,68	44,00
-2897,78	-6,00
-2886,89	-105,00
-2876,02	-55,00
-2865,17	30,00
-2854,33	-88,00
-2843,50	55,00
-2832,70	-13,00
-2821,90	-76,00
-2811,13	-3,00
-2800,37	78,00
-2789,62	-25,00
-2778,89	-55,00
-2768,18	-70,00
-2757,48	-4,00
-2746,80	49,00
-2736,13	52,00
-2725,48	-35,00
-2714,84	-30,00
-2704,22	123,00
-2693,61	7,00
-2683,02	-13,00
-2672,45	67,00
-2661,89	40,00
-2651,34	-58,00
-2640,81	-46,00
-2630,30	-76,00
-2619,80	45,00
-2609,31	1,00
-2598,84	25,00
-2588,39	-65,00
-2577,95	-71,00
-2567,52	14,00
-2557,11	47,00
-2546,71	-53,00
-2536,33	-120,00
-2525,97	2,00
-2515,62	98,00
-2505,28	44,00
-2494,96	118,00
-2484,65	91,00
-2474,36	-4,00
-2464,08	9,00
-2453,82	31,00
-2443,57	-103,00
-2433,33	114,00
-2423,11	83,00
-2412,91	13,00
-2402,72	53,00
-2392,54	-90,00
-2382,38	78,00
-2372,23	92,00
-2362,09	-167,00
-2351,97	-143,00
-2341,87	-101,00
-2331,78	42,00
-2321,70	3,00
-2311,64	29,00
-2301,59	84,00
-2291,55	72,00
-2281,53	156,00
-2271,53	28,00
-2261,53	13,00
-2251,55	82,00
-2241,59	-47,00
-2231,64	85,00
-2221,70	-63,00
-2211,78	-27,00
-2201,87	6,00
-2191,97	6,00
-2182,09	-17,00
-2172,22	-32,00
-2162,37	-7,00
-2152,53	-63,00
-2142,70	-7,00
-2132,89	-33,00
-2123,09	-77,00
-2113,30	55,00
-2103,53	40,00
-2093,77	-31,00
-2084,02	-52,00
-2074,29	35,00
-2064,57	8,00
-2054,86	8,00
-2045,17	114,00
-2035,49	-113,00
-2025,82	55,00
-2016,17	87,00
-2006,53	-30,00
-1996,91	-6,00
-1987,29	76,00
-1977,69	-42,00
-1968,11	-40,00
-1958,53	59,00
-1948,97	-16,00
-1939,42	46,00
-1929,89	99,00
-1920,37	-30,00
-1910,86	108,00
-1901,36	-7,00
-1891,88	-71,00
-1882,41	-33,00
-1872,95	-4,00
-1863,51	-65,00
-1854,08	-132,00
-1844,66	-50,00
-1835,26	17,00
-1825,86	23,00
-1816,48	3,00
-1807,11	21,00
-1797,76	48,00
-1788,42	158,00
-1779,09	65,00
-1769,77	-125,00
-1760,47	62,00
-1751,17	31,00
-1741,89	-72,00
-1732,63	32,00
-1723,37	20,00
-1714,13	31,00
-1704,90	116,00
-1695,68	-80,00
-1686,48	-38,00
-1677,29	30,00
-1668,11	32,00
-1658,94	6,00
-1649,78	-112,00
-1640,64	-100,00
-1631,51	36,00
-1622,39	-42,00
-1613,28	-195,00
-1604,19	10,00
-1595,10	22,00
-1586,03	-5,00
-1576,97	-126,00
-1567,93	-45,00
-1558,89	4,00
-1549,87	-85,00
-1540,86	72,00
-1531,86	-28,00
-1522,87	91,00
-1513,90	-3,00
-1504,93	8,00
-1495,98	18,00
-1487,04	-14,00
-1478,12	-4,00
-1469,20	-33,00
-1460,30	-116,00
-1451,40	-2,00
-1442,52	45,00
-1433,65	45,00
-1424,80	-60,00
-1415,95	67,00
-1407,12	61,00
-1398,30	-54,00
-1389,48	-160,00
-1380,69	4,00
-1371,90	9,00
-1363,12	-95,00
-1354,36	-40,00
-1345,60	-10,00
-1336,86	16,00
-1328,13	86,00
-1319,41	1,00
-1310,70	-6,00
-1302,01	-127,00
-1293,32	18,00
-1284,65	60,00
-1275,99	-8,00
-1267,33	43,00
-1258,69	104,00
-1250,06	13,00
-1241,45	-44,00
-1232,84	21,00
-1224,25	57,00
-1215,66	-27,00
-1207,09	-56,00
-1198,53	-1,00
-1189,97	31,00
-1181,43	23,00
-1172,91	-114,00
-1164,39	57,00
-1155,88	-27,00
-1147,38	-35,00
-1138,90	-112,00
-1130,43	0,00
-1121,96	73,00
-1113,51	32,00
-1105,07	-11,00
-1096,64	115,00
-1088,22	-53,00
-1079,81	-90,00
-1071,41	-32,00
-1063,02	118,00
-1054,65	87,00
-1046,28	15,00
-1037,92	-126,00
-1029,58	53,00
-1021,24	2,00
-1012,92	-149,00
-1004,61	-88,00
-996,30	56,00
-988,01	8,00
-979,73	-56,00
-971,46	153,00
-963,20	31,00
-954,95	29,00
-946,71	-131,00
-938,48	111,00
-930,26	-54,00
-922,06	9,00
-913,86	52,00
-905,67	0,00
-897,49	-32,00
-889,33	23,00
-881,17	22,00
-873,02	31,00
-864,89	42,00
-856,76	13,00
-848,65	46,00
-840,54	-32,00
-832,45	22,00
-824,36	-77,00
-816,29	-11,00
-808,22	1,00
-800,17	37,00
-792,12	-128,00
-784,09	19,00
-776,06	29,00
-768,05	-19,00
-760,04	-38,00
-752,05	85,00
-744,07	77,00
-736,09	32,00
-728,13	-88,00
-720,17	54,00
-712,23	-23,00
-704,29	-26,00
-696,37	-122,00
-688,45	-49,00
-680,55	29,00
-672,65	-54,00
-664,77	35,00
-656,89	111,00
-649,03	54,00
-641,17	-10,00
-633,32	-28,00
-625,49	0,00
-617,66	105,00
-609,84	-41,00
-602,03	9,00
-594,23	-5,00
-586,45	75,00
-578,67	36,00
-570,90	-110,00
-563,14	-18,00
-555,39	-19,00
-547,65	17,00
-539,91	69,00
-532,19	-6,00
-524,48	36,00
-516,78	65,00
-509,08	0,00
-501,40	-7,00
-493,72	-87,00
-486,06	46,00
-478,40	-29,00
-470,76	70,00
-463,12	-53,00
-455,49	56,00
-447,87	76,00
-440,26	78,00
-432,66	14,00
-425,07	77,00
-417,49	45,00
-409,92	-43,00
-402,35	71,00
-394,80	-92,00
-387,25	81,00
-379,72	-85,00
-372,19	-6,00
-364,67	136,00
-357,17	66,00
-349,67	10,00
-342,18	43,00
-334,69	74,00
-327,22	229,00
-319,76	-13,00
-312,30	161,00
-304,86	-37,00
-297,42	99,00
-290,00	129,00
-282,58	76,00
-275,17	76,00
-267,77	20,00
-260,37	110,00
-252,99	-16,00
-245,62	131,00
-238,25	146,00
-230,90	193,00
-223,55	195,00
-216,21	219,00
-208,88	208,00
-201,56	179,00
-194,25	435,00
-186,94	300,00
-179,65	190,00
-172,36	345,00
-165,08	408,00
-157,81	334,00
-150,55	375,00
-143,30	339,00
-136,06	385,00
-128,82	380,00
-121,60	474,00
-114,38	594,00
-107,17	807,00
-99,97	811,00
-92,78	826,00
-85,60	933,00
-78,42	1152,00
-71,25	1410,00
-64,10	1432,00
-56,95	1995,00
-49,81	2321,00
-42,67	2853,00
-35,55	3704,00
-28,43	4816,00
-21,33	8440,00
-14,23	29336,00
-7,14	54235,00
-0,05	53890,00
7,02	53525,00
14,09	53899,00
21,14	21133,00
28,19	8872,00
35,23	5712,00
42,27	4380,00
49,29	3743,00
56,31	3058,00
63,32	2686,00
70,32	1994,00
77,31	1719,00
84,29	1649,00
91,27	1407,00
98,23	1212,00
105,19	1175,00
112,14	1449,00
119,09	2072,00
126,02	3181,00
132,95	3808,00
139,87	3787,00
146,78	3800,00
153,68	3644,00
160,58	3568,00
167,46	3622,00
174,34	3460,00
181,21	3448,00
188,08	3481,00
194,93	3434,00
201,78	3354,00
208,62	3352,00
215,45	3337,00
222,27	3351,00
229,09	3361,00
235,90	3434,00
242,70	3267,00
249,49	3335,00
256,27	3001,00
263,05	3320,00
269,82	3304,00
276,58	3193,00
283,33	3208,00
290,08	3255,00
296,82	3072,00
303,55	3110,00
310,27	3052,00
316,98	2960,00
323,69	3019,00
330,39	2964,00
337,08	3072,00
343,76	2896,00
350,44	2885,00
357,11	3009,00
363,77	2872,00
370,42	2849,00
377,07	3011,00
383,71	2911,00
390,34	2720,00
396,96	2887,00
403,58	2900,00
410,19	2948,00
416,79	2927,00
423,38	2997,00
429,97	2891,00
436,55	2788,00
443,12	2595,00
449,68	2616,00
456,24	2620,00
462,79	2777,00
469,33	2583,00
475,86	2520,00
482,39	2624,00
488,91	2607,00
495,42	2480,00
501,93	2481,00
508,42	2520,00
514,91	2308,00
521,40	2314,00
527,87	2408,00
534,34	2300,00
540,80	2419,00
547,25	2414,00
553,70	2303,00
560,14	2374,00
566,57	2212,00
573,00	2267,00
579,41	2323,00
585,83	2230,00
592,23	2224,00
598,62	2264,00
605,01	2098,00
611,40	2162,00
617,77	2237,00
624,14	2302,00
630,50	1995,00
636,85	2166,00
643,20	2132,00
649,54	2128,00
655,87	2090,00
662,20	2072,00
668,52	1983,00
674,83	2080,00
681,13	2138,00
687,43	2253,00
693,72	2074,00
700,00	2014,00
706,28	2031,00
712,55	2032,00
718,81	2061,00
725,07	1933,00
731,32	2103,00
737,56	2020,00
743,79	1976,00
750,02	2019,00
756,24	1932,00
762,46	2064,00
768,67	1954,00
774,87	2114,00
781,06	1861,00
787,25	1907,00
793,43	1909,00
799,60	1895,00
805,77	1856,00
811,93	1858,00
818,08	1943,00
824,23	1919,00
830,37	1912,00
836,50	1724,00
842,63	1856,00
848,75	1795,00
854,87	1822,00
860,97	1888,00
867,07	1918,00
873,17	1884,00
879,25	1837,00
885,33	1826,00
891,41	1823,00
897,47	1777,00
903,53	1715,00
909,59	1660,00
915,63	1787,00
921,67	1777,00
927,71	1660,00
933,74	1720,00
939,76	1524,00
945,77	1630,00
951,78	1632,00
957,78	1729,00
963,78	1601,00
969,77	1709,00
975,75	1760,00
981,72	1744,00
987,69	1420,00
993,66	1564,00
999,61	1678,00
1005,56	1645,00
1011,51	1660,00
1017,44	1632,00
1023,37	1544,00
1029,30	1699,00
1035,22	1665,00
1041,13	1695,00
1047,03	1599,00
1052,93	1994,00
1058,83	2008,00
1064,71	2152,00
1070,59	1792,00
1076,47	1807,00
1082,33	1791,00
1088,20	1649,00
1094,05	1550,00
1099,90	1525,00
1105,74	1685,00
1111,58	1529,00
1117,41	1634,00
1123,23	1844,00
1129,05	1996,00
1134,86	1668,00
1140,67	1688,00
1146,47	1488,00
1152,26	1587,00
1158,05	1626,00
1163,83	1587,00
1169,60	1493,00
1175,37	1604,00
1181,13	1549,00
1186,89	1460,00
1192,64	1486,00
1198,38	1432,00
1204,12	1503,00
1209,85	1510,00
1215,58	1400,00
1221,30	1438,00
1227,02	1361,00
1232,72	1383,00
1238,43	1461,00
1244,12	1552,00
1249,81	1498,00
1255,50	1447,00
1261,17	1570,00
1266,85	1466,00
1272,51	1651,00
1278,17	1520,00
1283,83	1622,00
1289,47	1901,00
1295,12	2230,00
1300,75	2126,00
1306,38	2009,00
1312,01	1880,00
1317,63	1710,00
1323,24	1713,00
1328,85	1600,00
1334,45	1645,00
1340,04	1429,00
1345,63	1516,00
1351,22	1460,00
1356,80	1472,00
1362,37	1689,00
1367,93	1536,00
1373,49	1599,00
1379,05	1528,00
1384,60	1735,00
1390,14	1565,00
1395,68	1593,00
1401,21	1540,00
1406,74	1598,00
1412,26	1808,00
1417,77	1867,00
1423,28	1849,00
1428,78	2012,00
1434,28	2088,00
1439,77	2347,00
1445,26	2436,00
1450,74	2285,00
1456,22	2159,00
1461,68	2052,00
1467,15	1895,00
1472,61	1965,00
1478,06	1730,00
1483,51	1635,00
1488,95	1468,00
1494,38	1397,00
1499,81	1457,00
1505,24	1428,00
1510,65	1531,00
1516,07	1574,00
1521,48	1292,00
1526,88	1251,00
1532,27	1221,00
1537,67	1327,00
1543,05	1479,00
1548,43	1288,00
1553,81	1299,00
1559,18	1251,00
1564,54	1226,00
1569,90	1259,00
1575,25	1349,00
1580,60	1214,00
1585,94	1277,00
1591,28	1267,00
1596,61	1194,00
1601,93	1273,00
1607,25	1299,00
1612,57	1156,00
1617,88	1298,00
1623,18	1157,00
1628,48	1156,00
1633,77	1206,00
1639,06	1160,00
1644,34	1180,00
1649,62	1095,00
1654,89	1100,00
1660,16	1123,00
1665,42	1023,00
1670,67	1024,00
1675,92	1192,00
1681,17	1023,00
1686,41	1176,00
1691,64	944,00
1696,87	1065,00
1702,10	1088,00
1707,32	985,00
1712,53	1082,00
1717,74	1039,00
1722,94	1046,00
1728,14	906,00
1733,33	1017,00
1738,52	940,00
1743,70	961,00
1748,88	867,00
1754,05	936,00
1759,22	1006,00
1764,38	916,00
1769,53	973,00
1774,69	1038,00
1779,83	872,00
1784,97	890,00
1790,11	892,00
1795,24	864,00
1800,36	880,00
1805,48	868,00
1810,60	913,00
1815,71	951,00
1820,82	831,00
1825,92	891,00
1831,01	771,00
1836,10	877,00
1841,19	884,00
1846,26	883,00
1851,34	834,00
1856,41	877,00
1861,47	766,00
1866,53	803,00
1871,59	836,00
1876,64	885,00
1881,68	855,00
1886,72	753,00
1891,76	855,00
1896,79	877,00
1901,81	826,00
1906,83	744,00
1911,85	753,00
1916,86	659,00
1921,86	818,00
1926,86	655,00
1931,86	679,00
1936,85	743,00
1941,83	716,00
1946,81	765,00
1951,79	700,00
1956,76	685,00
1961,72	756,00
1966,68	763,00
1971,64	686,00
1976,59	682,00
1981,54	624,00
1986,48	668,00
1991,42	622,00
1996,35	583,00
2001,27	584,00
2006,20	606,00
2011,11	580,00
2016,03	709,00
2020,93	545,00
2025,84	691,00
2030,73	624,00
2035,63	586,00
2040,52	520,00
2045,40	652,00
2050,28	515,00
2055,15	717,00
2060,02	566,00
2064,89	720,00
2069,75	560,00
2074,60	559,00
2079,46	602,00
2084,30	568,00
2089,14	606,00
2093,98	602,00
2098,81	653,00
2103,64	553,00
2108,46	561,00
2113,28	574,00
2118,09	569,00
2122,90	592,00
2127,70	552,00
2132,50	443,00
2137,30	420,00
2142,09	588,00
2146,87	422,00
2151,66	673,00
2156,43	587,00
2161,20	670,00
2165,97	431,00
2170,73	496,00
2175,49	614,00
2180,24	525,00
2184,99	495,00
2189,74	579,00
2194,48	475,00
2199,21	502,00
2203,94	551,00
2208,67	554,00
2213,39	456,00
2218,11	560,00
2222,82	535,00
2227,53	510,00
2232,23	463,00
2236,93	414,00
2241,63	470,00
2246,32	365,00
2251,00	394,00
2255,68	461,00
2260,36	467,00
2265,03	471,00
2269,70	432,00
2274,36	463,00
2279,02	357,00
2283,68	409,00
2288,33	385,00
2292,97	353,00
2297,61	435,00
2302,25	492,00
2306,88	470,00
2311,51	506,00
2316,14	430,00
2320,75	393,00
2325,37	359,00
2329,98	432,00
2334,59	456,00
2339,19	457,00
2343,79	341,00
2348,38	533,00
2352,97	387,00
2357,55	358,00
2362,13	318,00
2366,71	353,00
2371,28	444,00
2375,85	322,00
2380,41	340,00
2384,97	266,00
2389,52	345,00
2394,07	332,00
2398,62	380,00
2403,16	332,00
2407,70	235,00
2412,23	285,00
2416,76	364,00
2421,29	309,00
2425,81	318,00
2430,32	262,00
2434,84	291,00
2439,34	341,00
2443,85	380,00
2448,35	344,00
2452,84	195,00
2457,33	328,00
2461,82	263,00
2466,30	195,00
2470,78	337,00
2475,25	293,00
2479,72	373,00
2484,19	355,00
2488,65	265,00
2493,11	253,00
2497,56	231,00
2502,01	341,00
2506,46	157,00
2510,90	362,00
2515,34	301,00
2519,77	237,00
2524,20	268,00
2528,62	288,00
2533,04	308,00
2537,46	235,00
2541,87	244,00
2546,28	233,00
2550,68	236,00
2555,08	262,00
2559,48	390,00
2563,87	123,00
2568,26	314,00
2572,64	342,00
2577,02	317,00
2581,40	224,00
2585,77	176,00
2590,14	288,00
2594,50	302,00
2598,86	245,00
2603,22	340,00
2607,57	164,00
2611,92	149,00
2616,26	207,00
2620,60	175,00
2624,94	192,00
2629,27	345,00
2633,60	239,00
2637,92	336,00
2642,24	263,00
2646,56	225,00
2650,87	213,00
2655,18	216,00
2659,48	132,00
2663,78	237,00
2668,08	270,00
2672,37	182,00
2676,66	131,00
2680,95	281,00
2685,23	309,00
2689,50	297,00
2693,78	318,00
2698,05	313,00
2702,31	434,00
2706,57	285,00
2710,83	299,00
2715,08	355,00
2719,33	252,00
2723,58	471,00
2727,82	203,00
2732,06	297,00
2736,29	377,00
2740,53	425,00
2744,75	382,00
2748,97	294,00
2753,19	335,00
2757,41	173,00
2761,62	221,00
2765,83	249,00
2770,03	373,00
2774,23	304,00
2778,43	295,00
2782,62	178,00
2786,81	432,00
2791,00	275,00
2795,18	355,00
2799,35	361,00
2803,53	351,00
2807,70	223,00
2811,86	323,00
2816,03	352,00
2820,19	435,00
2824,34	377,00
2828,49	495,00
2832,64	602,00
2836,78	697,00
2840,92	959,00
2845,06	1014,00
2849,19	1079,00
2853,32	1311,00
2857,45	1258,00
2861,57	1178,00
2865,69	1296,00
2869,80	1193,00
2873,91	1083,00
2878,02	1295,00
2882,12	1399,00
2886,22	1487,00
2890,32	1273,00
2894,41	1207,00
2898,50	1215,00
2902,58	1096,00
2906,67	996,00
2910,74	920,00
2914,82	900,00
2918,89	821,00
2922,96	877,00
2927,02	781,00
2931,08	625,00
2935,13	696,00
2939,19	528,00
2943,24	612,00
2947,28	441,00
2951,32	401,00
2955,36	535,00
2959,40	277,00
2963,43	487,00
2967,46	437,00
2971,48	225,00
2975,50	299,00
2979,52	340,00
2983,53	302,00
2987,54	128,00
2991,55	120,00
2995,55	287,00
2999,55	128,00
3003,54	128,00
3007,54	-35,00
3011,53	211,00
3015,51	100,00
3019,49	215,00
3023,47	77,00
3027,45	249,00
3031,42	182,00
3035,39	174,00
3039,35	162,00
3043,31	1,00
3047,27	254,00
3051,22	48,00
3055,17	65,00
3059,12	116,00
3063,06	16,00
3067,00	44,00
3070,94	224,00
3074,87	158,00
3078,80	150,00
3082,73	72,00
3086,65	77,00
3090,57	89,00
3094,49	285,00
3098,40	101,00
3102,31	27,00
3106,22	87,00
3110,12	114,00
3114,02	118,00
3117,92	163,00
3121,81	71,00
3125,70	-181,00
3129,58	82,00
3133,47	136,00
3137,34	99,00
3141,22	1,00
3145,09	44,00
3148,96	66,00
3152,83	55,00
3156,69	-1,00
3160,55	115,00
3164,40	22,00
3168,26	78,00
3172,10	34,00
3175,95	-28,00
3179,79	102,00
3183,63	128,00
3187,47	116,00
3191,30	120,00
3195,13	87,00
3198,95	70,00
3202,78	36,00
3206,60	54,00
3210,41	83,00
3214,23	178,00
3218,03	122,00
3221,84	78,00
3225,64	70,00
3229,44	-79,00
3233,24	147,00
3237,03	-67,00
3240,82	11,00
3244,61	-16,00
3248,39	-12,00
3252,17	60,00
3255,95	50,00
3259,72	42,00
3263,49	202,00
3267,26	16,00
3271,03	113,00
3274,79	76,00
3278,54	148,00
3282,30	33,00
3286,05	143,00
3289,80	55,00
3293,54	77,00
3297,29	29,00
3301,02	-30,00
3304,76	-20,00
3308,49	-32,00
3312,22	97,00
3315,95	-89,00
3319,67	60,00
3323,39	5,00
3327,10	-35,00
3330,82	167,00
3334,53	58,00
3338,24	-23,00
3341,94	58,00
3345,64	47,00
3349,34	71,00
3353,03	169,00
3356,72	-41,00
3360,41	109,00
3364,10	28,00
3367,78	57,00
3371,46	29,00
3375,13	62,00
3378,81	-10,00
3382,48	-42,00
3386,14	139,00
3389,81	24,00
3393,47	14,00
3397,12	-58,00
3400,78	68,00
3404,43	66,00
3408,08	-51,00
3411,72	84,00
3415,36	98,00
3419,00	9,00
3422,64	154,00
3426,27	24,00
3429,90	113,00
3433,53	40,00
3437,15	-37,00
3440,77	100,00
3444,39	-86,00
3448,00	-92,00
3451,62	21,00
3455,22	39,00
3458,83	102,00
3462,43	114,00
3466,03	82,00
3469,63	37,00
3473,22	102,00
3476,81	-50,00
3480,40	-43,00
3483,99	-79,00
3487,57	-17,00
3491,15	-18,00
3494,72	12,00
3498,29	31,00
3501,86	147,00
3505,43	78,00
3508,99	89,00
3512,56	-85,00
3516,11	78,00
3519,67	50,00
3523,22	-52,00
3526,77	-17,00
3530,32	83,00
3533,86	-39,00
3537,40	80,00
3540,94	-27,00
3544,47	-98,00
3548,00	-77,00
3551,53	-108,00
3555,06	31,00
3558,58	-93,00
3562,10	-10,00
3565,62	22,00
3569,13	-39,00
3572,64	64,00
3576,15	50,00
3579,66	130,00
3583,16	18,00
3586,66	75,00
3590,16	30,00
3593,65	77,00
3597,14	-74,00
3600,63	-93,00
3604,11	10,00
3607,60	111,00
3611,08	64,00
3614,55	-8,00
3618,03	11,00
3621,50	109,00
3624,97	-73,00
3628,43	16,00
3631,90	-31,00
3635,36	67,00
3638,81	-52,00
3642,27	86,00
3645,72	-86,00
3649,17	84,00
3652,61	-14,00
3656,06	-109,00
3659,50	-9,00
3662,93	35,00
3666,37	138,00
3669,80	145,00
3673,23	-51,00
3676,65	165,00
3680,08	51,00
3683,50	27,00
3686,92	76,00
3690,33	-54,00
3693,74	10,00
3697,15	-54,00
3700,56	24,00
3703,96	-29,00
3707,36	-23,00
3710,76	-161,00
3714,16	-30,00
3717,55	101,00
3720,94	72,00
3724,33	28,00
3727,71	130,00
3731,10	59,00
3734,48	-46,00
3737,85	-13,00
3741,23	44,00
3744,60	173,00
3747,97	-75,00
3751,33	83,00
3754,69	92,00
3758,05	30,00
3761,41	-10,00
3764,77	-44,00
3768,12	97,00
3771,47	-63,00
3774,82	48,00
3778,16	-3,00
3781,50	-3,00
3784,84	-1,00
3788,18	-6,00
>>>>>End Processed Spectral Data<<<<<
