SpectraSuite Data File
++++++++++++++++++++++++++++++++++++
Date: Tue Mar 03 10:29:59 ICT 2026
User: user
Dark Spectrum Present: Yes
Reference Spectrum Present: No
Number of Sampled Component Spectra: 1
Spectrometers: MAYP113682
Integration Time (usec): 3000000 (MAYP113682)
Spectra Averaged: 1 (MAYP113682)
Boxcar Smoothing: 0 (MAYP113682)
Correct for Electrical Dark: No (MAYP113682)
Strobe/Lamp Enabled: No (MAYP113682)
Correct for Detector Non-linearity: No (MAYP113682)
Correct for Stray Light: No (MAYP113682)
Number of Pixels in Processed Spectrum: 2068
>>>>>Begin Processed Spectral Data<<<<<
-37534,58	21,00
-37414,56	-1,00
-37295,11	6,00
-37176,24	0,00
-37057,95	424,00
-36940,22	377,00
-36823,05	384,00
-36706,45	413,00
-36590,40	361,00
-36474,90	468,00
-36359,95	461,00
-36245,55	383,00
-36131,68	456,00
-36018,35	426,00
-35905,55	458,00
-35793,29	498,00
-35681,54	449,00
-35570,32	355,00
-35459,62	424,00
-35349,43	457,00
-35239,75	470,00
-35130,58	409,00
-35021,91	408,00
-34913,74	457,00
-34806,07	405,00
-34698,89	501,00
-34592,20	423,00
-34486,00	444,00
-34380,28	521,00
-34275,04	394,00
-34170,27	348,00
-34065,98	405,00
-33962,16	515,00
-33858,81	480,00
-33755,92	512,00
-33653,49	544,00
-33551,52	558,00
-33450,01	427,00
-33348,94	533,00
-33248,33	448,00
-33148,16	419,00
-33048,43	461,00
-32949,14	540,00
-32850,29	506,00
-32751,87	422,00
-32653,89	598,00
-32556,33	522,00
-32459,20	453,00
-32362,49	348,00
-32266,19	481,00
-32170,32	558,00
-32074,86	493,00
-31979,82	506,00
-31885,18	514,00
-31790,95	607,00
-31697,12	473,00
-31603,69	437,00
-31510,67	618,00
-31418,04	454,00
-31325,80	471,00
-31233,95	513,00
-31142,49	485,00
-31051,42	492,00
-30960,73	520,00
-30870,43	554,00
-30780,50	456,00
-30690,95	464,00
-30601,77	560,00
-30512,97	490,00
-30424,53	452,00
-30336,46	483,00
-30248,76	429,00
-30161,42	427,00
-30074,44	496,00
-29987,81	542,00
-29901,55	446,00
-29815,63	489,00
-29730,07	555,00
-29644,86	449,00
-29560,00	499,00
-29475,48	428,00
-29391,30	486,00
-29307,47	397,00
-29223,97	535,00
-29140,81	425,00
-29057,99	515,00
-28975,50	518,00
-28893,34	585,00
-28811,51	382,00
-28730,00	466,00
-28648,82	453,00
-28567,97	483,00
-28487,43	384,00
-28407,21	416,00
-28327,32	631,00
-28247,73	571,00
-28168,46	605,00
-28089,50	497,00
-28010,85	493,00
-27932,51	455,00
-27854,48	432,00
-27776,75	522,00
-27699,32	456,00
-27622,19	597,00
-27545,37	509,00
-27468,84	582,00
-27392,60	489,00
-27316,66	435,00
-27241,01	477,00
-27165,66	536,00
-27090,59	439,00
-27015,81	528,00
-26941,31	511,00
-26867,10	512,00
-26793,17	510,00
-26719,52	492,00
-26646,15	499,00
-26573,06	479,00
-26500,24	458,00
-26427,70	417,00
-26355,43	598,00
-26283,43	408,00
-26211,71	384,00
-26140,25	451,00
-26069,06	613,00
-25998,13	491,00
-25927,46	580,00
-25857,06	523,00
-25786,92	477,00
-25717,04	466,00
-25647,42	547,00
-25578,05	367,00
-25508,94	543,00
-25440,09	517,00
-25371,48	496,00
-25303,13	582,00
-25235,02	456,00
-25167,17	523,00
-25099,56	588,00
-25032,19	469,00
-24965,07	464,00
-24898,20	440,00
-24831,56	494,00
-24765,17	544,00
-24699,01	483,00
-24633,10	404,00
-24567,41	543,00
-24501,97	543,00
-24436,75	417,00
-24371,77	469,00
-24307,03	432,00
-24242,51	482,00
-24178,22	468,00
-24114,16	480,00
-24050,32	591,00
-23986,71	499,00
-23923,32	505,00
-23860,16	468,00
-23797,22	479,00
-23734,50	524,00
-23672,00	493,00
-23609,71	531,00
-23547,65	489,00
-23485,80	446,00
-23424,16	426,00
-23362,74	461,00
-23301,53	518,00
-23240,54	430,00
-23179,75	491,00
-23119,17	458,00
-23058,80	484,00
-22998,64	424,00
-22938,68	485,00
-22878,93	546,00
-22819,39	459,00
-22760,04	520,00
-22700,90	564,00
-22641,96	479,00
-22583,22	504,00
-22524,68	479,00
-22466,33	432,00
-22408,19	407,00
-22350,23	504,00
-22292,48	451,00
-22234,92	488,00
-22177,55	599,00
-22120,37	557,00
-22063,38	560,00
-22006,58	558,00
-21949,98	402,00
-21893,56	427,00
-21837,33	479,00
-21781,28	575,00
-21725,42	502,00
-21669,74	533,00
-21614,25	479,00
-21558,94	555,00
-21503,81	565,00
-21448,86	544,00
-21394,10	411,00
-21339,51	432,00
-21285,10	438,00
-21230,86	368,00
-21176,81	428,00
-21122,93	422,00
-21069,22	599,00
-21015,69	460,00
-20962,33	438,00
-20909,14	439,00
-20856,13	523,00
-20803,28	544,00
-20750,61	492,00
-20698,10	496,00
-20645,76	405,00
-20593,59	524,00
-20541,59	452,00
-20489,75	408,00
-20438,07	449,00
-20386,56	424,00
-20335,22	487,00
-20284,03	425,00
-20233,01	420,00
-20182,15	493,00
-20131,45	471,00
-20080,91	485,00
-20030,52	389,00
-19980,30	356,00
-19930,23	545,00
-19880,32	547,00
-19830,56	569,00
-19780,96	408,00
-19731,52	424,00
-19682,23	432,00
-19633,09	449,00
-19584,10	466,00
-19535,26	496,00
-19486,58	539,00
-19438,04	496,00
-19389,66	376,00
-19341,42	456,00
-19293,33	468,00
-19245,39	548,00
-19197,60	519,00
-19149,95	552,00
-19102,45	549,00
-19055,09	554,00
-19007,87	474,00
-18960,80	527,00
-18913,87	551,00
-18867,09	441,00
-18820,44	521,00
-18773,94	433,00
-18727,57	553,00
-18681,35	522,00
-18635,26	489,00
-18589,31	424,00
-18543,50	443,00
-18497,83	484,00
-18452,29	419,00
-18406,89	411,00
-18361,63	524,00
-18316,50	418,00
-18271,50	430,00
-18226,63	508,00
-18181,90	523,00
-18137,30	476,00
-18092,84	537,00
-18048,50	416,00
-18004,29	435,00
-17960,22	490,00
-17916,27	487,00
-17872,45	507,00
-17828,76	422,00
-17785,20	511,00
-17741,77	499,00
-17698,46	502,00
-17655,28	468,00
-17612,22	470,00
-17569,29	517,00
-17526,48	473,00
-17483,79	467,00
-17441,23	483,00
-17398,79	373,00
-17356,48	420,00
-17314,28	530,00
-17272,21	486,00
-17230,26	529,00
-17188,42	440,00
-17146,71	532,00
-17105,12	479,00
-17063,64	485,00
-17022,28	412,00
-16981,04	396,00
-16939,92	444,00
-16898,91	475,00
-16858,02	511,00
-16817,25	457,00
-16776,59	467,00
-16736,04	548,00
-16695,61	570,00
-16655,29	402,00
-16615,09	583,00
-16574,99	439,00
-16535,01	468,00
-16495,15	554,00
-16455,39	392,00
-16415,74	456,00
-16376,21	569,00
-16336,78	358,00
-16297,46	345,00
-16258,26	497,00
-16219,16	367,00
-16180,17	431,00
-16141,28	502,00
-16102,51	399,00
-16063,84	456,00
-16025,27	433,00
-15986,82	429,00
-15948,46	408,00
-15910,22	484,00
-15872,07	503,00
-15834,04	411,00
-15796,10	469,00
-15758,27	542,00
-15720,54	515,00
-15682,91	467,00
-15645,39	534,00
-15607,97	457,00
-15570,64	495,00
-15533,42	468,00
-15496,30	510,00
-15459,28	489,00
-15422,36	380,00
-15385,54	386,00
-15348,82	512,00
-15312,19	453,00
-15275,66	436,00
-15239,23	502,00
-15202,90	412,00
-15166,67	358,00
-15130,53	419,00
-15094,48	500,00
-15058,54	509,00
-15022,68	480,00
-14986,93	452,00
-14951,26	421,00
-14915,69	474,00
-14880,22	472,00
-14844,84	436,00
-14809,55	404,00
-14774,35	508,00
-14739,25	513,00
-14704,24	431,00
-14669,32	412,00
-14634,49	442,00
-14599,75	511,00
-14565,10	483,00
-14530,55	530,00
-14496,08	381,00
-14461,70	529,00
-14427,41	439,00
-14393,21	471,00
-14359,10	460,00
-14325,07	564,00
-14291,14	447,00
-14257,29	494,00
-14223,52	493,00
-14189,85	601,00
-14156,26	494,00
-14122,76	477,00
-14089,34	427,00
-14056,01	492,00
-14022,76	508,00
-13989,60	478,00
-13956,52	444,00
-13923,53	480,00
-13890,62	524,00
-13857,79	470,00
-13825,05	432,00
-13792,39	411,00
-13759,81	460,00
-13727,31	444,00
-13694,90	415,00
-13662,57	523,00
-13630,31	515,00
-13598,14	511,00
-13566,05	508,00
-13534,05	475,00
-13502,12	482,00
-13470,27	441,00
-13438,50	489,00
-13406,80	594,00
-13375,19	379,00
-13343,66	450,00
-13312,20	507,00
-13280,83	395,00
-13249,53	496,00
-13218,30	433,00
-13187,16	427,00
-13156,09	584,00
-13125,10	584,00
-13094,18	485,00
-13063,34	596,00
-13032,58	427,00
-13001,89	447,00
-12971,28	496,00
-12940,74	470,00
-12910,27	475,00
-12879,88	541,00
-12849,57	586,00
-12819,33	498,00
-12789,16	467,00
-12759,06	511,00
-12729,04	420,00
-12699,09	2024,00
-12669,21	389,00
-12639,41	496,00
-12609,68	443,00
-12580,02	414,00
-12550,43	526,00
-12520,91	463,00
-12491,46	432,00
-12462,08	517,00
-12432,77	518,00
-12403,54	524,00
-12374,37	437,00
-12345,27	513,00
-12316,24	473,00
-12287,29	482,00
-12258,40	404,00
-12229,57	389,00
-12200,82	473,00
-12172,14	369,00
-12143,52	464,00
-12114,97	443,00
-12086,49	446,00
-12058,07	578,00
-12029,73	472,00
-12001,44	646,00
-11973,23	511,00
-11945,08	556,00
-11917,00	519,00
-11888,98	504,00
-11861,03	486,00
-11833,15	505,00
-11805,32	462,00
-11777,57	493,00
-11749,88	551,00
-11722,25	480,00
-11694,69	376,00
-11667,19	428,00
-11639,75	608,00
-11612,38	455,00
-11585,07	429,00
-11557,83	457,00
-11530,65	535,00
-11503,53	445,00
-11476,47	518,00
-11449,48	420,00
-11422,54	495,00
-11395,67	458,00
-11368,86	501,00
-11342,11	538,00
-11315,43	511,00
-11288,80	362,00
-11262,23	656,00
-11235,73	480,00
-11209,28	530,00
-11182,90	683,00
-11156,57	538,00
-11130,31	523,00
-11104,10	492,00
-11077,96	538,00
-11051,87	394,00
-11025,84	521,00
-10999,87	422,00
-10973,96	437,00
-10948,11	488,00
-10922,31	435,00
-10896,58	503,00
-10870,90	566,00
-10845,28	583,00
-10819,71	500,00
-10794,20	513,00
-10768,75	570,00
-10743,36	643,00
-10718,02	527,00
-10692,74	588,00
-10667,52	582,00
-10642,35	610,00
-10617,24	616,00
-10592,18	628,00
-10567,18	721,00
-10542,23	597,00
-10517,34	647,00
-10492,51	630,00
-10467,72	610,00
-10443,00	649,00
-10418,32	642,00
-10393,70	700,00
-10369,14	636,00
-10344,63	697,00
-10320,17	793,00
-10295,77	669,00
-10271,42	880,00
-10247,12	832,00
-10222,88	834,00
-10198,68	755,00
-10174,54	863,00
-10150,46	1035,00
-10126,42	972,00
-10102,44	1099,00
-10078,51	1000,00
-10054,63	1057,00
-10030,80	1076,00
-10007,03	1208,00
-9983,30	1215,00
-9959,63	1163,00
-9936,01	1233,00
-9912,44	1380,00
-9888,92	1314,00
-9865,44	1306,00
-9842,02	1446,00
-9818,65	1436,00
-9795,33	1455,00
-9772,06	1502,00
-9748,84	1614,00
-9725,67	1774,00
-9702,55	1992,00
-9679,47	2161,00
-9656,45	2411,00
-9633,47	2338,00
-9610,55	2486,00
-9587,67	2564,00
-9564,84	2807,00
-9542,06	2966,00
-9519,32	3213,00
-9496,64	3500,00
-9474,00	3591,00
-9451,41	3752,00
-9428,87	3723,00
-9406,37	3589,00
-9383,92	3328,00
-9361,52	3289,00
-9339,17	3364,00
-9316,86	3594,00
-9294,60	3976,00
-9272,38	4442,00
-9250,21	4575,00
-9228,09	4673,00
-9206,01	4579,00
-9183,98	3964,00
-9162,00	3641,00
-9140,06	3432,00
-9118,16	3376,00
-9096,31	3499,00
-9074,51	3516,00
-9052,75	3717,00
-9031,04	3410,00
-9009,37	3283,00
-8987,74	2865,00
-8966,16	2495,00
-8944,63	2341,00
-8923,14	2371,00
-8901,69	2428,00
-8880,29	2528,00
-8858,93	2779,00
-8837,61	3052,00
-8816,34	3312,00
-8795,11	3252,00
-8773,92	2915,00
-8752,78	2800,00
-8731,68	2694,00
-8710,62	2651,00
-8689,61	2703,00
-8668,63	2919,00
-8647,70	3201,00
-8626,82	3273,00
-8605,97	2991,00
-8585,17	2842,00
-8564,41	2598,00
-8543,69	2408,00
-8523,01	2289,00
-8502,37	2646,00
-8481,78	2468,00
-8461,23	2530,00
-8440,71	2718,00
-8420,24	2865,00
-8399,81	3000,00
-8379,42	2853,00
-8359,08	2765,00
-8338,77	2464,00
-8318,50	2376,00
-8298,27	2246,00
-8278,09	2278,00
-8257,94	2426,00
-8237,83	2599,00
-8217,76	2789,00
-8197,74	2705,00
-8177,75	2718,00
-8157,80	2471,00
-8137,89	2371,00
-8118,02	2372,00
-8098,19	2344,00
-8078,40	2358,00
-8058,65	2462,00
-8038,93	2547,00
-8019,26	2504,00
-7999,62	2477,00
-7980,02	2318,00
-7960,46	2284,00
-7940,94	2158,00
-7921,46	2239,00
-7902,01	2164,00
-7882,60	2244,00
-7863,23	2122,00
-7843,90	2275,00
-7824,61	2328,00
-7805,35	2401,00
-7786,13	2582,00
-7766,95	2435,00
-7747,80	2396,00
-7728,69	2374,00
-7709,62	2155,00
-7690,59	2376,00
-7671,59	2576,00
-7652,63	2560,00
-7633,70	2622,00
-7614,81	2694,00
-7595,96	2266,00
-7577,15	2213,00
-7558,37	2187,00
-7539,62	2414,00
-7520,91	2343,00
-7502,24	2551,00
-7483,60	2563,00
-7465,00	2401,00
-7446,44	2186,00
-7427,91	1842,00
-7409,41	1876,00
-7390,95	1758,00
-7372,53	1764,00
-7354,14	1701,00
-7335,78	1684,00
-7317,46	1822,00
-7299,18	1956,00
-7280,92	2140,00
-7262,71	2413,00
-7244,52	2642,00
-7226,38	2579,00
-7208,26	2496,00
-7190,18	2194,00
-7172,14	2247,00
-7154,12	2192,00
-7136,15	2183,00
-7118,20	2348,00
-7100,29	2462,00
-7082,41	2434,00
-7064,57	2429,00
-7046,76	2220,00
-7028,98	2041,00
-7011,24	2020,00
-6993,53	1703,00
-6975,85	1573,00
-6958,20	1374,00
-6940,59	1617,00
-6923,01	1392,00
-6905,46	1573,00
-6887,94	1846,00
-6870,46	2319,00
-6853,01	2159,00
-6835,59	2274,00
-6818,21	2006,00
-6800,85	1930,00
-6783,53	1467,00
-6766,24	1336,00
-6748,98	1223,00
-6731,76	1231,00
-6714,56	1239,00
-6697,40	1099,00
-6680,26	1076,00
-6663,16	1397,00
-6646,09	1591,00
-6629,05	1823,00
-6612,05	1902,00
-6595,07	1910,00
-6578,13	1962,00
-6561,21	1556,00
-6544,33	1265,00
-6527,47	1016,00
-6510,65	1061,00
-6493,86	1059,00
-6477,10	1159,00
-6460,36	1108,00
-6443,66	1004,00
-6426,99	1119,00
-6410,35	1144,00
-6393,74	1225,00
-6377,16	1223,00
-6360,61	1412,00
-6344,09	1411,00
-6327,59	1390,00
-6311,13	1458,00
-6294,70	1577,00
-6278,29	1530,00
-6261,92	1686,00
-6245,58	1779,00
-6229,26	1763,00
-6212,97	1665,00
-6196,72	1367,00
-6180,49	1110,00
-6164,29	911,00
-6148,12	956,00
-6131,98	747,00
-6115,86	759,00
-6099,78	766,00
-6083,72	711,00
-6067,69	746,00
-6051,69	654,00
-6035,72	742,00
-6019,78	949,00
-6003,87	1149,00
-5987,98	1336,00
-5972,12	1409,00
-5956,29	1490,00
-5940,49	1319,00
-5924,71	1093,00
-5908,96	925,00
-5893,24	863,00
-5877,55	796,00
-5861,89	917,00
-5846,25	847,00
-5830,64	915,00
-5815,05	863,00
-5799,50	904,00
-5783,97	838,00
-5768,47	1018,00
-5752,99	1157,00
-5737,55	1234,00
-5722,12	1427,00
-5706,73	1364,00
-5691,36	1209,00
-5676,02	1002,00
-5660,71	994,00
-5645,42	793,00
-5630,16	939,00
-5614,92	1044,00
-5599,71	1138,00
-5584,53	1274,00
-5569,37	1141,00
-5554,24	1238,00
-5539,14	958,00
-5524,06	986,00
-5509,01	1102,00
-5493,98	994,00
-5478,98	1087,00
-5464,00	1022,00
-5449,05	1030,00
-5434,13	828,00
-5419,23	925,00
-5404,36	939,00
-5389,51	1068,00
-5374,69	1359,00
-5359,89	1640,00
-5345,12	1527,00
-5330,37	1526,00
-5315,65	1255,00
-5300,95	1152,00
-5286,28	984,00
-5271,63	920,00
-5257,01	971,00
-5242,41	1062,00
-5227,84	1016,00
-5213,29	875,00
-5198,76	803,00
-5184,26	757,00
-5169,79	790,00
-5155,33	1017,00
-5140,91	1104,00
-5126,51	1190,00
-5112,13	1143,00
-5097,77	1121,00
-5083,44	999,00
-5069,13	870,00
-5054,85	829,00
-5040,59	930,00
-5026,36	975,00
-5012,15	1126,00
-4997,96	988,00
-4983,80	944,00
-4969,66	768,00
-4955,54	820,00
-4941,44	975,00
-4927,37	1234,00
-4913,33	1402,00
-4899,30	1650,00
-4885,30	1477,00
-4871,33	1178,00
-4857,37	874,00
-4843,44	708,00
-4829,53	820,00
-4815,65	1018,00
-4801,79	864,00
-4787,95	964,00
-4774,13	869,00
-4760,34	716,00
-4746,56	690,00
-4732,82	741,00
-4719,09	977,00
-4705,38	1266,00
-4691,70	1441,00
-4678,04	1488,00
-4664,41	1153,00
-4650,79	1065,00
-4637,20	787,00
-4623,63	803,00
-4610,08	952,00
-4596,56	1102,00
-4583,05	1073,00
-4569,57	994,00
-4556,11	827,00
-4542,67	722,00
-4529,25	717,00
-4515,86	1071,00
-4502,49	1323,00
-4489,13	1327,00
-4475,80	1098,00
-4462,49	853,00
-4449,21	807,00
-4435,94	673,00
-4422,70	865,00
-4409,47	1009,00
-4396,27	1026,00
-4383,09	1012,00
-4369,93	605,00
-4356,79	515,00
-4343,67	715,00
-4330,58	735,00
-4317,50	943,00
-4304,45	838,00
-4291,41	710,00
-4278,40	667,00
-4265,41	499,00
-4252,44	805,00
-4239,49	874,00
-4226,55	1073,00
-4213,65	870,00
-4200,76	723,00
-4187,89	507,00
-4175,04	534,00
-4162,21	656,00
-4149,40	631,00
-4136,61	583,00
-4123,85	536,00
-4111,10	611,00
-4098,37	540,00
-4085,66	619,00
-4072,98	644,00
-4060,31	520,00
-4047,66	644,00
-4035,04	631,00
-4022,43	573,00
-4009,84	624,00
-3997,27	534,00
-3984,72	459,00
-3972,19	509,00
-3959,69	474,00
-3947,20	572,00
-3934,73	512,00
-3922,27	409,00
-3909,84	499,00
-3897,43	406,00
-3885,04	591,00
-3872,67	491,00
-3860,31	496,00
-3847,98	466,00
-3835,66	477,00
-3823,36	489,00
-3811,09	451,00
-3798,83	504,00
-3786,59	422,00
-3774,37	451,00
-3762,17	504,00
-3749,98	447,00
-3737,82	419,00
-3725,67	584,00
-3713,55	512,00
-3701,44	445,00
-3689,35	539,00
-3677,28	537,00
-3665,22	488,00
-3653,19	473,00
-3641,17	423,00
-3629,18	567,00
-3617,20	505,00
-3605,24	512,00
-3593,30	504,00
-3581,37	448,00
-3569,47	622,00
-3557,58	482,00
-3545,71	479,00
-3533,86	569,00
-3522,02	481,00
-3510,21	481,00
-3498,41	471,00
-3486,63	506,00
-3474,87	518,00
-3463,12	483,00
-3451,40	420,00
-3439,69	423,00
-3428,00	564,00
-3416,33	545,00
-3404,67	461,00
-3393,03	447,00
-3381,41	524,00
-3369,81	472,00
-3358,22	393,00
-3346,66	597,00
-3335,10	586,00
-3323,57	404,00
-3312,06	621,00
-3300,56	435,00
-3289,08	514,00
-3277,61	516,00
-3266,16	411,00
-3254,73	565,00
-3243,32	423,00
-3231,92	583,00
-3220,55	506,00
-3209,18	517,00
-3197,84	406,00
-3186,51	395,00
-3175,20	495,00
-3163,90	463,00
-3152,63	551,00
-3141,36	515,00
-3130,12	536,00
-3118,89	476,00
-3107,68	481,00
-3096,49	437,00
-3085,31	460,00
-3074,15	452,00
-3063,00	531,00
-3051,87	484,00
-3040,76	383,00
-3029,67	472,00
-3018,59	591,00
-3007,52	493,00
-2996,48	422,00
-2985,44	405,00
-2974,43	523,00
-2963,43	500,00
-2952,45	397,00
-2941,48	384,00
-2930,53	480,00
-2919,60	441,00
-2908,68	466,00
-2897,78	436,00
-2886,89	565,00
-2876,02	483,00
-2865,17	506,00
-2854,33	385,00
-2843,50	438,00
-2832,70	559,00
-2821,90	580,00
-2811,13	434,00
-2800,37	445,00
-2789,62	514,00
-2778,89	559,00
-2768,18	450,00
-2757,48	448,00
-2746,80	483,00
-2736,13	354,00
-2725,48	521,00
-2714,84	479,00
-2704,22	464,00
-2693,61	444,00
-2683,02	433,00
-2672,45	513,00
-2661,89	540,00
-2651,34	534,00
-2640,81	488,00
-2630,30	498,00
-2619,80	491,00
-2609,31	566,00
-2598,84	354,00
-2588,39	440,00
-2577,95	523,00
-2567,52	371,00
-2557,11	467,00
-2546,71	545,00
-2536,33	512,00
-2525,97	529,00
-2515,62	492,00
-2505,28	484,00
-2494,96	455,00
-2484,65	591,00
-2474,36	429,00
-2464,08	489,00
-2453,82	489,00
-2443,57	473,00
-2433,33	447,00
-2423,11	352,00
-2412,91	586,00
-2402,72	541,00
-2392,54	543,00
-2382,38	460,00
-2372,23	522,00
-2362,09	4615,00
-2351,97	426,00
-2341,87	503,00
-2331,78	448,00
-2321,70	571,00
-2311,64	480,00
-2301,59	422,00
-2291,55	456,00
-2281,53	383,00
-2271,53	537,00
-2261,53	461,00
-2251,55	436,00
-2241,59	548,00
-2231,64	591,00
-2221,70	497,00
-2211,78	509,00
-2201,87	489,00
-2191,97	663,00
-2182,09	457,00
-2172,22	472,00
-2162,37	423,00
-2152,53	451,00
-2142,70	530,00
-2132,89	490,00
-2123,09	495,00
-2113,30	518,00
-2103,53	443,00
-2093,77	557,00
-2084,02	432,00
-2074,29	581,00
-2064,57	621,00
-2054,86	463,00
-2045,17	601,00
-2035,49	415,00
-2025,82	405,00
-2016,17	414,00
-2006,53	452,00
-1996,91	453,00
-1987,29	427,00
-1977,69	565,00
-1968,11	425,00
-1958,53	552,00
-1948,97	530,00
-1939,42	371,00
-1929,89	555,00
-1920,37	465,00
-1910,86	522,00
-1901,36	569,00
-1891,88	480,00
-1882,41	558,00
-1872,95	469,00
-1863,51	476,00
-1854,08	511,00
-1844,66	480,00
-1835,26	548,00
-1825,86	522,00
-1816,48	395,00
-1807,11	549,00
-1797,76	426,00
-1788,42	457,00
-1779,09	606,00
-1769,77	549,00
-1760,47	593,00
-1751,17	530,00
-1741,89	382,00
-1732,63	628,00
-1723,37	588,00
-1714,13	632,00
-1704,90	478,00
-1695,68	504,00
-1686,48	466,00
-1677,29	512,00
-1668,11	747,00
-1658,94	517,00
-1649,78	465,00
-1640,64	454,00
-1631,51	502,00
-1622,39	437,00
-1613,28	457,00
-1604,19	457,00
-1595,10	427,00
-1586,03	503,00
-1576,97	462,00
-1567,93	473,00
-1558,89	456,00
-1549,87	578,00
-1540,86	384,00
-1531,86	512,00
-1522,87	495,00
-1513,90	507,00
-1504,93	566,00
-1495,98	485,00
-1487,04	583,00
-1478,12	540,00
-1469,20	512,00
-1460,30	590,00
-1451,40	533,00
-1442,52	423,00
-1433,65	461,00
-1424,80	481,00
-1415,95	458,00
-1407,12	657,00
-1398,30	552,00
-1389,48	375,00
-1380,69	438,00
-1371,90	516,00
-1363,12	464,00
-1354,36	529,00
-1345,60	525,00
-1336,86	576,00
-1328,13	603,00
-1319,41	351,00
-1310,70	420,00
-1302,01	389,00
-1293,32	559,00
-1284,65	462,00
-1275,99	563,00
-1267,33	518,00
-1258,69	502,00
-1250,06	529,00
-1241,45	415,00
-1232,84	533,00
-1224,25	521,00
-1215,66	691,00
-1207,09	420,00
-1198,53	520,00
-1189,97	514,00
-1181,43	446,00
-1172,91	561,00
-1164,39	574,00
-1155,88	418,00
-1147,38	442,00
-1138,90	464,00
-1130,43	499,00
-1121,96	504,00
-1113,51	515,00
-1105,07	499,00
-1096,64	418,00
-1088,22	446,00
-1079,81	433,00
-1071,41	536,00
-1063,02	461,00
-1054,65	550,00
-1046,28	517,00
-1037,92	526,00
-1029,58	487,00
-1021,24	442,00
-1012,92	677,00
-1004,61	516,00
-996,30	530,00
-988,01	366,00
-979,73	496,00
-971,46	433,00
-963,20	480,00
-954,95	500,00
-946,71	403,00
-938,48	448,00
-930,26	517,00
-922,06	522,00
-913,86	548,00
-905,67	477,00
-897,49	489,00
-889,33	431,00
-881,17	517,00
-873,02	561,00
-864,89	465,00
-856,76	560,00
-848,65	539,00
-840,54	518,00
-832,45	508,00
-824,36	432,00
-816,29	526,00
-808,22	555,00
-800,17	403,00
-792,12	542,00
-784,09	567,00
-776,06	560,00
-768,05	395,00
-760,04	483,00
-752,05	383,00
-744,07	469,00
-736,09	581,00
-728,13	449,00
-720,17	519,00
-712,23	432,00
-704,29	556,00
-696,37	576,00
-688,45	522,00
-680,55	545,00
-672,65	524,00
-664,77	529,00
-656,89	480,00
-649,03	570,00
-641,17	483,00
-633,32	502,00
-625,49	517,00
-617,66	472,00
-609,84	437,00
-602,03	446,00
-594,23	476,00
-586,45	483,00
-578,67	460,00
-570,90	480,00
-563,14	525,00
-555,39	430,00
-547,65	590,00
-539,91	454,00
-532,19	527,00
-524,48	545,00
-516,78	487,00
-509,08	544,00
-501,40	435,00
-493,72	473,00
-486,06	392,00
-478,40	601,00
-470,76	465,00
-463,12	547,00
-455,49	458,00
-447,87	453,00
-440,26	426,00
-432,66	553,00
-425,07	587,00
-417,49	434,00
-409,92	522,00
-402,35	559,00
-394,80	451,00
-387,25	618,00
-379,72	516,00
-372,19	491,00
-364,67	525,00
-357,17	502,00
-349,67	552,00
-342,18	501,00
-334,69	537,00
-327,22	531,00
-319,76	604,00
-312,30	491,00
-304,86	580,00
-297,42	528,00
-290,00	583,00
-282,58	559,00
-275,17	430,00
-267,77	583,00
-260,37	587,00
-252,99	506,00
-245,62	590,00
-238,25	541,00
-230,90	497,00
-223,55	637,00
-216,21	529,00
-208,88	608,00
-201,56	608,00
-194,25	618,00
-186,94	629,00
-179,65	616,00
-172,36	768,00
-165,08	647,00
-157,81	760,00
-150,55	861,00
-143,30	825,00
-136,06	779,00
-128,82	940,00
-121,60	869,00
-114,38	984,00
-107,17	1146,00
-99,97	1122,00
-92,78	1188,00
-85,60	1332,00
-78,42	1452,00
-71,25	1683,00
-64,10	1684,00
-56,95	2120,00
-49,81	2285,00
-42,67	2708,00
-35,55	3361,00
-28,43	4084,00
-21,33	6599,00
-14,23	20386,00
-7,14	57727,00
-0,05	57480,00
7,02	57283,00
14,09	57420,00
21,14	18528,00
28,19	7922,00
35,23	5098,00
42,27	4099,00
49,29	3340,00
56,31	2784,00
63,32	2661,00
70,32	2105,00
77,31	1916,00
84,29	1631,00
91,27	1562,00
98,23	1527,00
105,19	1321,00
112,14	1401,00
119,09	1767,00
126,02	2289,00
132,95	2538,00
139,87	2579,00
146,78	2511,00
153,68	2539,00
160,58	2417,00
167,46	2409,00
174,34	2371,00
181,21	2273,00
188,08	2340,00
194,93	2425,00
201,78	2307,00
208,62	2178,00
215,45	2281,00
222,27	2255,00
229,09	2220,00
235,90	2111,00
242,70	2176,00
249,49	2348,00
256,27	2075,00
263,05	2174,00
269,82	2014,00
276,58	2186,00
283,33	2028,00
290,08	2112,00
296,82	1824,00
303,55	2025,00
310,27	2034,00
316,98	1969,00
323,69	1948,00
330,39	1882,00
337,08	1901,00
343,76	1966,00
350,44	1940,00
357,11	1950,00
363,77	1953,00
370,42	1876,00
377,07	1868,00
383,71	1918,00
390,34	1898,00
396,96	1688,00
403,58	1827,00
410,19	1867,00
416,79	1868,00
423,38	1867,00
429,97	1780,00
436,55	1692,00
443,12	1755,00
449,68	1691,00
456,24	1735,00
462,79	1647,00
469,33	1720,00
475,86	1631,00
482,39	1540,00
488,91	1687,00
495,42	1558,00
501,93	1556,00
508,42	1556,00
514,91	1696,00
521,40	1587,00
527,87	1524,00
534,34	1590,00
540,80	1609,00
547,25	1580,00
553,70	1507,00
560,14	1430,00
566,57	1566,00
573,00	1542,00
579,41	1529,00
585,83	1472,00
592,23	1471,00
598,62	1449,00
605,01	1425,00
611,40	1486,00
617,77	1488,00
624,14	1452,00
630,50	1392,00
636,85	1447,00
643,20	1505,00
649,54	1414,00
655,87	1401,00
662,20	1544,00
668,52	1442,00
674,83	1449,00
681,13	1491,00
687,43	1405,00
693,72	1388,00
700,00	1381,00
706,28	1461,00
712,55	1394,00
718,81	1466,00
725,07	1388,00
731,32	1296,00
737,56	1385,00
743,79	1348,00
750,02	1383,00
756,24	1365,00
762,46	1437,00
768,67	1517,00
774,87	1409,00
781,06	1252,00
787,25	1512,00
793,43	1344,00
799,60	1304,00
805,77	1335,00
811,93	1476,00
818,08	1302,00
824,23	1319,00
830,37	1442,00
836,50	1463,00
842,63	1339,00
848,75	1489,00
854,87	1323,00
860,97	1425,00
867,07	1457,00
873,17	1440,00
879,25	1453,00
885,33	1361,00
891,41	1381,00
897,47	1403,00
903,53	1373,00
909,59	1416,00
915,63	1362,00
921,67	1303,00
927,71	1351,00
933,74	1364,00
939,76	1263,00
945,77	1246,00
951,78	1279,00
957,78	1241,00
963,78	1312,00
969,77	1219,00
975,75	1279,00
981,72	1257,00
987,69	2018,00
993,66	1290,00
999,61	1332,00
1005,56	1261,00
1011,51	1228,00
1017,44	1260,00
1023,37	1295,00
1029,30	1382,00
1035,22	1322,00
1041,13	1293,00
1047,03	1359,00
1052,93	1421,00
1058,83	1626,00
1064,71	1704,00
1070,59	1684,00
1076,47	1563,00
1082,33	1437,00
1088,20	1441,00
1094,05	1379,00
1099,90	1341,00
1105,74	1321,00
1111,58	1262,00
1117,41	1299,00
1123,23	1564,00
1129,05	1726,00
1134,86	1667,00
1140,67	1254,00
1146,47	1298,00
1152,26	1214,00
1158,05	1179,00
1163,83	1237,00
1169,60	1245,00
1175,37	1308,00
1181,13	1207,00
1186,89	1267,00
1192,64	1260,00
1198,38	1122,00
1204,12	1186,00
1209,85	1155,00
1215,58	1323,00
1221,30	1212,00
1227,02	1161,00
1232,72	1167,00
1238,43	1161,00
1244,12	1160,00
1249,81	1193,00
1255,50	1318,00
1261,17	1199,00
1266,85	1308,00
1272,51	1200,00
1278,17	1337,00
1283,83	1313,00
1289,47	1571,00
1295,12	1980,00
1300,75	1875,00
1306,38	1659,00
1312,01	1465,00
1317,63	1449,00
1323,24	1362,00
1328,85	1321,00
1334,45	1282,00
1340,04	1244,00
1345,63	1186,00
1351,22	1367,00
1356,80	1316,00
1362,37	1369,00
1367,93	1226,00
1373,49	1395,00
1379,05	1288,00
1384,60	1268,00
1390,14	1217,00
1395,68	1326,00
1401,21	1312,00
1406,74	1265,00
1412,26	1214,00
1417,77	1516,00
1423,28	1546,00
1428,78	1815,00
1434,28	1997,00
1439,77	1972,00
1445,26	1951,00
1450,74	2012,00
1456,22	1937,00
1461,68	1829,00
1467,15	1745,00
1472,61	1617,00
1478,06	1520,00
1483,51	1406,00
1488,95	1197,00
1494,38	1354,00
1499,81	1048,00
1505,24	1179,00
1510,65	1183,00
1516,07	1183,00
1521,48	1136,00
1526,88	1074,00
1532,27	1133,00
1537,67	1121,00
1543,05	1108,00
1548,43	1106,00
1553,81	1112,00
1559,18	1133,00
1564,54	1052,00
1569,90	1022,00
1575,25	1034,00
1580,60	1079,00
1585,94	1094,00
1591,28	1078,00
1596,61	941,00
1601,93	1060,00
1607,25	1100,00
1612,57	1037,00
1617,88	1105,00
1623,18	1075,00
1628,48	1007,00
1633,77	1122,00
1639,06	1180,00
1644,34	1014,00
1649,62	996,00
1654,89	1140,00
1660,16	1005,00
1665,42	992,00
1670,67	989,00
1675,92	959,00
1681,17	877,00
1686,41	998,00
1691,64	1073,00
1696,87	932,00
1702,10	1011,00
1707,32	905,00
1712,53	905,00
1717,74	1011,00
1722,94	967,00
1728,14	953,00
1733,33	956,00
1738,52	907,00
1743,70	924,00
1748,88	862,00
1754,05	911,00
1759,22	946,00
1764,38	1173,00
1769,53	920,00
1774,69	982,00
1779,83	897,00
1784,97	944,00
1790,11	912,00
1795,24	919,00
1800,36	955,00
1805,48	964,00
1810,60	857,00
1815,71	844,00
1820,82	892,00
1825,92	922,00
1831,01	816,00
1836,10	815,00
1841,19	908,00
1846,26	861,00
1851,34	794,00
1856,41	846,00
1861,47	864,00
1866,53	853,00
1871,59	739,00
1876,64	851,00
1881,68	895,00
1886,72	882,00
1891,76	769,00
1896,79	815,00
1901,81	838,00
1906,83	925,00
1911,85	747,00
1916,86	792,00
1921,86	800,00
1926,86	847,00
1931,86	711,00
1936,85	709,00
1941,83	763,00
1946,81	748,00
1951,79	721,00
1956,76	781,00
1961,72	709,00
1966,68	760,00
1971,64	659,00
1976,59	733,00
1981,54	742,00
1986,48	777,00
1991,42	689,00
1996,35	754,00
2001,27	745,00
2006,20	712,00
2011,11	808,00
2016,03	688,00
2020,93	665,00
2025,84	801,00
2030,73	712,00
2035,63	697,00
2040,52	723,00
2045,40	750,00
2050,28	681,00
2055,15	791,00
2060,02	615,00
2064,89	828,00
2069,75	774,00
2074,60	621,00
2079,46	757,00
2084,30	759,00
2089,14	682,00
2093,98	751,00
2098,81	693,00
2103,64	708,00
2108,46	672,00
2113,28	719,00
2118,09	688,00
2122,90	687,00
2127,70	707,00
2132,50	726,00
2137,30	721,00
2142,09	718,00
2146,87	520,00
2151,66	663,00
2156,43	696,00
2161,20	666,00
2165,97	649,00
2170,73	667,00
2175,49	667,00
2180,24	717,00
2184,99	719,00
2189,74	758,00
2194,48	714,00
2199,21	757,00
2203,94	641,00
2208,67	672,00
2213,39	679,00
2218,11	634,00
2222,82	728,00
2227,53	628,00
2232,23	707,00
2236,93	662,00
2241,63	687,00
2246,32	772,00
2251,00	618,00
2255,68	805,00
2260,36	617,00
2265,03	633,00
2269,70	719,00
2274,36	597,00
2279,02	664,00
2283,68	661,00
2288,33	631,00
2292,97	680,00
2297,61	624,00
2302,25	662,00
2306,88	609,00
2311,51	493,00
2316,14	643,00
2320,75	649,00
2325,37	610,00
2329,98	632,00
2334,59	523,00
2339,19	605,00
2343,79	594,00
2348,38	606,00
2352,97	553,00
2357,55	579,00
2362,13	630,00
2366,71	719,00
2371,28	775,00
2375,85	618,00
2380,41	697,00
2384,97	674,00
2389,52	572,00
2394,07	641,00
2398,62	564,00
2403,16	559,00
2407,70	719,00
2412,23	562,00
2416,76	685,00
2421,29	503,00
2425,81	653,00
2430,32	635,00
2434,84	516,00
2439,34	592,00
2443,85	643,00
2448,35	657,00
2452,84	615,00
2457,33	697,00
2461,82	524,00
2466,30	585,00
2470,78	690,00
2475,25	614,00
2479,72	691,00
2484,19	553,00
2488,65	648,00
2493,11	545,00
2497,56	634,00
2502,01	551,00
2506,46	768,00
2510,90	553,00
2515,34	670,00
2519,77	629,00
2524,20	595,00
2528,62	623,00
2533,04	635,00
2537,46	509,00
2541,87	551,00
2546,28	653,00
2550,68	564,00
2555,08	595,00
2559,48	675,00
2563,87	578,00
2568,26	666,00
2572,64	543,00
2577,02	604,00
2581,40	538,00
2585,77	715,00
2590,14	563,00
2594,50	583,00
2598,86	667,00
2603,22	592,00
2607,57	580,00
2611,92	626,00
2616,26	667,00
2620,60	638,00
2624,94	496,00
2629,27	611,00
2633,60	620,00
2637,92	647,00
2642,24	668,00
2646,56	622,00
2650,87	477,00
2655,18	673,00
2659,48	623,00
2663,78	588,00
2668,08	601,00
2672,37	622,00
2676,66	652,00
2680,95	572,00
2685,23	645,00
2689,50	671,00
2693,78	681,00
2698,05	574,00
2702,31	671,00
2706,57	635,00
2710,83	774,00
2715,08	708,00
2719,33	769,00
2723,58	710,00
2727,82	732,00
2732,06	728,00
2736,29	762,00
2740,53	734,00
2744,75	647,00
2748,97	753,00
2753,19	688,00
2757,41	728,00
2761,62	590,00
2765,83	675,00
2770,03	563,00
2774,23	620,00
2778,43	618,00
2782,62	667,00
2786,81	597,00
2791,00	647,00
2795,18	797,00
2799,35	678,00
2803,53	783,00
2807,70	705,00
2811,86	600,00
2816,03	856,00
2820,19	769,00
2824,34	808,00
2828,49	906,00
2832,64	961,00
2836,78	1116,00
2840,92	1279,00
2845,06	1375,00
2849,19	1596,00
2853,32	1654,00
2857,45	1680,00
2861,57	1593,00
2865,69	1430,00
2869,80	1445,00
2873,91	1471,00
2878,02	1645,00
2882,12	1716,00
2886,22	1621,00
2890,32	1653,00
2894,41	1617,00
2898,50	1514,00
2902,58	1443,00
2906,67	1406,00
2910,74	1350,00
2914,82	1207,00
2918,89	1278,00
2922,96	1236,00
2927,02	1086,00
2931,08	1025,00
2935,13	994,00
2939,19	983,00
2943,24	916,00
2947,28	902,00
2951,32	877,00
2955,36	748,00
2959,40	879,00
2963,43	730,00
2967,46	733,00
2971,48	784,00
2975,50	744,00
2979,52	678,00
2983,53	710,00
2987,54	635,00
2991,55	709,00
2995,55	525,00
2999,55	616,00
3003,54	516,00
3007,54	533,00
3011,53	642,00
3015,51	659,00
3019,49	705,00
3023,47	596,00
3027,45	541,00
3031,42	556,00
3035,39	441,00
3039,35	600,00
3043,31	530,00
3047,27	598,00
3051,22	488,00
3055,17	505,00
3059,12	443,00
3063,06	516,00
3067,00	525,00
3070,94	621,00
3074,87	581,00
3078,80	539,00
3082,73	542,00
3086,65	510,00
3090,57	449,00
3094,49	485,00
3098,40	488,00
3102,31	637,00
3106,22	505,00
3110,12	487,00
3114,02	441,00
3117,92	572,00
3121,81	520,00
3125,70	411,00
3129,58	496,00
3133,47	509,00
3137,34	492,00
3141,22	608,00
3145,09	532,00
3148,96	634,00
3152,83	503,00
3156,69	461,00
3160,55	411,00
3164,40	497,00
3168,26	614,00
3172,10	628,00
3175,95	584,00
3179,79	587,00
3183,63	522,00
3187,47	537,00
3191,30	445,00
3195,13	379,00
3198,95	465,00
3202,78	541,00
3206,60	470,00
3210,41	432,00
3214,23	432,00
3218,03	560,00
3221,84	550,00
3225,64	521,00
3229,44	525,00
3233,24	529,00
3237,03	484,00
3240,82	488,00
3244,61	498,00
3248,39	443,00
3252,17	547,00
3255,95	614,00
3259,72	570,00
3263,49	645,00
3267,26	476,00
3271,03	473,00
3274,79	461,00
3278,54	473,00
3282,30	426,00
3286,05	592,00
3289,80	536,00
3293,54	536,00
3297,29	470,00
3301,02	520,00
3304,76	561,00
3308,49	545,00
3312,22	448,00
3315,95	460,00
3319,67	488,00
3323,39	513,00
3327,10	469,00
3330,82	512,00
3334,53	467,00
3338,24	414,00
3341,94	610,00
3345,64	427,00
3349,34	547,00
3353,03	535,00
3356,72	491,00
3360,41	579,00
3364,10	519,00
3367,78	448,00
3371,46	503,00
3375,13	465,00
3378,81	580,00
3382,48	506,00
3386,14	528,00
3389,81	544,00
3393,47	540,00
3397,12	494,00
3400,78	523,00
3404,43	502,00
3408,08	433,00
3411,72	522,00
3415,36	439,00
3419,00	505,00
3422,64	519,00
3426,27	522,00
3429,90	440,00
3433,53	487,00
3437,15	539,00
3440,77	423,00
3444,39	459,00
3448,00	443,00
3451,62	480,00
3455,22	432,00
3458,83	381,00
3462,43	472,00
3466,03	502,00
3469,63	471,00
3473,22	481,00
3476,81	494,00
3480,40	523,00
3483,99	442,00
3487,57	554,00
3491,15	417,00
3494,72	456,00
3498,29	463,00
3501,86	472,00
3505,43	492,00
3508,99	489,00
3512,56	473,00
3516,11	607,00
3519,67	587,00
3523,22	581,00
3526,77	538,00
3530,32	411,00
3533,86	461,00
3537,40	526,00
3540,94	501,00
3544,47	471,00
3548,00	446,00
3551,53	465,00
3555,06	441,00
3558,58	630,00
3562,10	459,00
3565,62	484,00
3569,13	449,00
3572,64	528,00
3576,15	476,00
3579,66	420,00
3583,16	410,00
3586,66	437,00
3590,16	479,00
3593,65	467,00
3597,14	418,00
3600,63	458,00
3604,11	510,00
3607,60	514,00
3611,08	467,00
3614,55	417,00
3618,03	456,00
3621,50	392,00
3624,97	412,00
3628,43	476,00
3631,90	484,00
3635,36	417,00
3638,81	452,00
3642,27	472,00
3645,72	448,00
3649,17	484,00
3652,61	450,00
3656,06	438,00
3659,50	356,00
3662,93	461,00
3666,37	406,00
3669,80	599,00
3673,23	437,00
3676,65	398,00
3680,08	467,00
3683,50	389,00
3686,92	428,00
3690,33	501,00
3693,74	375,00
3697,15	401,00
3700,56	469,00
3703,96	437,00
3707,36	385,00
3710,76	389,00
3714,16	369,00
3717,55	359,00
3720,94	582,00
3724,33	413,00
3727,71	445,00
3731,10	471,00
3734,48	463,00
3737,85	354,00
3741,23	478,00
3744,60	329,00
3747,97	376,00
3751,33	392,00
3754,69	289,00
3758,05	362,00
3761,41	395,00
3764,77	434,00
3768,12	417,00
3771,47	360,00
3774,82	428,00
3778,16	-9,00
3781,50	10,00
3784,84	1,00
3788,18	9,00
>>>>>End Processed Spectral Data<<<<<
