SpectraSuite Data File
++++++++++++++++++++++++++++++++++++
Date: Tue Mar 03 12:05:49 ICT 2026
User: user
Dark Spectrum Present: Yes
Reference Spectrum Present: No
Number of Sampled Component Spectra: 1
Spectrometers: MAYP113682
Integration Time (usec): 3000000 (MAYP113682)
Spectra Averaged: 1 (MAYP113682)
Boxcar Smoothing: 0 (MAYP113682)
Correct for Electrical Dark: No (MAYP113682)
Strobe/Lamp Enabled: No (MAYP113682)
Correct for Detector Non-linearity: No (MAYP113682)
Correct for Stray Light: No (MAYP113682)
Number of Pixels in Processed Spectrum: 2068
>>>>>Begin Processed Spectral Data<<<<<
-37534,58	6,00
-37414,56	-1,00
-37295,11	-4,00
-37176,24	-1,00
-37057,95	-92,00
-36940,22	40,00
-36823,05	7,00
-36706,45	-18,00
-36590,40	3,00
-36474,90	-14,00
-36359,95	5,00
-36245,55	-2,00
-36131,68	19,00
-36018,35	41,00
-35905,55	-51,00
-35793,29	-24,00
-35681,54	55,00
-35570,32	73,00
-35459,62	59,00
-35349,43	-11,00
-35239,75	84,00
-35130,58	97,00
-35021,91	-9,00
-34913,74	-53,00
-34806,07	-39,00
-34698,89	4,00
-34592,20	-34,00
-34486,00	8,00
-34380,28	26,00
-34275,04	6,00
-34170,27	18,00
-34065,98	-73,00
-33962,16	-14,00
-33858,81	-21,00
-33755,92	-1,00
-33653,49	26,00
-33551,52	103,00
-33450,01	-1,00
-33348,94	40,00
-33248,33	34,00
-33148,16	-48,00
-33048,43	48,00
-32949,14	86,00
-32850,29	-12,00
-32751,87	2,00
-32653,89	-64,00
-32556,33	105,00
-32459,20	-19,00
-32362,49	-59,00
-32266,19	34,00
-32170,32	-60,00
-32074,86	-6,00
-31979,82	-72,00
-31885,18	-80,00
-31790,95	4,00
-31697,12	-5,00
-31603,69	165,00
-31510,67	-127,00
-31418,04	-30,00
-31325,80	71,00
-31233,95	-67,00
-31142,49	42,00
-31051,42	-2,00
-30960,73	-6,00
-30870,43	-52,00
-30780,50	-39,00
-30690,95	38,00
-30601,77	76,00
-30512,97	-14,00
-30424,53	45,00
-30336,46	7,00
-30248,76	68,00
-30161,42	30,00
-30074,44	70,00
-29987,81	11,00
-29901,55	19,00
-29815,63	5,00
-29730,07	-2,00
-29644,86	187,00
-29560,00	99,00
-29475,48	-73,00
-29391,30	-34,00
-29307,47	-8,00
-29223,97	-105,00
-29140,81	-54,00
-29057,99	89,00
-28975,50	4,00
-28893,34	129,00
-28811,51	29,00
-28730,00	-122,00
-28648,82	101,00
-28567,97	109,00
-28487,43	-15,00
-28407,21	9,00
-28327,32	17,00
-28247,73	73,00
-28168,46	14,00
-28089,50	-45,00
-28010,85	-48,00
-27932,51	75,00
-27854,48	-143,00
-27776,75	10,00
-27699,32	45,00
-27622,19	-50,00
-27545,37	78,00
-27468,84	-14,00
-27392,60	-45,00
-27316,66	57,00
-27241,01	48,00
-27165,66	228,00
-27090,59	-29,00
-27015,81	43,00
-26941,31	134,00
-26867,10	-25,00
-26793,17	73,00
-26719,52	-15,00
-26646,15	-2,00
-26573,06	94,00
-26500,24	78,00
-26427,70	-55,00
-26355,43	-115,00
-26283,43	32,00
-26211,71	-5,00
-26140,25	40,00
-26069,06	-47,00
-25998,13	-50,00
-25927,46	54,00
-25857,06	57,00
-25786,92	-96,00
-25717,04	-6,00
-25647,42	-16,00
-25578,05	28,00
-25508,94	48,00
-25440,09	44,00
-25371,48	62,00
-25303,13	-37,00
-25235,02	-5,00
-25167,17	50,00
-25099,56	9,00
-25032,19	61,00
-24965,07	20,00
-24898,20	113,00
-24831,56	-14,00
-24765,17	-28,00
-24699,01	7,00
-24633,10	-67,00
-24567,41	44,00
-24501,97	-67,00
-24436,75	-134,00
-24371,77	173,00
-24307,03	-18,00
-24242,51	4,00
-24178,22	12,00
-24114,16	37,00
-24050,32	142,00
-23986,71	0,00
-23923,32	84,00
-23860,16	-150,00
-23797,22	31,00
-23734,50	7,00
-23672,00	80,00
-23609,71	26,00
-23547,65	35,00
-23485,80	102,00
-23424,16	38,00
-23362,74	-29,00
-23301,53	-32,00
-23240,54	-72,00
-23179,75	102,00
-23119,17	62,00
-23058,80	-66,00
-22998,64	-45,00
-22938,68	135,00
-22878,93	70,00
-22819,39	-84,00
-22760,04	-25,00
-22700,90	7,00
-22641,96	-51,00
-22583,22	-27,00
-22524,68	21,00
-22466,33	-39,00
-22408,19	-14,00
-22350,23	70,00
-22292,48	-36,00
-22234,92	-35,00
-22177,55	-67,00
-22120,37	-29,00
-22063,38	92,00
-22006,58	67,00
-21949,98	-59,00
-21893,56	-5,00
-21837,33	-198,00
-21781,28	178,00
-21725,42	-8,00
-21669,74	41,00
-21614,25	82,00
-21558,94	68,00
-21503,81	-27,00
-21448,86	-14,00
-21394,10	42,00
-21339,51	144,00
-21285,10	31,00
-21230,86	-78,00
-21176,81	-100,00
-21122,93	74,00
-21069,22	107,00
-21015,69	1,00
-20962,33	-5,00
-20909,14	-67,00
-20856,13	-9,00
-20803,28	-100,00
-20750,61	80,00
-20698,10	19,00
-20645,76	70,00
-20593,59	12,00
-20541,59	85,00
-20489,75	61,00
-20438,07	65,00
-20386,56	37,00
-20335,22	-22,00
-20284,03	-7,00
-20233,01	21,00
-20182,15	-89,00
-20131,45	88,00
-20080,91	-57,00
-20030,52	19,00
-19980,30	84,00
-19930,23	0,00
-19880,32	-27,00
-19830,56	106,00
-19780,96	16,00
-19731,52	77,00
-19682,23	-13,00
-19633,09	11,00
-19584,10	27,00
-19535,26	12,00
-19486,58	0,00
-19438,04	83,00
-19389,66	-17,00
-19341,42	6,00
-19293,33	-116,00
-19245,39	114,00
-19197,60	24,00
-19149,95	143,00
-19102,45	14,00
-19055,09	126,00
-19007,87	-83,00
-18960,80	-23,00
-18913,87	-56,00
-18867,09	-87,00
-18820,44	124,00
-18773,94	16,00
-18727,57	-135,00
-18681,35	-14,00
-18635,26	-32,00
-18589,31	22,00
-18543,50	70,00
-18497,83	42,00
-18452,29	53,00
-18406,89	7,00
-18361,63	-36,00
-18316,50	-20,00
-18271,50	10,00
-18226,63	-3,00
-18181,90	20,00
-18137,30	69,00
-18092,84	-78,00
-18048,50	-83,00
-18004,29	-98,00
-17960,22	-19,00
-17916,27	14,00
-17872,45	-65,00
-17828,76	-17,00
-17785,20	64,00
-17741,77	83,00
-17698,46	-62,00
-17655,28	40,00
-17612,22	-94,00
-17569,29	-115,00
-17526,48	-62,00
-17483,79	-79,00
-17441,23	-78,00
-17398,79	26,00
-17356,48	-116,00
-17314,28	32,00
-17272,21	-58,00
-17230,26	68,00
-17188,42	-119,00
-17146,71	8,00
-17105,12	114,00
-17063,64	-198,00
-17022,28	-130,00
-16981,04	54,00
-16939,92	113,00
-16898,91	-18,00
-16858,02	-66,00
-16817,25	97,00
-16776,59	12,00
-16736,04	-64,00
-16695,61	-11,00
-16655,29	105,00
-16615,09	-33,00
-16574,99	86,00
-16535,01	107,00
-16495,15	132,00
-16455,39	-28,00
-16415,74	43,00
-16376,21	-6,00
-16336,78	37,00
-16297,46	-11,00
-16258,26	-69,00
-16219,16	38,00
-16180,17	23,00
-16141,28	49,00
-16102,51	19,00
-16063,84	33,00
-16025,27	-56,00
-15986,82	38,00
-15948,46	119,00
-15910,22	27,00
-15872,07	-85,00
-15834,04	-25,00
-15796,10	-60,00
-15758,27	-86,00
-15720,54	110,00
-15682,91	106,00
-15645,39	-58,00
-15607,97	138,00
-15570,64	-42,00
-15533,42	-10,00
-15496,30	64,00
-15459,28	68,00
-15422,36	-5,00
-15385,54	10,00
-15348,82	23,00
-15312,19	-86,00
-15275,66	7,00
-15239,23	-40,00
-15202,90	-11,00
-15166,67	-65,00
-15130,53	-28,00
-15094,48	-59,00
-15058,54	-14,00
-15022,68	74,00
-14986,93	20,00
-14951,26	27,00
-14915,69	-73,00
-14880,22	3,00
-14844,84	-17,00
-14809,55	29,00
-14774,35	-97,00
-14739,25	-10,00
-14704,24	134,00
-14669,32	13,00
-14634,49	60,00
-14599,75	22,00
-14565,10	53,00
-14530,55	34,00
-14496,08	-67,00
-14461,70	-44,00
-14427,41	67,00
-14393,21	-71,00
-14359,10	-47,00
-14325,07	-119,00
-14291,14	69,00
-14257,29	48,00
-14223,52	4,00
-14189,85	67,00
-14156,26	77,00
-14122,76	134,00
-14089,34	97,00
-14056,01	-61,00
-14022,76	-56,00
-13989,60	-31,00
-13956,52	45,00
-13923,53	13,00
-13890,62	10,00
-13857,79	-36,00
-13825,05	70,00
-13792,39	107,00
-13759,81	123,00
-13727,31	171,00
-13694,90	30,00
-13662,57	-21,00
-13630,31	-24,00
-13598,14	10,00
-13566,05	-16,00
-13534,05	32,00
-13502,12	20,00
-13470,27	35,00
-13438,50	-16,00
-13406,80	7,00
-13375,19	-5,00
-13343,66	44,00
-13312,20	137,00
-13280,83	58,00
-13249,53	-4,00
-13218,30	62,00
-13187,16	52,00
-13156,09	-35,00
-13125,10	-136,00
-13094,18	-135,00
-13063,34	83,00
-13032,58	-55,00
-13001,89	153,00
-12971,28	-80,00
-12940,74	-24,00
-12910,27	19,00
-12879,88	-4,00
-12849,57	-53,00
-12819,33	-20,00
-12789,16	-20,00
-12759,06	35,00
-12729,04	52,00
-12699,09	1626,00
-12669,21	43,00
-12639,41	-67,00
-12609,68	-6,00
-12580,02	-41,00
-12550,43	-10,00
-12520,91	27,00
-12491,46	23,00
-12462,08	26,00
-12432,77	-44,00
-12403,54	-70,00
-12374,37	-2,00
-12345,27	-34,00
-12316,24	55,00
-12287,29	-19,00
-12258,40	-12,00
-12229,57	-16,00
-12200,82	-51,00
-12172,14	33,00
-12143,52	-11,00
-12114,97	60,00
-12086,49	-24,00
-12058,07	63,00
-12029,73	83,00
-12001,44	-8,00
-11973,23	-7,00
-11945,08	-60,00
-11917,00	-46,00
-11888,98	-107,00
-11861,03	-7,00
-11833,15	65,00
-11805,32	61,00
-11777,57	-110,00
-11749,88	47,00
-11722,25	153,00
-11694,69	-46,00
-11667,19	26,00
-11639,75	-115,00
-11612,38	-60,00
-11585,07	-21,00
-11557,83	72,00
-11530,65	-18,00
-11503,53	-11,00
-11476,47	-32,00
-11449,48	-68,00
-11422,54	-8,00
-11395,67	80,00
-11368,86	91,00
-11342,11	-7,00
-11315,43	79,00
-11288,80	-17,00
-11262,23	-140,00
-11235,73	-13,00
-11209,28	12,00
-11182,90	2,00
-11156,57	-91,00
-11130,31	-59,00
-11104,10	29,00
-11077,96	10,00
-11051,87	-7,00
-11025,84	-8,00
-10999,87	84,00
-10973,96	123,00
-10948,11	11,00
-10922,31	-65,00
-10896,58	-85,00
-10870,90	-72,00
-10845,28	-37,00
-10819,71	77,00
-10794,20	-17,00
-10768,75	72,00
-10743,36	-33,00
-10718,02	131,00
-10692,74	0,00
-10667,52	37,00
-10642,35	135,00
-10617,24	85,00
-10592,18	93,00
-10567,18	125,00
-10542,23	65,00
-10517,34	140,00
-10492,51	120,00
-10467,72	-16,00
-10443,00	78,00
-10418,32	81,00
-10393,70	101,00
-10369,14	96,00
-10344,63	106,00
-10320,17	120,00
-10295,77	141,00
-10271,42	208,00
-10247,12	138,00
-10222,88	123,00
-10198,68	125,00
-10174,54	189,00
-10150,46	234,00
-10126,42	302,00
-10102,44	264,00
-10078,51	244,00
-10054,63	384,00
-10030,80	286,00
-10007,03	319,00
-9983,30	372,00
-9959,63	349,00
-9936,01	482,00
-9912,44	526,00
-9888,92	516,00
-9865,44	512,00
-9842,02	569,00
-9818,65	596,00
-9795,33	558,00
-9772,06	557,00
-9748,84	596,00
-9725,67	678,00
-9702,55	715,00
-9679,47	963,00
-9656,45	1068,00
-9633,47	1104,00
-9610,55	1093,00
-9587,67	1201,00
-9564,84	1183,00
-9542,06	1345,00
-9519,32	1479,00
-9496,64	1674,00
-9474,00	1712,00
-9451,41	1828,00
-9428,87	1776,00
-9406,37	1846,00
-9383,92	1617,00
-9361,52	1588,00
-9339,17	1549,00
-9316,86	1666,00
-9294,60	2004,00
-9272,38	2077,00
-9250,21	2243,00
-9228,09	2276,00
-9206,01	2160,00
-9183,98	1870,00
-9162,00	1848,00
-9140,06	1553,00
-9118,16	1592,00
-9096,31	1612,00
-9074,51	1679,00
-9052,75	1698,00
-9031,04	1658,00
-9009,37	1377,00
-8987,74	1317,00
-8966,16	1105,00
-8944,63	1105,00
-8923,14	989,00
-8901,69	971,00
-8880,29	1218,00
-8858,93	1411,00
-8837,61	1400,00
-8816,34	1641,00
-8795,11	1629,00
-8773,92	1363,00
-8752,78	1277,00
-8731,68	1290,00
-8710,62	1277,00
-8689,61	1388,00
-8668,63	1526,00
-8647,70	1448,00
-8626,82	1525,00
-8605,97	1544,00
-8585,17	1311,00
-8564,41	1223,00
-8543,69	1134,00
-8523,01	1067,00
-8502,37	1059,00
-8481,78	1059,00
-8461,23	1274,00
-8440,71	1299,00
-8420,24	1334,00
-8399,81	1528,00
-8379,42	1444,00
-8359,08	1309,00
-8338,77	1056,00
-8318,50	1172,00
-8298,27	957,00
-8278,09	1015,00
-8257,94	1074,00
-8237,83	1204,00
-8217,76	1382,00
-8197,74	1311,00
-8177,75	1356,00
-8157,80	1205,00
-8137,89	1044,00
-8118,02	1022,00
-8098,19	1168,00
-8078,40	983,00
-8058,65	1235,00
-8038,93	1009,00
-8019,26	1345,00
-7999,62	1198,00
-7980,02	1073,00
-7960,46	1015,00
-7940,94	1086,00
-7921,46	1071,00
-7902,01	903,00
-7882,60	884,00
-7863,23	1158,00
-7843,90	1196,00
-7824,61	1286,00
-7805,35	1207,00
-7786,13	1222,00
-7766,95	1175,00
-7747,80	1048,00
-7728,69	1147,00
-7709,62	988,00
-7690,59	1145,00
-7671,59	1237,00
-7652,63	1386,00
-7633,70	1313,00
-7614,81	1153,00
-7595,96	1064,00
-7577,15	1024,00
-7558,37	1088,00
-7539,62	1031,00
-7520,91	1037,00
-7502,24	1215,00
-7483,60	1310,00
-7465,00	1097,00
-7446,44	942,00
-7427,91	857,00
-7409,41	798,00
-7390,95	740,00
-7372,53	765,00
-7354,14	792,00
-7335,78	837,00
-7317,46	765,00
-7299,18	777,00
-7280,92	996,00
-7262,71	1142,00
-7244,52	1251,00
-7226,38	1296,00
-7208,26	1151,00
-7190,18	1133,00
-7172,14	956,00
-7154,12	1076,00
-7136,15	857,00
-7118,20	1197,00
-7100,29	1204,00
-7082,41	1221,00
-7064,57	1111,00
-7046,76	1010,00
-7028,98	910,00
-7011,24	763,00
-6993,53	685,00
-6975,85	571,00
-6958,20	581,00
-6940,59	498,00
-6923,01	559,00
-6905,46	633,00
-6887,94	860,00
-6870,46	922,00
-6853,01	1095,00
-6835,59	1144,00
-6818,21	900,00
-6800,85	718,00
-6783,53	495,00
-6766,24	547,00
-6748,98	512,00
-6731,76	259,00
-6714,56	449,00
-6697,40	506,00
-6680,26	368,00
-6663,16	625,00
-6646,09	654,00
-6629,05	747,00
-6612,05	860,00
-6595,07	879,00
-6578,13	850,00
-6561,21	822,00
-6544,33	384,00
-6527,47	438,00
-6510,65	373,00
-6493,86	480,00
-6477,10	348,00
-6460,36	338,00
-6443,66	430,00
-6426,99	352,00
-6410,35	313,00
-6393,74	583,00
-6377,16	542,00
-6360,61	459,00
-6344,09	659,00
-6327,59	713,00
-6311,13	583,00
-6294,70	568,00
-6278,29	601,00
-6261,92	919,00
-6245,58	856,00
-6229,26	884,00
-6212,97	666,00
-6196,72	672,00
-6180,49	469,00
-6164,29	162,00
-6148,12	5,00
-6131,98	215,00
-6115,86	124,00
-6099,78	152,00
-6083,72	236,00
-6067,69	252,00
-6051,69	166,00
-6035,72	184,00
-6019,78	274,00
-6003,87	453,00
-5987,98	457,00
-5972,12	722,00
-5956,29	527,00
-5940,49	440,00
-5924,71	534,00
-5908,96	319,00
-5893,24	126,00
-5877,55	4,00
-5861,89	196,00
-5846,25	276,00
-5830,64	325,00
-5815,05	348,00
-5799,50	273,00
-5783,97	249,00
-5768,47	324,00
-5752,99	353,00
-5737,55	671,00
-5722,12	540,00
-5706,73	528,00
-5691,36	382,00
-5676,02	383,00
-5660,71	103,00
-5645,42	220,00
-5630,16	229,00
-5614,92	280,00
-5599,71	399,00
-5584,53	488,00
-5569,37	433,00
-5554,24	379,00
-5539,14	237,00
-5524,06	320,00
-5509,01	320,00
-5493,98	380,00
-5478,98	396,00
-5464,00	310,00
-5449,05	364,00
-5434,13	224,00
-5419,23	364,00
-5404,36	206,00
-5389,51	389,00
-5374,69	501,00
-5359,89	656,00
-5345,12	621,00
-5330,37	554,00
-5315,65	483,00
-5300,95	413,00
-5286,28	386,00
-5271,63	335,00
-5257,01	257,00
-5242,41	288,00
-5227,84	229,00
-5213,29	234,00
-5198,76	39,00
-5184,26	112,00
-5169,79	292,00
-5155,33	236,00
-5140,91	369,00
-5126,51	463,00
-5112,13	464,00
-5097,77	247,00
-5083,44	387,00
-5069,13	142,00
-5054,85	189,00
-5040,59	332,00
-5026,36	388,00
-5012,15	355,00
-4997,96	289,00
-4983,80	271,00
-4969,66	244,00
-4955,54	221,00
-4941,44	272,00
-4927,37	430,00
-4913,33	720,00
-4899,30	588,00
-4885,30	637,00
-4871,33	448,00
-4857,37	198,00
-4843,44	212,00
-4829,53	218,00
-4815,65	193,00
-4801,79	394,00
-4787,95	333,00
-4774,13	204,00
-4760,34	177,00
-4746,56	154,00
-4732,82	96,00
-4719,09	232,00
-4705,38	434,00
-4691,70	542,00
-4678,04	472,00
-4664,41	454,00
-4650,79	185,00
-4637,20	70,00
-4623,63	181,00
-4610,08	352,00
-4596,56	329,00
-4583,05	370,00
-4569,57	291,00
-4556,11	199,00
-4542,67	209,00
-4529,25	104,00
-4515,86	325,00
-4502,49	414,00
-4489,13	416,00
-4475,80	357,00
-4462,49	291,00
-4449,21	336,00
-4435,94	143,00
-4422,70	226,00
-4409,47	332,00
-4396,27	218,00
-4383,09	295,00
-4369,93	136,00
-4356,79	80,00
-4343,67	34,00
-4330,58	238,00
-4317,50	249,00
-4304,45	139,00
-4291,41	242,00
-4278,40	103,00
-4265,41	146,00
-4252,44	147,00
-4239,49	229,00
-4226,55	243,00
-4213,65	204,00
-4200,76	38,00
-4187,89	114,00
-4175,04	3,00
-4162,21	165,00
-4149,40	10,00
-4136,61	210,00
-4123,85	14,00
-4111,10	105,00
-4098,37	8,00
-4085,66	121,00
-4072,98	-69,00
-4060,31	79,00
-4047,66	47,00
-4035,04	-8,00
-4022,43	13,00
-4009,84	245,00
-3997,27	75,00
-3984,72	45,00
-3972,19	8,00
-3959,69	52,00
-3947,20	-32,00
-3934,73	100,00
-3922,27	-50,00
-3909,84	-39,00
-3897,43	99,00
-3885,04	-71,00
-3872,67	43,00
-3860,31	32,00
-3847,98	37,00
-3835,66	65,00
-3823,36	-85,00
-3811,09	45,00
-3798,83	150,00
-3786,59	78,00
-3774,37	105,00
-3762,17	-158,00
-3749,98	95,00
-3737,82	61,00
-3725,67	26,00
-3713,55	22,00
-3701,44	-68,00
-3689,35	-1,00
-3677,28	-69,00
-3665,22	36,00
-3653,19	57,00
-3641,17	-80,00
-3629,18	-23,00
-3617,20	-22,00
-3605,24	32,00
-3593,30	34,00
-3581,37	62,00
-3569,47	-54,00
-3557,58	28,00
-3545,71	76,00
-3533,86	-100,00
-3522,02	-57,00
-3510,21	32,00
-3498,41	-3,00
-3486,63	-146,00
-3474,87	93,00
-3463,12	-35,00
-3451,40	0,00
-3439,69	101,00
-3428,00	102,00
-3416,33	39,00
-3404,67	35,00
-3393,03	-71,00
-3381,41	151,00
-3369,81	56,00
-3358,22	78,00
-3346,66	-93,00
-3335,10	-33,00
-3323,57	-87,00
-3312,06	-77,00
-3300,56	2,00
-3289,08	-55,00
-3277,61	24,00
-3266,16	81,00
-3254,73	13,00
-3243,32	102,00
-3231,92	48,00
-3220,55	-62,00
-3209,18	114,00
-3197,84	45,00
-3186,51	73,00
-3175,20	-22,00
-3163,90	-69,00
-3152,63	-79,00
-3141,36	65,00
-3130,12	-22,00
-3118,89	-136,00
-3107,68	46,00
-3096,49	179,00
-3085,31	73,00
-3074,15	20,00
-3063,00	-85,00
-3051,87	88,00
-3040,76	-32,00
-3029,67	27,00
-3018,59	-40,00
-3007,52	-82,00
-2996,48	-17,00
-2985,44	114,00
-2974,43	-5,00
-2963,43	-5,00
-2952,45	-38,00
-2941,48	114,00
-2930,53	9,00
-2919,60	-120,00
-2908,68	65,00
-2897,78	-40,00
-2886,89	-11,00
-2876,02	102,00
-2865,17	88,00
-2854,33	-106,00
-2843,50	23,00
-2832,70	16,00
-2821,90	-85,00
-2811,13	-109,00
-2800,37	40,00
-2789,62	6,00
-2778,89	51,00
-2768,18	-15,00
-2757,48	64,00
-2746,80	44,00
-2736,13	-64,00
-2725,48	-31,00
-2714,84	-20,00
-2704,22	131,00
-2693,61	44,00
-2683,02	52,00
-2672,45	-40,00
-2661,89	-15,00
-2651,34	-90,00
-2640,81	73,00
-2630,30	5,00
-2619,80	87,00
-2609,31	-96,00
-2598,84	-25,00
-2588,39	-164,00
-2577,95	-152,00
-2567,52	7,00
-2557,11	-78,00
-2546,71	-37,00
-2536,33	-145,00
-2525,97	89,00
-2515,62	87,00
-2505,28	76,00
-2494,96	64,00
-2484,65	-50,00
-2474,36	-58,00
-2464,08	5,00
-2453,82	119,00
-2443,57	17,00
-2433,33	123,00
-2423,11	96,00
-2412,91	-4,00
-2402,72	-41,00
-2392,54	-100,00
-2382,38	86,00
-2372,23	54,00
-2362,09	-5170,00
-2351,97	19,00
-2341,87	32,00
-2331,78	-110,00
-2321,70	-12,00
-2311,64	70,00
-2301,59	-3,00
-2291,55	-63,00
-2281,53	55,00
-2271,53	18,00
-2261,53	-80,00
-2251,55	118,00
-2241,59	-91,00
-2231,64	-22,00
-2221,70	-25,00
-2211,78	-112,00
-2201,87	-66,00
-2191,97	14,00
-2182,09	-20,00
-2172,22	-42,00
-2162,37	86,00
-2152,53	-71,00
-2142,70	80,00
-2132,89	-9,00
-2123,09	-54,00
-2113,30	52,00
-2103,53	-32,00
-2093,77	9,00
-2084,02	-74,00
-2074,29	201,00
-2064,57	73,00
-2054,86	122,00
-2045,17	11,00
-2035,49	31,00
-2025,82	48,00
-2016,17	72,00
-2006,53	37,00
-1996,91	59,00
-1987,29	36,00
-1977,69	-9,00
-1968,11	-29,00
-1958,53	27,00
-1948,97	-92,00
-1939,42	19,00
-1929,89	8,00
-1920,37	-3,00
-1910,86	9,00
-1901,36	-10,00
-1891,88	-33,00
-1882,41	-64,00
-1872,95	-35,00
-1863,51	-30,00
-1854,08	-26,00
-1844,66	100,00
-1835,26	-35,00
-1825,86	8,00
-1816,48	32,00
-1807,11	109,00
-1797,76	44,00
-1788,42	78,00
-1779,09	62,00
-1769,77	-146,00
-1760,47	-12,00
-1751,17	-70,00
-1741,89	-76,00
-1732,63	-47,00
-1723,37	-23,00
-1714,13	48,00
-1704,90	71,00
-1695,68	115,00
-1686,48	-6,00
-1677,29	25,00
-1668,11	17,00
-1658,94	-70,00
-1649,78	-97,00
-1640,64	-44,00
-1631,51	-21,00
-1622,39	-2,00
-1613,28	-79,00
-1604,19	20,00
-1595,10	13,00
-1586,03	17,00
-1576,97	-89,00
-1567,93	-17,00
-1558,89	-31,00
-1549,87	-50,00
-1540,86	69,00
-1531,86	-41,00
-1522,87	-113,00
-1513,90	-64,00
-1504,93	42,00
-1495,98	100,00
-1487,04	9,00
-1478,12	4,00
-1469,20	-17,00
-1460,30	7,00
-1451,40	62,00
-1442,52	134,00
-1433,65	19,00
-1424,80	22,00
-1415,95	97,00
-1407,12	-12,00
-1398,30	0,00
-1389,48	-70,00
-1380,69	48,00
-1371,90	-53,00
-1363,12	-61,00
-1354,36	-52,00
-1345,60	110,00
-1336,86	-52,00
-1328,13	91,00
-1319,41	8,00
-1310,70	-56,00
-1302,01	-21,00
-1293,32	57,00
-1284,65	-18,00
-1275,99	32,00
-1267,33	90,00
-1258,69	63,00
-1250,06	-59,00
-1241,45	62,00
-1232,84	35,00
-1224,25	111,00
-1215,66	7,00
-1207,09	-117,00
-1198,53	59,00
-1189,97	-42,00
-1181,43	10,00
-1172,91	-52,00
-1164,39	83,00
-1155,88	10,00
-1147,38	33,00
-1138,90	-27,00
-1130,43	-3,00
-1121,96	4,00
-1113,51	39,00
-1105,07	92,00
-1096,64	54,00
-1088,22	7,00
-1079,81	-39,00
-1071,41	-23,00
-1063,02	143,00
-1054,65	9,00
-1046,28	-33,00
-1037,92	-50,00
-1029,58	43,00
-1021,24	-44,00
-1012,92	24,00
-1004,61	-104,00
-996,30	-49,00
-988,01	-55,00
-979,73	1,00
-971,46	-104,00
-963,20	-33,00
-954,95	0,00
-946,71	9,00
-938,48	105,00
-930,26	-128,00
-922,06	8,00
-913,86	51,00
-905,67	-44,00
-897,49	8,00
-889,33	44,00
-881,17	14,00
-873,02	-31,00
-864,89	87,00
-856,76	51,00
-848,65	72,00
-840,54	-186,00
-832,45	52,00
-824,36	-110,00
-816,29	-60,00
-808,22	-33,00
-800,17	31,00
-792,12	-41,00
-784,09	55,00
-776,06	-101,00
-768,05	-3,00
-760,04	-21,00
-752,05	53,00
-744,07	57,00
-736,09	40,00
-728,13	-52,00
-720,17	41,00
-712,23	-67,00
-704,29	-27,00
-696,37	-10,00
-688,45	15,00
-680,55	106,00
-672,65	25,00
-664,77	43,00
-656,89	80,00
-649,03	71,00
-641,17	-8,00
-633,32	68,00
-625,49	78,00
-617,66	31,00
-609,84	-42,00
-602,03	-110,00
-594,23	84,00
-586,45	111,00
-578,67	-30,00
-570,90	-34,00
-563,14	-34,00
-555,39	68,00
-547,65	-55,00
-539,91	22,00
-532,19	39,00
-524,48	-63,00
-516,78	-35,00
-509,08	8,00
-501,40	60,00
-493,72	-73,00
-486,06	14,00
-478,40	-67,00
-470,76	107,00
-463,12	76,00
-455,49	-29,00
-447,87	76,00
-440,26	-7,00
-432,66	48,00
-425,07	5,00
-417,49	-24,00
-409,92	-71,00
-402,35	-17,00
-394,80	-12,00
-387,25	2,00
-379,72	-92,00
-372,19	119,00
-364,67	128,00
-357,17	72,00
-349,67	123,00
-342,18	91,00
-334,69	48,00
-327,22	171,00
-319,76	38,00
-312,30	-4,00
-304,86	-13,00
-297,42	53,00
-290,00	23,00
-282,58	41,00
-275,17	18,00
-267,77	26,00
-260,37	65,00
-252,99	-17,00
-245,62	194,00
-238,25	257,00
-230,90	110,00
-223,55	27,00
-216,21	114,00
-208,88	251,00
-201,56	298,00
-194,25	288,00
-186,94	312,00
-179,65	273,00
-172,36	373,00
-165,08	357,00
-157,81	300,00
-150,55	432,00
-143,30	352,00
-136,06	514,00
-128,82	449,00
-121,60	466,00
-114,38	571,00
-107,17	672,00
-99,97	958,00
-92,78	968,00
-85,60	963,00
-78,42	1194,00
-71,25	1380,00
-64,10	1528,00
-56,95	1919,00
-49,81	2414,00
-42,67	2789,00
-35,55	3700,00
-28,43	4913,00
-21,33	8361,00
-14,23	29382,00
-7,14	54235,00
-0,05	53890,00
7,02	53525,00
14,09	53899,00
21,14	21989,00
28,19	9192,00
35,23	6067,00
42,27	4440,00
49,29	3636,00
56,31	3194,00
63,32	2647,00
70,32	1956,00
77,31	1719,00
84,29	1634,00
91,27	1364,00
98,23	1216,00
105,19	1293,00
112,14	1368,00
119,09	1981,00
126,02	3042,00
132,95	3857,00
139,87	3635,00
146,78	3774,00
153,68	3501,00
160,58	3596,00
167,46	3654,00
174,34	3455,00
181,21	3479,00
188,08	3339,00
194,93	3450,00
201,78	3288,00
208,62	3309,00
215,45	3469,00
222,27	3294,00
229,09	3354,00
235,90	3432,00
242,70	3287,00
249,49	3044,00
256,27	3106,00
263,05	3101,00
269,82	3266,00
276,58	3267,00
283,33	3102,00
290,08	3186,00
296,82	3043,00
303,55	3094,00
310,27	2980,00
316,98	2985,00
323,69	2927,00
330,39	3016,00
337,08	2913,00
343,76	2850,00
350,44	2894,00
357,11	2851,00
363,77	2887,00
370,42	2759,00
377,07	2719,00
383,71	2823,00
390,34	2690,00
396,96	2907,00
403,58	2818,00
410,19	2830,00
416,79	2871,00
423,38	2794,00
429,97	2643,00
436,55	2759,00
443,12	2663,00
449,68	2607,00
456,24	2589,00
462,79	2585,00
469,33	2532,00
475,86	2509,00
482,39	2411,00
488,91	2559,00
495,42	2536,00
501,93	2431,00
508,42	2261,00
514,91	2272,00
521,40	2362,00
527,87	2278,00
534,34	2455,00
540,80	2315,00
547,25	2340,00
553,70	2306,00
560,14	2359,00
566,57	2227,00
573,00	2281,00
579,41	2153,00
585,83	2249,00
592,23	2060,00
598,62	2112,00
605,01	2106,00
611,40	2111,00
617,77	2213,00
624,14	2115,00
630,50	2063,00
636,85	2122,00
643,20	1970,00
649,54	1972,00
655,87	2014,00
662,20	1939,00
668,52	2101,00
674,83	1943,00
681,13	2071,00
687,43	2070,00
693,72	1853,00
700,00	1942,00
706,28	1907,00
712,55	1993,00
718,81	1951,00
725,07	1857,00
731,32	1861,00
737,56	1895,00
743,79	1934,00
750,02	1876,00
756,24	1757,00
762,46	1911,00
768,67	1816,00
774,87	1890,00
781,06	1794,00
787,25	1785,00
793,43	1770,00
799,60	1796,00
805,77	1771,00
811,93	1944,00
818,08	1771,00
824,23	1896,00
830,37	1859,00
836,50	1697,00
842,63	1704,00
848,75	1680,00
854,87	1610,00
860,97	1751,00
867,07	1747,00
873,17	1732,00
879,25	1688,00
885,33	1719,00
891,41	1731,00
897,47	1714,00
903,53	1608,00
909,59	1552,00
915,63	1647,00
921,67	1662,00
927,71	1532,00
933,74	1634,00
939,76	1529,00
945,77	1501,00
951,78	1436,00
957,78	1607,00
963,78	1572,00
969,77	1539,00
975,75	1652,00
981,72	1532,00
987,69	1165,00
993,66	1439,00
999,61	1500,00
1005,56	1453,00
1011,51	1619,00
1017,44	1540,00
1023,37	1525,00
1029,30	1608,00
1035,22	1557,00
1041,13	1640,00
1047,03	1722,00
1052,93	1815,00
1058,83	1992,00
1064,71	2011,00
1070,59	1722,00
1076,47	1695,00
1082,33	1621,00
1088,20	1535,00
1094,05	1531,00
1099,90	1533,00
1105,74	1635,00
1111,58	1465,00
1117,41	1478,00
1123,23	1786,00
1129,05	1873,00
1134,86	1814,00
1140,67	1597,00
1146,47	1388,00
1152,26	1541,00
1158,05	1469,00
1163,83	1426,00
1169,60	1462,00
1175,37	1460,00
1181,13	1417,00
1186,89	1300,00
1192,64	1400,00
1198,38	1457,00
1204,12	1455,00
1209,85	1390,00
1215,58	1369,00
1221,30	1406,00
1227,02	1311,00
1232,72	1351,00
1238,43	1374,00
1244,12	1404,00
1249,81	1331,00
1255,50	1307,00
1261,17	1450,00
1266,85	1358,00
1272,51	1673,00
1278,17	1410,00
1283,83	1590,00
1289,47	1861,00
1295,12	2280,00
1300,75	2156,00
1306,38	1860,00
1312,01	1801,00
1317,63	1594,00
1323,24	1712,00
1328,85	1530,00
1334,45	1531,00
1340,04	1449,00
1345,63	1492,00
1351,22	1482,00
1356,80	1514,00
1362,37	1578,00
1367,93	1465,00
1373,49	1601,00
1379,05	1503,00
1384,60	1570,00
1390,14	1550,00
1395,68	1359,00
1401,21	1516,00
1406,74	1438,00
1412,26	1682,00
1417,77	1776,00
1423,28	1766,00
1428,78	1967,00
1434,28	2062,00
1439,77	2239,00
1445,26	2400,00
1450,74	2139,00
1456,22	1961,00
1461,68	2038,00
1467,15	1875,00
1472,61	1745,00
1478,06	1609,00
1483,51	1491,00
1488,95	1461,00
1494,38	1290,00
1499,81	1362,00
1505,24	1230,00
1510,65	1315,00
1516,07	1385,00
1521,48	1288,00
1526,88	1216,00
1532,27	1263,00
1537,67	1232,00
1543,05	1359,00
1548,43	1284,00
1553,81	1173,00
1559,18	1152,00
1564,54	1197,00
1569,90	1249,00
1575,25	1239,00
1580,60	1111,00
1585,94	1309,00
1591,28	1222,00
1596,61	1260,00
1601,93	1190,00
1607,25	1144,00
1612,57	1120,00
1617,88	1123,00
1623,18	1122,00
1628,48	1089,00
1633,77	1088,00
1639,06	1233,00
1644,34	1095,00
1649,62	1060,00
1654,89	1108,00
1660,16	945,00
1665,42	1090,00
1670,67	980,00
1675,92	1089,00
1681,17	1034,00
1686,41	1032,00
1691,64	980,00
1696,87	996,00
1702,10	1006,00
1707,32	969,00
1712,53	1066,00
1717,74	1007,00
1722,94	1036,00
1728,14	889,00
1733,33	1019,00
1738,52	768,00
1743,70	972,00
1748,88	944,00
1754,05	870,00
1759,22	941,00
1764,38	912,00
1769,53	954,00
1774,69	995,00
1779,83	847,00
1784,97	872,00
1790,11	875,00
1795,24	866,00
1800,36	767,00
1805,48	808,00
1810,60	870,00
1815,71	880,00
1820,82	760,00
1825,92	832,00
1831,01	848,00
1836,10	890,00
1841,19	719,00
1846,26	803,00
1851,34	801,00
1856,41	833,00
1861,47	696,00
1866,53	831,00
1871,59	747,00
1876,64	772,00
1881,68	827,00
1886,72	695,00
1891,76	799,00
1896,79	832,00
1901,81	749,00
1906,83	670,00
1911,85	783,00
1916,86	650,00
1921,86	659,00
1926,86	660,00
1931,86	638,00
1936,85	515,00
1941,83	751,00
1946,81	741,00
1951,79	668,00
1956,76	614,00
1961,72	689,00
1966,68	558,00
1971,64	653,00
1976,59	522,00
1981,54	572,00
1986,48	637,00
1991,42	709,00
1996,35	513,00
2001,27	568,00
2006,20	606,00
2011,11	503,00
2016,03	654,00
2020,93	549,00
2025,84	542,00
2030,73	561,00
2035,63	542,00
2040,52	559,00
2045,40	664,00
2050,28	497,00
2055,15	591,00
2060,02	536,00
2064,89	595,00
2069,75	516,00
2074,60	646,00
2079,46	533,00
2084,30	472,00
2089,14	570,00
2093,98	616,00
2098,81	581,00
2103,64	493,00
2108,46	491,00
2113,28	577,00
2118,09	496,00
2122,90	552,00
2127,70	553,00
2132,50	528,00
2137,30	447,00
2142,09	649,00
2146,87	310,00
2151,66	588,00
2156,43	574,00
2161,20	566,00
2165,97	366,00
2170,73	462,00
2175,49	623,00
2180,24	447,00
2184,99	458,00
2189,74	521,00
2194,48	479,00
2199,21	422,00
2203,94	417,00
2208,67	479,00
2213,39	406,00
2218,11	472,00
2222,82	518,00
2227,53	537,00
2232,23	453,00
2236,93	390,00
2241,63	454,00
2246,32	385,00
2251,00	398,00
2255,68	371,00
2260,36	377,00
2265,03	483,00
2269,70	380,00
2274,36	337,00
2279,02	365,00
2283,68	347,00
2288,33	356,00
2292,97	240,00
2297,61	471,00
2302,25	332,00
2306,88	470,00
2311,51	406,00
2316,14	305,00
2320,75	361,00
2325,37	363,00
2329,98	276,00
2334,59	322,00
2339,19	487,00
2343,79	327,00
2348,38	381,00
2352,97	355,00
2357,55	347,00
2362,13	363,00
2366,71	305,00
2371,28	510,00
2375,85	307,00
2380,41	240,00
2384,97	312,00
2389,52	356,00
2394,07	307,00
2398,62	296,00
2403,16	372,00
2407,70	334,00
2412,23	207,00
2416,76	400,00
2421,29	386,00
2425,81	250,00
2430,32	278,00
2434,84	206,00
2439,34	362,00
2443,85	472,00
2448,35	242,00
2452,84	253,00
2457,33	371,00
2461,82	250,00
2466,30	186,00
2470,78	284,00
2475,25	288,00
2479,72	313,00
2484,19	171,00
2488,65	280,00
2493,11	277,00
2497,56	243,00
2502,01	301,00
2506,46	276,00
2510,90	281,00
2515,34	258,00
2519,77	252,00
2524,20	382,00
2528,62	222,00
2533,04	273,00
2537,46	178,00
2541,87	218,00
2546,28	204,00
2550,68	247,00
2555,08	193,00
2559,48	260,00
2563,87	212,00
2568,26	304,00
2572,64	340,00
2577,02	183,00
2581,40	205,00
2585,77	159,00
2590,14	209,00
2594,50	253,00
2598,86	290,00
2603,22	275,00
2607,57	170,00
2611,92	122,00
2616,26	227,00
2620,60	161,00
2624,94	215,00
2629,27	181,00
2633,60	255,00
2637,92	246,00
2642,24	279,00
2646,56	264,00
2650,87	224,00
2655,18	338,00
2659,48	174,00
2663,78	272,00
2668,08	327,00
2672,37	214,00
2676,66	113,00
2680,95	345,00
2685,23	251,00
2689,50	246,00
2693,78	385,00
2698,05	248,00
2702,31	409,00
2706,57	156,00
2710,83	315,00
2715,08	242,00
2719,33	208,00
2723,58	382,00
2727,82	239,00
2732,06	351,00
2736,29	425,00
2740,53	288,00
2744,75	306,00
2748,97	251,00
2753,19	362,00
2757,41	181,00
2761,62	267,00
2765,83	340,00
2770,03	192,00
2774,23	253,00
2778,43	313,00
2782,62	220,00
2786,81	314,00
2791,00	179,00
2795,18	268,00
2799,35	373,00
2803,53	262,00
2807,70	167,00
2811,86	376,00
2816,03	389,00
2820,19	370,00
2824,34	538,00
2828,49	612,00
2832,64	527,00
2836,78	657,00
2840,92	835,00
2845,06	1027,00
2849,19	1145,00
2853,32	1306,00
2857,45	1150,00
2861,57	1131,00
2865,69	1199,00
2869,80	1024,00
2873,91	1099,00
2878,02	1317,00
2882,12	1460,00
2886,22	1445,00
2890,32	1326,00
2894,41	1164,00
2898,50	1084,00
2902,58	992,00
2906,67	909,00
2910,74	869,00
2914,82	770,00
2918,89	752,00
2922,96	827,00
2927,02	659,00
2931,08	668,00
2935,13	668,00
2939,19	573,00
2943,24	576,00
2947,28	431,00
2951,32	397,00
2955,36	460,00
2959,40	305,00
2963,43	448,00
2967,46	354,00
2971,48	266,00
2975,50	292,00
2979,52	328,00
2983,53	338,00
2987,54	209,00
2991,55	276,00
2995,55	247,00
2999,55	190,00
3003,54	138,00
3007,54	-34,00
3011,53	304,00
3015,51	162,00
3019,49	96,00
3023,47	106,00
3027,45	142,00
3031,42	199,00
3035,39	135,00
3039,35	198,00
3043,31	32,00
3047,27	239,00
3051,22	100,00
3055,17	84,00
3059,12	170,00
3063,06	82,00
3067,00	61,00
3070,94	204,00
3074,87	129,00
3078,80	82,00
3082,73	164,00
3086,65	147,00
3090,57	25,00
3094,49	168,00
3098,40	89,00
3102,31	134,00
3106,22	96,00
3110,12	102,00
3114,02	68,00
3117,92	288,00
3121,81	30,00
3125,70	-49,00
3129,58	-39,00
3133,47	82,00
3137,34	182,00
3141,22	32,00
3145,09	129,00
3148,96	-6,00
3152,83	70,00
3156,69	40,00
3160,55	136,00
3164,40	123,00
3168,26	56,00
3172,10	62,00
3175,95	41,00
3179,79	91,00
3183,63	88,00
3187,47	-12,00
3191,30	128,00
3195,13	74,00
3198,95	41,00
3202,78	-19,00
3206,60	51,00
3210,41	69,00
3214,23	190,00
3218,03	110,00
3221,84	17,00
3225,64	127,00
3229,44	-49,00
3233,24	148,00
3237,03	43,00
3240,82	103,00
3244,61	-6,00
3248,39	-42,00
3252,17	89,00
3255,95	131,00
3259,72	112,00
3263,49	112,00
3267,26	166,00
3271,03	16,00
3274,79	-22,00
3278,54	73,00
3282,30	64,00
3286,05	-37,00
3289,80	66,00
3293,54	78,00
3297,29	49,00
3301,02	52,00
3304,76	19,00
3308,49	92,00
3312,22	-33,00
3315,95	28,00
3319,67	-31,00
3323,39	-42,00
3327,10	111,00
3330,82	116,00
3334,53	121,00
3338,24	-33,00
3341,94	30,00
3345,64	44,00
3349,34	49,00
3353,03	155,00
3356,72	-54,00
3360,41	106,00
3364,10	-21,00
3367,78	51,00
3371,46	69,00
3375,13	166,00
3378,81	62,00
3382,48	119,00
3386,14	165,00
3389,81	-74,00
3393,47	17,00
3397,12	-38,00
3400,78	107,00
3404,43	191,00
3408,08	9,00
3411,72	91,00
3415,36	214,00
3419,00	-28,00
3422,64	133,00
3426,27	120,00
3429,90	95,00
3433,53	86,00
3437,15	-83,00
3440,77	117,00
3444,39	-47,00
3448,00	-4,00
3451,62	65,00
3455,22	7,00
3458,83	48,00
3462,43	60,00
3466,03	42,00
3469,63	59,00
3473,22	45,00
3476,81	-57,00
3480,40	-31,00
3483,99	7,00
3487,57	-9,00
3491,15	40,00
3494,72	-35,00
3498,29	-28,00
3501,86	147,00
3505,43	127,00
3508,99	120,00
3512,56	16,00
3516,11	36,00
3519,67	-20,00
3523,22	-47,00
3526,77	-112,00
3530,32	91,00
3533,86	-12,00
3537,40	4,00
3540,94	-6,00
3544,47	-112,00
3548,00	14,00
3551,53	-152,00
3555,06	-12,00
3558,58	-59,00
3562,10	-97,00
3565,62	-43,00
3569,13	-132,00
3572,64	-80,00
3576,15	41,00
3579,66	28,00
3583,16	83,00
3586,66	85,00
3590,16	50,00
3593,65	88,00
3597,14	-61,00
3600,63	-44,00
3604,11	5,00
3607,60	112,00
3611,08	168,00
3614,55	164,00
3618,03	-3,00
3621,50	112,00
3624,97	-24,00
3628,43	-70,00
3631,90	-41,00
3635,36	13,00
3638,81	-76,00
3642,27	64,00
3645,72	-124,00
3649,17	-33,00
3652,61	88,00
3656,06	-75,00
3659,50	58,00
3662,93	98,00
3666,37	-52,00
3669,80	201,00
3673,23	-108,00
3676,65	45,00
3680,08	-11,00
3683,50	-35,00
3686,92	-24,00
3690,33	-9,00
3693,74	-17,00
3697,15	56,00
3700,56	-45,00
3703,96	-71,00
3707,36	13,00
3710,76	-135,00
3714,16	-11,00
3717,55	105,00
3720,94	16,00
3724,33	157,00
3727,71	44,00
3731,10	68,00
3734,48	-8,00
3737,85	-43,00
3741,23	-18,00
3744,60	131,00
3747,97	50,00
3751,33	76,00
3754,69	72,00
3758,05	-78,00
3761,41	1,00
3764,77	-22,00
3768,12	43,00
3771,47	-21,00
3774,82	-11,00
3778,16	4,00
3781,50	-4,00
3784,84	0,00
3788,18	-1,00
>>>>>End Processed Spectral Data<<<<<
