SpectraSuite Data File
++++++++++++++++++++++++++++++++++++
Date: Tue Mar 03 10:52:41 ICT 2026
User: user
Dark Spectrum Present: Yes
Reference Spectrum Present: No
Number of Sampled Component Spectra: 1
Spectrometers: MAYP113682
Integration Time (usec): 3000000 (MAYP113682)
Spectra Averaged: 1 (MAYP113682)
Boxcar Smoothing: 0 (MAYP113682)
Correct for Electrical Dark: No (MAYP113682)
Strobe/Lamp Enabled: No (MAYP113682)
Correct for Detector Non-linearity: No (MAYP113682)
Correct for Stray Light: No (MAYP113682)
Number of Pixels in Processed Spectrum: 2068
>>>>>Begin Processed Spectral Data<<<<<
-37534,58	19,00
-37414,56	2,00
-37295,11	7,00
-37176,24	2,00
-37057,95	365,00
-36940,22	378,00
-36823,05	422,00
-36706,45	516,00
-36590,40	501,00
-36474,90	484,00
-36359,95	479,00
-36245,55	490,00
-36131,68	489,00
-36018,35	549,00
-35905,55	492,00
-35793,29	658,00
-35681,54	567,00
-35570,32	521,00
-35459,62	540,00
-35349,43	539,00
-35239,75	509,00
-35130,58	572,00
-35021,91	394,00
-34913,74	569,00
-34806,07	512,00
-34698,89	506,00
-34592,20	481,00
-34486,00	549,00
-34380,28	594,00
-34275,04	402,00
-34170,27	508,00
-34065,98	593,00
-33962,16	504,00
-33858,81	599,00
-33755,92	529,00
-33653,49	661,00
-33551,52	656,00
-33450,01	623,00
-33348,94	616,00
-33248,33	596,00
-33148,16	410,00
-33048,43	517,00
-32949,14	562,00
-32850,29	624,00
-32751,87	559,00
-32653,89	533,00
-32556,33	538,00
-32459,20	597,00
-32362,49	438,00
-32266,19	503,00
-32170,32	578,00
-32074,86	552,00
-31979,82	759,00
-31885,18	747,00
-31790,95	566,00
-31697,12	526,00
-31603,69	544,00
-31510,67	632,00
-31418,04	558,00
-31325,80	623,00
-31233,95	567,00
-31142,49	497,00
-31051,42	551,00
-30960,73	621,00
-30870,43	631,00
-30780,50	546,00
-30690,95	442,00
-30601,77	604,00
-30512,97	542,00
-30424,53	609,00
-30336,46	602,00
-30248,76	539,00
-30161,42	645,00
-30074,44	468,00
-29987,81	576,00
-29901,55	673,00
-29815,63	585,00
-29730,07	633,00
-29644,86	522,00
-29560,00	599,00
-29475,48	579,00
-29391,30	550,00
-29307,47	568,00
-29223,97	579,00
-29140,81	478,00
-29057,99	576,00
-28975,50	550,00
-28893,34	661,00
-28811,51	484,00
-28730,00	529,00
-28648,82	509,00
-28567,97	662,00
-28487,43	703,00
-28407,21	451,00
-28327,32	530,00
-28247,73	570,00
-28168,46	512,00
-28089,50	659,00
-28010,85	464,00
-27932,51	617,00
-27854,48	606,00
-27776,75	484,00
-27699,32	530,00
-27622,19	698,00
-27545,37	484,00
-27468,84	580,00
-27392,60	643,00
-27316,66	583,00
-27241,01	669,00
-27165,66	632,00
-27090,59	500,00
-27015,81	543,00
-26941,31	638,00
-26867,10	538,00
-26793,17	604,00
-26719,52	636,00
-26646,15	506,00
-26573,06	582,00
-26500,24	558,00
-26427,70	597,00
-26355,43	646,00
-26283,43	580,00
-26211,71	536,00
-26140,25	599,00
-26069,06	607,00
-25998,13	504,00
-25927,46	503,00
-25857,06	488,00
-25786,92	556,00
-25717,04	569,00
-25647,42	647,00
-25578,05	579,00
-25508,94	412,00
-25440,09	622,00
-25371,48	562,00
-25303,13	552,00
-25235,02	559,00
-25167,17	677,00
-25099,56	559,00
-25032,19	472,00
-24965,07	584,00
-24898,20	570,00
-24831,56	559,00
-24765,17	498,00
-24699,01	546,00
-24633,10	484,00
-24567,41	512,00
-24501,97	616,00
-24436,75	668,00
-24371,77	582,00
-24307,03	486,00
-24242,51	534,00
-24178,22	648,00
-24114,16	573,00
-24050,32	599,00
-23986,71	572,00
-23923,32	654,00
-23860,16	459,00
-23797,22	495,00
-23734,50	428,00
-23672,00	586,00
-23609,71	655,00
-23547,65	576,00
-23485,80	608,00
-23424,16	474,00
-23362,74	627,00
-23301,53	488,00
-23240,54	466,00
-23179,75	562,00
-23119,17	550,00
-23058,80	607,00
-22998,64	652,00
-22938,68	636,00
-22878,93	433,00
-22819,39	579,00
-22760,04	494,00
-22700,90	510,00
-22641,96	496,00
-22583,22	572,00
-22524,68	500,00
-22466,33	612,00
-22408,19	542,00
-22350,23	594,00
-22292,48	520,00
-22234,92	611,00
-22177,55	572,00
-22120,37	561,00
-22063,38	673,00
-22006,58	528,00
-21949,98	551,00
-21893,56	498,00
-21837,33	675,00
-21781,28	501,00
-21725,42	630,00
-21669,74	586,00
-21614,25	572,00
-21558,94	537,00
-21503,81	603,00
-21448,86	655,00
-21394,10	610,00
-21339,51	476,00
-21285,10	531,00
-21230,86	475,00
-21176,81	492,00
-21122,93	478,00
-21069,22	503,00
-21015,69	591,00
-20962,33	680,00
-20909,14	513,00
-20856,13	472,00
-20803,28	695,00
-20750,61	551,00
-20698,10	477,00
-20645,76	495,00
-20593,59	668,00
-20541,59	553,00
-20489,75	562,00
-20438,07	635,00
-20386,56	659,00
-20335,22	519,00
-20284,03	522,00
-20233,01	569,00
-20182,15	554,00
-20131,45	639,00
-20080,91	542,00
-20030,52	485,00
-19980,30	494,00
-19930,23	576,00
-19880,32	528,00
-19830,56	557,00
-19780,96	541,00
-19731,52	566,00
-19682,23	505,00
-19633,09	501,00
-19584,10	443,00
-19535,26	486,00
-19486,58	536,00
-19438,04	526,00
-19389,66	556,00
-19341,42	464,00
-19293,33	622,00
-19245,39	572,00
-19197,60	535,00
-19149,95	607,00
-19102,45	581,00
-19055,09	543,00
-19007,87	670,00
-18960,80	452,00
-18913,87	679,00
-18867,09	614,00
-18820,44	522,00
-18773,94	578,00
-18727,57	578,00
-18681,35	491,00
-18635,26	423,00
-18589,31	492,00
-18543,50	480,00
-18497,83	568,00
-18452,29	498,00
-18406,89	471,00
-18361,63	700,00
-18316,50	552,00
-18271,50	573,00
-18226,63	558,00
-18181,90	599,00
-18137,30	593,00
-18092,84	513,00
-18048,50	602,00
-18004,29	605,00
-17960,22	649,00
-17916,27	519,00
-17872,45	676,00
-17828,76	596,00
-17785,20	564,00
-17741,77	423,00
-17698,46	560,00
-17655,28	455,00
-17612,22	574,00
-17569,29	619,00
-17526,48	634,00
-17483,79	449,00
-17441,23	543,00
-17398,79	414,00
-17356,48	622,00
-17314,28	577,00
-17272,21	596,00
-17230,26	556,00
-17188,42	570,00
-17146,71	619,00
-17105,12	578,00
-17063,64	499,00
-17022,28	557,00
-16981,04	467,00
-16939,92	470,00
-16898,91	567,00
-16858,02	608,00
-16817,25	463,00
-16776,59	596,00
-16736,04	567,00
-16695,61	595,00
-16655,29	498,00
-16615,09	534,00
-16574,99	570,00
-16535,01	560,00
-16495,15	592,00
-16455,39	513,00
-16415,74	443,00
-16376,21	499,00
-16336,78	495,00
-16297,46	596,00
-16258,26	616,00
-16219,16	522,00
-16180,17	554,00
-16141,28	617,00
-16102,51	539,00
-16063,84	492,00
-16025,27	550,00
-15986,82	417,00
-15948,46	419,00
-15910,22	473,00
-15872,07	575,00
-15834,04	476,00
-15796,10	546,00
-15758,27	566,00
-15720,54	500,00
-15682,91	481,00
-15645,39	547,00
-15607,97	409,00
-15570,64	528,00
-15533,42	470,00
-15496,30	568,00
-15459,28	608,00
-15422,36	533,00
-15385,54	580,00
-15348,82	611,00
-15312,19	782,00
-15275,66	635,00
-15239,23	497,00
-15202,90	628,00
-15166,67	418,00
-15130,53	529,00
-15094,48	502,00
-15058,54	494,00
-15022,68	541,00
-14986,93	554,00
-14951,26	550,00
-14915,69	572,00
-14880,22	513,00
-14844,84	516,00
-14809,55	529,00
-14774,35	536,00
-14739,25	512,00
-14704,24	551,00
-14669,32	531,00
-14634,49	464,00
-14599,75	518,00
-14565,10	569,00
-14530,55	591,00
-14496,08	582,00
-14461,70	452,00
-14427,41	438,00
-14393,21	621,00
-14359,10	635,00
-14325,07	451,00
-14291,14	414,00
-14257,29	562,00
-14223,52	534,00
-14189,85	570,00
-14156,26	623,00
-14122,76	498,00
-14089,34	538,00
-14056,01	515,00
-14022,76	607,00
-13989,60	466,00
-13956,52	594,00
-13923,53	623,00
-13890,62	593,00
-13857,79	570,00
-13825,05	474,00
-13792,39	616,00
-13759,81	615,00
-13727,31	515,00
-13694,90	513,00
-13662,57	604,00
-13630,31	554,00
-13598,14	689,00
-13566,05	519,00
-13534,05	423,00
-13502,12	510,00
-13470,27	595,00
-13438,50	544,00
-13406,80	526,00
-13375,19	438,00
-13343,66	433,00
-13312,20	474,00
-13280,83	558,00
-13249,53	493,00
-13218,30	499,00
-13187,16	521,00
-13156,09	612,00
-13125,10	591,00
-13094,18	549,00
-13063,34	544,00
-13032,58	422,00
-13001,89	612,00
-12971,28	574,00
-12940,74	509,00
-12910,27	529,00
-12879,88	466,00
-12849,57	562,00
-12819,33	609,00
-12789,16	590,00
-12759,06	367,00
-12729,04	665,00
-12699,09	1294,00
-12669,21	592,00
-12639,41	520,00
-12609,68	576,00
-12580,02	563,00
-12550,43	618,00
-12520,91	448,00
-12491,46	615,00
-12462,08	526,00
-12432,77	532,00
-12403,54	503,00
-12374,37	529,00
-12345,27	568,00
-12316,24	525,00
-12287,29	615,00
-12258,40	409,00
-12229,57	499,00
-12200,82	561,00
-12172,14	633,00
-12143,52	555,00
-12114,97	410,00
-12086,49	638,00
-12058,07	566,00
-12029,73	597,00
-12001,44	646,00
-11973,23	525,00
-11945,08	604,00
-11917,00	553,00
-11888,98	602,00
-11861,03	646,00
-11833,15	580,00
-11805,32	550,00
-11777,57	624,00
-11749,88	667,00
-11722,25	458,00
-11694,69	643,00
-11667,19	418,00
-11639,75	739,00
-11612,38	601,00
-11585,07	603,00
-11557,83	523,00
-11530,65	538,00
-11503,53	540,00
-11476,47	555,00
-11449,48	517,00
-11422,54	498,00
-11395,67	665,00
-11368,86	545,00
-11342,11	473,00
-11315,43	572,00
-11288,80	561,00
-11262,23	576,00
-11235,73	533,00
-11209,28	761,00
-11182,90	610,00
-11156,57	569,00
-11130,31	626,00
-11104,10	639,00
-11077,96	618,00
-11051,87	639,00
-11025,84	652,00
-10999,87	563,00
-10973,96	566,00
-10948,11	536,00
-10922,31	495,00
-10896,58	549,00
-10870,90	619,00
-10845,28	646,00
-10819,71	476,00
-10794,20	650,00
-10768,75	710,00
-10743,36	558,00
-10718,02	476,00
-10692,74	641,00
-10667,52	608,00
-10642,35	553,00
-10617,24	680,00
-10592,18	561,00
-10567,18	648,00
-10542,23	638,00
-10517,34	708,00
-10492,51	690,00
-10467,72	747,00
-10443,00	713,00
-10418,32	678,00
-10393,70	617,00
-10369,14	811,00
-10344,63	633,00
-10320,17	775,00
-10295,77	780,00
-10271,42	856,00
-10247,12	784,00
-10222,88	978,00
-10198,68	933,00
-10174,54	826,00
-10150,46	880,00
-10126,42	985,00
-10102,44	916,00
-10078,51	1029,00
-10054,63	1063,00
-10030,80	1137,00
-10007,03	1249,00
-9983,30	1047,00
-9959,63	1077,00
-9936,01	1127,00
-9912,44	1074,00
-9888,92	1062,00
-9865,44	1317,00
-9842,02	1296,00
-9818,65	1366,00
-9795,33	1402,00
-9772,06	1322,00
-9748,84	1351,00
-9725,67	1668,00
-9702,55	1589,00
-9679,47	1885,00
-9656,45	1984,00
-9633,47	2060,00
-9610,55	1983,00
-9587,67	2257,00
-9564,84	2487,00
-9542,06	2320,00
-9519,32	2694,00
-9496,64	2865,00
-9474,00	2987,00
-9451,41	3076,00
-9428,87	3067,00
-9406,37	2893,00
-9383,92	2743,00
-9361,52	2622,00
-9339,17	2758,00
-9316,86	2990,00
-9294,60	3399,00
-9272,38	3637,00
-9250,21	3946,00
-9228,09	4001,00
-9206,01	3604,00
-9183,98	3367,00
-9162,00	3064,00
-9140,06	2946,00
-9118,16	2770,00
-9096,31	3040,00
-9074,51	3038,00
-9052,75	3169,00
-9031,04	3028,00
-9009,37	2713,00
-8987,74	2534,00
-8966,16	2264,00
-8944,63	2183,00
-8923,14	2080,00
-8901,69	2137,00
-8880,29	2347,00
-8858,93	2469,00
-8837,61	2707,00
-8816,34	2910,00
-8795,11	2764,00
-8773,92	2625,00
-8752,78	2411,00
-8731,68	2345,00
-8710,62	2307,00
-8689,61	2394,00
-8668,63	2630,00
-8647,70	2852,00
-8626,82	2766,00
-8605,97	2598,00
-8585,17	2384,00
-8564,41	2392,00
-8543,69	2105,00
-8523,01	2055,00
-8502,37	2208,00
-8481,78	2142,00
-8461,23	2272,00
-8440,71	2477,00
-8420,24	2656,00
-8399,81	2769,00
-8379,42	2581,00
-8359,08	2462,00
-8338,77	2214,00
-8318,50	2122,00
-8298,27	1917,00
-8278,09	2104,00
-8257,94	2141,00
-8237,83	2401,00
-8217,76	2538,00
-8197,74	2319,00
-8177,75	2432,00
-8157,80	2206,00
-8137,89	2155,00
-8118,02	2073,00
-8098,19	2295,00
-8078,40	2007,00
-8058,65	2338,00
-8038,93	2288,00
-8019,26	2295,00
-7999,62	2189,00
-7980,02	2018,00
-7960,46	2083,00
-7940,94	1896,00
-7921,46	1993,00
-7902,01	1873,00
-7882,60	2016,00
-7863,23	1943,00
-7843,90	1961,00
-7824,61	2236,00
-7805,35	2228,00
-7786,13	2301,00
-7766,95	2193,00
-7747,80	2097,00
-7728,69	2031,00
-7709,62	1963,00
-7690,59	2071,00
-7671,59	2416,00
-7652,63	2265,00
-7633,70	2283,00
-7614,81	2300,00
-7595,96	1933,00
-7577,15	1930,00
-7558,37	1899,00
-7539,62	2140,00
-7520,91	2224,00
-7502,24	2299,00
-7483,60	2391,00
-7465,00	2112,00
-7446,44	2083,00
-7427,91	1772,00
-7409,41	1862,00
-7390,95	1458,00
-7372,53	1386,00
-7354,14	1679,00
-7335,78	1609,00
-7317,46	1654,00
-7299,18	1743,00
-7280,92	1907,00
-7262,71	2268,00
-7244,52	2270,00
-7226,38	2254,00
-7208,26	2287,00
-7190,18	2237,00
-7172,14	1910,00
-7154,12	2039,00
-7136,15	1991,00
-7118,20	2096,00
-7100,29	2293,00
-7082,41	2317,00
-7064,57	2169,00
-7046,76	1976,00
-7028,98	1742,00
-7011,24	1755,00
-6993,53	1526,00
-6975,85	1469,00
-6958,20	1386,00
-6940,59	1160,00
-6923,01	1280,00
-6905,46	1530,00
-6887,94	1655,00
-6870,46	-503,00
-6853,01	2135,00
-6835,59	1813,00
-6818,21	2008,00
-6800,85	1830,00
-6783,53	1524,00
-6766,24	1243,00
-6748,98	1199,00
-6731,76	1126,00
-6714,56	1182,00
-6697,40	1137,00
-6680,26	1078,00
-6663,16	1446,00
-6646,09	1632,00
-6629,05	1636,00
-6612,05	1692,00
-6595,07	1877,00
-6578,13	1639,00
-6561,21	1386,00
-6544,33	1110,00
-6527,47	1155,00
-6510,65	1047,00
-6493,86	1046,00
-6477,10	1077,00
-6460,36	1116,00
-6443,66	989,00
-6426,99	972,00
-6410,35	1086,00
-6393,74	1056,00
-6377,16	1225,00
-6360,61	1400,00
-6344,09	1323,00
-6327,59	1324,00
-6311,13	1496,00
-6294,70	1307,00
-6278,29	1528,00
-6261,92	1535,00
-6245,58	1593,00
-6229,26	1658,00
-6212,97	1553,00
-6196,72	1398,00
-6180,49	1124,00
-6164,29	852,00
-6148,12	906,00
-6131,98	848,00
-6115,86	816,00
-6099,78	747,00
-6083,72	778,00
-6067,69	758,00
-6051,69	731,00
-6035,72	760,00
-6019,78	905,00
-6003,87	1065,00
-5987,98	1249,00
-5972,12	1378,00
-5956,29	1369,00
-5940,49	1234,00
-5924,71	1138,00
-5908,96	1044,00
-5893,24	926,00
-5877,55	848,00
-5861,89	800,00
-5846,25	899,00
-5830,64	938,00
-5815,05	916,00
-5799,50	925,00
-5783,97	971,00
-5768,47	1054,00
-5752,99	1208,00
-5737,55	1316,00
-5722,12	1381,00
-5706,73	1393,00
-5691,36	1245,00
-5676,02	986,00
-5660,71	861,00
-5645,42	913,00
-5630,16	894,00
-5614,92	946,00
-5599,71	1163,00
-5584,53	1257,00
-5569,37	1158,00
-5554,24	2132,00
-5539,14	1054,00
-5524,06	1052,00
-5509,01	995,00
-5493,98	970,00
-5478,98	1188,00
-5464,00	937,00
-5449,05	1080,00
-5434,13	903,00
-5419,23	862,00
-5404,36	865,00
-5389,51	1149,00
-5374,69	1280,00
-5359,89	1432,00
-5345,12	1394,00
-5330,37	1494,00
-5315,65	1334,00
-5300,95	1084,00
-5286,28	906,00
-5271,63	1048,00
-5257,01	1139,00
-5242,41	1041,00
-5227,84	915,00
-5213,29	853,00
-5198,76	708,00
-5184,26	778,00
-5169,79	785,00
-5155,33	1034,00
-5140,91	1036,00
-5126,51	1225,00
-5112,13	1118,00
-5097,77	1159,00
-5083,44	994,00
-5069,13	855,00
-5054,85	853,00
-5040,59	906,00
-5026,36	1012,00
-5012,15	1138,00
-4997,96	1045,00
-4983,80	901,00
-4969,66	893,00
-4955,54	814,00
-4941,44	782,00
-4927,37	1066,00
-4913,33	1389,00
-4899,30	1410,00
-4885,30	1515,00
-4871,33	1205,00
-4857,37	819,00
-4843,44	830,00
-4829,53	796,00
-4815,65	1083,00
-4801,79	944,00
-4787,95	975,00
-4774,13	856,00
-4760,34	829,00
-4746,56	772,00
-4732,82	780,00
-4719,09	853,00
-4705,38	1180,00
-4691,70	1271,00
-4678,04	1415,00
-4664,41	1020,00
-4650,79	1018,00
-4637,20	845,00
-4623,63	747,00
-4610,08	875,00
-4596,56	1104,00
-4583,05	1097,00
-4569,57	882,00
-4556,11	749,00
-4542,67	678,00
-4529,25	773,00
-4515,86	1029,00
-4502,49	1155,00
-4489,13	1212,00
-4475,80	1074,00
-4462,49	935,00
-4449,21	918,00
-4435,94	669,00
-4422,70	825,00
-4409,47	937,00
-4396,27	970,00
-4383,09	891,00
-4369,93	752,00
-4356,79	741,00
-4343,67	731,00
-4330,58	862,00
-4317,50	954,00
-4304,45	779,00
-4291,41	811,00
-4278,40	596,00
-4265,41	590,00
-4252,44	797,00
-4239,49	850,00
-4226,55	955,00
-4213,65	826,00
-4200,76	835,00
-4187,89	603,00
-4175,04	729,00
-4162,21	662,00
-4149,40	711,00
-4136,61	589,00
-4123,85	630,00
-4111,10	600,00
-4098,37	670,00
-4085,66	720,00
-4072,98	600,00
-4060,31	607,00
-4047,66	736,00
-4035,04	628,00
-4022,43	634,00
-4009,84	753,00
-3997,27	530,00
-3984,72	563,00
-3972,19	602,00
-3959,69	532,00
-3947,20	501,00
-3934,73	587,00
-3922,27	516,00
-3909,84	501,00
-3897,43	555,00
-3885,04	543,00
-3872,67	556,00
-3860,31	494,00
-3847,98	647,00
-3835,66	461,00
-3823,36	450,00
-3811,09	437,00
-3798,83	614,00
-3786,59	548,00
-3774,37	657,00
-3762,17	530,00
-3749,98	608,00
-3737,82	456,00
-3725,67	709,00
-3713,55	483,00
-3701,44	558,00
-3689,35	621,00
-3677,28	612,00
-3665,22	539,00
-3653,19	586,00
-3641,17	594,00
-3629,18	578,00
-3617,20	581,00
-3605,24	637,00
-3593,30	709,00
-3581,37	562,00
-3569,47	655,00
-3557,58	530,00
-3545,71	735,00
-3533,86	533,00
-3522,02	477,00
-3510,21	650,00
-3498,41	545,00
-3486,63	546,00
-3474,87	583,00
-3463,12	503,00
-3451,40	573,00
-3439,69	518,00
-3428,00	665,00
-3416,33	631,00
-3404,67	662,00
-3393,03	539,00
-3381,41	577,00
-3369,81	560,00
-3358,22	621,00
-3346,66	638,00
-3335,10	553,00
-3323,57	517,00
-3312,06	486,00
-3300,56	609,00
-3289,08	490,00
-3277,61	559,00
-3266,16	520,00
-3254,73	553,00
-3243,32	626,00
-3231,92	600,00
-3220,55	490,00
-3209,18	571,00
-3197,84	537,00
-3186,51	477,00
-3175,20	567,00
-3163,90	535,00
-3152,63	597,00
-3141,36	644,00
-3130,12	692,00
-3118,89	512,00
-3107,68	511,00
-3096,49	550,00
-3085,31	537,00
-3074,15	433,00
-3063,00	589,00
-3051,87	529,00
-3040,76	562,00
-3029,67	591,00
-3018,59	732,00
-3007,52	582,00
-2996,48	596,00
-2985,44	694,00
-2974,43	575,00
-2963,43	650,00
-2952,45	582,00
-2941,48	654,00
-2930,53	562,00
-2919,60	584,00
-2908,68	599,00
-2897,78	654,00
-2886,89	511,00
-2876,02	703,00
-2865,17	528,00
-2854,33	428,00
-2843,50	628,00
-2832,70	610,00
-2821,90	531,00
-2811,13	499,00
-2800,37	557,00
-2789,62	636,00
-2778,89	594,00
-2768,18	632,00
-2757,48	564,00
-2746,80	545,00
-2736,13	501,00
-2725,48	599,00
-2714,84	567,00
-2704,22	537,00
-2693,61	477,00
-2683,02	553,00
-2672,45	467,00
-2661,89	669,00
-2651,34	517,00
-2640,81	664,00
-2630,30	642,00
-2619,80	577,00
-2609,31	661,00
-2598,84	521,00
-2588,39	565,00
-2577,95	539,00
-2567,52	489,00
-2557,11	427,00
-2546,71	560,00
-2536,33	628,00
-2525,97	541,00
-2515,62	554,00
-2505,28	573,00
-2494,96	479,00
-2484,65	633,00
-2474,36	722,00
-2464,08	572,00
-2453,82	496,00
-2443,57	579,00
-2433,33	546,00
-2423,11	613,00
-2412,91	602,00
-2402,72	402,00
-2392,54	505,00
-2382,38	486,00
-2372,23	605,00
-2362,09	1174,00
-2351,97	548,00
-2341,87	538,00
-2331,78	532,00
-2321,70	473,00
-2311,64	584,00
-2301,59	479,00
-2291,55	539,00
-2281,53	639,00
-2271,53	490,00
-2261,53	567,00
-2251,55	578,00
-2241,59	659,00
-2231,64	551,00
-2221,70	481,00
-2211,78	670,00
-2201,87	596,00
-2191,97	593,00
-2182,09	568,00
-2172,22	626,00
-2162,37	533,00
-2152,53	491,00
-2142,70	594,00
-2132,89	483,00
-2123,09	618,00
-2113,30	609,00
-2103,53	620,00
-2093,77	550,00
-2084,02	536,00
-2074,29	517,00
-2064,57	613,00
-2054,86	511,00
-2045,17	497,00
-2035,49	665,00
-2025,82	494,00
-2016,17	496,00
-2006,53	558,00
-1996,91	622,00
-1987,29	420,00
-1977,69	614,00
-1968,11	615,00
-1958,53	649,00
-1948,97	549,00
-1939,42	426,00
-1929,89	507,00
-1920,37	548,00
-1910,86	567,00
-1901,36	574,00
-1891,88	520,00
-1882,41	559,00
-1872,95	568,00
-1863,51	572,00
-1854,08	616,00
-1844,66	494,00
-1835,26	546,00
-1825,86	482,00
-1816,48	498,00
-1807,11	593,00
-1797,76	591,00
-1788,42	555,00
-1779,09	605,00
-1769,77	521,00
-1760,47	680,00
-1751,17	552,00
-1741,89	517,00
-1732,63	550,00
-1723,37	602,00
-1714,13	639,00
-1704,90	539,00
-1695,68	654,00
-1686,48	572,00
-1677,29	571,00
-1668,11	735,00
-1658,94	575,00
-1649,78	537,00
-1640,64	545,00
-1631,51	623,00
-1622,39	664,00
-1613,28	651,00
-1604,19	694,00
-1595,10	650,00
-1586,03	442,00
-1576,97	660,00
-1567,93	502,00
-1558,89	503,00
-1549,87	681,00
-1540,86	551,00
-1531,86	590,00
-1522,87	598,00
-1513,90	705,00
-1504,93	593,00
-1495,98	568,00
-1487,04	569,00
-1478,12	635,00
-1469,20	572,00
-1460,30	645,00
-1451,40	711,00
-1442,52	688,00
-1433,65	601,00
-1424,80	489,00
-1415,95	503,00
-1407,12	633,00
-1398,30	566,00
-1389,48	640,00
-1380,69	495,00
-1371,90	524,00
-1363,12	623,00
-1354,36	622,00
-1345,60	640,00
-1336,86	652,00
-1328,13	614,00
-1319,41	588,00
-1310,70	469,00
-1302,01	562,00
-1293,32	587,00
-1284,65	582,00
-1275,99	617,00
-1267,33	624,00
-1258,69	578,00
-1250,06	580,00
-1241,45	386,00
-1232,84	506,00
-1224,25	656,00
-1215,66	618,00
-1207,09	666,00
-1198,53	582,00
-1189,97	548,00
-1181,43	576,00
-1172,91	621,00
-1164,39	784,00
-1155,88	511,00
-1147,38	472,00
-1138,90	505,00
-1130,43	622,00
-1121,96	557,00
-1113,51	583,00
-1105,07	538,00
-1096,64	615,00
-1088,22	655,00
-1079,81	684,00
-1071,41	569,00
-1063,02	529,00
-1054,65	503,00
-1046,28	614,00
-1037,92	525,00
-1029,58	506,00
-1021,24	707,00
-1012,92	663,00
-1004,61	640,00
-996,30	704,00
-988,01	412,00
-979,73	472,00
-971,46	513,00
-963,20	536,00
-954,95	592,00
-946,71	541,00
-938,48	512,00
-930,26	535,00
-922,06	539,00
-913,86	636,00
-905,67	619,00
-897,49	619,00
-889,33	513,00
-881,17	607,00
-873,02	559,00
-864,89	498,00
-856,76	545,00
-848,65	591,00
-840,54	565,00
-832,45	643,00
-824,36	537,00
-816,29	646,00
-808,22	711,00
-800,17	538,00
-792,12	835,00
-784,09	642,00
-776,06	488,00
-768,05	673,00
-760,04	644,00
-752,05	623,00
-744,07	698,00
-736,09	565,00
-728,13	459,00
-720,17	603,00
-712,23	589,00
-704,29	663,00
-696,37	450,00
-688,45	612,00
-680,55	555,00
-672,65	508,00
-664,77	637,00
-656,89	573,00
-649,03	551,00
-641,17	690,00
-633,32	750,00
-625,49	586,00
-617,66	611,00
-609,84	565,00
-602,03	607,00
-594,23	573,00
-586,45	493,00
-578,67	655,00
-570,90	749,00
-563,14	453,00
-555,39	510,00
-547,65	713,00
-539,91	509,00
-532,19	439,00
-524,48	601,00
-516,78	534,00
-509,08	634,00
-501,40	545,00
-493,72	527,00
-486,06	577,00
-478,40	679,00
-470,76	550,00
-463,12	588,00
-455,49	467,00
-447,87	560,00
-440,26	519,00
-432,66	362,00
-425,07	677,00
-417,49	623,00
-409,92	533,00
-402,35	561,00
-394,80	495,00
-387,25	565,00
-379,72	642,00
-372,19	530,00
-364,67	584,00
-357,17	630,00
-349,67	509,00
-342,18	683,00
-334,69	652,00
-327,22	564,00
-319,76	662,00
-312,30	592,00
-304,86	681,00
-297,42	471,00
-290,00	713,00
-282,58	575,00
-275,17	557,00
-267,77	629,00
-260,37	652,00
-252,99	494,00
-245,62	597,00
-238,25	580,00
-230,90	674,00
-223,55	722,00
-216,21	582,00
-208,88	610,00
-201,56	668,00
-194,25	709,00
-186,94	730,00
-179,65	724,00
-172,36	697,00
-165,08	728,00
-157,81	753,00
-150,55	929,00
-143,30	829,00
-136,06	880,00
-128,82	1019,00
-121,60	1107,00
-114,38	1003,00
-107,17	997,00
-99,97	1190,00
-92,78	1236,00
-85,60	1240,00
-78,42	1554,00
-71,25	1682,00
-64,10	1815,00
-56,95	1917,00
-49,81	2316,00
-42,67	2766,00
-35,55	3291,00
-28,43	4199,00
-21,33	6784,00
-14,23	21745,00
-7,14	56239,00
-0,05	55969,00
7,02	55668,00
14,09	55972,00
21,14	16789,00
28,19	7443,00
35,23	4995,00
42,27	3908,00
49,29	3257,00
56,31	2857,00
63,32	2489,00
70,32	2198,00
77,31	2000,00
84,29	1649,00
91,27	1635,00
98,23	1468,00
105,19	1431,00
112,14	1437,00
119,09	1738,00
126,02	2312,00
132,95	2627,00
139,87	2680,00
146,78	2717,00
153,68	2474,00
160,58	2574,00
167,46	2430,00
174,34	2387,00
181,21	2422,00
188,08	2382,00
194,93	2405,00
201,78	2431,00
208,62	2484,00
215,45	2280,00
222,27	2346,00
229,09	2459,00
235,90	2338,00
242,70	2279,00
249,49	2291,00
256,27	2258,00
263,05	2187,00
269,82	2106,00
276,58	2095,00
283,33	2188,00
290,08	2139,00
296,82	2097,00
303,55	2041,00
310,27	2171,00
316,98	2155,00
323,69	2193,00
330,39	2157,00
337,08	2098,00
343,76	2128,00
350,44	2090,00
357,11	1959,00
363,77	1991,00
370,42	1897,00
377,07	1993,00
383,71	1945,00
390,34	1962,00
396,96	1854,00
403,58	1925,00
410,19	2108,00
416,79	1922,00
423,38	2004,00
429,97	1992,00
436,55	1815,00
443,12	1888,00
449,68	1774,00
456,24	1831,00
462,79	1887,00
469,33	1755,00
475,86	1731,00
482,39	1659,00
488,91	1699,00
495,42	1720,00
501,93	1673,00
508,42	1694,00
514,91	1748,00
521,40	1644,00
527,87	1684,00
534,34	1573,00
540,80	1632,00
547,25	1701,00
553,70	1586,00
560,14	1710,00
566,57	1714,00
573,00	1680,00
579,41	1654,00
585,83	1521,00
592,23	1613,00
598,62	1587,00
605,01	1523,00
611,40	1500,00
617,77	1809,00
624,14	1661,00
630,50	1708,00
636,85	1409,00
643,20	1603,00
649,54	1456,00
655,87	1519,00
662,20	1478,00
668,52	1661,00
674,83	1574,00
681,13	1496,00
687,43	1539,00
693,72	1563,00
700,00	1399,00
706,28	1463,00
712,55	1542,00
718,81	1472,00
725,07	1412,00
731,32	1343,00
737,56	1393,00
743,79	1468,00
750,02	1620,00
756,24	1482,00
762,46	1477,00
768,67	1528,00
774,87	1393,00
781,06	1364,00
787,25	1465,00
793,43	1513,00
799,60	1491,00
805,77	1617,00
811,93	1512,00
818,08	1402,00
824,23	1351,00
830,37	1557,00
836,50	1467,00
842,63	1425,00
848,75	1456,00
854,87	1401,00
860,97	1423,00
867,07	1552,00
873,17	1618,00
879,25	1454,00
885,33	1460,00
891,41	1446,00
897,47	1572,00
903,53	1429,00
909,59	1397,00
915,63	1501,00
921,67	1420,00
927,71	1367,00
933,74	1327,00
939,76	1342,00
945,77	1352,00
951,78	1442,00
957,78	1285,00
963,78	1297,00
969,77	1297,00
975,75	1265,00
981,72	1260,00
987,69	2162,00
993,66	1247,00
999,61	1371,00
1005,56	1359,00
1011,51	1430,00
1017,44	1389,00
1023,37	1442,00
1029,30	1233,00
1035,22	1388,00
1041,13	1285,00
1047,03	1471,00
1052,93	1549,00
1058,83	1734,00
1064,71	1821,00
1070,59	1634,00
1076,47	1492,00
1082,33	1506,00
1088,20	1413,00
1094,05	1293,00
1099,90	1339,00
1105,74	1296,00
1111,58	1308,00
1117,41	1509,00
1123,23	1628,00
1129,05	1762,00
1134,86	1662,00
1140,67	1487,00
1146,47	1427,00
1152,26	1302,00
1158,05	1155,00
1163,83	1345,00
1169,60	1210,00
1175,37	1284,00
1181,13	1275,00
1186,89	1336,00
1192,64	1271,00
1198,38	1270,00
1204,12	1342,00
1209,85	1202,00
1215,58	1333,00
1221,30	1346,00
1227,02	1158,00
1232,72	1283,00
1238,43	1150,00
1244,12	1215,00
1249,81	1266,00
1255,50	1271,00
1261,17	1355,00
1266,85	1243,00
1272,51	1267,00
1278,17	1361,00
1283,83	1474,00
1289,47	1810,00
1295,12	2103,00
1300,75	1976,00
1306,38	1678,00
1312,01	1549,00
1317,63	1565,00
1323,24	1336,00
1328,85	1451,00
1334,45	1320,00
1340,04	1379,00
1345,63	1359,00
1351,22	1414,00
1356,80	1361,00
1362,37	1481,00
1367,93	1333,00
1373,49	1370,00
1379,05	1329,00
1384,60	1391,00
1390,14	1383,00
1395,68	1381,00
1401,21	1316,00
1406,74	1497,00
1412,26	1500,00
1417,77	1589,00
1423,28	1577,00
1428,78	1790,00
1434,28	1858,00
1439,77	2020,00
1445,26	2092,00
1450,74	2050,00
1456,22	2030,00
1461,68	1921,00
1467,15	1766,00
1472,61	1637,00
1478,06	1595,00
1483,51	1539,00
1488,95	1315,00
1494,38	1423,00
1499,81	1255,00
1505,24	1225,00
1510,65	1228,00
1516,07	1206,00
1521,48	1265,00
1526,88	1200,00
1532,27	1248,00
1537,67	1169,00
1543,05	1192,00
1548,43	1144,00
1553,81	1180,00
1559,18	1114,00
1564,54	1253,00
1569,90	1163,00
1575,25	1225,00
1580,60	1080,00
1585,94	1151,00
1591,28	1136,00
1596,61	957,00
1601,93	1026,00
1607,25	1088,00
1612,57	1101,00
1617,88	1150,00
1623,18	1220,00
1628,48	1109,00
1633,77	1181,00
1639,06	1132,00
1644,34	1122,00
1649,62	1054,00
1654,89	1193,00
1660,16	1072,00
1665,42	1070,00
1670,67	1069,00
1675,92	1023,00
1681,17	1013,00
1686,41	1018,00
1691,64	1057,00
1696,87	1064,00
1702,10	1009,00
1707,32	1004,00
1712,53	1035,00
1717,74	1043,00
1722,94	1039,00
1728,14	994,00
1733,33	967,00
1738,52	999,00
1743,70	1093,00
1748,88	1091,00
1754,05	986,00
1759,22	997,00
1764,38	2619,00
1769,53	987,00
1774,69	1126,00
1779,83	1090,00
1784,97	1001,00
1790,11	912,00
1795,24	1019,00
1800,36	965,00
1805,48	974,00
1810,60	899,00
1815,71	873,00
1820,82	994,00
1825,92	1013,00
1831,01	942,00
1836,10	978,00
1841,19	924,00
1846,26	886,00
1851,34	961,00
1856,41	909,00
1861,47	994,00
1866,53	875,00
1871,59	935,00
1876,64	1001,00
1881,68	1016,00
1886,72	1016,00
1891,76	847,00
1896,79	898,00
1901,81	970,00
1906,83	907,00
1911,85	919,00
1916,86	1059,00
1921,86	836,00
1926,86	933,00
1931,86	841,00
1936,85	810,00
1941,83	945,00
1946,81	924,00
1951,79	843,00
1956,76	899,00
1961,72	910,00
1966,68	839,00
1971,64	860,00
1976,59	905,00
1981,54	736,00
1986,48	865,00
1991,42	806,00
1996,35	1026,00
2001,27	841,00
2006,20	869,00
2011,11	872,00
2016,03	736,00
2020,93	724,00
2025,84	839,00
2030,73	837,00
2035,63	819,00
2040,52	796,00
2045,40	726,00
2050,28	801,00
2055,15	886,00
2060,02	788,00
2064,89	698,00
2069,75	879,00
2074,60	916,00
2079,46	890,00
2084,30	771,00
2089,14	714,00
2093,98	839,00
2098,81	798,00
2103,64	776,00
2108,46	849,00
2113,28	873,00
2118,09	752,00
2122,90	793,00
2127,70	810,00
2132,50	893,00
2137,30	797,00
2142,09	780,00
2146,87	701,00
2151,66	843,00
2156,43	828,00
2161,20	713,00
2165,97	751,00
2170,73	689,00
2175,49	827,00
2180,24	769,00
2184,99	864,00
2189,74	908,00
2194,48	771,00
2199,21	882,00
2203,94	621,00
2208,67	771,00
2213,39	695,00
2218,11	761,00
2222,82	803,00
2227,53	724,00
2232,23	839,00
2236,93	778,00
2241,63	882,00
2246,32	656,00
2251,00	748,00
2255,68	788,00
2260,36	776,00
2265,03	798,00
2269,70	753,00
2274,36	801,00
2279,02	659,00
2283,68	777,00
2288,33	762,00
2292,97	698,00
2297,61	696,00
2302,25	721,00
2306,88	713,00
2311,51	717,00
2316,14	761,00
2320,75	676,00
2325,37	630,00
2329,98	807,00
2334,59	565,00
2339,19	761,00
2343,79	667,00
2348,38	651,00
2352,97	742,00
2357,55	813,00
2362,13	725,00
2366,71	659,00
2371,28	743,00
2375,85	816,00
2380,41	730,00
2384,97	748,00
2389,52	635,00
2394,07	742,00
2398,62	676,00
2403,16	641,00
2407,70	667,00
2412,23	785,00
2416,76	793,00
2421,29	592,00
2425,81	781,00
2430,32	706,00
2434,84	728,00
2439,34	771,00
2443,85	785,00
2448,35	646,00
2452,84	698,00
2457,33	722,00
2461,82	671,00
2466,30	666,00
2470,78	817,00
2475,25	714,00
2479,72	740,00
2484,19	748,00
2488,65	588,00
2493,11	664,00
2497,56	914,00
2502,01	594,00
2506,46	824,00
2510,90	676,00
2515,34	683,00
2519,77	601,00
2524,20	691,00
2528,62	583,00
2533,04	763,00
2537,46	568,00
2541,87	692,00
2546,28	655,00
2550,68	696,00
2555,08	567,00
2559,48	670,00
2563,87	749,00
2568,26	627,00
2572,64	729,00
2577,02	646,00
2581,40	687,00
2585,77	783,00
2590,14	620,00
2594,50	562,00
2598,86	556,00
2603,22	608,00
2607,57	677,00
2611,92	800,00
2616,26	640,00
2620,60	585,00
2624,94	665,00
2629,27	715,00
2633,60	700,00
2637,92	858,00
2642,24	752,00
2646,56	804,00
2650,87	675,00
2655,18	753,00
2659,48	656,00
2663,78	753,00
2668,08	767,00
2672,37	792,00
2676,66	792,00
2680,95	771,00
2685,23	806,00
2689,50	653,00
2693,78	688,00
2698,05	682,00
2702,31	848,00
2706,57	807,00
2710,83	798,00
2715,08	627,00
2719,33	846,00
2723,58	730,00
2727,82	855,00
2732,06	740,00
2736,29	785,00
2740,53	764,00
2744,75	726,00
2748,97	757,00
2753,19	767,00
2757,41	772,00
2761,62	880,00
2765,83	736,00
2770,03	637,00
2774,23	668,00
2778,43	695,00
2782,62	689,00
2786,81	774,00
2791,00	783,00
2795,18	811,00
2799,35	830,00
2803,53	749,00
2807,70	848,00
2811,86	800,00
2816,03	1029,00
2820,19	882,00
2824,34	855,00
2828,49	875,00
2832,64	889,00
2836,78	1109,00
2840,92	1313,00
2845,06	1259,00
2849,19	1505,00
2853,32	1567,00
2857,45	1685,00
2861,57	1609,00
2865,69	1473,00
2869,80	1606,00
2873,91	1561,00
2878,02	1620,00
2882,12	1786,00
2886,22	1600,00
2890,32	1669,00
2894,41	1602,00
2898,50	1431,00
2902,58	1431,00
2906,67	1453,00
2910,74	1299,00
2914,82	1274,00
2918,89	1253,00
2922,96	1195,00
2927,02	1110,00
2931,08	1074,00
2935,13	1097,00
2939,19	1129,00
2943,24	995,00
2947,28	933,00
2951,32	937,00
2955,36	896,00
2959,40	985,00
2963,43	866,00
2967,46	771,00
2971,48	743,00
2975,50	829,00
2979,52	923,00
2983,53	873,00
2987,54	807,00
2991,55	711,00
2995,55	603,00
2999,55	689,00
3003,54	700,00
3007,54	657,00
3011,53	678,00
3015,51	541,00
3019,49	721,00
3023,47	581,00
3027,45	613,00
3031,42	705,00
3035,39	672,00
3039,35	652,00
3043,31	578,00
3047,27	742,00
3051,22	738,00
3055,17	676,00
3059,12	602,00
3063,06	657,00
3067,00	581,00
3070,94	550,00
3074,87	722,00
3078,80	565,00
3082,73	702,00
3086,65	599,00
3090,57	567,00
3094,49	489,00
3098,40	511,00
3102,31	469,00
3106,22	587,00
3110,12	617,00
3114,02	530,00
3117,92	665,00
3121,81	599,00
3125,70	550,00
3129,58	566,00
3133,47	522,00
3137,34	609,00
3141,22	620,00
3145,09	614,00
3148,96	642,00
3152,83	543,00
3156,69	756,00
3160,55	631,00
3164,40	718,00
3168,26	634,00
3172,10	553,00
3175,95	698,00
3179,79	657,00
3183,63	696,00
3187,47	565,00
3191,30	548,00
3195,13	568,00
3198,95	389,00
3202,78	630,00
3206,60	484,00
3210,41	550,00
3214,23	624,00
3218,03	508,00
3221,84	591,00
3225,64	591,00
3229,44	558,00
3233,24	513,00
3237,03	637,00
3240,82	529,00
3244,61	437,00
3248,39	514,00
3252,17	621,00
3255,95	679,00
3259,72	654,00
3263,49	707,00
3267,26	608,00
3271,03	552,00
3274,79	616,00
3278,54	583,00
3282,30	498,00
3286,05	557,00
3289,80	696,00
3293,54	656,00
3297,29	555,00
3301,02	604,00
3304,76	508,00
3308,49	588,00
3312,22	538,00
3315,95	561,00
3319,67	575,00
3323,39	666,00
3327,10	524,00
3330,82	499,00
3334,53	552,00
3338,24	607,00
3341,94	598,00
3345,64	606,00
3349,34	427,00
3353,03	552,00
3356,72	599,00
3360,41	624,00
3364,10	592,00
3367,78	546,00
3371,46	506,00
3375,13	593,00
3378,81	595,00
3382,48	455,00
3386,14	630,00
3389,81	521,00
3393,47	606,00
3397,12	614,00
3400,78	685,00
3404,43	610,00
3408,08	507,00
3411,72	532,00
3415,36	549,00
3419,00	605,00
3422,64	573,00
3426,27	580,00
3429,90	584,00
3433,53	517,00
3437,15	554,00
3440,77	505,00
3444,39	539,00
3448,00	489,00
3451,62	554,00
3455,22	524,00
3458,83	550,00
3462,43	586,00
3466,03	493,00
3469,63	592,00
3473,22	565,00
3476,81	503,00
3480,40	488,00
3483,99	460,00
3487,57	641,00
3491,15	617,00
3494,72	550,00
3498,29	588,00
3501,86	621,00
3505,43	497,00
3508,99	597,00
3512,56	610,00
3516,11	509,00
3519,67	578,00
3523,22	519,00
3526,77	586,00
3530,32	640,00
3533,86	638,00
3537,40	530,00
3540,94	637,00
3544,47	502,00
3548,00	498,00
3551,53	542,00
3555,06	583,00
3558,58	548,00
3562,10	523,00
3565,62	552,00
3569,13	438,00
3572,64	626,00
3576,15	434,00
3579,66	518,00
3583,16	687,00
3586,66	559,00
3590,16	590,00
3593,65	574,00
3597,14	535,00
3600,63	507,00
3604,11	522,00
3607,60	467,00
3611,08	566,00
3614,55	500,00
3618,03	561,00
3621,50	572,00
3624,97	540,00
3628,43	624,00
3631,90	595,00
3635,36	521,00
3638,81	489,00
3642,27	580,00
3645,72	583,00
3649,17	542,00
3652,61	547,00
3656,06	555,00
3659,50	464,00
3662,93	521,00
3666,37	475,00
3669,80	564,00
3673,23	553,00
3676,65	620,00
3680,08	587,00
3683,50	468,00
3686,92	631,00
3690,33	536,00
3693,74	544,00
3697,15	425,00
3700,56	551,00
3703,96	528,00
3707,36	352,00
3710,76	530,00
3714,16	384,00
3717,55	467,00
3720,94	468,00
3724,33	402,00
3727,71	560,00
3731,10	495,00
3734,48	596,00
3737,85	374,00
3741,23	409,00
3744,60	396,00
3747,97	466,00
3751,33	457,00
3754,69	460,00
3758,05	514,00
3761,41	390,00
3764,77	419,00
3768,12	439,00
3771,47	384,00
3774,82	507,00
3778,16	-11,00
3781,50	13,00
3784,84	3,00
3788,18	4,00
>>>>>End Processed Spectral Data<<<<<
