SpectraSuite Data File
++++++++++++++++++++++++++++++++++++
Date: Tue Mar 03 10:56:41 ICT 2026
User: user
Dark Spectrum Present: Yes
Reference Spectrum Present: No
Number of Sampled Component Spectra: 1
Spectrometers: MAYP113682
Integration Time (usec): 3000000 (MAYP113682)
Spectra Averaged: 1 (MAYP113682)
Boxcar Smoothing: 0 (MAYP113682)
Correct for Electrical Dark: No (MAYP113682)
Strobe/Lamp Enabled: No (MAYP113682)
Correct for Detector Non-linearity: No (MAYP113682)
Correct for Stray Light: No (MAYP113682)
Number of Pixels in Processed Spectrum: 2068
>>>>>Begin Processed Spectral Data<<<<<
-37534,58	26,00
-37414,56	1,00
-37295,11	8,00
-37176,24	0,00
-37057,95	500,00
-36940,22	549,00
-36823,05	626,00
-36706,45	725,00
-36590,40	794,00
-36474,90	690,00
-36359,95	747,00
-36245,55	621,00
-36131,68	703,00
-36018,35	679,00
-35905,55	783,00
-35793,29	774,00
-35681,54	768,00
-35570,32	757,00
-35459,62	788,00
-35349,43	752,00
-35239,75	809,00
-35130,58	749,00
-35021,91	769,00
-34913,74	726,00
-34806,07	695,00
-34698,89	852,00
-34592,20	686,00
-34486,00	748,00
-34380,28	783,00
-34275,04	585,00
-34170,27	739,00
-34065,98	749,00
-33962,16	744,00
-33858,81	821,00
-33755,92	711,00
-33653,49	808,00
-33551,52	866,00
-33450,01	803,00
-33348,94	730,00
-33248,33	745,00
-33148,16	687,00
-33048,43	697,00
-32949,14	759,00
-32850,29	801,00
-32751,87	669,00
-32653,89	834,00
-32556,33	823,00
-32459,20	857,00
-32362,49	697,00
-32266,19	706,00
-32170,32	859,00
-32074,86	739,00
-31979,82	842,00
-31885,18	875,00
-31790,95	828,00
-31697,12	759,00
-31603,69	689,00
-31510,67	877,00
-31418,04	854,00
-31325,80	814,00
-31233,95	743,00
-31142,49	804,00
-31051,42	791,00
-30960,73	843,00
-30870,43	895,00
-30780,50	814,00
-30690,95	741,00
-30601,77	771,00
-30512,97	821,00
-30424,53	881,00
-30336,46	790,00
-30248,76	865,00
-30161,42	908,00
-30074,44	731,00
-29987,81	743,00
-29901,55	810,00
-29815,63	813,00
-29730,07	941,00
-29644,86	739,00
-29560,00	914,00
-29475,48	851,00
-29391,30	737,00
-29307,47	741,00
-29223,97	715,00
-29140,81	817,00
-29057,99	802,00
-28975,50	703,00
-28893,34	837,00
-28811,51	764,00
-28730,00	766,00
-28648,82	780,00
-28567,97	755,00
-28487,43	701,00
-28407,21	720,00
-28327,32	680,00
-28247,73	958,00
-28168,46	772,00
-28089,50	883,00
-28010,85	663,00
-27932,51	810,00
-27854,48	826,00
-27776,75	706,00
-27699,32	740,00
-27622,19	914,00
-27545,37	782,00
-27468,84	813,00
-27392,60	873,00
-27316,66	753,00
-27241,01	840,00
-27165,66	825,00
-27090,59	773,00
-27015,81	854,00
-26941,31	942,00
-26867,10	712,00
-26793,17	878,00
-26719,52	867,00
-26646,15	740,00
-26573,06	823,00
-26500,24	797,00
-26427,70	809,00
-26355,43	755,00
-26283,43	816,00
-26211,71	760,00
-26140,25	742,00
-26069,06	892,00
-25998,13	802,00
-25927,46	723,00
-25857,06	824,00
-25786,92	787,00
-25717,04	787,00
-25647,42	838,00
-25578,05	793,00
-25508,94	725,00
-25440,09	836,00
-25371,48	776,00
-25303,13	780,00
-25235,02	763,00
-25167,17	943,00
-25099,56	876,00
-25032,19	695,00
-24965,07	826,00
-24898,20	796,00
-24831,56	855,00
-24765,17	811,00
-24699,01	747,00
-24633,10	676,00
-24567,41	784,00
-24501,97	794,00
-24436,75	813,00
-24371,77	791,00
-24307,03	790,00
-24242,51	773,00
-24178,22	860,00
-24114,16	818,00
-24050,32	890,00
-23986,71	823,00
-23923,32	715,00
-23860,16	790,00
-23797,22	775,00
-23734,50	692,00
-23672,00	808,00
-23609,71	843,00
-23547,65	842,00
-23485,80	858,00
-23424,16	769,00
-23362,74	882,00
-23301,53	691,00
-23240,54	716,00
-23179,75	730,00
-23119,17	689,00
-23058,80	807,00
-22998,64	825,00
-22938,68	866,00
-22878,93	696,00
-22819,39	781,00
-22760,04	677,00
-22700,90	775,00
-22641,96	690,00
-22583,22	739,00
-22524,68	659,00
-22466,33	815,00
-22408,19	693,00
-22350,23	863,00
-22292,48	840,00
-22234,92	765,00
-22177,55	800,00
-22120,37	852,00
-22063,38	840,00
-22006,58	796,00
-21949,98	773,00
-21893,56	685,00
-21837,33	737,00
-21781,28	758,00
-21725,42	829,00
-21669,74	795,00
-21614,25	897,00
-21558,94	872,00
-21503,81	831,00
-21448,86	891,00
-21394,10	814,00
-21339,51	840,00
-21285,10	674,00
-21230,86	809,00
-21176,81	735,00
-21122,93	645,00
-21069,22	778,00
-21015,69	720,00
-20962,33	898,00
-20909,14	676,00
-20856,13	634,00
-20803,28	884,00
-20750,61	759,00
-20698,10	680,00
-20645,76	857,00
-20593,59	800,00
-20541,59	834,00
-20489,75	757,00
-20438,07	757,00
-20386,56	922,00
-20335,22	802,00
-20284,03	694,00
-20233,01	711,00
-20182,15	743,00
-20131,45	854,00
-20080,91	645,00
-20030,52	773,00
-19980,30	782,00
-19930,23	750,00
-19880,32	785,00
-19830,56	785,00
-19780,96	824,00
-19731,52	768,00
-19682,23	752,00
-19633,09	755,00
-19584,10	788,00
-19535,26	765,00
-19486,58	821,00
-19438,04	839,00
-19389,66	755,00
-19341,42	772,00
-19293,33	766,00
-19245,39	812,00
-19197,60	791,00
-19149,95	733,00
-19102,45	792,00
-19055,09	750,00
-19007,87	883,00
-18960,80	756,00
-18913,87	880,00
-18867,09	822,00
-18820,44	802,00
-18773,94	843,00
-18727,57	764,00
-18681,35	631,00
-18635,26	715,00
-18589,31	693,00
-18543,50	768,00
-18497,83	802,00
-18452,29	738,00
-18406,89	752,00
-18361,63	921,00
-18316,50	775,00
-18271,50	751,00
-18226,63	833,00
-18181,90	773,00
-18137,30	873,00
-18092,84	730,00
-18048,50	711,00
-18004,29	744,00
-17960,22	896,00
-17916,27	748,00
-17872,45	811,00
-17828,76	753,00
-17785,20	729,00
-17741,77	712,00
-17698,46	817,00
-17655,28	688,00
-17612,22	738,00
-17569,29	724,00
-17526,48	801,00
-17483,79	689,00
-17441,23	788,00
-17398,79	672,00
-17356,48	737,00
-17314,28	849,00
-17272,21	743,00
-17230,26	652,00
-17188,42	795,00
-17146,71	818,00
-17105,12	703,00
-17063,64	663,00
-17022,28	860,00
-16981,04	689,00
-16939,92	787,00
-16898,91	856,00
-16858,02	753,00
-16817,25	672,00
-16776,59	776,00
-16736,04	747,00
-16695,61	763,00
-16655,29	839,00
-16615,09	862,00
-16574,99	796,00
-16535,01	830,00
-16495,15	741,00
-16455,39	812,00
-16415,74	669,00
-16376,21	793,00
-16336,78	704,00
-16297,46	822,00
-16258,26	780,00
-16219,16	700,00
-16180,17	717,00
-16141,28	888,00
-16102,51	811,00
-16063,84	763,00
-16025,27	695,00
-15986,82	647,00
-15948,46	700,00
-15910,22	679,00
-15872,07	739,00
-15834,04	749,00
-15796,10	766,00
-15758,27	831,00
-15720,54	659,00
-15682,91	763,00
-15645,39	816,00
-15607,97	639,00
-15570,64	797,00
-15533,42	782,00
-15496,30	800,00
-15459,28	748,00
-15422,36	727,00
-15385,54	842,00
-15348,82	802,00
-15312,19	927,00
-15275,66	811,00
-15239,23	788,00
-15202,90	787,00
-15166,67	679,00
-15130,53	744,00
-15094,48	702,00
-15058,54	807,00
-15022,68	787,00
-14986,93	731,00
-14951,26	745,00
-14915,69	782,00
-14880,22	653,00
-14844,84	822,00
-14809,55	768,00
-14774,35	833,00
-14739,25	775,00
-14704,24	752,00
-14669,32	784,00
-14634,49	656,00
-14599,75	820,00
-14565,10	791,00
-14530,55	835,00
-14496,08	820,00
-14461,70	679,00
-14427,41	707,00
-14393,21	731,00
-14359,10	768,00
-14325,07	660,00
-14291,14	763,00
-14257,29	879,00
-14223,52	806,00
-14189,85	795,00
-14156,26	841,00
-14122,76	722,00
-14089,34	784,00
-14056,01	794,00
-14022,76	815,00
-13989,60	773,00
-13956,52	849,00
-13923,53	782,00
-13890,62	727,00
-13857,79	724,00
-13825,05	805,00
-13792,39	776,00
-13759,81	719,00
-13727,31	767,00
-13694,90	861,00
-13662,57	741,00
-13630,31	764,00
-13598,14	815,00
-13566,05	634,00
-13534,05	716,00
-13502,12	839,00
-13470,27	728,00
-13438,50	843,00
-13406,80	801,00
-13375,19	694,00
-13343,66	757,00
-13312,20	729,00
-13280,83	834,00
-13249,53	680,00
-13218,30	697,00
-13187,16	715,00
-13156,09	884,00
-13125,10	768,00
-13094,18	773,00
-13063,34	769,00
-13032,58	676,00
-13001,89	787,00
-12971,28	866,00
-12940,74	723,00
-12910,27	903,00
-12879,88	715,00
-12849,57	873,00
-12819,33	893,00
-12789,16	810,00
-12759,06	722,00
-12729,04	858,00
-12699,09	433,00
-12669,21	826,00
-12639,41	782,00
-12609,68	756,00
-12580,02	842,00
-12550,43	886,00
-12520,91	673,00
-12491,46	729,00
-12462,08	795,00
-12432,77	807,00
-12403,54	757,00
-12374,37	750,00
-12345,27	736,00
-12316,24	852,00
-12287,29	837,00
-12258,40	657,00
-12229,57	715,00
-12200,82	716,00
-12172,14	836,00
-12143,52	738,00
-12114,97	621,00
-12086,49	896,00
-12058,07	724,00
-12029,73	823,00
-12001,44	807,00
-11973,23	775,00
-11945,08	853,00
-11917,00	842,00
-11888,98	787,00
-11861,03	790,00
-11833,15	696,00
-11805,32	882,00
-11777,57	844,00
-11749,88	772,00
-11722,25	746,00
-11694,69	908,00
-11667,19	640,00
-11639,75	968,00
-11612,38	789,00
-11585,07	834,00
-11557,83	750,00
-11530,65	954,00
-11503,53	830,00
-11476,47	838,00
-11449,48	703,00
-11422,54	660,00
-11395,67	825,00
-11368,86	842,00
-11342,11	803,00
-11315,43	820,00
-11288,80	813,00
-11262,23	790,00
-11235,73	896,00
-11209,28	982,00
-11182,90	798,00
-11156,57	816,00
-11130,31	994,00
-11104,10	724,00
-11077,96	753,00
-11051,87	778,00
-11025,84	868,00
-10999,87	784,00
-10973,96	801,00
-10948,11	674,00
-10922,31	779,00
-10896,58	682,00
-10870,90	950,00
-10845,28	921,00
-10819,71	651,00
-10794,20	842,00
-10768,75	878,00
-10743,36	788,00
-10718,02	647,00
-10692,74	860,00
-10667,52	765,00
-10642,35	829,00
-10617,24	926,00
-10592,18	764,00
-10567,18	779,00
-10542,23	792,00
-10517,34	837,00
-10492,51	798,00
-10467,72	838,00
-10443,00	913,00
-10418,32	772,00
-10393,70	889,00
-10369,14	948,00
-10344,63	916,00
-10320,17	1042,00
-10295,77	933,00
-10271,42	980,00
-10247,12	1030,00
-10222,88	1093,00
-10198,68	1004,00
-10174,54	924,00
-10150,46	1121,00
-10126,42	1137,00
-10102,44	1081,00
-10078,51	1155,00
-10054,63	1230,00
-10030,80	1180,00
-10007,03	1327,00
-9983,30	1269,00
-9959,63	1212,00
-9936,01	1432,00
-9912,44	1259,00
-9888,92	1255,00
-9865,44	1452,00
-9842,02	1493,00
-9818,65	1484,00
-9795,33	1376,00
-9772,06	1448,00
-9748,84	1478,00
-9725,67	1637,00
-9702,55	1682,00
-9679,47	2008,00
-9656,45	1995,00
-9633,47	2018,00
-9610,55	2114,00
-9587,67	2114,00
-9564,84	2543,00
-9542,06	2363,00
-9519,32	2673,00
-9496,64	2826,00
-9474,00	2865,00
-9451,41	2890,00
-9428,87	2960,00
-9406,37	2738,00
-9383,92	2575,00
-9361,52	2551,00
-9339,17	2615,00
-9316,86	2916,00
-9294,60	3154,00
-9272,38	3484,00
-9250,21	3697,00
-9228,09	3744,00
-9206,01	3446,00
-9183,98	3260,00
-9162,00	2906,00
-9140,06	2866,00
-9118,16	2718,00
-9096,31	2929,00
-9074,51	2854,00
-9052,75	3002,00
-9031,04	2990,00
-9009,37	2665,00
-8987,74	2421,00
-8966,16	2230,00
-8944,63	2160,00
-8923,14	2142,00
-8901,69	2189,00
-8880,29	2262,00
-8858,93	2425,00
-8837,61	2702,00
-8816,34	2817,00
-8795,11	2813,00
-8773,92	2663,00
-8752,78	2348,00
-8731,68	2481,00
-8710,62	2341,00
-8689,61	2336,00
-8668,63	2466,00
-8647,70	2667,00
-8626,82	2649,00
-8605,97	2550,00
-8585,17	2328,00
-8564,41	2215,00
-8543,69	2178,00
-8523,01	2062,00
-8502,37	2242,00
-8481,78	2122,00
-8461,23	2159,00
-8440,71	2441,00
-8420,24	2352,00
-8399,81	2632,00
-8379,42	2528,00
-8359,08	2374,00
-8338,77	2039,00
-8318,50	2081,00
-8298,27	1946,00
-8278,09	2038,00
-8257,94	2095,00
-8237,83	2365,00
-8217,76	2379,00
-8197,74	2347,00
-8177,75	2384,00
-8157,80	2205,00
-8137,89	2161,00
-8118,02	2168,00
-8098,19	2089,00
-8078,40	2000,00
-8058,65	2234,00
-8038,93	2260,00
-8019,26	2184,00
-7999,62	2188,00
-7980,02	2036,00
-7960,46	2015,00
-7940,94	1837,00
-7921,46	1951,00
-7902,01	1862,00
-7882,60	2020,00
-7863,23	1960,00
-7843,90	2088,00
-7824,61	2261,00
-7805,35	2296,00
-7786,13	2284,00
-7766,95	2204,00
-7747,80	2157,00
-7728,69	1999,00
-7709,62	2068,00
-7690,59	2159,00
-7671,59	2290,00
-7652,63	2173,00
-7633,70	2265,00
-7614,81	2149,00
-7595,96	2031,00
-7577,15	1955,00
-7558,37	1962,00
-7539,62	2106,00
-7520,91	2018,00
-7502,24	2249,00
-7483,60	2384,00
-7465,00	2086,00
-7446,44	1940,00
-7427,91	1788,00
-7409,41	1889,00
-7390,95	1626,00
-7372,53	1544,00
-7354,14	1677,00
-7335,78	1752,00
-7317,46	1713,00
-7299,18	1767,00
-7280,92	1951,00
-7262,71	2198,00
-7244,52	2172,00
-7226,38	2256,00
-7208,26	2175,00
-7190,18	2145,00
-7172,14	1978,00
-7154,12	1885,00
-7136,15	1939,00
-7118,20	2105,00
-7100,29	2234,00
-7082,41	2248,00
-7064,57	2160,00
-7046,76	1988,00
-7028,98	1708,00
-7011,24	1952,00
-6993,53	1501,00
-6975,85	1578,00
-6958,20	1483,00
-6940,59	1294,00
-6923,01	1501,00
-6905,46	1527,00
-6887,94	1699,00
-6870,46	2040,00
-6853,01	2132,00
-6835,59	1910,00
-6818,21	1880,00
-6800,85	1915,00
-6783,53	1592,00
-6766,24	1340,00
-6748,98	1303,00
-6731,76	1232,00
-6714,56	1227,00
-6697,40	1150,00
-6680,26	1191,00
-6663,16	1507,00
-6646,09	1576,00
-6629,05	1777,00
-6612,05	1783,00
-6595,07	1903,00
-6578,13	1718,00
-6561,21	1534,00
-6544,33	1354,00
-6527,47	1235,00
-6510,65	1118,00
-6493,86	1138,00
-6477,10	1122,00
-6460,36	1209,00
-6443,66	1067,00
-6426,99	1192,00
-6410,35	1172,00
-6393,74	1292,00
-6377,16	1400,00
-6360,61	1472,00
-6344,09	1462,00
-6327,59	1403,00
-6311,13	1452,00
-6294,70	1401,00
-6278,29	1501,00
-6261,92	1546,00
-6245,58	1594,00
-6229,26	1671,00
-6212,97	1580,00
-6196,72	1346,00
-6180,49	1259,00
-6164,29	1064,00
-6148,12	1077,00
-6131,98	1061,00
-6115,86	933,00
-6099,78	937,00
-6083,72	950,00
-6067,69	943,00
-6051,69	866,00
-6035,72	910,00
-6019,78	1127,00
-6003,87	1271,00
-5987,98	1409,00
-5972,12	1425,00
-5956,29	1452,00
-5940,49	1274,00
-5924,71	1248,00
-5908,96	1127,00
-5893,24	1049,00
-5877,55	1069,00
-5861,89	971,00
-5846,25	1092,00
-5830,64	1021,00
-5815,05	1015,00
-5799,50	1022,00
-5783,97	1167,00
-5768,47	1218,00
-5752,99	1456,00
-5737,55	1454,00
-5722,12	1548,00
-5706,73	1550,00
-5691,36	1367,00
-5676,02	1265,00
-5660,71	1095,00
-5645,42	1056,00
-5630,16	1153,00
-5614,92	1212,00
-5599,71	1210,00
-5584,53	1353,00
-5569,37	1269,00
-5554,24	1312,00
-5539,14	1117,00
-5524,06	1153,00
-5509,01	1093,00
-5493,98	1149,00
-5478,98	1314,00
-5464,00	1143,00
-5449,05	1200,00
-5434,13	1108,00
-5419,23	926,00
-5404,36	1041,00
-5389,51	1270,00
-5374,69	1436,00
-5359,89	1557,00
-5345,12	1446,00
-5330,37	1512,00
-5315,65	1381,00
-5300,95	1223,00
-5286,28	1061,00
-5271,63	1167,00
-5257,01	1276,00
-5242,41	1291,00
-5227,84	1025,00
-5213,29	1040,00
-5198,76	1011,00
-5184,26	1060,00
-5169,79	1011,00
-5155,33	1180,00
-5140,91	1116,00
-5126,51	1225,00
-5112,13	1293,00
-5097,77	1320,00
-5083,44	1136,00
-5069,13	1023,00
-5054,85	1037,00
-5040,59	991,00
-5026,36	1231,00
-5012,15	1258,00
-4997,96	1180,00
-4983,80	1015,00
-4969,66	1179,00
-4955,54	1000,00
-4941,44	994,00
-4927,37	1283,00
-4913,33	1421,00
-4899,30	1514,00
-4885,30	1528,00
-4871,33	1257,00
-4857,37	1036,00
-4843,44	1017,00
-4829,53	1022,00
-4815,65	1166,00
-4801,79	1002,00
-4787,95	1153,00
-4774,13	1012,00
-4760,34	1078,00
-4746,56	908,00
-4732,82	997,00
-4719,09	960,00
-4705,38	1361,00
-4691,70	1444,00
-4678,04	1444,00
-4664,41	1178,00
-4650,79	1138,00
-4637,20	1004,00
-4623,63	882,00
-4610,08	1165,00
-4596,56	1128,00
-4583,05	1264,00
-4569,57	1086,00
-4556,11	1108,00
-4542,67	718,00
-4529,25	963,00
-4515,86	1136,00
-4502,49	1243,00
-4489,13	1437,00
-4475,80	1208,00
-4462,49	1058,00
-4449,21	1112,00
-4435,94	889,00
-4422,70	1043,00
-4409,47	1005,00
-4396,27	1040,00
-4383,09	1019,00
-4369,93	908,00
-4356,79	901,00
-4343,67	881,00
-4330,58	971,00
-4317,50	969,00
-4304,45	954,00
-4291,41	968,00
-4278,40	780,00
-4265,41	761,00
-4252,44	990,00
-4239,49	1001,00
-4226,55	1117,00
-4213,65	1033,00
-4200,76	986,00
-4187,89	768,00
-4175,04	907,00
-4162,21	857,00
-4149,40	913,00
-4136,61	812,00
-4123,85	806,00
-4111,10	810,00
-4098,37	798,00
-4085,66	886,00
-4072,98	836,00
-4060,31	753,00
-4047,66	915,00
-4035,04	930,00
-4022,43	924,00
-4009,84	999,00
-3997,27	662,00
-3984,72	733,00
-3972,19	815,00
-3959,69	760,00
-3947,20	682,00
-3934,73	761,00
-3922,27	862,00
-3909,84	725,00
-3897,43	717,00
-3885,04	699,00
-3872,67	870,00
-3860,31	690,00
-3847,98	923,00
-3835,66	762,00
-3823,36	726,00
-3811,09	636,00
-3798,83	721,00
-3786,59	738,00
-3774,37	950,00
-3762,17	797,00
-3749,98	806,00
-3737,82	699,00
-3725,67	903,00
-3713,55	693,00
-3701,44	786,00
-3689,35	795,00
-3677,28	728,00
-3665,22	654,00
-3653,19	827,00
-3641,17	828,00
-3629,18	790,00
-3617,20	851,00
-3605,24	882,00
-3593,30	838,00
-3581,37	775,00
-3569,47	965,00
-3557,58	740,00
-3545,71	818,00
-3533,86	643,00
-3522,02	797,00
-3510,21	861,00
-3498,41	718,00
-3486,63	744,00
-3474,87	771,00
-3463,12	799,00
-3451,40	856,00
-3439,69	858,00
-3428,00	827,00
-3416,33	906,00
-3404,67	786,00
-3393,03	839,00
-3381,41	843,00
-3369,81	842,00
-3358,22	797,00
-3346,66	884,00
-3335,10	820,00
-3323,57	770,00
-3312,06	696,00
-3300,56	840,00
-3289,08	746,00
-3277,61	816,00
-3266,16	822,00
-3254,73	849,00
-3243,32	852,00
-3231,92	752,00
-3220,55	741,00
-3209,18	882,00
-3197,84	724,00
-3186,51	624,00
-3175,20	858,00
-3163,90	714,00
-3152,63	816,00
-3141,36	889,00
-3130,12	888,00
-3118,89	721,00
-3107,68	766,00
-3096,49	836,00
-3085,31	823,00
-3074,15	640,00
-3063,00	783,00
-3051,87	839,00
-3040,76	695,00
-3029,67	905,00
-3018,59	983,00
-3007,52	810,00
-2996,48	948,00
-2985,44	765,00
-2974,43	877,00
-2963,43	707,00
-2952,45	824,00
-2941,48	904,00
-2930,53	804,00
-2919,60	773,00
-2908,68	782,00
-2897,78	804,00
-2886,89	839,00
-2876,02	879,00
-2865,17	760,00
-2854,33	699,00
-2843,50	774,00
-2832,70	932,00
-2821,90	832,00
-2811,13	754,00
-2800,37	783,00
-2789,62	906,00
-2778,89	821,00
-2768,18	853,00
-2757,48	822,00
-2746,80	809,00
-2736,13	748,00
-2725,48	842,00
-2714,84	787,00
-2704,22	753,00
-2693,61	663,00
-2683,02	811,00
-2672,45	767,00
-2661,89	914,00
-2651,34	827,00
-2640,81	866,00
-2630,30	945,00
-2619,80	752,00
-2609,31	791,00
-2598,84	732,00
-2588,39	727,00
-2577,95	765,00
-2567,52	677,00
-2557,11	716,00
-2546,71	771,00
-2536,33	763,00
-2525,97	813,00
-2515,62	847,00
-2505,28	921,00
-2494,96	643,00
-2484,65	878,00
-2474,36	1031,00
-2464,08	765,00
-2453,82	759,00
-2443,57	750,00
-2433,33	795,00
-2423,11	817,00
-2412,91	737,00
-2402,72	779,00
-2392,54	654,00
-2382,38	753,00
-2372,23	814,00
-2362,09	1543,00
-2351,97	722,00
-2341,87	843,00
-2331,78	859,00
-2321,70	791,00
-2311,64	802,00
-2301,59	717,00
-2291,55	750,00
-2281,53	829,00
-2271,53	699,00
-2261,53	744,00
-2251,55	852,00
-2241,59	863,00
-2231,64	788,00
-2221,70	723,00
-2211,78	792,00
-2201,87	923,00
-2191,97	863,00
-2182,09	743,00
-2172,22	847,00
-2162,37	734,00
-2152,53	684,00
-2142,70	726,00
-2132,89	697,00
-2123,09	803,00
-2113,30	884,00
-2103,53	699,00
-2093,77	737,00
-2084,02	722,00
-2074,29	747,00
-2064,57	827,00
-2054,86	786,00
-2045,17	731,00
-2035,49	880,00
-2025,82	719,00
-2016,17	644,00
-2006,53	919,00
-1996,91	858,00
-1987,29	633,00
-1977,69	864,00
-1968,11	837,00
-1958,53	779,00
-1948,97	725,00
-1939,42	760,00
-1929,89	631,00
-1920,37	775,00
-1910,86	703,00
-1901,36	840,00
-1891,88	789,00
-1882,41	819,00
-1872,95	774,00
-1863,51	752,00
-1854,08	978,00
-1844,66	871,00
-1835,26	812,00
-1825,86	824,00
-1816,48	754,00
-1807,11	767,00
-1797,76	844,00
-1788,42	872,00
-1779,09	820,00
-1769,77	769,00
-1760,47	948,00
-1751,17	866,00
-1741,89	757,00
-1732,63	878,00
-1723,37	961,00
-1714,13	835,00
-1704,90	797,00
-1695,68	884,00
-1686,48	720,00
-1677,29	835,00
-1668,11	937,00
-1658,94	836,00
-1649,78	788,00
-1640,64	809,00
-1631,51	800,00
-1622,39	848,00
-1613,28	841,00
-1604,19	856,00
-1595,10	818,00
-1586,03	669,00
-1576,97	879,00
-1567,93	777,00
-1558,89	805,00
-1549,87	795,00
-1540,86	813,00
-1531,86	798,00
-1522,87	753,00
-1513,90	1062,00
-1504,93	848,00
-1495,98	772,00
-1487,04	783,00
-1478,12	802,00
-1469,20	856,00
-1460,30	839,00
-1451,40	924,00
-1442,52	839,00
-1433,65	758,00
-1424,80	804,00
-1415,95	734,00
-1407,12	891,00
-1398,30	802,00
-1389,48	780,00
-1380,69	770,00
-1371,90	812,00
-1363,12	822,00
-1354,36	840,00
-1345,60	764,00
-1336,86	859,00
-1328,13	894,00
-1319,41	816,00
-1310,70	769,00
-1302,01	779,00
-1293,32	807,00
-1284,65	879,00
-1275,99	820,00
-1267,33	868,00
-1258,69	736,00
-1250,06	789,00
-1241,45	741,00
-1232,84	748,00
-1224,25	871,00
-1215,66	779,00
-1207,09	853,00
-1198,53	869,00
-1189,97	765,00
-1181,43	721,00
-1172,91	965,00
-1164,39	949,00
-1155,88	724,00
-1147,38	708,00
-1138,90	683,00
-1130,43	790,00
-1121,96	758,00
-1113,51	865,00
-1105,07	824,00
-1096,64	794,00
-1088,22	866,00
-1079,81	855,00
-1071,41	783,00
-1063,02	737,00
-1054,65	800,00
-1046,28	774,00
-1037,92	897,00
-1029,58	682,00
-1021,24	898,00
-1012,92	1061,00
-1004,61	815,00
-996,30	1089,00
-988,01	588,00
-979,73	835,00
-971,46	845,00
-963,20	699,00
-954,95	762,00
-946,71	805,00
-938,48	728,00
-930,26	757,00
-922,06	766,00
-913,86	890,00
-905,67	803,00
-897,49	780,00
-889,33	711,00
-881,17	834,00
-873,02	801,00
-864,89	787,00
-856,76	761,00
-848,65	775,00
-840,54	794,00
-832,45	961,00
-824,36	725,00
-816,29	875,00
-808,22	873,00
-800,17	846,00
-792,12	924,00
-784,09	929,00
-776,06	714,00
-768,05	915,00
-760,04	786,00
-752,05	811,00
-744,07	890,00
-736,09	804,00
-728,13	732,00
-720,17	710,00
-712,23	796,00
-704,29	813,00
-696,37	787,00
-688,45	922,00
-680,55	775,00
-672,65	779,00
-664,77	881,00
-656,89	762,00
-649,03	725,00
-641,17	803,00
-633,32	827,00
-625,49	846,00
-617,66	879,00
-609,84	850,00
-602,03	852,00
-594,23	784,00
-586,45	763,00
-578,67	864,00
-570,90	811,00
-563,14	749,00
-555,39	775,00
-547,65	857,00
-539,91	760,00
-532,19	720,00
-524,48	826,00
-516,78	742,00
-509,08	857,00
-501,40	809,00
-493,72	776,00
-486,06	780,00
-478,40	924,00
-470,76	883,00
-463,12	730,00
-455,49	777,00
-447,87	749,00
-440,26	750,00
-432,66	617,00
-425,07	741,00
-417,49	765,00
-409,92	715,00
-402,35	745,00
-394,80	758,00
-387,25	890,00
-379,72	749,00
-372,19	752,00
-364,67	805,00
-357,17	840,00
-349,67	716,00
-342,18	845,00
-334,69	869,00
-327,22	759,00
-319,76	758,00
-312,30	828,00
-304,86	898,00
-297,42	769,00
-290,00	793,00
-282,58	774,00
-275,17	813,00
-267,77	847,00
-260,37	950,00
-252,99	784,00
-245,62	800,00
-238,25	752,00
-230,90	834,00
-223,55	924,00
-216,21	884,00
-208,88	895,00
-201,56	932,00
-194,25	880,00
-186,94	1054,00
-179,65	993,00
-172,36	955,00
-165,08	1070,00
-157,81	1079,00
-150,55	1209,00
-143,30	1171,00
-136,06	1143,00
-128,82	1329,00
-121,60	1357,00
-114,38	1342,00
-107,17	1380,00
-99,97	1568,00
-92,78	1596,00
-85,60	1708,00
-78,42	1891,00
-71,25	2114,00
-64,10	2378,00
-56,95	2543,00
-49,81	2957,00
-42,67	3496,00
-35,55	4173,00
-28,43	5251,00
-21,33	8338,00
-14,23	26913,00
-7,14	56239,00
-0,05	55969,00
7,02	55668,00
14,09	55972,00
21,14	21091,00
28,19	9262,00
35,23	6216,00
42,27	4883,00
49,29	4054,00
56,31	3564,00
63,32	3197,00
70,32	2670,00
77,31	2329,00
84,29	2120,00
91,27	1980,00
98,23	1963,00
105,19	1783,00
112,14	1898,00
119,09	2162,00
126,02	2744,00
132,95	2959,00
139,87	2966,00
146,78	2953,00
153,68	2774,00
160,58	2829,00
167,46	2737,00
174,34	2750,00
181,21	2723,00
188,08	2770,00
194,93	2620,00
201,78	2765,00
208,62	2686,00
215,45	2517,00
222,27	2608,00
229,09	2750,00
235,90	2486,00
242,70	2572,00
249,49	2621,00
256,27	2622,00
263,05	2561,00
269,82	2456,00
276,58	2453,00
283,33	2556,00
290,08	2508,00
296,82	2420,00
303,55	2410,00
310,27	2398,00
316,98	2435,00
323,69	2426,00
330,39	2285,00
337,08	2403,00
343,76	2413,00
350,44	2303,00
357,11	2283,00
363,77	2358,00
370,42	2231,00
377,07	2259,00
383,71	2225,00
390,34	2230,00
396,96	2201,00
403,58	2207,00
410,19	2469,00
416,79	2312,00
423,38	2401,00
429,97	2270,00
436,55	2059,00
443,12	2153,00
449,68	2079,00
456,24	2185,00
462,79	2054,00
469,33	2121,00
475,86	2017,00
482,39	1922,00
488,91	1998,00
495,42	2027,00
501,93	1948,00
508,42	1987,00
514,91	2032,00
521,40	1886,00
527,87	1947,00
534,34	1807,00
540,80	1932,00
547,25	2056,00
553,70	1800,00
560,14	1898,00
566,57	1951,00
573,00	1946,00
579,41	1954,00
585,83	1949,00
592,23	1926,00
598,62	1986,00
605,01	1860,00
611,40	1725,00
617,77	1937,00
624,14	2027,00
630,50	1972,00
636,85	1917,00
643,20	1907,00
649,54	1747,00
655,87	1898,00
662,20	1903,00
668,52	1942,00
674,83	1876,00
681,13	1773,00
687,43	1832,00
693,72	1741,00
700,00	1703,00
706,28	1850,00
712,55	1802,00
718,81	1765,00
725,07	1674,00
731,32	1762,00
737,56	1650,00
743,79	1777,00
750,02	1781,00
756,24	1657,00
762,46	1752,00
768,67	1963,00
774,87	1789,00
781,06	1603,00
787,25	1725,00
793,43	1791,00
799,60	1711,00
805,77	1855,00
811,93	1806,00
818,08	1670,00
824,23	1676,00
830,37	1872,00
836,50	1786,00
842,63	1692,00
848,75	1795,00
854,87	1687,00
860,97	1742,00
867,07	1734,00
873,17	1803,00
879,25	1764,00
885,33	1736,00
891,41	1713,00
897,47	1767,00
903,53	1728,00
909,59	1680,00
915,63	1696,00
921,67	1679,00
927,71	1750,00
933,74	1665,00
939,76	1560,00
945,77	1563,00
951,78	1800,00
957,78	1630,00
963,78	1687,00
969,77	1650,00
975,75	1576,00
981,72	1620,00
987,69	2498,00
993,66	1510,00
999,61	1603,00
1005,56	1779,00
1011,51	1644,00
1017,44	1597,00
1023,37	1630,00
1029,30	1570,00
1035,22	1704,00
1041,13	1540,00
1047,03	1659,00
1052,93	1734,00
1058,83	1891,00
1064,71	1959,00
1070,59	1885,00
1076,47	1757,00
1082,33	1752,00
1088,20	1682,00
1094,05	1617,00
1099,90	1560,00
1105,74	1530,00
1111,58	1519,00
1117,41	1686,00
1123,23	1821,00
1129,05	1917,00
1134,86	1871,00
1140,67	1714,00
1146,47	1604,00
1152,26	1516,00
1158,05	1407,00
1163,83	1671,00
1169,60	1500,00
1175,37	1604,00
1181,13	1537,00
1186,89	1597,00
1192,64	1540,00
1198,38	1530,00
1204,12	1510,00
1209,85	1531,00
1215,58	1670,00
1221,30	1617,00
1227,02	1512,00
1232,72	1525,00
1238,43	1413,00
1244,12	1499,00
1249,81	1573,00
1255,50	1628,00
1261,17	1683,00
1266,85	1620,00
1272,51	1563,00
1278,17	1618,00
1283,83	1668,00
1289,47	1959,00
1295,12	2252,00
1300,75	2049,00
1306,38	1887,00
1312,01	1790,00
1317,63	1618,00
1323,24	1618,00
1328,85	1676,00
1334,45	1631,00
1340,04	1669,00
1345,63	1702,00
1351,22	1756,00
1356,80	1607,00
1362,37	1569,00
1367,93	1604,00
1373,49	1629,00
1379,05	1573,00
1384,60	1680,00
1390,14	1667,00
1395,68	1675,00
1401,21	1590,00
1406,74	1689,00
1412,26	1803,00
1417,77	1848,00
1423,28	1837,00
1428,78	1970,00
1434,28	2123,00
1439,77	2165,00
1445,26	2258,00
1450,74	2391,00
1456,22	2143,00
1461,68	2093,00
1467,15	2071,00
1472,61	1779,00
1478,06	1811,00
1483,51	1659,00
1488,95	1526,00
1494,38	1680,00
1499,81	1465,00
1505,24	1519,00
1510,65	1454,00
1516,07	1465,00
1521,48	1399,00
1526,88	1462,00
1532,27	1470,00
1537,67	1387,00
1543,05	1544,00
1548,43	1494,00
1553,81	1464,00
1559,18	1315,00
1564,54	1404,00
1569,90	1389,00
1575,25	1435,00
1580,60	1409,00
1585,94	1391,00
1591,28	1372,00
1596,61	1194,00
1601,93	1314,00
1607,25	1402,00
1612,57	1321,00
1617,88	1508,00
1623,18	1519,00
1628,48	1458,00
1633,77	1402,00
1639,06	1490,00
1644,34	1314,00
1649,62	1351,00
1654,89	1365,00
1660,16	1290,00
1665,42	1386,00
1670,67	1281,00
1675,92	1177,00
1681,17	1304,00
1686,41	1350,00
1691,64	1447,00
1696,87	1301,00
1702,10	1302,00
1707,32	1295,00
1712,53	1247,00
1717,74	1279,00
1722,94	1283,00
1728,14	1246,00
1733,33	1142,00
1738,52	1307,00
1743,70	1306,00
1748,88	1206,00
1754,05	1339,00
1759,22	1279,00
1764,38	2841,00
1769,53	1246,00
1774,69	1485,00
1779,83	1406,00
1784,97	1221,00
1790,11	1250,00
1795,24	1273,00
1800,36	1227,00
1805,48	1269,00
1810,60	1228,00
1815,71	1213,00
1820,82	1192,00
1825,92	1181,00
1831,01	1218,00
1836,10	1197,00
1841,19	1146,00
1846,26	1090,00
1851,34	1147,00
1856,41	1196,00
1861,47	1138,00
1866,53	1090,00
1871,59	1193,00
1876,64	1284,00
1881,68	1268,00
1886,72	1219,00
1891,76	1200,00
1896,79	1127,00
1901,81	1194,00
1906,83	1139,00
1911,85	1048,00
1916,86	1220,00
1921,86	1195,00
1926,86	1171,00
1931,86	1082,00
1936,85	1066,00
1941,83	1219,00
1946,81	1146,00
1951,79	1164,00
1956,76	1139,00
1961,72	1112,00
1966,68	991,00
1971,64	993,00
1976,59	1193,00
1981,54	974,00
1986,48	1134,00
1991,42	1053,00
1996,35	1286,00
2001,27	1068,00
2006,20	957,00
2011,11	1122,00
2016,03	854,00
2020,93	897,00
2025,84	1025,00
2030,73	1078,00
2035,63	1126,00
2040,52	1098,00
2045,40	983,00
2050,28	992,00
2055,15	1025,00
2060,02	997,00
2064,89	1030,00
2069,75	1134,00
2074,60	1168,00
2079,46	1065,00
2084,30	938,00
2089,14	1008,00
2093,98	1107,00
2098,81	1184,00
2103,64	988,00
2108,46	1142,00
2113,28	999,00
2118,09	1014,00
2122,90	1058,00
2127,70	1110,00
2132,50	1185,00
2137,30	1039,00
2142,09	967,00
2146,87	947,00
2151,66	977,00
2156,43	1105,00
2161,20	1086,00
2165,97	969,00
2170,73	985,00
2175,49	1106,00
2180,24	1043,00
2184,99	1069,00
2189,74	1213,00
2194,48	979,00
2199,21	1072,00
2203,94	914,00
2208,67	1030,00
2213,39	893,00
2218,11	1021,00
2222,82	1069,00
2227,53	878,00
2232,23	1004,00
2236,93	972,00
2241,63	1100,00
2246,32	929,00
2251,00	961,00
2255,68	1059,00
2260,36	1018,00
2265,03	1036,00
2269,70	1131,00
2274,36	1036,00
2279,02	968,00
2283,68	1111,00
2288,33	907,00
2292,97	955,00
2297,61	902,00
2302,25	929,00
2306,88	968,00
2311,51	878,00
2316,14	972,00
2320,75	867,00
2325,37	880,00
2329,98	993,00
2334,59	803,00
2339,19	1005,00
2343,79	823,00
2348,38	976,00
2352,97	913,00
2357,55	990,00
2362,13	1002,00
2366,71	875,00
2371,28	1018,00
2375,85	942,00
2380,41	993,00
2384,97	1002,00
2389,52	889,00
2394,07	1002,00
2398,62	1003,00
2403,16	990,00
2407,70	950,00
2412,23	1029,00
2416,76	1006,00
2421,29	936,00
2425,81	1054,00
2430,32	943,00
2434,84	874,00
2439,34	979,00
2443,85	1071,00
2448,35	875,00
2452,84	898,00
2457,33	1103,00
2461,82	898,00
2466,30	909,00
2470,78	986,00
2475,25	1046,00
2479,72	933,00
2484,19	1050,00
2488,65	968,00
2493,11	888,00
2497,56	1073,00
2502,01	842,00
2506,46	1050,00
2510,90	908,00
2515,34	981,00
2519,77	860,00
2524,20	878,00
2528,62	895,00
2533,04	1004,00
2537,46	972,00
2541,87	849,00
2546,28	870,00
2550,68	900,00
2555,08	793,00
2559,48	878,00
2563,87	1027,00
2568,26	852,00
2572,64	1000,00
2577,02	944,00
2581,40	810,00
2585,77	932,00
2590,14	833,00
2594,50	797,00
2598,86	811,00
2603,22	901,00
2607,57	915,00
2611,92	986,00
2616,26	953,00
2620,60	911,00
2624,94	847,00
2629,27	996,00
2633,60	923,00
2637,92	1101,00
2642,24	1115,00
2646,56	989,00
2650,87	913,00
2655,18	987,00
2659,48	846,00
2663,78	1023,00
2668,08	978,00
2672,37	932,00
2676,66	952,00
2680,95	1000,00
2685,23	997,00
2689,50	891,00
2693,78	938,00
2698,05	944,00
2702,31	1033,00
2706,57	978,00
2710,83	1049,00
2715,08	951,00
2719,33	1138,00
2723,58	1018,00
2727,82	1014,00
2732,06	938,00
2736,29	973,00
2740,53	939,00
2744,75	844,00
2748,97	1027,00
2753,19	883,00
2757,41	1046,00
2761,62	1099,00
2765,83	936,00
2770,03	894,00
2774,23	837,00
2778,43	972,00
2782,62	906,00
2786,81	934,00
2791,00	1000,00
2795,18	1013,00
2799,35	1062,00
2803,53	929,00
2807,70	1150,00
2811,86	984,00
2816,03	1201,00
2820,19	1023,00
2824,34	1075,00
2828,49	1123,00
2832,64	1139,00
2836,78	1239,00
2840,92	1441,00
2845,06	1587,00
2849,19	1706,00
2853,32	1651,00
2857,45	1889,00
2861,57	1761,00
2865,69	1681,00
2869,80	1730,00
2873,91	1776,00
2878,02	1829,00
2882,12	1863,00
2886,22	1765,00
2890,32	1861,00
2894,41	1737,00
2898,50	1593,00
2902,58	1566,00
2906,67	1543,00
2910,74	1502,00
2914,82	1358,00
2918,89	1485,00
2922,96	1461,00
2927,02	1243,00
2931,08	1210,00
2935,13	1205,00
2939,19	1188,00
2943,24	1239,00
2947,28	1255,00
2951,32	1152,00
2955,36	1020,00
2959,40	1196,00
2963,43	1101,00
2967,46	987,00
2971,48	1067,00
2975,50	940,00
2979,52	1047,00
2983,53	963,00
2987,54	1003,00
2991,55	989,00
2995,55	865,00
2999,55	885,00
3003,54	784,00
3007,54	959,00
3011,53	884,00
3015,51	876,00
3019,49	961,00
3023,47	748,00
3027,45	795,00
3031,42	931,00
3035,39	772,00
3039,35	896,00
3043,31	890,00
3047,27	801,00
3051,22	1057,00
3055,17	906,00
3059,12	906,00
3063,06	796,00
3067,00	762,00
3070,94	775,00
3074,87	925,00
3078,80	812,00
3082,73	782,00
3086,65	824,00
3090,57	794,00
3094,49	776,00
3098,40	681,00
3102,31	749,00
3106,22	759,00
3110,12	887,00
3114,02	788,00
3117,92	854,00
3121,81	857,00
3125,70	796,00
3129,58	763,00
3133,47	725,00
3137,34	869,00
3141,22	850,00
3145,09	918,00
3148,96	814,00
3152,83	807,00
3156,69	915,00
3160,55	808,00
3164,40	972,00
3168,26	880,00
3172,10	827,00
3175,95	781,00
3179,79	868,00
3183,63	883,00
3187,47	802,00
3191,30	797,00
3195,13	813,00
3198,95	553,00
3202,78	813,00
3206,60	679,00
3210,41	786,00
3214,23	856,00
3218,03	672,00
3221,84	888,00
3225,64	855,00
3229,44	711,00
3233,24	778,00
3237,03	925,00
3240,82	793,00
3244,61	766,00
3248,39	766,00
3252,17	786,00
3255,95	839,00
3259,72	835,00
3263,49	1014,00
3267,26	740,00
3271,03	729,00
3274,79	663,00
3278,54	791,00
3282,30	710,00
3286,05	776,00
3289,80	890,00
3293,54	869,00
3297,29	808,00
3301,02	799,00
3304,76	755,00
3308,49	767,00
3312,22	717,00
3315,95	817,00
3319,67	794,00
3323,39	928,00
3327,10	830,00
3330,82	702,00
3334,53	704,00
3338,24	920,00
3341,94	861,00
3345,64	784,00
3349,34	701,00
3353,03	790,00
3356,72	819,00
3360,41	950,00
3364,10	840,00
3367,78	724,00
3371,46	848,00
3375,13	799,00
3378,81	784,00
3382,48	639,00
3386,14	925,00
3389,81	747,00
3393,47	795,00
3397,12	854,00
3400,78	839,00
3404,43	708,00
3408,08	821,00
3411,72	773,00
3415,36	815,00
3419,00	858,00
3422,64	719,00
3426,27	835,00
3429,90	714,00
3433,53	790,00
3437,15	736,00
3440,77	730,00
3444,39	745,00
3448,00	715,00
3451,62	743,00
3455,22	732,00
3458,83	695,00
3462,43	890,00
3466,03	713,00
3469,63	847,00
3473,22	776,00
3476,81	857,00
3480,40	717,00
3483,99	738,00
3487,57	893,00
3491,15	852,00
3494,72	731,00
3498,29	866,00
3501,86	717,00
3505,43	779,00
3508,99	836,00
3512,56	773,00
3516,11	751,00
3519,67	745,00
3523,22	763,00
3526,77	834,00
3530,32	761,00
3533,86	754,00
3537,40	833,00
3540,94	804,00
3544,47	708,00
3548,00	755,00
3551,53	783,00
3555,06	719,00
3558,58	872,00
3562,10	766,00
3565,62	653,00
3569,13	704,00
3572,64	810,00
3576,15	688,00
3579,66	744,00
3583,16	988,00
3586,66	839,00
3590,16	752,00
3593,65	704,00
3597,14	719,00
3600,63	754,00
3604,11	752,00
3607,60	776,00
3611,08	766,00
3614,55	700,00
3618,03	747,00
3621,50	763,00
3624,97	701,00
3628,43	837,00
3631,90	753,00
3635,36	705,00
3638,81	668,00
3642,27	691,00
3645,72	850,00
3649,17	728,00
3652,61	645,00
3656,06	804,00
3659,50	620,00
3662,93	836,00
3666,37	575,00
3669,80	819,00
3673,23	853,00
3676,65	849,00
3680,08	738,00
3683,50	706,00
3686,92	773,00
3690,33	850,00
3693,74	746,00
3697,15	673,00
3700,56	690,00
3703,96	800,00
3707,36	496,00
3710,76	692,00
3714,16	648,00
3717,55	678,00
3720,94	712,00
3724,33	642,00
3727,71	814,00
3731,10	744,00
3734,48	759,00
3737,85	609,00
3741,23	646,00
3744,60	639,00
3747,97	556,00
3751,33	678,00
3754,69	690,00
3758,05	588,00
3761,41	635,00
3764,77	655,00
3768,12	637,00
3771,47	570,00
3774,82	653,00
3778,16	-7,00
3781,50	10,00
3784,84	11,00
3788,18	3,00
>>>>>End Processed Spectral Data<<<<<
