SpectraSuite Data File
++++++++++++++++++++++++++++++++++++
Date: Tue Mar 03 10:56:05 ICT 2026
User: user
Dark Spectrum Present: Yes
Reference Spectrum Present: No
Number of Sampled Component Spectra: 1
Spectrometers: MAYP113682
Integration Time (usec): 3000000 (MAYP113682)
Spectra Averaged: 1 (MAYP113682)
Boxcar Smoothing: 0 (MAYP113682)
Correct for Electrical Dark: No (MAYP113682)
Strobe/Lamp Enabled: No (MAYP113682)
Correct for Detector Non-linearity: No (MAYP113682)
Correct for Stray Light: No (MAYP113682)
Number of Pixels in Processed Spectrum: 2068
>>>>>Begin Processed Spectral Data<<<<<
-37534,58	19,00
-37414,56	2,00
-37295,11	7,00
-37176,24	-2,00
-37057,95	502,00
-36940,22	548,00
-36823,05	576,00
-36706,45	670,00
-36590,40	665,00
-36474,90	588,00
-36359,95	735,00
-36245,55	505,00
-36131,68	745,00
-36018,35	656,00
-35905,55	671,00
-35793,29	764,00
-35681,54	713,00
-35570,32	710,00
-35459,62	754,00
-35349,43	796,00
-35239,75	790,00
-35130,58	748,00
-35021,91	642,00
-34913,74	751,00
-34806,07	629,00
-34698,89	687,00
-34592,20	755,00
-34486,00	676,00
-34380,28	640,00
-34275,04	667,00
-34170,27	669,00
-34065,98	759,00
-33962,16	642,00
-33858,81	734,00
-33755,92	736,00
-33653,49	859,00
-33551,52	814,00
-33450,01	787,00
-33348,94	768,00
-33248,33	671,00
-33148,16	651,00
-33048,43	732,00
-32949,14	681,00
-32850,29	833,00
-32751,87	694,00
-32653,89	709,00
-32556,33	732,00
-32459,20	819,00
-32362,49	689,00
-32266,19	705,00
-32170,32	796,00
-32074,86	715,00
-31979,82	819,00
-31885,18	828,00
-31790,95	802,00
-31697,12	732,00
-31603,69	704,00
-31510,67	772,00
-31418,04	743,00
-31325,80	702,00
-31233,95	698,00
-31142,49	759,00
-31051,42	773,00
-30960,73	836,00
-30870,43	818,00
-30780,50	801,00
-30690,95	780,00
-30601,77	881,00
-30512,97	731,00
-30424,53	800,00
-30336,46	752,00
-30248,76	833,00
-30161,42	833,00
-30074,44	734,00
-29987,81	773,00
-29901,55	879,00
-29815,63	792,00
-29730,07	797,00
-29644,86	694,00
-29560,00	897,00
-29475,48	767,00
-29391,30	779,00
-29307,47	706,00
-29223,97	755,00
-29140,81	744,00
-29057,99	728,00
-28975,50	710,00
-28893,34	813,00
-28811,51	617,00
-28730,00	699,00
-28648,82	706,00
-28567,97	902,00
-28487,43	715,00
-28407,21	717,00
-28327,32	753,00
-28247,73	827,00
-28168,46	765,00
-28089,50	847,00
-28010,85	652,00
-27932,51	676,00
-27854,48	886,00
-27776,75	602,00
-27699,32	729,00
-27622,19	926,00
-27545,37	668,00
-27468,84	706,00
-27392,60	801,00
-27316,66	804,00
-27241,01	864,00
-27165,66	666,00
-27090,59	770,00
-27015,81	786,00
-26941,31	931,00
-26867,10	789,00
-26793,17	897,00
-26719,52	827,00
-26646,15	734,00
-26573,06	687,00
-26500,24	762,00
-26427,70	786,00
-26355,43	720,00
-26283,43	799,00
-26211,71	709,00
-26140,25	706,00
-26069,06	886,00
-25998,13	723,00
-25927,46	799,00
-25857,06	734,00
-25786,92	803,00
-25717,04	781,00
-25647,42	914,00
-25578,05	714,00
-25508,94	778,00
-25440,09	941,00
-25371,48	837,00
-25303,13	738,00
-25235,02	717,00
-25167,17	706,00
-25099,56	696,00
-25032,19	670,00
-24965,07	644,00
-24898,20	733,00
-24831,56	783,00
-24765,17	707,00
-24699,01	754,00
-24633,10	682,00
-24567,41	702,00
-24501,97	1005,00
-24436,75	732,00
-24371,77	813,00
-24307,03	707,00
-24242,51	713,00
-24178,22	808,00
-24114,16	727,00
-24050,32	825,00
-23986,71	774,00
-23923,32	715,00
-23860,16	750,00
-23797,22	665,00
-23734,50	643,00
-23672,00	827,00
-23609,71	792,00
-23547,65	820,00
-23485,80	781,00
-23424,16	754,00
-23362,74	787,00
-23301,53	781,00
-23240,54	618,00
-23179,75	702,00
-23119,17	725,00
-23058,80	764,00
-22998,64	770,00
-22938,68	784,00
-22878,93	757,00
-22819,39	723,00
-22760,04	673,00
-22700,90	781,00
-22641,96	702,00
-22583,22	727,00
-22524,68	679,00
-22466,33	789,00
-22408,19	660,00
-22350,23	734,00
-22292,48	785,00
-22234,92	831,00
-22177,55	819,00
-22120,37	918,00
-22063,38	851,00
-22006,58	704,00
-21949,98	765,00
-21893,56	658,00
-21837,33	796,00
-21781,28	747,00
-21725,42	866,00
-21669,74	773,00
-21614,25	747,00
-21558,94	662,00
-21503,81	736,00
-21448,86	762,00
-21394,10	667,00
-21339,51	696,00
-21285,10	722,00
-21230,86	661,00
-21176,81	702,00
-21122,93	660,00
-21069,22	740,00
-21015,69	689,00
-20962,33	921,00
-20909,14	724,00
-20856,13	726,00
-20803,28	829,00
-20750,61	601,00
-20698,10	685,00
-20645,76	782,00
-20593,59	799,00
-20541,59	754,00
-20489,75	695,00
-20438,07	775,00
-20386,56	909,00
-20335,22	763,00
-20284,03	681,00
-20233,01	740,00
-20182,15	711,00
-20131,45	812,00
-20080,91	690,00
-20030,52	783,00
-19980,30	753,00
-19930,23	780,00
-19880,32	844,00
-19830,56	754,00
-19780,96	800,00
-19731,52	762,00
-19682,23	747,00
-19633,09	748,00
-19584,10	714,00
-19535,26	723,00
-19486,58	783,00
-19438,04	796,00
-19389,66	667,00
-19341,42	662,00
-19293,33	816,00
-19245,39	744,00
-19197,60	741,00
-19149,95	762,00
-19102,45	748,00
-19055,09	715,00
-19007,87	823,00
-18960,80	636,00
-18913,87	756,00
-18867,09	742,00
-18820,44	774,00
-18773,94	808,00
-18727,57	795,00
-18681,35	654,00
-18635,26	681,00
-18589,31	627,00
-18543,50	761,00
-18497,83	771,00
-18452,29	751,00
-18406,89	665,00
-18361,63	870,00
-18316,50	777,00
-18271,50	689,00
-18226,63	761,00
-18181,90	759,00
-18137,30	858,00
-18092,84	710,00
-18048,50	729,00
-18004,29	810,00
-17960,22	848,00
-17916,27	730,00
-17872,45	784,00
-17828,76	827,00
-17785,20	731,00
-17741,77	648,00
-17698,46	764,00
-17655,28	626,00
-17612,22	773,00
-17569,29	708,00
-17526,48	756,00
-17483,79	671,00
-17441,23	726,00
-17398,79	613,00
-17356,48	754,00
-17314,28	869,00
-17272,21	792,00
-17230,26	666,00
-17188,42	808,00
-17146,71	702,00
-17105,12	803,00
-17063,64	677,00
-17022,28	731,00
-16981,04	708,00
-16939,92	746,00
-16898,91	819,00
-16858,02	748,00
-16817,25	675,00
-16776,59	749,00
-16736,04	628,00
-16695,61	734,00
-16655,29	759,00
-16615,09	622,00
-16574,99	697,00
-16535,01	755,00
-16495,15	764,00
-16455,39	785,00
-16415,74	661,00
-16376,21	769,00
-16336,78	788,00
-16297,46	733,00
-16258,26	748,00
-16219,16	673,00
-16180,17	700,00
-16141,28	866,00
-16102,51	673,00
-16063,84	715,00
-16025,27	690,00
-15986,82	650,00
-15948,46	668,00
-15910,22	759,00
-15872,07	716,00
-15834,04	572,00
-15796,10	737,00
-15758,27	865,00
-15720,54	658,00
-15682,91	637,00
-15645,39	782,00
-15607,97	728,00
-15570,64	749,00
-15533,42	783,00
-15496,30	695,00
-15459,28	778,00
-15422,36	731,00
-15385,54	752,00
-15348,82	695,00
-15312,19	958,00
-15275,66	782,00
-15239,23	735,00
-15202,90	693,00
-15166,67	669,00
-15130,53	760,00
-15094,48	696,00
-15058,54	719,00
-15022,68	724,00
-14986,93	713,00
-14951,26	759,00
-14915,69	664,00
-14880,22	643,00
-14844,84	675,00
-14809,55	817,00
-14774,35	852,00
-14739,25	728,00
-14704,24	830,00
-14669,32	689,00
-14634,49	646,00
-14599,75	764,00
-14565,10	696,00
-14530,55	834,00
-14496,08	739,00
-14461,70	655,00
-14427,41	634,00
-14393,21	656,00
-14359,10	795,00
-14325,07	677,00
-14291,14	757,00
-14257,29	752,00
-14223,52	767,00
-14189,85	744,00
-14156,26	767,00
-14122,76	679,00
-14089,34	682,00
-14056,01	829,00
-14022,76	803,00
-13989,60	653,00
-13956,52	856,00
-13923,53	743,00
-13890,62	721,00
-13857,79	702,00
-13825,05	769,00
-13792,39	692,00
-13759,81	743,00
-13727,31	734,00
-13694,90	786,00
-13662,57	751,00
-13630,31	656,00
-13598,14	763,00
-13566,05	741,00
-13534,05	715,00
-13502,12	761,00
-13470,27	875,00
-13438,50	732,00
-13406,80	705,00
-13375,19	667,00
-13343,66	638,00
-13312,20	769,00
-13280,83	794,00
-13249,53	714,00
-13218,30	676,00
-13187,16	803,00
-13156,09	751,00
-13125,10	748,00
-13094,18	749,00
-13063,34	768,00
-13032,58	567,00
-13001,89	761,00
-12971,28	822,00
-12940,74	700,00
-12910,27	888,00
-12879,88	671,00
-12849,57	759,00
-12819,33	893,00
-12789,16	752,00
-12759,06	680,00
-12729,04	795,00
-12699,09	288,00
-12669,21	729,00
-12639,41	749,00
-12609,68	753,00
-12580,02	749,00
-12550,43	959,00
-12520,91	585,00
-12491,46	754,00
-12462,08	711,00
-12432,77	688,00
-12403,54	720,00
-12374,37	748,00
-12345,27	827,00
-12316,24	793,00
-12287,29	815,00
-12258,40	671,00
-12229,57	684,00
-12200,82	840,00
-12172,14	792,00
-12143,52	758,00
-12114,97	562,00
-12086,49	824,00
-12058,07	740,00
-12029,73	750,00
-12001,44	697,00
-11973,23	771,00
-11945,08	761,00
-11917,00	660,00
-11888,98	798,00
-11861,03	895,00
-11833,15	652,00
-11805,32	777,00
-11777,57	895,00
-11749,88	808,00
-11722,25	709,00
-11694,69	786,00
-11667,19	597,00
-11639,75	902,00
-11612,38	744,00
-11585,07	784,00
-11557,83	772,00
-11530,65	792,00
-11503,53	791,00
-11476,47	733,00
-11449,48	716,00
-11422,54	726,00
-11395,67	681,00
-11368,86	814,00
-11342,11	720,00
-11315,43	703,00
-11288,80	680,00
-11262,23	715,00
-11235,73	768,00
-11209,28	833,00
-11182,90	825,00
-11156,57	739,00
-11130,31	873,00
-11104,10	736,00
-11077,96	740,00
-11051,87	851,00
-11025,84	800,00
-10999,87	751,00
-10973,96	774,00
-10948,11	654,00
-10922,31	771,00
-10896,58	753,00
-10870,90	953,00
-10845,28	776,00
-10819,71	623,00
-10794,20	802,00
-10768,75	908,00
-10743,36	811,00
-10718,02	712,00
-10692,74	804,00
-10667,52	753,00
-10642,35	800,00
-10617,24	876,00
-10592,18	859,00
-10567,18	847,00
-10542,23	815,00
-10517,34	817,00
-10492,51	851,00
-10467,72	809,00
-10443,00	878,00
-10418,32	968,00
-10393,70	830,00
-10369,14	930,00
-10344,63	942,00
-10320,17	1083,00
-10295,77	952,00
-10271,42	1045,00
-10247,12	984,00
-10222,88	1160,00
-10198,68	1092,00
-10174,54	1075,00
-10150,46	1111,00
-10126,42	1182,00
-10102,44	1142,00
-10078,51	1060,00
-10054,63	1301,00
-10030,80	1297,00
-10007,03	1337,00
-9983,30	1289,00
-9959,63	1286,00
-9936,01	1325,00
-9912,44	1219,00
-9888,92	1305,00
-9865,44	1456,00
-9842,02	1503,00
-9818,65	1650,00
-9795,33	1524,00
-9772,06	1504,00
-9748,84	1540,00
-9725,67	1783,00
-9702,55	1779,00
-9679,47	2107,00
-9656,45	2222,00
-9633,47	2261,00
-9610,55	2339,00
-9587,67	2447,00
-9564,84	2722,00
-9542,06	2528,00
-9519,32	2868,00
-9496,64	2990,00
-9474,00	3035,00
-9451,41	3306,00
-9428,87	3312,00
-9406,37	3110,00
-9383,92	2929,00
-9361,52	2847,00
-9339,17	3022,00
-9316,86	3174,00
-9294,60	3475,00
-9272,38	3823,00
-9250,21	4081,00
-9228,09	4235,00
-9206,01	3989,00
-9183,98	3663,00
-9162,00	3244,00
-9140,06	3081,00
-9118,16	3076,00
-9096,31	3237,00
-9074,51	3232,00
-9052,75	3343,00
-9031,04	3368,00
-9009,37	2847,00
-8987,74	2724,00
-8966,16	2386,00
-8944,63	2404,00
-8923,14	2361,00
-8901,69	2280,00
-8880,29	2550,00
-8858,93	2731,00
-8837,61	3014,00
-8816,34	3030,00
-8795,11	3059,00
-8773,92	2802,00
-8752,78	2639,00
-8731,68	2577,00
-8710,62	2482,00
-8689,61	2526,00
-8668,63	2764,00
-8647,70	3039,00
-8626,82	2861,00
-8605,97	2792,00
-8585,17	2652,00
-8564,41	2549,00
-8543,69	2440,00
-8523,01	2233,00
-8502,37	2408,00
-8481,78	2414,00
-8461,23	2468,00
-8440,71	2599,00
-8420,24	2738,00
-8399,81	2794,00
-8379,42	2848,00
-8359,08	2583,00
-8338,77	2293,00
-8318,50	2280,00
-8298,27	2113,00
-8278,09	2303,00
-8257,94	2464,00
-8237,83	2522,00
-8217,76	2760,00
-8197,74	2611,00
-8177,75	2638,00
-8157,80	2375,00
-8137,89	2337,00
-8118,02	2186,00
-8098,19	2280,00
-8078,40	2129,00
-8058,65	2465,00
-8038,93	2472,00
-8019,26	2449,00
-7999,62	2404,00
-7980,02	2322,00
-7960,46	2190,00
-7940,94	2184,00
-7921,46	2232,00
-7902,01	2019,00
-7882,60	2224,00
-7863,23	2123,00
-7843,90	2167,00
-7824,61	2343,00
-7805,35	2448,00
-7786,13	2386,00
-7766,95	2428,00
-7747,80	2310,00
-7728,69	2179,00
-7709,62	2164,00
-7690,59	2287,00
-7671,59	2458,00
-7652,63	2454,00
-7633,70	2501,00
-7614,81	2499,00
-7595,96	2170,00
-7577,15	2110,00
-7558,37	2143,00
-7539,62	2337,00
-7520,91	2360,00
-7502,24	2426,00
-7483,60	2593,00
-7465,00	2404,00
-7446,44	2196,00
-7427,91	1964,00
-7409,41	2032,00
-7390,95	1707,00
-7372,53	1669,00
-7354,14	1808,00
-7335,78	1700,00
-7317,46	1915,00
-7299,18	2020,00
-7280,92	2138,00
-7262,71	2433,00
-7244,52	2412,00
-7226,38	2423,00
-7208,26	2396,00
-7190,18	2345,00
-7172,14	2064,00
-7154,12	2203,00
-7136,15	2122,00
-7118,20	2385,00
-7100,29	2442,00
-7082,41	2401,00
-7064,57	2377,00
-7046,76	2169,00
-7028,98	1998,00
-7011,24	2112,00
-6993,53	1652,00
-6975,85	1623,00
-6958,20	1537,00
-6940,59	1526,00
-6923,01	1585,00
-6905,46	1686,00
-6887,94	1829,00
-6870,46	2238,00
-6853,01	2285,00
-6835,59	2135,00
-6818,21	2059,00
-6800,85	2020,00
-6783,53	1644,00
-6766,24	1525,00
-6748,98	1294,00
-6731,76	1258,00
-6714,56	1439,00
-6697,40	1230,00
-6680,26	1221,00
-6663,16	1537,00
-6646,09	1711,00
-6629,05	1887,00
-6612,05	1895,00
-6595,07	2138,00
-6578,13	1939,00
-6561,21	1536,00
-6544,33	1394,00
-6527,47	1343,00
-6510,65	1223,00
-6493,86	1194,00
-6477,10	1212,00
-6460,36	1301,00
-6443,66	1184,00
-6426,99	1071,00
-6410,35	1158,00
-6393,74	1356,00
-6377,16	1436,00
-6360,61	1528,00
-6344,09	1520,00
-6327,59	1642,00
-6311,13	1579,00
-6294,70	1563,00
-6278,29	1681,00
-6261,92	1714,00
-6245,58	1852,00
-6229,26	1767,00
-6212,97	1766,00
-6196,72	1641,00
-6180,49	1470,00
-6164,29	1016,00
-6148,12	1058,00
-6131,98	1032,00
-6115,86	917,00
-6099,78	1041,00
-6083,72	931,00
-6067,69	870,00
-6051,69	954,00
-6035,72	931,00
-6019,78	1170,00
-6003,87	1324,00
-5987,98	1565,00
-5972,12	1573,00
-5956,29	1662,00
-5940,49	1408,00
-5924,71	1336,00
-5908,96	1218,00
-5893,24	1081,00
-5877,55	1146,00
-5861,89	1063,00
-5846,25	1111,00
-5830,64	1152,00
-5815,05	1142,00
-5799,50	1025,00
-5783,97	1210,00
-5768,47	1277,00
-5752,99	1421,00
-5737,55	1428,00
-5722,12	1486,00
-5706,73	1587,00
-5691,36	1446,00
-5676,02	1250,00
-5660,71	1087,00
-5645,42	1114,00
-5630,16	1206,00
-5614,92	1202,00
-5599,71	1361,00
-5584,53	1426,00
-5569,37	1285,00
-5554,24	2304,00
-5539,14	1114,00
-5524,06	1224,00
-5509,01	1081,00
-5493,98	1230,00
-5478,98	1363,00
-5464,00	1124,00
-5449,05	1112,00
-5434,13	1108,00
-5419,23	1084,00
-5404,36	1047,00
-5389,51	1288,00
-5374,69	1594,00
-5359,89	1726,00
-5345,12	1639,00
-5330,37	1588,00
-5315,65	1514,00
-5300,95	1340,00
-5286,28	1148,00
-5271,63	1219,00
-5257,01	1297,00
-5242,41	1329,00
-5227,84	1194,00
-5213,29	1039,00
-5198,76	919,00
-5184,26	1047,00
-5169,79	1036,00
-5155,33	1263,00
-5140,91	1265,00
-5126,51	1313,00
-5112,13	1346,00
-5097,77	1341,00
-5083,44	1122,00
-5069,13	1003,00
-5054,85	1103,00
-5040,59	1054,00
-5026,36	1282,00
-5012,15	1275,00
-4997,96	1236,00
-4983,80	1124,00
-4969,66	1155,00
-4955,54	927,00
-4941,44	1046,00
-4927,37	1313,00
-4913,33	1494,00
-4899,30	1534,00
-4885,30	1619,00
-4871,33	1377,00
-4857,37	962,00
-4843,44	923,00
-4829,53	1014,00
-4815,65	1102,00
-4801,79	1030,00
-4787,95	1109,00
-4774,13	977,00
-4760,34	1068,00
-4746,56	905,00
-4732,82	959,00
-4719,09	1031,00
-4705,38	1285,00
-4691,70	1502,00
-4678,04	1580,00
-4664,41	1222,00
-4650,79	1277,00
-4637,20	1001,00
-4623,63	948,00
-4610,08	1088,00
-4596,56	1298,00
-4583,05	1284,00
-4569,57	1024,00
-4556,11	1047,00
-4542,67	801,00
-4529,25	888,00
-4515,86	1144,00
-4502,49	1316,00
-4489,13	1458,00
-4475,80	1218,00
-4462,49	1086,00
-4449,21	996,00
-4435,94	852,00
-4422,70	1060,00
-4409,47	1081,00
-4396,27	1111,00
-4383,09	1109,00
-4369,93	1023,00
-4356,79	903,00
-4343,67	860,00
-4330,58	979,00
-4317,50	1087,00
-4304,45	972,00
-4291,41	904,00
-4278,40	789,00
-4265,41	831,00
-4252,44	942,00
-4239,49	947,00
-4226,55	1155,00
-4213,65	1090,00
-4200,76	1002,00
-4187,89	755,00
-4175,04	955,00
-4162,21	809,00
-4149,40	847,00
-4136,61	842,00
-4123,85	796,00
-4111,10	738,00
-4098,37	910,00
-4085,66	910,00
-4072,98	909,00
-4060,31	851,00
-4047,66	868,00
-4035,04	820,00
-4022,43	837,00
-4009,84	882,00
-3997,27	712,00
-3984,72	741,00
-3972,19	782,00
-3959,69	690,00
-3947,20	699,00
-3934,73	713,00
-3922,27	752,00
-3909,84	799,00
-3897,43	705,00
-3885,04	821,00
-3872,67	733,00
-3860,31	772,00
-3847,98	796,00
-3835,66	626,00
-3823,36	705,00
-3811,09	658,00
-3798,83	746,00
-3786,59	717,00
-3774,37	956,00
-3762,17	798,00
-3749,98	760,00
-3737,82	657,00
-3725,67	893,00
-3713,55	720,00
-3701,44	847,00
-3689,35	770,00
-3677,28	802,00
-3665,22	629,00
-3653,19	727,00
-3641,17	758,00
-3629,18	786,00
-3617,20	793,00
-3605,24	816,00
-3593,30	947,00
-3581,37	743,00
-3569,47	874,00
-3557,58	785,00
-3545,71	800,00
-3533,86	677,00
-3522,02	688,00
-3510,21	753,00
-3498,41	768,00
-3486,63	651,00
-3474,87	635,00
-3463,12	717,00
-3451,40	879,00
-3439,69	722,00
-3428,00	766,00
-3416,33	876,00
-3404,67	750,00
-3393,03	744,00
-3381,41	797,00
-3369,81	814,00
-3358,22	734,00
-3346,66	774,00
-3335,10	654,00
-3323,57	644,00
-3312,06	778,00
-3300,56	754,00
-3289,08	675,00
-3277,61	779,00
-3266,16	753,00
-3254,73	827,00
-3243,32	807,00
-3231,92	779,00
-3220,55	749,00
-3209,18	784,00
-3197,84	641,00
-3186,51	553,00
-3175,20	813,00
-3163,90	812,00
-3152,63	808,00
-3141,36	794,00
-3130,12	828,00
-3118,89	680,00
-3107,68	762,00
-3096,49	791,00
-3085,31	779,00
-3074,15	546,00
-3063,00	838,00
-3051,87	741,00
-3040,76	772,00
-3029,67	892,00
-3018,59	912,00
-3007,52	862,00
-2996,48	875,00
-2985,44	796,00
-2974,43	776,00
-2963,43	759,00
-2952,45	730,00
-2941,48	828,00
-2930,53	766,00
-2919,60	760,00
-2908,68	708,00
-2897,78	852,00
-2886,89	831,00
-2876,02	815,00
-2865,17	587,00
-2854,33	585,00
-2843,50	785,00
-2832,70	828,00
-2821,90	811,00
-2811,13	629,00
-2800,37	781,00
-2789,62	819,00
-2778,89	686,00
-2768,18	826,00
-2757,48	728,00
-2746,80	838,00
-2736,13	660,00
-2725,48	833,00
-2714,84	772,00
-2704,22	730,00
-2693,61	668,00
-2683,02	805,00
-2672,45	665,00
-2661,89	878,00
-2651,34	736,00
-2640,81	848,00
-2630,30	900,00
-2619,80	829,00
-2609,31	780,00
-2598,84	787,00
-2588,39	634,00
-2577,95	690,00
-2567,52	719,00
-2557,11	614,00
-2546,71	709,00
-2536,33	788,00
-2525,97	781,00
-2515,62	822,00
-2505,28	844,00
-2494,96	658,00
-2484,65	790,00
-2474,36	1017,00
-2464,08	799,00
-2453,82	748,00
-2443,57	726,00
-2433,33	751,00
-2423,11	804,00
-2412,91	764,00
-2402,72	699,00
-2392,54	705,00
-2382,38	754,00
-2372,23	734,00
-2362,09	-2451,00
-2351,97	846,00
-2341,87	734,00
-2331,78	893,00
-2321,70	769,00
-2311,64	781,00
-2301,59	702,00
-2291,55	685,00
-2281,53	757,00
-2271,53	753,00
-2261,53	664,00
-2251,55	822,00
-2241,59	823,00
-2231,64	698,00
-2221,70	734,00
-2211,78	738,00
-2201,87	871,00
-2191,97	770,00
-2182,09	763,00
-2172,22	830,00
-2162,37	798,00
-2152,53	659,00
-2142,70	645,00
-2132,89	699,00
-2123,09	815,00
-2113,30	862,00
-2103,53	704,00
-2093,77	726,00
-2084,02	736,00
-2074,29	687,00
-2064,57	794,00
-2054,86	744,00
-2045,17	757,00
-2035,49	880,00
-2025,82	685,00
-2016,17	718,00
-2006,53	842,00
-1996,91	844,00
-1987,29	584,00
-1977,69	859,00
-1968,11	664,00
-1958,53	748,00
-1948,97	792,00
-1939,42	663,00
-1929,89	625,00
-1920,37	715,00
-1910,86	777,00
-1901,36	767,00
-1891,88	759,00
-1882,41	716,00
-1872,95	757,00
-1863,51	781,00
-1854,08	890,00
-1844,66	696,00
-1835,26	731,00
-1825,86	749,00
-1816,48	746,00
-1807,11	790,00
-1797,76	899,00
-1788,42	819,00
-1779,09	856,00
-1769,77	676,00
-1760,47	904,00
-1751,17	759,00
-1741,89	722,00
-1732,63	846,00
-1723,37	815,00
-1714,13	848,00
-1704,90	660,00
-1695,68	839,00
-1686,48	809,00
-1677,29	743,00
-1668,11	1014,00
-1658,94	737,00
-1649,78	900,00
-1640,64	755,00
-1631,51	745,00
-1622,39	825,00
-1613,28	803,00
-1604,19	853,00
-1595,10	740,00
-1586,03	786,00
-1576,97	819,00
-1567,93	781,00
-1558,89	826,00
-1549,87	766,00
-1540,86	752,00
-1531,86	732,00
-1522,87	799,00
-1513,90	830,00
-1504,93	779,00
-1495,98	807,00
-1487,04	796,00
-1478,12	736,00
-1469,20	809,00
-1460,30	750,00
-1451,40	815,00
-1442,52	768,00
-1433,65	755,00
-1424,80	772,00
-1415,95	665,00
-1407,12	750,00
-1398,30	658,00
-1389,48	788,00
-1380,69	731,00
-1371,90	713,00
-1363,12	865,00
-1354,36	750,00
-1345,60	730,00
-1336,86	827,00
-1328,13	781,00
-1319,41	795,00
-1310,70	657,00
-1302,01	750,00
-1293,32	747,00
-1284,65	778,00
-1275,99	738,00
-1267,33	848,00
-1258,69	699,00
-1250,06	763,00
-1241,45	704,00
-1232,84	788,00
-1224,25	791,00
-1215,66	819,00
-1207,09	763,00
-1198,53	721,00
-1189,97	839,00
-1181,43	768,00
-1172,91	818,00
-1164,39	924,00
-1155,88	748,00
-1147,38	704,00
-1138,90	652,00
-1130,43	721,00
-1121,96	715,00
-1113,51	782,00
-1105,07	737,00
-1096,64	848,00
-1088,22	819,00
-1079,81	811,00
-1071,41	781,00
-1063,02	673,00
-1054,65	779,00
-1046,28	816,00
-1037,92	700,00
-1029,58	739,00
-1021,24	852,00
-1012,92	1066,00
-1004,61	761,00
-996,30	972,00
-988,01	554,00
-979,73	765,00
-971,46	881,00
-963,20	716,00
-954,95	708,00
-946,71	751,00
-938,48	648,00
-930,26	766,00
-922,06	722,00
-913,86	923,00
-905,67	765,00
-897,49	783,00
-889,33	751,00
-881,17	866,00
-873,02	792,00
-864,89	738,00
-856,76	716,00
-848,65	700,00
-840,54	828,00
-832,45	907,00
-824,36	616,00
-816,29	912,00
-808,22	754,00
-800,17	727,00
-792,12	945,00
-784,09	926,00
-776,06	730,00
-768,05	875,00
-760,04	708,00
-752,05	721,00
-744,07	862,00
-736,09	847,00
-728,13	741,00
-720,17	849,00
-712,23	857,00
-704,29	756,00
-696,37	771,00
-688,45	901,00
-680,55	805,00
-672,65	788,00
-664,77	771,00
-656,89	736,00
-649,03	765,00
-641,17	799,00
-633,32	873,00
-625,49	752,00
-617,66	818,00
-609,84	810,00
-602,03	719,00
-594,23	759,00
-586,45	756,00
-578,67	810,00
-570,90	843,00
-563,14	677,00
-555,39	619,00
-547,65	902,00
-539,91	746,00
-532,19	726,00
-524,48	829,00
-516,78	762,00
-509,08	829,00
-501,40	618,00
-493,72	830,00
-486,06	758,00
-478,40	840,00
-470,76	683,00
-463,12	742,00
-455,49	693,00
-447,87	751,00
-440,26	680,00
-432,66	650,00
-425,07	733,00
-417,49	820,00
-409,92	682,00
-402,35	657,00
-394,80	650,00
-387,25	775,00
-379,72	777,00
-372,19	667,00
-364,67	694,00
-357,17	705,00
-349,67	816,00
-342,18	829,00
-334,69	835,00
-327,22	786,00
-319,76	831,00
-312,30	809,00
-304,86	835,00
-297,42	659,00
-290,00	832,00
-282,58	776,00
-275,17	799,00
-267,77	814,00
-260,37	843,00
-252,99	660,00
-245,62	809,00
-238,25	858,00
-230,90	816,00
-223,55	917,00
-216,21	909,00
-208,88	879,00
-201,56	922,00
-194,25	857,00
-186,94	884,00
-179,65	977,00
-172,36	898,00
-165,08	946,00
-157,81	955,00
-150,55	1007,00
-143,30	1013,00
-136,06	1113,00
-128,82	1226,00
-121,60	1320,00
-114,38	1290,00
-107,17	1285,00
-99,97	1451,00
-92,78	1432,00
-85,60	1479,00
-78,42	1775,00
-71,25	1931,00
-64,10	2007,00
-56,95	2211,00
-49,81	2525,00
-42,67	3110,00
-35,55	3488,00
-28,43	4587,00
-21,33	7318,00
-14,23	23047,00
-7,14	56239,00
-0,05	55969,00
7,02	55668,00
14,09	55972,00
21,14	17575,00
28,19	7931,00
35,23	5325,00
42,27	4280,00
49,29	3554,00
56,31	3193,00
63,32	2814,00
70,32	2424,00
77,31	2056,00
84,29	2004,00
91,27	1805,00
98,23	1664,00
105,19	1657,00
112,14	1735,00
119,09	2153,00
126,02	2745,00
132,95	2968,00
139,87	3113,00
146,78	3084,00
153,68	2965,00
160,58	2898,00
167,46	2917,00
174,34	2978,00
181,21	2809,00
188,08	2802,00
194,93	2786,00
201,78	2820,00
208,62	2867,00
215,45	2701,00
222,27	2726,00
229,09	2855,00
235,90	2654,00
242,70	2738,00
249,49	2730,00
256,27	2714,00
263,05	2677,00
269,82	2608,00
276,58	2590,00
283,33	2609,00
290,08	2546,00
296,82	2587,00
303,55	2540,00
310,27	2600,00
316,98	2468,00
323,69	2540,00
330,39	2482,00
337,08	2595,00
343,76	2495,00
350,44	2445,00
357,11	2424,00
363,77	2395,00
370,42	2288,00
377,07	2392,00
383,71	2440,00
390,34	2336,00
396,96	2271,00
403,58	2362,00
410,19	2517,00
416,79	2510,00
423,38	2357,00
429,97	2423,00
436,55	2201,00
443,12	2283,00
449,68	2243,00
456,24	2137,00
462,79	2209,00
469,33	2200,00
475,86	2130,00
482,39	1999,00
488,91	2134,00
495,42	2106,00
501,93	2202,00
508,42	2058,00
514,91	2205,00
521,40	2045,00
527,87	2125,00
534,34	1984,00
540,80	2046,00
547,25	2091,00
553,70	1972,00
560,14	1995,00
566,57	2180,00
573,00	2016,00
579,41	2028,00
585,83	1960,00
592,23	1946,00
598,62	2020,00
605,01	1908,00
611,40	1900,00
617,77	2091,00
624,14	2092,00
630,50	2109,00
636,85	1894,00
643,20	1920,00
649,54	1668,00
655,87	1848,00
662,20	1889,00
668,52	1997,00
674,83	1870,00
681,13	1837,00
687,43	1845,00
693,72	1928,00
700,00	1802,00
706,28	1962,00
712,55	1884,00
718,81	1940,00
725,07	1818,00
731,32	1747,00
737,56	1791,00
743,79	1679,00
750,02	2028,00
756,24	1704,00
762,46	1765,00
768,67	2029,00
774,87	1875,00
781,06	1695,00
787,25	1817,00
793,43	1814,00
799,60	1764,00
805,77	1927,00
811,93	1861,00
818,08	1709,00
824,23	1740,00
830,37	1938,00
836,50	1857,00
842,63	1758,00
848,75	1853,00
854,87	1807,00
860,97	1785,00
867,07	1805,00
873,17	1890,00
879,25	1852,00
885,33	1813,00
891,41	1774,00
897,47	1836,00
903,53	1702,00
909,59	1737,00
915,63	1773,00
921,67	1715,00
927,71	1885,00
933,74	1715,00
939,76	1694,00
945,77	1639,00
951,78	1770,00
957,78	1684,00
963,78	1603,00
969,77	1737,00
975,75	1668,00
981,72	1649,00
987,69	2523,00
993,66	1601,00
999,61	1685,00
1005,56	1617,00
1011,51	1628,00
1017,44	1665,00
1023,37	1703,00
1029,30	1596,00
1035,22	1660,00
1041,13	1588,00
1047,03	1676,00
1052,93	1891,00
1058,83	1987,00
1064,71	2000,00
1070,59	2004,00
1076,47	1853,00
1082,33	1832,00
1088,20	1671,00
1094,05	1679,00
1099,90	1630,00
1105,74	1618,00
1111,58	1597,00
1117,41	1749,00
1123,23	1862,00
1129,05	2044,00
1134,86	1986,00
1140,67	1812,00
1146,47	1705,00
1152,26	1593,00
1158,05	1471,00
1163,83	1746,00
1169,60	1472,00
1175,37	1597,00
1181,13	1524,00
1186,89	1569,00
1192,64	1666,00
1198,38	1632,00
1204,12	1664,00
1209,85	1537,00
1215,58	1650,00
1221,30	1635,00
1227,02	1529,00
1232,72	1569,00
1238,43	1450,00
1244,12	1517,00
1249,81	1658,00
1255,50	1551,00
1261,17	1636,00
1266,85	1513,00
1272,51	1513,00
1278,17	1574,00
1283,83	1708,00
1289,47	2093,00
1295,12	2319,00
1300,75	2146,00
1306,38	1921,00
1312,01	1973,00
1317,63	1835,00
1323,24	1674,00
1328,85	1712,00
1334,45	1744,00
1340,04	1669,00
1345,63	1624,00
1351,22	1780,00
1356,80	1722,00
1362,37	1760,00
1367,93	1604,00
1373,49	1730,00
1379,05	1667,00
1384,60	1674,00
1390,14	1838,00
1395,68	1734,00
1401,21	1707,00
1406,74	1730,00
1412,26	1769,00
1417,77	1837,00
1423,28	1904,00
1428,78	2067,00
1434,28	2125,00
1439,77	2313,00
1445,26	2432,00
1450,74	2286,00
1456,22	2240,00
1461,68	2109,00
1467,15	2127,00
1472,61	1809,00
1478,06	2038,00
1483,51	1772,00
1488,95	1600,00
1494,38	1729,00
1499,81	1533,00
1505,24	1486,00
1510,65	1616,00
1516,07	1495,00
1521,48	1517,00
1526,88	1417,00
1532,27	1538,00
1537,67	1517,00
1543,05	1454,00
1548,43	1460,00
1553,81	1543,00
1559,18	1356,00
1564,54	1485,00
1569,90	1442,00
1575,25	1449,00
1580,60	1400,00
1585,94	1455,00
1591,28	1333,00
1596,61	1336,00
1601,93	1274,00
1607,25	1402,00
1612,57	1407,00
1617,88	1472,00
1623,18	1505,00
1628,48	1426,00
1633,77	1435,00
1639,06	1441,00
1644,34	1313,00
1649,62	1318,00
1654,89	1310,00
1660,16	1270,00
1665,42	1401,00
1670,67	1290,00
1675,92	1298,00
1681,17	1282,00
1686,41	1363,00
1691,64	1462,00
1696,87	1312,00
1702,10	1337,00
1707,32	1314,00
1712,53	1273,00
1717,74	1272,00
1722,94	1360,00
1728,14	1259,00
1733,33	1150,00
1738,52	1317,00
1743,70	1336,00
1748,88	1286,00
1754,05	1371,00
1759,22	1178,00
1764,38	2835,00
1769,53	1288,00
1774,69	1489,00
1779,83	1294,00
1784,97	1207,00
1790,11	1301,00
1795,24	1309,00
1800,36	1229,00
1805,48	1281,00
1810,60	1119,00
1815,71	1188,00
1820,82	1319,00
1825,92	1143,00
1831,01	1195,00
1836,10	1170,00
1841,19	1206,00
1846,26	1078,00
1851,34	1165,00
1856,41	1201,00
1861,47	1148,00
1866,53	1104,00
1871,59	1173,00
1876,64	1236,00
1881,68	1293,00
1886,72	1239,00
1891,76	1149,00
1896,79	1224,00
1901,81	1136,00
1906,83	1165,00
1911,85	1085,00
1916,86	1154,00
1921,86	1139,00
1926,86	1116,00
1931,86	1053,00
1936,85	1068,00
1941,83	1080,00
1946,81	1117,00
1951,79	1027,00
1956,76	1061,00
1961,72	1032,00
1966,68	995,00
1971,64	1058,00
1976,59	1138,00
1981,54	959,00
1986,48	1042,00
1991,42	989,00
1996,35	1276,00
2001,27	1092,00
2006,20	1024,00
2011,11	1144,00
2016,03	1007,00
2020,93	944,00
2025,84	989,00
2030,73	1059,00
2035,63	1106,00
2040,52	1091,00
2045,40	892,00
2050,28	982,00
2055,15	1029,00
2060,02	935,00
2064,89	1006,00
2069,75	1244,00
2074,60	1125,00
2079,46	1073,00
2084,30	960,00
2089,14	1000,00
2093,98	994,00
2098,81	1023,00
2103,64	993,00
2108,46	958,00
2113,28	1050,00
2118,09	972,00
2122,90	967,00
2127,70	1008,00
2132,50	1122,00
2137,30	1038,00
2142,09	977,00
2146,87	946,00
2151,66	997,00
2156,43	1149,00
2161,20	990,00
2165,97	1022,00
2170,73	922,00
2175,49	1029,00
2180,24	960,00
2184,99	1032,00
2189,74	1211,00
2194,48	936,00
2199,21	989,00
2203,94	902,00
2208,67	936,00
2213,39	880,00
2218,11	1030,00
2222,82	1021,00
2227,53	897,00
2232,23	1034,00
2236,93	1088,00
2241,63	1127,00
2246,32	992,00
2251,00	993,00
2255,68	1006,00
2260,36	1029,00
2265,03	1026,00
2269,70	1048,00
2274,36	971,00
2279,02	849,00
2283,68	1035,00
2288,33	932,00
2292,97	916,00
2297,61	905,00
2302,25	902,00
2306,88	842,00
2311,51	824,00
2316,14	1029,00
2320,75	871,00
2325,37	945,00
2329,98	972,00
2334,59	768,00
2339,19	1001,00
2343,79	897,00
2348,38	883,00
2352,97	960,00
2357,55	1029,00
2362,13	976,00
2366,71	902,00
2371,28	893,00
2375,85	1002,00
2380,41	899,00
2384,97	951,00
2389,52	943,00
2394,07	1013,00
2398,62	931,00
2403,16	978,00
2407,70	807,00
2412,23	929,00
2416,76	947,00
2421,29	805,00
2425,81	997,00
2430,32	879,00
2434,84	941,00
2439,34	1017,00
2443,85	1012,00
2448,35	821,00
2452,84	823,00
2457,33	957,00
2461,82	879,00
2466,30	914,00
2470,78	1023,00
2475,25	927,00
2479,72	881,00
2484,19	953,00
2488,65	850,00
2493,11	817,00
2497,56	1080,00
2502,01	745,00
2506,46	1075,00
2510,90	842,00
2515,34	875,00
2519,77	914,00
2524,20	817,00
2528,62	935,00
2533,04	1013,00
2537,46	803,00
2541,87	926,00
2546,28	948,00
2550,68	906,00
2555,08	868,00
2559,48	855,00
2563,87	843,00
2568,26	873,00
2572,64	905,00
2577,02	892,00
2581,40	825,00
2585,77	857,00
2590,14	909,00
2594,50	811,00
2598,86	821,00
2603,22	798,00
2607,57	882,00
2611,92	883,00
2616,26	852,00
2620,60	942,00
2624,94	788,00
2629,27	917,00
2633,60	911,00
2637,92	1039,00
2642,24	970,00
2646,56	874,00
2650,87	910,00
2655,18	994,00
2659,48	801,00
2663,78	913,00
2668,08	906,00
2672,37	939,00
2676,66	986,00
2680,95	958,00
2685,23	959,00
2689,50	838,00
2693,78	938,00
2698,05	917,00
2702,31	916,00
2706,57	982,00
2710,83	1017,00
2715,08	851,00
2719,33	966,00
2723,58	1016,00
2727,82	1032,00
2732,06	904,00
2736,29	980,00
2740,53	998,00
2744,75	969,00
2748,97	972,00
2753,19	945,00
2757,41	983,00
2761,62	1067,00
2765,83	909,00
2770,03	806,00
2774,23	935,00
2778,43	930,00
2782,62	1030,00
2786,81	941,00
2791,00	935,00
2795,18	890,00
2799,35	1000,00
2803,53	974,00
2807,70	1097,00
2811,86	985,00
2816,03	1068,00
2820,19	939,00
2824,34	1041,00
2828,49	1122,00
2832,64	1138,00
2836,78	1318,00
2840,92	1506,00
2845,06	1528,00
2849,19	1791,00
2853,32	1838,00
2857,45	1859,00
2861,57	1813,00
2865,69	1778,00
2869,80	1770,00
2873,91	1737,00
2878,02	1771,00
2882,12	1947,00
2886,22	1778,00
2890,32	1840,00
2894,41	1815,00
2898,50	1791,00
2902,58	1692,00
2906,67	1714,00
2910,74	1540,00
2914,82	1442,00
2918,89	1574,00
2922,96	1489,00
2927,02	1171,00
2931,08	1319,00
2935,13	1259,00
2939,19	1328,00
2943,24	1168,00
2947,28	1242,00
2951,32	1099,00
2955,36	1114,00
2959,40	1210,00
2963,43	1013,00
2967,46	1034,00
2971,48	1035,00
2975,50	857,00
2979,52	1028,00
2983,53	1009,00
2987,54	930,00
2991,55	917,00
2995,55	944,00
2999,55	859,00
3003,54	854,00
3007,54	938,00
3011,53	766,00
3015,51	867,00
3019,49	911,00
3023,47	748,00
3027,45	794,00
3031,42	860,00
3035,39	799,00
3039,35	797,00
3043,31	868,00
3047,27	775,00
3051,22	860,00
3055,17	849,00
3059,12	765,00
3063,06	802,00
3067,00	743,00
3070,94	763,00
3074,87	788,00
3078,80	840,00
3082,73	812,00
3086,65	905,00
3090,57	667,00
3094,49	709,00
3098,40	694,00
3102,31	724,00
3106,22	707,00
3110,12	766,00
3114,02	775,00
3117,92	889,00
3121,81	844,00
3125,70	750,00
3129,58	739,00
3133,47	719,00
3137,34	804,00
3141,22	887,00
3145,09	872,00
3148,96	629,00
3152,83	724,00
3156,69	826,00
3160,55	731,00
3164,40	811,00
3168,26	767,00
3172,10	799,00
3175,95	872,00
3179,79	860,00
3183,63	842,00
3187,47	864,00
3191,30	805,00
3195,13	851,00
3198,95	598,00
3202,78	860,00
3206,60	686,00
3210,41	730,00
3214,23	832,00
3218,03	764,00
3221,84	821,00
3225,64	843,00
3229,44	656,00
3233,24	618,00
3237,03	792,00
3240,82	769,00
3244,61	621,00
3248,39	775,00
3252,17	860,00
3255,95	848,00
3259,72	739,00
3263,49	1012,00
3267,26	663,00
3271,03	687,00
3274,79	647,00
3278,54	740,00
3282,30	738,00
3286,05	726,00
3289,80	848,00
3293,54	843,00
3297,29	754,00
3301,02	708,00
3304,76	754,00
3308,49	787,00
3312,22	709,00
3315,95	781,00
3319,67	741,00
3323,39	828,00
3327,10	870,00
3330,82	740,00
3334,53	639,00
3338,24	791,00
3341,94	768,00
3345,64	795,00
3349,34	714,00
3353,03	746,00
3356,72	879,00
3360,41	825,00
3364,10	738,00
3367,78	819,00
3371,46	817,00
3375,13	832,00
3378,81	712,00
3382,48	679,00
3386,14	854,00
3389,81	667,00
3393,47	842,00
3397,12	860,00
3400,78	920,00
3404,43	647,00
3408,08	696,00
3411,72	708,00
3415,36	745,00
3419,00	793,00
3422,64	791,00
3426,27	800,00
3429,90	695,00
3433,53	702,00
3437,15	710,00
3440,77	685,00
3444,39	705,00
3448,00	885,00
3451,62	767,00
3455,22	704,00
3458,83	671,00
3462,43	824,00
3466,03	649,00
3469,63	687,00
3473,22	662,00
3476,81	708,00
3480,40	819,00
3483,99	648,00
3487,57	822,00
3491,15	776,00
3494,72	793,00
3498,29	795,00
3501,86	701,00
3505,43	781,00
3508,99	663,00
3512,56	852,00
3516,11	751,00
3519,67	702,00
3523,22	817,00
3526,77	736,00
3530,32	853,00
3533,86	789,00
3537,40	775,00
3540,94	839,00
3544,47	612,00
3548,00	647,00
3551,53	880,00
3555,06	666,00
3558,58	802,00
3562,10	833,00
3565,62	727,00
3569,13	732,00
3572,64	776,00
3576,15	708,00
3579,66	634,00
3583,16	926,00
3586,66	817,00
3590,16	758,00
3593,65	717,00
3597,14	714,00
3600,63	722,00
3604,11	740,00
3607,60	612,00
3611,08	694,00
3614,55	794,00
3618,03	750,00
3621,50	694,00
3624,97	633,00
3628,43	773,00
3631,90	669,00
3635,36	610,00
3638,81	822,00
3642,27	735,00
3645,72	771,00
3649,17	787,00
3652,61	575,00
3656,06	785,00
3659,50	553,00
3662,93	711,00
3666,37	648,00
3669,80	762,00
3673,23	811,00
3676,65	808,00
3680,08	820,00
3683,50	575,00
3686,92	793,00
3690,33	629,00
3693,74	749,00
3697,15	607,00
3700,56	727,00
3703,96	731,00
3707,36	563,00
3710,76	788,00
3714,16	657,00
3717,55	714,00
3720,94	677,00
3724,33	569,00
3727,71	766,00
3731,10	696,00
3734,48	653,00
3737,85	576,00
3741,23	620,00
3744,60	597,00
3747,97	573,00
3751,33	538,00
3754,69	637,00
3758,05	548,00
3761,41	614,00
3764,77	639,00
3768,12	572,00
3771,47	544,00
3774,82	640,00
3778,16	-10,00
3781,50	15,00
3784,84	9,00
3788,18	10,00
>>>>>End Processed Spectral Data<<<<<
