SpectraSuite Data File
++++++++++++++++++++++++++++++++++++
Date: Tue Mar 03 10:32:32 ICT 2026
User: user
Dark Spectrum Present: Yes
Reference Spectrum Present: No
Number of Sampled Component Spectra: 1
Spectrometers: MAYP113682
Integration Time (usec): 3000000 (MAYP113682)
Spectra Averaged: 1 (MAYP113682)
Boxcar Smoothing: 0 (MAYP113682)
Correct for Electrical Dark: No (MAYP113682)
Strobe/Lamp Enabled: No (MAYP113682)
Correct for Detector Non-linearity: No (MAYP113682)
Correct for Stray Light: No (MAYP113682)
Number of Pixels in Processed Spectrum: 2068
>>>>>Begin Processed Spectral Data<<<<<
-37534,58	25,00
-37414,56	0,00
-37295,11	9,00
-37176,24	-1,00
-37057,95	527,00
-36940,22	495,00
-36823,05	545,00
-36706,45	660,00
-36590,40	589,00
-36474,90	602,00
-36359,95	640,00
-36245,55	576,00
-36131,68	676,00
-36018,35	670,00
-35905,55	635,00
-35793,29	763,00
-35681,54	665,00
-35570,32	499,00
-35459,62	573,00
-35349,43	691,00
-35239,75	712,00
-35130,58	603,00
-35021,91	618,00
-34913,74	655,00
-34806,07	726,00
-34698,89	625,00
-34592,20	675,00
-34486,00	701,00
-34380,28	763,00
-34275,04	660,00
-34170,27	581,00
-34065,98	642,00
-33962,16	699,00
-33858,81	690,00
-33755,92	736,00
-33653,49	735,00
-33551,52	772,00
-33450,01	672,00
-33348,94	806,00
-33248,33	668,00
-33148,16	596,00
-33048,43	671,00
-32949,14	744,00
-32850,29	711,00
-32751,87	618,00
-32653,89	764,00
-32556,33	739,00
-32459,20	651,00
-32362,49	665,00
-32266,19	736,00
-32170,32	795,00
-32074,86	664,00
-31979,82	690,00
-31885,18	656,00
-31790,95	806,00
-31697,12	765,00
-31603,69	673,00
-31510,67	836,00
-31418,04	766,00
-31325,80	772,00
-31233,95	777,00
-31142,49	621,00
-31051,42	707,00
-30960,73	778,00
-30870,43	786,00
-30780,50	604,00
-30690,95	656,00
-30601,77	765,00
-30512,97	673,00
-30424,53	607,00
-30336,46	767,00
-30248,76	670,00
-30161,42	573,00
-30074,44	704,00
-29987,81	718,00
-29901,55	721,00
-29815,63	749,00
-29730,07	799,00
-29644,86	647,00
-29560,00	732,00
-29475,48	626,00
-29391,30	645,00
-29307,47	688,00
-29223,97	834,00
-29140,81	692,00
-29057,99	675,00
-28975,50	710,00
-28893,34	884,00
-28811,51	631,00
-28730,00	697,00
-28648,82	661,00
-28567,97	763,00
-28487,43	600,00
-28407,21	731,00
-28327,32	664,00
-28247,73	834,00
-28168,46	731,00
-28089,50	733,00
-28010,85	655,00
-27932,51	681,00
-27854,48	665,00
-27776,75	689,00
-27699,32	599,00
-27622,19	741,00
-27545,37	705,00
-27468,84	787,00
-27392,60	720,00
-27316,66	710,00
-27241,01	748,00
-27165,66	733,00
-27090,59	606,00
-27015,81	783,00
-26941,31	754,00
-26867,10	764,00
-26793,17	870,00
-26719,52	795,00
-26646,15	741,00
-26573,06	708,00
-26500,24	701,00
-26427,70	660,00
-26355,43	716,00
-26283,43	728,00
-26211,71	687,00
-26140,25	773,00
-26069,06	876,00
-25998,13	646,00
-25927,46	706,00
-25857,06	712,00
-25786,92	730,00
-25717,04	675,00
-25647,42	803,00
-25578,05	545,00
-25508,94	766,00
-25440,09	734,00
-25371,48	692,00
-25303,13	705,00
-25235,02	694,00
-25167,17	748,00
-25099,56	733,00
-25032,19	615,00
-24965,07	644,00
-24898,20	560,00
-24831,56	787,00
-24765,17	683,00
-24699,01	655,00
-24633,10	669,00
-24567,41	729,00
-24501,97	814,00
-24436,75	685,00
-24371,77	732,00
-24307,03	716,00
-24242,51	656,00
-24178,22	647,00
-24114,16	614,00
-24050,32	862,00
-23986,71	658,00
-23923,32	682,00
-23860,16	655,00
-23797,22	710,00
-23734,50	752,00
-23672,00	612,00
-23609,71	708,00
-23547,65	664,00
-23485,80	700,00
-23424,16	671,00
-23362,74	726,00
-23301,53	716,00
-23240,54	689,00
-23179,75	756,00
-23119,17	779,00
-23058,80	671,00
-22998,64	698,00
-22938,68	589,00
-22878,93	786,00
-22819,39	622,00
-22760,04	669,00
-22700,90	813,00
-22641,96	646,00
-22583,22	721,00
-22524,68	675,00
-22466,33	648,00
-22408,19	615,00
-22350,23	739,00
-22292,48	641,00
-22234,92	729,00
-22177,55	721,00
-22120,37	817,00
-22063,38	729,00
-22006,58	705,00
-21949,98	691,00
-21893,56	604,00
-21837,33	721,00
-21781,28	730,00
-21725,42	695,00
-21669,74	672,00
-21614,25	694,00
-21558,94	694,00
-21503,81	805,00
-21448,86	710,00
-21394,10	655,00
-21339,51	652,00
-21285,10	662,00
-21230,86	591,00
-21176,81	634,00
-21122,93	686,00
-21069,22	653,00
-21015,69	583,00
-20962,33	663,00
-20909,14	582,00
-20856,13	652,00
-20803,28	743,00
-20750,61	642,00
-20698,10	653,00
-20645,76	629,00
-20593,59	818,00
-20541,59	650,00
-20489,75	618,00
-20438,07	621,00
-20386,56	717,00
-20335,22	691,00
-20284,03	619,00
-20233,01	600,00
-20182,15	652,00
-20131,45	733,00
-20080,91	718,00
-20030,52	632,00
-19980,30	714,00
-19930,23	692,00
-19880,32	793,00
-19830,56	794,00
-19780,96	672,00
-19731,52	745,00
-19682,23	707,00
-19633,09	683,00
-19584,10	646,00
-19535,26	666,00
-19486,58	824,00
-19438,04	688,00
-19389,66	715,00
-19341,42	596,00
-19293,33	732,00
-19245,39	773,00
-19197,60	729,00
-19149,95	734,00
-19102,45	702,00
-19055,09	730,00
-19007,87	691,00
-18960,80	685,00
-18913,87	820,00
-18867,09	586,00
-18820,44	717,00
-18773,94	587,00
-18727,57	804,00
-18681,35	736,00
-18635,26	661,00
-18589,31	624,00
-18543,50	618,00
-18497,83	641,00
-18452,29	668,00
-18406,89	640,00
-18361,63	765,00
-18316,50	621,00
-18271,50	644,00
-18226,63	692,00
-18181,90	708,00
-18137,30	738,00
-18092,84	737,00
-18048,50	729,00
-18004,29	613,00
-17960,22	697,00
-17916,27	688,00
-17872,45	736,00
-17828,76	677,00
-17785,20	714,00
-17741,77	687,00
-17698,46	718,00
-17655,28	678,00
-17612,22	652,00
-17569,29	718,00
-17526,48	672,00
-17483,79	585,00
-17441,23	715,00
-17398,79	611,00
-17356,48	603,00
-17314,28	820,00
-17272,21	692,00
-17230,26	694,00
-17188,42	695,00
-17146,71	726,00
-17105,12	696,00
-17063,64	722,00
-17022,28	658,00
-16981,04	648,00
-16939,92	719,00
-16898,91	785,00
-16858,02	676,00
-16817,25	780,00
-16776,59	615,00
-16736,04	703,00
-16695,61	711,00
-16655,29	642,00
-16615,09	747,00
-16574,99	728,00
-16535,01	704,00
-16495,15	783,00
-16455,39	671,00
-16415,74	597,00
-16376,21	670,00
-16336,78	534,00
-16297,46	620,00
-16258,26	759,00
-16219,16	558,00
-16180,17	588,00
-16141,28	781,00
-16102,51	628,00
-16063,84	628,00
-16025,27	688,00
-15986,82	587,00
-15948,46	635,00
-15910,22	685,00
-15872,07	642,00
-15834,04	699,00
-15796,10	681,00
-15758,27	842,00
-15720,54	692,00
-15682,91	738,00
-15645,39	747,00
-15607,97	676,00
-15570,64	687,00
-15533,42	675,00
-15496,30	646,00
-15459,28	773,00
-15422,36	606,00
-15385,54	650,00
-15348,82	722,00
-15312,19	686,00
-15275,66	679,00
-15239,23	667,00
-15202,90	651,00
-15166,67	588,00
-15130,53	647,00
-15094,48	716,00
-15058,54	785,00
-15022,68	611,00
-14986,93	649,00
-14951,26	604,00
-14915,69	675,00
-14880,22	624,00
-14844,84	726,00
-14809,55	692,00
-14774,35	695,00
-14739,25	713,00
-14704,24	644,00
-14669,32	655,00
-14634,49	624,00
-14599,75	692,00
-14565,10	662,00
-14530,55	725,00
-14496,08	643,00
-14461,70	721,00
-14427,41	626,00
-14393,21	620,00
-14359,10	717,00
-14325,07	656,00
-14291,14	679,00
-14257,29	798,00
-14223,52	715,00
-14189,85	841,00
-14156,26	732,00
-14122,76	616,00
-14089,34	637,00
-14056,01	648,00
-14022,76	691,00
-13989,60	669,00
-13956,52	612,00
-13923,53	703,00
-13890,62	710,00
-13857,79	671,00
-13825,05	637,00
-13792,39	688,00
-13759,81	701,00
-13727,31	626,00
-13694,90	638,00
-13662,57	752,00
-13630,31	798,00
-13598,14	640,00
-13566,05	663,00
-13534,05	672,00
-13502,12	655,00
-13470,27	645,00
-13438,50	729,00
-13406,80	680,00
-13375,19	600,00
-13343,66	570,00
-13312,20	671,00
-13280,83	653,00
-13249,53	731,00
-13218,30	573,00
-13187,16	642,00
-13156,09	839,00
-13125,10	712,00
-13094,18	689,00
-13063,34	881,00
-13032,58	543,00
-13001,89	622,00
-12971,28	776,00
-12940,74	740,00
-12910,27	701,00
-12879,88	743,00
-12849,57	821,00
-12819,33	802,00
-12789,16	647,00
-12759,06	706,00
-12729,04	597,00
-12699,09	2512,00
-12669,21	586,00
-12639,41	668,00
-12609,68	621,00
-12580,02	633,00
-12550,43	816,00
-12520,91	636,00
-12491,46	600,00
-12462,08	718,00
-12432,77	694,00
-12403,54	642,00
-12374,37	698,00
-12345,27	746,00
-12316,24	654,00
-12287,29	691,00
-12258,40	625,00
-12229,57	682,00
-12200,82	726,00
-12172,14	601,00
-12143,52	701,00
-12114,97	666,00
-12086,49	698,00
-12058,07	708,00
-12029,73	590,00
-12001,44	825,00
-11973,23	732,00
-11945,08	714,00
-11917,00	818,00
-11888,98	779,00
-11861,03	729,00
-11833,15	689,00
-11805,32	725,00
-11777,57	775,00
-11749,88	694,00
-11722,25	621,00
-11694,69	603,00
-11667,19	661,00
-11639,75	762,00
-11612,38	679,00
-11585,07	675,00
-11557,83	679,00
-11530,65	764,00
-11503,53	732,00
-11476,47	676,00
-11449,48	639,00
-11422,54	697,00
-11395,67	714,00
-11368,86	742,00
-11342,11	675,00
-11315,43	666,00
-11288,80	593,00
-11262,23	825,00
-11235,73	671,00
-11209,28	735,00
-11182,90	790,00
-11156,57	722,00
-11130,31	849,00
-11104,10	649,00
-11077,96	694,00
-11051,87	632,00
-11025,84	694,00
-10999,87	664,00
-10973,96	646,00
-10948,11	671,00
-10922,31	742,00
-10896,58	823,00
-10870,90	797,00
-10845,28	780,00
-10819,71	619,00
-10794,20	845,00
-10768,75	742,00
-10743,36	799,00
-10718,02	712,00
-10692,74	721,00
-10667,52	680,00
-10642,35	813,00
-10617,24	721,00
-10592,18	815,00
-10567,18	817,00
-10542,23	802,00
-10517,34	795,00
-10492,51	815,00
-10467,72	741,00
-10443,00	726,00
-10418,32	815,00
-10393,70	773,00
-10369,14	920,00
-10344,63	782,00
-10320,17	987,00
-10295,77	816,00
-10271,42	944,00
-10247,12	989,00
-10222,88	1030,00
-10198,68	822,00
-10174,54	938,00
-10150,46	1122,00
-10126,42	1023,00
-10102,44	1116,00
-10078,51	1055,00
-10054,63	1186,00
-10030,80	1106,00
-10007,03	1220,00
-9983,30	1151,00
-9959,63	1137,00
-9936,01	1321,00
-9912,44	1318,00
-9888,92	1241,00
-9865,44	1196,00
-9842,02	1333,00
-9818,65	1409,00
-9795,33	1350,00
-9772,06	1423,00
-9748,84	1500,00
-9725,67	1597,00
-9702,55	1763,00
-9679,47	1956,00
-9656,45	2062,00
-9633,47	2008,00
-9610,55	2174,00
-9587,67	2269,00
-9564,84	2461,00
-9542,06	2495,00
-9519,32	2758,00
-9496,64	2915,00
-9474,00	3007,00
-9451,41	3053,00
-9428,87	3076,00
-9406,37	2927,00
-9383,92	2673,00
-9361,52	2734,00
-9339,17	2715,00
-9316,86	2907,00
-9294,60	3215,00
-9272,38	3618,00
-9250,21	3741,00
-9228,09	3876,00
-9206,01	3672,00
-9183,98	3245,00
-9162,00	3006,00
-9140,06	2936,00
-9118,16	2864,00
-9096,31	2835,00
-9074,51	3042,00
-9052,75	3049,00
-9031,04	2929,00
-9009,37	2744,00
-8987,74	2332,00
-8966,16	2239,00
-8944,63	2061,00
-8923,14	2110,00
-8901,69	2095,00
-8880,29	2143,00
-8858,93	2419,00
-8837,61	2676,00
-8816,34	2760,00
-8795,11	2766,00
-8773,92	2613,00
-8752,78	2375,00
-8731,68	2315,00
-8710,62	2280,00
-8689,61	2447,00
-8668,63	2480,00
-8647,70	2719,00
-8626,82	2752,00
-8605,97	2616,00
-8585,17	2351,00
-8564,41	2201,00
-8543,69	2203,00
-8523,01	2030,00
-8502,37	2281,00
-8481,78	2184,00
-8461,23	2222,00
-8440,71	2341,00
-8420,24	2501,00
-8399,81	2650,00
-8379,42	2487,00
-8359,08	2416,00
-8338,77	2183,00
-8318,50	2024,00
-8298,27	2042,00
-8278,09	2045,00
-8257,94	2165,00
-8237,83	2364,00
-8217,76	2353,00
-8197,74	2346,00
-8177,75	2424,00
-8157,80	2200,00
-8137,89	2177,00
-8118,02	2117,00
-8098,19	2185,00
-8078,40	2071,00
-8058,65	2230,00
-8038,93	2237,00
-8019,26	2204,00
-7999,62	2208,00
-7980,02	2113,00
-7960,46	2082,00
-7940,94	2052,00
-7921,46	2057,00
-7902,01	1946,00
-7882,60	2010,00
-7863,23	1930,00
-7843,90	1972,00
-7824,61	2094,00
-7805,35	2258,00
-7786,13	2283,00
-7766,95	2209,00
-7747,80	2170,00
-7728,69	2080,00
-7709,62	1947,00
-7690,59	2180,00
-7671,59	2215,00
-7652,63	2192,00
-7633,70	2323,00
-7614,81	2314,00
-7595,96	2090,00
-7577,15	1969,00
-7558,37	1957,00
-7539,62	2099,00
-7520,91	2150,00
-7502,24	2257,00
-7483,60	2268,00
-7465,00	2163,00
-7446,44	1870,00
-7427,91	1707,00
-7409,41	1765,00
-7390,95	1654,00
-7372,53	1546,00
-7354,14	1636,00
-7335,78	1699,00
-7317,46	1706,00
-7299,18	1841,00
-7280,92	1937,00
-7262,71	2322,00
-7244,52	2308,00
-7226,38	2287,00
-7208,26	2239,00
-7190,18	1951,00
-7172,14	2031,00
-7154,12	1956,00
-7136,15	1876,00
-7118,20	2183,00
-7100,29	2175,00
-7082,41	2219,00
-7064,57	2107,00
-7046,76	2046,00
-7028,98	1843,00
-7011,24	1932,00
-6993,53	1547,00
-6975,85	1500,00
-6958,20	1387,00
-6940,59	1476,00
-6923,01	1334,00
-6905,46	1497,00
-6887,94	1732,00
-6870,46	-96,00
-6853,01	2088,00
-6835,59	1978,00
-6818,21	1810,00
-6800,85	1827,00
-6783,53	1481,00
-6766,24	1316,00
-6748,98	1258,00
-6731,76	1271,00
-6714,56	1289,00
-6697,40	1232,00
-6680,26	1178,00
-6663,16	1349,00
-6646,09	1504,00
-6629,05	1686,00
-6612,05	1741,00
-6595,07	1752,00
-6578,13	1853,00
-6561,21	1497,00
-6544,33	1271,00
-6527,47	1157,00
-6510,65	1113,00
-6493,86	1068,00
-6477,10	1116,00
-6460,36	1121,00
-6443,66	1063,00
-6426,99	1180,00
-6410,35	1175,00
-6393,74	1180,00
-6377,16	1229,00
-6360,61	1483,00
-6344,09	1308,00
-6327,59	1284,00
-6311,13	1363,00
-6294,70	1436,00
-6278,29	1526,00
-6261,92	1575,00
-6245,58	1628,00
-6229,26	1661,00
-6212,97	1529,00
-6196,72	1411,00
-6180,49	1266,00
-6164,29	1024,00
-6148,12	1016,00
-6131,98	908,00
-6115,86	815,00
-6099,78	874,00
-6083,72	796,00
-6067,69	750,00
-6051,69	798,00
-6035,72	903,00
-6019,78	992,00
-6003,87	1271,00
-5987,98	1356,00
-5972,12	1333,00
-5956,29	1450,00
-5940,49	1301,00
-5924,71	1178,00
-5908,96	1011,00
-5893,24	988,00
-5877,55	933,00
-5861,89	936,00
-5846,25	965,00
-5830,64	1025,00
-5815,05	1019,00
-5799,50	986,00
-5783,97	846,00
-5768,47	1135,00
-5752,99	1387,00
-5737,55	1298,00
-5722,12	1420,00
-5706,73	1340,00
-5691,36	1290,00
-5676,02	1032,00
-5660,71	1026,00
-5645,42	965,00
-5630,16	992,00
-5614,92	1253,00
-5599,71	1285,00
-5584,53	1174,00
-5569,37	1152,00
-5554,24	1294,00
-5539,14	1060,00
-5524,06	1051,00
-5509,01	1121,00
-5493,98	1133,00
-5478,98	1099,00
-5464,00	989,00
-5449,05	1063,00
-5434,13	904,00
-5419,23	1016,00
-5404,36	1041,00
-5389,51	1083,00
-5374,69	1289,00
-5359,89	1598,00
-5345,12	1478,00
-5330,37	1614,00
-5315,65	1352,00
-5300,95	1256,00
-5286,28	1080,00
-5271,63	1009,00
-5257,01	1075,00
-5242,41	1122,00
-5227,84	1038,00
-5213,29	1025,00
-5198,76	897,00
-5184,26	898,00
-5169,79	1004,00
-5155,33	1073,00
-5140,91	1135,00
-5126,51	1168,00
-5112,13	1133,00
-5097,77	1159,00
-5083,44	1055,00
-5069,13	978,00
-5054,85	969,00
-5040,59	1086,00
-5026,36	1106,00
-5012,15	1207,00
-4997,96	1184,00
-4983,80	963,00
-4969,66	937,00
-4955,54	854,00
-4941,44	1051,00
-4927,37	1183,00
-4913,33	1467,00
-4899,30	1584,00
-4885,30	1384,00
-4871,33	1210,00
-4857,37	1094,00
-4843,44	863,00
-4829,53	1018,00
-4815,65	1107,00
-4801,79	928,00
-4787,95	1038,00
-4774,13	868,00
-4760,34	947,00
-4746,56	848,00
-4732,82	852,00
-4719,09	1058,00
-4705,38	1303,00
-4691,70	1424,00
-4678,04	1381,00
-4664,41	1309,00
-4650,79	1160,00
-4637,20	996,00
-4623,63	994,00
-4610,08	1044,00
-4596,56	1177,00
-4583,05	1154,00
-4569,57	1164,00
-4556,11	998,00
-4542,67	761,00
-4529,25	919,00
-4515,86	1068,00
-4502,49	1320,00
-4489,13	1373,00
-4475,80	1189,00
-4462,49	981,00
-4449,21	1033,00
-4435,94	764,00
-4422,70	956,00
-4409,47	1032,00
-4396,27	1111,00
-4383,09	994,00
-4369,93	833,00
-4356,79	713,00
-4343,67	904,00
-4330,58	913,00
-4317,50	992,00
-4304,45	976,00
-4291,41	835,00
-4278,40	803,00
-4265,41	656,00
-4252,44	976,00
-4239,49	904,00
-4226,55	1246,00
-4213,65	970,00
-4200,76	888,00
-4187,89	742,00
-4175,04	709,00
-4162,21	821,00
-4149,40	765,00
-4136,61	814,00
-4123,85	659,00
-4111,10	748,00
-4098,37	682,00
-4085,66	839,00
-4072,98	775,00
-4060,31	725,00
-4047,66	860,00
-4035,04	874,00
-4022,43	766,00
-4009,84	766,00
-3997,27	745,00
-3984,72	665,00
-3972,19	737,00
-3959,69	630,00
-3947,20	742,00
-3934,73	769,00
-3922,27	651,00
-3909,84	669,00
-3897,43	598,00
-3885,04	880,00
-3872,67	659,00
-3860,31	724,00
-3847,98	730,00
-3835,66	640,00
-3823,36	656,00
-3811,09	647,00
-3798,83	796,00
-3786,59	699,00
-3774,37	777,00
-3762,17	632,00
-3749,98	693,00
-3737,82	683,00
-3725,67	819,00
-3713,55	750,00
-3701,44	619,00
-3689,35	728,00
-3677,28	785,00
-3665,22	735,00
-3653,19	672,00
-3641,17	641,00
-3629,18	743,00
-3617,20	656,00
-3605,24	736,00
-3593,30	692,00
-3581,37	723,00
-3569,47	758,00
-3557,58	659,00
-3545,71	814,00
-3533,86	827,00
-3522,02	668,00
-3510,21	770,00
-3498,41	729,00
-3486,63	747,00
-3474,87	781,00
-3463,12	745,00
-3451,40	710,00
-3439,69	711,00
-3428,00	688,00
-3416,33	859,00
-3404,67	671,00
-3393,03	553,00
-3381,41	666,00
-3369,81	639,00
-3358,22	689,00
-3346,66	779,00
-3335,10	789,00
-3323,57	668,00
-3312,06	872,00
-3300,56	679,00
-3289,08	737,00
-3277,61	696,00
-3266,16	638,00
-3254,73	807,00
-3243,32	644,00
-3231,92	716,00
-3220,55	690,00
-3209,18	820,00
-3197,84	624,00
-3186,51	584,00
-3175,20	668,00
-3163,90	681,00
-3152,63	790,00
-3141,36	816,00
-3130,12	765,00
-3118,89	734,00
-3107,68	702,00
-3096,49	682,00
-3085,31	779,00
-3074,15	673,00
-3063,00	679,00
-3051,87	663,00
-3040,76	616,00
-3029,67	776,00
-3018,59	877,00
-3007,52	796,00
-2996,48	601,00
-2985,44	637,00
-2974,43	622,00
-2963,43	704,00
-2952,45	605,00
-2941,48	783,00
-2930,53	726,00
-2919,60	650,00
-2908,68	762,00
-2897,78	664,00
-2886,89	764,00
-2876,02	723,00
-2865,17	706,00
-2854,33	669,00
-2843,50	659,00
-2832,70	736,00
-2821,90	822,00
-2811,13	671,00
-2800,37	597,00
-2789,62	769,00
-2778,89	717,00
-2768,18	695,00
-2757,48	749,00
-2746,80	767,00
-2736,13	633,00
-2725,48	716,00
-2714,84	729,00
-2704,22	668,00
-2693,61	668,00
-2683,02	694,00
-2672,45	695,00
-2661,89	727,00
-2651,34	768,00
-2640,81	651,00
-2630,30	834,00
-2619,80	675,00
-2609,31	808,00
-2598,84	582,00
-2588,39	704,00
-2577,95	716,00
-2567,52	611,00
-2557,11	694,00
-2546,71	759,00
-2536,33	812,00
-2525,97	738,00
-2515,62	724,00
-2505,28	725,00
-2494,96	674,00
-2484,65	833,00
-2474,36	966,00
-2464,08	670,00
-2453,82	676,00
-2443,57	696,00
-2433,33	667,00
-2423,11	656,00
-2412,91	776,00
-2402,72	655,00
-2392,54	760,00
-2382,38	625,00
-2372,23	760,00
-2362,09	5001,00
-2351,97	601,00
-2341,87	632,00
-2331,78	699,00
-2321,70	769,00
-2311,64	790,00
-2301,59	637,00
-2291,55	707,00
-2281,53	680,00
-2271,53	627,00
-2261,53	635,00
-2251,55	709,00
-2241,59	789,00
-2231,64	812,00
-2221,70	768,00
-2211,78	757,00
-2201,87	751,00
-2191,97	784,00
-2182,09	722,00
-2172,22	705,00
-2162,37	644,00
-2152,53	647,00
-2142,70	635,00
-2132,89	724,00
-2123,09	841,00
-2113,30	752,00
-2103,53	677,00
-2093,77	791,00
-2084,02	630,00
-2074,29	802,00
-2064,57	755,00
-2054,86	710,00
-2045,17	729,00
-2035,49	655,00
-2025,82	644,00
-2016,17	695,00
-2006,53	698,00
-1996,91	680,00
-1987,29	666,00
-1977,69	719,00
-1968,11	647,00
-1958,53	770,00
-1948,97	789,00
-1939,42	667,00
-1929,89	651,00
-1920,37	721,00
-1910,86	669,00
-1901,36	782,00
-1891,88	813,00
-1882,41	709,00
-1872,95	762,00
-1863,51	692,00
-1854,08	727,00
-1844,66	639,00
-1835,26	761,00
-1825,86	701,00
-1816,48	650,00
-1807,11	664,00
-1797,76	721,00
-1788,42	715,00
-1779,09	806,00
-1769,77	708,00
-1760,47	872,00
-1751,17	711,00
-1741,89	598,00
-1732,63	792,00
-1723,37	850,00
-1714,13	752,00
-1704,90	643,00
-1695,68	790,00
-1686,48	728,00
-1677,29	712,00
-1668,11	987,00
-1658,94	638,00
-1649,78	758,00
-1640,64	701,00
-1631,51	700,00
-1622,39	701,00
-1613,28	729,00
-1604,19	752,00
-1595,10	731,00
-1586,03	685,00
-1576,97	637,00
-1567,93	674,00
-1558,89	759,00
-1549,87	666,00
-1540,86	689,00
-1531,86	730,00
-1522,87	766,00
-1513,90	872,00
-1504,93	820,00
-1495,98	702,00
-1487,04	734,00
-1478,12	683,00
-1469,20	689,00
-1460,30	898,00
-1451,40	763,00
-1442,52	587,00
-1433,65	692,00
-1424,80	755,00
-1415,95	716,00
-1407,12	867,00
-1398,30	821,00
-1389,48	736,00
-1380,69	690,00
-1371,90	627,00
-1363,12	733,00
-1354,36	768,00
-1345,60	682,00
-1336,86	859,00
-1328,13	843,00
-1319,41	677,00
-1310,70	621,00
-1302,01	610,00
-1293,32	797,00
-1284,65	661,00
-1275,99	786,00
-1267,33	787,00
-1258,69	803,00
-1250,06	749,00
-1241,45	731,00
-1232,84	803,00
-1224,25	758,00
-1215,66	735,00
-1207,09	716,00
-1198,53	722,00
-1189,97	730,00
-1181,43	624,00
-1172,91	850,00
-1164,39	845,00
-1155,88	658,00
-1147,38	672,00
-1138,90	680,00
-1130,43	702,00
-1121,96	691,00
-1113,51	704,00
-1105,07	655,00
-1096,64	693,00
-1088,22	707,00
-1079,81	809,00
-1071,41	775,00
-1063,02	614,00
-1054,65	761,00
-1046,28	716,00
-1037,92	755,00
-1029,58	713,00
-1021,24	652,00
-1012,92	978,00
-1004,61	734,00
-996,30	829,00
-988,01	655,00
-979,73	604,00
-971,46	731,00
-963,20	704,00
-954,95	658,00
-946,71	634,00
-938,48	722,00
-930,26	762,00
-922,06	707,00
-913,86	733,00
-905,67	732,00
-897,49	719,00
-889,33	669,00
-881,17	695,00
-873,02	750,00
-864,89	636,00
-856,76	726,00
-848,65	766,00
-840,54	618,00
-832,45	717,00
-824,36	632,00
-816,29	725,00
-808,22	794,00
-800,17	690,00
-792,12	697,00
-784,09	792,00
-776,06	706,00
-768,05	675,00
-760,04	701,00
-752,05	708,00
-744,07	719,00
-736,09	794,00
-728,13	727,00
-720,17	703,00
-712,23	585,00
-704,29	778,00
-696,37	785,00
-688,45	714,00
-680,55	708,00
-672,65	770,00
-664,77	695,00
-656,89	615,00
-649,03	729,00
-641,17	706,00
-633,32	729,00
-625,49	743,00
-617,66	662,00
-609,84	726,00
-602,03	562,00
-594,23	778,00
-586,45	655,00
-578,67	732,00
-570,90	744,00
-563,14	691,00
-555,39	722,00
-547,65	837,00
-539,91	713,00
-532,19	769,00
-524,48	824,00
-516,78	691,00
-509,08	759,00
-501,40	712,00
-493,72	719,00
-486,06	685,00
-478,40	932,00
-470,76	732,00
-463,12	777,00
-455,49	679,00
-447,87	585,00
-440,26	655,00
-432,66	803,00
-425,07	825,00
-417,49	698,00
-409,92	673,00
-402,35	680,00
-394,80	711,00
-387,25	760,00
-379,72	825,00
-372,19	708,00
-364,67	784,00
-357,17	684,00
-349,67	714,00
-342,18	785,00
-334,69	840,00
-327,22	750,00
-319,76	893,00
-312,30	759,00
-304,86	711,00
-297,42	671,00
-290,00	925,00
-282,58	794,00
-275,17	792,00
-267,77	804,00
-260,37	771,00
-252,99	760,00
-245,62	809,00
-238,25	698,00
-230,90	705,00
-223,55	889,00
-216,21	841,00
-208,88	875,00
-201,56	914,00
-194,25	862,00
-186,94	904,00
-179,65	933,00
-172,36	1054,00
-165,08	914,00
-157,81	1012,00
-150,55	1106,00
-143,30	1129,00
-136,06	1106,00
-128,82	1215,00
-121,60	1136,00
-114,38	1366,00
-107,17	1506,00
-99,97	1501,00
-92,78	1627,00
-85,60	1751,00
-78,42	1912,00
-71,25	2107,00
-64,10	2201,00
-56,95	2755,00
-49,81	2918,00
-42,67	3591,00
-35,55	4259,00
-28,43	5485,00
-21,33	8492,00
-14,23	26672,00
-7,14	57727,00
-0,05	57480,00
7,02	57283,00
14,09	57420,00
21,14	23794,00
28,19	10231,00
35,23	6707,00
42,27	5241,00
49,29	4437,00
56,31	3735,00
63,32	3376,00
70,32	2801,00
77,31	2602,00
84,29	2252,00
91,27	2145,00
98,23	1953,00
105,19	1823,00
112,14	1888,00
119,09	2257,00
126,02	2808,00
132,95	2860,00
139,87	2929,00
146,78	2961,00
153,68	2857,00
160,58	2699,00
167,46	2738,00
174,34	2758,00
181,21	2606,00
188,08	2608,00
194,93	2717,00
201,78	2587,00
208,62	2601,00
215,45	2597,00
222,27	2604,00
229,09	2716,00
235,90	2403,00
242,70	2557,00
249,49	2828,00
256,27	2507,00
263,05	2525,00
269,82	2405,00
276,58	2685,00
283,33	2394,00
290,08	2416,00
296,82	2348,00
303,55	2301,00
310,27	2474,00
316,98	2286,00
323,69	2325,00
330,39	2235,00
337,08	2296,00
343,76	2294,00
350,44	2347,00
357,11	2263,00
363,77	2299,00
370,42	2230,00
377,07	2266,00
383,71	2205,00
390,34	2217,00
396,96	2152,00
403,58	2200,00
410,19	2267,00
416,79	2222,00
423,38	2273,00
429,97	2251,00
436,55	2044,00
443,12	2115,00
449,68	2080,00
456,24	1994,00
462,79	2005,00
469,33	2081,00
475,86	1960,00
482,39	1946,00
488,91	2002,00
495,42	1917,00
501,93	1898,00
508,42	2001,00
514,91	2109,00
521,40	1966,00
527,87	1880,00
534,34	1808,00
540,80	1967,00
547,25	2016,00
553,70	1881,00
560,14	1857,00
566,57	1942,00
573,00	1878,00
579,41	1858,00
585,83	1923,00
592,23	1924,00
598,62	1787,00
605,01	1852,00
611,40	1859,00
617,77	1896,00
624,14	1882,00
630,50	1894,00
636,85	1862,00
643,20	1883,00
649,54	1733,00
655,87	1733,00
662,20	1826,00
668,52	1880,00
674,83	1857,00
681,13	1795,00
687,43	1824,00
693,72	1771,00
700,00	1817,00
706,28	1732,00
712,55	1740,00
718,81	1864,00
725,07	1765,00
731,32	1681,00
737,56	1702,00
743,79	1772,00
750,02	1748,00
756,24	1691,00
762,46	1618,00
768,67	1819,00
774,87	1753,00
781,06	1648,00
787,25	1778,00
793,43	1699,00
799,60	1751,00
805,77	1735,00
811,93	1786,00
818,08	1682,00
824,23	1739,00
830,37	1876,00
836,50	1800,00
842,63	1707,00
848,75	1825,00
854,87	1720,00
860,97	1776,00
867,07	1662,00
873,17	1747,00
879,25	1793,00
885,33	1779,00
891,41	1667,00
897,47	1803,00
903,53	1689,00
909,59	1754,00
915,63	1716,00
921,67	1639,00
927,71	1729,00
933,74	1639,00
939,76	1567,00
945,77	1562,00
951,78	1717,00
957,78	1549,00
963,78	1657,00
969,77	1576,00
975,75	1603,00
981,72	1624,00
987,69	2426,00
993,66	1596,00
999,61	1747,00
1005,56	1538,00
1011,51	1619,00
1017,44	1622,00
1023,37	1628,00
1029,30	1698,00
1035,22	1659,00
1041,13	1516,00
1047,03	1617,00
1052,93	1760,00
1058,83	1871,00
1064,71	2049,00
1070,59	1979,00
1076,47	1820,00
1082,33	1659,00
1088,20	1679,00
1094,05	1700,00
1099,90	1672,00
1105,74	1558,00
1111,58	1574,00
1117,41	1671,00
1123,23	1893,00
1129,05	1972,00
1134,86	2011,00
1140,67	1587,00
1146,47	1557,00
1152,26	1518,00
1158,05	1561,00
1163,83	1583,00
1169,60	1586,00
1175,37	1620,00
1181,13	1577,00
1186,89	1525,00
1192,64	1485,00
1198,38	1503,00
1204,12	1532,00
1209,85	1513,00
1215,58	1666,00
1221,30	1525,00
1227,02	1531,00
1232,72	1554,00
1238,43	1474,00
1244,12	1585,00
1249,81	1473,00
1255,50	1595,00
1261,17	1488,00
1266,85	1638,00
1272,51	1588,00
1278,17	1688,00
1283,83	1666,00
1289,47	1987,00
1295,12	2259,00
1300,75	2135,00
1306,38	1898,00
1312,01	1758,00
1317,63	1698,00
1323,24	1667,00
1328,85	1696,00
1334,45	1625,00
1340,04	1644,00
1345,63	1462,00
1351,22	1692,00
1356,80	1570,00
1362,37	1696,00
1367,93	1552,00
1373,49	1657,00
1379,05	1563,00
1384,60	1598,00
1390,14	1497,00
1395,68	1664,00
1401,21	1651,00
1406,74	1629,00
1412,26	1672,00
1417,77	1810,00
1423,28	1871,00
1428,78	2015,00
1434,28	2228,00
1439,77	2284,00
1445,26	2191,00
1450,74	2190,00
1456,22	2114,00
1461,68	2049,00
1467,15	2063,00
1472,61	1937,00
1478,06	1849,00
1483,51	1674,00
1488,95	1564,00
1494,38	1624,00
1499,81	1387,00
1505,24	1496,00
1510,65	1549,00
1516,07	1467,00
1521,48	1459,00
1526,88	1340,00
1532,27	1350,00
1537,67	1452,00
1543,05	1541,00
1548,43	1293,00
1553,81	1508,00
1559,18	1402,00
1564,54	1395,00
1569,90	1350,00
1575,25	1328,00
1580,60	1376,00
1585,94	1391,00
1591,28	1373,00
1596,61	1278,00
1601,93	1331,00
1607,25	1397,00
1612,57	1406,00
1617,88	1392,00
1623,18	1377,00
1628,48	1293,00
1633,77	1486,00
1639,06	1500,00
1644,34	1327,00
1649,62	1272,00
1654,89	1420,00
1660,16	1305,00
1665,42	1392,00
1670,67	1288,00
1675,92	1315,00
1681,17	1186,00
1686,41	1237,00
1691,64	1459,00
1696,87	1304,00
1702,10	1346,00
1707,32	1281,00
1712,53	1244,00
1717,74	1258,00
1722,94	1292,00
1728,14	1284,00
1733,33	1229,00
1738,52	1226,00
1743,70	1188,00
1748,88	1218,00
1754,05	1326,00
1759,22	1242,00
1764,38	297,00
1769,53	1261,00
1774,69	1280,00
1779,83	1318,00
1784,97	1222,00
1790,11	1250,00
1795,24	1150,00
1800,36	1252,00
1805,48	1263,00
1810,60	1139,00
1815,71	1186,00
1820,82	1167,00
1825,92	1205,00
1831,01	1139,00
1836,10	1127,00
1841,19	1133,00
1846,26	1247,00
1851,34	1108,00
1856,41	1271,00
1861,47	1083,00
1866,53	1184,00
1871,59	1171,00
1876,64	1078,00
1881,68	1236,00
1886,72	1099,00
1891,76	1078,00
1896,79	1207,00
1901,81	1095,00
1906,83	1175,00
1911,85	1013,00
1916,86	1079,00
1921,86	1126,00
1926,86	1050,00
1931,86	997,00
1936,85	1050,00
1941,83	1130,00
1946,81	1069,00
1951,79	1133,00
1956,76	1032,00
1961,72	1025,00
1966,68	1017,00
1971,64	1027,00
1976,59	1054,00
1981,54	999,00
1986,48	1075,00
1991,42	1053,00
1996,35	1117,00
2001,27	1012,00
2006,20	1007,00
2011,11	1171,00
2016,03	1070,00
2020,93	974,00
2025,84	1058,00
2030,73	990,00
2035,63	1010,00
2040,52	1085,00
2045,40	936,00
2050,28	1032,00
2055,15	1054,00
2060,02	959,00
2064,89	1091,00
2069,75	1032,00
2074,60	920,00
2079,46	970,00
2084,30	1007,00
2089,14	987,00
2093,98	1047,00
2098,81	1046,00
2103,64	1071,00
2108,46	1023,00
2113,28	937,00
2118,09	886,00
2122,90	949,00
2127,70	1074,00
2132,50	991,00
2137,30	987,00
2142,09	933,00
2146,87	836,00
2151,66	881,00
2156,43	979,00
2161,20	1005,00
2165,97	981,00
2170,73	954,00
2175,49	926,00
2180,24	995,00
2184,99	1051,00
2189,74	1162,00
2194,48	989,00
2199,21	1032,00
2203,94	903,00
2208,67	950,00
2213,39	970,00
2218,11	954,00
2222,82	983,00
2227,53	832,00
2232,23	1140,00
2236,93	879,00
2241,63	1105,00
2246,32	928,00
2251,00	887,00
2255,68	1028,00
2260,36	941,00
2265,03	914,00
2269,70	1044,00
2274,36	840,00
2279,02	1006,00
2283,68	999,00
2288,33	918,00
2292,97	975,00
2297,61	862,00
2302,25	924,00
2306,88	927,00
2311,51	768,00
2316,14	943,00
2320,75	910,00
2325,37	913,00
2329,98	956,00
2334,59	716,00
2339,19	843,00
2343,79	772,00
2348,38	895,00
2352,97	918,00
2357,55	868,00
2362,13	981,00
2366,71	926,00
2371,28	1007,00
2375,85	879,00
2380,41	1032,00
2384,97	957,00
2389,52	849,00
2394,07	967,00
2398,62	967,00
2403,16	889,00
2407,70	934,00
2412,23	963,00
2416,76	996,00
2421,29	906,00
2425,81	894,00
2430,32	890,00
2434,84	711,00
2439,34	966,00
2443,85	983,00
2448,35	942,00
2452,84	808,00
2457,33	927,00
2461,82	880,00
2466,30	889,00
2470,78	919,00
2475,25	867,00
2479,72	855,00
2484,19	859,00
2488,65	952,00
2493,11	758,00
2497,56	909,00
2502,01	755,00
2506,46	942,00
2510,90	760,00
2515,34	949,00
2519,77	815,00
2524,20	883,00
2528,62	816,00
2533,04	798,00
2537,46	818,00
2541,87	817,00
2546,28	803,00
2550,68	915,00
2555,08	805,00
2559,48	895,00
2563,87	840,00
2568,26	834,00
2572,64	844,00
2577,02	858,00
2581,40	786,00
2585,77	869,00
2590,14	807,00
2594,50	765,00
2598,86	889,00
2603,22	861,00
2607,57	773,00
2611,92	928,00
2616,26	864,00
2620,60	893,00
2624,94	684,00
2629,27	897,00
2633,60	771,00
2637,92	981,00
2642,24	992,00
2646,56	807,00
2650,87	673,00
2655,18	890,00
2659,48	804,00
2663,78	849,00
2668,08	924,00
2672,37	859,00
2676,66	884,00
2680,95	975,00
2685,23	928,00
2689,50	944,00
2693,78	886,00
2698,05	761,00
2702,31	941,00
2706,57	894,00
2710,83	987,00
2715,08	869,00
2719,33	1070,00
2723,58	1004,00
2727,82	947,00
2732,06	889,00
2736,29	882,00
2740,53	968,00
2744,75	838,00
2748,97	938,00
2753,19	945,00
2757,41	971,00
2761,62	921,00
2765,83	883,00
2770,03	788,00
2774,23	798,00
2778,43	892,00
2782,62	877,00
2786,81	706,00
2791,00	800,00
2795,18	1062,00
2799,35	942,00
2803,53	915,00
2807,70	985,00
2811,86	903,00
2816,03	1072,00
2820,19	895,00
2824,34	1030,00
2828,49	991,00
2832,64	1154,00
2836,78	1316,00
2840,92	1417,00
2845,06	1428,00
2849,19	1580,00
2853,32	1617,00
2857,45	1700,00
2861,57	1694,00
2865,69	1582,00
2869,80	1599,00
2873,91	1523,00
2878,02	1743,00
2882,12	1778,00
2886,22	1665,00
2890,32	1687,00
2894,41	1748,00
2898,50	1633,00
2902,58	1515,00
2906,67	1544,00
2910,74	1498,00
2914,82	1294,00
2918,89	1295,00
2922,96	1346,00
2927,02	1322,00
2931,08	1167,00
2935,13	1118,00
2939,19	1249,00
2943,24	1024,00
2947,28	1107,00
2951,32	1029,00
2955,36	924,00
2959,40	1168,00
2963,43	987,00
2967,46	911,00
2971,48	924,00
2975,50	976,00
2979,52	938,00
2983,53	909,00
2987,54	790,00
2991,55	890,00
2995,55	670,00
2999,55	782,00
3003,54	762,00
3007,54	800,00
3011,53	815,00
3015,51	821,00
3019,49	856,00
3023,47	827,00
3027,45	803,00
3031,42	707,00
3035,39	715,00
3039,35	838,00
3043,31	866,00
3047,27	724,00
3051,22	869,00
3055,17	704,00
3059,12	690,00
3063,06	755,00
3067,00	753,00
3070,94	730,00
3074,87	727,00
3078,80	700,00
3082,73	820,00
3086,65	867,00
3090,57	836,00
3094,49	689,00
3098,40	774,00
3102,31	775,00
3106,22	793,00
3110,12	712,00
3114,02	665,00
3117,92	835,00
3121,81	790,00
3125,70	717,00
3129,58	796,00
3133,47	713,00
3137,34	691,00
3141,22	818,00
3145,09	760,00
3148,96	843,00
3152,83	612,00
3156,69	746,00
3160,55	686,00
3164,40	794,00
3168,26	820,00
3172,10	869,00
3175,95	833,00
3179,79	820,00
3183,63	784,00
3187,47	722,00
3191,30	748,00
3195,13	753,00
3198,95	697,00
3202,78	703,00
3206,60	650,00
3210,41	617,00
3214,23	696,00
3218,03	760,00
3221,84	750,00
3225,64	798,00
3229,44	760,00
3233,24	705,00
3237,03	781,00
3240,82	698,00
3244,61	809,00
3248,39	636,00
3252,17	737,00
3255,95	835,00
3259,72	786,00
3263,49	899,00
3267,26	663,00
3271,03	777,00
3274,79	669,00
3278,54	669,00
3282,30	691,00
3286,05	773,00
3289,80	780,00
3293,54	698,00
3297,29	738,00
3301,02	828,00
3304,76	676,00
3308,49	752,00
3312,22	694,00
3315,95	721,00
3319,67	654,00
3323,39	857,00
3327,10	833,00
3330,82	745,00
3334,53	714,00
3338,24	709,00
3341,94	784,00
3345,64	768,00
3349,34	739,00
3353,03	770,00
3356,72	742,00
3360,41	742,00
3364,10	674,00
3367,78	712,00
3371,46	765,00
3375,13	730,00
3378,81	785,00
3382,48	736,00
3386,14	753,00
3389,81	760,00
3393,47	780,00
3397,12	826,00
3400,78	755,00
3404,43	748,00
3408,08	743,00
3411,72	688,00
3415,36	577,00
3419,00	793,00
3422,64	705,00
3426,27	692,00
3429,90	692,00
3433,53	673,00
3437,15	791,00
3440,77	540,00
3444,39	723,00
3448,00	665,00
3451,62	766,00
3455,22	682,00
3458,83	633,00
3462,43	678,00
3466,03	764,00
3469,63	713,00
3473,22	684,00
3476,81	733,00
3480,40	707,00
3483,99	596,00
3487,57	699,00
3491,15	595,00
3494,72	721,00
3498,29	645,00
3501,86	693,00
3505,43	654,00
3508,99	714,00
3512,56	694,00
3516,11	686,00
3519,67	802,00
3523,22	833,00
3526,77	771,00
3530,32	697,00
3533,86	699,00
3537,40	784,00
3540,94	732,00
3544,47	757,00
3548,00	707,00
3551,53	650,00
3555,06	606,00
3558,58	864,00
3562,10	735,00
3565,62	627,00
3569,13	714,00
3572,64	772,00
3576,15	571,00
3579,66	730,00
3583,16	624,00
3586,66	648,00
3590,16	699,00
3593,65	663,00
3597,14	631,00
3600,63	694,00
3604,11	709,00
3607,60	644,00
3611,08	689,00
3614,55	686,00
3618,03	650,00
3621,50	686,00
3624,97	596,00
3628,43	729,00
3631,90	803,00
3635,36	652,00
3638,81	603,00
3642,27	659,00
3645,72	656,00
3649,17	609,00
3652,61	630,00
3656,06	605,00
3659,50	521,00
3662,93	624,00
3666,37	640,00
3669,80	748,00
3673,23	630,00
3676,65	676,00
3680,08	724,00
3683,50	677,00
3686,92	757,00
3690,33	575,00
3693,74	649,00
3697,15	525,00
3700,56	610,00
3703,96	628,00
3707,36	570,00
3710,76	553,00
3714,16	612,00
3717,55	585,00
3720,94	718,00
3724,33	630,00
3727,71	627,00
3731,10	659,00
3734,48	660,00
3737,85	483,00
3741,23	591,00
3744,60	563,00
3747,97	540,00
3751,33	554,00
3754,69	531,00
3758,05	617,00
3761,41	500,00
3764,77	515,00
3768,12	610,00
3771,47	549,00
3774,82	600,00
3778,16	-5,00
3781,50	9,00
3784,84	6,00
3788,18	10,00
>>>>>End Processed Spectral Data<<<<<
