SpectraSuite Data File
++++++++++++++++++++++++++++++++++++
Date: Tue Mar 03 12:03:52 ICT 2026
User: user
Dark Spectrum Present: Yes
Reference Spectrum Present: No
Number of Sampled Component Spectra: 1
Spectrometers: MAYP113682
Integration Time (usec): 3000000 (MAYP113682)
Spectra Averaged: 1 (MAYP113682)
Boxcar Smoothing: 0 (MAYP113682)
Correct for Electrical Dark: No (MAYP113682)
Strobe/Lamp Enabled: No (MAYP113682)
Correct for Detector Non-linearity: No (MAYP113682)
Correct for Stray Light: No (MAYP113682)
Number of Pixels in Processed Spectrum: 2068
>>>>>Begin Processed Spectral Data<<<<<
-37534,58	12,00
-37414,56	6,00
-37295,11	5,00
-37176,24	0,00
-37057,95	-73,00
-36940,22	29,00
-36823,05	39,00
-36706,45	-23,00
-36590,40	6,00
-36474,90	63,00
-36359,95	38,00
-36245,55	-35,00
-36131,68	3,00
-36018,35	-25,00
-35905,55	-144,00
-35793,29	-104,00
-35681,54	42,00
-35570,32	14,00
-35459,62	-5,00
-35349,43	16,00
-35239,75	-50,00
-35130,58	80,00
-35021,91	-24,00
-34913,74	-104,00
-34806,07	-77,00
-34698,89	30,00
-34592,20	111,00
-34486,00	-3,00
-34380,28	-48,00
-34275,04	53,00
-34170,27	-5,00
-34065,98	113,00
-33962,16	15,00
-33858,81	-3,00
-33755,92	-53,00
-33653,49	25,00
-33551,52	-30,00
-33450,01	-65,00
-33348,94	43,00
-33248,33	93,00
-33148,16	-101,00
-33048,43	59,00
-32949,14	39,00
-32850,29	-28,00
-32751,87	-38,00
-32653,89	-60,00
-32556,33	14,00
-32459,20	-62,00
-32362,49	-21,00
-32266,19	66,00
-32170,32	-51,00
-32074,86	48,00
-31979,82	34,00
-31885,18	-54,00
-31790,95	7,00
-31697,12	-81,00
-31603,69	102,00
-31510,67	-67,00
-31418,04	-88,00
-31325,80	58,00
-31233,95	-8,00
-31142,49	-18,00
-31051,42	112,00
-30960,73	-64,00
-30870,43	-20,00
-30780,50	49,00
-30690,95	-67,00
-30601,77	60,00
-30512,97	-27,00
-30424,53	-32,00
-30336,46	-82,00
-30248,76	-23,00
-30161,42	-117,00
-30074,44	-42,00
-29987,81	-27,00
-29901,55	59,00
-29815,63	-14,00
-29730,07	-13,00
-29644,86	187,00
-29560,00	15,00
-29475,48	-87,00
-29391,30	-25,00
-29307,47	17,00
-29223,97	67,00
-29140,81	-178,00
-29057,99	23,00
-28975,50	1,00
-28893,34	66,00
-28811,51	29,00
-28730,00	-124,00
-28648,82	62,00
-28567,97	10,00
-28487,43	-12,00
-28407,21	-59,00
-28327,32	-61,00
-28247,73	148,00
-28168,46	10,00
-28089,50	128,00
-28010,85	-127,00
-27932,51	40,00
-27854,48	-44,00
-27776,75	-5,00
-27699,32	103,00
-27622,19	39,00
-27545,37	96,00
-27468,84	18,00
-27392,60	32,00
-27316,66	127,00
-27241,01	93,00
-27165,66	44,00
-27090,59	79,00
-27015,81	40,00
-26941,31	152,00
-26867,10	11,00
-26793,17	86,00
-26719,52	16,00
-26646,15	22,00
-26573,06	159,00
-26500,24	-67,00
-26427,70	-113,00
-26355,43	-100,00
-26283,43	20,00
-26211,71	18,00
-26140,25	27,00
-26069,06	29,00
-25998,13	-2,00
-25927,46	2,00
-25857,06	43,00
-25786,92	-57,00
-25717,04	15,00
-25647,42	24,00
-25578,05	11,00
-25508,94	184,00
-25440,09	-113,00
-25371,48	168,00
-25303,13	-77,00
-25235,02	-3,00
-25167,17	-1,00
-25099,56	-32,00
-25032,19	7,00
-24965,07	-14,00
-24898,20	39,00
-24831,56	2,00
-24765,17	-72,00
-24699,01	70,00
-24633,10	-47,00
-24567,41	-23,00
-24501,97	7,00
-24436,75	-86,00
-24371,77	125,00
-24307,03	57,00
-24242,51	38,00
-24178,22	28,00
-24114,16	62,00
-24050,32	108,00
-23986,71	19,00
-23923,32	49,00
-23860,16	-61,00
-23797,22	5,00
-23734,50	-24,00
-23672,00	81,00
-23609,71	50,00
-23547,65	29,00
-23485,80	44,00
-23424,16	150,00
-23362,74	-11,00
-23301,53	-19,00
-23240,54	39,00
-23179,75	112,00
-23119,17	126,00
-23058,80	-41,00
-22998,64	-51,00
-22938,68	14,00
-22878,93	3,00
-22819,39	-14,00
-22760,04	-105,00
-22700,90	25,00
-22641,96	37,00
-22583,22	-76,00
-22524,68	28,00
-22466,33	-90,00
-22408,19	-6,00
-22350,23	65,00
-22292,48	-129,00
-22234,92	41,00
-22177,55	-20,00
-22120,37	45,00
-22063,38	26,00
-22006,58	24,00
-21949,98	-51,00
-21893,56	30,00
-21837,33	-198,00
-21781,28	9,00
-21725,42	-10,00
-21669,74	1,00
-21614,25	101,00
-21558,94	-41,00
-21503,81	3,00
-21448,86	-13,00
-21394,10	33,00
-21339,51	78,00
-21285,10	8,00
-21230,86	53,00
-21176,81	-82,00
-21122,93	-33,00
-21069,22	70,00
-21015,69	-16,00
-20962,33	18,00
-20909,14	30,00
-20856,13	-43,00
-20803,28	-66,00
-20750,61	-6,00
-20698,10	32,00
-20645,76	92,00
-20593,59	-24,00
-20541,59	141,00
-20489,75	34,00
-20438,07	80,00
-20386,56	43,00
-20335,22	-91,00
-20284,03	-42,00
-20233,01	-5,00
-20182,15	-135,00
-20131,45	72,00
-20080,91	-70,00
-20030,52	-98,00
-19980,30	10,00
-19930,23	52,00
-19880,32	34,00
-19830,56	21,00
-19780,96	7,00
-19731,52	42,00
-19682,23	-92,00
-19633,09	50,00
-19584,10	9,00
-19535,26	-31,00
-19486,58	73,00
-19438,04	8,00
-19389,66	21,00
-19341,42	-7,00
-19293,33	-45,00
-19245,39	83,00
-19197,60	-103,00
-19149,95	67,00
-19102,45	15,00
-19055,09	-7,00
-19007,87	-46,00
-18960,80	40,00
-18913,87	25,00
-18867,09	-72,00
-18820,44	29,00
-18773,94	87,00
-18727,57	-61,00
-18681,35	-62,00
-18635,26	27,00
-18589,31	-8,00
-18543,50	33,00
-18497,83	-62,00
-18452,29	86,00
-18406,89	-34,00
-18361,63	-64,00
-18316,50	-143,00
-18271,50	53,00
-18226,63	-34,00
-18181,90	61,00
-18137,30	75,00
-18092,84	-98,00
-18048,50	-2,00
-18004,29	-12,00
-17960,22	32,00
-17916,27	11,00
-17872,45	-8,00
-17828,76	14,00
-17785,20	-32,00
-17741,77	-135,00
-17698,46	-52,00
-17655,28	-15,00
-17612,22	-75,00
-17569,29	-71,00
-17526,48	-107,00
-17483,79	-114,00
-17441,23	28,00
-17398,79	8,00
-17356,48	-84,00
-17314,28	64,00
-17272,21	-30,00
-17230,26	3,00
-17188,42	-44,00
-17146,71	-7,00
-17105,12	-6,00
-17063,64	-139,00
-17022,28	-61,00
-16981,04	97,00
-16939,92	105,00
-16898,91	-53,00
-16858,02	-12,00
-16817,25	92,00
-16776,59	-48,00
-16736,04	-112,00
-16695,61	-13,00
-16655,29	25,00
-16615,09	-145,00
-16574,99	-21,00
-16535,01	70,00
-16495,15	-23,00
-16455,39	125,00
-16415,74	-32,00
-16376,21	-81,00
-16336,78	44,00
-16297,46	24,00
-16258,26	-12,00
-16219,16	-29,00
-16180,17	50,00
-16141,28	81,00
-16102,51	21,00
-16063,84	107,00
-16025,27	-3,00
-15986,82	54,00
-15948,46	50,00
-15910,22	0,00
-15872,07	-34,00
-15834,04	-140,00
-15796,10	-49,00
-15758,27	-20,00
-15720,54	70,00
-15682,91	82,00
-15645,39	-53,00
-15607,97	-10,00
-15570,64	38,00
-15533,42	-10,00
-15496,30	59,00
-15459,28	-15,00
-15422,36	22,00
-15385,54	23,00
-15348,82	-109,00
-15312,19	41,00
-15275,66	47,00
-15239,23	-47,00
-15202,90	26,00
-15166,67	-73,00
-15130,53	1,00
-15094,48	-29,00
-15058,54	-66,00
-15022,68	4,00
-14986,93	76,00
-14951,26	-41,00
-14915,69	-60,00
-14880,22	-35,00
-14844,84	-36,00
-14809,55	-13,00
-14774,35	-44,00
-14739,25	-84,00
-14704,24	65,00
-14669,32	-51,00
-14634,49	68,00
-14599,75	3,00
-14565,10	-61,00
-14530,55	-3,00
-14496,08	-140,00
-14461,70	19,00
-14427,41	62,00
-14393,21	-131,00
-14359,10	-9,00
-14325,07	-147,00
-14291,14	-3,00
-14257,29	95,00
-14223,52	28,00
-14189,85	-56,00
-14156,26	-36,00
-14122,76	96,00
-14089,34	-71,00
-14056,01	-88,00
-14022,76	-69,00
-13989,60	-51,00
-13956,52	141,00
-13923,53	84,00
-13890,62	-44,00
-13857,79	62,00
-13825,05	11,00
-13792,39	-68,00
-13759,81	77,00
-13727,31	111,00
-13694,90	-81,00
-13662,57	-48,00
-13630,31	25,00
-13598,14	31,00
-13566,05	-82,00
-13534,05	-33,00
-13502,12	30,00
-13470,27	-20,00
-13438,50	51,00
-13406,80	-27,00
-13375,19	-65,00
-13343,66	24,00
-13312,20	33,00
-13280,83	-7,00
-13249,53	11,00
-13218,30	92,00
-13187,16	33,00
-13156,09	16,00
-13125,10	-25,00
-13094,18	-93,00
-13063,34	106,00
-13032,58	3,00
-13001,89	33,00
-12971,28	-40,00
-12940,74	-54,00
-12910,27	-5,00
-12879,88	15,00
-12849,57	-83,00
-12819,33	46,00
-12789,16	-98,00
-12759,06	78,00
-12729,04	-3,00
-12699,09	1717,00
-12669,21	44,00
-12639,41	-17,00
-12609,68	-1,00
-12580,02	75,00
-12550,43	-23,00
-12520,91	-47,00
-12491,46	7,00
-12462,08	11,00
-12432,77	-39,00
-12403,54	-151,00
-12374,37	30,00
-12345,27	-71,00
-12316,24	16,00
-12287,29	-93,00
-12258,40	-17,00
-12229,57	53,00
-12200,82	-52,00
-12172,14	-8,00
-12143,52	-103,00
-12114,97	111,00
-12086,49	61,00
-12058,07	36,00
-12029,73	-18,00
-12001,44	19,00
-11973,23	-59,00
-11945,08	-20,00
-11917,00	-35,00
-11888,98	-136,00
-11861,03	-63,00
-11833,15	41,00
-11805,32	10,00
-11777,57	-88,00
-11749,88	51,00
-11722,25	148,00
-11694,69	-23,00
-11667,19	-48,00
-11639,75	-175,00
-11612,38	-33,00
-11585,07	-39,00
-11557,83	17,00
-11530,65	-68,00
-11503,53	10,00
-11476,47	-117,00
-11449,48	-29,00
-11422,54	-12,00
-11395,67	14,00
-11368,86	29,00
-11342,11	-44,00
-11315,43	31,00
-11288,80	7,00
-11262,23	-189,00
-11235,73	-37,00
-11209,28	-81,00
-11182,90	7,00
-11156,57	7,00
-11130,31	15,00
-11104,10	86,00
-11077,96	97,00
-11051,87	-15,00
-11025,84	24,00
-10999,87	168,00
-10973,96	52,00
-10948,11	-48,00
-10922,31	-61,00
-10896,58	68,00
-10870,90	2,00
-10845,28	44,00
-10819,71	64,00
-10794,20	-10,00
-10768,75	159,00
-10743,36	0,00
-10718,02	155,00
-10692,74	120,00
-10667,52	126,00
-10642,35	95,00
-10617,24	110,00
-10592,18	201,00
-10567,18	104,00
-10542,23	195,00
-10517,34	173,00
-10492,51	144,00
-10467,72	41,00
-10443,00	211,00
-10418,32	133,00
-10393,70	113,00
-10369,14	184,00
-10344,63	231,00
-10320,17	295,00
-10295,77	303,00
-10271,42	220,00
-10247,12	246,00
-10222,88	229,00
-10198,68	267,00
-10174,54	389,00
-10150,46	384,00
-10126,42	438,00
-10102,44	478,00
-10078,51	435,00
-10054,63	520,00
-10030,80	522,00
-10007,03	458,00
-9983,30	576,00
-9959,63	629,00
-9936,01	671,00
-9912,44	635,00
-9888,92	830,00
-9865,44	812,00
-9842,02	801,00
-9818,65	861,00
-9795,33	829,00
-9772,06	921,00
-9748,84	916,00
-9725,67	1168,00
-9702,55	1303,00
-9679,47	1508,00
-9656,45	1684,00
-9633,47	1705,00
-9610,55	1757,00
-9587,67	1751,00
-9564,84	1837,00
-9542,06	2051,00
-9519,32	2343,00
-9496,64	2574,00
-9474,00	2636,00
-9451,41	2977,00
-9428,87	2819,00
-9406,37	2800,00
-9383,92	2447,00
-9361,52	2334,00
-9339,17	2461,00
-9316,86	2718,00
-9294,60	3132,00
-9272,38	3508,00
-9250,21	3621,00
-9228,09	3870,00
-9206,01	3727,00
-9183,98	3254,00
-9162,00	2976,00
-9140,06	2701,00
-9118,16	2779,00
-9096,31	2921,00
-9074,51	3010,00
-9052,75	3178,00
-9031,04	2811,00
-9009,37	2578,00
-8987,74	2401,00
-8966,16	2048,00
-8944,63	1682,00
-8923,14	1789,00
-8901,69	1968,00
-8880,29	2066,00
-8858,93	2300,00
-8837,61	2636,00
-8816,34	2765,00
-8795,11	2745,00
-8773,92	2511,00
-8752,78	2151,00
-8731,68	2137,00
-8710,62	2081,00
-8689,61	2224,00
-8668,63	2390,00
-8647,70	2516,00
-8626,82	2605,00
-8605,97	2444,00
-8585,17	2181,00
-8564,41	2042,00
-8543,69	1779,00
-8523,01	1810,00
-8502,37	1808,00
-8481,78	1857,00
-8461,23	2032,00
-8440,71	2275,00
-8420,24	2416,00
-8399,81	2401,00
-8379,42	2389,00
-8359,08	2274,00
-8338,77	1835,00
-8318,50	1906,00
-8298,27	1874,00
-8278,09	1846,00
-8257,94	2002,00
-8237,83	2193,00
-8217,76	2398,00
-8197,74	2194,00
-8177,75	2196,00
-8157,80	2021,00
-8137,89	1802,00
-8118,02	1750,00
-8098,19	1859,00
-8078,40	1729,00
-8058,65	2090,00
-8038,93	1914,00
-8019,26	2061,00
-7999,62	1964,00
-7980,02	1769,00
-7960,46	1725,00
-7940,94	1695,00
-7921,46	1618,00
-7902,01	1575,00
-7882,60	1472,00
-7863,23	1719,00
-7843,90	1848,00
-7824,61	1909,00
-7805,35	2041,00
-7786,13	1997,00
-7766,95	1905,00
-7747,80	1738,00
-7728,69	1790,00
-7709,62	1635,00
-7690,59	1917,00
-7671,59	2055,00
-7652,63	2035,00
-7633,70	2088,00
-7614,81	1894,00
-7595,96	1704,00
-7577,15	1668,00
-7558,37	1677,00
-7539,62	1688,00
-7520,91	1807,00
-7502,24	1921,00
-7483,60	1950,00
-7465,00	1897,00
-7446,44	1630,00
-7427,91	1252,00
-7409,41	1118,00
-7390,95	1089,00
-7372,53	1273,00
-7354,14	1168,00
-7335,78	1240,00
-7317,46	1279,00
-7299,18	1349,00
-7280,92	1610,00
-7262,71	1791,00
-7244,52	1950,00
-7226,38	1943,00
-7208,26	1833,00
-7190,18	1799,00
-7172,14	1654,00
-7154,12	1627,00
-7136,15	1683,00
-7118,20	1733,00
-7100,29	1986,00
-7082,41	1812,00
-7064,57	1800,00
-7046,76	1659,00
-7028,98	1476,00
-7011,24	1171,00
-6993,53	1205,00
-6975,85	968,00
-6958,20	790,00
-6940,59	796,00
-6923,01	1005,00
-6905,46	983,00
-6887,94	1253,00
-6870,46	1453,00
-6853,01	1641,00
-6835,59	1826,00
-6818,21	1500,00
-6800,85	1240,00
-6783,53	927,00
-6766,24	858,00
-6748,98	818,00
-6731,76	564,00
-6714,56	681,00
-6697,40	668,00
-6680,26	602,00
-6663,16	808,00
-6646,09	1056,00
-6629,05	1117,00
-6612,05	1363,00
-6595,07	1377,00
-6578,13	1255,00
-6561,21	1087,00
-6544,33	628,00
-6527,47	642,00
-6510,65	487,00
-6493,86	544,00
-6477,10	525,00
-6460,36	649,00
-6443,66	636,00
-6426,99	465,00
-6410,35	493,00
-6393,74	800,00
-6377,16	614,00
-6360,61	781,00
-6344,09	970,00
-6327,59	941,00
-6311,13	1018,00
-6294,70	1020,00
-6278,29	1093,00
-6261,92	1235,00
-6245,58	1319,00
-6229,26	1398,00
-6212,97	1034,00
-6196,72	944,00
-6180,49	644,00
-6164,29	280,00
-6148,12	203,00
-6131,98	272,00
-6115,86	191,00
-6099,78	313,00
-6083,72	324,00
-6067,69	229,00
-6051,69	218,00
-6035,72	316,00
-6019,78	452,00
-6003,87	649,00
-5987,98	918,00
-5972,12	1041,00
-5956,29	992,00
-5940,49	848,00
-5924,71	682,00
-5908,96	495,00
-5893,24	356,00
-5877,55	159,00
-5861,89	341,00
-5846,25	242,00
-5830,64	572,00
-5815,05	394,00
-5799,50	437,00
-5783,97	365,00
-5768,47	436,00
-5752,99	579,00
-5737,55	948,00
-5722,12	847,00
-5706,73	883,00
-5691,36	544,00
-5676,02	547,00
-5660,71	418,00
-5645,42	441,00
-5630,16	443,00
-5614,92	622,00
-5599,71	717,00
-5584,53	729,00
-5569,37	702,00
-5554,24	454,00
-5539,14	532,00
-5524,06	388,00
-5509,01	515,00
-5493,98	646,00
-5478,98	562,00
-5464,00	508,00
-5449,05	497,00
-5434,13	400,00
-5419,23	471,00
-5404,36	520,00
-5389,51	625,00
-5374,69	844,00
-5359,89	928,00
-5345,12	943,00
-5330,37	848,00
-5315,65	717,00
-5300,95	580,00
-5286,28	542,00
-5271,63	534,00
-5257,01	305,00
-5242,41	528,00
-5227,84	391,00
-5213,29	311,00
-5198,76	139,00
-5184,26	182,00
-5169,79	438,00
-5155,33	329,00
-5140,91	542,00
-5126,51	699,00
-5112,13	650,00
-5097,77	363,00
-5083,44	483,00
-5069,13	286,00
-5054,85	269,00
-5040,59	485,00
-5026,36	592,00
-5012,15	603,00
-4997,96	519,00
-4983,80	455,00
-4969,66	245,00
-4955,54	405,00
-4941,44	380,00
-4927,37	638,00
-4913,33	1008,00
-4899,30	900,00
-4885,30	905,00
-4871,33	599,00
-4857,37	322,00
-4843,44	388,00
-4829,53	338,00
-4815,65	342,00
-4801,79	499,00
-4787,95	415,00
-4774,13	405,00
-4760,34	235,00
-4746,56	251,00
-4732,82	132,00
-4719,09	363,00
-4705,38	563,00
-4691,70	763,00
-4678,04	748,00
-4664,41	668,00
-4650,79	435,00
-4637,20	268,00
-4623,63	288,00
-4610,08	434,00
-4596,56	530,00
-4583,05	488,00
-4569,57	612,00
-4556,11	277,00
-4542,67	183,00
-4529,25	212,00
-4515,86	555,00
-4502,49	583,00
-4489,13	632,00
-4475,80	606,00
-4462,49	424,00
-4449,21	342,00
-4435,94	215,00
-4422,70	363,00
-4409,47	548,00
-4396,27	396,00
-4383,09	452,00
-4369,93	146,00
-4356,79	95,00
-4343,67	182,00
-4330,58	229,00
-4317,50	384,00
-4304,45	322,00
-4291,41	124,00
-4278,40	127,00
-4265,41	216,00
-4252,44	273,00
-4239,49	426,00
-4226,55	353,00
-4213,65	280,00
-4200,76	150,00
-4187,89	95,00
-4175,04	120,00
-4162,21	177,00
-4149,40	70,00
-4136,61	191,00
-4123,85	78,00
-4111,10	-10,00
-4098,37	36,00
-4085,66	185,00
-4072,98	138,00
-4060,31	263,00
-4047,66	134,00
-4035,04	-34,00
-4022,43	127,00
-4009,84	271,00
-3997,27	60,00
-3984,72	-12,00
-3972,19	139,00
-3959,69	-11,00
-3947,20	-5,00
-3934,73	-16,00
-3922,27	82,00
-3909,84	-30,00
-3897,43	84,00
-3885,04	-96,00
-3872,67	-45,00
-3860,31	-1,00
-3847,98	43,00
-3835,66	95,00
-3823,36	-122,00
-3811,09	37,00
-3798,83	64,00
-3786,59	-29,00
-3774,37	80,00
-3762,17	-78,00
-3749,98	124,00
-3737,82	77,00
-3725,67	182,00
-3713,55	-46,00
-3701,44	-34,00
-3689,35	62,00
-3677,28	4,00
-3665,22	-36,00
-3653,19	22,00
-3641,17	7,00
-3629,18	-115,00
-3617,20	50,00
-3605,24	23,00
-3593,30	-69,00
-3581,37	-7,00
-3569,47	-32,00
-3557,58	-42,00
-3545,71	83,00
-3533,86	0,00
-3522,02	4,00
-3510,21	103,00
-3498,41	13,00
-3486,63	66,00
-3474,87	31,00
-3463,12	5,00
-3451,40	17,00
-3439,69	-26,00
-3428,00	86,00
-3416,33	-73,00
-3404,67	0,00
-3393,03	-93,00
-3381,41	45,00
-3369,81	-22,00
-3358,22	51,00
-3346,66	0,00
-3335,10	5,00
-3323,57	-36,00
-3312,06	-81,00
-3300,56	8,00
-3289,08	57,00
-3277,61	18,00
-3266,16	54,00
-3254,73	-7,00
-3243,32	68,00
-3231,92	-41,00
-3220,55	38,00
-3209,18	61,00
-3197,84	-35,00
-3186,51	-17,00
-3175,20	61,00
-3163,90	-168,00
-3152,63	-26,00
-3141,36	-9,00
-3130,12	-107,00
-3118,89	-62,00
-3107,68	-49,00
-3096,49	45,00
-3085,31	53,00
-3074,15	55,00
-3063,00	-53,00
-3051,87	-64,00
-3040,76	57,00
-3029,67	-30,00
-3018,59	-20,00
-3007,52	-31,00
-2996,48	110,00
-2985,44	123,00
-2974,43	18,00
-2963,43	-10,00
-2952,45	-46,00
-2941,48	80,00
-2930,53	-44,00
-2919,60	-13,00
-2908,68	24,00
-2897,78	-17,00
-2886,89	-57,00
-2876,02	36,00
-2865,17	127,00
-2854,33	-58,00
-2843,50	35,00
-2832,70	-58,00
-2821,90	13,00
-2811,13	1,00
-2800,37	1,00
-2789,62	2,00
-2778,89	55,00
-2768,18	-106,00
-2757,48	70,00
-2746,80	22,00
-2736,13	-44,00
-2725,48	82,00
-2714,84	-50,00
-2704,22	109,00
-2693,61	103,00
-2683,02	21,00
-2672,45	4,00
-2661,89	-4,00
-2651,34	11,00
-2640,81	-117,00
-2630,30	-9,00
-2619,80	-51,00
-2609,31	-57,00
-2598,84	-45,00
-2588,39	-53,00
-2577,95	-98,00
-2567,52	105,00
-2557,11	-46,00
-2546,71	-12,00
-2536,33	-60,00
-2525,97	-50,00
-2515,62	70,00
-2505,28	10,00
-2494,96	39,00
-2484,65	1,00
-2474,36	35,00
-2464,08	-20,00
-2453,82	74,00
-2443,57	17,00
-2433,33	32,00
-2423,11	16,00
-2412,91	-6,00
-2402,72	46,00
-2392,54	27,00
-2382,38	43,00
-2372,23	30,00
-2362,09	-4827,00
-2351,97	9,00
-2341,87	33,00
-2331,78	-19,00
-2321,70	-7,00
-2311,64	46,00
-2301,59	103,00
-2291,55	-40,00
-2281,53	125,00
-2271,53	7,00
-2261,53	-67,00
-2251,55	9,00
-2241,59	-123,00
-2231,64	68,00
-2221,70	-122,00
-2211,78	-56,00
-2201,87	-94,00
-2191,97	-8,00
-2182,09	-24,00
-2172,22	-74,00
-2162,37	83,00
-2152,53	-79,00
-2142,70	52,00
-2132,89	-23,00
-2123,09	74,00
-2113,30	-8,00
-2103,53	-42,00
-2093,77	64,00
-2084,02	-97,00
-2074,29	52,00
-2064,57	31,00
-2054,86	4,00
-2045,17	104,00
-2035,49	-33,00
-2025,82	78,00
-2016,17	102,00
-2006,53	19,00
-1996,91	-26,00
-1987,29	26,00
-1977,69	43,00
-1968,11	-86,00
-1958,53	40,00
-1948,97	-71,00
-1939,42	39,00
-1929,89	58,00
-1920,37	-70,00
-1910,86	-63,00
-1901,36	5,00
-1891,88	35,00
-1882,41	-97,00
-1872,95	-56,00
-1863,51	-167,00
-1854,08	-82,00
-1844,66	-6,00
-1835,26	-52,00
-1825,86	-32,00
-1816,48	92,00
-1807,11	78,00
-1797,76	16,00
-1788,42	78,00
-1779,09	67,00
-1769,77	-111,00
-1760,47	54,00
-1751,17	-42,00
-1741,89	-11,00
-1732,63	88,00
-1723,37	-156,00
-1714,13	-73,00
-1704,90	85,00
-1695,68	31,00
-1686,48	97,00
-1677,29	40,00
-1668,11	24,00
-1658,94	-110,00
-1649,78	-152,00
-1640,64	44,00
-1631,51	5,00
-1622,39	6,00
-1613,28	-47,00
-1604,19	16,00
-1595,10	-31,00
-1586,03	-85,00
-1576,97	-5,00
-1567,93	-6,00
-1558,89	-32,00
-1549,87	-69,00
-1540,86	39,00
-1531,86	-20,00
-1522,87	22,00
-1513,90	142,00
-1504,93	7,00
-1495,98	-49,00
-1487,04	72,00
-1478,12	-42,00
-1469,20	5,00
-1460,30	-5,00
-1451,40	-4,00
-1442,52	8,00
-1433,65	21,00
-1424,80	-7,00
-1415,95	143,00
-1407,12	26,00
-1398,30	20,00
-1389,48	-107,00
-1380,69	61,00
-1371,90	-16,00
-1363,12	-79,00
-1354,36	43,00
-1345,60	-78,00
-1336,86	27,00
-1328,13	-6,00
-1319,41	-53,00
-1310,70	32,00
-1302,01	-42,00
-1293,32	102,00
-1284,65	30,00
-1275,99	96,00
-1267,33	66,00
-1258,69	72,00
-1250,06	75,00
-1241,45	12,00
-1232,84	-3,00
-1224,25	103,00
-1215,66	-58,00
-1207,09	-22,00
-1198,53	-18,00
-1189,97	11,00
-1181,43	86,00
-1172,91	-40,00
-1164,39	51,00
-1155,88	11,00
-1147,38	-24,00
-1138,90	-171,00
-1130,43	-57,00
-1121,96	31,00
-1113,51	12,00
-1105,07	4,00
-1096,64	0,00
-1088,22	50,00
-1079,81	-101,00
-1071,41	116,00
-1063,02	88,00
-1054,65	-68,00
-1046,28	-66,00
-1037,92	27,00
-1029,58	-3,00
-1021,24	-63,00
-1012,92	-18,00
-1004,61	-5,00
-996,30	-72,00
-988,01	-41,00
-979,73	-40,00
-971,46	64,00
-963,20	105,00
-954,95	-46,00
-946,71	14,00
-938,48	81,00
-930,26	-29,00
-922,06	43,00
-913,86	67,00
-905,67	16,00
-897,49	-18,00
-889,33	2,00
-881,17	39,00
-873,02	-53,00
-864,89	-113,00
-856,76	102,00
-848,65	-89,00
-840,54	-54,00
-832,45	144,00
-824,36	-16,00
-816,29	4,00
-808,22	25,00
-800,17	-21,00
-792,12	-43,00
-784,09	48,00
-776,06	-75,00
-768,05	-93,00
-760,04	24,00
-752,05	63,00
-744,07	-96,00
-736,09	45,00
-728,13	32,00
-720,17	24,00
-712,23	-42,00
-704,29	19,00
-696,37	-1,00
-688,45	130,00
-680,55	44,00
-672,65	87,00
-664,77	69,00
-656,89	-37,00
-649,03	14,00
-641,17	-87,00
-633,32	-38,00
-625,49	-95,00
-617,66	34,00
-609,84	30,00
-602,03	-66,00
-594,23	66,00
-586,45	85,00
-578,67	-55,00
-570,90	7,00
-563,14	-15,00
-555,39	81,00
-547,65	23,00
-539,91	-13,00
-532,19	-12,00
-524,48	21,00
-516,78	5,00
-509,08	-41,00
-501,40	15,00
-493,72	-60,00
-486,06	-50,00
-478,40	44,00
-470,76	4,00
-463,12	2,00
-455,49	12,00
-447,87	129,00
-440,26	72,00
-432,66	-78,00
-425,07	53,00
-417,49	0,00
-409,92	-5,00
-402,35	7,00
-394,80	-88,00
-387,25	40,00
-379,72	-119,00
-372,19	4,00
-364,67	96,00
-357,17	-3,00
-349,67	-45,00
-342,18	-23,00
-334,69	78,00
-327,22	150,00
-319,76	77,00
-312,30	68,00
-304,86	-6,00
-297,42	80,00
-290,00	39,00
-282,58	64,00
-275,17	-82,00
-267,77	55,00
-260,37	16,00
-252,99	-33,00
-245,62	136,00
-238,25	127,00
-230,90	67,00
-223,55	105,00
-216,21	119,00
-208,88	160,00
-201,56	188,00
-194,25	263,00
-186,94	284,00
-179,65	141,00
-172,36	242,00
-165,08	224,00
-157,81	297,00
-150,55	322,00
-143,30	235,00
-136,06	364,00
-128,82	338,00
-121,60	341,00
-114,38	364,00
-107,17	431,00
-99,97	718,00
-92,78	592,00
-85,60	620,00
-78,42	765,00
-71,25	947,00
-64,10	914,00
-56,95	1268,00
-49,81	1642,00
-42,67	1932,00
-35,55	2478,00
-28,43	3210,00
-21,33	5563,00
-14,23	19472,00
-7,14	54235,00
-0,05	53890,00
7,02	53525,00
14,09	50560,00
21,14	13876,00
28,19	5965,00
35,23	3836,00
42,27	2998,00
49,29	2448,00
56,31	2024,00
63,32	1742,00
70,32	1389,00
77,31	1250,00
84,29	1162,00
91,27	1004,00
98,23	809,00
105,19	857,00
112,14	1120,00
119,09	1722,00
126,02	2784,00
132,95	3811,00
139,87	3827,00
146,78	4032,00
153,68	3825,00
160,58	3776,00
167,46	3814,00
174,34	3759,00
181,21	3689,00
188,08	3726,00
194,93	3603,00
201,78	3580,00
208,62	3613,00
215,45	3740,00
222,27	3597,00
229,09	3784,00
235,90	3682,00
242,70	3628,00
249,49	3579,00
256,27	3446,00
263,05	3557,00
269,82	3578,00
276,58	3499,00
283,33	3532,00
290,08	3578,00
296,82	3397,00
303,55	3339,00
310,27	3396,00
316,98	3285,00
323,69	3124,00
330,39	3309,00
337,08	3256,00
343,76	3193,00
350,44	3113,00
357,11	3267,00
363,77	3171,00
370,42	3032,00
377,07	3083,00
383,71	3091,00
390,34	3094,00
396,96	3122,00
403,58	3152,00
410,19	3157,00
416,79	3163,00
423,38	3169,00
429,97	2928,00
436,55	3010,00
443,12	2896,00
449,68	2822,00
456,24	2799,00
462,79	2912,00
469,33	2874,00
475,86	2876,00
482,39	2797,00
488,91	2800,00
495,42	2648,00
501,93	2747,00
508,42	2638,00
514,91	2648,00
521,40	2533,00
527,87	2581,00
534,34	2663,00
540,80	2488,00
547,25	2565,00
553,70	2646,00
560,14	2623,00
566,57	2380,00
573,00	2570,00
579,41	2404,00
585,83	2420,00
592,23	2421,00
598,62	2451,00
605,01	2407,00
611,40	2381,00
617,77	2502,00
624,14	2342,00
630,50	2303,00
636,85	2363,00
643,20	2248,00
649,54	2354,00
655,87	2264,00
662,20	2160,00
668,52	2320,00
674,83	2083,00
681,13	2243,00
687,43	2229,00
693,72	2234,00
700,00	2205,00
706,28	2254,00
712,55	2217,00
718,81	2214,00
725,07	2158,00
731,32	2035,00
737,56	2271,00
743,79	2191,00
750,02	2107,00
756,24	2056,00
762,46	2143,00
768,67	2110,00
774,87	2217,00
781,06	1936,00
787,25	2036,00
793,43	1959,00
799,60	1879,00
805,77	1925,00
811,93	1978,00
818,08	2093,00
824,23	2004,00
830,37	2055,00
836,50	1931,00
842,63	2010,00
848,75	1914,00
854,87	1908,00
860,97	2012,00
867,07	1947,00
873,17	1892,00
879,25	1887,00
885,33	1842,00
891,41	1948,00
897,47	1864,00
903,53	1794,00
909,59	1678,00
915,63	1761,00
921,67	1796,00
927,71	1692,00
933,74	1737,00
939,76	1635,00
945,77	1771,00
951,78	1754,00
957,78	1816,00
963,78	1732,00
969,77	1836,00
975,75	1752,00
981,72	1822,00
987,69	1632,00
993,66	1579,00
999,61	1712,00
1005,56	1738,00
1011,51	1750,00
1017,44	1726,00
1023,37	1656,00
1029,30	1814,00
1035,22	1652,00
1041,13	1789,00
1047,03	1776,00
1052,93	1940,00
1058,83	2116,00
1064,71	2150,00
1070,59	2022,00
1076,47	2005,00
1082,33	1790,00
1088,20	1682,00
1094,05	1702,00
1099,90	1627,00
1105,74	1666,00
1111,58	1660,00
1117,41	1685,00
1123,23	1837,00
1129,05	1903,00
1134,86	1934,00
1140,67	1704,00
1146,47	1551,00
1152,26	1669,00
1158,05	1733,00
1163,83	1544,00
1169,60	1721,00
1175,37	1669,00
1181,13	1718,00
1186,89	1428,00
1192,64	1676,00
1198,38	1560,00
1204,12	1489,00
1209,85	1516,00
1215,58	1431,00
1221,30	1580,00
1227,02	1397,00
1232,72	1503,00
1238,43	1427,00
1244,12	1585,00
1249,81	1503,00
1255,50	1566,00
1261,17	1646,00
1266,85	1512,00
1272,51	1693,00
1278,17	1637,00
1283,83	1740,00
1289,47	1970,00
1295,12	2320,00
1300,75	2280,00
1306,38	2069,00
1312,01	1886,00
1317,63	1670,00
1323,24	1725,00
1328,85	1632,00
1334,45	1559,00
1340,04	1508,00
1345,63	1500,00
1351,22	1603,00
1356,80	1604,00
1362,37	1747,00
1367,93	1686,00
1373,49	1586,00
1379,05	1750,00
1384,60	1698,00
1390,14	1562,00
1395,68	1562,00
1401,21	1711,00
1406,74	1548,00
1412,26	1811,00
1417,77	1899,00
1423,28	1858,00
1428,78	2063,00
1434,28	2160,00
1439,77	2347,00
1445,26	2453,00
1450,74	2423,00
1456,22	2074,00
1461,68	2064,00
1467,15	1905,00
1472,61	1943,00
1478,06	1731,00
1483,51	1675,00
1488,95	1688,00
1494,38	1454,00
1499,81	1627,00
1505,24	1466,00
1510,65	1485,00
1516,07	1482,00
1521,48	1315,00
1526,88	1317,00
1532,27	1229,00
1537,67	1333,00
1543,05	1522,00
1548,43	1362,00
1553,81	1372,00
1559,18	1275,00
1564,54	1388,00
1569,90	1324,00
1575,25	1343,00
1580,60	1271,00
1585,94	1320,00
1591,28	1323,00
1596,61	1274,00
1601,93	1315,00
1607,25	1283,00
1612,57	1256,00
1617,88	1320,00
1623,18	1294,00
1628,48	1260,00
1633,77	1140,00
1639,06	1314,00
1644,34	1207,00
1649,62	1221,00
1654,89	1236,00
1660,16	1127,00
1665,42	1159,00
1670,67	1033,00
1675,92	1147,00
1681,17	1122,00
1686,41	1178,00
1691,64	1066,00
1696,87	995,00
1702,10	1190,00
1707,32	1120,00
1712,53	1100,00
1717,74	1015,00
1722,94	1000,00
1728,14	984,00
1733,33	1077,00
1738,52	944,00
1743,70	1006,00
1748,88	1109,00
1754,05	904,00
1759,22	1062,00
1764,38	900,00
1769,53	1032,00
1774,69	1060,00
1779,83	931,00
1784,97	996,00
1790,11	895,00
1795,24	1004,00
1800,36	959,00
1805,48	981,00
1810,60	932,00
1815,71	981,00
1820,82	859,00
1825,92	924,00
1831,01	888,00
1836,10	999,00
1841,19	955,00
1846,26	793,00
1851,34	962,00
1856,41	997,00
1861,47	826,00
1866,53	867,00
1871,59	829,00
1876,64	866,00
1881,68	955,00
1886,72	839,00
1891,76	992,00
1896,79	866,00
1901,81	833,00
1906,83	690,00
1911,85	755,00
1916,86	809,00
1921,86	841,00
1926,86	745,00
1931,86	738,00
1936,85	679,00
1941,83	734,00
1946,81	712,00
1951,79	710,00
1956,76	773,00
1961,72	711,00
1966,68	621,00
1971,64	684,00
1976,59	728,00
1981,54	608,00
1986,48	680,00
1991,42	630,00
1996,35	575,00
2001,27	560,00
2006,20	566,00
2011,11	611,00
2016,03	654,00
2020,93	641,00
2025,84	636,00
2030,73	520,00
2035,63	584,00
2040,52	548,00
2045,40	604,00
2050,28	493,00
2055,15	646,00
2060,02	598,00
2064,89	588,00
2069,75	600,00
2074,60	643,00
2079,46	586,00
2084,30	550,00
2089,14	574,00
2093,98	655,00
2098,81	693,00
2103,64	576,00
2108,46	581,00
2113,28	493,00
2118,09	519,00
2122,90	508,00
2127,70	512,00
2132,50	467,00
2137,30	373,00
2142,09	595,00
2146,87	379,00
2151,66	572,00
2156,43	509,00
2161,20	674,00
2165,97	372,00
2170,73	544,00
2175,49	464,00
2180,24	528,00
2184,99	457,00
2189,74	496,00
2194,48	471,00
2199,21	350,00
2203,94	510,00
2208,67	509,00
2213,39	506,00
2218,11	476,00
2222,82	470,00
2227,53	498,00
2232,23	568,00
2236,93	408,00
2241,63	369,00
2246,32	477,00
2251,00	485,00
2255,68	364,00
2260,36	415,00
2265,03	410,00
2269,70	511,00
2274,36	436,00
2279,02	312,00
2283,68	330,00
2288,33	392,00
2292,97	333,00
2297,61	272,00
2302,25	324,00
2306,88	552,00
2311,51	413,00
2316,14	417,00
2320,75	391,00
2325,37	447,00
2329,98	404,00
2334,59	384,00
2339,19	465,00
2343,79	333,00
2348,38	377,00
2352,97	339,00
2357,55	372,00
2362,13	275,00
2366,71	358,00
2371,28	372,00
2375,85	289,00
2380,41	313,00
2384,97	243,00
2389,52	285,00
2394,07	269,00
2398,62	380,00
2403,16	419,00
2407,70	319,00
2412,23	240,00
2416,76	334,00
2421,29	312,00
2425,81	281,00
2430,32	318,00
2434,84	375,00
2439,34	320,00
2443,85	396,00
2448,35	173,00
2452,84	144,00
2457,33	318,00
2461,82	345,00
2466,30	231,00
2470,78	393,00
2475,25	328,00
2479,72	376,00
2484,19	292,00
2488,65	372,00
2493,11	182,00
2497,56	330,00
2502,01	305,00
2506,46	388,00
2510,90	299,00
2515,34	389,00
2519,77	238,00
2524,20	347,00
2528,62	296,00
2533,04	323,00
2537,46	243,00
2541,87	244,00
2546,28	257,00
2550,68	236,00
2555,08	180,00
2559,48	314,00
2563,87	204,00
2568,26	357,00
2572,64	334,00
2577,02	260,00
2581,40	169,00
2585,77	165,00
2590,14	248,00
2594,50	231,00
2598,86	200,00
2603,22	253,00
2607,57	194,00
2611,92	223,00
2616,26	189,00
2620,60	207,00
2624,94	241,00
2629,27	297,00
2633,60	313,00
2637,92	340,00
2642,24	268,00
2646,56	281,00
2650,87	240,00
2655,18	237,00
2659,48	208,00
2663,78	278,00
2668,08	297,00
2672,37	112,00
2676,66	128,00
2680,95	293,00
2685,23	360,00
2689,50	326,00
2693,78	236,00
2698,05	290,00
2702,31	425,00
2706,57	182,00
2710,83	374,00
2715,08	316,00
2719,33	256,00
2723,58	472,00
2727,82	217,00
2732,06	256,00
2736,29	445,00
2740,53	369,00
2744,75	364,00
2748,97	339,00
2753,19	160,00
2757,41	133,00
2761,62	189,00
2765,83	283,00
2770,03	226,00
2774,23	304,00
2778,43	281,00
2782,62	275,00
2786,81	276,00
2791,00	183,00
2795,18	351,00
2799,35	332,00
2803,53	358,00
2807,70	129,00
2811,86	306,00
2816,03	336,00
2820,19	310,00
2824,34	504,00
2828,49	587,00
2832,64	544,00
2836,78	620,00
2840,92	743,00
2845,06	1039,00
2849,19	1087,00
2853,32	1205,00
2857,45	1116,00
2861,57	1110,00
2865,69	1099,00
2869,80	1084,00
2873,91	1071,00
2878,02	1180,00
2882,12	1239,00
2886,22	1293,00
2890,32	1220,00
2894,41	1194,00
2898,50	1050,00
2902,58	1080,00
2906,67	872,00
2910,74	723,00
2914,82	919,00
2918,89	785,00
2922,96	708,00
2927,02	749,00
2931,08	542,00
2935,13	614,00
2939,19	554,00
2943,24	588,00
2947,28	465,00
2951,32	429,00
2955,36	461,00
2959,40	273,00
2963,43	441,00
2967,46	510,00
2971,48	136,00
2975,50	252,00
2979,52	436,00
2983,53	338,00
2987,54	178,00
2991,55	231,00
2995,55	137,00
2999,55	150,00
3003,54	176,00
3007,54	-26,00
3011,53	265,00
3015,51	146,00
3019,49	200,00
3023,47	162,00
3027,45	245,00
3031,42	195,00
3035,39	153,00
3039,35	121,00
3043,31	73,00
3047,27	169,00
3051,22	-1,00
3055,17	-12,00
3059,12	144,00
3063,06	40,00
3067,00	116,00
3070,94	120,00
3074,87	96,00
3078,80	157,00
3082,73	312,00
3086,65	104,00
3090,57	115,00
3094,49	148,00
3098,40	265,00
3102,31	66,00
3106,22	112,00
3110,12	64,00
3114,02	82,00
3117,92	133,00
3121,81	-17,00
3125,70	-3,00
3129,58	84,00
3133,47	18,00
3137,34	93,00
3141,22	-12,00
3145,09	84,00
3148,96	74,00
3152,83	226,00
3156,69	3,00
3160,55	177,00
3164,40	73,00
3168,26	12,00
3172,10	155,00
3175,95	45,00
3179,79	94,00
3183,63	89,00
3187,47	-48,00
3191,30	120,00
3195,13	109,00
3198,95	101,00
3202,78	57,00
3206,60	-12,00
3210,41	99,00
3214,23	139,00
3218,03	131,00
3221,84	-12,00
3225,64	84,00
3229,44	-63,00
3233,24	94,00
3237,03	6,00
3240,82	10,00
3244,61	-56,00
3248,39	6,00
3252,17	38,00
3255,95	138,00
3259,72	15,00
3263,49	72,00
3267,26	104,00
3271,03	133,00
3274,79	3,00
3278,54	52,00
3282,30	3,00
3286,05	57,00
3289,80	45,00
3293,54	153,00
3297,29	91,00
3301,02	-32,00
3304,76	68,00
3308,49	45,00
3312,22	110,00
3315,95	-104,00
3319,67	35,00
3323,39	-78,00
3327,10	-7,00
3330,82	72,00
3334,53	36,00
3338,24	-37,00
3341,94	-35,00
3345,64	96,00
3349,34	1,00
3353,03	168,00
3356,72	27,00
3360,41	-45,00
3364,10	10,00
3367,78	-15,00
3371,46	12,00
3375,13	123,00
3378,81	140,00
3382,48	-44,00
3386,14	111,00
3389,81	8,00
3393,47	-118,00
3397,12	100,00
3400,78	55,00
3404,43	71,00
3408,08	69,00
3411,72	143,00
3415,36	-67,00
3419,00	-77,00
3422,64	45,00
3426,27	13,00
3429,90	98,00
3433,53	27,00
3437,15	-20,00
3440,77	190,00
3444,39	-47,00
3448,00	-29,00
3451,62	-1,00
3455,22	40,00
3458,83	126,00
3462,43	120,00
3466,03	90,00
3469,63	42,00
3473,22	-21,00
3476,81	-80,00
3480,40	135,00
3483,99	-21,00
3487,57	6,00
3491,15	27,00
3494,72	-47,00
3498,29	-24,00
3501,86	82,00
3505,43	110,00
3508,99	122,00
3512,56	-72,00
3516,11	-18,00
3519,67	42,00
3523,22	-20,00
3526,77	-84,00
3530,32	43,00
3533,86	128,00
3537,40	-86,00
3540,94	60,00
3544,47	-85,00
3548,00	77,00
3551,53	-145,00
3555,06	62,00
3558,58	-91,00
3562,10	-84,00
3565,62	-63,00
3569,13	-57,00
3572,64	24,00
3576,15	29,00
3579,66	2,00
3583,16	68,00
3586,66	22,00
3590,16	69,00
3593,65	53,00
3597,14	-84,00
3600,63	-34,00
3604,11	0,00
3607,60	139,00
3611,08	128,00
3614,55	46,00
3618,03	-92,00
3621,50	48,00
3624,97	39,00
3628,43	28,00
3631,90	-157,00
3635,36	191,00
3638,81	-3,00
3642,27	10,00
3645,72	-95,00
3649,17	53,00
3652,61	-27,00
3656,06	-43,00
3659,50	-8,00
3662,93	62,00
3666,37	5,00
3669,80	38,00
3673,23	-99,00
3676,65	33,00
3680,08	27,00
3683,50	-52,00
3686,92	92,00
3690,33	-42,00
3693,74	25,00
3697,15	8,00
3700,56	-38,00
3703,96	-84,00
3707,36	-62,00
3710,76	-75,00
3714,16	2,00
3717,55	19,00
3720,94	-16,00
3724,33	51,00
3727,71	133,00
3731,10	104,00
3734,48	41,00
3737,85	-37,00
3741,23	-21,00
3744,60	176,00
3747,97	38,00
3751,33	59,00
3754,69	94,00
3758,05	-33,00
3761,41	-81,00
3764,77	4,00
3768,12	-5,00
3771,47	-89,00
3774,82	65,00
3778,16	1,00
3781,50	0,00
3784,84	2,00
3788,18	-2,00
>>>>>End Processed Spectral Data<<<<<
