SpectraSuite Data File
++++++++++++++++++++++++++++++++++++
Date: Tue Mar 03 11:19:55 ICT 2026
User: user
Dark Spectrum Present: Yes
Reference Spectrum Present: No
Number of Sampled Component Spectra: 1
Spectrometers: MAYP113682
Integration Time (usec): 3000000 (MAYP113682)
Spectra Averaged: 1 (MAYP113682)
Boxcar Smoothing: 0 (MAYP113682)
Correct for Electrical Dark: No (MAYP113682)
Strobe/Lamp Enabled: No (MAYP113682)
Correct for Detector Non-linearity: No (MAYP113682)
Correct for Stray Light: No (MAYP113682)
Number of Pixels in Processed Spectrum: 2068
>>>>>Begin Processed Spectral Data<<<<<
-37534,58	5,00
-37414,56	-4,00
-37295,11	-1,00
-37176,24	-2,00
-37057,95	-9,00
-36940,22	1,00
-36823,05	147,00
-36706,45	103,00
-36590,40	46,00
-36474,90	81,00
-36359,95	87,00
-36245,55	-44,00
-36131,68	14,00
-36018,35	90,00
-35905,55	87,00
-35793,29	60,00
-35681,54	45,00
-35570,32	8,00
-35459,62	93,00
-35349,43	55,00
-35239,75	-5,00
-35130,58	46,00
-35021,91	-18,00
-34913,74	29,00
-34806,07	33,00
-34698,89	5,00
-34592,20	60,00
-34486,00	40,00
-34380,28	-5,00
-34275,04	83,00
-34170,27	34,00
-34065,98	43,00
-33962,16	123,00
-33858,81	18,00
-33755,92	126,00
-33653,49	21,00
-33551,52	102,00
-33450,01	148,00
-33348,94	-15,00
-33248,33	85,00
-33148,16	40,00
-33048,43	34,00
-32949,14	66,00
-32850,29	114,00
-32751,87	46,00
-32653,89	-8,00
-32556,33	42,00
-32459,20	76,00
-32362,49	97,00
-32266,19	69,00
-32170,32	31,00
-32074,86	159,00
-31979,82	62,00
-31885,18	75,00
-31790,95	149,00
-31697,12	10,00
-31603,69	8,00
-31510,67	79,00
-31418,04	74,00
-31325,80	-13,00
-31233,95	19,00
-31142,49	44,00
-31051,42	-64,00
-30960,73	27,00
-30870,43	14,00
-30780,50	114,00
-30690,95	-82,00
-30601,77	0,00
-30512,97	-99,00
-30424,53	48,00
-30336,46	145,00
-30248,76	-19,00
-30161,42	78,00
-30074,44	101,00
-29987,81	-32,00
-29901,55	-207,00
-29815,63	59,00
-29730,07	-55,00
-29644,86	-60,00
-29560,00	-7,00
-29475,48	203,00
-29391,30	-70,00
-29307,47	-18,00
-29223,97	34,00
-29140,81	127,00
-29057,99	130,00
-28975,50	75,00
-28893,34	79,00
-28811,51	40,00
-28730,00	39,00
-28648,82	1,00
-28567,97	138,00
-28487,43	10,00
-28407,21	83,00
-28327,32	15,00
-28247,73	122,00
-28168,46	39,00
-28089,50	71,00
-28010,85	-8,00
-27932,51	30,00
-27854,48	27,00
-27776,75	92,00
-27699,32	-28,00
-27622,19	-12,00
-27545,37	75,00
-27468,84	168,00
-27392,60	-18,00
-27316,66	184,00
-27241,01	161,00
-27165,66	147,00
-27090,59	73,00
-27015,81	110,00
-26941,31	-16,00
-26867,10	107,00
-26793,17	85,00
-26719,52	9,00
-26646,15	197,00
-26573,06	10,00
-26500,24	74,00
-26427,70	21,00
-26355,43	151,00
-26283,43	106,00
-26211,71	3,00
-26140,25	-70,00
-26069,06	63,00
-25998,13	91,00
-25927,46	140,00
-25857,06	127,00
-25786,92	42,00
-25717,04	-12,00
-25647,42	-25,00
-25578,05	131,00
-25508,94	200,00
-25440,09	79,00
-25371,48	101,00
-25303,13	123,00
-25235,02	-90,00
-25167,17	191,00
-25099,56	181,00
-25032,19	28,00
-24965,07	-81,00
-24898,20	-30,00
-24831,56	144,00
-24765,17	131,00
-24699,01	70,00
-24633,10	82,00
-24567,41	46,00
-24501,97	37,00
-24436,75	123,00
-24371,77	4,00
-24307,03	98,00
-24242,51	140,00
-24178,22	135,00
-24114,16	168,00
-24050,32	-60,00
-23986,71	105,00
-23923,32	93,00
-23860,16	126,00
-23797,22	-31,00
-23734,50	87,00
-23672,00	-106,00
-23609,71	-19,00
-23547,65	170,00
-23485,80	55,00
-23424,16	126,00
-23362,74	113,00
-23301,53	-40,00
-23240,54	110,00
-23179,75	50,00
-23119,17	146,00
-23058,80	-23,00
-22998,64	-45,00
-22938,68	46,00
-22878,93	107,00
-22819,39	58,00
-22760,04	99,00
-22700,90	92,00
-22641,96	36,00
-22583,22	104,00
-22524,68	24,00
-22466,33	24,00
-22408,19	133,00
-22350,23	21,00
-22292,48	154,00
-22234,92	242,00
-22177,55	-30,00
-22120,37	109,00
-22063,38	-104,00
-22006,58	167,00
-21949,98	47,00
-21893,56	125,00
-21837,33	57,00
-21781,28	124,00
-21725,42	-7,00
-21669,74	101,00
-21614,25	27,00
-21558,94	-73,00
-21503,81	18,00
-21448,86	72,00
-21394,10	88,00
-21339,51	70,00
-21285,10	-117,00
-21230,86	73,00
-21176,81	65,00
-21122,93	64,00
-21069,22	-40,00
-21015,69	-29,00
-20962,33	7,00
-20909,14	73,00
-20856,13	31,00
-20803,28	42,00
-20750,61	81,00
-20698,10	136,00
-20645,76	-10,00
-20593,59	-50,00
-20541,59	90,00
-20489,75	42,00
-20438,07	-145,00
-20386,56	-50,00
-20335,22	-73,00
-20284,03	102,00
-20233,01	192,00
-20182,15	125,00
-20131,45	64,00
-20080,91	222,00
-20030,52	78,00
-19980,30	70,00
-19930,23	23,00
-19880,32	33,00
-19830,56	89,00
-19780,96	98,00
-19731,52	-17,00
-19682,23	55,00
-19633,09	110,00
-19584,10	68,00
-19535,26	-10,00
-19486,58	26,00
-19438,04	217,00
-19389,66	171,00
-19341,42	82,00
-19293,33	104,00
-19245,39	139,00
-19197,60	-25,00
-19149,95	88,00
-19102,45	-50,00
-19055,09	-27,00
-19007,87	97,00
-18960,80	80,00
-18913,87	142,00
-18867,09	16,00
-18820,44	143,00
-18773,94	14,00
-18727,57	-2,00
-18681,35	23,00
-18635,26	-4,00
-18589,31	227,00
-18543,50	192,00
-18497,83	-4,00
-18452,29	-102,00
-18406,89	-11,00
-18361,63	14,00
-18316,50	-20,00
-18271,50	-31,00
-18226,63	92,00
-18181,90	114,00
-18137,30	71,00
-18092,84	50,00
-18048,50	-17,00
-18004,29	98,00
-17960,22	72,00
-17916,27	67,00
-17872,45	68,00
-17828,76	4,00
-17785,20	93,00
-17741,77	46,00
-17698,46	48,00
-17655,28	18,00
-17612,22	38,00
-17569,29	45,00
-17526,48	39,00
-17483,79	121,00
-17441,23	19,00
-17398,79	104,00
-17356,48	-33,00
-17314,28	51,00
-17272,21	12,00
-17230,26	3,00
-17188,42	99,00
-17146,71	56,00
-17105,12	-44,00
-17063,64	81,00
-17022,28	-45,00
-16981,04	131,00
-16939,92	89,00
-16898,91	101,00
-16858,02	-9,00
-16817,25	91,00
-16776,59	20,00
-16736,04	184,00
-16695,61	34,00
-16655,29	136,00
-16615,09	-11,00
-16574,99	92,00
-16535,01	-4,00
-16495,15	114,00
-16455,39	-39,00
-16415,74	72,00
-16376,21	157,00
-16336,78	-73,00
-16297,46	59,00
-16258,26	44,00
-16219,16	-86,00
-16180,17	84,00
-16141,28	-46,00
-16102,51	63,00
-16063,84	60,00
-16025,27	82,00
-15986,82	27,00
-15948,46	-33,00
-15910,22	55,00
-15872,07	20,00
-15834,04	39,00
-15796,10	-14,00
-15758,27	78,00
-15720,54	95,00
-15682,91	22,00
-15645,39	91,00
-15607,97	-2,00
-15570,64	-41,00
-15533,42	44,00
-15496,30	98,00
-15459,28	59,00
-15422,36	120,00
-15385,54	-60,00
-15348,82	-22,00
-15312,19	49,00
-15275,66	-75,00
-15239,23	73,00
-15202,90	124,00
-15166,67	144,00
-15130,53	7,00
-15094,48	27,00
-15058,54	74,00
-15022,68	27,00
-14986,93	-20,00
-14951,26	46,00
-14915,69	110,00
-14880,22	129,00
-14844,84	107,00
-14809,55	74,00
-14774,35	-15,00
-14739,25	122,00
-14704,24	88,00
-14669,32	138,00
-14634,49	61,00
-14599,75	-50,00
-14565,10	75,00
-14530,55	145,00
-14496,08	-37,00
-14461,70	-24,00
-14427,41	71,00
-14393,21	35,00
-14359,10	6,00
-14325,07	150,00
-14291,14	-45,00
-14257,29	-70,00
-14223,52	93,00
-14189,85	-21,00
-14156,26	172,00
-14122,76	107,00
-14089,34	51,00
-14056,01	41,00
-14022,76	-57,00
-13989,60	78,00
-13956,52	28,00
-13923,53	40,00
-13890,62	133,00
-13857,79	99,00
-13825,05	162,00
-13792,39	37,00
-13759,81	7,00
-13727,31	44,00
-13694,90	70,00
-13662,57	145,00
-13630,31	116,00
-13598,14	51,00
-13566,05	95,00
-13534,05	30,00
-13502,12	112,00
-13470,27	210,00
-13438,50	105,00
-13406,80	74,00
-13375,19	35,00
-13343,66	-30,00
-13312,20	95,00
-13280,83	101,00
-13249,53	51,00
-13218,30	29,00
-13187,16	-8,00
-13156,09	-87,00
-13125,10	177,00
-13094,18	87,00
-13063,34	94,00
-13032,58	23,00
-13001,89	118,00
-12971,28	76,00
-12940,74	38,00
-12910,27	10,00
-12879,88	-24,00
-12849,57	70,00
-12819,33	148,00
-12789,16	217,00
-12759,06	36,00
-12729,04	59,00
-12699,09	1772,00
-12669,21	26,00
-12639,41	-43,00
-12609,68	7,00
-12580,02	158,00
-12550,43	-14,00
-12520,91	109,00
-12491,46	-30,00
-12462,08	72,00
-12432,77	-43,00
-12403,54	167,00
-12374,37	130,00
-12345,27	5,00
-12316,24	-2,00
-12287,29	102,00
-12258,40	115,00
-12229,57	-33,00
-12200,82	168,00
-12172,14	23,00
-12143,52	-8,00
-12114,97	189,00
-12086,49	155,00
-12058,07	151,00
-12029,73	70,00
-12001,44	178,00
-11973,23	75,00
-11945,08	78,00
-11917,00	157,00
-11888,98	41,00
-11861,03	7,00
-11833,15	144,00
-11805,32	64,00
-11777,57	45,00
-11749,88	31,00
-11722,25	46,00
-11694,69	13,00
-11667,19	37,00
-11639,75	-18,00
-11612,38	0,00
-11585,07	6,00
-11557,83	-51,00
-11530,65	1,00
-11503,53	0,00
-11476,47	82,00
-11449,48	44,00
-11422,54	155,00
-11395,67	143,00
-11368,86	18,00
-11342,11	24,00
-11315,43	98,00
-11288,80	109,00
-11262,23	70,00
-11235,73	62,00
-11209,28	160,00
-11182,90	-3,00
-11156,57	227,00
-11130,31	-1,00
-11104,10	45,00
-11077,96	165,00
-11051,87	146,00
-11025,84	45,00
-10999,87	78,00
-10973,96	117,00
-10948,11	213,00
-10922,31	185,00
-10896,58	175,00
-10870,90	193,00
-10845,28	150,00
-10819,71	205,00
-10794,20	65,00
-10768,75	67,00
-10743,36	94,00
-10718,02	192,00
-10692,74	271,00
-10667,52	255,00
-10642,35	272,00
-10617,24	294,00
-10592,18	193,00
-10567,18	287,00
-10542,23	169,00
-10517,34	280,00
-10492,51	391,00
-10467,72	305,00
-10443,00	393,00
-10418,32	313,00
-10393,70	336,00
-10369,14	332,00
-10344,63	384,00
-10320,17	450,00
-10295,77	573,00
-10271,42	447,00
-10247,12	616,00
-10222,88	503,00
-10198,68	623,00
-10174,54	688,00
-10150,46	656,00
-10126,42	822,00
-10102,44	838,00
-10078,51	1007,00
-10054,63	941,00
-10030,80	909,00
-10007,03	987,00
-9983,30	1151,00
-9959,63	1123,00
-9936,01	1251,00
-9912,44	1264,00
-9888,92	1340,00
-9865,44	1464,00
-9842,02	1431,00
-9818,65	1704,00
-9795,33	1564,00
-9772,06	1612,00
-9748,84	1756,00
-9725,67	1924,00
-9702,55	2249,00
-9679,47	2707,00
-9656,45	2879,00
-9633,47	2967,00
-9610,55	2994,00
-9587,67	3272,00
-9564,84	3332,00
-9542,06	3874,00
-9519,32	4074,00
-9496,64	4619,00
-9474,00	4793,00
-9451,41	5045,00
-9428,87	4886,00
-9406,37	4716,00
-9383,92	4309,00
-9361,52	4231,00
-9339,17	4339,00
-9316,86	4770,00
-9294,60	5366,00
-9272,38	5880,00
-9250,21	6417,00
-9228,09	6479,00
-9206,01	6111,00
-9183,98	5358,00
-9162,00	4961,00
-9140,06	4543,00
-9118,16	4376,00
-9096,31	4576,00
-9074,51	4923,00
-9052,75	4788,00
-9031,04	4442,00
-9009,37	4083,00
-8987,74	3532,00
-8966,16	3194,00
-8944,63	2832,00
-8923,14	2778,00
-8901,69	2967,00
-8880,29	3343,00
-8858,93	3713,00
-8837,61	4030,00
-8816,34	4212,00
-8795,11	4240,00
-8773,92	3824,00
-8752,78	3551,00
-8731,68	3236,00
-8710,62	3408,00
-8689,61	3566,00
-8668,63	3801,00
-8647,70	4231,00
-8626,82	4191,00
-8605,97	3763,00
-8585,17	3497,00
-8564,41	3200,00
-8543,69	2932,00
-8523,01	2922,00
-8502,37	2848,00
-8481,78	3144,00
-8461,23	3271,00
-8440,71	3505,00
-8420,24	3691,00
-8399,81	3746,00
-8379,42	3718,00
-8359,08	3377,00
-8338,77	2986,00
-8318,50	2780,00
-8298,27	2784,00
-8278,09	3013,00
-8257,94	3096,00
-8237,83	3409,00
-8217,76	3390,00
-8197,74	3522,00
-8177,75	3491,00
-8157,80	3084,00
-8137,89	2976,00
-8118,02	2799,00
-8098,19	2782,00
-8078,40	2943,00
-8058,65	3082,00
-8038,93	3179,00
-8019,26	3054,00
-7999,62	3044,00
-7980,02	2704,00
-7960,46	2742,00
-7940,94	2670,00
-7921,46	2573,00
-7902,01	2627,00
-7882,60	2594,00
-7863,23	2539,00
-7843,90	2749,00
-7824,61	2838,00
-7805,35	3020,00
-7786,13	3109,00
-7766,95	3128,00
-7747,80	2928,00
-7728,69	2731,00
-7709,62	2814,00
-7690,59	3005,00
-7671,59	3223,00
-7652,63	3227,00
-7633,70	3300,00
-7614,81	3175,00
-7595,96	3010,00
-7577,15	2529,00
-7558,37	2448,00
-7539,62	2765,00
-7520,91	2956,00
-7502,24	3064,00
-7483,60	3189,00
-7465,00	2940,00
-7446,44	2562,00
-7427,91	2280,00
-7409,41	2027,00
-7390,95	1956,00
-7372,53	1937,00
-7354,14	1864,00
-7335,78	1933,00
-7317,46	2200,00
-7299,18	2459,00
-7280,92	2741,00
-7262,71	3059,00
-7244,52	3168,00
-7226,38	3258,00
-7208,26	3083,00
-7190,18	2919,00
-7172,14	2653,00
-7154,12	2616,00
-7136,15	2774,00
-7118,20	2897,00
-7100,29	2983,00
-7082,41	3098,00
-7064,57	2858,00
-7046,76	2751,00
-7028,98	2331,00
-7011,24	1990,00
-6993,53	1918,00
-6975,85	1459,00
-6958,20	1375,00
-6940,59	1270,00
-6923,01	1494,00
-6905,46	1920,00
-6887,94	2108,00
-6870,46	-175,00
-6853,01	2849,00
-6835,59	2721,00
-6818,21	2435,00
-6800,85	2063,00
-6783,53	1544,00
-6766,24	1392,00
-6748,98	1212,00
-6731,76	1227,00
-6714,56	1145,00
-6697,40	1081,00
-6680,26	1277,00
-6663,16	1490,00
-6646,09	1826,00
-6629,05	2247,00
-6612,05	2226,00
-6595,07	2245,00
-6578,13	2014,00
-6561,21	1671,00
-6544,33	1082,00
-6527,47	1138,00
-6510,65	885,00
-6493,86	957,00
-6477,10	958,00
-6460,36	1104,00
-6443,66	789,00
-6426,99	970,00
-6410,35	1106,00
-6393,74	1084,00
-6377,16	1250,00
-6360,61	1424,00
-6344,09	1556,00
-6327,59	1523,00
-6311,13	1700,00
-6294,70	1559,00
-6278,29	1787,00
-6261,92	2002,00
-6245,58	1910,00
-6229,26	2048,00
-6212,97	1633,00
-6196,72	1567,00
-6180,49	1104,00
-6164,29	717,00
-6148,12	567,00
-6131,98	500,00
-6115,86	348,00
-6099,78	445,00
-6083,72	498,00
-6067,69	475,00
-6051,69	395,00
-6035,72	558,00
-6019,78	725,00
-6003,87	1111,00
-5987,98	1399,00
-5972,12	1507,00
-5956,29	1467,00
-5940,49	1367,00
-5924,71	1017,00
-5908,96	789,00
-5893,24	592,00
-5877,55	679,00
-5861,89	725,00
-5846,25	660,00
-5830,64	655,00
-5815,05	656,00
-5799,50	776,00
-5783,97	728,00
-5768,47	923,00
-5752,99	1186,00
-5737,55	1349,00
-5722,12	1497,00
-5706,73	1449,00
-5691,36	1138,00
-5676,02	915,00
-5660,71	581,00
-5645,42	672,00
-5630,16	841,00
-5614,92	1029,00
-5599,71	1067,00
-5584,53	1133,00
-5569,37	1210,00
-5554,24	2024,00
-5539,14	913,00
-5524,06	855,00
-5509,01	973,00
-5493,98	997,00
-5478,98	969,00
-5464,00	915,00
-5449,05	868,00
-5434,13	714,00
-5419,23	644,00
-5404,36	775,00
-5389,51	1080,00
-5374,69	1289,00
-5359,89	1656,00
-5345,12	1654,00
-5330,37	1524,00
-5315,65	1206,00
-5300,95	986,00
-5286,28	768,00
-5271,63	883,00
-5257,01	937,00
-5242,41	975,00
-5227,84	729,00
-5213,29	678,00
-5198,76	476,00
-5184,26	422,00
-5169,79	503,00
-5155,33	715,00
-5140,91	975,00
-5126,51	1120,00
-5112,13	1134,00
-5097,77	891,00
-5083,44	727,00
-5069,13	559,00
-5054,85	611,00
-5040,59	743,00
-5026,36	835,00
-5012,15	1013,00
-4997,96	1013,00
-4983,80	701,00
-4969,66	586,00
-4955,54	605,00
-4941,44	696,00
-4927,37	1139,00
-4913,33	1476,00
-4899,30	1617,00
-4885,30	1529,00
-4871,33	1003,00
-4857,37	678,00
-4843,44	484,00
-4829,53	574,00
-4815,65	685,00
-4801,79	718,00
-4787,95	710,00
-4774,13	480,00
-4760,34	384,00
-4746,56	396,00
-4732,82	428,00
-4719,09	756,00
-4705,38	1201,00
-4691,70	1375,00
-4678,04	1324,00
-4664,41	984,00
-4650,79	636,00
-4637,20	424,00
-4623,63	596,00
-4610,08	785,00
-4596,56	927,00
-4583,05	1054,00
-4569,57	767,00
-4556,11	593,00
-4542,67	416,00
-4529,25	444,00
-4515,86	719,00
-4502,49	1176,00
-4489,13	1206,00
-4475,80	1108,00
-4462,49	607,00
-4449,21	286,00
-4435,94	424,00
-4422,70	598,00
-4409,47	707,00
-4396,27	897,00
-4383,09	611,00
-4369,93	281,00
-4356,79	262,00
-4343,67	298,00
-4330,58	471,00
-4317,50	605,00
-4304,45	663,00
-4291,41	484,00
-4278,40	382,00
-4265,41	296,00
-4252,44	394,00
-4239,49	688,00
-4226,55	694,00
-4213,65	565,00
-4200,76	294,00
-4187,89	181,00
-4175,04	154,00
-4162,21	227,00
-4149,40	244,00
-4136,61	155,00
-4123,85	271,00
-4111,10	120,00
-4098,37	308,00
-4085,66	222,00
-4072,98	189,00
-4060,31	137,00
-4047,66	210,00
-4035,04	414,00
-4022,43	219,00
-4009,84	187,00
-3997,27	19,00
-3984,72	-13,00
-3972,19	164,00
-3959,69	87,00
-3947,20	34,00
-3934,73	6,00
-3922,27	217,00
-3909,84	85,00
-3897,43	107,00
-3885,04	55,00
-3872,67	161,00
-3860,31	193,00
-3847,98	-5,00
-3835,66	247,00
-3823,36	111,00
-3811,09	56,00
-3798,83	83,00
-3786,59	67,00
-3774,37	59,00
-3762,17	132,00
-3749,98	187,00
-3737,82	73,00
-3725,67	148,00
-3713,55	110,00
-3701,44	100,00
-3689,35	49,00
-3677,28	99,00
-3665,22	66,00
-3653,19	-33,00
-3641,17	38,00
-3629,18	183,00
-3617,20	86,00
-3605,24	-7,00
-3593,30	-3,00
-3581,37	35,00
-3569,47	-7,00
-3557,58	-8,00
-3545,71	35,00
-3533,86	-41,00
-3522,02	30,00
-3510,21	147,00
-3498,41	39,00
-3486,63	-44,00
-3474,87	44,00
-3463,12	38,00
-3451,40	87,00
-3439,69	-78,00
-3428,00	131,00
-3416,33	50,00
-3404,67	130,00
-3393,03	59,00
-3381,41	37,00
-3369,81	26,00
-3358,22	62,00
-3346,66	97,00
-3335,10	15,00
-3323,57	-6,00
-3312,06	138,00
-3300,56	90,00
-3289,08	18,00
-3277,61	-24,00
-3266,16	257,00
-3254,73	71,00
-3243,32	66,00
-3231,92	-43,00
-3220,55	48,00
-3209,18	-41,00
-3197,84	121,00
-3186,51	171,00
-3175,20	47,00
-3163,90	101,00
-3152,63	79,00
-3141,36	48,00
-3130,12	-9,00
-3118,89	137,00
-3107,68	-4,00
-3096,49	34,00
-3085,31	-71,00
-3074,15	83,00
-3063,00	73,00
-3051,87	60,00
-3040,76	16,00
-3029,67	52,00
-3018,59	79,00
-3007,52	13,00
-2996,48	203,00
-2985,44	-35,00
-2974,43	54,00
-2963,43	71,00
-2952,45	49,00
-2941,48	107,00
-2930,53	130,00
-2919,60	59,00
-2908,68	65,00
-2897,78	36,00
-2886,89	0,00
-2876,02	196,00
-2865,17	-15,00
-2854,33	-46,00
-2843,50	92,00
-2832,70	41,00
-2821,90	65,00
-2811,13	27,00
-2800,37	-32,00
-2789,62	43,00
-2778,89	3,00
-2768,18	44,00
-2757,48	114,00
-2746,80	-59,00
-2736,13	-36,00
-2725,48	98,00
-2714,84	61,00
-2704,22	139,00
-2693,61	87,00
-2683,02	87,00
-2672,45	64,00
-2661,89	32,00
-2651,34	106,00
-2640,81	-76,00
-2630,30	96,00
-2619,80	-58,00
-2609,31	-2,00
-2598,84	-76,00
-2588,39	112,00
-2577,95	216,00
-2567,52	58,00
-2557,11	37,00
-2546,71	-13,00
-2536,33	221,00
-2525,97	132,00
-2515,62	7,00
-2505,28	142,00
-2494,96	56,00
-2484,65	54,00
-2474,36	-77,00
-2464,08	228,00
-2453,82	114,00
-2443,57	86,00
-2433,33	19,00
-2423,11	65,00
-2412,91	102,00
-2402,72	-19,00
-2392,54	86,00
-2382,38	15,00
-2372,23	-21,00
-2362,09	-4746,00
-2351,97	53,00
-2341,87	72,00
-2331,78	5,00
-2321,70	-1,00
-2311,64	93,00
-2301,59	182,00
-2291,55	98,00
-2281,53	97,00
-2271,53	29,00
-2261,53	-58,00
-2251,55	29,00
-2241,59	76,00
-2231,64	70,00
-2221,70	104,00
-2211,78	-29,00
-2201,87	113,00
-2191,97	170,00
-2182,09	5,00
-2172,22	102,00
-2162,37	83,00
-2152,53	64,00
-2142,70	101,00
-2132,89	134,00
-2123,09	124,00
-2113,30	36,00
-2103,53	-53,00
-2093,77	19,00
-2084,02	-49,00
-2074,29	16,00
-2064,57	35,00
-2054,86	41,00
-2045,17	198,00
-2035,49	130,00
-2025,82	193,00
-2016,17	62,00
-2006,53	76,00
-1996,91	165,00
-1987,29	67,00
-1977,69	21,00
-1968,11	92,00
-1958,53	121,00
-1948,97	88,00
-1939,42	16,00
-1929,89	-30,00
-1920,37	56,00
-1910,86	101,00
-1901,36	40,00
-1891,88	78,00
-1882,41	141,00
-1872,95	-62,00
-1863,51	8,00
-1854,08	93,00
-1844,66	34,00
-1835,26	116,00
-1825,86	3,00
-1816,48	123,00
-1807,11	-9,00
-1797,76	72,00
-1788,42	182,00
-1779,09	113,00
-1769,77	167,00
-1760,47	31,00
-1751,17	68,00
-1741,89	84,00
-1732,63	93,00
-1723,37	88,00
-1714,13	166,00
-1704,90	34,00
-1695,68	12,00
-1686,48	-40,00
-1677,29	-59,00
-1668,11	19,00
-1658,94	61,00
-1649,78	64,00
-1640,64	17,00
-1631,51	21,00
-1622,39	-65,00
-1613,28	167,00
-1604,19	100,00
-1595,10	25,00
-1586,03	111,00
-1576,97	82,00
-1567,93	-8,00
-1558,89	50,00
-1549,87	85,00
-1540,86	208,00
-1531,86	52,00
-1522,87	62,00
-1513,90	110,00
-1504,93	63,00
-1495,98	45,00
-1487,04	80,00
-1478,12	73,00
-1469,20	-11,00
-1460,30	95,00
-1451,40	103,00
-1442,52	140,00
-1433,65	85,00
-1424,80	87,00
-1415,95	-33,00
-1407,12	-14,00
-1398,30	87,00
-1389,48	-30,00
-1380,69	-11,00
-1371,90	137,00
-1363,12	50,00
-1354,36	32,00
-1345,60	29,00
-1336,86	80,00
-1328,13	42,00
-1319,41	86,00
-1310,70	113,00
-1302,01	-4,00
-1293,32	91,00
-1284,65	45,00
-1275,99	111,00
-1267,33	-52,00
-1258,69	-217,00
-1250,06	115,00
-1241,45	-21,00
-1232,84	178,00
-1224,25	-2,00
-1215,66	61,00
-1207,09	-51,00
-1198,53	164,00
-1189,97	152,00
-1181,43	-2,00
-1172,91	-43,00
-1164,39	90,00
-1155,88	127,00
-1147,38	-26,00
-1138,90	-4,00
-1130,43	-92,00
-1121,96	109,00
-1113,51	65,00
-1105,07	155,00
-1096,64	175,00
-1088,22	90,00
-1079,81	12,00
-1071,41	106,00
-1063,02	-33,00
-1054,65	67,00
-1046,28	182,00
-1037,92	120,00
-1029,58	71,00
-1021,24	103,00
-1012,92	-54,00
-1004,61	205,00
-996,30	113,00
-988,01	-10,00
-979,73	25,00
-971,46	7,00
-963,20	38,00
-954,95	169,00
-946,71	-33,00
-938,48	81,00
-930,26	67,00
-922,06	24,00
-913,86	92,00
-905,67	112,00
-897,49	-26,00
-889,33	-19,00
-881,17	89,00
-873,02	122,00
-864,89	76,00
-856,76	52,00
-848,65	31,00
-840,54	107,00
-832,45	168,00
-824,36	24,00
-816,29	82,00
-808,22	94,00
-800,17	83,00
-792,12	-16,00
-784,09	139,00
-776,06	95,00
-768,05	14,00
-760,04	120,00
-752,05	-2,00
-744,07	135,00
-736,09	134,00
-728,13	75,00
-720,17	2,00
-712,23	203,00
-704,29	95,00
-696,37	89,00
-688,45	91,00
-680,55	68,00
-672,65	-35,00
-664,77	125,00
-656,89	54,00
-649,03	-99,00
-641,17	16,00
-633,32	71,00
-625,49	148,00
-617,66	23,00
-609,84	27,00
-602,03	-74,00
-594,23	151,00
-586,45	55,00
-578,67	7,00
-570,90	89,00
-563,14	6,00
-555,39	82,00
-547,65	122,00
-539,91	152,00
-532,19	-50,00
-524,48	34,00
-516,78	90,00
-509,08	77,00
-501,40	88,00
-493,72	9,00
-486,06	75,00
-478,40	128,00
-470,76	47,00
-463,12	-31,00
-455,49	100,00
-447,87	13,00
-440,26	137,00
-432,66	38,00
-425,07	-37,00
-417,49	139,00
-409,92	35,00
-402,35	159,00
-394,80	13,00
-387,25	56,00
-379,72	143,00
-372,19	93,00
-364,67	168,00
-357,17	80,00
-349,67	127,00
-342,18	35,00
-334,69	12,00
-327,22	35,00
-319,76	-58,00
-312,30	142,00
-304,86	56,00
-297,42	86,00
-290,00	73,00
-282,58	120,00
-275,17	31,00
-267,77	118,00
-260,37	25,00
-252,99	238,00
-245,62	184,00
-238,25	57,00
-230,90	103,00
-223,55	87,00
-216,21	193,00
-208,88	43,00
-201,56	202,00
-194,25	158,00
-186,94	334,00
-179,65	266,00
-172,36	300,00
-165,08	283,00
-157,81	327,00
-150,55	465,00
-143,30	412,00
-136,06	457,00
-128,82	373,00
-121,60	417,00
-114,38	587,00
-107,17	650,00
-99,97	710,00
-92,78	824,00
-85,60	1025,00
-78,42	973,00
-71,25	1187,00
-64,10	1157,00
-56,95	1576,00
-49,81	1931,00
-42,67	2404,00
-35,55	2822,00
-28,43	3985,00
-21,33	6901,00
-14,23	23184,00
-7,14	54802,00
-0,05	54494,00
7,02	54069,00
14,09	54443,00
21,14	17526,00
28,19	7468,00
35,23	4677,00
42,27	3586,00
49,29	3026,00
56,31	2549,00
63,32	2086,00
70,32	1685,00
77,31	1633,00
84,29	1312,00
91,27	1185,00
98,23	812,00
105,19	968,00
112,14	933,00
119,09	1480,00
126,02	2018,00
132,95	2413,00
139,87	2623,00
146,78	2368,00
153,68	2284,00
160,58	2262,00
167,46	2367,00
174,34	2261,00
181,21	2289,00
188,08	2123,00
194,93	2215,00
201,78	2122,00
208,62	2064,00
215,45	2001,00
222,27	2086,00
229,09	2047,00
235,90	2123,00
242,70	1954,00
249,49	2107,00
256,27	1941,00
263,05	1911,00
269,82	1920,00
276,58	2052,00
283,33	1931,00
290,08	1915,00
296,82	1884,00
303,55	1779,00
310,27	1865,00
316,98	1665,00
323,69	1745,00
330,39	1826,00
337,08	1853,00
343,76	1790,00
350,44	1759,00
357,11	1911,00
363,77	1739,00
370,42	1837,00
377,07	1731,00
383,71	1742,00
390,34	1639,00
396,96	1653,00
403,58	1649,00
410,19	1751,00
416,79	1799,00
423,38	1825,00
429,97	1768,00
436,55	1644,00
443,12	1618,00
449,68	1392,00
456,24	1446,00
462,79	1517,00
469,33	1567,00
475,86	1434,00
482,39	1598,00
488,91	1578,00
495,42	1475,00
501,93	1467,00
508,42	1469,00
514,91	1388,00
521,40	1453,00
527,87	1347,00
534,34	1444,00
540,80	1314,00
547,25	1332,00
553,70	1424,00
560,14	1275,00
566,57	1293,00
573,00	1295,00
579,41	1411,00
585,83	1282,00
592,23	1377,00
598,62	1385,00
605,01	1288,00
611,40	1234,00
617,77	1230,00
624,14	1143,00
630,50	1186,00
636,85	1134,00
643,20	1214,00
649,54	1219,00
655,87	1239,00
662,20	1257,00
668,52	1077,00
674,83	1204,00
681,13	1083,00
687,43	1116,00
693,72	1128,00
700,00	1166,00
706,28	1133,00
712,55	1162,00
718,81	1130,00
725,07	1088,00
731,32	1205,00
737,56	1222,00
743,79	1215,00
750,02	1098,00
756,24	1192,00
762,46	1017,00
768,67	1141,00
774,87	1165,00
781,06	1266,00
787,25	1190,00
793,43	1079,00
799,60	988,00
805,77	1166,00
811,93	1147,00
818,08	1147,00
824,23	1032,00
830,37	1242,00
836,50	1078,00
842,63	1202,00
848,75	1105,00
854,87	1205,00
860,97	1109,00
867,07	1189,00
873,17	1088,00
879,25	1189,00
885,33	1185,00
891,41	1256,00
897,47	1189,00
903,53	1118,00
909,59	1162,00
915,63	1058,00
921,67	1004,00
927,71	1030,00
933,74	991,00
939,76	1068,00
945,77	1001,00
951,78	1026,00
957,78	889,00
963,78	951,00
969,77	909,00
975,75	954,00
981,72	1057,00
987,69	1155,00
993,66	956,00
999,61	919,00
1005,56	1073,00
1011,51	981,00
1017,44	939,00
1023,37	963,00
1029,30	1123,00
1035,22	1049,00
1041,13	1076,00
1047,03	1137,00
1052,93	1183,00
1058,83	1493,00
1064,71	1431,00
1070,59	1313,00
1076,47	1183,00
1082,33	1121,00
1088,20	1067,00
1094,05	1167,00
1099,90	1104,00
1105,74	916,00
1111,58	1012,00
1117,41	1165,00
1123,23	1331,00
1129,05	1437,00
1134,86	1412,00
1140,67	1218,00
1146,47	1103,00
1152,26	1011,00
1158,05	903,00
1163,83	921,00
1169,60	943,00
1175,37	995,00
1181,13	843,00
1186,89	753,00
1192,64	816,00
1198,38	893,00
1204,12	840,00
1209,85	966,00
1215,58	880,00
1221,30	825,00
1227,02	875,00
1232,72	826,00
1238,43	784,00
1244,12	914,00
1249,81	972,00
1255,50	870,00
1261,17	914,00
1266,85	984,00
1272,51	1013,00
1278,17	922,00
1283,83	1132,00
1289,47	1366,00
1295,12	1725,00
1300,75	1699,00
1306,38	1438,00
1312,01	1185,00
1317,63	1145,00
1323,24	1012,00
1328,85	1055,00
1334,45	1094,00
1340,04	951,00
1345,63	1111,00
1351,22	1127,00
1356,80	936,00
1362,37	1144,00
1367,93	1066,00
1373,49	1106,00
1379,05	906,00
1384,60	1070,00
1390,14	1050,00
1395,68	990,00
1401,21	953,00
1406,74	1133,00
1412,26	1134,00
1417,77	1425,00
1423,28	1309,00
1428,78	1360,00
1434,28	1732,00
1439,77	1877,00
1445,26	1839,00
1450,74	1575,00
1456,22	1669,00
1461,68	1548,00
1467,15	1528,00
1472,61	1296,00
1478,06	1071,00
1483,51	1133,00
1488,95	902,00
1494,38	933,00
1499,81	994,00
1505,24	933,00
1510,65	838,00
1516,07	772,00
1521,48	870,00
1526,88	803,00
1532,27	822,00
1537,67	884,00
1543,05	763,00
1548,43	810,00
1553,81	731,00
1559,18	882,00
1564,54	954,00
1569,90	831,00
1575,25	723,00
1580,60	799,00
1585,94	792,00
1591,28	818,00
1596,61	670,00
1601,93	840,00
1607,25	649,00
1612,57	806,00
1617,88	721,00
1623,18	834,00
1628,48	561,00
1633,77	656,00
1639,06	734,00
1644,34	692,00
1649,62	663,00
1654,89	664,00
1660,16	716,00
1665,42	518,00
1670,67	610,00
1675,92	627,00
1681,17	720,00
1686,41	684,00
1691,64	603,00
1696,87	722,00
1702,10	562,00
1707,32	717,00
1712,53	610,00
1717,74	683,00
1722,94	626,00
1728,14	653,00
1733,33	584,00
1738,52	478,00
1743,70	624,00
1748,88	605,00
1754,05	673,00
1759,22	585,00
1764,38	520,00
1769,53	447,00
1774,69	672,00
1779,83	595,00
1784,97	616,00
1790,11	569,00
1795,24	499,00
1800,36	577,00
1805,48	495,00
1810,60	517,00
1815,71	468,00
1820,82	512,00
1825,92	439,00
1831,01	462,00
1836,10	649,00
1841,19	445,00
1846,26	550,00
1851,34	511,00
1856,41	471,00
1861,47	520,00
1866,53	569,00
1871,59	522,00
1876,64	539,00
1881,68	509,00
1886,72	541,00
1891,76	459,00
1896,79	479,00
1901,81	513,00
1906,83	508,00
1911,85	455,00
1916,86	373,00
1921,86	460,00
1926,86	348,00
1931,86	445,00
1936,85	401,00
1941,83	494,00
1946,81	458,00
1951,79	414,00
1956,76	298,00
1961,72	438,00
1966,68	416,00
1971,64	360,00
1976,59	379,00
1981,54	330,00
1986,48	386,00
1991,42	413,00
1996,35	422,00
2001,27	356,00
2006,20	376,00
2011,11	394,00
2016,03	301,00
2020,93	414,00
2025,84	384,00
2030,73	441,00
2035,63	323,00
2040,52	387,00
2045,40	562,00
2050,28	398,00
2055,15	227,00
2060,02	324,00
2064,89	265,00
2069,75	381,00
2074,60	386,00
2079,46	285,00
2084,30	317,00
2089,14	358,00
2093,98	328,00
2098,81	411,00
2103,64	356,00
2108,46	389,00
2113,28	407,00
2118,09	486,00
2122,90	398,00
2127,70	316,00
2132,50	410,00
2137,30	336,00
2142,09	305,00
2146,87	258,00
2151,66	315,00
2156,43	211,00
2161,20	297,00
2165,97	223,00
2170,73	242,00
2175,49	405,00
2180,24	257,00
2184,99	187,00
2189,74	475,00
2194,48	249,00
2199,21	424,00
2203,94	281,00
2208,67	333,00
2213,39	300,00
2218,11	262,00
2222,82	208,00
2227,53	342,00
2232,23	338,00
2236,93	327,00
2241,63	337,00
2246,32	314,00
2251,00	269,00
2255,68	195,00
2260,36	187,00
2265,03	221,00
2269,70	261,00
2274,36	294,00
2279,02	228,00
2283,68	218,00
2288,33	210,00
2292,97	312,00
2297,61	278,00
2302,25	286,00
2306,88	335,00
2311,51	332,00
2316,14	225,00
2320,75	199,00
2325,37	297,00
2329,98	342,00
2334,59	264,00
2339,19	302,00
2343,79	296,00
2348,38	240,00
2352,97	344,00
2357,55	274,00
2362,13	404,00
2366,71	225,00
2371,28	226,00
2375,85	259,00
2380,41	186,00
2384,97	248,00
2389,52	279,00
2394,07	181,00
2398,62	220,00
2403,16	349,00
2407,70	154,00
2412,23	168,00
2416,76	394,00
2421,29	256,00
2425,81	314,00
2430,32	261,00
2434,84	198,00
2439,34	277,00
2443,85	225,00
2448,35	180,00
2452,84	156,00
2457,33	197,00
2461,82	42,00
2466,30	222,00
2470,78	200,00
2475,25	240,00
2479,72	307,00
2484,19	200,00
2488,65	101,00
2493,11	223,00
2497,56	199,00
2502,01	147,00
2506,46	87,00
2510,90	97,00
2515,34	155,00
2519,77	226,00
2524,20	154,00
2528,62	118,00
2533,04	156,00
2537,46	178,00
2541,87	194,00
2546,28	260,00
2550,68	120,00
2555,08	128,00
2559,48	174,00
2563,87	221,00
2568,26	275,00
2572,64	86,00
2577,02	224,00
2581,40	274,00
2585,77	238,00
2590,14	175,00
2594,50	156,00
2598,86	294,00
2603,22	195,00
2607,57	217,00
2611,92	169,00
2616,26	204,00
2620,60	86,00
2624,94	259,00
2629,27	201,00
2633,60	222,00
2637,92	126,00
2642,24	189,00
2646,56	199,00
2650,87	129,00
2655,18	144,00
2659,48	160,00
2663,78	333,00
2668,08	189,00
2672,37	226,00
2676,66	226,00
2680,95	178,00
2685,23	254,00
2689,50	243,00
2693,78	204,00
2698,05	310,00
2702,31	370,00
2706,57	134,00
2710,83	238,00
2715,08	400,00
2719,33	274,00
2723,58	333,00
2727,82	380,00
2732,06	327,00
2736,29	361,00
2740,53	336,00
2744,75	299,00
2748,97	440,00
2753,19	188,00
2757,41	204,00
2761,62	295,00
2765,83	247,00
2770,03	371,00
2774,23	355,00
2778,43	226,00
2782,62	314,00
2786,81	329,00
2791,00	349,00
2795,18	353,00
2799,35	265,00
2803,53	380,00
2807,70	351,00
2811,86	400,00
2816,03	427,00
2820,19	504,00
2824,34	559,00
2828,49	508,00
2832,64	664,00
2836,78	752,00
2840,92	969,00
2845,06	1170,00
2849,19	1188,00
2853,32	1334,00
2857,45	1254,00
2861,57	1253,00
2865,69	1192,00
2869,80	1228,00
2873,91	1250,00
2878,02	1516,00
2882,12	1510,00
2886,22	1390,00
2890,32	1260,00
2894,41	1276,00
2898,50	1161,00
2902,58	1192,00
2906,67	1041,00
2910,74	1118,00
2914,82	1024,00
2918,89	905,00
2922,96	746,00
2927,02	828,00
2931,08	771,00
2935,13	678,00
2939,19	683,00
2943,24	644,00
2947,28	598,00
2951,32	469,00
2955,36	421,00
2959,40	313,00
2963,43	371,00
2967,46	304,00
2971,48	244,00
2975,50	318,00
2979,52	282,00
2983,53	358,00
2987,54	270,00
2991,55	249,00
2995,55	325,00
2999,55	216,00
3003,54	165,00
3007,54	59,00
3011,53	155,00
3015,51	87,00
3019,49	70,00
3023,47	96,00
3027,45	153,00
3031,42	125,00
3035,39	38,00
3039,35	54,00
3043,31	90,00
3047,27	150,00
3051,22	246,00
3055,17	224,00
3059,12	67,00
3063,06	165,00
3067,00	134,00
3070,94	185,00
3074,87	21,00
3078,80	133,00
3082,73	116,00
3086,65	153,00
3090,57	43,00
3094,49	116,00
3098,40	238,00
3102,31	75,00
3106,22	147,00
3110,12	118,00
3114,02	113,00
3117,92	204,00
3121,81	85,00
3125,70	18,00
3129,58	125,00
3133,47	91,00
3137,34	16,00
3141,22	136,00
3145,09	19,00
3148,96	46,00
3152,83	261,00
3156,69	208,00
3160,55	79,00
3164,40	171,00
3168,26	216,00
3172,10	76,00
3175,95	121,00
3179,79	220,00
3183,63	69,00
3187,47	186,00
3191,30	98,00
3195,13	42,00
3198,95	186,00
3202,78	218,00
3206,60	73,00
3210,41	44,00
3214,23	30,00
3218,03	224,00
3221,84	122,00
3225,64	51,00
3229,44	63,00
3233,24	106,00
3237,03	122,00
3240,82	76,00
3244,61	58,00
3248,39	99,00
3252,17	63,00
3255,95	174,00
3259,72	171,00
3263,49	96,00
3267,26	96,00
3271,03	39,00
3274,79	33,00
3278,54	12,00
3282,30	23,00
3286,05	26,00
3289,80	188,00
3293,54	89,00
3297,29	254,00
3301,02	72,00
3304,76	76,00
3308,49	8,00
3312,22	32,00
3315,95	129,00
3319,67	138,00
3323,39	-22,00
3327,10	81,00
3330,82	56,00
3334,53	68,00
3338,24	-8,00
3341,94	192,00
3345,64	118,00
3349,34	134,00
3353,03	69,00
3356,72	-57,00
3360,41	72,00
3364,10	112,00
3367,78	169,00
3371,46	92,00
3375,13	-13,00
3378,81	69,00
3382,48	-36,00
3386,14	43,00
3389,81	147,00
3393,47	35,00
3397,12	92,00
3400,78	162,00
3404,43	56,00
3408,08	235,00
3411,72	25,00
3415,36	-19,00
3419,00	74,00
3422,64	25,00
3426,27	106,00
3429,90	109,00
3433,53	184,00
3437,15	98,00
3440,77	61,00
3444,39	1,00
3448,00	125,00
3451,62	160,00
3455,22	-89,00
3458,83	99,00
3462,43	78,00
3466,03	12,00
3469,63	88,00
3473,22	119,00
3476,81	135,00
3480,40	-12,00
3483,99	98,00
3487,57	105,00
3491,15	56,00
3494,72	-32,00
3498,29	155,00
3501,86	194,00
3505,43	-26,00
3508,99	-76,00
3512,56	40,00
3516,11	38,00
3519,67	105,00
3523,22	71,00
3526,77	106,00
3530,32	38,00
3533,86	71,00
3537,40	125,00
3540,94	153,00
3544,47	-37,00
3548,00	91,00
3551,53	99,00
3555,06	113,00
3558,58	75,00
3562,10	61,00
3565,62	12,00
3569,13	63,00
3572,64	-18,00
3576,15	170,00
3579,66	73,00
3583,16	-77,00
3586,66	-1,00
3590,16	71,00
3593,65	69,00
3597,14	55,00
3600,63	110,00
3604,11	21,00
3607,60	-2,00
3611,08	170,00
3614,55	233,00
3618,03	-28,00
3621,50	-11,00
3624,97	104,00
3628,43	19,00
3631,90	78,00
3635,36	36,00
3638,81	32,00
3642,27	30,00
3645,72	47,00
3649,17	67,00
3652,61	-16,00
3656,06	122,00
3659,50	-11,00
3662,93	-73,00
3666,37	92,00
3669,80	-41,00
3673,23	20,00
3676,65	109,00
3680,08	61,00
3683,50	20,00
3686,92	111,00
3690,33	104,00
3693,74	75,00
3697,15	22,00
3700,56	14,00
3703,96	36,00
3707,36	35,00
3710,76	64,00
3714,16	23,00
3717,55	59,00
3720,94	72,00
3724,33	36,00
3727,71	169,00
3731,10	-70,00
3734,48	95,00
3737,85	-8,00
3741,23	111,00
3744,60	49,00
3747,97	3,00
3751,33	120,00
3754,69	-16,00
3758,05	87,00
3761,41	171,00
3764,77	74,00
3768,12	24,00
3771,47	14,00
3774,82	44,00
3778,16	-6,00
3781,50	0,00
3784,84	-4,00
3788,18	10,00
>>>>>End Processed Spectral Data<<<<<
