SpectraSuite Data File
++++++++++++++++++++++++++++++++++++
Date: Tue Mar 03 11:19:25 ICT 2026
User: user
Dark Spectrum Present: Yes
Reference Spectrum Present: No
Number of Sampled Component Spectra: 1
Spectrometers: MAYP113682
Integration Time (usec): 3000000 (MAYP113682)
Spectra Averaged: 1 (MAYP113682)
Boxcar Smoothing: 0 (MAYP113682)
Correct for Electrical Dark: No (MAYP113682)
Strobe/Lamp Enabled: No (MAYP113682)
Correct for Detector Non-linearity: No (MAYP113682)
Correct for Stray Light: No (MAYP113682)
Number of Pixels in Processed Spectrum: 2068
>>>>>Begin Processed Spectral Data<<<<<
-37534,58	0,00
-37414,56	-4,00
-37295,11	-1,00
-37176,24	0,00
-37057,95	-20,00
-36940,22	73,00
-36823,05	40,00
-36706,45	12,00
-36590,40	8,00
-36474,90	70,00
-36359,95	16,00
-36245,55	20,00
-36131,68	-62,00
-36018,35	-7,00
-35905,55	95,00
-35793,29	66,00
-35681,54	49,00
-35570,32	84,00
-35459,62	81,00
-35349,43	60,00
-35239,75	-4,00
-35130,58	60,00
-35021,91	7,00
-34913,74	-16,00
-34806,07	-41,00
-34698,89	0,00
-34592,20	42,00
-34486,00	7,00
-34380,28	30,00
-34275,04	121,00
-34170,27	124,00
-34065,98	-60,00
-33962,16	133,00
-33858,81	108,00
-33755,92	51,00
-33653,49	90,00
-33551,52	39,00
-33450,01	58,00
-33348,94	73,00
-33248,33	17,00
-33148,16	109,00
-33048,43	156,00
-32949,14	-5,00
-32850,29	99,00
-32751,87	166,00
-32653,89	-32,00
-32556,33	-57,00
-32459,20	110,00
-32362,49	105,00
-32266,19	39,00
-32170,32	67,00
-32074,86	27,00
-31979,82	-26,00
-31885,18	76,00
-31790,95	107,00
-31697,12	9,00
-31603,69	133,00
-31510,67	-1,00
-31418,04	29,00
-31325,80	50,00
-31233,95	-50,00
-31142,49	42,00
-31051,42	14,00
-30960,73	133,00
-30870,43	-11,00
-30780,50	110,00
-30690,95	-93,00
-30601,77	48,00
-30512,97	-38,00
-30424,53	-20,00
-30336,46	129,00
-30248,76	-48,00
-30161,42	193,00
-30074,44	18,00
-29987,81	-12,00
-29901,55	-128,00
-29815,63	32,00
-29730,07	28,00
-29644,86	-19,00
-29560,00	-23,00
-29475,48	171,00
-29391,30	69,00
-29307,47	20,00
-29223,97	66,00
-29140,81	-12,00
-29057,99	94,00
-28975,50	98,00
-28893,34	72,00
-28811,51	16,00
-28730,00	98,00
-28648,82	12,00
-28567,97	118,00
-28487,43	85,00
-28407,21	-27,00
-28327,32	-77,00
-28247,73	80,00
-28168,46	78,00
-28089,50	26,00
-28010,85	-11,00
-27932,51	-47,00
-27854,48	27,00
-27776,75	115,00
-27699,32	-19,00
-27622,19	-27,00
-27545,37	36,00
-27468,84	52,00
-27392,60	-18,00
-27316,66	99,00
-27241,01	-28,00
-27165,66	260,00
-27090,59	30,00
-27015,81	-48,00
-26941,31	-26,00
-26867,10	43,00
-26793,17	73,00
-26719,52	22,00
-26646,15	150,00
-26573,06	120,00
-26500,24	-40,00
-26427,70	-13,00
-26355,43	112,00
-26283,43	61,00
-26211,71	-11,00
-26140,25	-36,00
-26069,06	19,00
-25998,13	190,00
-25927,46	112,00
-25857,06	115,00
-25786,92	-8,00
-25717,04	31,00
-25647,42	-146,00
-25578,05	55,00
-25508,94	194,00
-25440,09	-45,00
-25371,48	93,00
-25303,13	28,00
-25235,02	30,00
-25167,17	222,00
-25099,56	26,00
-25032,19	43,00
-24965,07	-149,00
-24898,20	12,00
-24831,56	135,00
-24765,17	75,00
-24699,01	-21,00
-24633,10	10,00
-24567,41	137,00
-24501,97	70,00
-24436,75	171,00
-24371,77	6,00
-24307,03	89,00
-24242,51	155,00
-24178,22	100,00
-24114,16	208,00
-24050,32	48,00
-23986,71	137,00
-23923,32	90,00
-23860,16	146,00
-23797,22	-28,00
-23734,50	25,00
-23672,00	61,00
-23609,71	2,00
-23547,65	140,00
-23485,80	29,00
-23424,16	69,00
-23362,74	152,00
-23301,53	-23,00
-23240,54	50,00
-23179,75	45,00
-23119,17	123,00
-23058,80	-66,00
-22998,64	68,00
-22938,68	-11,00
-22878,93	17,00
-22819,39	104,00
-22760,04	103,00
-22700,90	100,00
-22641,96	-21,00
-22583,22	-32,00
-22524,68	-43,00
-22466,33	-65,00
-22408,19	21,00
-22350,23	12,00
-22292,48	146,00
-22234,92	58,00
-22177,55	57,00
-22120,37	154,00
-22063,38	9,00
-22006,58	106,00
-21949,98	105,00
-21893,56	178,00
-21837,33	45,00
-21781,28	180,00
-21725,42	47,00
-21669,74	41,00
-21614,25	17,00
-21558,94	26,00
-21503,81	-88,00
-21448,86	91,00
-21394,10	122,00
-21339,51	124,00
-21285,10	-67,00
-21230,86	-12,00
-21176,81	-21,00
-21122,93	-17,00
-21069,22	48,00
-21015,69	-48,00
-20962,33	85,00
-20909,14	3,00
-20856,13	90,00
-20803,28	17,00
-20750,61	61,00
-20698,10	10,00
-20645,76	60,00
-20593,59	-66,00
-20541,59	90,00
-20489,75	-11,00
-20438,07	-35,00
-20386,56	-16,00
-20335,22	53,00
-20284,03	127,00
-20233,01	20,00
-20182,15	104,00
-20131,45	5,00
-20080,91	155,00
-20030,52	32,00
-19980,30	91,00
-19930,23	5,00
-19880,32	-83,00
-19830,56	-86,00
-19780,96	100,00
-19731,52	61,00
-19682,23	44,00
-19633,09	85,00
-19584,10	146,00
-19535,26	79,00
-19486,58	-56,00
-19438,04	87,00
-19389,66	265,00
-19341,42	73,00
-19293,33	91,00
-19245,39	97,00
-19197,60	-47,00
-19149,95	2,00
-19102,45	-31,00
-19055,09	3,00
-19007,87	23,00
-18960,80	96,00
-18913,87	125,00
-18867,09	-86,00
-18820,44	152,00
-18773,94	84,00
-18727,57	-91,00
-18681,35	-73,00
-18635,26	83,00
-18589,31	121,00
-18543,50	138,00
-18497,83	74,00
-18452,29	-43,00
-18406,89	11,00
-18361,63	0,00
-18316,50	-32,00
-18271,50	41,00
-18226,63	-53,00
-18181,90	89,00
-18137,30	101,00
-18092,84	33,00
-18048,50	-119,00
-18004,29	83,00
-17960,22	161,00
-17916,27	62,00
-17872,45	-69,00
-17828,76	-4,00
-17785,20	97,00
-17741,77	-23,00
-17698,46	36,00
-17655,28	29,00
-17612,22	-19,00
-17569,29	48,00
-17526,48	66,00
-17483,79	-6,00
-17441,23	27,00
-17398,79	51,00
-17356,48	-26,00
-17314,28	46,00
-17272,21	-15,00
-17230,26	9,00
-17188,42	115,00
-17146,71	43,00
-17105,12	8,00
-17063,64	132,00
-17022,28	21,00
-16981,04	65,00
-16939,92	92,00
-16898,91	14,00
-16858,02	-22,00
-16817,25	111,00
-16776,59	-63,00
-16736,04	25,00
-16695,61	138,00
-16655,29	102,00
-16615,09	82,00
-16574,99	11,00
-16535,01	116,00
-16495,15	107,00
-16455,39	36,00
-16415,74	-91,00
-16376,21	28,00
-16336,78	97,00
-16297,46	75,00
-16258,26	-1,00
-16219,16	-12,00
-16180,17	60,00
-16141,28	-44,00
-16102,51	37,00
-16063,84	28,00
-16025,27	37,00
-15986,82	43,00
-15948,46	116,00
-15910,22	-45,00
-15872,07	100,00
-15834,04	25,00
-15796,10	22,00
-15758,27	139,00
-15720,54	153,00
-15682,91	28,00
-15645,39	-31,00
-15607,97	-53,00
-15570,64	26,00
-15533,42	83,00
-15496,30	53,00
-15459,28	-70,00
-15422,36	137,00
-15385,54	-57,00
-15348,82	89,00
-15312,19	153,00
-15275,66	46,00
-15239,23	77,00
-15202,90	54,00
-15166,67	135,00
-15130,53	9,00
-15094,48	10,00
-15058,54	94,00
-15022,68	8,00
-14986,93	-9,00
-14951,26	20,00
-14915,69	112,00
-14880,22	-9,00
-14844,84	43,00
-14809,55	91,00
-14774,35	-24,00
-14739,25	60,00
-14704,24	6,00
-14669,32	64,00
-14634,49	104,00
-14599,75	75,00
-14565,10	161,00
-14530,55	137,00
-14496,08	-22,00
-14461,70	-16,00
-14427,41	92,00
-14393,21	54,00
-14359,10	149,00
-14325,07	81,00
-14291,14	93,00
-14257,29	-67,00
-14223,52	89,00
-14189,85	-16,00
-14156,26	88,00
-14122,76	149,00
-14089,34	-54,00
-14056,01	104,00
-14022,76	41,00
-13989,60	106,00
-13956,52	133,00
-13923,53	56,00
-13890,62	8,00
-13857,79	168,00
-13825,05	64,00
-13792,39	-28,00
-13759,81	45,00
-13727,31	44,00
-13694,90	1,00
-13662,57	150,00
-13630,31	134,00
-13598,14	12,00
-13566,05	46,00
-13534,05	127,00
-13502,12	122,00
-13470,27	77,00
-13438,50	115,00
-13406,80	48,00
-13375,19	9,00
-13343,66	38,00
-13312,20	51,00
-13280,83	-29,00
-13249,53	-16,00
-13218,30	9,00
-13187,16	21,00
-13156,09	87,00
-13125,10	170,00
-13094,18	-27,00
-13063,34	63,00
-13032,58	12,00
-13001,89	91,00
-12971,28	4,00
-12940,74	55,00
-12910,27	27,00
-12879,88	-169,00
-12849,57	109,00
-12819,33	120,00
-12789,16	121,00
-12759,06	165,00
-12729,04	-18,00
-12699,09	255,00
-12669,21	89,00
-12639,41	-29,00
-12609,68	-61,00
-12580,02	85,00
-12550,43	8,00
-12520,91	68,00
-12491,46	20,00
-12462,08	53,00
-12432,77	75,00
-12403,54	54,00
-12374,37	123,00
-12345,27	105,00
-12316,24	-32,00
-12287,29	-14,00
-12258,40	107,00
-12229,57	-40,00
-12200,82	-3,00
-12172,14	29,00
-12143,52	-19,00
-12114,97	16,00
-12086,49	149,00
-12058,07	107,00
-12029,73	53,00
-12001,44	116,00
-11973,23	134,00
-11945,08	67,00
-11917,00	126,00
-11888,98	-14,00
-11861,03	-54,00
-11833,15	134,00
-11805,32	104,00
-11777,57	16,00
-11749,88	0,00
-11722,25	111,00
-11694,69	72,00
-11667,19	-40,00
-11639,75	-93,00
-11612,38	-31,00
-11585,07	83,00
-11557,83	65,00
-11530,65	-59,00
-11503,53	-5,00
-11476,47	-19,00
-11449,48	48,00
-11422,54	60,00
-11395,67	11,00
-11368,86	-62,00
-11342,11	-98,00
-11315,43	184,00
-11288,80	-41,00
-11262,23	65,00
-11235,73	54,00
-11209,28	38,00
-11182,90	-57,00
-11156,57	164,00
-11130,31	36,00
-11104,10	-66,00
-11077,96	39,00
-11051,87	71,00
-11025,84	60,00
-10999,87	-3,00
-10973,96	15,00
-10948,11	242,00
-10922,31	91,00
-10896,58	77,00
-10870,90	87,00
-10845,28	134,00
-10819,71	52,00
-10794,20	144,00
-10768,75	18,00
-10743,36	88,00
-10718,02	87,00
-10692,74	80,00
-10667,52	185,00
-10642,35	-1,00
-10617,24	198,00
-10592,18	70,00
-10567,18	151,00
-10542,23	-16,00
-10517,34	180,00
-10492,51	282,00
-10467,72	89,00
-10443,00	129,00
-10418,32	208,00
-10393,70	84,00
-10369,14	173,00
-10344,63	196,00
-10320,17	200,00
-10295,77	269,00
-10271,42	194,00
-10247,12	254,00
-10222,88	165,00
-10198,68	220,00
-10174,54	299,00
-10150,46	201,00
-10126,42	310,00
-10102,44	422,00
-10078,51	516,00
-10054,63	431,00
-10030,80	314,00
-10007,03	386,00
-9983,30	491,00
-9959,63	444,00
-9936,01	619,00
-9912,44	454,00
-9888,92	513,00
-9865,44	653,00
-9842,02	651,00
-9818,65	634,00
-9795,33	577,00
-9772,06	655,00
-9748,84	740,00
-9725,67	767,00
-9702,55	859,00
-9679,47	1207,00
-9656,45	1255,00
-9633,47	1220,00
-9610,55	1184,00
-9587,67	1267,00
-9564,84	1261,00
-9542,06	1750,00
-9519,32	1624,00
-9496,64	1890,00
-9474,00	1904,00
-9451,41	2038,00
-9428,87	1999,00
-9406,37	1822,00
-9383,92	1727,00
-9361,52	1778,00
-9339,17	1817,00
-9316,86	1913,00
-9294,60	2224,00
-9272,38	2389,00
-9250,21	2537,00
-9228,09	2657,00
-9206,01	2414,00
-9183,98	2267,00
-9162,00	1877,00
-9140,06	1841,00
-9118,16	1851,00
-9096,31	1796,00
-9074,51	1883,00
-9052,75	1956,00
-9031,04	1821,00
-9009,37	1642,00
-8987,74	1472,00
-8966,16	1306,00
-8944,63	1146,00
-8923,14	1234,00
-8901,69	1194,00
-8880,29	1404,00
-8858,93	1566,00
-8837,61	1582,00
-8816,34	1740,00
-8795,11	1772,00
-8773,92	1547,00
-8752,78	1457,00
-8731,68	1206,00
-8710,62	1405,00
-8689,61	1453,00
-8668,63	1451,00
-8647,70	1633,00
-8626,82	1787,00
-8605,97	1433,00
-8585,17	1503,00
-8564,41	1281,00
-8543,69	1106,00
-8523,01	1259,00
-8502,37	1181,00
-8481,78	1339,00
-8461,23	1258,00
-8440,71	1371,00
-8420,24	1502,00
-8399,81	1474,00
-8379,42	1556,00
-8359,08	1319,00
-8338,77	1172,00
-8318,50	1114,00
-8298,27	1102,00
-8278,09	1266,00
-8257,94	1318,00
-8237,83	1335,00
-8217,76	1378,00
-8197,74	1395,00
-8177,75	1430,00
-8157,80	1202,00
-8137,89	1245,00
-8118,02	1052,00
-8098,19	1194,00
-8078,40	1207,00
-8058,65	1247,00
-8038,93	1242,00
-8019,26	1273,00
-7999,62	1326,00
-7980,02	1174,00
-7960,46	1119,00
-7940,94	1098,00
-7921,46	1100,00
-7902,01	1024,00
-7882,60	981,00
-7863,23	1018,00
-7843,90	1039,00
-7824,61	1104,00
-7805,35	1242,00
-7786,13	1158,00
-7766,95	1262,00
-7747,80	1105,00
-7728,69	1193,00
-7709,62	1217,00
-7690,59	1331,00
-7671,59	1314,00
-7652,63	1234,00
-7633,70	1339,00
-7614,81	1267,00
-7595,96	1273,00
-7577,15	1105,00
-7558,37	904,00
-7539,62	1218,00
-7520,91	1144,00
-7502,24	1329,00
-7483,60	1181,00
-7465,00	1194,00
-7446,44	1016,00
-7427,91	905,00
-7409,41	853,00
-7390,95	767,00
-7372,53	930,00
-7354,14	826,00
-7335,78	709,00
-7317,46	1000,00
-7299,18	1017,00
-7280,92	1093,00
-7262,71	1197,00
-7244,52	1206,00
-7226,38	1307,00
-7208,26	1199,00
-7190,18	1270,00
-7172,14	1134,00
-7154,12	1039,00
-7136,15	1195,00
-7118,20	1008,00
-7100,29	1238,00
-7082,41	1276,00
-7064,57	1123,00
-7046,76	1134,00
-7028,98	925,00
-7011,24	750,00
-6993,53	864,00
-6975,85	609,00
-6958,20	655,00
-6940,59	495,00
-6923,01	555,00
-6905,46	831,00
-6887,94	995,00
-6870,46	1036,00
-6853,01	1106,00
-6835,59	1097,00
-6818,21	922,00
-6800,85	885,00
-6783,53	624,00
-6766,24	446,00
-6748,98	533,00
-6731,76	594,00
-6714,56	462,00
-6697,40	415,00
-6680,26	668,00
-6663,16	531,00
-6646,09	713,00
-6629,05	926,00
-6612,05	880,00
-6595,07	926,00
-6578,13	878,00
-6561,21	655,00
-6544,33	477,00
-6527,47	472,00
-6510,65	313,00
-6493,86	390,00
-6477,10	328,00
-6460,36	518,00
-6443,66	255,00
-6426,99	407,00
-6410,35	474,00
-6393,74	523,00
-6377,16	485,00
-6360,61	625,00
-6344,09	648,00
-6327,59	576,00
-6311,13	624,00
-6294,70	667,00
-6278,29	857,00
-6261,92	716,00
-6245,58	806,00
-6229,26	784,00
-6212,97	584,00
-6196,72	688,00
-6180,49	491,00
-6164,29	252,00
-6148,12	108,00
-6131,98	164,00
-6115,86	145,00
-6099,78	200,00
-6083,72	179,00
-6067,69	168,00
-6051,69	183,00
-6035,72	316,00
-6019,78	232,00
-6003,87	418,00
-5987,98	484,00
-5972,12	594,00
-5956,29	622,00
-5940,49	490,00
-5924,71	396,00
-5908,96	423,00
-5893,24	308,00
-5877,55	241,00
-5861,89	326,00
-5846,25	261,00
-5830,64	234,00
-5815,05	293,00
-5799,50	424,00
-5783,97	392,00
-5768,47	394,00
-5752,99	487,00
-5737,55	572,00
-5722,12	598,00
-5706,73	594,00
-5691,36	486,00
-5676,02	335,00
-5660,71	185,00
-5645,42	248,00
-5630,16	204,00
-5614,92	375,00
-5599,71	323,00
-5584,53	463,00
-5569,37	519,00
-5554,24	524,00
-5539,14	490,00
-5524,06	251,00
-5509,01	451,00
-5493,98	396,00
-5478,98	404,00
-5464,00	394,00
-5449,05	409,00
-5434,13	461,00
-5419,23	311,00
-5404,36	394,00
-5389,51	441,00
-5374,69	434,00
-5359,89	629,00
-5345,12	822,00
-5330,37	671,00
-5315,65	526,00
-5300,95	273,00
-5286,28	243,00
-5271,63	414,00
-5257,01	469,00
-5242,41	330,00
-5227,84	303,00
-5213,29	316,00
-5198,76	222,00
-5184,26	102,00
-5169,79	251,00
-5155,33	285,00
-5140,91	411,00
-5126,51	413,00
-5112,13	511,00
-5097,77	313,00
-5083,44	258,00
-5069,13	144,00
-5054,85	269,00
-5040,59	277,00
-5026,36	265,00
-5012,15	462,00
-4997,96	500,00
-4983,80	371,00
-4969,66	285,00
-4955,54	372,00
-4941,44	341,00
-4927,37	457,00
-4913,33	656,00
-4899,30	680,00
-4885,30	723,00
-4871,33	437,00
-4857,37	305,00
-4843,44	235,00
-4829,53	291,00
-4815,65	288,00
-4801,79	323,00
-4787,95	272,00
-4774,13	186,00
-4760,34	165,00
-4746,56	313,00
-4732,82	184,00
-4719,09	247,00
-4705,38	466,00
-4691,70	554,00
-4678,04	632,00
-4664,41	531,00
-4650,79	237,00
-4637,20	117,00
-4623,63	223,00
-4610,08	348,00
-4596,56	468,00
-4583,05	480,00
-4569,57	282,00
-4556,11	235,00
-4542,67	191,00
-4529,25	271,00
-4515,86	405,00
-4502,49	644,00
-4489,13	532,00
-4475,80	544,00
-4462,49	266,00
-4449,21	169,00
-4435,94	249,00
-4422,70	239,00
-4409,47	395,00
-4396,27	417,00
-4383,09	272,00
-4369,93	135,00
-4356,79	182,00
-4343,67	98,00
-4330,58	268,00
-4317,50	264,00
-4304,45	315,00
-4291,41	282,00
-4278,40	196,00
-4265,41	145,00
-4252,44	135,00
-4239,49	373,00
-4226,55	380,00
-4213,65	262,00
-4200,76	163,00
-4187,89	120,00
-4175,04	159,00
-4162,21	73,00
-4149,40	167,00
-4136,61	76,00
-4123,85	56,00
-4111,10	37,00
-4098,37	263,00
-4085,66	44,00
-4072,98	-49,00
-4060,31	21,00
-4047,66	204,00
-4035,04	296,00
-4022,43	119,00
-4009,84	89,00
-3997,27	23,00
-3984,72	51,00
-3972,19	17,00
-3959,69	43,00
-3947,20	59,00
-3934,73	71,00
-3922,27	149,00
-3909,84	11,00
-3897,43	-19,00
-3885,04	-13,00
-3872,67	104,00
-3860,31	114,00
-3847,98	97,00
-3835,66	46,00
-3823,36	25,00
-3811,09	127,00
-3798,83	73,00
-3786,59	84,00
-3774,37	54,00
-3762,17	152,00
-3749,98	67,00
-3737,82	34,00
-3725,67	159,00
-3713,55	44,00
-3701,44	37,00
-3689,35	74,00
-3677,28	53,00
-3665,22	-49,00
-3653,19	32,00
-3641,17	-28,00
-3629,18	180,00
-3617,20	64,00
-3605,24	12,00
-3593,30	13,00
-3581,37	68,00
-3569,47	49,00
-3557,58	11,00
-3545,71	128,00
-3533,86	-53,00
-3522,02	35,00
-3510,21	196,00
-3498,41	-67,00
-3486,63	18,00
-3474,87	-2,00
-3463,12	23,00
-3451,40	-4,00
-3439,69	-23,00
-3428,00	108,00
-3416,33	113,00
-3404,67	64,00
-3393,03	-53,00
-3381,41	55,00
-3369,81	-15,00
-3358,22	-23,00
-3346,66	72,00
-3335,10	-45,00
-3323,57	-26,00
-3312,06	50,00
-3300,56	-4,00
-3289,08	38,00
-3277,61	50,00
-3266,16	180,00
-3254,73	89,00
-3243,32	72,00
-3231,92	-20,00
-3220,55	89,00
-3209,18	-124,00
-3197,84	92,00
-3186,51	94,00
-3175,20	61,00
-3163,90	137,00
-3152,63	43,00
-3141,36	41,00
-3130,12	21,00
-3118,89	147,00
-3107,68	-56,00
-3096,49	53,00
-3085,31	-12,00
-3074,15	127,00
-3063,00	0,00
-3051,87	194,00
-3040,76	-5,00
-3029,67	7,00
-3018,59	7,00
-3007,52	60,00
-2996,48	179,00
-2985,44	-46,00
-2974,43	-57,00
-2963,43	34,00
-2952,45	31,00
-2941,48	121,00
-2930,53	150,00
-2919,60	66,00
-2908,68	-12,00
-2897,78	7,00
-2886,89	-128,00
-2876,02	75,00
-2865,17	-8,00
-2854,33	46,00
-2843,50	26,00
-2832,70	-5,00
-2821,90	64,00
-2811,13	35,00
-2800,37	130,00
-2789,62	9,00
-2778,89	-25,00
-2768,18	53,00
-2757,48	-16,00
-2746,80	-48,00
-2736,13	40,00
-2725,48	106,00
-2714,84	11,00
-2704,22	38,00
-2693,61	-20,00
-2683,02	-4,00
-2672,45	64,00
-2661,89	1,00
-2651,34	22,00
-2640,81	-16,00
-2630,30	57,00
-2619,80	-37,00
-2609,31	95,00
-2598,84	29,00
-2588,39	38,00
-2577,95	189,00
-2567,52	-26,00
-2557,11	19,00
-2546,71	36,00
-2536,33	127,00
-2525,97	73,00
-2515,62	60,00
-2505,28	80,00
-2494,96	11,00
-2484,65	28,00
-2474,36	-70,00
-2464,08	222,00
-2453,82	110,00
-2443,57	-36,00
-2433,33	23,00
-2423,11	-124,00
-2412,91	141,00
-2402,72	-29,00
-2392,54	-13,00
-2382,38	23,00
-2372,23	-120,00
-2362,09	-4831,00
-2351,97	81,00
-2341,87	85,00
-2331,78	86,00
-2321,70	2,00
-2311,64	140,00
-2301,59	86,00
-2291,55	72,00
-2281,53	162,00
-2271,53	101,00
-2261,53	-76,00
-2251,55	37,00
-2241,59	-36,00
-2231,64	47,00
-2221,70	-60,00
-2211,78	-52,00
-2201,87	68,00
-2191,97	231,00
-2182,09	-25,00
-2172,22	58,00
-2162,37	-33,00
-2152,53	93,00
-2142,70	120,00
-2132,89	235,00
-2123,09	86,00
-2113,30	69,00
-2103,53	112,00
-2093,77	35,00
-2084,02	-83,00
-2074,29	-49,00
-2064,57	-29,00
-2054,86	67,00
-2045,17	58,00
-2035,49	142,00
-2025,82	129,00
-2016,17	62,00
-2006,53	103,00
-1996,91	136,00
-1987,29	141,00
-1977,69	30,00
-1968,11	65,00
-1958,53	-20,00
-1948,97	40,00
-1939,42	2,00
-1929,89	30,00
-1920,37	59,00
-1910,86	-43,00
-1901,36	0,00
-1891,88	9,00
-1882,41	41,00
-1872,95	70,00
-1863,51	-69,00
-1854,08	31,00
-1844,66	116,00
-1835,26	134,00
-1825,86	112,00
-1816,48	191,00
-1807,11	3,00
-1797,76	32,00
-1788,42	19,00
-1779,09	-38,00
-1769,77	196,00
-1760,47	39,00
-1751,17	102,00
-1741,89	79,00
-1732,63	102,00
-1723,37	41,00
-1714,13	110,00
-1704,90	28,00
-1695,68	-60,00
-1686,48	67,00
-1677,29	50,00
-1668,11	-41,00
-1658,94	20,00
-1649,78	112,00
-1640,64	149,00
-1631,51	23,00
-1622,39	47,00
-1613,28	53,00
-1604,19	-89,00
-1595,10	55,00
-1586,03	13,00
-1576,97	50,00
-1567,93	-88,00
-1558,89	15,00
-1549,87	100,00
-1540,86	117,00
-1531,86	-66,00
-1522,87	62,00
-1513,90	142,00
-1504,93	-3,00
-1495,98	5,00
-1487,04	28,00
-1478,12	82,00
-1469,20	64,00
-1460,30	74,00
-1451,40	136,00
-1442,52	-52,00
-1433,65	-75,00
-1424,80	185,00
-1415,95	-47,00
-1407,12	-52,00
-1398,30	30,00
-1389,48	-6,00
-1380,69	15,00
-1371,90	85,00
-1363,12	39,00
-1354,36	-59,00
-1345,60	123,00
-1336,86	64,00
-1328,13	-4,00
-1319,41	70,00
-1310,70	-43,00
-1302,01	40,00
-1293,32	128,00
-1284,65	51,00
-1275,99	4,00
-1267,33	50,00
-1258,69	-92,00
-1250,06	31,00
-1241,45	1,00
-1232,84	152,00
-1224,25	40,00
-1215,66	19,00
-1207,09	-15,00
-1198,53	103,00
-1189,97	115,00
-1181,43	39,00
-1172,91	-30,00
-1164,39	109,00
-1155,88	111,00
-1147,38	21,00
-1138,90	130,00
-1130,43	54,00
-1121,96	53,00
-1113,51	12,00
-1105,07	82,00
-1096,64	151,00
-1088,22	85,00
-1079,81	8,00
-1071,41	24,00
-1063,02	-56,00
-1054,65	41,00
-1046,28	138,00
-1037,92	19,00
-1029,58	38,00
-1021,24	23,00
-1012,92	72,00
-1004,61	65,00
-996,30	61,00
-988,01	14,00
-979,73	107,00
-971,46	37,00
-963,20	49,00
-954,95	49,00
-946,71	150,00
-938,48	54,00
-930,26	132,00
-922,06	71,00
-913,86	43,00
-905,67	168,00
-897,49	68,00
-889,33	49,00
-881,17	73,00
-873,02	79,00
-864,89	99,00
-856,76	49,00
-848,65	-18,00
-840,54	79,00
-832,45	101,00
-824,36	-33,00
-816,29	70,00
-808,22	65,00
-800,17	-69,00
-792,12	1,00
-784,09	45,00
-776,06	-13,00
-768,05	15,00
-760,04	85,00
-752,05	24,00
-744,07	43,00
-736,09	129,00
-728,13	127,00
-720,17	-23,00
-712,23	118,00
-704,29	77,00
-696,37	-3,00
-688,45	116,00
-680,55	161,00
-672,65	-108,00
-664,77	-37,00
-656,89	94,00
-649,03	15,00
-641,17	59,00
-633,32	36,00
-625,49	151,00
-617,66	-62,00
-609,84	64,00
-602,03	99,00
-594,23	141,00
-586,45	53,00
-578,67	5,00
-570,90	101,00
-563,14	35,00
-555,39	113,00
-547,65	18,00
-539,91	77,00
-532,19	58,00
-524,48	89,00
-516,78	-2,00
-509,08	103,00
-501,40	35,00
-493,72	-20,00
-486,06	59,00
-478,40	-9,00
-470,76	93,00
-463,12	9,00
-455,49	10,00
-447,87	106,00
-440,26	77,00
-432,66	62,00
-425,07	-25,00
-417,49	113,00
-409,92	30,00
-402,35	97,00
-394,80	11,00
-387,25	76,00
-379,72	160,00
-372,19	133,00
-364,67	153,00
-357,17	3,00
-349,67	120,00
-342,18	15,00
-334,69	139,00
-327,22	84,00
-319,76	-71,00
-312,30	195,00
-304,86	85,00
-297,42	52,00
-290,00	-58,00
-282,58	77,00
-275,17	284,00
-267,77	53,00
-260,37	86,00
-252,99	94,00
-245,62	116,00
-238,25	176,00
-230,90	28,00
-223,55	137,00
-216,21	119,00
-208,88	93,00
-201,56	230,00
-194,25	250,00
-186,94	315,00
-179,65	273,00
-172,36	332,00
-165,08	209,00
-157,81	232,00
-150,55	525,00
-143,30	476,00
-136,06	555,00
-128,82	468,00
-121,60	577,00
-114,38	655,00
-107,17	761,00
-99,97	886,00
-92,78	849,00
-85,60	1051,00
-78,42	1159,00
-71,25	1350,00
-64,10	1561,00
-56,95	1940,00
-49,81	2121,00
-42,67	2734,00
-35,55	3479,00
-28,43	4688,00
-21,33	8120,00
-14,23	27090,00
-7,14	54802,00
-0,05	54494,00
7,02	54069,00
14,09	54443,00
21,14	20629,00
28,19	8871,00
35,23	5549,00
42,27	4080,00
49,29	3529,00
56,31	2787,00
63,32	2270,00
70,32	2060,00
77,31	1674,00
84,29	1468,00
91,27	1363,00
98,23	1167,00
105,19	937,00
112,14	1158,00
119,09	1526,00
126,02	2185,00
132,95	2323,00
139,87	2334,00
146,78	2092,00
153,68	2110,00
160,58	2056,00
167,46	2135,00
174,34	1995,00
181,21	1991,00
188,08	1842,00
194,93	1821,00
201,78	1932,00
208,62	1828,00
215,45	1858,00
222,27	1867,00
229,09	1802,00
235,90	1817,00
242,70	1791,00
249,49	1897,00
256,27	1581,00
263,05	1685,00
269,82	1635,00
276,58	1687,00
283,33	1528,00
290,08	1587,00
296,82	1536,00
303,55	1441,00
310,27	1560,00
316,98	1491,00
323,69	1460,00
330,39	1610,00
337,08	1503,00
343,76	1511,00
350,44	1493,00
357,11	1560,00
363,77	1519,00
370,42	1329,00
377,07	1385,00
383,71	1408,00
390,34	1425,00
396,96	1321,00
403,58	1341,00
410,19	1322,00
416,79	1534,00
423,38	1496,00
429,97	1402,00
436,55	1256,00
443,12	1399,00
449,68	1231,00
456,24	1164,00
462,79	1244,00
469,33	1253,00
475,86	1138,00
482,39	1333,00
488,91	1255,00
495,42	1172,00
501,93	1196,00
508,42	1170,00
514,91	1131,00
521,40	1167,00
527,87	1163,00
534,34	1149,00
540,80	989,00
547,25	1083,00
553,70	1116,00
560,14	1058,00
566,57	1068,00
573,00	1031,00
579,41	1111,00
585,83	1102,00
592,23	1103,00
598,62	1064,00
605,01	1074,00
611,40	996,00
617,77	937,00
624,14	908,00
630,50	968,00
636,85	936,00
643,20	1075,00
649,54	1035,00
655,87	1026,00
662,20	1077,00
668,52	893,00
674,83	1027,00
681,13	880,00
687,43	984,00
693,72	870,00
700,00	1056,00
706,28	919,00
712,55	1080,00
718,81	903,00
725,07	1000,00
731,32	990,00
737,56	1022,00
743,79	1056,00
750,02	930,00
756,24	961,00
762,46	922,00
768,67	947,00
774,87	1011,00
781,06	1002,00
787,25	944,00
793,43	1048,00
799,60	956,00
805,77	923,00
811,93	1109,00
818,08	872,00
824,23	899,00
830,37	1050,00
836,50	971,00
842,63	958,00
848,75	1040,00
854,87	1089,00
860,97	955,00
867,07	992,00
873,17	957,00
879,25	1154,00
885,33	1042,00
891,41	1035,00
897,47	1176,00
903,53	984,00
909,59	1028,00
915,63	839,00
921,67	720,00
927,71	946,00
933,74	955,00
939,76	854,00
945,77	812,00
951,78	876,00
957,78	801,00
963,78	701,00
969,77	741,00
975,75	757,00
981,72	860,00
987,69	893,00
993,66	819,00
999,61	757,00
1005,56	924,00
1011,51	719,00
1017,44	878,00
1023,37	890,00
1029,30	886,00
1035,22	887,00
1041,13	966,00
1047,03	948,00
1052,93	1037,00
1058,83	1359,00
1064,71	1389,00
1070,59	1270,00
1076,47	980,00
1082,33	962,00
1088,20	945,00
1094,05	1079,00
1099,90	913,00
1105,74	802,00
1111,58	874,00
1117,41	976,00
1123,23	1229,00
1129,05	1334,00
1134,86	1268,00
1140,67	1079,00
1146,47	1002,00
1152,26	912,00
1158,05	799,00
1163,83	853,00
1169,60	836,00
1175,37	808,00
1181,13	692,00
1186,89	659,00
1192,64	755,00
1198,38	740,00
1204,12	628,00
1209,85	774,00
1215,58	726,00
1221,30	687,00
1227,02	667,00
1232,72	782,00
1238,43	733,00
1244,12	840,00
1249,81	871,00
1255,50	715,00
1261,17	781,00
1266,85	849,00
1272,51	872,00
1278,17	922,00
1283,83	975,00
1289,47	1354,00
1295,12	1640,00
1300,75	1659,00
1306,38	1329,00
1312,01	1085,00
1317,63	1065,00
1323,24	944,00
1328,85	1022,00
1334,45	1008,00
1340,04	886,00
1345,63	946,00
1351,22	844,00
1356,80	820,00
1362,37	990,00
1367,93	1009,00
1373,49	1029,00
1379,05	820,00
1384,60	850,00
1390,14	882,00
1395,68	911,00
1401,21	858,00
1406,74	986,00
1412,26	1077,00
1417,77	1145,00
1423,28	1206,00
1428,78	1314,00
1434,28	1663,00
1439,77	1850,00
1445,26	1779,00
1450,74	1636,00
1456,22	1585,00
1461,68	1619,00
1467,15	1384,00
1472,61	1247,00
1478,06	983,00
1483,51	977,00
1488,95	904,00
1494,38	891,00
1499,81	842,00
1505,24	708,00
1510,65	736,00
1516,07	736,00
1521,48	755,00
1526,88	731,00
1532,27	709,00
1537,67	754,00
1543,05	610,00
1548,43	665,00
1553,81	599,00
1559,18	698,00
1564,54	825,00
1569,90	691,00
1575,25	731,00
1580,60	604,00
1585,94	617,00
1591,28	722,00
1596,61	701,00
1601,93	785,00
1607,25	692,00
1612,57	742,00
1617,88	620,00
1623,18	623,00
1628,48	582,00
1633,77	591,00
1639,06	698,00
1644,34	665,00
1649,62	513,00
1654,89	586,00
1660,16	552,00
1665,42	578,00
1670,67	435,00
1675,92	576,00
1681,17	551,00
1686,41	611,00
1691,64	468,00
1696,87	548,00
1702,10	558,00
1707,32	499,00
1712,53	588,00
1717,74	526,00
1722,94	557,00
1728,14	561,00
1733,33	612,00
1738,52	463,00
1743,70	415,00
1748,88	531,00
1754,05	547,00
1759,22	465,00
1764,38	435,00
1769,53	411,00
1774,69	601,00
1779,83	492,00
1784,97	457,00
1790,11	495,00
1795,24	504,00
1800,36	513,00
1805,48	432,00
1810,60	394,00
1815,71	426,00
1820,82	426,00
1825,92	597,00
1831,01	377,00
1836,10	654,00
1841,19	416,00
1846,26	434,00
1851,34	543,00
1856,41	394,00
1861,47	344,00
1866,53	466,00
1871,59	327,00
1876,64	335,00
1881,68	463,00
1886,72	357,00
1891,76	369,00
1896,79	306,00
1901,81	476,00
1906,83	514,00
1911,85	325,00
1916,86	270,00
1921,86	454,00
1926,86	389,00
1931,86	295,00
1936,85	383,00
1941,83	380,00
1946,81	278,00
1951,79	422,00
1956,76	242,00
1961,72	362,00
1966,68	362,00
1971,64	251,00
1976,59	431,00
1981,54	293,00
1986,48	256,00
1991,42	499,00
1996,35	389,00
2001,27	287,00
2006,20	312,00
2011,11	333,00
2016,03	409,00
2020,93	331,00
2025,84	379,00
2030,73	379,00
2035,63	266,00
2040,52	362,00
2045,40	488,00
2050,28	307,00
2055,15	198,00
2060,02	264,00
2064,89	194,00
2069,75	306,00
2074,60	296,00
2079,46	325,00
2084,30	268,00
2089,14	294,00
2093,98	216,00
2098,81	402,00
2103,64	418,00
2108,46	317,00
2113,28	344,00
2118,09	431,00
2122,90	345,00
2127,70	293,00
2132,50	315,00
2137,30	380,00
2142,09	347,00
2146,87	184,00
2151,66	217,00
2156,43	176,00
2161,20	254,00
2165,97	301,00
2170,73	332,00
2175,49	335,00
2180,24	283,00
2184,99	239,00
2189,74	324,00
2194,48	336,00
2199,21	309,00
2203,94	368,00
2208,67	254,00
2213,39	255,00
2218,11	224,00
2222,82	206,00
2227,53	348,00
2232,23	366,00
2236,93	309,00
2241,63	191,00
2246,32	328,00
2251,00	306,00
2255,68	159,00
2260,36	271,00
2265,03	294,00
2269,70	270,00
2274,36	226,00
2279,02	230,00
2283,68	231,00
2288,33	162,00
2292,97	111,00
2297,61	296,00
2302,25	221,00
2306,88	268,00
2311,51	329,00
2316,14	159,00
2320,75	254,00
2325,37	270,00
2329,98	261,00
2334,59	304,00
2339,19	165,00
2343,79	278,00
2348,38	168,00
2352,97	258,00
2357,55	197,00
2362,13	293,00
2366,71	301,00
2371,28	271,00
2375,85	202,00
2380,41	67,00
2384,97	198,00
2389,52	207,00
2394,07	237,00
2398,62	160,00
2403,16	290,00
2407,70	174,00
2412,23	239,00
2416,76	289,00
2421,29	306,00
2425,81	309,00
2430,32	240,00
2434,84	123,00
2439,34	199,00
2443,85	186,00
2448,35	185,00
2452,84	168,00
2457,33	145,00
2461,82	206,00
2466,30	183,00
2470,78	110,00
2475,25	169,00
2479,72	129,00
2484,19	171,00
2488,65	220,00
2493,11	256,00
2497,56	141,00
2502,01	161,00
2506,46	140,00
2510,90	92,00
2515,34	269,00
2519,77	172,00
2524,20	167,00
2528,62	53,00
2533,04	251,00
2537,46	103,00
2541,87	163,00
2546,28	189,00
2550,68	97,00
2555,08	61,00
2559,48	74,00
2563,87	297,00
2568,26	183,00
2572,64	77,00
2577,02	221,00
2581,40	187,00
2585,77	245,00
2590,14	180,00
2594,50	202,00
2598,86	160,00
2603,22	80,00
2607,57	188,00
2611,92	119,00
2616,26	112,00
2620,60	186,00
2624,94	246,00
2629,27	216,00
2633,60	349,00
2637,92	152,00
2642,24	205,00
2646,56	205,00
2650,87	176,00
2655,18	140,00
2659,48	145,00
2663,78	343,00
2668,08	242,00
2672,37	275,00
2676,66	131,00
2680,95	193,00
2685,23	241,00
2689,50	250,00
2693,78	215,00
2698,05	277,00
2702,31	199,00
2706,57	94,00
2710,83	192,00
2715,08	363,00
2719,33	365,00
2723,58	323,00
2727,82	378,00
2732,06	284,00
2736,29	278,00
2740,53	303,00
2744,75	242,00
2748,97	379,00
2753,19	236,00
2757,41	180,00
2761,62	284,00
2765,83	298,00
2770,03	245,00
2774,23	260,00
2778,43	212,00
2782,62	298,00
2786,81	257,00
2791,00	260,00
2795,18	334,00
2799,35	308,00
2803,53	311,00
2807,70	319,00
2811,86	376,00
2816,03	339,00
2820,19	540,00
2824,34	392,00
2828,49	454,00
2832,64	646,00
2836,78	764,00
2840,92	923,00
2845,06	1180,00
2849,19	1182,00
2853,32	1411,00
2857,45	1371,00
2861,57	1316,00
2865,69	1289,00
2869,80	1243,00
2873,91	1248,00
2878,02	1473,00
2882,12	1554,00
2886,22	1446,00
2890,32	1382,00
2894,41	1400,00
2898,50	1315,00
2902,58	1193,00
2906,67	1095,00
2910,74	1153,00
2914,82	1027,00
2918,89	997,00
2922,96	803,00
2927,02	694,00
2931,08	742,00
2935,13	690,00
2939,19	660,00
2943,24	621,00
2947,28	539,00
2951,32	521,00
2955,36	456,00
2959,40	343,00
2963,43	398,00
2967,46	420,00
2971,48	374,00
2975,50	271,00
2979,52	279,00
2983,53	244,00
2987,54	256,00
2991,55	220,00
2995,55	372,00
2999,55	155,00
3003,54	238,00
3007,54	58,00
3011,53	293,00
3015,51	95,00
3019,49	86,00
3023,47	216,00
3027,45	48,00
3031,42	148,00
3035,39	24,00
3039,35	56,00
3043,31	84,00
3047,27	105,00
3051,22	222,00
3055,17	102,00
3059,12	102,00
3063,06	119,00
3067,00	71,00
3070,94	258,00
3074,87	70,00
3078,80	117,00
3082,73	107,00
3086,65	-31,00
3090,57	38,00
3094,49	118,00
3098,40	66,00
3102,31	68,00
3106,22	38,00
3110,12	111,00
3114,02	-13,00
3117,92	282,00
3121,81	46,00
3125,70	-3,00
3129,58	144,00
3133,47	149,00
3137,34	35,00
3141,22	91,00
3145,09	84,00
3148,96	103,00
3152,83	160,00
3156,69	191,00
3160,55	135,00
3164,40	73,00
3168,26	144,00
3172,10	47,00
3175,95	211,00
3179,79	199,00
3183,63	13,00
3187,47	141,00
3191,30	160,00
3195,13	-33,00
3198,95	176,00
3202,78	127,00
3206,60	66,00
3210,41	121,00
3214,23	-46,00
3218,03	208,00
3221,84	132,00
3225,64	92,00
3229,44	107,00
3233,24	32,00
3237,03	152,00
3240,82	41,00
3244,61	-39,00
3248,39	113,00
3252,17	109,00
3255,95	169,00
3259,72	85,00
3263,49	-108,00
3267,26	159,00
3271,03	63,00
3274,79	68,00
3278,54	-3,00
3282,30	-60,00
3286,05	50,00
3289,80	65,00
3293,54	141,00
3297,29	209,00
3301,02	161,00
3304,76	44,00
3308,49	78,00
3312,22	90,00
3315,95	74,00
3319,67	126,00
3323,39	60,00
3327,10	129,00
3330,82	60,00
3334,53	66,00
3338,24	-31,00
3341,94	117,00
3345,64	161,00
3349,34	83,00
3353,03	77,00
3356,72	91,00
3360,41	91,00
3364,10	45,00
3367,78	20,00
3371,46	87,00
3375,13	87,00
3378,81	97,00
3382,48	74,00
3386,14	-45,00
3389,81	140,00
3393,47	98,00
3397,12	40,00
3400,78	179,00
3404,43	42,00
3408,08	213,00
3411,72	29,00
3415,36	-25,00
3419,00	180,00
3422,64	95,00
3426,27	52,00
3429,90	141,00
3433,53	151,00
3437,15	153,00
3440,77	-6,00
3444,39	3,00
3448,00	59,00
3451,62	144,00
3455,22	-28,00
3458,83	77,00
3462,43	156,00
3466,03	51,00
3469,63	146,00
3473,22	125,00
3476,81	59,00
3480,40	-4,00
3483,99	104,00
3487,57	161,00
3491,15	16,00
3494,72	35,00
3498,29	101,00
3501,86	37,00
3505,43	38,00
3508,99	-65,00
3512,56	55,00
3516,11	90,00
3519,67	6,00
3523,22	41,00
3526,77	51,00
3530,32	85,00
3533,86	71,00
3537,40	156,00
3540,94	116,00
3544,47	-20,00
3548,00	68,00
3551,53	105,00
3555,06	36,00
3558,58	69,00
3562,10	97,00
3565,62	140,00
3569,13	37,00
3572,64	2,00
3576,15	72,00
3579,66	125,00
3583,16	-39,00
3586,66	165,00
3590,16	99,00
3593,65	153,00
3597,14	-84,00
3600,63	6,00
3604,11	-59,00
3607,60	-36,00
3611,08	134,00
3614,55	229,00
3618,03	-19,00
3621,50	0,00
3624,97	90,00
3628,43	63,00
3631,90	159,00
3635,36	-26,00
3638,81	-37,00
3642,27	79,00
3645,72	-12,00
3649,17	115,00
3652,61	-23,00
3656,06	138,00
3659,50	40,00
3662,93	-166,00
3666,37	108,00
3669,80	-123,00
3673,23	-36,00
3676,65	157,00
3680,08	15,00
3683,50	131,00
3686,92	47,00
3690,33	29,00
3693,74	8,00
3697,15	34,00
3700,56	27,00
3703,96	15,00
3707,36	152,00
3710,76	68,00
3714,16	-25,00
3717,55	31,00
3720,94	-40,00
3724,33	56,00
3727,71	41,00
3731,10	95,00
3734,48	96,00
3737,85	-1,00
3741,23	37,00
3744,60	49,00
3747,97	-82,00
3751,33	73,00
3754,69	-1,00
3758,05	15,00
3761,41	68,00
3764,77	127,00
3768,12	70,00
3771,47	21,00
3774,82	29,00
3778,16	-4,00
3781,50	0,00
3784,84	-8,00
3788,18	12,00
>>>>>End Processed Spectral Data<<<<<
