SpectraSuite Data File
++++++++++++++++++++++++++++++++++++
Date: Tue Mar 03 10:33:53 ICT 2026
User: user
Dark Spectrum Present: Yes
Reference Spectrum Present: No
Number of Sampled Component Spectra: 1
Spectrometers: MAYP113682
Integration Time (usec): 3000000 (MAYP113682)
Spectra Averaged: 1 (MAYP113682)
Boxcar Smoothing: 0 (MAYP113682)
Correct for Electrical Dark: No (MAYP113682)
Strobe/Lamp Enabled: No (MAYP113682)
Correct for Detector Non-linearity: No (MAYP113682)
Correct for Stray Light: No (MAYP113682)
Number of Pixels in Processed Spectrum: 2068
>>>>>Begin Processed Spectral Data<<<<<
-37534,58	30,00
-37414,56	3,00
-37295,11	8,00
-37176,24	6,00
-37057,95	537,00
-36940,22	585,00
-36823,05	667,00
-36706,45	753,00
-36590,40	679,00
-36474,90	688,00
-36359,95	780,00
-36245,55	712,00
-36131,68	709,00
-36018,35	740,00
-35905,55	724,00
-35793,29	744,00
-35681,54	737,00
-35570,32	658,00
-35459,62	748,00
-35349,43	805,00
-35239,75	755,00
-35130,58	722,00
-35021,91	699,00
-34913,74	746,00
-34806,07	780,00
-34698,89	818,00
-34592,20	802,00
-34486,00	755,00
-34380,28	755,00
-34275,04	711,00
-34170,27	736,00
-34065,98	745,00
-33962,16	825,00
-33858,81	725,00
-33755,92	846,00
-33653,49	899,00
-33551,52	896,00
-33450,01	771,00
-33348,94	822,00
-33248,33	779,00
-33148,16	672,00
-33048,43	836,00
-32949,14	877,00
-32850,29	890,00
-32751,87	744,00
-32653,89	870,00
-32556,33	908,00
-32459,20	770,00
-32362,49	741,00
-32266,19	825,00
-32170,32	850,00
-32074,86	782,00
-31979,82	855,00
-31885,18	789,00
-31790,95	947,00
-31697,12	788,00
-31603,69	881,00
-31510,67	968,00
-31418,04	825,00
-31325,80	791,00
-31233,95	880,00
-31142,49	726,00
-31051,42	823,00
-30960,73	945,00
-30870,43	868,00
-30780,50	716,00
-30690,95	788,00
-30601,77	852,00
-30512,97	827,00
-30424,53	777,00
-30336,46	804,00
-30248,76	762,00
-30161,42	809,00
-30074,44	865,00
-29987,81	927,00
-29901,55	839,00
-29815,63	862,00
-29730,07	881,00
-29644,86	866,00
-29560,00	913,00
-29475,48	800,00
-29391,30	801,00
-29307,47	731,00
-29223,97	834,00
-29140,81	739,00
-29057,99	843,00
-28975,50	763,00
-28893,34	961,00
-28811,51	784,00
-28730,00	823,00
-28648,82	726,00
-28567,97	848,00
-28487,43	811,00
-28407,21	827,00
-28327,32	820,00
-28247,73	1037,00
-28168,46	881,00
-28089,50	778,00
-28010,85	868,00
-27932,51	790,00
-27854,48	751,00
-27776,75	866,00
-27699,32	783,00
-27622,19	858,00
-27545,37	779,00
-27468,84	917,00
-27392,60	811,00
-27316,66	812,00
-27241,01	797,00
-27165,66	935,00
-27090,59	799,00
-27015,81	844,00
-26941,31	804,00
-26867,10	908,00
-26793,17	920,00
-26719,52	859,00
-26646,15	913,00
-26573,06	811,00
-26500,24	854,00
-26427,70	797,00
-26355,43	889,00
-26283,43	852,00
-26211,71	871,00
-26140,25	874,00
-26069,06	1043,00
-25998,13	744,00
-25927,46	786,00
-25857,06	765,00
-25786,92	814,00
-25717,04	761,00
-25647,42	901,00
-25578,05	735,00
-25508,94	853,00
-25440,09	865,00
-25371,48	804,00
-25303,13	834,00
-25235,02	719,00
-25167,17	880,00
-25099,56	930,00
-25032,19	782,00
-24965,07	800,00
-24898,20	726,00
-24831,56	895,00
-24765,17	811,00
-24699,01	770,00
-24633,10	869,00
-24567,41	877,00
-24501,97	952,00
-24436,75	689,00
-24371,77	855,00
-24307,03	764,00
-24242,51	753,00
-24178,22	786,00
-24114,16	864,00
-24050,32	951,00
-23986,71	796,00
-23923,32	798,00
-23860,16	687,00
-23797,22	824,00
-23734,50	924,00
-23672,00	775,00
-23609,71	792,00
-23547,65	778,00
-23485,80	890,00
-23424,16	770,00
-23362,74	768,00
-23301,53	863,00
-23240,54	748,00
-23179,75	847,00
-23119,17	889,00
-23058,80	729,00
-22998,64	777,00
-22938,68	766,00
-22878,93	917,00
-22819,39	648,00
-22760,04	833,00
-22700,90	835,00
-22641,96	757,00
-22583,22	907,00
-22524,68	758,00
-22466,33	776,00
-22408,19	748,00
-22350,23	776,00
-22292,48	809,00
-22234,92	840,00
-22177,55	913,00
-22120,37	970,00
-22063,38	849,00
-22006,58	805,00
-21949,98	737,00
-21893,56	681,00
-21837,33	763,00
-21781,28	944,00
-21725,42	762,00
-21669,74	825,00
-21614,25	750,00
-21558,94	826,00
-21503,81	887,00
-21448,86	825,00
-21394,10	798,00
-21339,51	731,00
-21285,10	723,00
-21230,86	677,00
-21176,81	757,00
-21122,93	712,00
-21069,22	790,00
-21015,69	709,00
-20962,33	797,00
-20909,14	728,00
-20856,13	795,00
-20803,28	811,00
-20750,61	768,00
-20698,10	833,00
-20645,76	710,00
-20593,59	886,00
-20541,59	819,00
-20489,75	905,00
-20438,07	697,00
-20386,56	805,00
-20335,22	749,00
-20284,03	654,00
-20233,01	754,00
-20182,15	843,00
-20131,45	842,00
-20080,91	768,00
-20030,52	752,00
-19980,30	758,00
-19930,23	750,00
-19880,32	885,00
-19830,56	798,00
-19780,96	798,00
-19731,52	805,00
-19682,23	826,00
-19633,09	763,00
-19584,10	751,00
-19535,26	745,00
-19486,58	845,00
-19438,04	876,00
-19389,66	858,00
-19341,42	722,00
-19293,33	779,00
-19245,39	810,00
-19197,60	834,00
-19149,95	890,00
-19102,45	863,00
-19055,09	797,00
-19007,87	786,00
-18960,80	851,00
-18913,87	837,00
-18867,09	761,00
-18820,44	783,00
-18773,94	791,00
-18727,57	833,00
-18681,35	813,00
-18635,26	710,00
-18589,31	744,00
-18543,50	743,00
-18497,83	756,00
-18452,29	774,00
-18406,89	664,00
-18361,63	869,00
-18316,50	803,00
-18271,50	747,00
-18226,63	922,00
-18181,90	883,00
-18137,30	869,00
-18092,84	854,00
-18048,50	825,00
-18004,29	704,00
-17960,22	783,00
-17916,27	780,00
-17872,45	793,00
-17828,76	757,00
-17785,20	848,00
-17741,77	784,00
-17698,46	832,00
-17655,28	708,00
-17612,22	787,00
-17569,29	801,00
-17526,48	824,00
-17483,79	718,00
-17441,23	823,00
-17398,79	739,00
-17356,48	752,00
-17314,28	964,00
-17272,21	857,00
-17230,26	816,00
-17188,42	796,00
-17146,71	798,00
-17105,12	735,00
-17063,64	815,00
-17022,28	828,00
-16981,04	804,00
-16939,92	810,00
-16898,91	854,00
-16858,02	817,00
-16817,25	884,00
-16776,59	724,00
-16736,04	865,00
-16695,61	840,00
-16655,29	765,00
-16615,09	869,00
-16574,99	822,00
-16535,01	729,00
-16495,15	907,00
-16455,39	772,00
-16415,74	821,00
-16376,21	821,00
-16336,78	756,00
-16297,46	719,00
-16258,26	754,00
-16219,16	665,00
-16180,17	729,00
-16141,28	875,00
-16102,51	745,00
-16063,84	751,00
-16025,27	727,00
-15986,82	742,00
-15948,46	749,00
-15910,22	777,00
-15872,07	805,00
-15834,04	793,00
-15796,10	727,00
-15758,27	911,00
-15720,54	816,00
-15682,91	799,00
-15645,39	858,00
-15607,97	825,00
-15570,64	811,00
-15533,42	854,00
-15496,30	708,00
-15459,28	923,00
-15422,36	642,00
-15385,54	751,00
-15348,82	797,00
-15312,19	911,00
-15275,66	761,00
-15239,23	783,00
-15202,90	738,00
-15166,67	656,00
-15130,53	698,00
-15094,48	785,00
-15058,54	858,00
-15022,68	745,00
-14986,93	812,00
-14951,26	812,00
-14915,69	822,00
-14880,22	810,00
-14844,84	753,00
-14809,55	739,00
-14774,35	830,00
-14739,25	829,00
-14704,24	769,00
-14669,32	792,00
-14634,49	740,00
-14599,75	847,00
-14565,10	735,00
-14530,55	871,00
-14496,08	779,00
-14461,70	840,00
-14427,41	762,00
-14393,21	795,00
-14359,10	821,00
-14325,07	853,00
-14291,14	774,00
-14257,29	867,00
-14223,52	835,00
-14189,85	887,00
-14156,26	834,00
-14122,76	774,00
-14089,34	769,00
-14056,01	724,00
-14022,76	824,00
-13989,60	686,00
-13956,52	712,00
-13923,53	832,00
-13890,62	857,00
-13857,79	779,00
-13825,05	764,00
-13792,39	792,00
-13759,81	757,00
-13727,31	770,00
-13694,90	776,00
-13662,57	824,00
-13630,31	827,00
-13598,14	812,00
-13566,05	787,00
-13534,05	809,00
-13502,12	807,00
-13470,27	764,00
-13438,50	846,00
-13406,80	770,00
-13375,19	757,00
-13343,66	794,00
-13312,20	805,00
-13280,83	814,00
-13249,53	708,00
-13218,30	753,00
-13187,16	775,00
-13156,09	975,00
-13125,10	835,00
-13094,18	863,00
-13063,34	939,00
-13032,58	672,00
-13001,89	676,00
-12971,28	844,00
-12940,74	872,00
-12910,27	804,00
-12879,88	887,00
-12849,57	899,00
-12819,33	825,00
-12789,16	812,00
-12759,06	808,00
-12729,04	773,00
-12699,09	2793,00
-12669,21	723,00
-12639,41	785,00
-12609,68	745,00
-12580,02	742,00
-12550,43	894,00
-12520,91	725,00
-12491,46	745,00
-12462,08	868,00
-12432,77	816,00
-12403,54	798,00
-12374,37	748,00
-12345,27	822,00
-12316,24	790,00
-12287,29	828,00
-12258,40	691,00
-12229,57	742,00
-12200,82	802,00
-12172,14	696,00
-12143,52	743,00
-12114,97	761,00
-12086,49	784,00
-12058,07	915,00
-12029,73	803,00
-12001,44	1021,00
-11973,23	792,00
-11945,08	898,00
-11917,00	894,00
-11888,98	805,00
-11861,03	821,00
-11833,15	942,00
-11805,32	840,00
-11777,57	817,00
-11749,88	908,00
-11722,25	727,00
-11694,69	754,00
-11667,19	736,00
-11639,75	952,00
-11612,38	817,00
-11585,07	720,00
-11557,83	807,00
-11530,65	871,00
-11503,53	835,00
-11476,47	765,00
-11449,48	790,00
-11422,54	900,00
-11395,67	805,00
-11368,86	736,00
-11342,11	822,00
-11315,43	793,00
-11288,80	700,00
-11262,23	897,00
-11235,73	770,00
-11209,28	834,00
-11182,90	1006,00
-11156,57	892,00
-11130,31	894,00
-11104,10	868,00
-11077,96	823,00
-11051,87	799,00
-11025,84	812,00
-10999,87	752,00
-10973,96	820,00
-10948,11	796,00
-10922,31	774,00
-10896,58	930,00
-10870,90	965,00
-10845,28	858,00
-10819,71	697,00
-10794,20	928,00
-10768,75	914,00
-10743,36	882,00
-10718,02	815,00
-10692,74	852,00
-10667,52	824,00
-10642,35	996,00
-10617,24	960,00
-10592,18	962,00
-10567,18	868,00
-10542,23	1004,00
-10517,34	971,00
-10492,51	900,00
-10467,72	889,00
-10443,00	1038,00
-10418,32	997,00
-10393,70	886,00
-10369,14	930,00
-10344,63	979,00
-10320,17	1079,00
-10295,77	1079,00
-10271,42	1113,00
-10247,12	1176,00
-10222,88	1167,00
-10198,68	1038,00
-10174,54	1159,00
-10150,46	1351,00
-10126,42	1233,00
-10102,44	1435,00
-10078,51	1292,00
-10054,63	1434,00
-10030,80	1378,00
-10007,03	1471,00
-9983,30	1507,00
-9959,63	1355,00
-9936,01	1624,00
-9912,44	1563,00
-9888,92	1620,00
-9865,44	1492,00
-9842,02	1698,00
-9818,65	1759,00
-9795,33	1708,00
-9772,06	1694,00
-9748,84	1853,00
-9725,67	2015,00
-9702,55	2172,00
-9679,47	2519,00
-9656,45	2633,00
-9633,47	2561,00
-9610,55	2677,00
-9587,67	2788,00
-9564,84	3133,00
-9542,06	3069,00
-9519,32	3505,00
-9496,64	3722,00
-9474,00	3784,00
-9451,41	3864,00
-9428,87	3908,00
-9406,37	3813,00
-9383,92	3385,00
-9361,52	3456,00
-9339,17	3566,00
-9316,86	3790,00
-9294,60	4101,00
-9272,38	4622,00
-9250,21	4864,00
-9228,09	4944,00
-9206,01	4845,00
-9183,98	4183,00
-9162,00	3865,00
-9140,06	3709,00
-9118,16	3630,00
-9096,31	3671,00
-9074,51	3864,00
-9052,75	4056,00
-9031,04	3765,00
-9009,37	3477,00
-8987,74	3174,00
-8966,16	2866,00
-8944,63	2703,00
-8923,14	2614,00
-8901,69	2675,00
-8880,29	2903,00
-8858,93	3210,00
-8837,61	3333,00
-8816,34	3524,00
-8795,11	3538,00
-8773,92	3437,00
-8752,78	3083,00
-8731,68	2993,00
-8710,62	2977,00
-8689,61	3069,00
-8668,63	3258,00
-8647,70	3566,00
-8626,82	3522,00
-8605,97	3352,00
-8585,17	3131,00
-8564,41	2946,00
-8543,69	2738,00
-8523,01	2594,00
-8502,37	2904,00
-8481,78	2776,00
-8461,23	2864,00
-8440,71	3049,00
-8420,24	3209,00
-8399,81	3210,00
-8379,42	3120,00
-8359,08	3138,00
-8338,77	2790,00
-8318,50	2611,00
-8298,27	2618,00
-8278,09	2620,00
-8257,94	2833,00
-8237,83	3056,00
-8217,76	3036,00
-8197,74	3105,00
-8177,75	3175,00
-8157,80	2820,00
-8137,89	2766,00
-8118,02	2624,00
-8098,19	2760,00
-8078,40	2657,00
-8058,65	2828,00
-8038,93	2857,00
-8019,26	2696,00
-7999,62	2729,00
-7980,02	2682,00
-7960,46	2543,00
-7940,94	2546,00
-7921,46	2507,00
-7902,01	2481,00
-7882,60	2556,00
-7863,23	2408,00
-7843,90	2617,00
-7824,61	2572,00
-7805,35	2890,00
-7786,13	2827,00
-7766,95	2825,00
-7747,80	2747,00
-7728,69	2735,00
-7709,62	2540,00
-7690,59	2747,00
-7671,59	2740,00
-7652,63	2867,00
-7633,70	3035,00
-7614,81	2934,00
-7595,96	2573,00
-7577,15	2439,00
-7558,37	2442,00
-7539,62	2544,00
-7520,91	2737,00
-7502,24	2841,00
-7483,60	2759,00
-7465,00	2675,00
-7446,44	2457,00
-7427,91	2040,00
-7409,41	2196,00
-7390,95	1970,00
-7372,53	2019,00
-7354,14	1989,00
-7335,78	2054,00
-7317,46	2119,00
-7299,18	2247,00
-7280,92	2482,00
-7262,71	2808,00
-7244,52	2792,00
-7226,38	2765,00
-7208,26	2872,00
-7190,18	2591,00
-7172,14	2531,00
-7154,12	2371,00
-7136,15	2455,00
-7118,20	2693,00
-7100,29	2749,00
-7082,41	2762,00
-7064,57	2680,00
-7046,76	2497,00
-7028,98	2261,00
-7011,24	2296,00
-6993,53	1989,00
-6975,85	1799,00
-6958,20	1778,00
-6940,59	1796,00
-6923,01	1710,00
-6905,46	1772,00
-6887,94	2126,00
-6870,46	380,00
-6853,01	2627,00
-6835,59	2513,00
-6818,21	2217,00
-6800,85	2218,00
-6783,53	1789,00
-6766,24	1597,00
-6748,98	1558,00
-6731,76	1479,00
-6714,56	1598,00
-6697,40	1387,00
-6680,26	1432,00
-6663,16	1598,00
-6646,09	1907,00
-6629,05	2136,00
-6612,05	2127,00
-6595,07	2154,00
-6578,13	2165,00
-6561,21	1872,00
-6544,33	1652,00
-6527,47	1298,00
-6510,65	1376,00
-6493,86	1310,00
-6477,10	1393,00
-6460,36	1452,00
-6443,66	1316,00
-6426,99	1397,00
-6410,35	1344,00
-6393,74	1497,00
-6377,16	1489,00
-6360,61	1758,00
-6344,09	1768,00
-6327,59	1604,00
-6311,13	1670,00
-6294,70	1748,00
-6278,29	1877,00
-6261,92	2022,00
-6245,58	2059,00
-6229,26	2137,00
-6212,97	1899,00
-6196,72	1675,00
-6180,49	1433,00
-6164,29	1184,00
-6148,12	1259,00
-6131,98	1145,00
-6115,86	1100,00
-6099,78	1106,00
-6083,72	1028,00
-6067,69	1043,00
-6051,69	976,00
-6035,72	1075,00
-6019,78	1189,00
-6003,87	1476,00
-5987,98	1651,00
-5972,12	1692,00
-5956,29	1795,00
-5940,49	1632,00
-5924,71	1448,00
-5908,96	1143,00
-5893,24	1153,00
-5877,55	1202,00
-5861,89	1272,00
-5846,25	1110,00
-5830,64	1286,00
-5815,05	1175,00
-5799,50	1272,00
-5783,97	1147,00
-5768,47	1364,00
-5752,99	1606,00
-5737,55	1537,00
-5722,12	1798,00
-5706,73	1661,00
-5691,36	1591,00
-5676,02	1301,00
-5660,71	1222,00
-5645,42	1122,00
-5630,16	1261,00
-5614,92	1402,00
-5599,71	1471,00
-5584,53	1464,00
-5569,37	1507,00
-5554,24	1483,00
-5539,14	1278,00
-5524,06	1262,00
-5509,01	1309,00
-5493,98	1350,00
-5478,98	1415,00
-5464,00	1205,00
-5449,05	1315,00
-5434,13	1120,00
-5419,23	1253,00
-5404,36	1295,00
-5389,51	1313,00
-5374,69	1589,00
-5359,89	1901,00
-5345,12	1782,00
-5330,37	1829,00
-5315,65	1644,00
-5300,95	1464,00
-5286,28	1283,00
-5271,63	1248,00
-5257,01	1341,00
-5242,41	1350,00
-5227,84	1263,00
-5213,29	1227,00
-5198,76	1156,00
-5184,26	1000,00
-5169,79	1159,00
-5155,33	1265,00
-5140,91	1352,00
-5126,51	1450,00
-5112,13	1441,00
-5097,77	1414,00
-5083,44	1292,00
-5069,13	1139,00
-5054,85	1185,00
-5040,59	1243,00
-5026,36	1352,00
-5012,15	1453,00
-4997,96	1402,00
-4983,80	1153,00
-4969,66	1119,00
-4955,54	1107,00
-4941,44	1235,00
-4927,37	1459,00
-4913,33	1715,00
-4899,30	1916,00
-4885,30	1826,00
-4871,33	1524,00
-4857,37	1208,00
-4843,44	993,00
-4829,53	1141,00
-4815,65	1403,00
-4801,79	1216,00
-4787,95	1224,00
-4774,13	1105,00
-4760,34	1008,00
-4746,56	1037,00
-4732,82	989,00
-4719,09	1214,00
-4705,38	1637,00
-4691,70	1721,00
-4678,04	1782,00
-4664,41	1523,00
-4650,79	1434,00
-4637,20	1097,00
-4623,63	1129,00
-4610,08	1257,00
-4596,56	1429,00
-4583,05	1404,00
-4569,57	1252,00
-4556,11	1298,00
-4542,67	958,00
-4529,25	957,00
-4515,86	1278,00
-4502,49	1546,00
-4489,13	1669,00
-4475,80	1474,00
-4462,49	1218,00
-4449,21	1200,00
-4435,94	1043,00
-4422,70	1147,00
-4409,47	1232,00
-4396,27	1317,00
-4383,09	1287,00
-4369,93	987,00
-4356,79	857,00
-4343,67	958,00
-4330,58	1203,00
-4317,50	1125,00
-4304,45	1145,00
-4291,41	1031,00
-4278,40	961,00
-4265,41	816,00
-4252,44	1136,00
-4239,49	1147,00
-4226,55	1270,00
-4213,65	1193,00
-4200,76	964,00
-4187,89	765,00
-4175,04	916,00
-4162,21	978,00
-4149,40	909,00
-4136,61	930,00
-4123,85	824,00
-4111,10	945,00
-4098,37	879,00
-4085,66	947,00
-4072,98	909,00
-4060,31	856,00
-4047,66	959,00
-4035,04	1019,00
-4022,43	969,00
-4009,84	971,00
-3997,27	758,00
-3984,72	809,00
-3972,19	911,00
-3959,69	792,00
-3947,20	876,00
-3934,73	863,00
-3922,27	819,00
-3909,84	880,00
-3897,43	746,00
-3885,04	972,00
-3872,67	741,00
-3860,31	841,00
-3847,98	905,00
-3835,66	703,00
-3823,36	818,00
-3811,09	746,00
-3798,83	862,00
-3786,59	806,00
-3774,37	843,00
-3762,17	757,00
-3749,98	835,00
-3737,82	756,00
-3725,67	998,00
-3713,55	773,00
-3701,44	708,00
-3689,35	911,00
-3677,28	918,00
-3665,22	823,00
-3653,19	781,00
-3641,17	769,00
-3629,18	950,00
-3617,20	822,00
-3605,24	868,00
-3593,30	808,00
-3581,37	839,00
-3569,47	960,00
-3557,58	743,00
-3545,71	900,00
-3533,86	863,00
-3522,02	770,00
-3510,21	807,00
-3498,41	762,00
-3486,63	888,00
-3474,87	821,00
-3463,12	815,00
-3451,40	813,00
-3439,69	783,00
-3428,00	832,00
-3416,33	945,00
-3404,67	747,00
-3393,03	761,00
-3381,41	867,00
-3369,81	761,00
-3358,22	722,00
-3346,66	944,00
-3335,10	795,00
-3323,57	789,00
-3312,06	997,00
-3300,56	715,00
-3289,08	857,00
-3277,61	733,00
-3266,16	798,00
-3254,73	839,00
-3243,32	721,00
-3231,92	884,00
-3220,55	803,00
-3209,18	874,00
-3197,84	694,00
-3186,51	767,00
-3175,20	833,00
-3163,90	838,00
-3152,63	888,00
-3141,36	842,00
-3130,12	912,00
-3118,89	886,00
-3107,68	799,00
-3096,49	855,00
-3085,31	829,00
-3074,15	755,00
-3063,00	877,00
-3051,87	874,00
-3040,76	771,00
-3029,67	749,00
-3018,59	995,00
-3007,52	928,00
-2996,48	792,00
-2985,44	788,00
-2974,43	855,00
-2963,43	720,00
-2952,45	706,00
-2941,48	868,00
-2930,53	871,00
-2919,60	765,00
-2908,68	830,00
-2897,78	782,00
-2886,89	898,00
-2876,02	793,00
-2865,17	757,00
-2854,33	708,00
-2843,50	836,00
-2832,70	886,00
-2821,90	843,00
-2811,13	815,00
-2800,37	708,00
-2789,62	841,00
-2778,89	783,00
-2768,18	892,00
-2757,48	791,00
-2746,80	890,00
-2736,13	738,00
-2725,48	832,00
-2714,84	774,00
-2704,22	803,00
-2693,61	794,00
-2683,02	828,00
-2672,45	787,00
-2661,89	848,00
-2651,34	1004,00
-2640,81	821,00
-2630,30	862,00
-2619,80	780,00
-2609,31	953,00
-2598,84	737,00
-2588,39	796,00
-2577,95	834,00
-2567,52	691,00
-2557,11	810,00
-2546,71	934,00
-2536,33	956,00
-2525,97	876,00
-2515,62	829,00
-2505,28	820,00
-2494,96	877,00
-2484,65	944,00
-2474,36	1067,00
-2464,08	820,00
-2453,82	823,00
-2443,57	799,00
-2433,33	740,00
-2423,11	758,00
-2412,91	841,00
-2402,72	847,00
-2392,54	814,00
-2382,38	809,00
-2372,23	837,00
-2362,09	5198,00
-2351,97	759,00
-2341,87	820,00
-2331,78	810,00
-2321,70	857,00
-2311,64	837,00
-2301,59	715,00
-2291,55	800,00
-2281,53	786,00
-2271,53	827,00
-2261,53	776,00
-2251,55	806,00
-2241,59	786,00
-2231,64	907,00
-2221,70	789,00
-2211,78	812,00
-2201,87	884,00
-2191,97	817,00
-2182,09	823,00
-2172,22	826,00
-2162,37	666,00
-2152,53	720,00
-2142,70	803,00
-2132,89	755,00
-2123,09	821,00
-2113,30	850,00
-2103,53	731,00
-2093,77	815,00
-2084,02	745,00
-2074,29	939,00
-2064,57	850,00
-2054,86	779,00
-2045,17	832,00
-2035,49	816,00
-2025,82	670,00
-2016,17	829,00
-2006,53	721,00
-1996,91	812,00
-1987,29	805,00
-1977,69	791,00
-1968,11	899,00
-1958,53	899,00
-1948,97	846,00
-1939,42	776,00
-1929,89	762,00
-1920,37	822,00
-1910,86	828,00
-1901,36	867,00
-1891,88	872,00
-1882,41	744,00
-1872,95	891,00
-1863,51	703,00
-1854,08	934,00
-1844,66	921,00
-1835,26	790,00
-1825,86	909,00
-1816,48	828,00
-1807,11	814,00
-1797,76	934,00
-1788,42	931,00
-1779,09	869,00
-1769,77	888,00
-1760,47	968,00
-1751,17	805,00
-1741,89	687,00
-1732,63	885,00
-1723,37	1017,00
-1714,13	948,00
-1704,90	800,00
-1695,68	888,00
-1686,48	784,00
-1677,29	778,00
-1668,11	1085,00
-1658,94	782,00
-1649,78	833,00
-1640,64	772,00
-1631,51	788,00
-1622,39	800,00
-1613,28	825,00
-1604,19	828,00
-1595,10	813,00
-1586,03	777,00
-1576,97	801,00
-1567,93	789,00
-1558,89	863,00
-1549,87	858,00
-1540,86	792,00
-1531,86	772,00
-1522,87	845,00
-1513,90	894,00
-1504,93	996,00
-1495,98	836,00
-1487,04	857,00
-1478,12	863,00
-1469,20	803,00
-1460,30	942,00
-1451,40	907,00
-1442,52	749,00
-1433,65	855,00
-1424,80	784,00
-1415,95	856,00
-1407,12	956,00
-1398,30	913,00
-1389,48	766,00
-1380,69	874,00
-1371,90	807,00
-1363,12	859,00
-1354,36	868,00
-1345,60	811,00
-1336,86	879,00
-1328,13	999,00
-1319,41	821,00
-1310,70	749,00
-1302,01	737,00
-1293,32	840,00
-1284,65	798,00
-1275,99	793,00
-1267,33	811,00
-1258,69	865,00
-1250,06	884,00
-1241,45	741,00
-1232,84	962,00
-1224,25	912,00
-1215,66	945,00
-1207,09	862,00
-1198,53	773,00
-1189,97	811,00
-1181,43	781,00
-1172,91	882,00
-1164,39	915,00
-1155,88	864,00
-1147,38	716,00
-1138,90	783,00
-1130,43	744,00
-1121,96	818,00
-1113,51	878,00
-1105,07	891,00
-1096,64	786,00
-1088,22	732,00
-1079,81	845,00
-1071,41	854,00
-1063,02	743,00
-1054,65	930,00
-1046,28	841,00
-1037,92	827,00
-1029,58	766,00
-1021,24	788,00
-1012,92	1102,00
-1004,61	940,00
-996,30	1013,00
-988,01	739,00
-979,73	824,00
-971,46	816,00
-963,20	772,00
-954,95	805,00
-946,71	767,00
-938,48	722,00
-930,26	845,00
-922,06	834,00
-913,86	825,00
-905,67	728,00
-897,49	864,00
-889,33	719,00
-881,17	948,00
-873,02	886,00
-864,89	760,00
-856,76	826,00
-848,65	892,00
-840,54	874,00
-832,45	827,00
-824,36	720,00
-816,29	836,00
-808,22	1018,00
-800,17	723,00
-792,12	926,00
-784,09	935,00
-776,06	805,00
-768,05	846,00
-760,04	768,00
-752,05	805,00
-744,07	887,00
-736,09	940,00
-728,13	735,00
-720,17	850,00
-712,23	791,00
-704,29	884,00
-696,37	907,00
-688,45	823,00
-680,55	879,00
-672,65	852,00
-664,77	873,00
-656,89	843,00
-649,03	805,00
-641,17	832,00
-633,32	951,00
-625,49	810,00
-617,66	746,00
-609,84	799,00
-602,03	734,00
-594,23	779,00
-586,45	853,00
-578,67	772,00
-570,90	820,00
-563,14	832,00
-555,39	804,00
-547,65	871,00
-539,91	891,00
-532,19	838,00
-524,48	928,00
-516,78	829,00
-509,08	953,00
-501,40	778,00
-493,72	863,00
-486,06	776,00
-478,40	1086,00
-470,76	847,00
-463,12	858,00
-455,49	828,00
-447,87	719,00
-440,26	827,00
-432,66	838,00
-425,07	875,00
-417,49	802,00
-409,92	744,00
-402,35	825,00
-394,80	761,00
-387,25	857,00
-379,72	889,00
-372,19	779,00
-364,67	868,00
-357,17	794,00
-349,67	781,00
-342,18	788,00
-334,69	899,00
-327,22	885,00
-319,76	904,00
-312,30	876,00
-304,86	872,00
-297,42	843,00
-290,00	843,00
-282,58	861,00
-275,17	936,00
-267,77	1045,00
-260,37	861,00
-252,99	825,00
-245,62	921,00
-238,25	747,00
-230,90	792,00
-223,55	937,00
-216,21	906,00
-208,88	1054,00
-201,56	1016,00
-194,25	869,00
-186,94	999,00
-179,65	1084,00
-172,36	1053,00
-165,08	1013,00
-157,81	1093,00
-150,55	1166,00
-143,30	1113,00
-136,06	1190,00
-128,82	1209,00
-121,60	1195,00
-114,38	1297,00
-107,17	1442,00
-99,97	1480,00
-92,78	1451,00
-85,60	1701,00
-78,42	1807,00
-71,25	2023,00
-64,10	1983,00
-56,95	2413,00
-49,81	2625,00
-42,67	3061,00
-35,55	3654,00
-28,43	4541,00
-21,33	7038,00
-14,23	21313,00
-7,14	57727,00
-0,05	57480,00
7,02	57283,00
14,09	57420,00
21,14	18329,00
28,19	8026,00
35,23	5339,00
42,27	4384,00
49,29	3701,00
56,31	3132,00
63,32	2913,00
70,32	2448,00
77,31	2222,00
84,29	1856,00
91,27	1940,00
98,23	1913,00
105,19	1560,00
112,14	1743,00
119,09	1976,00
126,02	2542,00
132,95	2662,00
139,87	2791,00
146,78	2768,00
153,68	2726,00
160,58	2621,00
167,46	2579,00
174,34	2687,00
181,21	2432,00
188,08	2571,00
194,93	2718,00
201,78	2504,00
208,62	2516,00
215,45	2480,00
222,27	2577,00
229,09	2574,00
235,90	2371,00
242,70	2474,00
249,49	2749,00
256,27	2316,00
263,05	2431,00
269,82	2240,00
276,58	2537,00
283,33	2224,00
290,08	2314,00
296,82	2241,00
303,55	2165,00
310,27	2326,00
316,98	2237,00
323,69	2234,00
330,39	2035,00
337,08	2178,00
343,76	2201,00
350,44	2170,00
357,11	2190,00
363,77	2116,00
370,42	2063,00
377,07	2180,00
383,71	2064,00
390,34	2140,00
396,96	2054,00
403,58	2011,00
410,19	2113,00
416,79	2096,00
423,38	2220,00
429,97	2074,00
436,55	2011,00
443,12	2158,00
449,68	2006,00
456,24	1990,00
462,79	1943,00
469,33	2131,00
475,86	1982,00
482,39	1789,00
488,91	1868,00
495,42	1857,00
501,93	1842,00
508,42	1781,00
514,91	1870,00
521,40	1862,00
527,87	1804,00
534,34	1815,00
540,80	1833,00
547,25	1895,00
553,70	1782,00
560,14	1728,00
566,57	1848,00
573,00	1802,00
579,41	1882,00
585,83	1786,00
592,23	1877,00
598,62	1748,00
605,01	1672,00
611,40	1791,00
617,77	1830,00
624,14	1762,00
630,50	1792,00
636,85	1826,00
643,20	1722,00
649,54	1679,00
655,87	1639,00
662,20	1719,00
668,52	1654,00
674,83	1723,00
681,13	1725,00
687,43	1894,00
693,72	1714,00
700,00	1711,00
706,28	1647,00
712,55	1561,00
718,81	1792,00
725,07	1588,00
731,32	1557,00
737,56	1577,00
743,79	1602,00
750,02	1673,00
756,24	1597,00
762,46	1621,00
768,67	1902,00
774,87	1670,00
781,06	1567,00
787,25	1733,00
793,43	1617,00
799,60	1578,00
805,77	1637,00
811,93	1595,00
818,08	1565,00
824,23	1626,00
830,37	1866,00
836,50	1682,00
842,63	1569,00
848,75	1705,00
854,87	1666,00
860,97	1699,00
867,07	1668,00
873,17	1722,00
879,25	1769,00
885,33	1643,00
891,41	1597,00
897,47	1699,00
903,53	1596,00
909,59	1722,00
915,63	1688,00
921,67	1647,00
927,71	1586,00
933,74	1685,00
939,76	1485,00
945,77	1544,00
951,78	1530,00
957,78	1444,00
963,78	1616,00
969,77	1540,00
975,75	1554,00
981,72	1515,00
987,69	2682,00
993,66	1566,00
999,61	1613,00
1005,56	1514,00
1011,51	1592,00
1017,44	1534,00
1023,37	1571,00
1029,30	1547,00
1035,22	1552,00
1041,13	1528,00
1047,03	1592,00
1052,93	1646,00
1058,83	1827,00
1064,71	1983,00
1070,59	1884,00
1076,47	1666,00
1082,33	1644,00
1088,20	1632,00
1094,05	1572,00
1099,90	1551,00
1105,74	1465,00
1111,58	1499,00
1117,41	1601,00
1123,23	1865,00
1129,05	1942,00
1134,86	1942,00
1140,67	1562,00
1146,47	1579,00
1152,26	1478,00
1158,05	1429,00
1163,83	1529,00
1169,60	1525,00
1175,37	1564,00
1181,13	1520,00
1186,89	1542,00
1192,64	1435,00
1198,38	1448,00
1204,12	1445,00
1209,85	1430,00
1215,58	1614,00
1221,30	1485,00
1227,02	1421,00
1232,72	1471,00
1238,43	1348,00
1244,12	1466,00
1249,81	1396,00
1255,50	1625,00
1261,17	1478,00
1266,85	1533,00
1272,51	1561,00
1278,17	1561,00
1283,83	1492,00
1289,47	1924,00
1295,12	2077,00
1300,75	2137,00
1306,38	1884,00
1312,01	1688,00
1317,63	1611,00
1323,24	1586,00
1328,85	1666,00
1334,45	1607,00
1340,04	1549,00
1345,63	1419,00
1351,22	1689,00
1356,80	1544,00
1362,37	1586,00
1367,93	1538,00
1373,49	1622,00
1379,05	1518,00
1384,60	1547,00
1390,14	1442,00
1395,68	1607,00
1401,21	1661,00
1406,74	1684,00
1412,26	1554,00
1417,77	1807,00
1423,28	1761,00
1428,78	1910,00
1434,28	2161,00
1439,77	2286,00
1445,26	2142,00
1450,74	2205,00
1456,22	2073,00
1461,68	2097,00
1467,15	2009,00
1472,61	1848,00
1478,06	1836,00
1483,51	1617,00
1488,95	1446,00
1494,38	1665,00
1499,81	1456,00
1505,24	1421,00
1510,65	1536,00
1516,07	1429,00
1521,48	1403,00
1526,88	1352,00
1532,27	1314,00
1537,67	1514,00
1543,05	1465,00
1548,43	1304,00
1553,81	1472,00
1559,18	1332,00
1564,54	1403,00
1569,90	1274,00
1575,25	1348,00
1580,60	1305,00
1585,94	1379,00
1591,28	1342,00
1596,61	1287,00
1601,93	1326,00
1607,25	1455,00
1612,57	1333,00
1617,88	1392,00
1623,18	1325,00
1628,48	1382,00
1633,77	1439,00
1639,06	1432,00
1644,34	1304,00
1649,62	1189,00
1654,89	1470,00
1660,16	1228,00
1665,42	1279,00
1670,67	1281,00
1675,92	1282,00
1681,17	1155,00
1686,41	1261,00
1691,64	1398,00
1696,87	1336,00
1702,10	1319,00
1707,32	1267,00
1712,53	1283,00
1717,74	1291,00
1722,94	1238,00
1728,14	1260,00
1733,33	1189,00
1738,52	1219,00
1743,70	1254,00
1748,88	1184,00
1754,05	1227,00
1759,22	1188,00
1764,38	1516,00
1769,53	1153,00
1774,69	1319,00
1779,83	1215,00
1784,97	1336,00
1790,11	1243,00
1795,24	1153,00
1800,36	1288,00
1805,48	1312,00
1810,60	1121,00
1815,71	1131,00
1820,82	1255,00
1825,92	1226,00
1831,01	1102,00
1836,10	1068,00
1841,19	1274,00
1846,26	1148,00
1851,34	1133,00
1856,41	1266,00
1861,47	1207,00
1866,53	1167,00
1871,59	1107,00
1876,64	1085,00
1881,68	1258,00
1886,72	1192,00
1891,76	1050,00
1896,79	1125,00
1901,81	1123,00
1906,83	1203,00
1911,85	1057,00
1916,86	1179,00
1921,86	1099,00
1926,86	1109,00
1931,86	1092,00
1936,85	1067,00
1941,83	1101,00
1946,81	1037,00
1951,79	1079,00
1956,76	1036,00
1961,72	951,00
1966,68	1040,00
1971,64	1016,00
1976,59	1084,00
1981,54	1028,00
1986,48	1136,00
1991,42	1032,00
1996,35	1204,00
2001,27	966,00
2006,20	1011,00
2011,11	1116,00
2016,03	1078,00
2020,93	1037,00
2025,84	1111,00
2030,73	915,00
2035,63	957,00
2040,52	1104,00
2045,40	977,00
2050,28	1068,00
2055,15	1067,00
2060,02	965,00
2064,89	1180,00
2069,75	1067,00
2074,60	960,00
2079,46	991,00
2084,30	1046,00
2089,14	988,00
2093,98	1054,00
2098,81	1083,00
2103,64	1049,00
2108,46	1001,00
2113,28	1000,00
2118,09	968,00
2122,90	948,00
2127,70	1007,00
2132,50	1039,00
2137,30	955,00
2142,09	976,00
2146,87	903,00
2151,66	924,00
2156,43	1020,00
2161,20	1018,00
2165,97	983,00
2170,73	938,00
2175,49	933,00
2180,24	944,00
2184,99	1031,00
2189,74	1116,00
2194,48	1075,00
2199,21	1049,00
2203,94	929,00
2208,67	1005,00
2213,39	974,00
2218,11	1017,00
2222,82	1048,00
2227,53	883,00
2232,23	1130,00
2236,93	980,00
2241,63	1016,00
2246,32	1017,00
2251,00	982,00
2255,68	1179,00
2260,36	960,00
2265,03	978,00
2269,70	1126,00
2274,36	885,00
2279,02	1022,00
2283,68	1016,00
2288,33	927,00
2292,97	1046,00
2297,61	856,00
2302,25	946,00
2306,88	1016,00
2311,51	800,00
2316,14	957,00
2320,75	895,00
2325,37	933,00
2329,98	1047,00
2334,59	826,00
2339,19	849,00
2343,79	949,00
2348,38	914,00
2352,97	920,00
2357,55	998,00
2362,13	907,00
2366,71	974,00
2371,28	1170,00
2375,85	1016,00
2380,41	1060,00
2384,97	1095,00
2389,52	908,00
2394,07	1067,00
2398,62	942,00
2403,16	884,00
2407,70	995,00
2412,23	950,00
2416,76	1002,00
2421,29	961,00
2425,81	1001,00
2430,32	1000,00
2434,84	852,00
2439,34	977,00
2443,85	1008,00
2448,35	925,00
2452,84	873,00
2457,33	953,00
2461,82	813,00
2466,30	949,00
2470,78	942,00
2475,25	881,00
2479,72	869,00
2484,19	836,00
2488,65	1050,00
2493,11	841,00
2497,56	980,00
2502,01	863,00
2506,46	1120,00
2510,90	849,00
2515,34	993,00
2519,77	999,00
2524,20	888,00
2528,62	900,00
2533,04	895,00
2537,46	852,00
2541,87	820,00
2546,28	970,00
2550,68	840,00
2555,08	886,00
2559,48	975,00
2563,87	990,00
2568,26	859,00
2572,64	905,00
2577,02	933,00
2581,40	773,00
2585,77	903,00
2590,14	867,00
2594,50	861,00
2598,86	889,00
2603,22	902,00
2607,57	804,00
2611,92	973,00
2616,26	1090,00
2620,60	957,00
2624,94	744,00
2629,27	979,00
2633,60	862,00
2637,92	1046,00
2642,24	1101,00
2646,56	943,00
2650,87	766,00
2655,18	1060,00
2659,48	929,00
2663,78	894,00
2668,08	959,00
2672,37	883,00
2676,66	937,00
2680,95	1005,00
2685,23	965,00
2689,50	922,00
2693,78	961,00
2698,05	899,00
2702,31	1008,00
2706,57	906,00
2710,83	1051,00
2715,08	943,00
2719,33	1132,00
2723,58	996,00
2727,82	1019,00
2732,06	979,00
2736,29	1104,00
2740,53	1069,00
2744,75	998,00
2748,97	1098,00
2753,19	1037,00
2757,41	1006,00
2761,62	978,00
2765,83	973,00
2770,03	883,00
2774,23	893,00
2778,43	914,00
2782,62	1026,00
2786,81	855,00
2791,00	997,00
2795,18	1126,00
2799,35	1033,00
2803,53	1039,00
2807,70	1058,00
2811,86	976,00
2816,03	1173,00
2820,19	1142,00
2824,34	1062,00
2828,49	1114,00
2832,64	1212,00
2836,78	1394,00
2840,92	1533,00
2845,06	1650,00
2849,19	1722,00
2853,32	1673,00
2857,45	1780,00
2861,57	1808,00
2865,69	1659,00
2869,80	1717,00
2873,91	1610,00
2878,02	1884,00
2882,12	1939,00
2886,22	1773,00
2890,32	1945,00
2894,41	1865,00
2898,50	1700,00
2902,58	1598,00
2906,67	1718,00
2910,74	1567,00
2914,82	1393,00
2918,89	1571,00
2922,96	1435,00
2927,02	1391,00
2931,08	1304,00
2935,13	1201,00
2939,19	1311,00
2943,24	1148,00
2947,28	1222,00
2951,32	1105,00
2955,36	1040,00
2959,40	1271,00
2963,43	1061,00
2967,46	1066,00
2971,48	1050,00
2975,50	1070,00
2979,52	979,00
2983,53	1136,00
2987,54	944,00
2991,55	1094,00
2995,55	925,00
2999,55	869,00
3003,54	825,00
3007,54	996,00
3011,53	930,00
3015,51	829,00
3019,49	1090,00
3023,47	865,00
3027,45	824,00
3031,42	802,00
3035,39	814,00
3039,35	850,00
3043,31	877,00
3047,27	906,00
3051,22	843,00
3055,17	795,00
3059,12	746,00
3063,06	906,00
3067,00	787,00
3070,94	894,00
3074,87	903,00
3078,80	863,00
3082,73	879,00
3086,65	826,00
3090,57	868,00
3094,49	814,00
3098,40	849,00
3102,31	882,00
3106,22	888,00
3110,12	851,00
3114,02	741,00
3117,92	969,00
3121,81	827,00
3125,70	851,00
3129,58	862,00
3133,47	810,00
3137,34	821,00
3141,22	935,00
3145,09	906,00
3148,96	915,00
3152,83	763,00
3156,69	808,00
3160,55	737,00
3164,40	835,00
3168,26	845,00
3172,10	950,00
3175,95	878,00
3179,79	845,00
3183,63	905,00
3187,47	1018,00
3191,30	803,00
3195,13	848,00
3198,95	830,00
3202,78	837,00
3206,60	751,00
3210,41	698,00
3214,23	785,00
3218,03	805,00
3221,84	816,00
3225,64	883,00
3229,44	744,00
3233,24	914,00
3237,03	822,00
3240,82	831,00
3244,61	865,00
3248,39	826,00
3252,17	850,00
3255,95	945,00
3259,72	927,00
3263,49	999,00
3267,26	814,00
3271,03	792,00
3274,79	775,00
3278,54	771,00
3282,30	769,00
3286,05	896,00
3289,80	888,00
3293,54	825,00
3297,29	870,00
3301,02	876,00
3304,76	915,00
3308,49	821,00
3312,22	794,00
3315,95	787,00
3319,67	821,00
3323,39	985,00
3327,10	881,00
3330,82	860,00
3334,53	737,00
3338,24	747,00
3341,94	937,00
3345,64	746,00
3349,34	753,00
3353,03	878,00
3356,72	792,00
3360,41	900,00
3364,10	901,00
3367,78	754,00
3371,46	893,00
3375,13	761,00
3378,81	895,00
3382,48	816,00
3386,14	884,00
3389,81	822,00
3393,47	841,00
3397,12	794,00
3400,78	863,00
3404,43	863,00
3408,08	791,00
3411,72	829,00
3415,36	736,00
3419,00	864,00
3422,64	760,00
3426,27	826,00
3429,90	831,00
3433,53	869,00
3437,15	804,00
3440,77	680,00
3444,39	859,00
3448,00	796,00
3451,62	883,00
3455,22	799,00
3458,83	749,00
3462,43	800,00
3466,03	826,00
3469,63	869,00
3473,22	797,00
3476,81	802,00
3480,40	785,00
3483,99	674,00
3487,57	778,00
3491,15	690,00
3494,72	769,00
3498,29	789,00
3501,86	727,00
3505,43	796,00
3508,99	817,00
3512,56	842,00
3516,11	900,00
3519,67	782,00
3523,22	836,00
3526,77	797,00
3530,32	838,00
3533,86	861,00
3537,40	878,00
3540,94	750,00
3544,47	882,00
3548,00	738,00
3551,53	820,00
3555,06	739,00
3558,58	936,00
3562,10	752,00
3565,62	796,00
3569,13	808,00
3572,64	824,00
3576,15	655,00
3579,66	778,00
3583,16	684,00
3586,66	816,00
3590,16	767,00
3593,65	778,00
3597,14	711,00
3600,63	827,00
3604,11	790,00
3607,60	819,00
3611,08	817,00
3614,55	742,00
3618,03	789,00
3621,50	813,00
3624,97	748,00
3628,43	863,00
3631,90	816,00
3635,36	746,00
3638,81	769,00
3642,27	762,00
3645,72	745,00
3649,17	755,00
3652,61	734,00
3656,06	708,00
3659,50	623,00
3662,93	694,00
3666,37	734,00
3669,80	863,00
3673,23	688,00
3676,65	826,00
3680,08	784,00
3683,50	801,00
3686,92	837,00
3690,33	747,00
3693,74	707,00
3697,15	673,00
3700,56	840,00
3703,96	758,00
3707,36	648,00
3710,76	668,00
3714,16	701,00
3717,55	616,00
3720,94	831,00
3724,33	666,00
3727,71	746,00
3731,10	768,00
3734,48	754,00
3737,85	692,00
3741,23	744,00
3744,60	637,00
3747,97	627,00
3751,33	730,00
3754,69	618,00
3758,05	640,00
3761,41	704,00
3764,77	647,00
3768,12	689,00
3771,47	655,00
3774,82	712,00
3778,16	-5,00
3781,50	14,00
3784,84	9,00
3788,18	8,00
>>>>>End Processed Spectral Data<<<<<
