SpectraSuite Data File
++++++++++++++++++++++++++++++++++++
Date: Tue Mar 03 10:46:47 ICT 2026
User: user
Dark Spectrum Present: Yes
Reference Spectrum Present: No
Number of Sampled Component Spectra: 1
Spectrometers: MAYP113682
Integration Time (usec): 3000000 (MAYP113682)
Spectra Averaged: 1 (MAYP113682)
Boxcar Smoothing: 0 (MAYP113682)
Correct for Electrical Dark: No (MAYP113682)
Strobe/Lamp Enabled: No (MAYP113682)
Correct for Detector Non-linearity: No (MAYP113682)
Correct for Stray Light: No (MAYP113682)
Number of Pixels in Processed Spectrum: 2068
>>>>>Begin Processed Spectral Data<<<<<
-37534,58	10,00
-37414,56	1,00
-37295,11	0,00
-37176,24	-5,00
-37057,95	90,00
-36940,22	86,00
-36823,05	153,00
-36706,45	128,00
-36590,40	234,00
-36474,90	161,00
-36359,95	259,00
-36245,55	38,00
-36131,68	245,00
-36018,35	228,00
-35905,55	241,00
-35793,29	117,00
-35681,54	202,00
-35570,32	278,00
-35459,62	193,00
-35349,43	127,00
-35239,75	252,00
-35130,58	191,00
-35021,91	76,00
-34913,74	264,00
-34806,07	30,00
-34698,89	130,00
-34592,20	126,00
-34486,00	240,00
-34380,28	296,00
-34275,04	75,00
-34170,27	133,00
-34065,98	89,00
-33962,16	160,00
-33858,81	133,00
-33755,92	154,00
-33653,49	258,00
-33551,52	227,00
-33450,01	259,00
-33348,94	197,00
-33248,33	136,00
-33148,16	178,00
-33048,43	92,00
-32949,14	118,00
-32850,29	128,00
-32751,87	86,00
-32653,89	221,00
-32556,33	112,00
-32459,20	252,00
-32362,49	128,00
-32266,19	159,00
-32170,32	167,00
-32074,86	211,00
-31979,82	272,00
-31885,18	302,00
-31790,95	260,00
-31697,12	115,00
-31603,69	198,00
-31510,67	248,00
-31418,04	136,00
-31325,80	186,00
-31233,95	121,00
-31142,49	211,00
-31051,42	179,00
-30960,73	256,00
-30870,43	190,00
-30780,50	217,00
-30690,95	194,00
-30601,77	142,00
-30512,97	116,00
-30424,53	174,00
-30336,46	162,00
-30248,76	207,00
-30161,42	236,00
-30074,44	168,00
-29987,81	162,00
-29901,55	203,00
-29815,63	288,00
-29730,07	190,00
-29644,86	149,00
-29560,00	202,00
-29475,48	288,00
-29391,30	104,00
-29307,47	252,00
-29223,97	241,00
-29140,81	141,00
-29057,99	117,00
-28975,50	182,00
-28893,34	184,00
-28811,51	83,00
-28730,00	183,00
-28648,82	142,00
-28567,97	229,00
-28487,43	198,00
-28407,21	233,00
-28327,32	121,00
-28247,73	171,00
-28168,46	165,00
-28089,50	293,00
-28010,85	125,00
-27932,51	217,00
-27854,48	98,00
-27776,75	107,00
-27699,32	139,00
-27622,19	287,00
-27545,37	71,00
-27468,84	141,00
-27392,60	140,00
-27316,66	223,00
-27241,01	272,00
-27165,66	144,00
-27090,59	278,00
-27015,81	209,00
-26941,31	197,00
-26867,10	247,00
-26793,17	222,00
-26719,52	201,00
-26646,15	214,00
-26573,06	232,00
-26500,24	121,00
-26427,70	115,00
-26355,43	168,00
-26283,43	204,00
-26211,71	195,00
-26140,25	91,00
-26069,06	188,00
-25998,13	155,00
-25927,46	131,00
-25857,06	183,00
-25786,92	144,00
-25717,04	205,00
-25647,42	258,00
-25578,05	181,00
-25508,94	96,00
-25440,09	277,00
-25371,48	230,00
-25303,13	157,00
-25235,02	178,00
-25167,17	196,00
-25099,56	195,00
-25032,19	140,00
-24965,07	165,00
-24898,20	272,00
-24831,56	118,00
-24765,17	206,00
-24699,01	197,00
-24633,10	168,00
-24567,41	132,00
-24501,97	244,00
-24436,75	165,00
-24371,77	281,00
-24307,03	202,00
-24242,51	208,00
-24178,22	262,00
-24114,16	234,00
-24050,32	150,00
-23986,71	306,00
-23923,32	202,00
-23860,16	178,00
-23797,22	111,00
-23734,50	137,00
-23672,00	329,00
-23609,71	121,00
-23547,65	289,00
-23485,80	223,00
-23424,16	94,00
-23362,74	198,00
-23301,53	116,00
-23240,54	59,00
-23179,75	195,00
-23119,17	147,00
-23058,80	184,00
-22998,64	185,00
-22938,68	179,00
-22878,93	149,00
-22819,39	224,00
-22760,04	143,00
-22700,90	147,00
-22641,96	165,00
-22583,22	184,00
-22524,68	50,00
-22466,33	180,00
-22408,19	148,00
-22350,23	145,00
-22292,48	262,00
-22234,92	185,00
-22177,55	228,00
-22120,37	207,00
-22063,38	341,00
-22006,58	174,00
-21949,98	181,00
-21893,56	156,00
-21837,33	209,00
-21781,28	102,00
-21725,42	231,00
-21669,74	174,00
-21614,25	259,00
-21558,94	196,00
-21503,81	281,00
-21448,86	183,00
-21394,10	178,00
-21339,51	186,00
-21285,10	175,00
-21230,86	147,00
-21176,81	99,00
-21122,93	47,00
-21069,22	167,00
-21015,69	242,00
-20962,33	311,00
-20909,14	212,00
-20856,13	155,00
-20803,28	395,00
-20750,61	90,00
-20698,10	132,00
-20645,76	204,00
-20593,59	171,00
-20541,59	80,00
-20489,75	253,00
-20438,07	274,00
-20386,56	243,00
-20335,22	144,00
-20284,03	158,00
-20233,01	165,00
-20182,15	161,00
-20131,45	161,00
-20080,91	176,00
-20030,52	197,00
-19980,30	171,00
-19930,23	205,00
-19880,32	277,00
-19830,56	135,00
-19780,96	170,00
-19731,52	235,00
-19682,23	123,00
-19633,09	195,00
-19584,10	136,00
-19535,26	168,00
-19486,58	86,00
-19438,04	193,00
-19389,66	127,00
-19341,42	180,00
-19293,33	202,00
-19245,39	245,00
-19197,60	184,00
-19149,95	167,00
-19102,45	149,00
-19055,09	256,00
-19007,87	220,00
-18960,80	133,00
-18913,87	173,00
-18867,09	227,00
-18820,44	215,00
-18773,94	126,00
-18727,57	105,00
-18681,35	65,00
-18635,26	108,00
-18589,31	246,00
-18543,50	213,00
-18497,83	210,00
-18452,29	214,00
-18406,89	178,00
-18361,63	343,00
-18316,50	272,00
-18271,50	187,00
-18226,63	193,00
-18181,90	144,00
-18137,30	185,00
-18092,84	93,00
-18048,50	197,00
-18004,29	191,00
-17960,22	268,00
-17916,27	194,00
-17872,45	265,00
-17828,76	229,00
-17785,20	232,00
-17741,77	147,00
-17698,46	181,00
-17655,28	104,00
-17612,22	167,00
-17569,29	216,00
-17526,48	199,00
-17483,79	110,00
-17441,23	243,00
-17398,79	106,00
-17356,48	223,00
-17314,28	134,00
-17272,21	231,00
-17230,26	209,00
-17188,42	147,00
-17146,71	216,00
-17105,12	129,00
-17063,64	55,00
-17022,28	169,00
-16981,04	112,00
-16939,92	30,00
-16898,91	283,00
-16858,02	219,00
-16817,25	73,00
-16776,59	220,00
-16736,04	160,00
-16695,61	202,00
-16655,29	221,00
-16615,09	185,00
-16574,99	136,00
-16535,01	190,00
-16495,15	142,00
-16455,39	209,00
-16415,74	192,00
-16376,21	205,00
-16336,78	149,00
-16297,46	211,00
-16258,26	255,00
-16219,16	178,00
-16180,17	204,00
-16141,28	228,00
-16102,51	169,00
-16063,84	160,00
-16025,27	163,00
-15986,82	193,00
-15948,46	97,00
-15910,22	227,00
-15872,07	183,00
-15834,04	63,00
-15796,10	234,00
-15758,27	209,00
-15720,54	52,00
-15682,91	100,00
-15645,39	217,00
-15607,97	166,00
-15570,64	248,00
-15533,42	119,00
-15496,30	183,00
-15459,28	105,00
-15422,36	183,00
-15385,54	231,00
-15348,82	57,00
-15312,19	296,00
-15275,66	294,00
-15239,23	220,00
-15202,90	208,00
-15166,67	216,00
-15130,53	176,00
-15094,48	135,00
-15058,54	168,00
-15022,68	166,00
-14986,93	163,00
-14951,26	127,00
-14915,69	151,00
-14880,22	148,00
-14844,84	238,00
-14809,55	201,00
-14774,35	203,00
-14739,25	217,00
-14704,24	222,00
-14669,32	131,00
-14634,49	122,00
-14599,75	213,00
-14565,10	151,00
-14530,55	148,00
-14496,08	300,00
-14461,70	68,00
-14427,41	91,00
-14393,21	203,00
-14359,10	225,00
-14325,07	141,00
-14291,14	202,00
-14257,29	213,00
-14223,52	176,00
-14189,85	249,00
-14156,26	193,00
-14122,76	141,00
-14089,34	150,00
-14056,01	236,00
-14022,76	266,00
-13989,60	203,00
-13956,52	288,00
-13923,53	194,00
-13890,62	241,00
-13857,79	224,00
-13825,05	181,00
-13792,39	320,00
-13759,81	130,00
-13727,31	145,00
-13694,90	229,00
-13662,57	225,00
-13630,31	120,00
-13598,14	207,00
-13566,05	163,00
-13534,05	134,00
-13502,12	203,00
-13470,27	253,00
-13438,50	135,00
-13406,80	199,00
-13375,19	139,00
-13343,66	115,00
-13312,20	181,00
-13280,83	122,00
-13249,53	212,00
-13218,30	149,00
-13187,16	186,00
-13156,09	191,00
-13125,10	215,00
-13094,18	192,00
-13063,34	168,00
-13032,58	140,00
-13001,89	208,00
-12971,28	252,00
-12940,74	100,00
-12910,27	199,00
-12879,88	60,00
-12849,57	109,00
-12819,33	211,00
-12789,16	134,00
-12759,06	144,00
-12729,04	358,00
-12699,09	352,00
-12669,21	136,00
-12639,41	161,00
-12609,68	221,00
-12580,02	182,00
-12550,43	219,00
-12520,91	142,00
-12491,46	240,00
-12462,08	128,00
-12432,77	198,00
-12403,54	238,00
-12374,37	109,00
-12345,27	202,00
-12316,24	207,00
-12287,29	182,00
-12258,40	169,00
-12229,57	189,00
-12200,82	125,00
-12172,14	190,00
-12143,52	208,00
-12114,97	104,00
-12086,49	222,00
-12058,07	144,00
-12029,73	147,00
-12001,44	130,00
-11973,23	231,00
-11945,08	273,00
-11917,00	155,00
-11888,98	161,00
-11861,03	195,00
-11833,15	181,00
-11805,32	240,00
-11777,57	260,00
-11749,88	274,00
-11722,25	113,00
-11694,69	329,00
-11667,19	34,00
-11639,75	342,00
-11612,38	187,00
-11585,07	278,00
-11557,83	167,00
-11530,65	197,00
-11503,53	211,00
-11476,47	157,00
-11449,48	84,00
-11422,54	198,00
-11395,67	201,00
-11368,86	130,00
-11342,11	131,00
-11315,43	172,00
-11288,80	130,00
-11262,23	134,00
-11235,73	275,00
-11209,28	367,00
-11182,90	298,00
-11156,57	141,00
-11130,31	166,00
-11104,10	269,00
-11077,96	234,00
-11051,87	273,00
-11025,84	201,00
-10999,87	222,00
-10973,96	263,00
-10948,11	45,00
-10922,31	204,00
-10896,58	118,00
-10870,90	161,00
-10845,28	236,00
-10819,71	143,00
-10794,20	212,00
-10768,75	208,00
-10743,36	187,00
-10718,02	138,00
-10692,74	271,00
-10667,52	262,00
-10642,35	185,00
-10617,24	268,00
-10592,18	220,00
-10567,18	258,00
-10542,23	146,00
-10517,34	224,00
-10492,51	263,00
-10467,72	220,00
-10443,00	253,00
-10418,32	291,00
-10393,70	197,00
-10369,14	264,00
-10344,63	235,00
-10320,17	290,00
-10295,77	294,00
-10271,42	356,00
-10247,12	398,00
-10222,88	349,00
-10198,68	437,00
-10174,54	258,00
-10150,46	282,00
-10126,42	396,00
-10102,44	359,00
-10078,51	386,00
-10054,63	428,00
-10030,80	540,00
-10007,03	547,00
-9983,30	446,00
-9959,63	492,00
-9936,01	487,00
-9912,44	375,00
-9888,92	516,00
-9865,44	667,00
-9842,02	637,00
-9818,65	661,00
-9795,33	672,00
-9772,06	628,00
-9748,84	571,00
-9725,67	890,00
-9702,55	733,00
-9679,47	968,00
-9656,45	907,00
-9633,47	1078,00
-9610,55	1030,00
-9587,67	1092,00
-9564,84	1348,00
-9542,06	1218,00
-9519,32	1408,00
-9496,64	1394,00
-9474,00	1545,00
-9451,41	1565,00
-9428,87	1564,00
-9406,37	1500,00
-9383,92	1404,00
-9361,52	1384,00
-9339,17	1307,00
-9316,86	1447,00
-9294,60	1711,00
-9272,38	1894,00
-9250,21	1930,00
-9228,09	1941,00
-9206,01	1777,00
-9183,98	1687,00
-9162,00	1476,00
-9140,06	1435,00
-9118,16	1409,00
-9096,31	1480,00
-9074,51	1460,00
-9052,75	1499,00
-9031,04	1622,00
-9009,37	1281,00
-8987,74	1180,00
-8966,16	1021,00
-8944,63	1041,00
-8923,14	912,00
-8901,69	1089,00
-8880,29	1088,00
-8858,93	1178,00
-8837,61	1444,00
-8816,34	1425,00
-8795,11	1497,00
-8773,92	1333,00
-8752,78	1156,00
-8731,68	1107,00
-8710,62	1160,00
-8689,61	1184,00
-8668,63	1317,00
-8647,70	1390,00
-8626,82	1275,00
-8605,97	1247,00
-8585,17	1073,00
-8564,41	1048,00
-8543,69	968,00
-8523,01	952,00
-8502,37	1065,00
-8481,78	1040,00
-8461,23	1103,00
-8440,71	1201,00
-8420,24	1195,00
-8399,81	1288,00
-8379,42	1257,00
-8359,08	1168,00
-8338,77	1046,00
-8318,50	992,00
-8298,27	859,00
-8278,09	1024,00
-8257,94	1008,00
-8237,83	1116,00
-8217,76	1174,00
-8197,74	1183,00
-8177,75	1099,00
-8157,80	981,00
-8137,89	985,00
-8118,02	907,00
-8098,19	1036,00
-8078,40	877,00
-8058,65	1112,00
-8038,93	1016,00
-8019,26	1035,00
-7999,62	1053,00
-7980,02	947,00
-7960,46	915,00
-7940,94	826,00
-7921,46	938,00
-7902,01	875,00
-7882,60	962,00
-7863,23	975,00
-7843,90	905,00
-7824,61	1122,00
-7805,35	1062,00
-7786,13	1074,00
-7766,95	998,00
-7747,80	974,00
-7728,69	1021,00
-7709,62	926,00
-7690,59	1017,00
-7671,59	1134,00
-7652,63	1028,00
-7633,70	1118,00
-7614,81	991,00
-7595,96	939,00
-7577,15	918,00
-7558,37	842,00
-7539,62	913,00
-7520,91	1008,00
-7502,24	1116,00
-7483,60	1258,00
-7465,00	966,00
-7446,44	973,00
-7427,91	794,00
-7409,41	855,00
-7390,95	692,00
-7372,53	674,00
-7354,14	699,00
-7335,78	762,00
-7317,46	767,00
-7299,18	841,00
-7280,92	860,00
-7262,71	1005,00
-7244,52	1056,00
-7226,38	1204,00
-7208,26	954,00
-7190,18	1118,00
-7172,14	923,00
-7154,12	932,00
-7136,15	870,00
-7118,20	1015,00
-7100,29	1147,00
-7082,41	1002,00
-7064,57	987,00
-7046,76	932,00
-7028,98	775,00
-7011,24	902,00
-6993,53	757,00
-6975,85	717,00
-6958,20	553,00
-6940,59	557,00
-6923,01	693,00
-6905,46	615,00
-6887,94	747,00
-6870,46	-1616,00
-6853,01	1055,00
-6835,59	908,00
-6818,21	921,00
-6800,85	797,00
-6783,53	787,00
-6766,24	490,00
-6748,98	522,00
-6731,76	544,00
-6714,56	536,00
-6697,40	428,00
-6680,26	551,00
-6663,16	648,00
-6646,09	678,00
-6629,05	824,00
-6612,05	767,00
-6595,07	886,00
-6578,13	739,00
-6561,21	645,00
-6544,33	505,00
-6527,47	492,00
-6510,65	525,00
-6493,86	382,00
-6477,10	329,00
-6460,36	446,00
-6443,66	425,00
-6426,99	456,00
-6410,35	417,00
-6393,74	369,00
-6377,16	541,00
-6360,61	607,00
-6344,09	647,00
-6327,59	677,00
-6311,13	733,00
-6294,70	522,00
-6278,29	700,00
-6261,92	779,00
-6245,58	624,00
-6229,26	712,00
-6212,97	681,00
-6196,72	565,00
-6180,49	499,00
-6164,29	357,00
-6148,12	360,00
-6131,98	388,00
-6115,86	363,00
-6099,78	263,00
-6083,72	379,00
-6067,69	282,00
-6051,69	271,00
-6035,72	266,00
-6019,78	375,00
-6003,87	467,00
-5987,98	608,00
-5972,12	560,00
-5956,29	707,00
-5940,49	505,00
-5924,71	588,00
-5908,96	362,00
-5893,24	344,00
-5877,55	280,00
-5861,89	264,00
-5846,25	411,00
-5830,64	453,00
-5815,05	412,00
-5799,50	399,00
-5783,97	416,00
-5768,47	497,00
-5752,99	529,00
-5737,55	596,00
-5722,12	542,00
-5706,73	612,00
-5691,36	548,00
-5676,02	493,00
-5660,71	354,00
-5645,42	341,00
-5630,16	419,00
-5614,92	373,00
-5599,71	412,00
-5584,53	472,00
-5569,37	572,00
-5554,24	1329,00
-5539,14	379,00
-5524,06	440,00
-5509,01	423,00
-5493,98	464,00
-5478,98	493,00
-5464,00	361,00
-5449,05	391,00
-5434,13	386,00
-5419,23	273,00
-5404,36	308,00
-5389,51	466,00
-5374,69	691,00
-5359,89	600,00
-5345,12	571,00
-5330,37	638,00
-5315,65	552,00
-5300,95	493,00
-5286,28	354,00
-5271,63	388,00
-5257,01	588,00
-5242,41	482,00
-5227,84	338,00
-5213,29	338,00
-5198,76	277,00
-5184,26	368,00
-5169,79	249,00
-5155,33	379,00
-5140,91	424,00
-5126,51	511,00
-5112,13	526,00
-5097,77	488,00
-5083,44	390,00
-5069,13	385,00
-5054,85	269,00
-5040,59	327,00
-5026,36	353,00
-5012,15	422,00
-4997,96	461,00
-4983,80	380,00
-4969,66	346,00
-4955,54	385,00
-4941,44	329,00
-4927,37	529,00
-4913,33	595,00
-4899,30	657,00
-4885,30	740,00
-4871,33	528,00
-4857,37	304,00
-4843,44	270,00
-4829,53	260,00
-4815,65	376,00
-4801,79	368,00
-4787,95	413,00
-4774,13	258,00
-4760,34	347,00
-4746,56	326,00
-4732,82	380,00
-4719,09	337,00
-4705,38	482,00
-4691,70	615,00
-4678,04	605,00
-4664,41	401,00
-4650,79	395,00
-4637,20	366,00
-4623,63	285,00
-4610,08	344,00
-4596,56	357,00
-4583,05	545,00
-4569,57	318,00
-4556,11	375,00
-4542,67	182,00
-4529,25	347,00
-4515,86	427,00
-4502,49	441,00
-4489,13	440,00
-4475,80	421,00
-4462,49	383,00
-4449,21	340,00
-4435,94	358,00
-4422,70	386,00
-4409,47	319,00
-4396,27	290,00
-4383,09	333,00
-4369,93	344,00
-4356,79	367,00
-4343,67	263,00
-4330,58	341,00
-4317,50	347,00
-4304,45	293,00
-4291,41	302,00
-4278,40	162,00
-4265,41	218,00
-4252,44	423,00
-4239,49	341,00
-4226,55	403,00
-4213,65	391,00
-4200,76	359,00
-4187,89	214,00
-4175,04	315,00
-4162,21	214,00
-4149,40	261,00
-4136,61	237,00
-4123,85	262,00
-4111,10	228,00
-4098,37	268,00
-4085,66	199,00
-4072,98	202,00
-4060,31	252,00
-4047,66	231,00
-4035,04	188,00
-4022,43	174,00
-4009,84	305,00
-3997,27	122,00
-3984,72	192,00
-3972,19	255,00
-3959,69	173,00
-3947,20	203,00
-3934,73	185,00
-3922,27	191,00
-3909,84	201,00
-3897,43	79,00
-3885,04	120,00
-3872,67	268,00
-3860,31	177,00
-3847,98	230,00
-3835,66	17,00
-3823,36	72,00
-3811,09	52,00
-3798,83	258,00
-3786,59	148,00
-3774,37	257,00
-3762,17	214,00
-3749,98	136,00
-3737,82	171,00
-3725,67	228,00
-3713,55	118,00
-3701,44	228,00
-3689,35	219,00
-3677,28	121,00
-3665,22	124,00
-3653,19	184,00
-3641,17	268,00
-3629,18	148,00
-3617,20	289,00
-3605,24	258,00
-3593,30	293,00
-3581,37	245,00
-3569,47	280,00
-3557,58	162,00
-3545,71	172,00
-3533,86	47,00
-3522,02	160,00
-3510,21	192,00
-3498,41	168,00
-3486,63	196,00
-3474,87	86,00
-3463,12	159,00
-3451,40	272,00
-3439,69	270,00
-3428,00	227,00
-3416,33	227,00
-3404,67	191,00
-3393,03	133,00
-3381,41	155,00
-3369,81	168,00
-3358,22	215,00
-3346,66	210,00
-3335,10	205,00
-3323,57	174,00
-3312,06	163,00
-3300,56	246,00
-3289,08	175,00
-3277,61	283,00
-3266,16	218,00
-3254,73	211,00
-3243,32	283,00
-3231,92	199,00
-3220,55	133,00
-3209,18	244,00
-3197,84	193,00
-3186,51	167,00
-3175,20	163,00
-3163,90	236,00
-3152,63	281,00
-3141,36	278,00
-3130,12	194,00
-3118,89	56,00
-3107,68	94,00
-3096,49	153,00
-3085,31	150,00
-3074,15	107,00
-3063,00	159,00
-3051,87	164,00
-3040,76	271,00
-3029,67	249,00
-3018,59	277,00
-3007,52	142,00
-2996,48	259,00
-2985,44	125,00
-2974,43	221,00
-2963,43	284,00
-2952,45	316,00
-2941,48	202,00
-2930,53	133,00
-2919,60	248,00
-2908,68	171,00
-2897,78	273,00
-2886,89	279,00
-2876,02	248,00
-2865,17	52,00
-2854,33	104,00
-2843,50	226,00
-2832,70	308,00
-2821,90	136,00
-2811,13	44,00
-2800,37	247,00
-2789,62	234,00
-2778,89	95,00
-2768,18	192,00
-2757,48	150,00
-2746,80	218,00
-2736,13	92,00
-2725,48	235,00
-2714,84	236,00
-2704,22	90,00
-2693,61	52,00
-2683,02	179,00
-2672,45	211,00
-2661,89	165,00
-2651,34	150,00
-2640,81	273,00
-2630,30	228,00
-2619,80	140,00
-2609,31	153,00
-2598,84	237,00
-2588,39	136,00
-2577,95	144,00
-2567,52	128,00
-2557,11	122,00
-2546,71	156,00
-2536,33	131,00
-2525,97	186,00
-2515,62	230,00
-2505,28	184,00
-2494,96	119,00
-2484,65	166,00
-2474,36	267,00
-2464,08	239,00
-2453,82	82,00
-2443,57	233,00
-2433,33	175,00
-2423,11	229,00
-2412,91	90,00
-2402,72	112,00
-2392,54	221,00
-2382,38	193,00
-2372,23	133,00
-2362,09	-3774,00
-2351,97	282,00
-2341,87	135,00
-2331,78	192,00
-2321,70	108,00
-2311,64	206,00
-2301,59	121,00
-2291,55	145,00
-2281,53	287,00
-2271,53	139,00
-2261,53	185,00
-2251,55	190,00
-2241,59	248,00
-2231,64	134,00
-2221,70	235,00
-2211,78	251,00
-2201,87	266,00
-2191,97	231,00
-2182,09	175,00
-2172,22	247,00
-2162,37	162,00
-2152,53	125,00
-2142,70	89,00
-2132,89	220,00
-2123,09	238,00
-2113,30	212,00
-2103,53	146,00
-2093,77	126,00
-2084,02	187,00
-2074,29	195,00
-2064,57	288,00
-2054,86	187,00
-2045,17	105,00
-2035,49	194,00
-2025,82	194,00
-2016,17	147,00
-2006,53	195,00
-1996,91	289,00
-1987,29	-62,00
-1977,69	230,00
-1968,11	148,00
-1958,53	153,00
-1948,97	228,00
-1939,42	50,00
-1929,89	178,00
-1920,37	152,00
-1910,86	233,00
-1901,36	191,00
-1891,88	156,00
-1882,41	118,00
-1872,95	195,00
-1863,51	210,00
-1854,08	241,00
-1844,66	243,00
-1835,26	188,00
-1825,86	161,00
-1816,48	139,00
-1807,11	256,00
-1797,76	276,00
-1788,42	140,00
-1779,09	139,00
-1769,77	115,00
-1760,47	276,00
-1751,17	225,00
-1741,89	172,00
-1732,63	308,00
-1723,37	147,00
-1714,13	274,00
-1704,90	125,00
-1695,68	326,00
-1686,48	269,00
-1677,29	148,00
-1668,11	268,00
-1658,94	160,00
-1649,78	170,00
-1640,64	219,00
-1631,51	184,00
-1622,39	217,00
-1613,28	265,00
-1604,19	185,00
-1595,10	268,00
-1586,03	145,00
-1576,97	267,00
-1567,93	174,00
-1558,89	274,00
-1549,87	102,00
-1540,86	171,00
-1531,86	98,00
-1522,87	206,00
-1513,90	301,00
-1504,93	154,00
-1495,98	204,00
-1487,04	172,00
-1478,12	186,00
-1469,20	231,00
-1460,30	186,00
-1451,40	243,00
-1442,52	212,00
-1433,65	234,00
-1424,80	213,00
-1415,95	188,00
-1407,12	217,00
-1398,30	157,00
-1389,48	151,00
-1380,69	196,00
-1371,90	191,00
-1363,12	245,00
-1354,36	114,00
-1345,60	166,00
-1336,86	226,00
-1328,13	143,00
-1319,41	240,00
-1310,70	124,00
-1302,01	252,00
-1293,32	175,00
-1284,65	247,00
-1275,99	218,00
-1267,33	206,00
-1258,69	124,00
-1250,06	198,00
-1241,45	189,00
-1232,84	190,00
-1224,25	242,00
-1215,66	267,00
-1207,09	235,00
-1198,53	146,00
-1189,97	195,00
-1181,43	236,00
-1172,91	258,00
-1164,39	338,00
-1155,88	216,00
-1147,38	165,00
-1138,90	67,00
-1130,43	262,00
-1121,96	171,00
-1113,51	190,00
-1105,07	211,00
-1096,64	256,00
-1088,22	222,00
-1079,81	300,00
-1071,41	209,00
-1063,02	152,00
-1054,65	197,00
-1046,28	182,00
-1037,92	153,00
-1029,58	129,00
-1021,24	289,00
-1012,92	204,00
-1004,61	283,00
-996,30	342,00
-988,01	-41,00
-979,73	194,00
-971,46	249,00
-963,20	155,00
-954,95	165,00
-946,71	127,00
-938,48	149,00
-930,26	202,00
-922,06	132,00
-913,86	299,00
-905,67	196,00
-897,49	303,00
-889,33	256,00
-881,17	144,00
-873,02	187,00
-864,89	240,00
-856,76	178,00
-848,65	195,00
-840,54	289,00
-832,45	301,00
-824,36	202,00
-816,29	356,00
-808,22	151,00
-800,17	193,00
-792,12	274,00
-784,09	265,00
-776,06	115,00
-768,05	245,00
-760,04	160,00
-752,05	311,00
-744,07	220,00
-736,09	173,00
-728,13	133,00
-720,17	196,00
-712,23	360,00
-704,29	260,00
-696,37	157,00
-688,45	227,00
-680,55	155,00
-672,65	107,00
-664,77	236,00
-656,89	207,00
-649,03	210,00
-641,17	249,00
-633,32	310,00
-625,49	295,00
-617,66	229,00
-609,84	192,00
-602,03	340,00
-594,23	216,00
-586,45	129,00
-578,67	285,00
-570,90	331,00
-563,14	176,00
-555,39	44,00
-547,65	233,00
-539,91	151,00
-532,19	219,00
-524,48	255,00
-516,78	132,00
-509,08	193,00
-501,40	223,00
-493,72	262,00
-486,06	255,00
-478,40	244,00
-470,76	154,00
-463,12	205,00
-455,49	126,00
-447,87	301,00
-440,26	171,00
-432,66	136,00
-425,07	248,00
-417,49	226,00
-409,92	241,00
-402,35	154,00
-394,80	116,00
-387,25	258,00
-379,72	152,00
-372,19	150,00
-364,67	215,00
-357,17	270,00
-349,67	215,00
-342,18	314,00
-334,69	284,00
-327,22	166,00
-319,76	315,00
-312,30	219,00
-304,86	255,00
-297,42	219,00
-290,00	272,00
-282,58	218,00
-275,17	253,00
-267,77	222,00
-260,37	302,00
-252,99	216,00
-245,62	302,00
-238,25	293,00
-230,90	365,00
-223,55	408,00
-216,21	302,00
-208,88	400,00
-201,56	471,00
-194,25	469,00
-186,94	528,00
-179,65	559,00
-172,36	518,00
-165,08	524,00
-157,81	564,00
-150,55	652,00
-143,30	712,00
-136,06	710,00
-128,82	935,00
-121,60	994,00
-114,38	1140,00
-107,17	1079,00
-99,97	1273,00
-92,78	1325,00
-85,60	1613,00
-78,42	1820,00
-71,25	2132,00
-64,10	2373,00
-56,95	2584,00
-49,81	3190,00
-42,67	4056,00
-35,55	4863,00
-28,43	6588,00
-21,33	10835,00
-14,23	35797,00
-7,14	56239,00
-0,05	55969,00
7,02	55668,00
14,09	55972,00
21,14	29472,00
28,19	12618,00
35,23	8015,00
42,27	6033,00
49,29	5019,00
56,31	4259,00
63,32	3581,00
70,32	2916,00
77,31	2550,00
84,29	2156,00
91,27	2085,00
98,23	1769,00
105,19	1656,00
112,14	1630,00
119,09	2067,00
126,02	2554,00
132,95	2663,00
139,87	2508,00
146,78	2439,00
153,68	2293,00
160,58	2281,00
167,46	2178,00
174,34	2150,00
181,21	2127,00
188,08	2163,00
194,93	2091,00
201,78	2056,00
208,62	2128,00
215,45	1988,00
222,27	2117,00
229,09	2039,00
235,90	1969,00
242,70	1877,00
249,49	1927,00
256,27	1854,00
263,05	1951,00
269,82	1925,00
276,58	1811,00
283,33	1822,00
290,08	1802,00
296,82	1710,00
303,55	1732,00
310,27	1788,00
316,98	1766,00
323,69	1716,00
330,39	1747,00
337,08	1677,00
343,76	1687,00
350,44	1753,00
357,11	1682,00
363,77	1654,00
370,42	1563,00
377,07	1576,00
383,71	1616,00
390,34	1536,00
396,96	1607,00
403,58	1649,00
410,19	1742,00
416,79	1752,00
423,38	1728,00
429,97	1695,00
436,55	1448,00
443,12	1396,00
449,68	1345,00
456,24	1411,00
462,79	1453,00
469,33	1384,00
475,86	1435,00
482,39	1216,00
488,91	1329,00
495,42	1378,00
501,93	1261,00
508,42	1345,00
514,91	1386,00
521,40	1212,00
527,87	1399,00
534,34	1293,00
540,80	1252,00
547,25	1299,00
553,70	1199,00
560,14	1243,00
566,57	1330,00
573,00	1206,00
579,41	1247,00
585,83	1218,00
592,23	1184,00
598,62	1241,00
605,01	1112,00
611,40	1216,00
617,77	1302,00
624,14	1307,00
630,50	1237,00
636,85	1046,00
643,20	1170,00
649,54	1158,00
655,87	1218,00
662,20	1232,00
668,52	1215,00
674,83	1164,00
681,13	1165,00
687,43	1182,00
693,72	1046,00
700,00	1057,00
706,28	1214,00
712,55	1149,00
718,81	1083,00
725,07	1097,00
731,32	1055,00
737,56	1063,00
743,79	1111,00
750,02	1197,00
756,24	1037,00
762,46	1124,00
768,67	1295,00
774,87	1125,00
781,06	1021,00
787,25	1126,00
793,43	1242,00
799,60	1117,00
805,77	1029,00
811,93	1145,00
818,08	1031,00
824,23	1032,00
830,37	1171,00
836,50	1089,00
842,63	1083,00
848,75	1185,00
854,87	1144,00
860,97	1057,00
867,07	1185,00
873,17	1247,00
879,25	1099,00
885,33	1151,00
891,41	1064,00
897,47	1074,00
903,53	1094,00
909,59	1072,00
915,63	1123,00
921,67	1072,00
927,71	920,00
933,74	928,00
939,76	963,00
945,77	996,00
951,78	997,00
957,78	946,00
963,78	996,00
969,77	983,00
975,75	877,00
981,72	904,00
987,69	1265,00
993,66	901,00
999,61	1104,00
1005,56	1000,00
1011,51	963,00
1017,44	995,00
1023,37	1022,00
1029,30	893,00
1035,22	966,00
1041,13	911,00
1047,03	1080,00
1052,93	1101,00
1058,83	1224,00
1064,71	1342,00
1070,59	1306,00
1076,47	1044,00
1082,33	1038,00
1088,20	998,00
1094,05	916,00
1099,90	1003,00
1105,74	886,00
1111,58	1002,00
1117,41	1056,00
1123,23	1129,00
1129,05	1405,00
1134,86	1121,00
1140,67	1143,00
1146,47	957,00
1152,26	907,00
1158,05	858,00
1163,83	976,00
1169,60	895,00
1175,37	961,00
1181,13	901,00
1186,89	860,00
1192,64	873,00
1198,38	911,00
1204,12	907,00
1209,85	799,00
1215,58	995,00
1221,30	917,00
1227,02	880,00
1232,72	893,00
1238,43	919,00
1244,12	876,00
1249,81	908,00
1255,50	963,00
1261,17	937,00
1266,85	885,00
1272,51	940,00
1278,17	948,00
1283,83	1090,00
1289,47	1525,00
1295,12	1580,00
1300,75	1541,00
1306,38	1366,00
1312,01	1215,00
1317,63	1037,00
1323,24	1006,00
1328,85	1034,00
1334,45	947,00
1340,04	995,00
1345,63	1067,00
1351,22	1060,00
1356,80	1007,00
1362,37	1027,00
1367,93	1049,00
1373,49	989,00
1379,05	1010,00
1384,60	1103,00
1390,14	1131,00
1395,68	1177,00
1401,21	1036,00
1406,74	1087,00
1412,26	1140,00
1417,77	1157,00
1423,28	1314,00
1428,78	1395,00
1434,28	1564,00
1439,77	1760,00
1445,26	1744,00
1450,74	1614,00
1456,22	1584,00
1461,68	1546,00
1467,15	1480,00
1472,61	1214,00
1478,06	1159,00
1483,51	1092,00
1488,95	952,00
1494,38	885,00
1499,81	896,00
1505,24	859,00
1510,65	832,00
1516,07	952,00
1521,48	799,00
1526,88	856,00
1532,27	739,00
1537,67	813,00
1543,05	887,00
1548,43	898,00
1553,81	896,00
1559,18	848,00
1564,54	850,00
1569,90	811,00
1575,25	807,00
1580,60	864,00
1585,94	771,00
1591,28	790,00
1596,61	665,00
1601,93	648,00
1607,25	678,00
1612,57	658,00
1617,88	791,00
1623,18	891,00
1628,48	748,00
1633,77	904,00
1639,06	740,00
1644,34	734,00
1649,62	748,00
1654,89	708,00
1660,16	727,00
1665,42	778,00
1670,67	748,00
1675,92	693,00
1681,17	784,00
1686,41	643,00
1691,64	647,00
1696,87	703,00
1702,10	780,00
1707,32	628,00
1712,53	612,00
1717,74	607,00
1722,94	695,00
1728,14	640,00
1733,33	550,00
1738,52	640,00
1743,70	623,00
1748,88	711,00
1754,05	739,00
1759,22	622,00
1764,38	674,00
1769,53	615,00
1774,69	786,00
1779,83	708,00
1784,97	626,00
1790,11	651,00
1795,24	707,00
1800,36	555,00
1805,48	650,00
1810,60	589,00
1815,71	601,00
1820,82	693,00
1825,92	601,00
1831,01	558,00
1836,10	635,00
1841,19	683,00
1846,26	563,00
1851,34	467,00
1856,41	572,00
1861,47	521,00
1866,53	494,00
1871,59	547,00
1876,64	632,00
1881,68	614,00
1886,72	570,00
1891,76	576,00
1896,79	494,00
1901,81	596,00
1906,83	549,00
1911,85	483,00
1916,86	567,00
1921,86	527,00
1926,86	452,00
1931,86	428,00
1936,85	519,00
1941,83	500,00
1946,81	524,00
1951,79	489,00
1956,76	501,00
1961,72	508,00
1966,68	441,00
1971,64	399,00
1976,59	493,00
1981,54	379,00
1986,48	471,00
1991,42	385,00
1996,35	571,00
2001,27	522,00
2006,20	389,00
2011,11	509,00
2016,03	371,00
2020,93	417,00
2025,84	434,00
2030,73	588,00
2035,63	579,00
2040,52	383,00
2045,40	333,00
2050,28	413,00
2055,15	488,00
2060,02	463,00
2064,89	348,00
2069,75	489,00
2074,60	543,00
2079,46	456,00
2084,30	340,00
2089,14	371,00
2093,98	418,00
2098,81	447,00
2103,64	380,00
2108,46	483,00
2113,28	558,00
2118,09	449,00
2122,90	434,00
2127,70	516,00
2132,50	475,00
2137,30	482,00
2142,09	508,00
2146,87	353,00
2151,66	466,00
2156,43	523,00
2161,20	462,00
2165,97	467,00
2170,73	443,00
2175,49	451,00
2180,24	494,00
2184,99	558,00
2189,74	589,00
2194,48	411,00
2199,21	371,00
2203,94	460,00
2208,67	483,00
2213,39	366,00
2218,11	500,00
2222,82	405,00
2227,53	477,00
2232,23	436,00
2236,93	422,00
2241,63	470,00
2246,32	287,00
2251,00	387,00
2255,68	432,00
2260,36	329,00
2265,03	407,00
2269,70	386,00
2274,36	333,00
2279,02	367,00
2283,68	403,00
2288,33	402,00
2292,97	325,00
2297,61	293,00
2302,25	314,00
2306,88	380,00
2311,51	317,00
2316,14	501,00
2320,75	294,00
2325,37	323,00
2329,98	412,00
2334,59	288,00
2339,19	478,00
2343,79	257,00
2348,38	428,00
2352,97	402,00
2357,55	382,00
2362,13	386,00
2366,71	339,00
2371,28	404,00
2375,85	371,00
2380,41	359,00
2384,97	494,00
2389,52	317,00
2394,07	319,00
2398,62	355,00
2403,16	369,00
2407,70	326,00
2412,23	320,00
2416,76	455,00
2421,29	232,00
2425,81	483,00
2430,32	288,00
2434,84	396,00
2439,34	358,00
2443,85	350,00
2448,35	359,00
2452,84	288,00
2457,33	340,00
2461,82	340,00
2466,30	363,00
2470,78	420,00
2475,25	344,00
2479,72	305,00
2484,19	383,00
2488,65	289,00
2493,11	379,00
2497,56	449,00
2502,01	253,00
2506,46	379,00
2510,90	347,00
2515,34	311,00
2519,77	253,00
2524,20	272,00
2528,62	273,00
2533,04	411,00
2537,46	245,00
2541,87	335,00
2546,28	256,00
2550,68	235,00
2555,08	266,00
2559,48	317,00
2563,87	424,00
2568,26	243,00
2572,64	424,00
2577,02	270,00
2581,40	333,00
2585,77	383,00
2590,14	326,00
2594,50	335,00
2598,86	250,00
2603,22	338,00
2607,57	329,00
2611,92	358,00
2616,26	274,00
2620,60	298,00
2624,94	348,00
2629,27	311,00
2633,60	349,00
2637,92	437,00
2642,24	400,00
2646,56	311,00
2650,87	296,00
2655,18	371,00
2659,48	304,00
2663,78	447,00
2668,08	413,00
2672,37	423,00
2676,66	384,00
2680,95	339,00
2685,23	458,00
2689,50	277,00
2693,78	344,00
2698,05	343,00
2702,31	395,00
2706,57	381,00
2710,83	323,00
2715,08	266,00
2719,33	314,00
2723,58	401,00
2727,82	470,00
2732,06	308,00
2736,29	443,00
2740,53	376,00
2744,75	283,00
2748,97	442,00
2753,19	319,00
2757,41	422,00
2761,62	465,00
2765,83	358,00
2770,03	433,00
2774,23	273,00
2778,43	345,00
2782,62	388,00
2786,81	386,00
2791,00	438,00
2795,18	313,00
2799,35	483,00
2803,53	317,00
2807,70	467,00
2811,86	497,00
2816,03	496,00
2820,19	542,00
2824,34	494,00
2828,49	585,00
2832,64	541,00
2836,78	702,00
2840,92	906,00
2845,06	956,00
2849,19	1227,00
2853,32	1212,00
2857,45	1263,00
2861,57	1214,00
2865,69	1165,00
2869,80	1222,00
2873,91	1275,00
2878,02	1251,00
2882,12	1309,00
2886,22	1277,00
2890,32	1153,00
2894,41	1165,00
2898,50	1162,00
2902,58	1030,00
2906,67	1112,00
2910,74	940,00
2914,82	880,00
2918,89	824,00
2922,96	907,00
2927,02	629,00
2931,08	670,00
2935,13	728,00
2939,19	734,00
2943,24	686,00
2947,28	602,00
2951,32	544,00
2955,36	452,00
2959,40	566,00
2963,43	495,00
2967,46	544,00
2971,48	456,00
2975,50	290,00
2979,52	524,00
2983,53	427,00
2987,54	321,00
2991,55	372,00
2995,55	266,00
2999,55	363,00
3003,54	212,00
3007,54	351,00
3011,53	253,00
3015,51	237,00
3019,49	252,00
3023,47	303,00
3027,45	217,00
3031,42	369,00
3035,39	279,00
3039,35	301,00
3043,31	252,00
3047,27	290,00
3051,22	300,00
3055,17	230,00
3059,12	223,00
3063,06	290,00
3067,00	309,00
3070,94	198,00
3074,87	336,00
3078,80	229,00
3082,73	253,00
3086,65	284,00
3090,57	173,00
3094,49	194,00
3098,40	150,00
3102,31	196,00
3106,22	208,00
3110,12	246,00
3114,02	174,00
3117,92	230,00
3121,81	244,00
3125,70	160,00
3129,58	153,00
3133,47	101,00
3137,34	283,00
3141,22	302,00
3145,09	228,00
3148,96	199,00
3152,83	191,00
3156,69	368,00
3160,55	239,00
3164,40	219,00
3168,26	189,00
3172,10	220,00
3175,95	347,00
3179,79	304,00
3183,63	236,00
3187,47	251,00
3191,30	268,00
3195,13	194,00
3198,95	120,00
3202,78	269,00
3206,60	149,00
3210,41	258,00
3214,23	249,00
3218,03	139,00
3221,84	322,00
3225,64	241,00
3229,44	222,00
3233,24	185,00
3237,03	347,00
3240,82	159,00
3244,61	138,00
3248,39	190,00
3252,17	192,00
3255,95	252,00
3259,72	165,00
3263,49	264,00
3267,26	228,00
3271,03	104,00
3274,79	172,00
3278,54	290,00
3282,30	267,00
3286,05	306,00
3289,80	269,00
3293,54	260,00
3297,29	263,00
3301,02	221,00
3304,76	154,00
3308,49	196,00
3312,22	209,00
3315,95	200,00
3319,67	226,00
3323,39	257,00
3327,10	199,00
3330,82	135,00
3334,53	143,00
3338,24	251,00
3341,94	231,00
3345,64	204,00
3349,34	250,00
3353,03	195,00
3356,72	335,00
3360,41	284,00
3364,10	254,00
3367,78	180,00
3371,46	269,00
3375,13	273,00
3378,81	211,00
3382,48	67,00
3386,14	230,00
3389,81	120,00
3393,47	163,00
3397,12	270,00
3400,78	327,00
3404,43	188,00
3408,08	59,00
3411,72	143,00
3415,36	251,00
3419,00	222,00
3422,64	225,00
3426,27	155,00
3429,90	93,00
3433,53	152,00
3437,15	241,00
3440,77	210,00
3444,39	195,00
3448,00	183,00
3451,62	267,00
3455,22	139,00
3458,83	203,00
3462,43	243,00
3466,03	87,00
3469,63	160,00
3473,22	188,00
3476,81	181,00
3480,40	124,00
3483,99	127,00
3487,57	252,00
3491,15	200,00
3494,72	155,00
3498,29	201,00
3501,86	276,00
3505,43	221,00
3508,99	148,00
3512,56	296,00
3516,11	199,00
3519,67	158,00
3523,22	176,00
3526,77	190,00
3530,32	231,00
3533,86	198,00
3537,40	126,00
3540,94	255,00
3544,47	244,00
3548,00	181,00
3551,53	229,00
3555,06	141,00
3558,58	140,00
3562,10	118,00
3565,62	129,00
3569,13	154,00
3572,64	173,00
3576,15	131,00
3579,66	100,00
3583,16	338,00
3586,66	271,00
3590,16	114,00
3593,65	179,00
3597,14	180,00
3600,63	179,00
3604,11	211,00
3607,60	111,00
3611,08	147,00
3614,55	112,00
3618,03	149,00
3621,50	194,00
3624,97	89,00
3628,43	171,00
3631,90	243,00
3635,36	109,00
3638,81	169,00
3642,27	303,00
3645,72	202,00
3649,17	212,00
3652,61	188,00
3656,06	261,00
3659,50	61,00
3662,93	179,00
3666,37	61,00
3669,80	254,00
3673,23	257,00
3676,65	215,00
3680,08	249,00
3683,50	114,00
3686,92	128,00
3690,33	170,00
3693,74	192,00
3697,15	125,00
3700,56	138,00
3703,96	152,00
3707,36	2,00
3710,76	189,00
3714,16	222,00
3717,55	147,00
3720,94	95,00
3724,33	107,00
3727,71	261,00
3731,10	208,00
3734,48	160,00
3737,85	118,00
3741,23	139,00
3744,60	165,00
3747,97	171,00
3751,33	174,00
3754,69	134,00
3758,05	96,00
3761,41	126,00
3764,77	156,00
3768,12	108,00
3771,47	106,00
3774,82	150,00
3778,16	-3,00
3781,50	8,00
3784,84	4,00
3788,18	-1,00
>>>>>End Processed Spectral Data<<<<<
