SpectraSuite Data File
++++++++++++++++++++++++++++++++++++
Date: Tue Mar 03 10:29:26 ICT 2026
User: user
Dark Spectrum Present: Yes
Reference Spectrum Present: No
Number of Sampled Component Spectra: 1
Spectrometers: MAYP113682
Integration Time (usec): 3000000 (MAYP113682)
Spectra Averaged: 1 (MAYP113682)
Boxcar Smoothing: 0 (MAYP113682)
Correct for Electrical Dark: No (MAYP113682)
Strobe/Lamp Enabled: No (MAYP113682)
Correct for Detector Non-linearity: No (MAYP113682)
Correct for Stray Light: No (MAYP113682)
Number of Pixels in Processed Spectrum: 2068
>>>>>Begin Processed Spectral Data<<<<<
-37534,58	18,00
-37414,56	0,00
-37295,11	6,00
-37176,24	2,00
-37057,95	339,00
-36940,22	298,00
-36823,05	273,00
-36706,45	388,00
-36590,40	349,00
-36474,90	382,00
-36359,95	486,00
-36245,55	402,00
-36131,68	481,00
-36018,35	389,00
-35905,55	409,00
-35793,29	426,00
-35681,54	383,00
-35570,32	359,00
-35459,62	394,00
-35349,43	454,00
-35239,75	413,00
-35130,58	372,00
-35021,91	355,00
-34913,74	403,00
-34806,07	466,00
-34698,89	477,00
-34592,20	382,00
-34486,00	465,00
-34380,28	432,00
-34275,04	388,00
-34170,27	307,00
-34065,98	384,00
-33962,16	466,00
-33858,81	463,00
-33755,92	466,00
-33653,49	466,00
-33551,52	479,00
-33450,01	429,00
-33348,94	427,00
-33248,33	445,00
-33148,16	372,00
-33048,43	437,00
-32949,14	458,00
-32850,29	455,00
-32751,87	358,00
-32653,89	491,00
-32556,33	445,00
-32459,20	414,00
-32362,49	365,00
-32266,19	359,00
-32170,32	517,00
-32074,86	427,00
-31979,82	422,00
-31885,18	392,00
-31790,95	540,00
-31697,12	444,00
-31603,69	424,00
-31510,67	601,00
-31418,04	496,00
-31325,80	417,00
-31233,95	463,00
-31142,49	489,00
-31051,42	492,00
-30960,73	563,00
-30870,43	542,00
-30780,50	297,00
-30690,95	368,00
-30601,77	401,00
-30512,97	404,00
-30424,53	436,00
-30336,46	445,00
-30248,76	355,00
-30161,42	355,00
-30074,44	526,00
-29987,81	506,00
-29901,55	493,00
-29815,63	439,00
-29730,07	498,00
-29644,86	419,00
-29560,00	457,00
-29475,48	456,00
-29391,30	389,00
-29307,47	400,00
-29223,97	573,00
-29140,81	404,00
-29057,99	443,00
-28975,50	448,00
-28893,34	536,00
-28811,51	391,00
-28730,00	414,00
-28648,82	401,00
-28567,97	463,00
-28487,43	344,00
-28407,21	463,00
-28327,32	461,00
-28247,73	543,00
-28168,46	429,00
-28089,50	427,00
-28010,85	413,00
-27932,51	383,00
-27854,48	369,00
-27776,75	421,00
-27699,32	403,00
-27622,19	414,00
-27545,37	464,00
-27468,84	551,00
-27392,60	435,00
-27316,66	366,00
-27241,01	445,00
-27165,66	501,00
-27090,59	423,00
-27015,81	453,00
-26941,31	466,00
-26867,10	493,00
-26793,17	486,00
-26719,52	506,00
-26646,15	468,00
-26573,06	406,00
-26500,24	411,00
-26427,70	443,00
-26355,43	547,00
-26283,43	379,00
-26211,71	413,00
-26140,25	451,00
-26069,06	489,00
-25998,13	424,00
-25927,46	447,00
-25857,06	377,00
-25786,92	440,00
-25717,04	401,00
-25647,42	432,00
-25578,05	383,00
-25508,94	479,00
-25440,09	460,00
-25371,48	426,00
-25303,13	437,00
-25235,02	440,00
-25167,17	477,00
-25099,56	451,00
-25032,19	428,00
-24965,07	435,00
-24898,20	355,00
-24831,56	499,00
-24765,17	436,00
-24699,01	423,00
-24633,10	336,00
-24567,41	415,00
-24501,97	612,00
-24436,75	425,00
-24371,77	461,00
-24307,03	441,00
-24242,51	433,00
-24178,22	341,00
-24114,16	460,00
-24050,32	447,00
-23986,71	422,00
-23923,32	398,00
-23860,16	374,00
-23797,22	462,00
-23734,50	506,00
-23672,00	501,00
-23609,71	474,00
-23547,65	418,00
-23485,80	516,00
-23424,16	405,00
-23362,74	490,00
-23301,53	481,00
-23240,54	378,00
-23179,75	428,00
-23119,17	461,00
-23058,80	461,00
-22998,64	479,00
-22938,68	305,00
-22878,93	467,00
-22819,39	358,00
-22760,04	464,00
-22700,90	498,00
-22641,96	437,00
-22583,22	500,00
-22524,68	400,00
-22466,33	351,00
-22408,19	332,00
-22350,23	356,00
-22292,48	449,00
-22234,92	402,00
-22177,55	541,00
-22120,37	529,00
-22063,38	412,00
-22006,58	509,00
-21949,98	398,00
-21893,56	369,00
-21837,33	423,00
-21781,28	528,00
-21725,42	425,00
-21669,74	488,00
-21614,25	391,00
-21558,94	502,00
-21503,81	436,00
-21448,86	566,00
-21394,10	437,00
-21339,51	362,00
-21285,10	476,00
-21230,86	327,00
-21176,81	447,00
-21122,93	452,00
-21069,22	424,00
-21015,69	396,00
-20962,33	342,00
-20909,14	399,00
-20856,13	495,00
-20803,28	417,00
-20750,61	454,00
-20698,10	488,00
-20645,76	373,00
-20593,59	536,00
-20541,59	451,00
-20489,75	418,00
-20438,07	390,00
-20386,56	461,00
-20335,22	447,00
-20284,03	391,00
-20233,01	371,00
-20182,15	486,00
-20131,45	508,00
-20080,91	397,00
-20030,52	366,00
-19980,30	376,00
-19930,23	436,00
-19880,32	499,00
-19830,56	497,00
-19780,96	394,00
-19731,52	394,00
-19682,23	456,00
-19633,09	424,00
-19584,10	436,00
-19535,26	421,00
-19486,58	488,00
-19438,04	417,00
-19389,66	421,00
-19341,42	370,00
-19293,33	391,00
-19245,39	456,00
-19197,60	448,00
-19149,95	468,00
-19102,45	417,00
-19055,09	448,00
-19007,87	483,00
-18960,80	444,00
-18913,87	480,00
-18867,09	369,00
-18820,44	367,00
-18773,94	381,00
-18727,57	531,00
-18681,35	454,00
-18635,26	467,00
-18589,31	421,00
-18543,50	391,00
-18497,83	404,00
-18452,29	358,00
-18406,89	348,00
-18361,63	506,00
-18316,50	398,00
-18271,50	391,00
-18226,63	438,00
-18181,90	501,00
-18137,30	388,00
-18092,84	425,00
-18048,50	468,00
-18004,29	429,00
-17960,22	453,00
-17916,27	419,00
-17872,45	461,00
-17828,76	389,00
-17785,20	402,00
-17741,77	410,00
-17698,46	436,00
-17655,28	424,00
-17612,22	353,00
-17569,29	504,00
-17526,48	328,00
-17483,79	368,00
-17441,23	506,00
-17398,79	303,00
-17356,48	455,00
-17314,28	515,00
-17272,21	498,00
-17230,26	510,00
-17188,42	393,00
-17146,71	413,00
-17105,12	391,00
-17063,64	458,00
-17022,28	337,00
-16981,04	414,00
-16939,92	383,00
-16898,91	412,00
-16858,02	422,00
-16817,25	387,00
-16776,59	410,00
-16736,04	453,00
-16695,61	462,00
-16655,29	409,00
-16615,09	460,00
-16574,99	400,00
-16535,01	407,00
-16495,15	451,00
-16455,39	448,00
-16415,74	432,00
-16376,21	443,00
-16336,78	293,00
-16297,46	421,00
-16258,26	467,00
-16219,16	209,00
-16180,17	411,00
-16141,28	433,00
-16102,51	450,00
-16063,84	401,00
-16025,27	397,00
-15986,82	427,00
-15948,46	438,00
-15910,22	391,00
-15872,07	466,00
-15834,04	450,00
-15796,10	372,00
-15758,27	487,00
-15720,54	500,00
-15682,91	475,00
-15645,39	453,00
-15607,97	439,00
-15570,64	544,00
-15533,42	377,00
-15496,30	398,00
-15459,28	556,00
-15422,36	275,00
-15385,54	384,00
-15348,82	459,00
-15312,19	500,00
-15275,66	417,00
-15239,23	456,00
-15202,90	443,00
-15166,67	318,00
-15130,53	286,00
-15094,48	411,00
-15058,54	461,00
-15022,68	428,00
-14986,93	391,00
-14951,26	335,00
-14915,69	432,00
-14880,22	452,00
-14844,84	372,00
-14809,55	318,00
-14774,35	532,00
-14739,25	428,00
-14704,24	378,00
-14669,32	356,00
-14634,49	413,00
-14599,75	480,00
-14565,10	408,00
-14530,55	481,00
-14496,08	405,00
-14461,70	384,00
-14427,41	439,00
-14393,21	411,00
-14359,10	479,00
-14325,07	425,00
-14291,14	396,00
-14257,29	384,00
-14223,52	367,00
-14189,85	539,00
-14156,26	433,00
-14122,76	431,00
-14089,34	412,00
-14056,01	348,00
-14022,76	432,00
-13989,60	421,00
-13956,52	399,00
-13923,53	394,00
-13890,62	457,00
-13857,79	456,00
-13825,05	363,00
-13792,39	411,00
-13759,81	420,00
-13727,31	339,00
-13694,90	361,00
-13662,57	491,00
-13630,31	487,00
-13598,14	434,00
-13566,05	387,00
-13534,05	401,00
-13502,12	432,00
-13470,27	448,00
-13438,50	440,00
-13406,80	370,00
-13375,19	410,00
-13343,66	366,00
-13312,20	497,00
-13280,83	362,00
-13249,53	545,00
-13218,30	427,00
-13187,16	401,00
-13156,09	506,00
-13125,10	519,00
-13094,18	387,00
-13063,34	585,00
-13032,58	302,00
-13001,89	407,00
-12971,28	554,00
-12940,74	485,00
-12910,27	406,00
-12879,88	565,00
-12849,57	372,00
-12819,33	512,00
-12789,16	449,00
-12759,06	414,00
-12729,04	439,00
-12699,09	2100,00
-12669,21	350,00
-12639,41	465,00
-12609,68	416,00
-12580,02	402,00
-12550,43	465,00
-12520,91	421,00
-12491,46	349,00
-12462,08	403,00
-12432,77	338,00
-12403,54	478,00
-12374,37	391,00
-12345,27	474,00
-12316,24	407,00
-12287,29	434,00
-12258,40	316,00
-12229,57	342,00
-12200,82	465,00
-12172,14	318,00
-12143,52	390,00
-12114,97	356,00
-12086,49	404,00
-12058,07	487,00
-12029,73	418,00
-12001,44	561,00
-11973,23	400,00
-11945,08	520,00
-11917,00	512,00
-11888,98	503,00
-11861,03	356,00
-11833,15	519,00
-11805,32	422,00
-11777,57	478,00
-11749,88	378,00
-11722,25	393,00
-11694,69	307,00
-11667,19	441,00
-11639,75	570,00
-11612,38	487,00
-11585,07	393,00
-11557,83	433,00
-11530,65	408,00
-11503,53	487,00
-11476,47	388,00
-11449,48	466,00
-11422,54	409,00
-11395,67	504,00
-11368,86	432,00
-11342,11	464,00
-11315,43	363,00
-11288,80	339,00
-11262,23	508,00
-11235,73	443,00
-11209,28	483,00
-11182,90	431,00
-11156,57	397,00
-11130,31	494,00
-11104,10	426,00
-11077,96	485,00
-11051,87	337,00
-11025,84	490,00
-10999,87	415,00
-10973,96	390,00
-10948,11	438,00
-10922,31	449,00
-10896,58	386,00
-10870,90	476,00
-10845,28	458,00
-10819,71	422,00
-10794,20	578,00
-10768,75	478,00
-10743,36	529,00
-10718,02	433,00
-10692,74	466,00
-10667,52	367,00
-10642,35	570,00
-10617,24	432,00
-10592,18	554,00
-10567,18	520,00
-10542,23	537,00
-10517,34	535,00
-10492,51	447,00
-10467,72	480,00
-10443,00	493,00
-10418,32	500,00
-10393,70	520,00
-10369,14	474,00
-10344,63	524,00
-10320,17	530,00
-10295,77	515,00
-10271,42	527,00
-10247,12	557,00
-10222,88	599,00
-10198,68	472,00
-10174,54	569,00
-10150,46	731,00
-10126,42	630,00
-10102,44	705,00
-10078,51	646,00
-10054,63	659,00
-10030,80	680,00
-10007,03	751,00
-9983,30	797,00
-9959,63	732,00
-9936,01	841,00
-9912,44	840,00
-9888,92	709,00
-9865,44	635,00
-9842,02	831,00
-9818,65	823,00
-9795,33	812,00
-9772,06	831,00
-9748,84	885,00
-9725,67	995,00
-9702,55	1086,00
-9679,47	1113,00
-9656,45	1271,00
-9633,47	1074,00
-9610,55	1262,00
-9587,67	1332,00
-9564,84	1416,00
-9542,06	1522,00
-9519,32	1701,00
-9496,64	1666,00
-9474,00	1677,00
-9451,41	1809,00
-9428,87	1737,00
-9406,37	1714,00
-9383,92	1611,00
-9361,52	1639,00
-9339,17	1700,00
-9316,86	1634,00
-9294,60	1885,00
-9272,38	2078,00
-9250,21	2201,00
-9228,09	2144,00
-9206,01	2167,00
-9183,98	1831,00
-9162,00	1665,00
-9140,06	1736,00
-9118,16	1639,00
-9096,31	1612,00
-9074,51	1619,00
-9052,75	1836,00
-9031,04	1588,00
-9009,37	1536,00
-8987,74	1410,00
-8966,16	1184,00
-8944,63	1247,00
-8923,14	1177,00
-8901,69	1157,00
-8880,29	1252,00
-8858,93	1404,00
-8837,61	1504,00
-8816,34	1522,00
-8795,11	1609,00
-8773,92	1457,00
-8752,78	1405,00
-8731,68	1325,00
-8710,62	1326,00
-8689,61	1325,00
-8668,63	1459,00
-8647,70	1619,00
-8626,82	1604,00
-8605,97	1598,00
-8585,17	1335,00
-8564,41	1266,00
-8543,69	1218,00
-8523,01	1174,00
-8502,37	1378,00
-8481,78	1168,00
-8461,23	1192,00
-8440,71	1393,00
-8420,24	1452,00
-8399,81	1427,00
-8379,42	1434,00
-8359,08	1417,00
-8338,77	1302,00
-8318,50	1235,00
-8298,27	1115,00
-8278,09	1218,00
-8257,94	1328,00
-8237,83	1355,00
-8217,76	1360,00
-8197,74	1428,00
-8177,75	1418,00
-8157,80	1270,00
-8137,89	1193,00
-8118,02	1156,00
-8098,19	1205,00
-8078,40	1140,00
-8058,65	1260,00
-8038,93	1195,00
-8019,26	1223,00
-7999,62	1238,00
-7980,02	1089,00
-7960,46	1165,00
-7940,94	1176,00
-7921,46	1136,00
-7902,01	1013,00
-7882,60	1101,00
-7863,23	1143,00
-7843,90	1158,00
-7824,61	1127,00
-7805,35	1281,00
-7786,13	1323,00
-7766,95	1283,00
-7747,80	1242,00
-7728,69	1175,00
-7709,62	1141,00
-7690,59	1296,00
-7671,59	1262,00
-7652,63	1296,00
-7633,70	1276,00
-7614,81	1287,00
-7595,96	1171,00
-7577,15	1116,00
-7558,37	1136,00
-7539,62	1229,00
-7520,91	1159,00
-7502,24	1337,00
-7483,60	1317,00
-7465,00	1274,00
-7446,44	1192,00
-7427,91	1012,00
-7409,41	1049,00
-7390,95	987,00
-7372,53	969,00
-7354,14	916,00
-7335,78	1058,00
-7317,46	945,00
-7299,18	990,00
-7280,92	1156,00
-7262,71	1252,00
-7244,52	1226,00
-7226,38	1296,00
-7208,26	1377,00
-7190,18	1108,00
-7172,14	1116,00
-7154,12	1052,00
-7136,15	1114,00
-7118,20	1211,00
-7100,29	1299,00
-7082,41	1185,00
-7064,57	1197,00
-7046,76	1181,00
-7028,98	1022,00
-7011,24	1141,00
-6993,53	921,00
-6975,85	899,00
-6958,20	848,00
-6940,59	946,00
-6923,01	810,00
-6905,46	827,00
-6887,94	1036,00
-6870,46	1230,00
-6853,01	1170,00
-6835,59	1151,00
-6818,21	1020,00
-6800,85	1047,00
-6783,53	750,00
-6766,24	779,00
-6748,98	652,00
-6731,76	737,00
-6714,56	713,00
-6697,40	730,00
-6680,26	689,00
-6663,16	846,00
-6646,09	864,00
-6629,05	1056,00
-6612,05	1000,00
-6595,07	931,00
-6578,13	1122,00
-6561,21	860,00
-6544,33	786,00
-6527,47	587,00
-6510,65	708,00
-6493,86	675,00
-6477,10	715,00
-6460,36	745,00
-6443,66	580,00
-6426,99	626,00
-6410,35	732,00
-6393,74	658,00
-6377,16	619,00
-6360,61	797,00
-6344,09	730,00
-6327,59	815,00
-6311,13	767,00
-6294,70	850,00
-6278,29	911,00
-6261,92	956,00
-6245,58	1002,00
-6229,26	1007,00
-6212,97	799,00
-6196,72	793,00
-6180,49	645,00
-6164,29	584,00
-6148,12	689,00
-6131,98	562,00
-6115,86	510,00
-6099,78	568,00
-6083,72	509,00
-6067,69	534,00
-6051,69	524,00
-6035,72	528,00
-6019,78	550,00
-6003,87	776,00
-5987,98	778,00
-5972,12	773,00
-5956,29	838,00
-5940,49	737,00
-5924,71	753,00
-5908,96	539,00
-5893,24	592,00
-5877,55	567,00
-5861,89	649,00
-5846,25	583,00
-5830,64	571,00
-5815,05	560,00
-5799,50	512,00
-5783,97	511,00
-5768,47	683,00
-5752,99	748,00
-5737,55	681,00
-5722,12	839,00
-5706,73	793,00
-5691,36	670,00
-5676,02	624,00
-5660,71	662,00
-5645,42	514,00
-5630,16	655,00
-5614,92	694,00
-5599,71	680,00
-5584,53	788,00
-5569,37	686,00
-5554,24	745,00
-5539,14	525,00
-5524,06	584,00
-5509,01	687,00
-5493,98	575,00
-5478,98	722,00
-5464,00	602,00
-5449,05	635,00
-5434,13	587,00
-5419,23	484,00
-5404,36	596,00
-5389,51	645,00
-5374,69	780,00
-5359,89	911,00
-5345,12	853,00
-5330,37	886,00
-5315,65	803,00
-5300,95	736,00
-5286,28	609,00
-5271,63	580,00
-5257,01	542,00
-5242,41	626,00
-5227,84	662,00
-5213,29	626,00
-5198,76	600,00
-5184,26	521,00
-5169,79	589,00
-5155,33	662,00
-5140,91	656,00
-5126,51	696,00
-5112,13	634,00
-5097,77	711,00
-5083,44	569,00
-5069,13	579,00
-5054,85	526,00
-5040,59	592,00
-5026,36	597,00
-5012,15	675,00
-4997,96	666,00
-4983,80	554,00
-4969,66	572,00
-4955,54	538,00
-4941,44	639,00
-4927,37	704,00
-4913,33	804,00
-4899,30	946,00
-4885,30	810,00
-4871,33	667,00
-4857,37	629,00
-4843,44	528,00
-4829,53	575,00
-4815,65	637,00
-4801,79	500,00
-4787,95	645,00
-4774,13	514,00
-4760,34	472,00
-4746,56	514,00
-4732,82	489,00
-4719,09	513,00
-4705,38	757,00
-4691,70	830,00
-4678,04	882,00
-4664,41	808,00
-4650,79	747,00
-4637,20	608,00
-4623,63	601,00
-4610,08	644,00
-4596,56	764,00
-4583,05	725,00
-4569,57	664,00
-4556,11	578,00
-4542,67	496,00
-4529,25	489,00
-4515,86	638,00
-4502,49	767,00
-4489,13	831,00
-4475,80	629,00
-4462,49	520,00
-4449,21	582,00
-4435,94	530,00
-4422,70	587,00
-4409,47	639,00
-4396,27	619,00
-4383,09	599,00
-4369,93	540,00
-4356,79	513,00
-4343,67	513,00
-4330,58	562,00
-4317,50	591,00
-4304,45	534,00
-4291,41	453,00
-4278,40	449,00
-4265,41	342,00
-4252,44	567,00
-4239,49	578,00
-4226,55	684,00
-4213,65	558,00
-4200,76	582,00
-4187,89	452,00
-4175,04	452,00
-4162,21	493,00
-4149,40	446,00
-4136,61	483,00
-4123,85	425,00
-4111,10	503,00
-4098,37	416,00
-4085,66	463,00
-4072,98	457,00
-4060,31	396,00
-4047,66	499,00
-4035,04	551,00
-4022,43	507,00
-4009,84	496,00
-3997,27	499,00
-3984,72	350,00
-3972,19	468,00
-3959,69	417,00
-3947,20	540,00
-3934,73	523,00
-3922,27	369,00
-3909,84	488,00
-3897,43	349,00
-3885,04	523,00
-3872,67	451,00
-3860,31	448,00
-3847,98	417,00
-3835,66	404,00
-3823,36	463,00
-3811,09	458,00
-3798,83	481,00
-3786,59	450,00
-3774,37	394,00
-3762,17	419,00
-3749,98	419,00
-3737,82	426,00
-3725,67	508,00
-3713,55	459,00
-3701,44	401,00
-3689,35	471,00
-3677,28	490,00
-3665,22	494,00
-3653,19	494,00
-3641,17	331,00
-3629,18	424,00
-3617,20	416,00
-3605,24	456,00
-3593,30	443,00
-3581,37	456,00
-3569,47	509,00
-3557,58	426,00
-3545,71	481,00
-3533,86	479,00
-3522,02	415,00
-3510,21	427,00
-3498,41	476,00
-3486,63	533,00
-3474,87	502,00
-3463,12	497,00
-3451,40	470,00
-3439,69	359,00
-3428,00	484,00
-3416,33	552,00
-3404,67	424,00
-3393,03	358,00
-3381,41	463,00
-3369,81	403,00
-3358,22	434,00
-3346,66	611,00
-3335,10	504,00
-3323,57	407,00
-3312,06	565,00
-3300,56	494,00
-3289,08	480,00
-3277,61	333,00
-3266,16	409,00
-3254,73	482,00
-3243,32	401,00
-3231,92	494,00
-3220,55	460,00
-3209,18	457,00
-3197,84	374,00
-3186,51	402,00
-3175,20	410,00
-3163,90	332,00
-3152,63	443,00
-3141,36	496,00
-3130,12	503,00
-3118,89	461,00
-3107,68	469,00
-3096,49	411,00
-3085,31	529,00
-3074,15	401,00
-3063,00	468,00
-3051,87	378,00
-3040,76	401,00
-3029,67	468,00
-3018,59	521,00
-3007,52	427,00
-2996,48	371,00
-2985,44	337,00
-2974,43	450,00
-2963,43	415,00
-2952,45	345,00
-2941,48	459,00
-2930,53	382,00
-2919,60	342,00
-2908,68	482,00
-2897,78	442,00
-2886,89	497,00
-2876,02	439,00
-2865,17	458,00
-2854,33	356,00
-2843,50	414,00
-2832,70	482,00
-2821,90	540,00
-2811,13	376,00
-2800,37	426,00
-2789,62	519,00
-2778,89	473,00
-2768,18	428,00
-2757,48	482,00
-2746,80	467,00
-2736,13	349,00
-2725,48	430,00
-2714,84	407,00
-2704,22	442,00
-2693,61	375,00
-2683,02	490,00
-2672,45	390,00
-2661,89	472,00
-2651,34	529,00
-2640,81	479,00
-2630,30	538,00
-2619,80	410,00
-2609,31	481,00
-2598,84	331,00
-2588,39	433,00
-2577,95	458,00
-2567,52	340,00
-2557,11	368,00
-2546,71	532,00
-2536,33	447,00
-2525,97	415,00
-2515,62	441,00
-2505,28	505,00
-2494,96	460,00
-2484,65	524,00
-2474,36	366,00
-2464,08	372,00
-2453,82	467,00
-2443,57	463,00
-2433,33	376,00
-2423,11	351,00
-2412,91	530,00
-2402,72	466,00
-2392,54	410,00
-2382,38	361,00
-2372,23	452,00
-2362,09	4561,00
-2351,97	330,00
-2341,87	412,00
-2331,78	339,00
-2321,70	429,00
-2311,64	449,00
-2301,59	391,00
-2291,55	407,00
-2281,53	392,00
-2271,53	477,00
-2261,53	440,00
-2251,55	393,00
-2241,59	485,00
-2231,64	558,00
-2221,70	408,00
-2211,78	415,00
-2201,87	455,00
-2191,97	481,00
-2182,09	482,00
-2172,22	441,00
-2162,37	369,00
-2152,53	389,00
-2142,70	483,00
-2132,89	427,00
-2123,09	498,00
-2113,30	407,00
-2103,53	439,00
-2093,77	438,00
-2084,02	388,00
-2074,29	488,00
-2064,57	469,00
-2054,86	457,00
-2045,17	435,00
-2035,49	495,00
-2025,82	374,00
-2016,17	404,00
-2006,53	422,00
-1996,91	454,00
-1987,29	407,00
-1977,69	487,00
-1968,11	436,00
-1958,53	482,00
-1948,97	479,00
-1939,42	463,00
-1929,89	376,00
-1920,37	421,00
-1910,86	459,00
-1901,36	445,00
-1891,88	485,00
-1882,41	466,00
-1872,95	432,00
-1863,51	420,00
-1854,08	434,00
-1844,66	513,00
-1835,26	509,00
-1825,86	422,00
-1816,48	364,00
-1807,11	401,00
-1797,76	514,00
-1788,42	434,00
-1779,09	643,00
-1769,77	437,00
-1760,47	585,00
-1751,17	381,00
-1741,89	322,00
-1732,63	505,00
-1723,37	552,00
-1714,13	544,00
-1704,90	367,00
-1695,68	413,00
-1686,48	446,00
-1677,29	451,00
-1668,11	580,00
-1658,94	374,00
-1649,78	526,00
-1640,64	499,00
-1631,51	425,00
-1622,39	408,00
-1613,28	486,00
-1604,19	401,00
-1595,10	442,00
-1586,03	466,00
-1576,97	443,00
-1567,93	431,00
-1558,89	377,00
-1549,87	508,00
-1540,86	485,00
-1531,86	388,00
-1522,87	485,00
-1513,90	546,00
-1504,93	465,00
-1495,98	479,00
-1487,04	480,00
-1478,12	454,00
-1469,20	382,00
-1460,30	534,00
-1451,40	520,00
-1442,52	381,00
-1433,65	471,00
-1424,80	458,00
-1415,95	453,00
-1407,12	613,00
-1398,30	496,00
-1389,48	469,00
-1380,69	350,00
-1371,90	413,00
-1363,12	423,00
-1354,36	397,00
-1345,60	509,00
-1336,86	468,00
-1328,13	425,00
-1319,41	455,00
-1310,70	410,00
-1302,01	326,00
-1293,32	441,00
-1284,65	438,00
-1275,99	413,00
-1267,33	448,00
-1258,69	470,00
-1250,06	521,00
-1241,45	440,00
-1232,84	512,00
-1224,25	511,00
-1215,66	541,00
-1207,09	377,00
-1198,53	442,00
-1189,97	375,00
-1181,43	363,00
-1172,91	490,00
-1164,39	507,00
-1155,88	417,00
-1147,38	466,00
-1138,90	391,00
-1130,43	392,00
-1121,96	501,00
-1113,51	431,00
-1105,07	429,00
-1096,64	421,00
-1088,22	391,00
-1079,81	470,00
-1071,41	471,00
-1063,02	374,00
-1054,65	515,00
-1046,28	488,00
-1037,92	428,00
-1029,58	433,00
-1021,24	348,00
-1012,92	508,00
-1004,61	462,00
-996,30	488,00
-988,01	410,00
-979,73	357,00
-971,46	431,00
-963,20	422,00
-954,95	453,00
-946,71	504,00
-938,48	398,00
-930,26	371,00
-922,06	438,00
-913,86	451,00
-905,67	395,00
-897,49	445,00
-889,33	388,00
-881,17	438,00
-873,02	464,00
-864,89	372,00
-856,76	492,00
-848,65	460,00
-840,54	525,00
-832,45	532,00
-824,36	362,00
-816,29	496,00
-808,22	452,00
-800,17	389,00
-792,12	449,00
-784,09	534,00
-776,06	531,00
-768,05	462,00
-760,04	421,00
-752,05	431,00
-744,07	476,00
-736,09	507,00
-728,13	387,00
-720,17	443,00
-712,23	438,00
-704,29	492,00
-696,37	513,00
-688,45	477,00
-680,55	500,00
-672,65	487,00
-664,77	455,00
-656,89	449,00
-649,03	521,00
-641,17	492,00
-633,32	538,00
-625,49	467,00
-617,66	440,00
-609,84	432,00
-602,03	362,00
-594,23	453,00
-586,45	500,00
-578,67	529,00
-570,90	465,00
-563,14	517,00
-555,39	469,00
-547,65	592,00
-539,91	497,00
-532,19	469,00
-524,48	464,00
-516,78	474,00
-509,08	472,00
-501,40	445,00
-493,72	497,00
-486,06	407,00
-478,40	635,00
-470,76	479,00
-463,12	504,00
-455,49	537,00
-447,87	423,00
-440,26	388,00
-432,66	483,00
-425,07	553,00
-417,49	437,00
-409,92	477,00
-402,35	508,00
-394,80	462,00
-387,25	522,00
-379,72	495,00
-372,19	487,00
-364,67	472,00
-357,17	453,00
-349,67	476,00
-342,18	490,00
-334,69	611,00
-327,22	468,00
-319,76	618,00
-312,30	571,00
-304,86	554,00
-297,42	538,00
-290,00	587,00
-282,58	598,00
-275,17	624,00
-267,77	629,00
-260,37	576,00
-252,99	494,00
-245,62	658,00
-238,25	529,00
-230,90	603,00
-223,55	673,00
-216,21	631,00
-208,88	758,00
-201,56	805,00
-194,25	735,00
-186,94	804,00
-179,65	769,00
-172,36	982,00
-165,08	879,00
-157,81	932,00
-150,55	1059,00
-143,30	1117,00
-136,06	1106,00
-128,82	1266,00
-121,60	1211,00
-114,38	1403,00
-107,17	1716,00
-99,97	1720,00
-92,78	1796,00
-85,60	2066,00
-78,42	2314,00
-71,25	2616,00
-64,10	2928,00
-56,95	3538,00
-49,81	4033,00
-42,67	4864,00
-35,55	6031,00
-28,43	7634,00
-21,33	12666,00
-14,23	39517,00
-7,14	57727,00
-0,05	57480,00
7,02	57283,00
14,09	57420,00
21,14	34592,00
28,19	15135,00
35,23	9725,00
42,27	7413,00
49,29	6155,00
56,31	5242,00
63,32	4426,00
70,32	3677,00
77,31	3290,00
84,29	2693,00
91,27	2532,00
98,23	2361,00
105,19	1992,00
112,14	2036,00
119,09	2311,00
126,02	2678,00
132,95	2910,00
139,87	2779,00
146,78	2718,00
153,68	2631,00
160,58	2507,00
167,46	2455,00
174,34	2427,00
181,21	2376,00
188,08	2350,00
194,93	2351,00
201,78	2253,00
208,62	2292,00
215,45	2295,00
222,27	2235,00
229,09	2270,00
235,90	2128,00
242,70	2169,00
249,49	2302,00
256,27	2091,00
263,05	2092,00
269,82	2013,00
276,58	2135,00
283,33	1972,00
290,08	1925,00
296,82	1880,00
303,55	1888,00
310,27	1896,00
316,98	1880,00
323,69	1814,00
330,39	1886,00
337,08	1903,00
343,76	1913,00
350,44	1863,00
357,11	1840,00
363,77	1762,00
370,42	1753,00
377,07	1783,00
383,71	1768,00
390,34	1783,00
396,96	1691,00
403,58	1766,00
410,19	1864,00
416,79	1854,00
423,38	1880,00
429,97	1777,00
436,55	1754,00
443,12	1663,00
449,68	1592,00
456,24	1669,00
462,79	1538,00
469,33	1684,00
475,86	1532,00
482,39	1484,00
488,91	1605,00
495,42	1435,00
501,93	1538,00
508,42	1427,00
514,91	1583,00
521,40	1512,00
527,87	1470,00
534,34	1423,00
540,80	1437,00
547,25	1486,00
553,70	1378,00
560,14	1410,00
566,57	1474,00
573,00	1469,00
579,41	1434,00
585,83	1428,00
592,23	1455,00
598,62	1375,00
605,01	1369,00
611,40	1467,00
617,77	1428,00
624,14	1311,00
630,50	1364,00
636,85	1487,00
643,20	1302,00
649,54	1312,00
655,87	1255,00
662,20	1399,00
668,52	1414,00
674,83	1398,00
681,13	1369,00
687,43	1382,00
693,72	1293,00
700,00	1342,00
706,28	1289,00
712,55	1292,00
718,81	1481,00
725,07	1288,00
731,32	1252,00
737,56	1353,00
743,79	1267,00
750,02	1212,00
756,24	1270,00
762,46	1278,00
768,67	1488,00
774,87	1320,00
781,06	1274,00
787,25	1275,00
793,43	1258,00
799,60	1268,00
805,77	1252,00
811,93	1298,00
818,08	1262,00
824,23	1323,00
830,37	1423,00
836,50	1290,00
842,63	1286,00
848,75	1383,00
854,87	1264,00
860,97	1383,00
867,07	1365,00
873,17	1340,00
879,25	1319,00
885,33	1283,00
891,41	1309,00
897,47	1297,00
903,53	1225,00
909,59	1329,00
915,63	1242,00
921,67	1274,00
927,71	1230,00
933,74	1373,00
939,76	1151,00
945,77	1184,00
951,78	1175,00
957,78	1143,00
963,78	1247,00
969,77	1166,00
975,75	1157,00
981,72	1222,00
987,69	1944,00
993,66	1278,00
999,61	1265,00
1005,56	1190,00
1011,51	1156,00
1017,44	1164,00
1023,37	1245,00
1029,30	1283,00
1035,22	1210,00
1041,13	1250,00
1047,03	1240,00
1052,93	1331,00
1058,83	1509,00
1064,71	1648,00
1070,59	1491,00
1076,47	1392,00
1082,33	1190,00
1088,20	1268,00
1094,05	1349,00
1099,90	1228,00
1105,74	1186,00
1111,58	1232,00
1117,41	1263,00
1123,23	1491,00
1129,05	1611,00
1134,86	1562,00
1140,67	1159,00
1146,47	1092,00
1152,26	1090,00
1158,05	1098,00
1163,83	1168,00
1169,60	1161,00
1175,37	1215,00
1181,13	1123,00
1186,89	1134,00
1192,64	1060,00
1198,38	1095,00
1204,12	1031,00
1209,85	1050,00
1215,58	1200,00
1221,30	1080,00
1227,02	1073,00
1232,72	1115,00
1238,43	985,00
1244,12	1098,00
1249,81	1038,00
1255,50	1191,00
1261,17	1181,00
1266,85	1215,00
1272,51	1144,00
1278,17	1185,00
1283,83	1279,00
1289,47	1596,00
1295,12	1864,00
1300,75	1784,00
1306,38	1633,00
1312,01	1418,00
1317,63	1263,00
1323,24	1326,00
1328,85	1264,00
1334,45	1203,00
1340,04	1229,00
1345,63	1114,00
1351,22	1231,00
1356,80	1224,00
1362,37	1306,00
1367,93	1172,00
1373,49	1260,00
1379,05	1274,00
1384,60	1202,00
1390,14	1112,00
1395,68	1190,00
1401,21	1335,00
1406,74	1191,00
1412,26	1276,00
1417,77	1343,00
1423,28	1444,00
1428,78	1611,00
1434,28	1801,00
1439,77	1898,00
1445,26	1883,00
1450,74	1861,00
1456,22	1694,00
1461,68	1742,00
1467,15	1673,00
1472,61	1552,00
1478,06	1484,00
1483,51	1201,00
1488,95	1115,00
1494,38	1268,00
1499,81	1199,00
1505,24	1132,00
1510,65	1156,00
1516,07	1120,00
1521,48	1109,00
1526,88	992,00
1532,27	945,00
1537,67	1046,00
1543,05	1081,00
1548,43	963,00
1553,81	1080,00
1559,18	1010,00
1564,54	1094,00
1569,90	1041,00
1575,25	958,00
1580,60	1013,00
1585,94	1034,00
1591,28	1007,00
1596,61	959,00
1601,93	965,00
1607,25	1081,00
1612,57	987,00
1617,88	1049,00
1623,18	1063,00
1628,48	1039,00
1633,77	1093,00
1639,06	1134,00
1644,34	978,00
1649,62	892,00
1654,89	1066,00
1660,16	867,00
1665,42	923,00
1670,67	937,00
1675,92	942,00
1681,17	863,00
1686,41	943,00
1691,64	1045,00
1696,87	956,00
1702,10	887,00
1707,32	867,00
1712,53	909,00
1717,74	905,00
1722,94	885,00
1728,14	915,00
1733,33	827,00
1738,52	864,00
1743,70	799,00
1748,88	809,00
1754,05	891,00
1759,22	874,00
1764,38	1067,00
1769,53	848,00
1774,69	968,00
1779,83	849,00
1784,97	899,00
1790,11	830,00
1795,24	863,00
1800,36	882,00
1805,48	870,00
1810,60	810,00
1815,71	761,00
1820,82	851,00
1825,92	922,00
1831,01	846,00
1836,10	806,00
1841,19	786,00
1846,26	782,00
1851,34	817,00
1856,41	858,00
1861,47	780,00
1866,53	841,00
1871,59	793,00
1876,64	699,00
1881,68	818,00
1886,72	761,00
1891,76	716,00
1896,79	752,00
1901,81	781,00
1906,83	906,00
1911,85	623,00
1916,86	766,00
1921,86	747,00
1926,86	760,00
1931,86	656,00
1936,85	657,00
1941,83	774,00
1946,81	750,00
1951,79	707,00
1956,76	641,00
1961,72	648,00
1966,68	731,00
1971,64	581,00
1976,59	790,00
1981,54	711,00
1986,48	725,00
1991,42	680,00
1996,35	764,00
2001,27	685,00
2006,20	686,00
2011,11	698,00
2016,03	683,00
2020,93	599,00
2025,84	720,00
2030,73	729,00
2035,63	638,00
2040,52	724,00
2045,40	662,00
2050,28	700,00
2055,15	697,00
2060,02	620,00
2064,89	823,00
2069,75	734,00
2074,60	651,00
2079,46	738,00
2084,30	717,00
2089,14	746,00
2093,98	686,00
2098,81	694,00
2103,64	670,00
2108,46	619,00
2113,28	685,00
2118,09	656,00
2122,90	625,00
2127,70	588,00
2132,50	722,00
2137,30	695,00
2142,09	673,00
2146,87	496,00
2151,66	652,00
2156,43	683,00
2161,20	640,00
2165,97	713,00
2170,73	704,00
2175,49	639,00
2180,24	729,00
2184,99	710,00
2189,74	772,00
2194,48	663,00
2199,21	672,00
2203,94	648,00
2208,67	652,00
2213,39	640,00
2218,11	583,00
2222,82	699,00
2227,53	559,00
2232,23	641,00
2236,93	597,00
2241,63	740,00
2246,32	640,00
2251,00	630,00
2255,68	688,00
2260,36	574,00
2265,03	658,00
2269,70	677,00
2274,36	645,00
2279,02	620,00
2283,68	631,00
2288,33	579,00
2292,97	604,00
2297,61	576,00
2302,25	613,00
2306,88	590,00
2311,51	451,00
2316,14	609,00
2320,75	605,00
2325,37	606,00
2329,98	541,00
2334,59	467,00
2339,19	534,00
2343,79	501,00
2348,38	499,00
2352,97	582,00
2357,55	625,00
2362,13	612,00
2366,71	609,00
2371,28	736,00
2375,85	574,00
2380,41	723,00
2384,97	665,00
2389,52	551,00
2394,07	654,00
2398,62	583,00
2403,16	607,00
2407,70	592,00
2412,23	609,00
2416,76	536,00
2421,29	464,00
2425,81	603,00
2430,32	622,00
2434,84	415,00
2439,34	550,00
2443,85	598,00
2448,35	526,00
2452,84	502,00
2457,33	628,00
2461,82	538,00
2466,30	574,00
2470,78	569,00
2475,25	566,00
2479,72	537,00
2484,19	549,00
2488,65	637,00
2493,11	517,00
2497,56	629,00
2502,01	500,00
2506,46	664,00
2510,90	547,00
2515,34	560,00
2519,77	608,00
2524,20	572,00
2528,62	637,00
2533,04	563,00
2537,46	496,00
2541,87	473,00
2546,28	585,00
2550,68	516,00
2555,08	560,00
2559,48	619,00
2563,87	569,00
2568,26	575,00
2572,64	562,00
2577,02	536,00
2581,40	508,00
2585,77	561,00
2590,14	548,00
2594,50	509,00
2598,86	646,00
2603,22	549,00
2607,57	527,00
2611,92	628,00
2616,26	612,00
2620,60	648,00
2624,94	457,00
2629,27	565,00
2633,60	535,00
2637,92	659,00
2642,24	637,00
2646,56	562,00
2650,87	462,00
2655,18	588,00
2659,48	556,00
2663,78	558,00
2668,08	581,00
2672,37	637,00
2676,66	663,00
2680,95	480,00
2685,23	648,00
2689,50	626,00
2693,78	578,00
2698,05	563,00
2702,31	638,00
2706,57	547,00
2710,83	665,00
2715,08	614,00
2719,33	717,00
2723,58	629,00
2727,82	627,00
2732,06	651,00
2736,29	679,00
2740,53	637,00
2744,75	615,00
2748,97	669,00
2753,19	611,00
2757,41	601,00
2761,62	584,00
2765,83	596,00
2770,03	583,00
2774,23	650,00
2778,43	581,00
2782,62	563,00
2786,81	473,00
2791,00	647,00
2795,18	709,00
2799,35	612,00
2803,53	646,00
2807,70	715,00
2811,86	652,00
2816,03	752,00
2820,19	749,00
2824,34	788,00
2828,49	867,00
2832,64	914,00
2836,78	1000,00
2840,92	1229,00
2845,06	1264,00
2849,19	1439,00
2853,32	1451,00
2857,45	1469,00
2861,57	1488,00
2865,69	1401,00
2869,80	1352,00
2873,91	1385,00
2878,02	1496,00
2882,12	1588,00
2886,22	1501,00
2890,32	1512,00
2894,41	1458,00
2898,50	1426,00
2902,58	1305,00
2906,67	1287,00
2910,74	1253,00
2914,82	1115,00
2918,89	1224,00
2922,96	1155,00
2927,02	968,00
2931,08	991,00
2935,13	931,00
2939,19	1003,00
2943,24	764,00
2947,28	881,00
2951,32	782,00
2955,36	714,00
2959,40	852,00
2963,43	732,00
2967,46	679,00
2971,48	640,00
2975,50	742,00
2979,52	631,00
2983,53	654,00
2987,54	603,00
2991,55	721,00
2995,55	523,00
2999,55	573,00
3003,54	494,00
3007,54	554,00
3011,53	518,00
3015,51	544,00
3019,49	661,00
3023,47	569,00
3027,45	496,00
3031,42	528,00
3035,39	503,00
3039,35	542,00
3043,31	541,00
3047,27	545,00
3051,22	518,00
3055,17	430,00
3059,12	414,00
3063,06	538,00
3067,00	486,00
3070,94	562,00
3074,87	490,00
3078,80	487,00
3082,73	563,00
3086,65	544,00
3090,57	455,00
3094,49	476,00
3098,40	507,00
3102,31	549,00
3106,22	519,00
3110,12	483,00
3114,02	454,00
3117,92	450,00
3121,81	489,00
3125,70	508,00
3129,58	481,00
3133,47	457,00
3137,34	507,00
3141,22	453,00
3145,09	512,00
3148,96	580,00
3152,83	358,00
3156,69	455,00
3160,55	382,00
3164,40	498,00
3168,26	439,00
3172,10	588,00
3175,95	522,00
3179,79	505,00
3183,63	485,00
3187,47	482,00
3191,30	436,00
3195,13	448,00
3198,95	468,00
3202,78	481,00
3206,60	440,00
3210,41	377,00
3214,23	341,00
3218,03	513,00
3221,84	427,00
3225,64	430,00
3229,44	476,00
3233,24	508,00
3237,03	483,00
3240,82	466,00
3244,61	520,00
3248,39	388,00
3252,17	495,00
3255,95	502,00
3259,72	470,00
3263,49	513,00
3267,26	439,00
3271,03	431,00
3274,79	440,00
3278,54	425,00
3282,30	436,00
3286,05	478,00
3289,80	572,00
3293,54	508,00
3297,29	424,00
3301,02	504,00
3304,76	489,00
3308,49	500,00
3312,22	412,00
3315,95	413,00
3319,67	433,00
3323,39	584,00
3327,10	453,00
3330,82	421,00
3334,53	453,00
3338,24	454,00
3341,94	566,00
3345,64	382,00
3349,34	475,00
3353,03	498,00
3356,72	423,00
3360,41	451,00
3364,10	451,00
3367,78	459,00
3371,46	544,00
3375,13	426,00
3378,81	479,00
3382,48	534,00
3386,14	497,00
3389,81	512,00
3393,47	470,00
3397,12	498,00
3400,78	463,00
3404,43	515,00
3408,08	447,00
3411,72	473,00
3415,36	366,00
3419,00	545,00
3422,64	397,00
3426,27	569,00
3429,90	320,00
3433,53	434,00
3437,15	510,00
3440,77	335,00
3444,39	374,00
3448,00	416,00
3451,62	453,00
3455,22	389,00
3458,83	413,00
3462,43	466,00
3466,03	453,00
3469,63	482,00
3473,22	468,00
3476,81	422,00
3480,40	457,00
3483,99	371,00
3487,57	439,00
3491,15	268,00
3494,72	398,00
3498,29	377,00
3501,86	432,00
3505,43	412,00
3508,99	495,00
3512,56	441,00
3516,11	481,00
3519,67	503,00
3523,22	506,00
3526,77	426,00
3530,32	399,00
3533,86	477,00
3537,40	500,00
3540,94	355,00
3544,47	473,00
3548,00	386,00
3551,53	387,00
3555,06	457,00
3558,58	613,00
3562,10	401,00
3565,62	395,00
3569,13	402,00
3572,64	438,00
3576,15	400,00
3579,66	378,00
3583,16	319,00
3586,66	387,00
3590,16	353,00
3593,65	467,00
3597,14	332,00
3600,63	422,00
3604,11	423,00
3607,60	463,00
3611,08	352,00
3614,55	429,00
3618,03	503,00
3621,50	401,00
3624,97	318,00
3628,43	439,00
3631,90	541,00
3635,36	436,00
3638,81	345,00
3642,27	364,00
3645,72	417,00
3649,17	404,00
3652,61	363,00
3656,06	395,00
3659,50	336,00
3662,93	450,00
3666,37	366,00
3669,80	528,00
3673,23	378,00
3676,65	409,00
3680,08	359,00
3683,50	394,00
3686,92	427,00
3690,33	389,00
3693,74	380,00
3697,15	302,00
3700,56	411,00
3703,96	384,00
3707,36	399,00
3710,76	345,00
3714,16	367,00
3717,55	348,00
3720,94	421,00
3724,33	378,00
3727,71	285,00
3731,10	368,00
3734,48	327,00
3737,85	342,00
3741,23	338,00
3744,60	333,00
3747,97	289,00
3751,33	314,00
3754,69	317,00
3758,05	393,00
3761,41	328,00
3764,77	348,00
3768,12	356,00
3771,47	278,00
3774,82	412,00
3778,16	-6,00
3781,50	9,00
3784,84	-3,00
3788,18	5,00
>>>>>End Processed Spectral Data<<<<<
