SpectraSuite Data File
++++++++++++++++++++++++++++++++++++
Date: Tue Mar 03 11:31:19 ICT 2026
User: user
Dark Spectrum Present: Yes
Reference Spectrum Present: No
Number of Sampled Component Spectra: 1
Spectrometers: MAYP113682
Integration Time (usec): 3000000 (MAYP113682)
Spectra Averaged: 1 (MAYP113682)
Boxcar Smoothing: 0 (MAYP113682)
Correct for Electrical Dark: No (MAYP113682)
Strobe/Lamp Enabled: No (MAYP113682)
Correct for Detector Non-linearity: No (MAYP113682)
Correct for Stray Light: No (MAYP113682)
Number of Pixels in Processed Spectrum: 2068
>>>>>Begin Processed Spectral Data<<<<<
-37534,58	4,00
-37414,56	-2,00
-37295,11	-1,00
-37176,24	0,00
-37057,95	182,00
-36940,22	205,00
-36823,05	206,00
-36706,45	310,00
-36590,40	216,00
-36474,90	189,00
-36359,95	243,00
-36245,55	275,00
-36131,68	171,00
-36018,35	235,00
-35905,55	278,00
-35793,29	306,00
-35681,54	380,00
-35570,32	237,00
-35459,62	278,00
-35349,43	353,00
-35239,75	220,00
-35130,58	249,00
-35021,91	251,00
-34913,74	286,00
-34806,07	205,00
-34698,89	148,00
-34592,20	280,00
-34486,00	220,00
-34380,28	202,00
-34275,04	311,00
-34170,27	341,00
-34065,98	289,00
-33962,16	338,00
-33858,81	218,00
-33755,92	276,00
-33653,49	269,00
-33551,52	236,00
-33450,01	345,00
-33348,94	325,00
-33248,33	251,00
-33148,16	224,00
-33048,43	399,00
-32949,14	190,00
-32850,29	323,00
-32751,87	302,00
-32653,89	235,00
-32556,33	362,00
-32459,20	389,00
-32362,49	309,00
-32266,19	249,00
-32170,32	367,00
-32074,86	419,00
-31979,82	273,00
-31885,18	376,00
-31790,95	389,00
-31697,12	270,00
-31603,69	277,00
-31510,67	309,00
-31418,04	286,00
-31325,80	230,00
-31233,95	298,00
-31142,49	305,00
-31051,42	194,00
-30960,73	312,00
-30870,43	237,00
-30780,50	306,00
-30690,95	151,00
-30601,77	296,00
-30512,97	178,00
-30424,53	316,00
-30336,46	313,00
-30248,76	162,00
-30161,42	414,00
-30074,44	283,00
-29987,81	191,00
-29901,55	92,00
-29815,63	354,00
-29730,07	326,00
-29644,86	139,00
-29560,00	157,00
-29475,48	356,00
-29391,30	204,00
-29307,47	239,00
-29223,97	308,00
-29140,81	256,00
-29057,99	278,00
-28975,50	287,00
-28893,34	331,00
-28811,51	230,00
-28730,00	367,00
-28648,82	299,00
-28567,97	446,00
-28487,43	206,00
-28407,21	332,00
-28327,32	290,00
-28247,73	262,00
-28168,46	284,00
-28089,50	253,00
-28010,85	211,00
-27932,51	292,00
-27854,48	263,00
-27776,75	203,00
-27699,32	205,00
-27622,19	311,00
-27545,37	229,00
-27468,84	305,00
-27392,60	227,00
-27316,66	383,00
-27241,01	326,00
-27165,66	387,00
-27090,59	241,00
-27015,81	345,00
-26941,31	173,00
-26867,10	263,00
-26793,17	397,00
-26719,52	201,00
-26646,15	395,00
-26573,06	366,00
-26500,24	301,00
-26427,70	200,00
-26355,43	273,00
-26283,43	411,00
-26211,71	309,00
-26140,25	306,00
-26069,06	338,00
-25998,13	295,00
-25927,46	242,00
-25857,06	302,00
-25786,92	355,00
-25717,04	237,00
-25647,42	152,00
-25578,05	418,00
-25508,94	505,00
-25440,09	280,00
-25371,48	350,00
-25303,13	264,00
-25235,02	335,00
-25167,17	462,00
-25099,56	299,00
-25032,19	310,00
-24965,07	137,00
-24898,20	215,00
-24831,56	405,00
-24765,17	272,00
-24699,01	371,00
-24633,10	293,00
-24567,41	317,00
-24501,97	369,00
-24436,75	323,00
-24371,77	277,00
-24307,03	286,00
-24242,51	289,00
-24178,22	370,00
-24114,16	362,00
-24050,32	237,00
-23986,71	275,00
-23923,32	320,00
-23860,16	348,00
-23797,22	298,00
-23734,50	354,00
-23672,00	248,00
-23609,71	281,00
-23547,65	378,00
-23485,80	305,00
-23424,16	272,00
-23362,74	346,00
-23301,53	289,00
-23240,54	291,00
-23179,75	289,00
-23119,17	310,00
-23058,80	235,00
-22998,64	204,00
-22938,68	261,00
-22878,93	229,00
-22819,39	313,00
-22760,04	363,00
-22700,90	271,00
-22641,96	272,00
-22583,22	341,00
-22524,68	263,00
-22466,33	155,00
-22408,19	239,00
-22350,23	241,00
-22292,48	303,00
-22234,92	316,00
-22177,55	313,00
-22120,37	364,00
-22063,38	225,00
-22006,58	301,00
-21949,98	245,00
-21893,56	363,00
-21837,33	235,00
-21781,28	396,00
-21725,42	205,00
-21669,74	273,00
-21614,25	354,00
-21558,94	182,00
-21503,81	271,00
-21448,86	499,00
-21394,10	346,00
-21339,51	313,00
-21285,10	191,00
-21230,86	115,00
-21176,81	262,00
-21122,93	192,00
-21069,22	272,00
-21015,69	227,00
-20962,33	363,00
-20909,14	348,00
-20856,13	242,00
-20803,28	317,00
-20750,61	252,00
-20698,10	230,00
-20645,76	303,00
-20593,59	163,00
-20541,59	360,00
-20489,75	204,00
-20438,07	156,00
-20386,56	260,00
-20335,22	277,00
-20284,03	302,00
-20233,01	235,00
-20182,15	337,00
-20131,45	280,00
-20080,91	272,00
-20030,52	295,00
-19980,30	235,00
-19930,23	251,00
-19880,32	230,00
-19830,56	296,00
-19780,96	308,00
-19731,52	294,00
-19682,23	333,00
-19633,09	323,00
-19584,10	359,00
-19535,26	318,00
-19486,58	312,00
-19438,04	354,00
-19389,66	402,00
-19341,42	314,00
-19293,33	366,00
-19245,39	372,00
-19197,60	227,00
-19149,95	283,00
-19102,45	299,00
-19055,09	257,00
-19007,87	322,00
-18960,80	366,00
-18913,87	294,00
-18867,09	144,00
-18820,44	452,00
-18773,94	333,00
-18727,57	230,00
-18681,35	195,00
-18635,26	255,00
-18589,31	336,00
-18543,50	370,00
-18497,83	307,00
-18452,29	118,00
-18406,89	152,00
-18361,63	298,00
-18316,50	194,00
-18271,50	328,00
-18226,63	227,00
-18181,90	313,00
-18137,30	226,00
-18092,84	280,00
-18048,50	162,00
-18004,29	304,00
-17960,22	353,00
-17916,27	305,00
-17872,45	307,00
-17828,76	173,00
-17785,20	321,00
-17741,77	306,00
-17698,46	287,00
-17655,28	210,00
-17612,22	233,00
-17569,29	316,00
-17526,48	296,00
-17483,79	244,00
-17441,23	226,00
-17398,79	247,00
-17356,48	256,00
-17314,28	402,00
-17272,21	189,00
-17230,26	235,00
-17188,42	382,00
-17146,71	298,00
-17105,12	300,00
-17063,64	311,00
-17022,28	206,00
-16981,04	294,00
-16939,92	340,00
-16898,91	247,00
-16858,02	181,00
-16817,25	395,00
-16776,59	199,00
-16736,04	360,00
-16695,61	301,00
-16655,29	308,00
-16615,09	290,00
-16574,99	229,00
-16535,01	400,00
-16495,15	281,00
-16455,39	299,00
-16415,74	149,00
-16376,21	362,00
-16336,78	293,00
-16297,46	271,00
-16258,26	225,00
-16219,16	175,00
-16180,17	278,00
-16141,28	219,00
-16102,51	325,00
-16063,84	255,00
-16025,27	228,00
-15986,82	277,00
-15948,46	327,00
-15910,22	182,00
-15872,07	275,00
-15834,04	324,00
-15796,10	185,00
-15758,27	431,00
-15720,54	306,00
-15682,91	264,00
-15645,39	267,00
-15607,97	218,00
-15570,64	210,00
-15533,42	297,00
-15496,30	248,00
-15459,28	259,00
-15422,36	215,00
-15385,54	178,00
-15348,82	334,00
-15312,19	265,00
-15275,66	217,00
-15239,23	303,00
-15202,90	401,00
-15166,67	396,00
-15130,53	372,00
-15094,48	223,00
-15058,54	256,00
-15022,68	275,00
-14986,93	222,00
-14951,26	264,00
-14915,69	428,00
-14880,22	248,00
-14844,84	274,00
-14809,55	326,00
-14774,35	215,00
-14739,25	238,00
-14704,24	308,00
-14669,32	297,00
-14634,49	253,00
-14599,75	321,00
-14565,10	260,00
-14530,55	326,00
-14496,08	204,00
-14461,70	238,00
-14427,41	266,00
-14393,21	212,00
-14359,10	270,00
-14325,07	327,00
-14291,14	367,00
-14257,29	146,00
-14223,52	294,00
-14189,85	343,00
-14156,26	305,00
-14122,76	328,00
-14089,34	314,00
-14056,01	299,00
-14022,76	344,00
-13989,60	231,00
-13956,52	295,00
-13923,53	358,00
-13890,62	238,00
-13857,79	311,00
-13825,05	382,00
-13792,39	218,00
-13759,81	203,00
-13727,31	192,00
-13694,90	284,00
-13662,57	249,00
-13630,31	393,00
-13598,14	224,00
-13566,05	245,00
-13534,05	228,00
-13502,12	390,00
-13470,27	266,00
-13438,50	271,00
-13406,80	169,00
-13375,19	312,00
-13343,66	185,00
-13312,20	302,00
-13280,83	340,00
-13249,53	298,00
-13218,30	229,00
-13187,16	154,00
-13156,09	247,00
-13125,10	452,00
-13094,18	312,00
-13063,34	389,00
-13032,58	226,00
-13001,89	376,00
-12971,28	303,00
-12940,74	292,00
-12910,27	254,00
-12879,88	123,00
-12849,57	456,00
-12819,33	445,00
-12789,16	226,00
-12759,06	240,00
-12729,04	255,00
-12699,09	2185,00
-12669,21	296,00
-12639,41	205,00
-12609,68	330,00
-12580,02	391,00
-12550,43	258,00
-12520,91	253,00
-12491,46	271,00
-12462,08	252,00
-12432,77	261,00
-12403,54	368,00
-12374,37	334,00
-12345,27	266,00
-12316,24	254,00
-12287,29	314,00
-12258,40	339,00
-12229,57	196,00
-12200,82	297,00
-12172,14	294,00
-12143,52	209,00
-12114,97	263,00
-12086,49	428,00
-12058,07	339,00
-12029,73	314,00
-12001,44	276,00
-11973,23	402,00
-11945,08	448,00
-11917,00	272,00
-11888,98	270,00
-11861,03	301,00
-11833,15	417,00
-11805,32	396,00
-11777,57	266,00
-11749,88	221,00
-11722,25	269,00
-11694,69	320,00
-11667,19	187,00
-11639,75	294,00
-11612,38	298,00
-11585,07	342,00
-11557,83	267,00
-11530,65	191,00
-11503,53	195,00
-11476,47	110,00
-11449,48	318,00
-11422,54	395,00
-11395,67	232,00
-11368,86	225,00
-11342,11	240,00
-11315,43	326,00
-11288,80	282,00
-11262,23	349,00
-11235,73	215,00
-11209,28	306,00
-11182,90	335,00
-11156,57	460,00
-11130,31	361,00
-11104,10	135,00
-11077,96	345,00
-11051,87	295,00
-11025,84	279,00
-10999,87	212,00
-10973,96	320,00
-10948,11	330,00
-10922,31	415,00
-10896,58	329,00
-10870,90	485,00
-10845,28	274,00
-10819,71	433,00
-10794,20	400,00
-10768,75	373,00
-10743,36	402,00
-10718,02	419,00
-10692,74	351,00
-10667,52	519,00
-10642,35	344,00
-10617,24	406,00
-10592,18	331,00
-10567,18	356,00
-10542,23	476,00
-10517,34	544,00
-10492,51	533,00
-10467,72	411,00
-10443,00	458,00
-10418,32	578,00
-10393,70	488,00
-10369,14	530,00
-10344,63	577,00
-10320,17	570,00
-10295,77	635,00
-10271,42	557,00
-10247,12	724,00
-10222,88	637,00
-10198,68	649,00
-10174,54	862,00
-10150,46	781,00
-10126,42	887,00
-10102,44	834,00
-10078,51	1089,00
-10054,63	1069,00
-10030,80	998,00
-10007,03	1002,00
-9983,30	1077,00
-9959,63	1203,00
-9936,01	1308,00
-9912,44	1168,00
-9888,92	1150,00
-9865,44	1424,00
-9842,02	1372,00
-9818,65	1481,00
-9795,33	1450,00
-9772,06	1385,00
-9748,84	1562,00
-9725,67	1767,00
-9702,55	1934,00
-9679,47	2278,00
-9656,45	2490,00
-9633,47	2499,00
-9610,55	2611,00
-9587,67	2705,00
-9564,84	2802,00
-9542,06	3331,00
-9519,32	3308,00
-9496,64	3767,00
-9474,00	3950,00
-9451,41	4140,00
-9428,87	3958,00
-9406,37	3851,00
-9383,92	3509,00
-9361,52	3517,00
-9339,17	3577,00
-9316,86	3885,00
-9294,60	4516,00
-9272,38	4786,00
-9250,21	5221,00
-9228,09	5277,00
-9206,01	5120,00
-9183,98	4456,00
-9162,00	3947,00
-9140,06	3845,00
-9118,16	3587,00
-9096,31	3884,00
-9074,51	3953,00
-9052,75	3938,00
-9031,04	3707,00
-9009,37	3453,00
-8987,74	2936,00
-8966,16	2860,00
-8944,63	2395,00
-8923,14	2353,00
-8901,69	2551,00
-8880,29	2863,00
-8858,93	3283,00
-8837,61	3335,00
-8816,34	3604,00
-8795,11	3553,00
-8773,92	3152,00
-8752,78	3047,00
-8731,68	2678,00
-8710,62	2787,00
-8689,61	3048,00
-8668,63	3296,00
-8647,70	3594,00
-8626,82	3520,00
-8605,97	3292,00
-8585,17	3042,00
-8564,41	2848,00
-8543,69	2507,00
-8523,01	2634,00
-8502,37	2539,00
-8481,78	2760,00
-8461,23	2714,00
-8440,71	3038,00
-8420,24	3107,00
-8399,81	3198,00
-8379,42	3281,00
-8359,08	2831,00
-8338,77	2644,00
-8318,50	2537,00
-8298,27	2457,00
-8278,09	2628,00
-8257,94	2632,00
-8237,83	2967,00
-8217,76	2952,00
-8197,74	3078,00
-8177,75	3079,00
-8157,80	2757,00
-8137,89	2510,00
-8118,02	2402,00
-8098,19	2429,00
-8078,40	2609,00
-8058,65	2667,00
-8038,93	2773,00
-8019,26	2702,00
-7999,62	2696,00
-7980,02	2469,00
-7960,46	2328,00
-7940,94	2395,00
-7921,46	2302,00
-7902,01	2224,00
-7882,60	2332,00
-7863,23	2310,00
-7843,90	2361,00
-7824,61	2561,00
-7805,35	2620,00
-7786,13	2745,00
-7766,95	2755,00
-7747,80	2553,00
-7728,69	2576,00
-7709,62	2516,00
-7690,59	2600,00
-7671,59	2834,00
-7652,63	2730,00
-7633,70	2734,00
-7614,81	2786,00
-7595,96	2554,00
-7577,15	2330,00
-7558,37	2107,00
-7539,62	2440,00
-7520,91	2632,00
-7502,24	2862,00
-7483,60	2722,00
-7465,00	2639,00
-7446,44	2304,00
-7427,91	2054,00
-7409,41	1914,00
-7390,95	1776,00
-7372,53	1786,00
-7354,14	1715,00
-7335,78	1860,00
-7317,46	1923,00
-7299,18	2184,00
-7280,92	2379,00
-7262,71	2689,00
-7244,52	2791,00
-7226,38	2763,00
-7208,26	2589,00
-7190,18	2525,00
-7172,14	2400,00
-7154,12	2426,00
-7136,15	2391,00
-7118,20	2448,00
-7100,29	2711,00
-7082,41	2727,00
-7064,57	2562,00
-7046,76	2341,00
-7028,98	2108,00
-7011,24	1772,00
-6993,53	1726,00
-6975,85	1335,00
-6958,20	1387,00
-6940,59	1258,00
-6923,01	1389,00
-6905,46	1745,00
-6887,94	1922,00
-6870,46	2443,00
-6853,01	2595,00
-6835,59	2467,00
-6818,21	2242,00
-6800,85	2034,00
-6783,53	1499,00
-6766,24	1260,00
-6748,98	1154,00
-6731,76	1147,00
-6714,56	1161,00
-6697,40	1003,00
-6680,26	1217,00
-6663,16	1408,00
-6646,09	1630,00
-6629,05	1879,00
-6612,05	2012,00
-6595,07	1966,00
-6578,13	1833,00
-6561,21	1562,00
-6544,33	1131,00
-6527,47	999,00
-6510,65	967,00
-6493,86	945,00
-6477,10	995,00
-6460,36	1114,00
-6443,66	845,00
-6426,99	959,00
-6410,35	1006,00
-6393,74	1189,00
-6377,16	1288,00
-6360,61	1369,00
-6344,09	1456,00
-6327,59	1482,00
-6311,13	1539,00
-6294,70	1579,00
-6278,29	1565,00
-6261,92	1688,00
-6245,58	1788,00
-6229,26	1870,00
-6212,97	1483,00
-6196,72	1442,00
-6180,49	1204,00
-6164,29	710,00
-6148,12	598,00
-6131,98	631,00
-6115,86	598,00
-6099,78	567,00
-6083,72	619,00
-6067,69	667,00
-6051,69	507,00
-6035,72	614,00
-6019,78	779,00
-6003,87	1104,00
-5987,98	1261,00
-5972,12	1401,00
-5956,29	1467,00
-5940,49	1240,00
-5924,71	1102,00
-5908,96	1010,00
-5893,24	804,00
-5877,55	822,00
-5861,89	815,00
-5846,25	747,00
-5830,64	866,00
-5815,05	740,00
-5799,50	805,00
-5783,97	894,00
-5768,47	1013,00
-5752,99	1222,00
-5737,55	1299,00
-5722,12	1336,00
-5706,73	1327,00
-5691,36	1128,00
-5676,02	801,00
-5660,71	715,00
-5645,42	769,00
-5630,16	811,00
-5614,92	939,00
-5599,71	930,00
-5584,53	1177,00
-5569,37	1111,00
-5554,24	2094,00
-5539,14	1008,00
-5524,06	831,00
-5509,01	924,00
-5493,98	1042,00
-5478,98	966,00
-5464,00	1017,00
-5449,05	825,00
-5434,13	819,00
-5419,23	746,00
-5404,36	858,00
-5389,51	1097,00
-5374,69	1265,00
-5359,89	1517,00
-5345,12	1598,00
-5330,37	1480,00
-5315,65	1246,00
-5300,95	837,00
-5286,28	765,00
-5271,63	957,00
-5257,01	1014,00
-5242,41	1052,00
-5227,84	898,00
-5213,29	810,00
-5198,76	557,00
-5184,26	570,00
-5169,79	612,00
-5155,33	898,00
-5140,91	1059,00
-5126,51	1059,00
-5112,13	975,00
-5097,77	1051,00
-5083,44	788,00
-5069,13	698,00
-5054,85	634,00
-5040,59	803,00
-5026,36	982,00
-5012,15	948,00
-4997,96	1052,00
-4983,80	785,00
-4969,66	660,00
-4955,54	670,00
-4941,44	821,00
-4927,37	1185,00
-4913,33	1591,00
-4899,30	1483,00
-4885,30	1420,00
-4871,33	1068,00
-4857,37	758,00
-4843,44	588,00
-4829,53	701,00
-4815,65	632,00
-4801,79	761,00
-4787,95	822,00
-4774,13	639,00
-4760,34	449,00
-4746,56	554,00
-4732,82	491,00
-4719,09	691,00
-4705,38	1122,00
-4691,70	1342,00
-4678,04	1318,00
-4664,41	1126,00
-4650,79	692,00
-4637,20	542,00
-4623,63	705,00
-4610,08	808,00
-4596,56	1034,00
-4583,05	967,00
-4569,57	884,00
-4556,11	600,00
-4542,67	547,00
-4529,25	625,00
-4515,86	891,00
-4502,49	1233,00
-4489,13	1227,00
-4475,80	1176,00
-4462,49	737,00
-4449,21	620,00
-4435,94	616,00
-4422,70	711,00
-4409,47	765,00
-4396,27	894,00
-4383,09	702,00
-4369,93	543,00
-4356,79	463,00
-4343,67	476,00
-4330,58	527,00
-4317,50	704,00
-4304,45	659,00
-4291,41	666,00
-4278,40	427,00
-4265,41	481,00
-4252,44	532,00
-4239,49	704,00
-4226,55	649,00
-4213,65	633,00
-4200,76	440,00
-4187,89	385,00
-4175,04	336,00
-4162,21	343,00
-4149,40	393,00
-4136,61	403,00
-4123,85	467,00
-4111,10	395,00
-4098,37	451,00
-4085,66	297,00
-4072,98	363,00
-4060,31	273,00
-4047,66	426,00
-4035,04	707,00
-4022,43	339,00
-4009,84	439,00
-3997,27	345,00
-3984,72	283,00
-3972,19	260,00
-3959,69	320,00
-3947,20	318,00
-3934,73	241,00
-3922,27	401,00
-3909,84	308,00
-3897,43	305,00
-3885,04	332,00
-3872,67	320,00
-3860,31	399,00
-3847,98	347,00
-3835,66	311,00
-3823,36	256,00
-3811,09	349,00
-3798,83	255,00
-3786,59	350,00
-3774,37	356,00
-3762,17	277,00
-3749,98	450,00
-3737,82	328,00
-3725,67	388,00
-3713,55	296,00
-3701,44	283,00
-3689,35	283,00
-3677,28	249,00
-3665,22	278,00
-3653,19	310,00
-3641,17	169,00
-3629,18	359,00
-3617,20	273,00
-3605,24	275,00
-3593,30	246,00
-3581,37	264,00
-3569,47	270,00
-3557,58	300,00
-3545,71	295,00
-3533,86	143,00
-3522,02	305,00
-3510,21	449,00
-3498,41	253,00
-3486,63	194,00
-3474,87	251,00
-3463,12	225,00
-3451,40	284,00
-3439,69	270,00
-3428,00	366,00
-3416,33	346,00
-3404,67	296,00
-3393,03	297,00
-3381,41	275,00
-3369,81	252,00
-3358,22	344,00
-3346,66	371,00
-3335,10	257,00
-3323,57	121,00
-3312,06	299,00
-3300,56	260,00
-3289,08	275,00
-3277,61	237,00
-3266,16	432,00
-3254,73	253,00
-3243,32	318,00
-3231,92	243,00
-3220,55	224,00
-3209,18	302,00
-3197,84	376,00
-3186,51	397,00
-3175,20	363,00
-3163,90	329,00
-3152,63	169,00
-3141,36	353,00
-3130,12	342,00
-3118,89	370,00
-3107,68	173,00
-3096,49	363,00
-3085,31	177,00
-3074,15	346,00
-3063,00	203,00
-3051,87	349,00
-3040,76	147,00
-3029,67	303,00
-3018,59	348,00
-3007,52	232,00
-2996,48	497,00
-2985,44	149,00
-2974,43	377,00
-2963,43	260,00
-2952,45	265,00
-2941,48	267,00
-2930,53	296,00
-2919,60	294,00
-2908,68	245,00
-2897,78	296,00
-2886,89	227,00
-2876,02	382,00
-2865,17	305,00
-2854,33	204,00
-2843,50	321,00
-2832,70	124,00
-2821,90	244,00
-2811,13	297,00
-2800,37	333,00
-2789,62	181,00
-2778,89	292,00
-2768,18	362,00
-2757,48	300,00
-2746,80	105,00
-2736,13	205,00
-2725,48	331,00
-2714,84	306,00
-2704,22	287,00
-2693,61	236,00
-2683,02	260,00
-2672,45	365,00
-2661,89	214,00
-2651,34	308,00
-2640,81	272,00
-2630,30	327,00
-2619,80	267,00
-2609,31	273,00
-2598,84	165,00
-2588,39	248,00
-2577,95	244,00
-2567,52	252,00
-2557,11	252,00
-2546,71	263,00
-2536,33	514,00
-2525,97	312,00
-2515,62	232,00
-2505,28	259,00
-2494,96	315,00
-2484,65	316,00
-2474,36	538,00
-2464,08	347,00
-2453,82	347,00
-2443,57	236,00
-2433,33	275,00
-2423,11	253,00
-2412,91	376,00
-2402,72	206,00
-2392,54	167,00
-2382,38	328,00
-2372,23	173,00
-2362,09	370,00
-2351,97	385,00
-2341,87	409,00
-2331,78	253,00
-2321,70	301,00
-2311,64	279,00
-2301,59	332,00
-2291,55	259,00
-2281,53	445,00
-2271,53	308,00
-2261,53	331,00
-2251,55	237,00
-2241,59	237,00
-2231,64	296,00
-2221,70	183,00
-2211,78	309,00
-2201,87	393,00
-2191,97	423,00
-2182,09	256,00
-2172,22	334,00
-2162,37	311,00
-2152,53	283,00
-2142,70	332,00
-2132,89	289,00
-2123,09	287,00
-2113,30	239,00
-2103,53	255,00
-2093,77	311,00
-2084,02	203,00
-2074,29	231,00
-2064,57	254,00
-2054,86	294,00
-2045,17	410,00
-2035,49	355,00
-2025,82	287,00
-2016,17	286,00
-2006,53	330,00
-1996,91	413,00
-1987,29	356,00
-1977,69	305,00
-1968,11	274,00
-1958,53	186,00
-1948,97	295,00
-1939,42	280,00
-1929,89	315,00
-1920,37	276,00
-1910,86	417,00
-1901,36	213,00
-1891,88	217,00
-1882,41	327,00
-1872,95	205,00
-1863,51	184,00
-1854,08	263,00
-1844,66	368,00
-1835,26	318,00
-1825,86	389,00
-1816,48	372,00
-1807,11	330,00
-1797,76	352,00
-1788,42	337,00
-1779,09	373,00
-1769,77	271,00
-1760,47	297,00
-1751,17	183,00
-1741,89	324,00
-1732,63	335,00
-1723,37	272,00
-1714,13	311,00
-1704,90	278,00
-1695,68	261,00
-1686,48	290,00
-1677,29	324,00
-1668,11	327,00
-1658,94	281,00
-1649,78	280,00
-1640,64	399,00
-1631,51	341,00
-1622,39	300,00
-1613,28	381,00
-1604,19	295,00
-1595,10	321,00
-1586,03	308,00
-1576,97	258,00
-1567,93	158,00
-1558,89	368,00
-1549,87	388,00
-1540,86	398,00
-1531,86	245,00
-1522,87	262,00
-1513,90	379,00
-1504,93	325,00
-1495,98	287,00
-1487,04	316,00
-1478,12	320,00
-1469,20	261,00
-1460,30	352,00
-1451,40	528,00
-1442,52	279,00
-1433,65	264,00
-1424,80	225,00
-1415,95	229,00
-1407,12	302,00
-1398,30	319,00
-1389,48	259,00
-1380,69	296,00
-1371,90	284,00
-1363,12	251,00
-1354,36	295,00
-1345,60	348,00
-1336,86	419,00
-1328,13	416,00
-1319,41	183,00
-1310,70	240,00
-1302,01	329,00
-1293,32	279,00
-1284,65	225,00
-1275,99	317,00
-1267,33	267,00
-1258,69	121,00
-1250,06	323,00
-1241,45	162,00
-1232,84	492,00
-1224,25	333,00
-1215,66	344,00
-1207,09	234,00
-1198,53	333,00
-1189,97	422,00
-1181,43	237,00
-1172,91	147,00
-1164,39	373,00
-1155,88	302,00
-1147,38	237,00
-1138,90	283,00
-1130,43	306,00
-1121,96	328,00
-1113,51	265,00
-1105,07	269,00
-1096,64	376,00
-1088,22	337,00
-1079,81	364,00
-1071,41	304,00
-1063,02	263,00
-1054,65	407,00
-1046,28	260,00
-1037,92	359,00
-1029,58	332,00
-1021,24	289,00
-1012,92	412,00
-1004,61	307,00
-996,30	341,00
-988,01	250,00
-979,73	325,00
-971,46	315,00
-963,20	226,00
-954,95	376,00
-946,71	290,00
-938,48	418,00
-930,26	346,00
-922,06	298,00
-913,86	253,00
-905,67	308,00
-897,49	293,00
-889,33	226,00
-881,17	431,00
-873,02	349,00
-864,89	275,00
-856,76	359,00
-848,65	192,00
-840,54	314,00
-832,45	322,00
-824,36	123,00
-816,29	307,00
-808,22	259,00
-800,17	261,00
-792,12	237,00
-784,09	441,00
-776,06	290,00
-768,05	387,00
-760,04	321,00
-752,05	232,00
-744,07	463,00
-736,09	447,00
-728,13	317,00
-720,17	265,00
-712,23	372,00
-704,29	376,00
-696,37	208,00
-688,45	301,00
-680,55	331,00
-672,65	259,00
-664,77	388,00
-656,89	247,00
-649,03	267,00
-641,17	365,00
-633,32	386,00
-625,49	349,00
-617,66	284,00
-609,84	321,00
-602,03	176,00
-594,23	399,00
-586,45	170,00
-578,67	352,00
-570,90	362,00
-563,14	228,00
-555,39	273,00
-547,65	244,00
-539,91	330,00
-532,19	265,00
-524,48	325,00
-516,78	315,00
-509,08	337,00
-501,40	266,00
-493,72	251,00
-486,06	253,00
-478,40	314,00
-470,76	319,00
-463,12	403,00
-455,49	287,00
-447,87	233,00
-440,26	418,00
-432,66	202,00
-425,07	131,00
-417,49	333,00
-409,92	211,00
-402,35	408,00
-394,80	255,00
-387,25	400,00
-379,72	353,00
-372,19	250,00
-364,67	422,00
-357,17	282,00
-349,67	362,00
-342,18	185,00
-334,69	268,00
-327,22	351,00
-319,76	190,00
-312,30	416,00
-304,86	288,00
-297,42	315,00
-290,00	425,00
-282,58	276,00
-275,17	355,00
-267,77	387,00
-260,37	345,00
-252,99	439,00
-245,62	378,00
-238,25	424,00
-230,90	355,00
-223,55	382,00
-216,21	366,00
-208,88	494,00
-201,56	433,00
-194,25	451,00
-186,94	621,00
-179,65	598,00
-172,36	579,00
-165,08	590,00
-157,81	535,00
-150,55	804,00
-143,30	676,00
-136,06	787,00
-128,82	737,00
-121,60	800,00
-114,38	939,00
-107,17	1068,00
-99,97	1096,00
-92,78	1115,00
-85,60	1448,00
-78,42	1477,00
-71,25	1683,00
-64,10	1941,00
-56,95	2253,00
-49,81	2565,00
-42,67	3210,00
-35,55	4036,00
-28,43	5219,00
-21,33	9008,00
-14,23	30726,00
-7,14	54802,00
-0,05	54494,00
7,02	54069,00
14,09	54443,00
21,14	22938,00
28,19	9811,00
35,23	6393,00
42,27	4779,00
49,29	4078,00
56,31	3376,00
63,32	2717,00
70,32	2445,00
77,31	2200,00
84,29	1671,00
91,27	1643,00
98,23	1511,00
105,19	1390,00
112,14	1396,00
119,09	2006,00
126,02	2596,00
132,95	2839,00
139,87	2877,00
146,78	2624,00
153,68	2532,00
160,58	2468,00
167,46	2612,00
174,34	2517,00
181,21	2510,00
188,08	2350,00
194,93	2426,00
201,78	2407,00
208,62	2433,00
215,45	2382,00
222,27	2332,00
229,09	2353,00
235,90	2293,00
242,70	2232,00
249,49	2365,00
256,27	2234,00
263,05	2118,00
269,82	2175,00
276,58	2274,00
283,33	2248,00
290,08	2244,00
296,82	2218,00
303,55	2007,00
310,27	1989,00
316,98	2061,00
323,69	1935,00
330,39	2092,00
337,08	2112,00
343,76	2031,00
350,44	2068,00
357,11	2181,00
363,77	1936,00
370,42	1947,00
377,07	1905,00
383,71	1982,00
390,34	1923,00
396,96	1992,00
403,58	1973,00
410,19	1925,00
416,79	2090,00
423,38	2002,00
429,97	1947,00
436,55	1771,00
443,12	1916,00
449,68	1563,00
456,24	1655,00
462,79	1764,00
469,33	1801,00
475,86	1746,00
482,39	1845,00
488,91	1781,00
495,42	1719,00
501,93	1667,00
508,42	1718,00
514,91	1612,00
521,40	1662,00
527,87	1648,00
534,34	1531,00
540,80	1550,00
547,25	1671,00
553,70	1630,00
560,14	1478,00
566,57	1534,00
573,00	1566,00
579,41	1660,00
585,83	1508,00
592,23	1547,00
598,62	1576,00
605,01	1472,00
611,40	1497,00
617,77	1505,00
624,14	1503,00
630,50	1403,00
636,85	1382,00
643,20	1490,00
649,54	1408,00
655,87	1495,00
662,20	1532,00
668,52	1479,00
674,83	1491,00
681,13	1454,00
687,43	1322,00
693,72	1431,00
700,00	1380,00
706,28	1453,00
712,55	1405,00
718,81	1302,00
725,07	1472,00
731,32	1326,00
737,56	1508,00
743,79	1512,00
750,02	1416,00
756,24	1430,00
762,46	1251,00
768,67	1538,00
774,87	1336,00
781,06	1392,00
787,25	1386,00
793,43	1376,00
799,60	1196,00
805,77	1402,00
811,93	1345,00
818,08	1321,00
824,23	1130,00
830,37	1369,00
836,50	1326,00
842,63	1427,00
848,75	1258,00
854,87	1393,00
860,97	1358,00
867,07	1305,00
873,17	1344,00
879,25	1323,00
885,33	1326,00
891,41	1355,00
897,47	1416,00
903,53	1303,00
909,59	1327,00
915,63	1324,00
921,67	1318,00
927,71	1308,00
933,74	1320,00
939,76	1293,00
945,77	1114,00
951,78	1220,00
957,78	1233,00
963,78	1069,00
969,77	1132,00
975,75	1082,00
981,72	1208,00
987,69	1573,00
993,66	1289,00
999,61	1191,00
1005,56	1311,00
1011,51	1142,00
1017,44	1147,00
1023,37	1098,00
1029,30	1279,00
1035,22	1308,00
1041,13	1176,00
1047,03	1267,00
1052,93	1290,00
1058,83	1458,00
1064,71	1540,00
1070,59	1416,00
1076,47	1276,00
1082,33	1227,00
1088,20	1183,00
1094,05	1278,00
1099,90	1207,00
1105,74	1145,00
1111,58	1122,00
1117,41	1137,00
1123,23	1399,00
1129,05	1451,00
1134,86	1436,00
1140,67	1320,00
1146,47	1268,00
1152,26	1173,00
1158,05	1024,00
1163,83	1089,00
1169,60	1186,00
1175,37	1192,00
1181,13	1069,00
1186,89	1049,00
1192,64	1154,00
1198,38	1104,00
1204,12	1036,00
1209,85	1039,00
1215,58	1119,00
1221,30	1024,00
1227,02	1029,00
1232,72	1064,00
1238,43	1144,00
1244,12	1157,00
1249,81	1124,00
1255,50	1060,00
1261,17	1145,00
1266,85	1099,00
1272,51	1184,00
1278,17	1166,00
1283,83	1212,00
1289,47	1423,00
1295,12	1757,00
1300,75	1672,00
1306,38	1432,00
1312,01	1319,00
1317,63	1279,00
1323,24	1212,00
1328,85	1273,00
1334,45	1334,00
1340,04	1124,00
1345,63	1246,00
1351,22	1293,00
1356,80	1192,00
1362,37	1236,00
1367,93	1163,00
1373,49	1265,00
1379,05	1197,00
1384,60	1240,00
1390,14	1232,00
1395,68	1149,00
1401,21	1213,00
1406,74	1248,00
1412,26	1305,00
1417,77	1387,00
1423,28	1473,00
1428,78	1409,00
1434,28	1640,00
1439,77	1871,00
1445,26	1855,00
1450,74	1671,00
1456,22	1751,00
1461,68	1584,00
1467,15	1557,00
1472,61	1410,00
1478,06	1315,00
1483,51	1225,00
1488,95	1116,00
1494,38	1136,00
1499,81	1240,00
1505,24	1081,00
1510,65	1074,00
1516,07	1080,00
1521,48	1004,00
1526,88	978,00
1532,27	1034,00
1537,67	992,00
1543,05	971,00
1548,43	1037,00
1553,81	997,00
1559,18	1043,00
1564,54	1124,00
1569,90	1014,00
1575,25	956,00
1580,60	876,00
1585,94	1037,00
1591,28	903,00
1596,61	926,00
1601,93	1065,00
1607,25	1017,00
1612,57	1081,00
1617,88	955,00
1623,18	1051,00
1628,48	925,00
1633,77	1018,00
1639,06	1013,00
1644,34	955,00
1649,62	892,00
1654,89	952,00
1660,16	900,00
1665,42	912,00
1670,67	816,00
1675,92	876,00
1681,17	920,00
1686,41	842,00
1691,64	882,00
1696,87	836,00
1702,10	818,00
1707,32	932,00
1712,53	856,00
1717,74	875,00
1722,94	832,00
1728,14	900,00
1733,33	904,00
1738,52	819,00
1743,70	715,00
1748,88	836,00
1754,05	939,00
1759,22	821,00
1764,38	-809,00
1769,53	828,00
1774,69	813,00
1779,83	846,00
1784,97	786,00
1790,11	743,00
1795,24	789,00
1800,36	659,00
1805,48	810,00
1810,60	752,00
1815,71	748,00
1820,82	678,00
1825,92	783,00
1831,01	688,00
1836,10	844,00
1841,19	645,00
1846,26	737,00
1851,34	801,00
1856,41	648,00
1861,47	730,00
1866,53	830,00
1871,59	736,00
1876,64	835,00
1881,68	762,00
1886,72	788,00
1891,76	680,00
1896,79	682,00
1901,81	744,00
1906,83	795,00
1911,85	600,00
1916,86	627,00
1921,86	730,00
1926,86	704,00
1931,86	703,00
1936,85	590,00
1941,83	782,00
1946,81	651,00
1951,79	718,00
1956,76	713,00
1961,72	685,00
1966,68	485,00
1971,64	554,00
1976,59	734,00
1981,54	558,00
1986,48	569,00
1991,42	606,00
1996,35	599,00
2001,27	528,00
2006,20	631,00
2011,11	651,00
2016,03	556,00
2020,93	647,00
2025,84	703,00
2030,73	675,00
2035,63	515,00
2040,52	538,00
2045,40	688,00
2050,28	644,00
2055,15	403,00
2060,02	546,00
2064,89	476,00
2069,75	576,00
2074,60	643,00
2079,46	574,00
2084,30	557,00
2089,14	548,00
2093,98	590,00
2098,81	671,00
2103,64	605,00
2108,46	558,00
2113,28	608,00
2118,09	629,00
2122,90	655,00
2127,70	598,00
2132,50	583,00
2137,30	636,00
2142,09	548,00
2146,87	532,00
2151,66	573,00
2156,43	504,00
2161,20	455,00
2165,97	555,00
2170,73	566,00
2175,49	633,00
2180,24	493,00
2184,99	439,00
2189,74	620,00
2194,48	627,00
2199,21	600,00
2203,94	450,00
2208,67	658,00
2213,39	487,00
2218,11	514,00
2222,82	490,00
2227,53	518,00
2232,23	585,00
2236,93	534,00
2241,63	567,00
2246,32	557,00
2251,00	588,00
2255,68	483,00
2260,36	526,00
2265,03	563,00
2269,70	524,00
2274,36	588,00
2279,02	504,00
2283,68	546,00
2288,33	400,00
2292,97	432,00
2297,61	526,00
2302,25	502,00
2306,88	515,00
2311,51	481,00
2316,14	463,00
2320,75	443,00
2325,37	449,00
2329,98	609,00
2334,59	513,00
2339,19	451,00
2343,79	401,00
2348,38	485,00
2352,97	587,00
2357,55	462,00
2362,13	580,00
2366,71	546,00
2371,28	559,00
2375,85	486,00
2380,41	486,00
2384,97	513,00
2389,52	513,00
2394,07	503,00
2398,62	506,00
2403,16	592,00
2407,70	382,00
2412,23	505,00
2416,76	496,00
2421,29	433,00
2425,81	467,00
2430,32	407,00
2434,84	422,00
2439,34	448,00
2443,85	538,00
2448,35	512,00
2452,84	244,00
2457,33	610,00
2461,82	360,00
2466,30	376,00
2470,78	360,00
2475,25	368,00
2479,72	482,00
2484,19	495,00
2488,65	384,00
2493,11	478,00
2497,56	526,00
2502,01	459,00
2506,46	385,00
2510,90	306,00
2515,34	397,00
2519,77	372,00
2524,20	445,00
2528,62	284,00
2533,04	359,00
2537,46	401,00
2541,87	420,00
2546,28	477,00
2550,68	372,00
2555,08	267,00
2559,48	366,00
2563,87	494,00
2568,26	367,00
2572,64	320,00
2577,02	442,00
2581,40	386,00
2585,77	439,00
2590,14	334,00
2594,50	417,00
2598,86	502,00
2603,22	446,00
2607,57	414,00
2611,92	360,00
2616,26	308,00
2620,60	348,00
2624,94	411,00
2629,27	425,00
2633,60	418,00
2637,92	432,00
2642,24	511,00
2646,56	354,00
2650,87	347,00
2655,18	458,00
2659,48	459,00
2663,78	531,00
2668,08	425,00
2672,37	576,00
2676,66	350,00
2680,95	359,00
2685,23	475,00
2689,50	514,00
2693,78	439,00
2698,05	511,00
2702,31	473,00
2706,57	317,00
2710,83	507,00
2715,08	569,00
2719,33	575,00
2723,58	501,00
2727,82	521,00
2732,06	534,00
2736,29	434,00
2740,53	512,00
2744,75	421,00
2748,97	620,00
2753,19	478,00
2757,41	376,00
2761,62	568,00
2765,83	565,00
2770,03	450,00
2774,23	470,00
2778,43	408,00
2782,62	488,00
2786,81	566,00
2791,00	557,00
2795,18	629,00
2799,35	442,00
2803,53	592,00
2807,70	490,00
2811,86	489,00
2816,03	511,00
2820,19	627,00
2824,34	603,00
2828,49	538,00
2832,64	786,00
2836,78	793,00
2840,92	868,00
2845,06	1022,00
2849,19	1005,00
2853,32	1120,00
2857,45	1197,00
2861,57	1215,00
2865,69	965,00
2869,80	997,00
2873,91	1055,00
2878,02	1215,00
2882,12	1314,00
2886,22	1277,00
2890,32	1218,00
2894,41	1216,00
2898,50	1044,00
2902,58	1048,00
2906,67	1069,00
2910,74	1060,00
2914,82	1024,00
2918,89	887,00
2922,96	697,00
2927,02	788,00
2931,08	786,00
2935,13	743,00
2939,19	729,00
2943,24	608,00
2947,28	680,00
2951,32	638,00
2955,36	489,00
2959,40	385,00
2963,43	663,00
2967,46	607,00
2971,48	476,00
2975,50	482,00
2979,52	460,00
2983,53	477,00
2987,54	457,00
2991,55	380,00
2995,55	608,00
2999,55	398,00
3003,54	353,00
3007,54	163,00
3011,53	388,00
3015,51	423,00
3019,49	360,00
3023,47	327,00
3027,45	240,00
3031,42	350,00
3035,39	289,00
3039,35	247,00
3043,31	328,00
3047,27	370,00
3051,22	412,00
3055,17	336,00
3059,12	323,00
3063,06	378,00
3067,00	272,00
3070,94	456,00
3074,87	244,00
3078,80	382,00
3082,73	374,00
3086,65	375,00
3090,57	288,00
3094,49	336,00
3098,40	405,00
3102,31	330,00
3106,22	286,00
3110,12	404,00
3114,02	290,00
3117,92	509,00
3121,81	260,00
3125,70	294,00
3129,58	340,00
3133,47	292,00
3137,34	302,00
3141,22	280,00
3145,09	328,00
3148,96	437,00
3152,83	412,00
3156,69	546,00
3160,55	326,00
3164,40	380,00
3168,26	360,00
3172,10	280,00
3175,95	312,00
3179,79	370,00
3183,63	279,00
3187,47	368,00
3191,30	385,00
3195,13	331,00
3198,95	397,00
3202,78	292,00
3206,60	265,00
3210,41	164,00
3214,23	334,00
3218,03	396,00
3221,84	268,00
3225,64	327,00
3229,44	274,00
3233,24	330,00
3237,03	368,00
3240,82	235,00
3244,61	370,00
3248,39	415,00
3252,17	299,00
3255,95	380,00
3259,72	357,00
3263,49	283,00
3267,26	359,00
3271,03	271,00
3274,79	367,00
3278,54	226,00
3282,30	205,00
3286,05	322,00
3289,80	316,00
3293,54	324,00
3297,29	495,00
3301,02	374,00
3304,76	362,00
3308,49	307,00
3312,22	241,00
3315,95	318,00
3319,67	265,00
3323,39	342,00
3327,10	360,00
3330,82	187,00
3334,53	322,00
3338,24	276,00
3341,94	348,00
3345,64	387,00
3349,34	392,00
3353,03	397,00
3356,72	204,00
3360,41	308,00
3364,10	187,00
3367,78	347,00
3371,46	248,00
3375,13	238,00
3378,81	501,00
3382,48	180,00
3386,14	219,00
3389,81	391,00
3393,47	371,00
3397,12	233,00
3400,78	459,00
3404,43	322,00
3408,08	458,00
3411,72	304,00
3415,36	175,00
3419,00	319,00
3422,64	266,00
3426,27	263,00
3429,90	413,00
3433,53	504,00
3437,15	396,00
3440,77	230,00
3444,39	292,00
3448,00	254,00
3451,62	335,00
3455,22	135,00
3458,83	381,00
3462,43	262,00
3466,03	275,00
3469,63	321,00
3473,22	332,00
3476,81	304,00
3480,40	220,00
3483,99	273,00
3487,57	289,00
3491,15	215,00
3494,72	282,00
3498,29	372,00
3501,86	275,00
3505,43	301,00
3508,99	194,00
3512,56	251,00
3516,11	388,00
3519,67	276,00
3523,22	336,00
3526,77	354,00
3530,32	336,00
3533,86	155,00
3537,40	340,00
3540,94	340,00
3544,47	164,00
3548,00	255,00
3551,53	269,00
3555,06	240,00
3558,58	400,00
3562,10	319,00
3565,62	234,00
3569,13	306,00
3572,64	268,00
3576,15	279,00
3579,66	259,00
3583,16	120,00
3586,66	334,00
3590,16	283,00
3593,65	346,00
3597,14	333,00
3600,63	288,00
3604,11	294,00
3607,60	302,00
3611,08	304,00
3614,55	300,00
3618,03	212,00
3621,50	165,00
3624,97	313,00
3628,43	302,00
3631,90	329,00
3635,36	256,00
3638,81	182,00
3642,27	370,00
3645,72	210,00
3649,17	356,00
3652,61	115,00
3656,06	294,00
3659,50	234,00
3662,93	231,00
3666,37	326,00
3669,80	178,00
3673,23	328,00
3676,65	280,00
3680,08	277,00
3683,50	253,00
3686,92	291,00
3690,33	227,00
3693,74	228,00
3697,15	218,00
3700,56	205,00
3703,96	287,00
3707,36	240,00
3710,76	278,00
3714,16	320,00
3717,55	183,00
3720,94	255,00
3724,33	218,00
3727,71	384,00
3731,10	217,00
3734,48	346,00
3737,85	208,00
3741,23	321,00
3744,60	319,00
3747,97	240,00
3751,33	261,00
3754,69	287,00
3758,05	294,00
3761,41	311,00
3764,77	312,00
3768,12	221,00
3771,47	256,00
3774,82	190,00
3778,16	-3,00
3781,50	0,00
3784,84	-10,00
3788,18	6,00
>>>>>End Processed Spectral Data<<<<<
