SpectraSuite Data File
++++++++++++++++++++++++++++++++++++
Date: Tue Mar 03 12:18:10 ICT 2026
User: user
Dark Spectrum Present: Yes
Reference Spectrum Present: No
Number of Sampled Component Spectra: 1
Spectrometers: MAYP113682
Integration Time (usec): 3000000 (MAYP113682)
Spectra Averaged: 1 (MAYP113682)
Boxcar Smoothing: 0 (MAYP113682)
Correct for Electrical Dark: No (MAYP113682)
Strobe/Lamp Enabled: No (MAYP113682)
Correct for Detector Non-linearity: No (MAYP113682)
Correct for Stray Light: No (MAYP113682)
Number of Pixels in Processed Spectrum: 2068
>>>>>Begin Processed Spectral Data<<<<<
-37534,58	4,00
-37414,56	-1,00
-37295,11	-1,00
-37176,24	-4,00
-37057,95	-96,00
-36940,22	27,00
-36823,05	87,00
-36706,45	3,00
-36590,40	140,00
-36474,90	155,00
-36359,95	62,00
-36245,55	168,00
-36131,68	170,00
-36018,35	114,00
-35905,55	48,00
-35793,29	-66,00
-35681,54	10,00
-35570,32	51,00
-35459,62	-2,00
-35349,43	-5,00
-35239,75	118,00
-35130,58	68,00
-35021,91	99,00
-34913,74	4,00
-34806,07	-16,00
-34698,89	14,00
-34592,20	76,00
-34486,00	8,00
-34380,28	-10,00
-34275,04	122,00
-34170,27	-48,00
-34065,98	109,00
-33962,16	22,00
-33858,81	-39,00
-33755,92	87,00
-33653,49	52,00
-33551,52	45,00
-33450,01	93,00
-33348,94	121,00
-33248,33	149,00
-33148,16	-87,00
-33048,43	153,00
-32949,14	138,00
-32850,29	60,00
-32751,87	31,00
-32653,89	-94,00
-32556,33	106,00
-32459,20	36,00
-32362,49	-139,00
-32266,19	16,00
-32170,32	40,00
-32074,86	-5,00
-31979,82	5,00
-31885,18	-8,00
-31790,95	66,00
-31697,12	112,00
-31603,69	186,00
-31510,67	-74,00
-31418,04	132,00
-31325,80	63,00
-31233,95	-58,00
-31142,49	66,00
-31051,42	133,00
-30960,73	-15,00
-30870,43	98,00
-30780,50	-14,00
-30690,95	-22,00
-30601,77	108,00
-30512,97	-14,00
-30424,53	134,00
-30336,46	17,00
-30248,76	132,00
-30161,42	-56,00
-30074,44	160,00
-29987,81	-3,00
-29901,55	118,00
-29815,63	49,00
-29730,07	58,00
-29644,86	150,00
-29560,00	195,00
-29475,48	14,00
-29391,30	131,00
-29307,47	51,00
-29223,97	208,00
-29140,81	38,00
-29057,99	76,00
-28975,50	-10,00
-28893,34	127,00
-28811,51	63,00
-28730,00	22,00
-28648,82	40,00
-28567,97	166,00
-28487,43	120,00
-28407,21	72,00
-28327,32	24,00
-28247,73	151,00
-28168,46	124,00
-28089,50	81,00
-28010,85	-80,00
-27932,51	-39,00
-27854,48	34,00
-27776,75	-47,00
-27699,32	142,00
-27622,19	166,00
-27545,37	87,00
-27468,84	68,00
-27392,60	-17,00
-27316,66	33,00
-27241,01	221,00
-27165,66	91,00
-27090,59	81,00
-27015,81	63,00
-26941,31	195,00
-26867,10	-29,00
-26793,17	162,00
-26719,52	117,00
-26646,15	75,00
-26573,06	184,00
-26500,24	-7,00
-26427,70	-12,00
-26355,43	-52,00
-26283,43	-24,00
-26211,71	171,00
-26140,25	43,00
-26069,06	136,00
-25998,13	18,00
-25927,46	78,00
-25857,06	101,00
-25786,92	-21,00
-25717,04	42,00
-25647,42	49,00
-25578,05	88,00
-25508,94	195,00
-25440,09	-66,00
-25371,48	224,00
-25303,13	120,00
-25235,02	127,00
-25167,17	98,00
-25099,56	140,00
-25032,19	121,00
-24965,07	56,00
-24898,20	89,00
-24831,56	-33,00
-24765,17	17,00
-24699,01	98,00
-24633,10	64,00
-24567,41	51,00
-24501,97	171,00
-24436,75	-14,00
-24371,77	146,00
-24307,03	85,00
-24242,51	42,00
-24178,22	41,00
-24114,16	176,00
-24050,32	221,00
-23986,71	102,00
-23923,32	120,00
-23860,16	-74,00
-23797,22	39,00
-23734,50	5,00
-23672,00	84,00
-23609,71	-22,00
-23547,65	74,00
-23485,80	141,00
-23424,16	62,00
-23362,74	59,00
-23301,53	46,00
-23240,54	37,00
-23179,75	192,00
-23119,17	119,00
-23058,80	-9,00
-22998,64	87,00
-22938,68	64,00
-22878,93	10,00
-22819,39	79,00
-22760,04	-36,00
-22700,90	120,00
-22641,96	29,00
-22583,22	7,00
-22524,68	148,00
-22466,33	28,00
-22408,19	4,00
-22350,23	73,00
-22292,48	-27,00
-22234,92	101,00
-22177,55	24,00
-22120,37	141,00
-22063,38	113,00
-22006,58	82,00
-21949,98	15,00
-21893,56	28,00
-21837,33	-59,00
-21781,28	-1,00
-21725,42	42,00
-21669,74	43,00
-21614,25	90,00
-21558,94	108,00
-21503,81	55,00
-21448,86	24,00
-21394,10	127,00
-21339,51	78,00
-21285,10	78,00
-21230,86	-96,00
-21176,81	-4,00
-21122,93	52,00
-21069,22	132,00
-21015,69	121,00
-20962,33	108,00
-20909,14	4,00
-20856,13	50,00
-20803,28	-3,00
-20750,61	97,00
-20698,10	158,00
-20645,76	86,00
-20593,59	-19,00
-20541,59	204,00
-20489,75	91,00
-20438,07	129,00
-20386,56	256,00
-20335,22	32,00
-20284,03	82,00
-20233,01	45,00
-20182,15	73,00
-20131,45	184,00
-20080,91	46,00
-20030,52	4,00
-19980,30	135,00
-19930,23	29,00
-19880,32	130,00
-19830,56	136,00
-19780,96	49,00
-19731,52	54,00
-19682,23	15,00
-19633,09	122,00
-19584,10	54,00
-19535,26	30,00
-19486,58	201,00
-19438,04	95,00
-19389,66	-37,00
-19341,42	86,00
-19293,33	-2,00
-19245,39	57,00
-19197,60	13,00
-19149,95	249,00
-19102,45	27,00
-19055,09	107,00
-19007,87	45,00
-18960,80	20,00
-18913,87	41,00
-18867,09	-72,00
-18820,44	141,00
-18773,94	150,00
-18727,57	-39,00
-18681,35	110,00
-18635,26	68,00
-18589,31	123,00
-18543,50	73,00
-18497,83	53,00
-18452,29	164,00
-18406,89	75,00
-18361,63	34,00
-18316,50	-10,00
-18271,50	2,00
-18226,63	62,00
-18181,90	8,00
-18137,30	123,00
-18092,84	-36,00
-18048,50	-26,00
-18004,29	-23,00
-17960,22	109,00
-17916,27	58,00
-17872,45	-44,00
-17828,76	-57,00
-17785,20	90,00
-17741,77	132,00
-17698,46	64,00
-17655,28	68,00
-17612,22	-16,00
-17569,29	15,00
-17526,48	-9,00
-17483,79	-11,00
-17441,23	60,00
-17398,79	10,00
-17356,48	-70,00
-17314,28	69,00
-17272,21	-6,00
-17230,26	18,00
-17188,42	-31,00
-17146,71	119,00
-17105,12	55,00
-17063,64	-12,00
-17022,28	100,00
-16981,04	69,00
-16939,92	99,00
-16898,91	6,00
-16858,02	76,00
-16817,25	173,00
-16776,59	43,00
-16736,04	16,00
-16695,61	52,00
-16655,29	23,00
-16615,09	-119,00
-16574,99	42,00
-16535,01	99,00
-16495,15	176,00
-16455,39	17,00
-16415,74	79,00
-16376,21	77,00
-16336,78	120,00
-16297,46	61,00
-16258,26	90,00
-16219,16	129,00
-16180,17	109,00
-16141,28	107,00
-16102,51	154,00
-16063,84	73,00
-16025,27	101,00
-15986,82	50,00
-15948,46	123,00
-15910,22	86,00
-15872,07	-60,00
-15834,04	-109,00
-15796,10	24,00
-15758,27	24,00
-15720,54	120,00
-15682,91	-2,00
-15645,39	-50,00
-15607,97	12,00
-15570,64	40,00
-15533,42	-16,00
-15496,30	37,00
-15459,28	48,00
-15422,36	-26,00
-15385,54	19,00
-15348,82	38,00
-15312,19	20,00
-15275,66	90,00
-15239,23	115,00
-15202,90	28,00
-15166,67	-41,00
-15130,53	-7,00
-15094,48	129,00
-15058,54	-4,00
-15022,68	58,00
-14986,93	52,00
-14951,26	87,00
-14915,69	36,00
-14880,22	-16,00
-14844,84	11,00
-14809,55	30,00
-14774,35	15,00
-14739,25	83,00
-14704,24	169,00
-14669,32	1,00
-14634,49	47,00
-14599,75	45,00
-14565,10	58,00
-14530,55	133,00
-14496,08	-4,00
-14461,70	59,00
-14427,41	140,00
-14393,21	-60,00
-14359,10	-21,00
-14325,07	0,00
-14291,14	147,00
-14257,29	140,00
-14223,52	21,00
-14189,85	37,00
-14156,26	141,00
-14122,76	31,00
-14089,34	98,00
-14056,01	53,00
-14022,76	-58,00
-13989,60	-40,00
-13956,52	62,00
-13923,53	47,00
-13890,62	-70,00
-13857,79	69,00
-13825,05	158,00
-13792,39	21,00
-13759,81	174,00
-13727,31	149,00
-13694,90	-21,00
-13662,57	63,00
-13630,31	105,00
-13598,14	5,00
-13566,05	44,00
-13534,05	160,00
-13502,12	-28,00
-13470,27	68,00
-13438,50	108,00
-13406,80	53,00
-13375,19	20,00
-13343,66	111,00
-13312,20	29,00
-13280,83	-21,00
-13249,53	-7,00
-13218,30	80,00
-13187,16	71,00
-13156,09	104,00
-13125,10	114,00
-13094,18	10,00
-13063,34	102,00
-13032,58	19,00
-13001,89	55,00
-12971,28	17,00
-12940,74	35,00
-12910,27	131,00
-12879,88	7,00
-12849,57	62,00
-12819,33	125,00
-12789,16	20,00
-12759,06	31,00
-12729,04	63,00
-12699,09	1796,00
-12669,21	169,00
-12639,41	84,00
-12609,68	81,00
-12580,02	64,00
-12550,43	59,00
-12520,91	-67,00
-12491,46	-43,00
-12462,08	-32,00
-12432,77	-7,00
-12403,54	79,00
-12374,37	113,00
-12345,27	28,00
-12316,24	-8,00
-12287,29	103,00
-12258,40	21,00
-12229,57	109,00
-12200,82	-6,00
-12172,14	53,00
-12143,52	-68,00
-12114,97	109,00
-12086,49	78,00
-12058,07	91,00
-12029,73	63,00
-12001,44	76,00
-11973,23	-27,00
-11945,08	15,00
-11917,00	34,00
-11888,98	-8,00
-11861,03	-27,00
-11833,15	166,00
-11805,32	-48,00
-11777,57	-96,00
-11749,88	118,00
-11722,25	162,00
-11694,69	-33,00
-11667,19	12,00
-11639,75	-9,00
-11612,38	56,00
-11585,07	87,00
-11557,83	59,00
-11530,65	-125,00
-11503,53	10,00
-11476,47	8,00
-11449,48	-36,00
-11422,54	100,00
-11395,67	24,00
-11368,86	135,00
-11342,11	100,00
-11315,43	163,00
-11288,80	39,00
-11262,23	-58,00
-11235,73	-2,00
-11209,28	12,00
-11182,90	115,00
-11156,57	-7,00
-11130,31	-146,00
-11104,10	115,00
-11077,96	153,00
-11051,87	6,00
-11025,84	24,00
-10999,87	98,00
-10973,96	109,00
-10948,11	73,00
-10922,31	37,00
-10896,58	102,00
-10870,90	71,00
-10845,28	61,00
-10819,71	97,00
-10794,20	174,00
-10768,75	122,00
-10743,36	-37,00
-10718,02	260,00
-10692,74	134,00
-10667,52	64,00
-10642,35	103,00
-10617,24	137,00
-10592,18	218,00
-10567,18	250,00
-10542,23	204,00
-10517,34	147,00
-10492,51	198,00
-10467,72	52,00
-10443,00	137,00
-10418,32	121,00
-10393,70	144,00
-10369,14	181,00
-10344,63	238,00
-10320,17	169,00
-10295,77	229,00
-10271,42	228,00
-10247,12	227,00
-10222,88	219,00
-10198,68	212,00
-10174,54	125,00
-10150,46	485,00
-10126,42	297,00
-10102,44	253,00
-10078,51	286,00
-10054,63	492,00
-10030,80	441,00
-10007,03	328,00
-9983,30	525,00
-9959,63	377,00
-9936,01	637,00
-9912,44	550,00
-9888,92	668,00
-9865,44	593,00
-9842,02	574,00
-9818,65	652,00
-9795,33	603,00
-9772,06	705,00
-9748,84	733,00
-9725,67	846,00
-9702,55	835,00
-9679,47	1076,00
-9656,45	1269,00
-9633,47	1187,00
-9610,55	1341,00
-9587,67	1262,00
-9564,84	1419,00
-9542,06	1471,00
-9519,32	1785,00
-9496,64	1735,00
-9474,00	1931,00
-9451,41	2128,00
-9428,87	2076,00
-9406,37	1985,00
-9383,92	1827,00
-9361,52	1587,00
-9339,17	1609,00
-9316,86	1979,00
-9294,60	2063,00
-9272,38	2279,00
-9250,21	2525,00
-9228,09	2627,00
-9206,01	2531,00
-9183,98	2340,00
-9162,00	2047,00
-9140,06	1772,00
-9118,16	1799,00
-9096,31	2032,00
-9074,51	1988,00
-9052,75	2058,00
-9031,04	1883,00
-9009,37	1699,00
-8987,74	1549,00
-8966,16	1337,00
-8944,63	1271,00
-8923,14	1196,00
-8901,69	1290,00
-8880,29	1332,00
-8858,93	1527,00
-8837,61	1759,00
-8816,34	1704,00
-8795,11	1878,00
-8773,92	1628,00
-8752,78	1444,00
-8731,68	1359,00
-8710,62	1419,00
-8689,61	1504,00
-8668,63	1720,00
-8647,70	1545,00
-8626,82	1681,00
-8605,97	1547,00
-8585,17	1684,00
-8564,41	1349,00
-8543,69	1235,00
-8523,01	1252,00
-8502,37	1214,00
-8481,78	1273,00
-8461,23	1367,00
-8440,71	1540,00
-8420,24	1562,00
-8399,81	1697,00
-8379,42	1578,00
-8359,08	1628,00
-8338,77	1216,00
-8318,50	1309,00
-8298,27	1186,00
-8278,09	1255,00
-8257,94	1350,00
-8237,83	1450,00
-8217,76	1647,00
-8197,74	1441,00
-8177,75	1517,00
-8157,80	1323,00
-8137,89	1216,00
-8118,02	1230,00
-8098,19	1157,00
-8078,40	1308,00
-8058,65	1356,00
-8038,93	1248,00
-8019,26	1429,00
-7999,62	1370,00
-7980,02	1177,00
-7960,46	1253,00
-7940,94	1058,00
-7921,46	1141,00
-7902,01	1102,00
-7882,60	1065,00
-7863,23	1124,00
-7843,90	1230,00
-7824,61	1413,00
-7805,35	1405,00
-7786,13	1350,00
-7766,95	1364,00
-7747,80	1175,00
-7728,69	1195,00
-7709,62	1151,00
-7690,59	1428,00
-7671,59	1372,00
-7652,63	1451,00
-7633,70	1469,00
-7614,81	1279,00
-7595,96	1171,00
-7577,15	1142,00
-7558,37	1213,00
-7539,62	1168,00
-7520,91	1214,00
-7502,24	1207,00
-7483,60	1370,00
-7465,00	1217,00
-7446,44	1094,00
-7427,91	960,00
-7409,41	849,00
-7390,95	772,00
-7372,53	973,00
-7354,14	738,00
-7335,78	769,00
-7317,46	947,00
-7299,18	1008,00
-7280,92	1033,00
-7262,71	1309,00
-7244,52	1308,00
-7226,38	1433,00
-7208,26	1311,00
-7190,18	1312,00
-7172,14	1153,00
-7154,12	1259,00
-7136,15	1084,00
-7118,20	1248,00
-7100,29	1324,00
-7082,41	1272,00
-7064,57	1252,00
-7046,76	1203,00
-7028,98	917,00
-7011,24	942,00
-6993,53	863,00
-6975,85	705,00
-6958,20	543,00
-6940,59	615,00
-6923,01	581,00
-6905,46	777,00
-6887,94	1005,00
-6870,46	3895,00
-6853,01	1063,00
-6835,59	1260,00
-6818,21	855,00
-6800,85	738,00
-6783,53	745,00
-6766,24	541,00
-6748,98	557,00
-6731,76	373,00
-6714,56	403,00
-6697,40	528,00
-6680,26	533,00
-6663,16	660,00
-6646,09	664,00
-6629,05	864,00
-6612,05	988,00
-6595,07	939,00
-6578,13	928,00
-6561,21	676,00
-6544,33	492,00
-6527,47	483,00
-6510,65	452,00
-6493,86	431,00
-6477,10	445,00
-6460,36	385,00
-6443,66	444,00
-6426,99	424,00
-6410,35	301,00
-6393,74	575,00
-6377,16	480,00
-6360,61	572,00
-6344,09	753,00
-6327,59	680,00
-6311,13	640,00
-6294,70	637,00
-6278,29	711,00
-6261,92	905,00
-6245,58	892,00
-6229,26	1012,00
-6212,97	794,00
-6196,72	632,00
-6180,49	435,00
-6164,29	211,00
-6148,12	238,00
-6131,98	243,00
-6115,86	227,00
-6099,78	180,00
-6083,72	194,00
-6067,69	203,00
-6051,69	73,00
-6035,72	174,00
-6019,78	329,00
-6003,87	505,00
-5987,98	587,00
-5972,12	736,00
-5956,29	586,00
-5940,49	608,00
-5924,71	600,00
-5908,96	469,00
-5893,24	312,00
-5877,55	194,00
-5861,89	236,00
-5846,25	298,00
-5830,64	437,00
-5815,05	344,00
-5799,50	344,00
-5783,97	297,00
-5768,47	336,00
-5752,99	468,00
-5737,55	697,00
-5722,12	617,00
-5706,73	639,00
-5691,36	473,00
-5676,02	403,00
-5660,71	340,00
-5645,42	311,00
-5630,16	294,00
-5614,92	414,00
-5599,71	553,00
-5584,53	542,00
-5569,37	405,00
-5554,24	407,00
-5539,14	401,00
-5524,06	296,00
-5509,01	412,00
-5493,98	548,00
-5478,98	416,00
-5464,00	392,00
-5449,05	427,00
-5434,13	243,00
-5419,23	385,00
-5404,36	358,00
-5389,51	408,00
-5374,69	664,00
-5359,89	689,00
-5345,12	704,00
-5330,37	606,00
-5315,65	590,00
-5300,95	436,00
-5286,28	501,00
-5271,63	410,00
-5257,01	381,00
-5242,41	310,00
-5227,84	360,00
-5213,29	343,00
-5198,76	97,00
-5184,26	228,00
-5169,79	442,00
-5155,33	349,00
-5140,91	434,00
-5126,51	432,00
-5112,13	530,00
-5097,77	158,00
-5083,44	397,00
-5069,13	250,00
-5054,85	213,00
-5040,59	429,00
-5026,36	330,00
-5012,15	439,00
-4997,96	337,00
-4983,80	402,00
-4969,66	197,00
-4955,54	378,00
-4941,44	362,00
-4927,37	424,00
-4913,33	601,00
-4899,30	657,00
-4885,30	686,00
-4871,33	471,00
-4857,37	225,00
-4843,44	276,00
-4829,53	299,00
-4815,65	301,00
-4801,79	458,00
-4787,95	360,00
-4774,13	234,00
-4760,34	267,00
-4746,56	362,00
-4732,82	187,00
-4719,09	389,00
-4705,38	377,00
-4691,70	618,00
-4678,04	509,00
-4664,41	516,00
-4650,79	229,00
-4637,20	313,00
-4623,63	185,00
-4610,08	290,00
-4596,56	377,00
-4583,05	367,00
-4569,57	378,00
-4556,11	205,00
-4542,67	208,00
-4529,25	178,00
-4515,86	395,00
-4502,49	507,00
-4489,13	421,00
-4475,80	438,00
-4462,49	378,00
-4449,21	364,00
-4435,94	216,00
-4422,70	322,00
-4409,47	348,00
-4396,27	282,00
-4383,09	319,00
-4369,93	257,00
-4356,79	191,00
-4343,67	207,00
-4330,58	205,00
-4317,50	292,00
-4304,45	293,00
-4291,41	191,00
-4278,40	152,00
-4265,41	172,00
-4252,44	242,00
-4239,49	261,00
-4226,55	343,00
-4213,65	224,00
-4200,76	204,00
-4187,89	149,00
-4175,04	109,00
-4162,21	202,00
-4149,40	134,00
-4136,61	164,00
-4123,85	98,00
-4111,10	187,00
-4098,37	240,00
-4085,66	275,00
-4072,98	144,00
-4060,31	193,00
-4047,66	129,00
-4035,04	6,00
-4022,43	52,00
-4009,84	218,00
-3997,27	88,00
-3984,72	16,00
-3972,19	72,00
-3959,69	67,00
-3947,20	59,00
-3934,73	90,00
-3922,27	60,00
-3909,84	53,00
-3897,43	124,00
-3885,04	45,00
-3872,67	82,00
-3860,31	113,00
-3847,98	65,00
-3835,66	223,00
-3823,36	30,00
-3811,09	93,00
-3798,83	126,00
-3786,59	45,00
-3774,37	83,00
-3762,17	16,00
-3749,98	123,00
-3737,82	112,00
-3725,67	221,00
-3713,55	41,00
-3701,44	-23,00
-3689,35	50,00
-3677,28	115,00
-3665,22	-16,00
-3653,19	52,00
-3641,17	56,00
-3629,18	17,00
-3617,20	32,00
-3605,24	93,00
-3593,30	87,00
-3581,37	27,00
-3569,47	21,00
-3557,58	158,00
-3545,71	261,00
-3533,86	50,00
-3522,02	-60,00
-3510,21	128,00
-3498,41	73,00
-3486,63	19,00
-3474,87	133,00
-3463,12	78,00
-3451,40	105,00
-3439,69	157,00
-3428,00	152,00
-3416,33	25,00
-3404,67	104,00
-3393,03	-50,00
-3381,41	71,00
-3369,81	196,00
-3358,22	50,00
-3346,66	1,00
-3335,10	-27,00
-3323,57	63,00
-3312,06	-116,00
-3300,56	-26,00
-3289,08	-7,00
-3277,61	196,00
-3266,16	67,00
-3254,73	-1,00
-3243,32	83,00
-3231,92	25,00
-3220,55	-21,00
-3209,18	90,00
-3197,84	1,00
-3186,51	14,00
-3175,20	61,00
-3163,90	-2,00
-3152,63	69,00
-3141,36	16,00
-3130,12	-60,00
-3118,89	37,00
-3107,68	55,00
-3096,49	33,00
-3085,31	59,00
-3074,15	104,00
-3063,00	106,00
-3051,87	56,00
-3040,76	74,00
-3029,67	1,00
-3018,59	31,00
-3007,52	195,00
-2996,48	180,00
-2985,44	151,00
-2974,43	121,00
-2963,43	-77,00
-2952,45	58,00
-2941,48	143,00
-2930,53	7,00
-2919,60	97,00
-2908,68	143,00
-2897,78	84,00
-2886,89	65,00
-2876,02	151,00
-2865,17	98,00
-2854,33	52,00
-2843,50	56,00
-2832,70	35,00
-2821,90	3,00
-2811,13	-37,00
-2800,37	-8,00
-2789,62	14,00
-2778,89	118,00
-2768,18	-22,00
-2757,48	27,00
-2746,80	148,00
-2736,13	45,00
-2725,48	65,00
-2714,84	36,00
-2704,22	150,00
-2693,61	91,00
-2683,02	61,00
-2672,45	103,00
-2661,89	72,00
-2651,34	59,00
-2640,81	-7,00
-2630,30	31,00
-2619,80	57,00
-2609,31	63,00
-2598,84	-63,00
-2588,39	-44,00
-2577,95	-134,00
-2567,52	75,00
-2557,11	-37,00
-2546,71	-52,00
-2536,33	34,00
-2525,97	82,00
-2515,62	136,00
-2505,28	61,00
-2494,96	67,00
-2484,65	52,00
-2474,36	37,00
-2464,08	19,00
-2453,82	43,00
-2443,57	-51,00
-2433,33	193,00
-2423,11	28,00
-2412,91	88,00
-2402,72	62,00
-2392,54	-59,00
-2382,38	142,00
-2372,23	96,00
-2362,09	215,00
-2351,97	33,00
-2341,87	28,00
-2331,78	50,00
-2321,70	124,00
-2311,64	31,00
-2301,59	120,00
-2291,55	125,00
-2281,53	61,00
-2271,53	78,00
-2261,53	40,00
-2251,55	108,00
-2241,59	-84,00
-2231,64	92,00
-2221,70	29,00
-2211,78	19,00
-2201,87	102,00
-2191,97	48,00
-2182,09	71,00
-2172,22	9,00
-2162,37	39,00
-2152,53	34,00
-2142,70	100,00
-2132,89	31,00
-2123,09	106,00
-2113,30	149,00
-2103,53	-20,00
-2093,77	99,00
-2084,02	-83,00
-2074,29	148,00
-2064,57	16,00
-2054,86	86,00
-2045,17	154,00
-2035,49	63,00
-2025,82	62,00
-2016,17	102,00
-2006,53	69,00
-1996,91	126,00
-1987,29	101,00
-1977,69	38,00
-1968,11	16,00
-1958,53	114,00
-1948,97	176,00
-1939,42	251,00
-1929,89	99,00
-1920,37	11,00
-1910,86	196,00
-1901,36	-16,00
-1891,88	109,00
-1882,41	-27,00
-1872,95	-27,00
-1863,51	-46,00
-1854,08	-13,00
-1844,66	90,00
-1835,26	7,00
-1825,86	44,00
-1816,48	77,00
-1807,11	55,00
-1797,76	136,00
-1788,42	121,00
-1779,09	153,00
-1769,77	-85,00
-1760,47	150,00
-1751,17	53,00
-1741,89	0,00
-1732,63	43,00
-1723,37	6,00
-1714,13	68,00
-1704,90	217,00
-1695,68	66,00
-1686,48	110,00
-1677,29	174,00
-1668,11	100,00
-1658,94	77,00
-1649,78	-59,00
-1640,64	116,00
-1631,51	-16,00
-1622,39	-10,00
-1613,28	-78,00
-1604,19	4,00
-1595,10	144,00
-1586,03	32,00
-1576,97	58,00
-1567,93	-41,00
-1558,89	-65,00
-1549,87	-32,00
-1540,86	191,00
-1531,86	87,00
-1522,87	29,00
-1513,90	103,00
-1504,93	67,00
-1495,98	-14,00
-1487,04	166,00
-1478,12	48,00
-1469,20	-22,00
-1460,30	62,00
-1451,40	94,00
-1442,52	141,00
-1433,65	27,00
-1424,80	59,00
-1415,95	177,00
-1407,12	58,00
-1398,30	45,00
-1389,48	32,00
-1380,69	191,00
-1371,90	-7,00
-1363,12	-17,00
-1354,36	150,00
-1345,60	0,00
-1336,86	4,00
-1328,13	130,00
-1319,41	-24,00
-1310,70	83,00
-1302,01	-1,00
-1293,32	79,00
-1284,65	115,00
-1275,99	0,00
-1267,33	118,00
-1258,69	9,00
-1250,06	136,00
-1241,45	44,00
-1232,84	39,00
-1224,25	103,00
-1215,66	-60,00
-1207,09	105,00
-1198,53	75,00
-1189,97	31,00
-1181,43	75,00
-1172,91	-6,00
-1164,39	99,00
-1155,88	-3,00
-1147,38	-43,00
-1138,90	-32,00
-1130,43	49,00
-1121,96	74,00
-1113,51	104,00
-1105,07	82,00
-1096,64	178,00
-1088,22	72,00
-1079,81	28,00
-1071,41	136,00
-1063,02	156,00
-1054,65	78,00
-1046,28	-22,00
-1037,92	-33,00
-1029,58	16,00
-1021,24	86,00
-1012,92	95,00
-1004,61	22,00
-996,30	10,00
-988,01	33,00
-979,73	-8,00
-971,46	24,00
-963,20	131,00
-954,95	-45,00
-946,71	25,00
-938,48	137,00
-930,26	6,00
-922,06	52,00
-913,86	110,00
-905,67	76,00
-897,49	112,00
-889,33	76,00
-881,17	104,00
-873,02	130,00
-864,89	-1,00
-856,76	134,00
-848,65	151,00
-840,54	9,00
-832,45	96,00
-824,36	-52,00
-816,29	97,00
-808,22	139,00
-800,17	41,00
-792,12	58,00
-784,09	213,00
-776,06	44,00
-768,05	17,00
-760,04	99,00
-752,05	185,00
-744,07	147,00
-736,09	72,00
-728,13	54,00
-720,17	26,00
-712,23	-32,00
-704,29	70,00
-696,37	37,00
-688,45	67,00
-680,55	93,00
-672,65	81,00
-664,77	125,00
-656,89	246,00
-649,03	40,00
-641,17	-45,00
-633,32	60,00
-625,49	109,00
-617,66	116,00
-609,84	30,00
-602,03	32,00
-594,23	104,00
-586,45	234,00
-578,67	53,00
-570,90	90,00
-563,14	53,00
-555,39	125,00
-547,65	127,00
-539,91	86,00
-532,19	168,00
-524,48	4,00
-516,78	61,00
-509,08	56,00
-501,40	100,00
-493,72	-65,00
-486,06	97,00
-478,40	100,00
-470,76	104,00
-463,12	70,00
-455,49	105,00
-447,87	189,00
-440,26	-3,00
-432,66	-3,00
-425,07	95,00
-417,49	69,00
-409,92	11,00
-402,35	152,00
-394,80	20,00
-387,25	-30,00
-379,72	43,00
-372,19	54,00
-364,67	136,00
-357,17	194,00
-349,67	146,00
-342,18	171,00
-334,69	179,00
-327,22	142,00
-319,76	44,00
-312,30	182,00
-304,86	19,00
-297,42	201,00
-290,00	89,00
-282,58	113,00
-275,17	61,00
-267,77	124,00
-260,37	200,00
-252,99	15,00
-245,62	268,00
-238,25	158,00
-230,90	163,00
-223,55	223,00
-216,21	187,00
-208,88	201,00
-201,56	156,00
-194,25	459,00
-186,94	292,00
-179,65	287,00
-172,36	448,00
-165,08	424,00
-157,81	377,00
-150,55	349,00
-143,30	449,00
-136,06	584,00
-128,82	525,00
-121,60	537,00
-114,38	649,00
-107,17	754,00
-99,97	895,00
-92,78	1007,00
-85,60	1094,00
-78,42	1216,00
-71,25	1502,00
-64,10	1640,00
-56,95	2019,00
-49,81	2371,00
-42,67	2949,00
-35,55	3816,00
-28,43	4881,00
-21,33	8568,00
-14,23	29594,00
-7,14	54235,00
-0,05	53890,00
7,02	53525,00
14,09	53899,00
21,14	21754,00
28,19	9187,00
35,23	6035,00
42,27	4463,00
49,29	3720,00
56,31	3155,00
63,32	2750,00
70,32	2084,00
77,31	1923,00
84,29	1668,00
91,27	1444,00
98,23	1292,00
105,19	1269,00
112,14	1524,00
119,09	2244,00
126,02	3530,00
132,95	4352,00
139,87	4424,00
146,78	4337,00
153,68	4286,00
160,58	4202,00
167,46	4184,00
174,34	4175,00
181,21	4146,00
188,08	4048,00
194,93	4166,00
201,78	4068,00
208,62	4104,00
215,45	4042,00
222,27	4152,00
229,09	4181,00
235,90	4031,00
242,70	3959,00
249,49	3896,00
256,27	3854,00
263,05	3949,00
269,82	4008,00
276,58	3918,00
283,33	3843,00
290,08	3954,00
296,82	3837,00
303,55	3718,00
310,27	3562,00
316,98	3610,00
323,69	3572,00
330,39	3697,00
337,08	3635,00
343,76	3584,00
350,44	3601,00
357,11	3548,00
363,77	3499,00
370,42	3394,00
377,07	3467,00
383,71	3556,00
390,34	3387,00
396,96	3450,00
403,58	3610,00
410,19	3455,00
416,79	3466,00
423,38	3521,00
429,97	3321,00
436,55	3482,00
443,12	3224,00
449,68	3224,00
456,24	3139,00
462,79	3327,00
469,33	3019,00
475,86	3038,00
482,39	3128,00
488,91	3177,00
495,42	3012,00
501,93	2955,00
508,42	2921,00
514,91	2952,00
521,40	2837,00
527,87	2759,00
534,34	2913,00
540,80	2852,00
547,25	2770,00
553,70	2749,00
560,14	2796,00
566,57	2843,00
573,00	2745,00
579,41	2617,00
585,83	2718,00
592,23	2659,00
598,62	2672,00
605,01	2610,00
611,40	2637,00
617,77	2616,00
624,14	2739,00
630,50	2503,00
636,85	2763,00
643,20	2491,00
649,54	2616,00
655,87	2490,00
662,20	2456,00
668,52	2491,00
674,83	2451,00
681,13	2410,00
687,43	2503,00
693,72	2381,00
700,00	2493,00
706,28	2391,00
712,55	2369,00
718,81	2382,00
725,07	2210,00
731,32	2328,00
737,56	2364,00
743,79	2554,00
750,02	2423,00
756,24	2244,00
762,46	2391,00
768,67	2359,00
774,87	2414,00
781,06	2153,00
787,25	2202,00
793,43	2320,00
799,60	2232,00
805,77	2176,00
811,93	2299,00
818,08	2228,00
824,23	2228,00
830,37	2222,00
836,50	2190,00
842,63	2125,00
848,75	2145,00
854,87	2159,00
860,97	2106,00
867,07	2192,00
873,17	2138,00
879,25	2172,00
885,33	2184,00
891,41	2135,00
897,47	2120,00
903,53	1965,00
909,59	1959,00
915,63	2084,00
921,67	1960,00
927,71	1910,00
933,74	1914,00
939,76	1830,00
945,77	1859,00
951,78	1829,00
957,78	1927,00
963,78	1985,00
969,77	1941,00
975,75	1916,00
981,72	1983,00
987,69	1793,00
993,66	1983,00
999,61	1827,00
1005,56	1893,00
1011,51	1948,00
1017,44	1834,00
1023,37	1930,00
1029,30	1936,00
1035,22	1902,00
1041,13	1888,00
1047,03	1871,00
1052,93	2277,00
1058,83	2288,00
1064,71	2426,00
1070,59	2070,00
1076,47	2087,00
1082,33	1836,00
1088,20	1923,00
1094,05	1898,00
1099,90	1832,00
1105,74	1897,00
1111,58	1804,00
1117,41	1819,00
1123,23	2108,00
1129,05	2231,00
1134,86	2007,00
1140,67	1848,00
1146,47	1781,00
1152,26	1856,00
1158,05	1857,00
1163,83	1745,00
1169,60	1751,00
1175,37	1761,00
1181,13	1833,00
1186,89	1672,00
1192,64	1767,00
1198,38	1708,00
1204,12	1716,00
1209,85	1742,00
1215,58	1610,00
1221,30	1760,00
1227,02	1598,00
1232,72	1609,00
1238,43	1647,00
1244,12	1772,00
1249,81	1761,00
1255,50	1728,00
1261,17	1726,00
1266,85	1703,00
1272,51	1901,00
1278,17	1822,00
1283,83	1959,00
1289,47	2238,00
1295,12	2512,00
1300,75	2498,00
1306,38	2231,00
1312,01	2038,00
1317,63	1998,00
1323,24	1924,00
1328,85	1870,00
1334,45	1725,00
1340,04	1694,00
1345,63	1763,00
1351,22	1785,00
1356,80	1806,00
1362,37	2052,00
1367,93	1825,00
1373,49	1889,00
1379,05	1796,00
1384,60	1866,00
1390,14	1751,00
1395,68	1784,00
1401,21	1877,00
1406,74	1776,00
1412,26	1908,00
1417,77	2050,00
1423,28	1969,00
1428,78	2326,00
1434,28	2392,00
1439,77	2585,00
1445,26	2633,00
1450,74	2613,00
1456,22	2383,00
1461,68	2343,00
1467,15	2125,00
1472,61	2071,00
1478,06	1926,00
1483,51	1854,00
1488,95	1765,00
1494,38	1607,00
1499,81	1690,00
1505,24	1639,00
1510,65	1615,00
1516,07	1691,00
1521,48	1489,00
1526,88	1424,00
1532,27	1453,00
1537,67	1508,00
1543,05	1567,00
1548,43	1535,00
1553,81	1443,00
1559,18	1576,00
1564,54	1479,00
1569,90	1532,00
1575,25	1481,00
1580,60	1421,00
1585,94	1437,00
1591,28	1520,00
1596,61	1480,00
1601,93	1464,00
1607,25	1512,00
1612,57	1300,00
1617,88	1524,00
1623,18	1446,00
1628,48	1268,00
1633,77	1377,00
1639,06	1401,00
1644,34	1342,00
1649,62	1396,00
1654,89	1368,00
1660,16	1339,00
1665,42	1291,00
1670,67	1301,00
1675,92	1300,00
1681,17	1221,00
1686,41	1275,00
1691,64	1152,00
1696,87	1164,00
1702,10	1222,00
1707,32	1154,00
1712,53	1307,00
1717,74	1202,00
1722,94	1229,00
1728,14	1209,00
1733,33	1150,00
1738,52	1115,00
1743,70	1162,00
1748,88	1096,00
1754,05	1145,00
1759,22	1132,00
1764,38	2719,00
1769,53	1168,00
1774,69	1259,00
1779,83	1053,00
1784,97	1238,00
1790,11	1110,00
1795,24	1078,00
1800,36	998,00
1805,48	1078,00
1810,60	1130,00
1815,71	1050,00
1820,82	1022,00
1825,92	1103,00
1831,01	1063,00
1836,10	1051,00
1841,19	973,00
1846,26	997,00
1851,34	1009,00
1856,41	977,00
1861,47	1039,00
1866,53	947,00
1871,59	1010,00
1876,64	915,00
1881,68	1083,00
1886,72	1007,00
1891,76	983,00
1896,79	989,00
1901,81	937,00
1906,83	986,00
1911,85	899,00
1916,86	970,00
1921,86	847,00
1926,86	799,00
1931,86	892,00
1936,85	780,00
1941,83	876,00
1946,81	816,00
1951,79	945,00
1956,76	741,00
1961,72	836,00
1966,68	778,00
1971,64	772,00
1976,59	648,00
1981,54	660,00
1986,48	796,00
1991,42	703,00
1996,35	798,00
2001,27	705,00
2006,20	710,00
2011,11	760,00
2016,03	748,00
2020,93	733,00
2025,84	695,00
2030,73	728,00
2035,63	723,00
2040,52	733,00
2045,40	803,00
2050,28	661,00
2055,15	805,00
2060,02	600,00
2064,89	710,00
2069,75	676,00
2074,60	826,00
2079,46	764,00
2084,30	688,00
2089,14	716,00
2093,98	825,00
2098,81	739,00
2103,64	720,00
2108,46	725,00
2113,28	713,00
2118,09	587,00
2122,90	566,00
2127,70	585,00
2132,50	577,00
2137,30	590,00
2142,09	728,00
2146,87	542,00
2151,66	662,00
2156,43	767,00
2161,20	694,00
2165,97	497,00
2170,73	670,00
2175,49	677,00
2180,24	671,00
2184,99	447,00
2189,74	676,00
2194,48	648,00
2199,21	456,00
2203,94	720,00
2208,67	559,00
2213,39	594,00
2218,11	657,00
2222,82	479,00
2227,53	529,00
2232,23	659,00
2236,93	519,00
2241,63	543,00
2246,32	639,00
2251,00	410,00
2255,68	562,00
2260,36	507,00
2265,03	412,00
2269,70	556,00
2274,36	442,00
2279,02	524,00
2283,68	329,00
2288,33	493,00
2292,97	547,00
2297,61	443,00
2302,25	390,00
2306,88	605,00
2311,51	477,00
2316,14	447,00
2320,75	458,00
2325,37	521,00
2329,98	469,00
2334,59	453,00
2339,19	524,00
2343,79	393,00
2348,38	480,00
2352,97	421,00
2357,55	412,00
2362,13	472,00
2366,71	474,00
2371,28	472,00
2375,85	411,00
2380,41	365,00
2384,97	387,00
2389,52	369,00
2394,07	424,00
2398,62	340,00
2403,16	411,00
2407,70	408,00
2412,23	266,00
2416,76	460,00
2421,29	452,00
2425,81	319,00
2430,32	375,00
2434,84	388,00
2439,34	413,00
2443,85	571,00
2448,35	436,00
2452,84	241,00
2457,33	450,00
2461,82	315,00
2466,30	260,00
2470,78	432,00
2475,25	339,00
2479,72	396,00
2484,19	307,00
2488,65	391,00
2493,11	301,00
2497,56	402,00
2502,01	408,00
2506,46	389,00
2510,90	378,00
2515,34	389,00
2519,77	335,00
2524,20	373,00
2528,62	341,00
2533,04	263,00
2537,46	271,00
2541,87	334,00
2546,28	237,00
2550,68	368,00
2555,08	213,00
2559,48	436,00
2563,87	287,00
2568,26	357,00
2572,64	412,00
2577,02	348,00
2581,40	292,00
2585,77	238,00
2590,14	346,00
2594,50	286,00
2598,86	267,00
2603,22	373,00
2607,57	248,00
2611,92	206,00
2616,26	307,00
2620,60	264,00
2624,94	297,00
2629,27	314,00
2633,60	295,00
2637,92	311,00
2642,24	342,00
2646,56	335,00
2650,87	276,00
2655,18	236,00
2659,48	210,00
2663,78	246,00
2668,08	346,00
2672,37	227,00
2676,66	237,00
2680,95	330,00
2685,23	310,00
2689,50	398,00
2693,78	420,00
2698,05	384,00
2702,31	533,00
2706,57	299,00
2710,83	432,00
2715,08	382,00
2719,33	331,00
2723,58	478,00
2727,82	278,00
2732,06	424,00
2736,29	472,00
2740,53	423,00
2744,75	402,00
2748,97	350,00
2753,19	292,00
2757,41	253,00
2761,62	299,00
2765,83	384,00
2770,03	298,00
2774,23	402,00
2778,43	350,00
2782,62	380,00
2786,81	328,00
2791,00	358,00
2795,18	415,00
2799,35	260,00
2803,53	378,00
2807,70	252,00
2811,86	449,00
2816,03	546,00
2820,19	391,00
2824,34	496,00
2828,49	654,00
2832,64	646,00
2836,78	893,00
2840,92	1048,00
2845,06	1158,00
2849,19	1199,00
2853,32	1347,00
2857,45	1340,00
2861,57	1321,00
2865,69	1370,00
2869,80	1252,00
2873,91	1187,00
2878,02	1416,00
2882,12	1395,00
2886,22	1429,00
2890,32	1350,00
2894,41	1260,00
2898,50	1220,00
2902,58	1207,00
2906,67	1010,00
2910,74	894,00
2914,82	1060,00
2918,89	843,00
2922,96	891,00
2927,02	815,00
2931,08	692,00
2935,13	738,00
2939,19	645,00
2943,24	663,00
2947,28	494,00
2951,32	557,00
2955,36	572,00
2959,40	364,00
2963,43	469,00
2967,46	521,00
2971,48	245,00
2975,50	328,00
2979,52	375,00
2983,53	365,00
2987,54	209,00
2991,55	238,00
2995,55	293,00
2999,55	251,00
3003,54	165,00
3007,54	63,00
3011,53	212,00
3015,51	300,00
3019,49	238,00
3023,47	193,00
3027,45	256,00
3031,42	239,00
3035,39	240,00
3039,35	168,00
3043,31	138,00
3047,27	315,00
3051,22	201,00
3055,17	224,00
3059,12	154,00
3063,06	45,00
3067,00	180,00
3070,94	222,00
3074,87	255,00
3078,80	237,00
3082,73	178,00
3086,65	118,00
3090,57	83,00
3094,49	281,00
3098,40	277,00
3102,31	136,00
3106,22	109,00
3110,12	112,00
3114,02	109,00
3117,92	162,00
3121,81	131,00
3125,70	99,00
3129,58	93,00
3133,47	140,00
3137,34	142,00
3141,22	152,00
3145,09	152,00
3148,96	49,00
3152,83	199,00
3156,69	108,00
3160,55	66,00
3164,40	170,00
3168,26	124,00
3172,10	108,00
3175,95	29,00
3179,79	130,00
3183,63	90,00
3187,47	25,00
3191,30	202,00
3195,13	46,00
3198,95	129,00
3202,78	98,00
3206,60	99,00
3210,41	171,00
3214,23	274,00
3218,03	197,00
3221,84	185,00
3225,64	214,00
3229,44	90,00
3233,24	149,00
3237,03	1,00
3240,82	135,00
3244,61	-3,00
3248,39	38,00
3252,17	144,00
3255,95	119,00
3259,72	125,00
3263,49	110,00
3267,26	130,00
3271,03	134,00
3274,79	24,00
3278,54	124,00
3282,30	145,00
3286,05	176,00
3289,80	69,00
3293,54	192,00
3297,29	28,00
3301,02	76,00
3304,76	100,00
3308,49	-102,00
3312,22	-7,00
3315,95	107,00
3319,67	82,00
3323,39	75,00
3327,10	32,00
3330,82	227,00
3334,53	76,00
3338,24	89,00
3341,94	116,00
3345,64	157,00
3349,34	122,00
3353,03	193,00
3356,72	72,00
3360,41	112,00
3364,10	152,00
3367,78	23,00
3371,46	175,00
3375,13	152,00
3378,81	72,00
3382,48	85,00
3386,14	204,00
3389,81	51,00
3393,47	108,00
3397,12	51,00
3400,78	107,00
3404,43	148,00
3408,08	26,00
3411,72	135,00
3415,36	104,00
3419,00	2,00
3422,64	150,00
3426,27	30,00
3429,90	148,00
3433,53	142,00
3437,15	-38,00
3440,77	239,00
3444,39	21,00
3448,00	27,00
3451,62	97,00
3455,22	78,00
3458,83	204,00
3462,43	57,00
3466,03	205,00
3469,63	54,00
3473,22	103,00
3476,81	33,00
3480,40	135,00
3483,99	46,00
3487,57	78,00
3491,15	59,00
3494,72	133,00
3498,29	77,00
3501,86	4,00
3505,43	111,00
3508,99	168,00
3512,56	-5,00
3516,11	134,00
3519,67	-20,00
3523,22	15,00
3526,77	-68,00
3530,32	40,00
3533,86	122,00
3537,40	51,00
3540,94	4,00
3544,47	-91,00
3548,00	-16,00
3551,53	-17,00
3555,06	171,00
3558,58	51,00
3562,10	37,00
3565,62	89,00
3569,13	-51,00
3572,64	107,00
3576,15	72,00
3579,66	16,00
3583,16	155,00
3586,66	37,00
3590,16	77,00
3593,65	89,00
3597,14	-56,00
3600,63	6,00
3604,11	-23,00
3607,60	135,00
3611,08	160,00
3614,55	100,00
3618,03	70,00
3621,50	45,00
3624,97	-39,00
3628,43	24,00
3631,90	80,00
3635,36	81,00
3638,81	7,00
3642,27	89,00
3645,72	83,00
3649,17	61,00
3652,61	-22,00
3656,06	-62,00
3659,50	68,00
3662,93	82,00
3666,37	82,00
3669,80	131,00
3673,23	69,00
3676,65	182,00
3680,08	103,00
3683,50	115,00
3686,92	86,00
3690,33	33,00
3693,74	67,00
3697,15	-11,00
3700,56	49,00
3703,96	38,00
3707,36	80,00
3710,76	-114,00
3714,16	-34,00
3717,55	224,00
3720,94	121,00
3724,33	3,00
3727,71	114,00
3731,10	116,00
3734,48	157,00
3737,85	-22,00
3741,23	-31,00
3744,60	224,00
3747,97	-9,00
3751,33	59,00
3754,69	150,00
3758,05	56,00
3761,41	87,00
3764,77	86,00
3768,12	-8,00
3771,47	-43,00
3774,82	83,00
3778,16	4,00
3781,50	0,00
3784,84	0,00
3788,18	5,00
>>>>>End Processed Spectral Data<<<<<
