SpectraSuite Data File
++++++++++++++++++++++++++++++++++++
Date: Tue Mar 03 12:09:31 ICT 2026
User: user
Dark Spectrum Present: Yes
Reference Spectrum Present: No
Number of Sampled Component Spectra: 1
Spectrometers: MAYP113682
Integration Time (usec): 3000000 (MAYP113682)
Spectra Averaged: 1 (MAYP113682)
Boxcar Smoothing: 0 (MAYP113682)
Correct for Electrical Dark: No (MAYP113682)
Strobe/Lamp Enabled: No (MAYP113682)
Correct for Detector Non-linearity: No (MAYP113682)
Correct for Stray Light: No (MAYP113682)
Number of Pixels in Processed Spectrum: 2068
>>>>>Begin Processed Spectral Data<<<<<
-37534,58	5,00
-37414,56	0,00
-37295,11	-1,00
-37176,24	-4,00
-37057,95	-79,00
-36940,22	14,00
-36823,05	43,00
-36706,45	-9,00
-36590,40	-77,00
-36474,90	59,00
-36359,95	-21,00
-36245,55	75,00
-36131,68	37,00
-36018,35	88,00
-35905,55	-6,00
-35793,29	-102,00
-35681,54	116,00
-35570,32	-5,00
-35459,62	59,00
-35349,43	80,00
-35239,75	63,00
-35130,58	84,00
-35021,91	-34,00
-34913,74	5,00
-34806,07	-66,00
-34698,89	62,00
-34592,20	35,00
-34486,00	-19,00
-34380,28	-126,00
-34275,04	117,00
-34170,27	-29,00
-34065,98	35,00
-33962,16	-121,00
-33858,81	41,00
-33755,92	-24,00
-33653,49	-24,00
-33551,52	-12,00
-33450,01	8,00
-33348,94	-19,00
-33248,33	88,00
-33148,16	-42,00
-33048,43	119,00
-32949,14	-7,00
-32850,29	20,00
-32751,87	-1,00
-32653,89	-86,00
-32556,33	9,00
-32459,20	-52,00
-32362,49	-16,00
-32266,19	-4,00
-32170,32	-108,00
-32074,86	98,00
-31979,82	-127,00
-31885,18	104,00
-31790,95	11,00
-31697,12	129,00
-31603,69	124,00
-31510,67	-116,00
-31418,04	32,00
-31325,80	60,00
-31233,95	-162,00
-31142,49	62,00
-31051,42	69,00
-30960,73	16,00
-30870,43	35,00
-30780,50	-7,00
-30690,95	-28,00
-30601,77	156,00
-30512,97	-18,00
-30424,53	-22,00
-30336,46	-66,00
-30248,76	100,00
-30161,42	19,00
-30074,44	18,00
-29987,81	10,00
-29901,55	-54,00
-29815,63	-3,00
-29730,07	24,00
-29644,86	270,00
-29560,00	126,00
-29475,48	14,00
-29391,30	105,00
-29307,47	49,00
-29223,97	-3,00
-29140,81	-17,00
-29057,99	68,00
-28975,50	-56,00
-28893,34	62,00
-28811,51	-18,00
-28730,00	-48,00
-28648,82	88,00
-28567,97	62,00
-28487,43	-69,00
-28407,21	50,00
-28327,32	23,00
-28247,73	92,00
-28168,46	-52,00
-28089,50	27,00
-28010,85	8,00
-27932,51	-15,00
-27854,48	1,00
-27776,75	-13,00
-27699,32	78,00
-27622,19	30,00
-27545,37	87,00
-27468,84	-17,00
-27392,60	-55,00
-27316,66	98,00
-27241,01	65,00
-27165,66	7,00
-27090,59	15,00
-27015,81	59,00
-26941,31	142,00
-26867,10	-38,00
-26793,17	73,00
-26719,52	0,00
-26646,15	-16,00
-26573,06	145,00
-26500,24	5,00
-26427,70	-22,00
-26355,43	-15,00
-26283,43	112,00
-26211,71	54,00
-26140,25	84,00
-26069,06	14,00
-25998,13	-21,00
-25927,46	84,00
-25857,06	41,00
-25786,92	39,00
-25717,04	27,00
-25647,42	2,00
-25578,05	-13,00
-25508,94	155,00
-25440,09	-31,00
-25371,48	169,00
-25303,13	67,00
-25235,02	65,00
-25167,17	39,00
-25099,56	11,00
-25032,19	83,00
-24965,07	-59,00
-24898,20	63,00
-24831,56	-28,00
-24765,17	10,00
-24699,01	-14,00
-24633,10	24,00
-24567,41	35,00
-24501,97	50,00
-24436,75	-117,00
-24371,77	186,00
-24307,03	51,00
-24242,51	45,00
-24178,22	0,00
-24114,16	-32,00
-24050,32	129,00
-23986,71	-53,00
-23923,32	61,00
-23860,16	-98,00
-23797,22	24,00
-23734,50	-25,00
-23672,00	66,00
-23609,71	45,00
-23547,65	84,00
-23485,80	12,00
-23424,16	152,00
-23362,74	107,00
-23301,53	6,00
-23240,54	9,00
-23179,75	-6,00
-23119,17	60,00
-23058,80	-38,00
-22998,64	-37,00
-22938,68	106,00
-22878,93	-56,00
-22819,39	59,00
-22760,04	-69,00
-22700,90	94,00
-22641,96	10,00
-22583,22	33,00
-22524,68	26,00
-22466,33	-64,00
-22408,19	31,00
-22350,23	16,00
-22292,48	-57,00
-22234,92	199,00
-22177,55	-91,00
-22120,37	77,00
-22063,38	112,00
-22006,58	1,00
-21949,98	-47,00
-21893,56	-37,00
-21837,33	-147,00
-21781,28	44,00
-21725,42	62,00
-21669,74	-95,00
-21614,25	175,00
-21558,94	-39,00
-21503,81	-22,00
-21448,86	-61,00
-21394,10	49,00
-21339,51	118,00
-21285,10	-29,00
-21230,86	-8,00
-21176,81	-8,00
-21122,93	36,00
-21069,22	171,00
-21015,69	-44,00
-20962,33	-68,00
-20909,14	-53,00
-20856,13	-123,00
-20803,28	-98,00
-20750,61	0,00
-20698,10	76,00
-20645,76	-21,00
-20593,59	-68,00
-20541,59	102,00
-20489,75	44,00
-20438,07	170,00
-20386,56	8,00
-20335,22	-4,00
-20284,03	26,00
-20233,01	43,00
-20182,15	-26,00
-20131,45	81,00
-20080,91	-93,00
-20030,52	-34,00
-19980,30	44,00
-19930,23	-2,00
-19880,32	61,00
-19830,56	90,00
-19780,96	-37,00
-19731,52	-3,00
-19682,23	-2,00
-19633,09	142,00
-19584,10	46,00
-19535,26	15,00
-19486,58	68,00
-19438,04	31,00
-19389,66	32,00
-19341,42	-31,00
-19293,33	36,00
-19245,39	64,00
-19197,60	-77,00
-19149,95	13,00
-19102,45	-128,00
-19055,09	43,00
-19007,87	-67,00
-18960,80	2,00
-18913,87	-59,00
-18867,09	-64,00
-18820,44	50,00
-18773,94	104,00
-18727,57	-131,00
-18681,35	-15,00
-18635,26	41,00
-18589,31	88,00
-18543,50	81,00
-18497,83	-10,00
-18452,29	132,00
-18406,89	-4,00
-18361,63	2,00
-18316,50	-80,00
-18271,50	47,00
-18226,63	-43,00
-18181,90	-8,00
-18137,30	-52,00
-18092,84	-53,00
-18048,50	-1,00
-18004,29	-20,00
-17960,22	48,00
-17916,27	22,00
-17872,45	-1,00
-17828,76	-44,00
-17785,20	1,00
-17741,77	-36,00
-17698,46	-64,00
-17655,28	47,00
-17612,22	-94,00
-17569,29	23,00
-17526,48	29,00
-17483,79	-60,00
-17441,23	-33,00
-17398,79	-10,00
-17356,48	-52,00
-17314,28	57,00
-17272,21	14,00
-17230,26	15,00
-17188,42	-108,00
-17146,71	40,00
-17105,12	21,00
-17063,64	-60,00
-17022,28	-45,00
-16981,04	40,00
-16939,92	76,00
-16898,91	-8,00
-16858,02	7,00
-16817,25	83,00
-16776,59	20,00
-16736,04	-16,00
-16695,61	25,00
-16655,29	8,00
-16615,09	-117,00
-16574,99	-4,00
-16535,01	27,00
-16495,15	45,00
-16455,39	-40,00
-16415,74	51,00
-16376,21	-177,00
-16336,78	74,00
-16297,46	-29,00
-16258,26	-14,00
-16219,16	3,00
-16180,17	38,00
-16141,28	8,00
-16102,51	120,00
-16063,84	67,00
-16025,27	-2,00
-15986,82	0,00
-15948,46	58,00
-15910,22	24,00
-15872,07	-73,00
-15834,04	-86,00
-15796,10	-3,00
-15758,27	-20,00
-15720,54	41,00
-15682,91	37,00
-15645,39	-134,00
-15607,97	8,00
-15570,64	-134,00
-15533,42	-13,00
-15496,30	102,00
-15459,28	-10,00
-15422,36	-48,00
-15385,54	-21,00
-15348,82	-66,00
-15312,19	32,00
-15275,66	-2,00
-15239,23	-64,00
-15202,90	141,00
-15166,67	-99,00
-15130,53	3,00
-15094,48	12,00
-15058,54	-31,00
-15022,68	-27,00
-14986,93	60,00
-14951,26	-10,00
-14915,69	-39,00
-14880,22	-13,00
-14844,84	-11,00
-14809,55	-45,00
-14774,35	26,00
-14739,25	46,00
-14704,24	81,00
-14669,32	-35,00
-14634,49	100,00
-14599,75	4,00
-14565,10	-75,00
-14530,55	-23,00
-14496,08	-136,00
-14461,70	87,00
-14427,41	23,00
-14393,21	-98,00
-14359,10	6,00
-14325,07	-92,00
-14291,14	39,00
-14257,29	56,00
-14223,52	28,00
-14189,85	3,00
-14156,26	-49,00
-14122,76	99,00
-14089,34	81,00
-14056,01	-69,00
-14022,76	-97,00
-13989,60	75,00
-13956,52	112,00
-13923,53	17,00
-13890,62	-44,00
-13857,79	4,00
-13825,05	28,00
-13792,39	85,00
-13759,81	72,00
-13727,31	222,00
-13694,90	-103,00
-13662,57	-51,00
-13630,31	-46,00
-13598,14	27,00
-13566,05	2,00
-13534,05	32,00
-13502,12	25,00
-13470,27	147,00
-13438,50	14,00
-13406,80	110,00
-13375,19	-7,00
-13343,66	83,00
-13312,20	101,00
-13280,83	-128,00
-13249,53	14,00
-13218,30	78,00
-13187,16	74,00
-13156,09	36,00
-13125,10	-69,00
-13094,18	-9,00
-13063,34	67,00
-13032,58	-93,00
-13001,89	93,00
-12971,28	-29,00
-12940,74	-18,00
-12910,27	-13,00
-12879,88	60,00
-12849,57	-5,00
-12819,33	28,00
-12789,16	4,00
-12759,06	36,00
-12729,04	-3,00
-12699,09	188,00
-12669,21	117,00
-12639,41	-84,00
-12609,68	81,00
-12580,02	23,00
-12550,43	-24,00
-12520,91	-58,00
-12491,46	87,00
-12462,08	34,00
-12432,77	7,00
-12403,54	15,00
-12374,37	86,00
-12345,27	36,00
-12316,24	124,00
-12287,29	-17,00
-12258,40	62,00
-12229,57	-44,00
-12200,82	13,00
-12172,14	25,00
-12143,52	-69,00
-12114,97	66,00
-12086,49	-32,00
-12058,07	47,00
-12029,73	51,00
-12001,44	-88,00
-11973,23	21,00
-11945,08	-34,00
-11917,00	-42,00
-11888,98	-68,00
-11861,03	-161,00
-11833,15	56,00
-11805,32	-102,00
-11777,57	-63,00
-11749,88	21,00
-11722,25	83,00
-11694,69	5,00
-11667,19	-29,00
-11639,75	-12,00
-11612,38	-130,00
-11585,07	6,00
-11557,83	70,00
-11530,65	-14,00
-11503,53	-5,00
-11476,47	-28,00
-11449,48	22,00
-11422,54	3,00
-11395,67	18,00
-11368,86	81,00
-11342,11	198,00
-11315,43	147,00
-11288,80	26,00
-11262,23	-93,00
-11235,73	-16,00
-11209,28	64,00
-11182,90	-43,00
-11156,57	81,00
-11130,31	29,00
-11104,10	91,00
-11077,96	100,00
-11051,87	43,00
-11025,84	-29,00
-10999,87	122,00
-10973,96	-41,00
-10948,11	129,00
-10922,31	-47,00
-10896,58	128,00
-10870,90	-14,00
-10845,28	6,00
-10819,71	108,00
-10794,20	126,00
-10768,75	176,00
-10743,36	33,00
-10718,02	168,00
-10692,74	108,00
-10667,52	104,00
-10642,35	63,00
-10617,24	189,00
-10592,18	354,00
-10567,18	263,00
-10542,23	180,00
-10517,34	93,00
-10492,51	263,00
-10467,72	91,00
-10443,00	232,00
-10418,32	219,00
-10393,70	296,00
-10369,14	275,00
-10344,63	302,00
-10320,17	334,00
-10295,77	345,00
-10271,42	419,00
-10247,12	422,00
-10222,88	419,00
-10198,68	374,00
-10174,54	569,00
-10150,46	577,00
-10126,42	671,00
-10102,44	607,00
-10078,51	668,00
-10054,63	782,00
-10030,80	713,00
-10007,03	827,00
-9983,30	879,00
-9959,63	818,00
-9936,01	1041,00
-9912,44	1144,00
-9888,92	1130,00
-9865,44	1045,00
-9842,02	1072,00
-9818,65	1145,00
-9795,33	1155,00
-9772,06	1332,00
-9748,84	1306,00
-9725,67	1560,00
-9702,55	1833,00
-9679,47	2128,00
-9656,45	2428,00
-9633,47	2395,00
-9610,55	2469,00
-9587,67	2570,00
-9564,84	2530,00
-9542,06	2884,00
-9519,32	3186,00
-9496,64	3716,00
-9474,00	3945,00
-9451,41	3960,00
-9428,87	4095,00
-9406,37	3666,00
-9383,92	3459,00
-9361,52	3255,00
-9339,17	3434,00
-9316,86	3711,00
-9294,60	4276,00
-9272,38	4717,00
-9250,21	5005,00
-9228,09	5187,00
-9206,01	4811,00
-9183,98	4313,00
-9162,00	4000,00
-9140,06	3599,00
-9118,16	3612,00
-9096,31	3731,00
-9074,51	3835,00
-9052,75	3966,00
-9031,04	3680,00
-9009,37	3386,00
-8987,74	2930,00
-8966,16	2625,00
-8944,63	2252,00
-8923,14	2353,00
-8901,69	2317,00
-8880,29	2722,00
-8858,93	3046,00
-8837,61	3350,00
-8816,34	3523,00
-8795,11	3523,00
-8773,92	3247,00
-8752,78	2885,00
-8731,68	2712,00
-8710,62	2797,00
-8689,61	3033,00
-8668,63	3172,00
-8647,70	3393,00
-8626,82	3438,00
-8605,97	3316,00
-8585,17	2994,00
-8564,41	2859,00
-8543,69	2495,00
-8523,01	2434,00
-8502,37	2464,00
-8481,78	2403,00
-8461,23	2712,00
-8440,71	3009,00
-8420,24	3186,00
-8399,81	3254,00
-8379,42	3160,00
-8359,08	2940,00
-8338,77	2465,00
-8318,50	2503,00
-8298,27	2388,00
-8278,09	2381,00
-8257,94	2583,00
-8237,83	2785,00
-8217,76	3071,00
-8197,74	3011,00
-8177,75	2926,00
-8157,80	2844,00
-8137,89	2468,00
-8118,02	2326,00
-8098,19	2456,00
-8078,40	2430,00
-8058,65	2616,00
-8038,93	2530,00
-8019,26	2789,00
-7999,62	2726,00
-7980,02	2479,00
-7960,46	2303,00
-7940,94	2366,00
-7921,46	2293,00
-7902,01	2206,00
-7882,60	2160,00
-7863,23	2309,00
-7843,90	2418,00
-7824,61	2581,00
-7805,35	2622,00
-7786,13	2599,00
-7766,95	2613,00
-7747,80	2458,00
-7728,69	2363,00
-7709,62	2309,00
-7690,59	2536,00
-7671,59	2728,00
-7652,63	2801,00
-7633,70	2800,00
-7614,81	2622,00
-7595,96	2502,00
-7577,15	2221,00
-7558,37	2272,00
-7539,62	2298,00
-7520,91	2442,00
-7502,24	2679,00
-7483,60	2690,00
-7465,00	2411,00
-7446,44	2305,00
-7427,91	2012,00
-7409,41	1687,00
-7390,95	1614,00
-7372,53	1699,00
-7354,14	1596,00
-7335,78	1759,00
-7317,46	1744,00
-7299,18	1937,00
-7280,92	2182,00
-7262,71	2582,00
-7244,52	2723,00
-7226,38	2597,00
-7208,26	2562,00
-7190,18	2455,00
-7172,14	2235,00
-7154,12	2228,00
-7136,15	2243,00
-7118,20	2370,00
-7100,29	2676,00
-7082,41	2586,00
-7064,57	2520,00
-7046,76	2354,00
-7028,98	2088,00
-7011,24	1773,00
-6993,53	1642,00
-6975,85	1256,00
-6958,20	1206,00
-6940,59	995,00
-6923,01	1232,00
-6905,46	1401,00
-6887,94	1892,00
-6870,46	4773,00
-6853,01	2147,00
-6835,59	2362,00
-6818,21	2000,00
-6800,85	1603,00
-6783,53	1312,00
-6766,24	1231,00
-6748,98	1015,00
-6731,76	891,00
-6714,56	960,00
-6697,40	883,00
-6680,26	874,00
-6663,16	1174,00
-6646,09	1354,00
-6629,05	1604,00
-6612,05	1968,00
-6595,07	1872,00
-6578,13	1782,00
-6561,21	1398,00
-6544,33	882,00
-6527,47	918,00
-6510,65	628,00
-6493,86	756,00
-6477,10	840,00
-6460,36	717,00
-6443,66	826,00
-6426,99	633,00
-6410,35	747,00
-6393,74	1038,00
-6377,16	1034,00
-6360,61	1048,00
-6344,09	1448,00
-6327,59	1296,00
-6311,13	1220,00
-6294,70	1371,00
-6278,29	1485,00
-6261,92	1617,00
-6245,58	1771,00
-6229,26	1895,00
-6212,97	1501,00
-6196,72	1336,00
-6180,49	881,00
-6164,29	571,00
-6148,12	457,00
-6131,98	402,00
-6115,86	348,00
-6099,78	358,00
-6083,72	418,00
-6067,69	343,00
-6051,69	239,00
-6035,72	470,00
-6019,78	584,00
-6003,87	898,00
-5987,98	1027,00
-5972,12	1264,00
-5956,29	1339,00
-5940,49	1073,00
-5924,71	975,00
-5908,96	660,00
-5893,24	496,00
-5877,55	363,00
-5861,89	465,00
-5846,25	455,00
-5830,64	688,00
-5815,05	646,00
-5799,50	609,00
-5783,97	563,00
-5768,47	709,00
-5752,99	889,00
-5737,55	1175,00
-5722,12	1108,00
-5706,73	1212,00
-5691,36	906,00
-5676,02	703,00
-5660,71	492,00
-5645,42	477,00
-5630,16	523,00
-5614,92	736,00
-5599,71	814,00
-5584,53	1006,00
-5569,37	930,00
-5554,24	780,00
-5539,14	678,00
-5524,06	610,00
-5509,01	797,00
-5493,98	905,00
-5478,98	911,00
-5464,00	680,00
-5449,05	737,00
-5434,13	513,00
-5419,23	624,00
-5404,36	570,00
-5389,51	805,00
-5374,69	1045,00
-5359,89	1379,00
-5345,12	1277,00
-5330,37	1171,00
-5315,65	983,00
-5300,95	828,00
-5286,28	764,00
-5271,63	654,00
-5257,01	694,00
-5242,41	582,00
-5227,84	649,00
-5213,29	531,00
-5198,76	335,00
-5184,26	214,00
-5169,79	503,00
-5155,33	575,00
-5140,91	911,00
-5126,51	932,00
-5112,13	880,00
-5097,77	625,00
-5083,44	555,00
-5069,13	367,00
-5054,85	423,00
-5040,59	629,00
-5026,36	765,00
-5012,15	747,00
-4997,96	736,00
-4983,80	588,00
-4969,66	518,00
-4955,54	466,00
-4941,44	668,00
-4927,37	924,00
-4913,33	1382,00
-4899,30	1302,00
-4885,30	1328,00
-4871,33	914,00
-4857,37	492,00
-4843,44	294,00
-4829,53	419,00
-4815,65	496,00
-4801,79	627,00
-4787,95	581,00
-4774,13	457,00
-4760,34	436,00
-4746,56	388,00
-4732,82	229,00
-4719,09	549,00
-4705,38	854,00
-4691,70	1142,00
-4678,04	1119,00
-4664,41	868,00
-4650,79	565,00
-4637,20	318,00
-4623,63	418,00
-4610,08	729,00
-4596,56	728,00
-4583,05	825,00
-4569,57	628,00
-4556,11	394,00
-4542,67	244,00
-4529,25	340,00
-4515,86	708,00
-4502,49	816,00
-4489,13	926,00
-4475,80	810,00
-4462,49	535,00
-4449,21	483,00
-4435,94	311,00
-4422,70	415,00
-4409,47	581,00
-4396,27	696,00
-4383,09	497,00
-4369,93	287,00
-4356,79	183,00
-4343,67	162,00
-4330,58	453,00
-4317,50	481,00
-4304,45	382,00
-4291,41	312,00
-4278,40	210,00
-4265,41	246,00
-4252,44	367,00
-4239,49	557,00
-4226,55	447,00
-4213,65	455,00
-4200,76	228,00
-4187,89	66,00
-4175,04	170,00
-4162,21	344,00
-4149,40	165,00
-4136,61	131,00
-4123,85	91,00
-4111,10	1,00
-4098,37	88,00
-4085,66	208,00
-4072,98	129,00
-4060,31	96,00
-4047,66	233,00
-4035,04	137,00
-4022,43	150,00
-4009,84	303,00
-3997,27	50,00
-3984,72	29,00
-3972,19	195,00
-3959,69	39,00
-3947,20	-11,00
-3934,73	68,00
-3922,27	118,00
-3909,84	27,00
-3897,43	159,00
-3885,04	-38,00
-3872,67	58,00
-3860,31	40,00
-3847,98	3,00
-3835,66	107,00
-3823,36	-9,00
-3811,09	8,00
-3798,83	-43,00
-3786,59	-22,00
-3774,37	47,00
-3762,17	-176,00
-3749,98	107,00
-3737,82	64,00
-3725,67	72,00
-3713,55	40,00
-3701,44	-47,00
-3689,35	-10,00
-3677,28	76,00
-3665,22	-82,00
-3653,19	43,00
-3641,17	51,00
-3629,18	-64,00
-3617,20	18,00
-3605,24	87,00
-3593,30	2,00
-3581,37	-10,00
-3569,47	12,00
-3557,58	40,00
-3545,71	104,00
-3533,86	-46,00
-3522,02	34,00
-3510,21	60,00
-3498,41	-80,00
-3486,63	38,00
-3474,87	88,00
-3463,12	96,00
-3451,40	52,00
-3439,69	167,00
-3428,00	-1,00
-3416,33	38,00
-3404,67	-19,00
-3393,03	23,00
-3381,41	37,00
-3369,81	213,00
-3358,22	40,00
-3346,66	-65,00
-3335,10	-39,00
-3323,57	63,00
-3312,06	-193,00
-3300,56	10,00
-3289,08	-5,00
-3277,61	12,00
-3266,16	17,00
-3254,73	-73,00
-3243,32	91,00
-3231,92	-18,00
-3220,55	-18,00
-3209,18	91,00
-3197,84	30,00
-3186,51	38,00
-3175,20	57,00
-3163,90	-124,00
-3152,63	29,00
-3141,36	-32,00
-3130,12	41,00
-3118,89	-110,00
-3107,68	-27,00
-3096,49	34,00
-3085,31	98,00
-3074,15	-45,00
-3063,00	-85,00
-3051,87	22,00
-3040,76	146,00
-3029,67	128,00
-3018,59	-25,00
-3007,52	69,00
-2996,48	57,00
-2985,44	128,00
-2974,43	20,00
-2963,43	20,00
-2952,45	-54,00
-2941,48	68,00
-2930,53	9,00
-2919,60	32,00
-2908,68	78,00
-2897,78	39,00
-2886,89	15,00
-2876,02	58,00
-2865,17	102,00
-2854,33	-14,00
-2843,50	7,00
-2832,70	-100,00
-2821,90	-70,00
-2811,13	11,00
-2800,37	-15,00
-2789,62	-90,00
-2778,89	135,00
-2768,18	-52,00
-2757,48	47,00
-2746,80	-27,00
-2736,13	-42,00
-2725,48	-46,00
-2714,84	19,00
-2704,22	97,00
-2693,61	65,00
-2683,02	52,00
-2672,45	71,00
-2661,89	22,00
-2651,34	-73,00
-2640,81	-27,00
-2630,30	-37,00
-2619,80	35,00
-2609,31	37,00
-2598,84	41,00
-2588,39	-70,00
-2577,95	-72,00
-2567,52	41,00
-2557,11	-26,00
-2546,71	19,00
-2536,33	-24,00
-2525,97	-30,00
-2515,62	185,00
-2505,28	7,00
-2494,96	50,00
-2484,65	38,00
-2474,36	45,00
-2464,08	52,00
-2453,82	95,00
-2443,57	-44,00
-2433,33	139,00
-2423,11	43,00
-2412,91	-137,00
-2402,72	38,00
-2392,54	96,00
-2382,38	86,00
-2372,23	-16,00
-2362,09	157,00
-2351,97	-28,00
-2341,87	24,00
-2331,78	35,00
-2321,70	35,00
-2311,64	102,00
-2301,59	135,00
-2291,55	72,00
-2281,53	46,00
-2271,53	21,00
-2261,53	-80,00
-2251,55	65,00
-2241,59	52,00
-2231,64	35,00
-2221,70	40,00
-2211,78	-73,00
-2201,87	114,00
-2191,97	48,00
-2182,09	18,00
-2172,22	32,00
-2162,37	33,00
-2152,53	-79,00
-2142,70	14,00
-2132,89	-17,00
-2123,09	-13,00
-2113,30	4,00
-2103,53	-24,00
-2093,77	-72,00
-2084,02	1,00
-2074,29	116,00
-2064,57	57,00
-2054,86	131,00
-2045,17	136,00
-2035,49	57,00
-2025,82	64,00
-2016,17	8,00
-2006,53	46,00
-1996,91	16,00
-1987,29	126,00
-1977,69	96,00
-1968,11	24,00
-1958,53	69,00
-1948,97	-60,00
-1939,42	88,00
-1929,89	128,00
-1920,37	-69,00
-1910,86	28,00
-1901,36	80,00
-1891,88	-12,00
-1882,41	-66,00
-1872,95	4,00
-1863,51	22,00
-1854,08	-157,00
-1844,66	-21,00
-1835,26	17,00
-1825,86	72,00
-1816,48	59,00
-1807,11	31,00
-1797,76	31,00
-1788,42	164,00
-1779,09	6,00
-1769,77	-73,00
-1760,47	124,00
-1751,17	-25,00
-1741,89	17,00
-1732,63	-65,00
-1723,37	-67,00
-1714,13	69,00
-1704,90	40,00
-1695,68	78,00
-1686,48	-29,00
-1677,29	65,00
-1668,11	93,00
-1658,94	-95,00
-1649,78	-85,00
-1640,64	59,00
-1631,51	86,00
-1622,39	1,00
-1613,28	-142,00
-1604,19	80,00
-1595,10	69,00
-1586,03	83,00
-1576,97	-112,00
-1567,93	-62,00
-1558,89	-40,00
-1549,87	-51,00
-1540,86	141,00
-1531,86	-1,00
-1522,87	-33,00
-1513,90	136,00
-1504,93	5,00
-1495,98	74,00
-1487,04	77,00
-1478,12	21,00
-1469,20	-110,00
-1460,30	31,00
-1451,40	16,00
-1442,52	53,00
-1433,65	-1,00
-1424,80	-83,00
-1415,95	9,00
-1407,12	-22,00
-1398,30	-12,00
-1389,48	-78,00
-1380,69	7,00
-1371,90	-36,00
-1363,12	-23,00
-1354,36	58,00
-1345,60	25,00
-1336,86	14,00
-1328,13	-31,00
-1319,41	-51,00
-1310,70	104,00
-1302,01	21,00
-1293,32	15,00
-1284,65	-57,00
-1275,99	48,00
-1267,33	75,00
-1258,69	-12,00
-1250,06	-69,00
-1241,45	32,00
-1232,84	10,00
-1224,25	-25,00
-1215,66	68,00
-1207,09	-74,00
-1198,53	-38,00
-1189,97	-4,00
-1181,43	5,00
-1172,91	-114,00
-1164,39	147,00
-1155,88	-12,00
-1147,38	4,00
-1138,90	-147,00
-1130,43	33,00
-1121,96	1,00
-1113,51	9,00
-1105,07	53,00
-1096,64	24,00
-1088,22	30,00
-1079,81	51,00
-1071,41	30,00
-1063,02	87,00
-1054,65	46,00
-1046,28	-104,00
-1037,92	-37,00
-1029,58	16,00
-1021,24	-13,00
-1012,92	-56,00
-1004,61	-28,00
-996,30	-2,00
-988,01	84,00
-979,73	-52,00
-971,46	-29,00
-963,20	60,00
-954,95	-29,00
-946,71	7,00
-938,48	119,00
-930,26	-48,00
-922,06	-6,00
-913,86	107,00
-905,67	18,00
-897,49	24,00
-889,33	39,00
-881,17	53,00
-873,02	-14,00
-864,89	18,00
-856,76	53,00
-848,65	83,00
-840,54	-63,00
-832,45	133,00
-824,36	-3,00
-816,29	-36,00
-808,22	-16,00
-800,17	37,00
-792,12	-87,00
-784,09	8,00
-776,06	16,00
-768,05	-55,00
-760,04	114,00
-752,05	134,00
-744,07	-8,00
-736,09	70,00
-728,13	-94,00
-720,17	6,00
-712,23	24,00
-704,29	-10,00
-696,37	-55,00
-688,45	13,00
-680,55	86,00
-672,65	43,00
-664,77	56,00
-656,89	134,00
-649,03	112,00
-641,17	61,00
-633,32	39,00
-625,49	-12,00
-617,66	43,00
-609,84	51,00
-602,03	37,00
-594,23	-30,00
-586,45	111,00
-578,67	-48,00
-570,90	-18,00
-563,14	31,00
-555,39	24,00
-547,65	28,00
-539,91	0,00
-532,19	53,00
-524,48	-2,00
-516,78	23,00
-509,08	4,00
-501,40	-66,00
-493,72	-77,00
-486,06	26,00
-478,40	65,00
-470,76	5,00
-463,12	67,00
-455,49	31,00
-447,87	70,00
-440,26	15,00
-432,66	-42,00
-425,07	101,00
-417,49	57,00
-409,92	-5,00
-402,35	114,00
-394,80	12,00
-387,25	16,00
-379,72	-122,00
-372,19	25,00
-364,67	100,00
-357,17	40,00
-349,67	-61,00
-342,18	67,00
-334,69	76,00
-327,22	91,00
-319,76	64,00
-312,30	84,00
-304,86	-6,00
-297,42	160,00
-290,00	12,00
-282,58	63,00
-275,17	-41,00
-267,77	29,00
-260,37	86,00
-252,99	17,00
-245,62	155,00
-238,25	158,00
-230,90	171,00
-223,55	51,00
-216,21	105,00
-208,88	150,00
-201,56	121,00
-194,25	227,00
-186,94	212,00
-179,65	45,00
-172,36	168,00
-165,08	260,00
-157,81	225,00
-150,55	195,00
-143,30	192,00
-136,06	178,00
-128,82	252,00
-121,60	274,00
-114,38	311,00
-107,17	457,00
-99,97	531,00
-92,78	529,00
-85,60	442,00
-78,42	568,00
-71,25	730,00
-64,10	688,00
-56,95	958,00
-49,81	1188,00
-42,67	1495,00
-35,55	1896,00
-28,43	2491,00
-21,33	4225,00
-14,23	15034,00
-7,14	54235,00
-0,05	53890,00
7,02	53525,00
14,09	39143,00
21,14	10122,00
28,19	4448,00
35,23	2876,00
42,27	2330,00
49,29	1903,00
56,31	1600,00
63,32	1388,00
70,32	1010,00
77,31	984,00
84,29	868,00
91,27	759,00
98,23	548,00
105,19	794,00
112,14	915,00
119,09	1389,00
126,02	2459,00
132,95	3099,00
139,87	3183,00
146,78	3221,00
153,68	3146,00
160,58	3076,00
167,46	3153,00
174,34	3149,00
181,21	3122,00
188,08	3168,00
194,93	3059,00
201,78	2907,00
208,62	3012,00
215,45	3073,00
222,27	3105,00
229,09	3087,00
235,90	2912,00
242,70	3104,00
249,49	2931,00
256,27	2760,00
263,05	2899,00
269,82	3029,00
276,58	2832,00
283,33	2840,00
290,08	2980,00
296,82	2814,00
303,55	2858,00
310,27	2600,00
316,98	2731,00
323,69	2656,00
330,39	2648,00
337,08	2743,00
343,76	2621,00
350,44	2620,00
357,11	2646,00
363,77	2630,00
370,42	2587,00
377,07	2581,00
383,71	2706,00
390,34	2578,00
396,96	2601,00
403,58	2601,00
410,19	2559,00
416,79	2504,00
423,38	2656,00
429,97	2363,00
436,55	2584,00
443,12	2385,00
449,68	2381,00
456,24	2323,00
462,79	2426,00
469,33	2395,00
475,86	2272,00
482,39	2187,00
488,91	2423,00
495,42	2225,00
501,93	2121,00
508,42	2089,00
514,91	2161,00
521,40	2042,00
527,87	2166,00
534,34	2115,00
540,80	2096,00
547,25	2121,00
553,70	2098,00
560,14	2088,00
566,57	2109,00
573,00	2068,00
579,41	1952,00
585,83	1952,00
592,23	2056,00
598,62	1859,00
605,01	1931,00
611,40	1907,00
617,77	1852,00
624,14	1962,00
630,50	1933,00
636,85	1977,00
643,20	1876,00
649,54	1960,00
655,87	1756,00
662,20	1817,00
668,52	1819,00
674,83	1694,00
681,13	1927,00
687,43	1851,00
693,72	1781,00
700,00	1797,00
706,28	1696,00
712,55	1797,00
718,81	1899,00
725,07	1709,00
731,32	1748,00
737,56	1922,00
743,79	1754,00
750,02	1614,00
756,24	1684,00
762,46	1843,00
768,67	1735,00
774,87	1838,00
781,06	1560,00
787,25	1578,00
793,43	1725,00
799,60	1637,00
805,77	1506,00
811,93	1702,00
818,08	1774,00
824,23	1679,00
830,37	1584,00
836,50	1558,00
842,63	1636,00
848,75	1614,00
854,87	1620,00
860,97	1581,00
867,07	1675,00
873,17	1551,00
879,25	1659,00
885,33	1608,00
891,41	1537,00
897,47	1609,00
903,53	1417,00
909,59	1400,00
915,63	1582,00
921,67	1504,00
927,71	1514,00
933,74	1467,00
939,76	1414,00
945,77	1459,00
951,78	1402,00
957,78	1458,00
963,78	1435,00
969,77	1502,00
975,75	1573,00
981,72	1405,00
987,69	1092,00
993,66	1458,00
999,61	1416,00
1005,56	1390,00
1011,51	1502,00
1017,44	1445,00
1023,37	1392,00
1029,30	1606,00
1035,22	1479,00
1041,13	1579,00
1047,03	1607,00
1052,93	1727,00
1058,83	1804,00
1064,71	1867,00
1070,59	1694,00
1076,47	1652,00
1082,33	1594,00
1088,20	1530,00
1094,05	1423,00
1099,90	1387,00
1105,74	1396,00
1111,58	1402,00
1117,41	1427,00
1123,23	1731,00
1129,05	1736,00
1134,86	1618,00
1140,67	1459,00
1146,47	1386,00
1152,26	1385,00
1158,05	1385,00
1163,83	1300,00
1169,60	1408,00
1175,37	1439,00
1181,13	1336,00
1186,89	1208,00
1192,64	1413,00
1198,38	1312,00
1204,12	1247,00
1209,85	1347,00
1215,58	1245,00
1221,30	1304,00
1227,02	1286,00
1232,72	1279,00
1238,43	1189,00
1244,12	1440,00
1249,81	1317,00
1255,50	1268,00
1261,17	1341,00
1266,85	1378,00
1272,51	1443,00
1278,17	1519,00
1283,83	1439,00
1289,47	1762,00
1295,12	2005,00
1300,75	1970,00
1306,38	1728,00
1312,01	1619,00
1317,63	1504,00
1323,24	1504,00
1328,85	1395,00
1334,45	1391,00
1340,04	1205,00
1345,63	1332,00
1351,22	1408,00
1356,80	1389,00
1362,37	1446,00
1367,93	1311,00
1373,49	1415,00
1379,05	1529,00
1384,60	1460,00
1390,14	1318,00
1395,68	1323,00
1401,21	1460,00
1406,74	1330,00
1412,26	1581,00
1417,77	1661,00
1423,28	1561,00
1428,78	1781,00
1434,28	1931,00
1439,77	2109,00
1445,26	2153,00
1450,74	2107,00
1456,22	1932,00
1461,68	1815,00
1467,15	1691,00
1472,61	1684,00
1478,06	1582,00
1483,51	1351,00
1488,95	1396,00
1494,38	1350,00
1499,81	1239,00
1505,24	1231,00
1510,65	1193,00
1516,07	1322,00
1521,48	1177,00
1526,88	1050,00
1532,27	1093,00
1537,67	1087,00
1543,05	1108,00
1548,43	1151,00
1553,81	1132,00
1559,18	1104,00
1564,54	1155,00
1569,90	1123,00
1575,25	1133,00
1580,60	959,00
1585,94	1199,00
1591,28	1099,00
1596,61	1091,00
1601,93	1152,00
1607,25	1124,00
1612,57	925,00
1617,88	1128,00
1623,18	1022,00
1628,48	963,00
1633,77	942,00
1639,06	1035,00
1644,34	1028,00
1649,62	969,00
1654,89	1102,00
1660,16	999,00
1665,42	972,00
1670,67	1052,00
1675,92	1040,00
1681,17	901,00
1686,41	914,00
1691,64	870,00
1696,87	858,00
1702,10	978,00
1707,32	865,00
1712,53	955,00
1717,74	857,00
1722,94	980,00
1728,14	834,00
1733,33	886,00
1738,52	783,00
1743,70	825,00
1748,88	874,00
1754,05	825,00
1759,22	868,00
1764,38	881,00
1769,53	793,00
1774,69	874,00
1779,83	793,00
1784,97	825,00
1790,11	798,00
1795,24	712,00
1800,36	765,00
1805,48	640,00
1810,60	791,00
1815,71	768,00
1820,82	764,00
1825,92	791,00
1831,01	724,00
1836,10	855,00
1841,19	767,00
1846,26	647,00
1851,34	683,00
1856,41	734,00
1861,47	628,00
1866,53	664,00
1871,59	842,00
1876,64	740,00
1881,68	852,00
1886,72	560,00
1891,76	816,00
1896,79	749,00
1901,81	693,00
1906,83	701,00
1911,85	713,00
1916,86	660,00
1921,86	641,00
1926,86	585,00
1931,86	619,00
1936,85	505,00
1941,83	632,00
1946,81	680,00
1951,79	674,00
1956,76	554,00
1961,72	668,00
1966,68	534,00
1971,64	621,00
1976,59	601,00
1981,54	663,00
1986,48	476,00
1991,42	566,00
1996,35	548,00
2001,27	553,00
2006,20	544,00
2011,11	489,00
2016,03	517,00
2020,93	439,00
2025,84	479,00
2030,73	427,00
2035,63	526,00
2040,52	505,00
2045,40	582,00
2050,28	464,00
2055,15	641,00
2060,02	624,00
2064,89	529,00
2069,75	421,00
2074,60	618,00
2079,46	526,00
2084,30	574,00
2089,14	462,00
2093,98	518,00
2098,81	513,00
2103,64	449,00
2108,46	437,00
2113,28	451,00
2118,09	422,00
2122,90	488,00
2127,70	378,00
2132,50	443,00
2137,30	437,00
2142,09	541,00
2146,87	335,00
2151,66	476,00
2156,43	427,00
2161,20	481,00
2165,97	309,00
2170,73	446,00
2175,49	425,00
2180,24	519,00
2184,99	344,00
2189,74	515,00
2194,48	355,00
2199,21	363,00
2203,94	348,00
2208,67	522,00
2213,39	354,00
2218,11	443,00
2222,82	365,00
2227,53	496,00
2232,23	394,00
2236,93	371,00
2241,63	433,00
2246,32	375,00
2251,00	305,00
2255,68	339,00
2260,36	325,00
2265,03	433,00
2269,70	473,00
2274,36	359,00
2279,02	375,00
2283,68	320,00
2288,33	347,00
2292,97	283,00
2297,61	379,00
2302,25	341,00
2306,88	457,00
2311,51	311,00
2316,14	307,00
2320,75	374,00
2325,37	218,00
2329,98	318,00
2334,59	318,00
2339,19	303,00
2343,79	357,00
2348,38	400,00
2352,97	213,00
2357,55	278,00
2362,13	295,00
2366,71	222,00
2371,28	322,00
2375,85	343,00
2380,41	293,00
2384,97	169,00
2389,52	220,00
2394,07	335,00
2398,62	308,00
2403,16	299,00
2407,70	315,00
2412,23	251,00
2416,76	370,00
2421,29	262,00
2425,81	210,00
2430,32	206,00
2434,84	238,00
2439,34	301,00
2443,85	402,00
2448,35	276,00
2452,84	214,00
2457,33	367,00
2461,82	278,00
2466,30	185,00
2470,78	304,00
2475,25	285,00
2479,72	365,00
2484,19	253,00
2488,65	175,00
2493,11	229,00
2497,56	183,00
2502,01	242,00
2506,46	380,00
2510,90	202,00
2515,34	269,00
2519,77	283,00
2524,20	247,00
2528,62	201,00
2533,04	262,00
2537,46	233,00
2541,87	246,00
2546,28	215,00
2550,68	275,00
2555,08	25,00
2559,48	309,00
2563,87	91,00
2568,26	251,00
2572,64	317,00
2577,02	399,00
2581,40	172,00
2585,77	192,00
2590,14	236,00
2594,50	120,00
2598,86	189,00
2603,22	270,00
2607,57	223,00
2611,92	170,00
2616,26	223,00
2620,60	173,00
2624,94	152,00
2629,27	193,00
2633,60	274,00
2637,92	261,00
2642,24	209,00
2646,56	143,00
2650,87	218,00
2655,18	135,00
2659,48	193,00
2663,78	297,00
2668,08	258,00
2672,37	210,00
2676,66	220,00
2680,95	233,00
2685,23	278,00
2689,50	200,00
2693,78	278,00
2698,05	256,00
2702,31	436,00
2706,57	110,00
2710,83	349,00
2715,08	312,00
2719,33	214,00
2723,58	354,00
2727,82	135,00
2732,06	244,00
2736,29	340,00
2740,53	362,00
2744,75	406,00
2748,97	162,00
2753,19	267,00
2757,41	138,00
2761,62	101,00
2765,83	365,00
2770,03	168,00
2774,23	312,00
2778,43	282,00
2782,62	322,00
2786,81	267,00
2791,00	319,00
2795,18	239,00
2799,35	236,00
2803,53	308,00
2807,70	272,00
2811,86	315,00
2816,03	387,00
2820,19	413,00
2824,34	400,00
2828,49	460,00
2832,64	471,00
2836,78	673,00
2840,92	711,00
2845,06	884,00
2849,19	981,00
2853,32	1197,00
2857,45	1169,00
2861,57	1089,00
2865,69	1092,00
2869,80	1082,00
2873,91	975,00
2878,02	1113,00
2882,12	1146,00
2886,22	1218,00
2890,32	1121,00
2894,41	1040,00
2898,50	958,00
2902,58	965,00
2906,67	920,00
2910,74	744,00
2914,82	802,00
2918,89	635,00
2922,96	715,00
2927,02	678,00
2931,08	529,00
2935,13	520,00
2939,19	498,00
2943,24	517,00
2947,28	458,00
2951,32	367,00
2955,36	365,00
2959,40	318,00
2963,43	395,00
2967,46	437,00
2971,48	264,00
2975,50	96,00
2979,52	343,00
2983,53	275,00
2987,54	118,00
2991,55	210,00
2995,55	222,00
2999,55	145,00
3003,54	145,00
3007,54	-36,00
3011,53	187,00
3015,51	131,00
3019,49	89,00
3023,47	167,00
3027,45	173,00
3031,42	157,00
3035,39	188,00
3039,35	100,00
3043,31	-12,00
3047,27	162,00
3051,22	42,00
3055,17	-26,00
3059,12	223,00
3063,06	26,00
3067,00	112,00
3070,94	72,00
3074,87	80,00
3078,80	79,00
3082,73	149,00
3086,65	72,00
3090,57	28,00
3094,49	127,00
3098,40	141,00
3102,31	81,00
3106,22	83,00
3110,12	72,00
3114,02	34,00
3117,92	134,00
3121,81	15,00
3125,70	-4,00
3129,58	-6,00
3133,47	97,00
3137,34	72,00
3141,22	103,00
3145,09	73,00
3148,96	171,00
3152,83	98,00
3156,69	6,00
3160,55	63,00
3164,40	118,00
3168,26	1,00
3172,10	157,00
3175,95	72,00
3179,79	44,00
3183,63	32,00
3187,47	43,00
3191,30	108,00
3195,13	84,00
3198,95	149,00
3202,78	37,00
3206,60	64,00
3210,41	70,00
3214,23	173,00
3218,03	157,00
3221,84	41,00
3225,64	142,00
3229,44	13,00
3233,24	78,00
3237,03	11,00
3240,82	97,00
3244,61	-15,00
3248,39	-119,00
3252,17	64,00
3255,95	69,00
3259,72	99,00
3263,49	19,00
3267,26	174,00
3271,03	106,00
3274,79	-3,00
3278,54	150,00
3282,30	106,00
3286,05	160,00
3289,80	16,00
3293,54	163,00
3297,29	46,00
3301,02	-31,00
3304,76	46,00
3308,49	0,00
3312,22	146,00
3315,95	-84,00
3319,67	-20,00
3323,39	55,00
3327,10	16,00
3330,82	163,00
3334,53	42,00
3338,24	-43,00
3341,94	83,00
3345,64	48,00
3349,34	-27,00
3353,03	126,00
3356,72	-6,00
3360,41	85,00
3364,10	51,00
3367,78	62,00
3371,46	-79,00
3375,13	118,00
3378,81	18,00
3382,48	140,00
3386,14	69,00
3389,81	-19,00
3393,47	112,00
3397,12	-43,00
3400,78	45,00
3404,43	195,00
3408,08	-49,00
3411,72	107,00
3415,36	50,00
3419,00	-93,00
3422,64	50,00
3426,27	8,00
3429,90	157,00
3433,53	-21,00
3437,15	17,00
3440,77	34,00
3444,39	96,00
3448,00	-48,00
3451,62	43,00
3455,22	63,00
3458,83	37,00
3462,43	36,00
3466,03	59,00
3469,63	21,00
3473,22	-9,00
3476,81	14,00
3480,40	50,00
3483,99	-45,00
3487,57	1,00
3491,15	-26,00
3494,72	-19,00
3498,29	81,00
3501,86	119,00
3505,43	78,00
3508,99	139,00
3512,56	-107,00
3516,11	60,00
3519,67	-35,00
3523,22	-69,00
3526,77	-35,00
3530,32	54,00
3533,86	112,00
3537,40	40,00
3540,94	-15,00
3544,47	-86,00
3548,00	-30,00
3551,53	-2,00
3555,06	62,00
3558,58	-121,00
3562,10	-67,00
3565,62	-40,00
3569,13	-153,00
3572,64	64,00
3576,15	66,00
3579,66	84,00
3583,16	42,00
3586,66	-51,00
3590,16	-19,00
3593,65	4,00
3597,14	-4,00
3600,63	-104,00
3604,11	70,00
3607,60	231,00
3611,08	122,00
3614,55	133,00
3618,03	16,00
3621,50	-5,00
3624,97	-28,00
3628,43	17,00
3631,90	-41,00
3635,36	-7,00
3638,81	-4,00
3642,27	54,00
3645,72	-20,00
3649,17	-21,00
3652,61	-7,00
3656,06	-66,00
3659,50	-59,00
3662,93	15,00
3666,37	16,00
3669,80	107,00
3673,23	47,00
3676,65	120,00
3680,08	92,00
3683,50	14,00
3686,92	7,00
3690,33	-21,00
3693,74	29,00
3697,15	45,00
3700,56	-38,00
3703,96	-93,00
3707,36	-56,00
3710,76	-71,00
3714,16	8,00
3717,55	148,00
3720,94	21,00
3724,33	43,00
3727,71	53,00
3731,10	75,00
3734,48	9,00
3737,85	-7,00
3741,23	-21,00
3744,60	88,00
3747,97	66,00
3751,33	20,00
3754,69	40,00
3758,05	-64,00
3761,41	-43,00
3764,77	50,00
3768,12	20,00
3771,47	-30,00
3774,82	56,00
3778,16	8,00
3781,50	-5,00
3784,84	1,00
3788,18	-2,00
>>>>>End Processed Spectral Data<<<<<
