SpectraSuite Data File
++++++++++++++++++++++++++++++++++++
Date: Tue Mar 03 10:47:41 ICT 2026
User: user
Dark Spectrum Present: Yes
Reference Spectrum Present: No
Number of Sampled Component Spectra: 1
Spectrometers: MAYP113682
Integration Time (usec): 3000000 (MAYP113682)
Spectra Averaged: 1 (MAYP113682)
Boxcar Smoothing: 0 (MAYP113682)
Correct for Electrical Dark: No (MAYP113682)
Strobe/Lamp Enabled: No (MAYP113682)
Correct for Detector Non-linearity: No (MAYP113682)
Correct for Stray Light: No (MAYP113682)
Number of Pixels in Processed Spectrum: 2068
>>>>>Begin Processed Spectral Data<<<<<
-37534,58	11,00
-37414,56	-4,00
-37295,11	4,00
-37176,24	-2,00
-37057,95	88,00
-36940,22	159,00
-36823,05	192,00
-36706,45	216,00
-36590,40	271,00
-36474,90	161,00
-36359,95	235,00
-36245,55	135,00
-36131,68	189,00
-36018,35	250,00
-35905,55	267,00
-35793,29	325,00
-35681,54	202,00
-35570,32	315,00
-35459,62	284,00
-35349,43	234,00
-35239,75	319,00
-35130,58	259,00
-35021,91	202,00
-34913,74	284,00
-34806,07	183,00
-34698,89	255,00
-34592,20	180,00
-34486,00	164,00
-34380,28	284,00
-34275,04	137,00
-34170,27	250,00
-34065,98	185,00
-33962,16	115,00
-33858,81	257,00
-33755,92	223,00
-33653,49	330,00
-33551,52	360,00
-33450,01	258,00
-33348,94	225,00
-33248,33	332,00
-33148,16	160,00
-33048,43	291,00
-32949,14	133,00
-32850,29	246,00
-32751,87	209,00
-32653,89	262,00
-32556,33	297,00
-32459,20	345,00
-32362,49	231,00
-32266,19	260,00
-32170,32	301,00
-32074,86	274,00
-31979,82	343,00
-31885,18	435,00
-31790,95	255,00
-31697,12	217,00
-31603,69	249,00
-31510,67	263,00
-31418,04	206,00
-31325,80	235,00
-31233,95	297,00
-31142,49	209,00
-31051,42	282,00
-30960,73	343,00
-30870,43	226,00
-30780,50	348,00
-30690,95	192,00
-30601,77	295,00
-30512,97	162,00
-30424,53	278,00
-30336,46	264,00
-30248,76	286,00
-30161,42	301,00
-30074,44	184,00
-29987,81	269,00
-29901,55	343,00
-29815,63	253,00
-29730,07	179,00
-29644,86	260,00
-29560,00	326,00
-29475,48	243,00
-29391,30	254,00
-29307,47	146,00
-29223,97	232,00
-29140,81	163,00
-29057,99	100,00
-28975,50	235,00
-28893,34	309,00
-28811,51	226,00
-28730,00	180,00
-28648,82	155,00
-28567,97	285,00
-28487,43	174,00
-28407,21	200,00
-28327,32	245,00
-28247,73	208,00
-28168,46	174,00
-28089,50	288,00
-28010,85	117,00
-27932,51	269,00
-27854,48	270,00
-27776,75	142,00
-27699,32	255,00
-27622,19	414,00
-27545,37	220,00
-27468,84	261,00
-27392,60	357,00
-27316,66	272,00
-27241,01	277,00
-27165,66	243,00
-27090,59	183,00
-27015,81	324,00
-26941,31	347,00
-26867,10	288,00
-26793,17	254,00
-26719,52	204,00
-26646,15	209,00
-26573,06	377,00
-26500,24	304,00
-26427,70	307,00
-26355,43	319,00
-26283,43	242,00
-26211,71	188,00
-26140,25	253,00
-26069,06	247,00
-25998,13	199,00
-25927,46	238,00
-25857,06	131,00
-25786,92	241,00
-25717,04	270,00
-25647,42	338,00
-25578,05	280,00
-25508,94	134,00
-25440,09	362,00
-25371,48	237,00
-25303,13	249,00
-25235,02	222,00
-25167,17	369,00
-25099,56	202,00
-25032,19	129,00
-24965,07	247,00
-24898,20	253,00
-24831,56	224,00
-24765,17	269,00
-24699,01	265,00
-24633,10	150,00
-24567,41	202,00
-24501,97	281,00
-24436,75	227,00
-24371,77	336,00
-24307,03	280,00
-24242,51	225,00
-24178,22	304,00
-24114,16	265,00
-24050,32	308,00
-23986,71	288,00
-23923,32	247,00
-23860,16	288,00
-23797,22	196,00
-23734,50	95,00
-23672,00	377,00
-23609,71	236,00
-23547,65	347,00
-23485,80	251,00
-23424,16	264,00
-23362,74	283,00
-23301,53	188,00
-23240,54	240,00
-23179,75	361,00
-23119,17	175,00
-23058,80	271,00
-22998,64	304,00
-22938,68	312,00
-22878,93	138,00
-22819,39	305,00
-22760,04	201,00
-22700,90	191,00
-22641,96	265,00
-22583,22	207,00
-22524,68	123,00
-22466,33	290,00
-22408,19	172,00
-22350,23	265,00
-22292,48	246,00
-22234,92	244,00
-22177,55	232,00
-22120,37	216,00
-22063,38	349,00
-22006,58	201,00
-21949,98	301,00
-21893,56	190,00
-21837,33	289,00
-21781,28	302,00
-21725,42	311,00
-21669,74	231,00
-21614,25	285,00
-21558,94	156,00
-21503,81	273,00
-21448,86	268,00
-21394,10	217,00
-21339,51	240,00
-21285,10	163,00
-21230,86	173,00
-21176,81	183,00
-21122,93	135,00
-21069,22	228,00
-21015,69	225,00
-20962,33	272,00
-20909,14	235,00
-20856,13	144,00
-20803,28	317,00
-20750,61	243,00
-20698,10	193,00
-20645,76	311,00
-20593,59	234,00
-20541,59	197,00
-20489,75	248,00
-20438,07	293,00
-20386,56	345,00
-20335,22	288,00
-20284,03	221,00
-20233,01	229,00
-20182,15	180,00
-20131,45	221,00
-20080,91	222,00
-20030,52	284,00
-19980,30	152,00
-19930,23	197,00
-19880,32	257,00
-19830,56	176,00
-19780,96	191,00
-19731,52	159,00
-19682,23	172,00
-19633,09	209,00
-19584,10	290,00
-19535,26	280,00
-19486,58	240,00
-19438,04	205,00
-19389,66	238,00
-19341,42	212,00
-19293,33	196,00
-19245,39	268,00
-19197,60	278,00
-19149,95	199,00
-19102,45	262,00
-19055,09	249,00
-19007,87	312,00
-18960,80	156,00
-18913,87	256,00
-18867,09	303,00
-18820,44	300,00
-18773,94	292,00
-18727,57	203,00
-18681,35	176,00
-18635,26	194,00
-18589,31	186,00
-18543,50	308,00
-18497,83	229,00
-18452,29	158,00
-18406,89	198,00
-18361,63	318,00
-18316,50	338,00
-18271,50	179,00
-18226,63	277,00
-18181,90	290,00
-18137,30	226,00
-18092,84	224,00
-18048,50	271,00
-18004,29	302,00
-17960,22	281,00
-17916,27	264,00
-17872,45	330,00
-17828,76	294,00
-17785,20	287,00
-17741,77	146,00
-17698,46	228,00
-17655,28	225,00
-17612,22	226,00
-17569,29	253,00
-17526,48	241,00
-17483,79	203,00
-17441,23	343,00
-17398,79	186,00
-17356,48	336,00
-17314,28	155,00
-17272,21	275,00
-17230,26	267,00
-17188,42	289,00
-17146,71	258,00
-17105,12	284,00
-17063,64	147,00
-17022,28	222,00
-16981,04	277,00
-16939,92	264,00
-16898,91	210,00
-16858,02	248,00
-16817,25	132,00
-16776,59	303,00
-16736,04	200,00
-16695,61	197,00
-16655,29	217,00
-16615,09	245,00
-16574,99	190,00
-16535,01	308,00
-16495,15	206,00
-16455,39	224,00
-16415,74	220,00
-16376,21	231,00
-16336,78	203,00
-16297,46	352,00
-16258,26	312,00
-16219,16	267,00
-16180,17	244,00
-16141,28	253,00
-16102,51	158,00
-16063,84	205,00
-16025,27	219,00
-15986,82	239,00
-15948,46	199,00
-15910,22	212,00
-15872,07	256,00
-15834,04	154,00
-15796,10	330,00
-15758,27	228,00
-15720,54	160,00
-15682,91	157,00
-15645,39	214,00
-15607,97	136,00
-15570,64	230,00
-15533,42	198,00
-15496,30	188,00
-15459,28	281,00
-15422,36	276,00
-15385,54	302,00
-15348,82	252,00
-15312,19	309,00
-15275,66	257,00
-15239,23	228,00
-15202,90	255,00
-15166,67	183,00
-15130,53	161,00
-15094,48	180,00
-15058,54	270,00
-15022,68	355,00
-14986,93	228,00
-14951,26	279,00
-14915,69	274,00
-14880,22	227,00
-14844,84	332,00
-14809,55	278,00
-14774,35	255,00
-14739,25	240,00
-14704,24	262,00
-14669,32	232,00
-14634,49	183,00
-14599,75	224,00
-14565,10	207,00
-14530,55	219,00
-14496,08	305,00
-14461,70	175,00
-14427,41	176,00
-14393,21	244,00
-14359,10	359,00
-14325,07	245,00
-14291,14	200,00
-14257,29	295,00
-14223,52	226,00
-14189,85	195,00
-14156,26	306,00
-14122,76	239,00
-14089,34	223,00
-14056,01	342,00
-14022,76	271,00
-13989,60	286,00
-13956,52	327,00
-13923,53	171,00
-13890,62	276,00
-13857,79	245,00
-13825,05	364,00
-13792,39	268,00
-13759,81	274,00
-13727,31	189,00
-13694,90	311,00
-13662,57	174,00
-13630,31	189,00
-13598,14	302,00
-13566,05	199,00
-13534,05	200,00
-13502,12	202,00
-13470,27	256,00
-13438,50	264,00
-13406,80	216,00
-13375,19	199,00
-13343,66	118,00
-13312,20	215,00
-13280,83	241,00
-13249,53	221,00
-13218,30	271,00
-13187,16	212,00
-13156,09	322,00
-13125,10	307,00
-13094,18	218,00
-13063,34	249,00
-13032,58	162,00
-13001,89	255,00
-12971,28	331,00
-12940,74	168,00
-12910,27	210,00
-12879,88	161,00
-12849,57	202,00
-12819,33	230,00
-12789,16	191,00
-12759,06	224,00
-12729,04	355,00
-12699,09	583,00
-12669,21	224,00
-12639,41	270,00
-12609,68	182,00
-12580,02	240,00
-12550,43	223,00
-12520,91	128,00
-12491,46	204,00
-12462,08	198,00
-12432,77	279,00
-12403,54	312,00
-12374,37	252,00
-12345,27	238,00
-12316,24	249,00
-12287,29	300,00
-12258,40	122,00
-12229,57	136,00
-12200,82	226,00
-12172,14	382,00
-12143,52	297,00
-12114,97	140,00
-12086,49	296,00
-12058,07	163,00
-12029,73	294,00
-12001,44	271,00
-11973,23	279,00
-11945,08	301,00
-11917,00	277,00
-11888,98	253,00
-11861,03	343,00
-11833,15	232,00
-11805,32	281,00
-11777,57	329,00
-11749,88	272,00
-11722,25	175,00
-11694,69	397,00
-11667,19	104,00
-11639,75	444,00
-11612,38	251,00
-11585,07	207,00
-11557,83	251,00
-11530,65	279,00
-11503,53	243,00
-11476,47	238,00
-11449,48	208,00
-11422,54	257,00
-11395,67	233,00
-11368,86	182,00
-11342,11	190,00
-11315,43	290,00
-11288,80	344,00
-11262,23	192,00
-11235,73	323,00
-11209,28	400,00
-11182,90	336,00
-11156,57	271,00
-11130,31	310,00
-11104,10	215,00
-11077,96	260,00
-11051,87	434,00
-11025,84	309,00
-10999,87	230,00
-10973,96	232,00
-10948,11	183,00
-10922,31	232,00
-10896,58	264,00
-10870,90	269,00
-10845,28	330,00
-10819,71	238,00
-10794,20	361,00
-10768,75	376,00
-10743,36	286,00
-10718,02	303,00
-10692,74	379,00
-10667,52	308,00
-10642,35	378,00
-10617,24	341,00
-10592,18	343,00
-10567,18	437,00
-10542,23	363,00
-10517,34	379,00
-10492,51	457,00
-10467,72	417,00
-10443,00	474,00
-10418,32	574,00
-10393,70	456,00
-10369,14	512,00
-10344,63	542,00
-10320,17	658,00
-10295,77	552,00
-10271,42	667,00
-10247,12	828,00
-10222,88	687,00
-10198,68	817,00
-10174,54	799,00
-10150,46	933,00
-10126,42	887,00
-10102,44	1012,00
-10078,51	1058,00
-10054,63	1029,00
-10030,80	1054,00
-10007,03	1271,00
-9983,30	1123,00
-9959,63	1241,00
-9936,01	1330,00
-9912,44	1291,00
-9888,92	1416,00
-9865,44	1418,00
-9842,02	1536,00
-9818,65	1631,00
-9795,33	1590,00
-9772,06	1664,00
-9748,84	1775,00
-9725,67	2107,00
-9702,55	2276,00
-9679,47	2710,00
-9656,45	2829,00
-9633,47	2983,00
-9610,55	3042,00
-9587,67	3086,00
-9564,84	3513,00
-9542,06	3643,00
-9519,32	4074,00
-9496,64	4347,00
-9474,00	4728,00
-9451,41	4766,00
-9428,87	4829,00
-9406,37	4555,00
-9383,92	4179,00
-9361,52	3986,00
-9339,17	4194,00
-9316,86	4739,00
-9294,60	5120,00
-9272,38	5681,00
-9250,21	6137,00
-9228,09	6159,00
-9206,01	5851,00
-9183,98	5268,00
-9162,00	4677,00
-9140,06	4412,00
-9118,16	4285,00
-9096,31	4493,00
-9074,51	4648,00
-9052,75	4787,00
-9031,04	4590,00
-9009,37	4017,00
-8987,74	3525,00
-8966,16	3106,00
-8944,63	2888,00
-8923,14	2876,00
-8901,69	2969,00
-8880,29	3234,00
-8858,93	3681,00
-8837,61	4104,00
-8816,34	4198,00
-8795,11	4299,00
-8773,92	3941,00
-8752,78	3433,00
-8731,68	3343,00
-8710,62	3410,00
-8689,61	3576,00
-8668,63	3950,00
-8647,70	4130,00
-8626,82	4153,00
-8605,97	3893,00
-8585,17	3534,00
-8564,41	3330,00
-8543,69	3036,00
-8523,01	2908,00
-8502,37	3027,00
-8481,78	3038,00
-8461,23	3377,00
-8440,71	3642,00
-8420,24	3670,00
-8399,81	3901,00
-8379,42	3638,00
-8359,08	3567,00
-8338,77	3093,00
-8318,50	2964,00
-8298,27	2766,00
-8278,09	2949,00
-8257,94	3137,00
-8237,83	3363,00
-8217,76	3618,00
-8197,74	3605,00
-8177,75	3532,00
-8157,80	3210,00
-8137,89	3071,00
-8118,02	2880,00
-8098,19	3033,00
-8078,40	2920,00
-8058,65	3294,00
-8038,93	3297,00
-8019,26	3284,00
-7999,62	3138,00
-7980,02	3027,00
-7960,46	2921,00
-7940,94	2695,00
-7921,46	2783,00
-7902,01	2785,00
-7882,60	2709,00
-7863,23	2792,00
-7843,90	2832,00
-7824,61	3128,00
-7805,35	3252,00
-7786,13	3295,00
-7766,95	3163,00
-7747,80	2974,00
-7728,69	2888,00
-7709,62	2821,00
-7690,59	3011,00
-7671,59	3256,00
-7652,63	3311,00
-7633,70	3439,00
-7614,81	3268,00
-7595,96	2950,00
-7577,15	2713,00
-7558,37	2825,00
-7539,62	2908,00
-7520,91	3041,00
-7502,24	3362,00
-7483,60	3542,00
-7465,00	3014,00
-7446,44	2813,00
-7427,91	2413,00
-7409,41	2405,00
-7390,95	1933,00
-7372,53	1876,00
-7354,14	2079,00
-7335,78	2246,00
-7317,46	2349,00
-7299,18	2479,00
-7280,92	2869,00
-7262,71	3177,00
-7244,52	3320,00
-7226,38	3407,00
-7208,26	3251,00
-7190,18	3052,00
-7172,14	2698,00
-7154,12	2892,00
-7136,15	2901,00
-7118,20	3100,00
-7100,29	3244,00
-7082,41	3250,00
-7064,57	3004,00
-7046,76	2826,00
-7028,98	2491,00
-7011,24	2367,00
-6993,53	1925,00
-6975,85	1730,00
-6958,20	1610,00
-6940,59	1529,00
-6923,01	1739,00
-6905,46	1920,00
-6887,94	2322,00
-6870,46	2779,00
-6853,01	2950,00
-6835,59	2817,00
-6818,21	2632,00
-6800,85	2248,00
-6783,53	1898,00
-6766,24	1585,00
-6748,98	1346,00
-6731,76	1302,00
-6714,56	1363,00
-6697,40	1212,00
-6680,26	1284,00
-6663,16	1595,00
-6646,09	1967,00
-6629,05	2211,00
-6612,05	2333,00
-6595,07	2487,00
-6578,13	2210,00
-6561,21	1817,00
-6544,33	1364,00
-6527,47	1279,00
-6510,65	1078,00
-6493,86	1059,00
-6477,10	1063,00
-6460,36	1106,00
-6443,66	1014,00
-6426,99	1115,00
-6410,35	1088,00
-6393,74	1258,00
-6377,16	1506,00
-6360,61	1715,00
-6344,09	1718,00
-6327,59	1796,00
-6311,13	1839,00
-6294,70	1656,00
-6278,29	1961,00
-6261,92	2004,00
-6245,58	2148,00
-6229,26	2109,00
-6212,97	1997,00
-6196,72	1670,00
-6180,49	1278,00
-6164,29	834,00
-6148,12	716,00
-6131,98	679,00
-6115,86	679,00
-6099,78	768,00
-6083,72	689,00
-6067,69	655,00
-6051,69	658,00
-6035,72	728,00
-6019,78	923,00
-6003,87	1234,00
-5987,98	1575,00
-5972,12	1736,00
-5956,29	1808,00
-5940,49	1486,00
-5924,71	1276,00
-5908,96	1048,00
-5893,24	856,00
-5877,55	839,00
-5861,89	791,00
-5846,25	906,00
-5830,64	922,00
-5815,05	937,00
-5799,50	881,00
-5783,97	1042,00
-5768,47	1105,00
-5752,99	1245,00
-5737,55	1537,00
-5722,12	1624,00
-5706,73	1597,00
-5691,36	1417,00
-5676,02	1089,00
-5660,71	829,00
-5645,42	841,00
-5630,16	922,00
-5614,92	1057,00
-5599,71	1248,00
-5584,53	1401,00
-5569,37	1369,00
-5554,24	2189,00
-5539,14	1044,00
-5524,06	1123,00
-5509,01	1108,00
-5493,98	1103,00
-5478,98	1236,00
-5464,00	1094,00
-5449,05	1045,00
-5434,13	970,00
-5419,23	765,00
-5404,36	889,00
-5389,51	1191,00
-5374,69	1532,00
-5359,89	1833,00
-5345,12	1910,00
-5330,37	1691,00
-5315,65	1462,00
-5300,95	1238,00
-5286,28	1075,00
-5271,63	1075,00
-5257,01	1194,00
-5242,41	1186,00
-5227,84	910,00
-5213,29	817,00
-5198,76	584,00
-5184,26	701,00
-5169,79	733,00
-5155,33	962,00
-5140,91	1126,00
-5126,51	1476,00
-5112,13	1402,00
-5097,77	1156,00
-5083,44	938,00
-5069,13	798,00
-5054,85	746,00
-5040,59	900,00
-5026,36	1131,00
-5012,15	1147,00
-4997,96	1177,00
-4983,80	954,00
-4969,66	807,00
-4955,54	755,00
-4941,44	891,00
-4927,37	1341,00
-4913,33	1646,00
-4899,30	1949,00
-4885,30	1773,00
-4871,33	1325,00
-4857,37	793,00
-4843,44	694,00
-4829,53	657,00
-4815,65	832,00
-4801,79	870,00
-4787,95	982,00
-4774,13	825,00
-4760,34	748,00
-4746,56	561,00
-4732,82	720,00
-4719,09	839,00
-4705,38	1288,00
-4691,70	1634,00
-4678,04	1661,00
-4664,41	1211,00
-4650,79	866,00
-4637,20	772,00
-4623,63	735,00
-4610,08	931,00
-4596,56	1131,00
-4583,05	1121,00
-4569,57	957,00
-4556,11	794,00
-4542,67	435,00
-4529,25	662,00
-4515,86	987,00
-4502,49	1267,00
-4489,13	1329,00
-4475,80	1250,00
-4462,49	871,00
-4449,21	764,00
-4435,94	678,00
-4422,70	814,00
-4409,47	885,00
-4396,27	975,00
-4383,09	775,00
-4369,93	563,00
-4356,79	486,00
-4343,67	587,00
-4330,58	730,00
-4317,50	910,00
-4304,45	721,00
-4291,41	608,00
-4278,40	416,00
-4265,41	484,00
-4252,44	764,00
-4239,49	778,00
-4226,55	886,00
-4213,65	716,00
-4200,76	533,00
-4187,89	370,00
-4175,04	505,00
-4162,21	499,00
-4149,40	453,00
-4136,61	345,00
-4123,85	399,00
-4111,10	322,00
-4098,37	479,00
-4085,66	459,00
-4072,98	472,00
-4060,31	288,00
-4047,66	446,00
-4035,04	375,00
-4022,43	378,00
-4009,84	369,00
-3997,27	362,00
-3984,72	189,00
-3972,19	402,00
-3959,69	264,00
-3947,20	237,00
-3934,73	229,00
-3922,27	187,00
-3909,84	274,00
-3897,43	100,00
-3885,04	296,00
-3872,67	302,00
-3860,31	266,00
-3847,98	300,00
-3835,66	217,00
-3823,36	206,00
-3811,09	98,00
-3798,83	225,00
-3786,59	249,00
-3774,37	394,00
-3762,17	306,00
-3749,98	282,00
-3737,82	174,00
-3725,67	261,00
-3713,55	229,00
-3701,44	329,00
-3689,35	268,00
-3677,28	273,00
-3665,22	146,00
-3653,19	262,00
-3641,17	261,00
-3629,18	247,00
-3617,20	272,00
-3605,24	263,00
-3593,30	395,00
-3581,37	199,00
-3569,47	321,00
-3557,58	152,00
-3545,71	250,00
-3533,86	239,00
-3522,02	230,00
-3510,21	268,00
-3498,41	172,00
-3486,63	248,00
-3474,87	172,00
-3463,12	319,00
-3451,40	318,00
-3439,69	210,00
-3428,00	247,00
-3416,33	283,00
-3404,67	240,00
-3393,03	253,00
-3381,41	298,00
-3369,81	259,00
-3358,22	274,00
-3346,66	265,00
-3335,10	306,00
-3323,57	292,00
-3312,06	271,00
-3300,56	237,00
-3289,08	197,00
-3277,61	271,00
-3266,16	194,00
-3254,73	247,00
-3243,32	300,00
-3231,92	320,00
-3220,55	226,00
-3209,18	270,00
-3197,84	244,00
-3186,51	130,00
-3175,20	222,00
-3163,90	296,00
-3152,63	248,00
-3141,36	301,00
-3130,12	243,00
-3118,89	196,00
-3107,68	212,00
-3096,49	161,00
-3085,31	183,00
-3074,15	150,00
-3063,00	259,00
-3051,87	275,00
-3040,76	316,00
-3029,67	233,00
-3018,59	314,00
-3007,52	230,00
-2996,48	210,00
-2985,44	269,00
-2974,43	206,00
-2963,43	261,00
-2952,45	327,00
-2941,48	349,00
-2930,53	227,00
-2919,60	322,00
-2908,68	238,00
-2897,78	303,00
-2886,89	267,00
-2876,02	327,00
-2865,17	172,00
-2854,33	136,00
-2843,50	238,00
-2832,70	357,00
-2821,90	109,00
-2811,13	184,00
-2800,37	237,00
-2789,62	330,00
-2778,89	186,00
-2768,18	226,00
-2757,48	273,00
-2746,80	287,00
-2736,13	171,00
-2725,48	354,00
-2714,84	216,00
-2704,22	224,00
-2693,61	159,00
-2683,02	243,00
-2672,45	163,00
-2661,89	297,00
-2651,34	144,00
-2640,81	303,00
-2630,30	316,00
-2619,80	279,00
-2609,31	140,00
-2598,84	256,00
-2588,39	175,00
-2577,95	217,00
-2567,52	192,00
-2557,11	145,00
-2546,71	169,00
-2536,33	192,00
-2525,97	269,00
-2515,62	192,00
-2505,28	325,00
-2494,96	145,00
-2484,65	320,00
-2474,36	416,00
-2464,08	221,00
-2453,82	219,00
-2443,57	221,00
-2433,33	312,00
-2423,11	273,00
-2412,91	340,00
-2402,72	283,00
-2392,54	182,00
-2382,38	249,00
-2372,23	249,00
-2362,09	491,00
-2351,97	293,00
-2341,87	251,00
-2331,78	248,00
-2321,70	192,00
-2311,64	287,00
-2301,59	267,00
-2291,55	196,00
-2281,53	295,00
-2271,53	312,00
-2261,53	192,00
-2251,55	307,00
-2241,59	272,00
-2231,64	227,00
-2221,70	338,00
-2211,78	321,00
-2201,87	320,00
-2191,97	272,00
-2182,09	303,00
-2172,22	356,00
-2162,37	257,00
-2152,53	210,00
-2142,70	233,00
-2132,89	168,00
-2123,09	335,00
-2113,30	259,00
-2103,53	290,00
-2093,77	256,00
-2084,02	222,00
-2074,29	189,00
-2064,57	326,00
-2054,86	199,00
-2045,17	187,00
-2035,49	359,00
-2025,82	217,00
-2016,17	120,00
-2006,53	236,00
-1996,91	367,00
-1987,29	131,00
-1977,69	286,00
-1968,11	279,00
-1958,53	311,00
-1948,97	216,00
-1939,42	219,00
-1929,89	125,00
-1920,37	226,00
-1910,86	245,00
-1901,36	208,00
-1891,88	282,00
-1882,41	222,00
-1872,95	300,00
-1863,51	327,00
-1854,08	319,00
-1844,66	248,00
-1835,26	285,00
-1825,86	193,00
-1816,48	236,00
-1807,11	183,00
-1797,76	325,00
-1788,42	279,00
-1779,09	277,00
-1769,77	188,00
-1760,47	310,00
-1751,17	335,00
-1741,89	186,00
-1732,63	306,00
-1723,37	241,00
-1714,13	266,00
-1704,90	211,00
-1695,68	355,00
-1686,48	298,00
-1677,29	226,00
-1668,11	343,00
-1658,94	244,00
-1649,78	248,00
-1640,64	268,00
-1631,51	264,00
-1622,39	365,00
-1613,28	389,00
-1604,19	265,00
-1595,10	244,00
-1586,03	202,00
-1576,97	329,00
-1567,93	219,00
-1558,89	200,00
-1549,87	184,00
-1540,86	232,00
-1531,86	175,00
-1522,87	230,00
-1513,90	367,00
-1504,93	181,00
-1495,98	224,00
-1487,04	220,00
-1478,12	337,00
-1469,20	251,00
-1460,30	259,00
-1451,40	315,00
-1442,52	299,00
-1433,65	253,00
-1424,80	247,00
-1415,95	238,00
-1407,12	312,00
-1398,30	255,00
-1389,48	263,00
-1380,69	255,00
-1371,90	185,00
-1363,12	328,00
-1354,36	239,00
-1345,60	219,00
-1336,86	243,00
-1328,13	205,00
-1319,41	193,00
-1310,70	158,00
-1302,01	241,00
-1293,32	234,00
-1284,65	238,00
-1275,99	255,00
-1267,33	220,00
-1258,69	164,00
-1250,06	257,00
-1241,45	139,00
-1232,84	223,00
-1224,25	205,00
-1215,66	310,00
-1207,09	339,00
-1198,53	210,00
-1189,97	305,00
-1181,43	185,00
-1172,91	423,00
-1164,39	337,00
-1155,88	266,00
-1147,38	205,00
-1138,90	222,00
-1130,43	302,00
-1121,96	261,00
-1113,51	216,00
-1105,07	215,00
-1096,64	342,00
-1088,22	210,00
-1079,81	200,00
-1071,41	119,00
-1063,02	196,00
-1054,65	193,00
-1046,28	273,00
-1037,92	160,00
-1029,58	236,00
-1021,24	349,00
-1012,92	250,00
-1004,61	306,00
-996,30	385,00
-988,01	48,00
-979,73	200,00
-971,46	328,00
-963,20	248,00
-954,95	207,00
-946,71	172,00
-938,48	190,00
-930,26	336,00
-922,06	236,00
-913,86	313,00
-905,67	296,00
-897,49	258,00
-889,33	213,00
-881,17	287,00
-873,02	246,00
-864,89	227,00
-856,76	206,00
-848,65	303,00
-840,54	261,00
-832,45	326,00
-824,36	210,00
-816,29	345,00
-808,22	338,00
-800,17	282,00
-792,12	378,00
-784,09	226,00
-776,06	245,00
-768,05	250,00
-760,04	267,00
-752,05	324,00
-744,07	376,00
-736,09	208,00
-728,13	275,00
-720,17	305,00
-712,23	371,00
-704,29	261,00
-696,37	229,00
-688,45	336,00
-680,55	267,00
-672,65	174,00
-664,77	313,00
-656,89	203,00
-649,03	187,00
-641,17	357,00
-633,32	354,00
-625,49	252,00
-617,66	337,00
-609,84	222,00
-602,03	297,00
-594,23	319,00
-586,45	244,00
-578,67	309,00
-570,90	397,00
-563,14	228,00
-555,39	111,00
-547,65	261,00
-539,91	221,00
-532,19	232,00
-524,48	234,00
-516,78	185,00
-509,08	149,00
-501,40	228,00
-493,72	211,00
-486,06	232,00
-478,40	342,00
-470,76	226,00
-463,12	239,00
-455,49	184,00
-447,87	316,00
-440,26	213,00
-432,66	216,00
-425,07	207,00
-417,49	246,00
-409,92	148,00
-402,35	181,00
-394,80	238,00
-387,25	280,00
-379,72	231,00
-372,19	149,00
-364,67	319,00
-357,17	287,00
-349,67	213,00
-342,18	311,00
-334,69	277,00
-327,22	199,00
-319,76	352,00
-312,30	184,00
-304,86	365,00
-297,42	205,00
-290,00	334,00
-282,58	217,00
-275,17	332,00
-267,77	308,00
-260,37	356,00
-252,99	240,00
-245,62	318,00
-238,25	415,00
-230,90	311,00
-223,55	351,00
-216,21	340,00
-208,88	324,00
-201,56	349,00
-194,25	411,00
-186,94	444,00
-179,65	472,00
-172,36	381,00
-165,08	430,00
-157,81	492,00
-150,55	522,00
-143,30	518,00
-136,06	499,00
-128,82	704,00
-121,60	668,00
-114,38	770,00
-107,17	625,00
-99,97	918,00
-92,78	907,00
-85,60	981,00
-78,42	1134,00
-71,25	1353,00
-64,10	1412,00
-56,95	1660,00
-49,81	2001,00
-42,67	2428,00
-35,55	2895,00
-28,43	3799,00
-21,33	6409,00
-14,23	20825,00
-7,14	56239,00
-0,05	55969,00
7,02	55668,00
14,09	55972,00
21,14	16688,00
28,19	7038,00
35,23	4628,00
42,27	3553,00
49,29	2977,00
56,31	2447,00
63,32	2298,00
70,32	1763,00
77,31	1570,00
84,29	1382,00
91,27	1252,00
98,23	1050,00
105,19	1129,00
112,14	1188,00
119,09	1431,00
126,02	2219,00
132,95	2502,00
139,87	2550,00
146,78	2443,00
153,68	2397,00
160,58	2419,00
167,46	2392,00
174,34	2262,00
181,21	2239,00
188,08	2364,00
194,93	2133,00
201,78	2175,00
208,62	2230,00
215,45	2150,00
222,27	2202,00
229,09	2248,00
235,90	2098,00
242,70	2029,00
249,49	2101,00
256,27	2073,00
263,05	2105,00
269,82	2027,00
276,58	2015,00
283,33	2077,00
290,08	1860,00
296,82	1930,00
303,55	1901,00
310,27	2100,00
316,98	1901,00
323,69	1946,00
330,39	1934,00
337,08	1819,00
343,76	1892,00
350,44	1872,00
357,11	1791,00
363,77	1820,00
370,42	1782,00
377,07	1771,00
383,71	1713,00
390,34	1818,00
396,96	1618,00
403,58	1735,00
410,19	1896,00
416,79	1892,00
423,38	1786,00
429,97	1778,00
436,55	1609,00
443,12	1692,00
449,68	1562,00
456,24	1541,00
462,79	1612,00
469,33	1614,00
475,86	1622,00
482,39	1474,00
488,91	1570,00
495,42	1568,00
501,93	1429,00
508,42	1444,00
514,91	1574,00
521,40	1432,00
527,87	1597,00
534,34	1386,00
540,80	1401,00
547,25	1465,00
553,70	1449,00
560,14	1415,00
566,57	1431,00
573,00	1416,00
579,41	1409,00
585,83	1420,00
592,23	1468,00
598,62	1383,00
605,01	1392,00
611,40	1271,00
617,77	1569,00
624,14	1405,00
630,50	1509,00
636,85	1362,00
643,20	1425,00
649,54	1328,00
655,87	1338,00
662,20	1380,00
668,52	1433,00
674,83	1338,00
681,13	1299,00
687,43	1327,00
693,72	1335,00
700,00	1184,00
706,28	1293,00
712,55	1275,00
718,81	1318,00
725,07	1206,00
731,32	1231,00
737,56	1162,00
743,79	1264,00
750,02	1324,00
756,24	1270,00
762,46	1289,00
768,67	1285,00
774,87	1265,00
781,06	1085,00
787,25	1238,00
793,43	1294,00
799,60	1196,00
805,77	1268,00
811,93	1342,00
818,08	1055,00
824,23	1172,00
830,37	1312,00
836,50	1301,00
842,63	1197,00
848,75	1421,00
854,87	1284,00
860,97	1251,00
867,07	1241,00
873,17	1334,00
879,25	1291,00
885,33	1220,00
891,41	1160,00
897,47	1266,00
903,53	1245,00
909,59	1242,00
915,63	1225,00
921,67	1121,00
927,71	1118,00
933,74	1104,00
939,76	1151,00
945,77	1124,00
951,78	1091,00
957,78	1162,00
963,78	1031,00
969,77	1203,00
975,75	1054,00
981,72	1145,00
987,69	1391,00
993,66	1015,00
999,61	1145,00
1005,56	1323,00
1011,51	1113,00
1017,44	1201,00
1023,37	1128,00
1029,30	994,00
1035,22	1153,00
1041,13	1188,00
1047,03	1241,00
1052,93	1351,00
1058,83	1457,00
1064,71	1688,00
1070,59	1496,00
1076,47	1208,00
1082,33	1310,00
1088,20	1264,00
1094,05	1129,00
1099,90	1204,00
1105,74	1014,00
1111,58	1118,00
1117,41	1275,00
1123,23	1382,00
1129,05	1585,00
1134,86	1427,00
1140,67	1260,00
1146,47	1133,00
1152,26	1121,00
1158,05	991,00
1163,83	1112,00
1169,60	1031,00
1175,37	1097,00
1181,13	1120,00
1186,89	1106,00
1192,64	1077,00
1198,38	961,00
1204,12	1025,00
1209,85	927,00
1215,58	1053,00
1221,30	996,00
1227,02	967,00
1232,72	1031,00
1238,43	895,00
1244,12	1051,00
1249,81	1078,00
1255,50	1116,00
1261,17	1144,00
1266,85	996,00
1272,51	1067,00
1278,17	1171,00
1283,83	1221,00
1289,47	1625,00
1295,12	1916,00
1300,75	1885,00
1306,38	1442,00
1312,01	1439,00
1317,63	1320,00
1323,24	1183,00
1328,85	1237,00
1334,45	1182,00
1340,04	1169,00
1345,63	1230,00
1351,22	1125,00
1356,80	1144,00
1362,37	1188,00
1367,93	1192,00
1373,49	1173,00
1379,05	1090,00
1384,60	1125,00
1390,14	1126,00
1395,68	1143,00
1401,21	1180,00
1406,74	1361,00
1412,26	1318,00
1417,77	1405,00
1423,28	1476,00
1428,78	1573,00
1434,28	1691,00
1439,77	2030,00
1445,26	1989,00
1450,74	1837,00
1456,22	1792,00
1461,68	1780,00
1467,15	1618,00
1472,61	1394,00
1478,06	1346,00
1483,51	1181,00
1488,95	1109,00
1494,38	1213,00
1499,81	1060,00
1505,24	966,00
1510,65	917,00
1516,07	987,00
1521,48	1027,00
1526,88	938,00
1532,27	1029,00
1537,67	849,00
1543,05	1027,00
1548,43	878,00
1553,81	919,00
1559,18	867,00
1564,54	1015,00
1569,90	1023,00
1575,25	903,00
1580,60	879,00
1585,94	905,00
1591,28	888,00
1596,61	810,00
1601,93	783,00
1607,25	795,00
1612,57	766,00
1617,88	948,00
1623,18	1018,00
1628,48	890,00
1633,77	810,00
1639,06	857,00
1644,34	867,00
1649,62	838,00
1654,89	773,00
1660,16	811,00
1665,42	811,00
1670,67	871,00
1675,92	776,00
1681,17	734,00
1686,41	794,00
1691,64	799,00
1696,87	773,00
1702,10	824,00
1707,32	758,00
1712,53	829,00
1717,74	822,00
1722,94	856,00
1728,14	752,00
1733,33	658,00
1738,52	732,00
1743,70	778,00
1748,88	732,00
1754,05	802,00
1759,22	769,00
1764,38	802,00
1769,53	772,00
1774,69	809,00
1779,83	842,00
1784,97	779,00
1790,11	718,00
1795,24	762,00
1800,36	731,00
1805,48	806,00
1810,60	601,00
1815,71	695,00
1820,82	831,00
1825,92	713,00
1831,01	650,00
1836,10	620,00
1841,19	651,00
1846,26	662,00
1851,34	674,00
1856,41	662,00
1861,47	672,00
1866,53	578,00
1871,59	651,00
1876,64	619,00
1881,68	737,00
1886,72	605,00
1891,76	714,00
1896,79	618,00
1901,81	689,00
1906,83	654,00
1911,85	559,00
1916,86	706,00
1921,86	606,00
1926,86	710,00
1931,86	556,00
1936,85	591,00
1941,83	610,00
1946,81	628,00
1951,79	676,00
1956,76	635,00
1961,72	654,00
1966,68	486,00
1971,64	572,00
1976,59	632,00
1981,54	519,00
1986,48	578,00
1991,42	559,00
1996,35	705,00
2001,27	600,00
2006,20	410,00
2011,11	660,00
2016,03	458,00
2020,93	484,00
2025,84	463,00
2030,73	603,00
2035,63	554,00
2040,52	514,00
2045,40	459,00
2050,28	513,00
2055,15	529,00
2060,02	514,00
2064,89	474,00
2069,75	600,00
2074,60	649,00
2079,46	541,00
2084,30	370,00
2089,14	535,00
2093,98	466,00
2098,81	553,00
2103,64	503,00
2108,46	487,00
2113,28	565,00
2118,09	485,00
2122,90	563,00
2127,70	450,00
2132,50	527,00
2137,30	517,00
2142,09	433,00
2146,87	409,00
2151,66	496,00
2156,43	504,00
2161,20	494,00
2165,97	355,00
2170,73	447,00
2175,49	532,00
2180,24	576,00
2184,99	516,00
2189,74	576,00
2194,48	593,00
2199,21	480,00
2203,94	399,00
2208,67	558,00
2213,39	471,00
2218,11	379,00
2222,82	560,00
2227,53	444,00
2232,23	504,00
2236,93	507,00
2241,63	534,00
2246,32	376,00
2251,00	444,00
2255,68	465,00
2260,36	411,00
2265,03	566,00
2269,70	511,00
2274,36	442,00
2279,02	336,00
2283,68	508,00
2288,33	527,00
2292,97	343,00
2297,61	434,00
2302,25	486,00
2306,88	430,00
2311,51	362,00
2316,14	557,00
2320,75	348,00
2325,37	422,00
2329,98	488,00
2334,59	308,00
2339,19	480,00
2343,79	383,00
2348,38	399,00
2352,97	447,00
2357,55	478,00
2362,13	561,00
2366,71	469,00
2371,28	427,00
2375,85	454,00
2380,41	416,00
2384,97	473,00
2389,52	416,00
2394,07	470,00
2398,62	476,00
2403,16	384,00
2407,70	402,00
2412,23	436,00
2416,76	479,00
2421,29	310,00
2425,81	513,00
2430,32	403,00
2434,84	382,00
2439,34	569,00
2443,85	461,00
2448,35	388,00
2452,84	353,00
2457,33	403,00
2461,82	437,00
2466,30	313,00
2470,78	397,00
2475,25	477,00
2479,72	355,00
2484,19	393,00
2488,65	417,00
2493,11	415,00
2497,56	481,00
2502,01	335,00
2506,46	504,00
2510,90	415,00
2515,34	398,00
2519,77	278,00
2524,20	439,00
2528,62	350,00
2533,04	445,00
2537,46	353,00
2541,87	391,00
2546,28	394,00
2550,68	323,00
2555,08	385,00
2559,48	328,00
2563,87	324,00
2568,26	332,00
2572,64	452,00
2577,02	393,00
2581,40	330,00
2585,77	414,00
2590,14	362,00
2594,50	330,00
2598,86	294,00
2603,22	363,00
2607,57	392,00
2611,92	463,00
2616,26	330,00
2620,60	301,00
2624,94	418,00
2629,27	454,00
2633,60	447,00
2637,92	449,00
2642,24	505,00
2646,56	434,00
2650,87	403,00
2655,18	418,00
2659,48	280,00
2663,78	459,00
2668,08	443,00
2672,37	424,00
2676,66	488,00
2680,95	422,00
2685,23	551,00
2689,50	373,00
2693,78	463,00
2698,05	448,00
2702,31	487,00
2706,57	377,00
2710,83	448,00
2715,08	426,00
2719,33	526,00
2723,58	547,00
2727,82	507,00
2732,06	428,00
2736,29	506,00
2740,53	453,00
2744,75	441,00
2748,97	499,00
2753,19	370,00
2757,41	511,00
2761,62	517,00
2765,83	415,00
2770,03	469,00
2774,23	365,00
2778,43	471,00
2782,62	336,00
2786,81	482,00
2791,00	490,00
2795,18	485,00
2799,35	578,00
2803,53	395,00
2807,70	535,00
2811,86	485,00
2816,03	583,00
2820,19	538,00
2824,34	593,00
2828,49	665,00
2832,64	659,00
2836,78	870,00
2840,92	1100,00
2845,06	1116,00
2849,19	1395,00
2853,32	1439,00
2857,45	1534,00
2861,57	1544,00
2865,69	1448,00
2869,80	1442,00
2873,91	1520,00
2878,02	1417,00
2882,12	1623,00
2886,22	1552,00
2890,32	1574,00
2894,41	1482,00
2898,50	1279,00
2902,58	1266,00
2906,67	1280,00
2910,74	1228,00
2914,82	1118,00
2918,89	1086,00
2922,96	978,00
2927,02	852,00
2931,08	849,00
2935,13	806,00
2939,19	744,00
2943,24	748,00
2947,28	757,00
2951,32	685,00
2955,36	594,00
2959,40	700,00
2963,43	472,00
2967,46	574,00
2971,48	515,00
2975,50	432,00
2979,52	492,00
2983,53	430,00
2987,54	412,00
2991,55	379,00
2995,55	378,00
2999,55	399,00
3003,54	325,00
3007,54	468,00
3011,53	322,00
3015,51	460,00
3019,49	326,00
3023,47	332,00
3027,45	354,00
3031,42	354,00
3035,39	356,00
3039,35	407,00
3043,31	328,00
3047,27	357,00
3051,22	421,00
3055,17	347,00
3059,12	281,00
3063,06	339,00
3067,00	307,00
3070,94	216,00
3074,87	363,00
3078,80	294,00
3082,73	305,00
3086,65	276,00
3090,57	230,00
3094,49	262,00
3098,40	237,00
3102,31	150,00
3106,22	224,00
3110,12	279,00
3114,02	244,00
3117,92	322,00
3121,81	279,00
3125,70	200,00
3129,58	261,00
3133,47	167,00
3137,34	371,00
3141,22	317,00
3145,09	318,00
3148,96	238,00
3152,83	247,00
3156,69	425,00
3160,55	321,00
3164,40	354,00
3168,26	284,00
3172,10	229,00
3175,95	383,00
3179,79	352,00
3183,63	355,00
3187,47	241,00
3191,30	268,00
3195,13	216,00
3198,95	159,00
3202,78	183,00
3206,60	148,00
3210,41	264,00
3214,23	372,00
3218,03	250,00
3221,84	335,00
3225,64	289,00
3229,44	310,00
3233,24	185,00
3237,03	315,00
3240,82	239,00
3244,61	225,00
3248,39	298,00
3252,17	181,00
3255,95	328,00
3259,72	309,00
3263,49	372,00
3267,26	240,00
3271,03	273,00
3274,79	254,00
3278,54	282,00
3282,30	279,00
3286,05	391,00
3289,80	324,00
3293,54	367,00
3297,29	267,00
3301,02	269,00
3304,76	258,00
3308,49	340,00
3312,22	200,00
3315,95	271,00
3319,67	248,00
3323,39	300,00
3327,10	262,00
3330,82	157,00
3334,53	223,00
3338,24	292,00
3341,94	300,00
3345,64	218,00
3349,34	292,00
3353,03	316,00
3356,72	406,00
3360,41	307,00
3364,10	356,00
3367,78	310,00
3371,46	310,00
3375,13	261,00
3378,81	320,00
3382,48	197,00
3386,14	356,00
3389,81	179,00
3393,47	230,00
3397,12	349,00
3400,78	335,00
3404,43	254,00
3408,08	267,00
3411,72	187,00
3415,36	252,00
3419,00	264,00
3422,64	204,00
3426,27	298,00
3429,90	189,00
3433,53	289,00
3437,15	246,00
3440,77	256,00
3444,39	259,00
3448,00	297,00
3451,62	194,00
3455,22	230,00
3458,83	309,00
3462,43	320,00
3466,03	193,00
3469,63	340,00
3473,22	279,00
3476,81	295,00
3480,40	264,00
3483,99	164,00
3487,57	255,00
3491,15	312,00
3494,72	236,00
3498,29	284,00
3501,86	249,00
3505,43	180,00
3508,99	251,00
3512,56	344,00
3516,11	255,00
3519,67	186,00
3523,22	305,00
3526,77	268,00
3530,32	215,00
3533,86	238,00
3537,40	270,00
3540,94	272,00
3544,47	250,00
3548,00	260,00
3551,53	263,00
3555,06	189,00
3558,58	257,00
3562,10	258,00
3565,62	177,00
3569,13	201,00
3572,64	183,00
3576,15	212,00
3579,66	148,00
3583,16	328,00
3586,66	318,00
3590,16	276,00
3593,65	223,00
3597,14	257,00
3600,63	290,00
3604,11	257,00
3607,60	217,00
3611,08	182,00
3614,55	237,00
3618,03	264,00
3621,50	261,00
3624,97	243,00
3628,43	253,00
3631,90	296,00
3635,36	209,00
3638,81	209,00
3642,27	294,00
3645,72	272,00
3649,17	243,00
3652,61	215,00
3656,06	255,00
3659,50	116,00
3662,93	200,00
3666,37	159,00
3669,80	354,00
3673,23	286,00
3676,65	394,00
3680,08	265,00
3683,50	186,00
3686,92	271,00
3690,33	222,00
3693,74	240,00
3697,15	225,00
3700,56	310,00
3703,96	261,00
3707,36	80,00
3710,76	224,00
3714,16	213,00
3717,55	192,00
3720,94	106,00
3724,33	160,00
3727,71	271,00
3731,10	272,00
3734,48	211,00
3737,85	139,00
3741,23	193,00
3744,60	97,00
3747,97	210,00
3751,33	173,00
3754,69	223,00
3758,05	120,00
3761,41	215,00
3764,77	220,00
3768,12	208,00
3771,47	192,00
3774,82	208,00
3778,16	-6,00
3781,50	1,00
3784,84	-5,00
3788,18	6,00
>>>>>End Processed Spectral Data<<<<<
