SpectraSuite Data File
++++++++++++++++++++++++++++++++++++
Date: Tue Mar 03 10:53:20 ICT 2026
User: user
Dark Spectrum Present: Yes
Reference Spectrum Present: No
Number of Sampled Component Spectra: 1
Spectrometers: MAYP113682
Integration Time (usec): 3000000 (MAYP113682)
Spectra Averaged: 1 (MAYP113682)
Boxcar Smoothing: 0 (MAYP113682)
Correct for Electrical Dark: No (MAYP113682)
Strobe/Lamp Enabled: No (MAYP113682)
Correct for Detector Non-linearity: No (MAYP113682)
Correct for Stray Light: No (MAYP113682)
Number of Pixels in Processed Spectrum: 2068
>>>>>Begin Processed Spectral Data<<<<<
-37534,58	21,00
-37414,56	1,00
-37295,11	4,00
-37176,24	4,00
-37057,95	413,00
-36940,22	347,00
-36823,05	473,00
-36706,45	512,00
-36590,40	561,00
-36474,90	485,00
-36359,95	629,00
-36245,55	394,00
-36131,68	490,00
-36018,35	555,00
-35905,55	626,00
-35793,29	570,00
-35681,54	651,00
-35570,32	638,00
-35459,62	585,00
-35349,43	512,00
-35239,75	720,00
-35130,58	546,00
-35021,91	511,00
-34913,74	595,00
-34806,07	532,00
-34698,89	602,00
-34592,20	560,00
-34486,00	537,00
-34380,28	577,00
-34275,04	452,00
-34170,27	494,00
-34065,98	661,00
-33962,16	591,00
-33858,81	516,00
-33755,92	522,00
-33653,49	683,00
-33551,52	698,00
-33450,01	649,00
-33348,94	610,00
-33248,33	542,00
-33148,16	558,00
-33048,43	504,00
-32949,14	587,00
-32850,29	611,00
-32751,87	552,00
-32653,89	604,00
-32556,33	577,00
-32459,20	655,00
-32362,49	541,00
-32266,19	613,00
-32170,32	624,00
-32074,86	611,00
-31979,82	671,00
-31885,18	640,00
-31790,95	597,00
-31697,12	553,00
-31603,69	678,00
-31510,67	661,00
-31418,04	601,00
-31325,80	579,00
-31233,95	627,00
-31142,49	627,00
-31051,42	677,00
-30960,73	574,00
-30870,43	684,00
-30780,50	624,00
-30690,95	555,00
-30601,77	652,00
-30512,97	535,00
-30424,53	646,00
-30336,46	593,00
-30248,76	590,00
-30161,42	718,00
-30074,44	586,00
-29987,81	600,00
-29901,55	581,00
-29815,63	677,00
-29730,07	613,00
-29644,86	549,00
-29560,00	711,00
-29475,48	661,00
-29391,30	555,00
-29307,47	569,00
-29223,97	614,00
-29140,81	551,00
-29057,99	575,00
-28975,50	564,00
-28893,34	758,00
-28811,51	510,00
-28730,00	540,00
-28648,82	534,00
-28567,97	698,00
-28487,43	626,00
-28407,21	502,00
-28327,32	498,00
-28247,73	729,00
-28168,46	601,00
-28089,50	592,00
-28010,85	496,00
-27932,51	577,00
-27854,48	672,00
-27776,75	461,00
-27699,32	591,00
-27622,19	775,00
-27545,37	538,00
-27468,84	566,00
-27392,60	737,00
-27316,66	654,00
-27241,01	652,00
-27165,66	540,00
-27090,59	617,00
-27015,81	645,00
-26941,31	648,00
-26867,10	659,00
-26793,17	631,00
-26719,52	689,00
-26646,15	611,00
-26573,06	619,00
-26500,24	606,00
-26427,70	583,00
-26355,43	596,00
-26283,43	648,00
-26211,71	580,00
-26140,25	575,00
-26069,06	759,00
-25998,13	549,00
-25927,46	557,00
-25857,06	573,00
-25786,92	608,00
-25717,04	564,00
-25647,42	703,00
-25578,05	635,00
-25508,94	586,00
-25440,09	761,00
-25371,48	613,00
-25303,13	570,00
-25235,02	554,00
-25167,17	719,00
-25099,56	641,00
-25032,19	472,00
-24965,07	626,00
-24898,20	598,00
-24831,56	594,00
-24765,17	655,00
-24699,01	595,00
-24633,10	407,00
-24567,41	577,00
-24501,97	622,00
-24436,75	681,00
-24371,77	578,00
-24307,03	551,00
-24242,51	641,00
-24178,22	658,00
-24114,16	588,00
-24050,32	579,00
-23986,71	670,00
-23923,32	594,00
-23860,16	583,00
-23797,22	580,00
-23734,50	585,00
-23672,00	668,00
-23609,71	569,00
-23547,65	580,00
-23485,80	615,00
-23424,16	578,00
-23362,74	614,00
-23301,53	596,00
-23240,54	589,00
-23179,75	623,00
-23119,17	522,00
-23058,80	639,00
-22998,64	695,00
-22938,68	662,00
-22878,93	510,00
-22819,39	599,00
-22760,04	465,00
-22700,90	640,00
-22641,96	615,00
-22583,22	590,00
-22524,68	512,00
-22466,33	583,00
-22408,19	544,00
-22350,23	570,00
-22292,48	589,00
-22234,92	535,00
-22177,55	615,00
-22120,37	621,00
-22063,38	670,00
-22006,58	530,00
-21949,98	581,00
-21893,56	547,00
-21837,33	671,00
-21781,28	556,00
-21725,42	696,00
-21669,74	604,00
-21614,25	689,00
-21558,94	620,00
-21503,81	574,00
-21448,86	659,00
-21394,10	564,00
-21339,51	574,00
-21285,10	507,00
-21230,86	492,00
-21176,81	532,00
-21122,93	518,00
-21069,22	504,00
-21015,69	592,00
-20962,33	676,00
-20909,14	559,00
-20856,13	531,00
-20803,28	687,00
-20750,61	517,00
-20698,10	485,00
-20645,76	666,00
-20593,59	576,00
-20541,59	601,00
-20489,75	654,00
-20438,07	555,00
-20386,56	590,00
-20335,22	589,00
-20284,03	559,00
-20233,01	539,00
-20182,15	587,00
-20131,45	580,00
-20080,91	587,00
-20030,52	634,00
-19980,30	579,00
-19930,23	561,00
-19880,32	695,00
-19830,56	572,00
-19780,96	610,00
-19731,52	675,00
-19682,23	503,00
-19633,09	579,00
-19584,10	495,00
-19535,26	540,00
-19486,58	641,00
-19438,04	587,00
-19389,66	601,00
-19341,42	497,00
-19293,33	630,00
-19245,39	649,00
-19197,60	532,00
-19149,95	570,00
-19102,45	619,00
-19055,09	588,00
-19007,87	708,00
-18960,80	532,00
-18913,87	598,00
-18867,09	665,00
-18820,44	639,00
-18773,94	610,00
-18727,57	606,00
-18681,35	507,00
-18635,26	491,00
-18589,31	533,00
-18543,50	550,00
-18497,83	651,00
-18452,29	550,00
-18406,89	595,00
-18361,63	800,00
-18316,50	605,00
-18271,50	611,00
-18226,63	646,00
-18181,90	596,00
-18137,30	656,00
-18092,84	461,00
-18048,50	560,00
-18004,29	638,00
-17960,22	638,00
-17916,27	565,00
-17872,45	662,00
-17828,76	640,00
-17785,20	645,00
-17741,77	571,00
-17698,46	580,00
-17655,28	499,00
-17612,22	623,00
-17569,29	566,00
-17526,48	583,00
-17483,79	474,00
-17441,23	641,00
-17398,79	436,00
-17356,48	612,00
-17314,28	624,00
-17272,21	618,00
-17230,26	587,00
-17188,42	593,00
-17146,71	634,00
-17105,12	587,00
-17063,64	490,00
-17022,28	551,00
-16981,04	574,00
-16939,92	546,00
-16898,91	677,00
-16858,02	514,00
-16817,25	570,00
-16776,59	625,00
-16736,04	536,00
-16695,61	691,00
-16655,29	506,00
-16615,09	611,00
-16574,99	601,00
-16535,01	622,00
-16495,15	584,00
-16455,39	632,00
-16415,74	539,00
-16376,21	613,00
-16336,78	574,00
-16297,46	609,00
-16258,26	601,00
-16219,16	634,00
-16180,17	594,00
-16141,28	704,00
-16102,51	569,00
-16063,84	534,00
-16025,27	575,00
-15986,82	541,00
-15948,46	385,00
-15910,22	607,00
-15872,07	548,00
-15834,04	557,00
-15796,10	532,00
-15758,27	582,00
-15720,54	570,00
-15682,91	550,00
-15645,39	591,00
-15607,97	503,00
-15570,64	572,00
-15533,42	569,00
-15496,30	568,00
-15459,28	523,00
-15422,36	592,00
-15385,54	647,00
-15348,82	561,00
-15312,19	730,00
-15275,66	665,00
-15239,23	601,00
-15202,90	663,00
-15166,67	504,00
-15130,53	547,00
-15094,48	539,00
-15058,54	635,00
-15022,68	588,00
-14986,93	572,00
-14951,26	551,00
-14915,69	609,00
-14880,22	489,00
-14844,84	626,00
-14809,55	552,00
-14774,35	623,00
-14739,25	591,00
-14704,24	569,00
-14669,32	462,00
-14634,49	509,00
-14599,75	619,00
-14565,10	548,00
-14530,55	540,00
-14496,08	632,00
-14461,70	623,00
-14427,41	440,00
-14393,21	581,00
-14359,10	666,00
-14325,07	589,00
-14291,14	538,00
-14257,29	661,00
-14223,52	667,00
-14189,85	703,00
-14156,26	642,00
-14122,76	541,00
-14089,34	541,00
-14056,01	681,00
-14022,76	662,00
-13989,60	654,00
-13956,52	709,00
-13923,53	453,00
-13890,62	576,00
-13857,79	600,00
-13825,05	675,00
-13792,39	580,00
-13759,81	670,00
-13727,31	563,00
-13694,90	602,00
-13662,57	641,00
-13630,31	463,00
-13598,14	667,00
-13566,05	604,00
-13534,05	602,00
-13502,12	614,00
-13470,27	669,00
-13438,50	623,00
-13406,80	552,00
-13375,19	522,00
-13343,66	566,00
-13312,20	597,00
-13280,83	577,00
-13249,53	506,00
-13218,30	515,00
-13187,16	565,00
-13156,09	652,00
-13125,10	644,00
-13094,18	491,00
-13063,34	606,00
-13032,58	455,00
-13001,89	670,00
-12971,28	562,00
-12940,74	505,00
-12910,27	665,00
-12879,88	483,00
-12849,57	536,00
-12819,33	653,00
-12789,16	582,00
-12759,06	472,00
-12729,04	698,00
-12699,09	1339,00
-12669,21	589,00
-12639,41	561,00
-12609,68	583,00
-12580,02	592,00
-12550,43	666,00
-12520,91	471,00
-12491,46	649,00
-12462,08	571,00
-12432,77	638,00
-12403,54	616,00
-12374,37	575,00
-12345,27	498,00
-12316,24	588,00
-12287,29	698,00
-12258,40	483,00
-12229,57	477,00
-12200,82	569,00
-12172,14	695,00
-12143,52	551,00
-12114,97	460,00
-12086,49	696,00
-12058,07	593,00
-12029,73	618,00
-12001,44	588,00
-11973,23	523,00
-11945,08	654,00
-11917,00	563,00
-11888,98	616,00
-11861,03	624,00
-11833,15	515,00
-11805,32	589,00
-11777,57	657,00
-11749,88	643,00
-11722,25	501,00
-11694,69	750,00
-11667,19	436,00
-11639,75	767,00
-11612,38	530,00
-11585,07	613,00
-11557,83	616,00
-11530,65	592,00
-11503,53	618,00
-11476,47	552,00
-11449,48	502,00
-11422,54	550,00
-11395,67	607,00
-11368,86	590,00
-11342,11	549,00
-11315,43	674,00
-11288,80	618,00
-11262,23	562,00
-11235,73	555,00
-11209,28	810,00
-11182,90	611,00
-11156,57	576,00
-11130,31	699,00
-11104,10	560,00
-11077,96	662,00
-11051,87	699,00
-11025,84	672,00
-10999,87	629,00
-10973,96	583,00
-10948,11	516,00
-10922,31	649,00
-10896,58	534,00
-10870,90	733,00
-10845,28	597,00
-10819,71	496,00
-10794,20	614,00
-10768,75	751,00
-10743,36	624,00
-10718,02	610,00
-10692,74	654,00
-10667,52	646,00
-10642,35	573,00
-10617,24	717,00
-10592,18	717,00
-10567,18	700,00
-10542,23	752,00
-10517,34	715,00
-10492,51	732,00
-10467,72	749,00
-10443,00	762,00
-10418,32	749,00
-10393,70	767,00
-10369,14	762,00
-10344,63	714,00
-10320,17	929,00
-10295,77	769,00
-10271,42	888,00
-10247,12	893,00
-10222,88	946,00
-10198,68	980,00
-10174,54	888,00
-10150,46	1040,00
-10126,42	1092,00
-10102,44	1082,00
-10078,51	1069,00
-10054,63	1137,00
-10030,80	1238,00
-10007,03	1296,00
-9983,30	1190,00
-9959,63	1165,00
-9936,01	1363,00
-9912,44	1359,00
-9888,92	1251,00
-9865,44	1406,00
-9842,02	1428,00
-9818,65	1503,00
-9795,33	1475,00
-9772,06	1458,00
-9748,84	1515,00
-9725,67	1797,00
-9702,55	1852,00
-9679,47	2164,00
-9656,45	2206,00
-9633,47	2274,00
-9610,55	2363,00
-9587,67	2409,00
-9564,84	2860,00
-9542,06	2724,00
-9519,32	3034,00
-9496,64	3247,00
-9474,00	3384,00
-9451,41	3392,00
-9428,87	3516,00
-9406,37	3259,00
-9383,92	3230,00
-9361,52	3004,00
-9339,17	3145,00
-9316,86	3351,00
-9294,60	3701,00
-9272,38	4103,00
-9250,21	4354,00
-9228,09	4371,00
-9206,01	4085,00
-9183,98	3809,00
-9162,00	3372,00
-9140,06	3245,00
-9118,16	3135,00
-9096,31	3323,00
-9074,51	3365,00
-9052,75	3427,00
-9031,04	3368,00
-9009,37	3002,00
-8987,74	2791,00
-8966,16	2550,00
-8944,63	2332,00
-8923,14	2333,00
-8901,69	2275,00
-8880,29	2496,00
-8858,93	2796,00
-8837,61	3056,00
-8816,34	3102,00
-8795,11	3268,00
-8773,92	2861,00
-8752,78	2669,00
-8731,68	2608,00
-8710,62	2598,00
-8689,61	2714,00
-8668,63	2938,00
-8647,70	3039,00
-8626,82	2962,00
-8605,97	2899,00
-8585,17	2668,00
-8564,41	2575,00
-8543,69	2430,00
-8523,01	2276,00
-8502,37	2386,00
-8481,78	2456,00
-8461,23	2472,00
-8440,71	2718,00
-8420,24	2758,00
-8399,81	2936,00
-8379,42	2913,00
-8359,08	2700,00
-8338,77	2294,00
-8318,50	2240,00
-8298,27	2123,00
-8278,09	2220,00
-8257,94	2337,00
-8237,83	2614,00
-8217,76	2739,00
-8197,74	2702,00
-8177,75	2662,00
-8157,80	2376,00
-8137,89	2342,00
-8118,02	2295,00
-8098,19	2333,00
-8078,40	2353,00
-8058,65	2531,00
-8038,93	2488,00
-8019,26	2557,00
-7999,62	2408,00
-7980,02	2297,00
-7960,46	2236,00
-7940,94	2084,00
-7921,46	2114,00
-7902,01	2152,00
-7882,60	2167,00
-7863,23	2284,00
-7843,90	2193,00
-7824,61	2412,00
-7805,35	2489,00
-7786,13	2535,00
-7766,95	2406,00
-7747,80	2423,00
-7728,69	2265,00
-7709,62	2185,00
-7690,59	2379,00
-7671,59	2683,00
-7652,63	2456,00
-7633,70	2606,00
-7614,81	2529,00
-7595,96	2259,00
-7577,15	2163,00
-7558,37	2149,00
-7539,62	2358,00
-7520,91	2444,00
-7502,24	2520,00
-7483,60	2655,00
-7465,00	2283,00
-7446,44	2181,00
-7427,91	1941,00
-7409,41	2049,00
-7390,95	1748,00
-7372,53	1595,00
-7354,14	1753,00
-7335,78	1817,00
-7317,46	1921,00
-7299,18	1940,00
-7280,92	2181,00
-7262,71	2616,00
-7244,52	2557,00
-7226,38	2506,00
-7208,26	2487,00
-7190,18	2438,00
-7172,14	2207,00
-7154,12	2296,00
-7136,15	2175,00
-7118,20	2417,00
-7100,29	2551,00
-7082,41	2491,00
-7064,57	2367,00
-7046,76	2212,00
-7028,98	2017,00
-7011,24	2086,00
-6993,53	1650,00
-6975,85	1649,00
-6958,20	1499,00
-6940,59	1389,00
-6923,01	1511,00
-6905,46	1646,00
-6887,94	1901,00
-6870,46	-267,00
-6853,01	2432,00
-6835,59	2198,00
-6818,21	2056,00
-6800,85	1999,00
-6783,53	1661,00
-6766,24	1391,00
-6748,98	1258,00
-6731,76	1308,00
-6714,56	1231,00
-6697,40	1085,00
-6680,26	1244,00
-6663,16	1488,00
-6646,09	1689,00
-6629,05	1850,00
-6612,05	1886,00
-6595,07	2095,00
-6578,13	1796,00
-6561,21	1593,00
-6544,33	1360,00
-6527,47	1219,00
-6510,65	1246,00
-6493,86	1112,00
-6477,10	1114,00
-6460,36	1114,00
-6443,66	1154,00
-6426,99	1120,00
-6410,35	1217,00
-6393,74	1177,00
-6377,16	1365,00
-6360,61	1574,00
-6344,09	1443,00
-6327,59	1713,00
-6311,13	1545,00
-6294,70	1466,00
-6278,29	1650,00
-6261,92	1700,00
-6245,58	1803,00
-6229,26	1820,00
-6212,97	1727,00
-6196,72	1553,00
-6180,49	1324,00
-6164,29	893,00
-6148,12	848,00
-6131,98	948,00
-6115,86	881,00
-6099,78	907,00
-6083,72	837,00
-6067,69	730,00
-6051,69	831,00
-6035,72	833,00
-6019,78	1051,00
-6003,87	1281,00
-5987,98	1476,00
-5972,12	1549,00
-5956,29	1662,00
-5940,49	1338,00
-5924,71	1354,00
-5908,96	1057,00
-5893,24	1032,00
-5877,55	989,00
-5861,89	904,00
-5846,25	1001,00
-5830,64	972,00
-5815,05	997,00
-5799,50	969,00
-5783,97	963,00
-5768,47	1261,00
-5752,99	1357,00
-5737,55	1368,00
-5722,12	1540,00
-5706,73	1617,00
-5691,36	1334,00
-5676,02	1179,00
-5660,71	940,00
-5645,42	836,00
-5630,16	1049,00
-5614,92	1183,00
-5599,71	1303,00
-5584,53	1393,00
-5569,37	1386,00
-5554,24	2323,00
-5539,14	1045,00
-5524,06	1179,00
-5509,01	1086,00
-5493,98	1148,00
-5478,98	1334,00
-5464,00	1023,00
-5449,05	1107,00
-5434,13	1061,00
-5419,23	898,00
-5404,36	932,00
-5389,51	1201,00
-5374,69	1511,00
-5359,89	1699,00
-5345,12	1596,00
-5330,37	1662,00
-5315,65	1441,00
-5300,95	1223,00
-5286,28	1087,00
-5271,63	1081,00
-5257,01	1306,00
-5242,41	1191,00
-5227,84	1083,00
-5213,29	979,00
-5198,76	770,00
-5184,26	882,00
-5169,79	873,00
-5155,33	1095,00
-5140,91	1106,00
-5126,51	1344,00
-5112,13	1301,00
-5097,77	1284,00
-5083,44	1002,00
-5069,13	928,00
-5054,85	996,00
-5040,59	1059,00
-5026,36	1169,00
-5012,15	1321,00
-4997,96	1136,00
-4983,80	1001,00
-4969,66	1049,00
-4955,54	965,00
-4941,44	1084,00
-4927,37	1224,00
-4913,33	1526,00
-4899,30	1524,00
-4885,30	1603,00
-4871,33	1290,00
-4857,37	947,00
-4843,44	939,00
-4829,53	816,00
-4815,65	1057,00
-4801,79	958,00
-4787,95	1137,00
-4774,13	911,00
-4760,34	929,00
-4746,56	876,00
-4732,82	812,00
-4719,09	997,00
-4705,38	1283,00
-4691,70	1470,00
-4678,04	1395,00
-4664,41	1142,00
-4650,79	1093,00
-4637,20	963,00
-4623,63	818,00
-4610,08	982,00
-4596,56	1206,00
-4583,05	1228,00
-4569,57	1041,00
-4556,11	927,00
-4542,67	640,00
-4529,25	807,00
-4515,86	1077,00
-4502,49	1198,00
-4489,13	1322,00
-4475,80	1227,00
-4462,49	930,00
-4449,21	973,00
-4435,94	804,00
-4422,70	936,00
-4409,47	1001,00
-4396,27	1036,00
-4383,09	912,00
-4369,93	831,00
-4356,79	713,00
-4343,67	743,00
-4330,58	845,00
-4317,50	893,00
-4304,45	796,00
-4291,41	802,00
-4278,40	679,00
-4265,41	693,00
-4252,44	956,00
-4239,49	864,00
-4226,55	1011,00
-4213,65	924,00
-4200,76	866,00
-4187,89	654,00
-4175,04	772,00
-4162,21	682,00
-4149,40	745,00
-4136,61	708,00
-4123,85	502,00
-4111,10	683,00
-4098,37	721,00
-4085,66	738,00
-4072,98	702,00
-4060,31	701,00
-4047,66	765,00
-4035,04	705,00
-4022,43	716,00
-4009,84	772,00
-3997,27	553,00
-3984,72	516,00
-3972,19	692,00
-3959,69	579,00
-3947,20	582,00
-3934,73	616,00
-3922,27	548,00
-3909,84	640,00
-3897,43	535,00
-3885,04	565,00
-3872,67	539,00
-3860,31	583,00
-3847,98	606,00
-3835,66	518,00
-3823,36	511,00
-3811,09	528,00
-3798,83	667,00
-3786,59	580,00
-3774,37	797,00
-3762,17	622,00
-3749,98	605,00
-3737,82	530,00
-3725,67	639,00
-3713,55	579,00
-3701,44	606,00
-3689,35	573,00
-3677,28	565,00
-3665,22	509,00
-3653,19	661,00
-3641,17	620,00
-3629,18	656,00
-3617,20	599,00
-3605,24	615,00
-3593,30	752,00
-3581,37	666,00
-3569,47	706,00
-3557,58	606,00
-3545,71	701,00
-3533,86	622,00
-3522,02	621,00
-3510,21	619,00
-3498,41	572,00
-3486,63	549,00
-3474,87	520,00
-3463,12	550,00
-3451,40	589,00
-3439,69	588,00
-3428,00	683,00
-3416,33	695,00
-3404,67	600,00
-3393,03	636,00
-3381,41	694,00
-3369,81	608,00
-3358,22	551,00
-3346,66	651,00
-3335,10	643,00
-3323,57	625,00
-3312,06	591,00
-3300,56	590,00
-3289,08	604,00
-3277,61	645,00
-3266,16	664,00
-3254,73	567,00
-3243,32	714,00
-3231,92	597,00
-3220,55	593,00
-3209,18	679,00
-3197,84	541,00
-3186,51	489,00
-3175,20	595,00
-3163,90	597,00
-3152,63	666,00
-3141,36	653,00
-3130,12	750,00
-3118,89	541,00
-3107,68	544,00
-3096,49	625,00
-3085,31	658,00
-3074,15	465,00
-3063,00	608,00
-3051,87	633,00
-3040,76	562,00
-3029,67	658,00
-3018,59	603,00
-3007,52	529,00
-2996,48	722,00
-2985,44	606,00
-2974,43	609,00
-2963,43	632,00
-2952,45	594,00
-2941,48	652,00
-2930,53	608,00
-2919,60	652,00
-2908,68	523,00
-2897,78	632,00
-2886,89	543,00
-2876,02	639,00
-2865,17	499,00
-2854,33	510,00
-2843,50	754,00
-2832,70	720,00
-2821,90	639,00
-2811,13	486,00
-2800,37	649,00
-2789,62	545,00
-2778,89	631,00
-2768,18	691,00
-2757,48	609,00
-2746,80	706,00
-2736,13	544,00
-2725,48	668,00
-2714,84	683,00
-2704,22	467,00
-2693,61	459,00
-2683,02	578,00
-2672,45	506,00
-2661,89	600,00
-2651,34	566,00
-2640,81	683,00
-2630,30	809,00
-2619,80	553,00
-2609,31	576,00
-2598,84	602,00
-2588,39	514,00
-2577,95	609,00
-2567,52	585,00
-2557,11	515,00
-2546,71	611,00
-2536,33	665,00
-2525,97	626,00
-2515,62	657,00
-2505,28	616,00
-2494,96	481,00
-2484,65	674,00
-2474,36	798,00
-2464,08	494,00
-2453,82	578,00
-2443,57	534,00
-2433,33	665,00
-2423,11	670,00
-2412,91	599,00
-2402,72	540,00
-2392,54	626,00
-2382,38	636,00
-2372,23	582,00
-2362,09	1234,00
-2351,97	612,00
-2341,87	550,00
-2331,78	578,00
-2321,70	555,00
-2311,64	604,00
-2301,59	601,00
-2291,55	558,00
-2281,53	653,00
-2271,53	609,00
-2261,53	527,00
-2251,55	652,00
-2241,59	659,00
-2231,64	638,00
-2221,70	564,00
-2211,78	659,00
-2201,87	659,00
-2191,97	647,00
-2182,09	638,00
-2172,22	622,00
-2162,37	596,00
-2152,53	528,00
-2142,70	516,00
-2132,89	590,00
-2123,09	618,00
-2113,30	657,00
-2103,53	610,00
-2093,77	604,00
-2084,02	587,00
-2074,29	576,00
-2064,57	659,00
-2054,86	483,00
-2045,17	592,00
-2035,49	662,00
-2025,82	583,00
-2016,17	508,00
-2006,53	626,00
-1996,91	730,00
-1987,29	481,00
-1977,69	614,00
-1968,11	643,00
-1958,53	660,00
-1948,97	637,00
-1939,42	490,00
-1929,89	443,00
-1920,37	670,00
-1910,86	613,00
-1901,36	688,00
-1891,88	507,00
-1882,41	610,00
-1872,95	706,00
-1863,51	558,00
-1854,08	630,00
-1844,66	618,00
-1835,26	658,00
-1825,86	535,00
-1816,48	535,00
-1807,11	579,00
-1797,76	732,00
-1788,42	664,00
-1779,09	656,00
-1769,77	613,00
-1760,47	684,00
-1751,17	685,00
-1741,89	552,00
-1732,63	684,00
-1723,37	636,00
-1714,13	671,00
-1704,90	579,00
-1695,68	672,00
-1686,48	696,00
-1677,29	656,00
-1668,11	762,00
-1658,94	626,00
-1649,78	700,00
-1640,64	657,00
-1631,51	659,00
-1622,39	641,00
-1613,28	737,00
-1604,19	748,00
-1595,10	645,00
-1586,03	469,00
-1576,97	684,00
-1567,93	460,00
-1558,89	521,00
-1549,87	602,00
-1540,86	589,00
-1531,86	554,00
-1522,87	570,00
-1513,90	673,00
-1504,93	563,00
-1495,98	583,00
-1487,04	553,00
-1478,12	571,00
-1469,20	567,00
-1460,30	584,00
-1451,40	705,00
-1442,52	545,00
-1433,65	680,00
-1424,80	627,00
-1415,95	494,00
-1407,12	685,00
-1398,30	575,00
-1389,48	565,00
-1380,69	600,00
-1371,90	509,00
-1363,12	614,00
-1354,36	631,00
-1345,60	577,00
-1336,86	717,00
-1328,13	645,00
-1319,41	631,00
-1310,70	543,00
-1302,01	576,00
-1293,32	610,00
-1284,65	592,00
-1275,99	621,00
-1267,33	600,00
-1258,69	608,00
-1250,06	596,00
-1241,45	581,00
-1232,84	594,00
-1224,25	670,00
-1215,66	719,00
-1207,09	637,00
-1198,53	683,00
-1189,97	538,00
-1181,43	549,00
-1172,91	633,00
-1164,39	837,00
-1155,88	564,00
-1147,38	624,00
-1138,90	578,00
-1130,43	594,00
-1121,96	658,00
-1113,51	579,00
-1105,07	565,00
-1096,64	655,00
-1088,22	638,00
-1079,81	591,00
-1071,41	556,00
-1063,02	591,00
-1054,65	534,00
-1046,28	613,00
-1037,92	625,00
-1029,58	545,00
-1021,24	756,00
-1012,92	728,00
-1004,61	665,00
-996,30	787,00
-988,01	485,00
-979,73	604,00
-971,46	620,00
-963,20	548,00
-954,95	499,00
-946,71	487,00
-938,48	583,00
-930,26	560,00
-922,06	458,00
-913,86	705,00
-905,67	594,00
-897,49	650,00
-889,33	565,00
-881,17	719,00
-873,02	608,00
-864,89	589,00
-856,76	577,00
-848,65	643,00
-840,54	724,00
-832,45	752,00
-824,36	543,00
-816,29	698,00
-808,22	669,00
-800,17	536,00
-792,12	663,00
-784,09	709,00
-776,06	570,00
-768,05	737,00
-760,04	624,00
-752,05	608,00
-744,07	705,00
-736,09	621,00
-728,13	564,00
-720,17	571,00
-712,23	708,00
-704,29	689,00
-696,37	588,00
-688,45	594,00
-680,55	551,00
-672,65	560,00
-664,77	582,00
-656,89	595,00
-649,03	603,00
-641,17	662,00
-633,32	679,00
-625,49	569,00
-617,66	599,00
-609,84	577,00
-602,03	680,00
-594,23	598,00
-586,45	635,00
-578,67	641,00
-570,90	674,00
-563,14	574,00
-555,39	478,00
-547,65	757,00
-539,91	520,00
-532,19	613,00
-524,48	722,00
-516,78	599,00
-509,08	611,00
-501,40	524,00
-493,72	644,00
-486,06	608,00
-478,40	674,00
-470,76	600,00
-463,12	728,00
-455,49	575,00
-447,87	709,00
-440,26	542,00
-432,66	497,00
-425,07	596,00
-417,49	543,00
-409,92	629,00
-402,35	539,00
-394,80	530,00
-387,25	577,00
-379,72	641,00
-372,19	570,00
-364,67	476,00
-357,17	602,00
-349,67	586,00
-342,18	633,00
-334,69	642,00
-327,22	532,00
-319,76	690,00
-312,30	681,00
-304,86	732,00
-297,42	568,00
-290,00	669,00
-282,58	630,00
-275,17	640,00
-267,77	606,00
-260,37	630,00
-252,99	577,00
-245,62	642,00
-238,25	585,00
-230,90	737,00
-223,55	769,00
-216,21	722,00
-208,88	683,00
-201,56	666,00
-194,25	741,00
-186,94	767,00
-179,65	822,00
-172,36	783,00
-165,08	736,00
-157,81	787,00
-150,55	991,00
-143,30	889,00
-136,06	862,00
-128,82	1112,00
-121,60	1028,00
-114,38	1085,00
-107,17	1063,00
-99,97	1218,00
-92,78	1264,00
-85,60	1306,00
-78,42	1583,00
-71,25	1688,00
-64,10	1815,00
-56,95	2007,00
-49,81	2300,00
-42,67	2835,00
-35,55	3237,00
-28,43	4173,00
-21,33	6676,00
-14,23	21456,00
-7,14	56239,00
-0,05	55969,00
7,02	55668,00
14,09	55972,00
21,14	16675,00
28,19	7384,00
35,23	4957,00
42,27	3995,00
49,29	3244,00
56,31	2849,00
63,32	2487,00
70,32	2193,00
77,31	1909,00
84,29	1623,00
91,27	1658,00
98,23	1528,00
105,19	1453,00
112,14	1519,00
119,09	1927,00
126,02	2735,00
132,95	2928,00
139,87	2976,00
146,78	2960,00
153,68	2813,00
160,58	2810,00
167,46	2809,00
174,34	2740,00
181,21	2800,00
188,08	2722,00
194,93	2683,00
201,78	2705,00
208,62	2774,00
215,45	2811,00
222,27	2615,00
229,09	2698,00
235,90	2644,00
242,70	2611,00
249,49	2627,00
256,27	2482,00
263,05	2581,00
269,82	2498,00
276,58	2499,00
283,33	2537,00
290,08	2516,00
296,82	2390,00
303,55	2309,00
310,27	2489,00
316,98	2387,00
323,69	2459,00
330,39	2418,00
337,08	2356,00
343,76	2427,00
350,44	2290,00
357,11	2302,00
363,77	2335,00
370,42	2190,00
377,07	2258,00
383,71	2241,00
390,34	2276,00
396,96	2165,00
403,58	2279,00
410,19	2370,00
416,79	2355,00
423,38	2305,00
429,97	2259,00
436,55	2066,00
443,12	2024,00
449,68	2072,00
456,24	2105,00
462,79	2036,00
469,33	2132,00
475,86	2061,00
482,39	1976,00
488,91	1940,00
495,42	2063,00
501,93	1987,00
508,42	1909,00
514,91	1969,00
521,40	1855,00
527,87	1979,00
534,34	1915,00
540,80	1867,00
547,25	1938,00
553,70	1871,00
560,14	1964,00
566,57	1900,00
573,00	1860,00
579,41	1928,00
585,83	1930,00
592,23	1919,00
598,62	1840,00
605,01	1828,00
611,40	1835,00
617,77	1948,00
624,14	1859,00
630,50	1783,00
636,85	1848,00
643,20	1876,00
649,54	1667,00
655,87	1764,00
662,20	1747,00
668,52	1792,00
674,83	1841,00
681,13	1732,00
687,43	1792,00
693,72	1674,00
700,00	1613,00
706,28	1786,00
712,55	1684,00
718,81	1764,00
725,07	1735,00
731,32	1596,00
737,56	1602,00
743,79	1647,00
750,02	1807,00
756,24	1613,00
762,46	1644,00
768,67	1752,00
774,87	1772,00
781,06	1500,00
787,25	1766,00
793,43	1700,00
799,60	1637,00
805,77	1765,00
811,93	1699,00
818,08	1601,00
824,23	1615,00
830,37	1773,00
836,50	1703,00
842,63	1601,00
848,75	1710,00
854,87	1674,00
860,97	1722,00
867,07	1729,00
873,17	1827,00
879,25	1763,00
885,33	1663,00
891,41	1582,00
897,47	1749,00
903,53	1637,00
909,59	1695,00
915,63	1670,00
921,67	1654,00
927,71	1632,00
933,74	1561,00
939,76	1491,00
945,77	1477,00
951,78	1605,00
957,78	1507,00
963,78	1561,00
969,77	1582,00
975,75	1630,00
981,72	1554,00
987,69	2382,00
993,66	1459,00
999,61	1552,00
1005,56	1614,00
1011,51	1557,00
1017,44	1547,00
1023,37	1646,00
1029,30	1409,00
1035,22	1589,00
1041,13	1512,00
1047,03	1711,00
1052,93	1675,00
1058,83	1994,00
1064,71	2079,00
1070,59	2022,00
1076,47	1725,00
1082,33	1629,00
1088,20	1611,00
1094,05	1554,00
1099,90	1513,00
1105,74	1518,00
1111,58	1560,00
1117,41	1688,00
1123,23	1811,00
1129,05	2057,00
1134,86	1843,00
1140,67	1777,00
1146,47	1537,00
1152,26	1481,00
1158,05	1401,00
1163,83	1648,00
1169,60	1344,00
1175,37	1498,00
1181,13	1461,00
1186,89	1485,00
1192,64	1482,00
1198,38	1304,00
1204,12	1420,00
1209,85	1404,00
1215,58	1512,00
1221,30	1422,00
1227,02	1356,00
1232,72	1445,00
1238,43	1406,00
1244,12	1452,00
1249,81	1474,00
1255,50	1493,00
1261,17	1474,00
1266,85	1482,00
1272,51	1562,00
1278,17	1515,00
1283,83	1695,00
1289,47	2069,00
1295,12	2404,00
1300,75	2235,00
1306,38	1951,00
1312,01	1857,00
1317,63	1672,00
1323,24	1588,00
1328,85	1618,00
1334,45	1578,00
1340,04	1590,00
1345,63	1543,00
1351,22	1516,00
1356,80	1467,00
1362,37	1574,00
1367,93	1583,00
1373,49	1621,00
1379,05	1541,00
1384,60	1512,00
1390,14	1507,00
1395,68	1620,00
1401,21	1455,00
1406,74	1642,00
1412,26	1713,00
1417,77	1828,00
1423,28	1856,00
1428,78	2050,00
1434,28	2230,00
1439,77	2366,00
1445,26	2382,00
1450,74	2373,00
1456,22	2238,00
1461,68	2170,00
1467,15	2166,00
1472,61	1817,00
1478,06	1826,00
1483,51	1595,00
1488,95	1491,00
1494,38	1539,00
1499,81	1423,00
1505,24	1400,00
1510,65	1346,00
1516,07	1420,00
1521,48	1313,00
1526,88	1267,00
1532,27	1380,00
1537,67	1369,00
1543,05	1411,00
1548,43	1308,00
1553,81	1385,00
1559,18	1297,00
1564,54	1357,00
1569,90	1367,00
1575,25	1255,00
1580,60	1274,00
1585,94	1229,00
1591,28	1367,00
1596,61	1166,00
1601,93	1218,00
1607,25	1237,00
1612,57	1187,00
1617,88	1274,00
1623,18	1315,00
1628,48	1296,00
1633,77	1178,00
1639,06	1282,00
1644,34	1221,00
1649,62	1233,00
1654,89	1175,00
1660,16	1230,00
1665,42	1269,00
1670,67	1204,00
1675,92	1107,00
1681,17	1141,00
1686,41	1174,00
1691,64	1181,00
1696,87	1197,00
1702,10	1261,00
1707,32	1187,00
1712,53	1057,00
1717,74	1199,00
1722,94	1235,00
1728,14	1078,00
1733,33	1000,00
1738,52	1160,00
1743,70	1152,00
1748,88	1200,00
1754,05	1185,00
1759,22	1040,00
1764,38	2698,00
1769,53	1073,00
1774,69	1273,00
1779,83	1258,00
1784,97	1181,00
1790,11	1054,00
1795,24	1141,00
1800,36	1058,00
1805,48	1196,00
1810,60	1090,00
1815,71	1064,00
1820,82	1048,00
1825,92	1057,00
1831,01	1073,00
1836,10	987,00
1841,19	1147,00
1846,26	953,00
1851,34	968,00
1856,41	1087,00
1861,47	1011,00
1866,53	978,00
1871,59	1065,00
1876,64	1155,00
1881,68	1077,00
1886,72	1093,00
1891,76	933,00
1896,79	954,00
1901,81	973,00
1906,83	1011,00
1911,85	913,00
1916,86	1044,00
1921,86	999,00
1926,86	983,00
1931,86	921,00
1936,85	880,00
1941,83	940,00
1946,81	951,00
1951,79	982,00
1956,76	969,00
1961,72	982,00
1966,68	902,00
1971,64	877,00
1976,59	1089,00
1981,54	896,00
1986,48	900,00
1991,42	977,00
1996,35	1055,00
2001,27	1022,00
2006,20	999,00
2011,11	1071,00
2016,03	838,00
2020,93	813,00
2025,84	900,00
2030,73	996,00
2035,63	897,00
2040,52	895,00
2045,40	759,00
2050,28	945,00
2055,15	905,00
2060,02	924,00
2064,89	917,00
2069,75	940,00
2074,60	980,00
2079,46	927,00
2084,30	852,00
2089,14	902,00
2093,98	847,00
2098,81	819,00
2103,64	913,00
2108,46	838,00
2113,28	937,00
2118,09	876,00
2122,90	920,00
2127,70	867,00
2132,50	1004,00
2137,30	868,00
2142,09	791,00
2146,87	881,00
2151,66	808,00
2156,43	994,00
2161,20	873,00
2165,97	860,00
2170,73	713,00
2175,49	928,00
2180,24	845,00
2184,99	963,00
2189,74	1081,00
2194,48	806,00
2199,21	860,00
2203,94	691,00
2208,67	907,00
2213,39	796,00
2218,11	845,00
2222,82	852,00
2227,53	820,00
2232,23	917,00
2236,93	847,00
2241,63	978,00
2246,32	776,00
2251,00	819,00
2255,68	881,00
2260,36	801,00
2265,03	963,00
2269,70	834,00
2274,36	837,00
2279,02	806,00
2283,68	881,00
2288,33	752,00
2292,97	771,00
2297,61	685,00
2302,25	780,00
2306,88	722,00
2311,51	703,00
2316,14	851,00
2320,75	676,00
2325,37	729,00
2329,98	791,00
2334,59	637,00
2339,19	778,00
2343,79	660,00
2348,38	804,00
2352,97	858,00
2357,55	827,00
2362,13	821,00
2366,71	775,00
2371,28	778,00
2375,85	814,00
2380,41	786,00
2384,97	862,00
2389,52	798,00
2394,07	745,00
2398,62	776,00
2403,16	798,00
2407,70	722,00
2412,23	852,00
2416,76	823,00
2421,29	679,00
2425,81	886,00
2430,32	780,00
2434,84	831,00
2439,34	878,00
2443,85	861,00
2448,35	689,00
2452,84	710,00
2457,33	869,00
2461,82	802,00
2466,30	705,00
2470,78	778,00
2475,25	812,00
2479,72	693,00
2484,19	867,00
2488,65	796,00
2493,11	700,00
2497,56	967,00
2502,01	708,00
2506,46	827,00
2510,90	718,00
2515,34	683,00
2519,77	745,00
2524,20	669,00
2528,62	668,00
2533,04	842,00
2537,46	684,00
2541,87	680,00
2546,28	621,00
2550,68	836,00
2555,08	731,00
2559,48	775,00
2563,87	794,00
2568,26	646,00
2572,64	803,00
2577,02	729,00
2581,40	760,00
2585,77	758,00
2590,14	695,00
2594,50	701,00
2598,86	602,00
2603,22	708,00
2607,57	736,00
2611,92	827,00
2616,26	769,00
2620,60	725,00
2624,94	759,00
2629,27	777,00
2633,60	797,00
2637,92	891,00
2642,24	826,00
2646,56	735,00
2650,87	786,00
2655,18	844,00
2659,48	684,00
2663,78	804,00
2668,08	828,00
2672,37	845,00
2676,66	803,00
2680,95	907,00
2685,23	942,00
2689,50	718,00
2693,78	817,00
2698,05	845,00
2702,31	840,00
2706,57	763,00
2710,83	851,00
2715,08	850,00
2719,33	950,00
2723,58	914,00
2727,82	959,00
2732,06	812,00
2736,29	903,00
2740,53	823,00
2744,75	806,00
2748,97	889,00
2753,19	760,00
2757,41	843,00
2761,62	983,00
2765,83	727,00
2770,03	769,00
2774,23	678,00
2778,43	825,00
2782,62	814,00
2786,81	764,00
2791,00	844,00
2795,18	814,00
2799,35	905,00
2803,53	802,00
2807,70	984,00
2811,86	854,00
2816,03	999,00
2820,19	914,00
2824,34	959,00
2828,49	1017,00
2832,64	1078,00
2836,78	1253,00
2840,92	1451,00
2845,06	1657,00
2849,19	1845,00
2853,32	1879,00
2857,45	1939,00
2861,57	1851,00
2865,69	1720,00
2869,80	1730,00
2873,91	1715,00
2878,02	1948,00
2882,12	1953,00
2886,22	1953,00
2890,32	1898,00
2894,41	1891,00
2898,50	1768,00
2902,58	1613,00
2906,67	1667,00
2910,74	1675,00
2914,82	1418,00
2918,89	1474,00
2922,96	1396,00
2927,02	1204,00
2931,08	1286,00
2935,13	1167,00
2939,19	1252,00
2943,24	1057,00
2947,28	1121,00
2951,32	1121,00
2955,36	985,00
2959,40	1071,00
2963,43	988,00
2967,46	887,00
2971,48	891,00
2975,50	818,00
2979,52	917,00
2983,53	869,00
2987,54	820,00
2991,55	776,00
2995,55	775,00
2999,55	765,00
3003,54	698,00
3007,54	797,00
3011,53	699,00
3015,51	659,00
3019,49	797,00
3023,47	648,00
3027,45	703,00
3031,42	840,00
3035,39	603,00
3039,35	649,00
3043,31	637,00
3047,27	699,00
3051,22	793,00
3055,17	658,00
3059,12	634,00
3063,06	590,00
3067,00	585,00
3070,94	592,00
3074,87	548,00
3078,80	706,00
3082,73	754,00
3086,65	627,00
3090,57	615,00
3094,49	579,00
3098,40	490,00
3102,31	563,00
3106,22	550,00
3110,12	656,00
3114,02	619,00
3117,92	705,00
3121,81	631,00
3125,70	535,00
3129,58	572,00
3133,47	581,00
3137,34	696,00
3141,22	660,00
3145,09	675,00
3148,96	723,00
3152,83	642,00
3156,69	826,00
3160,55	632,00
3164,40	731,00
3168,26	598,00
3172,10	572,00
3175,95	739,00
3179,79	729,00
3183,63	650,00
3187,47	728,00
3191,30	631,00
3195,13	619,00
3198,95	408,00
3202,78	626,00
3206,60	522,00
3210,41	532,00
3214,23	641,00
3218,03	634,00
3221,84	587,00
3225,64	607,00
3229,44	690,00
3233,24	552,00
3237,03	701,00
3240,82	607,00
3244,61	517,00
3248,39	507,00
3252,17	640,00
3255,95	726,00
3259,72	665,00
3263,49	786,00
3267,26	560,00
3271,03	578,00
3274,79	556,00
3278,54	584,00
3282,30	623,00
3286,05	586,00
3289,80	685,00
3293,54	614,00
3297,29	668,00
3301,02	697,00
3304,76	574,00
3308,49	583,00
3312,22	592,00
3315,95	589,00
3319,67	597,00
3323,39	680,00
3327,10	763,00
3330,82	544,00
3334,53	623,00
3338,24	625,00
3341,94	640,00
3345,64	614,00
3349,34	588,00
3353,03	642,00
3356,72	626,00
3360,41	716,00
3364,10	724,00
3367,78	663,00
3371,46	600,00
3375,13	620,00
3378,81	543,00
3382,48	483,00
3386,14	694,00
3389,81	612,00
3393,47	643,00
3397,12	738,00
3400,78	740,00
3404,43	633,00
3408,08	517,00
3411,72	513,00
3415,36	629,00
3419,00	711,00
3422,64	665,00
3426,27	678,00
3429,90	540,00
3433,53	532,00
3437,15	550,00
3440,77	525,00
3444,39	558,00
3448,00	567,00
3451,62	571,00
3455,22	558,00
3458,83	602,00
3462,43	681,00
3466,03	541,00
3469,63	578,00
3473,22	546,00
3476,81	594,00
3480,40	593,00
3483,99	530,00
3487,57	691,00
3491,15	607,00
3494,72	606,00
3498,29	632,00
3501,86	556,00
3505,43	599,00
3508,99	515,00
3512,56	641,00
3516,11	618,00
3519,67	552,00
3523,22	590,00
3526,77	622,00
3530,32	667,00
3533,86	636,00
3537,40	654,00
3540,94	668,00
3544,47	566,00
3548,00	571,00
3551,53	623,00
3555,06	468,00
3558,58	626,00
3562,10	569,00
3565,62	541,00
3569,13	634,00
3572,64	539,00
3576,15	578,00
3579,66	510,00
3583,16	736,00
3586,66	624,00
3590,16	553,00
3593,65	531,00
3597,14	474,00
3600,63	595,00
3604,11	612,00
3607,60	553,00
3611,08	534,00
3614,55	543,00
3618,03	504,00
3621,50	517,00
3624,97	496,00
3628,43	667,00
3631,90	610,00
3635,36	468,00
3638,81	624,00
3642,27	580,00
3645,72	646,00
3649,17	535,00
3652,61	462,00
3656,06	679,00
3659,50	467,00
3662,93	619,00
3666,37	438,00
3669,80	595,00
3673,23	724,00
3676,65	674,00
3680,08	631,00
3683,50	464,00
3686,92	598,00
3690,33	528,00
3693,74	533,00
3697,15	523,00
3700,56	628,00
3703,96	678,00
3707,36	400,00
3710,76	516,00
3714,16	450,00
3717,55	568,00
3720,94	553,00
3724,33	510,00
3727,71	647,00
3731,10	576,00
3734,48	488,00
3737,85	497,00
3741,23	444,00
3744,60	539,00
3747,97	372,00
3751,33	523,00
3754,69	478,00
3758,05	484,00
3761,41	503,00
3764,77	582,00
3768,12	460,00
3771,47	463,00
3774,82	541,00
3778,16	-14,00
3781,50	10,00
3784,84	3,00
3788,18	4,00
>>>>>End Processed Spectral Data<<<<<
