SpectraSuite Data File
++++++++++++++++++++++++++++++++++++
Date: Tue Mar 03 11:32:34 ICT 2026
User: user
Dark Spectrum Present: Yes
Reference Spectrum Present: No
Number of Sampled Component Spectra: 1
Spectrometers: MAYP113682
Integration Time (usec): 3000000 (MAYP113682)
Spectra Averaged: 1 (MAYP113682)
Boxcar Smoothing: 0 (MAYP113682)
Correct for Electrical Dark: No (MAYP113682)
Strobe/Lamp Enabled: No (MAYP113682)
Correct for Detector Non-linearity: No (MAYP113682)
Correct for Stray Light: No (MAYP113682)
Number of Pixels in Processed Spectrum: 2068
>>>>>Begin Processed Spectral Data<<<<<
-37534,58	10,00
-37414,56	-6,00
-37295,11	-1,00
-37176,24	4,00
-37057,95	150,00
-36940,22	245,00
-36823,05	324,00
-36706,45	227,00
-36590,40	344,00
-36474,90	241,00
-36359,95	347,00
-36245,55	241,00
-36131,68	268,00
-36018,35	297,00
-35905,55	372,00
-35793,29	343,00
-35681,54	276,00
-35570,32	197,00
-35459,62	286,00
-35349,43	269,00
-35239,75	300,00
-35130,58	279,00
-35021,91	272,00
-34913,74	269,00
-34806,07	235,00
-34698,89	249,00
-34592,20	274,00
-34486,00	297,00
-34380,28	241,00
-34275,04	340,00
-34170,27	321,00
-34065,98	171,00
-33962,16	248,00
-33858,81	311,00
-33755,92	331,00
-33653,49	390,00
-33551,52	262,00
-33450,01	405,00
-33348,94	298,00
-33248,33	295,00
-33148,16	319,00
-33048,43	287,00
-32949,14	315,00
-32850,29	450,00
-32751,87	347,00
-32653,89	249,00
-32556,33	274,00
-32459,20	338,00
-32362,49	358,00
-32266,19	277,00
-32170,32	322,00
-32074,86	291,00
-31979,82	272,00
-31885,18	359,00
-31790,95	397,00
-31697,12	303,00
-31603,69	330,00
-31510,67	383,00
-31418,04	245,00
-31325,80	298,00
-31233,95	289,00
-31142,49	398,00
-31051,42	231,00
-30960,73	274,00
-30870,43	265,00
-30780,50	248,00
-30690,95	274,00
-30601,77	246,00
-30512,97	185,00
-30424,53	232,00
-30336,46	411,00
-30248,76	213,00
-30161,42	313,00
-30074,44	384,00
-29987,81	369,00
-29901,55	138,00
-29815,63	238,00
-29730,07	236,00
-29644,86	274,00
-29560,00	232,00
-29475,48	405,00
-29391,30	280,00
-29307,47	205,00
-29223,97	322,00
-29140,81	288,00
-29057,99	316,00
-28975,50	257,00
-28893,34	344,00
-28811,51	262,00
-28730,00	257,00
-28648,82	283,00
-28567,97	476,00
-28487,43	340,00
-28407,21	328,00
-28327,32	232,00
-28247,73	274,00
-28168,46	350,00
-28089,50	277,00
-28010,85	176,00
-27932,51	177,00
-27854,48	264,00
-27776,75	310,00
-27699,32	375,00
-27622,19	229,00
-27545,37	228,00
-27468,84	515,00
-27392,60	243,00
-27316,66	352,00
-27241,01	350,00
-27165,66	389,00
-27090,59	256,00
-27015,81	343,00
-26941,31	375,00
-26867,10	286,00
-26793,17	248,00
-26719,52	313,00
-26646,15	398,00
-26573,06	344,00
-26500,24	317,00
-26427,70	158,00
-26355,43	299,00
-26283,43	386,00
-26211,71	255,00
-26140,25	204,00
-26069,06	266,00
-25998,13	244,00
-25927,46	396,00
-25857,06	394,00
-25786,92	265,00
-25717,04	189,00
-25647,42	267,00
-25578,05	251,00
-25508,94	467,00
-25440,09	319,00
-25371,48	336,00
-25303,13	288,00
-25235,02	322,00
-25167,17	471,00
-25099,56	431,00
-25032,19	309,00
-24965,07	251,00
-24898,20	259,00
-24831,56	516,00
-24765,17	341,00
-24699,01	265,00
-24633,10	273,00
-24567,41	292,00
-24501,97	299,00
-24436,75	443,00
-24371,77	314,00
-24307,03	334,00
-24242,51	286,00
-24178,22	284,00
-24114,16	474,00
-24050,32	306,00
-23986,71	397,00
-23923,32	279,00
-23860,16	429,00
-23797,22	154,00
-23734,50	401,00
-23672,00	259,00
-23609,71	280,00
-23547,65	443,00
-23485,80	339,00
-23424,16	192,00
-23362,74	321,00
-23301,53	307,00
-23240,54	309,00
-23179,75	212,00
-23119,17	412,00
-23058,80	353,00
-22998,64	307,00
-22938,68	256,00
-22878,93	305,00
-22819,39	342,00
-22760,04	377,00
-22700,90	269,00
-22641,96	311,00
-22583,22	364,00
-22524,68	253,00
-22466,33	288,00
-22408,19	310,00
-22350,23	304,00
-22292,48	373,00
-22234,92	286,00
-22177,55	373,00
-22120,37	355,00
-22063,38	240,00
-22006,58	385,00
-21949,98	334,00
-21893,56	318,00
-21837,33	285,00
-21781,28	347,00
-21725,42	265,00
-21669,74	331,00
-21614,25	290,00
-21558,94	371,00
-21503,81	228,00
-21448,86	327,00
-21394,10	340,00
-21339,51	350,00
-21285,10	232,00
-21230,86	208,00
-21176,81	297,00
-21122,93	366,00
-21069,22	251,00
-21015,69	242,00
-20962,33	335,00
-20909,14	246,00
-20856,13	302,00
-20803,28	384,00
-20750,61	363,00
-20698,10	340,00
-20645,76	285,00
-20593,59	236,00
-20541,59	343,00
-20489,75	247,00
-20438,07	305,00
-20386,56	223,00
-20335,22	280,00
-20284,03	414,00
-20233,01	243,00
-20182,15	363,00
-20131,45	320,00
-20080,91	371,00
-20030,52	339,00
-19980,30	293,00
-19930,23	226,00
-19880,32	287,00
-19830,56	344,00
-19780,96	300,00
-19731,52	366,00
-19682,23	324,00
-19633,09	390,00
-19584,10	265,00
-19535,26	187,00
-19486,58	359,00
-19438,04	325,00
-19389,66	329,00
-19341,42	266,00
-19293,33	376,00
-19245,39	360,00
-19197,60	186,00
-19149,95	424,00
-19102,45	243,00
-19055,09	235,00
-19007,87	322,00
-18960,80	217,00
-18913,87	386,00
-18867,09	241,00
-18820,44	464,00
-18773,94	266,00
-18727,57	285,00
-18681,35	263,00
-18635,26	355,00
-18589,31	366,00
-18543,50	326,00
-18497,83	338,00
-18452,29	249,00
-18406,89	236,00
-18361,63	244,00
-18316,50	315,00
-18271,50	344,00
-18226,63	279,00
-18181,90	347,00
-18137,30	329,00
-18092,84	328,00
-18048,50	248,00
-18004,29	336,00
-17960,22	370,00
-17916,27	323,00
-17872,45	308,00
-17828,76	251,00
-17785,20	327,00
-17741,77	365,00
-17698,46	328,00
-17655,28	245,00
-17612,22	201,00
-17569,29	305,00
-17526,48	370,00
-17483,79	362,00
-17441,23	328,00
-17398,79	285,00
-17356,48	320,00
-17314,28	387,00
-17272,21	306,00
-17230,26	235,00
-17188,42	384,00
-17146,71	376,00
-17105,12	354,00
-17063,64	227,00
-17022,28	272,00
-16981,04	311,00
-16939,92	276,00
-16898,91	298,00
-16858,02	253,00
-16817,25	413,00
-16776,59	240,00
-16736,04	368,00
-16695,61	317,00
-16655,29	381,00
-16615,09	282,00
-16574,99	347,00
-16535,01	329,00
-16495,15	254,00
-16455,39	290,00
-16415,74	216,00
-16376,21	326,00
-16336,78	314,00
-16297,46	272,00
-16258,26	356,00
-16219,16	350,00
-16180,17	298,00
-16141,28	353,00
-16102,51	328,00
-16063,84	283,00
-16025,27	160,00
-15986,82	233,00
-15948,46	313,00
-15910,22	181,00
-15872,07	337,00
-15834,04	388,00
-15796,10	382,00
-15758,27	349,00
-15720,54	254,00
-15682,91	243,00
-15645,39	331,00
-15607,97	242,00
-15570,64	195,00
-15533,42	261,00
-15496,30	309,00
-15459,28	172,00
-15422,36	289,00
-15385,54	177,00
-15348,82	195,00
-15312,19	347,00
-15275,66	204,00
-15239,23	412,00
-15202,90	333,00
-15166,67	403,00
-15130,53	348,00
-15094,48	240,00
-15058,54	304,00
-15022,68	329,00
-14986,93	225,00
-14951,26	367,00
-14915,69	442,00
-14880,22	137,00
-14844,84	343,00
-14809,55	389,00
-14774,35	326,00
-14739,25	335,00
-14704,24	426,00
-14669,32	326,00
-14634,49	349,00
-14599,75	325,00
-14565,10	281,00
-14530,55	431,00
-14496,08	188,00
-14461,70	221,00
-14427,41	361,00
-14393,21	265,00
-14359,10	369,00
-14325,07	334,00
-14291,14	232,00
-14257,29	209,00
-14223,52	438,00
-14189,85	379,00
-14156,26	421,00
-14122,76	385,00
-14089,34	303,00
-14056,01	334,00
-14022,76	286,00
-13989,60	243,00
-13956,52	367,00
-13923,53	293,00
-13890,62	305,00
-13857,79	272,00
-13825,05	419,00
-13792,39	258,00
-13759,81	222,00
-13727,31	164,00
-13694,90	286,00
-13662,57	359,00
-13630,31	456,00
-13598,14	385,00
-13566,05	302,00
-13534,05	309,00
-13502,12	389,00
-13470,27	367,00
-13438,50	321,00
-13406,80	337,00
-13375,19	183,00
-13343,66	267,00
-13312,20	464,00
-13280,83	328,00
-13249,53	286,00
-13218,30	298,00
-13187,16	223,00
-13156,09	250,00
-13125,10	423,00
-13094,18	284,00
-13063,34	419,00
-13032,58	235,00
-13001,89	253,00
-12971,28	359,00
-12940,74	345,00
-12910,27	324,00
-12879,88	190,00
-12849,57	415,00
-12819,33	432,00
-12789,16	289,00
-12759,06	339,00
-12729,04	268,00
-12699,09	2144,00
-12669,21	311,00
-12639,41	236,00
-12609,68	216,00
-12580,02	335,00
-12550,43	204,00
-12520,91	276,00
-12491,46	283,00
-12462,08	280,00
-12432,77	319,00
-12403,54	382,00
-12374,37	355,00
-12345,27	424,00
-12316,24	269,00
-12287,29	290,00
-12258,40	301,00
-12229,57	278,00
-12200,82	261,00
-12172,14	292,00
-12143,52	323,00
-12114,97	320,00
-12086,49	280,00
-12058,07	406,00
-12029,73	296,00
-12001,44	443,00
-11973,23	403,00
-11945,08	316,00
-11917,00	289,00
-11888,98	313,00
-11861,03	421,00
-11833,15	339,00
-11805,32	448,00
-11777,57	330,00
-11749,88	301,00
-11722,25	392,00
-11694,69	313,00
-11667,19	237,00
-11639,75	233,00
-11612,38	262,00
-11585,07	247,00
-11557,83	219,00
-11530,65	248,00
-11503,53	388,00
-11476,47	223,00
-11449,48	217,00
-11422,54	360,00
-11395,67	306,00
-11368,86	293,00
-11342,11	277,00
-11315,43	374,00
-11288,80	260,00
-11262,23	347,00
-11235,73	225,00
-11209,28	353,00
-11182,90	322,00
-11156,57	492,00
-11130,31	371,00
-11104,10	201,00
-11077,96	319,00
-11051,87	359,00
-11025,84	323,00
-10999,87	251,00
-10973,96	213,00
-10948,11	405,00
-10922,31	317,00
-10896,58	385,00
-10870,90	435,00
-10845,28	385,00
-10819,71	272,00
-10794,20	304,00
-10768,75	397,00
-10743,36	332,00
-10718,02	416,00
-10692,74	316,00
-10667,52	385,00
-10642,35	326,00
-10617,24	342,00
-10592,18	301,00
-10567,18	431,00
-10542,23	289,00
-10517,34	459,00
-10492,51	383,00
-10467,72	526,00
-10443,00	278,00
-10418,32	291,00
-10393,70	317,00
-10369,14	324,00
-10344,63	442,00
-10320,17	314,00
-10295,77	450,00
-10271,42	442,00
-10247,12	447,00
-10222,88	325,00
-10198,68	415,00
-10174,54	389,00
-10150,46	393,00
-10126,42	540,00
-10102,44	564,00
-10078,51	667,00
-10054,63	541,00
-10030,80	457,00
-10007,03	533,00
-9983,30	509,00
-9959,63	534,00
-9936,01	704,00
-9912,44	475,00
-9888,92	456,00
-9865,44	617,00
-9842,02	619,00
-9818,65	630,00
-9795,33	612,00
-9772,06	526,00
-9748,84	604,00
-9725,67	548,00
-9702,55	709,00
-9679,47	891,00
-9656,45	907,00
-9633,47	830,00
-9610,55	803,00
-9587,67	922,00
-9564,84	934,00
-9542,06	1031,00
-9519,32	1044,00
-9496,64	1274,00
-9474,00	1308,00
-9451,41	1320,00
-9428,87	1186,00
-9406,37	1237,00
-9383,92	1078,00
-9361,52	1135,00
-9339,17	1130,00
-9316,86	1252,00
-9294,60	1383,00
-9272,38	1612,00
-9250,21	1599,00
-9228,09	1614,00
-9206,01	1608,00
-9183,98	1443,00
-9162,00	1295,00
-9140,06	1199,00
-9118,16	1157,00
-9096,31	1129,00
-9074,51	1321,00
-9052,75	1288,00
-9031,04	1259,00
-9009,37	1145,00
-8987,74	1048,00
-8966,16	1066,00
-8944,63	862,00
-8923,14	875,00
-8901,69	1047,00
-8880,29	1037,00
-8858,93	1099,00
-8837,61	1102,00
-8816,34	1162,00
-8795,11	1153,00
-8773,92	1055,00
-8752,78	1056,00
-8731,68	810,00
-8710,62	1050,00
-8689,61	1031,00
-8668,63	1013,00
-8647,70	1220,00
-8626,82	1165,00
-8605,97	1044,00
-8585,17	1052,00
-8564,41	859,00
-8543,69	931,00
-8523,01	948,00
-8502,37	925,00
-8481,78	981,00
-8461,23	907,00
-8440,71	997,00
-8420,24	1078,00
-8399,81	1030,00
-8379,42	1089,00
-8359,08	1000,00
-8338,77	1006,00
-8318,50	990,00
-8298,27	905,00
-8278,09	1012,00
-8257,94	947,00
-8237,83	963,00
-8217,76	1039,00
-8197,74	1003,00
-8177,75	1094,00
-8157,80	944,00
-8137,89	877,00
-8118,02	802,00
-8098,19	909,00
-8078,40	822,00
-8058,65	891,00
-8038,93	913,00
-8019,26	1010,00
-7999,62	868,00
-7980,02	882,00
-7960,46	803,00
-7940,94	957,00
-7921,46	772,00
-7902,01	792,00
-7882,60	923,00
-7863,23	808,00
-7843,90	908,00
-7824,61	851,00
-7805,35	991,00
-7786,13	878,00
-7766,95	885,00
-7747,80	865,00
-7728,69	889,00
-7709,62	960,00
-7690,59	945,00
-7671,59	1065,00
-7652,63	863,00
-7633,70	1057,00
-7614,81	936,00
-7595,96	963,00
-7577,15	827,00
-7558,37	706,00
-7539,62	921,00
-7520,91	877,00
-7502,24	966,00
-7483,60	888,00
-7465,00	832,00
-7446,44	753,00
-7427,91	674,00
-7409,41	701,00
-7390,95	776,00
-7372,53	683,00
-7354,14	599,00
-7335,78	702,00
-7317,46	764,00
-7299,18	743,00
-7280,92	935,00
-7262,71	991,00
-7244,52	889,00
-7226,38	904,00
-7208,26	923,00
-7190,18	893,00
-7172,14	848,00
-7154,12	844,00
-7136,15	910,00
-7118,20	868,00
-7100,29	874,00
-7082,41	1012,00
-7064,57	873,00
-7046,76	895,00
-7028,98	767,00
-7011,24	748,00
-6993,53	761,00
-6975,85	585,00
-6958,20	574,00
-6940,59	556,00
-6923,01	608,00
-6905,46	660,00
-6887,94	798,00
-6870,46	973,00
-6853,01	1033,00
-6835,59	955,00
-6818,21	787,00
-6800,85	870,00
-6783,53	640,00
-6766,24	573,00
-6748,98	581,00
-6731,76	501,00
-6714,56	541,00
-6697,40	418,00
-6680,26	646,00
-6663,16	567,00
-6646,09	550,00
-6629,05	850,00
-6612,05	785,00
-6595,07	659,00
-6578,13	721,00
-6561,21	646,00
-6544,33	614,00
-6527,47	560,00
-6510,65	505,00
-6493,86	444,00
-6477,10	496,00
-6460,36	565,00
-6443,66	356,00
-6426,99	403,00
-6410,35	562,00
-6393,74	617,00
-6377,16	525,00
-6360,61	610,00
-6344,09	681,00
-6327,59	598,00
-6311,13	661,00
-6294,70	574,00
-6278,29	794,00
-6261,92	674,00
-6245,58	702,00
-6229,26	653,00
-6212,97	528,00
-6196,72	622,00
-6180,49	526,00
-6164,29	376,00
-6148,12	358,00
-6131,98	408,00
-6115,86	349,00
-6099,78	390,00
-6083,72	421,00
-6067,69	387,00
-6051,69	317,00
-6035,72	268,00
-6019,78	397,00
-6003,87	538,00
-5987,98	576,00
-5972,12	497,00
-5956,29	597,00
-5940,49	524,00
-5924,71	412,00
-5908,96	548,00
-5893,24	417,00
-5877,55	381,00
-5861,89	424,00
-5846,25	422,00
-5830,64	429,00
-5815,05	384,00
-5799,50	533,00
-5783,97	427,00
-5768,47	531,00
-5752,99	562,00
-5737,55	683,00
-5722,12	572,00
-5706,73	621,00
-5691,36	496,00
-5676,02	419,00
-5660,71	273,00
-5645,42	432,00
-5630,16	493,00
-5614,92	507,00
-5599,71	366,00
-5584,53	517,00
-5569,37	636,00
-5554,24	1502,00
-5539,14	482,00
-5524,06	405,00
-5509,01	531,00
-5493,98	475,00
-5478,98	478,00
-5464,00	459,00
-5449,05	537,00
-5434,13	409,00
-5419,23	466,00
-5404,36	509,00
-5389,51	528,00
-5374,69	542,00
-5359,89	623,00
-5345,12	727,00
-5330,37	777,00
-5315,65	562,00
-5300,95	429,00
-5286,28	334,00
-5271,63	464,00
-5257,01	659,00
-5242,41	446,00
-5227,84	376,00
-5213,29	369,00
-5198,76	452,00
-5184,26	348,00
-5169,79	302,00
-5155,33	374,00
-5140,91	458,00
-5126,51	509,00
-5112,13	547,00
-5097,77	517,00
-5083,44	526,00
-5069,13	329,00
-5054,85	395,00
-5040,59	366,00
-5026,36	429,00
-5012,15	572,00
-4997,96	596,00
-4983,80	404,00
-4969,66	383,00
-4955,54	460,00
-4941,44	452,00
-4927,37	679,00
-4913,33	727,00
-4899,30	563,00
-4885,30	686,00
-4871,33	483,00
-4857,37	450,00
-4843,44	487,00
-4829,53	409,00
-4815,65	401,00
-4801,79	415,00
-4787,95	488,00
-4774,13	301,00
-4760,34	347,00
-4746,56	441,00
-4732,82	303,00
-4719,09	361,00
-4705,38	532,00
-4691,70	511,00
-4678,04	541,00
-4664,41	533,00
-4650,79	363,00
-4637,20	267,00
-4623,63	395,00
-4610,08	468,00
-4596,56	530,00
-4583,05	566,00
-4569,57	462,00
-4556,11	466,00
-4542,67	386,00
-4529,25	345,00
-4515,86	458,00
-4502,49	586,00
-4489,13	523,00
-4475,80	524,00
-4462,49	287,00
-4449,21	341,00
-4435,94	449,00
-4422,70	418,00
-4409,47	443,00
-4396,27	461,00
-4383,09	479,00
-4369,93	335,00
-4356,79	392,00
-4343,67	373,00
-4330,58	324,00
-4317,50	485,00
-4304,45	403,00
-4291,41	487,00
-4278,40	448,00
-4265,41	231,00
-4252,44	424,00
-4239,49	411,00
-4226,55	451,00
-4213,65	482,00
-4200,76	375,00
-4187,89	256,00
-4175,04	385,00
-4162,21	425,00
-4149,40	201,00
-4136,61	376,00
-4123,85	320,00
-4111,10	272,00
-4098,37	438,00
-4085,66	232,00
-4072,98	301,00
-4060,31	194,00
-4047,66	439,00
-4035,04	488,00
-4022,43	350,00
-4009,84	411,00
-3997,27	331,00
-3984,72	334,00
-3972,19	391,00
-3959,69	365,00
-3947,20	325,00
-3934,73	286,00
-3922,27	346,00
-3909,84	275,00
-3897,43	263,00
-3885,04	332,00
-3872,67	372,00
-3860,31	382,00
-3847,98	368,00
-3835,66	246,00
-3823,36	335,00
-3811,09	298,00
-3798,83	337,00
-3786,59	369,00
-3774,37	299,00
-3762,17	389,00
-3749,98	402,00
-3737,82	274,00
-3725,67	471,00
-3713,55	335,00
-3701,44	328,00
-3689,35	284,00
-3677,28	294,00
-3665,22	234,00
-3653,19	256,00
-3641,17	222,00
-3629,18	441,00
-3617,20	327,00
-3605,24	346,00
-3593,30	294,00
-3581,37	88,00
-3569,47	275,00
-3557,58	333,00
-3545,71	325,00
-3533,86	286,00
-3522,02	286,00
-3510,21	438,00
-3498,41	190,00
-3486,63	406,00
-3474,87	341,00
-3463,12	209,00
-3451,40	254,00
-3439,69	270,00
-3428,00	336,00
-3416,33	328,00
-3404,67	313,00
-3393,03	307,00
-3381,41	252,00
-3369,81	218,00
-3358,22	342,00
-3346,66	371,00
-3335,10	225,00
-3323,57	272,00
-3312,06	302,00
-3300,56	395,00
-3289,08	214,00
-3277,61	211,00
-3266,16	426,00
-3254,73	423,00
-3243,32	457,00
-3231,92	399,00
-3220,55	320,00
-3209,18	233,00
-3197,84	401,00
-3186,51	346,00
-3175,20	324,00
-3163,90	430,00
-3152,63	301,00
-3141,36	328,00
-3130,12	367,00
-3118,89	465,00
-3107,68	207,00
-3096,49	375,00
-3085,31	252,00
-3074,15	358,00
-3063,00	262,00
-3051,87	407,00
-3040,76	199,00
-3029,67	275,00
-3018,59	321,00
-3007,52	376,00
-2996,48	393,00
-2985,44	104,00
-2974,43	374,00
-2963,43	306,00
-2952,45	257,00
-2941,48	362,00
-2930,53	377,00
-2919,60	258,00
-2908,68	375,00
-2897,78	329,00
-2886,89	183,00
-2876,02	366,00
-2865,17	293,00
-2854,33	301,00
-2843,50	334,00
-2832,70	409,00
-2821,90	311,00
-2811,13	215,00
-2800,37	351,00
-2789,62	281,00
-2778,89	361,00
-2768,18	311,00
-2757,48	272,00
-2746,80	208,00
-2736,13	266,00
-2725,48	330,00
-2714,84	337,00
-2704,22	438,00
-2693,61	270,00
-2683,02	361,00
-2672,45	394,00
-2661,89	280,00
-2651,34	292,00
-2640,81	276,00
-2630,30	330,00
-2619,80	264,00
-2609,31	260,00
-2598,84	156,00
-2588,39	342,00
-2577,95	395,00
-2567,52	272,00
-2557,11	323,00
-2546,71	232,00
-2536,33	449,00
-2525,97	356,00
-2515,62	268,00
-2505,28	452,00
-2494,96	309,00
-2484,65	419,00
-2474,36	656,00
-2464,08	380,00
-2453,82	407,00
-2443,57	321,00
-2433,33	380,00
-2423,11	240,00
-2412,91	421,00
-2402,72	258,00
-2392,54	314,00
-2382,38	330,00
-2372,23	226,00
-2362,09	443,00
-2351,97	298,00
-2341,87	368,00
-2331,78	310,00
-2321,70	339,00
-2311,64	300,00
-2301,59	366,00
-2291,55	241,00
-2281,53	439,00
-2271,53	215,00
-2261,53	307,00
-2251,55	385,00
-2241,59	288,00
-2231,64	277,00
-2221,70	260,00
-2211,78	270,00
-2201,87	325,00
-2191,97	477,00
-2182,09	261,00
-2172,22	339,00
-2162,37	359,00
-2152,53	406,00
-2142,70	317,00
-2132,89	304,00
-2123,09	339,00
-2113,30	133,00
-2103,53	318,00
-2093,77	373,00
-2084,02	257,00
-2074,29	322,00
-2064,57	268,00
-2054,86	243,00
-2045,17	371,00
-2035,49	366,00
-2025,82	307,00
-2016,17	286,00
-2006,53	225,00
-1996,91	492,00
-1987,29	308,00
-1977,69	421,00
-1968,11	340,00
-1958,53	188,00
-1948,97	314,00
-1939,42	221,00
-1929,89	240,00
-1920,37	358,00
-1910,86	389,00
-1901,36	371,00
-1891,88	283,00
-1882,41	281,00
-1872,95	248,00
-1863,51	241,00
-1854,08	270,00
-1844,66	334,00
-1835,26	307,00
-1825,86	330,00
-1816,48	404,00
-1807,11	296,00
-1797,76	355,00
-1788,42	336,00
-1779,09	309,00
-1769,77	414,00
-1760,47	299,00
-1751,17	225,00
-1741,89	420,00
-1732,63	343,00
-1723,37	231,00
-1714,13	400,00
-1704,90	347,00
-1695,68	378,00
-1686,48	291,00
-1677,29	315,00
-1668,11	419,00
-1658,94	294,00
-1649,78	231,00
-1640,64	357,00
-1631,51	371,00
-1622,39	336,00
-1613,28	389,00
-1604,19	313,00
-1595,10	335,00
-1586,03	327,00
-1576,97	370,00
-1567,93	202,00
-1558,89	339,00
-1549,87	401,00
-1540,86	372,00
-1531,86	317,00
-1522,87	294,00
-1513,90	476,00
-1504,93	288,00
-1495,98	342,00
-1487,04	346,00
-1478,12	434,00
-1469,20	321,00
-1460,30	422,00
-1451,40	383,00
-1442,52	259,00
-1433,65	388,00
-1424,80	352,00
-1415,95	296,00
-1407,12	259,00
-1398,30	412,00
-1389,48	278,00
-1380,69	275,00
-1371,90	362,00
-1363,12	257,00
-1354,36	227,00
-1345,60	445,00
-1336,86	404,00
-1328,13	415,00
-1319,41	340,00
-1310,70	397,00
-1302,01	251,00
-1293,32	448,00
-1284,65	327,00
-1275,99	301,00
-1267,33	324,00
-1258,69	97,00
-1250,06	311,00
-1241,45	231,00
-1232,84	436,00
-1224,25	299,00
-1215,66	331,00
-1207,09	170,00
-1198,53	327,00
-1189,97	382,00
-1181,43	307,00
-1172,91	280,00
-1164,39	360,00
-1155,88	325,00
-1147,38	212,00
-1138,90	265,00
-1130,43	308,00
-1121,96	303,00
-1113,51	261,00
-1105,07	352,00
-1096,64	466,00
-1088,22	310,00
-1079,81	336,00
-1071,41	250,00
-1063,02	234,00
-1054,65	390,00
-1046,28	339,00
-1037,92	354,00
-1029,58	303,00
-1021,24	232,00
-1012,92	426,00
-1004,61	379,00
-996,30	413,00
-988,01	168,00
-979,73	372,00
-971,46	243,00
-963,20	270,00
-954,95	375,00
-946,71	398,00
-938,48	375,00
-930,26	425,00
-922,06	375,00
-913,86	303,00
-905,67	327,00
-897,49	401,00
-889,33	270,00
-881,17	414,00
-873,02	381,00
-864,89	303,00
-856,76	334,00
-848,65	211,00
-840,54	401,00
-832,45	376,00
-824,36	207,00
-816,29	241,00
-808,22	322,00
-800,17	285,00
-792,12	209,00
-784,09	433,00
-776,06	404,00
-768,05	280,00
-760,04	325,00
-752,05	329,00
-744,07	484,00
-736,09	414,00
-728,13	420,00
-720,17	331,00
-712,23	362,00
-704,29	351,00
-696,37	309,00
-688,45	364,00
-680,55	412,00
-672,65	220,00
-664,77	328,00
-656,89	269,00
-649,03	224,00
-641,17	395,00
-633,32	441,00
-625,49	377,00
-617,66	249,00
-609,84	314,00
-602,03	273,00
-594,23	335,00
-586,45	335,00
-578,67	253,00
-570,90	411,00
-563,14	213,00
-555,39	319,00
-547,65	432,00
-539,91	478,00
-532,19	285,00
-524,48	382,00
-516,78	309,00
-509,08	281,00
-501,40	413,00
-493,72	228,00
-486,06	320,00
-478,40	399,00
-470,76	362,00
-463,12	305,00
-455,49	364,00
-447,87	280,00
-440,26	442,00
-432,66	375,00
-425,07	232,00
-417,49	326,00
-409,92	280,00
-402,35	374,00
-394,80	308,00
-387,25	393,00
-379,72	509,00
-372,19	289,00
-364,67	513,00
-357,17	396,00
-349,67	442,00
-342,18	335,00
-334,69	343,00
-327,22	363,00
-319,76	212,00
-312,30	462,00
-304,86	325,00
-297,42	359,00
-290,00	361,00
-282,58	434,00
-275,17	488,00
-267,77	465,00
-260,37	331,00
-252,99	529,00
-245,62	430,00
-238,25	481,00
-230,90	301,00
-223,55	399,00
-216,21	533,00
-208,88	505,00
-201,56	638,00
-194,25	627,00
-186,94	549,00
-179,65	681,00
-172,36	669,00
-165,08	701,00
-157,81	687,00
-150,55	888,00
-143,30	923,00
-136,06	912,00
-128,82	921,00
-121,60	1005,00
-114,38	1136,00
-107,17	1257,00
-99,97	1387,00
-92,78	1505,00
-85,60	1690,00
-78,42	1892,00
-71,25	2197,00
-64,10	2294,00
-56,95	2845,00
-49,81	3271,00
-42,67	4075,00
-35,55	4991,00
-28,43	6725,00
-21,33	11464,00
-14,23	38660,00
-7,14	54802,00
-0,05	54494,00
7,02	54069,00
14,09	54443,00
21,14	28141,00
28,19	12414,00
35,23	7892,00
42,27	5932,00
49,29	5186,00
56,31	4240,00
63,32	3476,00
70,32	3049,00
77,31	2783,00
84,29	2383,00
91,27	2142,00
98,23	1878,00
105,19	1563,00
112,14	1823,00
119,09	2274,00
126,02	3014,00
132,95	3603,00
139,87	3543,00
146,78	3332,00
153,68	3287,00
160,58	3120,00
167,46	3234,00
174,34	3323,00
181,21	3190,00
188,08	2940,00
194,93	3057,00
201,78	3143,00
208,62	3057,00
215,45	3003,00
222,27	3046,00
229,09	2914,00
235,90	2964,00
242,70	2897,00
249,49	2997,00
256,27	2797,00
263,05	2831,00
269,82	2801,00
276,58	2826,00
283,33	2764,00
290,08	2814,00
296,82	2722,00
303,55	2537,00
310,27	2611,00
316,98	2512,00
323,69	2644,00
330,39	2647,00
337,08	2577,00
343,76	2545,00
350,44	2509,00
357,11	2632,00
363,77	2523,00
370,42	2539,00
377,07	2486,00
383,71	2463,00
390,34	2501,00
396,96	2426,00
403,58	2438,00
410,19	2584,00
416,79	2582,00
423,38	2631,00
429,97	2450,00
436,55	2289,00
443,12	2461,00
449,68	2124,00
456,24	2198,00
462,79	2225,00
469,33	2166,00
475,86	2139,00
482,39	2285,00
488,91	2348,00
495,42	2159,00
501,93	2032,00
508,42	2102,00
514,91	2016,00
521,40	2036,00
527,87	2010,00
534,34	2012,00
540,80	1949,00
547,25	1983,00
553,70	1992,00
560,14	1930,00
566,57	2012,00
573,00	1864,00
579,41	1968,00
585,83	1951,00
592,23	1937,00
598,62	1928,00
605,01	1865,00
611,40	1756,00
617,77	1843,00
624,14	1859,00
630,50	1731,00
636,85	1894,00
643,20	1765,00
649,54	1771,00
655,87	1869,00
662,20	1894,00
668,52	1795,00
674,83	1821,00
681,13	1743,00
687,43	1782,00
693,72	1698,00
700,00	1808,00
706,28	1735,00
712,55	1766,00
718,81	1767,00
725,07	1810,00
731,32	1700,00
737,56	1798,00
743,79	1792,00
750,02	1583,00
756,24	1741,00
762,46	1651,00
768,67	1748,00
774,87	1701,00
781,06	1759,00
787,25	1620,00
793,43	1755,00
799,60	1556,00
805,77	1812,00
811,93	1677,00
818,08	1663,00
824,23	1683,00
830,37	1747,00
836,50	1715,00
842,63	1693,00
848,75	1664,00
854,87	1838,00
860,97	1674,00
867,07	1706,00
873,17	1734,00
879,25	1715,00
885,33	1786,00
891,41	1661,00
897,47	1794,00
903,53	1746,00
909,59	1774,00
915,63	1546,00
921,67	1551,00
927,71	1516,00
933,74	1660,00
939,76	1506,00
945,77	1543,00
951,78	1549,00
957,78	1483,00
963,78	1445,00
969,77	1443,00
975,75	1361,00
981,72	1575,00
987,69	1885,00
993,66	1537,00
999,61	1430,00
1005,56	1623,00
1011,51	1446,00
1017,44	1561,00
1023,37	1511,00
1029,30	1553,00
1035,22	1621,00
1041,13	1486,00
1047,03	1631,00
1052,93	1611,00
1058,83	1888,00
1064,71	1991,00
1070,59	1803,00
1076,47	1677,00
1082,33	1485,00
1088,20	1522,00
1094,05	1621,00
1099,90	1583,00
1105,74	1400,00
1111,58	1467,00
1117,41	1651,00
1123,23	1983,00
1129,05	1950,00
1134,86	1849,00
1140,67	1626,00
1146,47	1612,00
1152,26	1475,00
1158,05	1418,00
1163,83	1452,00
1169,60	1429,00
1175,37	1540,00
1181,13	1404,00
1186,89	1301,00
1192,64	1368,00
1198,38	1362,00
1204,12	1364,00
1209,85	1304,00
1215,58	1358,00
1221,30	1377,00
1227,02	1328,00
1232,72	1351,00
1238,43	1389,00
1244,12	1445,00
1249,81	1395,00
1255,50	1297,00
1261,17	1401,00
1266,85	1373,00
1272,51	1537,00
1278,17	1482,00
1283,83	1616,00
1289,47	1896,00
1295,12	2287,00
1300,75	2184,00
1306,38	1924,00
1312,01	1708,00
1317,63	1642,00
1323,24	1479,00
1328,85	1581,00
1334,45	1587,00
1340,04	1578,00
1345,63	1518,00
1351,22	1496,00
1356,80	1546,00
1362,37	1543,00
1367,93	1608,00
1373,49	1654,00
1379,05	1501,00
1384,60	1433,00
1390,14	1538,00
1395,68	1502,00
1401,21	1499,00
1406,74	1530,00
1412,26	1594,00
1417,77	1806,00
1423,28	1819,00
1428,78	1897,00
1434,28	2072,00
1439,77	2347,00
1445,26	2351,00
1450,74	2252,00
1456,22	2198,00
1461,68	1934,00
1467,15	1992,00
1472,61	1802,00
1478,06	1696,00
1483,51	1537,00
1488,95	1416,00
1494,38	1451,00
1499,81	1366,00
1505,24	1375,00
1510,65	1309,00
1516,07	1202,00
1521,48	1376,00
1526,88	1236,00
1532,27	1156,00
1537,67	1226,00
1543,05	1273,00
1548,43	1228,00
1553,81	1218,00
1559,18	1256,00
1564,54	1384,00
1569,90	1259,00
1575,25	1176,00
1580,60	1172,00
1585,94	1308,00
1591,28	1175,00
1596,61	1151,00
1601,93	1278,00
1607,25	1180,00
1612,57	1152,00
1617,88	1159,00
1623,18	1266,00
1628,48	1105,00
1633,77	1261,00
1639,06	1316,00
1644,34	1186,00
1649,62	1051,00
1654,89	1173,00
1660,16	1081,00
1665,42	1091,00
1670,67	999,00
1675,92	1107,00
1681,17	1153,00
1686,41	1122,00
1691,64	1046,00
1696,87	1170,00
1702,10	1040,00
1707,32	1121,00
1712,53	1114,00
1717,74	1145,00
1722,94	1066,00
1728,14	1114,00
1733,33	1050,00
1738,52	1064,00
1743,70	1047,00
1748,88	985,00
1754,05	1191,00
1759,22	1019,00
1764,38	-584,00
1769,53	1044,00
1774,69	1121,00
1779,83	1051,00
1784,97	844,00
1790,11	892,00
1795,24	995,00
1800,36	988,00
1805,48	857,00
1810,60	911,00
1815,71	911,00
1820,82	852,00
1825,92	1044,00
1831,01	843,00
1836,10	978,00
1841,19	824,00
1846,26	940,00
1851,34	1015,00
1856,41	783,00
1861,47	858,00
1866,53	871,00
1871,59	942,00
1876,64	904,00
1881,68	991,00
1886,72	817,00
1891,76	819,00
1896,79	871,00
1901,81	973,00
1906,83	955,00
1911,85	872,00
1916,86	874,00
1921,86	817,00
1926,86	814,00
1931,86	822,00
1936,85	795,00
1941,83	839,00
1946,81	758,00
1951,79	813,00
1956,76	696,00
1961,72	786,00
1966,68	714,00
1971,64	711,00
1976,59	796,00
1981,54	653,00
1986,48	792,00
1991,42	853,00
1996,35	792,00
2001,27	703,00
2006,20	680,00
2011,11	770,00
2016,03	698,00
2020,93	794,00
2025,84	757,00
2030,73	831,00
2035,63	704,00
2040,52	711,00
2045,40	809,00
2050,28	801,00
2055,15	595,00
2060,02	644,00
2064,89	735,00
2069,75	667,00
2074,60	691,00
2079,46	642,00
2084,30	640,00
2089,14	758,00
2093,98	698,00
2098,81	800,00
2103,64	674,00
2108,46	680,00
2113,28	733,00
2118,09	705,00
2122,90	690,00
2127,70	641,00
2132,50	704,00
2137,30	725,00
2142,09	676,00
2146,87	640,00
2151,66	593,00
2156,43	518,00
2161,20	659,00
2165,97	672,00
2170,73	796,00
2175,49	817,00
2180,24	581,00
2184,99	624,00
2189,74	772,00
2194,48	703,00
2199,21	752,00
2203,94	591,00
2208,67	693,00
2213,39	563,00
2218,11	588,00
2222,82	624,00
2227,53	647,00
2232,23	648,00
2236,93	642,00
2241,63	562,00
2246,32	641,00
2251,00	608,00
2255,68	513,00
2260,36	514,00
2265,03	591,00
2269,70	584,00
2274,36	629,00
2279,02	544,00
2283,68	584,00
2288,33	568,00
2292,97	618,00
2297,61	648,00
2302,25	567,00
2306,88	699,00
2311,51	702,00
2316,14	627,00
2320,75	515,00
2325,37	597,00
2329,98	619,00
2334,59	603,00
2339,19	516,00
2343,79	545,00
2348,38	531,00
2352,97	605,00
2357,55	634,00
2362,13	657,00
2366,71	554,00
2371,28	635,00
2375,85	581,00
2380,41	524,00
2384,97	523,00
2389,52	568,00
2394,07	506,00
2398,62	587,00
2403,16	589,00
2407,70	536,00
2412,23	537,00
2416,76	575,00
2421,29	577,00
2425,81	552,00
2430,32	575,00
2434,84	379,00
2439,34	519,00
2443,85	497,00
2448,35	506,00
2452,84	478,00
2457,33	589,00
2461,82	457,00
2466,30	530,00
2470,78	489,00
2475,25	468,00
2479,72	517,00
2484,19	500,00
2488,65	457,00
2493,11	607,00
2497,56	543,00
2502,01	444,00
2506,46	507,00
2510,90	431,00
2515,34	471,00
2519,77	538,00
2524,20	477,00
2528,62	411,00
2533,04	614,00
2537,46	440,00
2541,87	390,00
2546,28	563,00
2550,68	421,00
2555,08	348,00
2559,48	517,00
2563,87	610,00
2568,26	421,00
2572,64	382,00
2577,02	575,00
2581,40	412,00
2585,77	518,00
2590,14	508,00
2594,50	422,00
2598,86	473,00
2603,22	526,00
2607,57	468,00
2611,92	425,00
2616,26	443,00
2620,60	492,00
2624,94	484,00
2629,27	494,00
2633,60	465,00
2637,92	501,00
2642,24	616,00
2646,56	422,00
2650,87	380,00
2655,18	540,00
2659,48	378,00
2663,78	640,00
2668,08	411,00
2672,37	475,00
2676,66	441,00
2680,95	395,00
2685,23	518,00
2689,50	498,00
2693,78	419,00
2698,05	611,00
2702,31	526,00
2706,57	524,00
2710,83	407,00
2715,08	625,00
2719,33	665,00
2723,58	567,00
2727,82	690,00
2732,06	541,00
2736,29	651,00
2740,53	612,00
2744,75	507,00
2748,97	636,00
2753,19	493,00
2757,41	509,00
2761,62	569,00
2765,83	501,00
2770,03	549,00
2774,23	571,00
2778,43	554,00
2782,62	591,00
2786,81	635,00
2791,00	682,00
2795,18	674,00
2799,35	557,00
2803,53	616,00
2807,70	597,00
2811,86	723,00
2816,03	668,00
2820,19	758,00
2824,34	755,00
2828,49	700,00
2832,64	902,00
2836,78	1059,00
2840,92	1130,00
2845,06	1371,00
2849,19	1465,00
2853,32	1609,00
2857,45	1607,00
2861,57	1531,00
2865,69	1545,00
2869,80	1365,00
2873,91	1444,00
2878,02	1654,00
2882,12	1708,00
2886,22	1612,00
2890,32	1531,00
2894,41	1473,00
2898,50	1480,00
2902,58	1464,00
2906,67	1366,00
2910,74	1327,00
2914,82	1195,00
2918,89	1189,00
2922,96	1070,00
2927,02	974,00
2931,08	948,00
2935,13	930,00
2939,19	961,00
2943,24	904,00
2947,28	810,00
2951,32	840,00
2955,36	673,00
2959,40	639,00
2963,43	706,00
2967,46	629,00
2971,48	576,00
2975,50	625,00
2979,52	627,00
2983,53	469,00
2987,54	544,00
2991,55	459,00
2995,55	658,00
2999,55	352,00
3003,54	436,00
3007,54	234,00
3011,53	521,00
3015,51	373,00
3019,49	358,00
3023,47	450,00
3027,45	416,00
3031,42	423,00
3035,39	377,00
3039,35	317,00
3043,31	475,00
3047,27	391,00
3051,22	479,00
3055,17	472,00
3059,12	342,00
3063,06	416,00
3067,00	356,00
3070,94	453,00
3074,87	373,00
3078,80	385,00
3082,73	368,00
3086,65	368,00
3090,57	396,00
3094,49	275,00
3098,40	408,00
3102,31	397,00
3106,22	441,00
3110,12	409,00
3114,02	348,00
3117,92	457,00
3121,81	423,00
3125,70	312,00
3129,58	327,00
3133,47	406,00
3137,34	291,00
3141,22	431,00
3145,09	368,00
3148,96	332,00
3152,83	528,00
3156,69	432,00
3160,55	309,00
3164,40	438,00
3168,26	303,00
3172,10	414,00
3175,95	289,00
3179,79	399,00
3183,63	375,00
3187,47	460,00
3191,30	394,00
3195,13	300,00
3198,95	468,00
3202,78	482,00
3206,60	327,00
3210,41	370,00
3214,23	299,00
3218,03	470,00
3221,84	412,00
3225,64	377,00
3229,44	264,00
3233,24	326,00
3237,03	402,00
3240,82	316,00
3244,61	275,00
3248,39	335,00
3252,17	402,00
3255,95	407,00
3259,72	349,00
3263,49	326,00
3267,26	406,00
3271,03	280,00
3274,79	307,00
3278,54	248,00
3282,30	189,00
3286,05	329,00
3289,80	410,00
3293,54	348,00
3297,29	522,00
3301,02	395,00
3304,76	334,00
3308,49	372,00
3312,22	291,00
3315,95	335,00
3319,67	386,00
3323,39	240,00
3327,10	376,00
3330,82	242,00
3334,53	382,00
3338,24	274,00
3341,94	523,00
3345,64	376,00
3349,34	363,00
3353,03	292,00
3356,72	306,00
3360,41	408,00
3364,10	267,00
3367,78	359,00
3371,46	370,00
3375,13	190,00
3378,81	445,00
3382,48	307,00
3386,14	353,00
3389,81	319,00
3393,47	402,00
3397,12	390,00
3400,78	380,00
3404,43	271,00
3408,08	446,00
3411,72	270,00
3415,36	346,00
3419,00	424,00
3422,64	283,00
3426,27	269,00
3429,90	276,00
3433,53	415,00
3437,15	401,00
3440,77	265,00
3444,39	324,00
3448,00	262,00
3451,62	353,00
3455,22	245,00
3458,83	291,00
3462,43	290,00
3466,03	194,00
3469,63	313,00
3473,22	438,00
3476,81	338,00
3480,40	329,00
3483,99	373,00
3487,57	487,00
3491,15	239,00
3494,72	327,00
3498,29	365,00
3501,86	271,00
3505,43	217,00
3508,99	195,00
3512,56	345,00
3516,11	342,00
3519,67	264,00
3523,22	353,00
3526,77	356,00
3530,32	306,00
3533,86	220,00
3537,40	389,00
3540,94	333,00
3544,47	276,00
3548,00	312,00
3551,53	301,00
3555,06	275,00
3558,58	369,00
3562,10	343,00
3565,62	140,00
3569,13	258,00
3572,64	187,00
3576,15	329,00
3579,66	223,00
3583,16	276,00
3586,66	329,00
3590,16	318,00
3593,65	222,00
3597,14	360,00
3600,63	259,00
3604,11	184,00
3607,60	265,00
3611,08	328,00
3614,55	416,00
3618,03	307,00
3621,50	156,00
3624,97	314,00
3628,43	348,00
3631,90	312,00
3635,36	266,00
3638,81	217,00
3642,27	313,00
3645,72	336,00
3649,17	327,00
3652,61	211,00
3656,06	328,00
3659,50	351,00
3662,93	192,00
3666,37	334,00
3669,80	174,00
3673,23	335,00
3676,65	387,00
3680,08	255,00
3683,50	323,00
3686,92	313,00
3690,33	236,00
3693,74	344,00
3697,15	233,00
3700,56	245,00
3703,96	275,00
3707,36	347,00
3710,76	238,00
3714,16	284,00
3717,55	228,00
3720,94	301,00
3724,33	286,00
3727,71	393,00
3731,10	269,00
3734,48	328,00
3737,85	249,00
3741,23	302,00
3744,60	307,00
3747,97	229,00
3751,33	418,00
3754,69	276,00
3758,05	281,00
3761,41	339,00
3764,77	392,00
3768,12	229,00
3771,47	227,00
3774,82	289,00
3778,16	0,00
3781,50	-4,00
3784,84	-6,00
3788,18	9,00
>>>>>End Processed Spectral Data<<<<<
