SpectraSuite Data File
++++++++++++++++++++++++++++++++++++
Date: Wed Feb 04 16:13:51 ICT 2026
User: Administrator
Dark Spectrum Present: Yes
Reference Spectrum Present: No
Number of Sampled Component Spectra: 1
Spectrometers: MAYP113682
Integration Time (usec): 3000000 (MAYP113682)
Spectra Averaged: 1 (MAYP113682)
Boxcar Smoothing: 0 (MAYP113682)
Correct for Electrical Dark: No (MAYP113682)
Strobe/Lamp Enabled: No (MAYP113682)
Correct for Detector Non-linearity: No (MAYP113682)
Correct for Stray Light: No (MAYP113682)
Number of Pixels in Processed Spectrum: 2068
>>>>>Begin Processed Spectral Data<<<<<
-37534,58	2,00
-37414,56	-3,00
-37295,11	-10,00
-37176,24	-1,00
-37057,95	102,00
-36940,22	152,00
-36823,05	105,00
-36706,45	31,00
-36590,40	62,00
-36474,90	28,00
-36359,95	20,00
-36245,55	108,00
-36131,68	-55,00
-36018,35	147,00
-35905,55	96,00
-35793,29	78,00
-35681,54	110,00
-35570,32	81,00
-35459,62	4,00
-35349,43	-29,00
-35239,75	24,00
-35130,58	78,00
-35021,91	118,00
-34913,74	31,00
-34806,07	51,00
-34698,89	108,00
-34592,20	120,00
-34486,00	42,00
-34380,28	74,00
-34275,04	70,00
-34170,27	93,00
-34065,98	-23,00
-33962,16	6,00
-33858,81	3,00
-33755,92	98,00
-33653,49	18,00
-33551,52	100,00
-33450,01	36,00
-33348,94	-13,00
-33248,33	124,00
-33148,16	38,00
-33048,43	110,00
-32949,14	95,00
-32850,29	100,00
-32751,87	74,00
-32653,89	45,00
-32556,33	59,00
-32459,20	-81,00
-32362,49	-22,00
-32266,19	166,00
-32170,32	94,00
-32074,86	150,00
-31979,82	149,00
-31885,18	92,00
-31790,95	213,00
-31697,12	-41,00
-31603,69	105,00
-31510,67	92,00
-31418,04	126,00
-31325,80	25,00
-31233,95	95,00
-31142,49	119,00
-31051,42	183,00
-30960,73	23,00
-30870,43	125,00
-30780,50	8,00
-30690,95	0,00
-30601,77	64,00
-30512,97	13,00
-30424,53	85,00
-30336,46	-10,00
-30248,76	5,00
-30161,42	104,00
-30074,44	121,00
-29987,81	56,00
-29901,55	42,00
-29815,63	49,00
-29730,07	26,00
-29644,86	128,00
-29560,00	111,00
-29475,48	88,00
-29391,30	74,00
-29307,47	89,00
-29223,97	104,00
-29140,81	88,00
-29057,99	-17,00
-28975,50	61,00
-28893,34	49,00
-28811,51	34,00
-28730,00	28,00
-28648,82	49,00
-28567,97	57,00
-28487,43	-55,00
-28407,21	133,00
-28327,32	-32,00
-28247,73	60,00
-28168,46	49,00
-28089,50	185,00
-28010,85	-37,00
-27932,51	96,00
-27854,48	69,00
-27776,75	26,00
-27699,32	40,00
-27622,19	104,00
-27545,37	-19,00
-27468,84	127,00
-27392,60	173,00
-27316,66	85,00
-27241,01	115,00
-27165,66	7,00
-27090,59	100,00
-27015,81	98,00
-26941,31	110,00
-26867,10	61,00
-26793,17	77,00
-26719,52	91,00
-26646,15	227,00
-26573,06	157,00
-26500,24	6,00
-26427,70	214,00
-26355,43	82,00
-26283,43	99,00
-26211,71	21,00
-26140,25	66,00
-26069,06	98,00
-25998,13	98,00
-25927,46	27,00
-25857,06	-9,00
-25786,92	-30,00
-25717,04	191,00
-25647,42	58,00
-25578,05	71,00
-25508,94	48,00
-25440,09	87,00
-25371,48	187,00
-25303,13	-25,00
-25235,02	89,00
-25167,17	81,00
-25099,56	64,00
-25032,19	122,00
-24965,07	13,00
-24898,20	45,00
-24831,56	200,00
-24765,17	74,00
-24699,01	5,00
-24633,10	-19,00
-24567,41	7,00
-24501,97	-67,00
-24436,75	31,00
-24371,77	25,00
-24307,03	-42,00
-24242,51	55,00
-24178,22	50,00
-24114,16	102,00
-24050,32	151,00
-23986,71	67,00
-23923,32	50,00
-23860,16	66,00
-23797,22	69,00
-23734,50	11,00
-23672,00	-17,00
-23609,71	3,00
-23547,65	58,00
-23485,80	151,00
-23424,16	173,00
-23362,74	-7,00
-23301,53	91,00
-23240,54	204,00
-23179,75	40,00
-23119,17	99,00
-23058,80	138,00
-22998,64	95,00
-22938,68	45,00
-22878,93	54,00
-22819,39	127,00
-22760,04	122,00
-22700,90	67,00
-22641,96	27,00
-22583,22	197,00
-22524,68	130,00
-22466,33	104,00
-22408,19	68,00
-22350,23	153,00
-22292,48	66,00
-22234,92	15,00
-22177,55	-91,00
-22120,37	-6,00
-22063,38	140,00
-22006,58	-38,00
-21949,98	160,00
-21893,56	105,00
-21837,33	52,00
-21781,28	-18,00
-21725,42	153,00
-21669,74	42,00
-21614,25	-48,00
-21558,94	66,00
-21503,81	49,00
-21448,86	8,00
-21394,10	120,00
-21339,51	147,00
-21285,10	19,00
-21230,86	65,00
-21176,81	112,00
-21122,93	52,00
-21069,22	65,00
-21015,69	54,00
-20962,33	37,00
-20909,14	62,00
-20856,13	-100,00
-20803,28	83,00
-20750,61	60,00
-20698,10	-41,00
-20645,76	8,00
-20593,59	-8,00
-20541,59	151,00
-20489,75	127,00
-20438,07	-32,00
-20386,56	55,00
-20335,22	7,00
-20284,03	103,00
-20233,01	139,00
-20182,15	32,00
-20131,45	2,00
-20080,91	1,00
-20030,52	-46,00
-19980,30	77,00
-19930,23	146,00
-19880,32	-2,00
-19830,56	-22,00
-19780,96	19,00
-19731,52	62,00
-19682,23	151,00
-19633,09	51,00
-19584,10	62,00
-19535,26	286,00
-19486,58	130,00
-19438,04	138,00
-19389,66	206,00
-19341,42	61,00
-19293,33	89,00
-19245,39	93,00
-19197,60	108,00
-19149,95	209,00
-19102,45	12,00
-19055,09	91,00
-19007,87	48,00
-18960,80	12,00
-18913,87	112,00
-18867,09	156,00
-18820,44	107,00
-18773,94	102,00
-18727,57	-4,00
-18681,35	23,00
-18635,26	141,00
-18589,31	14,00
-18543,50	109,00
-18497,83	74,00
-18452,29	-23,00
-18406,89	6,00
-18361,63	137,00
-18316,50	-107,00
-18271,50	116,00
-18226,63	-28,00
-18181,90	80,00
-18137,30	33,00
-18092,84	262,00
-18048,50	126,00
-18004,29	77,00
-17960,22	102,00
-17916,27	79,00
-17872,45	96,00
-17828,76	82,00
-17785,20	25,00
-17741,77	57,00
-17698,46	175,00
-17655,28	10,00
-17612,22	116,00
-17569,29	39,00
-17526,48	114,00
-17483,79	93,00
-17441,23	22,00
-17398,79	97,00
-17356,48	91,00
-17314,28	-24,00
-17272,21	78,00
-17230,26	68,00
-17188,42	111,00
-17146,71	39,00
-17105,12	49,00
-17063,64	86,00
-17022,28	134,00
-16981,04	128,00
-16939,92	53,00
-16898,91	-71,00
-16858,02	130,00
-16817,25	39,00
-16776,59	58,00
-16736,04	69,00
-16695,61	84,00
-16655,29	34,00
-16615,09	104,00
-16574,99	171,00
-16535,01	23,00
-16495,15	33,00
-16455,39	-58,00
-16415,74	11,00
-16376,21	118,00
-16336,78	71,00
-16297,46	101,00
-16258,26	113,00
-16219,16	101,00
-16180,17	32,00
-16141,28	113,00
-16102,51	84,00
-16063,84	23,00
-16025,27	16,00
-15986,82	8,00
-15948,46	18,00
-15910,22	98,00
-15872,07	139,00
-15834,04	-14,00
-15796,10	62,00
-15758,27	24,00
-15720,54	34,00
-15682,91	116,00
-15645,39	114,00
-15607,97	82,00
-15570,64	67,00
-15533,42	28,00
-15496,30	98,00
-15459,28	109,00
-15422,36	136,00
-15385,54	57,00
-15348,82	79,00
-15312,19	112,00
-15275,66	69,00
-15239,23	35,00
-15202,90	127,00
-15166,67	129,00
-15130,53	25,00
-15094,48	102,00
-15058,54	7,00
-15022,68	4,00
-14986,93	112,00
-14951,26	86,00
-14915,69	58,00
-14880,22	-40,00
-14844,84	73,00
-14809,55	33,00
-14774,35	153,00
-14739,25	102,00
-14704,24	71,00
-14669,32	8,00
-14634,49	142,00
-14599,75	111,00
-14565,10	52,00
-14530,55	50,00
-14496,08	76,00
-14461,70	32,00
-14427,41	76,00
-14393,21	96,00
-14359,10	87,00
-14325,07	81,00
-14291,14	88,00
-14257,29	79,00
-14223,52	47,00
-14189,85	80,00
-14156,26	71,00
-14122,76	141,00
-14089,34	119,00
-14056,01	6,00
-14022,76	-19,00
-13989,60	-27,00
-13956,52	-4,00
-13923,53	153,00
-13890,62	105,00
-13857,79	112,00
-13825,05	37,00
-13792,39	13,00
-13759,81	9,00
-13727,31	70,00
-13694,90	110,00
-13662,57	114,00
-13630,31	97,00
-13598,14	146,00
-13566,05	99,00
-13534,05	109,00
-13502,12	102,00
-13470,27	57,00
-13438,50	83,00
-13406,80	38,00
-13375,19	46,00
-13343,66	43,00
-13312,20	50,00
-13280,83	51,00
-13249,53	50,00
-13218,30	9,00
-13187,16	64,00
-13156,09	16,00
-13125,10	4,00
-13094,18	174,00
-13063,34	52,00
-13032,58	10,00
-13001,89	93,00
-12971,28	69,00
-12940,74	27,00
-12910,27	150,00
-12879,88	78,00
-12849,57	24,00
-12819,33	109,00
-12789,16	53,00
-12759,06	41,00
-12729,04	167,00
-12699,09	183,00
-12669,21	177,00
-12639,41	38,00
-12609,68	47,00
-12580,02	40,00
-12550,43	49,00
-12520,91	44,00
-12491,46	161,00
-12462,08	50,00
-12432,77	98,00
-12403,54	164,00
-12374,37	108,00
-12345,27	71,00
-12316,24	166,00
-12287,29	49,00
-12258,40	70,00
-12229,57	79,00
-12200,82	80,00
-12172,14	-99,00
-12143,52	74,00
-12114,97	54,00
-12086,49	20,00
-12058,07	27,00
-12029,73	93,00
-12001,44	109,00
-11973,23	63,00
-11945,08	188,00
-11917,00	16,00
-11888,98	-25,00
-11861,03	34,00
-11833,15	39,00
-11805,32	70,00
-11777,57	97,00
-11749,88	135,00
-11722,25	50,00
-11694,69	41,00
-11667,19	37,00
-11639,75	34,00
-11612,38	-12,00
-11585,07	115,00
-11557,83	76,00
-11530,65	20,00
-11503,53	124,00
-11476,47	93,00
-11449,48	51,00
-11422,54	70,00
-11395,67	-2,00
-11368,86	57,00
-11342,11	-48,00
-11315,43	57,00
-11288,80	3,00
-11262,23	143,00
-11235,73	124,00
-11209,28	227,00
-11182,90	127,00
-11156,57	126,00
-11130,31	113,00
-11104,10	10,00
-11077,96	158,00
-11051,87	116,00
-11025,84	166,00
-10999,87	-18,00
-10973,96	166,00
-10948,11	201,00
-10922,31	55,00
-10896,58	48,00
-10870,90	159,00
-10845,28	30,00
-10819,71	101,00
-10794,20	235,00
-10768,75	149,00
-10743,36	166,00
-10718,02	184,00
-10692,74	235,00
-10667,52	122,00
-10642,35	220,00
-10617,24	181,00
-10592,18	192,00
-10567,18	189,00
-10542,23	307,00
-10517,34	94,00
-10492,51	257,00
-10467,72	135,00
-10443,00	266,00
-10418,32	105,00
-10393,70	168,00
-10369,14	108,00
-10344,63	355,00
-10320,17	262,00
-10295,77	279,00
-10271,42	400,00
-10247,12	365,00
-10222,88	423,00
-10198,68	420,00
-10174,54	394,00
-10150,46	468,00
-10126,42	487,00
-10102,44	542,00
-10078,51	564,00
-10054,63	482,00
-10030,80	584,00
-10007,03	778,00
-9983,30	799,00
-9959,63	740,00
-9936,01	894,00
-9912,44	728,00
-9888,92	868,00
-9865,44	900,00
-9842,02	795,00
-9818,65	928,00
-9795,33	1007,00
-9772,06	969,00
-9748,84	1075,00
-9725,67	1270,00
-9702,55	1416,00
-9679,47	1658,00
-9656,45	1853,00
-9633,47	1929,00
-9610,55	2037,00
-9587,67	2142,00
-9564,84	2298,00
-9542,06	2585,00
-9519,32	2935,00
-9496,64	2950,00
-9474,00	3355,00
-9451,41	3528,00
-9428,87	3719,00
-9406,37	3445,00
-9383,92	3433,00
-9361,52	3419,00
-9339,17	3566,00
-9316,86	4165,00
-9294,60	4877,00
-9272,38	5302,00
-9250,21	5946,00
-9228,09	6006,00
-9206,01	5818,00
-9183,98	5403,00
-9162,00	5012,00
-9140,06	5020,00
-9118,16	5044,00
-9096,31	5262,00
-9074,51	5697,00
-9052,75	5535,00
-9031,04	5305,00
-9009,37	4870,00
-8987,74	4265,00
-8966,16	3656,00
-8944,63	3431,00
-8923,14	3485,00
-8901,69	3576,00
-8880,29	3832,00
-8858,93	4180,00
-8837,61	4506,00
-8816,34	4877,00
-8795,11	4713,00
-8773,92	4490,00
-8752,78	4013,00
-8731,68	3487,00
-8710,62	3841,00
-8689,61	3977,00
-8668,63	4177,00
-8647,70	4569,00
-8626,82	4439,00
-8605,97	4364,00
-8585,17	3842,00
-8564,41	3617,00
-8543,69	3391,00
-8523,01	3233,00
-8502,37	3393,00
-8481,78	3551,00
-8461,23	3906,00
-8440,71	4109,00
-8420,24	4369,00
-8399,81	4488,00
-8379,42	4437,00
-8359,08	4283,00
-8338,77	3830,00
-8318,50	3462,00
-8298,27	3473,00
-8278,09	3580,00
-8257,94	3738,00
-8237,83	4158,00
-8217,76	4403,00
-8197,74	4316,00
-8177,75	4058,00
-8157,80	3800,00
-8137,89	3445,00
-8118,02	3133,00
-8098,19	3140,00
-8078,40	3342,00
-8058,65	3439,00
-8038,93	3496,00
-8019,26	3466,00
-7999,62	3185,00
-7980,02	3028,00
-7960,46	2912,00
-7940,94	2721,00
-7921,46	2825,00
-7902,01	2775,00
-7882,60	2603,00
-7863,23	2682,00
-7843,90	2870,00
-7824,61	2953,00
-7805,35	3187,00
-7786,13	3183,00
-7766,95	3086,00
-7747,80	2877,00
-7728,69	2772,00
-7709,62	2825,00
-7690,59	2969,00
-7671,59	3085,00
-7652,63	3187,00
-7633,70	3242,00
-7614,81	3086,00
-7595,96	2878,00
-7577,15	2577,00
-7558,37	2641,00
-7539,62	2738,00
-7520,91	2830,00
-7502,24	2982,00
-7483,60	3043,00
-7465,00	2824,00
-7446,44	2510,00
-7427,91	2243,00
-7409,41	2003,00
-7390,95	1893,00
-7372,53	1839,00
-7354,14	1934,00
-7335,78	1828,00
-7317,46	1904,00
-7299,18	2130,00
-7280,92	2401,00
-7262,71	2698,00
-7244,52	2876,00
-7226,38	2926,00
-7208,26	2838,00
-7190,18	2651,00
-7172,14	2310,00
-7154,12	2436,00
-7136,15	2574,00
-7118,20	2663,00
-7100,29	2786,00
-7082,41	2883,00
-7064,57	2716,00
-7046,76	2507,00
-7028,98	2222,00
-7011,24	1988,00
-6993,53	1677,00
-6975,85	1383,00
-6958,20	1368,00
-6940,59	1294,00
-6923,01	1265,00
-6905,46	1697,00
-6887,94	2036,00
-6870,46	2842,00
-6853,01	2643,00
-6835,59	2536,00
-6818,21	2374,00
-6800,85	1712,00
-6783,53	1612,00
-6766,24	1364,00
-6748,98	1118,00
-6731,76	973,00
-6714,56	885,00
-6697,40	994,00
-6680,26	1171,00
-6663,16	1385,00
-6646,09	1539,00
-6629,05	1915,00
-6612,05	2086,00
-6595,07	1920,00
-6578,13	1791,00
-6561,21	1470,00
-6544,33	1304,00
-6527,47	933,00
-6510,65	736,00
-6493,86	867,00
-6477,10	975,00
-6460,36	919,00
-6443,66	784,00
-6426,99	873,00
-6410,35	959,00
-6393,74	984,00
-6377,16	1093,00
-6360,61	1227,00
-6344,09	1370,00
-6327,59	1351,00
-6311,13	1429,00
-6294,70	1513,00
-6278,29	1651,00
-6261,92	1667,00
-6245,58	1939,00
-6229,26	1928,00
-6212,97	1565,00
-6196,72	1247,00
-6180,49	1017,00
-6164,29	736,00
-6148,12	446,00
-6131,98	440,00
-6115,86	541,00
-6099,78	465,00
-6083,72	379,00
-6067,69	437,00
-6051,69	458,00
-6035,72	514,00
-6019,78	473,00
-6003,87	898,00
-5987,98	1216,00
-5972,12	1478,00
-5956,29	1429,00
-5940,49	1310,00
-5924,71	987,00
-5908,96	721,00
-5893,24	520,00
-5877,55	710,00
-5861,89	647,00
-5846,25	656,00
-5830,64	605,00
-5815,05	650,00
-5799,50	622,00
-5783,97	718,00
-5768,47	783,00
-5752,99	974,00
-5737,55	1284,00
-5722,12	1366,00
-5706,73	1248,00
-5691,36	924,00
-5676,02	739,00
-5660,71	445,00
-5645,42	468,00
-5630,16	648,00
-5614,92	724,00
-5599,71	889,00
-5584,53	898,00
-5569,37	973,00
-5554,24	956,00
-5539,14	791,00
-5524,06	743,00
-5509,01	734,00
-5493,98	754,00
-5478,98	836,00
-5464,00	885,00
-5449,05	742,00
-5434,13	680,00
-5419,23	524,00
-5404,36	601,00
-5389,51	972,00
-5374,69	1198,00
-5359,89	1488,00
-5345,12	1402,00
-5330,37	1350,00
-5315,65	1171,00
-5300,95	853,00
-5286,28	753,00
-5271,63	778,00
-5257,01	707,00
-5242,41	821,00
-5227,84	677,00
-5213,29	463,00
-5198,76	449,00
-5184,26	294,00
-5169,79	436,00
-5155,33	677,00
-5140,91	871,00
-5126,51	1056,00
-5112,13	1002,00
-5097,77	862,00
-5083,44	650,00
-5069,13	515,00
-5054,85	551,00
-5040,59	585,00
-5026,36	753,00
-5012,15	924,00
-4997,96	764,00
-4983,80	678,00
-4969,66	430,00
-4955,54	563,00
-4941,44	606,00
-4927,37	915,00
-4913,33	1314,00
-4899,30	1547,00
-4885,30	1415,00
-4871,33	1061,00
-4857,37	630,00
-4843,44	510,00
-4829,53	457,00
-4815,65	542,00
-4801,79	562,00
-4787,95	612,00
-4774,13	573,00
-4760,34	372,00
-4746,56	386,00
-4732,82	553,00
-4719,09	732,00
-4705,38	944,00
-4691,70	1262,00
-4678,04	1384,00
-4664,41	996,00
-4650,79	695,00
-4637,20	580,00
-4623,63	351,00
-4610,08	601,00
-4596,56	735,00
-4583,05	798,00
-4569,57	717,00
-4556,11	407,00
-4542,67	292,00
-4529,25	488,00
-4515,86	674,00
-4502,49	1077,00
-4489,13	1103,00
-4475,80	965,00
-4462,49	650,00
-4449,21	378,00
-4435,94	328,00
-4422,70	498,00
-4409,47	689,00
-4396,27	726,00
-4383,09	544,00
-4369,93	333,00
-4356,79	174,00
-4343,67	305,00
-4330,58	412,00
-4317,50	542,00
-4304,45	490,00
-4291,41	296,00
-4278,40	339,00
-4265,41	257,00
-4252,44	423,00
-4239,49	574,00
-4226,55	582,00
-4213,65	442,00
-4200,76	371,00
-4187,89	171,00
-4175,04	176,00
-4162,21	215,00
-4149,40	341,00
-4136,61	128,00
-4123,85	188,00
-4111,10	21,00
-4098,37	249,00
-4085,66	126,00
-4072,98	308,00
-4060,31	179,00
-4047,66	91,00
-4035,04	206,00
-4022,43	285,00
-4009,84	213,00
-3997,27	211,00
-3984,72	108,00
-3972,19	154,00
-3959,69	129,00
-3947,20	130,00
-3934,73	31,00
-3922,27	169,00
-3909,84	170,00
-3897,43	111,00
-3885,04	86,00
-3872,67	6,00
-3860,31	266,00
-3847,98	95,00
-3835,66	138,00
-3823,36	118,00
-3811,09	-85,00
-3798,83	139,00
-3786,59	6,00
-3774,37	-11,00
-3762,17	77,00
-3749,98	14,00
-3737,82	67,00
-3725,67	69,00
-3713,55	37,00
-3701,44	71,00
-3689,35	14,00
-3677,28	143,00
-3665,22	146,00
-3653,19	77,00
-3641,17	17,00
-3629,18	88,00
-3617,20	61,00
-3605,24	84,00
-3593,30	101,00
-3581,37	-4,00
-3569,47	189,00
-3557,58	82,00
-3545,71	106,00
-3533,86	125,00
-3522,02	61,00
-3510,21	38,00
-3498,41	86,00
-3486,63	40,00
-3474,87	-6,00
-3463,12	126,00
-3451,40	189,00
-3439,69	127,00
-3428,00	25,00
-3416,33	24,00
-3404,67	91,00
-3393,03	38,00
-3381,41	137,00
-3369,81	96,00
-3358,22	13,00
-3346,66	156,00
-3335,10	134,00
-3323,57	-50,00
-3312,06	33,00
-3300,56	122,00
-3289,08	29,00
-3277,61	102,00
-3266,16	27,00
-3254,73	152,00
-3243,32	155,00
-3231,92	59,00
-3220,55	7,00
-3209,18	97,00
-3197,84	21,00
-3186,51	128,00
-3175,20	-16,00
-3163,90	92,00
-3152,63	29,00
-3141,36	72,00
-3130,12	65,00
-3118,89	-1,00
-3107,68	102,00
-3096,49	98,00
-3085,31	57,00
-3074,15	83,00
-3063,00	184,00
-3051,87	142,00
-3040,76	101,00
-3029,67	66,00
-3018,59	108,00
-3007,52	56,00
-2996,48	116,00
-2985,44	30,00
-2974,43	80,00
-2963,43	44,00
-2952,45	150,00
-2941,48	60,00
-2930,53	29,00
-2919,60	50,00
-2908,68	66,00
-2897,78	173,00
-2886,89	-30,00
-2876,02	35,00
-2865,17	72,00
-2854,33	49,00
-2843,50	159,00
-2832,70	114,00
-2821,90	-7,00
-2811,13	113,00
-2800,37	81,00
-2789,62	13,00
-2778,89	90,00
-2768,18	-59,00
-2757,48	80,00
-2746,80	123,00
-2736,13	50,00
-2725,48	148,00
-2714,84	-37,00
-2704,22	38,00
-2693,61	-48,00
-2683,02	91,00
-2672,45	102,00
-2661,89	160,00
-2651,34	36,00
-2640,81	82,00
-2630,30	9,00
-2619,80	-19,00
-2609,31	118,00
-2598,84	173,00
-2588,39	147,00
-2577,95	59,00
-2567,52	67,00
-2557,11	46,00
-2546,71	51,00
-2536,33	189,00
-2525,97	84,00
-2515,62	110,00
-2505,28	101,00
-2494,96	41,00
-2484,65	71,00
-2474,36	14,00
-2464,08	80,00
-2453,82	58,00
-2443,57	85,00
-2433,33	49,00
-2423,11	55,00
-2412,91	42,00
-2402,72	30,00
-2392,54	38,00
-2382,38	59,00
-2372,23	108,00
-2362,09	244,00
-2351,97	-28,00
-2341,87	-50,00
-2331,78	31,00
-2321,70	4,00
-2311,64	-4,00
-2301,59	99,00
-2291,55	89,00
-2281,53	111,00
-2271,53	34,00
-2261,53	84,00
-2251,55	-48,00
-2241,59	118,00
-2231,64	82,00
-2221,70	74,00
-2211,78	174,00
-2201,87	35,00
-2191,97	108,00
-2182,09	78,00
-2172,22	-4,00
-2162,37	143,00
-2152,53	84,00
-2142,70	101,00
-2132,89	8,00
-2123,09	196,00
-2113,30	121,00
-2103,53	104,00
-2093,77	26,00
-2084,02	27,00
-2074,29	80,00
-2064,57	118,00
-2054,86	125,00
-2045,17	24,00
-2035,49	-6,00
-2025,82	52,00
-2016,17	130,00
-2006,53	-25,00
-1996,91	-2,00
-1987,29	86,00
-1977,69	178,00
-1968,11	-2,00
-1958,53	85,00
-1948,97	86,00
-1939,42	48,00
-1929,89	99,00
-1920,37	171,00
-1910,86	-14,00
-1901,36	20,00
-1891,88	159,00
-1882,41	-119,00
-1872,95	78,00
-1863,51	1,00
-1854,08	165,00
-1844,66	69,00
-1835,26	111,00
-1825,86	111,00
-1816,48	119,00
-1807,11	-17,00
-1797,76	55,00
-1788,42	119,00
-1779,09	22,00
-1769,77	172,00
-1760,47	94,00
-1751,17	4,00
-1741,89	101,00
-1732,63	7,00
-1723,37	32,00
-1714,13	81,00
-1704,90	61,00
-1695,68	124,00
-1686,48	84,00
-1677,29	59,00
-1668,11	58,00
-1658,94	44,00
-1649,78	96,00
-1640,64	-8,00
-1631,51	40,00
-1622,39	-5,00
-1613,28	-26,00
-1604,19	77,00
-1595,10	-13,00
-1586,03	45,00
-1576,97	105,00
-1567,93	169,00
-1558,89	9,00
-1549,87	128,00
-1540,86	103,00
-1531,86	62,00
-1522,87	102,00
-1513,90	61,00
-1504,93	-78,00
-1495,98	98,00
-1487,04	143,00
-1478,12	50,00
-1469,20	153,00
-1460,30	58,00
-1451,40	83,00
-1442,52	75,00
-1433,65	79,00
-1424,80	-20,00
-1415,95	-38,00
-1407,12	16,00
-1398,30	104,00
-1389,48	14,00
-1380,69	142,00
-1371,90	123,00
-1363,12	118,00
-1354,36	73,00
-1345,60	143,00
-1336,86	146,00
-1328,13	163,00
-1319,41	19,00
-1310,70	-44,00
-1302,01	93,00
-1293,32	89,00
-1284,65	104,00
-1275,99	22,00
-1267,33	12,00
-1258,69	50,00
-1250,06	87,00
-1241,45	86,00
-1232,84	178,00
-1224,25	56,00
-1215,66	39,00
-1207,09	88,00
-1198,53	163,00
-1189,97	20,00
-1181,43	69,00
-1172,91	69,00
-1164,39	36,00
-1155,88	39,00
-1147,38	53,00
-1138,90	-51,00
-1130,43	52,00
-1121,96	39,00
-1113,51	146,00
-1105,07	57,00
-1096,64	200,00
-1088,22	48,00
-1079,81	207,00
-1071,41	24,00
-1063,02	49,00
-1054,65	0,00
-1046,28	64,00
-1037,92	22,00
-1029,58	134,00
-1021,24	159,00
-1012,92	72,00
-1004,61	38,00
-996,30	86,00
-988,01	113,00
-979,73	25,00
-971,46	102,00
-963,20	-11,00
-954,95	55,00
-946,71	89,00
-938,48	74,00
-930,26	32,00
-922,06	-15,00
-913,86	119,00
-905,67	45,00
-897,49	91,00
-889,33	80,00
-881,17	240,00
-873,02	53,00
-864,89	35,00
-856,76	77,00
-848,65	-56,00
-840,54	26,00
-832,45	42,00
-824,36	-15,00
-816,29	55,00
-808,22	157,00
-800,17	52,00
-792,12	90,00
-784,09	162,00
-776,06	84,00
-768,05	85,00
-760,04	80,00
-752,05	29,00
-744,07	65,00
-736,09	102,00
-728,13	125,00
-720,17	-58,00
-712,23	-7,00
-704,29	178,00
-696,37	111,00
-688,45	255,00
-680,55	128,00
-672,65	65,00
-664,77	112,00
-656,89	119,00
-649,03	33,00
-641,17	75,00
-633,32	95,00
-625,49	106,00
-617,66	52,00
-609,84	140,00
-602,03	98,00
-594,23	103,00
-586,45	89,00
-578,67	116,00
-570,90	73,00
-563,14	208,00
-555,39	67,00
-547,65	44,00
-539,91	17,00
-532,19	129,00
-524,48	18,00
-516,78	65,00
-509,08	-29,00
-501,40	62,00
-493,72	107,00
-486,06	-3,00
-478,40	140,00
-470,76	30,00
-463,12	-26,00
-455,49	118,00
-447,87	26,00
-440,26	117,00
-432,66	110,00
-425,07	114,00
-417,49	199,00
-409,92	155,00
-402,35	68,00
-394,80	149,00
-387,25	116,00
-379,72	194,00
-372,19	37,00
-364,67	141,00
-357,17	157,00
-349,67	152,00
-342,18	101,00
-334,69	274,00
-327,22	139,00
-319,76	50,00
-312,30	143,00
-304,86	136,00
-297,42	109,00
-290,00	54,00
-282,58	78,00
-275,17	53,00
-267,77	34,00
-260,37	98,00
-252,99	79,00
-245,62	199,00
-238,25	133,00
-230,90	95,00
-223,55	151,00
-216,21	323,00
-208,88	206,00
-201,56	122,00
-194,25	248,00
-186,94	287,00
-179,65	237,00
-172,36	335,00
-165,08	358,00
-157,81	475,00
-150,55	410,00
-143,30	375,00
-136,06	513,00
-128,82	362,00
-121,60	540,00
-114,38	739,00
-107,17	609,00
-99,97	802,00
-92,78	914,00
-85,60	937,00
-78,42	1230,00
-71,25	1317,00
-64,10	1566,00
-56,95	1754,00
-49,81	2110,00
-42,67	2600,00
-35,55	3241,00
-28,43	4252,00
-21,33	7018,00
-14,23	21807,00
-7,14	55431,00
-0,05	55196,00
7,02	54914,00
14,09	55080,00
21,14	23786,00
28,19	9459,00
35,23	5785,00
42,27	4171,00
49,29	3575,00
56,31	3183,00
63,32	2576,00
70,32	2072,00
77,31	1890,00
84,29	1506,00
91,27	1450,00
98,23	1423,00
105,19	1235,00
112,14	1347,00
119,09	2288,00
126,02	3693,00
132,95	4742,00
139,87	4999,00
146,78	4895,00
153,68	4902,00
160,58	4814,00
167,46	4967,00
174,34	4885,00
181,21	4945,00
188,08	4921,00
194,93	4873,00
201,78	4827,00
208,62	4960,00
215,45	4859,00
222,27	4881,00
229,09	4836,00
235,90	4896,00
242,70	4819,00
249,49	4731,00
256,27	4751,00
263,05	4768,00
269,82	4801,00
276,58	4851,00
283,33	4849,00
290,08	4676,00
296,82	4711,00
303,55	4715,00
310,27	4658,00
316,98	4584,00
323,69	4614,00
330,39	4578,00
337,08	4448,00
343,76	4471,00
350,44	4697,00
357,11	4477,00
363,77	4545,00
370,42	4565,00
377,07	4437,00
383,71	4424,00
390,34	4479,00
396,96	4423,00
403,58	4511,00
410,19	4616,00
416,79	4604,00
423,38	4654,00
429,97	4490,00
436,55	4398,00
443,12	4338,00
449,68	4230,00
456,24	4257,00
462,79	4208,00
469,33	4194,00
475,86	4437,00
482,39	4188,00
488,91	4296,00
495,42	4354,00
501,93	4208,00
508,42	4173,00
514,91	4174,00
521,40	4208,00
527,87	4263,00
534,34	4164,00
540,80	4003,00
547,25	4167,00
553,70	4145,00
560,14	4062,00
566,57	4119,00
573,00	4137,00
579,41	4161,00
585,83	3947,00
592,23	3965,00
598,62	3959,00
605,01	3977,00
611,40	4026,00
617,77	3834,00
624,14	3933,00
630,50	3975,00
636,85	3890,00
643,20	3844,00
649,54	3892,00
655,87	3941,00
662,20	3999,00
668,52	3974,00
674,83	3866,00
681,13	3780,00
687,43	3859,00
693,72	3843,00
700,00	3858,00
706,28	3659,00
712,55	3712,00
718,81	3744,00
725,07	3826,00
731,32	3740,00
737,56	3770,00
743,79	3698,00
750,02	3795,00
756,24	3785,00
762,46	3717,00
768,67	3818,00
774,87	3706,00
781,06	3699,00
787,25	3703,00
793,43	3669,00
799,60	3779,00
805,77	3597,00
811,93	3756,00
818,08	3811,00
824,23	3560,00
830,37	3679,00
836,50	3731,00
842,63	3631,00
848,75	3672,00
854,87	3643,00
860,97	3767,00
867,07	3664,00
873,17	3635,00
879,25	3563,00
885,33	3502,00
891,41	3475,00
897,47	3599,00
903,53	3459,00
909,59	3440,00
915,63	3511,00
921,67	3509,00
927,71	3447,00
933,74	3530,00
939,76	3390,00
945,77	3397,00
951,78	3383,00
957,78	3330,00
963,78	3376,00
969,77	3403,00
975,75	3425,00
981,72	3295,00
987,69	3344,00
993,66	3456,00
999,61	3376,00
1005,56	3419,00
1011,51	3503,00
1017,44	3347,00
1023,37	3474,00
1029,30	3493,00
1035,22	3402,00
1041,13	3515,00
1047,03	3350,00
1052,93	3433,00
1058,83	3773,00
1064,71	3808,00
1070,59	3697,00
1076,47	3545,00
1082,33	3356,00
1088,20	3391,00
1094,05	3172,00
1099,90	3340,00
1105,74	3356,00
1111,58	3241,00
1117,41	3376,00
1123,23	3553,00
1129,05	3477,00
1134,86	3470,00
1140,67	3254,00
1146,47	3084,00
1152,26	3194,00
1158,05	3206,00
1163,83	3251,00
1169,60	3141,00
1175,37	3157,00
1181,13	3110,00
1186,89	3068,00
1192,64	3197,00
1198,38	2996,00
1204,12	3066,00
1209,85	3077,00
1215,58	2912,00
1221,30	3109,00
1227,02	3163,00
1232,72	3047,00
1238,43	3018,00
1244,12	3028,00
1249,81	3043,00
1255,50	3066,00
1261,17	3093,00
1266,85	3011,00
1272,51	3120,00
1278,17	3134,00
1283,83	3196,00
1289,47	3310,00
1295,12	3619,00
1300,75	3546,00
1306,38	3375,00
1312,01	3314,00
1317,63	3212,00
1323,24	3267,00
1328,85	3124,00
1334,45	3197,00
1340,04	3061,00
1345,63	3127,00
1351,22	3162,00
1356,80	3202,00
1362,37	3097,00
1367,93	3141,00
1373,49	3039,00
1379,05	3161,00
1384,60	2999,00
1390,14	3083,00
1395,68	3133,00
1401,21	3010,00
1406,74	3075,00
1412,26	3271,00
1417,77	3132,00
1423,28	3286,00
1428,78	3366,00
1434,28	3593,00
1439,77	3745,00
1445,26	3654,00
1450,74	3652,00
1456,22	3561,00
1461,68	3339,00
1467,15	3365,00
1472,61	3227,00
1478,06	2875,00
1483,51	3056,00
1488,95	2748,00
1494,38	2939,00
1499,81	2721,00
1505,24	2796,00
1510,65	2807,00
1516,07	2594,00
1521,48	2620,00
1526,88	2702,00
1532,27	2551,00
1537,67	2635,00
1543,05	2513,00
1548,43	2559,00
1553,81	2588,00
1559,18	2519,00
1564,54	2527,00
1569,90	2521,00
1575,25	2493,00
1580,60	2556,00
1585,94	2605,00
1591,28	2437,00
1596,61	2432,00
1601,93	2358,00
1607,25	2428,00
1612,57	2402,00
1617,88	2396,00
1623,18	2370,00
1628,48	2400,00
1633,77	2371,00
1639,06	2366,00
1644,34	2325,00
1649,62	2292,00
1654,89	2216,00
1660,16	2273,00
1665,42	2056,00
1670,67	2258,00
1675,92	2184,00
1681,17	2195,00
1686,41	2349,00
1691,64	2225,00
1696,87	2241,00
1702,10	2107,00
1707,32	2158,00
1712,53	2029,00
1717,74	2087,00
1722,94	2128,00
1728,14	2184,00
1733,33	1946,00
1738,52	2002,00
1743,70	1925,00
1748,88	1984,00
1754,05	2059,00
1759,22	1961,00
1764,38	2058,00
1769,53	2085,00
1774,69	1942,00
1779,83	1917,00
1784,97	1919,00
1790,11	1887,00
1795,24	1833,00
1800,36	1772,00
1805,48	1929,00
1810,60	1824,00
1815,71	1840,00
1820,82	1922,00
1825,92	1847,00
1831,01	1837,00
1836,10	1779,00
1841,19	1740,00
1846,26	1813,00
1851,34	1754,00
1856,41	1903,00
1861,47	1745,00
1866,53	1811,00
1871,59	1724,00
1876,64	1608,00
1881,68	1568,00
1886,72	1694,00
1891,76	1660,00
1896,79	1781,00
1901,81	1660,00
1906,83	1623,00
1911,85	1668,00
1916,86	1744,00
1921,86	1545,00
1926,86	1701,00
1931,86	1664,00
1936,85	1483,00
1941,83	1607,00
1946,81	1365,00
1951,79	1499,00
1956,76	1545,00
1961,72	1510,00
1966,68	1495,00
1971,64	1401,00
1976,59	1433,00
1981,54	1444,00
1986,48	1401,00
1991,42	1337,00
1996,35	1190,00
2001,27	1441,00
2006,20	1284,00
2011,11	1206,00
2016,03	1433,00
2020,93	1479,00
2025,84	1450,00
2030,73	1309,00
2035,63	1353,00
2040,52	1392,00
2045,40	1319,00
2050,28	1403,00
2055,15	1271,00
2060,02	1205,00
2064,89	1324,00
2069,75	1359,00
2074,60	1271,00
2079,46	1211,00
2084,30	1321,00
2089,14	1387,00
2093,98	1147,00
2098,81	1314,00
2103,64	1269,00
2108,46	1260,00
2113,28	1286,00
2118,09	1228,00
2122,90	1211,00
2127,70	1175,00
2132,50	1227,00
2137,30	1247,00
2142,09	1235,00
2146,87	1340,00
2151,66	1176,00
2156,43	1200,00
2161,20	1067,00
2165,97	1131,00
2170,73	1090,00
2175,49	1148,00
2180,24	1065,00
2184,99	1097,00
2189,74	1263,00
2194,48	1121,00
2199,21	1034,00
2203,94	1189,00
2208,67	1011,00
2213,39	995,00
2218,11	1057,00
2222,82	1057,00
2227,53	1030,00
2232,23	1027,00
2236,93	1021,00
2241,63	1068,00
2246,32	1085,00
2251,00	918,00
2255,68	1080,00
2260,36	921,00
2265,03	1030,00
2269,70	1067,00
2274,36	1035,00
2279,02	905,00
2283,68	958,00
2288,33	963,00
2292,97	943,00
2297,61	908,00
2302,25	1019,00
2306,88	1022,00
2311,51	944,00
2316,14	821,00
2320,75	859,00
2325,37	884,00
2329,98	938,00
2334,59	767,00
2339,19	972,00
2343,79	885,00
2348,38	956,00
2352,97	857,00
2357,55	907,00
2362,13	848,00
2366,71	855,00
2371,28	886,00
2375,85	786,00
2380,41	815,00
2384,97	765,00
2389,52	823,00
2394,07	883,00
2398,62	804,00
2403,16	854,00
2407,70	852,00
2412,23	746,00
2416,76	853,00
2421,29	733,00
2425,81	810,00
2430,32	769,00
2434,84	824,00
2439,34	700,00
2443,85	858,00
2448,35	720,00
2452,84	722,00
2457,33	712,00
2461,82	625,00
2466,30	792,00
2470,78	549,00
2475,25	781,00
2479,72	667,00
2484,19	572,00
2488,65	720,00
2493,11	841,00
2497,56	573,00
2502,01	697,00
2506,46	548,00
2510,90	629,00
2515,34	725,00
2519,77	651,00
2524,20	713,00
2528,62	627,00
2533,04	610,00
2537,46	641,00
2541,87	665,00
2546,28	503,00
2550,68	715,00
2555,08	619,00
2559,48	662,00
2563,87	698,00
2568,26	587,00
2572,64	687,00
2577,02	660,00
2581,40	600,00
2585,77	469,00
2590,14	537,00
2594,50	612,00
2598,86	617,00
2603,22	557,00
2607,57	599,00
2611,92	466,00
2616,26	674,00
2620,60	732,00
2624,94	390,00
2629,27	562,00
2633,60	622,00
2637,92	616,00
2642,24	494,00
2646,56	562,00
2650,87	601,00
2655,18	505,00
2659,48	502,00
2663,78	529,00
2668,08	554,00
2672,37	557,00
2676,66	626,00
2680,95	563,00
2685,23	639,00
2689,50	440,00
2693,78	579,00
2698,05	616,00
2702,31	490,00
2706,57	399,00
2710,83	517,00
2715,08	556,00
2719,33	603,00
2723,58	606,00
2727,82	467,00
2732,06	622,00
2736,29	445,00
2740,53	652,00
2744,75	553,00
2748,97	501,00
2753,19	513,00
2757,41	610,00
2761,62	416,00
2765,83	622,00
2770,03	516,00
2774,23	634,00
2778,43	508,00
2782,62	460,00
2786,81	578,00
2791,00	497,00
2795,18	570,00
2799,35	544,00
2803,53	469,00
2807,70	499,00
2811,86	389,00
2816,03	571,00
2820,19	542,00
2824,34	635,00
2828,49	515,00
2832,64	663,00
2836,78	696,00
2840,92	925,00
2845,06	980,00
2849,19	1240,00
2853,32	1326,00
2857,45	1242,00
2861,57	1188,00
2865,69	1282,00
2869,80	1214,00
2873,91	1152,00
2878,02	1184,00
2882,12	1293,00
2886,22	1321,00
2890,32	1242,00
2894,41	1248,00
2898,50	1103,00
2902,58	1090,00
2906,67	963,00
2910,74	962,00
2914,82	1028,00
2918,89	875,00
2922,96	796,00
2927,02	940,00
2931,08	902,00
2935,13	663,00
2939,19	674,00
2943,24	563,00
2947,28	504,00
2951,32	627,00
2955,36	499,00
2959,40	489,00
2963,43	503,00
2967,46	588,00
2971,48	501,00
2975,50	548,00
2979,52	542,00
2983,53	451,00
2987,54	490,00
2991,55	430,00
2995,55	423,00
2999,55	304,00
3003,54	406,00
3007,54	399,00
3011,53	218,00
3015,51	289,00
3019,49	328,00
3023,47	213,00
3027,45	290,00
3031,42	336,00
3035,39	279,00
3039,35	289,00
3043,31	354,00
3047,27	323,00
3051,22	263,00
3055,17	203,00
3059,12	359,00
3063,06	285,00
3067,00	299,00
3070,94	232,00
3074,87	275,00
3078,80	276,00
3082,73	195,00
3086,65	289,00
3090,57	313,00
3094,49	199,00
3098,40	257,00
3102,31	164,00
3106,22	296,00
3110,12	183,00
3114,02	206,00
3117,92	266,00
3121,81	253,00
3125,70	227,00
3129,58	319,00
3133,47	180,00
3137,34	243,00
3141,22	373,00
3145,09	212,00
3148,96	162,00
3152,83	112,00
3156,69	223,00
3160,55	159,00
3164,40	232,00
3168,26	224,00
3172,10	223,00
3175,95	278,00
3179,79	155,00
3183,63	176,00
3187,47	179,00
3191,30	89,00
3195,13	179,00
3198,95	211,00
3202,78	232,00
3206,60	62,00
3210,41	179,00
3214,23	273,00
3218,03	252,00
3221,84	101,00
3225,64	36,00
3229,44	164,00
3233,24	144,00
3237,03	167,00
3240,82	167,00
3244,61	148,00
3248,39	219,00
3252,17	161,00
3255,95	149,00
3259,72	139,00
3263,49	241,00
3267,26	141,00
3271,03	117,00
3274,79	230,00
3278,54	245,00
3282,30	242,00
3286,05	184,00
3289,80	36,00
3293,54	113,00
3297,29	168,00
3301,02	205,00
3304,76	72,00
3308,49	131,00
3312,22	133,00
3315,95	107,00
3319,67	181,00
3323,39	249,00
3327,10	209,00
3330,82	227,00
3334,53	130,00
3338,24	150,00
3341,94	160,00
3345,64	188,00
3349,34	123,00
3353,03	129,00
3356,72	137,00
3360,41	74,00
3364,10	244,00
3367,78	219,00
3371,46	104,00
3375,13	113,00
3378,81	250,00
3382,48	105,00
3386,14	188,00
3389,81	190,00
3393,47	240,00
3397,12	152,00
3400,78	217,00
3404,43	103,00
3408,08	83,00
3411,72	205,00
3415,36	109,00
3419,00	182,00
3422,64	20,00
3426,27	-4,00
3429,90	87,00
3433,53	223,00
3437,15	121,00
3440,77	149,00
3444,39	39,00
3448,00	127,00
3451,62	90,00
3455,22	164,00
3458,83	246,00
3462,43	159,00
3466,03	90,00
3469,63	151,00
3473,22	80,00
3476,81	57,00
3480,40	-43,00
3483,99	-11,00
3487,57	139,00
3491,15	80,00
3494,72	11,00
3498,29	155,00
3501,86	97,00
3505,43	91,00
3508,99	111,00
3512,56	217,00
3516,11	65,00
3519,67	83,00
3523,22	8,00
3526,77	159,00
3530,32	247,00
3533,86	55,00
3537,40	69,00
3540,94	105,00
3544,47	184,00
3548,00	127,00
3551,53	110,00
3555,06	86,00
3558,58	184,00
3562,10	163,00
3565,62	128,00
3569,13	137,00
3572,64	220,00
3576,15	82,00
3579,66	164,00
3583,16	79,00
3586,66	67,00
3590,16	138,00
3593,65	144,00
3597,14	-70,00
3600,63	149,00
3604,11	130,00
3607,60	56,00
3611,08	104,00
3614,55	114,00
3618,03	86,00
3621,50	79,00
3624,97	119,00
3628,43	144,00
3631,90	60,00
3635,36	94,00
3638,81	152,00
3642,27	165,00
3645,72	126,00
3649,17	82,00
3652,61	37,00
3656,06	107,00
3659,50	64,00
3662,93	98,00
3666,37	59,00
3669,80	-45,00
3673,23	95,00
3676,65	3,00
3680,08	16,00
3683,50	63,00
3686,92	109,00
3690,33	50,00
3693,74	60,00
3697,15	181,00
3700,56	56,00
3703,96	0,00
3707,36	36,00
3710,76	35,00
3714,16	29,00
3717,55	58,00
3720,94	17,00
3724,33	126,00
3727,71	14,00
3731,10	63,00
3734,48	59,00
3737,85	103,00
3741,23	33,00
3744,60	5,00
3747,97	39,00
3751,33	6,00
3754,69	-30,00
3758,05	24,00
3761,41	48,00
3764,77	136,00
3768,12	44,00
3771,47	34,00
3774,82	75,00
3778,16	2,00
3781,50	-1,00
3784,84	1,00
3788,18	3,00
>>>>>End Processed Spectral Data<<<<<
