SpectraSuite Data File
++++++++++++++++++++++++++++++++++++
Date: Wed Feb 04 15:41:00 ICT 2026
User: Administrator
Dark Spectrum Present: Yes
Reference Spectrum Present: No
Number of Sampled Component Spectra: 1
Spectrometers: MAYP113682
Integration Time (usec): 3000000 (MAYP113682)
Spectra Averaged: 1 (MAYP113682)
Boxcar Smoothing: 0 (MAYP113682)
Correct for Electrical Dark: No (MAYP113682)
Strobe/Lamp Enabled: No (MAYP113682)
Correct for Detector Non-linearity: No (MAYP113682)
Correct for Stray Light: No (MAYP113682)
Number of Pixels in Processed Spectrum: 2068
>>>>>Begin Processed Spectral Data<<<<<
-37534,58	20,00
-37414,56	-1,00
-37295,11	8,00
-37176,24	10,00
-37057,95	364,00
-36940,22	403,00
-36823,05	456,00
-36706,45	500,00
-36590,40	469,00
-36474,90	513,00
-36359,95	514,00
-36245,55	499,00
-36131,68	521,00
-36018,35	404,00
-35905,55	518,00
-35793,29	550,00
-35681,54	473,00
-35570,32	461,00
-35459,62	456,00
-35349,43	590,00
-35239,75	480,00
-35130,58	447,00
-35021,91	471,00
-34913,74	435,00
-34806,07	547,00
-34698,89	509,00
-34592,20	383,00
-34486,00	422,00
-34380,28	490,00
-34275,04	442,00
-34170,27	429,00
-34065,98	560,00
-33962,16	495,00
-33858,81	482,00
-33755,92	418,00
-33653,49	484,00
-33551,52	457,00
-33450,01	608,00
-33348,94	482,00
-33248,33	589,00
-33148,16	457,00
-33048,43	553,00
-32949,14	603,00
-32850,29	478,00
-32751,87	473,00
-32653,89	552,00
-32556,33	520,00
-32459,20	498,00
-32362,49	437,00
-32266,19	470,00
-32170,32	506,00
-32074,86	525,00
-31979,82	490,00
-31885,18	603,00
-31790,95	521,00
-31697,12	593,00
-31603,69	523,00
-31510,67	614,00
-31418,04	498,00
-31325,80	611,00
-31233,95	563,00
-31142,49	637,00
-31051,42	569,00
-30960,73	559,00
-30870,43	649,00
-30780,50	475,00
-30690,95	547,00
-30601,77	508,00
-30512,97	586,00
-30424,53	490,00
-30336,46	652,00
-30248,76	559,00
-30161,42	549,00
-30074,44	577,00
-29987,81	532,00
-29901,55	545,00
-29815,63	547,00
-29730,07	688,00
-29644,86	413,00
-29560,00	499,00
-29475,48	455,00
-29391,30	563,00
-29307,47	444,00
-29223,97	526,00
-29140,81	585,00
-29057,99	600,00
-28975,50	431,00
-28893,34	452,00
-28811,51	598,00
-28730,00	386,00
-28648,82	501,00
-28567,97	615,00
-28487,43	402,00
-28407,21	531,00
-28327,32	570,00
-28247,73	653,00
-28168,46	641,00
-28089,50	481,00
-28010,85	536,00
-27932,51	483,00
-27854,48	571,00
-27776,75	510,00
-27699,32	473,00
-27622,19	538,00
-27545,37	509,00
-27468,84	457,00
-27392,60	663,00
-27316,66	542,00
-27241,01	496,00
-27165,66	586,00
-27090,59	397,00
-27015,81	468,00
-26941,31	595,00
-26867,10	420,00
-26793,17	643,00
-26719,52	545,00
-26646,15	425,00
-26573,06	453,00
-26500,24	517,00
-26427,70	395,00
-26355,43	483,00
-26283,43	531,00
-26211,71	510,00
-26140,25	529,00
-26069,06	703,00
-25998,13	483,00
-25927,46	486,00
-25857,06	525,00
-25786,92	502,00
-25717,04	548,00
-25647,42	467,00
-25578,05	420,00
-25508,94	602,00
-25440,09	610,00
-25371,48	501,00
-25303,13	597,00
-25235,02	408,00
-25167,17	536,00
-25099,56	592,00
-25032,19	394,00
-24965,07	528,00
-24898,20	385,00
-24831,56	487,00
-24765,17	477,00
-24699,01	483,00
-24633,10	569,00
-24567,41	618,00
-24501,97	669,00
-24436,75	505,00
-24371,77	493,00
-24307,03	577,00
-24242,51	503,00
-24178,22	489,00
-24114,16	481,00
-24050,32	661,00
-23986,71	495,00
-23923,32	474,00
-23860,16	506,00
-23797,22	413,00
-23734,50	613,00
-23672,00	556,00
-23609,71	542,00
-23547,65	509,00
-23485,80	539,00
-23424,16	544,00
-23362,74	599,00
-23301,53	421,00
-23240,54	409,00
-23179,75	404,00
-23119,17	551,00
-23058,80	545,00
-22998,64	475,00
-22938,68	615,00
-22878,93	576,00
-22819,39	515,00
-22760,04	408,00
-22700,90	548,00
-22641,96	501,00
-22583,22	528,00
-22524,68	476,00
-22466,33	475,00
-22408,19	493,00
-22350,23	516,00
-22292,48	546,00
-22234,92	556,00
-22177,55	586,00
-22120,37	571,00
-22063,38	373,00
-22006,58	514,00
-21949,98	430,00
-21893,56	439,00
-21837,33	446,00
-21781,28	605,00
-21725,42	434,00
-21669,74	516,00
-21614,25	495,00
-21558,94	506,00
-21503,81	596,00
-21448,86	473,00
-21394,10	434,00
-21339,51	486,00
-21285,10	461,00
-21230,86	437,00
-21176,81	430,00
-21122,93	450,00
-21069,22	419,00
-21015,69	476,00
-20962,33	585,00
-20909,14	504,00
-20856,13	511,00
-20803,28	615,00
-20750,61	504,00
-20698,10	443,00
-20645,76	530,00
-20593,59	578,00
-20541,59	526,00
-20489,75	520,00
-20438,07	425,00
-20386,56	548,00
-20335,22	429,00
-20284,03	465,00
-20233,01	554,00
-20182,15	444,00
-20131,45	494,00
-20080,91	499,00
-20030,52	485,00
-19980,30	448,00
-19930,23	444,00
-19880,32	604,00
-19830,56	548,00
-19780,96	523,00
-19731,52	499,00
-19682,23	470,00
-19633,09	524,00
-19584,10	447,00
-19535,26	588,00
-19486,58	499,00
-19438,04	485,00
-19389,66	387,00
-19341,42	584,00
-19293,33	610,00
-19245,39	567,00
-19197,60	528,00
-19149,95	513,00
-19102,45	511,00
-19055,09	443,00
-19007,87	529,00
-18960,80	506,00
-18913,87	615,00
-18867,09	389,00
-18820,44	467,00
-18773,94	474,00
-18727,57	500,00
-18681,35	462,00
-18635,26	500,00
-18589,31	465,00
-18543,50	434,00
-18497,83	508,00
-18452,29	635,00
-18406,89	441,00
-18361,63	633,00
-18316,50	552,00
-18271,50	511,00
-18226,63	509,00
-18181,90	612,00
-18137,30	603,00
-18092,84	474,00
-18048,50	487,00
-18004,29	410,00
-17960,22	609,00
-17916,27	478,00
-17872,45	610,00
-17828,76	474,00
-17785,20	576,00
-17741,77	493,00
-17698,46	485,00
-17655,28	418,00
-17612,22	439,00
-17569,29	551,00
-17526,48	498,00
-17483,79	463,00
-17441,23	479,00
-17398,79	404,00
-17356,48	572,00
-17314,28	479,00
-17272,21	479,00
-17230,26	550,00
-17188,42	578,00
-17146,71	427,00
-17105,12	574,00
-17063,64	448,00
-17022,28	561,00
-16981,04	472,00
-16939,92	524,00
-16898,91	617,00
-16858,02	420,00
-16817,25	581,00
-16776,59	439,00
-16736,04	609,00
-16695,61	509,00
-16655,29	522,00
-16615,09	520,00
-16574,99	529,00
-16535,01	613,00
-16495,15	458,00
-16455,39	501,00
-16415,74	384,00
-16376,21	478,00
-16336,78	356,00
-16297,46	443,00
-16258,26	428,00
-16219,16	462,00
-16180,17	607,00
-16141,28	539,00
-16102,51	444,00
-16063,84	546,00
-16025,27	586,00
-15986,82	532,00
-15948,46	512,00
-15910,22	467,00
-15872,07	398,00
-15834,04	508,00
-15796,10	458,00
-15758,27	581,00
-15720,54	471,00
-15682,91	466,00
-15645,39	495,00
-15607,97	595,00
-15570,64	495,00
-15533,42	626,00
-15496,30	417,00
-15459,28	521,00
-15422,36	598,00
-15385,54	437,00
-15348,82	548,00
-15312,19	516,00
-15275,66	527,00
-15239,23	365,00
-15202,90	624,00
-15166,67	471,00
-15130,53	478,00
-15094,48	494,00
-15058,54	368,00
-15022,68	527,00
-14986,93	556,00
-14951,26	561,00
-14915,69	453,00
-14880,22	519,00
-14844,84	487,00
-14809,55	636,00
-14774,35	573,00
-14739,25	550,00
-14704,24	517,00
-14669,32	520,00
-14634,49	432,00
-14599,75	538,00
-14565,10	439,00
-14530,55	517,00
-14496,08	562,00
-14461,70	568,00
-14427,41	438,00
-14393,21	512,00
-14359,10	364,00
-14325,07	611,00
-14291,14	411,00
-14257,29	548,00
-14223,52	464,00
-14189,85	483,00
-14156,26	460,00
-14122,76	493,00
-14089,34	584,00
-14056,01	465,00
-14022,76	562,00
-13989,60	454,00
-13956,52	561,00
-13923,53	541,00
-13890,62	466,00
-13857,79	523,00
-13825,05	468,00
-13792,39	434,00
-13759,81	538,00
-13727,31	446,00
-13694,90	505,00
-13662,57	509,00
-13630,31	500,00
-13598,14	567,00
-13566,05	502,00
-13534,05	521,00
-13502,12	561,00
-13470,27	552,00
-13438,50	474,00
-13406,80	494,00
-13375,19	496,00
-13343,66	470,00
-13312,20	524,00
-13280,83	517,00
-13249,53	490,00
-13218,30	415,00
-13187,16	513,00
-13156,09	569,00
-13125,10	506,00
-13094,18	537,00
-13063,34	494,00
-13032,58	344,00
-13001,89	493,00
-12971,28	487,00
-12940,74	537,00
-12910,27	462,00
-12879,88	516,00
-12849,57	518,00
-12819,33	452,00
-12789,16	472,00
-12759,06	446,00
-12729,04	553,00
-12699,09	191,00
-12669,21	480,00
-12639,41	500,00
-12609,68	416,00
-12580,02	433,00
-12550,43	583,00
-12520,91	424,00
-12491,46	418,00
-12462,08	560,00
-12432,77	400,00
-12403,54	501,00
-12374,37	630,00
-12345,27	473,00
-12316,24	487,00
-12287,29	496,00
-12258,40	545,00
-12229,57	546,00
-12200,82	504,00
-12172,14	545,00
-12143,52	540,00
-12114,97	456,00
-12086,49	517,00
-12058,07	514,00
-12029,73	524,00
-12001,44	514,00
-11973,23	475,00
-11945,08	564,00
-11917,00	617,00
-11888,98	532,00
-11861,03	417,00
-11833,15	457,00
-11805,32	480,00
-11777,57	544,00
-11749,88	522,00
-11722,25	460,00
-11694,69	526,00
-11667,19	500,00
-11639,75	572,00
-11612,38	458,00
-11585,07	580,00
-11557,83	541,00
-11530,65	602,00
-11503,53	486,00
-11476,47	495,00
-11449,48	435,00
-11422,54	519,00
-11395,67	425,00
-11368,86	604,00
-11342,11	449,00
-11315,43	576,00
-11288,80	576,00
-11262,23	553,00
-11235,73	466,00
-11209,28	585,00
-11182,90	565,00
-11156,57	446,00
-11130,31	562,00
-11104,10	511,00
-11077,96	437,00
-11051,87	535,00
-11025,84	510,00
-10999,87	586,00
-10973,96	479,00
-10948,11	454,00
-10922,31	478,00
-10896,58	505,00
-10870,90	667,00
-10845,28	558,00
-10819,71	442,00
-10794,20	497,00
-10768,75	467,00
-10743,36	471,00
-10718,02	457,00
-10692,74	600,00
-10667,52	398,00
-10642,35	448,00
-10617,24	485,00
-10592,18	445,00
-10567,18	411,00
-10542,23	557,00
-10517,34	525,00
-10492,51	517,00
-10467,72	476,00
-10443,00	390,00
-10418,32	364,00
-10393,70	420,00
-10369,14	463,00
-10344,63	379,00
-10320,17	462,00
-10295,77	425,00
-10271,42	388,00
-10247,12	491,00
-10222,88	416,00
-10198,68	474,00
-10174,54	534,00
-10150,46	487,00
-10126,42	517,00
-10102,44	458,00
-10078,51	441,00
-10054,63	477,00
-10030,80	559,00
-10007,03	578,00
-9983,30	454,00
-9959,63	409,00
-9936,01	508,00
-9912,44	364,00
-9888,92	411,00
-9865,44	353,00
-9842,02	416,00
-9818,65	379,00
-9795,33	344,00
-9772,06	340,00
-9748,84	359,00
-9725,67	296,00
-9702,55	391,00
-9679,47	345,00
-9656,45	262,00
-9633,47	131,00
-9610,55	250,00
-9587,67	343,00
-9564,84	223,00
-9542,06	93,00
-9519,32	214,00
-9496,64	185,00
-9474,00	11,00
-9451,41	67,00
-9428,87	152,00
-9406,37	49,00
-9383,92	95,00
-9361,52	173,00
-9339,17	97,00
-9316,86	7,00
-9294,60	-103,00
-9272,38	-34,00
-9250,21	28,00
-9228,09	-151,00
-9206,01	-145,00
-9183,98	-234,00
-9162,00	-132,00
-9140,06	-120,00
-9118,16	-69,00
-9096,31	-102,00
-9074,51	-216,00
-9052,75	-18,00
-9031,04	-71,00
-9009,37	15,00
-8987,74	32,00
-8966,16	-27,00
-8944,63	-72,00
-8923,14	129,00
-8901,69	81,00
-8880,29	-4,00
-8858,93	117,00
-8837,61	50,00
-8816,34	135,00
-8795,11	51,00
-8773,92	36,00
-8752,78	25,00
-8731,68	99,00
-8710,62	140,00
-8689,61	21,00
-8668,63	40,00
-8647,70	185,00
-8626,82	-18,00
-8605,97	17,00
-8585,17	50,00
-8564,41	90,00
-8543,69	165,00
-8523,01	5,00
-8502,37	207,00
-8481,78	149,00
-8461,23	-124,00
-8440,71	96,00
-8420,24	70,00
-8399,81	48,00
-8379,42	159,00
-8359,08	36,00
-8338,77	203,00
-8318,50	95,00
-8298,27	95,00
-8278,09	-23,00
-8257,94	92,00
-8237,83	102,00
-8217,76	-6,00
-8197,74	153,00
-8177,75	184,00
-8157,80	196,00
-8137,89	155,00
-8118,02	117,00
-8098,19	169,00
-8078,40	154,00
-8058,65	182,00
-8038,93	77,00
-8019,26	41,00
-7999,62	162,00
-7980,02	130,00
-7960,46	15,00
-7940,94	192,00
-7921,46	242,00
-7902,01	214,00
-7882,60	389,00
-7863,23	38,00
-7843,90	112,00
-7824,61	115,00
-7805,35	292,00
-7786,13	181,00
-7766,95	149,00
-7747,80	204,00
-7728,69	276,00
-7709,62	55,00
-7690,59	72,00
-7671,59	171,00
-7652,63	29,00
-7633,70	156,00
-7614,81	127,00
-7595,96	223,00
-7577,15	177,00
-7558,37	239,00
-7539,62	325,00
-7520,91	225,00
-7502,24	228,00
-7483,60	71,00
-7465,00	124,00
-7446,44	218,00
-7427,91	344,00
-7409,41	317,00
-7390,95	285,00
-7372,53	102,00
-7354,14	226,00
-7335,78	366,00
-7317,46	385,00
-7299,18	226,00
-7280,92	279,00
-7262,71	279,00
-7244,52	145,00
-7226,38	185,00
-7208,26	194,00
-7190,18	97,00
-7172,14	352,00
-7154,12	184,00
-7136,15	290,00
-7118,20	353,00
-7100,29	275,00
-7082,41	296,00
-7064,57	185,00
-7046,76	190,00
-7028,98	247,00
-7011,24	336,00
-6993,53	267,00
-6975,85	237,00
-6958,20	338,00
-6940,59	360,00
-6923,01	234,00
-6905,46	320,00
-6887,94	301,00
-6870,46	322,00
-6853,01	306,00
-6835,59	338,00
-6818,21	314,00
-6800,85	332,00
-6783,53	251,00
-6766,24	387,00
-6748,98	238,00
-6731,76	364,00
-6714,56	342,00
-6697,40	333,00
-6680,26	359,00
-6663,16	414,00
-6646,09	386,00
-6629,05	329,00
-6612,05	286,00
-6595,07	345,00
-6578,13	421,00
-6561,21	445,00
-6544,33	367,00
-6527,47	294,00
-6510,65	321,00
-6493,86	372,00
-6477,10	368,00
-6460,36	329,00
-6443,66	323,00
-6426,99	337,00
-6410,35	331,00
-6393,74	346,00
-6377,16	271,00
-6360,61	334,00
-6344,09	396,00
-6327,59	315,00
-6311,13	361,00
-6294,70	349,00
-6278,29	281,00
-6261,92	250,00
-6245,58	289,00
-6229,26	327,00
-6212,97	305,00
-6196,72	413,00
-6180,49	360,00
-6164,29	252,00
-6148,12	427,00
-6131,98	330,00
-6115,86	446,00
-6099,78	308,00
-6083,72	413,00
-6067,69	312,00
-6051,69	425,00
-6035,72	398,00
-6019,78	409,00
-6003,87	354,00
-5987,98	311,00
-5972,12	280,00
-5956,29	266,00
-5940,49	316,00
-5924,71	454,00
-5908,96	426,00
-5893,24	490,00
-5877,55	427,00
-5861,89	375,00
-5846,25	330,00
-5830,64	439,00
-5815,05	406,00
-5799,50	508,00
-5783,97	377,00
-5768,47	416,00
-5752,99	448,00
-5737,55	297,00
-5722,12	206,00
-5706,73	267,00
-5691,36	468,00
-5676,02	498,00
-5660,71	431,00
-5645,42	362,00
-5630,16	432,00
-5614,92	344,00
-5599,71	385,00
-5584,53	498,00
-5569,37	493,00
-5554,24	715,00
-5539,14	409,00
-5524,06	375,00
-5509,01	363,00
-5493,98	471,00
-5478,98	382,00
-5464,00	419,00
-5449,05	326,00
-5434,13	483,00
-5419,23	417,00
-5404,36	318,00
-5389,51	400,00
-5374,69	360,00
-5359,89	290,00
-5345,12	311,00
-5330,37	405,00
-5315,65	450,00
-5300,95	425,00
-5286,28	416,00
-5271,63	420,00
-5257,01	349,00
-5242,41	382,00
-5227,84	461,00
-5213,29	352,00
-5198,76	425,00
-5184,26	516,00
-5169,79	479,00
-5155,33	428,00
-5140,91	362,00
-5126,51	397,00
-5112,13	260,00
-5097,77	353,00
-5083,44	474,00
-5069,13	296,00
-5054,85	441,00
-5040,59	300,00
-5026,36	298,00
-5012,15	542,00
-4997,96	452,00
-4983,80	468,00
-4969,66	491,00
-4955,54	502,00
-4941,44	294,00
-4927,37	368,00
-4913,33	403,00
-4899,30	274,00
-4885,30	234,00
-4871,33	361,00
-4857,37	373,00
-4843,44	432,00
-4829,53	400,00
-4815,65	386,00
-4801,79	399,00
-4787,95	442,00
-4774,13	482,00
-4760,34	542,00
-4746,56	474,00
-4732,82	501,00
-4719,09	545,00
-4705,38	347,00
-4691,70	433,00
-4678,04	349,00
-4664,41	507,00
-4650,79	497,00
-4637,20	439,00
-4623,63	364,00
-4610,08	514,00
-4596,56	442,00
-4583,05	420,00
-4569,57	466,00
-4556,11	565,00
-4542,67	424,00
-4529,25	385,00
-4515,86	398,00
-4502,49	318,00
-4489,13	339,00
-4475,80	320,00
-4462,49	428,00
-4449,21	575,00
-4435,94	369,00
-4422,70	525,00
-4409,47	399,00
-4396,27	414,00
-4383,09	429,00
-4369,93	522,00
-4356,79	441,00
-4343,67	482,00
-4330,58	558,00
-4317,50	481,00
-4304,45	329,00
-4291,41	462,00
-4278,40	501,00
-4265,41	438,00
-4252,44	486,00
-4239,49	345,00
-4226,55	485,00
-4213,65	520,00
-4200,76	498,00
-4187,89	414,00
-4175,04	336,00
-4162,21	457,00
-4149,40	470,00
-4136,61	473,00
-4123,85	477,00
-4111,10	400,00
-4098,37	479,00
-4085,66	571,00
-4072,98	508,00
-4060,31	513,00
-4047,66	591,00
-4035,04	566,00
-4022,43	520,00
-4009,84	514,00
-3997,27	543,00
-3984,72	471,00
-3972,19	463,00
-3959,69	368,00
-3947,20	492,00
-3934,73	544,00
-3922,27	545,00
-3909,84	475,00
-3897,43	428,00
-3885,04	641,00
-3872,67	502,00
-3860,31	403,00
-3847,98	446,00
-3835,66	567,00
-3823,36	552,00
-3811,09	508,00
-3798,83	569,00
-3786,59	637,00
-3774,37	736,00
-3762,17	505,00
-3749,98	459,00
-3737,82	492,00
-3725,67	608,00
-3713,55	407,00
-3701,44	507,00
-3689,35	553,00
-3677,28	618,00
-3665,22	559,00
-3653,19	456,00
-3641,17	414,00
-3629,18	496,00
-3617,20	592,00
-3605,24	574,00
-3593,30	641,00
-3581,37	556,00
-3569,47	437,00
-3557,58	595,00
-3545,71	564,00
-3533,86	515,00
-3522,02	494,00
-3510,21	621,00
-3498,41	452,00
-3486,63	500,00
-3474,87	387,00
-3463,12	475,00
-3451,40	489,00
-3439,69	518,00
-3428,00	507,00
-3416,33	693,00
-3404,67	375,00
-3393,03	602,00
-3381,41	630,00
-3369,81	471,00
-3358,22	427,00
-3346,66	561,00
-3335,10	600,00
-3323,57	502,00
-3312,06	609,00
-3300,56	521,00
-3289,08	445,00
-3277,61	496,00
-3266,16	491,00
-3254,73	520,00
-3243,32	453,00
-3231,92	512,00
-3220,55	489,00
-3209,18	534,00
-3197,84	346,00
-3186,51	492,00
-3175,20	527,00
-3163,90	443,00
-3152,63	502,00
-3141,36	467,00
-3130,12	465,00
-3118,89	482,00
-3107,68	594,00
-3096,49	481,00
-3085,31	539,00
-3074,15	480,00
-3063,00	534,00
-3051,87	506,00
-3040,76	407,00
-3029,67	644,00
-3018,59	617,00
-3007,52	527,00
-2996,48	596,00
-2985,44	471,00
-2974,43	633,00
-2963,43	497,00
-2952,45	465,00
-2941,48	646,00
-2930,53	497,00
-2919,60	514,00
-2908,68	525,00
-2897,78	602,00
-2886,89	488,00
-2876,02	484,00
-2865,17	591,00
-2854,33	540,00
-2843,50	418,00
-2832,70	491,00
-2821,90	559,00
-2811,13	450,00
-2800,37	518,00
-2789,62	581,00
-2778,89	437,00
-2768,18	587,00
-2757,48	566,00
-2746,80	576,00
-2736,13	458,00
-2725,48	606,00
-2714,84	530,00
-2704,22	649,00
-2693,61	567,00
-2683,02	573,00
-2672,45	485,00
-2661,89	467,00
-2651,34	467,00
-2640,81	482,00
-2630,30	587,00
-2619,80	538,00
-2609,31	568,00
-2598,84	483,00
-2588,39	564,00
-2577,95	423,00
-2567,52	468,00
-2557,11	514,00
-2546,71	560,00
-2536,33	465,00
-2525,97	508,00
-2515,62	677,00
-2505,28	517,00
-2494,96	480,00
-2484,65	534,00
-2474,36	687,00
-2464,08	517,00
-2453,82	521,00
-2443,57	512,00
-2433,33	501,00
-2423,11	562,00
-2412,91	529,00
-2402,72	401,00
-2392,54	555,00
-2382,38	590,00
-2372,23	455,00
-2362,09	961,00
-2351,97	460,00
-2341,87	493,00
-2331,78	527,00
-2321,70	608,00
-2311,64	562,00
-2301,59	360,00
-2291,55	408,00
-2281,53	566,00
-2271,53	447,00
-2261,53	574,00
-2251,55	607,00
-2241,59	482,00
-2231,64	505,00
-2221,70	540,00
-2211,78	545,00
-2201,87	564,00
-2191,97	584,00
-2182,09	590,00
-2172,22	550,00
-2162,37	520,00
-2152,53	410,00
-2142,70	461,00
-2132,89	505,00
-2123,09	608,00
-2113,30	413,00
-2103,53	570,00
-2093,77	537,00
-2084,02	500,00
-2074,29	558,00
-2064,57	590,00
-2054,86	551,00
-2045,17	461,00
-2035,49	433,00
-2025,82	457,00
-2016,17	516,00
-2006,53	559,00
-1996,91	390,00
-1987,29	510,00
-1977,69	621,00
-1968,11	489,00
-1958,53	434,00
-1948,97	552,00
-1939,42	545,00
-1929,89	456,00
-1920,37	575,00
-1910,86	606,00
-1901,36	592,00
-1891,88	389,00
-1882,41	572,00
-1872,95	474,00
-1863,51	462,00
-1854,08	555,00
-1844,66	559,00
-1835,26	611,00
-1825,86	581,00
-1816,48	569,00
-1807,11	545,00
-1797,76	402,00
-1788,42	566,00
-1779,09	525,00
-1769,77	496,00
-1760,47	563,00
-1751,17	588,00
-1741,89	373,00
-1732,63	527,00
-1723,37	597,00
-1714,13	551,00
-1704,90	503,00
-1695,68	648,00
-1686,48	421,00
-1677,29	584,00
-1668,11	673,00
-1658,94	564,00
-1649,78	558,00
-1640,64	526,00
-1631,51	637,00
-1622,39	603,00
-1613,28	450,00
-1604,19	627,00
-1595,10	526,00
-1586,03	443,00
-1576,97	562,00
-1567,93	471,00
-1558,89	571,00
-1549,87	588,00
-1540,86	503,00
-1531,86	499,00
-1522,87	541,00
-1513,90	594,00
-1504,93	539,00
-1495,98	578,00
-1487,04	507,00
-1478,12	364,00
-1469,20	468,00
-1460,30	571,00
-1451,40	547,00
-1442,52	634,00
-1433,65	484,00
-1424,80	511,00
-1415,95	564,00
-1407,12	585,00
-1398,30	509,00
-1389,48	464,00
-1380,69	474,00
-1371,90	482,00
-1363,12	511,00
-1354,36	644,00
-1345,60	513,00
-1336,86	594,00
-1328,13	657,00
-1319,41	575,00
-1310,70	423,00
-1302,01	634,00
-1293,32	517,00
-1284,65	500,00
-1275,99	590,00
-1267,33	487,00
-1258,69	447,00
-1250,06	531,00
-1241,45	511,00
-1232,84	530,00
-1224,25	589,00
-1215,66	722,00
-1207,09	521,00
-1198,53	505,00
-1189,97	539,00
-1181,43	455,00
-1172,91	593,00
-1164,39	659,00
-1155,88	418,00
-1147,38	421,00
-1138,90	632,00
-1130,43	469,00
-1121,96	637,00
-1113,51	565,00
-1105,07	505,00
-1096,64	557,00
-1088,22	466,00
-1079,81	578,00
-1071,41	575,00
-1063,02	590,00
-1054,65	611,00
-1046,28	548,00
-1037,92	627,00
-1029,58	584,00
-1021,24	565,00
-1012,92	693,00
-1004,61	531,00
-996,30	646,00
-988,01	414,00
-979,73	467,00
-971,46	484,00
-963,20	496,00
-954,95	656,00
-946,71	502,00
-938,48	467,00
-930,26	516,00
-922,06	525,00
-913,86	557,00
-905,67	556,00
-897,49	524,00
-889,33	492,00
-881,17	586,00
-873,02	465,00
-864,89	531,00
-856,76	468,00
-848,65	453,00
-840,54	575,00
-832,45	615,00
-824,36	537,00
-816,29	494,00
-808,22	595,00
-800,17	676,00
-792,12	569,00
-784,09	483,00
-776,06	517,00
-768,05	617,00
-760,04	471,00
-752,05	475,00
-744,07	569,00
-736,09	490,00
-728,13	482,00
-720,17	465,00
-712,23	378,00
-704,29	582,00
-696,37	458,00
-688,45	535,00
-680,55	505,00
-672,65	456,00
-664,77	571,00
-656,89	504,00
-649,03	581,00
-641,17	515,00
-633,32	542,00
-625,49	617,00
-617,66	435,00
-609,84	542,00
-602,03	550,00
-594,23	484,00
-586,45	517,00
-578,67	493,00
-570,90	550,00
-563,14	532,00
-555,39	564,00
-547,65	491,00
-539,91	511,00
-532,19	576,00
-524,48	597,00
-516,78	525,00
-509,08	510,00
-501,40	448,00
-493,72	502,00
-486,06	555,00
-478,40	610,00
-470,76	453,00
-463,12	514,00
-455,49	557,00
-447,87	488,00
-440,26	540,00
-432,66	529,00
-425,07	552,00
-417,49	556,00
-409,92	427,00
-402,35	521,00
-394,80	488,00
-387,25	465,00
-379,72	546,00
-372,19	631,00
-364,67	626,00
-357,17	558,00
-349,67	435,00
-342,18	644,00
-334,69	544,00
-327,22	526,00
-319,76	656,00
-312,30	527,00
-304,86	671,00
-297,42	595,00
-290,00	543,00
-282,58	601,00
-275,17	621,00
-267,77	578,00
-260,37	622,00
-252,99	722,00
-245,62	641,00
-238,25	694,00
-230,90	660,00
-223,55	721,00
-216,21	742,00
-208,88	746,00
-201,56	738,00
-194,25	867,00
-186,94	895,00
-179,65	816,00
-172,36	918,00
-165,08	918,00
-157,81	1083,00
-150,55	1046,00
-143,30	1087,00
-136,06	1204,00
-128,82	1306,00
-121,60	1400,00
-114,38	1520,00
-107,17	1665,00
-99,97	1891,00
-92,78	1967,00
-85,60	2297,00
-78,42	2554,00
-71,25	2859,00
-64,10	3261,00
-56,95	3661,00
-49,81	4160,00
-42,67	5024,00
-35,55	6147,00
-28,43	8012,00
-21,33	12698,00
-14,23	38279,00
-7,14	56670,00
-0,05	56467,00
7,02	56225,00
14,09	56403,00
21,14	40854,00
28,19	17724,00
35,23	11044,00
42,27	8332,00
49,29	6826,00
56,31	5678,00
63,32	4835,00
70,32	4085,00
77,31	3452,00
84,29	3087,00
91,27	2888,00
98,23	2644,00
105,19	2308,00
112,14	2448,00
119,09	3039,00
126,02	3969,00
132,95	4098,00
139,87	4249,00
146,78	4118,00
153,68	4029,00
160,58	3879,00
167,46	3649,00
174,34	3714,00
181,21	3691,00
188,08	3529,00
194,93	3678,00
201,78	3612,00
208,62	3603,00
215,45	3613,00
222,27	3627,00
229,09	3552,00
235,90	3365,00
242,70	3490,00
249,49	3434,00
256,27	3316,00
263,05	3250,00
269,82	3290,00
276,58	3294,00
283,33	3214,00
290,08	3257,00
296,82	3243,00
303,55	3140,00
310,27	3086,00
316,98	3179,00
323,69	3109,00
330,39	2916,00
337,08	3136,00
343,76	3071,00
350,44	2923,00
357,11	3029,00
363,77	2963,00
370,42	2972,00
377,07	2995,00
383,71	2903,00
390,34	2898,00
396,96	2798,00
403,58	2925,00
410,19	2909,00
416,79	3156,00
423,38	3029,00
429,97	3048,00
436,55	2743,00
443,12	2800,00
449,68	2731,00
456,24	2753,00
462,79	2753,00
469,33	2695,00
475,86	2618,00
482,39	2533,00
488,91	2560,00
495,42	2713,00
501,93	2517,00
508,42	2523,00
514,91	2709,00
521,40	2589,00
527,87	2533,00
534,34	2506,00
540,80	2549,00
547,25	2620,00
553,70	2480,00
560,14	2584,00
566,57	2498,00
573,00	2425,00
579,41	2514,00
585,83	2464,00
592,23	2653,00
598,62	2486,00
605,01	2427,00
611,40	2430,00
617,77	2462,00
624,14	2423,00
630,50	2495,00
636,85	2458,00
643,20	2333,00
649,54	2399,00
655,87	2388,00
662,20	2443,00
668,52	2497,00
674,83	2497,00
681,13	2378,00
687,43	2339,00
693,72	2346,00
700,00	2333,00
706,28	2240,00
712,55	2266,00
718,81	2474,00
725,07	2369,00
731,32	2330,00
737,56	2201,00
743,79	2315,00
750,02	2301,00
756,24	2305,00
762,46	2300,00
768,67	2506,00
774,87	2349,00
781,06	2399,00
787,25	2298,00
793,43	2273,00
799,60	2339,00
805,77	2427,00
811,93	2348,00
818,08	2331,00
824,23	2345,00
830,37	2411,00
836,50	2488,00
842,63	2418,00
848,75	2393,00
854,87	2453,00
860,97	2265,00
867,07	2375,00
873,17	2473,00
879,25	2364,00
885,33	2320,00
891,41	2472,00
897,47	2251,00
903,53	2357,00
909,59	2282,00
915,63	2425,00
921,67	2244,00
927,71	2215,00
933,74	2179,00
939,76	2125,00
945,77	2218,00
951,78	2242,00
957,78	2020,00
963,78	2241,00
969,77	2089,00
975,75	2180,00
981,72	2225,00
987,69	2804,00
993,66	2118,00
999,61	2189,00
1005,56	2111,00
1011,51	2167,00
1017,44	2074,00
1023,37	2258,00
1029,30	2189,00
1035,22	2208,00
1041,13	2128,00
1047,03	2154,00
1052,93	2542,00
1058,83	2634,00
1064,71	2960,00
1070,59	2715,00
1076,47	2542,00
1082,33	2379,00
1088,20	2282,00
1094,05	2336,00
1099,90	2219,00
1105,74	2071,00
1111,58	2354,00
1117,41	2212,00
1123,23	2561,00
1129,05	2756,00
1134,86	2662,00
1140,67	2462,00
1146,47	2273,00
1152,26	2255,00
1158,05	2049,00
1163,83	2140,00
1169,60	2088,00
1175,37	2146,00
1181,13	2080,00
1186,89	2043,00
1192,64	2102,00
1198,38	2122,00
1204,12	2089,00
1209,85	2032,00
1215,58	2069,00
1221,30	1986,00
1227,02	2065,00
1232,72	2135,00
1238,43	2045,00
1244,12	1978,00
1249,81	1962,00
1255,50	2095,00
1261,17	2079,00
1266,85	2041,00
1272,51	2144,00
1278,17	2236,00
1283,83	2287,00
1289,47	2637,00
1295,12	3207,00
1300,75	3238,00
1306,38	2760,00
1312,01	2503,00
1317,63	2369,00
1323,24	2357,00
1328,85	2192,00
1334,45	2290,00
1340,04	2195,00
1345,63	2208,00
1351,22	2395,00
1356,80	2259,00
1362,37	2386,00
1367,93	2396,00
1373,49	2430,00
1379,05	2258,00
1384,60	2227,00
1390,14	2251,00
1395,68	2250,00
1401,21	2352,00
1406,74	2297,00
1412,26	2461,00
1417,77	2722,00
1423,28	2662,00
1428,78	2789,00
1434,28	3197,00
1439,77	3519,00
1445,26	3367,00
1450,74	3295,00
1456,22	3046,00
1461,68	2970,00
1467,15	2987,00
1472,61	2731,00
1478,06	2591,00
1483,51	2275,00
1488,95	2048,00
1494,38	2091,00
1499,81	2095,00
1505,24	2175,00
1510,65	2025,00
1516,07	2066,00
1521,48	2016,00
1526,88	1892,00
1532,27	1885,00
1537,67	1944,00
1543,05	2073,00
1548,43	1896,00
1553,81	1943,00
1559,18	1837,00
1564,54	1957,00
1569,90	1945,00
1575,25	1870,00
1580,60	1909,00
1585,94	1930,00
1591,28	1958,00
1596,61	1853,00
1601,93	1891,00
1607,25	1942,00
1612,57	1978,00
1617,88	1783,00
1623,18	1937,00
1628,48	1907,00
1633,77	1845,00
1639,06	1856,00
1644,34	1709,00
1649,62	1808,00
1654,89	1856,00
1660,16	1765,00
1665,42	1818,00
1670,67	1772,00
1675,92	1704,00
1681,17	1799,00
1686,41	1721,00
1691,64	1667,00
1696,87	1652,00
1702,10	1659,00
1707,32	1656,00
1712,53	1718,00
1717,74	1643,00
1722,94	1675,00
1728,14	1708,00
1733,33	1651,00
1738,52	1476,00
1743,70	1635,00
1748,88	1712,00
1754,05	1649,00
1759,22	1614,00
1764,38	1808,00
1769,53	1608,00
1774,69	1637,00
1779,83	1707,00
1784,97	1597,00
1790,11	1579,00
1795,24	1463,00
1800,36	1502,00
1805,48	1535,00
1810,60	1388,00
1815,71	1574,00
1820,82	1389,00
1825,92	1533,00
1831,01	1513,00
1836,10	1544,00
1841,19	1517,00
1846,26	1555,00
1851,34	1489,00
1856,41	1479,00
1861,47	1540,00
1866,53	1544,00
1871,59	1550,00
1876,64	1417,00
1881,68	1430,00
1886,72	1411,00
1891,76	1501,00
1896,79	1467,00
1901,81	1412,00
1906,83	1563,00
1911,85	1447,00
1916,86	1390,00
1921,86	1295,00
1926,86	1484,00
1931,86	1417,00
1936,85	1386,00
1941,83	1425,00
1946,81	1294,00
1951,79	1418,00
1956,76	1301,00
1961,72	1252,00
1966,68	1332,00
1971,64	1333,00
1976,59	1350,00
1981,54	1322,00
1986,48	1142,00
1991,42	1361,00
1996,35	1463,00
2001,27	1335,00
2006,20	1396,00
2011,11	1277,00
2016,03	1244,00
2020,93	1232,00
2025,84	1409,00
2030,73	1430,00
2035,63	1388,00
2040,52	1375,00
2045,40	1251,00
2050,28	1250,00
2055,15	1294,00
2060,02	1116,00
2064,89	1216,00
2069,75	1363,00
2074,60	1253,00
2079,46	1236,00
2084,30	1308,00
2089,14	1225,00
2093,98	1338,00
2098,81	1304,00
2103,64	1213,00
2108,46	1388,00
2113,28	1418,00
2118,09	1240,00
2122,90	1290,00
2127,70	1184,00
2132,50	1276,00
2137,30	1211,00
2142,09	1214,00
2146,87	1150,00
2151,66	1250,00
2156,43	1309,00
2161,20	1187,00
2165,97	1242,00
2170,73	1150,00
2175,49	1295,00
2180,24	1394,00
2184,99	1440,00
2189,74	1313,00
2194,48	1354,00
2199,21	1389,00
2203,94	1136,00
2208,67	1216,00
2213,39	1123,00
2218,11	1127,00
2222,82	1148,00
2227,53	1084,00
2232,23	1153,00
2236,93	1207,00
2241,63	1196,00
2246,32	1189,00
2251,00	1094,00
2255,68	1317,00
2260,36	1119,00
2265,03	1105,00
2269,70	1184,00
2274,36	1040,00
2279,02	1099,00
2283,68	1144,00
2288,33	1064,00
2292,97	1077,00
2297,61	1032,00
2302,25	1147,00
2306,88	1156,00
2311,51	1097,00
2316,14	1024,00
2320,75	1084,00
2325,37	987,00
2329,98	1148,00
2334,59	959,00
2339,19	1021,00
2343,79	964,00
2348,38	972,00
2352,97	1022,00
2357,55	1105,00
2362,13	983,00
2366,71	975,00
2371,28	1067,00
2375,85	1100,00
2380,41	1054,00
2384,97	1060,00
2389,52	955,00
2394,07	1115,00
2398,62	1031,00
2403,16	1035,00
2407,70	888,00
2412,23	1078,00
2416,76	995,00
2421,29	976,00
2425,81	1087,00
2430,32	976,00
2434,84	932,00
2439,34	971,00
2443,85	997,00
2448,35	957,00
2452,84	1027,00
2457,33	865,00
2461,82	1006,00
2466,30	918,00
2470,78	882,00
2475,25	888,00
2479,72	856,00
2484,19	877,00
2488,65	968,00
2493,11	893,00
2497,56	1008,00
2502,01	917,00
2506,46	951,00
2510,90	922,00
2515,34	886,00
2519,77	844,00
2524,20	896,00
2528,62	911,00
2533,04	941,00
2537,46	759,00
2541,87	830,00
2546,28	839,00
2550,68	912,00
2555,08	944,00
2559,48	956,00
2563,87	933,00
2568,26	987,00
2572,64	938,00
2577,02	1029,00
2581,40	808,00
2585,77	911,00
2590,14	841,00
2594,50	886,00
2598,86	932,00
2603,22	856,00
2607,57	965,00
2611,92	905,00
2616,26	839,00
2620,60	928,00
2624,94	779,00
2629,27	980,00
2633,60	887,00
2637,92	871,00
2642,24	980,00
2646,56	807,00
2650,87	923,00
2655,18	929,00
2659,48	891,00
2663,78	869,00
2668,08	906,00
2672,37	878,00
2676,66	939,00
2680,95	908,00
2685,23	828,00
2689,50	995,00
2693,78	876,00
2698,05	940,00
2702,31	964,00
2706,57	965,00
2710,83	1037,00
2715,08	1079,00
2719,33	1149,00
2723,58	1078,00
2727,82	937,00
2732,06	930,00
2736,29	972,00
2740,53	981,00
2744,75	981,00
2748,97	903,00
2753,19	914,00
2757,41	897,00
2761,62	938,00
2765,83	855,00
2770,03	836,00
2774,23	1007,00
2778,43	840,00
2782,62	913,00
2786,81	929,00
2791,00	1054,00
2795,18	1036,00
2799,35	955,00
2803,53	1000,00
2807,70	1146,00
2811,86	1001,00
2816,03	1111,00
2820,19	1035,00
2824,34	1092,00
2828,49	1172,00
2832,64	1379,00
2836,78	1466,00
2840,92	1669,00
2845,06	1825,00
2849,19	2173,00
2853,32	2315,00
2857,45	2373,00
2861,57	2225,00
2865,69	2201,00
2869,80	2137,00
2873,91	2402,00
2878,02	2366,00
2882,12	2473,00
2886,22	2376,00
2890,32	2432,00
2894,41	2330,00
2898,50	2117,00
2902,58	1973,00
2906,67	2025,00
2910,74	1921,00
2914,82	1848,00
2918,89	1726,00
2922,96	1648,00
2927,02	1677,00
2931,08	1573,00
2935,13	1421,00
2939,19	1309,00
2943,24	1285,00
2947,28	1218,00
2951,32	1150,00
2955,36	1073,00
2959,40	1021,00
2963,43	1157,00
2967,46	890,00
2971,48	881,00
2975,50	962,00
2979,52	852,00
2983,53	965,00
2987,54	759,00
2991,55	795,00
2995,55	827,00
2999,55	711,00
3003,54	825,00
3007,54	802,00
3011,53	640,00
3015,51	825,00
3019,49	751,00
3023,47	715,00
3027,45	843,00
3031,42	599,00
3035,39	678,00
3039,35	714,00
3043,31	718,00
3047,27	635,00
3051,22	729,00
3055,17	767,00
3059,12	635,00
3063,06	748,00
3067,00	581,00
3070,94	669,00
3074,87	547,00
3078,80	811,00
3082,73	603,00
3086,65	653,00
3090,57	678,00
3094,49	721,00
3098,40	715,00
3102,31	568,00
3106,22	685,00
3110,12	697,00
3114,02	731,00
3117,92	642,00
3121,81	632,00
3125,70	582,00
3129,58	526,00
3133,47	629,00
3137,34	592,00
3141,22	604,00
3145,09	663,00
3148,96	685,00
3152,83	585,00
3156,69	709,00
3160,55	614,00
3164,40	681,00
3168,26	589,00
3172,10	627,00
3175,95	766,00
3179,79	655,00
3183,63	738,00
3187,47	647,00
3191,30	706,00
3195,13	689,00
3198,95	595,00
3202,78	603,00
3206,60	750,00
3210,41	595,00
3214,23	615,00
3218,03	608,00
3221,84	563,00
3225,64	672,00
3229,44	578,00
3233,24	492,00
3237,03	666,00
3240,82	691,00
3244,61	554,00
3248,39	526,00
3252,17	652,00
3255,95	757,00
3259,72	672,00
3263,49	689,00
3267,26	517,00
3271,03	653,00
3274,79	536,00
3278,54	546,00
3282,30	539,00
3286,05	670,00
3289,80	730,00
3293,54	492,00
3297,29	640,00
3301,02	520,00
3304,76	653,00
3308,49	738,00
3312,22	562,00
3315,95	632,00
3319,67	619,00
3323,39	635,00
3327,10	655,00
3330,82	646,00
3334,53	582,00
3338,24	572,00
3341,94	617,00
3345,64	591,00
3349,34	658,00
3353,03	698,00
3356,72	603,00
3360,41	560,00
3364,10	608,00
3367,78	547,00
3371,46	579,00
3375,13	564,00
3378,81	628,00
3382,48	550,00
3386,14	674,00
3389,81	592,00
3393,47	594,00
3397,12	650,00
3400,78	606,00
3404,43	575,00
3408,08	699,00
3411,72	553,00
3415,36	544,00
3419,00	581,00
3422,64	584,00
3426,27	452,00
3429,90	601,00
3433,53	551,00
3437,15	558,00
3440,77	555,00
3444,39	520,00
3448,00	543,00
3451,62	605,00
3455,22	523,00
3458,83	626,00
3462,43	545,00
3466,03	627,00
3469,63	433,00
3473,22	476,00
3476,81	533,00
3480,40	479,00
3483,99	490,00
3487,57	554,00
3491,15	568,00
3494,72	512,00
3498,29	444,00
3501,86	620,00
3505,43	639,00
3508,99	527,00
3512,56	407,00
3516,11	638,00
3519,67	516,00
3523,22	608,00
3526,77	526,00
3530,32	469,00
3533,86	521,00
3537,40	480,00
3540,94	462,00
3544,47	492,00
3548,00	515,00
3551,53	618,00
3555,06	556,00
3558,58	640,00
3562,10	516,00
3565,62	550,00
3569,13	604,00
3572,64	572,00
3576,15	477,00
3579,66	678,00
3583,16	491,00
3586,66	425,00
3590,16	455,00
3593,65	484,00
3597,14	454,00
3600,63	367,00
3604,11	555,00
3607,60	481,00
3611,08	500,00
3614,55	536,00
3618,03	484,00
3621,50	385,00
3624,97	456,00
3628,43	586,00
3631,90	511,00
3635,36	514,00
3638,81	391,00
3642,27	541,00
3645,72	550,00
3649,17	532,00
3652,61	558,00
3656,06	468,00
3659,50	435,00
3662,93	442,00
3666,37	493,00
3669,80	432,00
3673,23	511,00
3676,65	576,00
3680,08	580,00
3683,50	435,00
3686,92	495,00
3690,33	399,00
3693,74	457,00
3697,15	471,00
3700,56	423,00
3703,96	528,00
3707,36	482,00
3710,76	411,00
3714,16	337,00
3717,55	417,00
3720,94	507,00
3724,33	475,00
3727,71	555,00
3731,10	510,00
3734,48	418,00
3737,85	439,00
3741,23	428,00
3744,60	522,00
3747,97	472,00
3751,33	392,00
3754,69	346,00
3758,05	541,00
3761,41	351,00
3764,77	396,00
3768,12	399,00
3771,47	344,00
3774,82	486,00
3778,16	-7,00
3781,50	11,00
3784,84	7,00
3788,18	6,00
>>>>>End Processed Spectral Data<<<<<
