SpectraSuite Data File
++++++++++++++++++++++++++++++++++++
Date: Wed Feb 04 15:44:30 ICT 2026
User: Administrator
Dark Spectrum Present: Yes
Reference Spectrum Present: No
Number of Sampled Component Spectra: 1
Spectrometers: MAYP113682
Integration Time (usec): 3000000 (MAYP113682)
Spectra Averaged: 1 (MAYP113682)
Boxcar Smoothing: 0 (MAYP113682)
Correct for Electrical Dark: No (MAYP113682)
Strobe/Lamp Enabled: No (MAYP113682)
Correct for Detector Non-linearity: No (MAYP113682)
Correct for Stray Light: No (MAYP113682)
Number of Pixels in Processed Spectrum: 2068
>>>>>Begin Processed Spectral Data<<<<<
-37534,58	27,00
-37414,56	0,00
-37295,11	5,00
-37176,24	12,00
-37057,95	417,00
-36940,22	546,00
-36823,05	535,00
-36706,45	620,00
-36590,40	652,00
-36474,90	581,00
-36359,95	711,00
-36245,55	616,00
-36131,68	599,00
-36018,35	475,00
-35905,55	706,00
-35793,29	656,00
-35681,54	577,00
-35570,32	622,00
-35459,62	591,00
-35349,43	657,00
-35239,75	689,00
-35130,58	599,00
-35021,91	682,00
-34913,74	563,00
-34806,07	650,00
-34698,89	734,00
-34592,20	551,00
-34486,00	703,00
-34380,28	556,00
-34275,04	597,00
-34170,27	572,00
-34065,98	705,00
-33962,16	640,00
-33858,81	690,00
-33755,92	628,00
-33653,49	732,00
-33551,52	698,00
-33450,01	662,00
-33348,94	640,00
-33248,33	763,00
-33148,16	648,00
-33048,43	682,00
-32949,14	781,00
-32850,29	684,00
-32751,87	669,00
-32653,89	613,00
-32556,33	752,00
-32459,20	596,00
-32362,49	624,00
-32266,19	635,00
-32170,32	768,00
-32074,86	716,00
-31979,82	670,00
-31885,18	734,00
-31790,95	736,00
-31697,12	738,00
-31603,69	614,00
-31510,67	702,00
-31418,04	634,00
-31325,80	697,00
-31233,95	675,00
-31142,49	781,00
-31051,42	668,00
-30960,73	799,00
-30870,43	858,00
-30780,50	656,00
-30690,95	624,00
-30601,77	792,00
-30512,97	724,00
-30424,53	788,00
-30336,46	760,00
-30248,76	708,00
-30161,42	728,00
-30074,44	606,00
-29987,81	726,00
-29901,55	625,00
-29815,63	678,00
-29730,07	732,00
-29644,86	543,00
-29560,00	698,00
-29475,48	640,00
-29391,30	621,00
-29307,47	627,00
-29223,97	636,00
-29140,81	746,00
-29057,99	769,00
-28975,50	587,00
-28893,34	712,00
-28811,51	734,00
-28730,00	594,00
-28648,82	726,00
-28567,97	786,00
-28487,43	561,00
-28407,21	627,00
-28327,32	690,00
-28247,73	761,00
-28168,46	709,00
-28089,50	649,00
-28010,85	695,00
-27932,51	604,00
-27854,48	691,00
-27776,75	658,00
-27699,32	665,00
-27622,19	724,00
-27545,37	623,00
-27468,84	691,00
-27392,60	757,00
-27316,66	660,00
-27241,01	716,00
-27165,66	747,00
-27090,59	614,00
-27015,81	681,00
-26941,31	745,00
-26867,10	605,00
-26793,17	745,00
-26719,52	672,00
-26646,15	574,00
-26573,06	673,00
-26500,24	646,00
-26427,70	505,00
-26355,43	708,00
-26283,43	670,00
-26211,71	706,00
-26140,25	683,00
-26069,06	950,00
-25998,13	628,00
-25927,46	663,00
-25857,06	672,00
-25786,92	654,00
-25717,04	696,00
-25647,42	770,00
-25578,05	582,00
-25508,94	714,00
-25440,09	710,00
-25371,48	724,00
-25303,13	747,00
-25235,02	610,00
-25167,17	688,00
-25099,56	796,00
-25032,19	636,00
-24965,07	683,00
-24898,20	612,00
-24831,56	765,00
-24765,17	625,00
-24699,01	620,00
-24633,10	665,00
-24567,41	801,00
-24501,97	817,00
-24436,75	630,00
-24371,77	693,00
-24307,03	643,00
-24242,51	722,00
-24178,22	748,00
-24114,16	611,00
-24050,32	832,00
-23986,71	699,00
-23923,32	703,00
-23860,16	754,00
-23797,22	625,00
-23734,50	662,00
-23672,00	673,00
-23609,71	822,00
-23547,65	595,00
-23485,80	671,00
-23424,16	654,00
-23362,74	775,00
-23301,53	630,00
-23240,54	605,00
-23179,75	605,00
-23119,17	830,00
-23058,80	652,00
-22998,64	669,00
-22938,68	759,00
-22878,93	711,00
-22819,39	653,00
-22760,04	628,00
-22700,90	638,00
-22641,96	602,00
-22583,22	697,00
-22524,68	639,00
-22466,33	630,00
-22408,19	633,00
-22350,23	590,00
-22292,48	741,00
-22234,92	753,00
-22177,55	814,00
-22120,37	792,00
-22063,38	576,00
-22006,58	612,00
-21949,98	634,00
-21893,56	651,00
-21837,33	605,00
-21781,28	667,00
-21725,42	615,00
-21669,74	705,00
-21614,25	623,00
-21558,94	639,00
-21503,81	767,00
-21448,86	606,00
-21394,10	712,00
-21339,51	708,00
-21285,10	631,00
-21230,86	567,00
-21176,81	624,00
-21122,93	642,00
-21069,22	634,00
-21015,69	610,00
-20962,33	722,00
-20909,14	643,00
-20856,13	724,00
-20803,28	664,00
-20750,61	606,00
-20698,10	646,00
-20645,76	625,00
-20593,59	696,00
-20541,59	760,00
-20489,75	719,00
-20438,07	506,00
-20386,56	711,00
-20335,22	640,00
-20284,03	616,00
-20233,01	673,00
-20182,15	657,00
-20131,45	679,00
-20080,91	624,00
-20030,52	660,00
-19980,30	579,00
-19930,23	571,00
-19880,32	743,00
-19830,56	697,00
-19780,96	648,00
-19731,52	585,00
-19682,23	635,00
-19633,09	613,00
-19584,10	642,00
-19535,26	699,00
-19486,58	738,00
-19438,04	642,00
-19389,66	590,00
-19341,42	636,00
-19293,33	747,00
-19245,39	754,00
-19197,60	649,00
-19149,95	699,00
-19102,45	740,00
-19055,09	643,00
-19007,87	793,00
-18960,80	709,00
-18913,87	746,00
-18867,09	553,00
-18820,44	659,00
-18773,94	712,00
-18727,57	683,00
-18681,35	584,00
-18635,26	650,00
-18589,31	595,00
-18543,50	666,00
-18497,83	716,00
-18452,29	747,00
-18406,89	621,00
-18361,63	796,00
-18316,50	659,00
-18271,50	653,00
-18226,63	745,00
-18181,90	718,00
-18137,30	684,00
-18092,84	573,00
-18048,50	630,00
-18004,29	550,00
-17960,22	665,00
-17916,27	584,00
-17872,45	702,00
-17828,76	795,00
-17785,20	776,00
-17741,77	619,00
-17698,46	679,00
-17655,28	557,00
-17612,22	621,00
-17569,29	713,00
-17526,48	635,00
-17483,79	601,00
-17441,23	562,00
-17398,79	606,00
-17356,48	652,00
-17314,28	647,00
-17272,21	621,00
-17230,26	665,00
-17188,42	690,00
-17146,71	583,00
-17105,12	718,00
-17063,64	606,00
-17022,28	696,00
-16981,04	625,00
-16939,92	718,00
-16898,91	758,00
-16858,02	607,00
-16817,25	659,00
-16776,59	583,00
-16736,04	657,00
-16695,61	708,00
-16655,29	665,00
-16615,09	780,00
-16574,99	681,00
-16535,01	704,00
-16495,15	748,00
-16455,39	662,00
-16415,74	560,00
-16376,21	564,00
-16336,78	561,00
-16297,46	614,00
-16258,26	591,00
-16219,16	632,00
-16180,17	706,00
-16141,28	709,00
-16102,51	606,00
-16063,84	798,00
-16025,27	699,00
-15986,82	676,00
-15948,46	714,00
-15910,22	659,00
-15872,07	597,00
-15834,04	641,00
-15796,10	640,00
-15758,27	640,00
-15720,54	639,00
-15682,91	648,00
-15645,39	749,00
-15607,97	708,00
-15570,64	634,00
-15533,42	755,00
-15496,30	595,00
-15459,28	676,00
-15422,36	672,00
-15385,54	681,00
-15348,82	736,00
-15312,19	773,00
-15275,66	576,00
-15239,23	655,00
-15202,90	727,00
-15166,67	633,00
-15130,53	690,00
-15094,48	628,00
-15058,54	644,00
-15022,68	623,00
-14986,93	705,00
-14951,26	615,00
-14915,69	616,00
-14880,22	720,00
-14844,84	687,00
-14809,55	781,00
-14774,35	785,00
-14739,25	695,00
-14704,24	580,00
-14669,32	651,00
-14634,49	574,00
-14599,75	738,00
-14565,10	551,00
-14530,55	628,00
-14496,08	708,00
-14461,70	693,00
-14427,41	646,00
-14393,21	632,00
-14359,10	607,00
-14325,07	667,00
-14291,14	640,00
-14257,29	786,00
-14223,52	728,00
-14189,85	733,00
-14156,26	598,00
-14122,76	587,00
-14089,34	656,00
-14056,01	671,00
-14022,76	721,00
-13989,60	600,00
-13956,52	603,00
-13923,53	626,00
-13890,62	613,00
-13857,79	682,00
-13825,05	635,00
-13792,39	621,00
-13759,81	647,00
-13727,31	561,00
-13694,90	728,00
-13662,57	679,00
-13630,31	630,00
-13598,14	793,00
-13566,05	579,00
-13534,05	608,00
-13502,12	616,00
-13470,27	653,00
-13438,50	687,00
-13406,80	625,00
-13375,19	624,00
-13343,66	693,00
-13312,20	725,00
-13280,83	664,00
-13249,53	615,00
-13218,30	525,00
-13187,16	618,00
-13156,09	720,00
-13125,10	588,00
-13094,18	695,00
-13063,34	695,00
-13032,58	488,00
-13001,89	652,00
-12971,28	629,00
-12940,74	702,00
-12910,27	668,00
-12879,88	554,00
-12849,57	661,00
-12819,33	653,00
-12789,16	629,00
-12759,06	676,00
-12729,04	673,00
-12699,09	704,00
-12669,21	688,00
-12639,41	637,00
-12609,68	628,00
-12580,02	535,00
-12550,43	748,00
-12520,91	608,00
-12491,46	597,00
-12462,08	703,00
-12432,77	558,00
-12403,54	664,00
-12374,37	800,00
-12345,27	585,00
-12316,24	698,00
-12287,29	667,00
-12258,40	682,00
-12229,57	682,00
-12200,82	700,00
-12172,14	655,00
-12143,52	536,00
-12114,97	545,00
-12086,49	732,00
-12058,07	600,00
-12029,73	572,00
-12001,44	659,00
-11973,23	698,00
-11945,08	672,00
-11917,00	795,00
-11888,98	624,00
-11861,03	718,00
-11833,15	646,00
-11805,32	674,00
-11777,57	803,00
-11749,88	674,00
-11722,25	652,00
-11694,69	707,00
-11667,19	634,00
-11639,75	754,00
-11612,38	593,00
-11585,07	655,00
-11557,83	638,00
-11530,65	759,00
-11503,53	688,00
-11476,47	731,00
-11449,48	573,00
-11422,54	752,00
-11395,67	629,00
-11368,86	811,00
-11342,11	587,00
-11315,43	761,00
-11288,80	690,00
-11262,23	702,00
-11235,73	607,00
-11209,28	786,00
-11182,90	714,00
-11156,57	672,00
-11130,31	813,00
-11104,10	692,00
-11077,96	618,00
-11051,87	704,00
-11025,84	776,00
-10999,87	726,00
-10973,96	719,00
-10948,11	645,00
-10922,31	624,00
-10896,58	680,00
-10870,90	803,00
-10845,28	756,00
-10819,71	632,00
-10794,20	612,00
-10768,75	672,00
-10743,36	719,00
-10718,02	576,00
-10692,74	738,00
-10667,52	560,00
-10642,35	742,00
-10617,24	613,00
-10592,18	643,00
-10567,18	668,00
-10542,23	701,00
-10517,34	741,00
-10492,51	717,00
-10467,72	738,00
-10443,00	532,00
-10418,32	559,00
-10393,70	761,00
-10369,14	753,00
-10344,63	613,00
-10320,17	680,00
-10295,77	611,00
-10271,42	606,00
-10247,12	666,00
-10222,88	725,00
-10198,68	698,00
-10174,54	777,00
-10150,46	748,00
-10126,42	779,00
-10102,44	709,00
-10078,51	638,00
-10054,63	695,00
-10030,80	754,00
-10007,03	881,00
-9983,30	728,00
-9959,63	695,00
-9936,01	800,00
-9912,44	659,00
-9888,92	724,00
-9865,44	646,00
-9842,02	617,00
-9818,65	667,00
-9795,33	640,00
-9772,06	710,00
-9748,84	636,00
-9725,67	662,00
-9702,55	677,00
-9679,47	883,00
-9656,45	791,00
-9633,47	677,00
-9610,55	760,00
-9587,67	872,00
-9564,84	937,00
-9542,06	770,00
-9519,32	948,00
-9496,64	784,00
-9474,00	656,00
-9451,41	884,00
-9428,87	899,00
-9406,37	798,00
-9383,92	845,00
-9361,52	792,00
-9339,17	884,00
-9316,86	880,00
-9294,60	930,00
-9272,38	1057,00
-9250,21	1280,00
-9228,09	1047,00
-9206,01	1132,00
-9183,98	879,00
-9162,00	866,00
-9140,06	893,00
-9118,16	854,00
-9096,31	843,00
-9074,51	1023,00
-9052,75	1116,00
-9031,04	1258,00
-9009,37	1021,00
-8987,74	941,00
-8966,16	951,00
-8944,63	724,00
-8923,14	719,00
-8901,69	794,00
-8880,29	907,00
-8858,93	1081,00
-8837,61	1122,00
-8816,34	1078,00
-8795,11	1117,00
-8773,92	1192,00
-8752,78	924,00
-8731,68	814,00
-8710,62	926,00
-8689,61	953,00
-8668,63	996,00
-8647,70	1293,00
-8626,82	986,00
-8605,97	1170,00
-8585,17	1117,00
-8564,41	971,00
-8543,69	968,00
-8523,01	740,00
-8502,37	1002,00
-8481,78	821,00
-8461,23	837,00
-8440,71	1057,00
-8420,24	1114,00
-8399,81	1161,00
-8379,42	1177,00
-8359,08	1091,00
-8338,77	1139,00
-8318,50	925,00
-8298,27	839,00
-8278,09	834,00
-8257,94	919,00
-8237,83	1130,00
-8217,76	1120,00
-8197,74	1112,00
-8177,75	1149,00
-8157,80	1234,00
-8137,89	1134,00
-8118,02	885,00
-8098,19	1079,00
-8078,40	1005,00
-8058,65	940,00
-8038,93	1014,00
-8019,26	944,00
-7999,62	989,00
-7980,02	1067,00
-7960,46	915,00
-7940,94	1013,00
-7921,46	964,00
-7902,01	807,00
-7882,60	1054,00
-7863,23	772,00
-7843,90	934,00
-7824,61	752,00
-7805,35	1168,00
-7786,13	1096,00
-7766,95	1006,00
-7747,80	1050,00
-7728,69	1108,00
-7709,62	1007,00
-7690,59	860,00
-7671,59	1082,00
-7652,63	882,00
-7633,70	1115,00
-7614,81	955,00
-7595,96	976,00
-7577,15	1040,00
-7558,37	800,00
-7539,62	1055,00
-7520,91	899,00
-7502,24	1060,00
-7483,60	949,00
-7465,00	896,00
-7446,44	924,00
-7427,91	920,00
-7409,41	866,00
-7390,95	771,00
-7372,53	601,00
-7354,14	731,00
-7335,78	685,00
-7317,46	840,00
-7299,18	826,00
-7280,92	942,00
-7262,71	877,00
-7244,52	893,00
-7226,38	784,00
-7208,26	995,00
-7190,18	836,00
-7172,14	946,00
-7154,12	882,00
-7136,15	958,00
-7118,20	943,00
-7100,29	935,00
-7082,41	991,00
-7064,57	889,00
-7046,76	799,00
-7028,98	831,00
-7011,24	855,00
-6993,53	650,00
-6975,85	568,00
-6958,20	621,00
-6940,59	672,00
-6923,01	742,00
-6905,46	734,00
-6887,94	725,00
-6870,46	854,00
-6853,01	901,00
-6835,59	780,00
-6818,21	930,00
-6800,85	831,00
-6783,53	652,00
-6766,24	672,00
-6748,98	433,00
-6731,76	592,00
-6714,56	566,00
-6697,40	475,00
-6680,26	618,00
-6663,16	743,00
-6646,09	722,00
-6629,05	806,00
-6612,05	816,00
-6595,07	850,00
-6578,13	754,00
-6561,21	798,00
-6544,33	708,00
-6527,47	625,00
-6510,65	505,00
-6493,86	524,00
-6477,10	600,00
-6460,36	613,00
-6443,66	513,00
-6426,99	661,00
-6410,35	610,00
-6393,74	591,00
-6377,16	514,00
-6360,61	614,00
-6344,09	693,00
-6327,59	622,00
-6311,13	715,00
-6294,70	706,00
-6278,29	806,00
-6261,92	647,00
-6245,58	729,00
-6229,26	794,00
-6212,97	814,00
-6196,72	763,00
-6180,49	641,00
-6164,29	499,00
-6148,12	620,00
-6131,98	525,00
-6115,86	557,00
-6099,78	348,00
-6083,72	479,00
-6067,69	453,00
-6051,69	532,00
-6035,72	488,00
-6019,78	694,00
-6003,87	661,00
-5987,98	648,00
-5972,12	681,00
-5956,29	638,00
-5940,49	680,00
-5924,71	710,00
-5908,96	601,00
-5893,24	606,00
-5877,55	607,00
-5861,89	561,00
-5846,25	377,00
-5830,64	572,00
-5815,05	455,00
-5799,50	597,00
-5783,97	727,00
-5768,47	581,00
-5752,99	804,00
-5737,55	638,00
-5722,12	535,00
-5706,73	652,00
-5691,36	822,00
-5676,02	679,00
-5660,71	689,00
-5645,42	621,00
-5630,16	633,00
-5614,92	645,00
-5599,71	574,00
-5584,53	711,00
-5569,37	605,00
-5554,24	937,00
-5539,14	680,00
-5524,06	618,00
-5509,01	561,00
-5493,98	664,00
-5478,98	554,00
-5464,00	681,00
-5449,05	369,00
-5434,13	643,00
-5419,23	644,00
-5404,36	573,00
-5389,51	655,00
-5374,69	745,00
-5359,89	579,00
-5345,12	754,00
-5330,37	798,00
-5315,65	779,00
-5300,95	712,00
-5286,28	612,00
-5271,63	628,00
-5257,01	517,00
-5242,41	626,00
-5227,84	712,00
-5213,29	526,00
-5198,76	612,00
-5184,26	560,00
-5169,79	701,00
-5155,33	605,00
-5140,91	653,00
-5126,51	641,00
-5112,13	599,00
-5097,77	755,00
-5083,44	691,00
-5069,13	599,00
-5054,85	587,00
-5040,59	559,00
-5026,36	702,00
-5012,15	716,00
-4997,96	583,00
-4983,80	697,00
-4969,66	600,00
-4955,54	627,00
-4941,44	596,00
-4927,37	653,00
-4913,33	843,00
-4899,30	684,00
-4885,30	627,00
-4871,33	761,00
-4857,37	514,00
-4843,44	497,00
-4829,53	614,00
-4815,65	634,00
-4801,79	553,00
-4787,95	569,00
-4774,13	529,00
-4760,34	808,00
-4746,56	493,00
-4732,82	623,00
-4719,09	666,00
-4705,38	587,00
-4691,70	746,00
-4678,04	711,00
-4664,41	745,00
-4650,79	641,00
-4637,20	705,00
-4623,63	534,00
-4610,08	660,00
-4596,56	639,00
-4583,05	611,00
-4569,57	670,00
-4556,11	675,00
-4542,67	617,00
-4529,25	695,00
-4515,86	622,00
-4502,49	599,00
-4489,13	775,00
-4475,80	675,00
-4462,49	673,00
-4449,21	842,00
-4435,94	656,00
-4422,70	725,00
-4409,47	623,00
-4396,27	690,00
-4383,09	726,00
-4369,93	716,00
-4356,79	639,00
-4343,67	669,00
-4330,58	726,00
-4317,50	709,00
-4304,45	613,00
-4291,41	648,00
-4278,40	667,00
-4265,41	643,00
-4252,44	763,00
-4239,49	698,00
-4226,55	794,00
-4213,65	691,00
-4200,76	561,00
-4187,89	538,00
-4175,04	585,00
-4162,21	608,00
-4149,40	632,00
-4136,61	594,00
-4123,85	713,00
-4111,10	596,00
-4098,37	687,00
-4085,66	736,00
-4072,98	677,00
-4060,31	727,00
-4047,66	754,00
-4035,04	832,00
-4022,43	726,00
-4009,84	758,00
-3997,27	727,00
-3984,72	572,00
-3972,19	629,00
-3959,69	560,00
-3947,20	648,00
-3934,73	702,00
-3922,27	669,00
-3909,84	684,00
-3897,43	632,00
-3885,04	762,00
-3872,67	637,00
-3860,31	669,00
-3847,98	800,00
-3835,66	658,00
-3823,36	710,00
-3811,09	632,00
-3798,83	659,00
-3786,59	772,00
-3774,37	846,00
-3762,17	679,00
-3749,98	672,00
-3737,82	633,00
-3725,67	662,00
-3713,55	627,00
-3701,44	760,00
-3689,35	667,00
-3677,28	780,00
-3665,22	629,00
-3653,19	646,00
-3641,17	542,00
-3629,18	724,00
-3617,20	755,00
-3605,24	726,00
-3593,30	695,00
-3581,37	746,00
-3569,47	707,00
-3557,58	710,00
-3545,71	732,00
-3533,86	672,00
-3522,02	628,00
-3510,21	749,00
-3498,41	637,00
-3486,63	629,00
-3474,87	635,00
-3463,12	622,00
-3451,40	689,00
-3439,69	586,00
-3428,00	697,00
-3416,33	738,00
-3404,67	504,00
-3393,03	710,00
-3381,41	696,00
-3369,81	601,00
-3358,22	601,00
-3346,66	782,00
-3335,10	766,00
-3323,57	707,00
-3312,06	792,00
-3300,56	717,00
-3289,08	674,00
-3277,61	708,00
-3266,16	640,00
-3254,73	752,00
-3243,32	582,00
-3231,92	763,00
-3220,55	737,00
-3209,18	716,00
-3197,84	591,00
-3186,51	720,00
-3175,20	683,00
-3163,90	632,00
-3152,63	739,00
-3141,36	658,00
-3130,12	754,00
-3118,89	561,00
-3107,68	791,00
-3096,49	664,00
-3085,31	689,00
-3074,15	645,00
-3063,00	744,00
-3051,87	693,00
-3040,76	571,00
-3029,67	757,00
-3018,59	814,00
-3007,52	685,00
-2996,48	839,00
-2985,44	591,00
-2974,43	772,00
-2963,43	762,00
-2952,45	615,00
-2941,48	739,00
-2930,53	728,00
-2919,60	752,00
-2908,68	657,00
-2897,78	688,00
-2886,89	654,00
-2876,02	711,00
-2865,17	722,00
-2854,33	635,00
-2843,50	703,00
-2832,70	842,00
-2821,90	608,00
-2811,13	657,00
-2800,37	616,00
-2789,62	771,00
-2778,89	574,00
-2768,18	639,00
-2757,48	741,00
-2746,80	780,00
-2736,13	669,00
-2725,48	735,00
-2714,84	659,00
-2704,22	744,00
-2693,61	706,00
-2683,02	724,00
-2672,45	671,00
-2661,89	543,00
-2651,34	760,00
-2640,81	639,00
-2630,30	770,00
-2619,80	555,00
-2609,31	837,00
-2598,84	655,00
-2588,39	701,00
-2577,95	662,00
-2567,52	705,00
-2557,11	707,00
-2546,71	689,00
-2536,33	759,00
-2525,97	667,00
-2515,62	716,00
-2505,28	700,00
-2494,96	701,00
-2484,65	741,00
-2474,36	870,00
-2464,08	679,00
-2453,82	791,00
-2443,57	582,00
-2433,33	584,00
-2423,11	738,00
-2412,91	783,00
-2402,72	552,00
-2392,54	705,00
-2382,38	631,00
-2372,23	634,00
-2362,09	1256,00
-2351,97	714,00
-2341,87	631,00
-2331,78	737,00
-2321,70	724,00
-2311,64	639,00
-2301,59	664,00
-2291,55	630,00
-2281,53	659,00
-2271,53	662,00
-2261,53	713,00
-2251,55	791,00
-2241,59	639,00
-2231,64	755,00
-2221,70	671,00
-2211,78	733,00
-2201,87	705,00
-2191,97	734,00
-2182,09	686,00
-2172,22	721,00
-2162,37	650,00
-2152,53	536,00
-2142,70	624,00
-2132,89	664,00
-2123,09	699,00
-2113,30	625,00
-2103,53	636,00
-2093,77	669,00
-2084,02	555,00
-2074,29	775,00
-2064,57	737,00
-2054,86	752,00
-2045,17	734,00
-2035,49	642,00
-2025,82	631,00
-2016,17	637,00
-2006,53	743,00
-1996,91	653,00
-1987,29	713,00
-1977,69	636,00
-1968,11	565,00
-1958,53	690,00
-1948,97	602,00
-1939,42	689,00
-1929,89	625,00
-1920,37	639,00
-1910,86	770,00
-1901,36	780,00
-1891,88	674,00
-1882,41	708,00
-1872,95	654,00
-1863,51	711,00
-1854,08	706,00
-1844,66	817,00
-1835,26	733,00
-1825,86	727,00
-1816,48	667,00
-1807,11	753,00
-1797,76	742,00
-1788,42	769,00
-1779,09	782,00
-1769,77	672,00
-1760,47	836,00
-1751,17	629,00
-1741,89	593,00
-1732,63	730,00
-1723,37	734,00
-1714,13	720,00
-1704,90	606,00
-1695,68	812,00
-1686,48	523,00
-1677,29	771,00
-1668,11	899,00
-1658,94	817,00
-1649,78	709,00
-1640,64	642,00
-1631,51	801,00
-1622,39	731,00
-1613,28	659,00
-1604,19	737,00
-1595,10	678,00
-1586,03	680,00
-1576,97	682,00
-1567,93	610,00
-1558,89	720,00
-1549,87	736,00
-1540,86	653,00
-1531,86	723,00
-1522,87	683,00
-1513,90	808,00
-1504,93	670,00
-1495,98	621,00
-1487,04	634,00
-1478,12	613,00
-1469,20	602,00
-1460,30	753,00
-1451,40	794,00
-1442,52	667,00
-1433,65	647,00
-1424,80	544,00
-1415,95	688,00
-1407,12	723,00
-1398,30	647,00
-1389,48	642,00
-1380,69	776,00
-1371,90	667,00
-1363,12	689,00
-1354,36	761,00
-1345,60	676,00
-1336,86	716,00
-1328,13	876,00
-1319,41	705,00
-1310,70	585,00
-1302,01	810,00
-1293,32	703,00
-1284,65	795,00
-1275,99	738,00
-1267,33	743,00
-1258,69	672,00
-1250,06	725,00
-1241,45	615,00
-1232,84	783,00
-1224,25	717,00
-1215,66	796,00
-1207,09	719,00
-1198,53	738,00
-1189,97	661,00
-1181,43	555,00
-1172,91	728,00
-1164,39	849,00
-1155,88	563,00
-1147,38	644,00
-1138,90	718,00
-1130,43	593,00
-1121,96	816,00
-1113,51	639,00
-1105,07	597,00
-1096,64	741,00
-1088,22	688,00
-1079,81	687,00
-1071,41	732,00
-1063,02	725,00
-1054,65	699,00
-1046,28	748,00
-1037,92	862,00
-1029,58	714,00
-1021,24	667,00
-1012,92	871,00
-1004,61	688,00
-996,30	732,00
-988,01	604,00
-979,73	573,00
-971,46	698,00
-963,20	674,00
-954,95	726,00
-946,71	548,00
-938,48	720,00
-930,26	762,00
-922,06	706,00
-913,86	681,00
-905,67	661,00
-897,49	712,00
-889,33	701,00
-881,17	713,00
-873,02	604,00
-864,89	713,00
-856,76	669,00
-848,65	630,00
-840,54	767,00
-832,45	776,00
-824,36	647,00
-816,29	616,00
-808,22	723,00
-800,17	771,00
-792,12	763,00
-784,09	689,00
-776,06	798,00
-768,05	757,00
-760,04	636,00
-752,05	680,00
-744,07	685,00
-736,09	774,00
-728,13	577,00
-720,17	563,00
-712,23	612,00
-704,29	761,00
-696,37	653,00
-688,45	678,00
-680,55	744,00
-672,65	575,00
-664,77	686,00
-656,89	676,00
-649,03	695,00
-641,17	706,00
-633,32	687,00
-625,49	739,00
-617,66	601,00
-609,84	813,00
-602,03	680,00
-594,23	548,00
-586,45	725,00
-578,67	642,00
-570,90	616,00
-563,14	710,00
-555,39	711,00
-547,65	696,00
-539,91	697,00
-532,19	707,00
-524,48	794,00
-516,78	658,00
-509,08	618,00
-501,40	561,00
-493,72	771,00
-486,06	719,00
-478,40	708,00
-470,76	632,00
-463,12	557,00
-455,49	766,00
-447,87	681,00
-440,26	718,00
-432,66	730,00
-425,07	816,00
-417,49	769,00
-409,92	576,00
-402,35	680,00
-394,80	661,00
-387,25	655,00
-379,72	687,00
-372,19	768,00
-364,67	750,00
-357,17	762,00
-349,67	685,00
-342,18	742,00
-334,69	751,00
-327,22	676,00
-319,76	752,00
-312,30	854,00
-304,86	759,00
-297,42	686,00
-290,00	722,00
-282,58	740,00
-275,17	914,00
-267,77	759,00
-260,37	733,00
-252,99	776,00
-245,62	774,00
-238,25	793,00
-230,90	807,00
-223,55	780,00
-216,21	846,00
-208,88	1017,00
-201,56	912,00
-194,25	922,00
-186,94	1047,00
-179,65	1031,00
-172,36	980,00
-165,08	979,00
-157,81	1107,00
-150,55	1132,00
-143,30	1240,00
-136,06	1156,00
-128,82	1359,00
-121,60	1376,00
-114,38	1494,00
-107,17	1580,00
-99,97	1745,00
-92,78	1863,00
-85,60	2024,00
-78,42	2353,00
-71,25	2505,00
-64,10	2819,00
-56,95	3172,00
-49,81	3571,00
-42,67	4343,00
-35,55	5263,00
-28,43	6811,00
-21,33	10755,00
-14,23	31846,00
-7,14	56670,00
-0,05	56467,00
7,02	56225,00
14,09	56403,00
21,14	33582,00
28,19	14216,00
35,23	9022,00
42,27	6990,00
49,29	5758,00
56,31	4940,00
63,32	4082,00
70,32	3646,00
77,31	3168,00
84,29	2787,00
91,27	2461,00
98,23	2574,00
105,19	2154,00
112,14	2337,00
119,09	2954,00
126,02	3945,00
132,95	4387,00
139,87	4432,00
146,78	4249,00
153,68	4103,00
160,58	3895,00
167,46	3797,00
174,34	3850,00
181,21	3770,00
188,08	3898,00
194,93	3895,00
201,78	3822,00
208,62	3930,00
215,45	3783,00
222,27	3939,00
229,09	3886,00
235,90	3607,00
242,70	3735,00
249,49	3674,00
256,27	3710,00
263,05	3648,00
269,82	3373,00
276,58	3685,00
283,33	3479,00
290,08	3532,00
296,82	3522,00
303,55	3388,00
310,27	3438,00
316,98	3394,00
323,69	3455,00
330,39	3206,00
337,08	3318,00
343,76	3405,00
350,44	3259,00
357,11	3275,00
363,77	3278,00
370,42	3138,00
377,07	3231,00
383,71	3148,00
390,34	3120,00
396,96	3138,00
403,58	3339,00
410,19	3213,00
416,79	3334,00
423,38	3327,00
429,97	3324,00
436,55	2950,00
443,12	3150,00
449,68	2920,00
456,24	3056,00
462,79	3022,00
469,33	2932,00
475,86	2819,00
482,39	2816,00
488,91	3010,00
495,42	2844,00
501,93	2795,00
508,42	2829,00
514,91	2880,00
521,40	2777,00
527,87	2829,00
534,34	2749,00
540,80	2811,00
547,25	2839,00
553,70	2793,00
560,14	2788,00
566,57	2787,00
573,00	2666,00
579,41	2757,00
585,83	2737,00
592,23	2742,00
598,62	2740,00
605,01	2648,00
611,40	2693,00
617,77	2808,00
624,14	2702,00
630,50	2761,00
636,85	2707,00
643,20	2727,00
649,54	2739,00
655,87	2580,00
662,20	2644,00
668,52	2666,00
674,83	2632,00
681,13	2660,00
687,43	2588,00
693,72	2549,00
700,00	2587,00
706,28	2663,00
712,55	2595,00
718,81	2630,00
725,07	2603,00
731,32	2567,00
737,56	2570,00
743,79	2623,00
750,02	2660,00
756,24	2601,00
762,46	2643,00
768,67	2767,00
774,87	2645,00
781,06	2658,00
787,25	2656,00
793,43	2533,00
799,60	2590,00
805,77	2717,00
811,93	2728,00
818,08	2508,00
824,23	2623,00
830,37	2744,00
836,50	2750,00
842,63	2642,00
848,75	2768,00
854,87	2677,00
860,97	2605,00
867,07	2687,00
873,17	2833,00
879,25	2588,00
885,33	2645,00
891,41	2722,00
897,47	2564,00
903,53	2545,00
909,59	2651,00
915,63	2640,00
921,67	2532,00
927,71	2549,00
933,74	2548,00
939,76	2375,00
945,77	2481,00
951,78	2515,00
957,78	2379,00
963,78	2496,00
969,77	2449,00
975,75	2414,00
981,72	2513,00
987,69	3448,00
993,66	2386,00
999,61	2350,00
1005,56	2427,00
1011,51	2475,00
1017,44	2461,00
1023,37	2532,00
1029,30	2474,00
1035,22	2599,00
1041,13	2437,00
1047,03	2563,00
1052,93	2880,00
1058,83	3065,00
1064,71	3361,00
1070,59	3150,00
1076,47	2913,00
1082,33	2655,00
1088,20	2723,00
1094,05	2664,00
1099,90	2518,00
1105,74	2530,00
1111,58	2581,00
1117,41	2609,00
1123,23	3022,00
1129,05	3056,00
1134,86	3112,00
1140,67	2691,00
1146,47	2616,00
1152,26	2561,00
1158,05	2395,00
1163,83	2451,00
1169,60	2390,00
1175,37	2468,00
1181,13	2412,00
1186,89	2335,00
1192,64	2428,00
1198,38	2487,00
1204,12	2423,00
1209,85	2357,00
1215,58	2474,00
1221,30	2481,00
1227,02	2382,00
1232,72	2486,00
1238,43	2463,00
1244,12	2420,00
1249,81	2300,00
1255,50	2481,00
1261,17	2403,00
1266,85	2416,00
1272,51	2486,00
1278,17	2545,00
1283,83	2710,00
1289,47	3050,00
1295,12	3633,00
1300,75	3588,00
1306,38	3074,00
1312,01	2865,00
1317,63	2781,00
1323,24	2591,00
1328,85	2664,00
1334,45	2484,00
1340,04	2455,00
1345,63	2568,00
1351,22	2623,00
1356,80	2650,00
1362,37	2757,00
1367,93	2631,00
1373,49	2691,00
1379,05	2587,00
1384,60	2637,00
1390,14	2563,00
1395,68	2646,00
1401,21	2677,00
1406,74	2746,00
1412,26	2728,00
1417,77	2958,00
1423,28	3039,00
1428,78	3295,00
1434,28	3605,00
1439,77	3806,00
1445,26	3824,00
1450,74	3693,00
1456,22	3564,00
1461,68	3404,00
1467,15	3303,00
1472,61	3049,00
1478,06	3041,00
1483,51	2791,00
1488,95	2428,00
1494,38	2484,00
1499,81	2371,00
1505,24	2384,00
1510,65	2408,00
1516,07	2347,00
1521,48	2343,00
1526,88	2219,00
1532,27	2187,00
1537,67	2238,00
1543,05	2393,00
1548,43	2189,00
1553,81	2371,00
1559,18	2173,00
1564,54	2320,00
1569,90	2258,00
1575,25	2149,00
1580,60	2238,00
1585,94	2220,00
1591,28	2216,00
1596,61	2113,00
1601,93	2275,00
1607,25	2286,00
1612,57	2238,00
1617,88	2105,00
1623,18	2206,00
1628,48	2237,00
1633,77	2245,00
1639,06	2171,00
1644,34	2054,00
1649,62	2069,00
1654,89	2124,00
1660,16	2053,00
1665,42	2129,00
1670,67	2067,00
1675,92	2040,00
1681,17	2123,00
1686,41	2063,00
1691,64	2027,00
1696,87	1998,00
1702,10	1980,00
1707,32	1978,00
1712,53	2019,00
1717,74	1942,00
1722,94	2010,00
1728,14	2034,00
1733,33	1947,00
1738,52	1784,00
1743,70	2051,00
1748,88	1935,00
1754,05	1946,00
1759,22	1880,00
1764,38	2026,00
1769,53	1889,00
1774,69	1968,00
1779,83	1959,00
1784,97	1883,00
1790,11	1985,00
1795,24	1785,00
1800,36	1882,00
1805,48	1806,00
1810,60	1761,00
1815,71	1820,00
1820,82	1762,00
1825,92	1901,00
1831,01	1862,00
1836,10	1760,00
1841,19	1887,00
1846,26	1759,00
1851,34	1846,00
1856,41	1827,00
1861,47	1832,00
1866,53	1913,00
1871,59	1810,00
1876,64	1776,00
1881,68	1754,00
1886,72	1850,00
1891,76	1702,00
1896,79	1737,00
1901,81	1758,00
1906,83	1897,00
1911,85	1734,00
1916,86	1666,00
1921,86	1682,00
1926,86	1776,00
1931,86	1748,00
1936,85	1641,00
1941,83	1708,00
1946,81	1672,00
1951,79	1702,00
1956,76	1612,00
1961,72	1595,00
1966,68	1632,00
1971,64	1614,00
1976,59	1616,00
1981,54	1467,00
1986,48	1500,00
1991,42	1533,00
1996,35	1698,00
2001,27	1571,00
2006,20	1718,00
2011,11	1561,00
2016,03	1524,00
2020,93	1527,00
2025,84	1737,00
2030,73	1728,00
2035,63	1514,00
2040,52	1659,00
2045,40	1473,00
2050,28	1529,00
2055,15	1476,00
2060,02	1400,00
2064,89	1566,00
2069,75	1591,00
2074,60	1539,00
2079,46	1489,00
2084,30	1586,00
2089,14	1511,00
2093,98	1603,00
2098,81	1633,00
2103,64	1427,00
2108,46	1582,00
2113,28	1625,00
2118,09	1499,00
2122,90	1517,00
2127,70	1440,00
2132,50	1596,00
2137,30	1489,00
2142,09	1509,00
2146,87	1511,00
2151,66	1451,00
2156,43	1413,00
2161,20	1530,00
2165,97	1457,00
2170,73	1471,00
2175,49	1563,00
2180,24	1727,00
2184,99	1673,00
2189,74	1575,00
2194,48	1553,00
2199,21	1646,00
2203,94	1374,00
2208,67	1440,00
2213,39	1381,00
2218,11	1473,00
2222,82	1486,00
2227,53	1354,00
2232,23	1337,00
2236,93	1472,00
2241,63	1371,00
2246,32	1356,00
2251,00	1249,00
2255,68	1392,00
2260,36	1385,00
2265,03	1374,00
2269,70	1426,00
2274,36	1342,00
2279,02	1424,00
2283,68	1429,00
2288,33	1314,00
2292,97	1451,00
2297,61	1271,00
2302,25	1381,00
2306,88	1376,00
2311,51	1352,00
2316,14	1328,00
2320,75	1316,00
2325,37	1314,00
2329,98	1391,00
2334,59	1152,00
2339,19	1296,00
2343,79	1212,00
2348,38	1219,00
2352,97	1219,00
2357,55	1335,00
2362,13	1285,00
2366,71	1261,00
2371,28	1330,00
2375,85	1422,00
2380,41	1295,00
2384,97	1242,00
2389,52	1222,00
2394,07	1415,00
2398,62	1277,00
2403,16	1245,00
2407,70	1205,00
2412,23	1305,00
2416,76	1405,00
2421,29	1259,00
2425,81	1304,00
2430,32	1215,00
2434,84	1233,00
2439,34	1276,00
2443,85	1123,00
2448,35	1195,00
2452,84	1310,00
2457,33	1225,00
2461,82	1149,00
2466,30	1127,00
2470,78	1133,00
2475,25	1170,00
2479,72	1096,00
2484,19	1273,00
2488,65	1230,00
2493,11	1052,00
2497,56	1159,00
2502,01	1032,00
2506,46	1173,00
2510,90	1235,00
2515,34	1185,00
2519,77	1179,00
2524,20	1188,00
2528,62	1254,00
2533,04	1165,00
2537,46	1081,00
2541,87	1043,00
2546,28	1197,00
2550,68	1105,00
2555,08	1140,00
2559,48	1148,00
2563,87	1098,00
2568,26	1127,00
2572,64	1176,00
2577,02	1274,00
2581,40	959,00
2585,77	1046,00
2590,14	1034,00
2594,50	1044,00
2598,86	1093,00
2603,22	1162,00
2607,57	1166,00
2611,92	1163,00
2616,26	972,00
2620,60	1135,00
2624,94	1104,00
2629,27	1176,00
2633,60	1022,00
2637,92	1129,00
2642,24	1262,00
2646,56	1024,00
2650,87	1084,00
2655,18	1214,00
2659,48	1038,00
2663,78	994,00
2668,08	1090,00
2672,37	1033,00
2676,66	1189,00
2680,95	1142,00
2685,23	1104,00
2689,50	1160,00
2693,78	1037,00
2698,05	1159,00
2702,31	1079,00
2706,57	1195,00
2710,83	1292,00
2715,08	1303,00
2719,33	1377,00
2723,58	1261,00
2727,82	1214,00
2732,06	1150,00
2736,29	1190,00
2740,53	1223,00
2744,75	1125,00
2748,97	1215,00
2753,19	1128,00
2757,41	1034,00
2761,62	1255,00
2765,83	1129,00
2770,03	1104,00
2774,23	1214,00
2778,43	1058,00
2782,62	1088,00
2786,81	1114,00
2791,00	1183,00
2795,18	1235,00
2799,35	1228,00
2803,53	1248,00
2807,70	1297,00
2811,86	1240,00
2816,03	1328,00
2820,19	1343,00
2824,34	1346,00
2828,49	1526,00
2832,64	1798,00
2836,78	1802,00
2840,92	1978,00
2845,06	2292,00
2849,19	2528,00
2853,32	2672,00
2857,45	2720,00
2861,57	2591,00
2865,69	2622,00
2869,80	2442,00
2873,91	2603,00
2878,02	2746,00
2882,12	2854,00
2886,22	2707,00
2890,32	2782,00
2894,41	2562,00
2898,50	2425,00
2902,58	2435,00
2906,67	2311,00
2910,74	2198,00
2914,82	2106,00
2918,89	2027,00
2922,96	1943,00
2927,02	1933,00
2931,08	1793,00
2935,13	1590,00
2939,19	1670,00
2943,24	1670,00
2947,28	1536,00
2951,32	1417,00
2955,36	1311,00
2959,40	1295,00
2963,43	1370,00
2967,46	1148,00
2971,48	1132,00
2975,50	1171,00
2979,52	1135,00
2983,53	1175,00
2987,54	973,00
2991,55	1055,00
2995,55	1102,00
2999,55	919,00
3003,54	909,00
3007,54	1065,00
3011,53	937,00
3015,51	972,00
3019,49	847,00
3023,47	938,00
3027,45	972,00
3031,42	806,00
3035,39	938,00
3039,35	965,00
3043,31	896,00
3047,27	888,00
3051,22	953,00
3055,17	919,00
3059,12	785,00
3063,06	837,00
3067,00	814,00
3070,94	787,00
3074,87	791,00
3078,80	964,00
3082,73	842,00
3086,65	821,00
3090,57	795,00
3094,49	844,00
3098,40	894,00
3102,31	752,00
3106,22	757,00
3110,12	825,00
3114,02	870,00
3117,92	1003,00
3121,81	828,00
3125,70	760,00
3129,58	755,00
3133,47	714,00
3137,34	830,00
3141,22	821,00
3145,09	874,00
3148,96	770,00
3152,83	776,00
3156,69	983,00
3160,55	828,00
3164,40	867,00
3168,26	761,00
3172,10	959,00
3175,95	802,00
3179,79	790,00
3183,63	880,00
3187,47	832,00
3191,30	950,00
3195,13	876,00
3198,95	787,00
3202,78	754,00
3206,60	823,00
3210,41	796,00
3214,23	778,00
3218,03	711,00
3221,84	733,00
3225,64	872,00
3229,44	786,00
3233,24	667,00
3237,03	835,00
3240,82	798,00
3244,61	673,00
3248,39	693,00
3252,17	766,00
3255,95	998,00
3259,72	845,00
3263,49	807,00
3267,26	825,00
3271,03	807,00
3274,79	672,00
3278,54	830,00
3282,30	756,00
3286,05	819,00
3289,80	839,00
3293,54	688,00
3297,29	803,00
3301,02	734,00
3304,76	839,00
3308,49	795,00
3312,22	786,00
3315,95	750,00
3319,67	802,00
3323,39	724,00
3327,10	778,00
3330,82	806,00
3334,53	765,00
3338,24	780,00
3341,94	821,00
3345,64	720,00
3349,34	780,00
3353,03	747,00
3356,72	837,00
3360,41	804,00
3364,10	796,00
3367,78	718,00
3371,46	722,00
3375,13	765,00
3378,81	846,00
3382,48	719,00
3386,14	819,00
3389,81	730,00
3393,47	830,00
3397,12	816,00
3400,78	753,00
3404,43	735,00
3408,08	833,00
3411,72	713,00
3415,36	742,00
3419,00	832,00
3422,64	735,00
3426,27	651,00
3429,90	798,00
3433,53	756,00
3437,15	697,00
3440,77	650,00
3444,39	809,00
3448,00	799,00
3451,62	691,00
3455,22	702,00
3458,83	771,00
3462,43	690,00
3466,03	711,00
3469,63	679,00
3473,22	735,00
3476,81	795,00
3480,40	619,00
3483,99	607,00
3487,57	830,00
3491,15	748,00
3494,72	639,00
3498,29	598,00
3501,86	742,00
3505,43	776,00
3508,99	651,00
3512,56	707,00
3516,11	784,00
3519,67	687,00
3523,22	774,00
3526,77	610,00
3530,32	624,00
3533,86	690,00
3537,40	659,00
3540,94	667,00
3544,47	632,00
3548,00	697,00
3551,53	681,00
3555,06	683,00
3558,58	767,00
3562,10	669,00
3565,62	672,00
3569,13	819,00
3572,64	653,00
3576,15	663,00
3579,66	759,00
3583,16	636,00
3586,66	704,00
3590,16	632,00
3593,65	570,00
3597,14	601,00
3600,63	559,00
3604,11	675,00
3607,60	645,00
3611,08	614,00
3614,55	629,00
3618,03	590,00
3621,50	647,00
3624,97	673,00
3628,43	734,00
3631,90	660,00
3635,36	587,00
3638,81	571,00
3642,27	718,00
3645,72	617,00
3649,17	605,00
3652,61	644,00
3656,06	484,00
3659,50	583,00
3662,93	627,00
3666,37	695,00
3669,80	576,00
3673,23	630,00
3676,65	714,00
3680,08	702,00
3683,50	582,00
3686,92	679,00
3690,33	515,00
3693,74	631,00
3697,15	525,00
3700,56	632,00
3703,96	630,00
3707,36	601,00
3710,76	526,00
3714,16	499,00
3717,55	564,00
3720,94	685,00
3724,33	541,00
3727,71	675,00
3731,10	567,00
3734,48	581,00
3737,85	577,00
3741,23	608,00
3744,60	632,00
3747,97	509,00
3751,33	550,00
3754,69	508,00
3758,05	691,00
3761,41	574,00
3764,77	570,00
3768,12	510,00
3771,47	519,00
3774,82	528,00
3778,16	-4,00
3781,50	12,00
3784,84	11,00
3788,18	11,00
>>>>>End Processed Spectral Data<<<<<
