SpectraSuite Data File
++++++++++++++++++++++++++++++++++++
Date: Wed Feb 04 16:16:12 ICT 2026
User: Administrator
Dark Spectrum Present: Yes
Reference Spectrum Present: No
Number of Sampled Component Spectra: 1
Spectrometers: MAYP113682
Integration Time (usec): 3000000 (MAYP113682)
Spectra Averaged: 1 (MAYP113682)
Boxcar Smoothing: 0 (MAYP113682)
Correct for Electrical Dark: No (MAYP113682)
Strobe/Lamp Enabled: No (MAYP113682)
Correct for Detector Non-linearity: No (MAYP113682)
Correct for Stray Light: No (MAYP113682)
Number of Pixels in Processed Spectrum: 2068
>>>>>Begin Processed Spectral Data<<<<<
-37534,58	-1,00
-37414,56	-3,00
-37295,11	-6,00
-37176,24	-2,00
-37057,95	161,00
-36940,22	162,00
-36823,05	64,00
-36706,45	-2,00
-36590,40	62,00
-36474,90	47,00
-36359,95	42,00
-36245,55	68,00
-36131,68	115,00
-36018,35	183,00
-35905,55	30,00
-35793,29	208,00
-35681,54	105,00
-35570,32	135,00
-35459,62	34,00
-35349,43	25,00
-35239,75	83,00
-35130,58	51,00
-35021,91	143,00
-34913,74	55,00
-34806,07	20,00
-34698,89	90,00
-34592,20	71,00
-34486,00	54,00
-34380,28	95,00
-34275,04	157,00
-34170,27	133,00
-34065,98	43,00
-33962,16	84,00
-33858,81	28,00
-33755,92	147,00
-33653,49	16,00
-33551,52	20,00
-33450,01	187,00
-33348,94	14,00
-33248,33	27,00
-33148,16	95,00
-33048,43	114,00
-32949,14	163,00
-32850,29	127,00
-32751,87	157,00
-32653,89	32,00
-32556,33	69,00
-32459,20	-110,00
-32362,49	-3,00
-32266,19	92,00
-32170,32	145,00
-32074,86	94,00
-31979,82	191,00
-31885,18	3,00
-31790,95	197,00
-31697,12	49,00
-31603,69	44,00
-31510,67	137,00
-31418,04	165,00
-31325,80	109,00
-31233,95	140,00
-31142,49	-12,00
-31051,42	145,00
-30960,73	9,00
-30870,43	78,00
-30780,50	39,00
-30690,95	37,00
-30601,77	238,00
-30512,97	61,00
-30424,53	74,00
-30336,46	75,00
-30248,76	19,00
-30161,42	59,00
-30074,44	176,00
-29987,81	146,00
-29901,55	54,00
-29815,63	151,00
-29730,07	22,00
-29644,86	154,00
-29560,00	18,00
-29475,48	70,00
-29391,30	132,00
-29307,47	99,00
-29223,97	30,00
-29140,81	101,00
-29057,99	30,00
-28975,50	169,00
-28893,34	65,00
-28811,51	17,00
-28730,00	-64,00
-28648,82	134,00
-28567,97	65,00
-28487,43	140,00
-28407,21	32,00
-28327,32	-48,00
-28247,73	172,00
-28168,46	43,00
-28089,50	198,00
-28010,85	43,00
-27932,51	157,00
-27854,48	142,00
-27776,75	-7,00
-27699,32	100,00
-27622,19	53,00
-27545,37	124,00
-27468,84	63,00
-27392,60	136,00
-27316,66	161,00
-27241,01	89,00
-27165,66	33,00
-27090,59	125,00
-27015,81	134,00
-26941,31	74,00
-26867,10	84,00
-26793,17	156,00
-26719,52	122,00
-26646,15	223,00
-26573,06	228,00
-26500,24	65,00
-26427,70	241,00
-26355,43	30,00
-26283,43	139,00
-26211,71	152,00
-26140,25	-35,00
-26069,06	163,00
-25998,13	85,00
-25927,46	47,00
-25857,06	160,00
-25786,92	104,00
-25717,04	219,00
-25647,42	52,00
-25578,05	99,00
-25508,94	68,00
-25440,09	121,00
-25371,48	211,00
-25303,13	70,00
-25235,02	92,00
-25167,17	106,00
-25099,56	31,00
-25032,19	107,00
-24965,07	93,00
-24898,20	117,00
-24831,56	183,00
-24765,17	191,00
-24699,01	20,00
-24633,10	30,00
-24567,41	107,00
-24501,97	-56,00
-24436,75	33,00
-24371,77	59,00
-24307,03	-40,00
-24242,51	132,00
-24178,22	-52,00
-24114,16	59,00
-24050,32	235,00
-23986,71	152,00
-23923,32	4,00
-23860,16	98,00
-23797,22	114,00
-23734,50	153,00
-23672,00	-59,00
-23609,71	186,00
-23547,65	112,00
-23485,80	139,00
-23424,16	114,00
-23362,74	-22,00
-23301,53	53,00
-23240,54	190,00
-23179,75	89,00
-23119,17	57,00
-23058,80	70,00
-22998,64	34,00
-22938,68	45,00
-22878,93	46,00
-22819,39	144,00
-22760,04	166,00
-22700,90	57,00
-22641,96	89,00
-22583,22	224,00
-22524,68	117,00
-22466,33	78,00
-22408,19	85,00
-22350,23	20,00
-22292,48	111,00
-22234,92	-27,00
-22177,55	94,00
-22120,37	160,00
-22063,38	129,00
-22006,58	-48,00
-21949,98	125,00
-21893,56	56,00
-21837,33	83,00
-21781,28	79,00
-21725,42	165,00
-21669,74	56,00
-21614,25	-12,00
-21558,94	61,00
-21503,81	103,00
-21448,86	86,00
-21394,10	108,00
-21339,51	133,00
-21285,10	78,00
-21230,86	101,00
-21176,81	132,00
-21122,93	83,00
-21069,22	169,00
-21015,69	147,00
-20962,33	3,00
-20909,14	99,00
-20856,13	-64,00
-20803,28	161,00
-20750,61	-11,00
-20698,10	-1,00
-20645,76	9,00
-20593,59	128,00
-20541,59	71,00
-20489,75	147,00
-20438,07	-63,00
-20386,56	147,00
-20335,22	91,00
-20284,03	164,00
-20233,01	78,00
-20182,15	18,00
-20131,45	83,00
-20080,91	185,00
-20030,52	114,00
-19980,30	135,00
-19930,23	120,00
-19880,32	70,00
-19830,56	41,00
-19780,96	-52,00
-19731,52	71,00
-19682,23	186,00
-19633,09	99,00
-19584,10	1,00
-19535,26	204,00
-19486,58	161,00
-19438,04	136,00
-19389,66	99,00
-19341,42	70,00
-19293,33	8,00
-19245,39	100,00
-19197,60	150,00
-19149,95	289,00
-19102,45	20,00
-19055,09	63,00
-19007,87	-35,00
-18960,80	96,00
-18913,87	42,00
-18867,09	170,00
-18820,44	235,00
-18773,94	141,00
-18727,57	10,00
-18681,35	163,00
-18635,26	193,00
-18589,31	27,00
-18543,50	84,00
-18497,83	62,00
-18452,29	-30,00
-18406,89	57,00
-18361,63	252,00
-18316,50	41,00
-18271,50	105,00
-18226,63	64,00
-18181,90	9,00
-18137,30	106,00
-18092,84	136,00
-18048,50	100,00
-18004,29	65,00
-17960,22	74,00
-17916,27	157,00
-17872,45	152,00
-17828,76	72,00
-17785,20	33,00
-17741,77	136,00
-17698,46	146,00
-17655,28	4,00
-17612,22	141,00
-17569,29	128,00
-17526,48	197,00
-17483,79	70,00
-17441,23	101,00
-17398,79	139,00
-17356,48	127,00
-17314,28	101,00
-17272,21	160,00
-17230,26	14,00
-17188,42	137,00
-17146,71	74,00
-17105,12	41,00
-17063,64	0,00
-17022,28	116,00
-16981,04	188,00
-16939,92	91,00
-16898,91	11,00
-16858,02	81,00
-16817,25	148,00
-16776,59	86,00
-16736,04	157,00
-16695,61	142,00
-16655,29	37,00
-16615,09	162,00
-16574,99	119,00
-16535,01	172,00
-16495,15	143,00
-16455,39	26,00
-16415,74	151,00
-16376,21	118,00
-16336,78	114,00
-16297,46	44,00
-16258,26	177,00
-16219,16	145,00
-16180,17	163,00
-16141,28	206,00
-16102,51	154,00
-16063,84	54,00
-16025,27	48,00
-15986,82	90,00
-15948,46	58,00
-15910,22	257,00
-15872,07	105,00
-15834,04	5,00
-15796,10	156,00
-15758,27	-27,00
-15720,54	47,00
-15682,91	114,00
-15645,39	179,00
-15607,97	143,00
-15570,64	124,00
-15533,42	53,00
-15496,30	59,00
-15459,28	145,00
-15422,36	133,00
-15385,54	63,00
-15348,82	108,00
-15312,19	160,00
-15275,66	13,00
-15239,23	132,00
-15202,90	112,00
-15166,67	83,00
-15130,53	128,00
-15094,48	193,00
-15058,54	15,00
-15022,68	-4,00
-14986,93	128,00
-14951,26	105,00
-14915,69	36,00
-14880,22	30,00
-14844,84	78,00
-14809,55	52,00
-14774,35	183,00
-14739,25	134,00
-14704,24	23,00
-14669,32	158,00
-14634,49	88,00
-14599,75	158,00
-14565,10	-6,00
-14530,55	83,00
-14496,08	156,00
-14461,70	90,00
-14427,41	15,00
-14393,21	84,00
-14359,10	74,00
-14325,07	102,00
-14291,14	79,00
-14257,29	112,00
-14223,52	78,00
-14189,85	126,00
-14156,26	107,00
-14122,76	256,00
-14089,34	119,00
-14056,01	93,00
-14022,76	-15,00
-13989,60	47,00
-13956,52	10,00
-13923,53	82,00
-13890,62	167,00
-13857,79	52,00
-13825,05	95,00
-13792,39	64,00
-13759,81	64,00
-13727,31	75,00
-13694,90	124,00
-13662,57	123,00
-13630,31	51,00
-13598,14	166,00
-13566,05	74,00
-13534,05	139,00
-13502,12	-24,00
-13470,27	122,00
-13438,50	87,00
-13406,80	66,00
-13375,19	75,00
-13343,66	35,00
-13312,20	-24,00
-13280,83	152,00
-13249,53	35,00
-13218,30	45,00
-13187,16	170,00
-13156,09	37,00
-13125,10	78,00
-13094,18	214,00
-13063,34	110,00
-13032,58	103,00
-13001,89	145,00
-12971,28	162,00
-12940,74	149,00
-12910,27	108,00
-12879,88	92,00
-12849,57	35,00
-12819,33	35,00
-12789,16	156,00
-12759,06	23,00
-12729,04	223,00
-12699,09	1110,00
-12669,21	112,00
-12639,41	92,00
-12609,68	89,00
-12580,02	-11,00
-12550,43	58,00
-12520,91	68,00
-12491,46	92,00
-12462,08	140,00
-12432,77	54,00
-12403,54	87,00
-12374,37	175,00
-12345,27	10,00
-12316,24	239,00
-12287,29	158,00
-12258,40	128,00
-12229,57	39,00
-12200,82	48,00
-12172,14	-82,00
-12143,52	15,00
-12114,97	160,00
-12086,49	149,00
-12058,07	97,00
-12029,73	75,00
-12001,44	205,00
-11973,23	-3,00
-11945,08	181,00
-11917,00	126,00
-11888,98	66,00
-11861,03	86,00
-11833,15	26,00
-11805,32	195,00
-11777,57	22,00
-11749,88	169,00
-11722,25	37,00
-11694,69	61,00
-11667,19	105,00
-11639,75	-4,00
-11612,38	91,00
-11585,07	91,00
-11557,83	45,00
-11530,65	86,00
-11503,53	154,00
-11476,47	77,00
-11449,48	106,00
-11422,54	185,00
-11395,67	10,00
-11368,86	84,00
-11342,11	89,00
-11315,43	124,00
-11288,80	104,00
-11262,23	174,00
-11235,73	230,00
-11209,28	129,00
-11182,90	82,00
-11156,57	184,00
-11130,31	-24,00
-11104,10	36,00
-11077,96	224,00
-11051,87	140,00
-11025,84	113,00
-10999,87	100,00
-10973,96	283,00
-10948,11	54,00
-10922,31	173,00
-10896,58	45,00
-10870,90	187,00
-10845,28	6,00
-10819,71	118,00
-10794,20	106,00
-10768,75	187,00
-10743,36	139,00
-10718,02	76,00
-10692,74	128,00
-10667,52	215,00
-10642,35	68,00
-10617,24	45,00
-10592,18	147,00
-10567,18	135,00
-10542,23	187,00
-10517,34	149,00
-10492,51	225,00
-10467,72	175,00
-10443,00	212,00
-10418,32	125,00
-10393,70	168,00
-10369,14	149,00
-10344,63	342,00
-10320,17	194,00
-10295,77	323,00
-10271,42	280,00
-10247,12	375,00
-10222,88	180,00
-10198,68	316,00
-10174,54	245,00
-10150,46	335,00
-10126,42	307,00
-10102,44	236,00
-10078,51	298,00
-10054,63	280,00
-10030,80	435,00
-10007,03	370,00
-9983,30	481,00
-9959,63	454,00
-9936,01	448,00
-9912,44	378,00
-9888,92	447,00
-9865,44	525,00
-9842,02	442,00
-9818,65	517,00
-9795,33	524,00
-9772,06	517,00
-9748,84	560,00
-9725,67	729,00
-9702,55	779,00
-9679,47	890,00
-9656,45	956,00
-9633,47	959,00
-9610,55	1117,00
-9587,67	1117,00
-9564,84	1095,00
-9542,06	1356,00
-9519,32	1629,00
-9496,64	1507,00
-9474,00	1638,00
-9451,41	1888,00
-9428,87	2006,00
-9406,37	1852,00
-9383,92	1617,00
-9361,52	1677,00
-9339,17	1828,00
-9316,86	2197,00
-9294,60	2570,00
-9272,38	2711,00
-9250,21	3083,00
-9228,09	3087,00
-9206,01	2907,00
-9183,98	2696,00
-9162,00	2589,00
-9140,06	2478,00
-9118,16	2450,00
-9096,31	2680,00
-9074,51	2818,00
-9052,75	2761,00
-9031,04	2667,00
-9009,37	2426,00
-8987,74	2166,00
-8966,16	1882,00
-8944,63	1721,00
-8923,14	1744,00
-8901,69	1781,00
-8880,29	1837,00
-8858,93	2112,00
-8837,61	2230,00
-8816,34	2549,00
-8795,11	2361,00
-8773,92	2336,00
-8752,78	2022,00
-8731,68	1785,00
-8710,62	2037,00
-8689,61	2028,00
-8668,63	2090,00
-8647,70	2438,00
-8626,82	2366,00
-8605,97	2214,00
-8585,17	1959,00
-8564,41	1755,00
-8543,69	1648,00
-8523,01	1654,00
-8502,37	1744,00
-8481,78	1913,00
-8461,23	2028,00
-8440,71	2103,00
-8420,24	2295,00
-8399,81	2273,00
-8379,42	2241,00
-8359,08	2311,00
-8338,77	1988,00
-8318,50	1837,00
-8298,27	1823,00
-8278,09	1848,00
-8257,94	1942,00
-8237,83	2191,00
-8217,76	2237,00
-8197,74	2148,00
-8177,75	2086,00
-8157,80	1906,00
-8137,89	1782,00
-8118,02	1716,00
-8098,19	1546,00
-8078,40	1710,00
-8058,65	1767,00
-8038,93	1831,00
-8019,26	1814,00
-7999,62	1648,00
-7980,02	1585,00
-7960,46	1539,00
-7940,94	1399,00
-7921,46	1539,00
-7902,01	1404,00
-7882,60	1435,00
-7863,23	1456,00
-7843,90	1614,00
-7824,61	1621,00
-7805,35	1753,00
-7786,13	1755,00
-7766,95	1632,00
-7747,80	1495,00
-7728,69	1518,00
-7709,62	1476,00
-7690,59	1532,00
-7671,59	1626,00
-7652,63	1737,00
-7633,70	1641,00
-7614,81	1646,00
-7595,96	1545,00
-7577,15	1365,00
-7558,37	1451,00
-7539,62	1419,00
-7520,91	1492,00
-7502,24	1629,00
-7483,60	1578,00
-7465,00	1596,00
-7446,44	1418,00
-7427,91	1208,00
-7409,41	1181,00
-7390,95	1042,00
-7372,53	908,00
-7354,14	926,00
-7335,78	1029,00
-7317,46	1085,00
-7299,18	1163,00
-7280,92	1341,00
-7262,71	1474,00
-7244,52	1622,00
-7226,38	1640,00
-7208,26	1538,00
-7190,18	1450,00
-7172,14	1370,00
-7154,12	1389,00
-7136,15	1366,00
-7118,20	1457,00
-7100,29	1485,00
-7082,41	1554,00
-7064,57	1472,00
-7046,76	1313,00
-7028,98	1218,00
-7011,24	1034,00
-6993,53	943,00
-6975,85	714,00
-6958,20	845,00
-6940,59	611,00
-6923,01	707,00
-6905,46	960,00
-6887,94	1122,00
-6870,46	-819,00
-6853,01	1545,00
-6835,59	1462,00
-6818,21	1163,00
-6800,85	855,00
-6783,53	1058,00
-6766,24	748,00
-6748,98	623,00
-6731,76	589,00
-6714,56	595,00
-6697,40	666,00
-6680,26	637,00
-6663,16	763,00
-6646,09	901,00
-6629,05	1011,00
-6612,05	1274,00
-6595,07	994,00
-6578,13	966,00
-6561,21	854,00
-6544,33	784,00
-6527,47	459,00
-6510,65	449,00
-6493,86	507,00
-6477,10	449,00
-6460,36	429,00
-6443,66	494,00
-6426,99	500,00
-6410,35	522,00
-6393,74	704,00
-6377,16	619,00
-6360,61	560,00
-6344,09	687,00
-6327,59	742,00
-6311,13	865,00
-6294,70	807,00
-6278,29	944,00
-6261,92	939,00
-6245,58	981,00
-6229,26	1000,00
-6212,97	901,00
-6196,72	712,00
-6180,49	586,00
-6164,29	418,00
-6148,12	317,00
-6131,98	223,00
-6115,86	252,00
-6099,78	306,00
-6083,72	139,00
-6067,69	164,00
-6051,69	334,00
-6035,72	177,00
-6019,78	220,00
-6003,87	543,00
-5987,98	652,00
-5972,12	739,00
-5956,29	801,00
-5940,49	696,00
-5924,71	608,00
-5908,96	434,00
-5893,24	264,00
-5877,55	340,00
-5861,89	358,00
-5846,25	307,00
-5830,64	389,00
-5815,05	390,00
-5799,50	414,00
-5783,97	416,00
-5768,47	514,00
-5752,99	638,00
-5737,55	725,00
-5722,12	732,00
-5706,73	650,00
-5691,36	521,00
-5676,02	368,00
-5660,71	246,00
-5645,42	334,00
-5630,16	450,00
-5614,92	488,00
-5599,71	551,00
-5584,53	629,00
-5569,37	514,00
-5554,24	1344,00
-5539,14	383,00
-5524,06	320,00
-5509,01	422,00
-5493,98	560,00
-5478,98	541,00
-5464,00	462,00
-5449,05	363,00
-5434,13	322,00
-5419,23	352,00
-5404,36	410,00
-5389,51	500,00
-5374,69	736,00
-5359,89	835,00
-5345,12	803,00
-5330,37	693,00
-5315,65	606,00
-5300,95	465,00
-5286,28	431,00
-5271,63	389,00
-5257,01	436,00
-5242,41	326,00
-5227,84	365,00
-5213,29	282,00
-5198,76	325,00
-5184,26	277,00
-5169,79	363,00
-5155,33	394,00
-5140,91	521,00
-5126,51	615,00
-5112,13	589,00
-5097,77	549,00
-5083,44	321,00
-5069,13	321,00
-5054,85	219,00
-5040,59	318,00
-5026,36	565,00
-5012,15	472,00
-4997,96	468,00
-4983,80	430,00
-4969,66	242,00
-4955,54	379,00
-4941,44	284,00
-4927,37	582,00
-4913,33	665,00
-4899,30	940,00
-4885,30	723,00
-4871,33	643,00
-4857,37	341,00
-4843,44	364,00
-4829,53	297,00
-4815,65	187,00
-4801,79	361,00
-4787,95	305,00
-4774,13	382,00
-4760,34	249,00
-4746,56	279,00
-4732,82	340,00
-4719,09	446,00
-4705,38	589,00
-4691,70	624,00
-4678,04	875,00
-4664,41	632,00
-4650,79	473,00
-4637,20	412,00
-4623,63	232,00
-4610,08	391,00
-4596,56	496,00
-4583,05	442,00
-4569,57	390,00
-4556,11	185,00
-4542,67	252,00
-4529,25	377,00
-4515,86	321,00
-4502,49	495,00
-4489,13	582,00
-4475,80	564,00
-4462,49	404,00
-4449,21	267,00
-4435,94	204,00
-4422,70	332,00
-4409,47	376,00
-4396,27	493,00
-4383,09	324,00
-4369,93	267,00
-4356,79	121,00
-4343,67	146,00
-4330,58	176,00
-4317,50	316,00
-4304,45	301,00
-4291,41	224,00
-4278,40	239,00
-4265,41	234,00
-4252,44	432,00
-4239,49	321,00
-4226,55	430,00
-4213,65	291,00
-4200,76	290,00
-4187,89	265,00
-4175,04	145,00
-4162,21	170,00
-4149,40	321,00
-4136,61	64,00
-4123,85	259,00
-4111,10	-34,00
-4098,37	171,00
-4085,66	-5,00
-4072,98	133,00
-4060,31	238,00
-4047,66	199,00
-4035,04	143,00
-4022,43	93,00
-4009,84	281,00
-3997,27	184,00
-3984,72	46,00
-3972,19	146,00
-3959,69	151,00
-3947,20	79,00
-3934,73	97,00
-3922,27	24,00
-3909,84	87,00
-3897,43	85,00
-3885,04	81,00
-3872,67	61,00
-3860,31	175,00
-3847,98	46,00
-3835,66	48,00
-3823,36	106,00
-3811,09	-5,00
-3798,83	177,00
-3786,59	59,00
-3774,37	107,00
-3762,17	64,00
-3749,98	25,00
-3737,82	86,00
-3725,67	227,00
-3713,55	88,00
-3701,44	183,00
-3689,35	7,00
-3677,28	222,00
-3665,22	130,00
-3653,19	117,00
-3641,17	44,00
-3629,18	159,00
-3617,20	76,00
-3605,24	123,00
-3593,30	186,00
-3581,37	21,00
-3569,47	210,00
-3557,58	30,00
-3545,71	144,00
-3533,86	147,00
-3522,02	117,00
-3510,21	286,00
-3498,41	122,00
-3486,63	124,00
-3474,87	126,00
-3463,12	32,00
-3451,40	183,00
-3439,69	31,00
-3428,00	91,00
-3416,33	25,00
-3404,67	99,00
-3393,03	116,00
-3381,41	146,00
-3369,81	19,00
-3358,22	58,00
-3346,66	198,00
-3335,10	139,00
-3323,57	60,00
-3312,06	72,00
-3300,56	133,00
-3289,08	96,00
-3277,61	121,00
-3266,16	37,00
-3254,73	79,00
-3243,32	203,00
-3231,92	39,00
-3220,55	36,00
-3209,18	74,00
-3197,84	120,00
-3186,51	139,00
-3175,20	121,00
-3163,90	55,00
-3152,63	15,00
-3141,36	53,00
-3130,12	211,00
-3118,89	63,00
-3107,68	151,00
-3096,49	72,00
-3085,31	130,00
-3074,15	79,00
-3063,00	159,00
-3051,87	121,00
-3040,76	101,00
-3029,67	57,00
-3018,59	169,00
-3007,52	87,00
-2996,48	72,00
-2985,44	22,00
-2974,43	146,00
-2963,43	27,00
-2952,45	10,00
-2941,48	38,00
-2930,53	34,00
-2919,60	110,00
-2908,68	-2,00
-2897,78	219,00
-2886,89	53,00
-2876,02	78,00
-2865,17	58,00
-2854,33	69,00
-2843,50	162,00
-2832,70	145,00
-2821,90	55,00
-2811,13	94,00
-2800,37	97,00
-2789,62	57,00
-2778,89	81,00
-2768,18	38,00
-2757,48	-3,00
-2746,80	128,00
-2736,13	115,00
-2725,48	63,00
-2714,84	63,00
-2704,22	103,00
-2693,61	97,00
-2683,02	99,00
-2672,45	116,00
-2661,89	140,00
-2651,34	120,00
-2640,81	123,00
-2630,30	155,00
-2619,80	39,00
-2609,31	80,00
-2598,84	196,00
-2588,39	115,00
-2577,95	54,00
-2567,52	91,00
-2557,11	101,00
-2546,71	77,00
-2536,33	261,00
-2525,97	198,00
-2515,62	136,00
-2505,28	64,00
-2494,96	57,00
-2484,65	84,00
-2474,36	-21,00
-2464,08	145,00
-2453,82	142,00
-2443,57	44,00
-2433,33	138,00
-2423,11	123,00
-2412,91	68,00
-2402,72	109,00
-2392,54	45,00
-2382,38	100,00
-2372,23	94,00
-2362,09	-4128,00
-2351,97	30,00
-2341,87	-41,00
-2331,78	84,00
-2321,70	24,00
-2311,64	-21,00
-2301,59	107,00
-2291,55	165,00
-2281,53	50,00
-2271,53	104,00
-2261,53	86,00
-2251,55	146,00
-2241,59	89,00
-2231,64	117,00
-2221,70	45,00
-2211,78	122,00
-2201,87	225,00
-2191,97	129,00
-2182,09	61,00
-2172,22	64,00
-2162,37	151,00
-2152,53	63,00
-2142,70	121,00
-2132,89	126,00
-2123,09	224,00
-2113,30	48,00
-2103,53	-37,00
-2093,77	4,00
-2084,02	33,00
-2074,29	134,00
-2064,57	81,00
-2054,86	138,00
-2045,17	97,00
-2035,49	52,00
-2025,82	95,00
-2016,17	125,00
-2006,53	117,00
-1996,91	139,00
-1987,29	61,00
-1977,69	219,00
-1968,11	41,00
-1958,53	159,00
-1948,97	17,00
-1939,42	65,00
-1929,89	139,00
-1920,37	60,00
-1910,86	-33,00
-1901,36	19,00
-1891,88	175,00
-1882,41	69,00
-1872,95	87,00
-1863,51	63,00
-1854,08	146,00
-1844,66	93,00
-1835,26	54,00
-1825,86	74,00
-1816,48	128,00
-1807,11	52,00
-1797,76	82,00
-1788,42	112,00
-1779,09	86,00
-1769,77	132,00
-1760,47	-25,00
-1751,17	76,00
-1741,89	28,00
-1732,63	54,00
-1723,37	152,00
-1714,13	111,00
-1704,90	137,00
-1695,68	160,00
-1686,48	175,00
-1677,29	118,00
-1668,11	103,00
-1658,94	134,00
-1649,78	75,00
-1640,64	39,00
-1631,51	121,00
-1622,39	131,00
-1613,28	88,00
-1604,19	102,00
-1595,10	44,00
-1586,03	92,00
-1576,97	52,00
-1567,93	152,00
-1558,89	98,00
-1549,87	146,00
-1540,86	14,00
-1531,86	142,00
-1522,87	123,00
-1513,90	72,00
-1504,93	47,00
-1495,98	67,00
-1487,04	194,00
-1478,12	62,00
-1469,20	173,00
-1460,30	-7,00
-1451,40	86,00
-1442,52	94,00
-1433,65	66,00
-1424,80	122,00
-1415,95	91,00
-1407,12	65,00
-1398,30	86,00
-1389,48	24,00
-1380,69	169,00
-1371,90	83,00
-1363,12	99,00
-1354,36	135,00
-1345,60	182,00
-1336,86	161,00
-1328,13	231,00
-1319,41	-100,00
-1310,70	-44,00
-1302,01	41,00
-1293,32	97,00
-1284,65	116,00
-1275,99	146,00
-1267,33	93,00
-1258,69	85,00
-1250,06	164,00
-1241,45	112,00
-1232,84	183,00
-1224,25	102,00
-1215,66	162,00
-1207,09	149,00
-1198,53	225,00
-1189,97	94,00
-1181,43	163,00
-1172,91	75,00
-1164,39	34,00
-1155,88	121,00
-1147,38	177,00
-1138,90	13,00
-1130,43	77,00
-1121,96	151,00
-1113,51	94,00
-1105,07	83,00
-1096,64	167,00
-1088,22	116,00
-1079,81	220,00
-1071,41	125,00
-1063,02	41,00
-1054,65	-30,00
-1046,28	105,00
-1037,92	113,00
-1029,58	66,00
-1021,24	126,00
-1012,92	85,00
-1004,61	139,00
-996,30	237,00
-988,01	30,00
-979,73	156,00
-971,46	94,00
-963,20	-12,00
-954,95	145,00
-946,71	72,00
-938,48	115,00
-930,26	58,00
-922,06	110,00
-913,86	193,00
-905,67	87,00
-897,49	61,00
-889,33	35,00
-881,17	147,00
-873,02	123,00
-864,89	46,00
-856,76	25,00
-848,65	168,00
-840,54	136,00
-832,45	71,00
-824,36	51,00
-816,29	63,00
-808,22	59,00
-800,17	116,00
-792,12	145,00
-784,09	196,00
-776,06	108,00
-768,05	101,00
-760,04	65,00
-752,05	95,00
-744,07	100,00
-736,09	136,00
-728,13	107,00
-720,17	115,00
-712,23	-99,00
-704,29	181,00
-696,37	72,00
-688,45	89,00
-680,55	294,00
-672,65	67,00
-664,77	162,00
-656,89	79,00
-649,03	81,00
-641,17	91,00
-633,32	177,00
-625,49	94,00
-617,66	205,00
-609,84	93,00
-602,03	70,00
-594,23	93,00
-586,45	59,00
-578,67	74,00
-570,90	31,00
-563,14	116,00
-555,39	-18,00
-547,65	158,00
-539,91	122,00
-532,19	74,00
-524,48	48,00
-516,78	109,00
-509,08	53,00
-501,40	59,00
-493,72	87,00
-486,06	88,00
-478,40	145,00
-470,76	14,00
-463,12	42,00
-455,49	61,00
-447,87	26,00
-440,26	137,00
-432,66	77,00
-425,07	37,00
-417,49	141,00
-409,92	150,00
-402,35	77,00
-394,80	90,00
-387,25	111,00
-379,72	178,00
-372,19	114,00
-364,67	142,00
-357,17	116,00
-349,67	173,00
-342,18	20,00
-334,69	293,00
-327,22	237,00
-319,76	47,00
-312,30	162,00
-304,86	76,00
-297,42	77,00
-290,00	81,00
-282,58	199,00
-275,17	130,00
-267,77	89,00
-260,37	129,00
-252,99	201,00
-245,62	231,00
-238,25	129,00
-230,90	85,00
-223,55	213,00
-216,21	248,00
-208,88	284,00
-201,56	290,00
-194,25	263,00
-186,94	345,00
-179,65	269,00
-172,36	209,00
-165,08	244,00
-157,81	490,00
-150,55	440,00
-143,30	443,00
-136,06	525,00
-128,82	399,00
-121,60	625,00
-114,38	610,00
-107,17	685,00
-99,97	786,00
-92,78	869,00
-85,60	981,00
-78,42	1287,00
-71,25	1237,00
-64,10	1502,00
-56,95	1845,00
-49,81	2187,00
-42,67	2538,00
-35,55	3194,00
-28,43	4078,00
-21,33	6838,00
-14,23	21422,00
-7,14	55431,00
-0,05	55196,00
7,02	54914,00
14,09	55080,00
21,14	23111,00
28,19	9205,00
35,23	5681,00
42,27	4161,00
49,29	3515,00
56,31	2828,00
63,32	2468,00
70,32	1990,00
77,31	1799,00
84,29	1478,00
91,27	1385,00
98,23	1281,00
105,19	1101,00
112,14	1143,00
119,09	1637,00
126,02	2246,00
132,95	2593,00
139,87	2801,00
146,78	2719,00
153,68	2556,00
160,58	2613,00
167,46	2549,00
174,34	2502,00
181,21	2487,00
188,08	2506,00
194,93	2469,00
201,78	2556,00
208,62	2580,00
215,45	2405,00
222,27	2512,00
229,09	2351,00
235,90	2524,00
242,70	2315,00
249,49	2400,00
256,27	2339,00
263,05	2330,00
269,82	2297,00
276,58	2335,00
283,33	2368,00
290,08	2262,00
296,82	2279,00
303,55	2290,00
310,27	2285,00
316,98	2185,00
323,69	2242,00
330,39	2227,00
337,08	2172,00
343,76	2074,00
350,44	2090,00
357,11	2017,00
363,77	2127,00
370,42	2056,00
377,07	2005,00
383,71	2076,00
390,34	2049,00
396,96	2042,00
403,58	2106,00
410,19	2075,00
416,79	2091,00
423,38	2290,00
429,97	2065,00
436,55	2067,00
443,12	1948,00
449,68	1938,00
456,24	2002,00
462,79	1844,00
469,33	2059,00
475,86	1916,00
482,39	1863,00
488,91	1941,00
495,42	1887,00
501,93	1845,00
508,42	1781,00
514,91	2041,00
521,40	1903,00
527,87	1877,00
534,34	1893,00
540,80	1751,00
547,25	1784,00
553,70	1847,00
560,14	1704,00
566,57	1785,00
573,00	1705,00
579,41	1743,00
585,83	1726,00
592,23	1809,00
598,62	1769,00
605,01	1781,00
611,40	1899,00
617,77	1603,00
624,14	1701,00
630,50	1729,00
636,85	1639,00
643,20	1585,00
649,54	1684,00
655,87	1727,00
662,20	1729,00
668,52	1736,00
674,83	1598,00
681,13	1663,00
687,43	1536,00
693,72	1662,00
700,00	1680,00
706,28	1587,00
712,55	1595,00
718,81	1722,00
725,07	1677,00
731,32	1630,00
737,56	1613,00
743,79	1542,00
750,02	1643,00
756,24	1611,00
762,46	1594,00
768,67	1606,00
774,87	1565,00
781,06	1621,00
787,25	1631,00
793,43	1539,00
799,60	1694,00
805,77	1535,00
811,93	1645,00
818,08	1579,00
824,23	1598,00
830,37	1615,00
836,50	1636,00
842,63	1579,00
848,75	1661,00
854,87	1590,00
860,97	1688,00
867,07	1670,00
873,17	1536,00
879,25	1603,00
885,33	1533,00
891,41	1508,00
897,47	1692,00
903,53	1448,00
909,59	1514,00
915,63	1566,00
921,67	1510,00
927,71	1552,00
933,74	1592,00
939,76	1482,00
945,77	1439,00
951,78	1546,00
957,78	1460,00
963,78	1382,00
969,77	1373,00
975,75	1351,00
981,72	1395,00
987,69	1526,00
993,66	1523,00
999,61	1406,00
1005,56	1578,00
1011,51	1548,00
1017,44	1368,00
1023,37	1467,00
1029,30	1506,00
1035,22	1422,00
1041,13	1501,00
1047,03	1456,00
1052,93	1574,00
1058,83	1699,00
1064,71	1840,00
1070,59	1684,00
1076,47	1655,00
1082,33	1510,00
1088,20	1495,00
1094,05	1372,00
1099,90	1290,00
1105,74	1489,00
1111,58	1435,00
1117,41	1477,00
1123,23	1542,00
1129,05	1555,00
1134,86	1540,00
1140,67	1511,00
1146,47	1465,00
1152,26	1344,00
1158,05	1333,00
1163,83	1410,00
1169,60	1345,00
1175,37	1290,00
1181,13	1288,00
1186,89	1286,00
1192,64	1276,00
1198,38	1364,00
1204,12	1216,00
1209,85	1357,00
1215,58	1255,00
1221,30	1116,00
1227,02	1384,00
1232,72	1286,00
1238,43	1314,00
1244,12	1307,00
1249,81	1244,00
1255,50	1336,00
1261,17	1327,00
1266,85	1350,00
1272,51	1323,00
1278,17	1354,00
1283,83	1438,00
1289,47	1623,00
1295,12	1806,00
1300,75	1818,00
1306,38	1637,00
1312,01	1595,00
1317,63	1566,00
1323,24	1582,00
1328,85	1487,00
1334,45	1474,00
1340,04	1422,00
1345,63	1450,00
1351,22	1549,00
1356,80	1530,00
1362,37	1559,00
1367,93	1409,00
1373,49	1493,00
1379,05	1406,00
1384,60	1350,00
1390,14	1456,00
1395,68	1370,00
1401,21	1529,00
1406,74	1441,00
1412,26	1688,00
1417,77	1709,00
1423,28	1621,00
1428,78	1689,00
1434,28	1868,00
1439,77	2019,00
1445,26	1926,00
1450,74	1884,00
1456,22	1889,00
1461,68	1754,00
1467,15	1637,00
1472,61	1519,00
1478,06	1462,00
1483,51	1411,00
1488,95	1298,00
1494,38	1381,00
1499,81	1312,00
1505,24	1326,00
1510,65	1350,00
1516,07	1268,00
1521,48	1212,00
1526,88	1171,00
1532,27	1214,00
1537,67	1265,00
1543,05	1169,00
1548,43	1233,00
1553,81	1228,00
1559,18	1147,00
1564,54	1256,00
1569,90	1197,00
1575,25	1080,00
1580,60	1187,00
1585,94	1178,00
1591,28	1086,00
1596,61	1138,00
1601,93	913,00
1607,25	1104,00
1612,57	1133,00
1617,88	1111,00
1623,18	1101,00
1628,48	1075,00
1633,77	1025,00
1639,06	1060,00
1644,34	1048,00
1649,62	1102,00
1654,89	923,00
1660,16	1020,00
1665,42	948,00
1670,67	1100,00
1675,92	940,00
1681,17	1013,00
1686,41	1078,00
1691,64	1124,00
1696,87	942,00
1702,10	990,00
1707,32	1003,00
1712,53	931,00
1717,74	1047,00
1722,94	1051,00
1728,14	1049,00
1733,33	869,00
1738,52	842,00
1743,70	873,00
1748,88	899,00
1754,05	806,00
1759,22	906,00
1764,38	928,00
1769,53	899,00
1774,69	910,00
1779,83	931,00
1784,97	876,00
1790,11	971,00
1795,24	744,00
1800,36	820,00
1805,48	935,00
1810,60	768,00
1815,71	793,00
1820,82	847,00
1825,92	768,00
1831,01	817,00
1836,10	634,00
1841,19	781,00
1846,26	887,00
1851,34	666,00
1856,41	894,00
1861,47	776,00
1866,53	669,00
1871,59	819,00
1876,64	713,00
1881,68	688,00
1886,72	713,00
1891,76	806,00
1896,79	773,00
1901,81	755,00
1906,83	744,00
1911,85	666,00
1916,86	822,00
1921,86	760,00
1926,86	744,00
1931,86	757,00
1936,85	680,00
1941,83	735,00
1946,81	633,00
1951,79	546,00
1956,76	719,00
1961,72	642,00
1966,68	640,00
1971,64	693,00
1976,59	551,00
1981,54	627,00
1986,48	648,00
1991,42	515,00
1996,35	473,00
2001,27	600,00
2006,20	642,00
2011,11	599,00
2016,03	533,00
2020,93	604,00
2025,84	678,00
2030,73	498,00
2035,63	655,00
2040,52	592,00
2045,40	510,00
2050,28	611,00
2055,15	502,00
2060,02	619,00
2064,89	477,00
2069,75	641,00
2074,60	524,00
2079,46	556,00
2084,30	587,00
2089,14	635,00
2093,98	418,00
2098,81	594,00
2103,64	534,00
2108,46	610,00
2113,28	551,00
2118,09	526,00
2122,90	483,00
2127,70	535,00
2132,50	500,00
2137,30	593,00
2142,09	593,00
2146,87	564,00
2151,66	426,00
2156,43	555,00
2161,20	497,00
2165,97	487,00
2170,73	403,00
2175,49	550,00
2180,24	560,00
2184,99	528,00
2189,74	1014,00
2194,48	456,00
2199,21	596,00
2203,94	535,00
2208,67	487,00
2213,39	485,00
2218,11	503,00
2222,82	508,00
2227,53	486,00
2232,23	620,00
2236,93	468,00
2241,63	515,00
2246,32	499,00
2251,00	405,00
2255,68	404,00
2260,36	445,00
2265,03	460,00
2269,70	551,00
2274,36	468,00
2279,02	401,00
2283,68	502,00
2288,33	401,00
2292,97	364,00
2297,61	365,00
2302,25	572,00
2306,88	486,00
2311,51	366,00
2316,14	449,00
2320,75	392,00
2325,37	422,00
2329,98	435,00
2334,59	306,00
2339,19	487,00
2343,79	359,00
2348,38	418,00
2352,97	437,00
2357,55	569,00
2362,13	392,00
2366,71	417,00
2371,28	424,00
2375,85	264,00
2380,41	508,00
2384,97	377,00
2389,52	328,00
2394,07	445,00
2398,62	398,00
2403,16	356,00
2407,70	534,00
2412,23	377,00
2416,76	371,00
2421,29	380,00
2425,81	399,00
2430,32	373,00
2434,84	408,00
2439,34	363,00
2443,85	414,00
2448,35	430,00
2452,84	326,00
2457,33	345,00
2461,82	204,00
2466,30	354,00
2470,78	413,00
2475,25	510,00
2479,72	292,00
2484,19	266,00
2488,65	418,00
2493,11	417,00
2497,56	319,00
2502,01	380,00
2506,46	262,00
2510,90	353,00
2515,34	404,00
2519,77	289,00
2524,20	408,00
2528,62	409,00
2533,04	313,00
2537,46	345,00
2541,87	358,00
2546,28	208,00
2550,68	428,00
2555,08	360,00
2559,48	362,00
2563,87	442,00
2568,26	300,00
2572,64	324,00
2577,02	343,00
2581,40	377,00
2585,77	288,00
2590,14	166,00
2594,50	363,00
2598,86	305,00
2603,22	315,00
2607,57	350,00
2611,92	271,00
2616,26	292,00
2620,60	380,00
2624,94	257,00
2629,27	369,00
2633,60	231,00
2637,92	403,00
2642,24	450,00
2646,56	318,00
2650,87	375,00
2655,18	381,00
2659,48	344,00
2663,78	395,00
2668,08	242,00
2672,37	185,00
2676,66	373,00
2680,95	274,00
2685,23	405,00
2689,50	293,00
2693,78	305,00
2698,05	243,00
2702,31	301,00
2706,57	258,00
2710,83	256,00
2715,08	332,00
2719,33	452,00
2723,58	394,00
2727,82	355,00
2732,06	381,00
2736,29	251,00
2740,53	444,00
2744,75	289,00
2748,97	307,00
2753,19	411,00
2757,41	397,00
2761,62	196,00
2765,83	316,00
2770,03	262,00
2774,23	352,00
2778,43	339,00
2782,62	315,00
2786,81	296,00
2791,00	279,00
2795,18	354,00
2799,35	390,00
2803,53	365,00
2807,70	312,00
2811,86	259,00
2816,03	428,00
2820,19	266,00
2824,34	486,00
2828,49	368,00
2832,64	526,00
2836,78	508,00
2840,92	627,00
2845,06	856,00
2849,19	883,00
2853,32	985,00
2857,45	874,00
2861,57	942,00
2865,69	959,00
2869,80	894,00
2873,91	903,00
2878,02	821,00
2882,12	957,00
2886,22	966,00
2890,32	984,00
2894,41	947,00
2898,50	812,00
2902,58	843,00
2906,67	783,00
2910,74	765,00
2914,82	653,00
2918,89	705,00
2922,96	694,00
2927,02	633,00
2931,08	597,00
2935,13	519,00
2939,19	619,00
2943,24	456,00
2947,28	366,00
2951,32	387,00
2955,36	353,00
2959,40	378,00
2963,43	343,00
2967,46	366,00
2971,48	410,00
2975,50	376,00
2979,52	401,00
2983,53	366,00
2987,54	307,00
2991,55	298,00
2995,55	283,00
2999,55	235,00
3003,54	256,00
3007,54	243,00
3011,53	197,00
3015,51	166,00
3019,49	344,00
3023,47	195,00
3027,45	146,00
3031,42	287,00
3035,39	354,00
3039,35	188,00
3043,31	171,00
3047,27	204,00
3051,22	221,00
3055,17	95,00
3059,12	213,00
3063,06	144,00
3067,00	139,00
3070,94	215,00
3074,87	212,00
3078,80	235,00
3082,73	149,00
3086,65	258,00
3090,57	174,00
3094,49	120,00
3098,40	172,00
3102,31	130,00
3106,22	270,00
3110,12	224,00
3114,02	151,00
3117,92	133,00
3121,81	111,00
3125,70	193,00
3129,58	149,00
3133,47	95,00
3137,34	205,00
3141,22	281,00
3145,09	340,00
3148,96	130,00
3152,83	125,00
3156,69	200,00
3160,55	80,00
3164,40	297,00
3168,26	206,00
3172,10	294,00
3175,95	272,00
3179,79	69,00
3183,63	178,00
3187,47	146,00
3191,30	35,00
3195,13	174,00
3198,95	176,00
3202,78	126,00
3206,60	85,00
3210,41	161,00
3214,23	232,00
3218,03	242,00
3221,84	137,00
3225,64	32,00
3229,44	203,00
3233,24	148,00
3237,03	99,00
3240,82	94,00
3244,61	93,00
3248,39	230,00
3252,17	169,00
3255,95	168,00
3259,72	153,00
3263,49	187,00
3267,26	179,00
3271,03	33,00
3274,79	107,00
3278,54	179,00
3282,30	133,00
3286,05	229,00
3289,80	147,00
3293,54	124,00
3297,29	253,00
3301,02	195,00
3304,76	209,00
3308,49	184,00
3312,22	258,00
3315,95	138,00
3319,67	208,00
3323,39	241,00
3327,10	105,00
3330,82	223,00
3334,53	276,00
3338,24	165,00
3341,94	112,00
3345,64	172,00
3349,34	140,00
3353,03	227,00
3356,72	69,00
3360,41	109,00
3364,10	109,00
3367,78	234,00
3371,46	122,00
3375,13	132,00
3378,81	216,00
3382,48	152,00
3386,14	191,00
3389,81	296,00
3393,47	206,00
3397,12	153,00
3400,78	231,00
3404,43	175,00
3408,08	197,00
3411,72	95,00
3415,36	100,00
3419,00	102,00
3422,64	-28,00
3426,27	168,00
3429,90	168,00
3433,53	67,00
3437,15	196,00
3440,77	32,00
3444,39	201,00
3448,00	42,00
3451,62	136,00
3455,22	146,00
3458,83	163,00
3462,43	152,00
3466,03	50,00
3469,63	147,00
3473,22	82,00
3476,81	58,00
3480,40	75,00
3483,99	94,00
3487,57	80,00
3491,15	131,00
3494,72	155,00
3498,29	100,00
3501,86	148,00
3505,43	55,00
3508,99	126,00
3512,56	167,00
3516,11	136,00
3519,67	87,00
3523,22	103,00
3526,77	180,00
3530,32	102,00
3533,86	64,00
3537,40	168,00
3540,94	186,00
3544,47	170,00
3548,00	96,00
3551,53	130,00
3555,06	155,00
3558,58	196,00
3562,10	94,00
3565,62	50,00
3569,13	35,00
3572,64	192,00
3576,15	92,00
3579,66	198,00
3583,16	149,00
3586,66	85,00
3590,16	24,00
3593,65	120,00
3597,14	-21,00
3600,63	137,00
3604,11	140,00
3607,60	89,00
3611,08	159,00
3614,55	56,00
3618,03	61,00
3621,50	184,00
3624,97	52,00
3628,43	134,00
3631,90	153,00
3635,36	75,00
3638,81	91,00
3642,27	104,00
3645,72	51,00
3649,17	142,00
3652,61	120,00
3656,06	95,00
3659,50	82,00
3662,93	-10,00
3666,37	75,00
3669,80	137,00
3673,23	34,00
3676,65	187,00
3680,08	109,00
3683,50	104,00
3686,92	78,00
3690,33	129,00
3693,74	107,00
3697,15	112,00
3700,56	43,00
3703,96	11,00
3707,36	126,00
3710,76	53,00
3714,16	88,00
3717,55	196,00
3720,94	121,00
3724,33	63,00
3727,71	-44,00
3731,10	124,00
3734,48	108,00
3737,85	104,00
3741,23	66,00
3744,60	7,00
3747,97	133,00
3751,33	28,00
3754,69	81,00
3758,05	49,00
3761,41	16,00
3764,77	116,00
3768,12	41,00
3771,47	72,00
3774,82	32,00
3778,16	3,00
3781,50	-2,00
3784,84	-1,00
3788,18	-1,00
>>>>>End Processed Spectral Data<<<<<
