SpectraSuite Data File
++++++++++++++++++++++++++++++++++++
Date: Wed Feb 04 16:23:09 ICT 2026
User: Administrator
Dark Spectrum Present: Yes
Reference Spectrum Present: No
Number of Sampled Component Spectra: 1
Spectrometers: MAYP113682
Integration Time (usec): 3000000 (MAYP113682)
Spectra Averaged: 1 (MAYP113682)
Boxcar Smoothing: 0 (MAYP113682)
Correct for Electrical Dark: No (MAYP113682)
Strobe/Lamp Enabled: No (MAYP113682)
Correct for Detector Non-linearity: No (MAYP113682)
Correct for Stray Light: No (MAYP113682)
Number of Pixels in Processed Spectrum: 2068
>>>>>Begin Processed Spectral Data<<<<<
-37534,58	1,00
-37414,56	0,00
-37295,11	-5,00
-37176,24	1,00
-37057,95	121,00
-36940,22	179,00
-36823,05	91,00
-36706,45	152,00
-36590,40	166,00
-36474,90	49,00
-36359,95	71,00
-36245,55	197,00
-36131,68	89,00
-36018,35	236,00
-35905,55	210,00
-35793,29	233,00
-35681,54	240,00
-35570,32	127,00
-35459,62	159,00
-35349,43	161,00
-35239,75	135,00
-35130,58	138,00
-35021,91	261,00
-34913,74	161,00
-34806,07	171,00
-34698,89	186,00
-34592,20	216,00
-34486,00	218,00
-34380,28	169,00
-34275,04	151,00
-34170,27	230,00
-34065,98	99,00
-33962,16	226,00
-33858,81	98,00
-33755,92	166,00
-33653,49	88,00
-33551,52	139,00
-33450,01	217,00
-33348,94	187,00
-33248,33	152,00
-33148,16	164,00
-33048,43	169,00
-32949,14	265,00
-32850,29	259,00
-32751,87	197,00
-32653,89	240,00
-32556,33	126,00
-32459,20	71,00
-32362,49	139,00
-32266,19	207,00
-32170,32	199,00
-32074,86	171,00
-31979,82	271,00
-31885,18	167,00
-31790,95	306,00
-31697,12	114,00
-31603,69	155,00
-31510,67	271,00
-31418,04	201,00
-31325,80	195,00
-31233,95	310,00
-31142,49	128,00
-31051,42	224,00
-30960,73	152,00
-30870,43	204,00
-30780,50	180,00
-30690,95	53,00
-30601,77	316,00
-30512,97	264,00
-30424,53	145,00
-30336,46	89,00
-30248,76	112,00
-30161,42	188,00
-30074,44	189,00
-29987,81	173,00
-29901,55	123,00
-29815,63	172,00
-29730,07	174,00
-29644,86	222,00
-29560,00	118,00
-29475,48	194,00
-29391,30	168,00
-29307,47	206,00
-29223,97	262,00
-29140,81	163,00
-29057,99	86,00
-28975,50	163,00
-28893,34	154,00
-28811,51	118,00
-28730,00	128,00
-28648,82	211,00
-28567,97	90,00
-28487,43	150,00
-28407,21	205,00
-28327,32	126,00
-28247,73	225,00
-28168,46	156,00
-28089,50	240,00
-28010,85	184,00
-27932,51	294,00
-27854,48	189,00
-27776,75	28,00
-27699,32	158,00
-27622,19	258,00
-27545,37	121,00
-27468,84	188,00
-27392,60	261,00
-27316,66	211,00
-27241,01	170,00
-27165,66	193,00
-27090,59	224,00
-27015,81	261,00
-26941,31	283,00
-26867,10	172,00
-26793,17	209,00
-26719,52	219,00
-26646,15	312,00
-26573,06	238,00
-26500,24	156,00
-26427,70	320,00
-26355,43	179,00
-26283,43	205,00
-26211,71	261,00
-26140,25	228,00
-26069,06	332,00
-25998,13	231,00
-25927,46	165,00
-25857,06	175,00
-25786,92	172,00
-25717,04	217,00
-25647,42	197,00
-25578,05	166,00
-25508,94	138,00
-25440,09	231,00
-25371,48	347,00
-25303,13	178,00
-25235,02	213,00
-25167,17	164,00
-25099,56	178,00
-25032,19	216,00
-24965,07	114,00
-24898,20	225,00
-24831,56	287,00
-24765,17	177,00
-24699,01	139,00
-24633,10	153,00
-24567,41	167,00
-24501,97	100,00
-24436,75	204,00
-24371,77	211,00
-24307,03	132,00
-24242,51	269,00
-24178,22	144,00
-24114,16	221,00
-24050,32	343,00
-23986,71	123,00
-23923,32	153,00
-23860,16	232,00
-23797,22	332,00
-23734,50	144,00
-23672,00	37,00
-23609,71	327,00
-23547,65	96,00
-23485,80	279,00
-23424,16	257,00
-23362,74	201,00
-23301,53	232,00
-23240,54	205,00
-23179,75	105,00
-23119,17	213,00
-23058,80	135,00
-22998,64	242,00
-22938,68	186,00
-22878,93	151,00
-22819,39	185,00
-22760,04	85,00
-22700,90	249,00
-22641,96	73,00
-22583,22	204,00
-22524,68	207,00
-22466,33	225,00
-22408,19	227,00
-22350,23	209,00
-22292,48	219,00
-22234,92	38,00
-22177,55	239,00
-22120,37	116,00
-22063,38	294,00
-22006,58	26,00
-21949,98	201,00
-21893,56	158,00
-21837,33	101,00
-21781,28	218,00
-21725,42	186,00
-21669,74	134,00
-21614,25	159,00
-21558,94	232,00
-21503,81	181,00
-21448,86	143,00
-21394,10	141,00
-21339,51	206,00
-21285,10	168,00
-21230,86	186,00
-21176,81	205,00
-21122,93	165,00
-21069,22	173,00
-21015,69	213,00
-20962,33	131,00
-20909,14	184,00
-20856,13	116,00
-20803,28	211,00
-20750,61	130,00
-20698,10	98,00
-20645,76	110,00
-20593,59	94,00
-20541,59	92,00
-20489,75	299,00
-20438,07	83,00
-20386,56	222,00
-20335,22	114,00
-20284,03	264,00
-20233,01	101,00
-20182,15	91,00
-20131,45	119,00
-20080,91	162,00
-20030,52	142,00
-19980,30	250,00
-19930,23	232,00
-19880,32	180,00
-19830,56	180,00
-19780,96	186,00
-19731,52	253,00
-19682,23	157,00
-19633,09	275,00
-19584,10	88,00
-19535,26	244,00
-19486,58	251,00
-19438,04	274,00
-19389,66	211,00
-19341,42	307,00
-19293,33	186,00
-19245,39	206,00
-19197,60	315,00
-19149,95	241,00
-19102,45	186,00
-19055,09	116,00
-19007,87	83,00
-18960,80	226,00
-18913,87	255,00
-18867,09	249,00
-18820,44	269,00
-18773,94	238,00
-18727,57	27,00
-18681,35	134,00
-18635,26	404,00
-18589,31	73,00
-18543,50	186,00
-18497,83	234,00
-18452,29	94,00
-18406,89	152,00
-18361,63	342,00
-18316,50	133,00
-18271,50	218,00
-18226,63	126,00
-18181,90	214,00
-18137,30	140,00
-18092,84	198,00
-18048,50	263,00
-18004,29	263,00
-17960,22	185,00
-17916,27	243,00
-17872,45	194,00
-17828,76	134,00
-17785,20	278,00
-17741,77	184,00
-17698,46	230,00
-17655,28	109,00
-17612,22	169,00
-17569,29	191,00
-17526,48	224,00
-17483,79	222,00
-17441,23	119,00
-17398,79	190,00
-17356,48	237,00
-17314,28	210,00
-17272,21	206,00
-17230,26	197,00
-17188,42	216,00
-17146,71	169,00
-17105,12	122,00
-17063,64	133,00
-17022,28	203,00
-16981,04	175,00
-16939,92	210,00
-16898,91	54,00
-16858,02	190,00
-16817,25	176,00
-16776,59	200,00
-16736,04	147,00
-16695,61	249,00
-16655,29	152,00
-16615,09	153,00
-16574,99	245,00
-16535,01	271,00
-16495,15	161,00
-16455,39	-39,00
-16415,74	193,00
-16376,21	154,00
-16336,78	138,00
-16297,46	225,00
-16258,26	238,00
-16219,16	222,00
-16180,17	195,00
-16141,28	220,00
-16102,51	140,00
-16063,84	230,00
-16025,27	162,00
-15986,82	293,00
-15948,46	145,00
-15910,22	262,00
-15872,07	159,00
-15834,04	151,00
-15796,10	226,00
-15758,27	53,00
-15720,54	171,00
-15682,91	132,00
-15645,39	226,00
-15607,97	188,00
-15570,64	125,00
-15533,42	189,00
-15496,30	174,00
-15459,28	270,00
-15422,36	184,00
-15385,54	186,00
-15348,82	100,00
-15312,19	174,00
-15275,66	150,00
-15239,23	201,00
-15202,90	366,00
-15166,67	164,00
-15130,53	94,00
-15094,48	278,00
-15058,54	109,00
-15022,68	151,00
-14986,93	225,00
-14951,26	153,00
-14915,69	195,00
-14880,22	98,00
-14844,84	96,00
-14809,55	155,00
-14774,35	314,00
-14739,25	211,00
-14704,24	232,00
-14669,32	167,00
-14634,49	268,00
-14599,75	242,00
-14565,10	87,00
-14530,55	167,00
-14496,08	180,00
-14461,70	198,00
-14427,41	126,00
-14393,21	197,00
-14359,10	183,00
-14325,07	225,00
-14291,14	144,00
-14257,29	198,00
-14223,52	148,00
-14189,85	147,00
-14156,26	204,00
-14122,76	345,00
-14089,34	217,00
-14056,01	155,00
-14022,76	165,00
-13989,60	78,00
-13956,52	88,00
-13923,53	251,00
-13890,62	333,00
-13857,79	201,00
-13825,05	188,00
-13792,39	207,00
-13759,81	173,00
-13727,31	144,00
-13694,90	204,00
-13662,57	154,00
-13630,31	219,00
-13598,14	184,00
-13566,05	182,00
-13534,05	201,00
-13502,12	212,00
-13470,27	133,00
-13438,50	122,00
-13406,80	123,00
-13375,19	228,00
-13343,66	56,00
-13312,20	182,00
-13280,83	244,00
-13249,53	122,00
-13218,30	123,00
-13187,16	228,00
-13156,09	328,00
-13125,10	94,00
-13094,18	157,00
-13063,34	128,00
-13032,58	116,00
-13001,89	218,00
-12971,28	179,00
-12940,74	166,00
-12910,27	167,00
-12879,88	246,00
-12849,57	108,00
-12819,33	66,00
-12789,16	218,00
-12759,06	182,00
-12729,04	241,00
-12699,09	1414,00
-12669,21	206,00
-12639,41	154,00
-12609,68	52,00
-12580,02	170,00
-12550,43	192,00
-12520,91	134,00
-12491,46	237,00
-12462,08	229,00
-12432,77	109,00
-12403,54	256,00
-12374,37	274,00
-12345,27	235,00
-12316,24	146,00
-12287,29	231,00
-12258,40	254,00
-12229,57	148,00
-12200,82	87,00
-12172,14	12,00
-12143,52	208,00
-12114,97	208,00
-12086,49	147,00
-12058,07	231,00
-12029,73	223,00
-12001,44	300,00
-11973,23	196,00
-11945,08	132,00
-11917,00	108,00
-11888,98	181,00
-11861,03	246,00
-11833,15	141,00
-11805,32	370,00
-11777,57	261,00
-11749,88	274,00
-11722,25	168,00
-11694,69	77,00
-11667,19	175,00
-11639,75	151,00
-11612,38	66,00
-11585,07	187,00
-11557,83	58,00
-11530,65	154,00
-11503,53	198,00
-11476,47	198,00
-11449,48	224,00
-11422,54	202,00
-11395,67	145,00
-11368,86	219,00
-11342,11	122,00
-11315,43	219,00
-11288,80	73,00
-11262,23	214,00
-11235,73	192,00
-11209,28	323,00
-11182,90	188,00
-11156,57	183,00
-11130,31	171,00
-11104,10	178,00
-11077,96	268,00
-11051,87	143,00
-11025,84	219,00
-10999,87	51,00
-10973,96	279,00
-10948,11	83,00
-10922,31	165,00
-10896,58	19,00
-10870,90	305,00
-10845,28	154,00
-10819,71	203,00
-10794,20	265,00
-10768,75	167,00
-10743,36	84,00
-10718,02	137,00
-10692,74	233,00
-10667,52	233,00
-10642,35	165,00
-10617,24	177,00
-10592,18	285,00
-10567,18	161,00
-10542,23	284,00
-10517,34	133,00
-10492,51	225,00
-10467,72	114,00
-10443,00	222,00
-10418,32	76,00
-10393,70	108,00
-10369,14	43,00
-10344,63	290,00
-10320,17	134,00
-10295,77	198,00
-10271,42	181,00
-10247,12	223,00
-10222,88	123,00
-10198,68	87,00
-10174,54	68,00
-10150,46	193,00
-10126,42	195,00
-10102,44	169,00
-10078,51	85,00
-10054,63	31,00
-10030,80	128,00
-10007,03	163,00
-9983,30	268,00
-9959,63	95,00
-9936,01	95,00
-9912,44	-7,00
-9888,92	62,00
-9865,44	49,00
-9842,02	-37,00
-9818,65	60,00
-9795,33	-10,00
-9772,06	-102,00
-9748,84	-77,00
-9725,67	13,00
-9702,55	-32,00
-9679,47	-125,00
-9656,45	-6,00
-9633,47	-137,00
-9610,55	16,00
-9587,67	-139,00
-9564,84	-229,00
-9542,06	-205,00
-9519,32	-171,00
-9496,64	-331,00
-9474,00	-297,00
-9451,41	-364,00
-9428,87	-342,00
-9406,37	-414,00
-9383,92	-581,00
-9361,52	-593,00
-9339,17	-754,00
-9316,86	-505,00
-9294,60	-498,00
-9272,38	-569,00
-9250,21	-459,00
-9228,09	-627,00
-9206,01	-709,00
-9183,98	-768,00
-9162,00	-569,00
-9140,06	-750,00
-9118,16	-744,00
-9096,31	-658,00
-9074,51	-638,00
-9052,75	-556,00
-9031,04	-453,00
-9009,37	-509,00
-8987,74	-573,00
-8966,16	-668,00
-8944,63	-577,00
-8923,14	-486,00
-8901,69	-559,00
-8880,29	-432,00
-8858,93	-313,00
-8837,61	-349,00
-8816,34	-239,00
-8795,11	-266,00
-8773,92	-301,00
-8752,78	-267,00
-8731,68	-376,00
-8710,62	-209,00
-8689,61	-255,00
-8668,63	-313,00
-8647,70	-117,00
-8626,82	-257,00
-8605,97	-111,00
-8585,17	-174,00
-8564,41	-293,00
-8543,69	-365,00
-8523,01	-322,00
-8502,37	-312,00
-8481,78	-332,00
-8461,23	-132,00
-8440,71	-210,00
-8420,24	-90,00
-8399,81	-150,00
-8379,42	-121,00
-8359,08	-114,00
-8338,77	-259,00
-8318,50	-168,00
-8298,27	-178,00
-8278,09	-104,00
-8257,94	-134,00
-8237,83	114,00
-8217,76	-18,00
-8197,74	41,00
-8177,75	38,00
-8157,80	-53,00
-8137,89	60,00
-8118,02	-82,00
-8098,19	-50,00
-8078,40	-33,00
-8058,65	52,00
-8038,93	66,00
-8019,26	49,00
-7999,62	106,00
-7980,02	80,00
-7960,46	74,00
-7940,94	-87,00
-7921,46	-8,00
-7902,01	16,00
-7882,60	43,00
-7863,23	86,00
-7843,90	278,00
-7824,61	144,00
-7805,35	259,00
-7786,13	68,00
-7766,95	111,00
-7747,80	69,00
-7728,69	117,00
-7709,62	133,00
-7690,59	47,00
-7671,59	200,00
-7652,63	46,00
-7633,70	147,00
-7614,81	134,00
-7595,96	149,00
-7577,15	92,00
-7558,37	124,00
-7539,62	152,00
-7520,91	43,00
-7502,24	56,00
-7483,60	202,00
-7465,00	209,00
-7446,44	155,00
-7427,91	18,00
-7409,41	56,00
-7390,95	52,00
-7372,53	-58,00
-7354,14	30,00
-7335,78	54,00
-7317,46	-127,00
-7299,18	62,00
-7280,92	130,00
-7262,71	180,00
-7244,52	178,00
-7226,38	91,00
-7208,26	13,00
-7190,18	138,00
-7172,14	-91,00
-7154,12	235,00
-7136,15	-79,00
-7118,20	117,00
-7100,29	58,00
-7082,41	147,00
-7064,57	31,00
-7046,76	-4,00
-7028,98	-69,00
-7011,24	-74,00
-6993,53	-236,00
-6975,85	-255,00
-6958,20	-79,00
-6940,59	-170,00
-6923,01	-236,00
-6905,46	-122,00
-6887,94	-72,00
-6870,46	518,00
-6853,01	-53,00
-6835,59	24,00
-6818,21	-41,00
-6800,85	-114,00
-6783,53	-117,00
-6766,24	-221,00
-6748,98	-329,00
-6731,76	-436,00
-6714,56	-304,00
-6697,40	-322,00
-6680,26	-200,00
-6663,16	-13,00
-6646,09	-139,00
-6629,05	47,00
-6612,05	114,00
-6595,07	-148,00
-6578,13	-212,00
-6561,21	-106,00
-6544,33	81,00
-6527,47	-212,00
-6510,65	-269,00
-6493,86	-226,00
-6477,10	-354,00
-6460,36	-162,00
-6443,66	-245,00
-6426,99	-199,00
-6410,35	-151,00
-6393,74	-108,00
-6377,16	-112,00
-6360,61	-157,00
-6344,09	-131,00
-6327,59	-120,00
-6311,13	-10,00
-6294,70	22,00
-6278,29	160,00
-6261,92	170,00
-6245,58	-47,00
-6229,26	47,00
-6212,97	-5,00
-6196,72	-178,00
-6180,49	-35,00
-6164,29	-137,00
-6148,12	-209,00
-6131,98	-259,00
-6115,86	-236,00
-6099,78	-243,00
-6083,72	-333,00
-6067,69	-254,00
-6051,69	-86,00
-6035,72	-71,00
-6019,78	-227,00
-6003,87	-58,00
-5987,98	47,00
-5972,12	-58,00
-5956,29	-15,00
-5940,49	8,00
-5924,71	84,00
-5908,96	-18,00
-5893,24	-170,00
-5877,55	-39,00
-5861,89	-258,00
-5846,25	-143,00
-5830,64	-291,00
-5815,05	-181,00
-5799,50	-102,00
-5783,97	46,00
-5768,47	15,00
-5752,99	61,00
-5737,55	-15,00
-5722,12	-71,00
-5706,73	-146,00
-5691,36	-182,00
-5676,02	-162,00
-5660,71	-76,00
-5645,42	-164,00
-5630,16	22,00
-5614,92	-24,00
-5599,71	-111,00
-5584,53	-227,00
-5569,37	-176,00
-5554,24	-67,00
-5539,14	-81,00
-5524,06	-9,00
-5509,01	-100,00
-5493,98	-107,00
-5478,98	-212,00
-5464,00	-231,00
-5449,05	-203,00
-5434,13	-69,00
-5419,23	-80,00
-5404,36	11,00
-5389,51	-52,00
-5374,69	-51,00
-5359,89	-33,00
-5345,12	7,00
-5330,37	-3,00
-5315,65	21,00
-5300,95	34,00
-5286,28	-67,00
-5271,63	-45,00
-5257,01	-257,00
-5242,41	-256,00
-5227,84	-203,00
-5213,29	-222,00
-5198,76	-60,00
-5184,26	-27,00
-5169,79	27,00
-5155,33	-130,00
-5140,91	-85,00
-5126,51	-102,00
-5112,13	-69,00
-5097,77	37,00
-5083,44	30,00
-5069,13	43,00
-5054,85	-65,00
-5040,59	-91,00
-5026,36	-62,00
-5012,15	-77,00
-4997,96	-114,00
-4983,80	-27,00
-4969,66	-27,00
-4955,54	121,00
-4941,44	-29,00
-4927,37	-5,00
-4913,33	86,00
-4899,30	153,00
-4885,30	10,00
-4871,33	181,00
-4857,37	119,00
-4843,44	80,00
-4829,53	64,00
-4815,65	-153,00
-4801,79	-140,00
-4787,95	-184,00
-4774,13	-13,00
-4760,34	-39,00
-4746,56	65,00
-4732,82	223,00
-4719,09	138,00
-4705,38	98,00
-4691,70	-14,00
-4678,04	126,00
-4664,41	104,00
-4650,79	273,00
-4637,20	192,00
-4623,63	97,00
-4610,08	-43,00
-4596,56	1,00
-4583,05	-27,00
-4569,57	-62,00
-4556,11	21,00
-4542,67	78,00
-4529,25	97,00
-4515,86	36,00
-4502,49	74,00
-4489,13	35,00
-4475,80	60,00
-4462,49	96,00
-4449,21	163,00
-4435,94	68,00
-4422,70	154,00
-4409,47	20,00
-4396,27	90,00
-4383,09	35,00
-4369,93	114,00
-4356,79	95,00
-4343,67	126,00
-4330,58	64,00
-4317,50	35,00
-4304,45	34,00
-4291,41	54,00
-4278,40	164,00
-4265,41	168,00
-4252,44	204,00
-4239,49	92,00
-4226,55	107,00
-4213,65	112,00
-4200,76	278,00
-4187,89	217,00
-4175,04	109,00
-4162,21	140,00
-4149,40	189,00
-4136,61	-25,00
-4123,85	250,00
-4111,10	105,00
-4098,37	205,00
-4085,66	64,00
-4072,98	133,00
-4060,31	137,00
-4047,66	202,00
-4035,04	234,00
-4022,43	210,00
-4009,84	143,00
-3997,27	237,00
-3984,72	93,00
-3972,19	181,00
-3959,69	217,00
-3947,20	171,00
-3934,73	210,00
-3922,27	137,00
-3909,84	218,00
-3897,43	185,00
-3885,04	165,00
-3872,67	177,00
-3860,31	197,00
-3847,98	58,00
-3835,66	243,00
-3823,36	307,00
-3811,09	124,00
-3798,83	302,00
-3786,59	189,00
-3774,37	138,00
-3762,17	175,00
-3749,98	94,00
-3737,82	246,00
-3725,67	259,00
-3713,55	140,00
-3701,44	151,00
-3689,35	203,00
-3677,28	291,00
-3665,22	155,00
-3653,19	230,00
-3641,17	125,00
-3629,18	157,00
-3617,20	116,00
-3605,24	148,00
-3593,30	225,00
-3581,37	137,00
-3569,47	240,00
-3557,58	96,00
-3545,71	217,00
-3533,86	101,00
-3522,02	191,00
-3510,21	205,00
-3498,41	289,00
-3486,63	208,00
-3474,87	171,00
-3463,12	135,00
-3451,40	267,00
-3439,69	152,00
-3428,00	282,00
-3416,33	170,00
-3404,67	80,00
-3393,03	212,00
-3381,41	224,00
-3369,81	159,00
-3358,22	176,00
-3346,66	296,00
-3335,10	219,00
-3323,57	197,00
-3312,06	150,00
-3300,56	154,00
-3289,08	152,00
-3277,61	189,00
-3266,16	178,00
-3254,73	147,00
-3243,32	357,00
-3231,92	160,00
-3220,55	121,00
-3209,18	267,00
-3197,84	275,00
-3186,51	225,00
-3175,20	221,00
-3163,90	165,00
-3152,63	142,00
-3141,36	118,00
-3130,12	272,00
-3118,89	165,00
-3107,68	281,00
-3096,49	188,00
-3085,31	64,00
-3074,15	134,00
-3063,00	265,00
-3051,87	220,00
-3040,76	249,00
-3029,67	126,00
-3018,59	252,00
-3007,52	173,00
-2996,48	87,00
-2985,44	266,00
-2974,43	155,00
-2963,43	207,00
-2952,45	216,00
-2941,48	156,00
-2930,53	101,00
-2919,60	160,00
-2908,68	118,00
-2897,78	255,00
-2886,89	145,00
-2876,02	112,00
-2865,17	228,00
-2854,33	197,00
-2843,50	180,00
-2832,70	189,00
-2821,90	122,00
-2811,13	223,00
-2800,37	183,00
-2789,62	199,00
-2778,89	162,00
-2768,18	104,00
-2757,48	149,00
-2746,80	140,00
-2736,13	215,00
-2725,48	253,00
-2714,84	150,00
-2704,22	134,00
-2693,61	164,00
-2683,02	266,00
-2672,45	194,00
-2661,89	216,00
-2651,34	179,00
-2640,81	201,00
-2630,30	230,00
-2619,80	145,00
-2609,31	144,00
-2598,84	260,00
-2588,39	170,00
-2577,95	264,00
-2567,52	144,00
-2557,11	190,00
-2546,71	95,00
-2536,33	233,00
-2525,97	229,00
-2515,62	205,00
-2505,28	244,00
-2494,96	128,00
-2484,65	240,00
-2474,36	163,00
-2464,08	212,00
-2453,82	144,00
-2443,57	132,00
-2433,33	121,00
-2423,11	230,00
-2412,91	222,00
-2402,72	205,00
-2392,54	114,00
-2382,38	135,00
-2372,23	171,00
-2362,09	363,00
-2351,97	82,00
-2341,87	144,00
-2331,78	180,00
-2321,70	72,00
-2311,64	145,00
-2301,59	170,00
-2291,55	277,00
-2281,53	261,00
-2271,53	175,00
-2261,53	191,00
-2251,55	161,00
-2241,59	297,00
-2231,64	201,00
-2221,70	303,00
-2211,78	181,00
-2201,87	116,00
-2191,97	298,00
-2182,09	157,00
-2172,22	180,00
-2162,37	229,00
-2152,53	156,00
-2142,70	200,00
-2132,89	186,00
-2123,09	209,00
-2113,30	214,00
-2103,53	196,00
-2093,77	151,00
-2084,02	79,00
-2074,29	176,00
-2064,57	253,00
-2054,86	216,00
-2045,17	146,00
-2035,49	114,00
-2025,82	173,00
-2016,17	183,00
-2006,53	174,00
-1996,91	138,00
-1987,29	154,00
-1977,69	236,00
-1968,11	177,00
-1958,53	234,00
-1948,97	154,00
-1939,42	293,00
-1929,89	101,00
-1920,37	126,00
-1910,86	106,00
-1901,36	167,00
-1891,88	384,00
-1882,41	82,00
-1872,95	213,00
-1863,51	275,00
-1854,08	262,00
-1844,66	183,00
-1835,26	229,00
-1825,86	114,00
-1816,48	250,00
-1807,11	169,00
-1797,76	103,00
-1788,42	299,00
-1779,09	182,00
-1769,77	333,00
-1760,47	164,00
-1751,17	101,00
-1741,89	119,00
-1732,63	192,00
-1723,37	288,00
-1714,13	175,00
-1704,90	182,00
-1695,68	306,00
-1686,48	209,00
-1677,29	134,00
-1668,11	68,00
-1658,94	219,00
-1649,78	209,00
-1640,64	113,00
-1631,51	142,00
-1622,39	130,00
-1613,28	96,00
-1604,19	256,00
-1595,10	72,00
-1586,03	148,00
-1576,97	148,00
-1567,93	214,00
-1558,89	84,00
-1549,87	223,00
-1540,86	102,00
-1531,86	220,00
-1522,87	176,00
-1513,90	64,00
-1504,93	147,00
-1495,98	154,00
-1487,04	191,00
-1478,12	179,00
-1469,20	172,00
-1460,30	71,00
-1451,40	193,00
-1442,52	118,00
-1433,65	128,00
-1424,80	124,00
-1415,95	138,00
-1407,12	218,00
-1398,30	98,00
-1389,48	32,00
-1380,69	193,00
-1371,90	130,00
-1363,12	133,00
-1354,36	207,00
-1345,60	189,00
-1336,86	160,00
-1328,13	216,00
-1319,41	191,00
-1310,70	43,00
-1302,01	171,00
-1293,32	159,00
-1284,65	206,00
-1275,99	220,00
-1267,33	244,00
-1258,69	197,00
-1250,06	302,00
-1241,45	212,00
-1232,84	216,00
-1224,25	252,00
-1215,66	179,00
-1207,09	245,00
-1198,53	297,00
-1189,97	125,00
-1181,43	136,00
-1172,91	200,00
-1164,39	219,00
-1155,88	122,00
-1147,38	152,00
-1138,90	132,00
-1130,43	151,00
-1121,96	186,00
-1113,51	125,00
-1105,07	291,00
-1096,64	183,00
-1088,22	143,00
-1079,81	261,00
-1071,41	126,00
-1063,02	194,00
-1054,65	152,00
-1046,28	161,00
-1037,92	154,00
-1029,58	196,00
-1021,24	238,00
-1012,92	234,00
-1004,61	227,00
-996,30	278,00
-988,01	151,00
-979,73	290,00
-971,46	255,00
-963,20	91,00
-954,95	195,00
-946,71	119,00
-938,48	182,00
-930,26	53,00
-922,06	142,00
-913,86	250,00
-905,67	128,00
-897,49	123,00
-889,33	108,00
-881,17	324,00
-873,02	248,00
-864,89	106,00
-856,76	214,00
-848,65	106,00
-840,54	201,00
-832,45	200,00
-824,36	66,00
-816,29	129,00
-808,22	191,00
-800,17	215,00
-792,12	202,00
-784,09	335,00
-776,06	131,00
-768,05	297,00
-760,04	185,00
-752,05	190,00
-744,07	245,00
-736,09	281,00
-728,13	185,00
-720,17	180,00
-712,23	82,00
-704,29	128,00
-696,37	200,00
-688,45	172,00
-680,55	279,00
-672,65	152,00
-664,77	280,00
-656,89	350,00
-649,03	143,00
-641,17	221,00
-633,32	320,00
-625,49	127,00
-617,66	227,00
-609,84	237,00
-602,03	256,00
-594,23	208,00
-586,45	228,00
-578,67	224,00
-570,90	218,00
-563,14	291,00
-555,39	238,00
-547,65	160,00
-539,91	177,00
-532,19	167,00
-524,48	33,00
-516,78	201,00
-509,08	64,00
-501,40	256,00
-493,72	159,00
-486,06	174,00
-478,40	149,00
-470,76	85,00
-463,12	70,00
-455,49	96,00
-447,87	64,00
-440,26	264,00
-432,66	268,00
-425,07	200,00
-417,49	229,00
-409,92	286,00
-402,35	219,00
-394,80	238,00
-387,25	220,00
-379,72	222,00
-372,19	94,00
-364,67	204,00
-357,17	369,00
-349,67	186,00
-342,18	211,00
-334,69	361,00
-327,22	170,00
-319,76	144,00
-312,30	199,00
-304,86	179,00
-297,42	161,00
-290,00	240,00
-282,58	221,00
-275,17	263,00
-267,77	141,00
-260,37	218,00
-252,99	256,00
-245,62	231,00
-238,25	288,00
-230,90	207,00
-223,55	351,00
-216,21	336,00
-208,88	310,00
-201,56	181,00
-194,25	388,00
-186,94	389,00
-179,65	389,00
-172,36	331,00
-165,08	386,00
-157,81	501,00
-150,55	527,00
-143,30	510,00
-136,06	565,00
-128,82	540,00
-121,60	584,00
-114,38	745,00
-107,17	764,00
-99,97	818,00
-92,78	1036,00
-85,60	1002,00
-78,42	1282,00
-71,25	1354,00
-64,10	1497,00
-56,95	1854,00
-49,81	2122,00
-42,67	2672,00
-35,55	3205,00
-28,43	4136,00
-21,33	6783,00
-14,23	21271,00
-7,14	55431,00
-0,05	55196,00
7,02	54914,00
14,09	55080,00
21,14	23139,00
28,19	9291,00
35,23	5631,00
42,27	4198,00
49,29	3548,00
56,31	3068,00
63,32	2617,00
70,32	2029,00
77,31	1898,00
84,29	1546,00
91,27	1384,00
98,23	1391,00
105,19	1230,00
112,14	1181,00
119,09	1717,00
126,02	2381,00
132,95	2791,00
139,87	2828,00
146,78	2910,00
153,68	2786,00
160,58	2811,00
167,46	2672,00
174,34	2704,00
181,21	2639,00
188,08	2611,00
194,93	2697,00
201,78	2636,00
208,62	2631,00
215,45	2563,00
222,27	2667,00
229,09	2613,00
235,90	2607,00
242,70	2560,00
249,49	2601,00
256,27	2523,00
263,05	2522,00
269,82	2475,00
276,58	2582,00
283,33	2583,00
290,08	2367,00
296,82	2507,00
303,55	2433,00
310,27	2462,00
316,98	2417,00
323,69	2375,00
330,39	2414,00
337,08	2345,00
343,76	2294,00
350,44	2270,00
357,11	2340,00
363,77	2373,00
370,42	2227,00
377,07	2058,00
383,71	2245,00
390,34	2311,00
396,96	2187,00
403,58	2284,00
410,19	2322,00
416,79	2323,00
423,38	2307,00
429,97	2178,00
436,55	2086,00
443,12	2145,00
449,68	2047,00
456,24	2078,00
462,79	2088,00
469,33	2117,00
475,86	2063,00
482,39	1979,00
488,91	2065,00
495,42	2090,00
501,93	2004,00
508,42	1932,00
514,91	2047,00
521,40	2039,00
527,87	2030,00
534,34	1913,00
540,80	1817,00
547,25	1894,00
553,70	1899,00
560,14	1787,00
566,57	1903,00
573,00	1900,00
579,41	1815,00
585,83	1827,00
592,23	1820,00
598,62	1939,00
605,01	1775,00
611,40	1853,00
617,77	1738,00
624,14	1810,00
630,50	1789,00
636,85	1827,00
643,20	1816,00
649,54	1881,00
655,87	1799,00
662,20	1840,00
668,52	1884,00
674,83	1719,00
681,13	1809,00
687,43	1805,00
693,72	1770,00
700,00	1807,00
706,28	1668,00
712,55	1757,00
718,81	1717,00
725,07	1653,00
731,32	1718,00
737,56	1650,00
743,79	1685,00
750,02	1644,00
756,24	1584,00
762,46	1742,00
768,67	1776,00
774,87	1602,00
781,06	1696,00
787,25	1680,00
793,43	1597,00
799,60	1736,00
805,77	1664,00
811,93	1672,00
818,08	1650,00
824,23	1481,00
830,37	1630,00
836,50	1751,00
842,63	1715,00
848,75	1602,00
854,87	1712,00
860,97	1670,00
867,07	1705,00
873,17	1566,00
879,25	1594,00
885,33	1678,00
891,41	1568,00
897,47	1650,00
903,53	1594,00
909,59	1549,00
915,63	1603,00
921,67	1529,00
927,71	1540,00
933,74	1588,00
939,76	1485,00
945,77	1470,00
951,78	1520,00
957,78	1449,00
963,78	1528,00
969,77	1561,00
975,75	1396,00
981,72	1350,00
987,69	1777,00
993,66	1530,00
999,61	1487,00
1005,56	1530,00
1011,51	1535,00
1017,44	1446,00
1023,37	1483,00
1029,30	1548,00
1035,22	1473,00
1041,13	1443,00
1047,03	1598,00
1052,93	1570,00
1058,83	1746,00
1064,71	1820,00
1070,59	1732,00
1076,47	1557,00
1082,33	1447,00
1088,20	1444,00
1094,05	1218,00
1099,90	1255,00
1105,74	1452,00
1111,58	1409,00
1117,41	1460,00
1123,23	1452,00
1129,05	1597,00
1134,86	1601,00
1140,67	1534,00
1146,47	1335,00
1152,26	1399,00
1158,05	1247,00
1163,83	1596,00
1169,60	1313,00
1175,37	1326,00
1181,13	1345,00
1186,89	1307,00
1192,64	1521,00
1198,38	1300,00
1204,12	1238,00
1209,85	1388,00
1215,58	1315,00
1221,30	1246,00
1227,02	1340,00
1232,72	1372,00
1238,43	1297,00
1244,12	1378,00
1249,81	1288,00
1255,50	1361,00
1261,17	1334,00
1266,85	1339,00
1272,51	1406,00
1278,17	1263,00
1283,83	1547,00
1289,47	1624,00
1295,12	1789,00
1300,75	1819,00
1306,38	1732,00
1312,01	1568,00
1317,63	1595,00
1323,24	1471,00
1328,85	1393,00
1334,45	1513,00
1340,04	1488,00
1345,63	1521,00
1351,22	1542,00
1356,80	1598,00
1362,37	1486,00
1367,93	1445,00
1373,49	1589,00
1379,05	1535,00
1384,60	1415,00
1390,14	1426,00
1395,68	1456,00
1401,21	1540,00
1406,74	1427,00
1412,26	1653,00
1417,77	1636,00
1423,28	1699,00
1428,78	1749,00
1434,28	1954,00
1439,77	2067,00
1445,26	2000,00
1450,74	1961,00
1456,22	1840,00
1461,68	1630,00
1467,15	1624,00
1472,61	1544,00
1478,06	1374,00
1483,51	1518,00
1488,95	1284,00
1494,38	1537,00
1499,81	1417,00
1505,24	1311,00
1510,65	1248,00
1516,07	1233,00
1521,48	1247,00
1526,88	1222,00
1532,27	1197,00
1537,67	1261,00
1543,05	1327,00
1548,43	1180,00
1553,81	1256,00
1559,18	1249,00
1564,54	1138,00
1569,90	1224,00
1575,25	1151,00
1580,60	1227,00
1585,94	1289,00
1591,28	1096,00
1596,61	1167,00
1601,93	1052,00
1607,25	1228,00
1612,57	1210,00
1617,88	1046,00
1623,18	1125,00
1628,48	1061,00
1633,77	1180,00
1639,06	1069,00
1644,34	1094,00
1649,62	1135,00
1654,89	1010,00
1660,16	1102,00
1665,42	1017,00
1670,67	1114,00
1675,92	1019,00
1681,17	967,00
1686,41	1132,00
1691,64	1086,00
1696,87	1006,00
1702,10	1027,00
1707,32	981,00
1712,53	1061,00
1717,74	1067,00
1722,94	1100,00
1728,14	1143,00
1733,33	810,00
1738,52	897,00
1743,70	989,00
1748,88	925,00
1754,05	960,00
1759,22	810,00
1764,38	-447,00
1769,53	975,00
1774,69	998,00
1779,83	993,00
1784,97	926,00
1790,11	1028,00
1795,24	807,00
1800,36	879,00
1805,48	900,00
1810,60	909,00
1815,71	914,00
1820,82	918,00
1825,92	909,00
1831,01	773,00
1836,10	821,00
1841,19	839,00
1846,26	981,00
1851,34	741,00
1856,41	923,00
1861,47	821,00
1866,53	859,00
1871,59	915,00
1876,64	789,00
1881,68	724,00
1886,72	871,00
1891,76	855,00
1896,79	879,00
1901,81	872,00
1906,83	798,00
1911,85	722,00
1916,86	833,00
1921,86	810,00
1926,86	840,00
1931,86	830,00
1936,85	622,00
1941,83	784,00
1946,81	630,00
1951,79	671,00
1956,76	766,00
1961,72	763,00
1966,68	642,00
1971,64	786,00
1976,59	660,00
1981,54	748,00
1986,48	701,00
1991,42	662,00
1996,35	517,00
2001,27	632,00
2006,20	567,00
2011,11	596,00
2016,03	618,00
2020,93	724,00
2025,84	710,00
2030,73	601,00
2035,63	681,00
2040,52	618,00
2045,40	576,00
2050,28	605,00
2055,15	643,00
2060,02	668,00
2064,89	609,00
2069,75	596,00
2074,60	517,00
2079,46	650,00
2084,30	655,00
2089,14	570,00
2093,98	503,00
2098,81	670,00
2103,64	527,00
2108,46	671,00
2113,28	572,00
2118,09	625,00
2122,90	571,00
2127,70	693,00
2132,50	515,00
2137,30	643,00
2142,09	671,00
2146,87	607,00
2151,66	555,00
2156,43	705,00
2161,20	501,00
2165,97	577,00
2170,73	619,00
2175,49	593,00
2180,24	647,00
2184,99	592,00
2189,74	645,00
2194,48	566,00
2199,21	594,00
2203,94	656,00
2208,67	459,00
2213,39	481,00
2218,11	493,00
2222,82	510,00
2227,53	533,00
2232,23	540,00
2236,93	612,00
2241,63	513,00
2246,32	519,00
2251,00	498,00
2255,68	537,00
2260,36	404,00
2265,03	646,00
2269,70	573,00
2274,36	466,00
2279,02	390,00
2283,68	548,00
2288,33	436,00
2292,97	576,00
2297,61	374,00
2302,25	520,00
2306,88	493,00
2311,51	465,00
2316,14	455,00
2320,75	437,00
2325,37	502,00
2329,98	486,00
2334,59	401,00
2339,19	630,00
2343,79	474,00
2348,38	496,00
2352,97	515,00
2357,55	559,00
2362,13	418,00
2366,71	522,00
2371,28	509,00
2375,85	441,00
2380,41	542,00
2384,97	390,00
2389,52	453,00
2394,07	561,00
2398,62	427,00
2403,16	395,00
2407,70	538,00
2412,23	372,00
2416,76	523,00
2421,29	433,00
2425,81	460,00
2430,32	371,00
2434,84	466,00
2439,34	413,00
2443,85	443,00
2448,35	454,00
2452,84	333,00
2457,33	394,00
2461,82	335,00
2466,30	460,00
2470,78	428,00
2475,25	495,00
2479,72	407,00
2484,19	275,00
2488,65	414,00
2493,11	463,00
2497,56	487,00
2502,01	450,00
2506,46	418,00
2510,90	261,00
2515,34	414,00
2519,77	426,00
2524,20	439,00
2528,62	493,00
2533,04	436,00
2537,46	339,00
2541,87	396,00
2546,28	323,00
2550,68	466,00
2555,08	480,00
2559,48	348,00
2563,87	465,00
2568,26	370,00
2572,64	369,00
2577,02	490,00
2581,40	377,00
2585,77	316,00
2590,14	256,00
2594,50	469,00
2598,86	339,00
2603,22	299,00
2607,57	423,00
2611,92	363,00
2616,26	402,00
2620,60	509,00
2624,94	336,00
2629,27	395,00
2633,60	312,00
2637,92	467,00
2642,24	363,00
2646,56	393,00
2650,87	410,00
2655,18	370,00
2659,48	399,00
2663,78	434,00
2668,08	348,00
2672,37	338,00
2676,66	478,00
2680,95	318,00
2685,23	449,00
2689,50	384,00
2693,78	504,00
2698,05	411,00
2702,31	269,00
2706,57	206,00
2710,83	335,00
2715,08	425,00
2719,33	421,00
2723,58	513,00
2727,82	373,00
2732,06	375,00
2736,29	343,00
2740,53	418,00
2744,75	447,00
2748,97	405,00
2753,19	371,00
2757,41	448,00
2761,62	361,00
2765,83	456,00
2770,03	293,00
2774,23	398,00
2778,43	465,00
2782,62	347,00
2786,81	401,00
2791,00	330,00
2795,18	381,00
2799,35	306,00
2803,53	533,00
2807,70	390,00
2811,86	314,00
2816,03	429,00
2820,19	381,00
2824,34	402,00
2828,49	385,00
2832,64	499,00
2836,78	625,00
2840,92	694,00
2845,06	884,00
2849,19	901,00
2853,32	1009,00
2857,45	908,00
2861,57	899,00
2865,69	930,00
2869,80	873,00
2873,91	865,00
2878,02	918,00
2882,12	941,00
2886,22	924,00
2890,32	934,00
2894,41	939,00
2898,50	873,00
2902,58	884,00
2906,67	742,00
2910,74	708,00
2914,82	719,00
2918,89	693,00
2922,96	660,00
2927,02	679,00
2931,08	647,00
2935,13	490,00
2939,19	570,00
2943,24	521,00
2947,28	512,00
2951,32	436,00
2955,36	356,00
2959,40	504,00
2963,43	452,00
2967,46	427,00
2971,48	473,00
2975,50	405,00
2979,52	453,00
2983,53	450,00
2987,54	411,00
2991,55	419,00
2995,55	285,00
2999,55	272,00
3003,54	381,00
3007,54	326,00
3011,53	289,00
3015,51	211,00
3019,49	272,00
3023,47	234,00
3027,45	285,00
3031,42	285,00
3035,39	333,00
3039,35	290,00
3043,31	307,00
3047,27	236,00
3051,22	213,00
3055,17	187,00
3059,12	281,00
3063,06	241,00
3067,00	286,00
3070,94	236,00
3074,87	265,00
3078,80	296,00
3082,73	258,00
3086,65	448,00
3090,57	270,00
3094,49	196,00
3098,40	212,00
3102,31	208,00
3106,22	288,00
3110,12	268,00
3114,02	306,00
3117,92	302,00
3121,81	248,00
3125,70	272,00
3129,58	322,00
3133,47	154,00
3137,34	184,00
3141,22	325,00
3145,09	381,00
3148,96	209,00
3152,83	185,00
3156,69	268,00
3160,55	266,00
3164,40	315,00
3168,26	270,00
3172,10	400,00
3175,95	259,00
3179,79	178,00
3183,63	329,00
3187,47	213,00
3191,30	152,00
3195,13	239,00
3198,95	258,00
3202,78	233,00
3206,60	140,00
3210,41	283,00
3214,23	284,00
3218,03	272,00
3221,84	247,00
3225,64	122,00
3229,44	273,00
3233,24	167,00
3237,03	141,00
3240,82	200,00
3244,61	193,00
3248,39	354,00
3252,17	210,00
3255,95	268,00
3259,72	260,00
3263,49	289,00
3267,26	174,00
3271,03	224,00
3274,79	191,00
3278,54	316,00
3282,30	307,00
3286,05	232,00
3289,80	287,00
3293,54	183,00
3297,29	353,00
3301,02	265,00
3304,76	251,00
3308,49	216,00
3312,22	198,00
3315,95	264,00
3319,67	319,00
3323,39	271,00
3327,10	207,00
3330,82	346,00
3334,53	326,00
3338,24	201,00
3341,94	189,00
3345,64	215,00
3349,34	244,00
3353,03	226,00
3356,72	127,00
3360,41	193,00
3364,10	173,00
3367,78	308,00
3371,46	257,00
3375,13	166,00
3378,81	410,00
3382,48	205,00
3386,14	334,00
3389,81	218,00
3393,47	284,00
3397,12	205,00
3400,78	379,00
3404,43	284,00
3408,08	222,00
3411,72	169,00
3415,36	198,00
3419,00	279,00
3422,64	121,00
3426,27	206,00
3429,90	169,00
3433,53	160,00
3437,15	158,00
3440,77	172,00
3444,39	303,00
3448,00	178,00
3451,62	159,00
3455,22	304,00
3458,83	214,00
3462,43	233,00
3466,03	177,00
3469,63	234,00
3473,22	214,00
3476,81	81,00
3480,40	193,00
3483,99	137,00
3487,57	280,00
3491,15	179,00
3494,72	218,00
3498,29	234,00
3501,86	243,00
3505,43	158,00
3508,99	255,00
3512,56	142,00
3516,11	248,00
3519,67	190,00
3523,22	213,00
3526,77	253,00
3530,32	263,00
3533,86	172,00
3537,40	174,00
3540,94	175,00
3544,47	218,00
3548,00	288,00
3551,53	191,00
3555,06	228,00
3558,58	243,00
3562,10	235,00
3565,62	224,00
3569,13	194,00
3572,64	294,00
3576,15	189,00
3579,66	221,00
3583,16	180,00
3586,66	153,00
3590,16	144,00
3593,65	292,00
3597,14	94,00
3600,63	210,00
3604,11	241,00
3607,60	197,00
3611,08	169,00
3614,55	244,00
3618,03	133,00
3621,50	216,00
3624,97	192,00
3628,43	211,00
3631,90	143,00
3635,36	74,00
3638,81	247,00
3642,27	120,00
3645,72	161,00
3649,17	212,00
3652,61	77,00
3656,06	105,00
3659,50	152,00
3662,93	75,00
3666,37	253,00
3669,80	247,00
3673,23	76,00
3676,65	161,00
3680,08	188,00
3683,50	196,00
3686,92	204,00
3690,33	92,00
3693,74	246,00
3697,15	196,00
3700,56	170,00
3703,96	147,00
3707,36	155,00
3710,76	184,00
3714,16	194,00
3717,55	186,00
3720,94	91,00
3724,33	155,00
3727,71	137,00
3731,10	239,00
3734,48	228,00
3737,85	169,00
3741,23	145,00
3744,60	197,00
3747,97	116,00
3751,33	132,00
3754,69	124,00
3758,05	192,00
3761,41	93,00
3764,77	133,00
3768,12	138,00
3771,47	96,00
3774,82	162,00
3778,16	2,00
3781,50	-1,00
3784,84	5,00
3788,18	7,00
>>>>>End Processed Spectral Data<<<<<
