SpectraSuite Data File
++++++++++++++++++++++++++++++++++++
Date: Wed Feb 04 15:45:00 ICT 2026
User: Administrator
Dark Spectrum Present: Yes
Reference Spectrum Present: No
Number of Sampled Component Spectra: 1
Spectrometers: MAYP113682
Integration Time (usec): 3000000 (MAYP113682)
Spectra Averaged: 1 (MAYP113682)
Boxcar Smoothing: 0 (MAYP113682)
Correct for Electrical Dark: No (MAYP113682)
Strobe/Lamp Enabled: No (MAYP113682)
Correct for Detector Non-linearity: No (MAYP113682)
Correct for Stray Light: No (MAYP113682)
Number of Pixels in Processed Spectrum: 2068
>>>>>Begin Processed Spectral Data<<<<<
-37534,58	27,00
-37414,56	-1,00
-37295,11	12,00
-37176,24	12,00
-37057,95	510,00
-36940,22	600,00
-36823,05	580,00
-36706,45	536,00
-36590,40	647,00
-36474,90	655,00
-36359,95	688,00
-36245,55	654,00
-36131,68	654,00
-36018,35	566,00
-35905,55	689,00
-35793,29	671,00
-35681,54	635,00
-35570,32	704,00
-35459,62	666,00
-35349,43	735,00
-35239,75	605,00
-35130,58	637,00
-35021,91	712,00
-34913,74	712,00
-34806,07	685,00
-34698,89	720,00
-34592,20	639,00
-34486,00	645,00
-34380,28	589,00
-34275,04	617,00
-34170,27	593,00
-34065,98	776,00
-33962,16	656,00
-33858,81	751,00
-33755,92	685,00
-33653,49	676,00
-33551,52	693,00
-33450,01	802,00
-33348,94	718,00
-33248,33	715,00
-33148,16	659,00
-33048,43	664,00
-32949,14	783,00
-32850,29	696,00
-32751,87	663,00
-32653,89	700,00
-32556,33	692,00
-32459,20	626,00
-32362,49	592,00
-32266,19	598,00
-32170,32	727,00
-32074,86	783,00
-31979,82	740,00
-31885,18	704,00
-31790,95	692,00
-31697,12	683,00
-31603,69	769,00
-31510,67	777,00
-31418,04	693,00
-31325,80	715,00
-31233,95	771,00
-31142,49	708,00
-31051,42	779,00
-30960,73	829,00
-30870,43	839,00
-30780,50	623,00
-30690,95	777,00
-30601,77	726,00
-30512,97	651,00
-30424,53	760,00
-30336,46	833,00
-30248,76	642,00
-30161,42	742,00
-30074,44	691,00
-29987,81	753,00
-29901,55	818,00
-29815,63	715,00
-29730,07	878,00
-29644,86	606,00
-29560,00	793,00
-29475,48	600,00
-29391,30	696,00
-29307,47	657,00
-29223,97	675,00
-29140,81	782,00
-29057,99	720,00
-28975,50	600,00
-28893,34	689,00
-28811,51	691,00
-28730,00	677,00
-28648,82	797,00
-28567,97	841,00
-28487,43	693,00
-28407,21	745,00
-28327,32	760,00
-28247,73	721,00
-28168,46	750,00
-28089,50	635,00
-28010,85	655,00
-27932,51	748,00
-27854,48	741,00
-27776,75	709,00
-27699,32	690,00
-27622,19	744,00
-27545,37	743,00
-27468,84	709,00
-27392,60	850,00
-27316,66	688,00
-27241,01	722,00
-27165,66	812,00
-27090,59	582,00
-27015,81	694,00
-26941,31	733,00
-26867,10	704,00
-26793,17	777,00
-26719,52	728,00
-26646,15	641,00
-26573,06	622,00
-26500,24	747,00
-26427,70	648,00
-26355,43	713,00
-26283,43	727,00
-26211,71	694,00
-26140,25	685,00
-26069,06	933,00
-25998,13	611,00
-25927,46	741,00
-25857,06	681,00
-25786,92	625,00
-25717,04	745,00
-25647,42	806,00
-25578,05	603,00
-25508,94	730,00
-25440,09	752,00
-25371,48	753,00
-25303,13	758,00
-25235,02	647,00
-25167,17	746,00
-25099,56	665,00
-25032,19	627,00
-24965,07	744,00
-24898,20	599,00
-24831,56	780,00
-24765,17	630,00
-24699,01	684,00
-24633,10	730,00
-24567,41	783,00
-24501,97	894,00
-24436,75	664,00
-24371,77	640,00
-24307,03	726,00
-24242,51	658,00
-24178,22	782,00
-24114,16	703,00
-24050,32	787,00
-23986,71	700,00
-23923,32	672,00
-23860,16	704,00
-23797,22	583,00
-23734,50	729,00
-23672,00	679,00
-23609,71	828,00
-23547,65	654,00
-23485,80	750,00
-23424,16	705,00
-23362,74	708,00
-23301,53	647,00
-23240,54	598,00
-23179,75	649,00
-23119,17	833,00
-23058,80	767,00
-22998,64	683,00
-22938,68	812,00
-22878,93	755,00
-22819,39	741,00
-22760,04	682,00
-22700,90	625,00
-22641,96	665,00
-22583,22	709,00
-22524,68	588,00
-22466,33	686,00
-22408,19	627,00
-22350,23	665,00
-22292,48	662,00
-22234,92	837,00
-22177,55	852,00
-22120,37	742,00
-22063,38	628,00
-22006,58	660,00
-21949,98	633,00
-21893,56	634,00
-21837,33	671,00
-21781,28	782,00
-21725,42	630,00
-21669,74	681,00
-21614,25	724,00
-21558,94	675,00
-21503,81	782,00
-21448,86	612,00
-21394,10	639,00
-21339,51	750,00
-21285,10	618,00
-21230,86	675,00
-21176,81	712,00
-21122,93	687,00
-21069,22	709,00
-21015,69	721,00
-20962,33	802,00
-20909,14	708,00
-20856,13	772,00
-20803,28	761,00
-20750,61	664,00
-20698,10	596,00
-20645,76	714,00
-20593,59	695,00
-20541,59	824,00
-20489,75	757,00
-20438,07	513,00
-20386,56	761,00
-20335,22	570,00
-20284,03	719,00
-20233,01	731,00
-20182,15	720,00
-20131,45	765,00
-20080,91	685,00
-20030,52	749,00
-19980,30	580,00
-19930,23	526,00
-19880,32	712,00
-19830,56	696,00
-19780,96	741,00
-19731,52	652,00
-19682,23	677,00
-19633,09	616,00
-19584,10	603,00
-19535,26	740,00
-19486,58	753,00
-19438,04	669,00
-19389,66	693,00
-19341,42	696,00
-19293,33	703,00
-19245,39	698,00
-19197,60	620,00
-19149,95	705,00
-19102,45	773,00
-19055,09	738,00
-19007,87	732,00
-18960,80	766,00
-18913,87	831,00
-18867,09	627,00
-18820,44	724,00
-18773,94	616,00
-18727,57	688,00
-18681,35	606,00
-18635,26	663,00
-18589,31	581,00
-18543,50	643,00
-18497,83	591,00
-18452,29	806,00
-18406,89	634,00
-18361,63	857,00
-18316,50	693,00
-18271,50	717,00
-18226,63	756,00
-18181,90	769,00
-18137,30	748,00
-18092,84	649,00
-18048,50	696,00
-18004,29	621,00
-17960,22	707,00
-17916,27	659,00
-17872,45	642,00
-17828,76	702,00
-17785,20	687,00
-17741,77	603,00
-17698,46	728,00
-17655,28	596,00
-17612,22	659,00
-17569,29	756,00
-17526,48	654,00
-17483,79	689,00
-17441,23	710,00
-17398,79	621,00
-17356,48	710,00
-17314,28	625,00
-17272,21	664,00
-17230,26	751,00
-17188,42	696,00
-17146,71	600,00
-17105,12	675,00
-17063,64	697,00
-17022,28	696,00
-16981,04	660,00
-16939,92	725,00
-16898,91	818,00
-16858,02	729,00
-16817,25	729,00
-16776,59	604,00
-16736,04	638,00
-16695,61	658,00
-16655,29	700,00
-16615,09	706,00
-16574,99	725,00
-16535,01	642,00
-16495,15	711,00
-16455,39	651,00
-16415,74	611,00
-16376,21	676,00
-16336,78	587,00
-16297,46	746,00
-16258,26	606,00
-16219,16	698,00
-16180,17	734,00
-16141,28	752,00
-16102,51	640,00
-16063,84	735,00
-16025,27	718,00
-15986,82	606,00
-15948,46	692,00
-15910,22	668,00
-15872,07	648,00
-15834,04	577,00
-15796,10	712,00
-15758,27	782,00
-15720,54	604,00
-15682,91	699,00
-15645,39	790,00
-15607,97	750,00
-15570,64	685,00
-15533,42	723,00
-15496,30	623,00
-15459,28	680,00
-15422,36	759,00
-15385,54	612,00
-15348,82	736,00
-15312,19	778,00
-15275,66	647,00
-15239,23	614,00
-15202,90	821,00
-15166,67	569,00
-15130,53	676,00
-15094,48	617,00
-15058,54	491,00
-15022,68	692,00
-14986,93	747,00
-14951,26	682,00
-14915,69	684,00
-14880,22	693,00
-14844,84	689,00
-14809,55	742,00
-14774,35	767,00
-14739,25	649,00
-14704,24	602,00
-14669,32	656,00
-14634,49	731,00
-14599,75	667,00
-14565,10	639,00
-14530,55	610,00
-14496,08	686,00
-14461,70	710,00
-14427,41	594,00
-14393,21	676,00
-14359,10	623,00
-14325,07	693,00
-14291,14	701,00
-14257,29	694,00
-14223,52	707,00
-14189,85	758,00
-14156,26	685,00
-14122,76	614,00
-14089,34	648,00
-14056,01	749,00
-14022,76	751,00
-13989,60	622,00
-13956,52	700,00
-13923,53	701,00
-13890,62	608,00
-13857,79	714,00
-13825,05	621,00
-13792,39	639,00
-13759,81	724,00
-13727,31	640,00
-13694,90	685,00
-13662,57	673,00
-13630,31	808,00
-13598,14	836,00
-13566,05	649,00
-13534,05	697,00
-13502,12	652,00
-13470,27	654,00
-13438,50	643,00
-13406,80	691,00
-13375,19	668,00
-13343,66	707,00
-13312,20	710,00
-13280,83	620,00
-13249,53	670,00
-13218,30	685,00
-13187,16	642,00
-13156,09	752,00
-13125,10	670,00
-13094,18	747,00
-13063,34	600,00
-13032,58	551,00
-13001,89	676,00
-12971,28	742,00
-12940,74	714,00
-12910,27	550,00
-12879,88	557,00
-12849,57	766,00
-12819,33	628,00
-12789,16	734,00
-12759,06	660,00
-12729,04	714,00
-12699,09	1421,00
-12669,21	649,00
-12639,41	767,00
-12609,68	661,00
-12580,02	648,00
-12550,43	707,00
-12520,91	641,00
-12491,46	723,00
-12462,08	618,00
-12432,77	623,00
-12403,54	683,00
-12374,37	707,00
-12345,27	741,00
-12316,24	683,00
-12287,29	773,00
-12258,40	760,00
-12229,57	750,00
-12200,82	699,00
-12172,14	672,00
-12143,52	557,00
-12114,97	707,00
-12086,49	719,00
-12058,07	695,00
-12029,73	634,00
-12001,44	660,00
-11973,23	712,00
-11945,08	720,00
-11917,00	801,00
-11888,98	713,00
-11861,03	654,00
-11833,15	733,00
-11805,32	679,00
-11777,57	780,00
-11749,88	722,00
-11722,25	629,00
-11694,69	770,00
-11667,19	666,00
-11639,75	740,00
-11612,38	632,00
-11585,07	806,00
-11557,83	768,00
-11530,65	727,00
-11503,53	832,00
-11476,47	625,00
-11449,48	661,00
-11422,54	780,00
-11395,67	618,00
-11368,86	809,00
-11342,11	572,00
-11315,43	759,00
-11288,80	726,00
-11262,23	691,00
-11235,73	728,00
-11209,28	705,00
-11182,90	762,00
-11156,57	713,00
-11130,31	918,00
-11104,10	650,00
-11077,96	680,00
-11051,87	642,00
-11025,84	732,00
-10999,87	723,00
-10973,96	688,00
-10948,11	687,00
-10922,31	530,00
-10896,58	714,00
-10870,90	830,00
-10845,28	806,00
-10819,71	621,00
-10794,20	682,00
-10768,75	759,00
-10743,36	655,00
-10718,02	641,00
-10692,74	727,00
-10667,52	600,00
-10642,35	650,00
-10617,24	677,00
-10592,18	662,00
-10567,18	649,00
-10542,23	712,00
-10517,34	725,00
-10492,51	766,00
-10467,72	669,00
-10443,00	532,00
-10418,32	651,00
-10393,70	619,00
-10369,14	724,00
-10344,63	562,00
-10320,17	665,00
-10295,77	733,00
-10271,42	590,00
-10247,12	767,00
-10222,88	630,00
-10198,68	586,00
-10174,54	721,00
-10150,46	529,00
-10126,42	700,00
-10102,44	655,00
-10078,51	580,00
-10054,63	629,00
-10030,80	772,00
-10007,03	797,00
-9983,30	616,00
-9959,63	589,00
-9936,01	679,00
-9912,44	527,00
-9888,92	460,00
-9865,44	517,00
-9842,02	629,00
-9818,65	587,00
-9795,33	566,00
-9772,06	488,00
-9748,84	498,00
-9725,67	443,00
-9702,55	569,00
-9679,47	511,00
-9656,45	567,00
-9633,47	291,00
-9610,55	526,00
-9587,67	456,00
-9564,84	653,00
-9542,06	310,00
-9519,32	511,00
-9496,64	407,00
-9474,00	239,00
-9451,41	273,00
-9428,87	485,00
-9406,37	129,00
-9383,92	255,00
-9361,52	219,00
-9339,17	319,00
-9316,86	193,00
-9294,60	223,00
-9272,38	206,00
-9250,21	270,00
-9228,09	127,00
-9206,01	144,00
-9183,98	99,00
-9162,00	-25,00
-9140,06	261,00
-9118,16	158,00
-9096,31	37,00
-9074,51	113,00
-9052,75	195,00
-9031,04	298,00
-9009,37	282,00
-8987,74	375,00
-8966,16	323,00
-8944,63	108,00
-8923,14	221,00
-8901,69	196,00
-8880,29	282,00
-8858,93	337,00
-8837,61	349,00
-8816,34	290,00
-8795,11	408,00
-8773,92	393,00
-8752,78	321,00
-8731,68	221,00
-8710,62	345,00
-8689,61	356,00
-8668,63	313,00
-8647,70	462,00
-8626,82	241,00
-8605,97	481,00
-8585,17	449,00
-8564,41	418,00
-8543,69	359,00
-8523,01	181,00
-8502,37	437,00
-8481,78	342,00
-8461,23	187,00
-8440,71	450,00
-8420,24	320,00
-8399,81	394,00
-8379,42	668,00
-8359,08	564,00
-8338,77	527,00
-8318,50	355,00
-8298,27	450,00
-8278,09	321,00
-8257,94	431,00
-8237,83	460,00
-8217,76	382,00
-8197,74	495,00
-8177,75	605,00
-8157,80	536,00
-8137,89	569,00
-8118,02	340,00
-8098,19	560,00
-8078,40	433,00
-8058,65	395,00
-8038,93	509,00
-8019,26	365,00
-7999,62	494,00
-7980,02	436,00
-7960,46	373,00
-7940,94	457,00
-7921,46	552,00
-7902,01	470,00
-7882,60	679,00
-7863,23	427,00
-7843,90	459,00
-7824,61	289,00
-7805,35	656,00
-7786,13	484,00
-7766,95	506,00
-7747,80	572,00
-7728,69	623,00
-7709,62	497,00
-7690,59	376,00
-7671,59	585,00
-7652,63	458,00
-7633,70	521,00
-7614,81	490,00
-7595,96	566,00
-7577,15	532,00
-7558,37	503,00
-7539,62	658,00
-7520,91	436,00
-7502,24	556,00
-7483,60	465,00
-7465,00	429,00
-7446,44	526,00
-7427,91	572,00
-7409,41	625,00
-7390,95	556,00
-7372,53	391,00
-7354,14	387,00
-7335,78	464,00
-7317,46	502,00
-7299,18	382,00
-7280,92	528,00
-7262,71	542,00
-7244,52	426,00
-7226,38	412,00
-7208,26	561,00
-7190,18	523,00
-7172,14	610,00
-7154,12	422,00
-7136,15	567,00
-7118,20	567,00
-7100,29	568,00
-7082,41	659,00
-7064,57	434,00
-7046,76	459,00
-7028,98	406,00
-7011,24	559,00
-6993,53	406,00
-6975,85	364,00
-6958,20	431,00
-6940,59	493,00
-6923,01	477,00
-6905,46	470,00
-6887,94	482,00
-6870,46	471,00
-6853,01	558,00
-6835,59	496,00
-6818,21	518,00
-6800,85	453,00
-6783,53	408,00
-6766,24	416,00
-6748,98	351,00
-6731,76	394,00
-6714,56	487,00
-6697,40	367,00
-6680,26	517,00
-6663,16	555,00
-6646,09	592,00
-6629,05	528,00
-6612,05	491,00
-6595,07	513,00
-6578,13	539,00
-6561,21	556,00
-6544,33	547,00
-6527,47	450,00
-6510,65	455,00
-6493,86	464,00
-6477,10	510,00
-6460,36	530,00
-6443,66	322,00
-6426,99	439,00
-6410,35	396,00
-6393,74	562,00
-6377,16	421,00
-6360,61	493,00
-6344,09	452,00
-6327,59	436,00
-6311,13	446,00
-6294,70	529,00
-6278,29	553,00
-6261,92	406,00
-6245,58	507,00
-6229,26	623,00
-6212,97	583,00
-6196,72	521,00
-6180,49	434,00
-6164,29	379,00
-6148,12	542,00
-6131,98	554,00
-6115,86	539,00
-6099,78	381,00
-6083,72	399,00
-6067,69	359,00
-6051,69	474,00
-6035,72	509,00
-6019,78	597,00
-6003,87	480,00
-5987,98	421,00
-5972,12	590,00
-5956,29	511,00
-5940,49	566,00
-5924,71	628,00
-5908,96	562,00
-5893,24	527,00
-5877,55	512,00
-5861,89	506,00
-5846,25	435,00
-5830,64	652,00
-5815,05	411,00
-5799,50	640,00
-5783,97	586,00
-5768,47	600,00
-5752,99	606,00
-5737,55	438,00
-5722,12	458,00
-5706,73	427,00
-5691,36	666,00
-5676,02	533,00
-5660,71	654,00
-5645,42	568,00
-5630,16	539,00
-5614,92	632,00
-5599,71	457,00
-5584,53	545,00
-5569,37	470,00
-5554,24	781,00
-5539,14	642,00
-5524,06	555,00
-5509,01	480,00
-5493,98	550,00
-5478,98	477,00
-5464,00	525,00
-5449,05	274,00
-5434,13	561,00
-5419,23	573,00
-5404,36	486,00
-5389,51	453,00
-5374,69	561,00
-5359,89	469,00
-5345,12	461,00
-5330,37	523,00
-5315,65	558,00
-5300,95	568,00
-5286,28	532,00
-5271,63	439,00
-5257,01	468,00
-5242,41	517,00
-5227,84	524,00
-5213,29	558,00
-5198,76	586,00
-5184,26	524,00
-5169,79	626,00
-5155,33	448,00
-5140,91	607,00
-5126,51	484,00
-5112,13	497,00
-5097,77	616,00
-5083,44	749,00
-5069,13	461,00
-5054,85	556,00
-5040,59	432,00
-5026,36	534,00
-5012,15	570,00
-4997,96	517,00
-4983,80	549,00
-4969,66	545,00
-4955,54	685,00
-4941,44	584,00
-4927,37	553,00
-4913,33	451,00
-4899,30	397,00
-4885,30	534,00
-4871,33	526,00
-4857,37	517,00
-4843,44	609,00
-4829,53	591,00
-4815,65	555,00
-4801,79	477,00
-4787,95	462,00
-4774,13	446,00
-4760,34	721,00
-4746,56	529,00
-4732,82	616,00
-4719,09	682,00
-4705,38	554,00
-4691,70	531,00
-4678,04	554,00
-4664,41	532,00
-4650,79	689,00
-4637,20	671,00
-4623,63	567,00
-4610,08	607,00
-4596,56	609,00
-4583,05	473,00
-4569,57	542,00
-4556,11	707,00
-4542,67	555,00
-4529,25	591,00
-4515,86	642,00
-4502,49	517,00
-4489,13	527,00
-4475,80	616,00
-4462,49	618,00
-4449,21	888,00
-4435,94	534,00
-4422,70	589,00
-4409,47	448,00
-4396,27	487,00
-4383,09	634,00
-4369,93	685,00
-4356,79	613,00
-4343,67	591,00
-4330,58	618,00
-4317,50	706,00
-4304,45	532,00
-4291,41	673,00
-4278,40	601,00
-4265,41	591,00
-4252,44	687,00
-4239,49	616,00
-4226,55	657,00
-4213,65	676,00
-4200,76	558,00
-4187,89	538,00
-4175,04	518,00
-4162,21	687,00
-4149,40	638,00
-4136,61	587,00
-4123,85	702,00
-4111,10	648,00
-4098,37	715,00
-4085,66	715,00
-4072,98	726,00
-4060,31	642,00
-4047,66	839,00
-4035,04	866,00
-4022,43	687,00
-4009,84	805,00
-3997,27	748,00
-3984,72	660,00
-3972,19	657,00
-3959,69	625,00
-3947,20	605,00
-3934,73	696,00
-3922,27	675,00
-3909,84	772,00
-3897,43	630,00
-3885,04	797,00
-3872,67	673,00
-3860,31	711,00
-3847,98	786,00
-3835,66	678,00
-3823,36	758,00
-3811,09	652,00
-3798,83	731,00
-3786,59	771,00
-3774,37	871,00
-3762,17	671,00
-3749,98	576,00
-3737,82	647,00
-3725,67	752,00
-3713,55	626,00
-3701,44	681,00
-3689,35	643,00
-3677,28	820,00
-3665,22	670,00
-3653,19	720,00
-3641,17	569,00
-3629,18	718,00
-3617,20	848,00
-3605,24	818,00
-3593,30	708,00
-3581,37	787,00
-3569,47	674,00
-3557,58	818,00
-3545,71	638,00
-3533,86	677,00
-3522,02	758,00
-3510,21	740,00
-3498,41	721,00
-3486,63	696,00
-3474,87	634,00
-3463,12	729,00
-3451,40	735,00
-3439,69	706,00
-3428,00	749,00
-3416,33	687,00
-3404,67	522,00
-3393,03	631,00
-3381,41	710,00
-3369,81	816,00
-3358,22	616,00
-3346,66	830,00
-3335,10	733,00
-3323,57	640,00
-3312,06	806,00
-3300,56	771,00
-3289,08	721,00
-3277,61	771,00
-3266,16	755,00
-3254,73	622,00
-3243,32	673,00
-3231,92	670,00
-3220,55	609,00
-3209,18	703,00
-3197,84	545,00
-3186,51	637,00
-3175,20	706,00
-3163,90	698,00
-3152,63	743,00
-3141,36	772,00
-3130,12	776,00
-3118,89	589,00
-3107,68	817,00
-3096,49	670,00
-3085,31	764,00
-3074,15	642,00
-3063,00	692,00
-3051,87	671,00
-3040,76	587,00
-3029,67	864,00
-3018,59	926,00
-3007,52	822,00
-2996,48	767,00
-2985,44	662,00
-2974,43	820,00
-2963,43	687,00
-2952,45	620,00
-2941,48	818,00
-2930,53	644,00
-2919,60	700,00
-2908,68	739,00
-2897,78	694,00
-2886,89	722,00
-2876,02	666,00
-2865,17	726,00
-2854,33	669,00
-2843,50	704,00
-2832,70	823,00
-2821,90	740,00
-2811,13	720,00
-2800,37	658,00
-2789,62	801,00
-2778,89	594,00
-2768,18	633,00
-2757,48	738,00
-2746,80	883,00
-2736,13	645,00
-2725,48	909,00
-2714,84	629,00
-2704,22	769,00
-2693,61	800,00
-2683,02	774,00
-2672,45	616,00
-2661,89	608,00
-2651,34	660,00
-2640,81	639,00
-2630,30	779,00
-2619,80	640,00
-2609,31	718,00
-2598,84	580,00
-2588,39	653,00
-2577,95	631,00
-2567,52	623,00
-2557,11	649,00
-2546,71	688,00
-2536,33	758,00
-2525,97	688,00
-2515,62	738,00
-2505,28	666,00
-2494,96	692,00
-2484,65	748,00
-2474,36	328,00
-2464,08	705,00
-2453,82	756,00
-2443,57	677,00
-2433,33	670,00
-2423,11	732,00
-2412,91	822,00
-2402,72	683,00
-2392,54	762,00
-2382,38	573,00
-2372,23	747,00
-2362,09	5366,00
-2351,97	587,00
-2341,87	667,00
-2331,78	758,00
-2321,70	802,00
-2311,64	697,00
-2301,59	714,00
-2291,55	674,00
-2281,53	692,00
-2271,53	675,00
-2261,53	751,00
-2251,55	833,00
-2241,59	732,00
-2231,64	733,00
-2221,70	666,00
-2211,78	760,00
-2201,87	720,00
-2191,97	741,00
-2182,09	692,00
-2172,22	591,00
-2162,37	630,00
-2152,53	526,00
-2142,70	620,00
-2132,89	570,00
-2123,09	733,00
-2113,30	667,00
-2103,53	680,00
-2093,77	536,00
-2084,02	664,00
-2074,29	750,00
-2064,57	832,00
-2054,86	804,00
-2045,17	687,00
-2035,49	635,00
-2025,82	614,00
-2016,17	696,00
-2006,53	736,00
-1996,91	699,00
-1987,29	717,00
-1977,69	726,00
-1968,11	650,00
-1958,53	716,00
-1948,97	692,00
-1939,42	751,00
-1929,89	661,00
-1920,37	681,00
-1910,86	764,00
-1901,36	786,00
-1891,88	744,00
-1882,41	724,00
-1872,95	760,00
-1863,51	686,00
-1854,08	765,00
-1844,66	779,00
-1835,26	831,00
-1825,86	694,00
-1816,48	726,00
-1807,11	713,00
-1797,76	603,00
-1788,42	682,00
-1779,09	745,00
-1769,77	688,00
-1760,47	758,00
-1751,17	715,00
-1741,89	651,00
-1732,63	677,00
-1723,37	846,00
-1714,13	775,00
-1704,90	695,00
-1695,68	766,00
-1686,48	669,00
-1677,29	715,00
-1668,11	913,00
-1658,94	914,00
-1649,78	727,00
-1640,64	762,00
-1631,51	783,00
-1622,39	692,00
-1613,28	559,00
-1604,19	788,00
-1595,10	784,00
-1586,03	663,00
-1576,97	708,00
-1567,93	665,00
-1558,89	686,00
-1549,87	672,00
-1540,86	706,00
-1531,86	746,00
-1522,87	762,00
-1513,90	830,00
-1504,93	781,00
-1495,98	685,00
-1487,04	663,00
-1478,12	601,00
-1469,20	670,00
-1460,30	753,00
-1451,40	895,00
-1442,52	732,00
-1433,65	675,00
-1424,80	651,00
-1415,95	716,00
-1407,12	809,00
-1398,30	781,00
-1389,48	758,00
-1380,69	760,00
-1371,90	672,00
-1363,12	738,00
-1354,36	819,00
-1345,60	723,00
-1336,86	785,00
-1328,13	808,00
-1319,41	645,00
-1310,70	649,00
-1302,01	736,00
-1293,32	781,00
-1284,65	752,00
-1275,99	679,00
-1267,33	694,00
-1258,69	737,00
-1250,06	732,00
-1241,45	661,00
-1232,84	656,00
-1224,25	720,00
-1215,66	796,00
-1207,09	675,00
-1198,53	802,00
-1189,97	594,00
-1181,43	610,00
-1172,91	733,00
-1164,39	851,00
-1155,88	580,00
-1147,38	687,00
-1138,90	749,00
-1130,43	650,00
-1121,96	813,00
-1113,51	689,00
-1105,07	605,00
-1096,64	787,00
-1088,22	688,00
-1079,81	699,00
-1071,41	728,00
-1063,02	776,00
-1054,65	743,00
-1046,28	721,00
-1037,92	819,00
-1029,58	661,00
-1021,24	690,00
-1012,92	937,00
-1004,61	692,00
-996,30	836,00
-988,01	568,00
-979,73	684,00
-971,46	749,00
-963,20	612,00
-954,95	684,00
-946,71	682,00
-938,48	653,00
-930,26	678,00
-922,06	750,00
-913,86	657,00
-905,67	751,00
-897,49	731,00
-889,33	597,00
-881,17	824,00
-873,02	705,00
-864,89	805,00
-856,76	748,00
-848,65	696,00
-840,54	837,00
-832,45	890,00
-824,36	615,00
-816,29	778,00
-808,22	767,00
-800,17	801,00
-792,12	769,00
-784,09	627,00
-776,06	734,00
-768,05	819,00
-760,04	740,00
-752,05	731,00
-744,07	752,00
-736,09	732,00
-728,13	616,00
-720,17	582,00
-712,23	632,00
-704,29	711,00
-696,37	760,00
-688,45	616,00
-680,55	763,00
-672,65	663,00
-664,77	684,00
-656,89	672,00
-649,03	786,00
-641,17	687,00
-633,32	728,00
-625,49	781,00
-617,66	567,00
-609,84	788,00
-602,03	723,00
-594,23	645,00
-586,45	679,00
-578,67	639,00
-570,90	613,00
-563,14	713,00
-555,39	696,00
-547,65	766,00
-539,91	772,00
-532,19	687,00
-524,48	872,00
-516,78	723,00
-509,08	633,00
-501,40	660,00
-493,72	772,00
-486,06	726,00
-478,40	894,00
-470,76	715,00
-463,12	592,00
-455,49	672,00
-447,87	706,00
-440,26	712,00
-432,66	774,00
-425,07	838,00
-417,49	772,00
-409,92	660,00
-402,35	696,00
-394,80	680,00
-387,25	602,00
-379,72	606,00
-372,19	754,00
-364,67	844,00
-357,17	710,00
-349,67	726,00
-342,18	693,00
-334,69	924,00
-327,22	764,00
-319,76	882,00
-312,30	808,00
-304,86	772,00
-297,42	693,00
-290,00	747,00
-282,58	755,00
-275,17	917,00
-267,77	701,00
-260,37	795,00
-252,99	799,00
-245,62	881,00
-238,25	794,00
-230,90	774,00
-223,55	761,00
-216,21	808,00
-208,88	972,00
-201,56	872,00
-194,25	952,00
-186,94	973,00
-179,65	996,00
-172,36	1025,00
-165,08	964,00
-157,81	1203,00
-150,55	1189,00
-143,30	1329,00
-136,06	1216,00
-128,82	1448,00
-121,60	1464,00
-114,38	1646,00
-107,17	1632,00
-99,97	1884,00
-92,78	1946,00
-85,60	2158,00
-78,42	2409,00
-71,25	2728,00
-64,10	2950,00
-56,95	3426,00
-49,81	3806,00
-42,67	4616,00
-35,55	5622,00
-28,43	7420,00
-21,33	11342,00
-14,23	34018,00
-7,14	56670,00
-0,05	56467,00
7,02	56225,00
14,09	56403,00
21,14	35820,00
28,19	15327,00
35,23	9593,00
42,27	7460,00
49,29	6119,00
56,31	5073,00
63,32	4460,00
70,32	3874,00
77,31	3282,00
84,29	2950,00
91,27	2639,00
98,23	2558,00
105,19	2285,00
112,14	2433,00
119,09	3110,00
126,02	4218,00
132,95	4365,00
139,87	4458,00
146,78	4494,00
153,68	4356,00
160,58	4215,00
167,46	4123,00
174,34	4155,00
181,21	4035,00
188,08	3944,00
194,93	4209,00
201,78	4059,00
208,62	4005,00
215,45	3968,00
222,27	4231,00
229,09	3958,00
235,90	3990,00
242,70	3992,00
249,49	3992,00
256,27	3828,00
263,05	3793,00
269,82	3739,00
276,58	3853,00
283,33	3663,00
290,08	3711,00
296,82	3683,00
303,55	3512,00
310,27	3564,00
316,98	3559,00
323,69	3545,00
330,39	3446,00
337,08	3573,00
343,76	3478,00
350,44	3563,00
357,11	3518,00
363,77	3471,00
370,42	3385,00
377,07	3372,00
383,71	3415,00
390,34	3338,00
396,96	3285,00
403,58	3522,00
410,19	3385,00
416,79	3601,00
423,38	3539,00
429,97	3476,00
436,55	3136,00
443,12	3351,00
449,68	3180,00
456,24	3277,00
462,79	3218,00
469,33	3099,00
475,86	3119,00
482,39	3101,00
488,91	3086,00
495,42	3103,00
501,93	3007,00
508,42	2887,00
514,91	3013,00
521,40	2939,00
527,87	2988,00
534,34	2826,00
540,80	3022,00
547,25	3137,00
553,70	2885,00
560,14	2879,00
566,57	2959,00
573,00	2895,00
579,41	2925,00
585,83	2826,00
592,23	3049,00
598,62	2877,00
605,01	2813,00
611,40	2813,00
617,77	2826,00
624,14	2808,00
630,50	2995,00
636,85	2739,00
643,20	2833,00
649,54	2832,00
655,87	2725,00
662,20	2836,00
668,52	2845,00
674,83	2694,00
681,13	2850,00
687,43	2698,00
693,72	2634,00
700,00	2690,00
706,28	2687,00
712,55	2734,00
718,81	2783,00
725,07	2768,00
731,32	2712,00
737,56	2723,00
743,79	2735,00
750,02	2847,00
756,24	2659,00
762,46	2660,00
768,67	2967,00
774,87	2691,00
781,06	2822,00
787,25	2819,00
793,43	2708,00
799,60	2682,00
805,77	2799,00
811,93	2742,00
818,08	2686,00
824,23	2699,00
830,37	2942,00
836,50	2745,00
842,63	2861,00
848,75	2745,00
854,87	2741,00
860,97	2634,00
867,07	2734,00
873,17	2857,00
879,25	2788,00
885,33	2756,00
891,41	2895,00
897,47	2807,00
903,53	2737,00
909,59	2611,00
915,63	2713,00
921,67	2708,00
927,71	2629,00
933,74	2592,00
939,76	2505,00
945,77	2570,00
951,78	2642,00
957,78	2523,00
963,78	2568,00
969,77	2460,00
975,75	2519,00
981,72	2665,00
987,69	3395,00
993,66	2590,00
999,61	2675,00
1005,56	2476,00
1011,51	2613,00
1017,44	2482,00
1023,37	2664,00
1029,30	2528,00
1035,22	2715,00
1041,13	2532,00
1047,03	2690,00
1052,93	2932,00
1058,83	3193,00
1064,71	3429,00
1070,59	3175,00
1076,47	2953,00
1082,33	2780,00
1088,20	2793,00
1094,05	2693,00
1099,90	2556,00
1105,74	2534,00
1111,58	2699,00
1117,41	2752,00
1123,23	2989,00
1129,05	3081,00
1134,86	3119,00
1140,67	2956,00
1146,47	2628,00
1152,26	2668,00
1158,05	2458,00
1163,83	2595,00
1169,60	2498,00
1175,37	2590,00
1181,13	2473,00
1186,89	2415,00
1192,64	2529,00
1198,38	2608,00
1204,12	2358,00
1209,85	2477,00
1215,58	2537,00
1221,30	2450,00
1227,02	2430,00
1232,72	2581,00
1238,43	2413,00
1244,12	2405,00
1249,81	2360,00
1255,50	2555,00
1261,17	2446,00
1266,85	2447,00
1272,51	2685,00
1278,17	2666,00
1283,83	2666,00
1289,47	2999,00
1295,12	3658,00
1300,75	3594,00
1306,38	3257,00
1312,01	2966,00
1317,63	2834,00
1323,24	2738,00
1328,85	2642,00
1334,45	2600,00
1340,04	2574,00
1345,63	2719,00
1351,22	2771,00
1356,80	2701,00
1362,37	2731,00
1367,93	2789,00
1373,49	2796,00
1379,05	2819,00
1384,60	2791,00
1390,14	2605,00
1395,68	2734,00
1401,21	2709,00
1406,74	2717,00
1412,26	2827,00
1417,77	3044,00
1423,28	3075,00
1428,78	3268,00
1434,28	3633,00
1439,77	3906,00
1445,26	3870,00
1450,74	3759,00
1456,22	3542,00
1461,68	3478,00
1467,15	3392,00
1472,61	3099,00
1478,06	3081,00
1483,51	2824,00
1488,95	2465,00
1494,38	2557,00
1499,81	2417,00
1505,24	2457,00
1510,65	2483,00
1516,07	2482,00
1521,48	2428,00
1526,88	2391,00
1532,27	2243,00
1537,67	2358,00
1543,05	2403,00
1548,43	2337,00
1553,81	2342,00
1559,18	2234,00
1564,54	2368,00
1569,90	2334,00
1575,25	2185,00
1580,60	2252,00
1585,94	2284,00
1591,28	2286,00
1596,61	2254,00
1601,93	2236,00
1607,25	2321,00
1612,57	2381,00
1617,88	2152,00
1623,18	2237,00
1628,48	2296,00
1633,77	2283,00
1639,06	2333,00
1644,34	2180,00
1649,62	2131,00
1654,89	2202,00
1660,16	2093,00
1665,42	2181,00
1670,67	2178,00
1675,92	2035,00
1681,17	2247,00
1686,41	2197,00
1691,64	2090,00
1696,87	2090,00
1702,10	2130,00
1707,32	2044,00
1712,53	2093,00
1717,74	2080,00
1722,94	2087,00
1728,14	1999,00
1733,33	1983,00
1738,52	1879,00
1743,70	2084,00
1748,88	2137,00
1754,05	2138,00
1759,22	2018,00
1764,38	2303,00
1769,53	1936,00
1774,69	2068,00
1779,83	2070,00
1784,97	2012,00
1790,11	2049,00
1795,24	1839,00
1800,36	1891,00
1805,48	2018,00
1810,60	1900,00
1815,71	1891,00
1820,82	1899,00
1825,92	1896,00
1831,01	1976,00
1836,10	2010,00
1841,19	1922,00
1846,26	1752,00
1851,34	1834,00
1856,41	1896,00
1861,47	1928,00
1866,53	1902,00
1871,59	1903,00
1876,64	1789,00
1881,68	1854,00
1886,72	1886,00
1891,76	1863,00
1896,79	1749,00
1901,81	1768,00
1906,83	1904,00
1911,85	1732,00
1916,86	1800,00
1921,86	1787,00
1926,86	1771,00
1931,86	1729,00
1936,85	1682,00
1941,83	1719,00
1946,81	1703,00
1951,79	1823,00
1956,76	1609,00
1961,72	1633,00
1966,68	1610,00
1971,64	1671,00
1976,59	1684,00
1981,54	1629,00
1986,48	1606,00
1991,42	1676,00
1996,35	1755,00
2001,27	1590,00
2006,20	1740,00
2011,11	1593,00
2016,03	1568,00
2020,93	1503,00
2025,84	1697,00
2030,73	1765,00
2035,63	1597,00
2040,52	1539,00
2045,40	1462,00
2050,28	1540,00
2055,15	1627,00
2060,02	1453,00
2064,89	1697,00
2069,75	1622,00
2074,60	1630,00
2079,46	1502,00
2084,30	1589,00
2089,14	1552,00
2093,98	1608,00
2098,81	1702,00
2103,64	1634,00
2108,46	1554,00
2113,28	1604,00
2118,09	1536,00
2122,90	1577,00
2127,70	1436,00
2132,50	1558,00
2137,30	1564,00
2142,09	1552,00
2146,87	1530,00
2151,66	1539,00
2156,43	1567,00
2161,20	1569,00
2165,97	1454,00
2170,73	1477,00
2175,49	1574,00
2180,24	1592,00
2184,99	1694,00
2189,74	1641,00
2194,48	1564,00
2199,21	1656,00
2203,94	1328,00
2208,67	1476,00
2213,39	1392,00
2218,11	1364,00
2222,82	1545,00
2227,53	1341,00
2232,23	1504,00
2236,93	1409,00
2241,63	1469,00
2246,32	1437,00
2251,00	1498,00
2255,68	1494,00
2260,36	1359,00
2265,03	1405,00
2269,70	1456,00
2274,36	1416,00
2279,02	1370,00
2283,68	1382,00
2288,33	1479,00
2292,97	1421,00
2297,61	1384,00
2302,25	1486,00
2306,88	1423,00
2311,51	1430,00
2316,14	1281,00
2320,75	1390,00
2325,37	1325,00
2329,98	1544,00
2334,59	1339,00
2339,19	1390,00
2343,79	1246,00
2348,38	1266,00
2352,97	1338,00
2357,55	1362,00
2362,13	1280,00
2366,71	1335,00
2371,28	1413,00
2375,85	1400,00
2380,41	1345,00
2384,97	1303,00
2389,52	1290,00
2394,07	1453,00
2398,62	1378,00
2403,16	1335,00
2407,70	1222,00
2412,23	1330,00
2416,76	1375,00
2421,29	1291,00
2425,81	1273,00
2430,32	1241,00
2434,84	1232,00
2439,34	1277,00
2443,85	1202,00
2448,35	1259,00
2452,84	1228,00
2457,33	1284,00
2461,82	1168,00
2466,30	1234,00
2470,78	1217,00
2475,25	1189,00
2479,72	1124,00
2484,19	1242,00
2488,65	1219,00
2493,11	1191,00
2497,56	1209,00
2502,01	1010,00
2506,46	1307,00
2510,90	1201,00
2515,34	1254,00
2519,77	1127,00
2524,20	1244,00
2528,62	1282,00
2533,04	1251,00
2537,46	1094,00
2541,87	1047,00
2546,28	1205,00
2550,68	1084,00
2555,08	1180,00
2559,48	1205,00
2563,87	1163,00
2568,26	1213,00
2572,64	1244,00
2577,02	1263,00
2581,40	1029,00
2585,77	1163,00
2590,14	1087,00
2594,50	1078,00
2598,86	1160,00
2603,22	1047,00
2607,57	1156,00
2611,92	1206,00
2616,26	1085,00
2620,60	1199,00
2624,94	1057,00
2629,27	1191,00
2633,60	1027,00
2637,92	1199,00
2642,24	1313,00
2646,56	1164,00
2650,87	1140,00
2655,18	1215,00
2659,48	1096,00
2663,78	1132,00
2668,08	1206,00
2672,37	1093,00
2676,66	1333,00
2680,95	1277,00
2685,23	1127,00
2689,50	1254,00
2693,78	1034,00
2698,05	1185,00
2702,31	1159,00
2706,57	1289,00
2710,83	1295,00
2715,08	1279,00
2719,33	1364,00
2723,58	1249,00
2727,82	1250,00
2732,06	1103,00
2736,29	1226,00
2740,53	1210,00
2744,75	1117,00
2748,97	1217,00
2753,19	1125,00
2757,41	1128,00
2761,62	1223,00
2765,83	1145,00
2770,03	1140,00
2774,23	1264,00
2778,43	1121,00
2782,62	1152,00
2786,81	1166,00
2791,00	1165,00
2795,18	1251,00
2799,35	1151,00
2803,53	1226,00
2807,70	1355,00
2811,86	1189,00
2816,03	1318,00
2820,19	1363,00
2824,34	1439,00
2828,49	1422,00
2832,64	1673,00
2836,78	1691,00
2840,92	1780,00
2845,06	2067,00
2849,19	2402,00
2853,32	2572,00
2857,45	2686,00
2861,57	2460,00
2865,69	2543,00
2869,80	2424,00
2873,91	2442,00
2878,02	2630,00
2882,12	2729,00
2886,22	2595,00
2890,32	2706,00
2894,41	2513,00
2898,50	2321,00
2902,58	2388,00
2906,67	2221,00
2910,74	2077,00
2914,82	1974,00
2918,89	1929,00
2922,96	1992,00
2927,02	1906,00
2931,08	1707,00
2935,13	1591,00
2939,19	1724,00
2943,24	1537,00
2947,28	1502,00
2951,32	1470,00
2955,36	1251,00
2959,40	1305,00
2963,43	1358,00
2967,46	1132,00
2971,48	1279,00
2975,50	1156,00
2979,52	1238,00
2983,53	1050,00
2987,54	1038,00
2991,55	1143,00
2995,55	1110,00
2999,55	918,00
3003,54	912,00
3007,54	1037,00
3011,53	841,00
3015,51	921,00
3019,49	886,00
3023,47	965,00
3027,45	937,00
3031,42	832,00
3035,39	928,00
3039,35	924,00
3043,31	958,00
3047,27	848,00
3051,22	1016,00
3055,17	1022,00
3059,12	819,00
3063,06	836,00
3067,00	832,00
3070,94	844,00
3074,87	779,00
3078,80	976,00
3082,73	824,00
3086,65	846,00
3090,57	907,00
3094,49	860,00
3098,40	891,00
3102,31	795,00
3106,22	856,00
3110,12	837,00
3114,02	856,00
3117,92	935,00
3121,81	870,00
3125,70	771,00
3129,58	771,00
3133,47	801,00
3137,34	853,00
3141,22	774,00
3145,09	898,00
3148,96	804,00
3152,83	832,00
3156,69	1038,00
3160,55	885,00
3164,40	858,00
3168,26	732,00
3172,10	896,00
3175,95	966,00
3179,79	892,00
3183,63	901,00
3187,47	964,00
3191,30	967,00
3195,13	897,00
3198,95	787,00
3202,78	842,00
3206,60	802,00
3210,41	795,00
3214,23	826,00
3218,03	694,00
3221,84	762,00
3225,64	878,00
3229,44	688,00
3233,24	792,00
3237,03	836,00
3240,82	873,00
3244,61	730,00
3248,39	697,00
3252,17	758,00
3255,95	1017,00
3259,72	829,00
3263,49	894,00
3267,26	776,00
3271,03	800,00
3274,79	765,00
3278,54	690,00
3282,30	813,00
3286,05	770,00
3289,80	748,00
3293,54	699,00
3297,29	880,00
3301,02	766,00
3304,76	842,00
3308,49	782,00
3312,22	736,00
3315,95	829,00
3319,67	815,00
3323,39	806,00
3327,10	790,00
3330,82	860,00
3334,53	750,00
3338,24	782,00
3341,94	797,00
3345,64	759,00
3349,34	809,00
3353,03	811,00
3356,72	765,00
3360,41	783,00
3364,10	772,00
3367,78	743,00
3371,46	764,00
3375,13	756,00
3378,81	759,00
3382,48	751,00
3386,14	813,00
3389,81	737,00
3393,47	875,00
3397,12	820,00
3400,78	860,00
3404,43	694,00
3408,08	960,00
3411,72	788,00
3415,36	752,00
3419,00	834,00
3422,64	747,00
3426,27	815,00
3429,90	749,00
3433,53	732,00
3437,15	737,00
3440,77	740,00
3444,39	830,00
3448,00	760,00
3451,62	717,00
3455,22	734,00
3458,83	780,00
3462,43	712,00
3466,03	780,00
3469,63	645,00
3473,22	793,00
3476,81	736,00
3480,40	678,00
3483,99	631,00
3487,57	835,00
3491,15	745,00
3494,72	611,00
3498,29	721,00
3501,86	745,00
3505,43	818,00
3508,99	678,00
3512,56	653,00
3516,11	722,00
3519,67	737,00
3523,22	756,00
3526,77	624,00
3530,32	718,00
3533,86	744,00
3537,40	781,00
3540,94	634,00
3544,47	608,00
3548,00	695,00
3551,53	814,00
3555,06	758,00
3558,58	756,00
3562,10	719,00
3565,62	663,00
3569,13	742,00
3572,64	732,00
3576,15	679,00
3579,66	841,00
3583,16	737,00
3586,66	714,00
3590,16	591,00
3593,65	593,00
3597,14	665,00
3600,63	670,00
3604,11	789,00
3607,60	668,00
3611,08	762,00
3614,55	628,00
3618,03	576,00
3621,50	627,00
3624,97	655,00
3628,43	797,00
3631,90	651,00
3635,36	663,00
3638,81	544,00
3642,27	717,00
3645,72	716,00
3649,17	696,00
3652,61	533,00
3656,06	540,00
3659,50	598,00
3662,93	722,00
3666,37	725,00
3669,80	702,00
3673,23	618,00
3676,65	762,00
3680,08	826,00
3683,50	636,00
3686,92	641,00
3690,33	574,00
3693,74	600,00
3697,15	588,00
3700,56	631,00
3703,96	670,00
3707,36	638,00
3710,76	575,00
3714,16	567,00
3717,55	583,00
3720,94	697,00
3724,33	622,00
3727,71	734,00
3731,10	624,00
3734,48	509,00
3737,85	602,00
3741,23	594,00
3744,60	650,00
3747,97	582,00
3751,33	634,00
3754,69	539,00
3758,05	711,00
3761,41	524,00
3764,77	565,00
3768,12	464,00
3771,47	515,00
3774,82	713,00
3778,16	-12,00
3781,50	16,00
3784,84	9,00
3788,18	7,00
>>>>>End Processed Spectral Data<<<<<
