SpectraSuite Data File
++++++++++++++++++++++++++++++++++++
Date: Wed Feb 04 16:25:11 ICT 2026
User: Administrator
Dark Spectrum Present: Yes
Reference Spectrum Present: No
Number of Sampled Component Spectra: 1
Spectrometers: MAYP113682
Integration Time (usec): 3000000 (MAYP113682)
Spectra Averaged: 1 (MAYP113682)
Boxcar Smoothing: 0 (MAYP113682)
Correct for Electrical Dark: No (MAYP113682)
Strobe/Lamp Enabled: No (MAYP113682)
Correct for Detector Non-linearity: No (MAYP113682)
Correct for Stray Light: No (MAYP113682)
Number of Pixels in Processed Spectrum: 2068
>>>>>Begin Processed Spectral Data<<<<<
-37534,58	-2,00
-37414,56	-2,00
-37295,11	-4,00
-37176,24	7,00
-37057,95	72,00
-36940,22	-72,00
-36823,05	111,00
-36706,45	-9,00
-36590,40	-74,00
-36474,90	64,00
-36359,95	3,00
-36245,55	48,00
-36131,68	-22,00
-36018,35	-74,00
-35905,55	-11,00
-35793,29	40,00
-35681,54	17,00
-35570,32	-69,00
-35459,62	57,00
-35349,43	28,00
-35239,75	90,00
-35130,58	10,00
-35021,91	-12,00
-34913,74	22,00
-34806,07	-12,00
-34698,89	72,00
-34592,20	56,00
-34486,00	121,00
-34380,28	142,00
-34275,04	-112,00
-34170,27	69,00
-34065,98	100,00
-33962,16	-41,00
-33858,81	7,00
-33755,92	76,00
-33653,49	0,00
-33551,52	34,00
-33450,01	31,00
-33348,94	-47,00
-33248,33	137,00
-33148,16	22,00
-33048,43	8,00
-32949,14	-58,00
-32850,29	19,00
-32751,87	-52,00
-32653,89	45,00
-32556,33	-27,00
-32459,20	67,00
-32362,49	1,00
-32266,19	-75,00
-32170,32	64,00
-32074,86	98,00
-31979,82	86,00
-31885,18	16,00
-31790,95	10,00
-31697,12	81,00
-31603,69	40,00
-31510,67	80,00
-31418,04	13,00
-31325,80	-76,00
-31233,95	56,00
-31142,49	-23,00
-31051,42	-50,00
-30960,73	-20,00
-30870,43	-124,00
-30780,50	17,00
-30690,95	-4,00
-30601,77	-8,00
-30512,97	-35,00
-30424,53	-52,00
-30336,46	-4,00
-30248,76	-22,00
-30161,42	74,00
-30074,44	-34,00
-29987,81	-32,00
-29901,55	-35,00
-29815,63	-5,00
-29730,07	-35,00
-29644,86	115,00
-29560,00	-61,00
-29475,48	31,00
-29391,30	60,00
-29307,47	-55,00
-29223,97	60,00
-29140,81	131,00
-29057,99	11,00
-28975,50	-48,00
-28893,34	45,00
-28811,51	87,00
-28730,00	-37,00
-28648,82	19,00
-28567,97	-43,00
-28487,43	13,00
-28407,21	-55,00
-28327,32	5,00
-28247,73	-13,00
-28168,46	31,00
-28089,50	87,00
-28010,85	9,00
-27932,51	18,00
-27854,48	83,00
-27776,75	-31,00
-27699,32	30,00
-27622,19	4,00
-27545,37	70,00
-27468,84	115,00
-27392,60	13,00
-27316,66	115,00
-27241,01	-82,00
-27165,66	33,00
-27090,59	1,00
-27015,81	67,00
-26941,31	44,00
-26867,10	-78,00
-26793,17	-22,00
-26719,52	-84,00
-26646,15	-8,00
-26573,06	-15,00
-26500,24	42,00
-26427,70	107,00
-26355,43	29,00
-26283,43	54,00
-26211,71	-56,00
-26140,25	-66,00
-26069,06	29,00
-25998,13	-6,00
-25927,46	54,00
-25857,06	-69,00
-25786,92	-67,00
-25717,04	68,00
-25647,42	-52,00
-25578,05	45,00
-25508,94	34,00
-25440,09	21,00
-25371,48	-141,00
-25303,13	-11,00
-25235,02	93,00
-25167,17	63,00
-25099,56	14,00
-25032,19	-33,00
-24965,07	11,00
-24898,20	83,00
-24831,56	-36,00
-24765,17	-162,00
-24699,01	19,00
-24633,10	14,00
-24567,41	50,00
-24501,97	61,00
-24436,75	56,00
-24371,77	43,00
-24307,03	-51,00
-24242,51	-86,00
-24178,22	81,00
-24114,16	-72,00
-24050,32	-43,00
-23986,71	25,00
-23923,32	78,00
-23860,16	-49,00
-23797,22	-49,00
-23734,50	-1,00
-23672,00	93,00
-23609,71	11,00
-23547,65	-67,00
-23485,80	22,00
-23424,16	-53,00
-23362,74	3,00
-23301,53	-56,00
-23240,54	-28,00
-23179,75	-30,00
-23119,17	-45,00
-23058,80	38,00
-22998,64	61,00
-22938,68	-56,00
-22878,93	67,00
-22819,39	-35,00
-22760,04	-28,00
-22700,90	-21,00
-22641,96	12,00
-22583,22	-98,00
-22524,68	56,00
-22466,33	-47,00
-22408,19	-41,00
-22350,23	-84,00
-22292,48	15,00
-22234,92	29,00
-22177,55	73,00
-22120,37	-77,00
-22063,38	140,00
-22006,58	-13,00
-21949,98	152,00
-21893,56	38,00
-21837,33	-18,00
-21781,28	87,00
-21725,42	9,00
-21669,74	-8,00
-21614,25	39,00
-21558,94	68,00
-21503,81	25,00
-21448,86	-21,00
-21394,10	128,00
-21339,51	-117,00
-21285,10	-31,00
-21230,86	97,00
-21176,81	23,00
-21122,93	-61,00
-21069,22	32,00
-21015,69	-10,00
-20962,33	110,00
-20909,14	-8,00
-20856,13	-57,00
-20803,28	46,00
-20750,61	-20,00
-20698,10	141,00
-20645,76	44,00
-20593,59	-89,00
-20541,59	42,00
-20489,75	-25,00
-20438,07	49,00
-20386,56	-32,00
-20335,22	26,00
-20284,03	58,00
-20233,01	50,00
-20182,15	-52,00
-20131,45	108,00
-20080,91	-54,00
-20030,52	73,00
-19980,30	-73,00
-19930,23	9,00
-19880,32	-10,00
-19830,56	92,00
-19780,96	101,00
-19731,52	-1,00
-19682,23	55,00
-19633,09	-28,00
-19584,10	-5,00
-19535,26	89,00
-19486,58	-37,00
-19438,04	-29,00
-19389,66	89,00
-19341,42	-6,00
-19293,33	1,00
-19245,39	-16,00
-19197,60	-38,00
-19149,95	42,00
-19102,45	43,00
-19055,09	-8,00
-19007,87	3,00
-18960,80	52,00
-18913,87	-36,00
-18867,09	-8,00
-18820,44	43,00
-18773,94	-82,00
-18727,57	111,00
-18681,35	61,00
-18635,26	-37,00
-18589,31	-50,00
-18543,50	11,00
-18497,83	46,00
-18452,29	39,00
-18406,89	26,00
-18361,63	106,00
-18316,50	-37,00
-18271,50	-65,00
-18226,63	72,00
-18181,90	-66,00
-18137,30	80,00
-18092,84	-14,00
-18048,50	29,00
-18004,29	-12,00
-17960,22	-29,00
-17916,27	3,00
-17872,45	-66,00
-17828,76	25,00
-17785,20	88,00
-17741,77	47,00
-17698,46	-112,00
-17655,28	94,00
-17612,22	66,00
-17569,29	-78,00
-17526,48	-66,00
-17483,79	18,00
-17441,23	24,00
-17398,79	79,00
-17356,48	36,00
-17314,28	24,00
-17272,21	-43,00
-17230,26	13,00
-17188,42	20,00
-17146,71	64,00
-17105,12	-4,00
-17063,64	-114,00
-17022,28	-67,00
-16981,04	-16,00
-16939,92	-5,00
-16898,91	-79,00
-16858,02	31,00
-16817,25	-24,00
-16776,59	3,00
-16736,04	80,00
-16695,61	-51,00
-16655,29	-139,00
-16615,09	125,00
-16574,99	-11,00
-16535,01	47,00
-16495,15	107,00
-16455,39	3,00
-16415,74	-5,00
-16376,21	14,00
-16336,78	92,00
-16297,46	107,00
-16258,26	1,00
-16219,16	90,00
-16180,17	96,00
-16141,28	35,00
-16102,51	-7,00
-16063,84	23,00
-16025,27	3,00
-15986,82	-28,00
-15948,46	91,00
-15910,22	-18,00
-15872,07	-29,00
-15834,04	54,00
-15796,10	-14,00
-15758,27	97,00
-15720,54	53,00
-15682,91	75,00
-15645,39	-3,00
-15607,97	65,00
-15570,64	65,00
-15533,42	38,00
-15496,30	0,00
-15459,28	15,00
-15422,36	-2,00
-15385,54	-16,00
-15348,82	53,00
-15312,19	51,00
-15275,66	67,00
-15239,23	57,00
-15202,90	-59,00
-15166,67	47,00
-15130,53	39,00
-15094,48	-94,00
-15058,54	-59,00
-15022,68	74,00
-14986,93	31,00
-14951,26	20,00
-14915,69	-68,00
-14880,22	65,00
-14844,84	20,00
-14809,55	-58,00
-14774,35	-68,00
-14739,25	178,00
-14704,24	8,00
-14669,32	-25,00
-14634,49	45,00
-14599,75	97,00
-14565,10	-35,00
-14530,55	-23,00
-14496,08	85,00
-14461,70	120,00
-14427,41	-34,00
-14393,21	22,00
-14359,10	-11,00
-14325,07	3,00
-14291,14	-65,00
-14257,29	13,00
-14223,52	24,00
-14189,85	28,00
-14156,26	46,00
-14122,76	-4,00
-14089,34	74,00
-14056,01	-72,00
-14022,76	41,00
-13989,60	58,00
-13956,52	6,00
-13923,53	63,00
-13890,62	129,00
-13857,79	6,00
-13825,05	43,00
-13792,39	-7,00
-13759,81	37,00
-13727,31	-19,00
-13694,90	31,00
-13662,57	-137,00
-13630,31	1,00
-13598,14	-32,00
-13566,05	-26,00
-13534,05	9,00
-13502,12	113,00
-13470,27	-13,00
-13438,50	-107,00
-13406,80	15,00
-13375,19	-2,00
-13343,66	-180,00
-13312,20	-52,00
-13280,83	30,00
-13249,53	98,00
-13218,30	-7,00
-13187,16	-52,00
-13156,09	134,00
-13125,10	36,00
-13094,18	36,00
-13063,34	139,00
-13032,58	-7,00
-13001,89	31,00
-12971,28	-44,00
-12940,74	-10,00
-12910,27	124,00
-12879,88	51,00
-12849,57	3,00
-12819,33	-33,00
-12789,16	16,00
-12759,06	-12,00
-12729,04	3,00
-12699,09	188,00
-12669,21	61,00
-12639,41	61,00
-12609,68	61,00
-12580,02	-99,00
-12550,43	14,00
-12520,91	53,00
-12491,46	71,00
-12462,08	-105,00
-12432,77	-21,00
-12403,54	-89,00
-12374,37	-69,00
-12345,27	-65,00
-12316,24	-8,00
-12287,29	32,00
-12258,40	58,00
-12229,57	8,00
-12200,82	10,00
-12172,14	-44,00
-12143,52	33,00
-12114,97	-48,00
-12086,49	99,00
-12058,07	19,00
-12029,73	-8,00
-12001,44	12,00
-11973,23	-36,00
-11945,08	17,00
-11917,00	8,00
-11888,98	-29,00
-11861,03	-6,00
-11833,15	46,00
-11805,32	37,00
-11777,57	71,00
-11749,88	-13,00
-11722,25	53,00
-11694,69	-37,00
-11667,19	71,00
-11639,75	6,00
-11612,38	177,00
-11585,07	69,00
-11557,83	58,00
-11530,65	40,00
-11503,53	-64,00
-11476,47	-73,00
-11449,48	-41,00
-11422,54	-18,00
-11395,67	10,00
-11368,86	32,00
-11342,11	79,00
-11315,43	33,00
-11288,80	2,00
-11262,23	-12,00
-11235,73	-20,00
-11209,28	62,00
-11182,90	-29,00
-11156,57	25,00
-11130,31	1,00
-11104,10	86,00
-11077,96	19,00
-11051,87	60,00
-11025,84	-35,00
-10999,87	33,00
-10973,96	33,00
-10948,11	53,00
-10922,31	147,00
-10896,58	-22,00
-10870,90	-64,00
-10845,28	-5,00
-10819,71	145,00
-10794,20	-198,00
-10768,75	96,00
-10743,36	-36,00
-10718,02	52,00
-10692,74	-44,00
-10667,52	-17,00
-10642,35	50,00
-10617,24	-54,00
-10592,18	45,00
-10567,18	-5,00
-10542,23	46,00
-10517,34	109,00
-10492,51	-34,00
-10467,72	-16,00
-10443,00	-6,00
-10418,32	103,00
-10393,70	118,00
-10369,14	34,00
-10344,63	176,00
-10320,17	57,00
-10295,77	105,00
-10271,42	97,00
-10247,12	94,00
-10222,88	97,00
-10198,68	77,00
-10174,54	76,00
-10150,46	119,00
-10126,42	88,00
-10102,44	115,00
-10078,51	140,00
-10054,63	189,00
-10030,80	191,00
-10007,03	0,00
-9983,30	152,00
-9959,63	147,00
-9936,01	239,00
-9912,44	272,00
-9888,92	223,00
-9865,44	301,00
-9842,02	272,00
-9818,65	228,00
-9795,33	382,00
-9772,06	302,00
-9748,84	442,00
-9725,67	452,00
-9702,55	441,00
-9679,47	603,00
-9656,45	579,00
-9633,47	560,00
-9610,55	713,00
-9587,67	689,00
-9564,84	827,00
-9542,06	858,00
-9519,32	924,00
-9496,64	976,00
-9474,00	1123,00
-9451,41	1137,00
-9428,87	1116,00
-9406,37	1168,00
-9383,92	1128,00
-9361,52	1286,00
-9339,17	1250,00
-9316,86	1461,00
-9294,60	1601,00
-9272,38	1638,00
-9250,21	1856,00
-9228,09	1852,00
-9206,01	1762,00
-9183,98	1788,00
-9162,00	1703,00
-9140,06	1664,00
-9118,16	1693,00
-9096,31	1755,00
-9074,51	1812,00
-9052,75	1812,00
-9031,04	1757,00
-9009,37	1606,00
-8987,74	1374,00
-8966,16	1349,00
-8944,63	1265,00
-8923,14	1181,00
-8901,69	1090,00
-8880,29	1310,00
-8858,93	1364,00
-8837,61	1474,00
-8816,34	1490,00
-8795,11	1524,00
-8773,92	1517,00
-8752,78	1251,00
-8731,68	1153,00
-8710,62	1243,00
-8689,61	1251,00
-8668,63	1427,00
-8647,70	1398,00
-8626,82	1433,00
-8605,97	1356,00
-8585,17	1258,00
-8564,41	1079,00
-8543,69	1075,00
-8523,01	1182,00
-8502,37	1115,00
-8481,78	1220,00
-8461,23	1182,00
-8440,71	1356,00
-8420,24	1382,00
-8399,81	1436,00
-8379,42	1416,00
-8359,08	1277,00
-8338,77	1175,00
-8318,50	1093,00
-8298,27	1016,00
-8278,09	1273,00
-8257,94	1253,00
-8237,83	1283,00
-8217,76	1326,00
-8197,74	1311,00
-8177,75	1278,00
-8157,80	1150,00
-8137,89	1012,00
-8118,02	1081,00
-8098,19	976,00
-8078,40	1022,00
-8058,65	1142,00
-8038,93	1078,00
-8019,26	945,00
-7999,62	929,00
-7980,02	1014,00
-7960,46	981,00
-7940,94	874,00
-7921,46	847,00
-7902,01	927,00
-7882,60	1027,00
-7863,23	844,00
-7843,90	956,00
-7824,61	1011,00
-7805,35	1081,00
-7786,13	927,00
-7766,95	978,00
-7747,80	929,00
-7728,69	961,00
-7709,62	898,00
-7690,59	940,00
-7671,59	1060,00
-7652,63	1068,00
-7633,70	1001,00
-7614,81	1038,00
-7595,96	948,00
-7577,15	719,00
-7558,37	757,00
-7539,62	806,00
-7520,91	897,00
-7502,24	985,00
-7483,60	855,00
-7465,00	942,00
-7446,44	867,00
-7427,91	748,00
-7409,41	770,00
-7390,95	610,00
-7372,53	683,00
-7354,14	648,00
-7335,78	673,00
-7317,46	676,00
-7299,18	862,00
-7280,92	859,00
-7262,71	885,00
-7244,52	861,00
-7226,38	963,00
-7208,26	936,00
-7190,18	928,00
-7172,14	837,00
-7154,12	732,00
-7136,15	837,00
-7118,20	921,00
-7100,29	880,00
-7082,41	891,00
-7064,57	894,00
-7046,76	1104,00
-7028,98	849,00
-7011,24	604,00
-6993,53	626,00
-6975,85	495,00
-6958,20	568,00
-6940,59	490,00
-6923,01	571,00
-6905,46	680,00
-6887,94	715,00
-6870,46	812,00
-6853,01	788,00
-6835,59	867,00
-6818,21	764,00
-6800,85	683,00
-6783,53	674,00
-6766,24	564,00
-6748,98	478,00
-6731,76	413,00
-6714,56	485,00
-6697,40	334,00
-6680,26	408,00
-6663,16	468,00
-6646,09	617,00
-6629,05	768,00
-6612,05	658,00
-6595,07	812,00
-6578,13	723,00
-6561,21	615,00
-6544,33	429,00
-6527,47	450,00
-6510,65	238,00
-6493,86	349,00
-6477,10	386,00
-6460,36	355,00
-6443,66	210,00
-6426,99	446,00
-6410,35	309,00
-6393,74	414,00
-6377,16	489,00
-6360,61	616,00
-6344,09	638,00
-6327,59	644,00
-6311,13	439,00
-6294,70	555,00
-6278,29	575,00
-6261,92	583,00
-6245,58	718,00
-6229,26	556,00
-6212,97	619,00
-6196,72	481,00
-6180,49	285,00
-6164,29	242,00
-6148,12	233,00
-6131,98	151,00
-6115,86	230,00
-6099,78	192,00
-6083,72	258,00
-6067,69	234,00
-6051,69	267,00
-6035,72	257,00
-6019,78	226,00
-6003,87	328,00
-5987,98	503,00
-5972,12	515,00
-5956,29	586,00
-5940,49	509,00
-5924,71	295,00
-5908,96	412,00
-5893,24	261,00
-5877,55	295,00
-5861,89	220,00
-5846,25	368,00
-5830,64	199,00
-5815,05	304,00
-5799,50	173,00
-5783,97	305,00
-5768,47	238,00
-5752,99	362,00
-5737,55	454,00
-5722,12	465,00
-5706,73	455,00
-5691,36	453,00
-5676,02	341,00
-5660,71	390,00
-5645,42	355,00
-5630,16	326,00
-5614,92	309,00
-5599,71	347,00
-5584,53	383,00
-5569,37	409,00
-5554,24	380,00
-5539,14	180,00
-5524,06	206,00
-5509,01	342,00
-5493,98	494,00
-5478,98	418,00
-5464,00	304,00
-5449,05	374,00
-5434,13	258,00
-5419,23	335,00
-5404,36	287,00
-5389,51	317,00
-5374,69	421,00
-5359,89	497,00
-5345,12	623,00
-5330,37	569,00
-5315,65	454,00
-5300,95	287,00
-5286,28	352,00
-5271,63	329,00
-5257,01	422,00
-5242,41	337,00
-5227,84	404,00
-5213,29	121,00
-5198,76	134,00
-5184,26	116,00
-5169,79	241,00
-5155,33	316,00
-5140,91	392,00
-5126,51	410,00
-5112,13	389,00
-5097,77	340,00
-5083,44	145,00
-5069,13	192,00
-5054,85	123,00
-5040,59	275,00
-5026,36	255,00
-5012,15	398,00
-4997,96	353,00
-4983,80	279,00
-4969,66	204,00
-4955,54	143,00
-4941,44	251,00
-4927,37	384,00
-4913,33	543,00
-4899,30	562,00
-4885,30	487,00
-4871,33	232,00
-4857,37	166,00
-4843,44	203,00
-4829,53	248,00
-4815,65	321,00
-4801,79	405,00
-4787,95	244,00
-4774,13	429,00
-4760,34	164,00
-4746,56	104,00
-4732,82	63,00
-4719,09	216,00
-4705,38	461,00
-4691,70	448,00
-4678,04	417,00
-4664,41	195,00
-4650,79	335,00
-4637,20	86,00
-4623,63	125,00
-4610,08	275,00
-4596,56	343,00
-4583,05	425,00
-4569,57	214,00
-4556,11	148,00
-4542,67	190,00
-4529,25	113,00
-4515,86	227,00
-4502,49	391,00
-4489,13	380,00
-4475,80	365,00
-4462,49	220,00
-4449,21	255,00
-4435,94	3,00
-4422,70	199,00
-4409,47	303,00
-4396,27	337,00
-4383,09	194,00
-4369,93	71,00
-4356,79	119,00
-4343,67	91,00
-4330,58	201,00
-4317,50	183,00
-4304,45	196,00
-4291,41	112,00
-4278,40	113,00
-4265,41	30,00
-4252,44	156,00
-4239,49	252,00
-4226,55	191,00
-4213,65	244,00
-4200,76	-12,00
-4187,89	61,00
-4175,04	32,00
-4162,21	69,00
-4149,40	68,00
-4136,61	176,00
-4123,85	58,00
-4111,10	53,00
-4098,37	81,00
-4085,66	109,00
-4072,98	98,00
-4060,31	-26,00
-4047,66	-67,00
-4035,04	138,00
-4022,43	14,00
-4009,84	32,00
-3997,27	29,00
-3984,72	113,00
-3972,19	-12,00
-3959,69	42,00
-3947,20	-12,00
-3934,73	-33,00
-3922,27	53,00
-3909,84	-15,00
-3897,43	-128,00
-3885,04	41,00
-3872,67	60,00
-3860,31	-5,00
-3847,98	-82,00
-3835,66	76,00
-3823,36	12,00
-3811,09	123,00
-3798,83	170,00
-3786,59	64,00
-3774,37	-163,00
-3762,17	20,00
-3749,98	7,00
-3737,82	2,00
-3725,67	94,00
-3713,55	-49,00
-3701,44	-56,00
-3689,35	-84,00
-3677,28	-31,00
-3665,22	2,00
-3653,19	-37,00
-3641,17	-66,00
-3629,18	24,00
-3617,20	28,00
-3605,24	21,00
-3593,30	-93,00
-3581,37	-21,00
-3569,47	-11,00
-3557,58	-50,00
-3545,71	-30,00
-3533,86	-1,00
-3522,02	33,00
-3510,21	20,00
-3498,41	-6,00
-3486,63	-72,00
-3474,87	1,00
-3463,12	-88,00
-3451,40	61,00
-3439,69	-77,00
-3428,00	-63,00
-3416,33	13,00
-3404,67	53,00
-3393,03	-37,00
-3381,41	-43,00
-3369,81	71,00
-3358,22	25,00
-3346,66	44,00
-3335,10	22,00
-3323,57	-54,00
-3312,06	-8,00
-3300,56	-4,00
-3289,08	37,00
-3277,61	-64,00
-3266,16	-14,00
-3254,73	-25,00
-3243,32	-98,00
-3231,92	13,00
-3220,55	-66,00
-3209,18	4,00
-3197,84	20,00
-3186,51	53,00
-3175,20	33,00
-3163,90	-39,00
-3152,63	-5,00
-3141,36	-63,00
-3130,12	77,00
-3118,89	-97,00
-3107,68	-184,00
-3096,49	-46,00
-3085,31	13,00
-3074,15	-27,00
-3063,00	-28,00
-3051,87	56,00
-3040,76	-28,00
-3029,67	84,00
-3018,59	57,00
-3007,52	2,00
-2996,48	27,00
-2985,44	-30,00
-2974,43	35,00
-2963,43	-6,00
-2952,45	21,00
-2941,48	-13,00
-2930,53	9,00
-2919,60	4,00
-2908,68	20,00
-2897,78	-49,00
-2886,89	-113,00
-2876,02	15,00
-2865,17	20,00
-2854,33	67,00
-2843,50	-51,00
-2832,70	96,00
-2821,90	-129,00
-2811,13	-9,00
-2800,37	-34,00
-2789,62	-52,00
-2778,89	-99,00
-2768,18	-125,00
-2757,48	31,00
-2746,80	18,00
-2736,13	-12,00
-2725,48	-56,00
-2714,84	82,00
-2704,22	155,00
-2693,61	54,00
-2683,02	82,00
-2672,45	-58,00
-2661,89	20,00
-2651,34	18,00
-2640,81	-5,00
-2630,30	18,00
-2619,80	27,00
-2609,31	56,00
-2598,84	38,00
-2588,39	-20,00
-2577,95	2,00
-2567,52	-9,00
-2557,11	42,00
-2546,71	-14,00
-2536,33	63,00
-2525,97	17,00
-2515,62	-43,00
-2505,28	-90,00
-2494,96	-34,00
-2484,65	115,00
-2474,36	94,00
-2464,08	-22,00
-2453,82	31,00
-2443,57	-78,00
-2433,33	59,00
-2423,11	-47,00
-2412,91	-3,00
-2402,72	106,00
-2392,54	-6,00
-2382,38	-9,00
-2372,23	-78,00
-2362,09	4384,00
-2351,97	-94,00
-2341,87	84,00
-2331,78	-23,00
-2321,70	40,00
-2311,64	-41,00
-2301,59	-78,00
-2291,55	-36,00
-2281,53	90,00
-2271,53	-78,00
-2261,53	-14,00
-2251,55	52,00
-2241,59	24,00
-2231,64	-55,00
-2221,70	1,00
-2211,78	153,00
-2201,87	-24,00
-2191,97	-33,00
-2182,09	-71,00
-2172,22	-123,00
-2162,37	35,00
-2152,53	12,00
-2142,70	94,00
-2132,89	0,00
-2123,09	-36,00
-2113,30	-38,00
-2103,53	100,00
-2093,77	-33,00
-2084,02	-8,00
-2074,29	3,00
-2064,57	98,00
-2054,86	-4,00
-2045,17	-17,00
-2035,49	18,00
-2025,82	13,00
-2016,17	-29,00
-2006,53	-28,00
-1996,91	23,00
-1987,29	-29,00
-1977,69	-5,00
-1968,11	-9,00
-1958,53	66,00
-1948,97	40,00
-1939,42	56,00
-1929,89	114,00
-1920,37	18,00
-1910,86	14,00
-1901,36	105,00
-1891,88	92,00
-1882,41	144,00
-1872,95	-43,00
-1863,51	83,00
-1854,08	-141,00
-1844,66	17,00
-1835,26	28,00
-1825,86	5,00
-1816,48	-3,00
-1807,11	-34,00
-1797,76	32,00
-1788,42	80,00
-1779,09	-52,00
-1769,77	-5,00
-1760,47	-33,00
-1751,17	0,00
-1741,89	16,00
-1732,63	-49,00
-1723,37	24,00
-1714,13	193,00
-1704,90	13,00
-1695,68	-17,00
-1686,48	-68,00
-1677,29	-13,00
-1668,11	14,00
-1658,94	115,00
-1649,78	-4,00
-1640,64	13,00
-1631,51	-46,00
-1622,39	26,00
-1613,28	41,00
-1604,19	18,00
-1595,10	76,00
-1586,03	188,00
-1576,97	38,00
-1567,93	84,00
-1558,89	20,00
-1549,87	-71,00
-1540,86	-158,00
-1531,86	-44,00
-1522,87	-11,00
-1513,90	3,00
-1504,93	-64,00
-1495,98	42,00
-1487,04	50,00
-1478,12	144,00
-1469,20	61,00
-1460,30	-2,00
-1451,40	60,00
-1442,52	108,00
-1433,65	-29,00
-1424,80	51,00
-1415,95	-140,00
-1407,12	-132,00
-1398,30	-33,00
-1389,48	-3,00
-1380,69	-51,00
-1371,90	-110,00
-1363,12	26,00
-1354,36	-56,00
-1345,60	-38,00
-1336,86	-4,00
-1328,13	-40,00
-1319,41	-50,00
-1310,70	62,00
-1302,01	78,00
-1293,32	24,00
-1284,65	4,00
-1275,99	25,00
-1267,33	-43,00
-1258,69	78,00
-1250,06	-35,00
-1241,45	54,00
-1232,84	127,00
-1224,25	53,00
-1215,66	-79,00
-1207,09	-8,00
-1198,53	1,00
-1189,97	109,00
-1181,43	67,00
-1172,91	3,00
-1164,39	58,00
-1155,88	29,00
-1147,38	44,00
-1138,90	88,00
-1130,43	67,00
-1121,96	2,00
-1113,51	-21,00
-1105,07	22,00
-1096,64	-15,00
-1088,22	-25,00
-1079,81	-81,00
-1071,41	-89,00
-1063,02	-100,00
-1054,65	-22,00
-1046,28	-72,00
-1037,92	16,00
-1029,58	50,00
-1021,24	-94,00
-1012,92	215,00
-1004,61	22,00
-996,30	28,00
-988,01	-13,00
-979,73	95,00
-971,46	87,00
-963,20	-18,00
-954,95	81,00
-946,71	34,00
-938,48	18,00
-930,26	30,00
-922,06	-46,00
-913,86	32,00
-905,67	-5,00
-897,49	-60,00
-889,33	125,00
-881,17	105,00
-873,02	-45,00
-864,89	-60,00
-856,76	10,00
-848,65	12,00
-840,54	2,00
-832,45	-65,00
-824,36	-24,00
-816,29	48,00
-808,22	124,00
-800,17	51,00
-792,12	47,00
-784,09	-81,00
-776,06	-20,00
-768,05	-18,00
-760,04	123,00
-752,05	32,00
-744,07	32,00
-736,09	-35,00
-728,13	-91,00
-720,17	75,00
-712,23	-102,00
-704,29	-13,00
-696,37	-12,00
-688,45	-100,00
-680,55	-65,00
-672,65	-62,00
-664,77	81,00
-656,89	98,00
-649,03	35,00
-641,17	79,00
-633,32	22,00
-625,49	-68,00
-617,66	85,00
-609,84	-24,00
-602,03	17,00
-594,23	-11,00
-586,45	38,00
-578,67	5,00
-570,90	134,00
-563,14	139,00
-555,39	-6,00
-547,65	36,00
-539,91	90,00
-532,19	54,00
-524,48	67,00
-516,78	129,00
-509,08	65,00
-501,40	-19,00
-493,72	96,00
-486,06	1,00
-478,40	11,00
-470,76	67,00
-463,12	2,00
-455,49	18,00
-447,87	16,00
-440,26	32,00
-432,66	-4,00
-425,07	110,00
-417,49	-22,00
-409,92	-100,00
-402,35	-23,00
-394,80	27,00
-387,25	19,00
-379,72	-16,00
-372,19	77,00
-364,67	120,00
-357,17	129,00
-349,67	25,00
-342,18	129,00
-334,69	138,00
-327,22	121,00
-319,76	50,00
-312,30	103,00
-304,86	26,00
-297,42	-22,00
-290,00	15,00
-282,58	64,00
-275,17	15,00
-267,77	96,00
-260,37	87,00
-252,99	8,00
-245,62	64,00
-238,25	106,00
-230,90	-14,00
-223,55	128,00
-216,21	139,00
-208,88	195,00
-201,56	135,00
-194,25	250,00
-186,94	213,00
-179,65	279,00
-172,36	154,00
-165,08	371,00
-157,81	258,00
-150,55	304,00
-143,30	410,00
-136,06	306,00
-128,82	493,00
-121,60	508,00
-114,38	455,00
-107,17	680,00
-99,97	611,00
-92,78	804,00
-85,60	899,00
-78,42	1010,00
-71,25	1124,00
-64,10	1381,00
-56,95	1504,00
-49,81	1934,00
-42,67	2229,00
-35,55	2789,00
-28,43	3874,00
-21,33	6036,00
-14,23	19883,00
-7,14	55208,00
-0,05	55024,00
7,02	54676,00
14,09	54958,00
21,14	21162,00
28,19	8406,00
35,23	5115,00
42,27	3800,00
49,29	3260,00
56,31	2788,00
63,32	2136,00
70,32	1841,00
77,31	1542,00
84,29	1496,00
91,27	1153,00
98,23	1110,00
105,19	908,00
112,14	1052,00
119,09	1640,00
126,02	2406,00
132,95	2985,00
139,87	3091,00
146,78	3014,00
153,68	3180,00
160,58	3120,00
167,46	3053,00
174,34	3075,00
181,21	3185,00
188,08	3160,00
194,93	2863,00
201,78	2896,00
208,62	3062,00
215,45	3006,00
222,27	3109,00
229,09	2915,00
235,90	2863,00
242,70	2914,00
249,49	2952,00
256,27	2933,00
263,05	2945,00
269,82	2741,00
276,58	2924,00
283,33	2945,00
290,08	2814,00
296,82	2886,00
303,55	2771,00
310,27	2574,00
316,98	2759,00
323,69	2710,00
330,39	2722,00
337,08	2688,00
343,76	2661,00
350,44	2629,00
357,11	2600,00
363,77	2686,00
370,42	2556,00
377,07	2602,00
383,71	2581,00
390,34	2560,00
396,96	2570,00
403,58	2577,00
410,19	2520,00
416,79	2700,00
423,38	2749,00
429,97	2625,00
436,55	2486,00
443,12	2458,00
449,68	2444,00
456,24	2430,00
462,79	2379,00
469,33	2465,00
475,86	2497,00
482,39	2389,00
488,91	2401,00
495,42	2339,00
501,93	2233,00
508,42	2174,00
514,91	2290,00
521,40	2183,00
527,87	2275,00
534,34	2378,00
540,80	2168,00
547,25	2241,00
553,70	2276,00
560,14	2226,00
566,57	2153,00
573,00	2123,00
579,41	2224,00
585,83	2204,00
592,23	2205,00
598,62	2148,00
605,01	2141,00
611,40	2149,00
617,77	2081,00
624,14	2099,00
630,50	2174,00
636,85	2138,00
643,20	1987,00
649,54	1970,00
655,87	2018,00
662,20	2074,00
668,52	2029,00
674,83	1942,00
681,13	2058,00
687,43	2037,00
693,72	2044,00
700,00	2075,00
706,28	1955,00
712,55	2029,00
718,81	1963,00
725,07	1896,00
731,32	1992,00
737,56	2039,00
743,79	1961,00
750,02	1870,00
756,24	1938,00
762,46	1964,00
768,67	1753,00
774,87	1973,00
781,06	1891,00
787,25	1911,00
793,43	1835,00
799,60	1893,00
805,77	1831,00
811,93	1887,00
818,08	1920,00
824,23	1880,00
830,37	1836,00
836,50	1866,00
842,63	1856,00
848,75	1940,00
854,87	1963,00
860,97	1808,00
867,07	1861,00
873,17	1857,00
879,25	1800,00
885,33	1781,00
891,41	1927,00
897,47	1729,00
903,53	1738,00
909,59	1831,00
915,63	1717,00
921,67	1764,00
927,71	1677,00
933,74	1721,00
939,76	1809,00
945,77	1638,00
951,78	1807,00
957,78	1673,00
963,78	1796,00
969,77	1735,00
975,75	1589,00
981,72	1643,00
987,69	1689,00
993,66	1636,00
999,61	1800,00
1005,56	1671,00
1011,51	1630,00
1017,44	1696,00
1023,37	1677,00
1029,30	1693,00
1035,22	1726,00
1041,13	1702,00
1047,03	1653,00
1052,93	1663,00
1058,83	1680,00
1064,71	1838,00
1070,59	1801,00
1076,47	1595,00
1082,33	1575,00
1088,20	1623,00
1094,05	1534,00
1099,90	1650,00
1105,74	1381,00
1111,58	1565,00
1117,41	1553,00
1123,23	1667,00
1129,05	1808,00
1134,86	1738,00
1140,67	1530,00
1146,47	1445,00
1152,26	1613,00
1158,05	1567,00
1163,83	1431,00
1169,60	1465,00
1175,37	1538,00
1181,13	1537,00
1186,89	1553,00
1192,64	1443,00
1198,38	1545,00
1204,12	1505,00
1209,85	1386,00
1215,58	1520,00
1221,30	1606,00
1227,02	1411,00
1232,72	1424,00
1238,43	1445,00
1244,12	1517,00
1249,81	1499,00
1255,50	1531,00
1261,17	1522,00
1266,85	1533,00
1272,51	1576,00
1278,17	1446,00
1283,83	1614,00
1289,47	1614,00
1295,12	1912,00
1300,75	1810,00
1306,38	1749,00
1312,01	1599,00
1317,63	1652,00
1323,24	1614,00
1328,85	1511,00
1334,45	1646,00
1340,04	1570,00
1345,63	1567,00
1351,22	1608,00
1356,80	1648,00
1362,37	1725,00
1367,93	1655,00
1373,49	1696,00
1379,05	1681,00
1384,60	1633,00
1390,14	1602,00
1395,68	1626,00
1401,21	1615,00
1406,74	1639,00
1412,26	1591,00
1417,77	1637,00
1423,28	1712,00
1428,78	1712,00
1434,28	1945,00
1439,77	2019,00
1445,26	1913,00
1450,74	1858,00
1456,22	1723,00
1461,68	1818,00
1467,15	1629,00
1472,61	1593,00
1478,06	1557,00
1483,51	1471,00
1488,95	1531,00
1494,38	1433,00
1499,81	1465,00
1505,24	1386,00
1510,65	1438,00
1516,07	1390,00
1521,48	1363,00
1526,88	1493,00
1532,27	1267,00
1537,67	1288,00
1543,05	1325,00
1548,43	1246,00
1553,81	1377,00
1559,18	1313,00
1564,54	1301,00
1569,90	1294,00
1575,25	1272,00
1580,60	1241,00
1585,94	1250,00
1591,28	1210,00
1596,61	1254,00
1601,93	1318,00
1607,25	1114,00
1612,57	1208,00
1617,88	1327,00
1623,18	1135,00
1628,48	1327,00
1633,77	1184,00
1639,06	1157,00
1644,34	1256,00
1649,62	1153,00
1654,89	1011,00
1660,16	1139,00
1665,42	1113,00
1670,67	1156,00
1675,92	1129,00
1681,17	1094,00
1686,41	1117,00
1691,64	1029,00
1696,87	1138,00
1702,10	1023,00
1707,32	1079,00
1712,53	1095,00
1717,74	1102,00
1722,94	1090,00
1728,14	984,00
1733,33	1102,00
1738,52	1017,00
1743,70	1034,00
1748,88	1013,00
1754,05	975,00
1759,22	964,00
1764,38	1114,00
1769,53	1020,00
1774,69	986,00
1779,83	854,00
1784,97	960,00
1790,11	923,00
1795,24	1075,00
1800,36	947,00
1805,48	951,00
1810,60	930,00
1815,71	983,00
1820,82	831,00
1825,92	964,00
1831,01	910,00
1836,10	903,00
1841,19	861,00
1846,26	898,00
1851,34	1026,00
1856,41	934,00
1861,47	867,00
1866,53	860,00
1871,59	888,00
1876,64	802,00
1881,68	843,00
1886,72	855,00
1891,76	788,00
1896,79	814,00
1901,81	804,00
1906,83	841,00
1911,85	708,00
1916,86	735,00
1921,86	682,00
1926,86	787,00
1931,86	608,00
1936,85	762,00
1941,83	752,00
1946,81	731,00
1951,79	707,00
1956,76	762,00
1961,72	774,00
1966,68	767,00
1971,64	708,00
1976,59	650,00
1981,54	630,00
1986,48	630,00
1991,42	608,00
1996,35	615,00
2001,27	648,00
2006,20	733,00
2011,11	729,00
2016,03	727,00
2020,93	620,00
2025,84	688,00
2030,73	735,00
2035,63	548,00
2040,52	726,00
2045,40	602,00
2050,28	590,00
2055,15	676,00
2060,02	584,00
2064,89	601,00
2069,75	725,00
2074,60	578,00
2079,46	541,00
2084,30	546,00
2089,14	449,00
2093,98	610,00
2098,81	620,00
2103,64	457,00
2108,46	661,00
2113,28	528,00
2118,09	532,00
2122,90	559,00
2127,70	542,00
2132,50	589,00
2137,30	583,00
2142,09	588,00
2146,87	567,00
2151,66	542,00
2156,43	538,00
2161,20	434,00
2165,97	545,00
2170,73	452,00
2175,49	493,00
2180,24	575,00
2184,99	562,00
2189,74	405,00
2194,48	499,00
2199,21	486,00
2203,94	529,00
2208,67	574,00
2213,39	508,00
2218,11	498,00
2222,82	481,00
2227,53	550,00
2232,23	493,00
2236,93	396,00
2241,63	469,00
2246,32	524,00
2251,00	555,00
2255,68	424,00
2260,36	416,00
2265,03	404,00
2269,70	461,00
2274,36	475,00
2279,02	415,00
2283,68	344,00
2288,33	414,00
2292,97	350,00
2297,61	560,00
2302,25	381,00
2306,88	431,00
2311,51	333,00
2316,14	346,00
2320,75	369,00
2325,37	444,00
2329,98	446,00
2334,59	368,00
2339,19	496,00
2343,79	493,00
2348,38	360,00
2352,97	238,00
2357,55	297,00
2362,13	408,00
2366,71	403,00
2371,28	425,00
2375,85	365,00
2380,41	249,00
2384,97	343,00
2389,52	369,00
2394,07	385,00
2398,62	366,00
2403,16	364,00
2407,70	472,00
2412,23	453,00
2416,76	477,00
2421,29	398,00
2425,81	377,00
2430,32	323,00
2434,84	339,00
2439,34	343,00
2443,85	295,00
2448,35	235,00
2452,84	424,00
2457,33	412,00
2461,82	249,00
2466,30	277,00
2470,78	468,00
2475,25	271,00
2479,72	329,00
2484,19	222,00
2488,65	270,00
2493,11	242,00
2497,56	362,00
2502,01	282,00
2506,46	259,00
2510,90	298,00
2515,34	316,00
2519,77	346,00
2524,20	341,00
2528,62	143,00
2533,04	390,00
2537,46	273,00
2541,87	232,00
2546,28	316,00
2550,68	316,00
2555,08	226,00
2559,48	377,00
2563,87	266,00
2568,26	229,00
2572,64	184,00
2577,02	287,00
2581,40	416,00
2585,77	181,00
2590,14	383,00
2594,50	241,00
2598,86	382,00
2603,22	258,00
2607,57	273,00
2611,92	270,00
2616,26	241,00
2620,60	231,00
2624,94	384,00
2629,27	311,00
2633,60	293,00
2637,92	289,00
2642,24	276,00
2646,56	238,00
2650,87	211,00
2655,18	256,00
2659,48	259,00
2663,78	263,00
2668,08	154,00
2672,37	248,00
2676,66	307,00
2680,95	268,00
2685,23	360,00
2689,50	297,00
2693,78	177,00
2698,05	271,00
2702,31	320,00
2706,57	297,00
2710,83	335,00
2715,08	228,00
2719,33	256,00
2723,58	250,00
2727,82	273,00
2732,06	411,00
2736,29	317,00
2740,53	257,00
2744,75	256,00
2748,97	219,00
2753,19	296,00
2757,41	333,00
2761,62	224,00
2765,83	318,00
2770,03	239,00
2774,23	291,00
2778,43	322,00
2782,62	157,00
2786,81	185,00
2791,00	225,00
2795,18	236,00
2799,35	172,00
2803,53	183,00
2807,70	307,00
2811,86	195,00
2816,03	365,00
2820,19	359,00
2824,34	386,00
2828,49	367,00
2832,64	333,00
2836,78	403,00
2840,92	503,00
2845,06	540,00
2849,19	612,00
2853,32	716,00
2857,45	615,00
2861,57	729,00
2865,69	652,00
2869,80	609,00
2873,91	628,00
2878,02	710,00
2882,12	618,00
2886,22	761,00
2890,32	689,00
2894,41	700,00
2898,50	684,00
2902,58	581,00
2906,67	527,00
2910,74	366,00
2914,82	469,00
2918,89	605,00
2922,96	432,00
2927,02	365,00
2931,08	487,00
2935,13	314,00
2939,19	372,00
2943,24	473,00
2947,28	280,00
2951,32	371,00
2955,36	278,00
2959,40	315,00
2963,43	186,00
2967,46	194,00
2971,48	182,00
2975,50	280,00
2979,52	155,00
2983,53	181,00
2987,54	140,00
2991,55	174,00
2995,55	101,00
2999,55	156,00
3003,54	35,00
3007,54	196,00
3011,53	106,00
3015,51	76,00
3019,49	178,00
3023,47	76,00
3027,45	139,00
3031,42	81,00
3035,39	131,00
3039,35	-3,00
3043,31	95,00
3047,27	203,00
3051,22	98,00
3055,17	105,00
3059,12	117,00
3063,06	111,00
3067,00	159,00
3070,94	33,00
3074,87	59,00
3078,80	163,00
3082,73	114,00
3086,65	98,00
3090,57	107,00
3094,49	90,00
3098,40	110,00
3102,31	-14,00
3106,22	130,00
3110,12	216,00
3114,02	87,00
3117,92	56,00
3121,81	-76,00
3125,70	161,00
3129,58	138,00
3133,47	131,00
3137,34	98,00
3141,22	215,00
3145,09	131,00
3148,96	45,00
3152,83	233,00
3156,69	128,00
3160,55	17,00
3164,40	79,00
3168,26	73,00
3172,10	63,00
3175,95	115,00
3179,79	57,00
3183,63	172,00
3187,47	32,00
3191,30	120,00
3195,13	-47,00
3198,95	155,00
3202,78	170,00
3206,60	162,00
3210,41	134,00
3214,23	101,00
3218,03	6,00
3221,84	123,00
3225,64	151,00
3229,44	147,00
3233,24	17,00
3237,03	82,00
3240,82	128,00
3244,61	-32,00
3248,39	118,00
3252,17	80,00
3255,95	-46,00
3259,72	169,00
3263,49	80,00
3267,26	134,00
3271,03	150,00
3274,79	16,00
3278,54	186,00
3282,30	50,00
3286,05	103,00
3289,80	71,00
3293,54	64,00
3297,29	107,00
3301,02	120,00
3304,76	89,00
3308,49	37,00
3312,22	38,00
3315,95	19,00
3319,67	170,00
3323,39	0,00
3327,10	105,00
3330,82	180,00
3334,53	16,00
3338,24	96,00
3341,94	200,00
3345,64	47,00
3349,34	57,00
3353,03	96,00
3356,72	-25,00
3360,41	6,00
3364,10	75,00
3367,78	122,00
3371,46	59,00
3375,13	128,00
3378,81	92,00
3382,48	98,00
3386,14	126,00
3389,81	12,00
3393,47	67,00
3397,12	23,00
3400,78	110,00
3404,43	53,00
3408,08	-22,00
3411,72	87,00
3415,36	131,00
3419,00	41,00
3422,64	9,00
3426,27	104,00
3429,90	16,00
3433,53	102,00
3437,15	34,00
3440,77	78,00
3444,39	25,00
3448,00	19,00
3451,62	3,00
3455,22	44,00
3458,83	65,00
3462,43	16,00
3466,03	42,00
3469,63	9,00
3473,22	36,00
3476,81	97,00
3480,40	-1,00
3483,99	-69,00
3487,57	-4,00
3491,15	-25,00
3494,72	31,00
3498,29	-33,00
3501,86	122,00
3505,43	183,00
3508,99	91,00
3512,56	52,00
3516,11	59,00
3519,67	-2,00
3523,22	27,00
3526,77	78,00
3530,32	14,00
3533,86	-14,00
3537,40	101,00
3540,94	-47,00
3544,47	8,00
3548,00	38,00
3551,53	4,00
3555,06	-68,00
3558,58	-84,00
3562,10	87,00
3565,62	0,00
3569,13	-93,00
3572,64	17,00
3576,15	3,00
3579,66	172,00
3583,16	105,00
3586,66	-1,00
3590,16	26,00
3593,65	63,00
3597,14	-35,00
3600,63	67,00
3604,11	113,00
3607,60	27,00
3611,08	-13,00
3614,55	87,00
3618,03	4,00
3621,50	85,00
3624,97	-66,00
3628,43	-14,00
3631,90	91,00
3635,36	118,00
3638,81	-121,00
3642,27	-220,00
3645,72	-15,00
3649,17	-37,00
3652,61	75,00
3656,06	-19,00
3659,50	42,00
3662,93	90,00
3666,37	-36,00
3669,80	19,00
3673,23	7,00
3676,65	-78,00
3680,08	54,00
3683,50	24,00
3686,92	-31,00
3690,33	11,00
3693,74	85,00
3697,15	-48,00
3700,56	-49,00
3703,96	56,00
3707,36	32,00
3710,76	-50,00
3714,16	-15,00
3717,55	-74,00
3720,94	6,00
3724,33	-80,00
3727,71	-16,00
3731,10	1,00
3734,48	22,00
3737,85	125,00
3741,23	21,00
3744,60	25,00
3747,97	-40,00
3751,33	31,00
3754,69	-10,00
3758,05	-18,00
3761,41	2,00
3764,77	-16,00
3768,12	47,00
3771,47	-26,00
3774,82	22,00
3778,16	1,00
3781,50	-5,00
3784,84	2,00
3788,18	1,00
>>>>>End Processed Spectral Data<<<<<
