SpectraSuite Data File
++++++++++++++++++++++++++++++++++++
Date: Wed Feb 04 16:17:33 ICT 2026
User: Administrator
Dark Spectrum Present: Yes
Reference Spectrum Present: No
Number of Sampled Component Spectra: 1
Spectrometers: MAYP113682
Integration Time (usec): 3000000 (MAYP113682)
Spectra Averaged: 1 (MAYP113682)
Boxcar Smoothing: 0 (MAYP113682)
Correct for Electrical Dark: No (MAYP113682)
Strobe/Lamp Enabled: No (MAYP113682)
Correct for Detector Non-linearity: No (MAYP113682)
Correct for Stray Light: No (MAYP113682)
Number of Pixels in Processed Spectrum: 2068
>>>>>Begin Processed Spectral Data<<<<<
-37534,58	4,00
-37414,56	-5,00
-37295,11	-2,00
-37176,24	1,00
-37057,95	100,00
-36940,22	101,00
-36823,05	121,00
-36706,45	22,00
-36590,40	67,00
-36474,90	52,00
-36359,95	42,00
-36245,55	85,00
-36131,68	69,00
-36018,35	153,00
-35905,55	132,00
-35793,29	132,00
-35681,54	93,00
-35570,32	116,00
-35459,62	222,00
-35349,43	47,00
-35239,75	35,00
-35130,58	103,00
-35021,91	277,00
-34913,74	153,00
-34806,07	-40,00
-34698,89	79,00
-34592,20	86,00
-34486,00	85,00
-34380,28	70,00
-34275,04	48,00
-34170,27	139,00
-34065,98	53,00
-33962,16	50,00
-33858,81	63,00
-33755,92	101,00
-33653,49	34,00
-33551,52	185,00
-33450,01	61,00
-33348,94	85,00
-33248,33	86,00
-33148,16	7,00
-33048,43	168,00
-32949,14	98,00
-32850,29	103,00
-32751,87	156,00
-32653,89	163,00
-32556,33	101,00
-32459,20	-36,00
-32362,49	52,00
-32266,19	174,00
-32170,32	133,00
-32074,86	111,00
-31979,82	266,00
-31885,18	-5,00
-31790,95	261,00
-31697,12	81,00
-31603,69	167,00
-31510,67	73,00
-31418,04	218,00
-31325,80	124,00
-31233,95	164,00
-31142,49	131,00
-31051,42	136,00
-30960,73	16,00
-30870,43	178,00
-30780,50	52,00
-30690,95	59,00
-30601,77	160,00
-30512,97	48,00
-30424,53	161,00
-30336,46	24,00
-30248,76	139,00
-30161,42	50,00
-30074,44	112,00
-29987,81	165,00
-29901,55	95,00
-29815,63	216,00
-29730,07	111,00
-29644,86	211,00
-29560,00	164,00
-29475,48	96,00
-29391,30	219,00
-29307,47	89,00
-29223,97	129,00
-29140,81	8,00
-29057,99	34,00
-28975,50	176,00
-28893,34	120,00
-28811,51	170,00
-28730,00	-46,00
-28648,82	176,00
-28567,97	181,00
-28487,43	142,00
-28407,21	191,00
-28327,32	53,00
-28247,73	112,00
-28168,46	108,00
-28089,50	222,00
-28010,85	103,00
-27932,51	45,00
-27854,48	147,00
-27776,75	86,00
-27699,32	-9,00
-27622,19	185,00
-27545,37	52,00
-27468,84	146,00
-27392,60	210,00
-27316,66	235,00
-27241,01	174,00
-27165,66	209,00
-27090,59	91,00
-27015,81	183,00
-26941,31	181,00
-26867,10	106,00
-26793,17	131,00
-26719,52	112,00
-26646,15	192,00
-26573,06	162,00
-26500,24	113,00
-26427,70	282,00
-26355,43	96,00
-26283,43	125,00
-26211,71	149,00
-26140,25	127,00
-26069,06	184,00
-25998,13	139,00
-25927,46	153,00
-25857,06	97,00
-25786,92	99,00
-25717,04	341,00
-25647,42	23,00
-25578,05	255,00
-25508,94	134,00
-25440,09	167,00
-25371,48	200,00
-25303,13	51,00
-25235,02	85,00
-25167,17	161,00
-25099,56	45,00
-25032,19	247,00
-24965,07	90,00
-24898,20	164,00
-24831,56	151,00
-24765,17	143,00
-24699,01	57,00
-24633,10	-26,00
-24567,41	124,00
-24501,97	61,00
-24436,75	136,00
-24371,77	130,00
-24307,03	39,00
-24242,51	188,00
-24178,22	130,00
-24114,16	127,00
-24050,32	165,00
-23986,71	96,00
-23923,32	31,00
-23860,16	170,00
-23797,22	226,00
-23734,50	101,00
-23672,00	-48,00
-23609,71	100,00
-23547,65	107,00
-23485,80	154,00
-23424,16	72,00
-23362,74	58,00
-23301,53	209,00
-23240,54	144,00
-23179,75	63,00
-23119,17	176,00
-23058,80	156,00
-22998,64	133,00
-22938,68	25,00
-22878,93	161,00
-22819,39	106,00
-22760,04	119,00
-22700,90	120,00
-22641,96	37,00
-22583,22	201,00
-22524,68	126,00
-22466,33	79,00
-22408,19	167,00
-22350,23	149,00
-22292,48	214,00
-22234,92	109,00
-22177,55	112,00
-22120,37	112,00
-22063,38	106,00
-22006,58	63,00
-21949,98	150,00
-21893,56	115,00
-21837,33	134,00
-21781,28	63,00
-21725,42	112,00
-21669,74	87,00
-21614,25	58,00
-21558,94	46,00
-21503,81	100,00
-21448,86	122,00
-21394,10	95,00
-21339,51	175,00
-21285,10	138,00
-21230,86	94,00
-21176,81	163,00
-21122,93	184,00
-21069,22	150,00
-21015,69	221,00
-20962,33	34,00
-20909,14	33,00
-20856,13	10,00
-20803,28	128,00
-20750,61	140,00
-20698,10	-21,00
-20645,76	36,00
-20593,59	74,00
-20541,59	170,00
-20489,75	204,00
-20438,07	84,00
-20386,56	121,00
-20335,22	44,00
-20284,03	153,00
-20233,01	17,00
-20182,15	28,00
-20131,45	25,00
-20080,91	114,00
-20030,52	79,00
-19980,30	143,00
-19930,23	175,00
-19880,32	82,00
-19830,56	53,00
-19780,96	46,00
-19731,52	169,00
-19682,23	144,00
-19633,09	220,00
-19584,10	81,00
-19535,26	275,00
-19486,58	234,00
-19438,04	168,00
-19389,66	190,00
-19341,42	63,00
-19293,33	119,00
-19245,39	69,00
-19197,60	143,00
-19149,95	230,00
-19102,45	106,00
-19055,09	44,00
-19007,87	-7,00
-18960,80	67,00
-18913,87	166,00
-18867,09	238,00
-18820,44	248,00
-18773,94	40,00
-18727,57	46,00
-18681,35	133,00
-18635,26	247,00
-18589,31	36,00
-18543,50	64,00
-18497,83	168,00
-18452,29	-6,00
-18406,89	19,00
-18361,63	240,00
-18316,50	69,00
-18271,50	106,00
-18226,63	17,00
-18181,90	110,00
-18137,30	100,00
-18092,84	174,00
-18048,50	162,00
-18004,29	177,00
-17960,22	129,00
-17916,27	148,00
-17872,45	87,00
-17828,76	49,00
-17785,20	-56,00
-17741,77	213,00
-17698,46	165,00
-17655,28	94,00
-17612,22	133,00
-17569,29	137,00
-17526,48	178,00
-17483,79	192,00
-17441,23	23,00
-17398,79	126,00
-17356,48	117,00
-17314,28	31,00
-17272,21	168,00
-17230,26	147,00
-17188,42	146,00
-17146,71	109,00
-17105,12	107,00
-17063,64	90,00
-17022,28	159,00
-16981,04	156,00
-16939,92	91,00
-16898,91	50,00
-16858,02	123,00
-16817,25	3,00
-16776,59	27,00
-16736,04	140,00
-16695,61	203,00
-16655,29	29,00
-16615,09	167,00
-16574,99	85,00
-16535,01	77,00
-16495,15	51,00
-16455,39	-49,00
-16415,74	173,00
-16376,21	78,00
-16336,78	67,00
-16297,46	116,00
-16258,26	152,00
-16219,16	125,00
-16180,17	68,00
-16141,28	182,00
-16102,51	209,00
-16063,84	161,00
-16025,27	29,00
-15986,82	172,00
-15948,46	105,00
-15910,22	178,00
-15872,07	115,00
-15834,04	43,00
-15796,10	174,00
-15758,27	0,00
-15720,54	30,00
-15682,91	98,00
-15645,39	191,00
-15607,97	103,00
-15570,64	100,00
-15533,42	107,00
-15496,30	191,00
-15459,28	158,00
-15422,36	94,00
-15385,54	177,00
-15348,82	171,00
-15312,19	109,00
-15275,66	102,00
-15239,23	134,00
-15202,90	105,00
-15166,67	171,00
-15130,53	-8,00
-15094,48	148,00
-15058,54	93,00
-15022,68	100,00
-14986,93	106,00
-14951,26	81,00
-14915,69	165,00
-14880,22	30,00
-14844,84	99,00
-14809,55	33,00
-14774,35	141,00
-14739,25	54,00
-14704,24	150,00
-14669,32	159,00
-14634,49	134,00
-14599,75	157,00
-14565,10	14,00
-14530,55	88,00
-14496,08	84,00
-14461,70	142,00
-14427,41	99,00
-14393,21	74,00
-14359,10	73,00
-14325,07	80,00
-14291,14	113,00
-14257,29	94,00
-14223,52	62,00
-14189,85	105,00
-14156,26	116,00
-14122,76	191,00
-14089,34	75,00
-14056,01	-12,00
-14022,76	87,00
-13989,60	60,00
-13956,52	31,00
-13923,53	209,00
-13890,62	124,00
-13857,79	171,00
-13825,05	68,00
-13792,39	99,00
-13759,81	-50,00
-13727,31	-51,00
-13694,90	86,00
-13662,57	19,00
-13630,31	119,00
-13598,14	93,00
-13566,05	154,00
-13534,05	118,00
-13502,12	84,00
-13470,27	75,00
-13438,50	42,00
-13406,80	158,00
-13375,19	214,00
-13343,66	96,00
-13312,20	48,00
-13280,83	67,00
-13249,53	42,00
-13218,30	0,00
-13187,16	139,00
-13156,09	72,00
-13125,10	54,00
-13094,18	109,00
-13063,34	78,00
-13032,58	60,00
-13001,89	100,00
-12971,28	91,00
-12940,74	145,00
-12910,27	112,00
-12879,88	98,00
-12849,57	143,00
-12819,33	9,00
-12789,16	115,00
-12759,06	102,00
-12729,04	205,00
-12699,09	1228,00
-12669,21	87,00
-12639,41	62,00
-12609,68	94,00
-12580,02	20,00
-12550,43	89,00
-12520,91	133,00
-12491,46	129,00
-12462,08	89,00
-12432,77	46,00
-12403,54	115,00
-12374,37	134,00
-12345,27	47,00
-12316,24	243,00
-12287,29	67,00
-12258,40	115,00
-12229,57	90,00
-12200,82	62,00
-12172,14	-92,00
-12143,52	84,00
-12114,97	211,00
-12086,49	10,00
-12058,07	134,00
-12029,73	90,00
-12001,44	231,00
-11973,23	16,00
-11945,08	149,00
-11917,00	95,00
-11888,98	123,00
-11861,03	101,00
-11833,15	62,00
-11805,32	188,00
-11777,57	124,00
-11749,88	153,00
-11722,25	26,00
-11694,69	51,00
-11667,19	154,00
-11639,75	72,00
-11612,38	113,00
-11585,07	144,00
-11557,83	144,00
-11530,65	169,00
-11503,53	101,00
-11476,47	121,00
-11449,48	214,00
-11422,54	107,00
-11395,67	92,00
-11368,86	221,00
-11342,11	47,00
-11315,43	175,00
-11288,80	12,00
-11262,23	158,00
-11235,73	144,00
-11209,28	242,00
-11182,90	87,00
-11156,57	80,00
-11130,31	197,00
-11104,10	85,00
-11077,96	131,00
-11051,87	91,00
-11025,84	169,00
-10999,87	7,00
-10973,96	232,00
-10948,11	147,00
-10922,31	7,00
-10896,58	62,00
-10870,90	130,00
-10845,28	4,00
-10819,71	142,00
-10794,20	267,00
-10768,75	104,00
-10743,36	123,00
-10718,02	128,00
-10692,74	104,00
-10667,52	220,00
-10642,35	103,00
-10617,24	26,00
-10592,18	123,00
-10567,18	80,00
-10542,23	283,00
-10517,34	92,00
-10492,51	141,00
-10467,72	77,00
-10443,00	185,00
-10418,32	-12,00
-10393,70	113,00
-10369,14	54,00
-10344,63	185,00
-10320,17	109,00
-10295,77	195,00
-10271,42	229,00
-10247,12	209,00
-10222,88	185,00
-10198,68	101,00
-10174,54	122,00
-10150,46	104,00
-10126,42	192,00
-10102,44	170,00
-10078,51	116,00
-10054,63	22,00
-10030,80	127,00
-10007,03	255,00
-9983,30	315,00
-9959,63	188,00
-9936,01	305,00
-9912,44	87,00
-9888,92	77,00
-9865,44	178,00
-9842,02	34,00
-9818,65	178,00
-9795,33	170,00
-9772,06	91,00
-9748,84	154,00
-9725,67	221,00
-9702,55	300,00
-9679,47	258,00
-9656,45	228,00
-9633,47	237,00
-9610,55	316,00
-9587,67	326,00
-9564,84	188,00
-9542,06	292,00
-9519,32	426,00
-9496,64	382,00
-9474,00	303,00
-9451,41	360,00
-9428,87	428,00
-9406,37	463,00
-9383,92	230,00
-9361,52	258,00
-9339,17	248,00
-9316,86	467,00
-9294,60	540,00
-9272,38	631,00
-9250,21	743,00
-9228,09	778,00
-9206,01	606,00
-9183,98	513,00
-9162,00	517,00
-9140,06	492,00
-9118,16	413,00
-9096,31	654,00
-9074,51	666,00
-9052,75	577,00
-9031,04	659,00
-9009,37	435,00
-8987,74	283,00
-8966,16	190,00
-8944,63	328,00
-8923,14	299,00
-8901,69	303,00
-8880,29	262,00
-8858,93	411,00
-8837,61	585,00
-8816,34	665,00
-8795,11	573,00
-8773,92	655,00
-8752,78	562,00
-8731,68	365,00
-8710,62	464,00
-8689,61	640,00
-8668,63	468,00
-8647,70	688,00
-8626,82	632,00
-8605,97	618,00
-8585,17	503,00
-8564,41	529,00
-8543,69	464,00
-8523,01	315,00
-8502,37	499,00
-8481,78	429,00
-8461,23	668,00
-8440,71	639,00
-8420,24	668,00
-8399,81	763,00
-8379,42	734,00
-8359,08	581,00
-8338,77	453,00
-8318,50	500,00
-8298,27	460,00
-8278,09	521,00
-8257,94	499,00
-8237,83	709,00
-8217,76	855,00
-8197,74	915,00
-8177,75	645,00
-8157,80	691,00
-8137,89	699,00
-8118,02	477,00
-8098,19	677,00
-8078,40	563,00
-8058,65	685,00
-8038,93	594,00
-8019,26	627,00
-7999,62	635,00
-7980,02	509,00
-7960,46	497,00
-7940,94	477,00
-7921,46	538,00
-7902,01	473,00
-7882,60	502,00
-7863,23	504,00
-7843,90	771,00
-7824,61	602,00
-7805,35	573,00
-7786,13	692,00
-7766,95	526,00
-7747,80	591,00
-7728,69	607,00
-7709,62	540,00
-7690,59	526,00
-7671,59	634,00
-7652,63	594,00
-7633,70	537,00
-7614,81	585,00
-7595,96	572,00
-7577,15	442,00
-7558,37	544,00
-7539,62	601,00
-7520,91	514,00
-7502,24	608,00
-7483,60	610,00
-7465,00	625,00
-7446,44	528,00
-7427,91	371,00
-7409,41	415,00
-7390,95	384,00
-7372,53	275,00
-7354,14	302,00
-7335,78	383,00
-7317,46	330,00
-7299,18	457,00
-7280,92	599,00
-7262,71	536,00
-7244,52	635,00
-7226,38	562,00
-7208,26	583,00
-7190,18	547,00
-7172,14	451,00
-7154,12	563,00
-7136,15	397,00
-7118,20	523,00
-7100,29	535,00
-7082,41	555,00
-7064,57	687,00
-7046,76	513,00
-7028,98	339,00
-7011,24	305,00
-6993,53	134,00
-6975,85	228,00
-6958,20	228,00
-6940,59	82,00
-6923,01	106,00
-6905,46	416,00
-6887,94	262,00
-6870,46	917,00
-6853,01	433,00
-6835,59	417,00
-6818,21	402,00
-6800,85	254,00
-6783,53	231,00
-6766,24	61,00
-6748,98	54,00
-6731,76	-12,00
-6714,56	69,00
-6697,40	46,00
-6680,26	92,00
-6663,16	340,00
-6646,09	240,00
-6629,05	259,00
-6612,05	406,00
-6595,07	341,00
-6578,13	363,00
-6561,21	242,00
-6544,33	288,00
-6527,47	70,00
-6510,65	-91,00
-6493,86	43,00
-6477,10	160,00
-6460,36	7,00
-6443,66	8,00
-6426,99	-18,00
-6410,35	219,00
-6393,74	124,00
-6377,16	111,00
-6360,61	121,00
-6344,09	187,00
-6327,59	105,00
-6311,13	336,00
-6294,70	248,00
-6278,29	448,00
-6261,92	272,00
-6245,58	303,00
-6229,26	408,00
-6212,97	318,00
-6196,72	95,00
-6180,49	190,00
-6164,29	-18,00
-6148,12	-23,00
-6131,98	-24,00
-6115,86	6,00
-6099,78	-94,00
-6083,72	-190,00
-6067,69	86,00
-6051,69	-21,00
-6035,72	77,00
-6019,78	-83,00
-6003,87	169,00
-5987,98	236,00
-5972,12	258,00
-5956,29	283,00
-5940,49	325,00
-5924,71	198,00
-5908,96	156,00
-5893,24	-67,00
-5877,55	267,00
-5861,89	34,00
-5846,25	-116,00
-5830,64	-45,00
-5815,05	24,00
-5799,50	137,00
-5783,97	218,00
-5768,47	220,00
-5752,99	154,00
-5737,55	286,00
-5722,12	253,00
-5706,73	139,00
-5691,36	66,00
-5676,02	-34,00
-5660,71	-1,00
-5645,42	9,00
-5630,16	131,00
-5614,92	115,00
-5599,71	100,00
-5584,53	12,00
-5569,37	116,00
-5554,24	142,00
-5539,14	110,00
-5524,06	189,00
-5509,01	105,00
-5493,98	39,00
-5478,98	19,00
-5464,00	37,00
-5449,05	66,00
-5434,13	47,00
-5419,23	120,00
-5404,36	89,00
-5389,51	152,00
-5374,69	204,00
-5359,89	308,00
-5345,12	285,00
-5330,37	212,00
-5315,65	319,00
-5300,95	158,00
-5286,28	104,00
-5271,63	99,00
-5257,01	58,00
-5242,41	45,00
-5227,84	44,00
-5213,29	129,00
-5198,76	72,00
-5184,26	93,00
-5169,79	81,00
-5155,33	53,00
-5140,91	159,00
-5126,51	183,00
-5112,13	131,00
-5097,77	262,00
-5083,44	113,00
-5069,13	90,00
-5054,85	-26,00
-5040,59	44,00
-5026,36	170,00
-5012,15	-90,00
-4997,96	49,00
-4983,80	82,00
-4969,66	79,00
-4955,54	294,00
-4941,44	135,00
-4927,37	132,00
-4913,33	262,00
-4899,30	296,00
-4885,30	318,00
-4871,33	260,00
-4857,37	156,00
-4843,44	168,00
-4829,53	187,00
-4815,65	19,00
-4801,79	-49,00
-4787,95	-49,00
-4774,13	183,00
-4760,34	89,00
-4746,56	156,00
-4732,82	210,00
-4719,09	207,00
-4705,38	205,00
-4691,70	256,00
-4678,04	281,00
-4664,41	343,00
-4650,79	251,00
-4637,20	308,00
-4623,63	125,00
-4610,08	77,00
-4596,56	134,00
-4583,05	99,00
-4569,57	192,00
-4556,11	20,00
-4542,67	149,00
-4529,25	130,00
-4515,86	179,00
-4502,49	232,00
-4489,13	226,00
-4475,80	242,00
-4462,49	141,00
-4449,21	279,00
-4435,94	112,00
-4422,70	110,00
-4409,47	182,00
-4396,27	98,00
-4383,09	127,00
-4369,93	75,00
-4356,79	52,00
-4343,67	136,00
-4330,58	65,00
-4317,50	135,00
-4304,45	27,00
-4291,41	112,00
-4278,40	206,00
-4265,41	133,00
-4252,44	222,00
-4239,49	140,00
-4226,55	202,00
-4213,65	199,00
-4200,76	218,00
-4187,89	178,00
-4175,04	131,00
-4162,21	21,00
-4149,40	192,00
-4136,61	77,00
-4123,85	262,00
-4111,10	40,00
-4098,37	151,00
-4085,66	-8,00
-4072,98	24,00
-4060,31	90,00
-4047,66	105,00
-4035,04	117,00
-4022,43	187,00
-4009,84	154,00
-3997,27	209,00
-3984,72	41,00
-3972,19	73,00
-3959,69	144,00
-3947,20	81,00
-3934,73	48,00
-3922,27	117,00
-3909,84	190,00
-3897,43	75,00
-3885,04	78,00
-3872,67	62,00
-3860,31	215,00
-3847,98	17,00
-3835,66	129,00
-3823,36	195,00
-3811,09	137,00
-3798,83	268,00
-3786,59	106,00
-3774,37	120,00
-3762,17	100,00
-3749,98	81,00
-3737,82	99,00
-3725,67	203,00
-3713,55	113,00
-3701,44	249,00
-3689,35	95,00
-3677,28	118,00
-3665,22	137,00
-3653,19	180,00
-3641,17	153,00
-3629,18	58,00
-3617,20	119,00
-3605,24	68,00
-3593,30	210,00
-3581,37	60,00
-3569,47	253,00
-3557,58	14,00
-3545,71	78,00
-3533,86	32,00
-3522,02	132,00
-3510,21	240,00
-3498,41	132,00
-3486,63	178,00
-3474,87	87,00
-3463,12	150,00
-3451,40	170,00
-3439,69	178,00
-3428,00	73,00
-3416,33	86,00
-3404,67	150,00
-3393,03	103,00
-3381,41	225,00
-3369,81	31,00
-3358,22	99,00
-3346,66	284,00
-3335,10	147,00
-3323,57	85,00
-3312,06	71,00
-3300,56	180,00
-3289,08	119,00
-3277,61	166,00
-3266,16	113,00
-3254,73	139,00
-3243,32	196,00
-3231,92	135,00
-3220,55	109,00
-3209,18	93,00
-3197,84	163,00
-3186,51	125,00
-3175,20	4,00
-3163,90	123,00
-3152,63	8,00
-3141,36	58,00
-3130,12	153,00
-3118,89	143,00
-3107,68	185,00
-3096,49	77,00
-3085,31	77,00
-3074,15	121,00
-3063,00	155,00
-3051,87	89,00
-3040,76	235,00
-3029,67	77,00
-3018,59	240,00
-3007,52	99,00
-2996,48	148,00
-2985,44	111,00
-2974,43	165,00
-2963,43	72,00
-2952,45	151,00
-2941,48	104,00
-2930,53	79,00
-2919,60	53,00
-2908,68	34,00
-2897,78	189,00
-2886,89	47,00
-2876,02	99,00
-2865,17	138,00
-2854,33	120,00
-2843,50	216,00
-2832,70	90,00
-2821,90	39,00
-2811,13	138,00
-2800,37	129,00
-2789,62	114,00
-2778,89	99,00
-2768,18	12,00
-2757,48	67,00
-2746,80	178,00
-2736,13	176,00
-2725,48	259,00
-2714,84	85,00
-2704,22	159,00
-2693,61	65,00
-2683,02	127,00
-2672,45	2,00
-2661,89	149,00
-2651,34	106,00
-2640,81	86,00
-2630,30	219,00
-2619,80	137,00
-2609,31	121,00
-2598,84	189,00
-2588,39	191,00
-2577,95	134,00
-2567,52	62,00
-2557,11	163,00
-2546,71	75,00
-2536,33	283,00
-2525,97	173,00
-2515,62	87,00
-2505,28	189,00
-2494,96	46,00
-2484,65	78,00
-2474,36	171,00
-2464,08	79,00
-2453,82	14,00
-2443,57	75,00
-2433,33	236,00
-2423,11	123,00
-2412,91	158,00
-2402,72	98,00
-2392,54	81,00
-2382,38	101,00
-2372,23	68,00
-2362,09	-4135,00
-2351,97	25,00
-2341,87	66,00
-2331,78	173,00
-2321,70	61,00
-2311,64	64,00
-2301,59	92,00
-2291,55	215,00
-2281,53	107,00
-2271,53	125,00
-2261,53	188,00
-2251,55	50,00
-2241,59	202,00
-2231,64	145,00
-2221,70	174,00
-2211,78	230,00
-2201,87	136,00
-2191,97	84,00
-2182,09	195,00
-2172,22	93,00
-2162,37	118,00
-2152,53	141,00
-2142,70	131,00
-2132,89	136,00
-2123,09	213,00
-2113,30	10,00
-2103,53	95,00
-2093,77	25,00
-2084,02	59,00
-2074,29	94,00
-2064,57	173,00
-2054,86	111,00
-2045,17	67,00
-2035,49	107,00
-2025,82	74,00
-2016,17	179,00
-2006,53	156,00
-1996,91	67,00
-1987,29	85,00
-1977,69	104,00
-1968,11	14,00
-1958,53	61,00
-1948,97	122,00
-1939,42	175,00
-1929,89	78,00
-1920,37	13,00
-1910,86	139,00
-1901,36	153,00
-1891,88	203,00
-1882,41	73,00
-1872,95	108,00
-1863,51	221,00
-1854,08	212,00
-1844,66	210,00
-1835,26	175,00
-1825,86	96,00
-1816,48	171,00
-1807,11	129,00
-1797,76	53,00
-1788,42	72,00
-1779,09	-23,00
-1769,77	220,00
-1760,47	74,00
-1751,17	-15,00
-1741,89	83,00
-1732,63	66,00
-1723,37	271,00
-1714,13	70,00
-1704,90	167,00
-1695,68	114,00
-1686,48	103,00
-1677,29	164,00
-1668,11	107,00
-1658,94	97,00
-1649,78	177,00
-1640,64	-15,00
-1631,51	107,00
-1622,39	72,00
-1613,28	132,00
-1604,19	56,00
-1595,10	25,00
-1586,03	182,00
-1576,97	153,00
-1567,93	184,00
-1558,89	91,00
-1549,87	128,00
-1540,86	84,00
-1531,86	27,00
-1522,87	224,00
-1513,90	88,00
-1504,93	47,00
-1495,98	109,00
-1487,04	95,00
-1478,12	53,00
-1469,20	135,00
-1460,30	83,00
-1451,40	169,00
-1442,52	94,00
-1433,65	110,00
-1424,80	86,00
-1415,95	77,00
-1407,12	77,00
-1398,30	39,00
-1389,48	51,00
-1380,69	190,00
-1371,90	48,00
-1363,12	126,00
-1354,36	26,00
-1345,60	208,00
-1336,86	218,00
-1328,13	146,00
-1319,41	62,00
-1310,70	6,00
-1302,01	145,00
-1293,32	158,00
-1284,65	168,00
-1275,99	133,00
-1267,33	152,00
-1258,69	139,00
-1250,06	190,00
-1241,45	79,00
-1232,84	257,00
-1224,25	174,00
-1215,66	105,00
-1207,09	133,00
-1198,53	204,00
-1189,97	-71,00
-1181,43	209,00
-1172,91	51,00
-1164,39	184,00
-1155,88	59,00
-1147,38	167,00
-1138,90	59,00
-1130,43	110,00
-1121,96	97,00
-1113,51	103,00
-1105,07	76,00
-1096,64	217,00
-1088,22	32,00
-1079,81	144,00
-1071,41	89,00
-1063,02	69,00
-1054,65	51,00
-1046,28	56,00
-1037,92	103,00
-1029,58	167,00
-1021,24	225,00
-1012,92	141,00
-1004,61	138,00
-996,30	164,00
-988,01	81,00
-979,73	136,00
-971,46	34,00
-963,20	109,00
-954,95	123,00
-946,71	157,00
-938,48	38,00
-930,26	52,00
-922,06	100,00
-913,86	187,00
-905,67	115,00
-897,49	118,00
-889,33	84,00
-881,17	290,00
-873,02	236,00
-864,89	45,00
-856,76	-34,00
-848,65	0,00
-840,54	152,00
-832,45	79,00
-824,36	167,00
-816,29	197,00
-808,22	108,00
-800,17	61,00
-792,12	124,00
-784,09	237,00
-776,06	32,00
-768,05	228,00
-760,04	94,00
-752,05	99,00
-744,07	160,00
-736,09	72,00
-728,13	66,00
-720,17	133,00
-712,23	-5,00
-704,29	224,00
-696,37	80,00
-688,45	260,00
-680,55	202,00
-672,65	71,00
-664,77	152,00
-656,89	191,00
-649,03	113,00
-641,17	152,00
-633,32	195,00
-625,49	226,00
-617,66	268,00
-609,84	94,00
-602,03	115,00
-594,23	99,00
-586,45	153,00
-578,67	87,00
-570,90	79,00
-563,14	175,00
-555,39	109,00
-547,65	219,00
-539,91	101,00
-532,19	41,00
-524,48	33,00
-516,78	190,00
-509,08	78,00
-501,40	63,00
-493,72	180,00
-486,06	85,00
-478,40	232,00
-470,76	74,00
-463,12	78,00
-455,49	136,00
-447,87	56,00
-440,26	93,00
-432,66	138,00
-425,07	30,00
-417,49	177,00
-409,92	119,00
-402,35	92,00
-394,80	163,00
-387,25	66,00
-379,72	247,00
-372,19	25,00
-364,67	263,00
-357,17	170,00
-349,67	99,00
-342,18	225,00
-334,69	378,00
-327,22	165,00
-319,76	91,00
-312,30	157,00
-304,86	106,00
-297,42	180,00
-290,00	29,00
-282,58	99,00
-275,17	147,00
-267,77	185,00
-260,37	142,00
-252,99	199,00
-245,62	180,00
-238,25	229,00
-230,90	142,00
-223,55	224,00
-216,21	277,00
-208,88	166,00
-201,56	135,00
-194,25	268,00
-186,94	292,00
-179,65	358,00
-172,36	282,00
-165,08	368,00
-157,81	431,00
-150,55	526,00
-143,30	520,00
-136,06	469,00
-128,82	483,00
-121,60	547,00
-114,38	683,00
-107,17	767,00
-99,97	843,00
-92,78	975,00
-85,60	996,00
-78,42	1185,00
-71,25	1384,00
-64,10	1393,00
-56,95	1837,00
-49,81	2178,00
-42,67	2645,00
-35,55	3228,00
-28,43	4137,00
-21,33	6852,00
-14,23	22013,00
-7,14	55431,00
-0,05	55196,00
7,02	54914,00
14,09	55080,00
21,14	23269,00
28,19	9266,00
35,23	5708,00
42,27	4193,00
49,29	3638,00
56,31	2987,00
63,32	2555,00
70,32	2009,00
77,31	1800,00
84,29	1581,00
91,27	1252,00
98,23	1426,00
105,19	1147,00
112,14	1253,00
119,09	1978,00
126,02	3003,00
132,95	3762,00
139,87	3926,00
146,78	4024,00
153,68	3951,00
160,58	3814,00
167,46	3812,00
174,34	3743,00
181,21	3756,00
188,08	3765,00
194,93	3801,00
201,78	3675,00
208,62	3736,00
215,45	3678,00
222,27	3788,00
229,09	3674,00
235,90	3753,00
242,70	3726,00
249,49	3697,00
256,27	3570,00
263,05	3569,00
269,82	3600,00
276,58	3622,00
283,33	3637,00
290,08	3493,00
296,82	3446,00
303,55	3432,00
310,27	3541,00
316,98	3415,00
323,69	3420,00
330,39	3262,00
337,08	3267,00
343,76	3323,00
350,44	3280,00
357,11	3261,00
363,77	3299,00
370,42	3163,00
377,07	3144,00
383,71	3122,00
390,34	3174,00
396,96	3209,00
403,58	3217,00
410,19	3128,00
416,79	3375,00
423,38	3381,00
429,97	3246,00
436,55	3090,00
443,12	3053,00
449,68	3025,00
456,24	3059,00
462,79	2881,00
469,33	3066,00
475,86	3006,00
482,39	2789,00
488,91	2935,00
495,42	3059,00
501,93	2816,00
508,42	2825,00
514,91	2843,00
521,40	2911,00
527,87	2866,00
534,34	2799,00
540,80	2675,00
547,25	2734,00
553,70	2748,00
560,14	2711,00
566,57	2768,00
573,00	2665,00
579,41	2705,00
585,83	2666,00
592,23	2704,00
598,62	2552,00
605,01	2792,00
611,40	2547,00
617,77	2488,00
624,14	2537,00
630,50	2486,00
636,85	2470,00
643,20	2467,00
649,54	2595,00
655,87	2626,00
662,20	2491,00
668,52	2591,00
674,83	2508,00
681,13	2574,00
687,43	2472,00
693,72	2450,00
700,00	2458,00
706,28	2442,00
712,55	2470,00
718,81	2198,00
725,07	2498,00
731,32	2405,00
737,56	2375,00
743,79	2435,00
750,02	2393,00
756,24	2426,00
762,46	2435,00
768,67	2365,00
774,87	2289,00
781,06	2378,00
787,25	2353,00
793,43	2357,00
799,60	2435,00
805,77	2213,00
811,93	2384,00
818,08	2355,00
824,23	2236,00
830,37	2349,00
836,50	2338,00
842,63	2280,00
848,75	2201,00
854,87	2392,00
860,97	2321,00
867,07	2258,00
873,17	2332,00
879,25	2340,00
885,33	2156,00
891,41	2261,00
897,47	2352,00
903,53	2144,00
909,59	2190,00
915,63	2152,00
921,67	2199,00
927,71	2037,00
933,74	2211,00
939,76	2133,00
945,77	2093,00
951,78	2231,00
957,78	2030,00
963,78	2125,00
969,77	2069,00
975,75	1966,00
981,72	2017,00
987,69	2002,00
993,66	2059,00
999,61	2052,00
1005,56	2217,00
1011,51	2121,00
1017,44	2030,00
1023,37	2153,00
1029,30	2048,00
1035,22	2022,00
1041,13	2085,00
1047,03	2169,00
1052,93	2200,00
1058,83	2379,00
1064,71	2566,00
1070,59	2398,00
1076,47	2343,00
1082,33	2054,00
1088,20	1970,00
1094,05	1862,00
1099,90	1976,00
1105,74	2050,00
1111,58	2019,00
1117,41	2075,00
1123,23	2225,00
1129,05	2360,00
1134,86	2327,00
1140,67	2145,00
1146,47	1993,00
1152,26	1986,00
1158,05	1978,00
1163,83	2105,00
1169,60	1861,00
1175,37	1951,00
1181,13	1881,00
1186,89	1841,00
1192,64	1852,00
1198,38	1827,00
1204,12	1688,00
1209,85	1867,00
1215,58	1746,00
1221,30	1829,00
1227,02	1814,00
1232,72	1772,00
1238,43	1894,00
1244,12	1810,00
1249,81	1768,00
1255,50	1932,00
1261,17	1876,00
1266,85	1934,00
1272,51	1883,00
1278,17	1875,00
1283,83	2061,00
1289,47	2284,00
1295,12	2679,00
1300,75	2494,00
1306,38	2403,00
1312,01	2115,00
1317,63	2160,00
1323,24	2027,00
1328,85	2044,00
1334,45	2095,00
1340,04	1895,00
1345,63	2074,00
1351,22	2080,00
1356,80	2066,00
1362,37	2056,00
1367,93	2081,00
1373,49	1984,00
1379,05	1930,00
1384,60	1885,00
1390,14	1953,00
1395,68	1943,00
1401,21	2101,00
1406,74	1944,00
1412,26	2276,00
1417,77	2195,00
1423,28	2374,00
1428,78	2386,00
1434,28	2544,00
1439,77	2726,00
1445,26	2702,00
1450,74	2664,00
1456,22	2593,00
1461,68	2505,00
1467,15	2305,00
1472,61	2114,00
1478,06	1929,00
1483,51	2040,00
1488,95	1757,00
1494,38	1816,00
1499,81	1793,00
1505,24	1768,00
1510,65	1769,00
1516,07	1756,00
1521,48	1644,00
1526,88	1634,00
1532,27	1650,00
1537,67	1628,00
1543,05	1641,00
1548,43	1594,00
1553,81	1593,00
1559,18	1564,00
1564,54	1628,00
1569,90	1670,00
1575,25	1490,00
1580,60	1524,00
1585,94	1625,00
1591,28	1522,00
1596,61	1576,00
1601,93	1425,00
1607,25	1503,00
1612,57	1526,00
1617,88	1402,00
1623,18	1450,00
1628,48	1374,00
1633,77	1477,00
1639,06	1450,00
1644,34	1504,00
1649,62	1438,00
1654,89	1519,00
1660,16	1421,00
1665,42	1212,00
1670,67	1449,00
1675,92	1356,00
1681,17	1377,00
1686,41	1481,00
1691,64	1489,00
1696,87	1278,00
1702,10	1314,00
1707,32	1371,00
1712,53	1327,00
1717,74	1299,00
1722,94	1393,00
1728,14	1337,00
1733,33	1203,00
1738,52	1145,00
1743,70	1246,00
1748,88	1190,00
1754,05	1238,00
1759,22	1212,00
1764,38	-202,00
1769,53	1278,00
1774,69	1294,00
1779,83	1116,00
1784,97	1104,00
1790,11	1232,00
1795,24	1141,00
1800,36	1193,00
1805,48	1235,00
1810,60	1165,00
1815,71	1214,00
1820,82	1245,00
1825,92	1197,00
1831,01	1085,00
1836,10	1000,00
1841,19	1111,00
1846,26	1144,00
1851,34	1042,00
1856,41	1111,00
1861,47	1012,00
1866,53	1085,00
1871,59	1135,00
1876,64	961,00
1881,68	960,00
1886,72	953,00
1891,76	962,00
1896,79	1099,00
1901,81	1042,00
1906,83	961,00
1911,85	961,00
1916,86	1033,00
1921,86	1002,00
1926,86	1029,00
1931,86	1014,00
1936,85	861,00
1941,83	915,00
1946,81	807,00
1951,79	818,00
1956,76	891,00
1961,72	1023,00
1966,68	827,00
1971,64	787,00
1976,59	863,00
1981,54	878,00
1986,48	792,00
1991,42	776,00
1996,35	735,00
2001,27	841,00
2006,20	847,00
2011,11	710,00
2016,03	804,00
2020,93	880,00
2025,84	877,00
2030,73	914,00
2035,63	763,00
2040,52	767,00
2045,40	797,00
2050,28	792,00
2055,15	709,00
2060,02	744,00
2064,89	734,00
2069,75	837,00
2074,60	665,00
2079,46	690,00
2084,30	778,00
2089,14	813,00
2093,98	635,00
2098,81	799,00
2103,64	714,00
2108,46	806,00
2113,28	624,00
2118,09	622,00
2122,90	696,00
2127,70	857,00
2132,50	675,00
2137,30	710,00
2142,09	705,00
2146,87	830,00
2151,66	663,00
2156,43	868,00
2161,20	574,00
2165,97	707,00
2170,73	610,00
2175,49	612,00
2180,24	755,00
2184,99	698,00
2189,74	749,00
2194,48	726,00
2199,21	673,00
2203,94	724,00
2208,67	591,00
2213,39	676,00
2218,11	593,00
2222,82	711,00
2227,53	652,00
2232,23	701,00
2236,93	566,00
2241,63	636,00
2246,32	707,00
2251,00	541,00
2255,68	659,00
2260,36	488,00
2265,03	598,00
2269,70	711,00
2274,36	685,00
2279,02	539,00
2283,68	624,00
2288,33	520,00
2292,97	481,00
2297,61	419,00
2302,25	600,00
2306,88	739,00
2311,51	542,00
2316,14	524,00
2320,75	508,00
2325,37	626,00
2329,98	474,00
2334,59	477,00
2339,19	621,00
2343,79	569,00
2348,38	607,00
2352,97	517,00
2357,55	520,00
2362,13	505,00
2366,71	517,00
2371,28	559,00
2375,85	525,00
2380,41	495,00
2384,97	490,00
2389,52	514,00
2394,07	584,00
2398,62	458,00
2403,16	546,00
2407,70	486,00
2412,23	423,00
2416,76	551,00
2421,29	443,00
2425,81	455,00
2430,32	403,00
2434,84	509,00
2439,34	419,00
2443,85	584,00
2448,35	487,00
2452,84	458,00
2457,33	376,00
2461,82	441,00
2466,30	424,00
2470,78	455,00
2475,25	635,00
2479,72	418,00
2484,19	277,00
2488,65	548,00
2493,11	513,00
2497,56	464,00
2502,01	391,00
2506,46	341,00
2510,90	445,00
2515,34	412,00
2519,77	361,00
2524,20	483,00
2528,62	589,00
2533,04	520,00
2537,46	399,00
2541,87	408,00
2546,28	316,00
2550,68	446,00
2555,08	430,00
2559,48	398,00
2563,87	560,00
2568,26	426,00
2572,64	373,00
2577,02	480,00
2581,40	434,00
2585,77	336,00
2590,14	355,00
2594,50	435,00
2598,86	426,00
2603,22	388,00
2607,57	433,00
2611,92	350,00
2616,26	365,00
2620,60	510,00
2624,94	358,00
2629,27	473,00
2633,60	418,00
2637,92	334,00
2642,24	474,00
2646,56	375,00
2650,87	410,00
2655,18	345,00
2659,48	315,00
2663,78	480,00
2668,08	427,00
2672,37	298,00
2676,66	418,00
2680,95	357,00
2685,23	585,00
2689,50	369,00
2693,78	438,00
2698,05	454,00
2702,31	397,00
2706,57	303,00
2710,83	425,00
2715,08	452,00
2719,33	404,00
2723,58	457,00
2727,82	482,00
2732,06	540,00
2736,29	457,00
2740,53	467,00
2744,75	365,00
2748,97	414,00
2753,19	466,00
2757,41	521,00
2761,62	326,00
2765,83	463,00
2770,03	392,00
2774,23	537,00
2778,43	449,00
2782,62	327,00
2786,81	403,00
2791,00	469,00
2795,18	517,00
2799,35	499,00
2803,53	516,00
2807,70	406,00
2811,86	403,00
2816,03	550,00
2820,19	499,00
2824,34	581,00
2828,49	492,00
2832,64	639,00
2836,78	853,00
2840,92	874,00
2845,06	1189,00
2849,19	1193,00
2853,32	1439,00
2857,45	1263,00
2861,57	1226,00
2865,69	1185,00
2869,80	1297,00
2873,91	1251,00
2878,02	1197,00
2882,12	1323,00
2886,22	1408,00
2890,32	1306,00
2894,41	1353,00
2898,50	1206,00
2902,58	1098,00
2906,67	1044,00
2910,74	1066,00
2914,82	904,00
2918,89	952,00
2922,96	833,00
2927,02	870,00
2931,08	862,00
2935,13	707,00
2939,19	752,00
2943,24	641,00
2947,28	606,00
2951,32	589,00
2955,36	490,00
2959,40	580,00
2963,43	514,00
2967,46	455,00
2971,48	526,00
2975,50	582,00
2979,52	534,00
2983,53	413,00
2987,54	442,00
2991,55	328,00
2995,55	258,00
2999,55	194,00
3003,54	353,00
3007,54	273,00
3011,53	211,00
3015,51	260,00
3019,49	330,00
3023,47	173,00
3027,45	220,00
3031,42	300,00
3035,39	310,00
3039,35	302,00
3043,31	215,00
3047,27	256,00
3051,22	333,00
3055,17	141,00
3059,12	274,00
3063,06	172,00
3067,00	257,00
3070,94	266,00
3074,87	258,00
3078,80	321,00
3082,73	186,00
3086,65	345,00
3090,57	184,00
3094,49	180,00
3098,40	248,00
3102,31	194,00
3106,22	346,00
3110,12	263,00
3114,02	244,00
3117,92	286,00
3121,81	185,00
3125,70	294,00
3129,58	174,00
3133,47	116,00
3137,34	224,00
3141,22	326,00
3145,09	323,00
3148,96	208,00
3152,83	96,00
3156,69	250,00
3160,55	191,00
3164,40	171,00
3168,26	139,00
3172,10	304,00
3175,95	296,00
3179,79	222,00
3183,63	192,00
3187,47	201,00
3191,30	51,00
3195,13	259,00
3198,95	214,00
3202,78	190,00
3206,60	131,00
3210,41	121,00
3214,23	269,00
3218,03	220,00
3221,84	272,00
3225,64	63,00
3229,44	213,00
3233,24	160,00
3237,03	107,00
3240,82	159,00
3244,61	188,00
3248,39	288,00
3252,17	216,00
3255,95	77,00
3259,72	265,00
3263,49	180,00
3267,26	137,00
3271,03	109,00
3274,79	138,00
3278,54	150,00
3282,30	264,00
3286,05	142,00
3289,80	187,00
3293,54	165,00
3297,29	313,00
3301,02	297,00
3304,76	164,00
3308,49	235,00
3312,22	161,00
3315,95	252,00
3319,67	227,00
3323,39	188,00
3327,10	130,00
3330,82	185,00
3334,53	297,00
3338,24	134,00
3341,94	181,00
3345,64	184,00
3349,34	119,00
3353,03	149,00
3356,72	172,00
3360,41	159,00
3364,10	104,00
3367,78	263,00
3371,46	180,00
3375,13	171,00
3378,81	310,00
3382,48	198,00
3386,14	214,00
3389,81	310,00
3393,47	282,00
3397,12	203,00
3400,78	198,00
3404,43	115,00
3408,08	76,00
3411,72	96,00
3415,36	58,00
3419,00	149,00
3422,64	88,00
3426,27	80,00
3429,90	209,00
3433,53	141,00
3437,15	206,00
3440,77	204,00
3444,39	135,00
3448,00	123,00
3451,62	179,00
3455,22	178,00
3458,83	201,00
3462,43	124,00
3466,03	48,00
3469,63	119,00
3473,22	129,00
3476,81	68,00
3480,40	32,00
3483,99	38,00
3487,57	133,00
3491,15	147,00
3494,72	139,00
3498,29	215,00
3501,86	26,00
3505,43	112,00
3508,99	133,00
3512,56	98,00
3516,11	50,00
3519,67	185,00
3523,22	73,00
3526,77	185,00
3530,32	212,00
3533,86	86,00
3537,40	116,00
3540,94	45,00
3544,47	168,00
3548,00	132,00
3551,53	178,00
3555,06	42,00
3558,58	196,00
3562,10	148,00
3565,62	153,00
3569,13	143,00
3572,64	235,00
3576,15	52,00
3579,66	144,00
3583,16	107,00
3586,66	5,00
3590,16	124,00
3593,65	218,00
3597,14	21,00
3600,63	83,00
3604,11	56,00
3607,60	150,00
3611,08	144,00
3614,55	71,00
3618,03	110,00
3621,50	149,00
3624,97	99,00
3628,43	245,00
3631,90	74,00
3635,36	140,00
3638,81	148,00
3642,27	129,00
3645,72	130,00
3649,17	128,00
3652,61	115,00
3656,06	90,00
3659,50	73,00
3662,93	57,00
3666,37	155,00
3669,80	66,00
3673,23	105,00
3676,65	122,00
3680,08	138,00
3683,50	84,00
3686,92	120,00
3690,33	94,00
3693,74	148,00
3697,15	120,00
3700,56	-14,00
3703,96	88,00
3707,36	25,00
3710,76	56,00
3714,16	52,00
3717,55	103,00
3720,94	67,00
3724,33	148,00
3727,71	73,00
3731,10	170,00
3734,48	167,00
3737,85	159,00
3741,23	113,00
3744,60	75,00
3747,97	111,00
3751,33	2,00
3754,69	91,00
3758,05	137,00
3761,41	9,00
3764,77	124,00
3768,12	96,00
3771,47	82,00
3774,82	84,00
3778,16	5,00
3781,50	-2,00
3784,84	0,00
3788,18	0,00
>>>>>End Processed Spectral Data<<<<<
