SpectraSuite Data File
++++++++++++++++++++++++++++++++++++
Date: Wed Feb 04 16:19:00 ICT 2026
User: Administrator
Dark Spectrum Present: Yes
Reference Spectrum Present: No
Number of Sampled Component Spectra: 1
Spectrometers: MAYP113682
Integration Time (usec): 3000000 (MAYP113682)
Spectra Averaged: 1 (MAYP113682)
Boxcar Smoothing: 0 (MAYP113682)
Correct for Electrical Dark: No (MAYP113682)
Strobe/Lamp Enabled: No (MAYP113682)
Correct for Detector Non-linearity: No (MAYP113682)
Correct for Stray Light: No (MAYP113682)
Number of Pixels in Processed Spectrum: 2068
>>>>>Begin Processed Spectral Data<<<<<
-37534,58	7,00
-37414,56	-1,00
-37295,11	-2,00
-37176,24	0,00
-37057,95	108,00
-36940,22	137,00
-36823,05	63,00
-36706,45	126,00
-36590,40	82,00
-36474,90	65,00
-36359,95	35,00
-36245,55	98,00
-36131,68	108,00
-36018,35	160,00
-35905,55	135,00
-35793,29	100,00
-35681,54	213,00
-35570,32	102,00
-35459,62	107,00
-35349,43	90,00
-35239,75	51,00
-35130,58	108,00
-35021,91	178,00
-34913,74	94,00
-34806,07	45,00
-34698,89	187,00
-34592,20	93,00
-34486,00	57,00
-34380,28	75,00
-34275,04	157,00
-34170,27	76,00
-34065,98	10,00
-33962,16	159,00
-33858,81	-3,00
-33755,92	127,00
-33653,49	54,00
-33551,52	202,00
-33450,01	189,00
-33348,94	129,00
-33248,33	123,00
-33148,16	157,00
-33048,43	139,00
-32949,14	112,00
-32850,29	188,00
-32751,87	177,00
-32653,89	110,00
-32556,33	157,00
-32459,20	-74,00
-32362,49	110,00
-32266,19	146,00
-32170,32	190,00
-32074,86	127,00
-31979,82	288,00
-31885,18	73,00
-31790,95	199,00
-31697,12	52,00
-31603,69	97,00
-31510,67	133,00
-31418,04	151,00
-31325,80	143,00
-31233,95	269,00
-31142,49	44,00
-31051,42	138,00
-30960,73	58,00
-30870,43	160,00
-30780,50	133,00
-30690,95	84,00
-30601,77	122,00
-30512,97	152,00
-30424,53	106,00
-30336,46	105,00
-30248,76	26,00
-30161,42	124,00
-30074,44	142,00
-29987,81	239,00
-29901,55	112,00
-29815,63	218,00
-29730,07	-16,00
-29644,86	276,00
-29560,00	139,00
-29475,48	-18,00
-29391,30	195,00
-29307,47	128,00
-29223,97	153,00
-29140,81	100,00
-29057,99	56,00
-28975,50	269,00
-28893,34	156,00
-28811,51	83,00
-28730,00	29,00
-28648,82	186,00
-28567,97	105,00
-28487,43	178,00
-28407,21	75,00
-28327,32	11,00
-28247,73	141,00
-28168,46	162,00
-28089,50	243,00
-28010,85	119,00
-27932,51	114,00
-27854,48	202,00
-27776,75	18,00
-27699,32	97,00
-27622,19	130,00
-27545,37	73,00
-27468,84	148,00
-27392,60	231,00
-27316,66	191,00
-27241,01	147,00
-27165,66	178,00
-27090,59	75,00
-27015,81	184,00
-26941,31	93,00
-26867,10	172,00
-26793,17	210,00
-26719,52	205,00
-26646,15	210,00
-26573,06	121,00
-26500,24	46,00
-26427,70	232,00
-26355,43	116,00
-26283,43	160,00
-26211,71	121,00
-26140,25	131,00
-26069,06	186,00
-25998,13	134,00
-25927,46	29,00
-25857,06	136,00
-25786,92	122,00
-25717,04	272,00
-25647,42	25,00
-25578,05	150,00
-25508,94	108,00
-25440,09	137,00
-25371,48	242,00
-25303,13	35,00
-25235,02	35,00
-25167,17	166,00
-25099,56	126,00
-25032,19	214,00
-24965,07	74,00
-24898,20	201,00
-24831,56	176,00
-24765,17	116,00
-24699,01	42,00
-24633,10	159,00
-24567,41	98,00
-24501,97	75,00
-24436,75	146,00
-24371,77	34,00
-24307,03	-30,00
-24242,51	109,00
-24178,22	79,00
-24114,16	115,00
-24050,32	197,00
-23986,71	122,00
-23923,32	65,00
-23860,16	144,00
-23797,22	233,00
-23734,50	207,00
-23672,00	-99,00
-23609,71	77,00
-23547,65	121,00
-23485,80	167,00
-23424,16	198,00
-23362,74	66,00
-23301,53	124,00
-23240,54	173,00
-23179,75	166,00
-23119,17	97,00
-23058,80	149,00
-22998,64	91,00
-22938,68	103,00
-22878,93	124,00
-22819,39	57,00
-22760,04	118,00
-22700,90	91,00
-22641,96	86,00
-22583,22	206,00
-22524,68	169,00
-22466,33	131,00
-22408,19	139,00
-22350,23	164,00
-22292,48	137,00
-22234,92	97,00
-22177,55	140,00
-22120,37	120,00
-22063,38	116,00
-22006,58	17,00
-21949,98	221,00
-21893,56	118,00
-21837,33	104,00
-21781,28	152,00
-21725,42	129,00
-21669,74	58,00
-21614,25	29,00
-21558,94	76,00
-21503,81	88,00
-21448,86	167,00
-21394,10	-6,00
-21339,51	192,00
-21285,10	162,00
-21230,86	82,00
-21176,81	134,00
-21122,93	141,00
-21069,22	171,00
-21015,69	211,00
-20962,33	119,00
-20909,14	114,00
-20856,13	-33,00
-20803,28	184,00
-20750,61	69,00
-20698,10	112,00
-20645,76	84,00
-20593,59	171,00
-20541,59	26,00
-20489,75	171,00
-20438,07	-27,00
-20386,56	201,00
-20335,22	70,00
-20284,03	257,00
-20233,01	38,00
-20182,15	50,00
-20131,45	191,00
-20080,91	162,00
-20030,52	46,00
-19980,30	143,00
-19930,23	119,00
-19880,32	96,00
-19830,56	14,00
-19780,96	108,00
-19731,52	154,00
-19682,23	119,00
-19633,09	78,00
-19584,10	93,00
-19535,26	294,00
-19486,58	170,00
-19438,04	195,00
-19389,66	198,00
-19341,42	117,00
-19293,33	103,00
-19245,39	125,00
-19197,60	234,00
-19149,95	249,00
-19102,45	124,00
-19055,09	16,00
-19007,87	138,00
-18960,80	96,00
-18913,87	202,00
-18867,09	218,00
-18820,44	214,00
-18773,94	240,00
-18727,57	55,00
-18681,35	146,00
-18635,26	217,00
-18589,31	106,00
-18543,50	105,00
-18497,83	129,00
-18452,29	46,00
-18406,89	205,00
-18361,63	371,00
-18316,50	67,00
-18271,50	81,00
-18226,63	32,00
-18181,90	52,00
-18137,30	95,00
-18092,84	225,00
-18048,50	135,00
-18004,29	128,00
-17960,22	177,00
-17916,27	230,00
-17872,45	140,00
-17828,76	113,00
-17785,20	175,00
-17741,77	189,00
-17698,46	238,00
-17655,28	203,00
-17612,22	211,00
-17569,29	94,00
-17526,48	140,00
-17483,79	267,00
-17441,23	26,00
-17398,79	126,00
-17356,48	176,00
-17314,28	89,00
-17272,21	134,00
-17230,26	135,00
-17188,42	196,00
-17146,71	202,00
-17105,12	114,00
-17063,64	131,00
-17022,28	198,00
-16981,04	184,00
-16939,92	112,00
-16898,91	30,00
-16858,02	122,00
-16817,25	125,00
-16776,59	100,00
-16736,04	198,00
-16695,61	152,00
-16655,29	26,00
-16615,09	141,00
-16574,99	111,00
-16535,01	81,00
-16495,15	132,00
-16455,39	-10,00
-16415,74	76,00
-16376,21	144,00
-16336,78	34,00
-16297,46	156,00
-16258,26	245,00
-16219,16	157,00
-16180,17	104,00
-16141,28	95,00
-16102,51	104,00
-16063,84	102,00
-16025,27	105,00
-15986,82	119,00
-15948,46	189,00
-15910,22	193,00
-15872,07	149,00
-15834,04	147,00
-15796,10	154,00
-15758,27	125,00
-15720,54	64,00
-15682,91	171,00
-15645,39	152,00
-15607,97	114,00
-15570,64	112,00
-15533,42	66,00
-15496,30	140,00
-15459,28	97,00
-15422,36	50,00
-15385,54	108,00
-15348,82	114,00
-15312,19	146,00
-15275,66	154,00
-15239,23	215,00
-15202,90	169,00
-15166,67	167,00
-15130,53	163,00
-15094,48	206,00
-15058,54	80,00
-15022,68	97,00
-14986,93	107,00
-14951,26	132,00
-14915,69	125,00
-14880,22	76,00
-14844,84	107,00
-14809,55	31,00
-14774,35	222,00
-14739,25	79,00
-14704,24	178,00
-14669,32	149,00
-14634,49	222,00
-14599,75	238,00
-14565,10	28,00
-14530,55	86,00
-14496,08	144,00
-14461,70	80,00
-14427,41	95,00
-14393,21	94,00
-14359,10	150,00
-14325,07	132,00
-14291,14	121,00
-14257,29	76,00
-14223,52	73,00
-14189,85	157,00
-14156,26	166,00
-14122,76	195,00
-14089,34	116,00
-14056,01	188,00
-14022,76	40,00
-13989,60	46,00
-13956,52	101,00
-13923,53	222,00
-13890,62	227,00
-13857,79	77,00
-13825,05	108,00
-13792,39	196,00
-13759,81	70,00
-13727,31	26,00
-13694,90	159,00
-13662,57	170,00
-13630,31	213,00
-13598,14	180,00
-13566,05	107,00
-13534,05	112,00
-13502,12	159,00
-13470,27	177,00
-13438,50	228,00
-13406,80	119,00
-13375,19	150,00
-13343,66	85,00
-13312,20	64,00
-13280,83	106,00
-13249,53	99,00
-13218,30	122,00
-13187,16	188,00
-13156,09	124,00
-13125,10	77,00
-13094,18	244,00
-13063,34	114,00
-13032,58	31,00
-13001,89	164,00
-12971,28	78,00
-12940,74	183,00
-12910,27	138,00
-12879,88	185,00
-12849,57	20,00
-12819,33	68,00
-12789,16	192,00
-12759,06	63,00
-12729,04	198,00
-12699,09	1363,00
-12669,21	190,00
-12639,41	158,00
-12609,68	121,00
-12580,02	125,00
-12550,43	93,00
-12520,91	270,00
-12491,46	161,00
-12462,08	216,00
-12432,77	68,00
-12403,54	44,00
-12374,37	191,00
-12345,27	49,00
-12316,24	211,00
-12287,29	146,00
-12258,40	187,00
-12229,57	90,00
-12200,82	48,00
-12172,14	28,00
-12143,52	22,00
-12114,97	177,00
-12086,49	104,00
-12058,07	173,00
-12029,73	191,00
-12001,44	171,00
-11973,23	147,00
-11945,08	163,00
-11917,00	164,00
-11888,98	150,00
-11861,03	71,00
-11833,15	171,00
-11805,32	213,00
-11777,57	119,00
-11749,88	223,00
-11722,25	93,00
-11694,69	128,00
-11667,19	174,00
-11639,75	42,00
-11612,38	84,00
-11585,07	140,00
-11557,83	199,00
-11530,65	117,00
-11503,53	205,00
-11476,47	226,00
-11449,48	92,00
-11422,54	158,00
-11395,67	90,00
-11368,86	194,00
-11342,11	181,00
-11315,43	176,00
-11288,80	81,00
-11262,23	237,00
-11235,73	144,00
-11209,28	258,00
-11182,90	140,00
-11156,57	237,00
-11130,31	204,00
-11104,10	134,00
-11077,96	186,00
-11051,87	187,00
-11025,84	216,00
-10999,87	31,00
-10973,96	189,00
-10948,11	134,00
-10922,31	140,00
-10896,58	107,00
-10870,90	204,00
-10845,28	160,00
-10819,71	156,00
-10794,20	206,00
-10768,75	271,00
-10743,36	123,00
-10718,02	127,00
-10692,74	212,00
-10667,52	288,00
-10642,35	210,00
-10617,24	160,00
-10592,18	255,00
-10567,18	211,00
-10542,23	267,00
-10517,34	238,00
-10492,51	217,00
-10467,72	130,00
-10443,00	399,00
-10418,32	200,00
-10393,70	256,00
-10369,14	138,00
-10344,63	322,00
-10320,17	206,00
-10295,77	328,00
-10271,42	281,00
-10247,12	401,00
-10222,88	338,00
-10198,68	450,00
-10174,54	374,00
-10150,46	387,00
-10126,42	422,00
-10102,44	485,00
-10078,51	427,00
-10054,63	436,00
-10030,80	511,00
-10007,03	591,00
-9983,30	744,00
-9959,63	631,00
-9936,01	607,00
-9912,44	637,00
-9888,92	706,00
-9865,44	749,00
-9842,02	618,00
-9818,65	805,00
-9795,33	846,00
-9772,06	781,00
-9748,84	838,00
-9725,67	991,00
-9702,55	1156,00
-9679,47	1379,00
-9656,45	1431,00
-9633,47	1466,00
-9610,55	1655,00
-9587,67	1659,00
-9564,84	1747,00
-9542,06	1887,00
-9519,32	2352,00
-9496,64	2211,00
-9474,00	2491,00
-9451,41	2676,00
-9428,87	2817,00
-9406,37	2664,00
-9383,92	2543,00
-9361,52	2447,00
-9339,17	2630,00
-9316,86	3252,00
-9294,60	3622,00
-9272,38	4048,00
-9250,21	4334,00
-9228,09	4460,00
-9206,01	4339,00
-9183,98	4061,00
-9162,00	3810,00
-9140,06	3648,00
-9118,16	3632,00
-9096,31	3969,00
-9074,51	4058,00
-9052,75	3996,00
-9031,04	3856,00
-9009,37	3600,00
-8987,74	3113,00
-8966,16	2734,00
-8944,63	2642,00
-8923,14	2527,00
-8901,69	2667,00
-8880,29	2710,00
-8858,93	3036,00
-8837,61	3394,00
-8816,34	3607,00
-8795,11	3543,00
-8773,92	3365,00
-8752,78	2909,00
-8731,68	2610,00
-8710,62	2828,00
-8689,61	2982,00
-8668,63	3155,00
-8647,70	3471,00
-8626,82	3369,00
-8605,97	3181,00
-8585,17	2855,00
-8564,41	2638,00
-8543,69	2513,00
-8523,01	2384,00
-8502,37	2525,00
-8481,78	2685,00
-8461,23	2974,00
-8440,71	3072,00
-8420,24	3284,00
-8399,81	3359,00
-8379,42	3372,00
-8359,08	3169,00
-8338,77	2769,00
-8318,50	2612,00
-8298,27	2491,00
-8278,09	2483,00
-8257,94	2694,00
-8237,83	3149,00
-8217,76	3189,00
-8197,74	3174,00
-8177,75	2982,00
-8157,80	2856,00
-8137,89	2509,00
-8118,02	2418,00
-8098,19	2335,00
-8078,40	2598,00
-8058,65	2597,00
-8038,93	2628,00
-8019,26	2682,00
-7999,62	2373,00
-7980,02	2275,00
-7960,46	2241,00
-7940,94	2017,00
-7921,46	2213,00
-7902,01	2079,00
-7882,60	1956,00
-7863,23	2171,00
-7843,90	2246,00
-7824,61	2399,00
-7805,35	2439,00
-7786,13	2347,00
-7766,95	2322,00
-7747,80	2232,00
-7728,69	2114,00
-7709,62	2117,00
-7690,59	2340,00
-7671,59	2489,00
-7652,63	2376,00
-7633,70	2430,00
-7614,81	2262,00
-7595,96	2111,00
-7577,15	2050,00
-7558,37	2010,00
-7539,62	1996,00
-7520,91	2208,00
-7502,24	2313,00
-7483,60	2361,00
-7465,00	2172,00
-7446,44	1945,00
-7427,91	1707,00
-7409,41	1679,00
-7390,95	1550,00
-7372,53	1365,00
-7354,14	1396,00
-7335,78	1421,00
-7317,46	1404,00
-7299,18	1723,00
-7280,92	1947,00
-7262,71	2127,00
-7244,52	2254,00
-7226,38	2268,00
-7208,26	2211,00
-7190,18	2075,00
-7172,14	1838,00
-7154,12	1956,00
-7136,15	1970,00
-7118,20	2061,00
-7100,29	2166,00
-7082,41	2243,00
-7064,57	2062,00
-7046,76	2009,00
-7028,98	1856,00
-7011,24	1588,00
-6993,53	1223,00
-6975,85	1186,00
-6958,20	1112,00
-6940,59	1015,00
-6923,01	1053,00
-6905,46	1345,00
-6887,94	1587,00
-6870,46	2323,00
-6853,01	1886,00
-6835,59	1949,00
-6818,21	1733,00
-6800,85	1385,00
-6783,53	1251,00
-6766,24	992,00
-6748,98	820,00
-6731,76	714,00
-6714,56	717,00
-6697,40	866,00
-6680,26	891,00
-6663,16	1093,00
-6646,09	1324,00
-6629,05	1556,00
-6612,05	1643,00
-6595,07	1568,00
-6578,13	1371,00
-6561,21	1105,00
-6544,33	1055,00
-6527,47	636,00
-6510,65	621,00
-6493,86	702,00
-6477,10	615,00
-6460,36	710,00
-6443,66	752,00
-6426,99	660,00
-6410,35	763,00
-6393,74	813,00
-6377,16	948,00
-6360,61	892,00
-6344,09	964,00
-6327,59	1061,00
-6311,13	1158,00
-6294,70	1141,00
-6278,29	1377,00
-6261,92	1394,00
-6245,58	1386,00
-6229,26	1538,00
-6212,97	1201,00
-6196,72	1013,00
-6180,49	794,00
-6164,29	537,00
-6148,12	483,00
-6131,98	421,00
-6115,86	369,00
-6099,78	363,00
-6083,72	304,00
-6067,69	468,00
-6051,69	390,00
-6035,72	429,00
-6019,78	431,00
-6003,87	773,00
-5987,98	973,00
-5972,12	1112,00
-5956,29	1139,00
-5940,49	1028,00
-5924,71	812,00
-5908,96	670,00
-5893,24	478,00
-5877,55	565,00
-5861,89	447,00
-5846,25	452,00
-5830,64	503,00
-5815,05	549,00
-5799,50	623,00
-5783,97	605,00
-5768,47	707,00
-5752,99	889,00
-5737,55	1023,00
-5722,12	916,00
-5706,73	1047,00
-5691,36	849,00
-5676,02	521,00
-5660,71	394,00
-5645,42	401,00
-5630,16	570,00
-5614,92	665,00
-5599,71	771,00
-5584,53	796,00
-5569,37	715,00
-5554,24	1696,00
-5539,14	634,00
-5524,06	724,00
-5509,01	629,00
-5493,98	675,00
-5478,98	737,00
-5464,00	646,00
-5449,05	631,00
-5434,13	570,00
-5419,23	483,00
-5404,36	442,00
-5389,51	736,00
-5374,69	964,00
-5359,89	1271,00
-5345,12	1132,00
-5330,37	1040,00
-5315,65	986,00
-5300,95	702,00
-5286,28	583,00
-5271,63	635,00
-5257,01	618,00
-5242,41	566,00
-5227,84	595,00
-5213,29	494,00
-5198,76	408,00
-5184,26	373,00
-5169,79	533,00
-5155,33	540,00
-5140,91	701,00
-5126,51	899,00
-5112,13	800,00
-5097,77	716,00
-5083,44	512,00
-5069,13	442,00
-5054,85	389,00
-5040,59	565,00
-5026,36	669,00
-5012,15	735,00
-4997,96	631,00
-4983,80	560,00
-4969,66	360,00
-4955,54	426,00
-4941,44	459,00
-4927,37	846,00
-4913,33	1080,00
-4899,30	1255,00
-4885,30	1012,00
-4871,33	895,00
-4857,37	485,00
-4843,44	436,00
-4829,53	426,00
-4815,65	461,00
-4801,79	555,00
-4787,95	585,00
-4774,13	580,00
-4760,34	425,00
-4746,56	381,00
-4732,82	376,00
-4719,09	630,00
-4705,38	861,00
-4691,70	1084,00
-4678,04	1018,00
-4664,41	926,00
-4650,79	636,00
-4637,20	475,00
-4623,63	402,00
-4610,08	578,00
-4596,56	715,00
-4583,05	622,00
-4569,57	443,00
-4556,11	456,00
-4542,67	326,00
-4529,25	503,00
-4515,86	449,00
-4502,49	750,00
-4489,13	919,00
-4475,80	766,00
-4462,49	514,00
-4449,21	340,00
-4435,94	243,00
-4422,70	476,00
-4409,47	560,00
-4396,27	556,00
-4383,09	550,00
-4369,93	292,00
-4356,79	199,00
-4343,67	191,00
-4330,58	347,00
-4317,50	525,00
-4304,45	437,00
-4291,41	338,00
-4278,40	347,00
-4265,41	260,00
-4252,44	365,00
-4239,49	459,00
-4226,55	576,00
-4213,65	313,00
-4200,76	392,00
-4187,89	295,00
-4175,04	262,00
-4162,21	349,00
-4149,40	327,00
-4136,61	193,00
-4123,85	256,00
-4111,10	89,00
-4098,37	197,00
-4085,66	170,00
-4072,98	290,00
-4060,31	222,00
-4047,66	241,00
-4035,04	219,00
-4022,43	218,00
-4009,84	360,00
-3997,27	235,00
-3984,72	119,00
-3972,19	111,00
-3959,69	179,00
-3947,20	116,00
-3934,73	144,00
-3922,27	188,00
-3909,84	141,00
-3897,43	129,00
-3885,04	70,00
-3872,67	105,00
-3860,31	192,00
-3847,98	161,00
-3835,66	130,00
-3823,36	167,00
-3811,09	101,00
-3798,83	187,00
-3786,59	149,00
-3774,37	128,00
-3762,17	119,00
-3749,98	114,00
-3737,82	200,00
-3725,67	168,00
-3713,55	158,00
-3701,44	145,00
-3689,35	86,00
-3677,28	142,00
-3665,22	180,00
-3653,19	222,00
-3641,17	25,00
-3629,18	190,00
-3617,20	20,00
-3605,24	91,00
-3593,30	191,00
-3581,37	67,00
-3569,47	258,00
-3557,58	33,00
-3545,71	176,00
-3533,86	150,00
-3522,02	200,00
-3510,21	176,00
-3498,41	110,00
-3486,63	147,00
-3474,87	161,00
-3463,12	87,00
-3451,40	185,00
-3439,69	123,00
-3428,00	166,00
-3416,33	106,00
-3404,67	204,00
-3393,03	106,00
-3381,41	130,00
-3369,81	111,00
-3358,22	45,00
-3346,66	132,00
-3335,10	191,00
-3323,57	70,00
-3312,06	66,00
-3300,56	107,00
-3289,08	147,00
-3277,61	145,00
-3266,16	176,00
-3254,73	222,00
-3243,32	103,00
-3231,92	131,00
-3220,55	58,00
-3209,18	192,00
-3197,84	205,00
-3186,51	68,00
-3175,20	116,00
-3163,90	132,00
-3152,63	81,00
-3141,36	148,00
-3130,12	248,00
-3118,89	124,00
-3107,68	161,00
-3096,49	110,00
-3085,31	153,00
-3074,15	200,00
-3063,00	191,00
-3051,87	280,00
-3040,76	143,00
-3029,67	148,00
-3018,59	302,00
-3007,52	141,00
-2996,48	73,00
-2985,44	99,00
-2974,43	159,00
-2963,43	65,00
-2952,45	114,00
-2941,48	133,00
-2930,53	-57,00
-2919,60	66,00
-2908,68	80,00
-2897,78	182,00
-2886,89	95,00
-2876,02	116,00
-2865,17	101,00
-2854,33	119,00
-2843,50	189,00
-2832,70	173,00
-2821,90	118,00
-2811,13	108,00
-2800,37	49,00
-2789,62	105,00
-2778,89	39,00
-2768,18	29,00
-2757,48	114,00
-2746,80	172,00
-2736,13	109,00
-2725,48	80,00
-2714,84	-15,00
-2704,22	125,00
-2693,61	79,00
-2683,02	206,00
-2672,45	118,00
-2661,89	251,00
-2651,34	16,00
-2640,81	64,00
-2630,30	228,00
-2619,80	62,00
-2609,31	60,00
-2598,84	261,00
-2588,39	231,00
-2577,95	137,00
-2567,52	89,00
-2557,11	169,00
-2546,71	128,00
-2536,33	286,00
-2525,97	220,00
-2515,62	140,00
-2505,28	118,00
-2494,96	145,00
-2484,65	116,00
-2474,36	40,00
-2464,08	203,00
-2453,82	177,00
-2443,57	161,00
-2433,33	168,00
-2423,11	131,00
-2412,91	143,00
-2402,72	146,00
-2392,54	31,00
-2382,38	23,00
-2372,23	59,00
-2362,09	293,00
-2351,97	-5,00
-2341,87	135,00
-2331,78	156,00
-2321,70	18,00
-2311,64	-53,00
-2301,59	151,00
-2291,55	131,00
-2281,53	164,00
-2271,53	145,00
-2261,53	73,00
-2251,55	57,00
-2241,59	161,00
-2231,64	171,00
-2221,70	125,00
-2211,78	167,00
-2201,87	162,00
-2191,97	206,00
-2182,09	201,00
-2172,22	72,00
-2162,37	83,00
-2152,53	82,00
-2142,70	143,00
-2132,89	145,00
-2123,09	184,00
-2113,30	123,00
-2103,53	67,00
-2093,77	138,00
-2084,02	91,00
-2074,29	190,00
-2064,57	154,00
-2054,86	138,00
-2045,17	96,00
-2035,49	-7,00
-2025,82	86,00
-2016,17	133,00
-2006,53	188,00
-1996,91	4,00
-1987,29	187,00
-1977,69	147,00
-1968,11	74,00
-1958,53	202,00
-1948,97	82,00
-1939,42	129,00
-1929,89	113,00
-1920,37	95,00
-1910,86	6,00
-1901,36	109,00
-1891,88	228,00
-1882,41	29,00
-1872,95	190,00
-1863,51	62,00
-1854,08	217,00
-1844,66	93,00
-1835,26	152,00
-1825,86	116,00
-1816,48	134,00
-1807,11	56,00
-1797,76	73,00
-1788,42	49,00
-1779,09	165,00
-1769,77	113,00
-1760,47	240,00
-1751,17	80,00
-1741,89	98,00
-1732,63	123,00
-1723,37	155,00
-1714,13	157,00
-1704,90	86,00
-1695,68	145,00
-1686,48	89,00
-1677,29	72,00
-1668,11	129,00
-1658,94	172,00
-1649,78	107,00
-1640,64	34,00
-1631,51	239,00
-1622,39	197,00
-1613,28	99,00
-1604,19	144,00
-1595,10	62,00
-1586,03	26,00
-1576,97	173,00
-1567,93	243,00
-1558,89	119,00
-1549,87	118,00
-1540,86	62,00
-1531,86	129,00
-1522,87	106,00
-1513,90	20,00
-1504,93	174,00
-1495,98	152,00
-1487,04	148,00
-1478,12	91,00
-1469,20	142,00
-1460,30	54,00
-1451,40	274,00
-1442,52	88,00
-1433,65	108,00
-1424,80	43,00
-1415,95	124,00
-1407,12	23,00
-1398,30	123,00
-1389,48	34,00
-1380,69	209,00
-1371,90	108,00
-1363,12	130,00
-1354,36	120,00
-1345,60	201,00
-1336,86	213,00
-1328,13	246,00
-1319,41	37,00
-1310,70	29,00
-1302,01	163,00
-1293,32	18,00
-1284,65	178,00
-1275,99	136,00
-1267,33	133,00
-1258,69	134,00
-1250,06	175,00
-1241,45	144,00
-1232,84	249,00
-1224,25	238,00
-1215,66	96,00
-1207,09	87,00
-1198,53	234,00
-1189,97	157,00
-1181,43	193,00
-1172,91	89,00
-1164,39	76,00
-1155,88	130,00
-1147,38	104,00
-1138,90	13,00
-1130,43	65,00
-1121,96	70,00
-1113,51	112,00
-1105,07	120,00
-1096,64	207,00
-1088,22	65,00
-1079,81	168,00
-1071,41	39,00
-1063,02	147,00
-1054,65	189,00
-1046,28	186,00
-1037,92	131,00
-1029,58	128,00
-1021,24	244,00
-1012,92	168,00
-1004,61	139,00
-996,30	234,00
-988,01	106,00
-979,73	133,00
-971,46	209,00
-963,20	116,00
-954,95	191,00
-946,71	131,00
-938,48	104,00
-930,26	87,00
-922,06	160,00
-913,86	193,00
-905,67	115,00
-897,49	251,00
-889,33	164,00
-881,17	307,00
-873,02	176,00
-864,89	119,00
-856,76	111,00
-848,65	73,00
-840,54	103,00
-832,45	80,00
-824,36	71,00
-816,29	161,00
-808,22	138,00
-800,17	170,00
-792,12	329,00
-784,09	207,00
-776,06	159,00
-768,05	169,00
-760,04	54,00
-752,05	186,00
-744,07	118,00
-736,09	148,00
-728,13	233,00
-720,17	156,00
-712,23	33,00
-704,29	131,00
-696,37	93,00
-688,45	225,00
-680,55	285,00
-672,65	88,00
-664,77	224,00
-656,89	184,00
-649,03	134,00
-641,17	175,00
-633,32	167,00
-625,49	144,00
-617,66	99,00
-609,84	183,00
-602,03	171,00
-594,23	211,00
-586,45	79,00
-578,67	61,00
-570,90	168,00
-563,14	130,00
-555,39	128,00
-547,65	150,00
-539,91	78,00
-532,19	147,00
-524,48	166,00
-516,78	84,00
-509,08	128,00
-501,40	116,00
-493,72	173,00
-486,06	187,00
-478,40	180,00
-470,76	99,00
-463,12	79,00
-455,49	129,00
-447,87	44,00
-440,26	136,00
-432,66	181,00
-425,07	120,00
-417,49	159,00
-409,92	146,00
-402,35	146,00
-394,80	71,00
-387,25	200,00
-379,72	206,00
-372,19	59,00
-364,67	241,00
-357,17	189,00
-349,67	156,00
-342,18	161,00
-334,69	286,00
-327,22	243,00
-319,76	116,00
-312,30	183,00
-304,86	206,00
-297,42	42,00
-290,00	105,00
-282,58	185,00
-275,17	126,00
-267,77	104,00
-260,37	191,00
-252,99	198,00
-245,62	205,00
-238,25	227,00
-230,90	137,00
-223,55	327,00
-216,21	216,00
-208,88	261,00
-201,56	94,00
-194,25	307,00
-186,94	378,00
-179,65	402,00
-172,36	356,00
-165,08	359,00
-157,81	501,00
-150,55	355,00
-143,30	488,00
-136,06	526,00
-128,82	452,00
-121,60	502,00
-114,38	670,00
-107,17	633,00
-99,97	753,00
-92,78	800,00
-85,60	868,00
-78,42	1147,00
-71,25	1133,00
-64,10	1258,00
-56,95	1531,00
-49,81	1810,00
-42,67	2346,00
-35,55	2766,00
-28,43	3576,00
-21,33	5949,00
-14,23	18505,00
-7,14	55431,00
-0,05	55196,00
7,02	54914,00
14,09	55080,00
21,14	20171,00
28,19	7998,00
35,23	4931,00
42,27	3645,00
49,29	3036,00
56,31	2630,00
63,32	2218,00
70,32	1727,00
77,31	1605,00
84,29	1428,00
91,27	1160,00
98,23	1215,00
105,19	1109,00
112,14	1092,00
119,09	1656,00
126,02	2459,00
132,95	2909,00
139,87	3066,00
146,78	3079,00
153,68	2908,00
160,58	2936,00
167,46	3026,00
174,34	2799,00
181,21	2869,00
188,08	2872,00
194,93	2979,00
201,78	2793,00
208,62	2851,00
215,45	2747,00
222,27	2837,00
229,09	2820,00
235,90	2819,00
242,70	2736,00
249,49	2715,00
256,27	2847,00
263,05	2566,00
269,82	2660,00
276,58	2819,00
283,33	2783,00
290,08	2552,00
296,82	2596,00
303,55	2636,00
310,27	2540,00
316,98	2443,00
323,69	2499,00
330,39	2562,00
337,08	2372,00
343,76	2300,00
350,44	2546,00
357,11	2383,00
363,77	2433,00
370,42	2289,00
377,07	2342,00
383,71	2346,00
390,34	2370,00
396,96	2325,00
403,58	2334,00
410,19	2480,00
416,79	2421,00
423,38	2401,00
429,97	2294,00
436,55	2290,00
443,12	2199,00
449,68	2144,00
456,24	2205,00
462,79	2007,00
469,33	2334,00
475,86	2134,00
482,39	2134,00
488,91	2119,00
495,42	2241,00
501,93	1978,00
508,42	2041,00
514,91	2147,00
521,40	2067,00
527,87	2102,00
534,34	2034,00
540,80	2024,00
547,25	2021,00
553,70	1965,00
560,14	2005,00
566,57	2003,00
573,00	1913,00
579,41	1871,00
585,83	1906,00
592,23	1968,00
598,62	1897,00
605,01	1990,00
611,40	1873,00
617,77	1842,00
624,14	1900,00
630,50	1822,00
636,85	1894,00
643,20	1854,00
649,54	1932,00
655,87	1849,00
662,20	1794,00
668,52	1795,00
674,83	1751,00
681,13	1834,00
687,43	1767,00
693,72	1784,00
700,00	1757,00
706,28	1714,00
712,55	1848,00
718,81	1759,00
725,07	1757,00
731,32	1791,00
737,56	1734,00
743,79	1720,00
750,02	1834,00
756,24	1710,00
762,46	1804,00
768,67	1798,00
774,87	1667,00
781,06	1737,00
787,25	1711,00
793,43	1670,00
799,60	1751,00
805,77	1674,00
811,93	1758,00
818,08	1653,00
824,23	1674,00
830,37	1716,00
836,50	1717,00
842,63	1627,00
848,75	1785,00
854,87	1726,00
860,97	1796,00
867,07	1674,00
873,17	1700,00
879,25	1662,00
885,33	1635,00
891,41	1729,00
897,47	1615,00
903,53	1462,00
909,59	1603,00
915,63	1606,00
921,67	1667,00
927,71	1463,00
933,74	1628,00
939,76	1549,00
945,77	1583,00
951,78	1629,00
957,78	1496,00
963,78	1396,00
969,77	1553,00
975,75	1517,00
981,72	1395,00
987,69	1433,00
993,66	1540,00
999,61	1472,00
1005,56	1570,00
1011,51	1536,00
1017,44	1511,00
1023,37	1556,00
1029,30	1556,00
1035,22	1515,00
1041,13	1528,00
1047,03	1636,00
1052,93	1645,00
1058,83	1868,00
1064,71	1899,00
1070,59	1758,00
1076,47	1690,00
1082,33	1586,00
1088,20	1484,00
1094,05	1386,00
1099,90	1351,00
1105,74	1538,00
1111,58	1445,00
1117,41	1558,00
1123,23	1624,00
1129,05	1714,00
1134,86	1714,00
1140,67	1624,00
1146,47	1436,00
1152,26	1467,00
1158,05	1440,00
1163,83	1464,00
1169,60	1445,00
1175,37	1429,00
1181,13	1427,00
1186,89	1323,00
1192,64	1414,00
1198,38	1386,00
1204,12	1310,00
1209,85	1384,00
1215,58	1227,00
1221,30	1361,00
1227,02	1459,00
1232,72	1304,00
1238,43	1414,00
1244,12	1302,00
1249,81	1345,00
1255,50	1450,00
1261,17	1349,00
1266,85	1445,00
1272,51	1464,00
1278,17	1454,00
1283,83	1582,00
1289,47	1669,00
1295,12	1991,00
1300,75	1817,00
1306,38	1663,00
1312,01	1681,00
1317,63	1656,00
1323,24	1546,00
1328,85	1497,00
1334,45	1483,00
1340,04	1429,00
1345,63	1553,00
1351,22	1645,00
1356,80	1490,00
1362,37	1636,00
1367,93	1509,00
1373,49	1533,00
1379,05	1555,00
1384,60	1422,00
1390,14	1513,00
1395,68	1370,00
1401,21	1525,00
1406,74	1546,00
1412,26	1708,00
1417,77	1636,00
1423,28	1850,00
1428,78	1886,00
1434,28	2192,00
1439,77	2205,00
1445,26	2184,00
1450,74	2153,00
1456,22	1945,00
1461,68	1942,00
1467,15	1803,00
1472,61	1674,00
1478,06	1457,00
1483,51	1635,00
1488,95	1320,00
1494,38	1510,00
1499,81	1370,00
1505,24	1306,00
1510,65	1381,00
1516,07	1324,00
1521,48	1186,00
1526,88	1159,00
1532,27	1275,00
1537,67	1249,00
1543,05	1208,00
1548,43	1160,00
1553,81	1245,00
1559,18	1165,00
1564,54	1195,00
1569,90	1255,00
1575,25	1246,00
1580,60	1267,00
1585,94	1257,00
1591,28	1061,00
1596,61	1196,00
1601,93	1044,00
1607,25	1153,00
1612,57	1240,00
1617,88	1059,00
1623,18	1189,00
1628,48	1126,00
1633,77	1153,00
1639,06	1055,00
1644,34	1139,00
1649,62	1083,00
1654,89	1096,00
1660,16	1000,00
1665,42	1013,00
1670,67	1086,00
1675,92	929,00
1681,17	1064,00
1686,41	1142,00
1691,64	1099,00
1696,87	995,00
1702,10	910,00
1707,32	1017,00
1712,53	1056,00
1717,74	998,00
1722,94	1057,00
1728,14	1172,00
1733,33	841,00
1738,52	939,00
1743,70	999,00
1748,88	823,00
1754,05	884,00
1759,22	882,00
1764,38	-501,00
1769,53	996,00
1774,69	960,00
1779,83	898,00
1784,97	801,00
1790,11	914,00
1795,24	838,00
1800,36	936,00
1805,48	968,00
1810,60	823,00
1815,71	893,00
1820,82	951,00
1825,92	901,00
1831,01	880,00
1836,10	718,00
1841,19	776,00
1846,26	947,00
1851,34	746,00
1856,41	905,00
1861,47	778,00
1866,53	776,00
1871,59	754,00
1876,64	670,00
1881,68	718,00
1886,72	865,00
1891,76	805,00
1896,79	820,00
1901,81	763,00
1906,83	695,00
1911,85	740,00
1916,86	803,00
1921,86	649,00
1926,86	711,00
1931,86	744,00
1936,85	718,00
1941,83	783,00
1946,81	611,00
1951,79	675,00
1956,76	731,00
1961,72	682,00
1966,68	677,00
1971,64	629,00
1976,59	621,00
1981,54	661,00
1986,48	615,00
1991,42	555,00
1996,35	607,00
2001,27	646,00
2006,20	539,00
2011,11	473,00
2016,03	598,00
2020,93	730,00
2025,84	722,00
2030,73	641,00
2035,63	649,00
2040,52	708,00
2045,40	596,00
2050,28	664,00
2055,15	588,00
2060,02	600,00
2064,89	614,00
2069,75	580,00
2074,60	521,00
2079,46	601,00
2084,30	566,00
2089,14	613,00
2093,98	485,00
2098,81	683,00
2103,64	575,00
2108,46	642,00
2113,28	561,00
2118,09	548,00
2122,90	569,00
2127,70	632,00
2132,50	602,00
2137,30	597,00
2142,09	678,00
2146,87	678,00
2151,66	593,00
2156,43	561,00
2161,20	502,00
2165,97	485,00
2170,73	605,00
2175,49	518,00
2180,24	625,00
2184,99	470,00
2189,74	711,00
2194,48	562,00
2199,21	543,00
2203,94	588,00
2208,67	458,00
2213,39	418,00
2218,11	587,00
2222,82	444,00
2227,53	451,00
2232,23	602,00
2236,93	519,00
2241,63	600,00
2246,32	519,00
2251,00	385,00
2255,68	467,00
2260,36	413,00
2265,03	519,00
2269,70	511,00
2274,36	480,00
2279,02	432,00
2283,68	404,00
2288,33	411,00
2292,97	382,00
2297,61	357,00
2302,25	431,00
2306,88	563,00
2311,51	410,00
2316,14	430,00
2320,75	396,00
2325,37	453,00
2329,98	541,00
2334,59	357,00
2339,19	506,00
2343,79	460,00
2348,38	458,00
2352,97	369,00
2357,55	500,00
2362,13	378,00
2366,71	500,00
2371,28	353,00
2375,85	360,00
2380,41	412,00
2384,97	359,00
2389,52	368,00
2394,07	425,00
2398,62	456,00
2403,16	346,00
2407,70	484,00
2412,23	322,00
2416,76	539,00
2421,29	453,00
2425,81	437,00
2430,32	470,00
2434,84	373,00
2439,34	330,00
2443,85	532,00
2448,35	372,00
2452,84	346,00
2457,33	382,00
2461,82	322,00
2466,30	358,00
2470,78	381,00
2475,25	425,00
2479,72	338,00
2484,19	270,00
2488,65	480,00
2493,11	400,00
2497,56	407,00
2502,01	439,00
2506,46	279,00
2510,90	409,00
2515,34	380,00
2519,77	361,00
2524,20	424,00
2528,62	445,00
2533,04	357,00
2537,46	306,00
2541,87	353,00
2546,28	286,00
2550,68	463,00
2555,08	392,00
2559,48	355,00
2563,87	538,00
2568,26	327,00
2572,64	255,00
2577,02	393,00
2581,40	353,00
2585,77	266,00
2590,14	247,00
2594,50	398,00
2598,86	384,00
2603,22	244,00
2607,57	283,00
2611,92	244,00
2616,26	369,00
2620,60	381,00
2624,94	257,00
2629,27	328,00
2633,60	328,00
2637,92	390,00
2642,24	371,00
2646,56	286,00
2650,87	385,00
2655,18	341,00
2659,48	296,00
2663,78	383,00
2668,08	316,00
2672,37	286,00
2676,66	505,00
2680,95	211,00
2685,23	480,00
2689,50	353,00
2693,78	419,00
2698,05	424,00
2702,31	357,00
2706,57	212,00
2710,83	360,00
2715,08	339,00
2719,33	396,00
2723,58	446,00
2727,82	322,00
2732,06	465,00
2736,29	395,00
2740,53	426,00
2744,75	379,00
2748,97	371,00
2753,19	414,00
2757,41	452,00
2761,62	180,00
2765,83	398,00
2770,03	307,00
2774,23	472,00
2778,43	424,00
2782,62	353,00
2786,81	303,00
2791,00	424,00
2795,18	476,00
2799,35	421,00
2803,53	429,00
2807,70	325,00
2811,86	341,00
2816,03	448,00
2820,19	339,00
2824,34	498,00
2828,49	530,00
2832,64	559,00
2836,78	626,00
2840,92	753,00
2845,06	1050,00
2849,19	1043,00
2853,32	1175,00
2857,45	1183,00
2861,57	938,00
2865,69	1114,00
2869,80	1096,00
2873,91	1116,00
2878,02	1098,00
2882,12	1186,00
2886,22	1153,00
2890,32	1177,00
2894,41	1160,00
2898,50	1024,00
2902,58	966,00
2906,67	982,00
2910,74	932,00
2914,82	937,00
2918,89	808,00
2922,96	702,00
2927,02	748,00
2931,08	713,00
2935,13	632,00
2939,19	756,00
2943,24	525,00
2947,28	513,00
2951,32	540,00
2955,36	452,00
2959,40	428,00
2963,43	493,00
2967,46	523,00
2971,48	573,00
2975,50	446,00
2979,52	448,00
2983,53	354,00
2987,54	443,00
2991,55	402,00
2995,55	317,00
2999,55	230,00
3003,54	398,00
3007,54	316,00
3011,53	274,00
3015,51	162,00
3019,49	355,00
3023,47	186,00
3027,45	193,00
3031,42	330,00
3035,39	210,00
3039,35	257,00
3043,31	185,00
3047,27	192,00
3051,22	256,00
3055,17	129,00
3059,12	241,00
3063,06	277,00
3067,00	181,00
3070,94	249,00
3074,87	348,00
3078,80	238,00
3082,73	199,00
3086,65	388,00
3090,57	246,00
3094,49	226,00
3098,40	126,00
3102,31	128,00
3106,22	291,00
3110,12	244,00
3114,02	217,00
3117,92	99,00
3121,81	263,00
3125,70	307,00
3129,58	212,00
3133,47	249,00
3137,34	198,00
3141,22	244,00
3145,09	415,00
3148,96	247,00
3152,83	70,00
3156,69	300,00
3160,55	103,00
3164,40	236,00
3168,26	204,00
3172,10	379,00
3175,95	222,00
3179,79	191,00
3183,63	193,00
3187,47	142,00
3191,30	90,00
3195,13	258,00
3198,95	225,00
3202,78	189,00
3206,60	124,00
3210,41	212,00
3214,23	286,00
3218,03	253,00
3221,84	121,00
3225,64	108,00
3229,44	202,00
3233,24	272,00
3237,03	168,00
3240,82	229,00
3244,61	154,00
3248,39	337,00
3252,17	234,00
3255,95	113,00
3259,72	326,00
3263,49	206,00
3267,26	90,00
3271,03	119,00
3274,79	110,00
3278,54	151,00
3282,30	266,00
3286,05	121,00
3289,80	204,00
3293,54	74,00
3297,29	287,00
3301,02	258,00
3304,76	172,00
3308,49	121,00
3312,22	121,00
3315,95	228,00
3319,67	193,00
3323,39	211,00
3327,10	143,00
3330,82	239,00
3334,53	263,00
3338,24	206,00
3341,94	195,00
3345,64	264,00
3349,34	56,00
3353,03	226,00
3356,72	110,00
3360,41	82,00
3364,10	115,00
3367,78	231,00
3371,46	263,00
3375,13	127,00
3378,81	279,00
3382,48	182,00
3386,14	265,00
3389,81	237,00
3393,47	279,00
3397,12	257,00
3400,78	202,00
3404,43	219,00
3408,08	142,00
3411,72	201,00
3415,36	64,00
3419,00	214,00
3422,64	87,00
3426,27	145,00
3429,90	138,00
3433,53	148,00
3437,15	348,00
3440,77	170,00
3444,39	165,00
3448,00	205,00
3451,62	75,00
3455,22	237,00
3458,83	220,00
3462,43	173,00
3466,03	140,00
3469,63	131,00
3473,22	126,00
3476,81	86,00
3480,40	81,00
3483,99	120,00
3487,57	205,00
3491,15	117,00
3494,72	145,00
3498,29	149,00
3501,86	137,00
3505,43	155,00
3508,99	218,00
3512,56	171,00
3516,11	62,00
3519,67	150,00
3523,22	72,00
3526,77	187,00
3530,32	90,00
3533,86	155,00
3537,40	206,00
3540,94	145,00
3544,47	192,00
3548,00	185,00
3551,53	189,00
3555,06	198,00
3558,58	300,00
3562,10	119,00
3565,62	248,00
3569,13	151,00
3572,64	224,00
3576,15	149,00
3579,66	199,00
3583,16	102,00
3586,66	55,00
3590,16	17,00
3593,65	191,00
3597,14	-7,00
3600,63	225,00
3604,11	165,00
3607,60	105,00
3611,08	171,00
3614,55	147,00
3618,03	144,00
3621,50	117,00
3624,97	138,00
3628,43	129,00
3631,90	39,00
3635,36	104,00
3638,81	185,00
3642,27	176,00
3645,72	114,00
3649,17	142,00
3652,61	81,00
3656,06	127,00
3659,50	102,00
3662,93	25,00
3666,37	102,00
3669,80	89,00
3673,23	68,00
3676,65	114,00
3680,08	138,00
3683,50	64,00
3686,92	157,00
3690,33	67,00
3693,74	134,00
3697,15	190,00
3700,56	120,00
3703,96	100,00
3707,36	63,00
3710,76	58,00
3714,16	101,00
3717,55	181,00
3720,94	69,00
3724,33	85,00
3727,71	48,00
3731,10	183,00
3734,48	173,00
3737,85	83,00
3741,23	159,00
3744,60	4,00
3747,97	123,00
3751,33	105,00
3754,69	140,00
3758,05	93,00
3761,41	46,00
3764,77	189,00
3768,12	101,00
3771,47	59,00
3774,82	30,00
3778,16	10,00
3781,50	1,00
3784,84	0,00
3788,18	0,00
>>>>>End Processed Spectral Data<<<<<
