SpectraSuite Data File
++++++++++++++++++++++++++++++++++++
Date: Wed Feb 04 15:45:51 ICT 2026
User: Administrator
Dark Spectrum Present: Yes
Reference Spectrum Present: No
Number of Sampled Component Spectra: 1
Spectrometers: MAYP113682
Integration Time (usec): 3000000 (MAYP113682)
Spectra Averaged: 1 (MAYP113682)
Boxcar Smoothing: 0 (MAYP113682)
Correct for Electrical Dark: No (MAYP113682)
Strobe/Lamp Enabled: No (MAYP113682)
Correct for Detector Non-linearity: No (MAYP113682)
Correct for Stray Light: No (MAYP113682)
Number of Pixels in Processed Spectrum: 2068
>>>>>Begin Processed Spectral Data<<<<<
-37534,58	32,00
-37414,56	0,00
-37295,11	10,00
-37176,24	16,00
-37057,95	550,00
-36940,22	575,00
-36823,05	538,00
-36706,45	650,00
-36590,40	707,00
-36474,90	673,00
-36359,95	671,00
-36245,55	623,00
-36131,68	671,00
-36018,35	569,00
-35905,55	761,00
-35793,29	738,00
-35681,54	695,00
-35570,32	659,00
-35459,62	707,00
-35349,43	783,00
-35239,75	635,00
-35130,58	717,00
-35021,91	640,00
-34913,74	687,00
-34806,07	681,00
-34698,89	754,00
-34592,20	589,00
-34486,00	726,00
-34380,28	681,00
-34275,04	682,00
-34170,27	690,00
-34065,98	725,00
-33962,16	792,00
-33858,81	702,00
-33755,92	702,00
-33653,49	679,00
-33551,52	754,00
-33450,01	824,00
-33348,94	681,00
-33248,33	808,00
-33148,16	709,00
-33048,43	795,00
-32949,14	787,00
-32850,29	687,00
-32751,87	742,00
-32653,89	794,00
-32556,33	764,00
-32459,20	769,00
-32362,49	731,00
-32266,19	731,00
-32170,32	746,00
-32074,86	733,00
-31979,82	700,00
-31885,18	760,00
-31790,95	799,00
-31697,12	769,00
-31603,69	748,00
-31510,67	835,00
-31418,04	821,00
-31325,80	825,00
-31233,95	752,00
-31142,49	835,00
-31051,42	689,00
-30960,73	847,00
-30870,43	840,00
-30780,50	724,00
-30690,95	830,00
-30601,77	728,00
-30512,97	806,00
-30424,53	811,00
-30336,46	838,00
-30248,76	723,00
-30161,42	694,00
-30074,44	782,00
-29987,81	784,00
-29901,55	740,00
-29815,63	761,00
-29730,07	860,00
-29644,86	677,00
-29560,00	700,00
-29475,48	681,00
-29391,30	747,00
-29307,47	711,00
-29223,97	807,00
-29140,81	836,00
-29057,99	849,00
-28975,50	696,00
-28893,34	764,00
-28811,51	751,00
-28730,00	746,00
-28648,82	775,00
-28567,97	821,00
-28487,43	670,00
-28407,21	717,00
-28327,32	744,00
-28247,73	877,00
-28168,46	702,00
-28089,50	761,00
-28010,85	758,00
-27932,51	800,00
-27854,48	854,00
-27776,75	729,00
-27699,32	681,00
-27622,19	756,00
-27545,37	764,00
-27468,84	751,00
-27392,60	880,00
-27316,66	772,00
-27241,01	735,00
-27165,66	829,00
-27090,59	658,00
-27015,81	699,00
-26941,31	906,00
-26867,10	686,00
-26793,17	842,00
-26719,52	715,00
-26646,15	722,00
-26573,06	715,00
-26500,24	754,00
-26427,70	612,00
-26355,43	747,00
-26283,43	750,00
-26211,71	768,00
-26140,25	696,00
-26069,06	975,00
-25998,13	696,00
-25927,46	699,00
-25857,06	715,00
-25786,92	711,00
-25717,04	704,00
-25647,42	806,00
-25578,05	589,00
-25508,94	762,00
-25440,09	744,00
-25371,48	665,00
-25303,13	784,00
-25235,02	748,00
-25167,17	870,00
-25099,56	689,00
-25032,19	641,00
-24965,07	707,00
-24898,20	673,00
-24831,56	829,00
-24765,17	736,00
-24699,01	734,00
-24633,10	707,00
-24567,41	865,00
-24501,97	890,00
-24436,75	775,00
-24371,77	761,00
-24307,03	657,00
-24242,51	712,00
-24178,22	803,00
-24114,16	706,00
-24050,32	902,00
-23986,71	752,00
-23923,32	745,00
-23860,16	726,00
-23797,22	593,00
-23734,50	779,00
-23672,00	716,00
-23609,71	803,00
-23547,65	679,00
-23485,80	714,00
-23424,16	700,00
-23362,74	808,00
-23301,53	745,00
-23240,54	682,00
-23179,75	708,00
-23119,17	811,00
-23058,80	708,00
-22998,64	706,00
-22938,68	849,00
-22878,93	841,00
-22819,39	765,00
-22760,04	563,00
-22700,90	619,00
-22641,96	674,00
-22583,22	704,00
-22524,68	633,00
-22466,33	766,00
-22408,19	720,00
-22350,23	751,00
-22292,48	852,00
-22234,92	834,00
-22177,55	794,00
-22120,37	764,00
-22063,38	663,00
-22006,58	706,00
-21949,98	706,00
-21893,56	680,00
-21837,33	573,00
-21781,28	795,00
-21725,42	716,00
-21669,74	693,00
-21614,25	652,00
-21558,94	828,00
-21503,81	725,00
-21448,86	613,00
-21394,10	563,00
-21339,51	766,00
-21285,10	620,00
-21230,86	637,00
-21176,81	739,00
-21122,93	738,00
-21069,22	676,00
-21015,69	704,00
-20962,33	733,00
-20909,14	751,00
-20856,13	786,00
-20803,28	822,00
-20750,61	635,00
-20698,10	694,00
-20645,76	711,00
-20593,59	744,00
-20541,59	807,00
-20489,75	732,00
-20438,07	643,00
-20386,56	774,00
-20335,22	720,00
-20284,03	607,00
-20233,01	749,00
-20182,15	671,00
-20131,45	749,00
-20080,91	716,00
-20030,52	773,00
-19980,30	680,00
-19930,23	670,00
-19880,32	777,00
-19830,56	816,00
-19780,96	645,00
-19731,52	637,00
-19682,23	676,00
-19633,09	720,00
-19584,10	628,00
-19535,26	807,00
-19486,58	807,00
-19438,04	706,00
-19389,66	708,00
-19341,42	691,00
-19293,33	791,00
-19245,39	777,00
-19197,60	809,00
-19149,95	733,00
-19102,45	856,00
-19055,09	667,00
-19007,87	781,00
-18960,80	762,00
-18913,87	831,00
-18867,09	689,00
-18820,44	728,00
-18773,94	785,00
-18727,57	739,00
-18681,35	600,00
-18635,26	671,00
-18589,31	716,00
-18543,50	653,00
-18497,83	728,00
-18452,29	792,00
-18406,89	586,00
-18361,63	854,00
-18316,50	707,00
-18271,50	707,00
-18226,63	762,00
-18181,90	813,00
-18137,30	766,00
-18092,84	618,00
-18048,50	678,00
-18004,29	733,00
-17960,22	743,00
-17916,27	679,00
-17872,45	723,00
-17828,76	781,00
-17785,20	735,00
-17741,77	693,00
-17698,46	740,00
-17655,28	638,00
-17612,22	709,00
-17569,29	821,00
-17526,48	692,00
-17483,79	720,00
-17441,23	672,00
-17398,79	719,00
-17356,48	728,00
-17314,28	742,00
-17272,21	698,00
-17230,26	629,00
-17188,42	792,00
-17146,71	612,00
-17105,12	731,00
-17063,64	617,00
-17022,28	765,00
-16981,04	708,00
-16939,92	796,00
-16898,91	798,00
-16858,02	643,00
-16817,25	777,00
-16776,59	644,00
-16736,04	663,00
-16695,61	678,00
-16655,29	709,00
-16615,09	747,00
-16574,99	793,00
-16535,01	730,00
-16495,15	714,00
-16455,39	639,00
-16415,74	647,00
-16376,21	688,00
-16336,78	593,00
-16297,46	679,00
-16258,26	691,00
-16219,16	732,00
-16180,17	806,00
-16141,28	779,00
-16102,51	757,00
-16063,84	852,00
-16025,27	731,00
-15986,82	696,00
-15948,46	671,00
-15910,22	698,00
-15872,07	681,00
-15834,04	706,00
-15796,10	734,00
-15758,27	732,00
-15720,54	704,00
-15682,91	689,00
-15645,39	773,00
-15607,97	775,00
-15570,64	685,00
-15533,42	898,00
-15496,30	667,00
-15459,28	777,00
-15422,36	788,00
-15385,54	682,00
-15348,82	743,00
-15312,19	814,00
-15275,66	665,00
-15239,23	672,00
-15202,90	807,00
-15166,67	590,00
-15130,53	693,00
-15094,48	653,00
-15058,54	686,00
-15022,68	822,00
-14986,93	687,00
-14951,26	707,00
-14915,69	732,00
-14880,22	610,00
-14844,84	636,00
-14809,55	851,00
-14774,35	738,00
-14739,25	838,00
-14704,24	627,00
-14669,32	663,00
-14634,49	629,00
-14599,75	858,00
-14565,10	664,00
-14530,55	702,00
-14496,08	682,00
-14461,70	726,00
-14427,41	632,00
-14393,21	792,00
-14359,10	657,00
-14325,07	730,00
-14291,14	675,00
-14257,29	782,00
-14223,52	704,00
-14189,85	822,00
-14156,26	681,00
-14122,76	676,00
-14089,34	759,00
-14056,01	797,00
-14022,76	820,00
-13989,60	597,00
-13956,52	708,00
-13923,53	736,00
-13890,62	607,00
-13857,79	712,00
-13825,05	723,00
-13792,39	663,00
-13759,81	740,00
-13727,31	618,00
-13694,90	731,00
-13662,57	751,00
-13630,31	723,00
-13598,14	752,00
-13566,05	606,00
-13534,05	729,00
-13502,12	762,00
-13470,27	582,00
-13438,50	734,00
-13406,80	643,00
-13375,19	622,00
-13343,66	744,00
-13312,20	781,00
-13280,83	729,00
-13249,53	700,00
-13218,30	586,00
-13187,16	722,00
-13156,09	819,00
-13125,10	733,00
-13094,18	803,00
-13063,34	755,00
-13032,58	603,00
-13001,89	697,00
-12971,28	750,00
-12940,74	764,00
-12910,27	678,00
-12879,88	629,00
-12849,57	664,00
-12819,33	718,00
-12789,16	676,00
-12759,06	743,00
-12729,04	720,00
-12699,09	700,00
-12669,21	730,00
-12639,41	746,00
-12609,68	612,00
-12580,02	665,00
-12550,43	751,00
-12520,91	672,00
-12491,46	732,00
-12462,08	701,00
-12432,77	624,00
-12403,54	683,00
-12374,37	760,00
-12345,27	743,00
-12316,24	711,00
-12287,29	756,00
-12258,40	630,00
-12229,57	723,00
-12200,82	623,00
-12172,14	839,00
-12143,52	672,00
-12114,97	645,00
-12086,49	784,00
-12058,07	751,00
-12029,73	732,00
-12001,44	693,00
-11973,23	648,00
-11945,08	742,00
-11917,00	888,00
-11888,98	682,00
-11861,03	694,00
-11833,15	767,00
-11805,32	713,00
-11777,57	738,00
-11749,88	767,00
-11722,25	702,00
-11694,69	760,00
-11667,19	712,00
-11639,75	864,00
-11612,38	623,00
-11585,07	685,00
-11557,83	737,00
-11530,65	752,00
-11503,53	672,00
-11476,47	809,00
-11449,48	621,00
-11422,54	771,00
-11395,67	746,00
-11368,86	828,00
-11342,11	739,00
-11315,43	803,00
-11288,80	737,00
-11262,23	787,00
-11235,73	719,00
-11209,28	787,00
-11182,90	775,00
-11156,57	796,00
-11130,31	849,00
-11104,10	622,00
-11077,96	699,00
-11051,87	706,00
-11025,84	813,00
-10999,87	687,00
-10973,96	669,00
-10948,11	645,00
-10922,31	628,00
-10896,58	775,00
-10870,90	810,00
-10845,28	737,00
-10819,71	573,00
-10794,20	700,00
-10768,75	750,00
-10743,36	779,00
-10718,02	674,00
-10692,74	809,00
-10667,52	561,00
-10642,35	725,00
-10617,24	747,00
-10592,18	721,00
-10567,18	627,00
-10542,23	733,00
-10517,34	784,00
-10492,51	806,00
-10467,72	774,00
-10443,00	634,00
-10418,32	572,00
-10393,70	677,00
-10369,14	735,00
-10344,63	650,00
-10320,17	771,00
-10295,77	704,00
-10271,42	632,00
-10247,12	724,00
-10222,88	715,00
-10198,68	657,00
-10174,54	683,00
-10150,46	717,00
-10126,42	777,00
-10102,44	683,00
-10078,51	663,00
-10054,63	687,00
-10030,80	693,00
-10007,03	757,00
-9983,30	747,00
-9959,63	615,00
-9936,01	726,00
-9912,44	655,00
-9888,92	459,00
-9865,44	567,00
-9842,02	609,00
-9818,65	555,00
-9795,33	539,00
-9772,06	646,00
-9748,84	585,00
-9725,67	544,00
-9702,55	531,00
-9679,47	658,00
-9656,45	664,00
-9633,47	399,00
-9610,55	501,00
-9587,67	533,00
-9564,84	617,00
-9542,06	441,00
-9519,32	517,00
-9496,64	454,00
-9474,00	271,00
-9451,41	288,00
-9428,87	416,00
-9406,37	317,00
-9383,92	334,00
-9361,52	296,00
-9339,17	410,00
-9316,86	353,00
-9294,60	141,00
-9272,38	396,00
-9250,21	388,00
-9228,09	369,00
-9206,01	403,00
-9183,98	209,00
-9162,00	91,00
-9140,06	200,00
-9118,16	146,00
-9096,31	105,00
-9074,51	298,00
-9052,75	337,00
-9031,04	380,00
-9009,37	296,00
-8987,74	503,00
-8966,16	266,00
-8944,63	218,00
-8923,14	357,00
-8901,69	353,00
-8880,29	344,00
-8858,93	446,00
-8837,61	451,00
-8816,34	376,00
-8795,11	410,00
-8773,92	415,00
-8752,78	416,00
-8731,68	362,00
-8710,62	382,00
-8689,61	373,00
-8668,63	439,00
-8647,70	632,00
-8626,82	403,00
-8605,97	580,00
-8585,17	491,00
-8564,41	395,00
-8543,69	578,00
-8523,01	290,00
-8502,37	570,00
-8481,78	407,00
-8461,23	325,00
-8440,71	356,00
-8420,24	538,00
-8399,81	556,00
-8379,42	569,00
-8359,08	679,00
-8338,77	599,00
-8318,50	453,00
-8298,27	422,00
-8278,09	311,00
-8257,94	528,00
-8237,83	451,00
-8217,76	437,00
-8197,74	592,00
-8177,75	623,00
-8157,80	649,00
-8137,89	573,00
-8118,02	515,00
-8098,19	513,00
-8078,40	509,00
-8058,65	613,00
-8038,93	513,00
-8019,26	406,00
-7999,62	538,00
-7980,02	480,00
-7960,46	446,00
-7940,94	579,00
-7921,46	566,00
-7902,01	480,00
-7882,60	766,00
-7863,23	460,00
-7843,90	514,00
-7824,61	454,00
-7805,35	683,00
-7786,13	534,00
-7766,95	534,00
-7747,80	730,00
-7728,69	724,00
-7709,62	593,00
-7690,59	435,00
-7671,59	717,00
-7652,63	475,00
-7633,70	532,00
-7614,81	661,00
-7595,96	604,00
-7577,15	553,00
-7558,37	511,00
-7539,62	746,00
-7520,91	605,00
-7502,24	670,00
-7483,60	523,00
-7465,00	532,00
-7446,44	626,00
-7427,91	576,00
-7409,41	661,00
-7390,95	518,00
-7372,53	470,00
-7354,14	519,00
-7335,78	602,00
-7317,46	577,00
-7299,18	646,00
-7280,92	520,00
-7262,71	605,00
-7244,52	591,00
-7226,38	470,00
-7208,26	546,00
-7190,18	500,00
-7172,14	625,00
-7154,12	465,00
-7136,15	524,00
-7118,20	550,00
-7100,29	625,00
-7082,41	588,00
-7064,57	489,00
-7046,76	494,00
-7028,98	509,00
-7011,24	592,00
-6993,53	465,00
-6975,85	401,00
-6958,20	461,00
-6940,59	535,00
-6923,01	422,00
-6905,46	501,00
-6887,94	464,00
-6870,46	3126,00
-6853,01	518,00
-6835,59	637,00
-6818,21	536,00
-6800,85	587,00
-6783,53	503,00
-6766,24	464,00
-6748,98	381,00
-6731,76	461,00
-6714,56	429,00
-6697,40	411,00
-6680,26	490,00
-6663,16	564,00
-6646,09	626,00
-6629,05	540,00
-6612,05	537,00
-6595,07	546,00
-6578,13	620,00
-6561,21	606,00
-6544,33	512,00
-6527,47	477,00
-6510,65	495,00
-6493,86	476,00
-6477,10	506,00
-6460,36	515,00
-6443,66	372,00
-6426,99	484,00
-6410,35	423,00
-6393,74	502,00
-6377,16	464,00
-6360,61	528,00
-6344,09	532,00
-6327,59	425,00
-6311,13	525,00
-6294,70	474,00
-6278,29	581,00
-6261,92	536,00
-6245,58	537,00
-6229,26	642,00
-6212,97	598,00
-6196,72	571,00
-6180,49	611,00
-6164,29	494,00
-6148,12	583,00
-6131,98	533,00
-6115,86	514,00
-6099,78	376,00
-6083,72	524,00
-6067,69	403,00
-6051,69	526,00
-6035,72	532,00
-6019,78	646,00
-6003,87	496,00
-5987,98	448,00
-5972,12	422,00
-5956,29	598,00
-5940,49	543,00
-5924,71	601,00
-5908,96	587,00
-5893,24	579,00
-5877,55	592,00
-5861,89	482,00
-5846,25	402,00
-5830,64	493,00
-5815,05	483,00
-5799,50	588,00
-5783,97	682,00
-5768,47	587,00
-5752,99	632,00
-5737,55	533,00
-5722,12	478,00
-5706,73	497,00
-5691,36	654,00
-5676,02	626,00
-5660,71	664,00
-5645,42	577,00
-5630,16	604,00
-5614,92	606,00
-5599,71	523,00
-5584,53	610,00
-5569,37	565,00
-5554,24	63,00
-5539,14	619,00
-5524,06	587,00
-5509,01	511,00
-5493,98	687,00
-5478,98	601,00
-5464,00	581,00
-5449,05	349,00
-5434,13	645,00
-5419,23	595,00
-5404,36	471,00
-5389,51	599,00
-5374,69	577,00
-5359,89	494,00
-5345,12	609,00
-5330,37	678,00
-5315,65	669,00
-5300,95	681,00
-5286,28	595,00
-5271,63	503,00
-5257,01	454,00
-5242,41	503,00
-5227,84	728,00
-5213,29	536,00
-5198,76	606,00
-5184,26	736,00
-5169,79	693,00
-5155,33	623,00
-5140,91	570,00
-5126,51	523,00
-5112,13	457,00
-5097,77	597,00
-5083,44	685,00
-5069,13	581,00
-5054,85	612,00
-5040,59	535,00
-5026,36	526,00
-5012,15	580,00
-4997,96	498,00
-4983,80	652,00
-4969,66	612,00
-4955,54	679,00
-4941,44	554,00
-4927,37	544,00
-4913,33	487,00
-4899,30	397,00
-4885,30	485,00
-4871,33	582,00
-4857,37	541,00
-4843,44	628,00
-4829,53	724,00
-4815,65	642,00
-4801,79	500,00
-4787,95	546,00
-4774,13	529,00
-4760,34	762,00
-4746,56	542,00
-4732,82	722,00
-4719,09	689,00
-4705,38	602,00
-4691,70	558,00
-4678,04	503,00
-4664,41	513,00
-4650,79	758,00
-4637,20	657,00
-4623,63	644,00
-4610,08	621,00
-4596,56	633,00
-4583,05	598,00
-4569,57	632,00
-4556,11	687,00
-4542,67	528,00
-4529,25	632,00
-4515,86	556,00
-4502,49	539,00
-4489,13	594,00
-4475,80	678,00
-4462,49	637,00
-4449,21	889,00
-4435,94	619,00
-4422,70	689,00
-4409,47	549,00
-4396,27	608,00
-4383,09	727,00
-4369,93	664,00
-4356,79	623,00
-4343,67	705,00
-4330,58	621,00
-4317,50	712,00
-4304,45	562,00
-4291,41	704,00
-4278,40	690,00
-4265,41	637,00
-4252,44	759,00
-4239,49	485,00
-4226,55	712,00
-4213,65	645,00
-4200,76	661,00
-4187,89	605,00
-4175,04	618,00
-4162,21	696,00
-4149,40	667,00
-4136,61	711,00
-4123,85	815,00
-4111,10	668,00
-4098,37	764,00
-4085,66	689,00
-4072,98	760,00
-4060,31	775,00
-4047,66	857,00
-4035,04	889,00
-4022,43	704,00
-4009,84	860,00
-3997,27	668,00
-3984,72	708,00
-3972,19	728,00
-3959,69	577,00
-3947,20	688,00
-3934,73	746,00
-3922,27	774,00
-3909,84	658,00
-3897,43	683,00
-3885,04	824,00
-3872,67	680,00
-3860,31	756,00
-3847,98	860,00
-3835,66	775,00
-3823,36	705,00
-3811,09	727,00
-3798,83	782,00
-3786,59	847,00
-3774,37	892,00
-3762,17	683,00
-3749,98	715,00
-3737,82	652,00
-3725,67	833,00
-3713,55	695,00
-3701,44	793,00
-3689,35	777,00
-3677,28	800,00
-3665,22	733,00
-3653,19	667,00
-3641,17	646,00
-3629,18	748,00
-3617,20	872,00
-3605,24	861,00
-3593,30	732,00
-3581,37	758,00
-3569,47	751,00
-3557,58	839,00
-3545,71	830,00
-3533,86	720,00
-3522,02	715,00
-3510,21	835,00
-3498,41	751,00
-3486,63	715,00
-3474,87	641,00
-3463,12	721,00
-3451,40	745,00
-3439,69	742,00
-3428,00	782,00
-3416,33	769,00
-3404,67	529,00
-3393,03	690,00
-3381,41	819,00
-3369,81	713,00
-3358,22	685,00
-3346,66	837,00
-3335,10	835,00
-3323,57	679,00
-3312,06	862,00
-3300,56	826,00
-3289,08	691,00
-3277,61	833,00
-3266,16	770,00
-3254,73	671,00
-3243,32	735,00
-3231,92	843,00
-3220,55	762,00
-3209,18	830,00
-3197,84	654,00
-3186,51	682,00
-3175,20	757,00
-3163,90	626,00
-3152,63	773,00
-3141,36	720,00
-3130,12	813,00
-3118,89	645,00
-3107,68	775,00
-3096,49	785,00
-3085,31	787,00
-3074,15	696,00
-3063,00	783,00
-3051,87	752,00
-3040,76	622,00
-3029,67	905,00
-3018,59	929,00
-3007,52	749,00
-2996,48	835,00
-2985,44	741,00
-2974,43	855,00
-2963,43	809,00
-2952,45	640,00
-2941,48	788,00
-2930,53	670,00
-2919,60	753,00
-2908,68	778,00
-2897,78	818,00
-2886,89	819,00
-2876,02	686,00
-2865,17	877,00
-2854,33	748,00
-2843,50	739,00
-2832,70	861,00
-2821,90	820,00
-2811,13	737,00
-2800,37	763,00
-2789,62	816,00
-2778,89	602,00
-2768,18	677,00
-2757,48	811,00
-2746,80	920,00
-2736,13	775,00
-2725,48	815,00
-2714,84	720,00
-2704,22	658,00
-2693,61	731,00
-2683,02	785,00
-2672,45	704,00
-2661,89	705,00
-2651,34	747,00
-2640,81	739,00
-2630,30	783,00
-2619,80	721,00
-2609,31	860,00
-2598,84	608,00
-2588,39	806,00
-2577,95	714,00
-2567,52	660,00
-2557,11	703,00
-2546,71	769,00
-2536,33	818,00
-2525,97	679,00
-2515,62	942,00
-2505,28	687,00
-2494,96	722,00
-2484,65	900,00
-2474,36	405,00
-2464,08	745,00
-2453,82	766,00
-2443,57	819,00
-2433,33	643,00
-2423,11	728,00
-2412,91	812,00
-2402,72	627,00
-2392,54	814,00
-2382,38	693,00
-2372,23	713,00
-2362,09	5364,00
-2351,97	650,00
-2341,87	753,00
-2331,78	873,00
-2321,70	840,00
-2311,64	733,00
-2301,59	638,00
-2291,55	676,00
-2281,53	694,00
-2271,53	703,00
-2261,53	717,00
-2251,55	906,00
-2241,59	767,00
-2231,64	718,00
-2221,70	717,00
-2211,78	770,00
-2201,87	789,00
-2191,97	861,00
-2182,09	770,00
-2172,22	695,00
-2162,37	734,00
-2152,53	551,00
-2142,70	775,00
-2132,89	718,00
-2123,09	792,00
-2113,30	753,00
-2103,53	693,00
-2093,77	692,00
-2084,02	651,00
-2074,29	790,00
-2064,57	786,00
-2054,86	779,00
-2045,17	838,00
-2035,49	651,00
-2025,82	725,00
-2016,17	688,00
-2006,53	780,00
-1996,91	722,00
-1987,29	790,00
-1977,69	732,00
-1968,11	808,00
-1958,53	777,00
-1948,97	762,00
-1939,42	778,00
-1929,89	681,00
-1920,37	750,00
-1910,86	841,00
-1901,36	836,00
-1891,88	793,00
-1882,41	775,00
-1872,95	726,00
-1863,51	727,00
-1854,08	762,00
-1844,66	803,00
-1835,26	705,00
-1825,86	720,00
-1816,48	771,00
-1807,11	748,00
-1797,76	761,00
-1788,42	816,00
-1779,09	803,00
-1769,77	753,00
-1760,47	824,00
-1751,17	775,00
-1741,89	714,00
-1732,63	727,00
-1723,37	741,00
-1714,13	805,00
-1704,90	639,00
-1695,68	843,00
-1686,48	568,00
-1677,29	817,00
-1668,11	895,00
-1658,94	862,00
-1649,78	739,00
-1640,64	792,00
-1631,51	804,00
-1622,39	762,00
-1613,28	640,00
-1604,19	897,00
-1595,10	740,00
-1586,03	725,00
-1576,97	724,00
-1567,93	668,00
-1558,89	861,00
-1549,87	706,00
-1540,86	656,00
-1531,86	691,00
-1522,87	777,00
-1513,90	878,00
-1504,93	724,00
-1495,98	741,00
-1487,04	787,00
-1478,12	614,00
-1469,20	705,00
-1460,30	804,00
-1451,40	849,00
-1442,52	797,00
-1433,65	696,00
-1424,80	647,00
-1415,95	728,00
-1407,12	826,00
-1398,30	797,00
-1389,48	650,00
-1380,69	732,00
-1371,90	721,00
-1363,12	684,00
-1354,36	991,00
-1345,60	677,00
-1336,86	784,00
-1328,13	949,00
-1319,41	806,00
-1310,70	648,00
-1302,01	763,00
-1293,32	740,00
-1284,65	775,00
-1275,99	759,00
-1267,33	760,00
-1258,69	711,00
-1250,06	737,00
-1241,45	682,00
-1232,84	751,00
-1224,25	814,00
-1215,66	925,00
-1207,09	728,00
-1198,53	683,00
-1189,97	744,00
-1181,43	591,00
-1172,91	785,00
-1164,39	936,00
-1155,88	652,00
-1147,38	702,00
-1138,90	783,00
-1130,43	710,00
-1121,96	917,00
-1113,51	739,00
-1105,07	866,00
-1096,64	791,00
-1088,22	790,00
-1079,81	782,00
-1071,41	795,00
-1063,02	781,00
-1054,65	818,00
-1046,28	737,00
-1037,92	828,00
-1029,58	803,00
-1021,24	752,00
-1012,92	1041,00
-1004,61	852,00
-996,30	929,00
-988,01	588,00
-979,73	691,00
-971,46	818,00
-963,20	680,00
-954,95	765,00
-946,71	681,00
-938,48	656,00
-930,26	789,00
-922,06	797,00
-913,86	769,00
-905,67	769,00
-897,49	791,00
-889,33	690,00
-881,17	792,00
-873,02	658,00
-864,89	695,00
-856,76	733,00
-848,65	752,00
-840,54	879,00
-832,45	951,00
-824,36	668,00
-816,29	703,00
-808,22	749,00
-800,17	759,00
-792,12	839,00
-784,09	744,00
-776,06	753,00
-768,05	771,00
-760,04	706,00
-752,05	695,00
-744,07	846,00
-736,09	886,00
-728,13	672,00
-720,17	677,00
-712,23	693,00
-704,29	827,00
-696,37	731,00
-688,45	703,00
-680,55	703,00
-672,65	679,00
-664,77	721,00
-656,89	747,00
-649,03	814,00
-641,17	741,00
-633,32	726,00
-625,49	757,00
-617,66	680,00
-609,84	800,00
-602,03	725,00
-594,23	650,00
-586,45	782,00
-578,67	680,00
-570,90	673,00
-563,14	767,00
-555,39	704,00
-547,65	712,00
-539,91	803,00
-532,19	717,00
-524,48	767,00
-516,78	803,00
-509,08	771,00
-501,40	656,00
-493,72	709,00
-486,06	702,00
-478,40	901,00
-470,76	626,00
-463,12	641,00
-455,49	704,00
-447,87	756,00
-440,26	732,00
-432,66	688,00
-425,07	821,00
-417,49	799,00
-409,92	619,00
-402,35	806,00
-394,80	722,00
-387,25	647,00
-379,72	716,00
-372,19	761,00
-364,67	887,00
-357,17	782,00
-349,67	701,00
-342,18	804,00
-334,69	900,00
-327,22	756,00
-319,76	774,00
-312,30	884,00
-304,86	827,00
-297,42	694,00
-290,00	863,00
-282,58	789,00
-275,17	938,00
-267,77	827,00
-260,37	900,00
-252,99	881,00
-245,62	806,00
-238,25	800,00
-230,90	780,00
-223,55	767,00
-216,21	960,00
-208,88	930,00
-201,56	881,00
-194,25	983,00
-186,94	1043,00
-179,65	1046,00
-172,36	959,00
-165,08	1016,00
-157,81	1194,00
-150,55	1222,00
-143,30	1240,00
-136,06	1231,00
-128,82	1433,00
-121,60	1499,00
-114,38	1612,00
-107,17	1601,00
-99,97	1774,00
-92,78	1895,00
-85,60	2179,00
-78,42	2476,00
-71,25	2622,00
-64,10	2874,00
-56,95	3201,00
-49,81	3805,00
-42,67	4424,00
-35,55	5302,00
-28,43	6797,00
-21,33	10797,00
-14,23	32131,00
-7,14	56670,00
-0,05	56467,00
7,02	56225,00
14,09	56403,00
21,14	34416,00
28,19	14727,00
35,23	9234,00
42,27	7095,00
49,29	5819,00
56,31	4956,00
63,32	4235,00
70,32	3746,00
77,31	3182,00
84,29	2920,00
91,27	2644,00
98,23	2541,00
105,19	2314,00
112,14	2448,00
119,09	3094,00
126,02	4087,00
132,95	4258,00
139,87	4356,00
146,78	4373,00
153,68	4245,00
160,58	4020,00
167,46	4001,00
174,34	3922,00
181,21	4007,00
188,08	3918,00
194,93	3990,00
201,78	3873,00
208,62	3968,00
215,45	3868,00
222,27	3929,00
229,09	4006,00
235,90	3672,00
242,70	3853,00
249,49	3782,00
256,27	3680,00
263,05	3648,00
269,82	3545,00
276,58	3677,00
283,33	3489,00
290,08	3511,00
296,82	3529,00
303,55	3349,00
310,27	3342,00
316,98	3509,00
323,69	3385,00
330,39	3290,00
337,08	3444,00
343,76	3400,00
350,44	3354,00
357,11	3401,00
363,77	3260,00
370,42	3234,00
377,07	3360,00
383,71	3298,00
390,34	3218,00
396,96	3131,00
403,58	3261,00
410,19	3268,00
416,79	3497,00
423,38	3395,00
429,97	3388,00
436,55	3044,00
443,12	3221,00
449,68	3010,00
456,24	3074,00
462,79	2957,00
469,33	3067,00
475,86	2946,00
482,39	2973,00
488,91	3029,00
495,42	2915,00
501,93	2878,00
508,42	2784,00
514,91	2918,00
521,40	2805,00
527,87	2934,00
534,34	2706,00
540,80	2888,00
547,25	2995,00
553,70	2825,00
560,14	2855,00
566,57	2772,00
573,00	2827,00
579,41	2813,00
585,83	2883,00
592,23	2906,00
598,62	2800,00
605,01	2767,00
611,40	2809,00
617,77	2741,00
624,14	2792,00
630,50	2847,00
636,85	2771,00
643,20	2723,00
649,54	2679,00
655,87	2653,00
662,20	2720,00
668,52	2624,00
674,83	2688,00
681,13	2721,00
687,43	2694,00
693,72	2659,00
700,00	2640,00
706,28	2603,00
712,55	2610,00
718,81	2665,00
725,07	2686,00
731,32	2593,00
737,56	2671,00
743,79	2623,00
750,02	2709,00
756,24	2605,00
762,46	2709,00
768,67	2869,00
774,87	2732,00
781,06	2713,00
787,25	2759,00
793,43	2722,00
799,60	2695,00
805,77	2771,00
811,93	2747,00
818,08	2695,00
824,23	2684,00
830,37	2769,00
836,50	2737,00
842,63	2703,00
848,75	2666,00
854,87	2699,00
860,97	2561,00
867,07	2760,00
873,17	2700,00
879,25	2693,00
885,33	2554,00
891,41	2738,00
897,47	2672,00
903,53	2630,00
909,59	2743,00
915,63	2716,00
921,67	2571,00
927,71	2644,00
933,74	2562,00
939,76	2429,00
945,77	2426,00
951,78	2453,00
957,78	2466,00
963,78	2516,00
969,77	2422,00
975,75	2402,00
981,72	2642,00
987,69	3420,00
993,66	2449,00
999,61	2475,00
1005,56	2379,00
1011,51	2502,00
1017,44	2329,00
1023,37	2473,00
1029,30	2560,00
1035,22	2577,00
1041,13	2473,00
1047,03	2493,00
1052,93	2912,00
1058,83	3144,00
1064,71	3323,00
1070,59	3131,00
1076,47	2916,00
1082,33	2751,00
1088,20	2707,00
1094,05	2628,00
1099,90	2534,00
1105,74	2441,00
1111,58	2597,00
1117,41	2624,00
1123,23	2958,00
1129,05	3059,00
1134,86	3149,00
1140,67	2742,00
1146,47	2541,00
1152,26	2582,00
1158,05	2386,00
1163,83	2368,00
1169,60	2468,00
1175,37	2531,00
1181,13	2435,00
1186,89	2277,00
1192,64	2493,00
1198,38	2499,00
1204,12	2354,00
1209,85	2395,00
1215,58	2431,00
1221,30	2384,00
1227,02	2387,00
1232,72	2485,00
1238,43	2371,00
1244,12	2343,00
1249,81	2348,00
1255,50	2401,00
1261,17	2439,00
1266,85	2429,00
1272,51	2495,00
1278,17	2537,00
1283,83	2687,00
1289,47	3084,00
1295,12	3629,00
1300,75	3590,00
1306,38	3168,00
1312,01	2861,00
1317,63	2805,00
1323,24	2615,00
1328,85	2610,00
1334,45	2554,00
1340,04	2557,00
1345,63	2582,00
1351,22	2678,00
1356,80	2678,00
1362,37	2806,00
1367,93	2690,00
1373,49	2714,00
1379,05	2555,00
1384,60	2692,00
1390,14	2561,00
1395,68	2595,00
1401,21	2615,00
1406,74	2689,00
1412,26	2739,00
1417,77	3047,00
1423,28	2970,00
1428,78	3181,00
1434,28	3544,00
1439,77	3869,00
1445,26	3858,00
1450,74	3822,00
1456,22	3513,00
1461,68	3482,00
1467,15	3252,00
1472,61	3039,00
1478,06	2916,00
1483,51	2620,00
1488,95	2380,00
1494,38	2438,00
1499,81	2404,00
1505,24	2414,00
1510,65	2455,00
1516,07	2337,00
1521,48	2271,00
1526,88	2203,00
1532,27	2208,00
1537,67	2323,00
1543,05	2234,00
1548,43	2235,00
1553,81	2348,00
1559,18	2173,00
1564,54	2104,00
1569,90	2198,00
1575,25	2219,00
1580,60	2200,00
1585,94	2175,00
1591,28	2115,00
1596,61	2130,00
1601,93	2238,00
1607,25	2337,00
1612,57	2227,00
1617,88	2078,00
1623,18	2183,00
1628,48	2218,00
1633,77	2131,00
1639,06	2229,00
1644,34	2036,00
1649,62	2124,00
1654,89	2304,00
1660,16	2081,00
1665,42	2120,00
1670,67	2014,00
1675,92	2025,00
1681,17	2062,00
1686,41	2017,00
1691,64	2012,00
1696,87	2041,00
1702,10	1975,00
1707,32	1972,00
1712,53	2021,00
1717,74	1946,00
1722,94	2085,00
1728,14	1962,00
1733,33	1883,00
1738,52	1822,00
1743,70	2100,00
1748,88	1998,00
1754,05	2018,00
1759,22	1891,00
1764,38	2127,00
1769,53	1949,00
1774,69	1890,00
1779,83	1871,00
1784,97	1889,00
1790,11	1893,00
1795,24	1842,00
1800,36	1882,00
1805,48	1846,00
1810,60	1755,00
1815,71	1817,00
1820,82	1721,00
1825,92	1865,00
1831,01	1891,00
1836,10	1828,00
1841,19	1889,00
1846,26	1713,00
1851,34	1827,00
1856,41	1919,00
1861,47	1863,00
1866,53	1796,00
1871,59	1785,00
1876,64	1759,00
1881,68	1792,00
1886,72	1807,00
1891,76	1687,00
1896,79	1729,00
1901,81	1653,00
1906,83	1798,00
1911,85	1680,00
1916,86	1770,00
1921,86	1636,00
1926,86	1740,00
1931,86	1705,00
1936,85	1677,00
1941,83	1729,00
1946,81	1569,00
1951,79	1728,00
1956,76	1602,00
1961,72	1596,00
1966,68	1612,00
1971,64	1565,00
1976,59	1621,00
1981,54	1621,00
1986,48	1495,00
1991,42	1535,00
1996,35	1687,00
2001,27	1680,00
2006,20	1643,00
2011,11	1516,00
2016,03	1456,00
2020,93	1482,00
2025,84	1763,00
2030,73	1635,00
2035,63	1542,00
2040,52	1673,00
2045,40	1465,00
2050,28	1435,00
2055,15	1493,00
2060,02	1408,00
2064,89	1565,00
2069,75	1612,00
2074,60	1546,00
2079,46	1474,00
2084,30	1475,00
2089,14	1449,00
2093,98	1553,00
2098,81	1555,00
2103,64	1483,00
2108,46	1511,00
2113,28	1596,00
2118,09	1433,00
2122,90	1542,00
2127,70	1428,00
2132,50	1570,00
2137,30	1469,00
2142,09	1503,00
2146,87	1426,00
2151,66	1486,00
2156,43	1518,00
2161,20	1550,00
2165,97	1529,00
2170,73	1410,00
2175,49	1551,00
2180,24	1580,00
2184,99	1663,00
2189,74	1644,00
2194,48	1524,00
2199,21	1593,00
2203,94	1387,00
2208,67	1538,00
2213,39	1334,00
2218,11	1381,00
2222,82	1448,00
2227,53	1279,00
2232,23	1392,00
2236,93	1460,00
2241,63	1414,00
2246,32	1462,00
2251,00	1355,00
2255,68	1386,00
2260,36	1347,00
2265,03	1337,00
2269,70	1381,00
2274,36	1374,00
2279,02	1337,00
2283,68	1417,00
2288,33	1347,00
2292,97	1383,00
2297,61	1381,00
2302,25	1438,00
2306,88	1375,00
2311,51	1306,00
2316,14	1233,00
2320,75	1338,00
2325,37	1299,00
2329,98	1464,00
2334,59	1139,00
2339,19	1386,00
2343,79	1284,00
2348,38	1202,00
2352,97	1226,00
2357,55	1308,00
2362,13	1309,00
2366,71	1247,00
2371,28	1329,00
2375,85	1389,00
2380,41	1274,00
2384,97	1284,00
2389,52	1246,00
2394,07	1397,00
2398,62	1269,00
2403,16	1164,00
2407,70	1123,00
2412,23	1263,00
2416,76	1367,00
2421,29	1255,00
2425,81	1339,00
2430,32	1254,00
2434,84	1193,00
2439,34	1342,00
2443,85	1290,00
2448,35	1301,00
2452,84	1202,00
2457,33	1281,00
2461,82	1098,00
2466,30	1224,00
2470,78	1183,00
2475,25	1242,00
2479,72	1192,00
2484,19	1153,00
2488,65	1322,00
2493,11	1157,00
2497,56	1033,00
2502,01	1089,00
2506,46	1292,00
2510,90	1262,00
2515,34	1181,00
2519,77	1159,00
2524,20	1314,00
2528,62	1236,00
2533,04	1239,00
2537,46	1147,00
2541,87	1015,00
2546,28	1111,00
2550,68	1126,00
2555,08	1208,00
2559,48	1176,00
2563,87	1080,00
2568,26	1189,00
2572,64	1163,00
2577,02	1219,00
2581,40	1049,00
2585,77	1073,00
2590,14	1172,00
2594,50	1090,00
2598,86	1104,00
2603,22	1104,00
2607,57	1112,00
2611,92	1137,00
2616,26	1097,00
2620,60	1184,00
2624,94	1050,00
2629,27	1186,00
2633,60	1076,00
2637,92	1221,00
2642,24	1245,00
2646,56	967,00
2650,87	1158,00
2655,18	1306,00
2659,48	1105,00
2663,78	1137,00
2668,08	1098,00
2672,37	1066,00
2676,66	1247,00
2680,95	1183,00
2685,23	1156,00
2689,50	1197,00
2693,78	1102,00
2698,05	1174,00
2702,31	1221,00
2706,57	1208,00
2710,83	1264,00
2715,08	1274,00
2719,33	1440,00
2723,58	1255,00
2727,82	1302,00
2732,06	1218,00
2736,29	1327,00
2740,53	1257,00
2744,75	1174,00
2748,97	1282,00
2753,19	1215,00
2757,41	1173,00
2761,62	1232,00
2765,83	1199,00
2770,03	1072,00
2774,23	1295,00
2778,43	1167,00
2782,62	1066,00
2786,81	1221,00
2791,00	1192,00
2795,18	1391,00
2799,35	1307,00
2803,53	1236,00
2807,70	1337,00
2811,86	1237,00
2816,03	1281,00
2820,19	1384,00
2824,34	1427,00
2828,49	1468,00
2832,64	1748,00
2836,78	1883,00
2840,92	2034,00
2845,06	2317,00
2849,19	2650,00
2853,32	2662,00
2857,45	2805,00
2861,57	2741,00
2865,69	2692,00
2869,80	2540,00
2873,91	2584,00
2878,02	2771,00
2882,12	2922,00
2886,22	2689,00
2890,32	2788,00
2894,41	2678,00
2898,50	2519,00
2902,58	2460,00
2906,67	2421,00
2910,74	2227,00
2914,82	2104,00
2918,89	2147,00
2922,96	2123,00
2927,02	1893,00
2931,08	1917,00
2935,13	1728,00
2939,19	1743,00
2943,24	1646,00
2947,28	1549,00
2951,32	1460,00
2955,36	1407,00
2959,40	1396,00
2963,43	1456,00
2967,46	1227,00
2971,48	1288,00
2975,50	1233,00
2979,52	1217,00
2983,53	1095,00
2987,54	1029,00
2991,55	1115,00
2995,55	1122,00
2999,55	969,00
3003,54	1011,00
3007,54	1028,00
3011,53	895,00
3015,51	998,00
3019,49	1038,00
3023,47	928,00
3027,45	902,00
3031,42	921,00
3035,39	916,00
3039,35	937,00
3043,31	861,00
3047,27	907,00
3051,22	1064,00
3055,17	976,00
3059,12	777,00
3063,06	946,00
3067,00	788,00
3070,94	840,00
3074,87	842,00
3078,80	965,00
3082,73	758,00
3086,65	852,00
3090,57	902,00
3094,49	921,00
3098,40	941,00
3102,31	776,00
3106,22	818,00
3110,12	947,00
3114,02	828,00
3117,92	883,00
3121,81	957,00
3125,70	872,00
3129,58	793,00
3133,47	764,00
3137,34	882,00
3141,22	816,00
3145,09	947,00
3148,96	787,00
3152,83	871,00
3156,69	989,00
3160,55	909,00
3164,40	911,00
3168,26	819,00
3172,10	935,00
3175,95	987,00
3179,79	914,00
3183,63	900,00
3187,47	877,00
3191,30	1033,00
3195,13	981,00
3198,95	754,00
3202,78	826,00
3206,60	839,00
3210,41	754,00
3214,23	805,00
3218,03	801,00
3221,84	770,00
3225,64	860,00
3229,44	846,00
3233,24	781,00
3237,03	888,00
3240,82	822,00
3244,61	708,00
3248,39	881,00
3252,17	839,00
3255,95	1020,00
3259,72	931,00
3263,49	958,00
3267,26	830,00
3271,03	804,00
3274,79	717,00
3278,54	798,00
3282,30	772,00
3286,05	914,00
3289,80	902,00
3293,54	766,00
3297,29	780,00
3301,02	787,00
3304,76	802,00
3308,49	934,00
3312,22	707,00
3315,95	883,00
3319,67	796,00
3323,39	826,00
3327,10	831,00
3330,82	849,00
3334,53	764,00
3338,24	839,00
3341,94	875,00
3345,64	840,00
3349,34	913,00
3353,03	836,00
3356,72	844,00
3360,41	773,00
3364,10	769,00
3367,78	786,00
3371,46	793,00
3375,13	866,00
3378,81	830,00
3382,48	727,00
3386,14	846,00
3389,81	756,00
3393,47	931,00
3397,12	788,00
3400,78	836,00
3404,43	760,00
3408,08	897,00
3411,72	775,00
3415,36	735,00
3419,00	784,00
3422,64	802,00
3426,27	766,00
3429,90	784,00
3433,53	730,00
3437,15	787,00
3440,77	661,00
3444,39	826,00
3448,00	757,00
3451,62	747,00
3455,22	708,00
3458,83	813,00
3462,43	803,00
3466,03	762,00
3469,63	760,00
3473,22	754,00
3476,81	744,00
3480,40	729,00
3483,99	689,00
3487,57	908,00
3491,15	771,00
3494,72	643,00
3498,29	753,00
3501,86	738,00
3505,43	903,00
3508,99	797,00
3512,56	701,00
3516,11	849,00
3519,67	753,00
3523,22	891,00
3526,77	676,00
3530,32	714,00
3533,86	740,00
3537,40	660,00
3540,94	700,00
3544,47	738,00
3548,00	702,00
3551,53	804,00
3555,06	763,00
3558,58	897,00
3562,10	872,00
3565,62	715,00
3569,13	768,00
3572,64	797,00
3576,15	658,00
3579,66	872,00
3583,16	655,00
3586,66	697,00
3590,16	740,00
3593,65	691,00
3597,14	688,00
3600,63	616,00
3604,11	785,00
3607,60	721,00
3611,08	746,00
3614,55	775,00
3618,03	643,00
3621,50	729,00
3624,97	688,00
3628,43	805,00
3631,90	741,00
3635,36	721,00
3638,81	644,00
3642,27	808,00
3645,72	794,00
3649,17	716,00
3652,61	698,00
3656,06	682,00
3659,50	662,00
3662,93	656,00
3666,37	740,00
3669,80	671,00
3673,23	778,00
3676,65	729,00
3680,08	869,00
3683,50	632,00
3686,92	760,00
3690,33	648,00
3693,74	669,00
3697,15	634,00
3700,56	681,00
3703,96	757,00
3707,36	589,00
3710,76	620,00
3714,16	557,00
3717,55	578,00
3720,94	730,00
3724,33	640,00
3727,71	785,00
3731,10	735,00
3734,48	647,00
3737,85	571,00
3741,23	692,00
3744,60	609,00
3747,97	646,00
3751,33	732,00
3754,69	620,00
3758,05	713,00
3761,41	551,00
3764,77	671,00
3768,12	605,00
3771,47	467,00
3774,82	618,00
3778,16	-6,00
3781,50	17,00
3784,84	9,00
3788,18	13,00
>>>>>End Processed Spectral Data<<<<<
