SpectraSuite Data File
++++++++++++++++++++++++++++++++++++
Date: Wed Feb 04 16:22:30 ICT 2026
User: Administrator
Dark Spectrum Present: Yes
Reference Spectrum Present: No
Number of Sampled Component Spectra: 1
Spectrometers: MAYP113682
Integration Time (usec): 3000000 (MAYP113682)
Spectra Averaged: 1 (MAYP113682)
Boxcar Smoothing: 0 (MAYP113682)
Correct for Electrical Dark: No (MAYP113682)
Strobe/Lamp Enabled: No (MAYP113682)
Correct for Detector Non-linearity: No (MAYP113682)
Correct for Stray Light: No (MAYP113682)
Number of Pixels in Processed Spectrum: 2068
>>>>>Begin Processed Spectral Data<<<<<
-37534,58	3,00
-37414,56	2,00
-37295,11	-6,00
-37176,24	0,00
-37057,95	165,00
-36940,22	289,00
-36823,05	152,00
-36706,45	86,00
-36590,40	136,00
-36474,90	134,00
-36359,95	98,00
-36245,55	154,00
-36131,68	65,00
-36018,35	245,00
-35905,55	192,00
-35793,29	171,00
-35681,54	147,00
-35570,32	145,00
-35459,62	254,00
-35349,43	111,00
-35239,75	191,00
-35130,58	149,00
-35021,91	245,00
-34913,74	178,00
-34806,07	182,00
-34698,89	177,00
-34592,20	243,00
-34486,00	65,00
-34380,28	99,00
-34275,04	196,00
-34170,27	185,00
-34065,98	154,00
-33962,16	183,00
-33858,81	98,00
-33755,92	110,00
-33653,49	159,00
-33551,52	218,00
-33450,01	193,00
-33348,94	177,00
-33248,33	123,00
-33148,16	74,00
-33048,43	201,00
-32949,14	224,00
-32850,29	310,00
-32751,87	258,00
-32653,89	171,00
-32556,33	237,00
-32459,20	92,00
-32362,49	175,00
-32266,19	176,00
-32170,32	149,00
-32074,86	153,00
-31979,82	260,00
-31885,18	143,00
-31790,95	263,00
-31697,12	69,00
-31603,69	65,00
-31510,67	173,00
-31418,04	251,00
-31325,80	116,00
-31233,95	243,00
-31142,49	210,00
-31051,42	249,00
-30960,73	161,00
-30870,43	266,00
-30780,50	134,00
-30690,95	115,00
-30601,77	165,00
-30512,97	186,00
-30424,53	204,00
-30336,46	209,00
-30248,76	117,00
-30161,42	213,00
-30074,44	262,00
-29987,81	172,00
-29901,55	143,00
-29815,63	240,00
-29730,07	95,00
-29644,86	279,00
-29560,00	175,00
-29475,48	230,00
-29391,30	201,00
-29307,47	157,00
-29223,97	167,00
-29140,81	65,00
-29057,99	33,00
-28975,50	215,00
-28893,34	237,00
-28811,51	182,00
-28730,00	115,00
-28648,82	275,00
-28567,97	188,00
-28487,43	235,00
-28407,21	212,00
-28327,32	50,00
-28247,73	247,00
-28168,46	219,00
-28089,50	152,00
-28010,85	171,00
-27932,51	170,00
-27854,48	225,00
-27776,75	212,00
-27699,32	186,00
-27622,19	249,00
-27545,37	96,00
-27468,84	208,00
-27392,60	217,00
-27316,66	253,00
-27241,01	221,00
-27165,66	144,00
-27090,59	142,00
-27015,81	230,00
-26941,31	150,00
-26867,10	188,00
-26793,17	272,00
-26719,52	189,00
-26646,15	318,00
-26573,06	152,00
-26500,24	102,00
-26427,70	325,00
-26355,43	155,00
-26283,43	154,00
-26211,71	257,00
-26140,25	150,00
-26069,06	333,00
-25998,13	146,00
-25927,46	189,00
-25857,06	196,00
-25786,92	166,00
-25717,04	289,00
-25647,42	149,00
-25578,05	168,00
-25508,94	209,00
-25440,09	154,00
-25371,48	288,00
-25303,13	84,00
-25235,02	150,00
-25167,17	175,00
-25099,56	88,00
-25032,19	265,00
-24965,07	72,00
-24898,20	177,00
-24831,56	262,00
-24765,17	265,00
-24699,01	90,00
-24633,10	114,00
-24567,41	216,00
-24501,97	168,00
-24436,75	180,00
-24371,77	188,00
-24307,03	97,00
-24242,51	233,00
-24178,22	145,00
-24114,16	250,00
-24050,32	252,00
-23986,71	166,00
-23923,32	127,00
-23860,16	174,00
-23797,22	314,00
-23734,50	237,00
-23672,00	-12,00
-23609,71	167,00
-23547,65	180,00
-23485,80	265,00
-23424,16	165,00
-23362,74	115,00
-23301,53	113,00
-23240,54	267,00
-23179,75	213,00
-23119,17	212,00
-23058,80	258,00
-22998,64	143,00
-22938,68	202,00
-22878,93	194,00
-22819,39	196,00
-22760,04	116,00
-22700,90	159,00
-22641,96	138,00
-22583,22	317,00
-22524,68	200,00
-22466,33	159,00
-22408,19	251,00
-22350,23	205,00
-22292,48	104,00
-22234,92	77,00
-22177,55	216,00
-22120,37	134,00
-22063,38	211,00
-22006,58	14,00
-21949,98	172,00
-21893,56	212,00
-21837,33	174,00
-21781,28	164,00
-21725,42	243,00
-21669,74	55,00
-21614,25	113,00
-21558,94	116,00
-21503,81	256,00
-21448,86	158,00
-21394,10	109,00
-21339,51	189,00
-21285,10	216,00
-21230,86	130,00
-21176,81	168,00
-21122,93	190,00
-21069,22	159,00
-21015,69	223,00
-20962,33	6,00
-20909,14	222,00
-20856,13	88,00
-20803,28	249,00
-20750,61	94,00
-20698,10	184,00
-20645,76	143,00
-20593,59	127,00
-20541,59	190,00
-20489,75	305,00
-20438,07	31,00
-20386,56	259,00
-20335,22	137,00
-20284,03	261,00
-20233,01	249,00
-20182,15	122,00
-20131,45	190,00
-20080,91	132,00
-20030,52	44,00
-19980,30	108,00
-19930,23	171,00
-19880,32	152,00
-19830,56	88,00
-19780,96	161,00
-19731,52	224,00
-19682,23	155,00
-19633,09	176,00
-19584,10	226,00
-19535,26	339,00
-19486,58	318,00
-19438,04	209,00
-19389,66	204,00
-19341,42	162,00
-19293,33	244,00
-19245,39	174,00
-19197,60	239,00
-19149,95	328,00
-19102,45	140,00
-19055,09	83,00
-19007,87	195,00
-18960,80	158,00
-18913,87	168,00
-18867,09	291,00
-18820,44	216,00
-18773,94	265,00
-18727,57	95,00
-18681,35	174,00
-18635,26	225,00
-18589,31	45,00
-18543,50	81,00
-18497,83	201,00
-18452,29	124,00
-18406,89	90,00
-18361,63	291,00
-18316,50	125,00
-18271,50	180,00
-18226,63	145,00
-18181,90	205,00
-18137,30	120,00
-18092,84	198,00
-18048,50	258,00
-18004,29	209,00
-17960,22	161,00
-17916,27	178,00
-17872,45	120,00
-17828,76	177,00
-17785,20	226,00
-17741,77	205,00
-17698,46	200,00
-17655,28	142,00
-17612,22	143,00
-17569,29	115,00
-17526,48	303,00
-17483,79	139,00
-17441,23	182,00
-17398,79	219,00
-17356,48	211,00
-17314,28	163,00
-17272,21	196,00
-17230,26	83,00
-17188,42	223,00
-17146,71	76,00
-17105,12	196,00
-17063,64	89,00
-17022,28	128,00
-16981,04	266,00
-16939,92	188,00
-16898,91	43,00
-16858,02	211,00
-16817,25	198,00
-16776,59	167,00
-16736,04	142,00
-16695,61	175,00
-16655,29	127,00
-16615,09	162,00
-16574,99	294,00
-16535,01	198,00
-16495,15	154,00
-16455,39	116,00
-16415,74	221,00
-16376,21	228,00
-16336,78	127,00
-16297,46	183,00
-16258,26	187,00
-16219,16	242,00
-16180,17	261,00
-16141,28	253,00
-16102,51	240,00
-16063,84	167,00
-16025,27	178,00
-15986,82	143,00
-15948,46	153,00
-15910,22	300,00
-15872,07	218,00
-15834,04	163,00
-15796,10	209,00
-15758,27	101,00
-15720,54	109,00
-15682,91	139,00
-15645,39	316,00
-15607,97	209,00
-15570,64	147,00
-15533,42	126,00
-15496,30	163,00
-15459,28	204,00
-15422,36	223,00
-15385,54	154,00
-15348,82	229,00
-15312,19	143,00
-15275,66	123,00
-15239,23	157,00
-15202,90	209,00
-15166,67	140,00
-15130,53	73,00
-15094,48	315,00
-15058,54	97,00
-15022,68	145,00
-14986,93	155,00
-14951,26	162,00
-14915,69	118,00
-14880,22	158,00
-14844,84	173,00
-14809,55	150,00
-14774,35	207,00
-14739,25	116,00
-14704,24	125,00
-14669,32	201,00
-14634,49	149,00
-14599,75	252,00
-14565,10	11,00
-14530,55	192,00
-14496,08	143,00
-14461,70	224,00
-14427,41	158,00
-14393,21	177,00
-14359,10	190,00
-14325,07	201,00
-14291,14	142,00
-14257,29	164,00
-14223,52	190,00
-14189,85	174,00
-14156,26	232,00
-14122,76	203,00
-14089,34	102,00
-14056,01	283,00
-14022,76	66,00
-13989,60	131,00
-13956,52	105,00
-13923,53	258,00
-13890,62	251,00
-13857,79	202,00
-13825,05	102,00
-13792,39	206,00
-13759,81	46,00
-13727,31	127,00
-13694,90	189,00
-13662,57	183,00
-13630,31	278,00
-13598,14	171,00
-13566,05	175,00
-13534,05	185,00
-13502,12	187,00
-13470,27	265,00
-13438,50	138,00
-13406,80	103,00
-13375,19	234,00
-13343,66	143,00
-13312,20	107,00
-13280,83	240,00
-13249,53	112,00
-13218,30	134,00
-13187,16	262,00
-13156,09	163,00
-13125,10	118,00
-13094,18	224,00
-13063,34	95,00
-13032,58	31,00
-13001,89	166,00
-12971,28	95,00
-12940,74	121,00
-12910,27	249,00
-12879,88	228,00
-12849,57	156,00
-12819,33	88,00
-12789,16	129,00
-12759,06	106,00
-12729,04	360,00
-12699,09	1327,00
-12669,21	173,00
-12639,41	206,00
-12609,68	149,00
-12580,02	196,00
-12550,43	254,00
-12520,91	177,00
-12491,46	181,00
-12462,08	155,00
-12432,77	180,00
-12403,54	188,00
-12374,37	176,00
-12345,27	149,00
-12316,24	218,00
-12287,29	218,00
-12258,40	219,00
-12229,57	152,00
-12200,82	74,00
-12172,14	22,00
-12143,52	119,00
-12114,97	209,00
-12086,49	46,00
-12058,07	144,00
-12029,73	262,00
-12001,44	255,00
-11973,23	180,00
-11945,08	201,00
-11917,00	205,00
-11888,98	216,00
-11861,03	210,00
-11833,15	123,00
-11805,32	315,00
-11777,57	212,00
-11749,88	303,00
-11722,25	150,00
-11694,69	106,00
-11667,19	175,00
-11639,75	66,00
-11612,38	129,00
-11585,07	120,00
-11557,83	139,00
-11530,65	209,00
-11503,53	237,00
-11476,47	205,00
-11449,48	136,00
-11422,54	200,00
-11395,67	127,00
-11368,86	246,00
-11342,11	131,00
-11315,43	196,00
-11288,80	119,00
-11262,23	264,00
-11235,73	129,00
-11209,28	186,00
-11182,90	177,00
-11156,57	240,00
-11130,31	97,00
-11104,10	134,00
-11077,96	243,00
-11051,87	239,00
-11025,84	227,00
-10999,87	115,00
-10973,96	153,00
-10948,11	167,00
-10922,31	163,00
-10896,58	137,00
-10870,90	320,00
-10845,28	82,00
-10819,71	240,00
-10794,20	227,00
-10768,75	274,00
-10743,36	216,00
-10718,02	156,00
-10692,74	243,00
-10667,52	245,00
-10642,35	173,00
-10617,24	211,00
-10592,18	270,00
-10567,18	277,00
-10542,23	376,00
-10517,34	249,00
-10492,51	252,00
-10467,72	221,00
-10443,00	327,00
-10418,32	73,00
-10393,70	277,00
-10369,14	177,00
-10344,63	413,00
-10320,17	234,00
-10295,77	280,00
-10271,42	429,00
-10247,12	412,00
-10222,88	356,00
-10198,68	356,00
-10174,54	320,00
-10150,46	402,00
-10126,42	384,00
-10102,44	453,00
-10078,51	406,00
-10054,63	468,00
-10030,80	510,00
-10007,03	461,00
-9983,30	658,00
-9959,63	559,00
-9936,01	657,00
-9912,44	490,00
-9888,92	654,00
-9865,44	651,00
-9842,02	604,00
-9818,65	801,00
-9795,33	660,00
-9772,06	710,00
-9748,84	793,00
-9725,67	894,00
-9702,55	980,00
-9679,47	1107,00
-9656,45	1196,00
-9633,47	1238,00
-9610,55	1337,00
-9587,67	1396,00
-9564,84	1429,00
-9542,06	1699,00
-9519,32	1920,00
-9496,64	1924,00
-9474,00	2035,00
-9451,41	2242,00
-9428,87	2402,00
-9406,37	2245,00
-9383,92	2062,00
-9361,52	2095,00
-9339,17	2208,00
-9316,86	2777,00
-9294,60	3108,00
-9272,38	3417,00
-9250,21	3811,00
-9228,09	3732,00
-9206,01	3623,00
-9183,98	3481,00
-9162,00	3169,00
-9140,06	3017,00
-9118,16	3192,00
-9096,31	3414,00
-9074,51	3309,00
-9052,75	3573,00
-9031,04	3346,00
-9009,37	3016,00
-8987,74	2629,00
-8966,16	2431,00
-8944,63	2105,00
-8923,14	2185,00
-8901,69	2312,00
-8880,29	2468,00
-8858,93	2660,00
-8837,61	2871,00
-8816,34	3192,00
-8795,11	2981,00
-8773,92	2916,00
-8752,78	2467,00
-8731,68	2231,00
-8710,62	2374,00
-8689,61	2551,00
-8668,63	2608,00
-8647,70	2923,00
-8626,82	2833,00
-8605,97	2764,00
-8585,17	2481,00
-8564,41	2373,00
-8543,69	2200,00
-8523,01	2001,00
-8502,37	2134,00
-8481,78	2312,00
-8461,23	2598,00
-8440,71	2625,00
-8420,24	2854,00
-8399,81	2954,00
-8379,42	3030,00
-8359,08	2734,00
-8338,77	2557,00
-8318,50	2215,00
-8298,27	2269,00
-8278,09	2289,00
-8257,94	2426,00
-8237,83	2793,00
-8217,76	2755,00
-8197,74	2783,00
-8177,75	2722,00
-8157,80	2572,00
-8137,89	2372,00
-8118,02	2086,00
-8098,19	2180,00
-8078,40	2114,00
-8058,65	2328,00
-8038,93	2216,00
-8019,26	2170,00
-7999,62	2119,00
-7980,02	2056,00
-7960,46	1956,00
-7940,94	1711,00
-7921,46	1821,00
-7902,01	1877,00
-7882,60	1819,00
-7863,23	1908,00
-7843,90	1959,00
-7824,61	1999,00
-7805,35	2173,00
-7786,13	2159,00
-7766,95	2118,00
-7747,80	2046,00
-7728,69	1985,00
-7709,62	1872,00
-7690,59	1976,00
-7671,59	2164,00
-7652,63	2138,00
-7633,70	2103,00
-7614,81	2120,00
-7595,96	1965,00
-7577,15	1694,00
-7558,37	1761,00
-7539,62	1835,00
-7520,91	1874,00
-7502,24	2151,00
-7483,60	2022,00
-7465,00	1918,00
-7446,44	1662,00
-7427,91	1487,00
-7409,41	1479,00
-7390,95	1377,00
-7372,53	1242,00
-7354,14	1335,00
-7335,78	1348,00
-7317,46	1386,00
-7299,18	1445,00
-7280,92	1816,00
-7262,71	1942,00
-7244,52	2070,00
-7226,38	1982,00
-7208,26	1964,00
-7190,18	1905,00
-7172,14	1603,00
-7154,12	1750,00
-7136,15	1678,00
-7118,20	1936,00
-7100,29	1907,00
-7082,41	2047,00
-7064,57	1784,00
-7046,76	1753,00
-7028,98	1467,00
-7011,24	1369,00
-6993,53	1091,00
-6975,85	1028,00
-6958,20	1035,00
-6940,59	903,00
-6923,01	901,00
-6905,46	1276,00
-6887,94	1409,00
-6870,46	2163,00
-6853,01	1620,00
-6835,59	1832,00
-6818,21	1653,00
-6800,85	1296,00
-6783,53	1143,00
-6766,24	922,00
-6748,98	783,00
-6731,76	685,00
-6714,56	768,00
-6697,40	824,00
-6680,26	883,00
-6663,16	1071,00
-6646,09	1110,00
-6629,05	1350,00
-6612,05	1530,00
-6595,07	1434,00
-6578,13	1212,00
-6561,21	1131,00
-6544,33	979,00
-6527,47	644,00
-6510,65	600,00
-6493,86	618,00
-6477,10	633,00
-6460,36	657,00
-6443,66	559,00
-6426,99	482,00
-6410,35	648,00
-6393,74	832,00
-6377,16	880,00
-6360,61	968,00
-6344,09	960,00
-6327,59	1001,00
-6311,13	1079,00
-6294,70	1157,00
-6278,29	1238,00
-6261,92	1276,00
-6245,58	1353,00
-6229,26	1420,00
-6212,97	1106,00
-6196,72	841,00
-6180,49	720,00
-6164,29	556,00
-6148,12	353,00
-6131,98	371,00
-6115,86	381,00
-6099,78	430,00
-6083,72	227,00
-6067,69	488,00
-6051,69	364,00
-6035,72	442,00
-6019,78	390,00
-6003,87	772,00
-5987,98	974,00
-5972,12	1086,00
-5956,29	1063,00
-5940,49	1024,00
-5924,71	818,00
-5908,96	565,00
-5893,24	320,00
-5877,55	580,00
-5861,89	440,00
-5846,25	569,00
-5830,64	441,00
-5815,05	535,00
-5799,50	519,00
-5783,97	640,00
-5768,47	693,00
-5752,99	966,00
-5737,55	938,00
-5722,12	1002,00
-5706,73	810,00
-5691,36	756,00
-5676,02	598,00
-5660,71	319,00
-5645,42	383,00
-5630,16	492,00
-5614,92	635,00
-5599,71	648,00
-5584,53	709,00
-5569,37	699,00
-5554,24	1791,00
-5539,14	590,00
-5524,06	565,00
-5509,01	565,00
-5493,98	675,00
-5478,98	760,00
-5464,00	593,00
-5449,05	572,00
-5434,13	548,00
-5419,23	443,00
-5404,36	529,00
-5389,51	743,00
-5374,69	842,00
-5359,89	1131,00
-5345,12	1061,00
-5330,37	975,00
-5315,65	868,00
-5300,95	688,00
-5286,28	577,00
-5271,63	551,00
-5257,01	596,00
-5242,41	524,00
-5227,84	577,00
-5213,29	553,00
-5198,76	377,00
-5184,26	303,00
-5169,79	475,00
-5155,33	550,00
-5140,91	659,00
-5126,51	798,00
-5112,13	720,00
-5097,77	744,00
-5083,44	555,00
-5069,13	398,00
-5054,85	431,00
-5040,59	497,00
-5026,36	676,00
-5012,15	599,00
-4997,96	603,00
-4983,80	473,00
-4969,66	400,00
-4955,54	527,00
-4941,44	425,00
-4927,37	832,00
-4913,33	1015,00
-4899,30	1091,00
-4885,30	1009,00
-4871,33	862,00
-4857,37	445,00
-4843,44	371,00
-4829,53	419,00
-4815,65	391,00
-4801,79	563,00
-4787,95	485,00
-4774,13	533,00
-4760,34	446,00
-4746,56	440,00
-4732,82	388,00
-4719,09	734,00
-4705,38	810,00
-4691,70	995,00
-4678,04	974,00
-4664,41	789,00
-4650,79	611,00
-4637,20	584,00
-4623,63	273,00
-4610,08	490,00
-4596,56	654,00
-4583,05	642,00
-4569,57	624,00
-4556,11	355,00
-4542,67	296,00
-4529,25	465,00
-4515,86	490,00
-4502,49	730,00
-4489,13	805,00
-4475,80	788,00
-4462,49	434,00
-4449,21	391,00
-4435,94	269,00
-4422,70	440,00
-4409,47	528,00
-4396,27	622,00
-4383,09	361,00
-4369,93	280,00
-4356,79	246,00
-4343,67	267,00
-4330,58	406,00
-4317,50	424,00
-4304,45	422,00
-4291,41	411,00
-4278,40	335,00
-4265,41	319,00
-4252,44	511,00
-4239,49	443,00
-4226,55	496,00
-4213,65	369,00
-4200,76	378,00
-4187,89	279,00
-4175,04	222,00
-4162,21	212,00
-4149,40	363,00
-4136,61	193,00
-4123,85	366,00
-4111,10	81,00
-4098,37	255,00
-4085,66	208,00
-4072,98	308,00
-4060,31	300,00
-4047,66	300,00
-4035,04	230,00
-4022,43	334,00
-4009,84	374,00
-3997,27	248,00
-3984,72	111,00
-3972,19	262,00
-3959,69	279,00
-3947,20	246,00
-3934,73	256,00
-3922,27	228,00
-3909,84	150,00
-3897,43	146,00
-3885,04	60,00
-3872,67	223,00
-3860,31	161,00
-3847,98	220,00
-3835,66	104,00
-3823,36	302,00
-3811,09	162,00
-3798,83	280,00
-3786,59	217,00
-3774,37	155,00
-3762,17	144,00
-3749,98	105,00
-3737,82	225,00
-3725,67	277,00
-3713,55	134,00
-3701,44	176,00
-3689,35	197,00
-3677,28	244,00
-3665,22	246,00
-3653,19	169,00
-3641,17	145,00
-3629,18	170,00
-3617,20	107,00
-3605,24	153,00
-3593,30	214,00
-3581,37	132,00
-3569,47	299,00
-3557,58	143,00
-3545,71	256,00
-3533,86	100,00
-3522,02	165,00
-3510,21	226,00
-3498,41	194,00
-3486,63	141,00
-3474,87	102,00
-3463,12	268,00
-3451,40	227,00
-3439,69	216,00
-3428,00	153,00
-3416,33	138,00
-3404,67	144,00
-3393,03	155,00
-3381,41	166,00
-3369,81	225,00
-3358,22	111,00
-3346,66	282,00
-3335,10	108,00
-3323,57	106,00
-3312,06	130,00
-3300,56	199,00
-3289,08	148,00
-3277,61	161,00
-3266,16	135,00
-3254,73	199,00
-3243,32	280,00
-3231,92	177,00
-3220,55	87,00
-3209,18	144,00
-3197,84	197,00
-3186,51	154,00
-3175,20	58,00
-3163,90	123,00
-3152,63	190,00
-3141,36	199,00
-3130,12	308,00
-3118,89	81,00
-3107,68	167,00
-3096,49	138,00
-3085,31	120,00
-3074,15	178,00
-3063,00	203,00
-3051,87	208,00
-3040,76	225,00
-3029,67	246,00
-3018,59	328,00
-3007,52	52,00
-2996,48	93,00
-2985,44	217,00
-2974,43	235,00
-2963,43	121,00
-2952,45	171,00
-2941,48	159,00
-2930,53	20,00
-2919,60	144,00
-2908,68	158,00
-2897,78	300,00
-2886,89	174,00
-2876,02	86,00
-2865,17	162,00
-2854,33	224,00
-2843,50	221,00
-2832,70	214,00
-2821,90	147,00
-2811,13	159,00
-2800,37	160,00
-2789,62	80,00
-2778,89	138,00
-2768,18	-16,00
-2757,48	161,00
-2746,80	201,00
-2736,13	265,00
-2725,48	239,00
-2714,84	100,00
-2704,22	107,00
-2693,61	101,00
-2683,02	229,00
-2672,45	146,00
-2661,89	234,00
-2651,34	151,00
-2640,81	98,00
-2630,30	228,00
-2619,80	116,00
-2609,31	182,00
-2598,84	312,00
-2588,39	223,00
-2577,95	136,00
-2567,52	183,00
-2557,11	247,00
-2546,71	102,00
-2536,33	333,00
-2525,97	249,00
-2515,62	227,00
-2505,28	212,00
-2494,96	111,00
-2484,65	220,00
-2474,36	158,00
-2464,08	253,00
-2453,82	189,00
-2443,57	174,00
-2433,33	234,00
-2423,11	184,00
-2412,91	193,00
-2402,72	138,00
-2392,54	63,00
-2382,38	156,00
-2372,23	133,00
-2362,09	341,00
-2351,97	142,00
-2341,87	117,00
-2331,78	153,00
-2321,70	146,00
-2311,64	-3,00
-2301,59	213,00
-2291,55	240,00
-2281,53	236,00
-2271,53	172,00
-2261,53	144,00
-2251,55	163,00
-2241,59	251,00
-2231,64	214,00
-2221,70	196,00
-2211,78	277,00
-2201,87	205,00
-2191,97	112,00
-2182,09	235,00
-2172,22	209,00
-2162,37	181,00
-2152,53	158,00
-2142,70	136,00
-2132,89	180,00
-2123,09	283,00
-2113,30	22,00
-2103,53	185,00
-2093,77	175,00
-2084,02	154,00
-2074,29	251,00
-2064,57	203,00
-2054,86	216,00
-2045,17	73,00
-2035,49	200,00
-2025,82	96,00
-2016,17	276,00
-2006,53	76,00
-1996,91	207,00
-1987,29	173,00
-1977,69	217,00
-1968,11	153,00
-1958,53	164,00
-1948,97	198,00
-1939,42	169,00
-1929,89	235,00
-1920,37	76,00
-1910,86	75,00
-1901,36	172,00
-1891,88	257,00
-1882,41	87,00
-1872,95	112,00
-1863,51	253,00
-1854,08	238,00
-1844,66	155,00
-1835,26	226,00
-1825,86	146,00
-1816,48	198,00
-1807,11	107,00
-1797,76	134,00
-1788,42	148,00
-1779,09	118,00
-1769,77	254,00
-1760,47	148,00
-1751,17	42,00
-1741,89	241,00
-1732,63	209,00
-1723,37	259,00
-1714,13	274,00
-1704,90	182,00
-1695,68	243,00
-1686,48	278,00
-1677,29	194,00
-1668,11	181,00
-1658,94	141,00
-1649,78	233,00
-1640,64	165,00
-1631,51	243,00
-1622,39	230,00
-1613,28	135,00
-1604,19	244,00
-1595,10	186,00
-1586,03	40,00
-1576,97	221,00
-1567,93	275,00
-1558,89	215,00
-1549,87	188,00
-1540,86	167,00
-1531,86	192,00
-1522,87	104,00
-1513,90	182,00
-1504,93	235,00
-1495,98	122,00
-1487,04	165,00
-1478,12	212,00
-1469,20	168,00
-1460,30	134,00
-1451,40	295,00
-1442,52	150,00
-1433,65	178,00
-1424,80	139,00
-1415,95	41,00
-1407,12	177,00
-1398,30	221,00
-1389,48	193,00
-1380,69	158,00
-1371,90	146,00
-1363,12	236,00
-1354,36	175,00
-1345,60	256,00
-1336,86	246,00
-1328,13	225,00
-1319,41	147,00
-1310,70	40,00
-1302,01	180,00
-1293,32	212,00
-1284,65	269,00
-1275,99	152,00
-1267,33	246,00
-1258,69	287,00
-1250,06	117,00
-1241,45	146,00
-1232,84	314,00
-1224,25	226,00
-1215,66	91,00
-1207,09	109,00
-1198,53	335,00
-1189,97	199,00
-1181,43	252,00
-1172,91	227,00
-1164,39	183,00
-1155,88	211,00
-1147,38	209,00
-1138,90	148,00
-1130,43	149,00
-1121,96	196,00
-1113,51	141,00
-1105,07	191,00
-1096,64	201,00
-1088,22	214,00
-1079,81	231,00
-1071,41	118,00
-1063,02	130,00
-1054,65	175,00
-1046,28	196,00
-1037,92	177,00
-1029,58	109,00
-1021,24	274,00
-1012,92	281,00
-1004,61	69,00
-996,30	230,00
-988,01	178,00
-979,73	256,00
-971,46	344,00
-963,20	112,00
-954,95	258,00
-946,71	162,00
-938,48	150,00
-930,26	178,00
-922,06	93,00
-913,86	218,00
-905,67	150,00
-897,49	189,00
-889,33	115,00
-881,17	347,00
-873,02	231,00
-864,89	197,00
-856,76	166,00
-848,65	58,00
-840,54	135,00
-832,45	202,00
-824,36	95,00
-816,29	203,00
-808,22	141,00
-800,17	191,00
-792,12	280,00
-784,09	277,00
-776,06	191,00
-768,05	186,00
-760,04	178,00
-752,05	204,00
-744,07	184,00
-736,09	314,00
-728,13	213,00
-720,17	249,00
-712,23	8,00
-704,29	221,00
-696,37	183,00
-688,45	226,00
-680,55	233,00
-672,65	93,00
-664,77	279,00
-656,89	173,00
-649,03	101,00
-641,17	181,00
-633,32	179,00
-625,49	137,00
-617,66	229,00
-609,84	213,00
-602,03	231,00
-594,23	207,00
-586,45	247,00
-578,67	211,00
-570,90	163,00
-563,14	219,00
-555,39	221,00
-547,65	208,00
-539,91	160,00
-532,19	215,00
-524,48	75,00
-516,78	224,00
-509,08	164,00
-501,40	91,00
-493,72	202,00
-486,06	96,00
-478,40	247,00
-470,76	167,00
-463,12	116,00
-455,49	221,00
-447,87	106,00
-440,26	315,00
-432,66	60,00
-425,07	124,00
-417,49	295,00
-409,92	197,00
-402,35	217,00
-394,80	236,00
-387,25	194,00
-379,72	224,00
-372,19	202,00
-364,67	316,00
-357,17	224,00
-349,67	194,00
-342,18	235,00
-334,69	221,00
-327,22	189,00
-319,76	173,00
-312,30	150,00
-304,86	222,00
-297,42	190,00
-290,00	151,00
-282,58	238,00
-275,17	194,00
-267,77	112,00
-260,37	243,00
-252,99	273,00
-245,62	288,00
-238,25	223,00
-230,90	155,00
-223,55	409,00
-216,21	283,00
-208,88	280,00
-201,56	238,00
-194,25	312,00
-186,94	329,00
-179,65	398,00
-172,36	355,00
-165,08	372,00
-157,81	461,00
-150,55	452,00
-143,30	548,00
-136,06	574,00
-128,82	465,00
-121,60	572,00
-114,38	637,00
-107,17	680,00
-99,97	797,00
-92,78	859,00
-85,60	982,00
-78,42	1256,00
-71,25	1168,00
-64,10	1337,00
-56,95	1591,00
-49,81	1967,00
-42,67	2377,00
-35,55	2882,00
-28,43	3684,00
-21,33	6079,00
-14,23	18701,00
-7,14	55431,00
-0,05	55196,00
7,02	54914,00
14,09	55080,00
21,14	20579,00
28,19	8188,00
35,23	5169,00
42,27	3676,00
49,29	3126,00
56,31	2794,00
63,32	2293,00
70,32	1840,00
77,31	1760,00
84,29	1421,00
91,27	1348,00
98,23	1273,00
105,19	1114,00
112,14	1129,00
119,09	1815,00
126,02	2611,00
132,95	3236,00
139,87	3416,00
146,78	3390,00
153,68	3352,00
160,58	3225,00
167,46	3330,00
174,34	3285,00
181,21	3235,00
188,08	3142,00
194,93	3224,00
201,78	3182,00
208,62	3158,00
215,45	3195,00
222,27	3176,00
229,09	3208,00
235,90	3305,00
242,70	3028,00
249,49	3156,00
256,27	3165,00
263,05	3047,00
269,82	2939,00
276,58	3249,00
283,33	3157,00
290,08	2921,00
296,82	2961,00
303,55	2950,00
310,27	2913,00
316,98	2893,00
323,69	2962,00
330,39	2918,00
337,08	2750,00
343,76	2720,00
350,44	2773,00
357,11	2848,00
363,77	2810,00
370,42	2777,00
377,07	2635,00
383,71	2715,00
390,34	2631,00
396,96	2615,00
403,58	2820,00
410,19	2668,00
416,79	2807,00
423,38	2799,00
429,97	2778,00
436,55	2637,00
443,12	2500,00
449,68	2523,00
456,24	2509,00
462,79	2489,00
469,33	2621,00
475,86	2513,00
482,39	2438,00
488,91	2494,00
495,42	2577,00
501,93	2459,00
508,42	2382,00
514,91	2578,00
521,40	2429,00
527,87	2370,00
534,34	2379,00
540,80	2279,00
547,25	2358,00
553,70	2243,00
560,14	2267,00
566,57	2226,00
573,00	2340,00
579,41	2229,00
585,83	2249,00
592,23	2320,00
598,62	2285,00
605,01	2331,00
611,40	2214,00
617,77	2153,00
624,14	2175,00
630,50	2203,00
636,85	2144,00
643,20	2179,00
649,54	2219,00
655,87	2196,00
662,20	2178,00
668,52	2188,00
674,83	2058,00
681,13	2147,00
687,43	2104,00
693,72	2157,00
700,00	2177,00
706,28	2088,00
712,55	2123,00
718,81	2111,00
725,07	2096,00
731,32	2139,00
737,56	2032,00
743,79	2007,00
750,02	2041,00
756,24	2057,00
762,46	1994,00
768,67	2165,00
774,87	1989,00
781,06	2015,00
787,25	2034,00
793,43	1986,00
799,60	2122,00
805,77	1909,00
811,93	2127,00
818,08	1932,00
824,23	1948,00
830,37	1959,00
836,50	1984,00
842,63	2013,00
848,75	2017,00
854,87	1943,00
860,97	1985,00
867,07	1938,00
873,17	1952,00
879,25	1897,00
885,33	1891,00
891,41	1953,00
897,47	1965,00
903,53	1796,00
909,59	1885,00
915,63	1943,00
921,67	1905,00
927,71	1706,00
933,74	1985,00
939,76	1728,00
945,77	1763,00
951,78	1814,00
957,78	1798,00
963,78	1844,00
969,77	1840,00
975,75	1714,00
981,72	1735,00
987,69	1948,00
993,66	1853,00
999,61	1703,00
1005,56	1874,00
1011,51	1869,00
1017,44	1755,00
1023,37	1733,00
1029,30	1769,00
1035,22	1730,00
1041,13	1791,00
1047,03	1814,00
1052,93	1765,00
1058,83	1964,00
1064,71	2051,00
1070,59	1920,00
1076,47	1890,00
1082,33	1690,00
1088,20	1679,00
1094,05	1624,00
1099,90	1648,00
1105,74	1763,00
1111,58	1662,00
1117,41	1762,00
1123,23	1961,00
1129,05	1955,00
1134,86	1870,00
1140,67	1840,00
1146,47	1660,00
1152,26	1629,00
1158,05	1617,00
1163,83	1798,00
1169,60	1586,00
1175,37	1710,00
1181,13	1565,00
1186,89	1515,00
1192,64	1691,00
1198,38	1653,00
1204,12	1510,00
1209,85	1679,00
1215,58	1449,00
1221,30	1546,00
1227,02	1658,00
1232,72	1583,00
1238,43	1531,00
1244,12	1582,00
1249,81	1578,00
1255,50	1689,00
1261,17	1575,00
1266,85	1512,00
1272,51	1654,00
1278,17	1606,00
1283,83	1754,00
1289,47	1957,00
1295,12	2054,00
1300,75	2036,00
1306,38	1945,00
1312,01	1877,00
1317,63	1773,00
1323,24	1760,00
1328,85	1790,00
1334,45	1654,00
1340,04	1726,00
1345,63	1819,00
1351,22	1780,00
1356,80	1688,00
1362,37	1762,00
1367,93	1644,00
1373,49	1764,00
1379,05	1748,00
1384,60	1584,00
1390,14	1674,00
1395,68	1713,00
1401,21	1791,00
1406,74	1702,00
1412,26	1939,00
1417,77	1811,00
1423,28	1983,00
1428,78	2009,00
1434,28	2201,00
1439,77	2334,00
1445,26	2344,00
1450,74	2224,00
1456,22	2179,00
1461,68	2023,00
1467,15	1991,00
1472,61	1887,00
1478,06	1648,00
1483,51	1763,00
1488,95	1555,00
1494,38	1685,00
1499,81	1563,00
1505,24	1609,00
1510,65	1558,00
1516,07	1493,00
1521,48	1515,00
1526,88	1346,00
1532,27	1488,00
1537,67	1464,00
1543,05	1490,00
1548,43	1362,00
1553,81	1502,00
1559,18	1421,00
1564,54	1406,00
1569,90	1497,00
1575,25	1328,00
1580,60	1395,00
1585,94	1356,00
1591,28	1262,00
1596,61	1415,00
1601,93	1265,00
1607,25	1372,00
1612,57	1359,00
1617,88	1341,00
1623,18	1269,00
1628,48	1341,00
1633,77	1321,00
1639,06	1313,00
1644,34	1246,00
1649,62	1308,00
1654,89	1312,00
1660,16	1233,00
1665,42	1234,00
1670,67	1273,00
1675,92	1237,00
1681,17	1253,00
1686,41	1324,00
1691,64	1261,00
1696,87	1127,00
1702,10	1232,00
1707,32	1183,00
1712,53	1152,00
1717,74	1245,00
1722,94	1192,00
1728,14	1129,00
1733,33	1044,00
1738,52	1126,00
1743,70	1107,00
1748,88	1147,00
1754,05	1172,00
1759,22	1146,00
1764,38	1250,00
1769,53	1065,00
1774,69	1097,00
1779,83	1086,00
1784,97	964,00
1790,11	1153,00
1795,24	1020,00
1800,36	910,00
1805,48	1114,00
1810,60	1035,00
1815,71	976,00
1820,82	1046,00
1825,92	1027,00
1831,01	966,00
1836,10	1048,00
1841,19	991,00
1846,26	979,00
1851,34	855,00
1856,41	1005,00
1861,47	910,00
1866,53	839,00
1871,59	977,00
1876,64	901,00
1881,68	791,00
1886,72	913,00
1891,76	904,00
1896,79	971,00
1901,81	963,00
1906,83	950,00
1911,85	841,00
1916,86	1034,00
1921,86	902,00
1926,86	957,00
1931,86	927,00
1936,85	884,00
1941,83	938,00
1946,81	793,00
1951,79	861,00
1956,76	811,00
1961,72	844,00
1966,68	721,00
1971,64	723,00
1976,59	655,00
1981,54	854,00
1986,48	802,00
1991,42	688,00
1996,35	612,00
2001,27	789,00
2006,20	836,00
2011,11	702,00
2016,03	774,00
2020,93	777,00
2025,84	820,00
2030,73	644,00
2035,63	676,00
2040,52	775,00
2045,40	640,00
2050,28	727,00
2055,15	706,00
2060,02	757,00
2064,89	674,00
2069,75	755,00
2074,60	708,00
2079,46	694,00
2084,30	729,00
2089,14	772,00
2093,98	613,00
2098,81	798,00
2103,64	611,00
2108,46	641,00
2113,28	614,00
2118,09	660,00
2122,90	641,00
2127,70	670,00
2132,50	517,00
2137,30	695,00
2142,09	725,00
2146,87	716,00
2151,66	564,00
2156,43	674,00
2161,20	669,00
2165,97	569,00
2170,73	608,00
2175,49	541,00
2180,24	613,00
2184,99	656,00
2189,74	703,00
2194,48	649,00
2199,21	576,00
2203,94	693,00
2208,67	501,00
2213,39	496,00
2218,11	570,00
2222,82	662,00
2227,53	576,00
2232,23	641,00
2236,93	549,00
2241,63	645,00
2246,32	635,00
2251,00	613,00
2255,68	594,00
2260,36	394,00
2265,03	556,00
2269,70	605,00
2274,36	580,00
2279,02	479,00
2283,68	615,00
2288,33	387,00
2292,97	469,00
2297,61	455,00
2302,25	540,00
2306,88	618,00
2311,51	517,00
2316,14	485,00
2320,75	500,00
2325,37	526,00
2329,98	479,00
2334,59	442,00
2339,19	588,00
2343,79	477,00
2348,38	436,00
2352,97	598,00
2357,55	515,00
2362,13	393,00
2366,71	591,00
2371,28	610,00
2375,85	537,00
2380,41	574,00
2384,97	512,00
2389,52	516,00
2394,07	508,00
2398,62	536,00
2403,16	510,00
2407,70	577,00
2412,23	492,00
2416,76	556,00
2421,29	475,00
2425,81	495,00
2430,32	510,00
2434,84	473,00
2439,34	409,00
2443,85	455,00
2448,35	370,00
2452,84	498,00
2457,33	386,00
2461,82	387,00
2466,30	431,00
2470,78	447,00
2475,25	551,00
2479,72	409,00
2484,19	317,00
2488,65	495,00
2493,11	484,00
2497,56	525,00
2502,01	463,00
2506,46	319,00
2510,90	487,00
2515,34	466,00
2519,77	503,00
2524,20	414,00
2528,62	663,00
2533,04	421,00
2537,46	424,00
2541,87	457,00
2546,28	392,00
2550,68	566,00
2555,08	409,00
2559,48	334,00
2563,87	523,00
2568,26	393,00
2572,64	403,00
2577,02	516,00
2581,40	498,00
2585,77	249,00
2590,14	286,00
2594,50	410,00
2598,86	436,00
2603,22	372,00
2607,57	497,00
2611,92	336,00
2616,26	391,00
2620,60	490,00
2624,94	289,00
2629,27	421,00
2633,60	347,00
2637,92	403,00
2642,24	408,00
2646,56	433,00
2650,87	324,00
2655,18	406,00
2659,48	375,00
2663,78	488,00
2668,08	386,00
2672,37	321,00
2676,66	450,00
2680,95	375,00
2685,23	484,00
2689,50	313,00
2693,78	387,00
2698,05	364,00
2702,31	313,00
2706,57	262,00
2710,83	316,00
2715,08	464,00
2719,33	480,00
2723,58	427,00
2727,82	392,00
2732,06	511,00
2736,29	385,00
2740,53	418,00
2744,75	434,00
2748,97	427,00
2753,19	528,00
2757,41	485,00
2761,62	331,00
2765,83	434,00
2770,03	384,00
2774,23	439,00
2778,43	443,00
2782,62	388,00
2786,81	378,00
2791,00	408,00
2795,18	414,00
2799,35	502,00
2803,53	531,00
2807,70	341,00
2811,86	324,00
2816,03	506,00
2820,19	432,00
2824,34	563,00
2828,49	409,00
2832,64	567,00
2836,78	583,00
2840,92	745,00
2845,06	849,00
2849,19	928,00
2853,32	1031,00
2857,45	1051,00
2861,57	947,00
2865,69	907,00
2869,80	1008,00
2873,91	947,00
2878,02	977,00
2882,12	1068,00
2886,22	1103,00
2890,32	1157,00
2894,41	1039,00
2898,50	864,00
2902,58	976,00
2906,67	771,00
2910,74	810,00
2914,82	751,00
2918,89	634,00
2922,96	662,00
2927,02	753,00
2931,08	635,00
2935,13	516,00
2939,19	732,00
2943,24	529,00
2947,28	442,00
2951,32	397,00
2955,36	379,00
2959,40	426,00
2963,43	434,00
2967,46	624,00
2971,48	398,00
2975,50	443,00
2979,52	442,00
2983,53	388,00
2987,54	341,00
2991,55	383,00
2995,55	271,00
2999,55	324,00
3003,54	384,00
3007,54	229,00
3011,53	388,00
3015,51	209,00
3019,49	374,00
3023,47	273,00
3027,45	286,00
3031,42	308,00
3035,39	337,00
3039,35	243,00
3043,31	243,00
3047,27	288,00
3051,22	343,00
3055,17	195,00
3059,12	301,00
3063,06	200,00
3067,00	223,00
3070,94	309,00
3074,87	361,00
3078,80	340,00
3082,73	224,00
3086,65	287,00
3090,57	253,00
3094,49	200,00
3098,40	196,00
3102,31	248,00
3106,22	353,00
3110,12	264,00
3114,02	259,00
3117,92	291,00
3121,81	266,00
3125,70	218,00
3129,58	333,00
3133,47	138,00
3137,34	276,00
3141,22	420,00
3145,09	323,00
3148,96	237,00
3152,83	222,00
3156,69	278,00
3160,55	146,00
3164,40	253,00
3168,26	233,00
3172,10	358,00
3175,95	340,00
3179,79	224,00
3183,63	261,00
3187,47	184,00
3191,30	163,00
3195,13	221,00
3198,95	182,00
3202,78	316,00
3206,60	159,00
3210,41	214,00
3214,23	309,00
3218,03	317,00
3221,84	269,00
3225,64	1,00
3229,44	272,00
3233,24	231,00
3237,03	190,00
3240,82	176,00
3244,61	189,00
3248,39	266,00
3252,17	298,00
3255,95	179,00
3259,72	327,00
3263,49	260,00
3267,26	132,00
3271,03	112,00
3274,79	224,00
3278,54	262,00
3282,30	318,00
3286,05	146,00
3289,80	139,00
3293,54	118,00
3297,29	327,00
3301,02	351,00
3304,76	232,00
3308,49	236,00
3312,22	144,00
3315,95	234,00
3319,67	356,00
3323,39	271,00
3327,10	266,00
3330,82	271,00
3334,53	247,00
3338,24	239,00
3341,94	97,00
3345,64	289,00
3349,34	189,00
3353,03	277,00
3356,72	201,00
3360,41	242,00
3364,10	218,00
3367,78	270,00
3371,46	270,00
3375,13	219,00
3378,81	367,00
3382,48	331,00
3386,14	234,00
3389,81	307,00
3393,47	306,00
3397,12	227,00
3400,78	328,00
3404,43	210,00
3408,08	148,00
3411,72	233,00
3415,36	88,00
3419,00	303,00
3422,64	145,00
3426,27	192,00
3429,90	220,00
3433,53	331,00
3437,15	227,00
3440,77	209,00
3444,39	254,00
3448,00	174,00
3451,62	152,00
3455,22	338,00
3458,83	220,00
3462,43	189,00
3466,03	112,00
3469,63	222,00
3473,22	189,00
3476,81	157,00
3480,40	158,00
3483,99	154,00
3487,57	260,00
3491,15	205,00
3494,72	127,00
3498,29	136,00
3501,86	126,00
3505,43	230,00
3508,99	242,00
3512,56	190,00
3516,11	106,00
3519,67	236,00
3523,22	177,00
3526,77	270,00
3530,32	202,00
3533,86	154,00
3537,40	96,00
3540,94	175,00
3544,47	219,00
3548,00	177,00
3551,53	192,00
3555,06	179,00
3558,58	301,00
3562,10	207,00
3565,62	217,00
3569,13	267,00
3572,64	217,00
3576,15	96,00
3579,66	231,00
3583,16	207,00
3586,66	147,00
3590,16	209,00
3593,65	178,00
3597,14	86,00
3600,63	218,00
3604,11	183,00
3607,60	212,00
3611,08	238,00
3614,55	169,00
3618,03	145,00
3621,50	275,00
3624,97	186,00
3628,43	229,00
3631,90	202,00
3635,36	193,00
3638,81	197,00
3642,27	249,00
3645,72	41,00
3649,17	170,00
3652,61	113,00
3656,06	142,00
3659,50	178,00
3662,93	174,00
3666,37	155,00
3669,80	223,00
3673,23	169,00
3676,65	194,00
3680,08	196,00
3683,50	169,00
3686,92	168,00
3690,33	116,00
3693,74	245,00
3697,15	232,00
3700,56	164,00
3703,96	137,00
3707,36	87,00
3710,76	146,00
3714,16	95,00
3717,55	249,00
3720,94	115,00
3724,33	137,00
3727,71	46,00
3731,10	183,00
3734,48	182,00
3737,85	146,00
3741,23	201,00
3744,60	82,00
3747,97	126,00
3751,33	125,00
3754,69	118,00
3758,05	90,00
3761,41	106,00
3764,77	37,00
3768,12	74,00
3771,47	167,00
3774,82	191,00
3778,16	-5,00
3781,50	3,00
3784,84	2,00
3788,18	-2,00
>>>>>End Processed Spectral Data<<<<<
