SpectraSuite Data File
++++++++++++++++++++++++++++++++++++
Date: Wed Feb 04 16:17:45 ICT 2026
User: Administrator
Dark Spectrum Present: Yes
Reference Spectrum Present: No
Number of Sampled Component Spectra: 1
Spectrometers: MAYP113682
Integration Time (usec): 3000000 (MAYP113682)
Spectra Averaged: 1 (MAYP113682)
Boxcar Smoothing: 0 (MAYP113682)
Correct for Electrical Dark: No (MAYP113682)
Strobe/Lamp Enabled: No (MAYP113682)
Correct for Detector Non-linearity: No (MAYP113682)
Correct for Stray Light: No (MAYP113682)
Number of Pixels in Processed Spectrum: 2068
>>>>>Begin Processed Spectral Data<<<<<
-37534,58	4,00
-37414,56	-10,00
-37295,11	-7,00
-37176,24	-1,00
-37057,95	77,00
-36940,22	119,00
-36823,05	20,00
-36706,45	131,00
-36590,40	80,00
-36474,90	125,00
-36359,95	4,00
-36245,55	117,00
-36131,68	70,00
-36018,35	118,00
-35905,55	101,00
-35793,29	238,00
-35681,54	90,00
-35570,32	114,00
-35459,62	83,00
-35349,43	31,00
-35239,75	102,00
-35130,58	84,00
-35021,91	213,00
-34913,74	109,00
-34806,07	73,00
-34698,89	130,00
-34592,20	76,00
-34486,00	83,00
-34380,28	46,00
-34275,04	196,00
-34170,27	164,00
-34065,98	87,00
-33962,16	77,00
-33858,81	-13,00
-33755,92	76,00
-33653,49	3,00
-33551,52	160,00
-33450,01	121,00
-33348,94	150,00
-33248,33	131,00
-33148,16	48,00
-33048,43	39,00
-32949,14	184,00
-32850,29	84,00
-32751,87	160,00
-32653,89	161,00
-32556,33	155,00
-32459,20	-22,00
-32362,49	42,00
-32266,19	127,00
-32170,32	163,00
-32074,86	229,00
-31979,82	201,00
-31885,18	173,00
-31790,95	234,00
-31697,12	91,00
-31603,69	-10,00
-31510,67	232,00
-31418,04	185,00
-31325,80	104,00
-31233,95	176,00
-31142,49	61,00
-31051,42	149,00
-30960,73	103,00
-30870,43	140,00
-30780,50	79,00
-30690,95	78,00
-30601,77	178,00
-30512,97	90,00
-30424,53	93,00
-30336,46	41,00
-30248,76	72,00
-30161,42	91,00
-30074,44	245,00
-29987,81	180,00
-29901,55	163,00
-29815,63	170,00
-29730,07	59,00
-29644,86	234,00
-29560,00	206,00
-29475,48	34,00
-29391,30	133,00
-29307,47	107,00
-29223,97	15,00
-29140,81	133,00
-29057,99	-34,00
-28975,50	195,00
-28893,34	90,00
-28811,51	115,00
-28730,00	16,00
-28648,82	145,00
-28567,97	128,00
-28487,43	125,00
-28407,21	129,00
-28327,32	51,00
-28247,73	204,00
-28168,46	105,00
-28089,50	86,00
-28010,85	109,00
-27932,51	61,00
-27854,48	163,00
-27776,75	-15,00
-27699,32	70,00
-27622,19	53,00
-27545,37	-7,00
-27468,84	109,00
-27392,60	143,00
-27316,66	97,00
-27241,01	83,00
-27165,66	123,00
-27090,59	136,00
-27015,81	145,00
-26941,31	82,00
-26867,10	59,00
-26793,17	165,00
-26719,52	67,00
-26646,15	248,00
-26573,06	192,00
-26500,24	146,00
-26427,70	255,00
-26355,43	150,00
-26283,43	126,00
-26211,71	219,00
-26140,25	139,00
-26069,06	222,00
-25998,13	99,00
-25927,46	106,00
-25857,06	104,00
-25786,92	66,00
-25717,04	187,00
-25647,42	57,00
-25578,05	137,00
-25508,94	45,00
-25440,09	164,00
-25371,48	91,00
-25303,13	42,00
-25235,02	138,00
-25167,17	144,00
-25099,56	15,00
-25032,19	163,00
-24965,07	51,00
-24898,20	176,00
-24831,56	235,00
-24765,17	166,00
-24699,01	79,00
-24633,10	48,00
-24567,41	61,00
-24501,97	-2,00
-24436,75	123,00
-24371,77	147,00
-24307,03	88,00
-24242,51	161,00
-24178,22	68,00
-24114,16	85,00
-24050,32	253,00
-23986,71	77,00
-23923,32	61,00
-23860,16	137,00
-23797,22	210,00
-23734,50	90,00
-23672,00	-27,00
-23609,71	181,00
-23547,65	37,00
-23485,80	177,00
-23424,16	131,00
-23362,74	97,00
-23301,53	150,00
-23240,54	135,00
-23179,75	42,00
-23119,17	154,00
-23058,80	246,00
-22998,64	106,00
-22938,68	104,00
-22878,93	34,00
-22819,39	86,00
-22760,04	159,00
-22700,90	82,00
-22641,96	75,00
-22583,22	303,00
-22524,68	180,00
-22466,33	153,00
-22408,19	134,00
-22350,23	168,00
-22292,48	180,00
-22234,92	88,00
-22177,55	114,00
-22120,37	157,00
-22063,38	80,00
-22006,58	5,00
-21949,98	159,00
-21893,56	130,00
-21837,33	87,00
-21781,28	214,00
-21725,42	179,00
-21669,74	135,00
-21614,25	-5,00
-21558,94	36,00
-21503,81	34,00
-21448,86	107,00
-21394,10	52,00
-21339,51	151,00
-21285,10	102,00
-21230,86	172,00
-21176,81	109,00
-21122,93	57,00
-21069,22	169,00
-21015,69	168,00
-20962,33	104,00
-20909,14	106,00
-20856,13	-9,00
-20803,28	205,00
-20750,61	40,00
-20698,10	76,00
-20645,76	37,00
-20593,59	-21,00
-20541,59	26,00
-20489,75	183,00
-20438,07	35,00
-20386,56	118,00
-20335,22	82,00
-20284,03	201,00
-20233,01	103,00
-20182,15	5,00
-20131,45	54,00
-20080,91	111,00
-20030,52	52,00
-19980,30	116,00
-19930,23	89,00
-19880,32	157,00
-19830,56	67,00
-19780,96	119,00
-19731,52	91,00
-19682,23	119,00
-19633,09	72,00
-19584,10	92,00
-19535,26	254,00
-19486,58	137,00
-19438,04	169,00
-19389,66	128,00
-19341,42	111,00
-19293,33	105,00
-19245,39	86,00
-19197,60	100,00
-19149,95	143,00
-19102,45	94,00
-19055,09	130,00
-19007,87	105,00
-18960,80	74,00
-18913,87	116,00
-18867,09	142,00
-18820,44	118,00
-18773,94	88,00
-18727,57	-27,00
-18681,35	96,00
-18635,26	152,00
-18589,31	65,00
-18543,50	83,00
-18497,83	115,00
-18452,29	32,00
-18406,89	8,00
-18361,63	191,00
-18316,50	164,00
-18271,50	78,00
-18226,63	111,00
-18181,90	111,00
-18137,30	82,00
-18092,84	152,00
-18048,50	100,00
-18004,29	39,00
-17960,22	52,00
-17916,27	180,00
-17872,45	147,00
-17828,76	130,00
-17785,20	171,00
-17741,77	197,00
-17698,46	110,00
-17655,28	110,00
-17612,22	78,00
-17569,29	94,00
-17526,48	126,00
-17483,79	135,00
-17441,23	76,00
-17398,79	51,00
-17356,48	136,00
-17314,28	60,00
-17272,21	112,00
-17230,26	99,00
-17188,42	260,00
-17146,71	157,00
-17105,12	126,00
-17063,64	82,00
-17022,28	132,00
-16981,04	218,00
-16939,92	112,00
-16898,91	-23,00
-16858,02	69,00
-16817,25	154,00
-16776,59	144,00
-16736,04	67,00
-16695,61	170,00
-16655,29	54,00
-16615,09	152,00
-16574,99	76,00
-16535,01	19,00
-16495,15	87,00
-16455,39	39,00
-16415,74	102,00
-16376,21	143,00
-16336,78	92,00
-16297,46	30,00
-16258,26	170,00
-16219,16	150,00
-16180,17	95,00
-16141,28	151,00
-16102,51	89,00
-16063,84	88,00
-16025,27	86,00
-15986,82	132,00
-15948,46	195,00
-15910,22	252,00
-15872,07	189,00
-15834,04	3,00
-15796,10	124,00
-15758,27	48,00
-15720,54	90,00
-15682,91	32,00
-15645,39	162,00
-15607,97	123,00
-15570,64	199,00
-15533,42	71,00
-15496,30	102,00
-15459,28	99,00
-15422,36	107,00
-15385,54	86,00
-15348,82	112,00
-15312,19	24,00
-15275,66	36,00
-15239,23	81,00
-15202,90	77,00
-15166,67	122,00
-15130,53	93,00
-15094,48	238,00
-15058,54	94,00
-15022,68	134,00
-14986,93	188,00
-14951,26	117,00
-14915,69	154,00
-14880,22	-48,00
-14844,84	85,00
-14809,55	66,00
-14774,35	189,00
-14739,25	192,00
-14704,24	146,00
-14669,32	158,00
-14634,49	193,00
-14599,75	130,00
-14565,10	1,00
-14530,55	148,00
-14496,08	40,00
-14461,70	190,00
-14427,41	120,00
-14393,21	82,00
-14359,10	143,00
-14325,07	52,00
-14291,14	74,00
-14257,29	144,00
-14223,52	147,00
-14189,85	47,00
-14156,26	99,00
-14122,76	205,00
-14089,34	140,00
-14056,01	132,00
-14022,76	67,00
-13989,60	42,00
-13956,52	-12,00
-13923,53	173,00
-13890,62	225,00
-13857,79	81,00
-13825,05	111,00
-13792,39	169,00
-13759,81	-7,00
-13727,31	26,00
-13694,90	153,00
-13662,57	85,00
-13630,31	119,00
-13598,14	148,00
-13566,05	177,00
-13534,05	191,00
-13502,12	91,00
-13470,27	87,00
-13438,50	111,00
-13406,80	111,00
-13375,19	108,00
-13343,66	43,00
-13312,20	143,00
-13280,83	154,00
-13249,53	57,00
-13218,30	23,00
-13187,16	178,00
-13156,09	175,00
-13125,10	49,00
-13094,18	183,00
-13063,34	-10,00
-13032,58	44,00
-13001,89	158,00
-12971,28	87,00
-12940,74	114,00
-12910,27	167,00
-12879,88	175,00
-12849,57	139,00
-12819,33	129,00
-12789,16	129,00
-12759,06	143,00
-12729,04	193,00
-12699,09	1169,00
-12669,21	93,00
-12639,41	62,00
-12609,68	141,00
-12580,02	69,00
-12550,43	177,00
-12520,91	249,00
-12491,46	82,00
-12462,08	174,00
-12432,77	93,00
-12403,54	144,00
-12374,37	137,00
-12345,27	101,00
-12316,24	185,00
-12287,29	168,00
-12258,40	131,00
-12229,57	143,00
-12200,82	162,00
-12172,14	-51,00
-12143,52	84,00
-12114,97	193,00
-12086,49	93,00
-12058,07	170,00
-12029,73	124,00
-12001,44	124,00
-11973,23	105,00
-11945,08	127,00
-11917,00	137,00
-11888,98	149,00
-11861,03	82,00
-11833,15	164,00
-11805,32	169,00
-11777,57	79,00
-11749,88	253,00
-11722,25	54,00
-11694,69	120,00
-11667,19	85,00
-11639,75	-26,00
-11612,38	124,00
-11585,07	117,00
-11557,83	119,00
-11530,65	146,00
-11503,53	152,00
-11476,47	123,00
-11449,48	100,00
-11422,54	185,00
-11395,67	-2,00
-11368,86	153,00
-11342,11	147,00
-11315,43	130,00
-11288,80	59,00
-11262,23	220,00
-11235,73	110,00
-11209,28	220,00
-11182,90	76,00
-11156,57	107,00
-11130,31	52,00
-11104,10	69,00
-11077,96	152,00
-11051,87	71,00
-11025,84	152,00
-10999,87	21,00
-10973,96	217,00
-10948,11	134,00
-10922,31	26,00
-10896,58	52,00
-10870,90	268,00
-10845,28	82,00
-10819,71	126,00
-10794,20	154,00
-10768,75	170,00
-10743,36	114,00
-10718,02	152,00
-10692,74	205,00
-10667,52	144,00
-10642,35	118,00
-10617,24	64,00
-10592,18	166,00
-10567,18	159,00
-10542,23	196,00
-10517,34	94,00
-10492,51	167,00
-10467,72	88,00
-10443,00	244,00
-10418,32	64,00
-10393,70	242,00
-10369,14	85,00
-10344,63	269,00
-10320,17	176,00
-10295,77	182,00
-10271,42	190,00
-10247,12	214,00
-10222,88	181,00
-10198,68	202,00
-10174,54	245,00
-10150,46	160,00
-10126,42	283,00
-10102,44	274,00
-10078,51	165,00
-10054,63	245,00
-10030,80	292,00
-10007,03	313,00
-9983,30	334,00
-9959,63	345,00
-9936,01	361,00
-9912,44	126,00
-9888,92	312,00
-9865,44	365,00
-9842,02	245,00
-9818,65	331,00
-9795,33	343,00
-9772,06	233,00
-9748,84	208,00
-9725,67	388,00
-9702,55	449,00
-9679,47	498,00
-9656,45	617,00
-9633,47	610,00
-9610,55	571,00
-9587,67	680,00
-9564,84	606,00
-9542,06	764,00
-9519,32	895,00
-9496,64	807,00
-9474,00	1009,00
-9451,41	1004,00
-9428,87	1063,00
-9406,37	1042,00
-9383,92	904,00
-9361,52	947,00
-9339,17	904,00
-9316,86	1139,00
-9294,60	1266,00
-9272,38	1501,00
-9250,21	1741,00
-9228,09	1750,00
-9206,01	1531,00
-9183,98	1452,00
-9162,00	1363,00
-9140,06	1282,00
-9118,16	1483,00
-9096,31	1448,00
-9074,51	1584,00
-9052,75	1503,00
-9031,04	1467,00
-9009,37	1225,00
-8987,74	1115,00
-8966,16	952,00
-8944,63	921,00
-8923,14	907,00
-8901,69	992,00
-8880,29	1000,00
-8858,93	1162,00
-8837,61	1251,00
-8816,34	1365,00
-8795,11	1472,00
-8773,92	1273,00
-8752,78	1168,00
-8731,68	942,00
-8710,62	1109,00
-8689,61	1134,00
-8668,63	1164,00
-8647,70	1299,00
-8626,82	1379,00
-8605,97	1297,00
-8585,17	1118,00
-8564,41	910,00
-8543,69	971,00
-8523,01	901,00
-8502,37	1014,00
-8481,78	1033,00
-8461,23	1229,00
-8440,71	1170,00
-8420,24	1346,00
-8399,81	1394,00
-8379,42	1226,00
-8359,08	1216,00
-8338,77	1113,00
-8318,50	997,00
-8298,27	1029,00
-8278,09	1105,00
-8257,94	1141,00
-8237,83	1337,00
-8217,76	1236,00
-8197,74	1306,00
-8177,75	1286,00
-8157,80	1177,00
-8137,89	1056,00
-8118,02	1002,00
-8098,19	960,00
-8078,40	1029,00
-8058,65	1194,00
-8038,93	1031,00
-8019,26	1094,00
-7999,62	1042,00
-7980,02	940,00
-7960,46	831,00
-7940,94	774,00
-7921,46	879,00
-7902,01	901,00
-7882,60	898,00
-7863,23	932,00
-7843,90	892,00
-7824,61	961,00
-7805,35	1004,00
-7786,13	898,00
-7766,95	1012,00
-7747,80	917,00
-7728,69	930,00
-7709,62	986,00
-7690,59	961,00
-7671,59	1032,00
-7652,63	1048,00
-7633,70	1003,00
-7614,81	1021,00
-7595,96	984,00
-7577,15	883,00
-7558,37	911,00
-7539,62	887,00
-7520,91	940,00
-7502,24	998,00
-7483,60	969,00
-7465,00	922,00
-7446,44	934,00
-7427,91	705,00
-7409,41	706,00
-7390,95	719,00
-7372,53	573,00
-7354,14	611,00
-7335,78	677,00
-7317,46	724,00
-7299,18	754,00
-7280,92	908,00
-7262,71	890,00
-7244,52	987,00
-7226,38	967,00
-7208,26	952,00
-7190,18	843,00
-7172,14	714,00
-7154,12	857,00
-7136,15	865,00
-7118,20	988,00
-7100,29	956,00
-7082,41	931,00
-7064,57	802,00
-7046,76	868,00
-7028,98	681,00
-7011,24	669,00
-6993,53	496,00
-6975,85	447,00
-6958,20	435,00
-6940,59	317,00
-6923,01	364,00
-6905,46	474,00
-6887,94	696,00
-6870,46	1282,00
-6853,01	938,00
-6835,59	884,00
-6818,21	820,00
-6800,85	673,00
-6783,53	497,00
-6766,24	363,00
-6748,98	298,00
-6731,76	137,00
-6714,56	277,00
-6697,40	234,00
-6680,26	372,00
-6663,16	552,00
-6646,09	532,00
-6629,05	577,00
-6612,05	656,00
-6595,07	597,00
-6578,13	583,00
-6561,21	470,00
-6544,33	462,00
-6527,47	217,00
-6510,65	151,00
-6493,86	236,00
-6477,10	183,00
-6460,36	299,00
-6443,66	269,00
-6426,99	215,00
-6410,35	363,00
-6393,74	327,00
-6377,16	357,00
-6360,61	527,00
-6344,09	297,00
-6327,59	319,00
-6311,13	472,00
-6294,70	514,00
-6278,29	641,00
-6261,92	568,00
-6245,58	678,00
-6229,26	624,00
-6212,97	466,00
-6196,72	339,00
-6180,49	434,00
-6164,29	155,00
-6148,12	167,00
-6131,98	92,00
-6115,86	69,00
-6099,78	117,00
-6083,72	-64,00
-6067,69	210,00
-6051,69	186,00
-6035,72	166,00
-6019,78	141,00
-6003,87	263,00
-5987,98	397,00
-5972,12	463,00
-5956,29	522,00
-5940,49	398,00
-5924,71	352,00
-5908,96	263,00
-5893,24	159,00
-5877,55	255,00
-5861,89	193,00
-5846,25	199,00
-5830,64	208,00
-5815,05	185,00
-5799,50	169,00
-5783,97	366,00
-5768,47	347,00
-5752,99	443,00
-5737,55	424,00
-5722,12	389,00
-5706,73	310,00
-5691,36	345,00
-5676,02	247,00
-5660,71	99,00
-5645,42	130,00
-5630,16	214,00
-5614,92	325,00
-5599,71	299,00
-5584,53	303,00
-5569,37	298,00
-5554,24	405,00
-5539,14	318,00
-5524,06	291,00
-5509,01	283,00
-5493,98	297,00
-5478,98	317,00
-5464,00	181,00
-5449,05	223,00
-5434,13	289,00
-5419,23	210,00
-5404,36	165,00
-5389,51	322,00
-5374,69	322,00
-5359,89	533,00
-5345,12	472,00
-5330,37	452,00
-5315,65	417,00
-5300,95	340,00
-5286,28	295,00
-5271,63	307,00
-5257,01	267,00
-5242,41	225,00
-5227,84	284,00
-5213,29	160,00
-5198,76	203,00
-5184,26	224,00
-5169,79	231,00
-5155,33	276,00
-5140,91	255,00
-5126,51	333,00
-5112,13	361,00
-5097,77	410,00
-5083,44	224,00
-5069,13	172,00
-5054,85	168,00
-5040,59	213,00
-5026,36	355,00
-5012,15	265,00
-4997,96	227,00
-4983,80	309,00
-4969,66	178,00
-4955,54	289,00
-4941,44	177,00
-4927,37	370,00
-4913,33	430,00
-4899,30	628,00
-4885,30	503,00
-4871,33	474,00
-4857,37	252,00
-4843,44	201,00
-4829,53	201,00
-4815,65	131,00
-4801,79	239,00
-4787,95	171,00
-4774,13	221,00
-4760,34	235,00
-4746,56	205,00
-4732,82	248,00
-4719,09	318,00
-4705,38	279,00
-4691,70	517,00
-4678,04	503,00
-4664,41	378,00
-4650,79	378,00
-4637,20	357,00
-4623,63	166,00
-4610,08	329,00
-4596,56	412,00
-4583,05	316,00
-4569,57	263,00
-4556,11	132,00
-4542,67	167,00
-4529,25	197,00
-4515,86	184,00
-4502,49	343,00
-4489,13	356,00
-4475,80	410,00
-4462,49	302,00
-4449,21	309,00
-4435,94	87,00
-4422,70	229,00
-4409,47	282,00
-4396,27	285,00
-4383,09	208,00
-4369,93	237,00
-4356,79	155,00
-4343,67	190,00
-4330,58	154,00
-4317,50	234,00
-4304,45	170,00
-4291,41	225,00
-4278,40	265,00
-4265,41	220,00
-4252,44	338,00
-4239,49	230,00
-4226,55	305,00
-4213,65	202,00
-4200,76	234,00
-4187,89	73,00
-4175,04	224,00
-4162,21	185,00
-4149,40	123,00
-4136,61	46,00
-4123,85	227,00
-4111,10	53,00
-4098,37	108,00
-4085,66	130,00
-4072,98	240,00
-4060,31	118,00
-4047,66	193,00
-4035,04	79,00
-4022,43	193,00
-4009,84	193,00
-3997,27	111,00
-3984,72	14,00
-3972,19	67,00
-3959,69	166,00
-3947,20	61,00
-3934,73	128,00
-3922,27	68,00
-3909,84	154,00
-3897,43	103,00
-3885,04	132,00
-3872,67	93,00
-3860,31	134,00
-3847,98	79,00
-3835,66	166,00
-3823,36	182,00
-3811,09	55,00
-3798,83	188,00
-3786,59	144,00
-3774,37	59,00
-3762,17	68,00
-3749,98	98,00
-3737,82	154,00
-3725,67	214,00
-3713,55	131,00
-3701,44	114,00
-3689,35	118,00
-3677,28	136,00
-3665,22	150,00
-3653,19	231,00
-3641,17	71,00
-3629,18	102,00
-3617,20	139,00
-3605,24	137,00
-3593,30	168,00
-3581,37	3,00
-3569,47	200,00
-3557,58	92,00
-3545,71	149,00
-3533,86	73,00
-3522,02	143,00
-3510,21	154,00
-3498,41	124,00
-3486,63	173,00
-3474,87	96,00
-3463,12	152,00
-3451,40	78,00
-3439,69	98,00
-3428,00	60,00
-3416,33	137,00
-3404,67	124,00
-3393,03	204,00
-3381,41	189,00
-3369,81	134,00
-3358,22	116,00
-3346,66	153,00
-3335,10	228,00
-3323,57	94,00
-3312,06	6,00
-3300,56	-20,00
-3289,08	150,00
-3277,61	69,00
-3266,16	158,00
-3254,73	179,00
-3243,32	138,00
-3231,92	26,00
-3220,55	38,00
-3209,18	104,00
-3197,84	168,00
-3186,51	77,00
-3175,20	90,00
-3163,90	56,00
-3152,63	-10,00
-3141,36	112,00
-3130,12	232,00
-3118,89	59,00
-3107,68	89,00
-3096,49	85,00
-3085,31	65,00
-3074,15	123,00
-3063,00	165,00
-3051,87	167,00
-3040,76	144,00
-3029,67	14,00
-3018,59	302,00
-3007,52	207,00
-2996,48	32,00
-2985,44	124,00
-2974,43	170,00
-2963,43	83,00
-2952,45	170,00
-2941,48	104,00
-2930,53	50,00
-2919,60	53,00
-2908,68	84,00
-2897,78	243,00
-2886,89	100,00
-2876,02	75,00
-2865,17	137,00
-2854,33	137,00
-2843,50	192,00
-2832,70	154,00
-2821,90	82,00
-2811,13	118,00
-2800,37	159,00
-2789,62	85,00
-2778,89	136,00
-2768,18	21,00
-2757,48	43,00
-2746,80	218,00
-2736,13	181,00
-2725,48	134,00
-2714,84	18,00
-2704,22	132,00
-2693,61	31,00
-2683,02	209,00
-2672,45	129,00
-2661,89	103,00
-2651,34	96,00
-2640,81	81,00
-2630,30	100,00
-2619,80	73,00
-2609,31	62,00
-2598,84	198,00
-2588,39	219,00
-2577,95	94,00
-2567,52	76,00
-2557,11	92,00
-2546,71	179,00
-2536,33	226,00
-2525,97	162,00
-2515,62	188,00
-2505,28	74,00
-2494,96	97,00
-2484,65	125,00
-2474,36	77,00
-2464,08	152,00
-2453,82	162,00
-2443,57	138,00
-2433,33	199,00
-2423,11	64,00
-2412,91	217,00
-2402,72	99,00
-2392,54	24,00
-2382,38	79,00
-2372,23	125,00
-2362,09	-4076,00
-2351,97	46,00
-2341,87	71,00
-2331,78	33,00
-2321,70	114,00
-2311,64	1,00
-2301,59	141,00
-2291,55	209,00
-2281,53	187,00
-2271,53	188,00
-2261,53	160,00
-2251,55	22,00
-2241,59	232,00
-2231,64	107,00
-2221,70	111,00
-2211,78	221,00
-2201,87	250,00
-2191,97	180,00
-2182,09	140,00
-2172,22	111,00
-2162,37	117,00
-2152,53	41,00
-2142,70	170,00
-2132,89	151,00
-2123,09	230,00
-2113,30	60,00
-2103,53	52,00
-2093,77	74,00
-2084,02	107,00
-2074,29	163,00
-2064,57	145,00
-2054,86	170,00
-2045,17	52,00
-2035,49	126,00
-2025,82	91,00
-2016,17	89,00
-2006,53	76,00
-1996,91	42,00
-1987,29	161,00
-1977,69	151,00
-1968,11	82,00
-1958,53	70,00
-1948,97	138,00
-1939,42	164,00
-1929,89	99,00
-1920,37	148,00
-1910,86	100,00
-1901,36	102,00
-1891,88	189,00
-1882,41	40,00
-1872,95	122,00
-1863,51	96,00
-1854,08	325,00
-1844,66	66,00
-1835,26	-5,00
-1825,86	3,00
-1816,48	195,00
-1807,11	85,00
-1797,76	-4,00
-1788,42	27,00
-1779,09	76,00
-1769,77	220,00
-1760,47	101,00
-1751,17	20,00
-1741,89	81,00
-1732,63	189,00
-1723,37	247,00
-1714,13	169,00
-1704,90	166,00
-1695,68	71,00
-1686,48	142,00
-1677,29	91,00
-1668,11	171,00
-1658,94	163,00
-1649,78	115,00
-1640,64	72,00
-1631,51	133,00
-1622,39	88,00
-1613,28	49,00
-1604,19	141,00
-1595,10	14,00
-1586,03	107,00
-1576,97	162,00
-1567,93	143,00
-1558,89	18,00
-1549,87	68,00
-1540,86	62,00
-1531,86	106,00
-1522,87	99,00
-1513,90	84,00
-1504,93	58,00
-1495,98	50,00
-1487,04	143,00
-1478,12	-35,00
-1469,20	216,00
-1460,30	25,00
-1451,40	106,00
-1442,52	155,00
-1433,65	97,00
-1424,80	51,00
-1415,95	-18,00
-1407,12	15,00
-1398,30	71,00
-1389,48	82,00
-1380,69	115,00
-1371,90	91,00
-1363,12	111,00
-1354,36	95,00
-1345,60	248,00
-1336,86	44,00
-1328,13	162,00
-1319,41	49,00
-1310,70	-37,00
-1302,01	61,00
-1293,32	109,00
-1284,65	178,00
-1275,99	69,00
-1267,33	169,00
-1258,69	115,00
-1250,06	222,00
-1241,45	98,00
-1232,84	205,00
-1224,25	176,00
-1215,66	31,00
-1207,09	114,00
-1198,53	169,00
-1189,97	16,00
-1181,43	122,00
-1172,91	131,00
-1164,39	243,00
-1155,88	128,00
-1147,38	199,00
-1138,90	48,00
-1130,43	-11,00
-1121,96	27,00
-1113,51	103,00
-1105,07	67,00
-1096,64	231,00
-1088,22	94,00
-1079,81	236,00
-1071,41	8,00
-1063,02	177,00
-1054,65	53,00
-1046,28	173,00
-1037,92	155,00
-1029,58	146,00
-1021,24	197,00
-1012,92	220,00
-1004,61	120,00
-996,30	199,00
-988,01	99,00
-979,73	100,00
-971,46	160,00
-963,20	29,00
-954,95	11,00
-946,71	63,00
-938,48	100,00
-930,26	141,00
-922,06	106,00
-913,86	171,00
-905,67	76,00
-897,49	108,00
-889,33	74,00
-881,17	354,00
-873,02	166,00
-864,89	46,00
-856,76	69,00
-848,65	115,00
-840,54	88,00
-832,45	84,00
-824,36	-8,00
-816,29	114,00
-808,22	126,00
-800,17	103,00
-792,12	81,00
-784,09	248,00
-776,06	97,00
-768,05	127,00
-760,04	103,00
-752,05	103,00
-744,07	185,00
-736,09	245,00
-728,13	62,00
-720,17	169,00
-712,23	-21,00
-704,29	97,00
-696,37	149,00
-688,45	228,00
-680,55	276,00
-672,65	110,00
-664,77	177,00
-656,89	225,00
-649,03	76,00
-641,17	142,00
-633,32	188,00
-625,49	49,00
-617,66	163,00
-609,84	74,00
-602,03	201,00
-594,23	198,00
-586,45	118,00
-578,67	56,00
-570,90	57,00
-563,14	142,00
-555,39	79,00
-547,65	140,00
-539,91	120,00
-532,19	89,00
-524,48	-28,00
-516,78	96,00
-509,08	12,00
-501,40	229,00
-493,72	188,00
-486,06	93,00
-478,40	124,00
-470,76	52,00
-463,12	0,00
-455,49	167,00
-447,87	52,00
-440,26	162,00
-432,66	124,00
-425,07	23,00
-417,49	128,00
-409,92	170,00
-402,35	32,00
-394,80	192,00
-387,25	115,00
-379,72	121,00
-372,19	144,00
-364,67	171,00
-357,17	206,00
-349,67	141,00
-342,18	136,00
-334,69	358,00
-327,22	160,00
-319,76	40,00
-312,30	108,00
-304,86	158,00
-297,42	84,00
-290,00	66,00
-282,58	195,00
-275,17	148,00
-267,77	107,00
-260,37	138,00
-252,99	193,00
-245,62	170,00
-238,25	202,00
-230,90	95,00
-223,55	299,00
-216,21	263,00
-208,88	323,00
-201,56	203,00
-194,25	249,00
-186,94	288,00
-179,65	367,00
-172,36	212,00
-165,08	330,00
-157,81	468,00
-150,55	411,00
-143,30	429,00
-136,06	493,00
-128,82	508,00
-121,60	554,00
-114,38	678,00
-107,17	656,00
-99,97	720,00
-92,78	861,00
-85,60	925,00
-78,42	1212,00
-71,25	1256,00
-64,10	1460,00
-56,95	1726,00
-49,81	2031,00
-42,67	2480,00
-35,55	2944,00
-28,43	3884,00
-21,33	6525,00
-14,23	20383,00
-7,14	55431,00
-0,05	55196,00
7,02	54914,00
14,09	55080,00
21,14	21818,00
28,19	8629,00
35,23	5367,00
42,27	3874,00
49,29	3382,00
56,31	2748,00
63,32	2354,00
70,32	1920,00
77,31	1737,00
84,29	1480,00
91,27	1305,00
98,23	1313,00
105,19	1215,00
112,14	1233,00
119,09	1776,00
126,02	2538,00
132,95	3130,00
139,87	3269,00
146,78	3338,00
153,68	3230,00
160,58	3132,00
167,46	3189,00
174,34	3046,00
181,21	3127,00
188,08	3127,00
194,93	3162,00
201,78	3020,00
208,62	3182,00
215,45	3069,00
222,27	3097,00
229,09	2981,00
235,90	3021,00
242,70	2906,00
249,49	2893,00
256,27	2972,00
263,05	3000,00
269,82	2867,00
276,58	3004,00
283,33	2954,00
290,08	2757,00
296,82	2772,00
303,55	2858,00
310,27	2862,00
316,98	2759,00
323,69	2843,00
330,39	2768,00
337,08	2772,00
343,76	2683,00
350,44	2749,00
357,11	2709,00
363,77	2683,00
370,42	2559,00
377,07	2612,00
383,71	2463,00
390,34	2519,00
396,96	2624,00
403,58	2538,00
410,19	2689,00
416,79	2715,00
423,38	2758,00
429,97	2613,00
436,55	2466,00
443,12	2455,00
449,68	2413,00
456,24	2526,00
462,79	2306,00
469,33	2428,00
475,86	2436,00
482,39	2323,00
488,91	2480,00
495,42	2405,00
501,93	2307,00
508,42	2260,00
514,91	2402,00
521,40	2385,00
527,87	2337,00
534,34	2208,00
540,80	2334,00
547,25	2387,00
553,70	2262,00
560,14	2173,00
566,57	2267,00
573,00	2218,00
579,41	2189,00
585,83	2275,00
592,23	2188,00
598,62	2177,00
605,01	2281,00
611,40	2125,00
617,77	2126,00
624,14	2022,00
630,50	2109,00
636,85	2021,00
643,20	2015,00
649,54	2078,00
655,87	2092,00
662,20	2088,00
668,52	2223,00
674,83	1899,00
681,13	2030,00
687,43	2019,00
693,72	2037,00
700,00	2105,00
706,28	1985,00
712,55	1968,00
718,81	1972,00
725,07	1949,00
731,32	2030,00
737,56	2024,00
743,79	2010,00
750,02	1988,00
756,24	1951,00
762,46	2034,00
768,67	1980,00
774,87	1882,00
781,06	1943,00
787,25	1991,00
793,43	1930,00
799,60	2029,00
805,77	1846,00
811,93	2029,00
818,08	1979,00
824,23	1846,00
830,37	1994,00
836,50	1897,00
842,63	1922,00
848,75	2006,00
854,87	1837,00
860,97	2038,00
867,07	1916,00
873,17	1899,00
879,25	1822,00
885,33	1835,00
891,41	1840,00
897,47	1910,00
903,53	1762,00
909,59	1696,00
915,63	1909,00
921,67	1792,00
927,71	1741,00
933,74	1810,00
939,76	1719,00
945,77	1636,00
951,78	1811,00
957,78	1782,00
963,78	1703,00
969,77	1841,00
975,75	1659,00
981,72	1660,00
987,69	1723,00
993,66	1747,00
999,61	1671,00
1005,56	1829,00
1011,51	1831,00
1017,44	1787,00
1023,37	1734,00
1029,30	1781,00
1035,22	1724,00
1041,13	1775,00
1047,03	1821,00
1052,93	1821,00
1058,83	2002,00
1064,71	2133,00
1070,59	1892,00
1076,47	1837,00
1082,33	1642,00
1088,20	1780,00
1094,05	1642,00
1099,90	1558,00
1105,74	1755,00
1111,58	1706,00
1117,41	1745,00
1123,23	1835,00
1129,05	1848,00
1134,86	1939,00
1140,67	1891,00
1146,47	1617,00
1152,26	1588,00
1158,05	1609,00
1163,83	1676,00
1169,60	1633,00
1175,37	1457,00
1181,13	1557,00
1186,89	1489,00
1192,64	1618,00
1198,38	1544,00
1204,12	1432,00
1209,85	1427,00
1215,58	1453,00
1221,30	1505,00
1227,02	1702,00
1232,72	1397,00
1238,43	1406,00
1244,12	1440,00
1249,81	1622,00
1255,50	1548,00
1261,17	1639,00
1266,85	1518,00
1272,51	1633,00
1278,17	1641,00
1283,83	1790,00
1289,47	1816,00
1295,12	2199,00
1300,75	2069,00
1306,38	1912,00
1312,01	1823,00
1317,63	1845,00
1323,24	1743,00
1328,85	1698,00
1334,45	1692,00
1340,04	1688,00
1345,63	1776,00
1351,22	1752,00
1356,80	1739,00
1362,37	1621,00
1367,93	1654,00
1373,49	1712,00
1379,05	1753,00
1384,60	1611,00
1390,14	1724,00
1395,68	1675,00
1401,21	1680,00
1406,74	1656,00
1412,26	1854,00
1417,77	1884,00
1423,28	2055,00
1428,78	2065,00
1434,28	2238,00
1439,77	2345,00
1445,26	2407,00
1450,74	2216,00
1456,22	2095,00
1461,68	1976,00
1467,15	1894,00
1472,61	1860,00
1478,06	1618,00
1483,51	1733,00
1488,95	1475,00
1494,38	1652,00
1499,81	1493,00
1505,24	1390,00
1510,65	1407,00
1516,07	1445,00
1521,48	1395,00
1526,88	1331,00
1532,27	1482,00
1537,67	1478,00
1543,05	1358,00
1548,43	1353,00
1553,81	1390,00
1559,18	1381,00
1564,54	1356,00
1569,90	1463,00
1575,25	1329,00
1580,60	1303,00
1585,94	1426,00
1591,28	1275,00
1596,61	1381,00
1601,93	1165,00
1607,25	1419,00
1612,57	1287,00
1617,88	1187,00
1623,18	1327,00
1628,48	1226,00
1633,77	1168,00
1639,06	1264,00
1644,34	1285,00
1649,62	1297,00
1654,89	1163,00
1660,16	1176,00
1665,42	1141,00
1670,67	1285,00
1675,92	1155,00
1681,17	1255,00
1686,41	1233,00
1691,64	1374,00
1696,87	1096,00
1702,10	1104,00
1707,32	1097,00
1712,53	1046,00
1717,74	1085,00
1722,94	1163,00
1728,14	1129,00
1733,33	1036,00
1738,52	1042,00
1743,70	1019,00
1748,88	1090,00
1754,05	1045,00
1759,22	1057,00
1764,38	-387,00
1769,53	1053,00
1774,69	1016,00
1779,83	1046,00
1784,97	979,00
1790,11	1124,00
1795,24	923,00
1800,36	1054,00
1805,48	1079,00
1810,60	1006,00
1815,71	994,00
1820,82	985,00
1825,92	1007,00
1831,01	942,00
1836,10	840,00
1841,19	930,00
1846,26	973,00
1851,34	922,00
1856,41	1032,00
1861,47	920,00
1866,53	919,00
1871,59	907,00
1876,64	791,00
1881,68	900,00
1886,72	942,00
1891,76	839,00
1896,79	939,00
1901,81	863,00
1906,83	811,00
1911,85	834,00
1916,86	998,00
1921,86	857,00
1926,86	903,00
1931,86	857,00
1936,85	733,00
1941,83	898,00
1946,81	740,00
1951,79	662,00
1956,76	777,00
1961,72	823,00
1966,68	683,00
1971,64	751,00
1976,59	736,00
1981,54	805,00
1986,48	641,00
1991,42	644,00
1996,35	691,00
2001,27	692,00
2006,20	744,00
2011,11	565,00
2016,03	613,00
2020,93	741,00
2025,84	742,00
2030,73	708,00
2035,63	652,00
2040,52	744,00
2045,40	683,00
2050,28	653,00
2055,15	637,00
2060,02	717,00
2064,89	624,00
2069,75	678,00
2074,60	667,00
2079,46	681,00
2084,30	675,00
2089,14	683,00
2093,98	610,00
2098,81	696,00
2103,64	687,00
2108,46	678,00
2113,28	565,00
2118,09	616,00
2122,90	580,00
2127,70	661,00
2132,50	655,00
2137,30	635,00
2142,09	741,00
2146,87	649,00
2151,66	648,00
2156,43	623,00
2161,20	595,00
2165,97	561,00
2170,73	618,00
2175,49	569,00
2180,24	643,00
2184,99	600,00
2189,74	657,00
2194,48	601,00
2199,21	587,00
2203,94	689,00
2208,67	433,00
2213,39	573,00
2218,11	509,00
2222,82	606,00
2227,53	621,00
2232,23	606,00
2236,93	487,00
2241,63	532,00
2246,32	580,00
2251,00	423,00
2255,68	636,00
2260,36	462,00
2265,03	560,00
2269,70	696,00
2274,36	560,00
2279,02	475,00
2283,68	563,00
2288,33	414,00
2292,97	451,00
2297,61	431,00
2302,25	548,00
2306,88	569,00
2311,51	446,00
2316,14	523,00
2320,75	457,00
2325,37	508,00
2329,98	444,00
2334,59	352,00
2339,19	616,00
2343,79	446,00
2348,38	571,00
2352,97	545,00
2357,55	458,00
2362,13	443,00
2366,71	471,00
2371,28	478,00
2375,85	497,00
2380,41	514,00
2384,97	526,00
2389,52	390,00
2394,07	460,00
2398,62	518,00
2403,16	394,00
2407,70	484,00
2412,23	433,00
2416,76	580,00
2421,29	495,00
2425,81	519,00
2430,32	393,00
2434,84	461,00
2439,34	424,00
2443,85	367,00
2448,35	431,00
2452,84	434,00
2457,33	343,00
2461,82	297,00
2466,30	384,00
2470,78	376,00
2475,25	461,00
2479,72	344,00
2484,19	382,00
2488,65	531,00
2493,11	477,00
2497,56	472,00
2502,01	485,00
2506,46	336,00
2510,90	316,00
2515,34	398,00
2519,77	406,00
2524,20	401,00
2528,62	451,00
2533,04	431,00
2537,46	292,00
2541,87	353,00
2546,28	354,00
2550,68	434,00
2555,08	361,00
2559,48	260,00
2563,87	507,00
2568,26	289,00
2572,64	342,00
2577,02	394,00
2581,40	432,00
2585,77	289,00
2590,14	262,00
2594,50	501,00
2598,86	348,00
2603,22	343,00
2607,57	352,00
2611,92	298,00
2616,26	291,00
2620,60	458,00
2624,94	311,00
2629,27	320,00
2633,60	442,00
2637,92	345,00
2642,24	371,00
2646,56	382,00
2650,87	369,00
2655,18	296,00
2659,48	335,00
2663,78	341,00
2668,08	285,00
2672,37	339,00
2676,66	414,00
2680,95	353,00
2685,23	381,00
2689,50	329,00
2693,78	403,00
2698,05	416,00
2702,31	400,00
2706,57	250,00
2710,83	344,00
2715,08	355,00
2719,33	407,00
2723,58	428,00
2727,82	375,00
2732,06	464,00
2736,29	268,00
2740,53	436,00
2744,75	422,00
2748,97	391,00
2753,19	448,00
2757,41	388,00
2761,62	266,00
2765,83	410,00
2770,03	262,00
2774,23	483,00
2778,43	429,00
2782,62	333,00
2786,81	389,00
2791,00	297,00
2795,18	434,00
2799,35	376,00
2803,53	370,00
2807,70	404,00
2811,86	387,00
2816,03	493,00
2820,19	309,00
2824,34	519,00
2828,49	384,00
2832,64	575,00
2836,78	611,00
2840,92	782,00
2845,06	953,00
2849,19	975,00
2853,32	1194,00
2857,45	1031,00
2861,57	1111,00
2865,69	1071,00
2869,80	1058,00
2873,91	1073,00
2878,02	1047,00
2882,12	1081,00
2886,22	1223,00
2890,32	1205,00
2894,41	1102,00
2898,50	930,00
2902,58	990,00
2906,67	938,00
2910,74	826,00
2914,82	855,00
2918,89	738,00
2922,96	730,00
2927,02	748,00
2931,08	821,00
2935,13	595,00
2939,19	694,00
2943,24	586,00
2947,28	408,00
2951,32	454,00
2955,36	394,00
2959,40	494,00
2963,43	512,00
2967,46	481,00
2971,48	448,00
2975,50	461,00
2979,52	479,00
2983,53	384,00
2987,54	355,00
2991,55	305,00
2995,55	282,00
2999,55	255,00
3003,54	278,00
3007,54	262,00
3011,53	242,00
3015,51	321,00
3019,49	244,00
3023,47	216,00
3027,45	119,00
3031,42	237,00
3035,39	223,00
3039,35	201,00
3043,31	210,00
3047,27	248,00
3051,22	243,00
3055,17	132,00
3059,12	258,00
3063,06	203,00
3067,00	273,00
3070,94	236,00
3074,87	308,00
3078,80	122,00
3082,73	194,00
3086,65	311,00
3090,57	218,00
3094,49	172,00
3098,40	251,00
3102,31	169,00
3106,22	210,00
3110,12	255,00
3114,02	158,00
3117,92	256,00
3121,81	223,00
3125,70	242,00
3129,58	301,00
3133,47	107,00
3137,34	234,00
3141,22	336,00
3145,09	242,00
3148,96	181,00
3152,83	163,00
3156,69	140,00
3160,55	209,00
3164,40	219,00
3168,26	139,00
3172,10	282,00
3175,95	276,00
3179,79	247,00
3183,63	293,00
3187,47	188,00
3191,30	199,00
3195,13	178,00
3198,95	158,00
3202,78	272,00
3206,60	142,00
3210,41	171,00
3214,23	246,00
3218,03	206,00
3221,84	255,00
3225,64	68,00
3229,44	197,00
3233,24	285,00
3237,03	154,00
3240,82	227,00
3244,61	97,00
3248,39	215,00
3252,17	157,00
3255,95	118,00
3259,72	262,00
3263,49	281,00
3267,26	132,00
3271,03	167,00
3274,79	105,00
3278,54	235,00
3282,30	161,00
3286,05	257,00
3289,80	136,00
3293,54	83,00
3297,29	221,00
3301,02	295,00
3304,76	162,00
3308,49	109,00
3312,22	161,00
3315,95	229,00
3319,67	275,00
3323,39	241,00
3327,10	173,00
3330,82	172,00
3334,53	261,00
3338,24	142,00
3341,94	255,00
3345,64	247,00
3349,34	95,00
3353,03	213,00
3356,72	99,00
3360,41	94,00
3364,10	99,00
3367,78	90,00
3371,46	174,00
3375,13	152,00
3378,81	264,00
3382,48	179,00
3386,14	337,00
3389,81	192,00
3393,47	220,00
3397,12	227,00
3400,78	256,00
3404,43	133,00
3408,08	80,00
3411,72	134,00
3415,36	59,00
3419,00	83,00
3422,64	74,00
3426,27	78,00
3429,90	226,00
3433,53	212,00
3437,15	199,00
3440,77	138,00
3444,39	128,00
3448,00	193,00
3451,62	174,00
3455,22	169,00
3458,83	246,00
3462,43	181,00
3466,03	57,00
3469,63	171,00
3473,22	171,00
3476,81	45,00
3480,40	0,00
3483,99	19,00
3487,57	177,00
3491,15	175,00
3494,72	89,00
3498,29	201,00
3501,86	39,00
3505,43	171,00
3508,99	90,00
3512,56	100,00
3516,11	154,00
3519,67	70,00
3523,22	29,00
3526,77	219,00
3530,32	170,00
3533,86	99,00
3537,40	188,00
3540,94	113,00
3544,47	214,00
3548,00	181,00
3551,53	142,00
3555,06	112,00
3558,58	231,00
3562,10	221,00
3565,62	95,00
3569,13	121,00
3572,64	174,00
3576,15	113,00
3579,66	174,00
3583,16	200,00
3586,66	109,00
3590,16	57,00
3593,65	226,00
3597,14	-68,00
3600,63	169,00
3604,11	167,00
3607,60	104,00
3611,08	201,00
3614,55	44,00
3618,03	148,00
3621,50	242,00
3624,97	34,00
3628,43	186,00
3631,90	117,00
3635,36	82,00
3638,81	207,00
3642,27	73,00
3645,72	59,00
3649,17	101,00
3652,61	83,00
3656,06	117,00
3659,50	125,00
3662,93	7,00
3666,37	148,00
3669,80	35,00
3673,23	162,00
3676,65	97,00
3680,08	168,00
3683,50	84,00
3686,92	173,00
3690,33	14,00
3693,74	130,00
3697,15	190,00
3700,56	53,00
3703,96	160,00
3707,36	76,00
3710,76	51,00
3714,16	93,00
3717,55	118,00
3720,94	35,00
3724,33	64,00
3727,71	-27,00
3731,10	219,00
3734,48	160,00
3737,85	105,00
3741,23	132,00
3744,60	67,00
3747,97	168,00
3751,33	83,00
3754,69	101,00
3758,05	103,00
3761,41	37,00
3764,77	149,00
3768,12	23,00
3771,47	64,00
3774,82	114,00
3778,16	1,00
3781,50	-3,00
3784,84	-2,00
3788,18	6,00
>>>>>End Processed Spectral Data<<<<<
