SpectraSuite Data File
++++++++++++++++++++++++++++++++++++
Date: Wed Feb 04 16:23:42 ICT 2026
User: Administrator
Dark Spectrum Present: Yes
Reference Spectrum Present: No
Number of Sampled Component Spectra: 1
Spectrometers: MAYP113682
Integration Time (usec): 3000000 (MAYP113682)
Spectra Averaged: 1 (MAYP113682)
Boxcar Smoothing: 0 (MAYP113682)
Correct for Electrical Dark: No (MAYP113682)
Strobe/Lamp Enabled: No (MAYP113682)
Correct for Detector Non-linearity: No (MAYP113682)
Correct for Stray Light: No (MAYP113682)
Number of Pixels in Processed Spectrum: 2068
>>>>>Begin Processed Spectral Data<<<<<
-37534,58	3,00
-37414,56	-4,00
-37295,11	-8,00
-37176,24	3,00
-37057,95	193,00
-36940,22	210,00
-36823,05	122,00
-36706,45	141,00
-36590,40	133,00
-36474,90	151,00
-36359,95	129,00
-36245,55	153,00
-36131,68	151,00
-36018,35	227,00
-35905,55	192,00
-35793,29	266,00
-35681,54	204,00
-35570,32	202,00
-35459,62	245,00
-35349,43	153,00
-35239,75	194,00
-35130,58	94,00
-35021,91	194,00
-34913,74	148,00
-34806,07	235,00
-34698,89	247,00
-34592,20	162,00
-34486,00	154,00
-34380,28	206,00
-34275,04	244,00
-34170,27	235,00
-34065,98	119,00
-33962,16	255,00
-33858,81	44,00
-33755,92	133,00
-33653,49	48,00
-33551,52	163,00
-33450,01	246,00
-33348,94	172,00
-33248,33	221,00
-33148,16	110,00
-33048,43	166,00
-32949,14	268,00
-32850,29	223,00
-32751,87	289,00
-32653,89	70,00
-32556,33	229,00
-32459,20	38,00
-32362,49	204,00
-32266,19	92,00
-32170,32	214,00
-32074,86	225,00
-31979,82	262,00
-31885,18	210,00
-31790,95	227,00
-31697,12	195,00
-31603,69	154,00
-31510,67	211,00
-31418,04	253,00
-31325,80	187,00
-31233,95	279,00
-31142,49	196,00
-31051,42	275,00
-30960,73	186,00
-30870,43	233,00
-30780,50	199,00
-30690,95	186,00
-30601,77	231,00
-30512,97	216,00
-30424,53	245,00
-30336,46	189,00
-30248,76	113,00
-30161,42	198,00
-30074,44	166,00
-29987,81	198,00
-29901,55	138,00
-29815,63	281,00
-29730,07	185,00
-29644,86	292,00
-29560,00	240,00
-29475,48	163,00
-29391,30	181,00
-29307,47	89,00
-29223,97	181,00
-29140,81	148,00
-29057,99	163,00
-28975,50	194,00
-28893,34	193,00
-28811,51	153,00
-28730,00	113,00
-28648,82	196,00
-28567,97	124,00
-28487,43	240,00
-28407,21	135,00
-28327,32	79,00
-28247,73	323,00
-28168,46	199,00
-28089,50	239,00
-28010,85	152,00
-27932,51	175,00
-27854,48	308,00
-27776,75	170,00
-27699,32	146,00
-27622,19	227,00
-27545,37	107,00
-27468,84	139,00
-27392,60	231,00
-27316,66	211,00
-27241,01	262,00
-27165,66	311,00
-27090,59	184,00
-27015,81	237,00
-26941,31	212,00
-26867,10	196,00
-26793,17	238,00
-26719,52	226,00
-26646,15	295,00
-26573,06	268,00
-26500,24	176,00
-26427,70	297,00
-26355,43	241,00
-26283,43	261,00
-26211,71	270,00
-26140,25	151,00
-26069,06	328,00
-25998,13	212,00
-25927,46	182,00
-25857,06	266,00
-25786,92	182,00
-25717,04	260,00
-25647,42	155,00
-25578,05	178,00
-25508,94	115,00
-25440,09	194,00
-25371,48	278,00
-25303,13	197,00
-25235,02	176,00
-25167,17	170,00
-25099,56	225,00
-25032,19	301,00
-24965,07	164,00
-24898,20	212,00
-24831,56	345,00
-24765,17	238,00
-24699,01	128,00
-24633,10	94,00
-24567,41	221,00
-24501,97	177,00
-24436,75	155,00
-24371,77	217,00
-24307,03	137,00
-24242,51	223,00
-24178,22	209,00
-24114,16	215,00
-24050,32	271,00
-23986,71	210,00
-23923,32	124,00
-23860,16	132,00
-23797,22	244,00
-23734,50	218,00
-23672,00	51,00
-23609,71	208,00
-23547,65	131,00
-23485,80	197,00
-23424,16	207,00
-23362,74	111,00
-23301,53	258,00
-23240,54	299,00
-23179,75	200,00
-23119,17	214,00
-23058,80	259,00
-22998,64	216,00
-22938,68	174,00
-22878,93	202,00
-22819,39	267,00
-22760,04	211,00
-22700,90	215,00
-22641,96	158,00
-22583,22	281,00
-22524,68	332,00
-22466,33	204,00
-22408,19	198,00
-22350,23	255,00
-22292,48	245,00
-22234,92	120,00
-22177,55	195,00
-22120,37	242,00
-22063,38	244,00
-22006,58	65,00
-21949,98	207,00
-21893,56	243,00
-21837,33	204,00
-21781,28	126,00
-21725,42	185,00
-21669,74	97,00
-21614,25	111,00
-21558,94	246,00
-21503,81	131,00
-21448,86	338,00
-21394,10	178,00
-21339,51	217,00
-21285,10	169,00
-21230,86	281,00
-21176,81	127,00
-21122,93	231,00
-21069,22	199,00
-21015,69	295,00
-20962,33	176,00
-20909,14	107,00
-20856,13	74,00
-20803,28	198,00
-20750,61	164,00
-20698,10	163,00
-20645,76	144,00
-20593,59	125,00
-20541,59	174,00
-20489,75	235,00
-20438,07	93,00
-20386,56	221,00
-20335,22	198,00
-20284,03	194,00
-20233,01	219,00
-20182,15	155,00
-20131,45	214,00
-20080,91	244,00
-20030,52	63,00
-19980,30	170,00
-19930,23	227,00
-19880,32	188,00
-19830,56	196,00
-19780,96	136,00
-19731,52	219,00
-19682,23	206,00
-19633,09	270,00
-19584,10	152,00
-19535,26	289,00
-19486,58	271,00
-19438,04	257,00
-19389,66	283,00
-19341,42	240,00
-19293,33	174,00
-19245,39	312,00
-19197,60	282,00
-19149,95	280,00
-19102,45	170,00
-19055,09	172,00
-19007,87	212,00
-18960,80	170,00
-18913,87	221,00
-18867,09	278,00
-18820,44	258,00
-18773,94	229,00
-18727,57	36,00
-18681,35	266,00
-18635,26	327,00
-18589,31	144,00
-18543,50	144,00
-18497,83	267,00
-18452,29	48,00
-18406,89	124,00
-18361,63	250,00
-18316,50	196,00
-18271,50	240,00
-18226,63	100,00
-18181,90	200,00
-18137,30	43,00
-18092,84	173,00
-18048,50	255,00
-18004,29	178,00
-17960,22	213,00
-17916,27	229,00
-17872,45	202,00
-17828,76	205,00
-17785,20	196,00
-17741,77	256,00
-17698,46	227,00
-17655,28	207,00
-17612,22	218,00
-17569,29	171,00
-17526,48	204,00
-17483,79	300,00
-17441,23	198,00
-17398,79	177,00
-17356,48	129,00
-17314,28	231,00
-17272,21	162,00
-17230,26	128,00
-17188,42	228,00
-17146,71	222,00
-17105,12	124,00
-17063,64	144,00
-17022,28	201,00
-16981,04	246,00
-16939,92	226,00
-16898,91	172,00
-16858,02	151,00
-16817,25	172,00
-16776,59	217,00
-16736,04	247,00
-16695,61	182,00
-16655,29	140,00
-16615,09	177,00
-16574,99	218,00
-16535,01	169,00
-16495,15	219,00
-16455,39	86,00
-16415,74	203,00
-16376,21	76,00
-16336,78	178,00
-16297,46	252,00
-16258,26	235,00
-16219,16	199,00
-16180,17	207,00
-16141,28	216,00
-16102,51	242,00
-16063,84	110,00
-16025,27	98,00
-15986,82	268,00
-15948,46	164,00
-15910,22	311,00
-15872,07	224,00
-15834,04	122,00
-15796,10	194,00
-15758,27	124,00
-15720,54	126,00
-15682,91	163,00
-15645,39	271,00
-15607,97	215,00
-15570,64	146,00
-15533,42	201,00
-15496,30	284,00
-15459,28	286,00
-15422,36	139,00
-15385,54	193,00
-15348,82	140,00
-15312,19	235,00
-15275,66	254,00
-15239,23	153,00
-15202,90	239,00
-15166,67	115,00
-15130,53	109,00
-15094,48	335,00
-15058,54	100,00
-15022,68	176,00
-14986,93	226,00
-14951,26	127,00
-14915,69	171,00
-14880,22	95,00
-14844,84	169,00
-14809,55	137,00
-14774,35	291,00
-14739,25	152,00
-14704,24	84,00
-14669,32	261,00
-14634,49	182,00
-14599,75	343,00
-14565,10	113,00
-14530,55	200,00
-14496,08	123,00
-14461,70	159,00
-14427,41	171,00
-14393,21	152,00
-14359,10	157,00
-14325,07	179,00
-14291,14	105,00
-14257,29	216,00
-14223,52	104,00
-14189,85	179,00
-14156,26	148,00
-14122,76	171,00
-14089,34	131,00
-14056,01	243,00
-14022,76	-30,00
-13989,60	206,00
-13956,52	6,00
-13923,53	253,00
-13890,62	305,00
-13857,79	197,00
-13825,05	217,00
-13792,39	216,00
-13759,81	47,00
-13727,31	154,00
-13694,90	228,00
-13662,57	166,00
-13630,31	164,00
-13598,14	252,00
-13566,05	187,00
-13534,05	162,00
-13502,12	163,00
-13470,27	158,00
-13438,50	113,00
-13406,80	97,00
-13375,19	128,00
-13343,66	175,00
-13312,20	262,00
-13280,83	253,00
-13249,53	77,00
-13218,30	176,00
-13187,16	197,00
-13156,09	296,00
-13125,10	159,00
-13094,18	213,00
-13063,34	93,00
-13032,58	120,00
-13001,89	101,00
-12971,28	211,00
-12940,74	231,00
-12910,27	143,00
-12879,88	261,00
-12849,57	72,00
-12819,33	96,00
-12789,16	231,00
-12759,06	140,00
-12729,04	313,00
-12699,09	1203,00
-12669,21	228,00
-12639,41	223,00
-12609,68	88,00
-12580,02	102,00
-12550,43	221,00
-12520,91	152,00
-12491,46	181,00
-12462,08	281,00
-12432,77	188,00
-12403,54	108,00
-12374,37	284,00
-12345,27	147,00
-12316,24	264,00
-12287,29	180,00
-12258,40	239,00
-12229,57	150,00
-12200,82	107,00
-12172,14	28,00
-12143,52	129,00
-12114,97	285,00
-12086,49	169,00
-12058,07	340,00
-12029,73	221,00
-12001,44	356,00
-11973,23	111,00
-11945,08	267,00
-11917,00	213,00
-11888,98	138,00
-11861,03	203,00
-11833,15	114,00
-11805,32	265,00
-11777,57	283,00
-11749,88	315,00
-11722,25	116,00
-11694,69	157,00
-11667,19	156,00
-11639,75	156,00
-11612,38	184,00
-11585,07	245,00
-11557,83	83,00
-11530,65	166,00
-11503,53	217,00
-11476,47	233,00
-11449,48	219,00
-11422,54	206,00
-11395,67	129,00
-11368,86	188,00
-11342,11	130,00
-11315,43	242,00
-11288,80	102,00
-11262,23	236,00
-11235,73	237,00
-11209,28	286,00
-11182,90	167,00
-11156,57	223,00
-11130,31	200,00
-11104,10	204,00
-11077,96	330,00
-11051,87	141,00
-11025,84	253,00
-10999,87	130,00
-10973,96	304,00
-10948,11	204,00
-10922,31	174,00
-10896,58	62,00
-10870,90	249,00
-10845,28	102,00
-10819,71	137,00
-10794,20	254,00
-10768,75	250,00
-10743,36	174,00
-10718,02	173,00
-10692,74	272,00
-10667,52	253,00
-10642,35	224,00
-10617,24	233,00
-10592,18	314,00
-10567,18	208,00
-10542,23	271,00
-10517,34	227,00
-10492,51	319,00
-10467,72	240,00
-10443,00	285,00
-10418,32	225,00
-10393,70	299,00
-10369,14	208,00
-10344,63	409,00
-10320,17	288,00
-10295,77	283,00
-10271,42	259,00
-10247,12	419,00
-10222,88	302,00
-10198,68	406,00
-10174,54	253,00
-10150,46	367,00
-10126,42	292,00
-10102,44	327,00
-10078,51	427,00
-10054,63	264,00
-10030,80	386,00
-10007,03	474,00
-9983,30	574,00
-9959,63	381,00
-9936,01	558,00
-9912,44	316,00
-9888,92	385,00
-9865,44	572,00
-9842,02	298,00
-9818,65	487,00
-9795,33	449,00
-9772,06	370,00
-9748,84	487,00
-9725,67	572,00
-9702,55	591,00
-9679,47	740,00
-9656,45	853,00
-9633,47	746,00
-9610,55	978,00
-9587,67	849,00
-9564,84	942,00
-9542,06	1079,00
-9519,32	1104,00
-9496,64	1049,00
-9474,00	1344,00
-9451,41	1387,00
-9428,87	1453,00
-9406,37	1433,00
-9383,92	1140,00
-9361,52	1254,00
-9339,17	1186,00
-9316,86	1630,00
-9294,60	1773,00
-9272,38	1991,00
-9250,21	2198,00
-9228,09	2351,00
-9206,01	2177,00
-9183,98	2059,00
-9162,00	1860,00
-9140,06	1694,00
-9118,16	1817,00
-9096,31	1965,00
-9074,51	2002,00
-9052,75	2014,00
-9031,04	1973,00
-9009,37	1789,00
-8987,74	1496,00
-8966,16	1281,00
-8944,63	1132,00
-8923,14	1259,00
-8901,69	1291,00
-8880,29	1299,00
-8858,93	1502,00
-8837,61	1680,00
-8816,34	1867,00
-8795,11	1853,00
-8773,92	1791,00
-8752,78	1578,00
-8731,68	1287,00
-8710,62	1601,00
-8689,61	1524,00
-8668,63	1686,00
-8647,70	1867,00
-8626,82	1829,00
-8605,97	1844,00
-8585,17	1571,00
-8564,41	1401,00
-8543,69	1225,00
-8523,01	1252,00
-8502,37	1314,00
-8481,78	1422,00
-8461,23	1661,00
-8440,71	1642,00
-8420,24	1830,00
-8399,81	1842,00
-8379,42	1867,00
-8359,08	1691,00
-8338,77	1481,00
-8318,50	1369,00
-8298,27	1375,00
-8278,09	1484,00
-8257,94	1502,00
-8237,83	1942,00
-8217,76	1818,00
-8197,74	1814,00
-8177,75	1798,00
-8157,80	1608,00
-8137,89	1543,00
-8118,02	1446,00
-8098,19	1395,00
-8078,40	1488,00
-8058,65	1536,00
-8038,93	1474,00
-8019,26	1463,00
-7999,62	1371,00
-7980,02	1399,00
-7960,46	1274,00
-7940,94	1100,00
-7921,46	1312,00
-7902,01	1114,00
-7882,60	1171,00
-7863,23	1207,00
-7843,90	1322,00
-7824,61	1316,00
-7805,35	1400,00
-7786,13	1487,00
-7766,95	1395,00
-7747,80	1334,00
-7728,69	1303,00
-7709,62	1240,00
-7690,59	1263,00
-7671,59	1361,00
-7652,63	1391,00
-7633,70	1367,00
-7614,81	1404,00
-7595,96	1291,00
-7577,15	1237,00
-7558,37	1171,00
-7539,62	1155,00
-7520,91	1190,00
-7502,24	1405,00
-7483,60	1378,00
-7465,00	1341,00
-7446,44	1172,00
-7427,91	927,00
-7409,41	980,00
-7390,95	877,00
-7372,53	794,00
-7354,14	787,00
-7335,78	968,00
-7317,46	808,00
-7299,18	1040,00
-7280,92	1119,00
-7262,71	1291,00
-7244,52	1331,00
-7226,38	1420,00
-7208,26	1238,00
-7190,18	1102,00
-7172,14	1062,00
-7154,12	1154,00
-7136,15	1060,00
-7118,20	1165,00
-7100,29	1208,00
-7082,41	1265,00
-7064,57	1257,00
-7046,76	1079,00
-7028,98	1041,00
-7011,24	850,00
-6993,53	648,00
-6975,85	651,00
-6958,20	695,00
-6940,59	459,00
-6923,01	537,00
-6905,46	703,00
-6887,94	889,00
-6870,46	1443,00
-6853,01	1081,00
-6835,59	1109,00
-6818,21	1016,00
-6800,85	701,00
-6783,53	770,00
-6766,24	477,00
-6748,98	347,00
-6731,76	321,00
-6714,56	409,00
-6697,40	384,00
-6680,26	435,00
-6663,16	633,00
-6646,09	711,00
-6629,05	764,00
-6612,05	899,00
-6595,07	883,00
-6578,13	721,00
-6561,21	760,00
-6544,33	649,00
-6527,47	381,00
-6510,65	259,00
-6493,86	360,00
-6477,10	316,00
-6460,36	404,00
-6443,66	331,00
-6426,99	382,00
-6410,35	360,00
-6393,74	549,00
-6377,16	530,00
-6360,61	549,00
-6344,09	542,00
-6327,59	504,00
-6311,13	614,00
-6294,70	790,00
-6278,29	770,00
-6261,92	753,00
-6245,58	870,00
-6229,26	817,00
-6212,97	718,00
-6196,72	568,00
-6180,49	553,00
-6164,29	236,00
-6148,12	263,00
-6131,98	179,00
-6115,86	260,00
-6099,78	185,00
-6083,72	46,00
-6067,69	305,00
-6051,69	258,00
-6035,72	166,00
-6019,78	188,00
-6003,87	436,00
-5987,98	594,00
-5972,12	702,00
-5956,29	665,00
-5940,49	644,00
-5924,71	482,00
-5908,96	389,00
-5893,24	214,00
-5877,55	381,00
-5861,89	320,00
-5846,25	125,00
-5830,64	261,00
-5815,05	336,00
-5799,50	274,00
-5783,97	361,00
-5768,47	416,00
-5752,99	472,00
-5737,55	546,00
-5722,12	609,00
-5706,73	510,00
-5691,36	394,00
-5676,02	423,00
-5660,71	273,00
-5645,42	130,00
-5630,16	323,00
-5614,92	394,00
-5599,71	383,00
-5584,53	390,00
-5569,37	426,00
-5554,24	483,00
-5539,14	385,00
-5524,06	473,00
-5509,01	387,00
-5493,98	372,00
-5478,98	329,00
-5464,00	330,00
-5449,05	259,00
-5434,13	334,00
-5419,23	242,00
-5404,36	345,00
-5389,51	501,00
-5374,69	576,00
-5359,89	749,00
-5345,12	651,00
-5330,37	606,00
-5315,65	563,00
-5300,95	421,00
-5286,28	342,00
-5271,63	383,00
-5257,01	358,00
-5242,41	243,00
-5227,84	434,00
-5213,29	367,00
-5198,76	371,00
-5184,26	265,00
-5169,79	300,00
-5155,33	353,00
-5140,91	387,00
-5126,51	506,00
-5112,13	535,00
-5097,77	578,00
-5083,44	320,00
-5069,13	327,00
-5054,85	295,00
-5040,59	313,00
-5026,36	429,00
-5012,15	393,00
-4997,96	361,00
-4983,80	261,00
-4969,66	168,00
-4955,54	395,00
-4941,44	270,00
-4927,37	404,00
-4913,33	744,00
-4899,30	792,00
-4885,30	738,00
-4871,33	643,00
-4857,37	388,00
-4843,44	306,00
-4829,53	292,00
-4815,65	196,00
-4801,79	285,00
-4787,95	241,00
-4774,13	373,00
-4760,34	210,00
-4746,56	204,00
-4732,82	317,00
-4719,09	503,00
-4705,38	521,00
-4691,70	670,00
-4678,04	640,00
-4664,41	533,00
-4650,79	513,00
-4637,20	313,00
-4623,63	222,00
-4610,08	410,00
-4596,56	497,00
-4583,05	336,00
-4569,57	454,00
-4556,11	261,00
-4542,67	251,00
-4529,25	363,00
-4515,86	335,00
-4502,49	441,00
-4489,13	450,00
-4475,80	471,00
-4462,49	320,00
-4449,21	352,00
-4435,94	274,00
-4422,70	232,00
-4409,47	365,00
-4396,27	390,00
-4383,09	333,00
-4369,93	284,00
-4356,79	171,00
-4343,67	181,00
-4330,58	258,00
-4317,50	362,00
-4304,45	353,00
-4291,41	204,00
-4278,40	338,00
-4265,41	291,00
-4252,44	351,00
-4239,49	328,00
-4226,55	499,00
-4213,65	216,00
-4200,76	424,00
-4187,89	227,00
-4175,04	201,00
-4162,21	260,00
-4149,40	427,00
-4136,61	57,00
-4123,85	287,00
-4111,10	81,00
-4098,37	242,00
-4085,66	169,00
-4072,98	247,00
-4060,31	159,00
-4047,66	297,00
-4035,04	258,00
-4022,43	262,00
-4009,84	362,00
-3997,27	191,00
-3984,72	187,00
-3972,19	183,00
-3959,69	245,00
-3947,20	228,00
-3934,73	161,00
-3922,27	193,00
-3909,84	296,00
-3897,43	227,00
-3885,04	125,00
-3872,67	214,00
-3860,31	312,00
-3847,98	21,00
-3835,66	180,00
-3823,36	217,00
-3811,09	209,00
-3798,83	264,00
-3786,59	157,00
-3774,37	163,00
-3762,17	198,00
-3749,98	108,00
-3737,82	193,00
-3725,67	369,00
-3713,55	208,00
-3701,44	170,00
-3689,35	172,00
-3677,28	320,00
-3665,22	273,00
-3653,19	226,00
-3641,17	169,00
-3629,18	241,00
-3617,20	235,00
-3605,24	223,00
-3593,30	195,00
-3581,37	208,00
-3569,47	327,00
-3557,58	66,00
-3545,71	211,00
-3533,86	206,00
-3522,02	208,00
-3510,21	255,00
-3498,41	169,00
-3486,63	201,00
-3474,87	125,00
-3463,12	252,00
-3451,40	378,00
-3439,69	209,00
-3428,00	183,00
-3416,33	257,00
-3404,67	104,00
-3393,03	88,00
-3381,41	209,00
-3369,81	264,00
-3358,22	154,00
-3346,66	316,00
-3335,10	170,00
-3323,57	184,00
-3312,06	146,00
-3300,56	236,00
-3289,08	162,00
-3277,61	172,00
-3266,16	196,00
-3254,73	184,00
-3243,32	298,00
-3231,92	168,00
-3220,55	179,00
-3209,18	306,00
-3197,84	161,00
-3186,51	258,00
-3175,20	316,00
-3163,90	209,00
-3152,63	102,00
-3141,36	212,00
-3130,12	371,00
-3118,89	222,00
-3107,68	206,00
-3096,49	210,00
-3085,31	91,00
-3074,15	303,00
-3063,00	171,00
-3051,87	229,00
-3040,76	265,00
-3029,67	263,00
-3018,59	259,00
-3007,52	208,00
-2996,48	176,00
-2985,44	182,00
-2974,43	201,00
-2963,43	174,00
-2952,45	211,00
-2941,48	198,00
-2930,53	107,00
-2919,60	168,00
-2908,68	151,00
-2897,78	285,00
-2886,89	219,00
-2876,02	156,00
-2865,17	181,00
-2854,33	170,00
-2843,50	265,00
-2832,70	222,00
-2821,90	162,00
-2811,13	190,00
-2800,37	168,00
-2789,62	173,00
-2778,89	147,00
-2768,18	121,00
-2757,48	137,00
-2746,80	210,00
-2736,13	223,00
-2725,48	215,00
-2714,84	146,00
-2704,22	229,00
-2693,61	193,00
-2683,02	214,00
-2672,45	258,00
-2661,89	246,00
-2651,34	294,00
-2640,81	101,00
-2630,30	259,00
-2619,80	60,00
-2609,31	223,00
-2598,84	237,00
-2588,39	274,00
-2577,95	258,00
-2567,52	180,00
-2557,11	168,00
-2546,71	182,00
-2536,33	273,00
-2525,97	180,00
-2515,62	266,00
-2505,28	180,00
-2494,96	220,00
-2484,65	292,00
-2474,36	136,00
-2464,08	192,00
-2453,82	239,00
-2443,57	158,00
-2433,33	246,00
-2423,11	210,00
-2412,91	226,00
-2402,72	201,00
-2392,54	153,00
-2382,38	148,00
-2372,23	240,00
-2362,09	348,00
-2351,97	10,00
-2341,87	60,00
-2331,78	248,00
-2321,70	181,00
-2311,64	156,00
-2301,59	232,00
-2291,55	333,00
-2281,53	198,00
-2271,53	192,00
-2261,53	209,00
-2251,55	208,00
-2241,59	234,00
-2231,64	219,00
-2221,70	306,00
-2211,78	157,00
-2201,87	243,00
-2191,97	182,00
-2182,09	199,00
-2172,22	153,00
-2162,37	236,00
-2152,53	149,00
-2142,70	243,00
-2132,89	209,00
-2123,09	348,00
-2113,30	167,00
-2103,53	180,00
-2093,77	177,00
-2084,02	164,00
-2074,29	337,00
-2064,57	205,00
-2054,86	207,00
-2045,17	205,00
-2035,49	191,00
-2025,82	267,00
-2016,17	183,00
-2006,53	153,00
-1996,91	155,00
-1987,29	175,00
-1977,69	179,00
-1968,11	108,00
-1958,53	175,00
-1948,97	153,00
-1939,42	208,00
-1929,89	110,00
-1920,37	112,00
-1910,86	166,00
-1901,36	102,00
-1891,88	250,00
-1882,41	4,00
-1872,95	167,00
-1863,51	163,00
-1854,08	297,00
-1844,66	199,00
-1835,26	160,00
-1825,86	124,00
-1816,48	223,00
-1807,11	238,00
-1797,76	182,00
-1788,42	236,00
-1779,09	211,00
-1769,77	238,00
-1760,47	152,00
-1751,17	82,00
-1741,89	153,00
-1732,63	221,00
-1723,37	319,00
-1714,13	212,00
-1704,90	172,00
-1695,68	279,00
-1686,48	194,00
-1677,29	263,00
-1668,11	192,00
-1658,94	119,00
-1649,78	166,00
-1640,64	104,00
-1631,51	239,00
-1622,39	232,00
-1613,28	152,00
-1604,19	200,00
-1595,10	117,00
-1586,03	179,00
-1576,97	171,00
-1567,93	286,00
-1558,89	195,00
-1549,87	218,00
-1540,86	192,00
-1531,86	202,00
-1522,87	220,00
-1513,90	118,00
-1504,93	300,00
-1495,98	141,00
-1487,04	249,00
-1478,12	115,00
-1469,20	261,00
-1460,30	36,00
-1451,40	320,00
-1442,52	141,00
-1433,65	212,00
-1424,80	234,00
-1415,95	123,00
-1407,12	147,00
-1398,30	200,00
-1389,48	164,00
-1380,69	227,00
-1371,90	250,00
-1363,12	147,00
-1354,36	151,00
-1345,60	325,00
-1336,86	148,00
-1328,13	276,00
-1319,41	159,00
-1310,70	49,00
-1302,01	156,00
-1293,32	165,00
-1284,65	330,00
-1275,99	227,00
-1267,33	284,00
-1258,69	202,00
-1250,06	145,00
-1241,45	228,00
-1232,84	311,00
-1224,25	300,00
-1215,66	182,00
-1207,09	138,00
-1198,53	299,00
-1189,97	155,00
-1181,43	173,00
-1172,91	186,00
-1164,39	252,00
-1155,88	197,00
-1147,38	196,00
-1138,90	194,00
-1130,43	37,00
-1121,96	261,00
-1113,51	147,00
-1105,07	143,00
-1096,64	319,00
-1088,22	113,00
-1079,81	285,00
-1071,41	109,00
-1063,02	163,00
-1054,65	140,00
-1046,28	255,00
-1037,92	275,00
-1029,58	228,00
-1021,24	272,00
-1012,92	316,00
-1004,61	137,00
-996,30	268,00
-988,01	159,00
-979,73	209,00
-971,46	280,00
-963,20	101,00
-954,95	210,00
-946,71	206,00
-938,48	231,00
-930,26	173,00
-922,06	261,00
-913,86	326,00
-905,67	152,00
-897,49	207,00
-889,33	229,00
-881,17	255,00
-873,02	281,00
-864,89	202,00
-856,76	179,00
-848,65	113,00
-840,54	196,00
-832,45	210,00
-824,36	104,00
-816,29	204,00
-808,22	185,00
-800,17	215,00
-792,12	188,00
-784,09	344,00
-776,06	141,00
-768,05	169,00
-760,04	98,00
-752,05	111,00
-744,07	277,00
-736,09	250,00
-728,13	237,00
-720,17	154,00
-712,23	133,00
-704,29	132,00
-696,37	247,00
-688,45	250,00
-680,55	247,00
-672,65	184,00
-664,77	185,00
-656,89	283,00
-649,03	125,00
-641,17	233,00
-633,32	216,00
-625,49	169,00
-617,66	286,00
-609,84	173,00
-602,03	254,00
-594,23	199,00
-586,45	304,00
-578,67	209,00
-570,90	170,00
-563,14	245,00
-555,39	207,00
-547,65	269,00
-539,91	150,00
-532,19	117,00
-524,48	134,00
-516,78	218,00
-509,08	58,00
-501,40	260,00
-493,72	224,00
-486,06	217,00
-478,40	176,00
-470,76	157,00
-463,12	151,00
-455,49	175,00
-447,87	165,00
-440,26	229,00
-432,66	68,00
-425,07	171,00
-417,49	203,00
-409,92	233,00
-402,35	157,00
-394,80	211,00
-387,25	163,00
-379,72	290,00
-372,19	111,00
-364,67	329,00
-357,17	326,00
-349,67	249,00
-342,18	187,00
-334,69	314,00
-327,22	198,00
-319,76	237,00
-312,30	154,00
-304,86	192,00
-297,42	215,00
-290,00	176,00
-282,58	267,00
-275,17	274,00
-267,77	222,00
-260,37	187,00
-252,99	349,00
-245,62	233,00
-238,25	256,00
-230,90	127,00
-223,55	408,00
-216,21	268,00
-208,88	247,00
-201,56	207,00
-194,25	330,00
-186,94	245,00
-179,65	406,00
-172,36	377,00
-165,08	282,00
-157,81	556,00
-150,55	555,00
-143,30	457,00
-136,06	564,00
-128,82	432,00
-121,60	507,00
-114,38	644,00
-107,17	709,00
-99,97	804,00
-92,78	913,00
-85,60	879,00
-78,42	1175,00
-71,25	1136,00
-64,10	1349,00
-56,95	1555,00
-49,81	1796,00
-42,67	2151,00
-35,55	2768,00
-28,43	3491,00
-21,33	5935,00
-14,23	18342,00
-7,14	55431,00
-0,05	55196,00
7,02	54914,00
14,09	55080,00
21,14	19560,00
28,19	7727,00
35,23	4888,00
42,27	3553,00
49,29	3092,00
56,31	2670,00
63,32	2185,00
70,32	1846,00
77,31	1651,00
84,29	1389,00
91,27	1326,00
98,23	1300,00
105,19	1086,00
112,14	1093,00
119,09	1767,00
126,02	2584,00
132,95	3141,00
139,87	3356,00
146,78	3483,00
153,68	3354,00
160,58	3148,00
167,46	3245,00
174,34	3239,00
181,21	3166,00
188,08	3181,00
194,93	3234,00
201,78	3247,00
208,62	3230,00
215,45	3184,00
222,27	3343,00
229,09	3262,00
235,90	3297,00
242,70	3172,00
249,49	3189,00
256,27	3090,00
263,05	3279,00
269,82	3154,00
276,58	3194,00
283,33	3322,00
290,08	3067,00
296,82	3077,00
303,55	3008,00
310,27	2996,00
316,98	2944,00
323,69	3045,00
330,39	3015,00
337,08	2948,00
343,76	2895,00
350,44	2984,00
357,11	2801,00
363,77	2913,00
370,42	2835,00
377,07	2661,00
383,71	2742,00
390,34	2753,00
396,96	2858,00
403,58	2793,00
410,19	2873,00
416,79	2988,00
423,38	2868,00
429,97	2837,00
436,55	2625,00
443,12	2755,00
449,68	2719,00
456,24	2615,00
462,79	2669,00
469,33	2683,00
475,86	2650,00
482,39	2547,00
488,91	2675,00
495,42	2722,00
501,93	2464,00
508,42	2506,00
514,91	2601,00
521,40	2542,00
527,87	2579,00
534,34	2491,00
540,80	2380,00
547,25	2523,00
553,70	2445,00
560,14	2444,00
566,57	2554,00
573,00	2400,00
579,41	2315,00
585,83	2374,00
592,23	2469,00
598,62	2359,00
605,01	2454,00
611,40	2360,00
617,77	2239,00
624,14	2343,00
630,50	2325,00
636,85	2289,00
643,20	2292,00
649,54	2299,00
655,87	2226,00
662,20	2358,00
668,52	2327,00
674,83	2236,00
681,13	2241,00
687,43	2323,00
693,72	2297,00
700,00	2237,00
706,28	2168,00
712,55	2184,00
718,81	2177,00
725,07	2259,00
731,32	2259,00
737,56	2106,00
743,79	2156,00
750,02	2168,00
756,24	2162,00
762,46	2228,00
768,67	2277,00
774,87	2075,00
781,06	2208,00
787,25	2105,00
793,43	2197,00
799,60	2186,00
805,77	1980,00
811,93	2189,00
818,08	2064,00
824,23	2012,00
830,37	2173,00
836,50	2171,00
842,63	2124,00
848,75	2154,00
854,87	2225,00
860,97	2146,00
867,07	2139,00
873,17	2214,00
879,25	2006,00
885,33	2049,00
891,41	2001,00
897,47	2074,00
903,53	1971,00
909,59	2025,00
915,63	1993,00
921,67	1936,00
927,71	1952,00
933,74	2085,00
939,76	1961,00
945,77	1886,00
951,78	1990,00
957,78	1926,00
963,78	1927,00
969,77	1908,00
975,75	1863,00
981,72	1803,00
987,69	2084,00
993,66	1889,00
999,61	1831,00
1005,56	1970,00
1011,51	1866,00
1017,44	1843,00
1023,37	1827,00
1029,30	1933,00
1035,22	1898,00
1041,13	1974,00
1047,03	1906,00
1052,93	1904,00
1058,83	2042,00
1064,71	2277,00
1070,59	2119,00
1076,47	1959,00
1082,33	1834,00
1088,20	1754,00
1094,05	1652,00
1099,90	1778,00
1105,74	1827,00
1111,58	1820,00
1117,41	1795,00
1123,23	1966,00
1129,05	1895,00
1134,86	2082,00
1140,67	1827,00
1146,47	1768,00
1152,26	1758,00
1158,05	1786,00
1163,83	1797,00
1169,60	1802,00
1175,37	1793,00
1181,13	1788,00
1186,89	1694,00
1192,64	1714,00
1198,38	1755,00
1204,12	1736,00
1209,85	1741,00
1215,58	1594,00
1221,30	1704,00
1227,02	1733,00
1232,72	1622,00
1238,43	1673,00
1244,12	1671,00
1249,81	1625,00
1255,50	1808,00
1261,17	1639,00
1266,85	1761,00
1272,51	1759,00
1278,17	1753,00
1283,83	1709,00
1289,47	1955,00
1295,12	2156,00
1300,75	2082,00
1306,38	2034,00
1312,01	1859,00
1317,63	1927,00
1323,24	1811,00
1328,85	1746,00
1334,45	1840,00
1340,04	1810,00
1345,63	1836,00
1351,22	1947,00
1356,80	1969,00
1362,37	1772,00
1367,93	1786,00
1373,49	1881,00
1379,05	1773,00
1384,60	1768,00
1390,14	1900,00
1395,68	1843,00
1401,21	1877,00
1406,74	1732,00
1412,26	1992,00
1417,77	1920,00
1423,28	2049,00
1428,78	2042,00
1434,28	2271,00
1439,77	2418,00
1445,26	2262,00
1450,74	2285,00
1456,22	2218,00
1461,68	2043,00
1467,15	2002,00
1472,61	1967,00
1478,06	1709,00
1483,51	1807,00
1488,95	1632,00
1494,38	1766,00
1499,81	1648,00
1505,24	1645,00
1510,65	1705,00
1516,07	1543,00
1521,48	1543,00
1526,88	1436,00
1532,27	1481,00
1537,67	1469,00
1543,05	1524,00
1548,43	1487,00
1553,81	1472,00
1559,18	1425,00
1564,54	1411,00
1569,90	1505,00
1575,25	1416,00
1580,60	1451,00
1585,94	1528,00
1591,28	1412,00
1596,61	1465,00
1601,93	1304,00
1607,25	1426,00
1612,57	1462,00
1617,88	1359,00
1623,18	1409,00
1628,48	1372,00
1633,77	1384,00
1639,06	1342,00
1644,34	1400,00
1649,62	1308,00
1654,89	1285,00
1660,16	1242,00
1665,42	1324,00
1670,67	1335,00
1675,92	1190,00
1681,17	1292,00
1686,41	1298,00
1691,64	1379,00
1696,87	1180,00
1702,10	1272,00
1707,32	1154,00
1712,53	1176,00
1717,74	1234,00
1722,94	1243,00
1728,14	1234,00
1733,33	1035,00
1738,52	1026,00
1743,70	1122,00
1748,88	1190,00
1754,05	1151,00
1759,22	1116,00
1764,38	-203,00
1769,53	1128,00
1774,69	1193,00
1779,83	1083,00
1784,97	1085,00
1790,11	1216,00
1795,24	1036,00
1800,36	1113,00
1805,48	1087,00
1810,60	1125,00
1815,71	1085,00
1820,82	1133,00
1825,92	1073,00
1831,01	1100,00
1836,10	978,00
1841,19	1040,00
1846,26	1104,00
1851,34	941,00
1856,41	1129,00
1861,47	992,00
1866,53	1001,00
1871,59	1045,00
1876,64	935,00
1881,68	980,00
1886,72	1035,00
1891,76	842,00
1896,79	1030,00
1901,81	1009,00
1906,83	927,00
1911,85	968,00
1916,86	970,00
1921,86	927,00
1926,86	998,00
1931,86	854,00
1936,85	865,00
1941,83	1011,00
1946,81	755,00
1951,79	766,00
1956,76	923,00
1961,72	824,00
1966,68	885,00
1971,64	736,00
1976,59	834,00
1981,54	822,00
1986,48	818,00
1991,42	790,00
1996,35	722,00
2001,27	779,00
2006,20	808,00
2011,11	837,00
2016,03	837,00
2020,93	796,00
2025,84	886,00
2030,73	848,00
2035,63	769,00
2040,52	786,00
2045,40	695,00
2050,28	720,00
2055,15	666,00
2060,02	707,00
2064,89	809,00
2069,75	760,00
2074,60	667,00
2079,46	705,00
2084,30	803,00
2089,14	737,00
2093,98	676,00
2098,81	872,00
2103,64	678,00
2108,46	787,00
2113,28	704,00
2118,09	760,00
2122,90	707,00
2127,70	671,00
2132,50	688,00
2137,30	683,00
2142,09	845,00
2146,87	779,00
2151,66	719,00
2156,43	803,00
2161,20	739,00
2165,97	647,00
2170,73	653,00
2175,49	596,00
2180,24	621,00
2184,99	637,00
2189,74	842,00
2194,48	735,00
2199,21	580,00
2203,94	767,00
2208,67	516,00
2213,39	586,00
2218,11	569,00
2222,82	777,00
2227,53	709,00
2232,23	735,00
2236,93	719,00
2241,63	621,00
2246,32	603,00
2251,00	542,00
2255,68	602,00
2260,36	524,00
2265,03	588,00
2269,70	674,00
2274,36	696,00
2279,02	610,00
2283,68	696,00
2288,33	504,00
2292,97	550,00
2297,61	454,00
2302,25	552,00
2306,88	725,00
2311,51	501,00
2316,14	580,00
2320,75	569,00
2325,37	599,00
2329,98	616,00
2334,59	474,00
2339,19	620,00
2343,79	563,00
2348,38	674,00
2352,97	579,00
2357,55	626,00
2362,13	425,00
2366,71	562,00
2371,28	510,00
2375,85	509,00
2380,41	547,00
2384,97	539,00
2389,52	516,00
2394,07	519,00
2398,62	529,00
2403,16	617,00
2407,70	522,00
2412,23	475,00
2416,76	545,00
2421,29	567,00
2425,81	532,00
2430,32	542,00
2434,84	517,00
2439,34	409,00
2443,85	620,00
2448,35	559,00
2452,84	489,00
2457,33	457,00
2461,82	426,00
2466,30	393,00
2470,78	483,00
2475,25	622,00
2479,72	457,00
2484,19	424,00
2488,65	593,00
2493,11	461,00
2497,56	465,00
2502,01	508,00
2506,46	447,00
2510,90	487,00
2515,34	456,00
2519,77	499,00
2524,20	440,00
2528,62	503,00
2533,04	502,00
2537,46	431,00
2541,87	399,00
2546,28	367,00
2550,68	546,00
2555,08	534,00
2559,48	455,00
2563,87	428,00
2568,26	435,00
2572,64	450,00
2577,02	554,00
2581,40	424,00
2585,77	343,00
2590,14	328,00
2594,50	497,00
2598,86	365,00
2603,22	381,00
2607,57	441,00
2611,92	456,00
2616,26	429,00
2620,60	478,00
2624,94	392,00
2629,27	488,00
2633,60	474,00
2637,92	446,00
2642,24	511,00
2646,56	443,00
2650,87	433,00
2655,18	382,00
2659,48	331,00
2663,78	476,00
2668,08	416,00
2672,37	294,00
2676,66	467,00
2680,95	396,00
2685,23	502,00
2689,50	415,00
2693,78	475,00
2698,05	415,00
2702,31	339,00
2706,57	331,00
2710,83	268,00
2715,08	435,00
2719,33	465,00
2723,58	484,00
2727,82	445,00
2732,06	534,00
2736,29	440,00
2740,53	432,00
2744,75	393,00
2748,97	446,00
2753,19	523,00
2757,41	541,00
2761,62	341,00
2765,83	509,00
2770,03	391,00
2774,23	424,00
2778,43	452,00
2782,62	390,00
2786,81	528,00
2791,00	455,00
2795,18	477,00
2799,35	399,00
2803,53	481,00
2807,70	362,00
2811,86	366,00
2816,03	563,00
2820,19	356,00
2824,34	570,00
2828,49	348,00
2832,64	635,00
2836,78	699,00
2840,92	574,00
2845,06	849,00
2849,19	946,00
2853,32	975,00
2857,45	962,00
2861,57	936,00
2865,69	938,00
2869,80	947,00
2873,91	847,00
2878,02	973,00
2882,12	929,00
2886,22	859,00
2890,32	1154,00
2894,41	917,00
2898,50	819,00
2902,58	956,00
2906,67	778,00
2910,74	733,00
2914,82	740,00
2918,89	697,00
2922,96	629,00
2927,02	712,00
2931,08	748,00
2935,13	660,00
2939,19	696,00
2943,24	561,00
2947,28	464,00
2951,32	480,00
2955,36	403,00
2959,40	471,00
2963,43	504,00
2967,46	513,00
2971,48	461,00
2975,50	439,00
2979,52	503,00
2983,53	558,00
2987,54	436,00
2991,55	436,00
2995,55	385,00
2999,55	260,00
3003,54	412,00
3007,54	332,00
3011,53	381,00
3015,51	330,00
3019,49	379,00
3023,47	268,00
3027,45	239,00
3031,42	285,00
3035,39	331,00
3039,35	207,00
3043,31	320,00
3047,27	297,00
3051,22	302,00
3055,17	206,00
3059,12	380,00
3063,06	215,00
3067,00	323,00
3070,94	353,00
3074,87	291,00
3078,80	310,00
3082,73	312,00
3086,65	397,00
3090,57	261,00
3094,49	209,00
3098,40	308,00
3102,31	213,00
3106,22	372,00
3110,12	277,00
3114,02	279,00
3117,92	321,00
3121,81	226,00
3125,70	306,00
3129,58	307,00
3133,47	162,00
3137,34	284,00
3141,22	403,00
3145,09	278,00
3148,96	339,00
3152,83	164,00
3156,69	317,00
3160,55	201,00
3164,40	375,00
3168,26	220,00
3172,10	330,00
3175,95	282,00
3179,79	211,00
3183,63	307,00
3187,47	192,00
3191,30	170,00
3195,13	345,00
3198,95	258,00
3202,78	342,00
3206,60	201,00
3210,41	247,00
3214,23	312,00
3218,03	301,00
3221,84	245,00
3225,64	182,00
3229,44	333,00
3233,24	248,00
3237,03	226,00
3240,82	256,00
3244,61	269,00
3248,39	283,00
3252,17	199,00
3255,95	195,00
3259,72	393,00
3263,49	271,00
3267,26	250,00
3271,03	187,00
3274,79	171,00
3278,54	256,00
3282,30	294,00
3286,05	326,00
3289,80	257,00
3293,54	290,00
3297,29	281,00
3301,02	322,00
3304,76	247,00
3308,49	228,00
3312,22	258,00
3315,95	284,00
3319,67	322,00
3323,39	305,00
3327,10	214,00
3330,82	358,00
3334,53	399,00
3338,24	228,00
3341,94	226,00
3345,64	340,00
3349,34	246,00
3353,03	185,00
3356,72	173,00
3360,41	156,00
3364,10	299,00
3367,78	263,00
3371,46	320,00
3375,13	246,00
3378,81	343,00
3382,48	276,00
3386,14	323,00
3389,81	279,00
3393,47	359,00
3397,12	298,00
3400,78	338,00
3404,43	203,00
3408,08	267,00
3411,72	286,00
3415,36	192,00
3419,00	299,00
3422,64	146,00
3426,27	225,00
3429,90	274,00
3433,53	277,00
3437,15	247,00
3440,77	169,00
3444,39	259,00
3448,00	232,00
3451,62	216,00
3455,22	203,00
3458,83	204,00
3462,43	241,00
3466,03	150,00
3469,63	155,00
3473,22	215,00
3476,81	101,00
3480,40	172,00
3483,99	82,00
3487,57	214,00
3491,15	187,00
3494,72	142,00
3498,29	177,00
3501,86	168,00
3505,43	221,00
3508,99	208,00
3512,56	332,00
3516,11	202,00
3519,67	245,00
3523,22	184,00
3526,77	278,00
3530,32	191,00
3533,86	183,00
3537,40	188,00
3540,94	182,00
3544,47	217,00
3548,00	201,00
3551,53	172,00
3555,06	221,00
3558,58	274,00
3562,10	279,00
3565,62	220,00
3569,13	159,00
3572,64	255,00
3576,15	222,00
3579,66	164,00
3583,16	255,00
3586,66	94,00
3590,16	239,00
3593,65	233,00
3597,14	151,00
3600,63	294,00
3604,11	257,00
3607,60	189,00
3611,08	203,00
3614,55	176,00
3618,03	222,00
3621,50	262,00
3624,97	237,00
3628,43	301,00
3631,90	222,00
3635,36	266,00
3638,81	286,00
3642,27	182,00
3645,72	174,00
3649,17	161,00
3652,61	215,00
3656,06	279,00
3659,50	183,00
3662,93	130,00
3666,37	215,00
3669,80	153,00
3673,23	169,00
3676,65	279,00
3680,08	162,00
3683,50	139,00
3686,92	197,00
3690,33	95,00
3693,74	211,00
3697,15	154,00
3700,56	201,00
3703,96	175,00
3707,36	165,00
3710,76	214,00
3714,16	157,00
3717,55	223,00
3720,94	127,00
3724,33	122,00
3727,71	156,00
3731,10	246,00
3734,48	183,00
3737,85	217,00
3741,23	181,00
3744,60	123,00
3747,97	201,00
3751,33	130,00
3754,69	120,00
3758,05	138,00
3761,41	79,00
3764,77	240,00
3768,12	141,00
3771,47	163,00
3774,82	148,00
3778,16	7,00
3781,50	3,00
3784,84	8,00
3788,18	3,00
>>>>>End Processed Spectral Data<<<<<
