SpectraSuite Data File
++++++++++++++++++++++++++++++++++++
Date: Wed Feb 04 15:44:09 ICT 2026
User: Administrator
Dark Spectrum Present: Yes
Reference Spectrum Present: No
Number of Sampled Component Spectra: 1
Spectrometers: MAYP113682
Integration Time (usec): 3000000 (MAYP113682)
Spectra Averaged: 1 (MAYP113682)
Boxcar Smoothing: 0 (MAYP113682)
Correct for Electrical Dark: No (MAYP113682)
Strobe/Lamp Enabled: No (MAYP113682)
Correct for Detector Non-linearity: No (MAYP113682)
Correct for Stray Light: No (MAYP113682)
Number of Pixels in Processed Spectrum: 2068
>>>>>Begin Processed Spectral Data<<<<<
-37534,58	23,00
-37414,56	-2,00
-37295,11	17,00
-37176,24	12,00
-37057,95	553,00
-36940,22	544,00
-36823,05	549,00
-36706,45	580,00
-36590,40	584,00
-36474,90	622,00
-36359,95	627,00
-36245,55	610,00
-36131,68	565,00
-36018,35	529,00
-35905,55	594,00
-35793,29	694,00
-35681,54	603,00
-35570,32	654,00
-35459,62	575,00
-35349,43	723,00
-35239,75	581,00
-35130,58	635,00
-35021,91	624,00
-34913,74	604,00
-34806,07	650,00
-34698,89	640,00
-34592,20	503,00
-34486,00	688,00
-34380,28	653,00
-34275,04	535,00
-34170,27	614,00
-34065,98	714,00
-33962,16	594,00
-33858,81	652,00
-33755,92	615,00
-33653,49	708,00
-33551,52	680,00
-33450,01	785,00
-33348,94	612,00
-33248,33	629,00
-33148,16	589,00
-33048,43	673,00
-32949,14	776,00
-32850,29	691,00
-32751,87	602,00
-32653,89	626,00
-32556,33	682,00
-32459,20	634,00
-32362,49	675,00
-32266,19	548,00
-32170,32	706,00
-32074,86	645,00
-31979,82	631,00
-31885,18	732,00
-31790,95	693,00
-31697,12	700,00
-31603,69	634,00
-31510,67	644,00
-31418,04	645,00
-31325,80	746,00
-31233,95	656,00
-31142,49	760,00
-31051,42	675,00
-30960,73	795,00
-30870,43	834,00
-30780,50	610,00
-30690,95	671,00
-30601,77	643,00
-30512,97	717,00
-30424,53	763,00
-30336,46	767,00
-30248,76	703,00
-30161,42	657,00
-30074,44	666,00
-29987,81	707,00
-29901,55	704,00
-29815,63	689,00
-29730,07	768,00
-29644,86	570,00
-29560,00	687,00
-29475,48	666,00
-29391,30	650,00
-29307,47	630,00
-29223,97	657,00
-29140,81	785,00
-29057,99	693,00
-28975,50	676,00
-28893,34	629,00
-28811,51	626,00
-28730,00	716,00
-28648,82	698,00
-28567,97	862,00
-28487,43	639,00
-28407,21	692,00
-28327,32	720,00
-28247,73	817,00
-28168,46	660,00
-28089,50	699,00
-28010,85	627,00
-27932,51	644,00
-27854,48	765,00
-27776,75	677,00
-27699,32	570,00
-27622,19	689,00
-27545,37	622,00
-27468,84	729,00
-27392,60	765,00
-27316,66	611,00
-27241,01	756,00
-27165,66	660,00
-27090,59	539,00
-27015,81	672,00
-26941,31	768,00
-26867,10	625,00
-26793,17	727,00
-26719,52	605,00
-26646,15	591,00
-26573,06	682,00
-26500,24	678,00
-26427,70	611,00
-26355,43	677,00
-26283,43	619,00
-26211,71	668,00
-26140,25	808,00
-26069,06	976,00
-25998,13	669,00
-25927,46	671,00
-25857,06	735,00
-25786,92	684,00
-25717,04	697,00
-25647,42	727,00
-25578,05	472,00
-25508,94	715,00
-25440,09	710,00
-25371,48	702,00
-25303,13	750,00
-25235,02	607,00
-25167,17	776,00
-25099,56	702,00
-25032,19	620,00
-24965,07	651,00
-24898,20	572,00
-24831,56	629,00
-24765,17	694,00
-24699,01	680,00
-24633,10	652,00
-24567,41	865,00
-24501,97	756,00
-24436,75	790,00
-24371,77	658,00
-24307,03	584,00
-24242,51	671,00
-24178,22	654,00
-24114,16	629,00
-24050,32	769,00
-23986,71	669,00
-23923,32	628,00
-23860,16	709,00
-23797,22	586,00
-23734,50	667,00
-23672,00	664,00
-23609,71	766,00
-23547,65	619,00
-23485,80	665,00
-23424,16	637,00
-23362,74	730,00
-23301,53	592,00
-23240,54	585,00
-23179,75	587,00
-23119,17	770,00
-23058,80	654,00
-22998,64	598,00
-22938,68	787,00
-22878,93	789,00
-22819,39	672,00
-22760,04	511,00
-22700,90	675,00
-22641,96	672,00
-22583,22	626,00
-22524,68	555,00
-22466,33	700,00
-22408,19	636,00
-22350,23	602,00
-22292,48	677,00
-22234,92	655,00
-22177,55	833,00
-22120,37	717,00
-22063,38	622,00
-22006,58	646,00
-21949,98	549,00
-21893,56	588,00
-21837,33	649,00
-21781,28	817,00
-21725,42	639,00
-21669,74	597,00
-21614,25	625,00
-21558,94	598,00
-21503,81	714,00
-21448,86	604,00
-21394,10	617,00
-21339,51	622,00
-21285,10	574,00
-21230,86	606,00
-21176,81	665,00
-21122,93	654,00
-21069,22	634,00
-21015,69	621,00
-20962,33	671,00
-20909,14	661,00
-20856,13	617,00
-20803,28	758,00
-20750,61	597,00
-20698,10	635,00
-20645,76	657,00
-20593,59	683,00
-20541,59	609,00
-20489,75	753,00
-20438,07	524,00
-20386,56	684,00
-20335,22	615,00
-20284,03	592,00
-20233,01	592,00
-20182,15	658,00
-20131,45	685,00
-20080,91	590,00
-20030,52	663,00
-19980,30	606,00
-19930,23	568,00
-19880,32	753,00
-19830,56	694,00
-19780,96	652,00
-19731,52	694,00
-19682,23	597,00
-19633,09	633,00
-19584,10	556,00
-19535,26	720,00
-19486,58	722,00
-19438,04	595,00
-19389,66	564,00
-19341,42	635,00
-19293,33	737,00
-19245,39	592,00
-19197,60	551,00
-19149,95	642,00
-19102,45	665,00
-19055,09	676,00
-19007,87	686,00
-18960,80	699,00
-18913,87	762,00
-18867,09	653,00
-18820,44	721,00
-18773,94	609,00
-18727,57	646,00
-18681,35	578,00
-18635,26	651,00
-18589,31	629,00
-18543,50	603,00
-18497,83	652,00
-18452,29	796,00
-18406,89	561,00
-18361,63	820,00
-18316,50	642,00
-18271,50	631,00
-18226,63	716,00
-18181,90	747,00
-18137,30	697,00
-18092,84	568,00
-18048,50	595,00
-18004,29	515,00
-17960,22	645,00
-17916,27	676,00
-17872,45	768,00
-17828,76	699,00
-17785,20	689,00
-17741,77	573,00
-17698,46	697,00
-17655,28	584,00
-17612,22	558,00
-17569,29	721,00
-17526,48	622,00
-17483,79	647,00
-17441,23	588,00
-17398,79	677,00
-17356,48	665,00
-17314,28	740,00
-17272,21	544,00
-17230,26	761,00
-17188,42	661,00
-17146,71	588,00
-17105,12	666,00
-17063,64	552,00
-17022,28	623,00
-16981,04	561,00
-16939,92	629,00
-16898,91	705,00
-16858,02	568,00
-16817,25	748,00
-16776,59	546,00
-16736,04	651,00
-16695,61	622,00
-16655,29	558,00
-16615,09	662,00
-16574,99	656,00
-16535,01	716,00
-16495,15	729,00
-16455,39	597,00
-16415,74	608,00
-16376,21	539,00
-16336,78	570,00
-16297,46	623,00
-16258,26	561,00
-16219,16	655,00
-16180,17	650,00
-16141,28	717,00
-16102,51	666,00
-16063,84	604,00
-16025,27	733,00
-15986,82	660,00
-15948,46	610,00
-15910,22	726,00
-15872,07	572,00
-15834,04	649,00
-15796,10	588,00
-15758,27	684,00
-15720,54	599,00
-15682,91	708,00
-15645,39	749,00
-15607,97	679,00
-15570,64	609,00
-15533,42	759,00
-15496,30	581,00
-15459,28	655,00
-15422,36	687,00
-15385,54	582,00
-15348,82	735,00
-15312,19	759,00
-15275,66	562,00
-15239,23	579,00
-15202,90	693,00
-15166,67	653,00
-15130,53	736,00
-15094,48	556,00
-15058,54	575,00
-15022,68	721,00
-14986,93	626,00
-14951,26	646,00
-14915,69	701,00
-14880,22	696,00
-14844,84	635,00
-14809,55	714,00
-14774,35	722,00
-14739,25	686,00
-14704,24	652,00
-14669,32	592,00
-14634,49	600,00
-14599,75	698,00
-14565,10	550,00
-14530,55	608,00
-14496,08	669,00
-14461,70	677,00
-14427,41	595,00
-14393,21	713,00
-14359,10	616,00
-14325,07	735,00
-14291,14	519,00
-14257,29	694,00
-14223,52	672,00
-14189,85	709,00
-14156,26	599,00
-14122,76	567,00
-14089,34	641,00
-14056,01	653,00
-14022,76	666,00
-13989,60	669,00
-13956,52	647,00
-13923,53	661,00
-13890,62	521,00
-13857,79	661,00
-13825,05	654,00
-13792,39	611,00
-13759,81	601,00
-13727,31	664,00
-13694,90	642,00
-13662,57	714,00
-13630,31	677,00
-13598,14	710,00
-13566,05	590,00
-13534,05	643,00
-13502,12	687,00
-13470,27	639,00
-13438,50	622,00
-13406,80	609,00
-13375,19	627,00
-13343,66	696,00
-13312,20	692,00
-13280,83	728,00
-13249,53	676,00
-13218,30	540,00
-13187,16	552,00
-13156,09	766,00
-13125,10	680,00
-13094,18	663,00
-13063,34	683,00
-13032,58	542,00
-13001,89	595,00
-12971,28	641,00
-12940,74	687,00
-12910,27	624,00
-12879,88	548,00
-12849,57	654,00
-12819,33	632,00
-12789,16	727,00
-12759,06	652,00
-12729,04	687,00
-12699,09	579,00
-12669,21	717,00
-12639,41	697,00
-12609,68	592,00
-12580,02	559,00
-12550,43	665,00
-12520,91	614,00
-12491,46	635,00
-12462,08	678,00
-12432,77	563,00
-12403,54	609,00
-12374,37	703,00
-12345,27	704,00
-12316,24	603,00
-12287,29	668,00
-12258,40	564,00
-12229,57	674,00
-12200,82	627,00
-12172,14	687,00
-12143,52	600,00
-12114,97	663,00
-12086,49	748,00
-12058,07	613,00
-12029,73	633,00
-12001,44	678,00
-11973,23	673,00
-11945,08	744,00
-11917,00	775,00
-11888,98	589,00
-11861,03	654,00
-11833,15	694,00
-11805,32	685,00
-11777,57	733,00
-11749,88	607,00
-11722,25	598,00
-11694,69	672,00
-11667,19	605,00
-11639,75	855,00
-11612,38	681,00
-11585,07	568,00
-11557,83	647,00
-11530,65	673,00
-11503,53	610,00
-11476,47	656,00
-11449,48	517,00
-11422,54	622,00
-11395,67	617,00
-11368,86	796,00
-11342,11	574,00
-11315,43	785,00
-11288,80	618,00
-11262,23	671,00
-11235,73	601,00
-11209,28	695,00
-11182,90	678,00
-11156,57	729,00
-11130,31	801,00
-11104,10	615,00
-11077,96	572,00
-11051,87	733,00
-11025,84	638,00
-10999,87	687,00
-10973,96	678,00
-10948,11	661,00
-10922,31	575,00
-10896,58	725,00
-10870,90	848,00
-10845,28	762,00
-10819,71	691,00
-10794,20	595,00
-10768,75	651,00
-10743,36	654,00
-10718,02	580,00
-10692,74	683,00
-10667,52	542,00
-10642,35	569,00
-10617,24	642,00
-10592,18	604,00
-10567,18	634,00
-10542,23	695,00
-10517,34	732,00
-10492,51	674,00
-10467,72	626,00
-10443,00	575,00
-10418,32	537,00
-10393,70	587,00
-10369,14	649,00
-10344,63	643,00
-10320,17	667,00
-10295,77	625,00
-10271,42	671,00
-10247,12	709,00
-10222,88	619,00
-10198,68	657,00
-10174,54	716,00
-10150,46	691,00
-10126,42	706,00
-10102,44	678,00
-10078,51	689,00
-10054,63	598,00
-10030,80	608,00
-10007,03	806,00
-9983,30	723,00
-9959,63	620,00
-9936,01	666,00
-9912,44	659,00
-9888,92	653,00
-9865,44	501,00
-9842,02	638,00
-9818,65	656,00
-9795,33	593,00
-9772,06	622,00
-9748,84	533,00
-9725,67	613,00
-9702,55	576,00
-9679,47	701,00
-9656,45	732,00
-9633,47	499,00
-9610,55	602,00
-9587,67	733,00
-9564,84	827,00
-9542,06	640,00
-9519,32	849,00
-9496,64	690,00
-9474,00	519,00
-9451,41	827,00
-9428,87	792,00
-9406,37	582,00
-9383,92	629,00
-9361,52	647,00
-9339,17	717,00
-9316,86	710,00
-9294,60	664,00
-9272,38	814,00
-9250,21	910,00
-9228,09	802,00
-9206,01	837,00
-9183,98	684,00
-9162,00	647,00
-9140,06	729,00
-9118,16	769,00
-9096,31	732,00
-9074,51	682,00
-9052,75	881,00
-9031,04	889,00
-9009,37	816,00
-8987,74	754,00
-8966,16	834,00
-8944,63	626,00
-8923,14	655,00
-8901,69	733,00
-8880,29	661,00
-8858,93	794,00
-8837,61	767,00
-8816,34	838,00
-8795,11	783,00
-8773,92	900,00
-8752,78	698,00
-8731,68	677,00
-8710,62	708,00
-8689,61	754,00
-8668,63	782,00
-8647,70	900,00
-8626,82	660,00
-8605,97	889,00
-8585,17	817,00
-8564,41	837,00
-8543,69	771,00
-8523,01	531,00
-8502,37	812,00
-8481,78	785,00
-8461,23	530,00
-8440,71	791,00
-8420,24	764,00
-8399,81	910,00
-8379,42	905,00
-8359,08	983,00
-8338,77	851,00
-8318,50	740,00
-8298,27	649,00
-8278,09	567,00
-8257,94	768,00
-8237,83	796,00
-8217,76	763,00
-8197,74	866,00
-8177,75	941,00
-8157,80	936,00
-8137,89	869,00
-8118,02	689,00
-8098,19	741,00
-8078,40	798,00
-8058,65	687,00
-8038,93	725,00
-8019,26	596,00
-7999,62	797,00
-7980,02	767,00
-7960,46	550,00
-7940,94	782,00
-7921,46	827,00
-7902,01	728,00
-7882,60	900,00
-7863,23	506,00
-7843,90	673,00
-7824,61	611,00
-7805,35	818,00
-7786,13	793,00
-7766,95	717,00
-7747,80	852,00
-7728,69	873,00
-7709,62	807,00
-7690,59	630,00
-7671,59	848,00
-7652,63	687,00
-7633,70	722,00
-7614,81	812,00
-7595,96	746,00
-7577,15	687,00
-7558,37	742,00
-7539,62	861,00
-7520,91	705,00
-7502,24	828,00
-7483,60	695,00
-7465,00	739,00
-7446,44	739,00
-7427,91	731,00
-7409,41	751,00
-7390,95	708,00
-7372,53	680,00
-7354,14	579,00
-7335,78	641,00
-7317,46	689,00
-7299,18	691,00
-7280,92	715,00
-7262,71	788,00
-7244,52	703,00
-7226,38	543,00
-7208,26	781,00
-7190,18	669,00
-7172,14	842,00
-7154,12	721,00
-7136,15	678,00
-7118,20	741,00
-7100,29	711,00
-7082,41	929,00
-7064,57	689,00
-7046,76	708,00
-7028,98	657,00
-7011,24	805,00
-6993,53	635,00
-6975,85	567,00
-6958,20	669,00
-6940,59	713,00
-6923,01	574,00
-6905,46	629,00
-6887,94	650,00
-6870,46	626,00
-6853,01	828,00
-6835,59	801,00
-6818,21	732,00
-6800,85	700,00
-6783,53	689,00
-6766,24	691,00
-6748,98	422,00
-6731,76	569,00
-6714,56	590,00
-6697,40	514,00
-6680,26	649,00
-6663,16	585,00
-6646,09	655,00
-6629,05	682,00
-6612,05	753,00
-6595,07	720,00
-6578,13	794,00
-6561,21	739,00
-6544,33	724,00
-6527,47	694,00
-6510,65	664,00
-6493,86	576,00
-6477,10	609,00
-6460,36	628,00
-6443,66	537,00
-6426,99	600,00
-6410,35	559,00
-6393,74	658,00
-6377,16	527,00
-6360,61	552,00
-6344,09	733,00
-6327,59	651,00
-6311,13	623,00
-6294,70	649,00
-6278,29	666,00
-6261,92	609,00
-6245,58	648,00
-6229,26	803,00
-6212,97	814,00
-6196,72	594,00
-6180,49	693,00
-6164,29	473,00
-6148,12	605,00
-6131,98	567,00
-6115,86	579,00
-6099,78	557,00
-6083,72	514,00
-6067,69	543,00
-6051,69	560,00
-6035,72	529,00
-6019,78	635,00
-6003,87	563,00
-5987,98	703,00
-5972,12	586,00
-5956,29	603,00
-5940,49	656,00
-5924,71	631,00
-5908,96	617,00
-5893,24	670,00
-5877,55	691,00
-5861,89	595,00
-5846,25	463,00
-5830,64	671,00
-5815,05	577,00
-5799,50	677,00
-5783,97	620,00
-5768,47	646,00
-5752,99	717,00
-5737,55	590,00
-5722,12	598,00
-5706,73	637,00
-5691,36	655,00
-5676,02	670,00
-5660,71	681,00
-5645,42	552,00
-5630,16	618,00
-5614,92	562,00
-5599,71	590,00
-5584,53	702,00
-5569,37	596,00
-5554,24	948,00
-5539,14	624,00
-5524,06	589,00
-5509,01	642,00
-5493,98	649,00
-5478,98	710,00
-5464,00	682,00
-5449,05	401,00
-5434,13	746,00
-5419,23	673,00
-5404,36	522,00
-5389,51	676,00
-5374,69	696,00
-5359,89	628,00
-5345,12	659,00
-5330,37	712,00
-5315,65	720,00
-5300,95	697,00
-5286,28	570,00
-5271,63	566,00
-5257,01	604,00
-5242,41	609,00
-5227,84	739,00
-5213,29	507,00
-5198,76	587,00
-5184,26	681,00
-5169,79	722,00
-5155,33	589,00
-5140,91	618,00
-5126,51	679,00
-5112,13	632,00
-5097,77	662,00
-5083,44	698,00
-5069,13	565,00
-5054,85	613,00
-5040,59	547,00
-5026,36	641,00
-5012,15	786,00
-4997,96	709,00
-4983,80	640,00
-4969,66	618,00
-4955,54	667,00
-4941,44	610,00
-4927,37	682,00
-4913,33	587,00
-4899,30	546,00
-4885,30	637,00
-4871,33	723,00
-4857,37	610,00
-4843,44	586,00
-4829,53	635,00
-4815,65	687,00
-4801,79	591,00
-4787,95	548,00
-4774,13	587,00
-4760,34	714,00
-4746,56	583,00
-4732,82	687,00
-4719,09	696,00
-4705,38	673,00
-4691,70	664,00
-4678,04	679,00
-4664,41	637,00
-4650,79	793,00
-4637,20	646,00
-4623,63	626,00
-4610,08	707,00
-4596,56	689,00
-4583,05	613,00
-4569,57	718,00
-4556,11	716,00
-4542,67	496,00
-4529,25	698,00
-4515,86	604,00
-4502,49	582,00
-4489,13	665,00
-4475,80	683,00
-4462,49	671,00
-4449,21	810,00
-4435,94	660,00
-4422,70	653,00
-4409,47	606,00
-4396,27	623,00
-4383,09	633,00
-4369,93	715,00
-4356,79	649,00
-4343,67	682,00
-4330,58	650,00
-4317,50	641,00
-4304,45	550,00
-4291,41	692,00
-4278,40	605,00
-4265,41	546,00
-4252,44	733,00
-4239,49	618,00
-4226,55	742,00
-4213,65	701,00
-4200,76	549,00
-4187,89	545,00
-4175,04	586,00
-4162,21	603,00
-4149,40	650,00
-4136,61	594,00
-4123,85	584,00
-4111,10	621,00
-4098,37	615,00
-4085,66	713,00
-4072,98	759,00
-4060,31	646,00
-4047,66	789,00
-4035,04	845,00
-4022,43	692,00
-4009,84	757,00
-3997,27	593,00
-3984,72	544,00
-3972,19	687,00
-3959,69	603,00
-3947,20	573,00
-3934,73	662,00
-3922,27	696,00
-3909,84	677,00
-3897,43	569,00
-3885,04	738,00
-3872,67	678,00
-3860,31	635,00
-3847,98	671,00
-3835,66	575,00
-3823,36	757,00
-3811,09	587,00
-3798,83	607,00
-3786,59	715,00
-3774,37	770,00
-3762,17	630,00
-3749,98	631,00
-3737,82	623,00
-3725,67	654,00
-3713,55	530,00
-3701,44	731,00
-3689,35	675,00
-3677,28	739,00
-3665,22	611,00
-3653,19	571,00
-3641,17	540,00
-3629,18	629,00
-3617,20	805,00
-3605,24	785,00
-3593,30	628,00
-3581,37	678,00
-3569,47	686,00
-3557,58	685,00
-3545,71	621,00
-3533,86	657,00
-3522,02	689,00
-3510,21	728,00
-3498,41	655,00
-3486,63	649,00
-3474,87	611,00
-3463,12	642,00
-3451,40	747,00
-3439,69	663,00
-3428,00	732,00
-3416,33	759,00
-3404,67	525,00
-3393,03	695,00
-3381,41	773,00
-3369,81	663,00
-3358,22	609,00
-3346,66	765,00
-3335,10	753,00
-3323,57	558,00
-3312,06	740,00
-3300,56	702,00
-3289,08	655,00
-3277,61	649,00
-3266,16	789,00
-3254,73	642,00
-3243,32	703,00
-3231,92	583,00
-3220,55	665,00
-3209,18	721,00
-3197,84	484,00
-3186,51	615,00
-3175,20	716,00
-3163,90	556,00
-3152,63	762,00
-3141,36	667,00
-3130,12	710,00
-3118,89	541,00
-3107,68	747,00
-3096,49	697,00
-3085,31	727,00
-3074,15	648,00
-3063,00	731,00
-3051,87	644,00
-3040,76	502,00
-3029,67	820,00
-3018,59	846,00
-3007,52	784,00
-2996,48	800,00
-2985,44	488,00
-2974,43	825,00
-2963,43	684,00
-2952,45	612,00
-2941,48	711,00
-2930,53	728,00
-2919,60	770,00
-2908,68	712,00
-2897,78	714,00
-2886,89	646,00
-2876,02	638,00
-2865,17	755,00
-2854,33	648,00
-2843,50	689,00
-2832,70	762,00
-2821,90	659,00
-2811,13	669,00
-2800,37	646,00
-2789,62	728,00
-2778,89	641,00
-2768,18	608,00
-2757,48	771,00
-2746,80	710,00
-2736,13	675,00
-2725,48	799,00
-2714,84	619,00
-2704,22	702,00
-2693,61	738,00
-2683,02	681,00
-2672,45	621,00
-2661,89	593,00
-2651,34	691,00
-2640,81	653,00
-2630,30	801,00
-2619,80	582,00
-2609,31	827,00
-2598,84	533,00
-2588,39	719,00
-2577,95	651,00
-2567,52	650,00
-2557,11	684,00
-2546,71	646,00
-2536,33	737,00
-2525,97	700,00
-2515,62	803,00
-2505,28	637,00
-2494,96	685,00
-2484,65	771,00
-2474,36	888,00
-2464,08	604,00
-2453,82	641,00
-2443,57	715,00
-2433,33	669,00
-2423,11	734,00
-2412,91	653,00
-2402,72	627,00
-2392,54	759,00
-2382,38	633,00
-2372,23	675,00
-2362,09	1234,00
-2351,97	605,00
-2341,87	640,00
-2331,78	723,00
-2321,70	797,00
-2311,64	661,00
-2301,59	504,00
-2291,55	620,00
-2281,53	661,00
-2271,53	577,00
-2261,53	695,00
-2251,55	784,00
-2241,59	592,00
-2231,64	715,00
-2221,70	577,00
-2211,78	716,00
-2201,87	726,00
-2191,97	692,00
-2182,09	645,00
-2172,22	637,00
-2162,37	573,00
-2152,53	608,00
-2142,70	650,00
-2132,89	624,00
-2123,09	683,00
-2113,30	658,00
-2103,53	660,00
-2093,77	594,00
-2084,02	605,00
-2074,29	730,00
-2064,57	683,00
-2054,86	745,00
-2045,17	647,00
-2035,49	645,00
-2025,82	612,00
-2016,17	660,00
-2006,53	664,00
-1996,91	641,00
-1987,29	725,00
-1977,69	592,00
-1968,11	619,00
-1958,53	702,00
-1948,97	684,00
-1939,42	704,00
-1929,89	637,00
-1920,37	698,00
-1910,86	777,00
-1901,36	776,00
-1891,88	662,00
-1882,41	618,00
-1872,95	672,00
-1863,51	648,00
-1854,08	650,00
-1844,66	763,00
-1835,26	782,00
-1825,86	633,00
-1816,48	742,00
-1807,11	651,00
-1797,76	635,00
-1788,42	612,00
-1779,09	747,00
-1769,77	663,00
-1760,47	744,00
-1751,17	668,00
-1741,89	615,00
-1732,63	737,00
-1723,37	706,00
-1714,13	707,00
-1704,90	585,00
-1695,68	772,00
-1686,48	617,00
-1677,29	672,00
-1668,11	869,00
-1658,94	768,00
-1649,78	685,00
-1640,64	717,00
-1631,51	727,00
-1622,39	687,00
-1613,28	620,00
-1604,19	733,00
-1595,10	711,00
-1586,03	578,00
-1576,97	646,00
-1567,93	596,00
-1558,89	669,00
-1549,87	572,00
-1540,86	598,00
-1531,86	677,00
-1522,87	651,00
-1513,90	723,00
-1504,93	611,00
-1495,98	587,00
-1487,04	703,00
-1478,12	544,00
-1469,20	619,00
-1460,30	664,00
-1451,40	835,00
-1442,52	714,00
-1433,65	602,00
-1424,80	636,00
-1415,95	662,00
-1407,12	742,00
-1398,30	720,00
-1389,48	598,00
-1380,69	717,00
-1371,90	647,00
-1363,12	603,00
-1354,36	777,00
-1345,60	698,00
-1336,86	651,00
-1328,13	751,00
-1319,41	683,00
-1310,70	605,00
-1302,01	780,00
-1293,32	739,00
-1284,65	633,00
-1275,99	640,00
-1267,33	752,00
-1258,69	525,00
-1250,06	726,00
-1241,45	570,00
-1232,84	653,00
-1224,25	750,00
-1215,66	824,00
-1207,09	669,00
-1198,53	769,00
-1189,97	653,00
-1181,43	581,00
-1172,91	796,00
-1164,39	869,00
-1155,88	606,00
-1147,38	667,00
-1138,90	680,00
-1130,43	584,00
-1121,96	859,00
-1113,51	708,00
-1105,07	642,00
-1096,64	739,00
-1088,22	704,00
-1079,81	758,00
-1071,41	824,00
-1063,02	701,00
-1054,65	723,00
-1046,28	612,00
-1037,92	708,00
-1029,58	754,00
-1021,24	726,00
-1012,92	915,00
-1004,61	575,00
-996,30	804,00
-988,01	584,00
-979,73	629,00
-971,46	766,00
-963,20	634,00
-954,95	688,00
-946,71	547,00
-938,48	632,00
-930,26	633,00
-922,06	716,00
-913,86	704,00
-905,67	718,00
-897,49	658,00
-889,33	621,00
-881,17	703,00
-873,02	626,00
-864,89	683,00
-856,76	680,00
-848,65	628,00
-840,54	753,00
-832,45	800,00
-824,36	647,00
-816,29	627,00
-808,22	762,00
-800,17	812,00
-792,12	767,00
-784,09	647,00
-776,06	704,00
-768,05	634,00
-760,04	555,00
-752,05	664,00
-744,07	716,00
-736,09	641,00
-728,13	612,00
-720,17	656,00
-712,23	591,00
-704,29	729,00
-696,37	625,00
-688,45	726,00
-680,55	679,00
-672,65	594,00
-664,77	654,00
-656,89	676,00
-649,03	758,00
-641,17	739,00
-633,32	665,00
-625,49	665,00
-617,66	671,00
-609,84	750,00
-602,03	673,00
-594,23	567,00
-586,45	656,00
-578,67	590,00
-570,90	569,00
-563,14	703,00
-555,39	636,00
-547,65	799,00
-539,91	709,00
-532,19	704,00
-524,48	744,00
-516,78	616,00
-509,08	642,00
-501,40	616,00
-493,72	638,00
-486,06	669,00
-478,40	763,00
-470,76	540,00
-463,12	511,00
-455,49	690,00
-447,87	529,00
-440,26	720,00
-432,66	694,00
-425,07	780,00
-417,49	702,00
-409,92	628,00
-402,35	636,00
-394,80	681,00
-387,25	567,00
-379,72	663,00
-372,19	615,00
-364,67	802,00
-357,17	737,00
-349,67	626,00
-342,18	678,00
-334,69	768,00
-327,22	752,00
-319,76	697,00
-312,30	772,00
-304,86	799,00
-297,42	691,00
-290,00	657,00
-282,58	734,00
-275,17	852,00
-267,77	729,00
-260,37	771,00
-252,99	761,00
-245,62	725,00
-238,25	741,00
-230,90	731,00
-223,55	729,00
-216,21	805,00
-208,88	798,00
-201,56	772,00
-194,25	835,00
-186,94	936,00
-179,65	971,00
-172,36	957,00
-165,08	860,00
-157,81	1141,00
-150,55	1131,00
-143,30	1156,00
-136,06	1076,00
-128,82	1252,00
-121,60	1273,00
-114,38	1350,00
-107,17	1415,00
-99,97	1635,00
-92,78	1732,00
-85,60	1818,00
-78,42	2057,00
-71,25	2290,00
-64,10	2402,00
-56,95	2836,00
-49,81	3233,00
-42,67	3971,00
-35,55	4647,00
-28,43	5955,00
-21,33	9377,00
-14,23	27779,00
-7,14	56670,00
-0,05	56467,00
7,02	56225,00
14,09	56403,00
21,14	30224,00
28,19	12654,00
35,23	7963,00
42,27	6062,00
49,29	5164,00
56,31	4323,00
63,32	3705,00
70,32	3317,00
77,31	2778,00
84,29	2527,00
91,27	2216,00
98,23	2284,00
105,19	2006,00
112,14	2058,00
119,09	2461,00
126,02	3403,00
132,95	3679,00
139,87	3848,00
146,78	3864,00
153,68	3605,00
160,58	3568,00
167,46	3486,00
174,34	3496,00
181,21	3341,00
188,08	3313,00
194,93	3449,00
201,78	3420,00
208,62	3436,00
215,45	3384,00
222,27	3518,00
229,09	3431,00
235,90	3288,00
242,70	3365,00
249,49	3267,00
256,27	3253,00
263,05	3166,00
269,82	3111,00
276,58	3185,00
283,33	2970,00
290,08	3227,00
296,82	3140,00
303,55	2899,00
310,27	2987,00
316,98	3043,00
323,69	2971,00
330,39	2875,00
337,08	3009,00
343,76	2905,00
350,44	2943,00
357,11	2996,00
363,77	2807,00
370,42	2930,00
377,07	2797,00
383,71	2819,00
390,34	2838,00
396,96	2745,00
403,58	2808,00
410,19	2820,00
416,79	2967,00
423,38	2914,00
429,97	2919,00
436,55	2692,00
443,12	2787,00
449,68	2665,00
456,24	2740,00
462,79	2669,00
469,33	2572,00
475,86	2550,00
482,39	2596,00
488,91	2627,00
495,42	2538,00
501,93	2525,00
508,42	2482,00
514,91	2635,00
521,40	2416,00
527,87	2585,00
534,34	2402,00
540,80	2509,00
547,25	2461,00
553,70	2497,00
560,14	2487,00
566,57	2463,00
573,00	2425,00
579,41	2479,00
585,83	2451,00
592,23	2451,00
598,62	2422,00
605,01	2412,00
611,40	2448,00
617,77	2470,00
624,14	2380,00
630,50	2477,00
636,85	2438,00
643,20	2397,00
649,54	2426,00
655,87	2355,00
662,20	2419,00
668,52	2342,00
674,83	2330,00
681,13	2459,00
687,43	2189,00
693,72	2264,00
700,00	2257,00
706,28	2258,00
712,55	2233,00
718,81	2345,00
725,07	2337,00
731,32	2240,00
737,56	2403,00
743,79	2311,00
750,02	2340,00
756,24	2267,00
762,46	2256,00
768,67	2498,00
774,87	2296,00
781,06	2385,00
787,25	2375,00
793,43	2326,00
799,60	2282,00
805,77	2421,00
811,93	2409,00
818,08	2229,00
824,23	2293,00
830,37	2424,00
836,50	2390,00
842,63	2356,00
848,75	2323,00
854,87	2339,00
860,97	2253,00
867,07	2314,00
873,17	2443,00
879,25	2362,00
885,33	2282,00
891,41	2355,00
897,47	2345,00
903,53	2311,00
909,59	2284,00
915,63	2366,00
921,67	2216,00
927,71	2305,00
933,74	2208,00
939,76	2084,00
945,77	2175,00
951,78	2132,00
957,78	2071,00
963,78	2174,00
969,77	2088,00
975,75	2122,00
981,72	2202,00
987,69	3232,00
993,66	2182,00
999,61	2187,00
1005,56	2214,00
1011,51	2164,00
1017,44	2122,00
1023,37	2210,00
1029,30	2143,00
1035,22	2286,00
1041,13	2061,00
1047,03	2175,00
1052,93	2492,00
1058,83	2634,00
1064,71	2895,00
1070,59	2687,00
1076,47	2585,00
1082,33	2300,00
1088,20	2337,00
1094,05	2293,00
1099,90	2220,00
1105,74	2056,00
1111,58	2228,00
1117,41	2210,00
1123,23	2538,00
1129,05	2618,00
1134,86	2620,00
1140,67	2414,00
1146,47	2192,00
1152,26	2246,00
1158,05	2097,00
1163,83	2149,00
1169,60	2048,00
1175,37	2179,00
1181,13	2183,00
1186,89	2122,00
1192,64	2157,00
1198,38	2181,00
1204,12	2021,00
1209,85	2033,00
1215,58	2141,00
1221,30	2078,00
1227,02	2023,00
1232,72	2168,00
1238,43	2017,00
1244,12	2060,00
1249,81	2035,00
1255,50	2161,00
1261,17	2096,00
1266,85	2162,00
1272,51	2135,00
1278,17	2153,00
1283,83	2329,00
1289,47	2630,00
1295,12	3011,00
1300,75	3037,00
1306,38	2618,00
1312,01	2429,00
1317,63	2419,00
1323,24	2356,00
1328,85	2177,00
1334,45	2219,00
1340,04	2239,00
1345,63	2272,00
1351,22	2324,00
1356,80	2290,00
1362,37	2367,00
1367,93	2330,00
1373,49	2429,00
1379,05	2254,00
1384,60	2396,00
1390,14	2264,00
1395,68	2291,00
1401,21	2382,00
1406,74	2340,00
1412,26	2459,00
1417,77	2660,00
1423,28	2632,00
1428,78	2829,00
1434,28	3182,00
1439,77	3293,00
1445,26	3369,00
1450,74	3161,00
1456,22	3004,00
1461,68	2897,00
1467,15	2819,00
1472,61	2609,00
1478,06	2537,00
1483,51	2448,00
1488,95	2094,00
1494,38	2096,00
1499,81	2095,00
1505,24	2105,00
1510,65	2099,00
1516,07	2087,00
1521,48	2070,00
1526,88	1963,00
1532,27	1917,00
1537,67	1968,00
1543,05	2022,00
1548,43	2061,00
1553,81	2037,00
1559,18	1844,00
1564,54	2004,00
1569,90	1952,00
1575,25	1889,00
1580,60	1948,00
1585,94	1926,00
1591,28	1903,00
1596,61	1916,00
1601,93	1854,00
1607,25	2012,00
1612,57	2038,00
1617,88	1875,00
1623,18	2012,00
1628,48	1888,00
1633,77	1968,00
1639,06	1964,00
1644,34	1798,00
1649,62	1805,00
1654,89	1966,00
1660,16	1799,00
1665,42	1906,00
1670,67	1810,00
1675,92	1782,00
1681,17	1891,00
1686,41	1746,00
1691,64	1753,00
1696,87	1701,00
1702,10	1850,00
1707,32	1864,00
1712,53	1729,00
1717,74	1703,00
1722,94	1843,00
1728,14	1662,00
1733,33	1727,00
1738,52	1623,00
1743,70	1845,00
1748,88	1862,00
1754,05	1745,00
1759,22	1617,00
1764,38	1815,00
1769,53	1684,00
1774,69	1653,00
1779,83	1698,00
1784,97	1737,00
1790,11	1672,00
1795,24	1601,00
1800,36	1674,00
1805,48	1678,00
1810,60	1599,00
1815,71	1639,00
1820,82	1519,00
1825,92	1629,00
1831,01	1688,00
1836,10	1677,00
1841,19	1602,00
1846,26	1590,00
1851,34	1650,00
1856,41	1674,00
1861,47	1574,00
1866,53	1733,00
1871,59	1665,00
1876,64	1514,00
1881,68	1500,00
1886,72	1639,00
1891,76	1441,00
1896,79	1485,00
1901,81	1538,00
1906,83	1582,00
1911,85	1520,00
1916,86	1535,00
1921,86	1456,00
1926,86	1596,00
1931,86	1459,00
1936,85	1414,00
1941,83	1536,00
1946,81	1455,00
1951,79	1544,00
1956,76	1411,00
1961,72	1395,00
1966,68	1373,00
1971,64	1445,00
1976,59	1394,00
1981,54	1349,00
1986,48	1304,00
1991,42	1348,00
1996,35	1492,00
2001,27	1481,00
2006,20	1478,00
2011,11	1328,00
2016,03	1367,00
2020,93	1371,00
2025,84	1436,00
2030,73	1447,00
2035,63	1305,00
2040,52	1430,00
2045,40	1280,00
2050,28	1280,00
2055,15	1382,00
2060,02	1318,00
2064,89	1322,00
2069,75	1362,00
2074,60	1360,00
2079,46	1250,00
2084,30	1326,00
2089,14	1365,00
2093,98	1419,00
2098,81	1357,00
2103,64	1320,00
2108,46	1385,00
2113,28	1449,00
2118,09	1434,00
2122,90	1343,00
2127,70	1282,00
2132,50	1284,00
2137,30	1271,00
2142,09	1272,00
2146,87	1225,00
2151,66	1337,00
2156,43	1326,00
2161,20	1345,00
2165,97	1351,00
2170,73	1228,00
2175,49	1348,00
2180,24	1351,00
2184,99	1482,00
2189,74	1383,00
2194,48	1331,00
2199,21	1489,00
2203,94	1149,00
2208,67	1341,00
2213,39	1178,00
2218,11	1299,00
2222,82	1212,00
2227,53	1201,00
2232,23	1249,00
2236,93	1255,00
2241,63	1134,00
2246,32	1280,00
2251,00	1181,00
2255,68	1268,00
2260,36	1224,00
2265,03	1249,00
2269,70	1318,00
2274,36	1221,00
2279,02	1149,00
2283,68	1246,00
2288,33	1251,00
2292,97	1204,00
2297,61	1147,00
2302,25	1254,00
2306,88	1160,00
2311,51	1218,00
2316,14	1050,00
2320,75	1240,00
2325,37	1164,00
2329,98	1344,00
2334,59	1037,00
2339,19	1198,00
2343,79	1139,00
2348,38	1113,00
2352,97	1114,00
2357,55	1198,00
2362,13	1085,00
2366,71	1066,00
2371,28	1233,00
2375,85	1281,00
2380,41	1249,00
2384,97	1193,00
2389,52	1141,00
2394,07	1221,00
2398,62	1168,00
2403,16	1208,00
2407,70	986,00
2412,23	1231,00
2416,76	1194,00
2421,29	1076,00
2425,81	1201,00
2430,32	1114,00
2434,84	1040,00
2439,34	1184,00
2443,85	1099,00
2448,35	1180,00
2452,84	1086,00
2457,33	1093,00
2461,82	1063,00
2466,30	1081,00
2470,78	957,00
2475,25	982,00
2479,72	1037,00
2484,19	1044,00
2488,65	1024,00
2493,11	978,00
2497,56	1014,00
2502,01	1000,00
2506,46	1185,00
2510,90	1053,00
2515,34	1100,00
2519,77	963,00
2524,20	1073,00
2528,62	1101,00
2533,04	1059,00
2537,46	938,00
2541,87	970,00
2546,28	1058,00
2550,68	1027,00
2555,08	1074,00
2559,48	1102,00
2563,87	999,00
2568,26	1087,00
2572,64	1116,00
2577,02	1146,00
2581,40	981,00
2585,77	894,00
2590,14	955,00
2594,50	988,00
2598,86	1017,00
2603,22	1065,00
2607,57	952,00
2611,92	1061,00
2616,26	1039,00
2620,60	1024,00
2624,94	931,00
2629,27	1101,00
2633,60	1015,00
2637,92	1055,00
2642,24	1131,00
2646,56	901,00
2650,87	996,00
2655,18	1127,00
2659,48	947,00
2663,78	1038,00
2668,08	1016,00
2672,37	1000,00
2676,66	1123,00
2680,95	1087,00
2685,23	1031,00
2689,50	1070,00
2693,78	1032,00
2698,05	1023,00
2702,31	1030,00
2706,57	1110,00
2710,83	1161,00
2715,08	1115,00
2719,33	1267,00
2723,58	1180,00
2727,82	1151,00
2732,06	1054,00
2736,29	1073,00
2740,53	1055,00
2744,75	1015,00
2748,97	1149,00
2753,19	923,00
2757,41	985,00
2761,62	1053,00
2765,83	1002,00
2770,03	964,00
2774,23	1048,00
2778,43	942,00
2782,62	1016,00
2786,81	1098,00
2791,00	1010,00
2795,18	1074,00
2799,35	1114,00
2803,53	1120,00
2807,70	1211,00
2811,86	1074,00
2816,03	1216,00
2820,19	1151,00
2824,34	1171,00
2828,49	1267,00
2832,64	1497,00
2836,78	1524,00
2840,92	1694,00
2845,06	1871,00
2849,19	2066,00
2853,32	2175,00
2857,45	2241,00
2861,57	2190,00
2865,69	2154,00
2869,80	2086,00
2873,91	2149,00
2878,02	2270,00
2882,12	2211,00
2886,22	2189,00
2890,32	2411,00
2894,41	2173,00
2898,50	2017,00
2902,58	1984,00
2906,67	1977,00
2910,74	1835,00
2914,82	1710,00
2918,89	1616,00
2922,96	1669,00
2927,02	1655,00
2931,08	1558,00
2935,13	1415,00
2939,19	1429,00
2943,24	1315,00
2947,28	1232,00
2951,32	1263,00
2955,36	1123,00
2959,40	1180,00
2963,43	1333,00
2967,46	1043,00
2971,48	1077,00
2975,50	1052,00
2979,52	1040,00
2983,53	1131,00
2987,54	895,00
2991,55	979,00
2995,55	973,00
2999,55	797,00
3003,54	897,00
3007,54	941,00
3011,53	782,00
3015,51	933,00
3019,49	940,00
3023,47	937,00
3027,45	821,00
3031,42	808,00
3035,39	823,00
3039,35	866,00
3043,31	794,00
3047,27	831,00
3051,22	960,00
3055,17	833,00
3059,12	791,00
3063,06	853,00
3067,00	740,00
3070,94	720,00
3074,87	815,00
3078,80	873,00
3082,73	734,00
3086,65	777,00
3090,57	804,00
3094,49	779,00
3098,40	889,00
3102,31	773,00
3106,22	680,00
3110,12	830,00
3114,02	807,00
3117,92	905,00
3121,81	759,00
3125,70	753,00
3129,58	669,00
3133,47	721,00
3137,34	774,00
3141,22	717,00
3145,09	855,00
3148,96	698,00
3152,83	790,00
3156,69	937,00
3160,55	805,00
3164,40	754,00
3168,26	686,00
3172,10	726,00
3175,95	873,00
3179,79	821,00
3183,63	810,00
3187,47	817,00
3191,30	889,00
3195,13	865,00
3198,95	724,00
3202,78	768,00
3206,60	719,00
3210,41	750,00
3214,23	752,00
3218,03	675,00
3221,84	732,00
3225,64	832,00
3229,44	690,00
3233,24	725,00
3237,03	815,00
3240,82	849,00
3244,61	772,00
3248,39	611,00
3252,17	819,00
3255,95	951,00
3259,72	861,00
3263,49	887,00
3267,26	690,00
3271,03	751,00
3274,79	594,00
3278,54	646,00
3282,30	683,00
3286,05	781,00
3289,80	762,00
3293,54	737,00
3297,29	752,00
3301,02	751,00
3304,76	656,00
3308,49	807,00
3312,22	667,00
3315,95	695,00
3319,67	706,00
3323,39	767,00
3327,10	753,00
3330,82	781,00
3334,53	728,00
3338,24	708,00
3341,94	795,00
3345,64	692,00
3349,34	758,00
3353,03	753,00
3356,72	781,00
3360,41	731,00
3364,10	699,00
3367,78	773,00
3371,46	705,00
3375,13	751,00
3378,81	679,00
3382,48	596,00
3386,14	780,00
3389,81	711,00
3393,47	803,00
3397,12	806,00
3400,78	723,00
3404,43	700,00
3408,08	826,00
3411,72	709,00
3415,36	721,00
3419,00	768,00
3422,64	738,00
3426,27	747,00
3429,90	661,00
3433,53	759,00
3437,15	705,00
3440,77	659,00
3444,39	685,00
3448,00	710,00
3451,62	679,00
3455,22	669,00
3458,83	851,00
3462,43	663,00
3466,03	745,00
3469,63	641,00
3473,22	687,00
3476,81	633,00
3480,40	626,00
3483,99	680,00
3487,57	791,00
3491,15	818,00
3494,72	614,00
3498,29	598,00
3501,86	683,00
3505,43	746,00
3508,99	651,00
3512,56	687,00
3516,11	721,00
3519,67	659,00
3523,22	759,00
3526,77	622,00
3530,32	697,00
3533,86	679,00
3537,40	681,00
3540,94	658,00
3544,47	534,00
3548,00	713,00
3551,53	644,00
3555,06	719,00
3558,58	776,00
3562,10	671,00
3565,62	678,00
3569,13	745,00
3572,64	742,00
3576,15	633,00
3579,66	737,00
3583,16	639,00
3586,66	549,00
3590,16	620,00
3593,65	543,00
3597,14	582,00
3600,63	598,00
3604,11	660,00
3607,60	656,00
3611,08	647,00
3614,55	736,00
3618,03	595,00
3621,50	597,00
3624,97	632,00
3628,43	701,00
3631,90	641,00
3635,36	631,00
3638,81	540,00
3642,27	656,00
3645,72	720,00
3649,17	611,00
3652,61	604,00
3656,06	654,00
3659,50	564,00
3662,93	564,00
3666,37	648,00
3669,80	654,00
3673,23	722,00
3676,65	762,00
3680,08	669,00
3683,50	449,00
3686,92	650,00
3690,33	519,00
3693,74	593,00
3697,15	549,00
3700,56	671,00
3703,96	575,00
3707,36	561,00
3710,76	486,00
3714,16	599,00
3717,55	481,00
3720,94	651,00
3724,33	544,00
3727,71	601,00
3731,10	610,00
3734,48	563,00
3737,85	482,00
3741,23	595,00
3744,60	608,00
3747,97	569,00
3751,33	598,00
3754,69	573,00
3758,05	589,00
3761,41	561,00
3764,77	499,00
3768,12	543,00
3771,47	446,00
3774,82	585,00
3778,16	-1,00
3781,50	15,00
3784,84	12,00
3788,18	10,00
>>>>>End Processed Spectral Data<<<<<
