SpectraSuite Data File
++++++++++++++++++++++++++++++++++++
Date: Wed Feb 04 16:22:45 ICT 2026
User: Administrator
Dark Spectrum Present: Yes
Reference Spectrum Present: No
Number of Sampled Component Spectra: 1
Spectrometers: MAYP113682
Integration Time (usec): 3000000 (MAYP113682)
Spectra Averaged: 1 (MAYP113682)
Boxcar Smoothing: 0 (MAYP113682)
Correct for Electrical Dark: No (MAYP113682)
Strobe/Lamp Enabled: No (MAYP113682)
Correct for Detector Non-linearity: No (MAYP113682)
Correct for Stray Light: No (MAYP113682)
Number of Pixels in Processed Spectrum: 2068
>>>>>Begin Processed Spectral Data<<<<<
-37534,58	2,00
-37414,56	0,00
-37295,11	-7,00
-37176,24	0,00
-37057,95	174,00
-36940,22	174,00
-36823,05	132,00
-36706,45	211,00
-36590,40	172,00
-36474,90	171,00
-36359,95	107,00
-36245,55	152,00
-36131,68	59,00
-36018,35	221,00
-35905,55	184,00
-35793,29	230,00
-35681,54	242,00
-35570,32	131,00
-35459,62	225,00
-35349,43	63,00
-35239,75	132,00
-35130,58	120,00
-35021,91	248,00
-34913,74	102,00
-34806,07	166,00
-34698,89	104,00
-34592,20	166,00
-34486,00	133,00
-34380,28	157,00
-34275,04	137,00
-34170,27	166,00
-34065,98	149,00
-33962,16	159,00
-33858,81	51,00
-33755,92	226,00
-33653,49	69,00
-33551,52	214,00
-33450,01	142,00
-33348,94	74,00
-33248,33	227,00
-33148,16	69,00
-33048,43	121,00
-32949,14	218,00
-32850,29	292,00
-32751,87	187,00
-32653,89	217,00
-32556,33	259,00
-32459,20	45,00
-32362,49	155,00
-32266,19	177,00
-32170,32	213,00
-32074,86	188,00
-31979,82	251,00
-31885,18	194,00
-31790,95	274,00
-31697,12	99,00
-31603,69	40,00
-31510,67	297,00
-31418,04	242,00
-31325,80	70,00
-31233,95	288,00
-31142,49	145,00
-31051,42	304,00
-30960,73	129,00
-30870,43	213,00
-30780,50	184,00
-30690,95	220,00
-30601,77	173,00
-30512,97	169,00
-30424,53	222,00
-30336,46	132,00
-30248,76	137,00
-30161,42	38,00
-30074,44	267,00
-29987,81	203,00
-29901,55	55,00
-29815,63	174,00
-29730,07	193,00
-29644,86	263,00
-29560,00	185,00
-29475,48	112,00
-29391,30	177,00
-29307,47	193,00
-29223,97	207,00
-29140,81	126,00
-29057,99	102,00
-28975,50	189,00
-28893,34	140,00
-28811,51	98,00
-28730,00	129,00
-28648,82	170,00
-28567,97	181,00
-28487,43	170,00
-28407,21	171,00
-28327,32	17,00
-28247,73	176,00
-28168,46	74,00
-28089,50	210,00
-28010,85	114,00
-27932,51	204,00
-27854,48	274,00
-27776,75	107,00
-27699,32	138,00
-27622,19	247,00
-27545,37	62,00
-27468,84	177,00
-27392,60	299,00
-27316,66	171,00
-27241,01	163,00
-27165,66	55,00
-27090,59	180,00
-27015,81	206,00
-26941,31	191,00
-26867,10	202,00
-26793,17	219,00
-26719,52	216,00
-26646,15	305,00
-26573,06	202,00
-26500,24	207,00
-26427,70	335,00
-26355,43	195,00
-26283,43	212,00
-26211,71	221,00
-26140,25	91,00
-26069,06	314,00
-25998,13	177,00
-25927,46	79,00
-25857,06	130,00
-25786,92	105,00
-25717,04	241,00
-25647,42	154,00
-25578,05	240,00
-25508,94	128,00
-25440,09	238,00
-25371,48	289,00
-25303,13	150,00
-25235,02	120,00
-25167,17	235,00
-25099,56	205,00
-25032,19	241,00
-24965,07	90,00
-24898,20	137,00
-24831,56	327,00
-24765,17	169,00
-24699,01	91,00
-24633,10	40,00
-24567,41	200,00
-24501,97	111,00
-24436,75	190,00
-24371,77	242,00
-24307,03	187,00
-24242,51	129,00
-24178,22	247,00
-24114,16	185,00
-24050,32	359,00
-23986,71	196,00
-23923,32	192,00
-23860,16	192,00
-23797,22	258,00
-23734,50	231,00
-23672,00	-79,00
-23609,71	227,00
-23547,65	251,00
-23485,80	219,00
-23424,16	197,00
-23362,74	157,00
-23301,53	212,00
-23240,54	215,00
-23179,75	117,00
-23119,17	182,00
-23058,80	239,00
-22998,64	132,00
-22938,68	150,00
-22878,93	213,00
-22819,39	180,00
-22760,04	138,00
-22700,90	203,00
-22641,96	182,00
-22583,22	250,00
-22524,68	191,00
-22466,33	212,00
-22408,19	205,00
-22350,23	94,00
-22292,48	209,00
-22234,92	150,00
-22177,55	120,00
-22120,37	163,00
-22063,38	182,00
-22006,58	112,00
-21949,98	220,00
-21893,56	141,00
-21837,33	120,00
-21781,28	128,00
-21725,42	213,00
-21669,74	206,00
-21614,25	119,00
-21558,94	123,00
-21503,81	175,00
-21448,86	209,00
-21394,10	135,00
-21339,51	281,00
-21285,10	119,00
-21230,86	195,00
-21176,81	159,00
-21122,93	127,00
-21069,22	244,00
-21015,69	307,00
-20962,33	123,00
-20909,14	93,00
-20856,13	28,00
-20803,28	215,00
-20750,61	84,00
-20698,10	112,00
-20645,76	201,00
-20593,59	273,00
-20541,59	169,00
-20489,75	269,00
-20438,07	145,00
-20386,56	246,00
-20335,22	189,00
-20284,03	260,00
-20233,01	170,00
-20182,15	173,00
-20131,45	233,00
-20080,91	201,00
-20030,52	119,00
-19980,30	136,00
-19930,23	198,00
-19880,32	155,00
-19830,56	147,00
-19780,96	153,00
-19731,52	159,00
-19682,23	187,00
-19633,09	187,00
-19584,10	173,00
-19535,26	327,00
-19486,58	144,00
-19438,04	180,00
-19389,66	219,00
-19341,42	211,00
-19293,33	172,00
-19245,39	115,00
-19197,60	331,00
-19149,95	268,00
-19102,45	140,00
-19055,09	165,00
-19007,87	172,00
-18960,80	154,00
-18913,87	155,00
-18867,09	311,00
-18820,44	233,00
-18773,94	193,00
-18727,57	95,00
-18681,35	173,00
-18635,26	307,00
-18589,31	141,00
-18543,50	153,00
-18497,83	164,00
-18452,29	146,00
-18406,89	44,00
-18361,63	256,00
-18316,50	75,00
-18271,50	170,00
-18226,63	31,00
-18181,90	227,00
-18137,30	96,00
-18092,84	293,00
-18048,50	328,00
-18004,29	165,00
-17960,22	227,00
-17916,27	191,00
-17872,45	170,00
-17828,76	126,00
-17785,20	58,00
-17741,77	144,00
-17698,46	210,00
-17655,28	173,00
-17612,22	146,00
-17569,29	228,00
-17526,48	306,00
-17483,79	244,00
-17441,23	72,00
-17398,79	125,00
-17356,48	121,00
-17314,28	132,00
-17272,21	184,00
-17230,26	126,00
-17188,42	175,00
-17146,71	186,00
-17105,12	263,00
-17063,64	145,00
-17022,28	78,00
-16981,04	143,00
-16939,92	235,00
-16898,91	102,00
-16858,02	107,00
-16817,25	153,00
-16776,59	232,00
-16736,04	222,00
-16695,61	254,00
-16655,29	111,00
-16615,09	216,00
-16574,99	262,00
-16535,01	214,00
-16495,15	139,00
-16455,39	102,00
-16415,74	131,00
-16376,21	160,00
-16336,78	164,00
-16297,46	204,00
-16258,26	128,00
-16219,16	266,00
-16180,17	195,00
-16141,28	229,00
-16102,51	213,00
-16063,84	76,00
-16025,27	226,00
-15986,82	259,00
-15948,46	152,00
-15910,22	217,00
-15872,07	199,00
-15834,04	92,00
-15796,10	198,00
-15758,27	123,00
-15720,54	56,00
-15682,91	228,00
-15645,39	218,00
-15607,97	221,00
-15570,64	208,00
-15533,42	116,00
-15496,30	126,00
-15459,28	297,00
-15422,36	124,00
-15385,54	158,00
-15348,82	182,00
-15312,19	73,00
-15275,66	122,00
-15239,23	155,00
-15202,90	270,00
-15166,67	133,00
-15130,53	155,00
-15094,48	297,00
-15058,54	228,00
-15022,68	67,00
-14986,93	222,00
-14951,26	228,00
-14915,69	255,00
-14880,22	109,00
-14844,84	102,00
-14809,55	208,00
-14774,35	120,00
-14739,25	228,00
-14704,24	21,00
-14669,32	270,00
-14634,49	200,00
-14599,75	265,00
-14565,10	46,00
-14530,55	115,00
-14496,08	137,00
-14461,70	123,00
-14427,41	169,00
-14393,21	118,00
-14359,10	139,00
-14325,07	265,00
-14291,14	193,00
-14257,29	133,00
-14223,52	120,00
-14189,85	167,00
-14156,26	245,00
-14122,76	311,00
-14089,34	158,00
-14056,01	220,00
-14022,76	66,00
-13989,60	181,00
-13956,52	88,00
-13923,53	206,00
-13890,62	243,00
-13857,79	205,00
-13825,05	190,00
-13792,39	158,00
-13759,81	109,00
-13727,31	173,00
-13694,90	200,00
-13662,57	139,00
-13630,31	222,00
-13598,14	252,00
-13566,05	203,00
-13534,05	177,00
-13502,12	148,00
-13470,27	173,00
-13438,50	193,00
-13406,80	120,00
-13375,19	183,00
-13343,66	72,00
-13312,20	145,00
-13280,83	307,00
-13249,53	78,00
-13218,30	164,00
-13187,16	166,00
-13156,09	222,00
-13125,10	69,00
-13094,18	186,00
-13063,34	183,00
-13032,58	170,00
-13001,89	209,00
-12971,28	210,00
-12940,74	165,00
-12910,27	198,00
-12879,88	151,00
-12849,57	182,00
-12819,33	100,00
-12789,16	230,00
-12759,06	185,00
-12729,04	248,00
-12699,09	1279,00
-12669,21	143,00
-12639,41	292,00
-12609,68	57,00
-12580,02	155,00
-12550,43	256,00
-12520,91	199,00
-12491,46	146,00
-12462,08	262,00
-12432,77	181,00
-12403,54	143,00
-12374,37	220,00
-12345,27	150,00
-12316,24	251,00
-12287,29	269,00
-12258,40	108,00
-12229,57	111,00
-12200,82	191,00
-12172,14	18,00
-12143,52	101,00
-12114,97	220,00
-12086,49	113,00
-12058,07	239,00
-12029,73	273,00
-12001,44	236,00
-11973,23	97,00
-11945,08	209,00
-11917,00	199,00
-11888,98	174,00
-11861,03	159,00
-11833,15	179,00
-11805,32	268,00
-11777,57	311,00
-11749,88	267,00
-11722,25	68,00
-11694,69	115,00
-11667,19	158,00
-11639,75	146,00
-11612,38	68,00
-11585,07	204,00
-11557,83	113,00
-11530,65	197,00
-11503,53	155,00
-11476,47	189,00
-11449,48	195,00
-11422,54	278,00
-11395,67	119,00
-11368,86	290,00
-11342,11	252,00
-11315,43	256,00
-11288,80	113,00
-11262,23	266,00
-11235,73	222,00
-11209,28	347,00
-11182,90	131,00
-11156,57	286,00
-11130,31	162,00
-11104,10	112,00
-11077,96	222,00
-11051,87	165,00
-11025,84	221,00
-10999,87	188,00
-10973,96	159,00
-10948,11	196,00
-10922,31	168,00
-10896,58	133,00
-10870,90	380,00
-10845,28	74,00
-10819,71	189,00
-10794,20	270,00
-10768,75	227,00
-10743,36	177,00
-10718,02	194,00
-10692,74	207,00
-10667,52	267,00
-10642,35	295,00
-10617,24	228,00
-10592,18	224,00
-10567,18	293,00
-10542,23	218,00
-10517,34	224,00
-10492,51	218,00
-10467,72	285,00
-10443,00	341,00
-10418,32	149,00
-10393,70	263,00
-10369,14	206,00
-10344,63	426,00
-10320,17	229,00
-10295,77	411,00
-10271,42	386,00
-10247,12	422,00
-10222,88	357,00
-10198,68	420,00
-10174,54	409,00
-10150,46	444,00
-10126,42	477,00
-10102,44	457,00
-10078,51	391,00
-10054,63	427,00
-10030,80	498,00
-10007,03	711,00
-9983,30	743,00
-9959,63	526,00
-9936,01	731,00
-9912,44	634,00
-9888,92	623,00
-9865,44	723,00
-9842,02	673,00
-9818,65	713,00
-9795,33	820,00
-9772,06	707,00
-9748,84	780,00
-9725,67	945,00
-9702,55	1037,00
-9679,47	1142,00
-9656,45	1325,00
-9633,47	1240,00
-9610,55	1444,00
-9587,67	1471,00
-9564,84	1462,00
-9542,06	1699,00
-9519,32	1983,00
-9496,64	2034,00
-9474,00	2210,00
-9451,41	2332,00
-9428,87	2500,00
-9406,37	2312,00
-9383,92	2319,00
-9361,52	2260,00
-9339,17	2481,00
-9316,86	2910,00
-9294,60	3183,00
-9272,38	3694,00
-9250,21	4008,00
-9228,09	4003,00
-9206,01	3915,00
-9183,98	3775,00
-9162,00	3504,00
-9140,06	3327,00
-9118,16	3378,00
-9096,31	3689,00
-9074,51	3757,00
-9052,75	3658,00
-9031,04	3662,00
-9009,37	3327,00
-8987,74	2852,00
-8966,16	2491,00
-8944,63	2354,00
-8923,14	2306,00
-8901,69	2373,00
-8880,29	2453,00
-8858,93	2861,00
-8837,61	2874,00
-8816,34	3266,00
-8795,11	3219,00
-8773,92	3173,00
-8752,78	2842,00
-8731,68	2383,00
-8710,62	2606,00
-8689,61	2708,00
-8668,63	2768,00
-8647,70	3099,00
-8626,82	3005,00
-8605,97	3024,00
-8585,17	2748,00
-8564,41	2496,00
-8543,69	2336,00
-8523,01	2179,00
-8502,37	2394,00
-8481,78	2444,00
-8461,23	2686,00
-8440,71	2915,00
-8420,24	2996,00
-8399,81	3025,00
-8379,42	3054,00
-8359,08	2885,00
-8338,77	2574,00
-8318,50	2462,00
-8298,27	2378,00
-8278,09	2424,00
-8257,94	2468,00
-8237,83	2943,00
-8217,76	2890,00
-8197,74	2961,00
-8177,75	2774,00
-8157,80	2565,00
-8137,89	2424,00
-8118,02	2275,00
-8098,19	2186,00
-8078,40	2281,00
-8058,65	2412,00
-8038,93	2365,00
-8019,26	2323,00
-7999,62	2279,00
-7980,02	2127,00
-7960,46	1989,00
-7940,94	1866,00
-7921,46	1936,00
-7902,01	1965,00
-7882,60	1814,00
-7863,23	1847,00
-7843,90	2112,00
-7824,61	2094,00
-7805,35	2194,00
-7786,13	2162,00
-7766,95	2092,00
-7747,80	1933,00
-7728,69	2081,00
-7709,62	1960,00
-7690,59	2088,00
-7671,59	2304,00
-7652,63	2293,00
-7633,70	2195,00
-7614,81	2182,00
-7595,96	1986,00
-7577,15	1804,00
-7558,37	1907,00
-7539,62	1943,00
-7520,91	1960,00
-7502,24	2103,00
-7483,60	2009,00
-7465,00	1983,00
-7446,44	1775,00
-7427,91	1629,00
-7409,41	1478,00
-7390,95	1344,00
-7372,53	1280,00
-7354,14	1284,00
-7335,78	1363,00
-7317,46	1489,00
-7299,18	1506,00
-7280,92	1761,00
-7262,71	2007,00
-7244,52	2038,00
-7226,38	2182,00
-7208,26	1993,00
-7190,18	1898,00
-7172,14	1736,00
-7154,12	1799,00
-7136,15	1826,00
-7118,20	1837,00
-7100,29	1904,00
-7082,41	2064,00
-7064,57	1931,00
-7046,76	1737,00
-7028,98	1577,00
-7011,24	1306,00
-6993,53	1263,00
-6975,85	1100,00
-6958,20	1165,00
-6940,59	848,00
-6923,01	1019,00
-6905,46	1277,00
-6887,94	1455,00
-6870,46	2135,00
-6853,01	1758,00
-6835,59	1849,00
-6818,21	1680,00
-6800,85	1370,00
-6783,53	1207,00
-6766,24	966,00
-6748,98	787,00
-6731,76	815,00
-6714,56	727,00
-6697,40	791,00
-6680,26	845,00
-6663,16	1084,00
-6646,09	1125,00
-6629,05	1338,00
-6612,05	1550,00
-6595,07	1395,00
-6578,13	1376,00
-6561,21	1139,00
-6544,33	1059,00
-6527,47	647,00
-6510,65	604,00
-6493,86	676,00
-6477,10	640,00
-6460,36	714,00
-6443,66	787,00
-6426,99	656,00
-6410,35	677,00
-6393,74	847,00
-6377,16	849,00
-6360,61	1021,00
-6344,09	1015,00
-6327,59	905,00
-6311,13	1099,00
-6294,70	1021,00
-6278,29	1271,00
-6261,92	1265,00
-6245,58	1436,00
-6229,26	1362,00
-6212,97	1274,00
-6196,72	1036,00
-6180,49	846,00
-6164,29	526,00
-6148,12	361,00
-6131,98	438,00
-6115,86	383,00
-6099,78	329,00
-6083,72	279,00
-6067,69	423,00
-6051,69	421,00
-6035,72	398,00
-6019,78	463,00
-6003,87	737,00
-5987,98	939,00
-5972,12	1018,00
-5956,29	1041,00
-5940,49	1096,00
-5924,71	842,00
-5908,96	620,00
-5893,24	498,00
-5877,55	665,00
-5861,89	514,00
-5846,25	392,00
-5830,64	488,00
-5815,05	526,00
-5799,50	567,00
-5783,97	568,00
-5768,47	607,00
-5752,99	839,00
-5737,55	991,00
-5722,12	1094,00
-5706,73	927,00
-5691,36	805,00
-5676,02	531,00
-5660,71	446,00
-5645,42	382,00
-5630,16	566,00
-5614,92	747,00
-5599,71	744,00
-5584,53	618,00
-5569,37	703,00
-5554,24	1648,00
-5539,14	631,00
-5524,06	626,00
-5509,01	580,00
-5493,98	652,00
-5478,98	719,00
-5464,00	665,00
-5449,05	611,00
-5434,13	599,00
-5419,23	436,00
-5404,36	518,00
-5389,51	769,00
-5374,69	926,00
-5359,89	1126,00
-5345,12	1060,00
-5330,37	1066,00
-5315,65	806,00
-5300,95	777,00
-5286,28	631,00
-5271,63	647,00
-5257,01	571,00
-5242,41	536,00
-5227,84	437,00
-5213,29	542,00
-5198,76	426,00
-5184,26	410,00
-5169,79	467,00
-5155,33	498,00
-5140,91	738,00
-5126,51	848,00
-5112,13	857,00
-5097,77	814,00
-5083,44	483,00
-5069,13	467,00
-5054,85	426,00
-5040,59	513,00
-5026,36	730,00
-5012,15	650,00
-4997,96	543,00
-4983,80	578,00
-4969,66	452,00
-4955,54	523,00
-4941,44	493,00
-4927,37	845,00
-4913,33	1061,00
-4899,30	1128,00
-4885,30	1122,00
-4871,33	792,00
-4857,37	513,00
-4843,44	492,00
-4829,53	413,00
-4815,65	378,00
-4801,79	507,00
-4787,95	434,00
-4774,13	565,00
-4760,34	338,00
-4746,56	451,00
-4732,82	495,00
-4719,09	642,00
-4705,38	806,00
-4691,70	922,00
-4678,04	990,00
-4664,41	903,00
-4650,79	637,00
-4637,20	488,00
-4623,63	443,00
-4610,08	542,00
-4596,56	660,00
-4583,05	672,00
-4569,57	560,00
-4556,11	477,00
-4542,67	298,00
-4529,25	479,00
-4515,86	485,00
-4502,49	755,00
-4489,13	750,00
-4475,80	744,00
-4462,49	459,00
-4449,21	439,00
-4435,94	247,00
-4422,70	392,00
-4409,47	502,00
-4396,27	682,00
-4383,09	509,00
-4369,93	346,00
-4356,79	253,00
-4343,67	264,00
-4330,58	370,00
-4317,50	488,00
-4304,45	406,00
-4291,41	306,00
-4278,40	331,00
-4265,41	288,00
-4252,44	493,00
-4239,49	557,00
-4226,55	634,00
-4213,65	353,00
-4200,76	367,00
-4187,89	246,00
-4175,04	260,00
-4162,21	211,00
-4149,40	364,00
-4136,61	217,00
-4123,85	331,00
-4111,10	166,00
-4098,37	255,00
-4085,66	211,00
-4072,98	309,00
-4060,31	277,00
-4047,66	336,00
-4035,04	288,00
-4022,43	242,00
-4009,84	342,00
-3997,27	238,00
-3984,72	68,00
-3972,19	140,00
-3959,69	291,00
-3947,20	234,00
-3934,73	210,00
-3922,27	133,00
-3909,84	177,00
-3897,43	218,00
-3885,04	62,00
-3872,67	140,00
-3860,31	236,00
-3847,98	69,00
-3835,66	195,00
-3823,36	247,00
-3811,09	177,00
-3798,83	208,00
-3786,59	174,00
-3774,37	135,00
-3762,17	206,00
-3749,98	174,00
-3737,82	259,00
-3725,67	225,00
-3713,55	113,00
-3701,44	184,00
-3689,35	109,00
-3677,28	204,00
-3665,22	265,00
-3653,19	98,00
-3641,17	222,00
-3629,18	193,00
-3617,20	122,00
-3605,24	179,00
-3593,30	196,00
-3581,37	145,00
-3569,47	273,00
-3557,58	142,00
-3545,71	152,00
-3533,86	111,00
-3522,02	313,00
-3510,21	307,00
-3498,41	292,00
-3486,63	257,00
-3474,87	99,00
-3463,12	100,00
-3451,40	245,00
-3439,69	265,00
-3428,00	230,00
-3416,33	177,00
-3404,67	207,00
-3393,03	134,00
-3381,41	194,00
-3369,81	219,00
-3358,22	122,00
-3346,66	269,00
-3335,10	195,00
-3323,57	164,00
-3312,06	169,00
-3300,56	166,00
-3289,08	194,00
-3277,61	114,00
-3266,16	244,00
-3254,73	138,00
-3243,32	263,00
-3231,92	99,00
-3220,55	154,00
-3209,18	172,00
-3197,84	201,00
-3186,51	240,00
-3175,20	186,00
-3163,90	122,00
-3152,63	83,00
-3141,36	163,00
-3130,12	277,00
-3118,89	139,00
-3107,68	157,00
-3096,49	198,00
-3085,31	247,00
-3074,15	209,00
-3063,00	233,00
-3051,87	201,00
-3040,76	251,00
-3029,67	258,00
-3018,59	227,00
-3007,52	176,00
-2996,48	87,00
-2985,44	209,00
-2974,43	254,00
-2963,43	147,00
-2952,45	205,00
-2941,48	112,00
-2930,53	75,00
-2919,60	244,00
-2908,68	178,00
-2897,78	258,00
-2886,89	260,00
-2876,02	110,00
-2865,17	230,00
-2854,33	216,00
-2843,50	261,00
-2832,70	139,00
-2821,90	117,00
-2811,13	145,00
-2800,37	86,00
-2789,62	124,00
-2778,89	80,00
-2768,18	-23,00
-2757,48	127,00
-2746,80	173,00
-2736,13	218,00
-2725,48	314,00
-2714,84	156,00
-2704,22	120,00
-2693,61	123,00
-2683,02	310,00
-2672,45	205,00
-2661,89	248,00
-2651,34	98,00
-2640,81	127,00
-2630,30	284,00
-2619,80	144,00
-2609,31	226,00
-2598,84	224,00
-2588,39	254,00
-2577,95	205,00
-2567,52	156,00
-2557,11	84,00
-2546,71	225,00
-2536,33	258,00
-2525,97	246,00
-2515,62	200,00
-2505,28	237,00
-2494,96	254,00
-2484,65	143,00
-2474,36	272,00
-2464,08	234,00
-2453,82	173,00
-2443,57	139,00
-2433,33	208,00
-2423,11	274,00
-2412,91	84,00
-2402,72	208,00
-2392,54	172,00
-2382,38	181,00
-2372,23	233,00
-2362,09	302,00
-2351,97	82,00
-2341,87	37,00
-2331,78	113,00
-2321,70	126,00
-2311,64	115,00
-2301,59	177,00
-2291,55	212,00
-2281,53	166,00
-2271,53	127,00
-2261,53	204,00
-2251,55	68,00
-2241,59	261,00
-2231,64	228,00
-2221,70	214,00
-2211,78	229,00
-2201,87	171,00
-2191,97	183,00
-2182,09	243,00
-2172,22	254,00
-2162,37	215,00
-2152,53	226,00
-2142,70	198,00
-2132,89	171,00
-2123,09	251,00
-2113,30	181,00
-2103,53	85,00
-2093,77	158,00
-2084,02	196,00
-2074,29	201,00
-2064,57	166,00
-2054,86	271,00
-2045,17	156,00
-2035,49	214,00
-2025,82	111,00
-2016,17	198,00
-2006,53	74,00
-1996,91	147,00
-1987,29	166,00
-1977,69	212,00
-1968,11	174,00
-1958,53	133,00
-1948,97	206,00
-1939,42	124,00
-1929,89	180,00
-1920,37	78,00
-1910,86	136,00
-1901,36	142,00
-1891,88	279,00
-1882,41	179,00
-1872,95	135,00
-1863,51	165,00
-1854,08	339,00
-1844,66	233,00
-1835,26	224,00
-1825,86	98,00
-1816,48	193,00
-1807,11	166,00
-1797,76	89,00
-1788,42	119,00
-1779,09	206,00
-1769,77	270,00
-1760,47	173,00
-1751,17	124,00
-1741,89	192,00
-1732,63	142,00
-1723,37	321,00
-1714,13	218,00
-1704,90	199,00
-1695,68	207,00
-1686,48	148,00
-1677,29	147,00
-1668,11	275,00
-1658,94	125,00
-1649,78	152,00
-1640,64	184,00
-1631,51	261,00
-1622,39	85,00
-1613,28	122,00
-1604,19	211,00
-1595,10	116,00
-1586,03	112,00
-1576,97	173,00
-1567,93	308,00
-1558,89	162,00
-1549,87	201,00
-1540,86	95,00
-1531,86	220,00
-1522,87	229,00
-1513,90	143,00
-1504,93	184,00
-1495,98	132,00
-1487,04	262,00
-1478,12	151,00
-1469,20	322,00
-1460,30	91,00
-1451,40	252,00
-1442,52	224,00
-1433,65	164,00
-1424,80	231,00
-1415,95	117,00
-1407,12	103,00
-1398,30	108,00
-1389,48	187,00
-1380,69	297,00
-1371,90	243,00
-1363,12	171,00
-1354,36	144,00
-1345,60	226,00
-1336,86	272,00
-1328,13	286,00
-1319,41	134,00
-1310,70	2,00
-1302,01	271,00
-1293,32	118,00
-1284,65	222,00
-1275,99	299,00
-1267,33	231,00
-1258,69	219,00
-1250,06	250,00
-1241,45	252,00
-1232,84	251,00
-1224,25	159,00
-1215,66	149,00
-1207,09	241,00
-1198,53	292,00
-1189,97	140,00
-1181,43	168,00
-1172,91	142,00
-1164,39	241,00
-1155,88	80,00
-1147,38	199,00
-1138,90	160,00
-1130,43	79,00
-1121,96	92,00
-1113,51	142,00
-1105,07	136,00
-1096,64	272,00
-1088,22	98,00
-1079,81	364,00
-1071,41	173,00
-1063,02	151,00
-1054,65	220,00
-1046,28	241,00
-1037,92	263,00
-1029,58	245,00
-1021,24	266,00
-1012,92	281,00
-1004,61	214,00
-996,30	283,00
-988,01	150,00
-979,73	209,00
-971,46	210,00
-963,20	132,00
-954,95	186,00
-946,71	183,00
-938,48	136,00
-930,26	215,00
-922,06	350,00
-913,86	207,00
-905,67	203,00
-897,49	94,00
-889,33	153,00
-881,17	347,00
-873,02	209,00
-864,89	141,00
-856,76	121,00
-848,65	166,00
-840,54	248,00
-832,45	204,00
-824,36	76,00
-816,29	147,00
-808,22	216,00
-800,17	250,00
-792,12	223,00
-784,09	331,00
-776,06	179,00
-768,05	237,00
-760,04	51,00
-752,05	160,00
-744,07	264,00
-736,09	240,00
-728,13	148,00
-720,17	168,00
-712,23	-16,00
-704,29	113,00
-696,37	148,00
-688,45	256,00
-680,55	253,00
-672,65	259,00
-664,77	264,00
-656,89	297,00
-649,03	142,00
-641,17	164,00
-633,32	258,00
-625,49	196,00
-617,66	290,00
-609,84	165,00
-602,03	224,00
-594,23	245,00
-586,45	155,00
-578,67	246,00
-570,90	135,00
-563,14	236,00
-555,39	256,00
-547,65	241,00
-539,91	134,00
-532,19	232,00
-524,48	126,00
-516,78	308,00
-509,08	125,00
-501,40	176,00
-493,72	279,00
-486,06	178,00
-478,40	307,00
-470,76	201,00
-463,12	69,00
-455,49	115,00
-447,87	101,00
-440,26	193,00
-432,66	180,00
-425,07	122,00
-417,49	306,00
-409,92	195,00
-402,35	175,00
-394,80	158,00
-387,25	173,00
-379,72	299,00
-372,19	178,00
-364,67	257,00
-357,17	168,00
-349,67	181,00
-342,18	194,00
-334,69	314,00
-327,22	259,00
-319,76	139,00
-312,30	221,00
-304,86	162,00
-297,42	231,00
-290,00	195,00
-282,58	259,00
-275,17	185,00
-267,77	170,00
-260,37	206,00
-252,99	331,00
-245,62	238,00
-238,25	226,00
-230,90	174,00
-223,55	335,00
-216,21	247,00
-208,88	316,00
-201,56	276,00
-194,25	376,00
-186,94	317,00
-179,65	431,00
-172,36	294,00
-165,08	389,00
-157,81	476,00
-150,55	506,00
-143,30	564,00
-136,06	617,00
-128,82	522,00
-121,60	548,00
-114,38	653,00
-107,17	666,00
-99,97	686,00
-92,78	932,00
-85,60	1035,00
-78,42	1133,00
-71,25	1290,00
-64,10	1428,00
-56,95	1725,00
-49,81	1964,00
-42,67	2357,00
-35,55	2901,00
-28,43	3776,00
-21,33	6272,00
-14,23	19253,00
-7,14	55431,00
-0,05	55196,00
7,02	54914,00
14,09	55080,00
21,14	21207,00
28,19	8393,00
35,23	5213,00
42,27	3815,00
49,29	3321,00
56,31	2800,00
63,32	2389,00
70,32	1894,00
77,31	1758,00
84,29	1409,00
91,27	1386,00
98,23	1308,00
105,19	1111,00
112,14	1242,00
119,09	1999,00
126,02	3068,00
132,95	3904,00
139,87	4024,00
146,78	4097,00
153,68	4016,00
160,58	3992,00
167,46	3904,00
174,34	3927,00
181,21	4015,00
188,08	3948,00
194,93	3984,00
201,78	3877,00
208,62	4042,00
215,45	3881,00
222,27	3947,00
229,09	3812,00
235,90	3896,00
242,70	3745,00
249,49	3903,00
256,27	3821,00
263,05	3853,00
269,82	3671,00
276,58	3910,00
283,33	3805,00
290,08	3654,00
296,82	3687,00
303,55	3667,00
310,27	3762,00
316,98	3678,00
323,69	3605,00
330,39	3534,00
337,08	3475,00
343,76	3435,00
350,44	3557,00
357,11	3503,00
363,77	3458,00
370,42	3463,00
377,07	3363,00
383,71	3417,00
390,34	3402,00
396,96	3432,00
403,58	3463,00
410,19	3547,00
416,79	3573,00
423,38	3593,00
429,97	3428,00
436,55	3290,00
443,12	3184,00
449,68	3126,00
456,24	3260,00
462,79	3155,00
469,33	3246,00
475,86	3260,00
482,39	3115,00
488,91	3176,00
495,42	3148,00
501,93	3142,00
508,42	3043,00
514,91	3119,00
521,40	2950,00
527,87	3091,00
534,34	2989,00
540,80	2855,00
547,25	3108,00
553,70	3032,00
560,14	2849,00
566,57	3001,00
573,00	2861,00
579,41	3053,00
585,83	2879,00
592,23	2883,00
598,62	2819,00
605,01	2920,00
611,40	2930,00
617,77	2787,00
624,14	2802,00
630,50	2843,00
636,85	2710,00
643,20	2614,00
649,54	2777,00
655,87	2762,00
662,20	2779,00
668,52	2742,00
674,83	2577,00
681,13	2693,00
687,43	2645,00
693,72	2763,00
700,00	2713,00
706,28	2657,00
712,55	2639,00
718,81	2576,00
725,07	2658,00
731,32	2613,00
737,56	2570,00
743,79	2523,00
750,02	2685,00
756,24	2616,00
762,46	2659,00
768,67	2641,00
774,87	2508,00
781,06	2526,00
787,25	2568,00
793,43	2615,00
799,60	2613,00
805,77	2528,00
811,93	2568,00
818,08	2576,00
824,23	2536,00
830,37	2548,00
836,50	2460,00
842,63	2524,00
848,75	2496,00
854,87	2545,00
860,97	2507,00
867,07	2429,00
873,17	2415,00
879,25	2478,00
885,33	2350,00
891,41	2316,00
897,47	2542,00
903,53	2348,00
909,59	2329,00
915,63	2409,00
921,67	2275,00
927,71	2330,00
933,74	2424,00
939,76	2281,00
945,77	2266,00
951,78	2372,00
957,78	2210,00
963,78	2261,00
969,77	2340,00
975,75	2280,00
981,72	2182,00
987,69	2377,00
993,66	2397,00
999,61	2313,00
1005,56	2423,00
1011,51	2263,00
1017,44	2313,00
1023,37	2290,00
1029,30	2309,00
1035,22	2216,00
1041,13	2354,00
1047,03	2407,00
1052,93	2356,00
1058,83	2501,00
1064,71	2664,00
1070,59	2400,00
1076,47	2309,00
1082,33	2213,00
1088,20	2286,00
1094,05	1999,00
1099,90	2111,00
1105,74	2154,00
1111,58	2135,00
1117,41	2107,00
1123,23	2343,00
1129,05	2333,00
1134,86	2476,00
1140,67	2149,00
1146,47	2093,00
1152,26	2115,00
1158,05	2117,00
1163,83	2101,00
1169,60	2154,00
1175,37	2062,00
1181,13	2052,00
1186,89	1980,00
1192,64	2078,00
1198,38	2166,00
1204,12	1865,00
1209,85	2046,00
1215,58	1958,00
1221,30	1893,00
1227,02	2102,00
1232,72	1943,00
1238,43	1920,00
1244,12	2036,00
1249,81	2027,00
1255,50	2172,00
1261,17	2062,00
1266,85	2009,00
1272,51	2172,00
1278,17	2028,00
1283,83	2160,00
1289,47	2329,00
1295,12	2656,00
1300,75	2519,00
1306,38	2344,00
1312,01	2202,00
1317,63	2186,00
1323,24	2180,00
1328,85	2165,00
1334,45	2116,00
1340,04	2105,00
1345,63	2255,00
1351,22	2168,00
1356,80	2243,00
1362,37	2084,00
1367,93	2125,00
1373,49	2112,00
1379,05	2064,00
1384,60	1937,00
1390,14	2063,00
1395,68	2198,00
1401,21	2147,00
1406,74	2068,00
1412,26	2331,00
1417,77	2312,00
1423,28	2399,00
1428,78	2471,00
1434,28	2625,00
1439,77	2683,00
1445,26	2762,00
1450,74	2606,00
1456,22	2455,00
1461,68	2370,00
1467,15	2301,00
1472,61	2210,00
1478,06	2102,00
1483,51	2136,00
1488,95	1938,00
1494,38	2070,00
1499,81	1838,00
1505,24	1872,00
1510,65	1916,00
1516,07	1843,00
1521,48	1776,00
1526,88	1748,00
1532,27	1806,00
1537,67	1817,00
1543,05	1780,00
1548,43	1738,00
1553,81	1782,00
1559,18	1765,00
1564,54	1792,00
1569,90	1673,00
1575,25	1629,00
1580,60	1819,00
1585,94	1713,00
1591,28	1624,00
1596,61	1739,00
1601,93	1480,00
1607,25	1716,00
1612,57	1775,00
1617,88	1545,00
1623,18	1598,00
1628,48	1465,00
1633,77	1728,00
1639,06	1566,00
1644,34	1593,00
1649,62	1550,00
1654,89	1505,00
1660,16	1530,00
1665,42	1576,00
1670,67	1571,00
1675,92	1457,00
1681,17	1523,00
1686,41	1534,00
1691,64	1598,00
1696,87	1469,00
1702,10	1449,00
1707,32	1487,00
1712,53	1353,00
1717,74	1462,00
1722,94	1481,00
1728,14	1499,00
1733,33	1347,00
1738,52	1342,00
1743,70	1383,00
1748,88	1347,00
1754,05	1376,00
1759,22	1282,00
1764,38	-73,00
1769,53	1322,00
1774,69	1294,00
1779,83	1389,00
1784,97	1227,00
1790,11	1421,00
1795,24	1190,00
1800,36	1185,00
1805,48	1327,00
1810,60	1179,00
1815,71	1265,00
1820,82	1211,00
1825,92	1339,00
1831,01	1187,00
1836,10	1119,00
1841,19	1250,00
1846,26	1273,00
1851,34	1157,00
1856,41	1143,00
1861,47	1160,00
1866,53	1132,00
1871,59	1249,00
1876,64	1063,00
1881,68	1032,00
1886,72	1106,00
1891,76	1148,00
1896,79	1231,00
1901,81	1127,00
1906,83	1087,00
1911,85	1108,00
1916,86	1116,00
1921,86	1114,00
1926,86	1112,00
1931,86	1060,00
1936,85	1024,00
1941,83	1084,00
1946,81	924,00
1951,79	945,00
1956,76	1114,00
1961,72	983,00
1966,68	1036,00
1971,64	934,00
1976,59	859,00
1981,54	1024,00
1986,48	914,00
1991,42	929,00
1996,35	876,00
2001,27	943,00
2006,20	912,00
2011,11	909,00
2016,03	827,00
2020,93	982,00
2025,84	1015,00
2030,73	916,00
2035,63	854,00
2040,52	947,00
2045,40	732,00
2050,28	918,00
2055,15	856,00
2060,02	797,00
2064,89	810,00
2069,75	927,00
2074,60	801,00
2079,46	775,00
2084,30	819,00
2089,14	840,00
2093,98	797,00
2098,81	877,00
2103,64	850,00
2108,46	842,00
2113,28	808,00
2118,09	812,00
2122,90	700,00
2127,70	849,00
2132,50	836,00
2137,30	805,00
2142,09	945,00
2146,87	904,00
2151,66	797,00
2156,43	874,00
2161,20	773,00
2165,97	749,00
2170,73	707,00
2175,49	662,00
2180,24	832,00
2184,99	767,00
2189,74	1021,00
2194,48	753,00
2199,21	704,00
2203,94	755,00
2208,67	685,00
2213,39	666,00
2218,11	688,00
2222,82	738,00
2227,53	696,00
2232,23	724,00
2236,93	616,00
2241,63	691,00
2246,32	681,00
2251,00	645,00
2255,68	701,00
2260,36	599,00
2265,03	679,00
2269,70	644,00
2274,36	682,00
2279,02	606,00
2283,68	739,00
2288,33	567,00
2292,97	563,00
2297,61	595,00
2302,25	700,00
2306,88	747,00
2311,51	632,00
2316,14	630,00
2320,75	658,00
2325,37	718,00
2329,98	642,00
2334,59	526,00
2339,19	658,00
2343,79	531,00
2348,38	671,00
2352,97	663,00
2357,55	687,00
2362,13	565,00
2366,71	637,00
2371,28	575,00
2375,85	546,00
2380,41	607,00
2384,97	591,00
2389,52	610,00
2394,07	667,00
2398,62	598,00
2403,16	565,00
2407,70	656,00
2412,23	571,00
2416,76	640,00
2421,29	513,00
2425,81	600,00
2430,32	488,00
2434,84	590,00
2439,34	543,00
2443,85	641,00
2448,35	453,00
2452,84	494,00
2457,33	523,00
2461,82	472,00
2466,30	427,00
2470,78	568,00
2475,25	606,00
2479,72	496,00
2484,19	469,00
2488,65	546,00
2493,11	575,00
2497,56	518,00
2502,01	645,00
2506,46	328,00
2510,90	518,00
2515,34	630,00
2519,77	480,00
2524,20	456,00
2528,62	558,00
2533,04	596,00
2537,46	408,00
2541,87	473,00
2546,28	366,00
2550,68	660,00
2555,08	544,00
2559,48	459,00
2563,87	576,00
2568,26	470,00
2572,64	490,00
2577,02	560,00
2581,40	493,00
2585,77	390,00
2590,14	364,00
2594,50	513,00
2598,86	395,00
2603,22	427,00
2607,57	482,00
2611,92	430,00
2616,26	398,00
2620,60	553,00
2624,94	304,00
2629,27	494,00
2633,60	482,00
2637,92	466,00
2642,24	435,00
2646,56	415,00
2650,87	468,00
2655,18	409,00
2659,48	356,00
2663,78	451,00
2668,08	428,00
2672,37	384,00
2676,66	517,00
2680,95	374,00
2685,23	439,00
2689,50	488,00
2693,78	421,00
2698,05	484,00
2702,31	436,00
2706,57	402,00
2710,83	475,00
2715,08	419,00
2719,33	489,00
2723,58	518,00
2727,82	476,00
2732,06	510,00
2736,29	441,00
2740,53	515,00
2744,75	447,00
2748,97	495,00
2753,19	456,00
2757,41	564,00
2761,62	404,00
2765,83	457,00
2770,03	495,00
2774,23	492,00
2778,43	445,00
2782,62	406,00
2786,81	507,00
2791,00	432,00
2795,18	516,00
2799,35	537,00
2803,53	424,00
2807,70	473,00
2811,86	450,00
2816,03	486,00
2820,19	416,00
2824,34	565,00
2828,49	547,00
2832,64	587,00
2836,78	697,00
2840,92	699,00
2845,06	889,00
2849,19	1061,00
2853,32	1161,00
2857,45	1056,00
2861,57	963,00
2865,69	1025,00
2869,80	1052,00
2873,91	1083,00
2878,02	1030,00
2882,12	1032,00
2886,22	1085,00
2890,32	1145,00
2894,41	1091,00
2898,50	1007,00
2902,58	957,00
2906,67	829,00
2910,74	906,00
2914,82	849,00
2918,89	833,00
2922,96	701,00
2927,02	824,00
2931,08	707,00
2935,13	565,00
2939,19	735,00
2943,24	604,00
2947,28	570,00
2951,32	566,00
2955,36	552,00
2959,40	553,00
2963,43	517,00
2967,46	423,00
2971,48	544,00
2975,50	536,00
2979,52	518,00
2983,53	469,00
2987,54	411,00
2991,55	432,00
2995,55	355,00
2999,55	400,00
3003,54	364,00
3007,54	359,00
3011,53	273,00
3015,51	328,00
3019,49	413,00
3023,47	259,00
3027,45	256,00
3031,42	265,00
3035,39	288,00
3039,35	255,00
3043,31	238,00
3047,27	335,00
3051,22	364,00
3055,17	264,00
3059,12	259,00
3063,06	329,00
3067,00	282,00
3070,94	247,00
3074,87	281,00
3078,80	311,00
3082,73	252,00
3086,65	263,00
3090,57	270,00
3094,49	172,00
3098,40	251,00
3102,31	191,00
3106,22	324,00
3110,12	260,00
3114,02	302,00
3117,92	343,00
3121,81	269,00
3125,70	298,00
3129,58	275,00
3133,47	253,00
3137,34	361,00
3141,22	360,00
3145,09	418,00
3148,96	223,00
3152,83	185,00
3156,69	253,00
3160,55	193,00
3164,40	303,00
3168,26	303,00
3172,10	456,00
3175,95	266,00
3179,79	252,00
3183,63	296,00
3187,47	208,00
3191,30	230,00
3195,13	260,00
3198,95	286,00
3202,78	337,00
3206,60	91,00
3210,41	299,00
3214,23	271,00
3218,03	254,00
3221,84	192,00
3225,64	62,00
3229,44	248,00
3233,24	267,00
3237,03	173,00
3240,82	312,00
3244,61	192,00
3248,39	334,00
3252,17	298,00
3255,95	160,00
3259,72	321,00
3263,49	342,00
3267,26	295,00
3271,03	188,00
3274,79	205,00
3278,54	289,00
3282,30	280,00
3286,05	264,00
3289,80	256,00
3293,54	212,00
3297,29	244,00
3301,02	375,00
3304,76	231,00
3308,49	113,00
3312,22	216,00
3315,95	228,00
3319,67	279,00
3323,39	297,00
3327,10	341,00
3330,82	274,00
3334,53	376,00
3338,24	294,00
3341,94	268,00
3345,64	250,00
3349,34	240,00
3353,03	239,00
3356,72	259,00
3360,41	247,00
3364,10	257,00
3367,78	173,00
3371,46	300,00
3375,13	138,00
3378,81	324,00
3382,48	335,00
3386,14	303,00
3389,81	233,00
3393,47	330,00
3397,12	301,00
3400,78	292,00
3404,43	194,00
3408,08	166,00
3411,72	190,00
3415,36	214,00
3419,00	277,00
3422,64	133,00
3426,27	238,00
3429,90	240,00
3433,53	168,00
3437,15	238,00
3440,77	230,00
3444,39	291,00
3448,00	155,00
3451,62	119,00
3455,22	172,00
3458,83	217,00
3462,43	188,00
3466,03	133,00
3469,63	239,00
3473,22	203,00
3476,81	140,00
3480,40	97,00
3483,99	107,00
3487,57	223,00
3491,15	284,00
3494,72	166,00
3498,29	253,00
3501,86	147,00
3505,43	250,00
3508,99	265,00
3512,56	236,00
3516,11	198,00
3519,67	189,00
3523,22	214,00
3526,77	307,00
3530,32	109,00
3533,86	201,00
3537,40	276,00
3540,94	249,00
3544,47	208,00
3548,00	194,00
3551,53	98,00
3555,06	167,00
3558,58	345,00
3562,10	169,00
3565,62	159,00
3569,13	105,00
3572,64	310,00
3576,15	169,00
3579,66	124,00
3583,16	268,00
3586,66	125,00
3590,16	145,00
3593,65	174,00
3597,14	19,00
3600,63	268,00
3604,11	211,00
3607,60	212,00
3611,08	238,00
3614,55	185,00
3618,03	133,00
3621,50	154,00
3624,97	249,00
3628,43	217,00
3631,90	77,00
3635,36	223,00
3638,81	178,00
3642,27	211,00
3645,72	177,00
3649,17	192,00
3652,61	75,00
3656,06	100,00
3659,50	198,00
3662,93	117,00
3666,37	191,00
3669,80	100,00
3673,23	115,00
3676,65	305,00
3680,08	208,00
3683,50	200,00
3686,92	200,00
3690,33	141,00
3693,74	195,00
3697,15	193,00
3700,56	156,00
3703,96	87,00
3707,36	148,00
3710,76	162,00
3714,16	113,00
3717,55	200,00
3720,94	99,00
3724,33	111,00
3727,71	83,00
3731,10	194,00
3734,48	261,00
3737,85	133,00
3741,23	148,00
3744,60	121,00
3747,97	156,00
3751,33	94,00
3754,69	166,00
3758,05	61,00
3761,41	127,00
3764,77	125,00
3768,12	134,00
3771,47	197,00
3774,82	176,00
3778,16	4,00
3781,50	0,00
3784,84	2,00
3788,18	1,00
>>>>>End Processed Spectral Data<<<<<
