SpectraSuite Data File
++++++++++++++++++++++++++++++++++++
Date: Wed Feb 04 15:46:12 ICT 2026
User: Administrator
Dark Spectrum Present: Yes
Reference Spectrum Present: No
Number of Sampled Component Spectra: 1
Spectrometers: MAYP113682
Integration Time (usec): 3000000 (MAYP113682)
Spectra Averaged: 1 (MAYP113682)
Boxcar Smoothing: 0 (MAYP113682)
Correct for Electrical Dark: No (MAYP113682)
Strobe/Lamp Enabled: No (MAYP113682)
Correct for Detector Non-linearity: No (MAYP113682)
Correct for Stray Light: No (MAYP113682)
Number of Pixels in Processed Spectrum: 2068
>>>>>Begin Processed Spectral Data<<<<<
-37534,58	28,00
-37414,56	-1,00
-37295,11	13,00
-37176,24	9,00
-37057,95	626,00
-36940,22	577,00
-36823,05	622,00
-36706,45	691,00
-36590,40	635,00
-36474,90	711,00
-36359,95	745,00
-36245,55	658,00
-36131,68	675,00
-36018,35	590,00
-35905,55	647,00
-35793,29	776,00
-35681,54	684,00
-35570,32	731,00
-35459,62	728,00
-35349,43	796,00
-35239,75	732,00
-35130,58	637,00
-35021,91	693,00
-34913,74	641,00
-34806,07	713,00
-34698,89	753,00
-34592,20	506,00
-34486,00	712,00
-34380,28	657,00
-34275,04	647,00
-34170,27	719,00
-34065,98	756,00
-33962,16	725,00
-33858,81	685,00
-33755,92	695,00
-33653,49	799,00
-33551,52	719,00
-33450,01	798,00
-33348,94	703,00
-33248,33	754,00
-33148,16	753,00
-33048,43	705,00
-32949,14	818,00
-32850,29	708,00
-32751,87	716,00
-32653,89	754,00
-32556,33	817,00
-32459,20	640,00
-32362,49	779,00
-32266,19	713,00
-32170,32	891,00
-32074,86	857,00
-31979,82	651,00
-31885,18	756,00
-31790,95	771,00
-31697,12	756,00
-31603,69	802,00
-31510,67	787,00
-31418,04	748,00
-31325,80	716,00
-31233,95	778,00
-31142,49	886,00
-31051,42	747,00
-30960,73	885,00
-30870,43	842,00
-30780,50	728,00
-30690,95	886,00
-30601,77	697,00
-30512,97	743,00
-30424,53	819,00
-30336,46	871,00
-30248,76	760,00
-30161,42	801,00
-30074,44	725,00
-29987,81	833,00
-29901,55	756,00
-29815,63	820,00
-29730,07	782,00
-29644,86	663,00
-29560,00	741,00
-29475,48	792,00
-29391,30	789,00
-29307,47	737,00
-29223,97	783,00
-29140,81	838,00
-29057,99	789,00
-28975,50	647,00
-28893,34	749,00
-28811,51	831,00
-28730,00	646,00
-28648,82	860,00
-28567,97	851,00
-28487,43	671,00
-28407,21	766,00
-28327,32	776,00
-28247,73	882,00
-28168,46	681,00
-28089,50	802,00
-28010,85	694,00
-27932,51	740,00
-27854,48	907,00
-27776,75	736,00
-27699,32	730,00
-27622,19	851,00
-27545,37	715,00
-27468,84	770,00
-27392,60	875,00
-27316,66	791,00
-27241,01	840,00
-27165,66	732,00
-27090,59	646,00
-27015,81	827,00
-26941,31	961,00
-26867,10	683,00
-26793,17	870,00
-26719,52	740,00
-26646,15	643,00
-26573,06	728,00
-26500,24	828,00
-26427,70	708,00
-26355,43	758,00
-26283,43	712,00
-26211,71	851,00
-26140,25	809,00
-26069,06	1001,00
-25998,13	708,00
-25927,46	746,00
-25857,06	731,00
-25786,92	651,00
-25717,04	720,00
-25647,42	874,00
-25578,05	614,00
-25508,94	799,00
-25440,09	875,00
-25371,48	733,00
-25303,13	793,00
-25235,02	694,00
-25167,17	786,00
-25099,56	760,00
-25032,19	695,00
-24965,07	713,00
-24898,20	790,00
-24831,56	801,00
-24765,17	740,00
-24699,01	734,00
-24633,10	743,00
-24567,41	916,00
-24501,97	801,00
-24436,75	759,00
-24371,77	708,00
-24307,03	727,00
-24242,51	678,00
-24178,22	787,00
-24114,16	729,00
-24050,32	821,00
-23986,71	776,00
-23923,32	729,00
-23860,16	797,00
-23797,22	713,00
-23734,50	830,00
-23672,00	719,00
-23609,71	725,00
-23547,65	700,00
-23485,80	873,00
-23424,16	738,00
-23362,74	779,00
-23301,53	741,00
-23240,54	694,00
-23179,75	644,00
-23119,17	804,00
-23058,80	758,00
-22998,64	693,00
-22938,68	819,00
-22878,93	832,00
-22819,39	786,00
-22760,04	587,00
-22700,90	676,00
-22641,96	763,00
-22583,22	729,00
-22524,68	712,00
-22466,33	742,00
-22408,19	762,00
-22350,23	678,00
-22292,48	830,00
-22234,92	797,00
-22177,55	837,00
-22120,37	892,00
-22063,38	730,00
-22006,58	776,00
-21949,98	699,00
-21893,56	688,00
-21837,33	646,00
-21781,28	867,00
-21725,42	634,00
-21669,74	825,00
-21614,25	751,00
-21558,94	768,00
-21503,81	835,00
-21448,86	718,00
-21394,10	723,00
-21339,51	787,00
-21285,10	608,00
-21230,86	590,00
-21176,81	669,00
-21122,93	679,00
-21069,22	751,00
-21015,69	674,00
-20962,33	714,00
-20909,14	782,00
-20856,13	718,00
-20803,28	795,00
-20750,61	699,00
-20698,10	757,00
-20645,76	720,00
-20593,59	691,00
-20541,59	675,00
-20489,75	704,00
-20438,07	664,00
-20386,56	835,00
-20335,22	651,00
-20284,03	683,00
-20233,01	736,00
-20182,15	710,00
-20131,45	796,00
-20080,91	660,00
-20030,52	758,00
-19980,30	653,00
-19930,23	592,00
-19880,32	775,00
-19830,56	807,00
-19780,96	763,00
-19731,52	707,00
-19682,23	708,00
-19633,09	743,00
-19584,10	613,00
-19535,26	770,00
-19486,58	913,00
-19438,04	738,00
-19389,66	802,00
-19341,42	703,00
-19293,33	885,00
-19245,39	791,00
-19197,60	634,00
-19149,95	840,00
-19102,45	871,00
-19055,09	843,00
-19007,87	902,00
-18960,80	735,00
-18913,87	869,00
-18867,09	692,00
-18820,44	706,00
-18773,94	737,00
-18727,57	705,00
-18681,35	649,00
-18635,26	593,00
-18589,31	633,00
-18543,50	693,00
-18497,83	672,00
-18452,29	831,00
-18406,89	643,00
-18361,63	948,00
-18316,50	704,00
-18271,50	716,00
-18226,63	792,00
-18181,90	771,00
-18137,30	748,00
-18092,84	733,00
-18048,50	683,00
-18004,29	723,00
-17960,22	652,00
-17916,27	732,00
-17872,45	683,00
-17828,76	806,00
-17785,20	750,00
-17741,77	738,00
-17698,46	723,00
-17655,28	605,00
-17612,22	780,00
-17569,29	809,00
-17526,48	700,00
-17483,79	730,00
-17441,23	734,00
-17398,79	682,00
-17356,48	784,00
-17314,28	726,00
-17272,21	619,00
-17230,26	698,00
-17188,42	759,00
-17146,71	680,00
-17105,12	764,00
-17063,64	614,00
-17022,28	759,00
-16981,04	683,00
-16939,92	746,00
-16898,91	910,00
-16858,02	687,00
-16817,25	732,00
-16776,59	678,00
-16736,04	719,00
-16695,61	674,00
-16655,29	757,00
-16615,09	762,00
-16574,99	723,00
-16535,01	827,00
-16495,15	681,00
-16455,39	722,00
-16415,74	661,00
-16376,21	682,00
-16336,78	734,00
-16297,46	768,00
-16258,26	647,00
-16219,16	765,00
-16180,17	814,00
-16141,28	844,00
-16102,51	680,00
-16063,84	801,00
-16025,27	821,00
-15986,82	728,00
-15948,46	678,00
-15910,22	784,00
-15872,07	701,00
-15834,04	690,00
-15796,10	762,00
-15758,27	725,00
-15720,54	669,00
-15682,91	726,00
-15645,39	823,00
-15607,97	706,00
-15570,64	740,00
-15533,42	828,00
-15496,30	673,00
-15459,28	765,00
-15422,36	767,00
-15385,54	638,00
-15348,82	693,00
-15312,19	881,00
-15275,66	679,00
-15239,23	648,00
-15202,90	782,00
-15166,67	568,00
-15130,53	735,00
-15094,48	740,00
-15058,54	650,00
-15022,68	804,00
-14986,93	773,00
-14951,26	728,00
-14915,69	671,00
-14880,22	745,00
-14844,84	658,00
-14809,55	839,00
-14774,35	664,00
-14739,25	716,00
-14704,24	696,00
-14669,32	710,00
-14634,49	676,00
-14599,75	845,00
-14565,10	603,00
-14530,55	784,00
-14496,08	741,00
-14461,70	766,00
-14427,41	683,00
-14393,21	701,00
-14359,10	715,00
-14325,07	749,00
-14291,14	785,00
-14257,29	768,00
-14223,52	784,00
-14189,85	763,00
-14156,26	618,00
-14122,76	709,00
-14089,34	745,00
-14056,01	743,00
-14022,76	789,00
-13989,60	671,00
-13956,52	740,00
-13923,53	769,00
-13890,62	685,00
-13857,79	700,00
-13825,05	699,00
-13792,39	625,00
-13759,81	754,00
-13727,31	714,00
-13694,90	746,00
-13662,57	836,00
-13630,31	685,00
-13598,14	834,00
-13566,05	705,00
-13534,05	757,00
-13502,12	721,00
-13470,27	651,00
-13438,50	723,00
-13406,80	712,00
-13375,19	649,00
-13343,66	831,00
-13312,20	741,00
-13280,83	741,00
-13249,53	689,00
-13218,30	612,00
-13187,16	676,00
-13156,09	820,00
-13125,10	737,00
-13094,18	904,00
-13063,34	708,00
-13032,58	584,00
-13001,89	661,00
-12971,28	768,00
-12940,74	760,00
-12910,27	679,00
-12879,88	645,00
-12849,57	767,00
-12819,33	751,00
-12789,16	709,00
-12759,06	711,00
-12729,04	707,00
-12699,09	844,00
-12669,21	827,00
-12639,41	740,00
-12609,68	726,00
-12580,02	632,00
-12550,43	833,00
-12520,91	623,00
-12491,46	738,00
-12462,08	723,00
-12432,77	618,00
-12403,54	710,00
-12374,37	733,00
-12345,27	787,00
-12316,24	785,00
-12287,29	750,00
-12258,40	686,00
-12229,57	740,00
-12200,82	657,00
-12172,14	815,00
-12143,52	614,00
-12114,97	623,00
-12086,49	826,00
-12058,07	783,00
-12029,73	647,00
-12001,44	736,00
-11973,23	732,00
-11945,08	819,00
-11917,00	942,00
-11888,98	665,00
-11861,03	763,00
-11833,15	769,00
-11805,32	828,00
-11777,57	816,00
-11749,88	699,00
-11722,25	703,00
-11694,69	792,00
-11667,19	720,00
-11639,75	855,00
-11612,38	656,00
-11585,07	690,00
-11557,83	684,00
-11530,65	810,00
-11503,53	796,00
-11476,47	754,00
-11449,48	720,00
-11422,54	868,00
-11395,67	649,00
-11368,86	830,00
-11342,11	689,00
-11315,43	822,00
-11288,80	736,00
-11262,23	747,00
-11235,73	777,00
-11209,28	858,00
-11182,90	820,00
-11156,57	740,00
-11130,31	917,00
-11104,10	733,00
-11077,96	646,00
-11051,87	784,00
-11025,84	750,00
-10999,87	774,00
-10973,96	716,00
-10948,11	733,00
-10922,31	719,00
-10896,58	746,00
-10870,90	817,00
-10845,28	780,00
-10819,71	667,00
-10794,20	769,00
-10768,75	778,00
-10743,36	686,00
-10718,02	607,00
-10692,74	737,00
-10667,52	544,00
-10642,35	757,00
-10617,24	763,00
-10592,18	770,00
-10567,18	629,00
-10542,23	788,00
-10517,34	756,00
-10492,51	798,00
-10467,72	736,00
-10443,00	610,00
-10418,32	653,00
-10393,70	669,00
-10369,14	690,00
-10344,63	669,00
-10320,17	711,00
-10295,77	681,00
-10271,42	714,00
-10247,12	723,00
-10222,88	681,00
-10198,68	686,00
-10174,54	687,00
-10150,46	724,00
-10126,42	824,00
-10102,44	735,00
-10078,51	727,00
-10054,63	685,00
-10030,80	739,00
-10007,03	829,00
-9983,30	739,00
-9959,63	767,00
-9936,01	761,00
-9912,44	635,00
-9888,92	659,00
-9865,44	572,00
-9842,02	640,00
-9818,65	600,00
-9795,33	600,00
-9772,06	532,00
-9748,84	610,00
-9725,67	458,00
-9702,55	656,00
-9679,47	641,00
-9656,45	620,00
-9633,47	481,00
-9610,55	551,00
-9587,67	557,00
-9564,84	656,00
-9542,06	452,00
-9519,32	578,00
-9496,64	467,00
-9474,00	428,00
-9451,41	337,00
-9428,87	432,00
-9406,37	262,00
-9383,92	268,00
-9361,52	422,00
-9339,17	408,00
-9316,86	348,00
-9294,60	343,00
-9272,38	289,00
-9250,21	367,00
-9228,09	217,00
-9206,01	344,00
-9183,98	316,00
-9162,00	128,00
-9140,06	134,00
-9118,16	122,00
-9096,31	141,00
-9074,51	332,00
-9052,75	314,00
-9031,04	472,00
-9009,37	413,00
-8987,74	414,00
-8966,16	367,00
-8944,63	195,00
-8923,14	360,00
-8901,69	231,00
-8880,29	304,00
-8858,93	519,00
-8837,61	549,00
-8816,34	497,00
-8795,11	583,00
-8773,92	593,00
-8752,78	429,00
-8731,68	310,00
-8710,62	460,00
-8689,61	451,00
-8668,63	375,00
-8647,70	622,00
-8626,82	497,00
-8605,97	525,00
-8585,17	591,00
-8564,41	424,00
-8543,69	599,00
-8523,01	227,00
-8502,37	649,00
-8481,78	415,00
-8461,23	304,00
-8440,71	450,00
-8420,24	501,00
-8399,81	506,00
-8379,42	703,00
-8359,08	671,00
-8338,77	633,00
-8318,50	483,00
-8298,27	437,00
-8278,09	444,00
-8257,94	507,00
-8237,83	602,00
-8217,76	521,00
-8197,74	671,00
-8177,75	725,00
-8157,80	757,00
-8137,89	587,00
-8118,02	489,00
-8098,19	699,00
-8078,40	616,00
-8058,65	586,00
-8038,93	546,00
-8019,26	517,00
-7999,62	730,00
-7980,02	611,00
-7960,46	472,00
-7940,94	565,00
-7921,46	619,00
-7902,01	479,00
-7882,60	810,00
-7863,23	552,00
-7843,90	597,00
-7824,61	514,00
-7805,35	701,00
-7786,13	634,00
-7766,95	601,00
-7747,80	727,00
-7728,69	747,00
-7709,62	546,00
-7690,59	445,00
-7671,59	708,00
-7652,63	576,00
-7633,70	619,00
-7614,81	618,00
-7595,96	675,00
-7577,15	572,00
-7558,37	578,00
-7539,62	737,00
-7520,91	700,00
-7502,24	745,00
-7483,60	565,00
-7465,00	593,00
-7446,44	623,00
-7427,91	717,00
-7409,41	705,00
-7390,95	580,00
-7372,53	457,00
-7354,14	379,00
-7335,78	556,00
-7317,46	557,00
-7299,18	589,00
-7280,92	578,00
-7262,71	599,00
-7244,52	527,00
-7226,38	569,00
-7208,26	601,00
-7190,18	580,00
-7172,14	612,00
-7154,12	525,00
-7136,15	561,00
-7118,20	616,00
-7100,29	599,00
-7082,41	613,00
-7064,57	579,00
-7046,76	656,00
-7028,98	561,00
-7011,24	541,00
-6993,53	458,00
-6975,85	407,00
-6958,20	569,00
-6940,59	580,00
-6923,01	457,00
-6905,46	513,00
-6887,94	477,00
-6870,46	625,00
-6853,01	626,00
-6835,59	557,00
-6818,21	495,00
-6800,85	669,00
-6783,53	491,00
-6766,24	494,00
-6748,98	342,00
-6731,76	469,00
-6714,56	449,00
-6697,40	398,00
-6680,26	579,00
-6663,16	572,00
-6646,09	610,00
-6629,05	531,00
-6612,05	475,00
-6595,07	689,00
-6578,13	650,00
-6561,21	548,00
-6544,33	543,00
-6527,47	412,00
-6510,65	447,00
-6493,86	331,00
-6477,10	501,00
-6460,36	555,00
-6443,66	391,00
-6426,99	587,00
-6410,35	444,00
-6393,74	549,00
-6377,16	403,00
-6360,61	535,00
-6344,09	514,00
-6327,59	498,00
-6311,13	479,00
-6294,70	547,00
-6278,29	609,00
-6261,92	453,00
-6245,58	617,00
-6229,26	663,00
-6212,97	543,00
-6196,72	565,00
-6180,49	496,00
-6164,29	407,00
-6148,12	640,00
-6131,98	514,00
-6115,86	491,00
-6099,78	393,00
-6083,72	419,00
-6067,69	466,00
-6051,69	521,00
-6035,72	536,00
-6019,78	635,00
-6003,87	550,00
-5987,98	499,00
-5972,12	526,00
-5956,29	558,00
-5940,49	518,00
-5924,71	586,00
-5908,96	612,00
-5893,24	588,00
-5877,55	515,00
-5861,89	531,00
-5846,25	401,00
-5830,64	579,00
-5815,05	494,00
-5799,50	596,00
-5783,97	603,00
-5768,47	602,00
-5752,99	668,00
-5737,55	490,00
-5722,12	422,00
-5706,73	560,00
-5691,36	580,00
-5676,02	627,00
-5660,71	697,00
-5645,42	620,00
-5630,16	621,00
-5614,92	621,00
-5599,71	563,00
-5584,53	625,00
-5569,37	518,00
-5554,24	-35,00
-5539,14	632,00
-5524,06	588,00
-5509,01	488,00
-5493,98	625,00
-5478,98	596,00
-5464,00	588,00
-5449,05	346,00
-5434,13	637,00
-5419,23	641,00
-5404,36	511,00
-5389,51	631,00
-5374,69	543,00
-5359,89	416,00
-5345,12	499,00
-5330,37	680,00
-5315,65	710,00
-5300,95	621,00
-5286,28	593,00
-5271,63	455,00
-5257,01	429,00
-5242,41	481,00
-5227,84	678,00
-5213,29	425,00
-5198,76	561,00
-5184,26	618,00
-5169,79	704,00
-5155,33	539,00
-5140,91	526,00
-5126,51	492,00
-5112,13	522,00
-5097,77	690,00
-5083,44	715,00
-5069,13	509,00
-5054,85	680,00
-5040,59	483,00
-5026,36	530,00
-5012,15	635,00
-4997,96	579,00
-4983,80	622,00
-4969,66	642,00
-4955,54	757,00
-4941,44	527,00
-4927,37	567,00
-4913,33	611,00
-4899,30	539,00
-4885,30	580,00
-4871,33	614,00
-4857,37	653,00
-4843,44	576,00
-4829,53	687,00
-4815,65	588,00
-4801,79	556,00
-4787,95	490,00
-4774,13	503,00
-4760,34	716,00
-4746,56	670,00
-4732,82	739,00
-4719,09	633,00
-4705,38	588,00
-4691,70	652,00
-4678,04	658,00
-4664,41	587,00
-4650,79	751,00
-4637,20	626,00
-4623,63	682,00
-4610,08	662,00
-4596,56	592,00
-4583,05	565,00
-4569,57	700,00
-4556,11	787,00
-4542,67	576,00
-4529,25	689,00
-4515,86	655,00
-4502,49	527,00
-4489,13	690,00
-4475,80	685,00
-4462,49	666,00
-4449,21	812,00
-4435,94	624,00
-4422,70	712,00
-4409,47	496,00
-4396,27	523,00
-4383,09	626,00
-4369,93	673,00
-4356,79	673,00
-4343,67	683,00
-4330,58	791,00
-4317,50	718,00
-4304,45	636,00
-4291,41	682,00
-4278,40	664,00
-4265,41	633,00
-4252,44	809,00
-4239,49	590,00
-4226,55	773,00
-4213,65	726,00
-4200,76	705,00
-4187,89	592,00
-4175,04	607,00
-4162,21	605,00
-4149,40	701,00
-4136,61	716,00
-4123,85	783,00
-4111,10	695,00
-4098,37	715,00
-4085,66	760,00
-4072,98	874,00
-4060,31	815,00
-4047,66	813,00
-4035,04	815,00
-4022,43	762,00
-4009,84	780,00
-3997,27	721,00
-3984,72	636,00
-3972,19	762,00
-3959,69	651,00
-3947,20	717,00
-3934,73	792,00
-3922,27	722,00
-3909,84	761,00
-3897,43	637,00
-3885,04	883,00
-3872,67	762,00
-3860,31	694,00
-3847,98	915,00
-3835,66	689,00
-3823,36	778,00
-3811,09	681,00
-3798,83	729,00
-3786,59	913,00
-3774,37	937,00
-3762,17	719,00
-3749,98	729,00
-3737,82	766,00
-3725,67	901,00
-3713,55	677,00
-3701,44	791,00
-3689,35	837,00
-3677,28	782,00
-3665,22	655,00
-3653,19	713,00
-3641,17	596,00
-3629,18	725,00
-3617,20	820,00
-3605,24	739,00
-3593,30	794,00
-3581,37	795,00
-3569,47	764,00
-3557,58	807,00
-3545,71	782,00
-3533,86	697,00
-3522,02	696,00
-3510,21	707,00
-3498,41	740,00
-3486,63	721,00
-3474,87	654,00
-3463,12	781,00
-3451,40	803,00
-3439,69	740,00
-3428,00	747,00
-3416,33	835,00
-3404,67	614,00
-3393,03	818,00
-3381,41	858,00
-3369,81	723,00
-3358,22	716,00
-3346,66	901,00
-3335,10	824,00
-3323,57	757,00
-3312,06	863,00
-3300,56	774,00
-3289,08	711,00
-3277,61	871,00
-3266,16	714,00
-3254,73	803,00
-3243,32	736,00
-3231,92	759,00
-3220,55	705,00
-3209,18	838,00
-3197,84	647,00
-3186,51	640,00
-3175,20	762,00
-3163,90	627,00
-3152,63	732,00
-3141,36	772,00
-3130,12	781,00
-3118,89	678,00
-3107,68	835,00
-3096,49	757,00
-3085,31	815,00
-3074,15	712,00
-3063,00	774,00
-3051,87	698,00
-3040,76	629,00
-3029,67	885,00
-3018,59	953,00
-3007,52	799,00
-2996,48	788,00
-2985,44	706,00
-2974,43	942,00
-2963,43	748,00
-2952,45	699,00
-2941,48	862,00
-2930,53	781,00
-2919,60	761,00
-2908,68	803,00
-2897,78	818,00
-2886,89	760,00
-2876,02	734,00
-2865,17	739,00
-2854,33	756,00
-2843,50	784,00
-2832,70	890,00
-2821,90	779,00
-2811,13	769,00
-2800,37	738,00
-2789,62	768,00
-2778,89	614,00
-2768,18	737,00
-2757,48	881,00
-2746,80	772,00
-2736,13	734,00
-2725,48	815,00
-2714,84	756,00
-2704,22	847,00
-2693,61	766,00
-2683,02	708,00
-2672,45	628,00
-2661,89	802,00
-2651,34	806,00
-2640,81	703,00
-2630,30	827,00
-2619,80	705,00
-2609,31	859,00
-2598,84	670,00
-2588,39	677,00
-2577,95	737,00
-2567,52	675,00
-2557,11	774,00
-2546,71	758,00
-2536,33	841,00
-2525,97	711,00
-2515,62	858,00
-2505,28	802,00
-2494,96	800,00
-2484,65	759,00
-2474,36	469,00
-2464,08	781,00
-2453,82	787,00
-2443,57	768,00
-2433,33	718,00
-2423,11	741,00
-2412,91	764,00
-2402,72	658,00
-2392,54	797,00
-2382,38	699,00
-2372,23	741,00
-2362,09	5338,00
-2351,97	587,00
-2341,87	736,00
-2331,78	846,00
-2321,70	802,00
-2311,64	715,00
-2301,59	701,00
-2291,55	696,00
-2281,53	670,00
-2271,53	696,00
-2261,53	830,00
-2251,55	814,00
-2241,59	776,00
-2231,64	784,00
-2221,70	749,00
-2211,78	830,00
-2201,87	812,00
-2191,97	852,00
-2182,09	799,00
-2172,22	818,00
-2162,37	788,00
-2152,53	566,00
-2142,70	699,00
-2132,89	757,00
-2123,09	835,00
-2113,30	787,00
-2103,53	701,00
-2093,77	683,00
-2084,02	727,00
-2074,29	889,00
-2064,57	748,00
-2054,86	863,00
-2045,17	759,00
-2035,49	705,00
-2025,82	740,00
-2016,17	679,00
-2006,53	841,00
-1996,91	770,00
-1987,29	785,00
-1977,69	734,00
-1968,11	748,00
-1958,53	790,00
-1948,97	725,00
-1939,42	729,00
-1929,89	708,00
-1920,37	825,00
-1910,86	871,00
-1901,36	842,00
-1891,88	760,00
-1882,41	738,00
-1872,95	755,00
-1863,51	773,00
-1854,08	848,00
-1844,66	820,00
-1835,26	773,00
-1825,86	786,00
-1816,48	814,00
-1807,11	741,00
-1797,76	682,00
-1788,42	855,00
-1779,09	860,00
-1769,77	739,00
-1760,47	890,00
-1751,17	755,00
-1741,89	697,00
-1732,63	836,00
-1723,37	886,00
-1714,13	826,00
-1704,90	709,00
-1695,68	909,00
-1686,48	666,00
-1677,29	849,00
-1668,11	978,00
-1658,94	807,00
-1649,78	787,00
-1640,64	822,00
-1631,51	799,00
-1622,39	757,00
-1613,28	693,00
-1604,19	781,00
-1595,10	775,00
-1586,03	810,00
-1576,97	737,00
-1567,93	712,00
-1558,89	737,00
-1549,87	666,00
-1540,86	688,00
-1531,86	781,00
-1522,87	763,00
-1513,90	910,00
-1504,93	678,00
-1495,98	782,00
-1487,04	850,00
-1478,12	677,00
-1469,20	815,00
-1460,30	729,00
-1451,40	910,00
-1442,52	782,00
-1433,65	743,00
-1424,80	646,00
-1415,95	787,00
-1407,12	851,00
-1398,30	765,00
-1389,48	710,00
-1380,69	758,00
-1371,90	709,00
-1363,12	749,00
-1354,36	933,00
-1345,60	820,00
-1336,86	834,00
-1328,13	936,00
-1319,41	752,00
-1310,70	580,00
-1302,01	804,00
-1293,32	736,00
-1284,65	725,00
-1275,99	792,00
-1267,33	731,00
-1258,69	724,00
-1250,06	800,00
-1241,45	617,00
-1232,84	834,00
-1224,25	827,00
-1215,66	865,00
-1207,09	721,00
-1198,53	821,00
-1189,97	785,00
-1181,43	673,00
-1172,91	819,00
-1164,39	882,00
-1155,88	621,00
-1147,38	719,00
-1138,90	754,00
-1130,43	797,00
-1121,96	870,00
-1113,51	741,00
-1105,07	765,00
-1096,64	810,00
-1088,22	740,00
-1079,81	838,00
-1071,41	852,00
-1063,02	790,00
-1054,65	851,00
-1046,28	835,00
-1037,92	909,00
-1029,58	768,00
-1021,24	788,00
-1012,92	1013,00
-1004,61	755,00
-996,30	881,00
-988,01	662,00
-979,73	762,00
-971,46	778,00
-963,20	698,00
-954,95	778,00
-946,71	763,00
-938,48	793,00
-930,26	807,00
-922,06	814,00
-913,86	736,00
-905,67	779,00
-897,49	853,00
-889,33	712,00
-881,17	849,00
-873,02	780,00
-864,89	778,00
-856,76	805,00
-848,65	732,00
-840,54	875,00
-832,45	876,00
-824,36	694,00
-816,29	740,00
-808,22	786,00
-800,17	895,00
-792,12	782,00
-784,09	762,00
-776,06	755,00
-768,05	795,00
-760,04	740,00
-752,05	727,00
-744,07	766,00
-736,09	780,00
-728,13	721,00
-720,17	720,00
-712,23	652,00
-704,29	776,00
-696,37	789,00
-688,45	779,00
-680,55	749,00
-672,65	698,00
-664,77	807,00
-656,89	711,00
-649,03	688,00
-641,17	833,00
-633,32	799,00
-625,49	796,00
-617,66	678,00
-609,84	828,00
-602,03	704,00
-594,23	620,00
-586,45	816,00
-578,67	707,00
-570,90	657,00
-563,14	729,00
-555,39	791,00
-547,65	692,00
-539,91	814,00
-532,19	792,00
-524,48	796,00
-516,78	751,00
-509,08	809,00
-501,40	653,00
-493,72	663,00
-486,06	826,00
-478,40	899,00
-470,76	678,00
-463,12	690,00
-455,49	852,00
-447,87	747,00
-440,26	789,00
-432,66	742,00
-425,07	882,00
-417,49	809,00
-409,92	616,00
-402,35	835,00
-394,80	742,00
-387,25	674,00
-379,72	787,00
-372,19	796,00
-364,67	899,00
-357,17	805,00
-349,67	825,00
-342,18	813,00
-334,69	850,00
-327,22	773,00
-319,76	866,00
-312,30	809,00
-304,86	1003,00
-297,42	794,00
-290,00	774,00
-282,58	824,00
-275,17	928,00
-267,77	900,00
-260,37	856,00
-252,99	827,00
-245,62	857,00
-238,25	831,00
-230,90	893,00
-223,55	864,00
-216,21	992,00
-208,88	949,00
-201,56	1021,00
-194,25	1031,00
-186,94	1132,00
-179,65	1173,00
-172,36	1037,00
-165,08	1040,00
-157,81	1287,00
-150,55	1310,00
-143,30	1284,00
-136,06	1380,00
-128,82	1600,00
-121,60	1657,00
-114,38	1742,00
-107,17	1877,00
-99,97	2128,00
-92,78	2165,00
-85,60	2429,00
-78,42	2729,00
-71,25	2918,00
-64,10	3239,00
-56,95	3801,00
-49,81	4289,00
-42,67	5155,00
-35,55	6163,00
-28,43	8161,00
-21,33	12661,00
-14,23	38122,00
-7,14	56670,00
-0,05	56467,00
7,02	56225,00
14,09	56403,00
21,14	39563,00
28,19	17191,00
35,23	10812,00
42,27	8315,00
49,29	6889,00
56,31	5766,00
63,32	4947,00
70,32	4130,00
77,31	3702,00
84,29	3367,00
91,27	2991,00
98,23	2824,00
105,19	2541,00
112,14	2581,00
119,09	3287,00
126,02	4407,00
132,95	4593,00
139,87	4631,00
146,78	4505,00
153,68	4475,00
160,58	4278,00
167,46	4143,00
174,34	4160,00
181,21	4125,00
188,08	4071,00
194,93	4077,00
201,78	4162,00
208,62	4114,00
215,45	3958,00
222,27	4102,00
229,09	4039,00
235,90	3819,00
242,70	3942,00
249,49	3837,00
256,27	3940,00
263,05	3814,00
269,82	3682,00
276,58	3895,00
283,33	3718,00
290,08	3818,00
296,82	3804,00
303,55	3602,00
310,27	3559,00
316,98	3588,00
323,69	3506,00
330,39	3449,00
337,08	3576,00
343,76	3535,00
350,44	3501,00
357,11	3545,00
363,77	3443,00
370,42	3420,00
377,07	3392,00
383,71	3398,00
390,34	3399,00
396,96	3287,00
403,58	3456,00
410,19	3322,00
416,79	3556,00
423,38	3628,00
429,97	3613,00
436,55	3172,00
443,12	3275,00
449,68	3045,00
456,24	3167,00
462,79	3181,00
469,33	3264,00
475,86	3131,00
482,39	3081,00
488,91	3204,00
495,42	3115,00
501,93	2906,00
508,42	2944,00
514,91	3172,00
521,40	2978,00
527,87	2958,00
534,34	2797,00
540,80	3020,00
547,25	2974,00
553,70	2859,00
560,14	2975,00
566,57	3092,00
573,00	2916,00
579,41	2936,00
585,83	2933,00
592,23	2976,00
598,62	2905,00
605,01	2867,00
611,40	2937,00
617,77	2902,00
624,14	2894,00
630,50	2914,00
636,85	2765,00
643,20	2744,00
649,54	2874,00
655,87	2767,00
662,20	2752,00
668,52	2795,00
674,83	2751,00
681,13	2813,00
687,43	2686,00
693,72	2720,00
700,00	2733,00
706,28	2741,00
712,55	2721,00
718,81	2836,00
725,07	2810,00
731,32	2775,00
737,56	2697,00
743,79	2677,00
750,02	2643,00
756,24	2677,00
762,46	2672,00
768,67	3026,00
774,87	2704,00
781,06	2726,00
787,25	2800,00
793,43	2614,00
799,60	2661,00
805,77	2820,00
811,93	2765,00
818,08	2749,00
824,23	2785,00
830,37	2857,00
836,50	2842,00
842,63	2859,00
848,75	2781,00
854,87	2767,00
860,97	2563,00
867,07	2849,00
873,17	2795,00
879,25	2780,00
885,33	2690,00
891,41	2862,00
897,47	2725,00
903,53	2767,00
909,59	2672,00
915,63	2711,00
921,67	2657,00
927,71	2649,00
933,74	2659,00
939,76	2467,00
945,77	2417,00
951,78	2576,00
957,78	2452,00
963,78	2631,00
969,77	2435,00
975,75	2516,00
981,72	2584,00
987,69	3481,00
993,66	2679,00
999,61	2560,00
1005,56	2639,00
1011,51	2493,00
1017,44	2517,00
1023,37	2499,00
1029,30	2566,00
1035,22	2667,00
1041,13	2468,00
1047,03	2639,00
1052,93	2863,00
1058,83	3041,00
1064,71	3297,00
1070,59	3068,00
1076,47	2902,00
1082,33	2759,00
1088,20	2743,00
1094,05	2687,00
1099,90	2547,00
1105,74	2577,00
1111,58	2603,00
1117,41	2633,00
1123,23	2920,00
1129,05	2995,00
1134,86	3040,00
1140,67	2772,00
1146,47	2586,00
1152,26	2521,00
1158,05	2469,00
1163,83	2502,00
1169,60	2411,00
1175,37	2587,00
1181,13	2424,00
1186,89	2466,00
1192,64	2514,00
1198,38	2511,00
1204,12	2472,00
1209,85	2372,00
1215,58	2512,00
1221,30	2495,00
1227,02	2406,00
1232,72	2574,00
1238,43	2330,00
1244,12	2542,00
1249,81	2423,00
1255,50	2573,00
1261,17	2515,00
1266,85	2457,00
1272,51	2473,00
1278,17	2550,00
1283,83	2737,00
1289,47	3004,00
1295,12	3566,00
1300,75	3492,00
1306,38	3026,00
1312,01	2818,00
1317,63	2782,00
1323,24	2714,00
1328,85	2655,00
1334,45	2572,00
1340,04	2518,00
1345,63	2552,00
1351,22	2725,00
1356,80	2590,00
1362,37	2847,00
1367,93	2768,00
1373,49	2828,00
1379,05	2628,00
1384,60	2587,00
1390,14	2736,00
1395,68	2626,00
1401,21	2643,00
1406,74	2729,00
1412,26	2742,00
1417,77	3041,00
1423,28	3043,00
1428,78	3234,00
1434,28	3450,00
1439,77	3818,00
1445,26	3833,00
1450,74	3613,00
1456,22	3404,00
1461,68	3364,00
1467,15	3307,00
1472,61	2984,00
1478,06	3016,00
1483,51	2826,00
1488,95	2522,00
1494,38	2502,00
1499,81	2401,00
1505,24	2533,00
1510,65	2324,00
1516,07	2454,00
1521,48	2344,00
1526,88	2380,00
1532,27	2278,00
1537,67	2341,00
1543,05	2415,00
1548,43	2303,00
1553,81	2289,00
1559,18	2302,00
1564,54	2319,00
1569,90	2326,00
1575,25	2200,00
1580,60	2201,00
1585,94	2244,00
1591,28	2298,00
1596,61	2231,00
1601,93	2296,00
1607,25	2327,00
1612,57	2349,00
1617,88	2220,00
1623,18	2360,00
1628,48	2272,00
1633,77	2282,00
1639,06	2356,00
1644,34	2154,00
1649,62	2220,00
1654,89	2234,00
1660,16	2054,00
1665,42	2178,00
1670,67	2080,00
1675,92	2092,00
1681,17	2242,00
1686,41	2144,00
1691,64	2092,00
1696,87	2076,00
1702,10	2098,00
1707,32	2087,00
1712,53	2204,00
1717,74	2077,00
1722,94	2062,00
1728,14	2019,00
1733,33	2067,00
1738,52	1920,00
1743,70	2115,00
1748,88	2046,00
1754,05	2034,00
1759,22	1963,00
1764,38	2193,00
1769,53	1998,00
1774,69	1995,00
1779,83	2079,00
1784,97	1981,00
1790,11	2003,00
1795,24	1821,00
1800,36	1918,00
1805,48	1935,00
1810,60	1774,00
1815,71	1978,00
1820,82	1871,00
1825,92	2049,00
1831,01	1934,00
1836,10	1933,00
1841,19	1867,00
1846,26	1902,00
1851,34	1889,00
1856,41	1889,00
1861,47	1774,00
1866,53	1908,00
1871,59	1833,00
1876,64	1778,00
1881,68	1891,00
1886,72	1868,00
1891,76	1737,00
1896,79	1782,00
1901,81	1804,00
1906,83	1806,00
1911,85	1786,00
1916,86	1796,00
1921,86	1713,00
1926,86	1865,00
1931,86	1762,00
1936,85	1753,00
1941,83	1797,00
1946,81	1689,00
1951,79	1896,00
1956,76	1647,00
1961,72	1711,00
1966,68	1651,00
1971,64	1760,00
1976,59	1718,00
1981,54	1577,00
1986,48	1605,00
1991,42	1646,00
1996,35	1826,00
2001,27	1748,00
2006,20	1671,00
2011,11	1620,00
2016,03	1632,00
2020,93	1540,00
2025,84	1674,00
2030,73	1673,00
2035,63	1599,00
2040,52	1627,00
2045,40	1522,00
2050,28	1579,00
2055,15	1637,00
2060,02	1566,00
2064,89	1533,00
2069,75	1643,00
2074,60	1627,00
2079,46	1530,00
2084,30	1522,00
2089,14	1591,00
2093,98	1626,00
2098,81	1720,00
2103,64	1575,00
2108,46	1628,00
2113,28	1640,00
2118,09	1540,00
2122,90	1481,00
2127,70	1545,00
2132,50	1573,00
2137,30	1461,00
2142,09	1456,00
2146,87	1441,00
2151,66	1559,00
2156,43	1512,00
2161,20	1586,00
2165,97	1586,00
2170,73	1504,00
2175,49	1639,00
2180,24	1626,00
2184,99	1725,00
2189,74	1666,00
2194,48	1624,00
2199,21	1658,00
2203,94	1460,00
2208,67	1550,00
2213,39	1439,00
2218,11	1427,00
2222,82	1507,00
2227,53	1403,00
2232,23	1551,00
2236,93	1447,00
2241,63	1373,00
2246,32	1416,00
2251,00	1411,00
2255,68	1436,00
2260,36	1334,00
2265,03	1388,00
2269,70	1381,00
2274,36	1320,00
2279,02	1433,00
2283,68	1435,00
2288,33	1367,00
2292,97	1453,00
2297,61	1366,00
2302,25	1450,00
2306,88	1296,00
2311,51	1434,00
2316,14	1391,00
2320,75	1326,00
2325,37	1355,00
2329,98	1479,00
2334,59	1282,00
2339,19	1288,00
2343,79	1254,00
2348,38	1169,00
2352,97	1300,00
2357,55	1369,00
2362,13	1239,00
2366,71	1246,00
2371,28	1434,00
2375,85	1330,00
2380,41	1290,00
2384,97	1254,00
2389,52	1372,00
2394,07	1407,00
2398,62	1318,00
2403,16	1299,00
2407,70	1202,00
2412,23	1333,00
2416,76	1378,00
2421,29	1331,00
2425,81	1357,00
2430,32	1281,00
2434,84	1217,00
2439,34	1303,00
2443,85	1285,00
2448,35	1248,00
2452,84	1240,00
2457,33	1269,00
2461,82	1109,00
2466,30	1237,00
2470,78	1218,00
2475,25	1187,00
2479,72	1175,00
2484,19	1252,00
2488,65	1307,00
2493,11	1128,00
2497,56	1187,00
2502,01	1112,00
2506,46	1359,00
2510,90	1132,00
2515,34	1240,00
2519,77	1197,00
2524,20	1356,00
2528,62	1209,00
2533,04	1190,00
2537,46	1141,00
2541,87	1086,00
2546,28	1260,00
2550,68	1207,00
2555,08	1204,00
2559,48	1168,00
2563,87	1267,00
2568,26	1234,00
2572,64	1235,00
2577,02	1336,00
2581,40	1021,00
2585,77	1168,00
2590,14	1162,00
2594,50	1151,00
2598,86	1180,00
2603,22	1121,00
2607,57	1196,00
2611,92	1270,00
2616,26	1070,00
2620,60	1160,00
2624,94	1073,00
2629,27	1206,00
2633,60	1078,00
2637,92	1255,00
2642,24	1294,00
2646,56	1055,00
2650,87	1127,00
2655,18	1313,00
2659,48	1154,00
2663,78	1095,00
2668,08	1215,00
2672,37	1184,00
2676,66	1279,00
2680,95	1199,00
2685,23	1205,00
2689,50	1239,00
2693,78	1180,00
2698,05	1133,00
2702,31	1275,00
2706,57	1246,00
2710,83	1281,00
2715,08	1333,00
2719,33	1421,00
2723,58	1297,00
2727,82	1176,00
2732,06	1218,00
2736,29	1264,00
2740,53	1315,00
2744,75	1163,00
2748,97	1247,00
2753,19	1141,00
2757,41	1134,00
2761,62	1248,00
2765,83	1171,00
2770,03	1047,00
2774,23	1197,00
2778,43	1151,00
2782,62	1073,00
2786,81	1172,00
2791,00	1225,00
2795,18	1321,00
2799,35	1233,00
2803,53	1220,00
2807,70	1466,00
2811,86	1228,00
2816,03	1359,00
2820,19	1237,00
2824,34	1340,00
2828,49	1424,00
2832,64	1674,00
2836,78	1740,00
2840,92	1918,00
2845,06	2105,00
2849,19	2408,00
2853,32	2573,00
2857,45	2493,00
2861,57	2455,00
2865,69	2479,00
2869,80	2344,00
2873,91	2508,00
2878,02	2500,00
2882,12	2534,00
2886,22	2544,00
2890,32	2652,00
2894,41	2476,00
2898,50	2287,00
2902,58	2290,00
2906,67	2196,00
2910,74	2094,00
2914,82	2014,00
2918,89	1890,00
2922,96	1980,00
2927,02	1837,00
2931,08	1713,00
2935,13	1600,00
2939,19	1599,00
2943,24	1636,00
2947,28	1568,00
2951,32	1332,00
2955,36	1368,00
2959,40	1381,00
2963,43	1306,00
2967,46	1145,00
2971,48	1195,00
2975,50	1180,00
2979,52	1139,00
2983,53	1225,00
2987,54	1000,00
2991,55	1118,00
2995,55	1093,00
2999,55	940,00
3003,54	1046,00
3007,54	1059,00
3011,53	951,00
3015,51	973,00
3019,49	974,00
3023,47	1005,00
3027,45	1060,00
3031,42	887,00
3035,39	997,00
3039,35	889,00
3043,31	963,00
3047,27	909,00
3051,22	1057,00
3055,17	1010,00
3059,12	849,00
3063,06	912,00
3067,00	874,00
3070,94	834,00
3074,87	809,00
3078,80	996,00
3082,73	904,00
3086,65	828,00
3090,57	834,00
3094,49	917,00
3098,40	921,00
3102,31	838,00
3106,22	858,00
3110,12	1070,00
3114,02	921,00
3117,92	956,00
3121,81	871,00
3125,70	793,00
3129,58	807,00
3133,47	811,00
3137,34	923,00
3141,22	863,00
3145,09	1010,00
3148,96	820,00
3152,83	901,00
3156,69	985,00
3160,55	874,00
3164,40	863,00
3168,26	928,00
3172,10	991,00
3175,95	959,00
3179,79	917,00
3183,63	934,00
3187,47	924,00
3191,30	946,00
3195,13	1023,00
3198,95	847,00
3202,78	862,00
3206,60	775,00
3210,41	795,00
3214,23	887,00
3218,03	729,00
3221,84	801,00
3225,64	915,00
3229,44	808,00
3233,24	796,00
3237,03	907,00
3240,82	899,00
3244,61	746,00
3248,39	774,00
3252,17	848,00
3255,95	1099,00
3259,72	958,00
3263,49	861,00
3267,26	869,00
3271,03	809,00
3274,79	823,00
3278,54	810,00
3282,30	786,00
3286,05	843,00
3289,80	772,00
3293,54	774,00
3297,29	846,00
3301,02	809,00
3304,76	874,00
3308,49	792,00
3312,22	735,00
3315,95	856,00
3319,67	794,00
3323,39	935,00
3327,10	931,00
3330,82	862,00
3334,53	877,00
3338,24	813,00
3341,94	852,00
3345,64	836,00
3349,34	837,00
3353,03	854,00
3356,72	864,00
3360,41	835,00
3364,10	768,00
3367,78	853,00
3371,46	796,00
3375,13	887,00
3378,81	955,00
3382,48	698,00
3386,14	791,00
3389,81	821,00
3393,47	860,00
3397,12	924,00
3400,78	855,00
3404,43	813,00
3408,08	961,00
3411,72	894,00
3415,36	851,00
3419,00	745,00
3422,64	831,00
3426,27	735,00
3429,90	798,00
3433,53	788,00
3437,15	755,00
3440,77	707,00
3444,39	814,00
3448,00	768,00
3451,62	817,00
3455,22	808,00
3458,83	848,00
3462,43	733,00
3466,03	889,00
3469,63	654,00
3473,22	743,00
3476,81	803,00
3480,40	721,00
3483,99	716,00
3487,57	854,00
3491,15	819,00
3494,72	644,00
3498,29	673,00
3501,86	739,00
3505,43	794,00
3508,99	702,00
3512,56	730,00
3516,11	864,00
3519,67	805,00
3523,22	767,00
3526,77	679,00
3530,32	789,00
3533,86	796,00
3537,40	814,00
3540,94	723,00
3544,47	682,00
3548,00	759,00
3551,53	845,00
3555,06	795,00
3558,58	862,00
3562,10	768,00
3565,62	711,00
3569,13	782,00
3572,64	713,00
3576,15	633,00
3579,66	902,00
3583,16	719,00
3586,66	721,00
3590,16	711,00
3593,65	660,00
3597,14	638,00
3600,63	658,00
3604,11	839,00
3607,60	747,00
3611,08	789,00
3614,55	756,00
3618,03	709,00
3621,50	677,00
3624,97	714,00
3628,43	782,00
3631,90	765,00
3635,36	659,00
3638,81	616,00
3642,27	719,00
3645,72	748,00
3649,17	817,00
3652,61	577,00
3656,06	685,00
3659,50	584,00
3662,93	704,00
3666,37	804,00
3669,80	778,00
3673,23	750,00
3676,65	715,00
3680,08	783,00
3683,50	703,00
3686,92	733,00
3690,33	573,00
3693,74	633,00
3697,15	654,00
3700,56	769,00
3703,96	695,00
3707,36	634,00
3710,76	554,00
3714,16	611,00
3717,55	688,00
3720,94	747,00
3724,33	661,00
3727,71	669,00
3731,10	669,00
3734,48	668,00
3737,85	658,00
3741,23	710,00
3744,60	673,00
3747,97	574,00
3751,33	622,00
3754,69	534,00
3758,05	731,00
3761,41	547,00
3764,77	649,00
3768,12	515,00
3771,47	550,00
3774,82	641,00
3778,16	-4,00
3781,50	21,00
3784,84	9,00
3788,18	7,00
>>>>>End Processed Spectral Data<<<<<
