SpectraSuite Data File
++++++++++++++++++++++++++++++++++++
Date: Mon Mar 09 16:24:15 ICT 2026
User: Administrator
Dark Spectrum Present: Yes
Reference Spectrum Present: No
Number of Sampled Component Spectra: 1
Spectrometers: MAYP113682
Integration Time (usec): 3000000 (MAYP113682)
Spectra Averaged: 1 (MAYP113682)
Boxcar Smoothing: 0 (MAYP113682)
Correct for Electrical Dark: No (MAYP113682)
Strobe/Lamp Enabled: No (MAYP113682)
Correct for Detector Non-linearity: No (MAYP113682)
Correct for Stray Light: No (MAYP113682)
Number of Pixels in Processed Spectrum: 2068
>>>>>Begin Processed Spectral Data<<<<<
-37534,58	-4,00
-37414,56	0,00
-37295,11	-1,00
-37176,24	-7,00
-37057,95	-31,00
-36940,22	99,00
-36823,05	185,00
-36706,45	128,00
-36590,40	25,00
-36474,90	131,00
-36359,95	79,00
-36245,55	22,00
-36131,68	138,00
-36018,35	138,00
-35905,55	24,00
-35793,29	3,00
-35681,54	108,00
-35570,32	33,00
-35459,62	-16,00
-35349,43	104,00
-35239,75	42,00
-35130,58	80,00
-35021,91	-5,00
-34913,74	0,00
-34806,07	85,00
-34698,89	67,00
-34592,20	25,00
-34486,00	82,00
-34380,28	76,00
-34275,04	77,00
-34170,27	27,00
-34065,98	-34,00
-33962,16	66,00
-33858,81	72,00
-33755,92	163,00
-33653,49	133,00
-33551,52	57,00
-33450,01	165,00
-33348,94	67,00
-33248,33	1,00
-33148,16	25,00
-33048,43	196,00
-32949,14	116,00
-32850,29	69,00
-32751,87	51,00
-32653,89	-36,00
-32556,33	67,00
-32459,20	131,00
-32362,49	131,00
-32266,19	13,00
-32170,32	72,00
-32074,86	49,00
-31979,82	-96,00
-31885,18	123,00
-31790,95	87,00
-31697,12	-55,00
-31603,69	217,00
-31510,67	10,00
-31418,04	109,00
-31325,80	124,00
-31233,95	246,00
-31142,49	155,00
-31051,42	180,00
-30960,73	77,00
-30870,43	46,00
-30780,50	157,00
-30690,95	39,00
-30601,77	226,00
-30512,97	212,00
-30424,53	80,00
-30336,46	12,00
-30248,76	-4,00
-30161,42	176,00
-30074,44	38,00
-29987,81	199,00
-29901,55	34,00
-29815,63	40,00
-29730,07	78,00
-29644,86	69,00
-29560,00	28,00
-29475,48	204,00
-29391,30	60,00
-29307,47	73,00
-29223,97	31,00
-29140,81	82,00
-29057,99	138,00
-28975,50	105,00
-28893,34	249,00
-28811,51	-8,00
-28730,00	119,00
-28648,82	56,00
-28567,97	69,00
-28487,43	49,00
-28407,21	99,00
-28327,32	111,00
-28247,73	117,00
-28168,46	111,00
-28089,50	92,00
-28010,85	13,00
-27932,51	111,00
-27854,48	131,00
-27776,75	108,00
-27699,32	37,00
-27622,19	194,00
-27545,37	-4,00
-27468,84	160,00
-27392,60	130,00
-27316,66	9,00
-27241,01	78,00
-27165,66	135,00
-27090,59	35,00
-27015,81	93,00
-26941,31	26,00
-26867,10	26,00
-26793,17	13,00
-26719,52	20,00
-26646,15	55,00
-26573,06	2,00
-26500,24	48,00
-26427,70	158,00
-26355,43	39,00
-26283,43	106,00
-26211,71	22,00
-26140,25	171,00
-26069,06	141,00
-25998,13	172,00
-25927,46	-1,00
-25857,06	166,00
-25786,92	138,00
-25717,04	82,00
-25647,42	165,00
-25578,05	95,00
-25508,94	169,00
-25440,09	27,00
-25371,48	92,00
-25303,13	237,00
-25235,02	41,00
-25167,17	89,00
-25099,56	32,00
-25032,19	144,00
-24965,07	97,00
-24898,20	118,00
-24831,56	46,00
-24765,17	88,00
-24699,01	164,00
-24633,10	94,00
-24567,41	162,00
-24501,97	125,00
-24436,75	10,00
-24371,77	115,00
-24307,03	29,00
-24242,51	142,00
-24178,22	-38,00
-24114,16	85,00
-24050,32	160,00
-23986,71	168,00
-23923,32	111,00
-23860,16	73,00
-23797,22	78,00
-23734,50	50,00
-23672,00	47,00
-23609,71	80,00
-23547,65	57,00
-23485,80	55,00
-23424,16	51,00
-23362,74	140,00
-23301,53	-43,00
-23240,54	4,00
-23179,75	132,00
-23119,17	96,00
-23058,80	98,00
-22998,64	98,00
-22938,68	109,00
-22878,93	123,00
-22819,39	61,00
-22760,04	97,00
-22700,90	-67,00
-22641,96	-6,00
-22583,22	11,00
-22524,68	117,00
-22466,33	159,00
-22408,19	31,00
-22350,23	53,00
-22292,48	110,00
-22234,92	96,00
-22177,55	10,00
-22120,37	109,00
-22063,38	22,00
-22006,58	91,00
-21949,98	89,00
-21893,56	116,00
-21837,33	-6,00
-21781,28	110,00
-21725,42	91,00
-21669,74	68,00
-21614,25	101,00
-21558,94	50,00
-21503,81	51,00
-21448,86	-129,00
-21394,10	194,00
-21339,51	67,00
-21285,10	195,00
-21230,86	148,00
-21176,81	127,00
-21122,93	50,00
-21069,22	15,00
-21015,69	49,00
-20962,33	198,00
-20909,14	74,00
-20856,13	96,00
-20803,28	-8,00
-20750,61	23,00
-20698,10	-16,00
-20645,76	56,00
-20593,59	89,00
-20541,59	81,00
-20489,75	52,00
-20438,07	100,00
-20386,56	-42,00
-20335,22	132,00
-20284,03	18,00
-20233,01	133,00
-20182,15	-15,00
-20131,45	-85,00
-20080,91	-68,00
-20030,52	-27,00
-19980,30	-22,00
-19930,23	68,00
-19880,32	160,00
-19830,56	31,00
-19780,96	16,00
-19731,52	156,00
-19682,23	76,00
-19633,09	41,00
-19584,10	-25,00
-19535,26	81,00
-19486,58	72,00
-19438,04	63,00
-19389,66	80,00
-19341,42	13,00
-19293,33	12,00
-19245,39	136,00
-19197,60	147,00
-19149,95	93,00
-19102,45	69,00
-19055,09	95,00
-19007,87	73,00
-18960,80	153,00
-18913,87	64,00
-18867,09	9,00
-18820,44	115,00
-18773,94	159,00
-18727,57	77,00
-18681,35	17,00
-18635,26	110,00
-18589,31	83,00
-18543,50	9,00
-18497,83	-10,00
-18452,29	128,00
-18406,89	38,00
-18361,63	125,00
-18316,50	92,00
-18271,50	185,00
-18226,63	32,00
-18181,90	85,00
-18137,30	212,00
-18092,84	5,00
-18048,50	178,00
-18004,29	108,00
-17960,22	52,00
-17916,27	151,00
-17872,45	8,00
-17828,76	180,00
-17785,20	72,00
-17741,77	129,00
-17698,46	200,00
-17655,28	41,00
-17612,22	53,00
-17569,29	113,00
-17526,48	53,00
-17483,79	172,00
-17441,23	101,00
-17398,79	90,00
-17356,48	39,00
-17314,28	77,00
-17272,21	49,00
-17230,26	102,00
-17188,42	180,00
-17146,71	-22,00
-17105,12	-48,00
-17063,64	34,00
-17022,28	171,00
-16981,04	133,00
-16939,92	26,00
-16898,91	105,00
-16858,02	63,00
-16817,25	129,00
-16776,59	123,00
-16736,04	7,00
-16695,61	100,00
-16655,29	19,00
-16615,09	164,00
-16574,99	45,00
-16535,01	108,00
-16495,15	179,00
-16455,39	19,00
-16415,74	67,00
-16376,21	73,00
-16336,78	78,00
-16297,46	72,00
-16258,26	-22,00
-16219,16	87,00
-16180,17	116,00
-16141,28	224,00
-16102,51	126,00
-16063,84	97,00
-16025,27	111,00
-15986,82	248,00
-15948,46	11,00
-15910,22	-9,00
-15872,07	102,00
-15834,04	100,00
-15796,10	112,00
-15758,27	174,00
-15720,54	3,00
-15682,91	134,00
-15645,39	54,00
-15607,97	59,00
-15570,64	39,00
-15533,42	21,00
-15496,30	138,00
-15459,28	145,00
-15422,36	156,00
-15385,54	-61,00
-15348,82	-9,00
-15312,19	-2,00
-15275,66	58,00
-15239,23	172,00
-15202,90	120,00
-15166,67	72,00
-15130,53	101,00
-15094,48	94,00
-15058,54	56,00
-15022,68	63,00
-14986,93	168,00
-14951,26	19,00
-14915,69	93,00
-14880,22	62,00
-14844,84	3,00
-14809,55	102,00
-14774,35	27,00
-14739,25	53,00
-14704,24	62,00
-14669,32	-41,00
-14634,49	193,00
-14599,75	75,00
-14565,10	-23,00
-14530,55	7,00
-14496,08	39,00
-14461,70	71,00
-14427,41	36,00
-14393,21	148,00
-14359,10	21,00
-14325,07	24,00
-14291,14	-10,00
-14257,29	59,00
-14223,52	86,00
-14189,85	71,00
-14156,26	81,00
-14122,76	118,00
-14089,34	113,00
-14056,01	175,00
-14022,76	122,00
-13989,60	-16,00
-13956,52	55,00
-13923,53	9,00
-13890,62	60,00
-13857,79	-17,00
-13825,05	103,00
-13792,39	55,00
-13759,81	90,00
-13727,31	39,00
-13694,90	6,00
-13662,57	79,00
-13630,31	13,00
-13598,14	-57,00
-13566,05	89,00
-13534,05	62,00
-13502,12	46,00
-13470,27	53,00
-13438,50	111,00
-13406,80	-37,00
-13375,19	104,00
-13343,66	24,00
-13312,20	64,00
-13280,83	154,00
-13249,53	60,00
-13218,30	43,00
-13187,16	-9,00
-13156,09	118,00
-13125,10	1,00
-13094,18	138,00
-13063,34	77,00
-13032,58	-28,00
-13001,89	63,00
-12971,28	-1,00
-12940,74	113,00
-12910,27	35,00
-12879,88	131,00
-12849,57	17,00
-12819,33	55,00
-12789,16	74,00
-12759,06	74,00
-12729,04	60,00
-12699,09	187,00
-12669,21	30,00
-12639,41	6,00
-12609,68	114,00
-12580,02	-12,00
-12550,43	95,00
-12520,91	25,00
-12491,46	77,00
-12462,08	63,00
-12432,77	23,00
-12403,54	6,00
-12374,37	108,00
-12345,27	60,00
-12316,24	127,00
-12287,29	63,00
-12258,40	68,00
-12229,57	68,00
-12200,82	40,00
-12172,14	-11,00
-12143,52	103,00
-12114,97	86,00
-12086,49	32,00
-12058,07	-16,00
-12029,73	146,00
-12001,44	94,00
-11973,23	169,00
-11945,08	104,00
-11917,00	146,00
-11888,98	88,00
-11861,03	104,00
-11833,15	58,00
-11805,32	72,00
-11777,57	95,00
-11749,88	210,00
-11722,25	-7,00
-11694,69	92,00
-11667,19	-12,00
-11639,75	80,00
-11612,38	-20,00
-11585,07	110,00
-11557,83	71,00
-11530,65	93,00
-11503,53	79,00
-11476,47	74,00
-11449,48	115,00
-11422,54	8,00
-11395,67	-24,00
-11368,86	147,00
-11342,11	61,00
-11315,43	74,00
-11288,80	25,00
-11262,23	161,00
-11235,73	57,00
-11209,28	-7,00
-11182,90	101,00
-11156,57	138,00
-11130,31	191,00
-11104,10	-64,00
-11077,96	4,00
-11051,87	136,00
-11025,84	103,00
-10999,87	103,00
-10973,96	90,00
-10948,11	48,00
-10922,31	22,00
-10896,58	167,00
-10870,90	175,00
-10845,28	66,00
-10819,71	45,00
-10794,20	87,00
-10768,75	15,00
-10743,36	79,00
-10718,02	161,00
-10692,74	97,00
-10667,52	104,00
-10642,35	160,00
-10617,24	72,00
-10592,18	73,00
-10567,18	203,00
-10542,23	240,00
-10517,34	168,00
-10492,51	181,00
-10467,72	186,00
-10443,00	154,00
-10418,32	161,00
-10393,70	-19,00
-10369,14	63,00
-10344,63	34,00
-10320,17	273,00
-10295,77	152,00
-10271,42	151,00
-10247,12	63,00
-10222,88	138,00
-10198,68	172,00
-10174,54	168,00
-10150,46	92,00
-10126,42	217,00
-10102,44	115,00
-10078,51	146,00
-10054,63	157,00
-10030,80	176,00
-10007,03	123,00
-9983,30	81,00
-9959,63	136,00
-9936,01	354,00
-9912,44	218,00
-9888,92	205,00
-9865,44	267,00
-9842,02	79,00
-9818,65	300,00
-9795,33	242,00
-9772,06	162,00
-9748,84	208,00
-9725,67	295,00
-9702,55	287,00
-9679,47	324,00
-9656,45	388,00
-9633,47	396,00
-9610,55	455,00
-9587,67	348,00
-9564,84	420,00
-9542,06	461,00
-9519,32	480,00
-9496,64	522,00
-9474,00	609,00
-9451,41	777,00
-9428,87	476,00
-9406,37	701,00
-9383,92	662,00
-9361,52	636,00
-9339,17	384,00
-9316,86	671,00
-9294,60	825,00
-9272,38	776,00
-9250,21	916,00
-9228,09	1006,00
-9206,01	906,00
-9183,98	832,00
-9162,00	742,00
-9140,06	700,00
-9118,16	721,00
-9096,31	812,00
-9074,51	965,00
-9052,75	894,00
-9031,04	917,00
-9009,37	753,00
-8987,74	640,00
-8966,16	544,00
-8944,63	383,00
-8923,14	461,00
-8901,69	422,00
-8880,29	659,00
-8858,93	712,00
-8837,61	796,00
-8816,34	984,00
-8795,11	818,00
-8773,92	695,00
-8752,78	535,00
-8731,68	698,00
-8710,62	451,00
-8689,61	754,00
-8668,63	776,00
-8647,70	708,00
-8626,82	739,00
-8605,97	738,00
-8585,17	686,00
-8564,41	461,00
-8543,69	559,00
-8523,01	466,00
-8502,37	593,00
-8481,78	692,00
-8461,23	768,00
-8440,71	728,00
-8420,24	745,00
-8399,81	947,00
-8379,42	759,00
-8359,08	757,00
-8338,77	721,00
-8318,50	615,00
-8298,27	559,00
-8278,09	523,00
-8257,94	638,00
-8237,83	729,00
-8217,76	799,00
-8197,74	780,00
-8177,75	701,00
-8157,80	644,00
-8137,89	641,00
-8118,02	578,00
-8098,19	661,00
-8078,40	767,00
-8058,65	636,00
-8038,93	798,00
-8019,26	675,00
-7999,62	641,00
-7980,02	440,00
-7960,46	563,00
-7940,94	639,00
-7921,46	454,00
-7902,01	525,00
-7882,60	588,00
-7863,23	539,00
-7843,90	548,00
-7824,61	498,00
-7805,35	670,00
-7786,13	782,00
-7766,95	715,00
-7747,80	615,00
-7728,69	634,00
-7709,62	594,00
-7690,59	591,00
-7671,59	689,00
-7652,63	684,00
-7633,70	675,00
-7614,81	575,00
-7595,96	693,00
-7577,15	603,00
-7558,37	578,00
-7539,62	609,00
-7520,91	656,00
-7502,24	476,00
-7483,60	574,00
-7465,00	507,00
-7446,44	441,00
-7427,91	397,00
-7409,41	355,00
-7390,95	484,00
-7372,53	344,00
-7354,14	303,00
-7335,78	192,00
-7317,46	546,00
-7299,18	467,00
-7280,92	507,00
-7262,71	569,00
-7244,52	608,00
-7226,38	638,00
-7208,26	652,00
-7190,18	635,00
-7172,14	602,00
-7154,12	381,00
-7136,15	512,00
-7118,20	604,00
-7100,29	541,00
-7082,41	531,00
-7064,57	536,00
-7046,76	414,00
-7028,98	445,00
-7011,24	452,00
-6993,53	182,00
-6975,85	332,00
-6958,20	345,00
-6940,59	149,00
-6923,01	357,00
-6905,46	292,00
-6887,94	492,00
-6870,46	540,00
-6853,01	526,00
-6835,59	559,00
-6818,21	387,00
-6800,85	456,00
-6783,53	369,00
-6766,24	158,00
-6748,98	71,00
-6731,76	140,00
-6714,56	-42,00
-6697,40	215,00
-6680,26	209,00
-6663,16	338,00
-6646,09	225,00
-6629,05	430,00
-6612,05	484,00
-6595,07	433,00
-6578,13	273,00
-6561,21	280,00
-6544,33	195,00
-6527,47	125,00
-6510,65	53,00
-6493,86	79,00
-6477,10	193,00
-6460,36	147,00
-6443,66	167,00
-6426,99	256,00
-6410,35	113,00
-6393,74	222,00
-6377,16	266,00
-6360,61	139,00
-6344,09	308,00
-6327,59	224,00
-6311,13	198,00
-6294,70	233,00
-6278,29	446,00
-6261,92	397,00
-6245,58	473,00
-6229,26	455,00
-6212,97	405,00
-6196,72	244,00
-6180,49	161,00
-6164,29	177,00
-6148,12	144,00
-6131,98	40,00
-6115,86	0,00
-6099,78	154,00
-6083,72	67,00
-6067,69	29,00
-6051,69	98,00
-6035,72	114,00
-6019,78	151,00
-6003,87	150,00
-5987,98	312,00
-5972,12	301,00
-5956,29	265,00
-5940,49	307,00
-5924,71	174,00
-5908,96	157,00
-5893,24	88,00
-5877,55	129,00
-5861,89	156,00
-5846,25	84,00
-5830,64	93,00
-5815,05	126,00
-5799,50	161,00
-5783,97	113,00
-5768,47	200,00
-5752,99	190,00
-5737,55	215,00
-5722,12	280,00
-5706,73	360,00
-5691,36	338,00
-5676,02	184,00
-5660,71	148,00
-5645,42	219,00
-5630,16	27,00
-5614,92	187,00
-5599,71	170,00
-5584,53	38,00
-5569,37	183,00
-5554,24	1185,00
-5539,14	202,00
-5524,06	176,00
-5509,01	183,00
-5493,98	144,00
-5478,98	80,00
-5464,00	204,00
-5449,05	-16,00
-5434,13	176,00
-5419,23	102,00
-5404,36	112,00
-5389,51	266,00
-5374,69	350,00
-5359,89	340,00
-5345,12	324,00
-5330,37	316,00
-5315,65	239,00
-5300,95	239,00
-5286,28	153,00
-5271,63	218,00
-5257,01	116,00
-5242,41	301,00
-5227,84	122,00
-5213,29	93,00
-5198,76	32,00
-5184,26	129,00
-5169,79	99,00
-5155,33	212,00
-5140,91	236,00
-5126,51	139,00
-5112,13	269,00
-5097,77	102,00
-5083,44	112,00
-5069,13	63,00
-5054,85	202,00
-5040,59	133,00
-5026,36	149,00
-5012,15	260,00
-4997,96	131,00
-4983,80	99,00
-4969,66	106,00
-4955,54	216,00
-4941,44	196,00
-4927,37	272,00
-4913,33	409,00
-4899,30	378,00
-4885,30	291,00
-4871,33	294,00
-4857,37	161,00
-4843,44	174,00
-4829,53	133,00
-4815,65	196,00
-4801,79	67,00
-4787,95	74,00
-4774,13	229,00
-4760,34	185,00
-4746,56	144,00
-4732,82	64,00
-4719,09	169,00
-4705,38	219,00
-4691,70	274,00
-4678,04	255,00
-4664,41	180,00
-4650,79	7,00
-4637,20	160,00
-4623,63	146,00
-4610,08	154,00
-4596,56	127,00
-4583,05	272,00
-4569,57	120,00
-4556,11	200,00
-4542,67	152,00
-4529,25	101,00
-4515,86	66,00
-4502,49	273,00
-4489,13	238,00
-4475,80	181,00
-4462,49	228,00
-4449,21	159,00
-4435,94	223,00
-4422,70	105,00
-4409,47	169,00
-4396,27	195,00
-4383,09	122,00
-4369,93	-39,00
-4356,79	57,00
-4343,67	48,00
-4330,58	114,00
-4317,50	148,00
-4304,45	100,00
-4291,41	119,00
-4278,40	54,00
-4265,41	53,00
-4252,44	68,00
-4239,49	138,00
-4226,55	256,00
-4213,65	230,00
-4200,76	17,00
-4187,89	97,00
-4175,04	90,00
-4162,21	223,00
-4149,40	80,00
-4136,61	179,00
-4123,85	135,00
-4111,10	-10,00
-4098,37	31,00
-4085,66	181,00
-4072,98	173,00
-4060,31	119,00
-4047,66	123,00
-4035,04	68,00
-4022,43	138,00
-4009,84	128,00
-3997,27	19,00
-3984,72	196,00
-3972,19	47,00
-3959,69	50,00
-3947,20	133,00
-3934,73	-11,00
-3922,27	138,00
-3909,84	58,00
-3897,43	215,00
-3885,04	-23,00
-3872,67	-12,00
-3860,31	19,00
-3847,98	243,00
-3835,66	25,00
-3823,36	-26,00
-3811,09	71,00
-3798,83	69,00
-3786,59	152,00
-3774,37	172,00
-3762,17	166,00
-3749,98	54,00
-3737,82	18,00
-3725,67	18,00
-3713,55	-18,00
-3701,44	58,00
-3689,35	31,00
-3677,28	107,00
-3665,22	-5,00
-3653,19	-23,00
-3641,17	120,00
-3629,18	66,00
-3617,20	82,00
-3605,24	622,00
-3593,30	316,00
-3581,37	43,00
-3569,47	102,00
-3557,58	6,00
-3545,71	110,00
-3533,86	142,00
-3522,02	1,00
-3510,21	120,00
-3498,41	-41,00
-3486,63	83,00
-3474,87	71,00
-3463,12	125,00
-3451,40	162,00
-3439,69	168,00
-3428,00	180,00
-3416,33	14,00
-3404,67	-3,00
-3393,03	199,00
-3381,41	69,00
-3369,81	-19,00
-3358,22	199,00
-3346,66	100,00
-3335,10	57,00
-3323,57	156,00
-3312,06	85,00
-3300,56	108,00
-3289,08	61,00
-3277,61	78,00
-3266,16	93,00
-3254,73	101,00
-3243,32	120,00
-3231,92	121,00
-3220,55	38,00
-3209,18	-20,00
-3197,84	95,00
-3186,51	90,00
-3175,20	106,00
-3163,90	62,00
-3152,63	98,00
-3141,36	87,00
-3130,12	-12,00
-3118,89	7,00
-3107,68	188,00
-3096,49	111,00
-3085,31	79,00
-3074,15	57,00
-3063,00	67,00
-3051,87	104,00
-3040,76	51,00
-3029,67	11,00
-3018,59	46,00
-3007,52	113,00
-2996,48	40,00
-2985,44	92,00
-2974,43	48,00
-2963,43	120,00
-2952,45	139,00
-2941,48	64,00
-2930,53	-60,00
-2919,60	193,00
-2908,68	137,00
-2897,78	131,00
-2886,89	148,00
-2876,02	120,00
-2865,17	102,00
-2854,33	138,00
-2843,50	77,00
-2832,70	182,00
-2821,90	105,00
-2811,13	43,00
-2800,37	18,00
-2789,62	110,00
-2778,89	100,00
-2768,18	25,00
-2757,48	140,00
-2746,80	42,00
-2736,13	35,00
-2725,48	114,00
-2714,84	52,00
-2704,22	93,00
-2693,61	106,00
-2683,02	54,00
-2672,45	134,00
-2661,89	203,00
-2651,34	19,00
-2640,81	149,00
-2630,30	128,00
-2619,80	185,00
-2609,31	68,00
-2598,84	84,00
-2588,39	35,00
-2577,95	73,00
-2567,52	65,00
-2557,11	20,00
-2546,71	128,00
-2536,33	309,00
-2525,97	48,00
-2515,62	48,00
-2505,28	59,00
-2494,96	82,00
-2484,65	32,00
-2474,36	94,00
-2464,08	107,00
-2453,82	106,00
-2443,57	182,00
-2433,33	50,00
-2423,11	136,00
-2412,91	34,00
-2402,72	126,00
-2392,54	211,00
-2382,38	99,00
-2372,23	25,00
-2362,09	-4409,00
-2351,97	97,00
-2341,87	30,00
-2331,78	34,00
-2321,70	-26,00
-2311,64	51,00
-2301,59	110,00
-2291,55	96,00
-2281,53	78,00
-2271,53	47,00
-2261,53	72,00
-2251,55	112,00
-2241,59	127,00
-2231,64	26,00
-2221,70	77,00
-2211,78	125,00
-2201,87	113,00
-2191,97	30,00
-2182,09	178,00
-2172,22	115,00
-2162,37	-23,00
-2152,53	98,00
-2142,70	110,00
-2132,89	148,00
-2123,09	4,00
-2113,30	57,00
-2103,53	98,00
-2093,77	88,00
-2084,02	19,00
-2074,29	50,00
-2064,57	35,00
-2054,86	144,00
-2045,17	63,00
-2035,49	47,00
-2025,82	39,00
-2016,17	47,00
-2006,53	22,00
-1996,91	5,00
-1987,29	107,00
-1977,69	69,00
-1968,11	58,00
-1958,53	86,00
-1948,97	208,00
-1939,42	63,00
-1929,89	-6,00
-1920,37	42,00
-1910,86	143,00
-1901,36	53,00
-1891,88	125,00
-1882,41	10,00
-1872,95	39,00
-1863,51	-40,00
-1854,08	3,00
-1844,66	132,00
-1835,26	148,00
-1825,86	133,00
-1816,48	57,00
-1807,11	150,00
-1797,76	12,00
-1788,42	54,00
-1779,09	35,00
-1769,77	-67,00
-1760,47	74,00
-1751,17	34,00
-1741,89	139,00
-1732,63	125,00
-1723,37	166,00
-1714,13	141,00
-1704,90	20,00
-1695,68	160,00
-1686,48	98,00
-1677,29	178,00
-1668,11	166,00
-1658,94	111,00
-1649,78	150,00
-1640,64	131,00
-1631,51	1,00
-1622,39	167,00
-1613,28	103,00
-1604,19	-25,00
-1595,10	55,00
-1586,03	164,00
-1576,97	54,00
-1567,93	141,00
-1558,89	30,00
-1549,87	-1,00
-1540,86	50,00
-1531,86	131,00
-1522,87	-4,00
-1513,90	280,00
-1504,93	-70,00
-1495,98	112,00
-1487,04	236,00
-1478,12	246,00
-1469,20	90,00
-1460,30	99,00
-1451,40	118,00
-1442,52	196,00
-1433,65	104,00
-1424,80	144,00
-1415,95	-37,00
-1407,12	-28,00
-1398,30	220,00
-1389,48	141,00
-1380,69	100,00
-1371,90	55,00
-1363,12	119,00
-1354,36	63,00
-1345,60	49,00
-1336,86	43,00
-1328,13	94,00
-1319,41	29,00
-1310,70	148,00
-1302,01	69,00
-1293,32	38,00
-1284,65	211,00
-1275,99	102,00
-1267,33	-5,00
-1258,69	49,00
-1250,06	80,00
-1241,45	113,00
-1232,84	137,00
-1224,25	106,00
-1215,66	52,00
-1207,09	109,00
-1198,53	99,00
-1189,97	84,00
-1181,43	97,00
-1172,91	100,00
-1164,39	173,00
-1155,88	168,00
-1147,38	14,00
-1138,90	26,00
-1130,43	76,00
-1121,96	122,00
-1113,51	148,00
-1105,07	98,00
-1096,64	16,00
-1088,22	147,00
-1079,81	147,00
-1071,41	106,00
-1063,02	96,00
-1054,65	160,00
-1046,28	82,00
-1037,92	119,00
-1029,58	80,00
-1021,24	119,00
-1012,92	212,00
-1004,61	86,00
-996,30	177,00
-988,01	51,00
-979,73	69,00
-971,46	193,00
-963,20	-32,00
-954,95	-51,00
-946,71	32,00
-938,48	76,00
-930,26	78,00
-922,06	90,00
-913,86	85,00
-905,67	91,00
-897,49	104,00
-889,33	125,00
-881,17	35,00
-873,02	7,00
-864,89	87,00
-856,76	223,00
-848,65	111,00
-840,54	6,00
-832,45	53,00
-824,36	102,00
-816,29	-11,00
-808,22	119,00
-800,17	-33,00
-792,12	121,00
-784,09	178,00
-776,06	58,00
-768,05	48,00
-760,04	84,00
-752,05	103,00
-744,07	23,00
-736,09	70,00
-728,13	45,00
-720,17	9,00
-712,23	60,00
-704,29	93,00
-696,37	130,00
-688,45	164,00
-680,55	87,00
-672,65	131,00
-664,77	187,00
-656,89	22,00
-649,03	134,00
-641,17	188,00
-633,32	22,00
-625,49	141,00
-617,66	129,00
-609,84	111,00
-602,03	100,00
-594,23	28,00
-586,45	47,00
-578,67	114,00
-570,90	102,00
-563,14	1,00
-555,39	45,00
-547,65	125,00
-539,91	46,00
-532,19	167,00
-524,48	55,00
-516,78	135,00
-509,08	48,00
-501,40	58,00
-493,72	78,00
-486,06	167,00
-478,40	1,00
-470,76	167,00
-463,12	119,00
-455,49	119,00
-447,87	193,00
-440,26	115,00
-432,66	36,00
-425,07	54,00
-417,49	114,00
-409,92	181,00
-402,35	126,00
-394,80	84,00
-387,25	19,00
-379,72	112,00
-372,19	110,00
-364,67	106,00
-357,17	210,00
-349,67	50,00
-342,18	122,00
-334,69	-12,00
-327,22	118,00
-319,76	123,00
-312,30	232,00
-304,86	238,00
-297,42	96,00
-290,00	79,00
-282,58	118,00
-275,17	195,00
-267,77	151,00
-260,37	105,00
-252,99	278,00
-245,62	22,00
-238,25	88,00
-230,90	137,00
-223,55	153,00
-216,21	111,00
-208,88	90,00
-201,56	183,00
-194,25	215,00
-186,94	266,00
-179,65	206,00
-172,36	239,00
-165,08	394,00
-157,81	187,00
-150,55	372,00
-143,30	383,00
-136,06	423,00
-128,82	510,00
-121,60	520,00
-114,38	374,00
-107,17	583,00
-99,97	575,00
-92,78	587,00
-85,60	672,00
-78,42	924,00
-71,25	950,00
-64,10	1102,00
-56,95	1365,00
-49,81	1550,00
-42,67	2003,00
-35,55	2316,00
-28,43	3157,00
-21,33	5293,00
-14,23	17351,00
-7,14	55164,00
-0,05	54791,00
7,02	54542,00
14,09	54846,00
21,14	15596,00
28,19	6521,00
35,23	3961,00
42,27	2957,00
49,29	2550,00
56,31	2002,00
63,32	1755,00
70,32	1470,00
77,31	1406,00
84,29	1069,00
91,27	1001,00
98,23	879,00
105,19	785,00
112,14	905,00
119,09	1178,00
126,02	1885,00
132,95	2356,00
139,87	2245,00
146,78	2357,00
153,68	2245,00
160,58	2122,00
167,46	2112,00
174,34	2079,00
181,21	2178,00
188,08	2065,00
194,93	2001,00
201,78	2080,00
208,62	2081,00
215,45	2012,00
222,27	2115,00
229,09	2036,00
235,90	1929,00
242,70	1942,00
249,49	1959,00
256,27	1995,00
263,05	1845,00
269,82	1956,00
276,58	1791,00
283,33	1993,00
290,08	1938,00
296,82	1786,00
303,55	1845,00
310,27	1709,00
316,98	1838,00
323,69	1817,00
330,39	1722,00
337,08	1720,00
343,76	1706,00
350,44	1762,00
357,11	1658,00
363,77	1653,00
370,42	1721,00
377,07	1698,00
383,71	1668,00
390,34	1688,00
396,96	1647,00
403,58	1633,00
410,19	1746,00
416,79	1732,00
423,38	1699,00
429,97	1614,00
436,55	1676,00
443,12	1500,00
449,68	1508,00
456,24	1429,00
462,79	1399,00
469,33	1380,00
475,86	1434,00
482,39	1458,00
488,91	1456,00
495,42	1476,00
501,93	1473,00
508,42	1435,00
514,91	1551,00
521,40	1356,00
527,87	1487,00
534,34	1372,00
540,80	1423,00
547,25	1154,00
553,70	1414,00
560,14	1357,00
566,57	1443,00
573,00	1335,00
579,41	1283,00
585,83	1182,00
592,23	1214,00
598,62	1341,00
605,01	1297,00
611,40	1374,00
617,77	1356,00
624,14	1238,00
630,50	1192,00
636,85	1303,00
643,20	1267,00
649,54	1275,00
655,87	1285,00
662,20	1161,00
668,52	1063,00
674,83	1216,00
681,13	1218,00
687,43	1030,00
693,72	1074,00
700,00	1146,00
706,28	1118,00
712,55	1146,00
718,81	1137,00
725,07	1262,00
731,32	1165,00
737,56	1101,00
743,79	1203,00
750,02	1291,00
756,24	1159,00
762,46	1111,00
768,67	1164,00
774,87	1045,00
781,06	1073,00
787,25	1264,00
793,43	1151,00
799,60	1207,00
805,77	968,00
811,93	1274,00
818,08	1190,00
824,23	1198,00
830,37	1084,00
836,50	1184,00
842,63	1213,00
848,75	1127,00
854,87	1165,00
860,97	1165,00
867,07	1136,00
873,17	988,00
879,25	1116,00
885,33	1066,00
891,41	1203,00
897,47	1005,00
903,53	1114,00
909,59	1000,00
915,63	1060,00
921,67	1017,00
927,71	937,00
933,74	1026,00
939,76	1080,00
945,77	859,00
951,78	987,00
957,78	986,00
963,78	966,00
969,77	970,00
975,75	995,00
981,72	985,00
987,69	1145,00
993,66	912,00
999,61	949,00
1005,56	899,00
1011,51	974,00
1017,44	1011,00
1023,37	957,00
1029,30	975,00
1035,22	1183,00
1041,13	1116,00
1047,03	1003,00
1052,93	1031,00
1058,83	1346,00
1064,71	1275,00
1070,59	1185,00
1076,47	1140,00
1082,33	1058,00
1088,20	1049,00
1094,05	1094,00
1099,90	1024,00
1105,74	921,00
1111,58	1066,00
1117,41	982,00
1123,23	1224,00
1129,05	1283,00
1134,86	1394,00
1140,67	1035,00
1146,47	1122,00
1152,26	978,00
1158,05	885,00
1163,83	889,00
1169,60	1015,00
1175,37	814,00
1181,13	874,00
1186,89	929,00
1192,64	975,00
1198,38	943,00
1204,12	837,00
1209,85	846,00
1215,58	1035,00
1221,30	945,00
1227,02	955,00
1232,72	920,00
1238,43	793,00
1244,12	832,00
1249,81	952,00
1255,50	1001,00
1261,17	1026,00
1266,85	981,00
1272,51	1070,00
1278,17	1016,00
1283,83	968,00
1289,47	1367,00
1295,12	1482,00
1300,75	1375,00
1306,38	1234,00
1312,01	1190,00
1317,63	1040,00
1323,24	1014,00
1328,85	1159,00
1334,45	1071,00
1340,04	916,00
1345,63	962,00
1351,22	983,00
1356,80	1017,00
1362,37	973,00
1367,93	956,00
1373,49	949,00
1379,05	937,00
1384,60	1042,00
1390,14	1057,00
1395,68	1040,00
1401,21	874,00
1406,74	987,00
1412,26	1122,00
1417,77	1145,00
1423,28	1131,00
1428,78	1165,00
1434,28	1357,00
1439,77	1591,00
1445,26	1516,00
1450,74	1410,00
1456,22	1322,00
1461,68	1390,00
1467,15	1285,00
1472,61	1232,00
1478,06	1077,00
1483,51	1180,00
1488,95	1001,00
1494,38	883,00
1499,81	1000,00
1505,24	800,00
1510,65	847,00
1516,07	874,00
1521,48	927,00
1526,88	834,00
1532,27	778,00
1537,67	924,00
1543,05	911,00
1548,43	798,00
1553,81	955,00
1559,18	701,00
1564,54	785,00
1569,90	889,00
1575,25	785,00
1580,60	837,00
1585,94	738,00
1591,28	756,00
1596,61	740,00
1601,93	767,00
1607,25	786,00
1612,57	862,00
1617,88	751,00
1623,18	898,00
1628,48	772,00
1633,77	728,00
1639,06	615,00
1644,34	726,00
1649,62	807,00
1654,89	795,00
1660,16	761,00
1665,42	741,00
1670,67	695,00
1675,92	651,00
1681,17	703,00
1686,41	747,00
1691,64	722,00
1696,87	721,00
1702,10	660,00
1707,32	694,00
1712,53	745,00
1717,74	754,00
1722,94	517,00
1728,14	640,00
1733,33	740,00
1738,52	601,00
1743,70	842,00
1748,88	543,00
1754,05	712,00
1759,22	692,00
1764,38	675,00
1769,53	649,00
1774,69	687,00
1779,83	712,00
1784,97	645,00
1790,11	535,00
1795,24	673,00
1800,36	682,00
1805,48	642,00
1810,60	593,00
1815,71	418,00
1820,82	653,00
1825,92	585,00
1831,01	612,00
1836,10	560,00
1841,19	648,00
1846,26	609,00
1851,34	549,00
1856,41	532,00
1861,47	525,00
1866,53	606,00
1871,59	529,00
1876,64	455,00
1881,68	374,00
1886,72	563,00
1891,76	604,00
1896,79	556,00
1901,81	623,00
1906,83	461,00
1911,85	520,00
1916,86	515,00
1921,86	563,00
1926,86	506,00
1931,86	539,00
1936,85	366,00
1941,83	480,00
1946,81	424,00
1951,79	465,00
1956,76	424,00
1961,72	386,00
1966,68	589,00
1971,64	446,00
1976,59	587,00
1981,54	445,00
1986,48	422,00
1991,42	401,00
1996,35	554,00
2001,27	360,00
2006,20	453,00
2011,11	528,00
2016,03	447,00
2020,93	368,00
2025,84	483,00
2030,73	398,00
2035,63	403,00
2040,52	503,00
2045,40	443,00
2050,28	363,00
2055,15	307,00
2060,02	464,00
2064,89	429,00
2069,75	502,00
2074,60	350,00
2079,46	408,00
2084,30	440,00
2089,14	394,00
2093,98	362,00
2098,81	401,00
2103,64	485,00
2108,46	312,00
2113,28	433,00
2118,09	332,00
2122,90	436,00
2127,70	364,00
2132,50	473,00
2137,30	357,00
2142,09	442,00
2146,87	361,00
2151,66	441,00
2156,43	272,00
2161,20	275,00
2165,97	476,00
2170,73	431,00
2175,49	395,00
2180,24	387,00
2184,99	454,00
2189,74	390,00
2194,48	416,00
2199,21	356,00
2203,94	303,00
2208,67	275,00
2213,39	380,00
2218,11	261,00
2222,82	390,00
2227,53	341,00
2232,23	290,00
2236,93	327,00
2241,63	370,00
2246,32	364,00
2251,00	347,00
2255,68	367,00
2260,36	292,00
2265,03	375,00
2269,70	199,00
2274,36	242,00
2279,02	342,00
2283,68	339,00
2288,33	253,00
2292,97	325,00
2297,61	298,00
2302,25	250,00
2306,88	348,00
2311,51	310,00
2316,14	340,00
2320,75	421,00
2325,37	287,00
2329,98	414,00
2334,59	349,00
2339,19	223,00
2343,79	263,00
2348,38	290,00
2352,97	268,00
2357,55	232,00
2362,13	331,00
2366,71	387,00
2371,28	327,00
2375,85	209,00
2380,41	350,00
2384,97	251,00
2389,52	200,00
2394,07	167,00
2398,62	291,00
2403,16	316,00
2407,70	373,00
2412,23	332,00
2416,76	379,00
2421,29	290,00
2425,81	325,00
2430,32	292,00
2434,84	285,00
2439,34	307,00
2443,85	232,00
2448,35	244,00
2452,84	118,00
2457,33	224,00
2461,82	300,00
2466,30	260,00
2470,78	339,00
2475,25	185,00
2479,72	301,00
2484,19	238,00
2488,65	341,00
2493,11	155,00
2497,56	271,00
2502,01	241,00
2506,46	285,00
2510,90	162,00
2515,34	347,00
2519,77	275,00
2524,20	259,00
2528,62	234,00
2533,04	293,00
2537,46	214,00
2541,87	229,00
2546,28	228,00
2550,68	255,00
2555,08	177,00
2559,48	354,00
2563,87	107,00
2568,26	213,00
2572,64	290,00
2577,02	319,00
2581,40	301,00
2585,77	246,00
2590,14	209,00
2594,50	197,00
2598,86	204,00
2603,22	357,00
2607,57	233,00
2611,92	204,00
2616,26	170,00
2620,60	267,00
2624,94	192,00
2629,27	289,00
2633,60	149,00
2637,92	288,00
2642,24	256,00
2646,56	145,00
2650,87	173,00
2655,18	335,00
2659,48	204,00
2663,78	312,00
2668,08	309,00
2672,37	283,00
2676,66	255,00
2680,95	200,00
2685,23	227,00
2689,50	255,00
2693,78	232,00
2698,05	257,00
2702,31	284,00
2706,57	287,00
2710,83	374,00
2715,08	272,00
2719,33	316,00
2723,58	300,00
2727,82	378,00
2732,06	310,00
2736,29	283,00
2740,53	248,00
2744,75	331,00
2748,97	270,00
2753,19	321,00
2757,41	289,00
2761,62	247,00
2765,83	231,00
2770,03	113,00
2774,23	208,00
2778,43	369,00
2782,62	242,00
2786,81	270,00
2791,00	141,00
2795,18	309,00
2799,35	145,00
2803,53	349,00
2807,70	425,00
2811,86	364,00
2816,03	415,00
2820,19	336,00
2824,34	348,00
2828,49	611,00
2832,64	595,00
2836,78	571,00
2840,92	801,00
2845,06	870,00
2849,19	897,00
2853,32	893,00
2857,45	808,00
2861,57	968,00
2865,69	981,00
2869,80	923,00
2873,91	998,00
2878,02	906,00
2882,12	990,00
2886,22	1004,00
2890,32	950,00
2894,41	971,00
2898,50	849,00
2902,58	759,00
2906,67	771,00
2910,74	703,00
2914,82	700,00
2918,89	671,00
2922,96	701,00
2927,02	572,00
2931,08	573,00
2935,13	554,00
2939,19	503,00
2943,24	415,00
2947,28	450,00
2951,32	257,00
2955,36	450,00
2959,40	362,00
2963,43	227,00
2967,46	311,00
2971,48	312,00
2975,50	263,00
2979,52	264,00
2983,53	289,00
2987,54	337,00
2991,55	233,00
2995,55	158,00
2999,55	221,00
3003,54	217,00
3007,54	89,00
3011,53	129,00
3015,51	230,00
3019,49	141,00
3023,47	255,00
3027,45	265,00
3031,42	176,00
3035,39	131,00
3039,35	206,00
3043,31	133,00
3047,27	152,00
3051,22	174,00
3055,17	28,00
3059,12	57,00
3063,06	180,00
3067,00	39,00
3070,94	145,00
3074,87	34,00
3078,80	261,00
3082,73	221,00
3086,65	180,00
3090,57	129,00
3094,49	182,00
3098,40	89,00
3102,31	191,00
3106,22	64,00
3110,12	92,00
3114,02	127,00
3117,92	80,00
3121,81	155,00
3125,70	129,00
3129,58	147,00
3133,47	37,00
3137,34	120,00
3141,22	187,00
3145,09	93,00
3148,96	157,00
3152,83	92,00
3156,69	158,00
3160,55	156,00
3164,40	86,00
3168,26	143,00
3172,10	154,00
3175,95	223,00
3179,79	91,00
3183,63	75,00
3187,47	303,00
3191,30	86,00
3195,13	223,00
3198,95	146,00
3202,78	112,00
3206,60	124,00
3210,41	149,00
3214,23	195,00
3218,03	97,00
3221,84	161,00
3225,64	18,00
3229,44	107,00
3233,24	235,00
3237,03	154,00
3240,82	35,00
3244,61	130,00
3248,39	93,00
3252,17	167,00
3255,95	308,00
3259,72	187,00
3263,49	81,00
3267,26	81,00
3271,03	107,00
3274,79	73,00
3278,54	263,00
3282,30	154,00
3286,05	185,00
3289,80	99,00
3293,54	-25,00
3297,29	158,00
3301,02	55,00
3304,76	165,00
3308,49	106,00
3312,22	72,00
3315,95	83,00
3319,67	70,00
3323,39	225,00
3327,10	-1,00
3330,82	167,00
3334,53	124,00
3338,24	133,00
3341,94	225,00
3345,64	114,00
3349,34	13,00
3353,03	135,00
3356,72	152,00
3360,41	10,00
3364,10	119,00
3367,78	62,00
3371,46	152,00
3375,13	15,00
3378,81	140,00
3382,48	7,00
3386,14	273,00
3389,81	38,00
3393,47	115,00
3397,12	183,00
3400,78	35,00
3404,43	105,00
3408,08	101,00
3411,72	57,00
3415,36	52,00
3419,00	-44,00
3422,64	35,00
3426,27	81,00
3429,90	158,00
3433,53	149,00
3437,15	156,00
3440,77	29,00
3444,39	4,00
3448,00	-6,00
3451,62	244,00
3455,22	55,00
3458,83	12,00
3462,43	157,00
3466,03	71,00
3469,63	-115,00
3473,22	167,00
3476,81	104,00
3480,40	158,00
3483,99	149,00
3487,57	124,00
3491,15	144,00
3494,72	148,00
3498,29	127,00
3501,86	103,00
3505,43	81,00
3508,99	72,00
3512,56	113,00
3516,11	165,00
3519,67	86,00
3523,22	94,00
3526,77	137,00
3530,32	98,00
3533,86	67,00
3537,40	-4,00
3540,94	193,00
3544,47	20,00
3548,00	159,00
3551,53	164,00
3555,06	58,00
3558,58	62,00
3562,10	25,00
3565,62	135,00
3569,13	119,00
3572,64	126,00
3576,15	107,00
3579,66	135,00
3583,16	150,00
3586,66	53,00
3590,16	-1,00
3593,65	55,00
3597,14	96,00
3600,63	94,00
3604,11	6,00
3607,60	80,00
3611,08	146,00
3614,55	23,00
3618,03	114,00
3621,50	62,00
3624,97	141,00
3628,43	60,00
3631,90	48,00
3635,36	126,00
3638,81	103,00
3642,27	66,00
3645,72	180,00
3649,17	99,00
3652,61	76,00
3656,06	-107,00
3659,50	101,00
3662,93	-22,00
3666,37	68,00
3669,80	29,00
3673,23	22,00
3676,65	140,00
3680,08	60,00
3683,50	149,00
3686,92	68,00
3690,33	112,00
3693,74	58,00
3697,15	141,00
3700,56	50,00
3703,96	-27,00
3707,36	-1,00
3710,76	74,00
3714,16	120,00
3717,55	-10,00
3720,94	162,00
3724,33	14,00
3727,71	40,00
3731,10	100,00
3734,48	87,00
3737,85	-72,00
3741,23	3,00
3744,60	57,00
3747,97	-106,00
3751,33	213,00
3754,69	155,00
3758,05	104,00
3761,41	21,00
3764,77	99,00
3768,12	55,00
3771,47	30,00
3774,82	7,00
3778,16	0,00
3781,50	3,00
3784,84	-1,00
3788,18	7,00
>>>>>End Processed Spectral Data<<<<<
