SpectraSuite Data File
++++++++++++++++++++++++++++++++++++
Date: Mon Mar 09 15:30:50 ICT 2026
User: Administrator
Dark Spectrum Present: Yes
Reference Spectrum Present: No
Number of Sampled Component Spectra: 1
Spectrometers: MAYP113682
Integration Time (usec): 3000000 (MAYP113682)
Spectra Averaged: 1 (MAYP113682)
Boxcar Smoothing: 0 (MAYP113682)
Correct for Electrical Dark: No (MAYP113682)
Strobe/Lamp Enabled: No (MAYP113682)
Correct for Detector Non-linearity: No (MAYP113682)
Correct for Stray Light: No (MAYP113682)
Number of Pixels in Processed Spectrum: 2068
>>>>>Begin Processed Spectral Data<<<<<
-37534,58	2,00
-37414,56	-6,00
-37295,11	1,00
-37176,24	3,00
-37057,95	110,00
-36940,22	109,00
-36823,05	124,00
-36706,45	160,00
-36590,40	63,00
-36474,90	75,00
-36359,95	120,00
-36245,55	149,00
-36131,68	-35,00
-36018,35	103,00
-35905,55	95,00
-35793,29	24,00
-35681,54	199,00
-35570,32	111,00
-35459,62	132,00
-35349,43	44,00
-35239,75	109,00
-35130,58	162,00
-35021,91	73,00
-34913,74	111,00
-34806,07	62,00
-34698,89	28,00
-34592,20	-21,00
-34486,00	24,00
-34380,28	41,00
-34275,04	101,00
-34170,27	163,00
-34065,98	104,00
-33962,16	230,00
-33858,81	81,00
-33755,92	153,00
-33653,49	61,00
-33551,52	86,00
-33450,01	179,00
-33348,94	41,00
-33248,33	119,00
-33148,16	169,00
-33048,43	92,00
-32949,14	104,00
-32850,29	192,00
-32751,87	220,00
-32653,89	149,00
-32556,33	78,00
-32459,20	51,00
-32362,49	173,00
-32266,19	155,00
-32170,32	77,00
-32074,86	144,00
-31979,82	125,00
-31885,18	116,00
-31790,95	49,00
-31697,12	82,00
-31603,69	169,00
-31510,67	163,00
-31418,04	200,00
-31325,80	105,00
-31233,95	129,00
-31142,49	186,00
-31051,42	137,00
-30960,73	49,00
-30870,43	117,00
-30780,50	126,00
-30690,95	140,00
-30601,77	97,00
-30512,97	83,00
-30424,53	19,00
-30336,46	137,00
-30248,76	145,00
-30161,42	254,00
-30074,44	71,00
-29987,81	89,00
-29901,55	200,00
-29815,63	97,00
-29730,07	62,00
-29644,86	60,00
-29560,00	129,00
-29475,48	203,00
-29391,30	18,00
-29307,47	196,00
-29223,97	169,00
-29140,81	125,00
-29057,99	78,00
-28975,50	68,00
-28893,34	185,00
-28811,51	146,00
-28730,00	183,00
-28648,82	132,00
-28567,97	183,00
-28487,43	23,00
-28407,21	127,00
-28327,32	69,00
-28247,73	101,00
-28168,46	113,00
-28089,50	12,00
-28010,85	95,00
-27932,51	174,00
-27854,48	57,00
-27776,75	114,00
-27699,32	170,00
-27622,19	148,00
-27545,37	218,00
-27468,84	126,00
-27392,60	89,00
-27316,66	134,00
-27241,01	112,00
-27165,66	213,00
-27090,59	108,00
-27015,81	118,00
-26941,31	163,00
-26867,10	175,00
-26793,17	205,00
-26719,52	122,00
-26646,15	166,00
-26573,06	139,00
-26500,24	95,00
-26427,70	196,00
-26355,43	92,00
-26283,43	195,00
-26211,71	157,00
-26140,25	83,00
-26069,06	229,00
-25998,13	97,00
-25927,46	171,00
-25857,06	85,00
-25786,92	122,00
-25717,04	98,00
-25647,42	164,00
-25578,05	110,00
-25508,94	187,00
-25440,09	91,00
-25371,48	161,00
-25303,13	136,00
-25235,02	2,00
-25167,17	147,00
-25099,56	188,00
-25032,19	176,00
-24965,07	172,00
-24898,20	179,00
-24831,56	147,00
-24765,17	-21,00
-24699,01	63,00
-24633,10	67,00
-24567,41	98,00
-24501,97	121,00
-24436,75	161,00
-24371,77	132,00
-24307,03	165,00
-24242,51	203,00
-24178,22	48,00
-24114,16	69,00
-24050,32	232,00
-23986,71	24,00
-23923,32	161,00
-23860,16	117,00
-23797,22	87,00
-23734,50	105,00
-23672,00	84,00
-23609,71	24,00
-23547,65	125,00
-23485,80	156,00
-23424,16	69,00
-23362,74	195,00
-23301,53	44,00
-23240,54	64,00
-23179,75	154,00
-23119,17	152,00
-23058,80	97,00
-22998,64	118,00
-22938,68	163,00
-22878,93	15,00
-22819,39	55,00
-22760,04	83,00
-22700,90	86,00
-22641,96	137,00
-22583,22	32,00
-22524,68	52,00
-22466,33	15,00
-22408,19	189,00
-22350,23	125,00
-22292,48	164,00
-22234,92	123,00
-22177,55	213,00
-22120,37	118,00
-22063,38	145,00
-22006,58	115,00
-21949,98	235,00
-21893,56	73,00
-21837,33	291,00
-21781,28	148,00
-21725,42	123,00
-21669,74	89,00
-21614,25	178,00
-21558,94	71,00
-21503,81	210,00
-21448,86	99,00
-21394,10	100,00
-21339,51	156,00
-21285,10	115,00
-21230,86	67,00
-21176,81	114,00
-21122,93	205,00
-21069,22	154,00
-21015,69	-9,00
-20962,33	-16,00
-20909,14	116,00
-20856,13	160,00
-20803,28	2,00
-20750,61	133,00
-20698,10	37,00
-20645,76	64,00
-20593,59	118,00
-20541,59	143,00
-20489,75	217,00
-20438,07	156,00
-20386,56	142,00
-20335,22	58,00
-20284,03	124,00
-20233,01	120,00
-20182,15	172,00
-20131,45	112,00
-20080,91	125,00
-20030,52	207,00
-19980,30	90,00
-19930,23	67,00
-19880,32	146,00
-19830,56	74,00
-19780,96	29,00
-19731,52	102,00
-19682,23	122,00
-19633,09	211,00
-19584,10	172,00
-19535,26	120,00
-19486,58	111,00
-19438,04	209,00
-19389,66	194,00
-19341,42	59,00
-19293,33	107,00
-19245,39	42,00
-19197,60	172,00
-19149,95	221,00
-19102,45	82,00
-19055,09	141,00
-19007,87	181,00
-18960,80	149,00
-18913,87	144,00
-18867,09	17,00
-18820,44	197,00
-18773,94	182,00
-18727,57	145,00
-18681,35	77,00
-18635,26	36,00
-18589,31	99,00
-18543,50	140,00
-18497,83	162,00
-18452,29	151,00
-18406,89	106,00
-18361,63	13,00
-18316,50	186,00
-18271,50	80,00
-18226,63	190,00
-18181,90	217,00
-18137,30	172,00
-18092,84	71,00
-18048,50	38,00
-18004,29	169,00
-17960,22	142,00
-17916,27	83,00
-17872,45	140,00
-17828,76	154,00
-17785,20	71,00
-17741,77	39,00
-17698,46	174,00
-17655,28	101,00
-17612,22	192,00
-17569,29	77,00
-17526,48	267,00
-17483,79	141,00
-17441,23	36,00
-17398,79	93,00
-17356,48	180,00
-17314,28	14,00
-17272,21	197,00
-17230,26	80,00
-17188,42	62,00
-17146,71	68,00
-17105,12	29,00
-17063,64	207,00
-17022,28	59,00
-16981,04	182,00
-16939,92	128,00
-16898,91	128,00
-16858,02	81,00
-16817,25	132,00
-16776,59	139,00
-16736,04	52,00
-16695,61	43,00
-16655,29	85,00
-16615,09	145,00
-16574,99	118,00
-16535,01	108,00
-16495,15	172,00
-16455,39	140,00
-16415,74	137,00
-16376,21	110,00
-16336,78	156,00
-16297,46	64,00
-16258,26	132,00
-16219,16	139,00
-16180,17	191,00
-16141,28	107,00
-16102,51	27,00
-16063,84	138,00
-16025,27	161,00
-15986,82	179,00
-15948,46	209,00
-15910,22	169,00
-15872,07	233,00
-15834,04	115,00
-15796,10	140,00
-15758,27	195,00
-15720,54	202,00
-15682,91	101,00
-15645,39	37,00
-15607,97	33,00
-15570,64	118,00
-15533,42	23,00
-15496,30	70,00
-15459,28	203,00
-15422,36	109,00
-15385,54	62,00
-15348,82	122,00
-15312,19	27,00
-15275,66	100,00
-15239,23	82,00
-15202,90	99,00
-15166,67	121,00
-15130,53	67,00
-15094,48	107,00
-15058,54	148,00
-15022,68	41,00
-14986,93	114,00
-14951,26	115,00
-14915,69	145,00
-14880,22	99,00
-14844,84	196,00
-14809,55	121,00
-14774,35	85,00
-14739,25	211,00
-14704,24	12,00
-14669,32	33,00
-14634,49	137,00
-14599,75	18,00
-14565,10	78,00
-14530,55	42,00
-14496,08	63,00
-14461,70	-34,00
-14427,41	190,00
-14393,21	189,00
-14359,10	186,00
-14325,07	115,00
-14291,14	95,00
-14257,29	138,00
-14223,52	175,00
-14189,85	21,00
-14156,26	90,00
-14122,76	113,00
-14089,34	84,00
-14056,01	15,00
-14022,76	193,00
-13989,60	93,00
-13956,52	125,00
-13923,53	49,00
-13890,62	67,00
-13857,79	115,00
-13825,05	214,00
-13792,39	307,00
-13759,81	96,00
-13727,31	192,00
-13694,90	112,00
-13662,57	187,00
-13630,31	184,00
-13598,14	142,00
-13566,05	48,00
-13534,05	60,00
-13502,12	122,00
-13470,27	145,00
-13438,50	40,00
-13406,80	256,00
-13375,19	103,00
-13343,66	128,00
-13312,20	178,00
-13280,83	134,00
-13249,53	81,00
-13218,30	42,00
-13187,16	51,00
-13156,09	149,00
-13125,10	210,00
-13094,18	104,00
-13063,34	48,00
-13032,58	42,00
-13001,89	44,00
-12971,28	107,00
-12940,74	157,00
-12910,27	121,00
-12879,88	101,00
-12849,57	205,00
-12819,33	86,00
-12789,16	84,00
-12759,06	116,00
-12729,04	122,00
-12699,09	372,00
-12669,21	93,00
-12639,41	199,00
-12609,68	22,00
-12580,02	58,00
-12550,43	89,00
-12520,91	138,00
-12491,46	123,00
-12462,08	238,00
-12432,77	103,00
-12403,54	194,00
-12374,37	95,00
-12345,27	83,00
-12316,24	112,00
-12287,29	80,00
-12258,40	1,00
-12229,57	73,00
-12200,82	130,00
-12172,14	109,00
-12143,52	-75,00
-12114,97	138,00
-12086,49	16,00
-12058,07	119,00
-12029,73	58,00
-12001,44	230,00
-11973,23	43,00
-11945,08	152,00
-11917,00	96,00
-11888,98	14,00
-11861,03	66,00
-11833,15	128,00
-11805,32	-7,00
-11777,57	123,00
-11749,88	48,00
-11722,25	150,00
-11694,69	144,00
-11667,19	164,00
-11639,75	172,00
-11612,38	168,00
-11585,07	49,00
-11557,83	139,00
-11530,65	135,00
-11503,53	107,00
-11476,47	110,00
-11449,48	145,00
-11422,54	139,00
-11395,67	51,00
-11368,86	135,00
-11342,11	191,00
-11315,43	53,00
-11288,80	193,00
-11262,23	101,00
-11235,73	183,00
-11209,28	12,00
-11182,90	109,00
-11156,57	178,00
-11130,31	143,00
-11104,10	135,00
-11077,96	109,00
-11051,87	62,00
-11025,84	151,00
-10999,87	-62,00
-10973,96	106,00
-10948,11	17,00
-10922,31	-12,00
-10896,58	118,00
-10870,90	116,00
-10845,28	184,00
-10819,71	161,00
-10794,20	85,00
-10768,75	232,00
-10743,36	186,00
-10718,02	66,00
-10692,74	204,00
-10667,52	53,00
-10642,35	126,00
-10617,24	44,00
-10592,18	162,00
-10567,18	17,00
-10542,23	143,00
-10517,34	44,00
-10492,51	47,00
-10467,72	57,00
-10443,00	72,00
-10418,32	3,00
-10393,70	52,00
-10369,14	74,00
-10344,63	158,00
-10320,17	131,00
-10295,77	160,00
-10271,42	112,00
-10247,12	141,00
-10222,88	266,00
-10198,68	1,00
-10174,54	66,00
-10150,46	-4,00
-10126,42	149,00
-10102,44	43,00
-10078,51	6,00
-10054,63	88,00
-10030,80	49,00
-10007,03	90,00
-9983,30	64,00
-9959,63	135,00
-9936,01	142,00
-9912,44	38,00
-9888,92	-19,00
-9865,44	70,00
-9842,02	108,00
-9818,65	-26,00
-9795,33	-11,00
-9772,06	-40,00
-9748,84	-57,00
-9725,67	-155,00
-9702,55	-32,00
-9679,47	-144,00
-9656,45	-103,00
-9633,47	-161,00
-9610,55	-123,00
-9587,67	-181,00
-9564,84	-95,00
-9542,06	-323,00
-9519,32	-326,00
-9496,64	-255,00
-9474,00	-284,00
-9451,41	-542,00
-9428,87	-373,00
-9406,37	-417,00
-9383,92	-403,00
-9361,52	-546,00
-9339,17	-459,00
-9316,86	-472,00
-9294,60	-573,00
-9272,38	-529,00
-9250,21	-491,00
-9228,09	-616,00
-9206,01	-668,00
-9183,98	-494,00
-9162,00	-573,00
-9140,06	-514,00
-9118,16	-620,00
-9096,31	-633,00
-9074,51	-620,00
-9052,75	-606,00
-9031,04	-493,00
-9009,37	-464,00
-8987,74	-485,00
-8966,16	-401,00
-8944,63	-357,00
-8923,14	-477,00
-8901,69	-417,00
-8880,29	-370,00
-8858,93	-360,00
-8837,61	-396,00
-8816,34	-378,00
-8795,11	-532,00
-8773,92	-343,00
-8752,78	-397,00
-8731,68	-250,00
-8710,62	-431,00
-8689,61	-410,00
-8668,63	-413,00
-8647,70	-381,00
-8626,82	-435,00
-8605,97	-304,00
-8585,17	-362,00
-8564,41	-300,00
-8543,69	-267,00
-8523,01	-204,00
-8502,37	-270,00
-8481,78	-244,00
-8461,23	-367,00
-8440,71	-302,00
-8420,24	-487,00
-8399,81	-380,00
-8379,42	-195,00
-8359,08	-175,00
-8338,77	-260,00
-8318,50	-284,00
-8298,27	-242,00
-8278,09	-301,00
-8257,94	-231,00
-8237,83	-374,00
-8217,76	-318,00
-8197,74	-294,00
-8177,75	-225,00
-8157,80	-313,00
-8137,89	-217,00
-8118,02	-225,00
-8098,19	-200,00
-8078,40	-198,00
-8058,65	-113,00
-8038,93	-26,00
-8019,26	-230,00
-7999,62	-153,00
-7980,02	-94,00
-7960,46	-128,00
-7940,94	-110,00
-7921,46	-187,00
-7902,01	-159,00
-7882,60	-58,00
-7863,23	-171,00
-7843,90	-200,00
-7824,61	-120,00
-7805,35	-137,00
-7786,13	-152,00
-7766,95	-183,00
-7747,80	-88,00
-7728,69	64,00
-7709,62	-154,00
-7690,59	-81,00
-7671,59	-31,00
-7652,63	-138,00
-7633,70	-84,00
-7614,81	-132,00
-7595,96	-238,00
-7577,15	-74,00
-7558,37	-79,00
-7539,62	-104,00
-7520,91	-174,00
-7502,24	-223,00
-7483,60	-59,00
-7465,00	-140,00
-7446,44	-24,00
-7427,91	-151,00
-7409,41	-17,00
-7390,95	-135,00
-7372,53	-5,00
-7354,14	-41,00
-7335,78	-137,00
-7317,46	-118,00
-7299,18	-193,00
-7280,92	-243,00
-7262,71	-53,00
-7244,52	-153,00
-7226,38	-69,00
-7208,26	-79,00
-7190,18	-197,00
-7172,14	-76,00
-7154,12	-20,00
-7136,15	-176,00
-7118,20	-161,00
-7100,29	-216,00
-7082,41	-122,00
-7064,57	-116,00
-7046,76	-120,00
-7028,98	-93,00
-7011,24	-67,00
-6993,53	-178,00
-6975,85	-80,00
-6958,20	-62,00
-6940,59	-132,00
-6923,01	-65,00
-6905,46	-117,00
-6887,94	-240,00
-6870,46	-201,00
-6853,01	-54,00
-6835,59	-97,00
-6818,21	-118,00
-6800,85	-98,00
-6783,53	-43,00
-6766,24	-8,00
-6748,98	-173,00
-6731,76	-115,00
-6714,56	-74,00
-6697,40	-205,00
-6680,26	-49,00
-6663,16	-114,00
-6646,09	-182,00
-6629,05	-124,00
-6612,05	-45,00
-6595,07	-138,00
-6578,13	-159,00
-6561,21	-63,00
-6544,33	-53,00
-6527,47	-65,00
-6510,65	-116,00
-6493,86	-77,00
-6477,10	-157,00
-6460,36	-130,00
-6443,66	-86,00
-6426,99	0,00
-6410,35	-79,00
-6393,74	-10,00
-6377,16	-91,00
-6360,61	0,00
-6344,09	-71,00
-6327,59	-2,00
-6311,13	-27,00
-6294,70	-63,00
-6278,29	-2,00
-6261,92	-52,00
-6245,58	-89,00
-6229,26	-94,00
-6212,97	-158,00
-6196,72	-21,00
-6180,49	-114,00
-6164,29	35,00
-6148,12	48,00
-6131,98	-128,00
-6115,86	28,00
-6099,78	-77,00
-6083,72	-154,00
-6067,69	21,00
-6051,69	-58,00
-6035,72	-17,00
-6019,78	-11,00
-6003,87	-50,00
-5987,98	-57,00
-5972,12	-179,00
-5956,29	-128,00
-5940,49	16,00
-5924,71	-43,00
-5908,96	23,00
-5893,24	34,00
-5877,55	-55,00
-5861,89	-139,00
-5846,25	-22,00
-5830,64	-126,00
-5815,05	-6,00
-5799,50	18,00
-5783,97	-72,00
-5768,47	14,00
-5752,99	-103,00
-5737,55	3,00
-5722,12	-80,00
-5706,73	-10,00
-5691,36	-84,00
-5676,02	-42,00
-5660,71	-26,00
-5645,42	29,00
-5630,16	-27,00
-5614,92	-49,00
-5599,71	-137,00
-5584,53	-161,00
-5569,37	-30,00
-5554,24	177,00
-5539,14	19,00
-5524,06	-66,00
-5509,01	54,00
-5493,98	-67,00
-5478,98	-11,00
-5464,00	-37,00
-5449,05	34,00
-5434,13	-43,00
-5419,23	43,00
-5404,36	-40,00
-5389,51	-71,00
-5374,69	58,00
-5359,89	-51,00
-5345,12	-114,00
-5330,37	88,00
-5315,65	-28,00
-5300,95	103,00
-5286,28	-26,00
-5271,63	-14,00
-5257,01	-24,00
-5242,41	-98,00
-5227,84	12,00
-5213,29	-37,00
-5198,76	14,00
-5184,26	111,00
-5169,79	28,00
-5155,33	-48,00
-5140,91	-56,00
-5126,51	67,00
-5112,13	-56,00
-5097,77	-16,00
-5083,44	-62,00
-5069,13	-16,00
-5054,85	60,00
-5040,59	-7,00
-5026,36	-52,00
-5012,15	-95,00
-4997,96	-93,00
-4983,80	-22,00
-4969,66	-83,00
-4955,54	56,00
-4941,44	136,00
-4927,37	3,00
-4913,33	-78,00
-4899,30	37,00
-4885,30	22,00
-4871,33	-1,00
-4857,37	28,00
-4843,44	55,00
-4829,53	84,00
-4815,65	7,00
-4801,79	-128,00
-4787,95	7,00
-4774,13	-8,00
-4760,34	63,00
-4746,56	176,00
-4732,82	152,00
-4719,09	11,00
-4705,38	-3,00
-4691,70	7,00
-4678,04	-58,00
-4664,41	-37,00
-4650,79	59,00
-4637,20	114,00
-4623,63	80,00
-4610,08	25,00
-4596,56	-5,00
-4583,05	40,00
-4569,57	107,00
-4556,11	90,00
-4542,67	17,00
-4529,25	100,00
-4515,86	56,00
-4502,49	-15,00
-4489,13	-37,00
-4475,80	65,00
-4462,49	32,00
-4449,21	90,00
-4435,94	40,00
-4422,70	47,00
-4409,47	-12,00
-4396,27	69,00
-4383,09	-18,00
-4369,93	61,00
-4356,79	214,00
-4343,67	46,00
-4330,58	-7,00
-4317,50	197,00
-4304,45	12,00
-4291,41	74,00
-4278,40	73,00
-4265,41	133,00
-4252,44	95,00
-4239,49	-52,00
-4226,55	-6,00
-4213,65	54,00
-4200,76	90,00
-4187,89	99,00
-4175,04	51,00
-4162,21	117,00
-4149,40	62,00
-4136,61	60,00
-4123,85	128,00
-4111,10	73,00
-4098,37	145,00
-4085,66	122,00
-4072,98	152,00
-4060,31	63,00
-4047,66	134,00
-4035,04	123,00
-4022,43	189,00
-4009,84	170,00
-3997,27	81,00
-3984,72	14,00
-3972,19	38,00
-3959,69	126,00
-3947,20	113,00
-3934,73	71,00
-3922,27	125,00
-3909,84	-8,00
-3897,43	231,00
-3885,04	110,00
-3872,67	186,00
-3860,31	166,00
-3847,98	85,00
-3835,66	228,00
-3823,36	99,00
-3811,09	14,00
-3798,83	106,00
-3786,59	207,00
-3774,37	42,00
-3762,17	177,00
-3749,98	92,00
-3737,82	58,00
-3725,67	145,00
-3713,55	35,00
-3701,44	73,00
-3689,35	22,00
-3677,28	136,00
-3665,22	164,00
-3653,19	70,00
-3641,17	179,00
-3629,18	144,00
-3617,20	99,00
-3605,24	88,00
-3593,30	134,00
-3581,37	101,00
-3569,47	30,00
-3557,58	66,00
-3545,71	290,00
-3533,86	142,00
-3522,02	119,00
-3510,21	261,00
-3498,41	79,00
-3486,63	135,00
-3474,87	57,00
-3463,12	92,00
-3451,40	117,00
-3439,69	42,00
-3428,00	176,00
-3416,33	141,00
-3404,67	80,00
-3393,03	-18,00
-3381,41	207,00
-3369,81	93,00
-3358,22	168,00
-3346,66	154,00
-3335,10	143,00
-3323,57	85,00
-3312,06	141,00
-3300,56	127,00
-3289,08	46,00
-3277,61	178,00
-3266,16	145,00
-3254,73	199,00
-3243,32	103,00
-3231,92	102,00
-3220,55	182,00
-3209,18	125,00
-3197,84	70,00
-3186,51	158,00
-3175,20	36,00
-3163,90	97,00
-3152,63	173,00
-3141,36	78,00
-3130,12	128,00
-3118,89	138,00
-3107,68	188,00
-3096,49	52,00
-3085,31	-54,00
-3074,15	250,00
-3063,00	124,00
-3051,87	178,00
-3040,76	224,00
-3029,67	186,00
-3018,59	70,00
-3007,52	61,00
-2996,48	80,00
-2985,44	63,00
-2974,43	116,00
-2963,43	96,00
-2952,45	229,00
-2941,48	148,00
-2930,53	80,00
-2919,60	117,00
-2908,68	107,00
-2897,78	26,00
-2886,89	199,00
-2876,02	82,00
-2865,17	48,00
-2854,33	197,00
-2843,50	207,00
-2832,70	228,00
-2821,90	73,00
-2811,13	121,00
-2800,37	109,00
-2789,62	89,00
-2778,89	68,00
-2768,18	110,00
-2757,48	118,00
-2746,80	74,00
-2736,13	174,00
-2725,48	210,00
-2714,84	250,00
-2704,22	136,00
-2693,61	-58,00
-2683,02	59,00
-2672,45	118,00
-2661,89	188,00
-2651,34	77,00
-2640,81	203,00
-2630,30	197,00
-2619,80	179,00
-2609,31	132,00
-2598,84	69,00
-2588,39	93,00
-2577,95	47,00
-2567,52	-48,00
-2557,11	266,00
-2546,71	105,00
-2536,33	49,00
-2525,97	162,00
-2515,62	176,00
-2505,28	40,00
-2494,96	144,00
-2484,65	86,00
-2474,36	134,00
-2464,08	187,00
-2453,82	105,00
-2443,57	40,00
-2433,33	138,00
-2423,11	105,00
-2412,91	91,00
-2402,72	39,00
-2392,54	25,00
-2382,38	22,00
-2372,23	76,00
-2362,09	-4284,00
-2351,97	128,00
-2341,87	-56,00
-2331,78	134,00
-2321,70	121,00
-2311,64	63,00
-2301,59	120,00
-2291,55	30,00
-2281,53	46,00
-2271,53	86,00
-2261,53	43,00
-2251,55	177,00
-2241,59	30,00
-2231,64	170,00
-2221,70	131,00
-2211,78	188,00
-2201,87	62,00
-2191,97	162,00
-2182,09	162,00
-2172,22	178,00
-2162,37	198,00
-2152,53	110,00
-2142,70	172,00
-2132,89	86,00
-2123,09	62,00
-2113,30	117,00
-2103,53	119,00
-2093,77	132,00
-2084,02	192,00
-2074,29	228,00
-2064,57	146,00
-2054,86	127,00
-2045,17	65,00
-2035,49	152,00
-2025,82	179,00
-2016,17	119,00
-2006,53	103,00
-1996,91	92,00
-1987,29	97,00
-1977,69	141,00
-1968,11	154,00
-1958,53	137,00
-1948,97	201,00
-1939,42	76,00
-1929,89	171,00
-1920,37	88,00
-1910,86	168,00
-1901,36	263,00
-1891,88	144,00
-1882,41	47,00
-1872,95	93,00
-1863,51	77,00
-1854,08	-1,00
-1844,66	44,00
-1835,26	-5,00
-1825,86	147,00
-1816,48	135,00
-1807,11	49,00
-1797,76	159,00
-1788,42	148,00
-1779,09	64,00
-1769,77	177,00
-1760,47	115,00
-1751,17	71,00
-1741,89	47,00
-1732,63	148,00
-1723,37	88,00
-1714,13	69,00
-1704,90	126,00
-1695,68	-8,00
-1686,48	164,00
-1677,29	47,00
-1668,11	174,00
-1658,94	142,00
-1649,78	50,00
-1640,64	93,00
-1631,51	244,00
-1622,39	170,00
-1613,28	104,00
-1604,19	125,00
-1595,10	149,00
-1586,03	277,00
-1576,97	195,00
-1567,93	176,00
-1558,89	97,00
-1549,87	116,00
-1540,86	36,00
-1531,86	136,00
-1522,87	135,00
-1513,90	186,00
-1504,93	51,00
-1495,98	105,00
-1487,04	86,00
-1478,12	52,00
-1469,20	114,00
-1460,30	41,00
-1451,40	100,00
-1442,52	95,00
-1433,65	17,00
-1424,80	146,00
-1415,95	133,00
-1407,12	142,00
-1398,30	141,00
-1389,48	120,00
-1380,69	22,00
-1371,90	84,00
-1363,12	82,00
-1354,36	138,00
-1345,60	-45,00
-1336,86	173,00
-1328,13	159,00
-1319,41	39,00
-1310,70	7,00
-1302,01	209,00
-1293,32	160,00
-1284,65	87,00
-1275,99	55,00
-1267,33	145,00
-1258,69	44,00
-1250,06	-7,00
-1241,45	28,00
-1232,84	33,00
-1224,25	79,00
-1215,66	135,00
-1207,09	96,00
-1198,53	221,00
-1189,97	127,00
-1181,43	-2,00
-1172,91	94,00
-1164,39	162,00
-1155,88	67,00
-1147,38	38,00
-1138,90	207,00
-1130,43	177,00
-1121,96	107,00
-1113,51	209,00
-1105,07	74,00
-1096,64	104,00
-1088,22	145,00
-1079,81	177,00
-1071,41	236,00
-1063,02	101,00
-1054,65	170,00
-1046,28	137,00
-1037,92	71,00
-1029,58	65,00
-1021,24	165,00
-1012,92	154,00
-1004,61	157,00
-996,30	232,00
-988,01	36,00
-979,73	97,00
-971,46	152,00
-963,20	39,00
-954,95	55,00
-946,71	218,00
-938,48	211,00
-930,26	107,00
-922,06	176,00
-913,86	111,00
-905,67	109,00
-897,49	123,00
-889,33	116,00
-881,17	96,00
-873,02	53,00
-864,89	61,00
-856,76	-20,00
-848,65	156,00
-840,54	213,00
-832,45	156,00
-824,36	164,00
-816,29	310,00
-808,22	190,00
-800,17	143,00
-792,12	36,00
-784,09	213,00
-776,06	231,00
-768,05	310,00
-760,04	77,00
-752,05	157,00
-744,07	9,00
-736,09	89,00
-728,13	98,00
-720,17	160,00
-712,23	80,00
-704,29	-10,00
-696,37	207,00
-688,45	111,00
-680,55	52,00
-672,65	107,00
-664,77	94,00
-656,89	206,00
-649,03	-33,00
-641,17	92,00
-633,32	260,00
-625,49	94,00
-617,66	169,00
-609,84	69,00
-602,03	108,00
-594,23	70,00
-586,45	195,00
-578,67	209,00
-570,90	176,00
-563,14	10,00
-555,39	142,00
-547,65	95,00
-539,91	161,00
-532,19	63,00
-524,48	156,00
-516,78	109,00
-509,08	152,00
-501,40	197,00
-493,72	75,00
-486,06	15,00
-478,40	69,00
-470,76	203,00
-463,12	212,00
-455,49	100,00
-447,87	121,00
-440,26	111,00
-432,66	243,00
-425,07	127,00
-417,49	183,00
-409,92	172,00
-402,35	13,00
-394,80	91,00
-387,25	160,00
-379,72	245,00
-372,19	134,00
-364,67	278,00
-357,17	94,00
-349,67	107,00
-342,18	55,00
-334,69	203,00
-327,22	48,00
-319,76	169,00
-312,30	287,00
-304,86	93,00
-297,42	99,00
-290,00	128,00
-282,58	141,00
-275,17	193,00
-267,77	108,00
-260,37	189,00
-252,99	174,00
-245,62	90,00
-238,25	184,00
-230,90	212,00
-223,55	191,00
-216,21	79,00
-208,88	316,00
-201,56	331,00
-194,25	181,00
-186,94	376,00
-179,65	355,00
-172,36	315,00
-165,08	327,00
-157,81	489,00
-150,55	523,00
-143,30	423,00
-136,06	563,00
-128,82	572,00
-121,60	708,00
-114,38	716,00
-107,17	730,00
-99,97	854,00
-92,78	988,00
-85,60	1153,00
-78,42	1438,00
-71,25	1503,00
-64,10	1715,00
-56,95	1983,00
-49,81	2361,00
-42,67	3012,00
-35,55	3608,00
-28,43	4900,00
-21,33	8004,00
-14,23	26841,00
-7,14	55635,00
-0,05	55419,00
7,02	55129,00
14,09	55339,00
21,14	24311,00
28,19	9925,00
35,23	6238,00
42,27	4689,00
49,29	3891,00
56,31	3200,00
63,32	2716,00
70,32	2219,00
77,31	1912,00
84,29	1677,00
91,27	1508,00
98,23	1327,00
105,19	1343,00
112,14	1371,00
119,09	1818,00
126,02	2166,00
132,95	2236,00
139,87	2109,00
146,78	2173,00
153,68	2146,00
160,58	1948,00
167,46	1921,00
174,34	2030,00
181,21	1875,00
188,08	1895,00
194,93	1865,00
201,78	1885,00
208,62	1947,00
215,45	1752,00
222,27	1789,00
229,09	1736,00
235,90	1897,00
242,70	1951,00
249,49	1759,00
256,27	1675,00
263,05	1690,00
269,82	1765,00
276,58	1765,00
283,33	1750,00
290,08	1718,00
296,82	1608,00
303,55	1461,00
310,27	1481,00
316,98	1540,00
323,69	1483,00
330,39	1611,00
337,08	1403,00
343,76	1558,00
350,44	1575,00
357,11	1452,00
363,77	1431,00
370,42	1523,00
377,07	1547,00
383,71	1359,00
390,34	1502,00
396,96	1471,00
403,58	1376,00
410,19	1529,00
416,79	1463,00
423,38	1622,00
429,97	1440,00
436,55	1372,00
443,12	1388,00
449,68	1334,00
456,24	1425,00
462,79	1381,00
469,33	1344,00
475,86	1367,00
482,39	1362,00
488,91	1188,00
495,42	1327,00
501,93	1224,00
508,42	1203,00
514,91	1308,00
521,40	1353,00
527,87	1181,00
534,34	1203,00
540,80	1147,00
547,25	1176,00
553,70	1262,00
560,14	1187,00
566,57	1250,00
573,00	1252,00
579,41	1269,00
585,83	1173,00
592,23	1160,00
598,62	1102,00
605,01	1088,00
611,40	1172,00
617,77	1209,00
624,14	1120,00
630,50	1277,00
636,85	1153,00
643,20	1152,00
649,54	1016,00
655,87	1156,00
662,20	1232,00
668,52	987,00
674,83	1141,00
681,13	940,00
687,43	887,00
693,72	1154,00
700,00	1075,00
706,28	1128,00
712,55	1011,00
718,81	1070,00
725,07	1101,00
731,32	1122,00
737,56	1023,00
743,79	985,00
750,02	1194,00
756,24	1071,00
762,46	999,00
768,67	1001,00
774,87	1052,00
781,06	1138,00
787,25	1131,00
793,43	1040,00
799,60	984,00
805,77	1124,00
811,93	1132,00
818,08	1047,00
824,23	1119,00
830,37	1058,00
836,50	1188,00
842,63	1038,00
848,75	1094,00
854,87	1067,00
860,97	1042,00
867,07	1119,00
873,17	1062,00
879,25	958,00
885,33	1180,00
891,41	1133,00
897,47	1090,00
903,53	977,00
909,59	1096,00
915,63	1037,00
921,67	1079,00
927,71	977,00
933,74	1006,00
939,76	940,00
945,77	953,00
951,78	817,00
957,78	973,00
963,78	851,00
969,77	863,00
975,75	917,00
981,72	1049,00
987,69	976,00
993,66	911,00
999,61	971,00
1005,56	934,00
1011,51	1012,00
1017,44	1005,00
1023,37	931,00
1029,30	993,00
1035,22	1040,00
1041,13	1060,00
1047,03	964,00
1052,93	1068,00
1058,83	1300,00
1064,71	1275,00
1070,59	1160,00
1076,47	1038,00
1082,33	1021,00
1088,20	1108,00
1094,05	1071,00
1099,90	1097,00
1105,74	822,00
1111,58	952,00
1117,41	942,00
1123,23	1215,00
1129,05	1211,00
1134,86	1074,00
1140,67	1047,00
1146,47	842,00
1152,26	834,00
1158,05	949,00
1163,83	885,00
1169,60	941,00
1175,37	808,00
1181,13	889,00
1186,89	913,00
1192,64	854,00
1198,38	822,00
1204,12	790,00
1209,85	923,00
1215,58	880,00
1221,30	898,00
1227,02	953,00
1232,72	807,00
1238,43	797,00
1244,12	939,00
1249,81	949,00
1255,50	847,00
1261,17	842,00
1266,85	948,00
1272,51	1004,00
1278,17	934,00
1283,83	911,00
1289,47	1265,00
1295,12	1483,00
1300,75	1417,00
1306,38	1190,00
1312,01	1102,00
1317,63	1023,00
1323,24	1036,00
1328,85	896,00
1334,45	1083,00
1340,04	966,00
1345,63	926,00
1351,22	1042,00
1356,80	894,00
1362,37	853,00
1367,93	1112,00
1373,49	984,00
1379,05	1030,00
1384,60	1031,00
1390,14	957,00
1395,68	888,00
1401,21	826,00
1406,74	1072,00
1412,26	988,00
1417,77	1114,00
1423,28	1254,00
1428,78	1323,00
1434,28	1435,00
1439,77	1643,00
1445,26	1486,00
1450,74	1529,00
1456,22	1519,00
1461,68	1414,00
1467,15	1228,00
1472,61	1206,00
1478,06	1147,00
1483,51	1000,00
1488,95	912,00
1494,38	886,00
1499,81	907,00
1505,24	896,00
1510,65	1014,00
1516,07	855,00
1521,48	879,00
1526,88	792,00
1532,27	903,00
1537,67	889,00
1543,05	937,00
1548,43	744,00
1553,81	877,00
1559,18	908,00
1564,54	886,00
1569,90	793,00
1575,25	815,00
1580,60	865,00
1585,94	799,00
1591,28	832,00
1596,61	760,00
1601,93	820,00
1607,25	880,00
1612,57	783,00
1617,88	720,00
1623,18	767,00
1628,48	754,00
1633,77	631,00
1639,06	801,00
1644,34	730,00
1649,62	690,00
1654,89	669,00
1660,16	627,00
1665,42	754,00
1670,67	744,00
1675,92	763,00
1681,17	716,00
1686,41	679,00
1691,64	758,00
1696,87	754,00
1702,10	671,00
1707,32	649,00
1712,53	697,00
1717,74	687,00
1722,94	717,00
1728,14	652,00
1733,33	651,00
1738,52	757,00
1743,70	634,00
1748,88	691,00
1754,05	663,00
1759,22	693,00
1764,38	661,00
1769,53	734,00
1774,69	674,00
1779,83	668,00
1784,97	618,00
1790,11	615,00
1795,24	545,00
1800,36	648,00
1805,48	615,00
1810,60	665,00
1815,71	553,00
1820,82	594,00
1825,92	614,00
1831,01	714,00
1836,10	574,00
1841,19	515,00
1846,26	434,00
1851,34	625,00
1856,41	545,00
1861,47	618,00
1866,53	591,00
1871,59	622,00
1876,64	760,00
1881,68	655,00
1886,72	522,00
1891,76	623,00
1896,79	609,00
1901,81	447,00
1906,83	613,00
1911,85	524,00
1916,86	476,00
1921,86	439,00
1926,86	510,00
1931,86	490,00
1936,85	455,00
1941,83	525,00
1946,81	561,00
1951,79	588,00
1956,76	539,00
1961,72	411,00
1966,68	528,00
1971,64	486,00
1976,59	459,00
1981,54	534,00
1986,48	429,00
1991,42	478,00
1996,35	548,00
2001,27	434,00
2006,20	508,00
2011,11	412,00
2016,03	463,00
2020,93	476,00
2025,84	533,00
2030,73	512,00
2035,63	590,00
2040,52	357,00
2045,40	496,00
2050,28	547,00
2055,15	554,00
2060,02	414,00
2064,89	548,00
2069,75	477,00
2074,60	436,00
2079,46	423,00
2084,30	405,00
2089,14	505,00
2093,98	550,00
2098,81	417,00
2103,64	458,00
2108,46	478,00
2113,28	530,00
2118,09	373,00
2122,90	419,00
2127,70	453,00
2132,50	393,00
2137,30	443,00
2142,09	467,00
2146,87	456,00
2151,66	483,00
2156,43	459,00
2161,20	452,00
2165,97	346,00
2170,73	441,00
2175,49	360,00
2180,24	438,00
2184,99	439,00
2189,74	494,00
2194,48	632,00
2199,21	431,00
2203,94	440,00
2208,67	523,00
2213,39	475,00
2218,11	292,00
2222,82	412,00
2227,53	377,00
2232,23	433,00
2236,93	410,00
2241,63	365,00
2246,32	518,00
2251,00	361,00
2255,68	299,00
2260,36	379,00
2265,03	365,00
2269,70	318,00
2274,36	378,00
2279,02	260,00
2283,68	411,00
2288,33	358,00
2292,97	448,00
2297,61	348,00
2302,25	430,00
2306,88	307,00
2311,51	335,00
2316,14	421,00
2320,75	420,00
2325,37	424,00
2329,98	498,00
2334,59	192,00
2339,19	342,00
2343,79	413,00
2348,38	376,00
2352,97	417,00
2357,55	348,00
2362,13	379,00
2366,71	223,00
2371,28	406,00
2375,85	351,00
2380,41	204,00
2384,97	372,00
2389,52	374,00
2394,07	332,00
2398,62	433,00
2403,16	359,00
2407,70	350,00
2412,23	273,00
2416,76	321,00
2421,29	348,00
2425,81	338,00
2430,32	435,00
2434,84	340,00
2439,34	451,00
2443,85	299,00
2448,35	361,00
2452,84	339,00
2457,33	429,00
2461,82	385,00
2466,30	244,00
2470,78	304,00
2475,25	312,00
2479,72	275,00
2484,19	391,00
2488,65	373,00
2493,11	232,00
2497,56	406,00
2502,01	318,00
2506,46	202,00
2510,90	275,00
2515,34	225,00
2519,77	258,00
2524,20	320,00
2528,62	372,00
2533,04	302,00
2537,46	234,00
2541,87	186,00
2546,28	273,00
2550,68	274,00
2555,08	344,00
2559,48	308,00
2563,87	334,00
2568,26	328,00
2572,64	309,00
2577,02	429,00
2581,40	356,00
2585,77	272,00
2590,14	168,00
2594,50	242,00
2598,86	209,00
2603,22	307,00
2607,57	366,00
2611,92	240,00
2616,26	307,00
2620,60	439,00
2624,94	228,00
2629,27	273,00
2633,60	202,00
2637,92	356,00
2642,24	346,00
2646,56	377,00
2650,87	359,00
2655,18	461,00
2659,48	299,00
2663,78	299,00
2668,08	267,00
2672,37	267,00
2676,66	355,00
2680,95	391,00
2685,23	328,00
2689,50	423,00
2693,78	336,00
2698,05	314,00
2702,31	327,00
2706,57	347,00
2710,83	333,00
2715,08	369,00
2719,33	394,00
2723,58	406,00
2727,82	337,00
2732,06	373,00
2736,29	347,00
2740,53	332,00
2744,75	233,00
2748,97	292,00
2753,19	272,00
2757,41	313,00
2761,62	373,00
2765,83	309,00
2770,03	263,00
2774,23	316,00
2778,43	182,00
2782,62	348,00
2786,81	312,00
2791,00	298,00
2795,18	444,00
2799,35	341,00
2803,53	468,00
2807,70	377,00
2811,86	432,00
2816,03	389,00
2820,19	331,00
2824,34	540,00
2828,49	399,00
2832,64	418,00
2836,78	544,00
2840,92	725,00
2845,06	871,00
2849,19	929,00
2853,32	1063,00
2857,45	1063,00
2861,57	1051,00
2865,69	953,00
2869,80	960,00
2873,91	986,00
2878,02	1112,00
2882,12	1077,00
2886,22	1124,00
2890,32	1058,00
2894,41	964,00
2898,50	957,00
2902,58	880,00
2906,67	849,00
2910,74	728,00
2914,82	707,00
2918,89	754,00
2922,96	660,00
2927,02	659,00
2931,08	606,00
2935,13	536,00
2939,19	598,00
2943,24	521,00
2947,28	499,00
2951,32	310,00
2955,36	509,00
2959,40	273,00
2963,43	383,00
2967,46	322,00
2971,48	278,00
2975,50	363,00
2979,52	206,00
2983,53	359,00
2987,54	270,00
2991,55	231,00
2995,55	275,00
2999,55	254,00
3003,54	359,00
3007,54	271,00
3011,53	302,00
3015,51	246,00
3019,49	211,00
3023,47	298,00
3027,45	237,00
3031,42	204,00
3035,39	241,00
3039,35	157,00
3043,31	284,00
3047,27	257,00
3051,22	191,00
3055,17	189,00
3059,12	160,00
3063,06	163,00
3067,00	126,00
3070,94	256,00
3074,87	205,00
3078,80	224,00
3082,73	197,00
3086,65	192,00
3090,57	155,00
3094,49	272,00
3098,40	123,00
3102,31	192,00
3106,22	63,00
3110,12	186,00
3114,02	231,00
3117,92	185,00
3121,81	207,00
3125,70	264,00
3129,58	125,00
3133,47	135,00
3137,34	111,00
3141,22	121,00
3145,09	75,00
3148,96	220,00
3152,83	78,00
3156,69	237,00
3160,55	156,00
3164,40	215,00
3168,26	168,00
3172,10	152,00
3175,95	203,00
3179,79	140,00
3183,63	257,00
3187,47	114,00
3191,30	114,00
3195,13	134,00
3198,95	102,00
3202,78	56,00
3206,60	196,00
3210,41	112,00
3214,23	182,00
3218,03	123,00
3221,84	208,00
3225,64	98,00
3229,44	126,00
3233,24	148,00
3237,03	224,00
3240,82	228,00
3244,61	138,00
3248,39	73,00
3252,17	250,00
3255,95	166,00
3259,72	123,00
3263,49	156,00
3267,26	118,00
3271,03	233,00
3274,79	234,00
3278,54	198,00
3282,30	51,00
3286,05	160,00
3289,80	146,00
3293,54	155,00
3297,29	124,00
3301,02	102,00
3304,76	258,00
3308,49	79,00
3312,22	157,00
3315,95	93,00
3319,67	236,00
3323,39	220,00
3327,10	17,00
3330,82	232,00
3334,53	112,00
3338,24	244,00
3341,94	102,00
3345,64	178,00
3349,34	75,00
3353,03	258,00
3356,72	169,00
3360,41	159,00
3364,10	283,00
3367,78	177,00
3371,46	103,00
3375,13	176,00
3378,81	98,00
3382,48	115,00
3386,14	210,00
3389,81	101,00
3393,47	177,00
3397,12	97,00
3400,78	154,00
3404,43	109,00
3408,08	110,00
3411,72	86,00
3415,36	140,00
3419,00	90,00
3422,64	246,00
3426,27	135,00
3429,90	106,00
3433,53	146,00
3437,15	138,00
3440,77	198,00
3444,39	124,00
3448,00	113,00
3451,62	132,00
3455,22	147,00
3458,83	110,00
3462,43	36,00
3466,03	120,00
3469,63	173,00
3473,22	-6,00
3476,81	92,00
3480,40	77,00
3483,99	89,00
3487,57	126,00
3491,15	112,00
3494,72	245,00
3498,29	188,00
3501,86	120,00
3505,43	179,00
3508,99	56,00
3512,56	148,00
3516,11	83,00
3519,67	39,00
3523,22	232,00
3526,77	169,00
3530,32	107,00
3533,86	141,00
3537,40	156,00
3540,94	148,00
3544,47	62,00
3548,00	123,00
3551,53	29,00
3555,06	156,00
3558,58	95,00
3562,10	43,00
3565,62	160,00
3569,13	150,00
3572,64	234,00
3576,15	77,00
3579,66	154,00
3583,16	172,00
3586,66	93,00
3590,16	31,00
3593,65	94,00
3597,14	109,00
3600,63	153,00
3604,11	171,00
3607,60	89,00
3611,08	169,00
3614,55	101,00
3618,03	119,00
3621,50	149,00
3624,97	169,00
3628,43	54,00
3631,90	53,00
3635,36	161,00
3638,81	31,00
3642,27	110,00
3645,72	164,00
3649,17	98,00
3652,61	47,00
3656,06	130,00
3659,50	119,00
3662,93	122,00
3666,37	124,00
3669,80	26,00
3673,23	-31,00
3676,65	89,00
3680,08	168,00
3683,50	137,00
3686,92	177,00
3690,33	209,00
3693,74	148,00
3697,15	95,00
3700,56	140,00
3703,96	30,00
3707,36	110,00
3710,76	62,00
3714,16	71,00
3717,55	118,00
3720,94	88,00
3724,33	155,00
3727,71	142,00
3731,10	156,00
3734,48	17,00
3737,85	110,00
3741,23	99,00
3744,60	143,00
3747,97	48,00
3751,33	133,00
3754,69	132,00
3758,05	153,00
3761,41	113,00
3764,77	30,00
3768,12	120,00
3771,47	139,00
3774,82	96,00
3778,16	-4,00
3781,50	3,00
3784,84	0,00
3788,18	7,00
>>>>>End Processed Spectral Data<<<<<
