SpectraSuite Data File
++++++++++++++++++++++++++++++++++++
Date: Mon Mar 09 16:07:15 ICT 2026
User: Administrator
Dark Spectrum Present: Yes
Reference Spectrum Present: No
Number of Sampled Component Spectra: 1
Spectrometers: MAYP113682
Integration Time (usec): 3000000 (MAYP113682)
Spectra Averaged: 1 (MAYP113682)
Boxcar Smoothing: 0 (MAYP113682)
Correct for Electrical Dark: No (MAYP113682)
Strobe/Lamp Enabled: No (MAYP113682)
Correct for Detector Non-linearity: No (MAYP113682)
Correct for Stray Light: No (MAYP113682)
Number of Pixels in Processed Spectrum: 2068
>>>>>Begin Processed Spectral Data<<<<<
-37534,58	-10,00
-37414,56	-4,00
-37295,11	7,00
-37176,24	-5,00
-37057,95	108,00
-36940,22	62,00
-36823,05	109,00
-36706,45	166,00
-36590,40	120,00
-36474,90	69,00
-36359,95	42,00
-36245,55	62,00
-36131,68	-31,00
-36018,35	16,00
-35905,55	107,00
-35793,29	86,00
-35681,54	121,00
-35570,32	125,00
-35459,62	126,00
-35349,43	132,00
-35239,75	106,00
-35130,58	80,00
-35021,91	-11,00
-34913,74	-24,00
-34806,07	183,00
-34698,89	100,00
-34592,20	178,00
-34486,00	181,00
-34380,28	136,00
-34275,04	44,00
-34170,27	107,00
-34065,98	133,00
-33962,16	114,00
-33858,81	162,00
-33755,92	134,00
-33653,49	171,00
-33551,52	98,00
-33450,01	132,00
-33348,94	106,00
-33248,33	117,00
-33148,16	84,00
-33048,43	107,00
-32949,14	95,00
-32850,29	141,00
-32751,87	9,00
-32653,89	101,00
-32556,33	18,00
-32459,20	189,00
-32362,49	153,00
-32266,19	36,00
-32170,32	10,00
-32074,86	170,00
-31979,82	90,00
-31885,18	136,00
-31790,95	66,00
-31697,12	120,00
-31603,69	141,00
-31510,67	105,00
-31418,04	27,00
-31325,80	87,00
-31233,95	32,00
-31142,49	81,00
-31051,42	124,00
-30960,73	52,00
-30870,43	253,00
-30780,50	98,00
-30690,95	171,00
-30601,77	55,00
-30512,97	62,00
-30424,53	96,00
-30336,46	107,00
-30248,76	100,00
-30161,42	97,00
-30074,44	140,00
-29987,81	9,00
-29901,55	105,00
-29815,63	-21,00
-29730,07	102,00
-29644,86	121,00
-29560,00	111,00
-29475,48	107,00
-29391,30	124,00
-29307,47	8,00
-29223,97	126,00
-29140,81	139,00
-29057,99	103,00
-28975,50	69,00
-28893,34	29,00
-28811,51	153,00
-28730,00	68,00
-28648,82	208,00
-28567,97	77,00
-28487,43	48,00
-28407,21	146,00
-28327,32	34,00
-28247,73	183,00
-28168,46	13,00
-28089,50	111,00
-28010,85	164,00
-27932,51	35,00
-27854,48	-33,00
-27776,75	1,00
-27699,32	98,00
-27622,19	29,00
-27545,37	202,00
-27468,84	119,00
-27392,60	120,00
-27316,66	79,00
-27241,01	86,00
-27165,66	174,00
-27090,59	114,00
-27015,81	48,00
-26941,31	105,00
-26867,10	14,00
-26793,17	170,00
-26719,52	106,00
-26646,15	32,00
-26573,06	-16,00
-26500,24	-30,00
-26427,70	92,00
-26355,43	218,00
-26283,43	102,00
-26211,71	61,00
-26140,25	115,00
-26069,06	139,00
-25998,13	49,00
-25927,46	131,00
-25857,06	21,00
-25786,92	44,00
-25717,04	131,00
-25647,42	167,00
-25578,05	50,00
-25508,94	145,00
-25440,09	47,00
-25371,48	4,00
-25303,13	142,00
-25235,02	69,00
-25167,17	150,00
-25099,56	78,00
-25032,19	75,00
-24965,07	62,00
-24898,20	-33,00
-24831,56	131,00
-24765,17	212,00
-24699,01	171,00
-24633,10	-14,00
-24567,41	-78,00
-24501,97	54,00
-24436,75	-107,00
-24371,77	37,00
-24307,03	99,00
-24242,51	73,00
-24178,22	67,00
-24114,16	58,00
-24050,32	132,00
-23986,71	118,00
-23923,32	207,00
-23860,16	90,00
-23797,22	145,00
-23734,50	58,00
-23672,00	137,00
-23609,71	130,00
-23547,65	152,00
-23485,80	108,00
-23424,16	107,00
-23362,74	67,00
-23301,53	7,00
-23240,54	101,00
-23179,75	21,00
-23119,17	70,00
-23058,80	140,00
-22998,64	75,00
-22938,68	148,00
-22878,93	38,00
-22819,39	135,00
-22760,04	134,00
-22700,90	51,00
-22641,96	3,00
-22583,22	249,00
-22524,68	48,00
-22466,33	102,00
-22408,19	-5,00
-22350,23	192,00
-22292,48	101,00
-22234,92	-11,00
-22177,55	119,00
-22120,37	150,00
-22063,38	178,00
-22006,58	175,00
-21949,98	110,00
-21893,56	35,00
-21837,33	106,00
-21781,28	198,00
-21725,42	143,00
-21669,74	41,00
-21614,25	74,00
-21558,94	60,00
-21503,81	367,00
-21448,86	160,00
-21394,10	110,00
-21339,51	171,00
-21285,10	-14,00
-21230,86	57,00
-21176,81	67,00
-21122,93	90,00
-21069,22	142,00
-21015,69	36,00
-20962,33	198,00
-20909,14	102,00
-20856,13	154,00
-20803,28	77,00
-20750,61	32,00
-20698,10	162,00
-20645,76	44,00
-20593,59	153,00
-20541,59	87,00
-20489,75	8,00
-20438,07	196,00
-20386,56	118,00
-20335,22	105,00
-20284,03	97,00
-20233,01	56,00
-20182,15	68,00
-20131,45	157,00
-20080,91	21,00
-20030,52	131,00
-19980,30	145,00
-19930,23	189,00
-19880,32	132,00
-19830,56	43,00
-19780,96	115,00
-19731,52	44,00
-19682,23	166,00
-19633,09	147,00
-19584,10	26,00
-19535,26	154,00
-19486,58	48,00
-19438,04	99,00
-19389,66	196,00
-19341,42	85,00
-19293,33	-6,00
-19245,39	42,00
-19197,60	130,00
-19149,95	-13,00
-19102,45	142,00
-19055,09	144,00
-19007,87	233,00
-18960,80	142,00
-18913,87	-38,00
-18867,09	139,00
-18820,44	231,00
-18773,94	20,00
-18727,57	-2,00
-18681,35	102,00
-18635,26	106,00
-18589,31	153,00
-18543,50	72,00
-18497,83	104,00
-18452,29	110,00
-18406,89	40,00
-18361,63	29,00
-18316,50	95,00
-18271,50	183,00
-18226,63	119,00
-18181,90	153,00
-18137,30	-65,00
-18092,84	153,00
-18048,50	21,00
-18004,29	-44,00
-17960,22	96,00
-17916,27	18,00
-17872,45	32,00
-17828,76	191,00
-17785,20	58,00
-17741,77	99,00
-17698,46	81,00
-17655,28	153,00
-17612,22	129,00
-17569,29	91,00
-17526,48	130,00
-17483,79	124,00
-17441,23	15,00
-17398,79	62,00
-17356,48	150,00
-17314,28	159,00
-17272,21	21,00
-17230,26	35,00
-17188,42	126,00
-17146,71	173,00
-17105,12	177,00
-17063,64	133,00
-17022,28	6,00
-16981,04	129,00
-16939,92	120,00
-16898,91	57,00
-16858,02	120,00
-16817,25	1,00
-16776,59	36,00
-16736,04	67,00
-16695,61	87,00
-16655,29	-26,00
-16615,09	85,00
-16574,99	18,00
-16535,01	149,00
-16495,15	170,00
-16455,39	42,00
-16415,74	130,00
-16376,21	-24,00
-16336,78	149,00
-16297,46	62,00
-16258,26	90,00
-16219,16	78,00
-16180,17	7,00
-16141,28	70,00
-16102,51	78,00
-16063,84	104,00
-16025,27	163,00
-15986,82	21,00
-15948,46	91,00
-15910,22	91,00
-15872,07	231,00
-15834,04	148,00
-15796,10	127,00
-15758,27	141,00
-15720,54	46,00
-15682,91	59,00
-15645,39	180,00
-15607,97	131,00
-15570,64	51,00
-15533,42	99,00
-15496,30	132,00
-15459,28	145,00
-15422,36	104,00
-15385,54	52,00
-15348,82	31,00
-15312,19	95,00
-15275,66	106,00
-15239,23	132,00
-15202,90	76,00
-15166,67	107,00
-15130,53	34,00
-15094,48	89,00
-15058,54	83,00
-15022,68	151,00
-14986,93	69,00
-14951,26	135,00
-14915,69	39,00
-14880,22	8,00
-14844,84	43,00
-14809,55	63,00
-14774,35	90,00
-14739,25	93,00
-14704,24	142,00
-14669,32	-47,00
-14634,49	32,00
-14599,75	-27,00
-14565,10	95,00
-14530,55	12,00
-14496,08	157,00
-14461,70	43,00
-14427,41	89,00
-14393,21	31,00
-14359,10	47,00
-14325,07	121,00
-14291,14	49,00
-14257,29	116,00
-14223,52	60,00
-14189,85	110,00
-14156,26	101,00
-14122,76	149,00
-14089,34	101,00
-14056,01	97,00
-14022,76	-2,00
-13989,60	117,00
-13956,52	205,00
-13923,53	124,00
-13890,62	91,00
-13857,79	66,00
-13825,05	185,00
-13792,39	-5,00
-13759,81	107,00
-13727,31	129,00
-13694,90	208,00
-13662,57	60,00
-13630,31	129,00
-13598,14	192,00
-13566,05	154,00
-13534,05	209,00
-13502,12	42,00
-13470,27	80,00
-13438,50	84,00
-13406,80	186,00
-13375,19	3,00
-13343,66	91,00
-13312,20	80,00
-13280,83	97,00
-13249,53	27,00
-13218,30	164,00
-13187,16	63,00
-13156,09	145,00
-13125,10	147,00
-13094,18	99,00
-13063,34	151,00
-13032,58	45,00
-13001,89	15,00
-12971,28	126,00
-12940,74	-13,00
-12910,27	85,00
-12879,88	218,00
-12849,57	74,00
-12819,33	1,00
-12789,16	2,00
-12759,06	64,00
-12729,04	125,00
-12699,09	202,00
-12669,21	46,00
-12639,41	48,00
-12609,68	47,00
-12580,02	63,00
-12550,43	115,00
-12520,91	102,00
-12491,46	83,00
-12462,08	186,00
-12432,77	100,00
-12403,54	172,00
-12374,37	125,00
-12345,27	180,00
-12316,24	160,00
-12287,29	25,00
-12258,40	72,00
-12229,57	107,00
-12200,82	13,00
-12172,14	91,00
-12143,52	78,00
-12114,97	166,00
-12086,49	122,00
-12058,07	192,00
-12029,73	145,00
-12001,44	-66,00
-11973,23	24,00
-11945,08	72,00
-11917,00	169,00
-11888,98	40,00
-11861,03	20,00
-11833,15	130,00
-11805,32	64,00
-11777,57	-60,00
-11749,88	54,00
-11722,25	115,00
-11694,69	95,00
-11667,19	44,00
-11639,75	35,00
-11612,38	67,00
-11585,07	128,00
-11557,83	105,00
-11530,65	62,00
-11503,53	56,00
-11476,47	182,00
-11449,48	143,00
-11422,54	172,00
-11395,67	30,00
-11368,86	151,00
-11342,11	34,00
-11315,43	118,00
-11288,80	45,00
-11262,23	84,00
-11235,73	102,00
-11209,28	155,00
-11182,90	5,00
-11156,57	59,00
-11130,31	141,00
-11104,10	86,00
-11077,96	112,00
-11051,87	85,00
-11025,84	20,00
-10999,87	172,00
-10973,96	9,00
-10948,11	60,00
-10922,31	202,00
-10896,58	117,00
-10870,90	163,00
-10845,28	-35,00
-10819,71	139,00
-10794,20	112,00
-10768,75	173,00
-10743,36	83,00
-10718,02	22,00
-10692,74	164,00
-10667,52	101,00
-10642,35	54,00
-10617,24	132,00
-10592,18	157,00
-10567,18	220,00
-10542,23	24,00
-10517,34	105,00
-10492,51	138,00
-10467,72	136,00
-10443,00	73,00
-10418,32	90,00
-10393,70	63,00
-10369,14	-49,00
-10344,63	35,00
-10320,17	43,00
-10295,77	117,00
-10271,42	56,00
-10247,12	112,00
-10222,88	64,00
-10198,68	27,00
-10174,54	-57,00
-10150,46	138,00
-10126,42	8,00
-10102,44	101,00
-10078,51	77,00
-10054,63	142,00
-10030,80	166,00
-10007,03	32,00
-9983,30	-90,00
-9959,63	84,00
-9936,01	18,00
-9912,44	186,00
-9888,92	48,00
-9865,44	-21,00
-9842,02	172,00
-9818,65	185,00
-9795,33	-7,00
-9772,06	47,00
-9748,84	-14,00
-9725,67	5,00
-9702,55	-79,00
-9679,47	10,00
-9656,45	34,00
-9633,47	-132,00
-9610,55	-11,00
-9587,67	-102,00
-9564,84	-166,00
-9542,06	27,00
-9519,32	-130,00
-9496,64	-3,00
-9474,00	-61,00
-9451,41	-52,00
-9428,87	0,00
-9406,37	-209,00
-9383,92	-212,00
-9361,52	-235,00
-9339,17	-147,00
-9316,86	-361,00
-9294,60	-198,00
-9272,38	-169,00
-9250,21	-163,00
-9228,09	-245,00
-9206,01	-264,00
-9183,98	-343,00
-9162,00	-312,00
-9140,06	-264,00
-9118,16	-309,00
-9096,31	-299,00
-9074,51	-200,00
-9052,75	-180,00
-9031,04	-122,00
-9009,37	-233,00
-8987,74	-256,00
-8966,16	-217,00
-8944,63	-296,00
-8923,14	-260,00
-8901,69	-234,00
-8880,29	-73,00
-8858,93	-105,00
-8837,61	-93,00
-8816,34	18,00
-8795,11	-179,00
-8773,92	-38,00
-8752,78	-108,00
-8731,68	-50,00
-8710,62	-12,00
-8689,61	-84,00
-8668,63	-58,00
-8647,70	144,00
-8626,82	180,00
-8605,97	-46,00
-8585,17	65,00
-8564,41	-79,00
-8543,69	-140,00
-8523,01	-115,00
-8502,37	-148,00
-8481,78	-104,00
-8461,23	43,00
-8440,71	-67,00
-8420,24	32,00
-8399,81	24,00
-8379,42	125,00
-8359,08	80,00
-8338,77	-70,00
-8318,50	72,00
-8298,27	-78,00
-8278,09	47,00
-8257,94	167,00
-8237,83	156,00
-8217,76	72,00
-8197,74	4,00
-8177,75	200,00
-8157,80	34,00
-8137,89	205,00
-8118,02	48,00
-8098,19	72,00
-8078,40	94,00
-8058,65	186,00
-8038,93	101,00
-8019,26	202,00
-7999,62	234,00
-7980,02	71,00
-7960,46	105,00
-7940,94	65,00
-7921,46	40,00
-7902,01	-12,00
-7882,60	159,00
-7863,23	33,00
-7843,90	107,00
-7824,61	115,00
-7805,35	180,00
-7786,13	69,00
-7766,95	267,00
-7747,80	159,00
-7728,69	93,00
-7709,62	157,00
-7690,59	154,00
-7671,59	180,00
-7652,63	199,00
-7633,70	151,00
-7614,81	99,00
-7595,96	65,00
-7577,15	213,00
-7558,37	133,00
-7539,62	118,00
-7520,91	275,00
-7502,24	129,00
-7483,60	183,00
-7465,00	195,00
-7446,44	118,00
-7427,91	158,00
-7409,41	28,00
-7390,95	-93,00
-7372,53	-50,00
-7354,14	-25,00
-7335,78	-17,00
-7317,46	59,00
-7299,18	54,00
-7280,92	27,00
-7262,71	37,00
-7244,52	252,00
-7226,38	77,00
-7208,26	165,00
-7190,18	24,00
-7172,14	92,00
-7154,12	45,00
-7136,15	183,00
-7118,20	184,00
-7100,29	73,00
-7082,41	29,00
-7064,57	130,00
-7046,76	15,00
-7028,98	100,00
-7011,24	-140,00
-6993,53	-66,00
-6975,85	-14,00
-6958,20	-78,00
-6940,59	-119,00
-6923,01	-90,00
-6905,46	4,00
-6887,94	-122,00
-6870,46	2734,00
-6853,01	-27,00
-6835,59	64,00
-6818,21	20,00
-6800,85	150,00
-6783,53	-46,00
-6766,24	-153,00
-6748,98	-134,00
-6731,76	-210,00
-6714,56	-133,00
-6697,40	-130,00
-6680,26	-118,00
-6663,16	144,00
-6646,09	-36,00
-6629,05	-2,00
-6612,05	-12,00
-6595,07	116,00
-6578,13	-26,00
-6561,21	-56,00
-6544,33	-88,00
-6527,47	-71,00
-6510,65	-105,00
-6493,86	-121,00
-6477,10	-161,00
-6460,36	-146,00
-6443,66	-171,00
-6426,99	-127,00
-6410,35	-4,00
-6393,74	-85,00
-6377,16	-131,00
-6360,61	-46,00
-6344,09	-61,00
-6327,59	-27,00
-6311,13	-9,00
-6294,70	40,00
-6278,29	67,00
-6261,92	-79,00
-6245,58	24,00
-6229,26	29,00
-6212,97	-52,00
-6196,72	-92,00
-6180,49	-27,00
-6164,29	-71,00
-6148,12	-255,00
-6131,98	-153,00
-6115,86	-197,00
-6099,78	-243,00
-6083,72	-95,00
-6067,69	-110,00
-6051,69	-8,00
-6035,72	-68,00
-6019,78	-24,00
-6003,87	-80,00
-5987,98	41,00
-5972,12	60,00
-5956,29	-101,00
-5940,49	29,00
-5924,71	-9,00
-5908,96	101,00
-5893,24	-51,00
-5877,55	-19,00
-5861,89	-74,00
-5846,25	-87,00
-5830,64	28,00
-5815,05	-184,00
-5799,50	1,00
-5783,97	-113,00
-5768,47	117,00
-5752,99	-114,00
-5737,55	-55,00
-5722,12	-44,00
-5706,73	-62,00
-5691,36	151,00
-5676,02	-155,00
-5660,71	13,00
-5645,42	-40,00
-5630,16	134,00
-5614,92	-70,00
-5599,71	-91,00
-5584,53	4,00
-5569,37	73,00
-5554,24	-885,00
-5539,14	88,00
-5524,06	11,00
-5509,01	-36,00
-5493,98	-59,00
-5478,98	-82,00
-5464,00	-135,00
-5449,05	-96,00
-5434,13	-9,00
-5419,23	22,00
-5404,36	-87,00
-5389,51	71,00
-5374,69	-108,00
-5359,89	125,00
-5345,12	-56,00
-5330,37	-57,00
-5315,65	49,00
-5300,95	16,00
-5286,28	34,00
-5271,63	-17,00
-5257,01	-69,00
-5242,41	-40,00
-5227,84	-170,00
-5213,29	14,00
-5198,76	-197,00
-5184,26	36,00
-5169,79	-67,00
-5155,33	-32,00
-5140,91	2,00
-5126,51	24,00
-5112,13	-70,00
-5097,77	65,00
-5083,44	128,00
-5069,13	40,00
-5054,85	-117,00
-5040,59	16,00
-5026,36	-26,00
-5012,15	-69,00
-4997,96	-50,00
-4983,80	-105,00
-4969,66	-67,00
-4955,54	7,00
-4941,44	143,00
-4927,37	50,00
-4913,33	90,00
-4899,30	137,00
-4885,30	-14,00
-4871,33	119,00
-4857,37	-5,00
-4843,44	145,00
-4829,53	79,00
-4815,65	83,00
-4801,79	-61,00
-4787,95	-29,00
-4774,13	42,00
-4760,34	-48,00
-4746,56	98,00
-4732,82	-3,00
-4719,09	68,00
-4705,38	77,00
-4691,70	59,00
-4678,04	20,00
-4664,41	153,00
-4650,79	108,00
-4637,20	17,00
-4623,63	-98,00
-4610,08	11,00
-4596,56	-27,00
-4583,05	-79,00
-4569,57	44,00
-4556,11	-4,00
-4542,67	109,00
-4529,25	15,00
-4515,86	188,00
-4502,49	45,00
-4489,13	119,00
-4475,80	14,00
-4462,49	196,00
-4449,21	207,00
-4435,94	134,00
-4422,70	20,00
-4409,47	109,00
-4396,27	63,00
-4383,09	49,00
-4369,93	115,00
-4356,79	5,00
-4343,67	122,00
-4330,58	82,00
-4317,50	186,00
-4304,45	63,00
-4291,41	10,00
-4278,40	133,00
-4265,41	59,00
-4252,44	120,00
-4239,49	29,00
-4226,55	101,00
-4213,65	123,00
-4200,76	214,00
-4187,89	-1,00
-4175,04	55,00
-4162,21	-23,00
-4149,40	126,00
-4136,61	33,00
-4123,85	-57,00
-4111,10	120,00
-4098,37	83,00
-4085,66	51,00
-4072,98	162,00
-4060,31	17,00
-4047,66	37,00
-4035,04	28,00
-4022,43	79,00
-4009,84	-52,00
-3997,27	50,00
-3984,72	42,00
-3972,19	104,00
-3959,69	99,00
-3947,20	163,00
-3934,73	75,00
-3922,27	8,00
-3909,84	-63,00
-3897,43	122,00
-3885,04	108,00
-3872,67	173,00
-3860,31	44,00
-3847,98	99,00
-3835,66	87,00
-3823,36	152,00
-3811,09	154,00
-3798,83	121,00
-3786,59	6,00
-3774,37	177,00
-3762,17	5,00
-3749,98	84,00
-3737,82	108,00
-3725,67	155,00
-3713,55	186,00
-3701,44	130,00
-3689,35	211,00
-3677,28	173,00
-3665,22	143,00
-3653,19	153,00
-3641,17	43,00
-3629,18	95,00
-3617,20	123,00
-3605,24	218,00
-3593,30	120,00
-3581,37	244,00
-3569,47	123,00
-3557,58	204,00
-3545,71	81,00
-3533,86	136,00
-3522,02	26,00
-3510,21	151,00
-3498,41	103,00
-3486,63	50,00
-3474,87	127,00
-3463,12	39,00
-3451,40	168,00
-3439,69	202,00
-3428,00	134,00
-3416,33	31,00
-3404,67	75,00
-3393,03	83,00
-3381,41	149,00
-3369,81	79,00
-3358,22	160,00
-3346,66	131,00
-3335,10	72,00
-3323,57	61,00
-3312,06	66,00
-3300,56	120,00
-3289,08	124,00
-3277,61	92,00
-3266,16	57,00
-3254,73	-25,00
-3243,32	100,00
-3231,92	11,00
-3220,55	80,00
-3209,18	16,00
-3197,84	133,00
-3186,51	104,00
-3175,20	221,00
-3163,90	121,00
-3152,63	57,00
-3141,36	261,00
-3130,12	199,00
-3118,89	79,00
-3107,68	125,00
-3096,49	101,00
-3085,31	140,00
-3074,15	105,00
-3063,00	56,00
-3051,87	136,00
-3040,76	176,00
-3029,67	47,00
-3018,59	113,00
-3007,52	88,00
-2996,48	80,00
-2985,44	147,00
-2974,43	-54,00
-2963,43	158,00
-2952,45	6,00
-2941,48	-32,00
-2930,53	142,00
-2919,60	136,00
-2908,68	-10,00
-2897,78	4,00
-2886,89	56,00
-2876,02	-23,00
-2865,17	72,00
-2854,33	88,00
-2843,50	-71,00
-2832,70	-37,00
-2821,90	39,00
-2811,13	119,00
-2800,37	65,00
-2789,62	109,00
-2778,89	119,00
-2768,18	193,00
-2757,48	136,00
-2746,80	45,00
-2736,13	114,00
-2725,48	-75,00
-2714,84	191,00
-2704,22	41,00
-2693,61	199,00
-2683,02	177,00
-2672,45	94,00
-2661,89	82,00
-2651,34	82,00
-2640,81	181,00
-2630,30	56,00
-2619,80	70,00
-2609,31	153,00
-2598,84	98,00
-2588,39	61,00
-2577,95	-7,00
-2567,52	142,00
-2557,11	81,00
-2546,71	62,00
-2536,33	119,00
-2525,97	-9,00
-2515,62	94,00
-2505,28	-66,00
-2494,96	118,00
-2484,65	-14,00
-2474,36	124,00
-2464,08	7,00
-2453,82	171,00
-2443,57	87,00
-2433,33	-14,00
-2423,11	189,00
-2412,91	90,00
-2402,72	144,00
-2392,54	167,00
-2382,38	85,00
-2372,23	109,00
-2362,09	-326,00
-2351,97	68,00
-2341,87	77,00
-2331,78	40,00
-2321,70	84,00
-2311,64	100,00
-2301,59	44,00
-2291,55	124,00
-2281,53	123,00
-2271,53	-23,00
-2261,53	159,00
-2251,55	324,00
-2241,59	108,00
-2231,64	26,00
-2221,70	74,00
-2211,78	173,00
-2201,87	152,00
-2191,97	66,00
-2182,09	109,00
-2172,22	53,00
-2162,37	58,00
-2152,53	123,00
-2142,70	96,00
-2132,89	195,00
-2123,09	123,00
-2113,30	110,00
-2103,53	103,00
-2093,77	74,00
-2084,02	97,00
-2074,29	34,00
-2064,57	108,00
-2054,86	12,00
-2045,17	83,00
-2035,49	60,00
-2025,82	59,00
-2016,17	8,00
-2006,53	130,00
-1996,91	86,00
-1987,29	5,00
-1977,69	86,00
-1968,11	-12,00
-1958,53	123,00
-1948,97	47,00
-1939,42	25,00
-1929,89	19,00
-1920,37	51,00
-1910,86	48,00
-1901,36	-49,00
-1891,88	170,00
-1882,41	-37,00
-1872,95	32,00
-1863,51	158,00
-1854,08	64,00
-1844,66	195,00
-1835,26	15,00
-1825,86	32,00
-1816,48	203,00
-1807,11	138,00
-1797,76	281,00
-1788,42	111,00
-1779,09	68,00
-1769,77	102,00
-1760,47	182,00
-1751,17	140,00
-1741,89	-21,00
-1732,63	195,00
-1723,37	108,00
-1714,13	92,00
-1704,90	138,00
-1695,68	134,00
-1686,48	214,00
-1677,29	1,00
-1668,11	204,00
-1658,94	107,00
-1649,78	106,00
-1640,64	29,00
-1631,51	23,00
-1622,39	112,00
-1613,28	178,00
-1604,19	93,00
-1595,10	110,00
-1586,03	236,00
-1576,97	120,00
-1567,93	74,00
-1558,89	6,00
-1549,87	145,00
-1540,86	71,00
-1531,86	137,00
-1522,87	22,00
-1513,90	177,00
-1504,93	204,00
-1495,98	267,00
-1487,04	79,00
-1478,12	129,00
-1469,20	54,00
-1460,30	184,00
-1451,40	145,00
-1442,52	87,00
-1433,65	66,00
-1424,80	89,00
-1415,95	211,00
-1407,12	75,00
-1398,30	-1,00
-1389,48	49,00
-1380,69	110,00
-1371,90	48,00
-1363,12	35,00
-1354,36	66,00
-1345,60	-21,00
-1336,86	-47,00
-1328,13	91,00
-1319,41	90,00
-1310,70	104,00
-1302,01	132,00
-1293,32	18,00
-1284,65	95,00
-1275,99	88,00
-1267,33	154,00
-1258,69	177,00
-1250,06	73,00
-1241,45	70,00
-1232,84	75,00
-1224,25	53,00
-1215,66	99,00
-1207,09	101,00
-1198,53	115,00
-1189,97	47,00
-1181,43	-29,00
-1172,91	-4,00
-1164,39	140,00
-1155,88	92,00
-1147,38	108,00
-1138,90	112,00
-1130,43	122,00
-1121,96	91,00
-1113,51	109,00
-1105,07	97,00
-1096,64	155,00
-1088,22	178,00
-1079,81	26,00
-1071,41	119,00
-1063,02	197,00
-1054,65	-50,00
-1046,28	167,00
-1037,92	119,00
-1029,58	218,00
-1021,24	95,00
-1012,92	261,00
-1004,61	101,00
-996,30	171,00
-988,01	51,00
-979,73	98,00
-971,46	95,00
-963,20	122,00
-954,95	42,00
-946,71	66,00
-938,48	40,00
-930,26	98,00
-922,06	157,00
-913,86	193,00
-905,67	93,00
-897,49	61,00
-889,33	41,00
-881,17	181,00
-873,02	33,00
-864,89	52,00
-856,76	7,00
-848,65	56,00
-840,54	105,00
-832,45	117,00
-824,36	66,00
-816,29	73,00
-808,22	113,00
-800,17	110,00
-792,12	149,00
-784,09	12,00
-776,06	-104,00
-768,05	27,00
-760,04	189,00
-752,05	28,00
-744,07	85,00
-736,09	170,00
-728,13	83,00
-720,17	-12,00
-712,23	53,00
-704,29	47,00
-696,37	151,00
-688,45	82,00
-680,55	150,00
-672,65	-22,00
-664,77	-53,00
-656,89	103,00
-649,03	91,00
-641,17	56,00
-633,32	105,00
-625,49	236,00
-617,66	105,00
-609,84	-12,00
-602,03	72,00
-594,23	34,00
-586,45	59,00
-578,67	53,00
-570,90	181,00
-563,14	32,00
-555,39	224,00
-547,65	49,00
-539,91	163,00
-532,19	44,00
-524,48	27,00
-516,78	89,00
-509,08	50,00
-501,40	43,00
-493,72	74,00
-486,06	169,00
-478,40	227,00
-470,76	201,00
-463,12	43,00
-455,49	110,00
-447,87	128,00
-440,26	-12,00
-432,66	117,00
-425,07	158,00
-417,49	111,00
-409,92	89,00
-402,35	101,00
-394,80	141,00
-387,25	97,00
-379,72	243,00
-372,19	222,00
-364,67	39,00
-357,17	79,00
-349,67	58,00
-342,18	139,00
-334,69	241,00
-327,22	93,00
-319,76	133,00
-312,30	150,00
-304,86	93,00
-297,42	175,00
-290,00	106,00
-282,58	68,00
-275,17	163,00
-267,77	148,00
-260,37	109,00
-252,99	152,00
-245,62	178,00
-238,25	217,00
-230,90	111,00
-223,55	182,00
-216,21	120,00
-208,88	174,00
-201,56	60,00
-194,25	291,00
-186,94	295,00
-179,65	302,00
-172,36	276,00
-165,08	256,00
-157,81	274,00
-150,55	351,00
-143,30	387,00
-136,06	431,00
-128,82	413,00
-121,60	446,00
-114,38	381,00
-107,17	640,00
-99,97	639,00
-92,78	725,00
-85,60	821,00
-78,42	757,00
-71,25	1002,00
-64,10	1198,00
-56,95	1247,00
-49,81	1533,00
-42,67	1769,00
-35,55	2211,00
-28,43	3029,00
-21,33	5109,00
-14,23	16684,00
-7,14	55238,00
-0,05	54948,00
7,02	54664,00
14,09	53037,00
21,14	14427,00
28,19	6136,00
35,23	3924,00
42,27	3071,00
49,29	2328,00
56,31	2012,00
63,32	1790,00
70,32	1369,00
77,31	1168,00
84,29	1056,00
91,27	969,00
98,23	922,00
105,19	907,00
112,14	898,00
119,09	1463,00
126,02	2233,00
132,95	2563,00
139,87	2553,00
146,78	2411,00
153,68	2401,00
160,58	2305,00
167,46	2247,00
174,34	2477,00
181,21	2265,00
188,08	2321,00
194,93	2190,00
201,78	2267,00
208,62	2294,00
215,45	2334,00
222,27	2396,00
229,09	2199,00
235,90	2207,00
242,70	2197,00
249,49	2016,00
256,27	2194,00
263,05	2049,00
269,82	2116,00
276,58	2158,00
283,33	2163,00
290,08	2100,00
296,82	2030,00
303,55	1941,00
310,27	1939,00
316,98	1933,00
323,69	2081,00
330,39	2066,00
337,08	1942,00
343,76	1974,00
350,44	1991,00
357,11	1879,00
363,77	1994,00
370,42	1766,00
377,07	1831,00
383,71	1964,00
390,34	1872,00
396,96	1879,00
403,58	1955,00
410,19	1710,00
416,79	1885,00
423,38	1945,00
429,97	1838,00
436,55	1627,00
443,12	1723,00
449,68	1611,00
456,24	1779,00
462,79	1776,00
469,33	1641,00
475,86	1664,00
482,39	1716,00
488,91	1527,00
495,42	1566,00
501,93	1585,00
508,42	1558,00
514,91	1542,00
521,40	1515,00
527,87	1559,00
534,34	1603,00
540,80	1562,00
547,25	1536,00
553,70	1491,00
560,14	1364,00
566,57	1434,00
573,00	1488,00
579,41	1527,00
585,83	1438,00
592,23	1428,00
598,62	1393,00
605,01	1374,00
611,40	1398,00
617,77	1434,00
624,14	1549,00
630,50	1413,00
636,85	1457,00
643,20	1356,00
649,54	1361,00
655,87	1240,00
662,20	1322,00
668,52	1381,00
674,83	1290,00
681,13	1404,00
687,43	1259,00
693,72	1270,00
700,00	1363,00
706,28	1268,00
712,55	1200,00
718,81	1301,00
725,07	1279,00
731,32	1287,00
737,56	1324,00
743,79	1255,00
750,02	1299,00
756,24	1094,00
762,46	1269,00
768,67	1291,00
774,87	1193,00
781,06	1231,00
787,25	1249,00
793,43	1206,00
799,60	1155,00
805,77	1224,00
811,93	1187,00
818,08	1222,00
824,23	1228,00
830,37	1276,00
836,50	1293,00
842,63	1171,00
848,75	1335,00
854,87	1270,00
860,97	1230,00
867,07	1222,00
873,17	1204,00
879,25	1278,00
885,33	1274,00
891,41	1242,00
897,47	1063,00
903,53	1176,00
909,59	1235,00
915,63	1149,00
921,67	1158,00
927,71	952,00
933,74	1120,00
939,76	1079,00
945,77	1094,00
951,78	1065,00
957,78	1099,00
963,78	1162,00
969,77	987,00
975,75	1131,00
981,72	1082,00
987,69	1396,00
993,66	1121,00
999,61	1004,00
1005,56	1017,00
1011,51	1032,00
1017,44	1090,00
1023,37	1099,00
1029,30	1214,00
1035,22	1124,00
1041,13	1107,00
1047,03	1210,00
1052,93	1243,00
1058,83	1507,00
1064,71	1515,00
1070,59	1367,00
1076,47	1329,00
1082,33	1168,00
1088,20	1108,00
1094,05	1002,00
1099,90	1101,00
1105,74	1014,00
1111,58	1129,00
1117,41	1110,00
1123,23	1358,00
1129,05	1281,00
1134,86	1267,00
1140,67	1285,00
1146,47	1192,00
1152,26	1164,00
1158,05	1011,00
1163,83	1061,00
1169,60	989,00
1175,37	1018,00
1181,13	951,00
1186,89	1062,00
1192,64	995,00
1198,38	953,00
1204,12	1021,00
1209,85	955,00
1215,58	996,00
1221,30	956,00
1227,02	1053,00
1232,72	986,00
1238,43	988,00
1244,12	910,00
1249,81	977,00
1255,50	920,00
1261,17	937,00
1266,85	1017,00
1272,51	1136,00
1278,17	1116,00
1283,83	1128,00
1289,47	1440,00
1295,12	1676,00
1300,75	1658,00
1306,38	1459,00
1312,01	1319,00
1317,63	1198,00
1323,24	1097,00
1328,85	1168,00
1334,45	1066,00
1340,04	1029,00
1345,63	1147,00
1351,22	1075,00
1356,80	1047,00
1362,37	1118,00
1367,93	1140,00
1373,49	1085,00
1379,05	1097,00
1384,60	1100,00
1390,14	1090,00
1395,68	1123,00
1401,21	1039,00
1406,74	1124,00
1412,26	1257,00
1417,77	1183,00
1423,28	1340,00
1428,78	1405,00
1434,28	1701,00
1439,77	1576,00
1445,26	1609,00
1450,74	1686,00
1456,22	1585,00
1461,68	1407,00
1467,15	1506,00
1472,61	1289,00
1478,06	1244,00
1483,51	1104,00
1488,95	1055,00
1494,38	1041,00
1499,81	882,00
1505,24	1189,00
1510,65	858,00
1516,07	954,00
1521,48	962,00
1526,88	811,00
1532,27	952,00
1537,67	912,00
1543,05	1018,00
1548,43	898,00
1553,81	877,00
1559,18	833,00
1564,54	906,00
1569,90	869,00
1575,25	833,00
1580,60	848,00
1585,94	832,00
1591,28	988,00
1596,61	913,00
1601,93	905,00
1607,25	842,00
1612,57	821,00
1617,88	933,00
1623,18	916,00
1628,48	835,00
1633,77	740,00
1639,06	762,00
1644,34	758,00
1649,62	880,00
1654,89	871,00
1660,16	799,00
1665,42	705,00
1670,67	773,00
1675,92	817,00
1681,17	810,00
1686,41	765,00
1691,64	880,00
1696,87	699,00
1702,10	637,00
1707,32	746,00
1712,53	715,00
1717,74	685,00
1722,94	591,00
1728,14	678,00
1733,33	733,00
1738,52	692,00
1743,70	687,00
1748,88	665,00
1754,05	640,00
1759,22	668,00
1764,38	651,00
1769,53	665,00
1774,69	615,00
1779,83	545,00
1784,97	681,00
1790,11	547,00
1795,24	718,00
1800,36	736,00
1805,48	586,00
1810,60	638,00
1815,71	557,00
1820,82	552,00
1825,92	640,00
1831,01	482,00
1836,10	689,00
1841,19	624,00
1846,26	618,00
1851,34	578,00
1856,41	711,00
1861,47	581,00
1866,53	827,00
1871,59	666,00
1876,64	633,00
1881,68	518,00
1886,72	561,00
1891,76	608,00
1896,79	570,00
1901,81	515,00
1906,83	610,00
1911,85	583,00
1916,86	702,00
1921,86	435,00
1926,86	483,00
1931,86	592,00
1936,85	469,00
1941,83	591,00
1946,81	444,00
1951,79	579,00
1956,76	406,00
1961,72	472,00
1966,68	434,00
1971,64	551,00
1976,59	566,00
1981,54	554,00
1986,48	558,00
1991,42	451,00
1996,35	505,00
2001,27	525,00
2006,20	450,00
2011,11	561,00
2016,03	576,00
2020,93	364,00
2025,84	432,00
2030,73	455,00
2035,63	403,00
2040,52	490,00
2045,40	444,00
2050,28	353,00
2055,15	457,00
2060,02	513,00
2064,89	360,00
2069,75	468,00
2074,60	426,00
2079,46	506,00
2084,30	378,00
2089,14	420,00
2093,98	377,00
2098,81	503,00
2103,64	463,00
2108,46	426,00
2113,28	514,00
2118,09	480,00
2122,90	397,00
2127,70	285,00
2132,50	524,00
2137,30	371,00
2142,09	497,00
2146,87	555,00
2151,66	451,00
2156,43	395,00
2161,20	452,00
2165,97	501,00
2170,73	298,00
2175,49	550,00
2180,24	370,00
2184,99	386,00
2189,74	385,00
2194,48	325,00
2199,21	509,00
2203,94	381,00
2208,67	290,00
2213,39	417,00
2218,11	400,00
2222,82	305,00
2227,53	290,00
2232,23	342,00
2236,93	323,00
2241,63	357,00
2246,32	379,00
2251,00	362,00
2255,68	346,00
2260,36	273,00
2265,03	352,00
2269,70	301,00
2274,36	367,00
2279,02	330,00
2283,68	310,00
2288,33	336,00
2292,97	499,00
2297,61	375,00
2302,25	470,00
2306,88	369,00
2311,51	189,00
2316,14	489,00
2320,75	208,00
2325,37	226,00
2329,98	334,00
2334,59	248,00
2339,19	272,00
2343,79	298,00
2348,38	322,00
2352,97	305,00
2357,55	361,00
2362,13	341,00
2366,71	321,00
2371,28	373,00
2375,85	276,00
2380,41	395,00
2384,97	248,00
2389,52	251,00
2394,07	264,00
2398,62	259,00
2403,16	338,00
2407,70	291,00
2412,23	243,00
2416,76	316,00
2421,29	315,00
2425,81	308,00
2430,32	320,00
2434,84	204,00
2439,34	289,00
2443,85	316,00
2448,35	289,00
2452,84	212,00
2457,33	320,00
2461,82	347,00
2466,30	250,00
2470,78	271,00
2475,25	307,00
2479,72	289,00
2484,19	169,00
2488,65	365,00
2493,11	275,00
2497,56	259,00
2502,01	177,00
2506,46	189,00
2510,90	201,00
2515,34	229,00
2519,77	256,00
2524,20	322,00
2528,62	254,00
2533,04	247,00
2537,46	229,00
2541,87	222,00
2546,28	251,00
2550,68	320,00
2555,08	271,00
2559,48	161,00
2563,87	192,00
2568,26	272,00
2572,64	318,00
2577,02	244,00
2581,40	216,00
2585,77	322,00
2590,14	204,00
2594,50	288,00
2598,86	289,00
2603,22	213,00
2607,57	187,00
2611,92	305,00
2616,26	332,00
2620,60	160,00
2624,94	310,00
2629,27	303,00
2633,60	255,00
2637,92	283,00
2642,24	276,00
2646,56	241,00
2650,87	265,00
2655,18	251,00
2659,48	245,00
2663,78	346,00
2668,08	325,00
2672,37	342,00
2676,66	140,00
2680,95	195,00
2685,23	279,00
2689,50	203,00
2693,78	356,00
2698,05	209,00
2702,31	298,00
2706,57	405,00
2710,83	274,00
2715,08	303,00
2719,33	309,00
2723,58	305,00
2727,82	269,00
2732,06	276,00
2736,29	319,00
2740,53	291,00
2744,75	321,00
2748,97	212,00
2753,19	285,00
2757,41	458,00
2761,62	252,00
2765,83	282,00
2770,03	320,00
2774,23	317,00
2778,43	275,00
2782,62	279,00
2786,81	214,00
2791,00	247,00
2795,18	336,00
2799,35	311,00
2803,53	311,00
2807,70	289,00
2811,86	435,00
2816,03	339,00
2820,19	473,00
2824,34	422,00
2828,49	584,00
2832,64	518,00
2836,78	597,00
2840,92	738,00
2845,06	1007,00
2849,19	1140,00
2853,32	1069,00
2857,45	1259,00
2861,57	1129,00
2865,69	1063,00
2869,80	926,00
2873,91	1051,00
2878,02	1195,00
2882,12	1179,00
2886,22	1139,00
2890,32	1151,00
2894,41	1050,00
2898,50	931,00
2902,58	859,00
2906,67	912,00
2910,74	815,00
2914,82	811,00
2918,89	770,00
2922,96	752,00
2927,02	707,00
2931,08	651,00
2935,13	585,00
2939,19	594,00
2943,24	510,00
2947,28	416,00
2951,32	437,00
2955,36	460,00
2959,40	271,00
2963,43	383,00
2967,46	314,00
2971,48	265,00
2975,50	316,00
2979,52	326,00
2983,53	339,00
2987,54	190,00
2991,55	258,00
2995,55	265,00
2999,55	220,00
3003,54	203,00
3007,54	277,00
3011,53	239,00
3015,51	224,00
3019,49	181,00
3023,47	199,00
3027,45	119,00
3031,42	257,00
3035,39	225,00
3039,35	194,00
3043,31	27,00
3047,27	224,00
3051,22	182,00
3055,17	207,00
3059,12	131,00
3063,06	269,00
3067,00	227,00
3070,94	176,00
3074,87	250,00
3078,80	174,00
3082,73	151,00
3086,65	174,00
3090,57	178,00
3094,49	243,00
3098,40	147,00
3102,31	205,00
3106,22	161,00
3110,12	-7,00
3114,02	145,00
3117,92	173,00
3121,81	170,00
3125,70	134,00
3129,58	143,00
3133,47	177,00
3137,34	194,00
3141,22	161,00
3145,09	237,00
3148,96	90,00
3152,83	217,00
3156,69	164,00
3160,55	190,00
3164,40	127,00
3168,26	136,00
3172,10	144,00
3175,95	69,00
3179,79	130,00
3183,63	133,00
3187,47	197,00
3191,30	119,00
3195,13	202,00
3198,95	182,00
3202,78	200,00
3206,60	196,00
3210,41	81,00
3214,23	213,00
3218,03	199,00
3221,84	152,00
3225,64	146,00
3229,44	247,00
3233,24	257,00
3237,03	216,00
3240,82	-5,00
3244,61	223,00
3248,39	176,00
3252,17	68,00
3255,95	102,00
3259,72	146,00
3263,49	112,00
3267,26	159,00
3271,03	116,00
3274,79	237,00
3278,54	113,00
3282,30	97,00
3286,05	186,00
3289,80	19,00
3293,54	54,00
3297,29	120,00
3301,02	287,00
3304,76	107,00
3308,49	144,00
3312,22	225,00
3315,95	82,00
3319,67	118,00
3323,39	189,00
3327,10	172,00
3330,82	113,00
3334,53	151,00
3338,24	213,00
3341,94	25,00
3345,64	172,00
3349,34	224,00
3353,03	102,00
3356,72	143,00
3360,41	224,00
3364,10	215,00
3367,78	48,00
3371,46	114,00
3375,13	212,00
3378,81	91,00
3382,48	148,00
3386,14	12,00
3389,81	84,00
3393,47	0,00
3397,12	134,00
3400,78	-15,00
3404,43	198,00
3408,08	147,00
3411,72	106,00
3415,36	176,00
3419,00	115,00
3422,64	-17,00
3426,27	147,00
3429,90	136,00
3433,53	131,00
3437,15	86,00
3440,77	144,00
3444,39	20,00
3448,00	267,00
3451,62	95,00
3455,22	145,00
3458,83	78,00
3462,43	194,00
3466,03	109,00
3469,63	183,00
3473,22	129,00
3476,81	89,00
3480,40	62,00
3483,99	181,00
3487,57	133,00
3491,15	191,00
3494,72	62,00
3498,29	118,00
3501,86	51,00
3505,43	142,00
3508,99	85,00
3512,56	153,00
3516,11	94,00
3519,67	61,00
3523,22	116,00
3526,77	116,00
3530,32	69,00
3533,86	184,00
3537,40	31,00
3540,94	57,00
3544,47	98,00
3548,00	101,00
3551,53	77,00
3555,06	102,00
3558,58	132,00
3562,10	168,00
3565,62	100,00
3569,13	114,00
3572,64	132,00
3576,15	107,00
3579,66	104,00
3583,16	157,00
3586,66	171,00
3590,16	207,00
3593,65	167,00
3597,14	37,00
3600,63	162,00
3604,11	114,00
3607,60	65,00
3611,08	-31,00
3614,55	209,00
3618,03	119,00
3621,50	33,00
3624,97	71,00
3628,43	110,00
3631,90	144,00
3635,36	152,00
3638,81	133,00
3642,27	63,00
3645,72	96,00
3649,17	108,00
3652,61	-10,00
3656,06	194,00
3659,50	129,00
3662,93	71,00
3666,37	83,00
3669,80	2,00
3673,23	41,00
3676,65	44,00
3680,08	4,00
3683,50	42,00
3686,92	204,00
3690,33	190,00
3693,74	138,00
3697,15	132,00
3700,56	91,00
3703,96	-7,00
3707,36	25,00
3710,76	168,00
3714,16	121,00
3717,55	71,00
3720,94	134,00
3724,33	112,00
3727,71	-19,00
3731,10	133,00
3734,48	38,00
3737,85	81,00
3741,23	114,00
3744,60	38,00
3747,97	62,00
3751,33	67,00
3754,69	78,00
3758,05	114,00
3761,41	27,00
3764,77	153,00
3768,12	103,00
3771,47	48,00
3774,82	2,00
3778,16	2,00
3781,50	-1,00
3784,84	0,00
3788,18	-2,00
>>>>>End Processed Spectral Data<<<<<
