SpectraSuite Data File
++++++++++++++++++++++++++++++++++++
Date: Mon Mar 09 16:13:00 ICT 2026
User: Administrator
Dark Spectrum Present: Yes
Reference Spectrum Present: No
Number of Sampled Component Spectra: 1
Spectrometers: MAYP113682
Integration Time (usec): 3000000 (MAYP113682)
Spectra Averaged: 1 (MAYP113682)
Boxcar Smoothing: 0 (MAYP113682)
Correct for Electrical Dark: No (MAYP113682)
Strobe/Lamp Enabled: No (MAYP113682)
Correct for Detector Non-linearity: No (MAYP113682)
Correct for Stray Light: No (MAYP113682)
Number of Pixels in Processed Spectrum: 2068
>>>>>Begin Processed Spectral Data<<<<<
-37534,58	-5,00
-37414,56	-3,00
-37295,11	-2,00
-37176,24	-3,00
-37057,95	-100,00
-36940,22	84,00
-36823,05	121,00
-36706,45	71,00
-36590,40	68,00
-36474,90	84,00
-36359,95	11,00
-36245,55	-29,00
-36131,68	44,00
-36018,35	84,00
-35905,55	-11,00
-35793,29	-95,00
-35681,54	38,00
-35570,32	43,00
-35459,62	-16,00
-35349,43	27,00
-35239,75	5,00
-35130,58	-15,00
-35021,91	-63,00
-34913,74	22,00
-34806,07	-37,00
-34698,89	-61,00
-34592,20	-71,00
-34486,00	83,00
-34380,28	50,00
-34275,04	64,00
-34170,27	-2,00
-34065,98	4,00
-33962,16	-25,00
-33858,81	41,00
-33755,92	217,00
-33653,49	94,00
-33551,52	75,00
-33450,01	66,00
-33348,94	-75,00
-33248,33	0,00
-33148,16	-65,00
-33048,43	104,00
-32949,14	-26,00
-32850,29	-54,00
-32751,87	-17,00
-32653,89	-71,00
-32556,33	10,00
-32459,20	15,00
-32362,49	211,00
-32266,19	20,00
-32170,32	80,00
-32074,86	26,00
-31979,82	-109,00
-31885,18	-3,00
-31790,95	104,00
-31697,12	-77,00
-31603,69	55,00
-31510,67	25,00
-31418,04	-23,00
-31325,80	0,00
-31233,95	197,00
-31142,49	56,00
-31051,42	56,00
-30960,73	-12,00
-30870,43	-14,00
-30780,50	47,00
-30690,95	2,00
-30601,77	27,00
-30512,97	77,00
-30424,53	-15,00
-30336,46	-8,00
-30248,76	-6,00
-30161,42	145,00
-30074,44	-15,00
-29987,81	-12,00
-29901,55	15,00
-29815,63	-25,00
-29730,07	31,00
-29644,86	28,00
-29560,00	-131,00
-29475,48	35,00
-29391,30	57,00
-29307,47	0,00
-29223,97	-24,00
-29140,81	56,00
-29057,99	69,00
-28975,50	26,00
-28893,34	79,00
-28811,51	-68,00
-28730,00	115,00
-28648,82	4,00
-28567,97	-1,00
-28487,43	-7,00
-28407,21	2,00
-28327,32	52,00
-28247,73	-80,00
-28168,46	70,00
-28089,50	-15,00
-28010,85	-121,00
-27932,51	64,00
-27854,48	76,00
-27776,75	17,00
-27699,32	49,00
-27622,19	71,00
-27545,37	-35,00
-27468,84	112,00
-27392,60	-44,00
-27316,66	17,00
-27241,01	109,00
-27165,66	-16,00
-27090,59	-22,00
-27015,81	54,00
-26941,31	22,00
-26867,10	-15,00
-26793,17	-115,00
-26719,52	-65,00
-26646,15	-43,00
-26573,06	-17,00
-26500,24	26,00
-26427,70	42,00
-26355,43	-10,00
-26283,43	-51,00
-26211,71	42,00
-26140,25	84,00
-26069,06	71,00
-25998,13	41,00
-25927,46	-41,00
-25857,06	72,00
-25786,92	47,00
-25717,04	42,00
-25647,42	27,00
-25578,05	-11,00
-25508,94	71,00
-25440,09	-25,00
-25371,48	7,00
-25303,13	52,00
-25235,02	-22,00
-25167,17	27,00
-25099,56	-62,00
-25032,19	71,00
-24965,07	-9,00
-24898,20	-38,00
-24831,56	-24,00
-24765,17	72,00
-24699,01	53,00
-24633,10	-79,00
-24567,41	78,00
-24501,97	45,00
-24436,75	-20,00
-24371,77	-10,00
-24307,03	16,00
-24242,51	99,00
-24178,22	-60,00
-24114,16	28,00
-24050,32	42,00
-23986,71	138,00
-23923,32	17,00
-23860,16	-89,00
-23797,22	47,00
-23734,50	-44,00
-23672,00	-77,00
-23609,71	42,00
-23547,65	39,00
-23485,80	-14,00
-23424,16	1,00
-23362,74	-68,00
-23301,53	-76,00
-23240,54	-81,00
-23179,75	25,00
-23119,17	-18,00
-23058,80	119,00
-22998,64	25,00
-22938,68	45,00
-22878,93	51,00
-22819,39	88,00
-22760,04	42,00
-22700,90	-19,00
-22641,96	-48,00
-22583,22	31,00
-22524,68	9,00
-22466,33	119,00
-22408,19	-6,00
-22350,23	-1,00
-22292,48	77,00
-22234,92	14,00
-22177,55	120,00
-22120,37	2,00
-22063,38	109,00
-22006,58	21,00
-21949,98	-109,00
-21893,56	68,00
-21837,33	-77,00
-21781,28	-10,00
-21725,42	23,00
-21669,74	33,00
-21614,25	71,00
-21558,94	-49,00
-21503,81	98,00
-21448,86	-83,00
-21394,10	86,00
-21339,51	38,00
-21285,10	57,00
-21230,86	13,00
-21176,81	26,00
-21122,93	57,00
-21069,22	59,00
-21015,69	-88,00
-20962,33	133,00
-20909,14	-1,00
-20856,13	-38,00
-20803,28	10,00
-20750,61	27,00
-20698,10	-17,00
-20645,76	49,00
-20593,59	55,00
-20541,59	3,00
-20489,75	59,00
-20438,07	106,00
-20386,56	-129,00
-20335,22	5,00
-20284,03	-47,00
-20233,01	43,00
-20182,15	-19,00
-20131,45	-19,00
-20080,91	-26,00
-20030,52	-55,00
-19980,30	2,00
-19930,23	-65,00
-19880,32	66,00
-19830,56	-9,00
-19780,96	-10,00
-19731,52	22,00
-19682,23	27,00
-19633,09	12,00
-19584,10	-16,00
-19535,26	87,00
-19486,58	90,00
-19438,04	-68,00
-19389,66	-11,00
-19341,42	-28,00
-19293,33	76,00
-19245,39	23,00
-19197,60	99,00
-19149,95	-88,00
-19102,45	34,00
-19055,09	94,00
-19007,87	42,00
-18960,80	209,00
-18913,87	-32,00
-18867,09	0,00
-18820,44	-5,00
-18773,94	-29,00
-18727,57	-28,00
-18681,35	71,00
-18635,26	-29,00
-18589,31	27,00
-18543,50	-115,00
-18497,83	-69,00
-18452,29	-6,00
-18406,89	26,00
-18361,63	52,00
-18316,50	49,00
-18271,50	119,00
-18226,63	10,00
-18181,90	-12,00
-18137,30	153,00
-18092,84	-116,00
-18048,50	80,00
-18004,29	-8,00
-17960,22	-45,00
-17916,27	82,00
-17872,45	63,00
-17828,76	94,00
-17785,20	-97,00
-17741,77	-32,00
-17698,46	75,00
-17655,28	40,00
-17612,22	31,00
-17569,29	50,00
-17526,48	39,00
-17483,79	94,00
-17441,23	89,00
-17398,79	10,00
-17356,48	40,00
-17314,28	10,00
-17272,21	6,00
-17230,26	57,00
-17188,42	41,00
-17146,71	-88,00
-17105,12	-10,00
-17063,64	-75,00
-17022,28	156,00
-16981,04	60,00
-16939,92	-57,00
-16898,91	63,00
-16858,02	33,00
-16817,25	83,00
-16776,59	117,00
-16736,04	-71,00
-16695,61	-13,00
-16655,29	-8,00
-16615,09	-20,00
-16574,99	88,00
-16535,01	20,00
-16495,15	67,00
-16455,39	51,00
-16415,74	-44,00
-16376,21	38,00
-16336,78	-9,00
-16297,46	16,00
-16258,26	-68,00
-16219,16	-20,00
-16180,17	74,00
-16141,28	54,00
-16102,51	-32,00
-16063,84	53,00
-16025,27	51,00
-15986,82	185,00
-15948,46	-105,00
-15910,22	42,00
-15872,07	25,00
-15834,04	119,00
-15796,10	16,00
-15758,27	176,00
-15720,54	38,00
-15682,91	-75,00
-15645,39	-40,00
-15607,97	-57,00
-15570,64	4,00
-15533,42	-6,00
-15496,30	20,00
-15459,28	100,00
-15422,36	56,00
-15385,54	23,00
-15348,82	-16,00
-15312,19	-132,00
-15275,66	27,00
-15239,23	162,00
-15202,90	-21,00
-15166,67	-19,00
-15130,53	36,00
-15094,48	-17,00
-15058,54	19,00
-15022,68	100,00
-14986,93	131,00
-14951,26	39,00
-14915,69	16,00
-14880,22	108,00
-14844,84	-12,00
-14809,55	91,00
-14774,35	53,00
-14739,25	-60,00
-14704,24	18,00
-14669,32	-178,00
-14634,49	112,00
-14599,75	46,00
-14565,10	-17,00
-14530,55	-29,00
-14496,08	24,00
-14461,70	33,00
-14427,41	5,00
-14393,21	-5,00
-14359,10	-53,00
-14325,07	-134,00
-14291,14	8,00
-14257,29	-7,00
-14223,52	9,00
-14189,85	31,00
-14156,26	29,00
-14122,76	74,00
-14089,34	-3,00
-14056,01	63,00
-14022,76	115,00
-13989,60	-127,00
-13956,52	66,00
-13923,53	-66,00
-13890,62	113,00
-13857,79	-7,00
-13825,05	22,00
-13792,39	-50,00
-13759,81	31,00
-13727,31	-24,00
-13694,90	64,00
-13662,57	45,00
-13630,31	70,00
-13598,14	-132,00
-13566,05	13,00
-13534,05	49,00
-13502,12	-51,00
-13470,27	55,00
-13438,50	41,00
-13406,80	-128,00
-13375,19	99,00
-13343,66	-32,00
-13312,20	-16,00
-13280,83	7,00
-13249,53	58,00
-13218,30	42,00
-13187,16	11,00
-13156,09	10,00
-13125,10	21,00
-13094,18	116,00
-13063,34	-14,00
-13032,58	-35,00
-13001,89	35,00
-12971,28	-90,00
-12940,74	123,00
-12910,27	-34,00
-12879,88	-15,00
-12849,57	30,00
-12819,33	-28,00
-12789,16	-36,00
-12759,06	62,00
-12729,04	109,00
-12699,09	-1245,00
-12669,21	-15,00
-12639,41	14,00
-12609,68	-19,00
-12580,02	50,00
-12550,43	-32,00
-12520,91	42,00
-12491,46	-81,00
-12462,08	-43,00
-12432,77	-48,00
-12403,54	-10,00
-12374,37	86,00
-12345,27	-58,00
-12316,24	82,00
-12287,29	-56,00
-12258,40	23,00
-12229,57	104,00
-12200,82	36,00
-12172,14	-52,00
-12143,52	71,00
-12114,97	38,00
-12086,49	-10,00
-12058,07	53,00
-12029,73	30,00
-12001,44	17,00
-11973,23	34,00
-11945,08	-42,00
-11917,00	2,00
-11888,98	24,00
-11861,03	31,00
-11833,15	-24,00
-11805,32	47,00
-11777,57	39,00
-11749,88	57,00
-11722,25	42,00
-11694,69	114,00
-11667,19	57,00
-11639,75	111,00
-11612,38	-37,00
-11585,07	-7,00
-11557,83	88,00
-11530,65	37,00
-11503,53	77,00
-11476,47	19,00
-11449,48	8,00
-11422,54	-2,00
-11395,67	-85,00
-11368,86	-9,00
-11342,11	-2,00
-11315,43	54,00
-11288,80	-30,00
-11262,23	-16,00
-11235,73	24,00
-11209,28	-95,00
-11182,90	143,00
-11156,57	-24,00
-11130,31	111,00
-11104,10	-78,00
-11077,96	23,00
-11051,87	32,00
-11025,84	36,00
-10999,87	25,00
-10973,96	38,00
-10948,11	9,00
-10922,31	-44,00
-10896,58	4,00
-10870,90	-48,00
-10845,28	49,00
-10819,71	-3,00
-10794,20	24,00
-10768,75	0,00
-10743,36	-34,00
-10718,02	-2,00
-10692,74	-2,00
-10667,52	24,00
-10642,35	108,00
-10617,24	25,00
-10592,18	11,00
-10567,18	81,00
-10542,23	53,00
-10517,34	148,00
-10492,51	40,00
-10467,72	42,00
-10443,00	83,00
-10418,32	59,00
-10393,70	-17,00
-10369,14	-8,00
-10344,63	1,00
-10320,17	143,00
-10295,77	89,00
-10271,42	56,00
-10247,12	76,00
-10222,88	-18,00
-10198,68	67,00
-10174,54	58,00
-10150,46	43,00
-10126,42	-30,00
-10102,44	112,00
-10078,51	168,00
-10054,63	28,00
-10030,80	98,00
-10007,03	83,00
-9983,30	43,00
-9959,63	32,00
-9936,01	183,00
-9912,44	102,00
-9888,92	26,00
-9865,44	66,00
-9842,02	55,00
-9818,65	112,00
-9795,33	173,00
-9772,06	103,00
-9748,84	148,00
-9725,67	105,00
-9702,55	120,00
-9679,47	226,00
-9656,45	188,00
-9633,47	351,00
-9610,55	355,00
-9587,67	168,00
-9564,84	294,00
-9542,06	213,00
-9519,32	344,00
-9496,64	397,00
-9474,00	341,00
-9451,41	360,00
-9428,87	254,00
-9406,37	329,00
-9383,92	347,00
-9361,52	228,00
-9339,17	144,00
-9316,86	316,00
-9294,60	509,00
-9272,38	451,00
-9250,21	542,00
-9228,09	632,00
-9206,01	558,00
-9183,98	398,00
-9162,00	386,00
-9140,06	366,00
-9118,16	359,00
-9096,31	482,00
-9074,51	595,00
-9052,75	392,00
-9031,04	494,00
-9009,37	474,00
-8987,74	360,00
-8966,16	203,00
-8944,63	216,00
-8923,14	138,00
-8901,69	193,00
-8880,29	412,00
-8858,93	510,00
-8837,61	496,00
-8816,34	616,00
-8795,11	580,00
-8773,92	524,00
-8752,78	341,00
-8731,68	430,00
-8710,62	239,00
-8689,61	494,00
-8668,63	489,00
-8647,70	453,00
-8626,82	506,00
-8605,97	502,00
-8585,17	431,00
-8564,41	394,00
-8543,69	354,00
-8523,01	247,00
-8502,37	353,00
-8481,78	452,00
-8461,23	565,00
-8440,71	590,00
-8420,24	551,00
-8399,81	697,00
-8379,42	533,00
-8359,08	483,00
-8338,77	519,00
-8318,50	460,00
-8298,27	415,00
-8278,09	451,00
-8257,94	567,00
-8237,83	543,00
-8217,76	591,00
-8197,74	630,00
-8177,75	527,00
-8157,80	505,00
-8137,89	539,00
-8118,02	467,00
-8098,19	389,00
-8078,40	483,00
-8058,65	438,00
-8038,93	616,00
-8019,26	486,00
-7999,62	411,00
-7980,02	348,00
-7960,46	417,00
-7940,94	388,00
-7921,46	278,00
-7902,01	393,00
-7882,60	371,00
-7863,23	521,00
-7843,90	404,00
-7824,61	380,00
-7805,35	454,00
-7786,13	511,00
-7766,95	498,00
-7747,80	522,00
-7728,69	419,00
-7709,62	360,00
-7690,59	493,00
-7671,59	561,00
-7652,63	638,00
-7633,70	556,00
-7614,81	445,00
-7595,96	459,00
-7577,15	366,00
-7558,37	398,00
-7539,62	354,00
-7520,91	507,00
-7502,24	427,00
-7483,60	423,00
-7465,00	409,00
-7446,44	355,00
-7427,91	298,00
-7409,41	268,00
-7390,95	254,00
-7372,53	188,00
-7354,14	177,00
-7335,78	92,00
-7317,46	286,00
-7299,18	310,00
-7280,92	473,00
-7262,71	399,00
-7244,52	488,00
-7226,38	449,00
-7208,26	587,00
-7190,18	404,00
-7172,14	460,00
-7154,12	320,00
-7136,15	330,00
-7118,20	387,00
-7100,29	327,00
-7082,41	417,00
-7064,57	343,00
-7046,76	313,00
-7028,98	227,00
-7011,24	268,00
-6993,53	104,00
-6975,85	121,00
-6958,20	91,00
-6940,59	105,00
-6923,01	94,00
-6905,46	106,00
-6887,94	250,00
-6870,46	-1106,00
-6853,01	317,00
-6835,59	307,00
-6818,21	284,00
-6800,85	290,00
-6783,53	133,00
-6766,24	-50,00
-6748,98	-110,00
-6731,76	-99,00
-6714,56	-122,00
-6697,40	51,00
-6680,26	-8,00
-6663,16	116,00
-6646,09	100,00
-6629,05	224,00
-6612,05	241,00
-6595,07	340,00
-6578,13	185,00
-6561,21	175,00
-6544,33	45,00
-6527,47	-22,00
-6510,65	-63,00
-6493,86	-51,00
-6477,10	-57,00
-6460,36	26,00
-6443,66	-51,00
-6426,99	25,00
-6410,35	14,00
-6393,74	-34,00
-6377,16	188,00
-6360,61	33,00
-6344,09	107,00
-6327,59	149,00
-6311,13	166,00
-6294,70	20,00
-6278,29	343,00
-6261,92	343,00
-6245,58	289,00
-6229,26	211,00
-6212,97	162,00
-6196,72	108,00
-6180,49	-59,00
-6164,29	91,00
-6148,12	-64,00
-6131,98	-130,00
-6115,86	-54,00
-6099,78	-154,00
-6083,72	-91,00
-6067,69	-113,00
-6051,69	-99,00
-6035,72	104,00
-6019,78	78,00
-6003,87	21,00
-5987,98	181,00
-5972,12	203,00
-5956,29	103,00
-5940,49	185,00
-5924,71	140,00
-5908,96	-27,00
-5893,24	-5,00
-5877,55	-21,00
-5861,89	-66,00
-5846,25	-4,00
-5830,64	-2,00
-5815,05	-90,00
-5799,50	-25,00
-5783,97	2,00
-5768,47	60,00
-5752,99	57,00
-5737,55	67,00
-5722,12	158,00
-5706,73	222,00
-5691,36	146,00
-5676,02	21,00
-5660,71	84,00
-5645,42	47,00
-5630,16	30,00
-5614,92	24,00
-5599,71	80,00
-5584,53	-117,00
-5569,37	114,00
-5554,24	1036,00
-5539,14	84,00
-5524,06	14,00
-5509,01	102,00
-5493,98	-12,00
-5478,98	-30,00
-5464,00	87,00
-5449,05	34,00
-5434,13	54,00
-5419,23	-87,00
-5404,36	-36,00
-5389,51	269,00
-5374,69	108,00
-5359,89	99,00
-5345,12	176,00
-5330,37	268,00
-5315,65	138,00
-5300,95	198,00
-5286,28	108,00
-5271,63	161,00
-5257,01	-9,00
-5242,41	60,00
-5227,84	-105,00
-5213,29	-32,00
-5198,76	-31,00
-5184,26	100,00
-5169,79	59,00
-5155,33	47,00
-5140,91	-8,00
-5126,51	39,00
-5112,13	80,00
-5097,77	114,00
-5083,44	-18,00
-5069,13	-54,00
-5054,85	-11,00
-5040,59	-27,00
-5026,36	-13,00
-5012,15	-30,00
-4997,96	32,00
-4983,80	-94,00
-4969,66	66,00
-4955,54	51,00
-4941,44	127,00
-4927,37	126,00
-4913,33	252,00
-4899,30	254,00
-4885,30	312,00
-4871,33	199,00
-4857,37	85,00
-4843,44	91,00
-4829,53	58,00
-4815,65	79,00
-4801,79	58,00
-4787,95	-50,00
-4774,13	66,00
-4760,34	105,00
-4746,56	-65,00
-4732,82	-125,00
-4719,09	95,00
-4705,38	99,00
-4691,70	205,00
-4678,04	60,00
-4664,41	178,00
-4650,79	44,00
-4637,20	101,00
-4623,63	-7,00
-4610,08	72,00
-4596,56	-98,00
-4583,05	141,00
-4569,57	29,00
-4556,11	133,00
-4542,67	7,00
-4529,25	47,00
-4515,86	15,00
-4502,49	159,00
-4489,13	139,00
-4475,80	134,00
-4462,49	106,00
-4449,21	46,00
-4435,94	104,00
-4422,70	137,00
-4409,47	62,00
-4396,27	128,00
-4383,09	23,00
-4369,93	-53,00
-4356,79	46,00
-4343,67	22,00
-4330,58	-19,00
-4317,50	68,00
-4304,45	85,00
-4291,41	-71,00
-4278,40	-75,00
-4265,41	-29,00
-4252,44	-22,00
-4239,49	82,00
-4226,55	116,00
-4213,65	92,00
-4200,76	-1,00
-4187,89	47,00
-4175,04	-14,00
-4162,21	47,00
-4149,40	32,00
-4136,61	145,00
-4123,85	-15,00
-4111,10	-22,00
-4098,37	8,00
-4085,66	97,00
-4072,98	74,00
-4060,31	47,00
-4047,66	57,00
-4035,04	-15,00
-4022,43	53,00
-4009,84	145,00
-3997,27	-36,00
-3984,72	46,00
-3972,19	-40,00
-3959,69	-6,00
-3947,20	124,00
-3934,73	-82,00
-3922,27	82,00
-3909,84	9,00
-3897,43	56,00
-3885,04	-30,00
-3872,67	-94,00
-3860,31	-116,00
-3847,98	120,00
-3835,66	-82,00
-3823,36	39,00
-3811,09	-13,00
-3798,83	-13,00
-3786,59	15,00
-3774,37	82,00
-3762,17	36,00
-3749,98	52,00
-3737,82	-31,00
-3725,67	-64,00
-3713,55	-2,00
-3701,44	87,00
-3689,35	-59,00
-3677,28	-61,00
-3665,22	-62,00
-3653,19	-64,00
-3641,17	41,00
-3629,18	29,00
-3617,20	109,00
-3605,24	80,00
-3593,30	-92,00
-3581,37	-18,00
-3569,47	7,00
-3557,58	-24,00
-3545,71	66,00
-3533,86	92,00
-3522,02	-98,00
-3510,21	85,00
-3498,41	-8,00
-3486,63	100,00
-3474,87	59,00
-3463,12	210,00
-3451,40	50,00
-3439,69	76,00
-3428,00	197,00
-3416,33	16,00
-3404,67	49,00
-3393,03	51,00
-3381,41	61,00
-3369,81	-93,00
-3358,22	136,00
-3346,66	150,00
-3335,10	-49,00
-3323,57	52,00
-3312,06	104,00
-3300,56	8,00
-3289,08	35,00
-3277,61	86,00
-3266,16	-2,00
-3254,73	97,00
-3243,32	51,00
-3231,92	-73,00
-3220,55	-44,00
-3209,18	-34,00
-3197,84	7,00
-3186,51	61,00
-3175,20	13,00
-3163,90	-30,00
-3152,63	-42,00
-3141,36	52,00
-3130,12	212,00
-3118,89	-31,00
-3107,68	87,00
-3096,49	11,00
-3085,31	32,00
-3074,15	-26,00
-3063,00	-21,00
-3051,87	51,00
-3040,76	67,00
-3029,67	-88,00
-3018,59	-122,00
-3007,52	124,00
-2996,48	-72,00
-2985,44	60,00
-2974,43	10,00
-2963,43	39,00
-2952,45	6,00
-2941,48	89,00
-2930,53	-94,00
-2919,60	-43,00
-2908,68	78,00
-2897,78	26,00
-2886,89	-32,00
-2876,02	-7,00
-2865,17	123,00
-2854,33	12,00
-2843,50	-5,00
-2832,70	47,00
-2821,90	-25,00
-2811,13	42,00
-2800,37	-111,00
-2789,62	20,00
-2778,89	97,00
-2768,18	27,00
-2757,48	-1,00
-2746,80	-28,00
-2736,13	-49,00
-2725,48	83,00
-2714,84	-29,00
-2704,22	95,00
-2693,61	-16,00
-2683,02	-15,00
-2672,45	139,00
-2661,89	-58,00
-2651,34	-122,00
-2640,81	-37,00
-2630,30	124,00
-2619,80	170,00
-2609,31	76,00
-2598,84	-98,00
-2588,39	-55,00
-2577,95	69,00
-2567,52	51,00
-2557,11	-58,00
-2546,71	58,00
-2536,33	39,00
-2525,97	-51,00
-2515,62	-22,00
-2505,28	26,00
-2494,96	5,00
-2484,65	56,00
-2474,36	-38,00
-2464,08	108,00
-2453,82	-1,00
-2443,57	70,00
-2433,33	17,00
-2423,11	95,00
-2412,91	-14,00
-2402,72	48,00
-2392,54	68,00
-2382,38	17,00
-2372,23	13,00
-2362,09	-4357,00
-2351,97	113,00
-2341,87	-38,00
-2331,78	-50,00
-2321,70	-203,00
-2311,64	46,00
-2301,59	18,00
-2291,55	-31,00
-2281,53	-95,00
-2271,53	-70,00
-2261,53	95,00
-2251,55	-11,00
-2241,59	108,00
-2231,64	-22,00
-2221,70	-21,00
-2211,78	3,00
-2201,87	101,00
-2191,97	35,00
-2182,09	12,00
-2172,22	59,00
-2162,37	-1,00
-2152,53	9,00
-2142,70	-14,00
-2132,89	49,00
-2123,09	-36,00
-2113,30	54,00
-2103,53	75,00
-2093,77	-34,00
-2084,02	-26,00
-2074,29	48,00
-2064,57	37,00
-2054,86	62,00
-2045,17	-1,00
-2035,49	73,00
-2025,82	27,00
-2016,17	4,00
-2006,53	-53,00
-1996,91	-98,00
-1987,29	-13,00
-1977,69	-10,00
-1968,11	-14,00
-1958,53	0,00
-1948,97	-19,00
-1939,42	125,00
-1929,89	32,00
-1920,37	60,00
-1910,86	55,00
-1901,36	-74,00
-1891,88	-5,00
-1882,41	7,00
-1872,95	5,00
-1863,51	-52,00
-1854,08	68,00
-1844,66	104,00
-1835,26	-4,00
-1825,86	-26,00
-1816,48	-37,00
-1807,11	-26,00
-1797,76	44,00
-1788,42	7,00
-1779,09	-49,00
-1769,77	-25,00
-1760,47	-59,00
-1751,17	-84,00
-1741,89	-74,00
-1732,63	-69,00
-1723,37	176,00
-1714,13	22,00
-1704,90	-17,00
-1695,68	-16,00
-1686,48	5,00
-1677,29	159,00
-1668,11	139,00
-1658,94	-55,00
-1649,78	-30,00
-1640,64	117,00
-1631,51	46,00
-1622,39	21,00
-1613,28	93,00
-1604,19	-75,00
-1595,10	41,00
-1586,03	49,00
-1576,97	-85,00
-1567,93	69,00
-1558,89	-126,00
-1549,87	-75,00
-1540,86	-19,00
-1531,86	79,00
-1522,87	42,00
-1513,90	53,00
-1504,93	18,00
-1495,98	-1,00
-1487,04	87,00
-1478,12	83,00
-1469,20	-64,00
-1460,30	31,00
-1451,40	-42,00
-1442,52	113,00
-1433,65	8,00
-1424,80	39,00
-1415,95	0,00
-1407,12	7,00
-1398,30	33,00
-1389,48	43,00
-1380,69	-10,00
-1371,90	46,00
-1363,12	105,00
-1354,36	-17,00
-1345,60	-10,00
-1336,86	-56,00
-1328,13	106,00
-1319,41	-84,00
-1310,70	24,00
-1302,01	121,00
-1293,32	-79,00
-1284,65	133,00
-1275,99	34,00
-1267,33	-10,00
-1258,69	68,00
-1250,06	62,00
-1241,45	-2,00
-1232,84	-40,00
-1224,25	34,00
-1215,66	97,00
-1207,09	30,00
-1198,53	69,00
-1189,97	88,00
-1181,43	-40,00
-1172,91	45,00
-1164,39	95,00
-1155,88	51,00
-1147,38	-67,00
-1138,90	16,00
-1130,43	24,00
-1121,96	112,00
-1113,51	124,00
-1105,07	24,00
-1096,64	-56,00
-1088,22	37,00
-1079,81	63,00
-1071,41	-20,00
-1063,02	-55,00
-1054,65	56,00
-1046,28	-54,00
-1037,92	17,00
-1029,58	120,00
-1021,24	39,00
-1012,92	102,00
-1004,61	-16,00
-996,30	124,00
-988,01	-115,00
-979,73	-47,00
-971,46	38,00
-963,20	-149,00
-954,95	-9,00
-946,71	-16,00
-938,48	34,00
-930,26	-2,00
-922,06	-39,00
-913,86	1,00
-905,67	-26,00
-897,49	-57,00
-889,33	83,00
-881,17	-30,00
-873,02	-78,00
-864,89	134,00
-856,76	2,00
-848,65	83,00
-840,54	43,00
-832,45	-158,00
-824,36	47,00
-816,29	139,00
-808,22	-11,00
-800,17	-130,00
-792,12	34,00
-784,09	22,00
-776,06	-35,00
-768,05	85,00
-760,04	-37,00
-752,05	63,00
-744,07	-27,00
-736,09	-43,00
-728,13	-55,00
-720,17	40,00
-712,23	36,00
-704,29	25,00
-696,37	47,00
-688,45	38,00
-680,55	35,00
-672,65	-45,00
-664,77	109,00
-656,89	-48,00
-649,03	40,00
-641,17	-54,00
-633,32	9,00
-625,49	36,00
-617,66	-69,00
-609,84	-63,00
-602,03	49,00
-594,23	96,00
-586,45	38,00
-578,67	13,00
-570,90	-4,00
-563,14	35,00
-555,39	76,00
-547,65	40,00
-539,91	41,00
-532,19	70,00
-524,48	13,00
-516,78	72,00
-509,08	19,00
-501,40	35,00
-493,72	18,00
-486,06	53,00
-478,40	5,00
-470,76	57,00
-463,12	158,00
-455,49	68,00
-447,87	82,00
-440,26	78,00
-432,66	-65,00
-425,07	-4,00
-417,49	42,00
-409,92	38,00
-402,35	203,00
-394,80	96,00
-387,25	2,00
-379,72	25,00
-372,19	-10,00
-364,67	116,00
-357,17	28,00
-349,67	46,00
-342,18	31,00
-334,69	-118,00
-327,22	-45,00
-319,76	30,00
-312,30	108,00
-304,86	182,00
-297,42	87,00
-290,00	22,00
-282,58	35,00
-275,17	137,00
-267,77	13,00
-260,37	83,00
-252,99	135,00
-245,62	85,00
-238,25	54,00
-230,90	86,00
-223,55	-44,00
-216,21	182,00
-208,88	105,00
-201,56	192,00
-194,25	221,00
-186,94	163,00
-179,65	199,00
-172,36	287,00
-165,08	314,00
-157,81	238,00
-150,55	292,00
-143,30	307,00
-136,06	509,00
-128,82	422,00
-121,60	531,00
-114,38	593,00
-107,17	686,00
-99,97	728,00
-92,78	720,00
-85,60	829,00
-78,42	1102,00
-71,25	1289,00
-64,10	1493,00
-56,95	1637,00
-49,81	2019,00
-42,67	2311,00
-35,55	3076,00
-28,43	4159,00
-21,33	6930,00
-14,23	23321,00
-7,14	55164,00
-0,05	54791,00
7,02	54542,00
14,09	54846,00
21,14	20954,00
28,19	8734,00
35,23	5379,00
42,27	4060,00
49,29	3368,00
56,31	2777,00
63,32	2407,00
70,32	1767,00
77,31	1617,00
84,29	1411,00
91,27	1217,00
98,23	1108,00
105,19	969,00
112,14	1134,00
119,09	1362,00
126,02	1851,00
132,95	2123,00
139,87	2214,00
146,78	2077,00
153,68	1937,00
160,58	1951,00
167,46	1920,00
174,34	1897,00
181,21	1999,00
188,08	1903,00
194,93	1783,00
201,78	1782,00
208,62	1785,00
215,45	1842,00
222,27	1878,00
229,09	1712,00
235,90	1751,00
242,70	1709,00
249,49	1700,00
256,27	1660,00
263,05	1706,00
269,82	1696,00
276,58	1566,00
283,33	1703,00
290,08	1592,00
296,82	1642,00
303,55	1496,00
310,27	1490,00
316,98	1525,00
323,69	1602,00
330,39	1488,00
337,08	1503,00
343,76	1452,00
350,44	1539,00
357,11	1455,00
363,77	1491,00
370,42	1446,00
377,07	1501,00
383,71	1516,00
390,34	1407,00
396,96	1467,00
403,58	1361,00
410,19	1551,00
416,79	1398,00
423,38	1527,00
429,97	1382,00
436,55	1442,00
443,12	1418,00
449,68	1225,00
456,24	1298,00
462,79	1143,00
469,33	1190,00
475,86	1286,00
482,39	1296,00
488,91	1245,00
495,42	1287,00
501,93	1238,00
508,42	1198,00
514,91	1241,00
521,40	1271,00
527,87	1148,00
534,34	1098,00
540,80	1111,00
547,25	1040,00
553,70	1146,00
560,14	1080,00
566,57	1200,00
573,00	1183,00
579,41	1159,00
585,83	913,00
592,23	967,00
598,62	1121,00
605,01	1051,00
611,40	1216,00
617,77	1167,00
624,14	1033,00
630,50	1126,00
636,85	1030,00
643,20	1094,00
649,54	1119,00
655,87	936,00
662,20	927,00
668,52	957,00
674,83	1077,00
681,13	941,00
687,43	881,00
693,72	896,00
700,00	986,00
706,28	943,00
712,55	970,00
718,81	1064,00
725,07	854,00
731,32	996,00
737,56	903,00
743,79	945,00
750,02	999,00
756,24	1002,00
762,46	982,00
768,67	918,00
774,87	902,00
781,06	866,00
787,25	934,00
793,43	996,00
799,60	965,00
805,77	810,00
811,93	1036,00
818,08	918,00
824,23	1017,00
830,37	957,00
836,50	928,00
842,63	954,00
848,75	960,00
854,87	844,00
860,97	979,00
867,07	1032,00
873,17	978,00
879,25	950,00
885,33	904,00
891,41	912,00
897,47	918,00
903,53	980,00
909,59	936,00
915,63	847,00
921,67	753,00
927,71	782,00
933,74	791,00
939,76	768,00
945,77	692,00
951,78	731,00
957,78	745,00
963,78	788,00
969,77	736,00
975,75	762,00
981,72	765,00
987,69	1058,00
993,66	735,00
999,61	739,00
1005,56	769,00
1011,51	818,00
1017,44	850,00
1023,37	838,00
1029,30	778,00
1035,22	904,00
1041,13	924,00
1047,03	763,00
1052,93	836,00
1058,83	994,00
1064,71	1111,00
1070,59	976,00
1076,47	955,00
1082,33	919,00
1088,20	812,00
1094,05	808,00
1099,90	734,00
1105,74	709,00
1111,58	736,00
1117,41	827,00
1123,23	1076,00
1129,05	1050,00
1134,86	1094,00
1140,67	828,00
1146,47	908,00
1152,26	724,00
1158,05	701,00
1163,83	731,00
1169,60	756,00
1175,37	685,00
1181,13	727,00
1186,89	783,00
1192,64	741,00
1198,38	746,00
1204,12	666,00
1209,85	744,00
1215,58	739,00
1221,30	696,00
1227,02	778,00
1232,72	753,00
1238,43	705,00
1244,12	771,00
1249,81	705,00
1255,50	794,00
1261,17	711,00
1266,85	841,00
1272,51	766,00
1278,17	871,00
1283,83	820,00
1289,47	1136,00
1295,12	1295,00
1300,75	1151,00
1306,38	1017,00
1312,01	966,00
1317,63	891,00
1323,24	800,00
1328,85	928,00
1334,45	830,00
1340,04	774,00
1345,63	812,00
1351,22	829,00
1356,80	774,00
1362,37	810,00
1367,93	821,00
1373,49	902,00
1379,05	810,00
1384,60	868,00
1390,14	758,00
1395,68	789,00
1401,21	662,00
1406,74	831,00
1412,26	937,00
1417,77	743,00
1423,28	1044,00
1428,78	1050,00
1434,28	1225,00
1439,77	1319,00
1445,26	1273,00
1450,74	1381,00
1456,22	1129,00
1461,68	1172,00
1467,15	1116,00
1472,61	897,00
1478,06	858,00
1483,51	855,00
1488,95	865,00
1494,38	641,00
1499,81	696,00
1505,24	738,00
1510,65	729,00
1516,07	771,00
1521,48	686,00
1526,88	618,00
1532,27	634,00
1537,67	653,00
1543,05	750,00
1548,43	720,00
1553,81	742,00
1559,18	755,00
1564,54	636,00
1569,90	637,00
1575,25	600,00
1580,60	635,00
1585,94	565,00
1591,28	618,00
1596,61	671,00
1601,93	643,00
1607,25	555,00
1612,57	670,00
1617,88	743,00
1623,18	637,00
1628,48	586,00
1633,77	580,00
1639,06	546,00
1644,34	625,00
1649,62	603,00
1654,89	685,00
1660,16	532,00
1665,42	541,00
1670,67	570,00
1675,92	479,00
1681,17	562,00
1686,41	563,00
1691,64	480,00
1696,87	523,00
1702,10	544,00
1707,32	523,00
1712,53	579,00
1717,74	540,00
1722,94	474,00
1728,14	501,00
1733,33	565,00
1738,52	469,00
1743,70	539,00
1748,88	491,00
1754,05	590,00
1759,22	514,00
1764,38	-1096,00
1769,53	443,00
1774,69	471,00
1779,83	510,00
1784,97	436,00
1790,11	420,00
1795,24	573,00
1800,36	519,00
1805,48	415,00
1810,60	522,00
1815,71	435,00
1820,82	414,00
1825,92	399,00
1831,01	515,00
1836,10	252,00
1841,19	391,00
1846,26	428,00
1851,34	491,00
1856,41	370,00
1861,47	418,00
1866,53	432,00
1871,59	323,00
1876,64	326,00
1881,68	302,00
1886,72	388,00
1891,76	447,00
1896,79	471,00
1901,81	461,00
1906,83	425,00
1911,85	310,00
1916,86	427,00
1921,86	505,00
1926,86	447,00
1931,86	408,00
1936,85	282,00
1941,83	416,00
1946,81	369,00
1951,79	330,00
1956,76	323,00
1961,72	247,00
1966,68	396,00
1971,64	328,00
1976,59	372,00
1981,54	282,00
1986,48	272,00
1991,42	288,00
1996,35	341,00
2001,27	323,00
2006,20	310,00
2011,11	332,00
2016,03	460,00
2020,93	286,00
2025,84	369,00
2030,73	326,00
2035,63	306,00
2040,52	410,00
2045,40	238,00
2050,28	304,00
2055,15	277,00
2060,02	320,00
2064,89	351,00
2069,75	342,00
2074,60	243,00
2079,46	343,00
2084,30	318,00
2089,14	374,00
2093,98	335,00
2098,81	384,00
2103,64	274,00
2108,46	292,00
2113,28	223,00
2118,09	243,00
2122,90	265,00
2127,70	284,00
2132,50	377,00
2137,30	290,00
2142,09	345,00
2146,87	177,00
2151,66	273,00
2156,43	297,00
2161,20	204,00
2165,97	309,00
2170,73	281,00
2175,49	323,00
2180,24	349,00
2184,99	532,00
2189,74	286,00
2194,48	236,00
2199,21	376,00
2203,94	187,00
2208,67	209,00
2213,39	235,00
2218,11	219,00
2222,82	220,00
2227,53	247,00
2232,23	248,00
2236,93	258,00
2241,63	75,00
2246,32	287,00
2251,00	225,00
2255,68	305,00
2260,36	163,00
2265,03	244,00
2269,70	180,00
2274,36	233,00
2279,02	170,00
2283,68	228,00
2288,33	157,00
2292,97	210,00
2297,61	235,00
2302,25	280,00
2306,88	212,00
2311,51	274,00
2316,14	199,00
2320,75	362,00
2325,37	173,00
2329,98	277,00
2334,59	230,00
2339,19	281,00
2343,79	162,00
2348,38	190,00
2352,97	175,00
2357,55	57,00
2362,13	157,00
2366,71	271,00
2371,28	108,00
2375,85	223,00
2380,41	155,00
2384,97	112,00
2389,52	129,00
2394,07	28,00
2398,62	105,00
2403,16	174,00
2407,70	280,00
2412,23	313,00
2416,76	217,00
2421,29	260,00
2425,81	243,00
2430,32	138,00
2434,84	146,00
2439,34	225,00
2443,85	169,00
2448,35	139,00
2452,84	131,00
2457,33	115,00
2461,82	204,00
2466,30	269,00
2470,78	319,00
2475,25	182,00
2479,72	200,00
2484,19	229,00
2488,65	286,00
2493,11	99,00
2497,56	24,00
2502,01	148,00
2506,46	178,00
2510,90	119,00
2515,34	225,00
2519,77	54,00
2524,20	220,00
2528,62	68,00
2533,04	195,00
2537,46	236,00
2541,87	183,00
2546,28	82,00
2550,68	186,00
2555,08	94,00
2559,48	179,00
2563,87	29,00
2568,26	105,00
2572,64	171,00
2577,02	195,00
2581,40	178,00
2585,77	60,00
2590,14	117,00
2594,50	122,00
2598,86	169,00
2603,22	228,00
2607,57	155,00
2611,92	142,00
2616,26	85,00
2620,60	208,00
2624,94	156,00
2629,27	268,00
2633,60	145,00
2637,92	113,00
2642,24	99,00
2646,56	103,00
2650,87	29,00
2655,18	152,00
2659,48	81,00
2663,78	175,00
2668,08	194,00
2672,37	299,00
2676,66	172,00
2680,95	214,00
2685,23	203,00
2689,50	203,00
2693,78	197,00
2698,05	120,00
2702,31	161,00
2706,57	259,00
2710,83	193,00
2715,08	193,00
2719,33	273,00
2723,58	236,00
2727,82	349,00
2732,06	168,00
2736,29	154,00
2740,53	180,00
2744,75	179,00
2748,97	222,00
2753,19	226,00
2757,41	211,00
2761,62	194,00
2765,83	139,00
2770,03	189,00
2774,23	69,00
2778,43	231,00
2782,62	106,00
2786,81	156,00
2791,00	149,00
2795,18	200,00
2799,35	133,00
2803,53	338,00
2807,70	360,00
2811,86	163,00
2816,03	385,00
2820,19	238,00
2824,34	165,00
2828,49	426,00
2832,64	555,00
2836,78	496,00
2840,92	627,00
2845,06	715,00
2849,19	688,00
2853,32	789,00
2857,45	709,00
2861,57	817,00
2865,69	875,00
2869,80	803,00
2873,91	773,00
2878,02	849,00
2882,12	796,00
2886,22	790,00
2890,32	876,00
2894,41	751,00
2898,50	751,00
2902,58	751,00
2906,67	609,00
2910,74	573,00
2914,82	474,00
2918,89	529,00
2922,96	507,00
2927,02	436,00
2931,08	491,00
2935,13	467,00
2939,19	435,00
2943,24	348,00
2947,28	254,00
2951,32	128,00
2955,36	306,00
2959,40	250,00
2963,43	282,00
2967,46	141,00
2971,48	203,00
2975,50	101,00
2979,52	182,00
2983,53	244,00
2987,54	155,00
2991,55	132,00
2995,55	133,00
2999,55	132,00
3003,54	126,00
3007,54	24,00
3011,53	55,00
3015,51	70,00
3019,49	33,00
3023,47	123,00
3027,45	144,00
3031,42	37,00
3035,39	31,00
3039,35	67,00
3043,31	91,00
3047,27	39,00
3051,22	160,00
3055,17	-35,00
3059,12	-6,00
3063,06	71,00
3067,00	22,00
3070,94	61,00
3074,87	-44,00
3078,80	178,00
3082,73	120,00
3086,65	-1,00
3090,57	105,00
3094,49	129,00
3098,40	100,00
3102,31	45,00
3106,22	52,00
3110,12	43,00
3114,02	98,00
3117,92	-45,00
3121,81	53,00
3125,70	114,00
3129,58	22,00
3133,47	35,00
3137,34	11,00
3141,22	55,00
3145,09	76,00
3148,96	123,00
3152,83	14,00
3156,69	63,00
3160,55	103,00
3164,40	81,00
3168,26	4,00
3172,10	195,00
3175,95	132,00
3179,79	64,00
3183,63	37,00
3187,47	121,00
3191,30	142,00
3195,13	106,00
3198,95	23,00
3202,78	60,00
3206,60	109,00
3210,41	22,00
3214,23	100,00
3218,03	90,00
3221,84	28,00
3225,64	-89,00
3229,44	-6,00
3233,24	179,00
3237,03	88,00
3240,82	53,00
3244,61	23,00
3248,39	-16,00
3252,17	122,00
3255,95	170,00
3259,72	187,00
3263,49	60,00
3267,26	-44,00
3271,03	-20,00
3274,79	-2,00
3278,54	131,00
3282,30	58,00
3286,05	109,00
3289,80	29,00
3293,54	-24,00
3297,29	90,00
3301,02	138,00
3304,76	52,00
3308,49	184,00
3312,22	-21,00
3315,95	142,00
3319,67	-5,00
3323,39	38,00
3327,10	7,00
3330,82	174,00
3334,53	139,00
3338,24	17,00
3341,94	40,00
3345,64	75,00
3349,34	6,00
3353,03	50,00
3356,72	68,00
3360,41	25,00
3364,10	92,00
3367,78	-9,00
3371,46	97,00
3375,13	45,00
3378,81	113,00
3382,48	51,00
3386,14	132,00
3389,81	-122,00
3393,47	46,00
3397,12	68,00
3400,78	83,00
3404,43	50,00
3408,08	-37,00
3411,72	9,00
3415,36	59,00
3419,00	-90,00
3422,64	-70,00
3426,27	55,00
3429,90	104,00
3433,53	-29,00
3437,15	2,00
3440,77	24,00
3444,39	45,00
3448,00	-71,00
3451,62	151,00
3455,22	76,00
3458,83	30,00
3462,43	99,00
3466,03	-42,00
3469,63	3,00
3473,22	45,00
3476,81	-34,00
3480,40	89,00
3483,99	38,00
3487,57	48,00
3491,15	16,00
3494,72	8,00
3498,29	28,00
3501,86	37,00
3505,43	86,00
3508,99	-10,00
3512,56	-56,00
3516,11	72,00
3519,67	59,00
3523,22	47,00
3526,77	55,00
3530,32	8,00
3533,86	17,00
3537,40	6,00
3540,94	54,00
3544,47	-127,00
3548,00	81,00
3551,53	-27,00
3555,06	65,00
3558,58	14,00
3562,10	-63,00
3565,62	81,00
3569,13	37,00
3572,64	124,00
3576,15	65,00
3579,66	93,00
3583,16	58,00
3586,66	-66,00
3590,16	16,00
3593,65	102,00
3597,14	-104,00
3600,63	129,00
3604,11	-57,00
3607,60	-62,00
3611,08	31,00
3614,55	-56,00
3618,03	-85,00
3621,50	51,00
3624,97	-5,00
3628,43	2,00
3631,90	-44,00
3635,36	57,00
3638,81	31,00
3642,27	-17,00
3645,72	104,00
3649,17	56,00
3652,61	54,00
3656,06	-95,00
3659,50	28,00
3662,93	-6,00
3666,37	-17,00
3669,80	3,00
3673,23	34,00
3676,65	109,00
3680,08	52,00
3683,50	-5,00
3686,92	38,00
3690,33	139,00
3693,74	86,00
3697,15	29,00
3700,56	93,00
3703,96	-69,00
3707,36	-103,00
3710,76	-81,00
3714,16	37,00
3717,55	-14,00
3720,94	45,00
3724,33	0,00
3727,71	32,00
3731,10	62,00
3734,48	39,00
3737,85	-109,00
3741,23	-75,00
3744,60	19,00
3747,97	-127,00
3751,33	131,00
3754,69	92,00
3758,05	57,00
3761,41	-59,00
3764,77	30,00
3768,12	-25,00
3771,47	86,00
3774,82	14,00
3778,16	-1,00
3781,50	-1,00
3784,84	1,00
3788,18	10,00
>>>>>End Processed Spectral Data<<<<<
