SpectraSuite Data File
++++++++++++++++++++++++++++++++++++
Date: Mon Mar 09 15:35:41 ICT 2026
User: Administrator
Dark Spectrum Present: Yes
Reference Spectrum Present: No
Number of Sampled Component Spectra: 1
Spectrometers: MAYP113682
Integration Time (usec): 3000000 (MAYP113682)
Spectra Averaged: 1 (MAYP113682)
Boxcar Smoothing: 0 (MAYP113682)
Correct for Electrical Dark: No (MAYP113682)
Strobe/Lamp Enabled: No (MAYP113682)
Correct for Detector Non-linearity: No (MAYP113682)
Correct for Stray Light: No (MAYP113682)
Number of Pixels in Processed Spectrum: 2068
>>>>>Begin Processed Spectral Data<<<<<
-37534,58	10,00
-37414,56	-4,00
-37295,11	3,00
-37176,24	6,00
-37057,95	216,00
-36940,22	74,00
-36823,05	146,00
-36706,45	155,00
-36590,40	147,00
-36474,90	123,00
-36359,95	196,00
-36245,55	265,00
-36131,68	36,00
-36018,35	161,00
-35905,55	186,00
-35793,29	106,00
-35681,54	262,00
-35570,32	171,00
-35459,62	155,00
-35349,43	95,00
-35239,75	104,00
-35130,58	186,00
-35021,91	136,00
-34913,74	132,00
-34806,07	177,00
-34698,89	129,00
-34592,20	62,00
-34486,00	227,00
-34380,28	47,00
-34275,04	158,00
-34170,27	160,00
-34065,98	97,00
-33962,16	327,00
-33858,81	212,00
-33755,92	144,00
-33653,49	207,00
-33551,52	155,00
-33450,01	268,00
-33348,94	120,00
-33248,33	151,00
-33148,16	152,00
-33048,43	108,00
-32949,14	146,00
-32850,29	136,00
-32751,87	173,00
-32653,89	205,00
-32556,33	144,00
-32459,20	184,00
-32362,49	281,00
-32266,19	140,00
-32170,32	191,00
-32074,86	142,00
-31979,82	220,00
-31885,18	88,00
-31790,95	201,00
-31697,12	163,00
-31603,69	290,00
-31510,67	105,00
-31418,04	248,00
-31325,80	146,00
-31233,95	141,00
-31142,49	233,00
-31051,42	161,00
-30960,73	189,00
-30870,43	210,00
-30780,50	147,00
-30690,95	328,00
-30601,77	244,00
-30512,97	138,00
-30424,53	151,00
-30336,46	275,00
-30248,76	139,00
-30161,42	217,00
-30074,44	223,00
-29987,81	107,00
-29901,55	274,00
-29815,63	122,00
-29730,07	152,00
-29644,86	30,00
-29560,00	151,00
-29475,48	255,00
-29391,30	129,00
-29307,47	166,00
-29223,97	240,00
-29140,81	254,00
-29057,99	130,00
-28975,50	176,00
-28893,34	201,00
-28811,51	223,00
-28730,00	220,00
-28648,82	225,00
-28567,97	336,00
-28487,43	161,00
-28407,21	191,00
-28327,32	145,00
-28247,73	136,00
-28168,46	186,00
-28089,50	43,00
-28010,85	125,00
-27932,51	74,00
-27854,48	140,00
-27776,75	132,00
-27699,32	294,00
-27622,19	141,00
-27545,37	235,00
-27468,84	203,00
-27392,60	211,00
-27316,66	228,00
-27241,01	212,00
-27165,66	249,00
-27090,59	60,00
-27015,81	290,00
-26941,31	324,00
-26867,10	260,00
-26793,17	312,00
-26719,52	208,00
-26646,15	148,00
-26573,06	186,00
-26500,24	144,00
-26427,70	228,00
-26355,43	189,00
-26283,43	264,00
-26211,71	316,00
-26140,25	190,00
-26069,06	184,00
-25998,13	115,00
-25927,46	208,00
-25857,06	226,00
-25786,92	210,00
-25717,04	158,00
-25647,42	228,00
-25578,05	136,00
-25508,94	262,00
-25440,09	123,00
-25371,48	273,00
-25303,13	230,00
-25235,02	151,00
-25167,17	139,00
-25099,56	280,00
-25032,19	216,00
-24965,07	213,00
-24898,20	193,00
-24831,56	226,00
-24765,17	153,00
-24699,01	204,00
-24633,10	172,00
-24567,41	171,00
-24501,97	126,00
-24436,75	187,00
-24371,77	136,00
-24307,03	122,00
-24242,51	201,00
-24178,22	134,00
-24114,16	156,00
-24050,32	310,00
-23986,71	42,00
-23923,32	220,00
-23860,16	175,00
-23797,22	154,00
-23734,50	236,00
-23672,00	198,00
-23609,71	105,00
-23547,65	221,00
-23485,80	252,00
-23424,16	208,00
-23362,74	260,00
-23301,53	133,00
-23240,54	182,00
-23179,75	202,00
-23119,17	266,00
-23058,80	133,00
-22998,64	210,00
-22938,68	203,00
-22878,93	130,00
-22819,39	170,00
-22760,04	144,00
-22700,90	148,00
-22641,96	205,00
-22583,22	95,00
-22524,68	251,00
-22466,33	104,00
-22408,19	318,00
-22350,23	110,00
-22292,48	263,00
-22234,92	127,00
-22177,55	254,00
-22120,37	202,00
-22063,38	174,00
-22006,58	205,00
-21949,98	248,00
-21893,56	142,00
-21837,33	205,00
-21781,28	168,00
-21725,42	130,00
-21669,74	202,00
-21614,25	224,00
-21558,94	176,00
-21503,81	183,00
-21448,86	202,00
-21394,10	241,00
-21339,51	248,00
-21285,10	218,00
-21230,86	81,00
-21176,81	210,00
-21122,93	213,00
-21069,22	204,00
-21015,69	150,00
-20962,33	109,00
-20909,14	129,00
-20856,13	165,00
-20803,28	96,00
-20750,61	271,00
-20698,10	55,00
-20645,76	156,00
-20593,59	234,00
-20541,59	282,00
-20489,75	321,00
-20438,07	245,00
-20386,56	272,00
-20335,22	221,00
-20284,03	221,00
-20233,01	178,00
-20182,15	192,00
-20131,45	234,00
-20080,91	221,00
-20030,52	114,00
-19980,30	169,00
-19930,23	222,00
-19880,32	366,00
-19830,56	75,00
-19780,96	95,00
-19731,52	97,00
-19682,23	126,00
-19633,09	197,00
-19584,10	229,00
-19535,26	229,00
-19486,58	248,00
-19438,04	158,00
-19389,66	218,00
-19341,42	110,00
-19293,33	216,00
-19245,39	88,00
-19197,60	204,00
-19149,95	292,00
-19102,45	170,00
-19055,09	79,00
-19007,87	185,00
-18960,80	183,00
-18913,87	191,00
-18867,09	112,00
-18820,44	114,00
-18773,94	234,00
-18727,57	167,00
-18681,35	146,00
-18635,26	144,00
-18589,31	124,00
-18543,50	211,00
-18497,83	226,00
-18452,29	205,00
-18406,89	176,00
-18361,63	5,00
-18316,50	269,00
-18271,50	188,00
-18226,63	186,00
-18181,90	192,00
-18137,30	280,00
-18092,84	110,00
-18048,50	196,00
-18004,29	217,00
-17960,22	183,00
-17916,27	69,00
-17872,45	260,00
-17828,76	208,00
-17785,20	157,00
-17741,77	88,00
-17698,46	174,00
-17655,28	275,00
-17612,22	301,00
-17569,29	202,00
-17526,48	204,00
-17483,79	265,00
-17441,23	81,00
-17398,79	181,00
-17356,48	244,00
-17314,28	177,00
-17272,21	176,00
-17230,26	191,00
-17188,42	118,00
-17146,71	143,00
-17105,12	129,00
-17063,64	230,00
-17022,28	116,00
-16981,04	222,00
-16939,92	195,00
-16898,91	236,00
-16858,02	136,00
-16817,25	199,00
-16776,59	223,00
-16736,04	198,00
-16695,61	101,00
-16655,29	96,00
-16615,09	199,00
-16574,99	177,00
-16535,01	167,00
-16495,15	116,00
-16455,39	139,00
-16415,74	263,00
-16376,21	177,00
-16336,78	168,00
-16297,46	200,00
-16258,26	125,00
-16219,16	267,00
-16180,17	264,00
-16141,28	215,00
-16102,51	112,00
-16063,84	186,00
-16025,27	166,00
-15986,82	248,00
-15948,46	172,00
-15910,22	165,00
-15872,07	237,00
-15834,04	179,00
-15796,10	202,00
-15758,27	264,00
-15720,54	168,00
-15682,91	253,00
-15645,39	211,00
-15607,97	40,00
-15570,64	177,00
-15533,42	176,00
-15496,30	112,00
-15459,28	230,00
-15422,36	155,00
-15385,54	119,00
-15348,82	161,00
-15312,19	39,00
-15275,66	202,00
-15239,23	211,00
-15202,90	107,00
-15166,67	86,00
-15130,53	101,00
-15094,48	224,00
-15058,54	258,00
-15022,68	123,00
-14986,93	167,00
-14951,26	210,00
-14915,69	110,00
-14880,22	120,00
-14844,84	187,00
-14809,55	205,00
-14774,35	163,00
-14739,25	180,00
-14704,24	149,00
-14669,32	116,00
-14634,49	265,00
-14599,75	216,00
-14565,10	120,00
-14530,55	173,00
-14496,08	133,00
-14461,70	113,00
-14427,41	202,00
-14393,21	229,00
-14359,10	225,00
-14325,07	196,00
-14291,14	116,00
-14257,29	247,00
-14223,52	222,00
-14189,85	70,00
-14156,26	220,00
-14122,76	230,00
-14089,34	251,00
-14056,01	194,00
-14022,76	218,00
-13989,60	148,00
-13956,52	238,00
-13923,53	168,00
-13890,62	138,00
-13857,79	290,00
-13825,05	181,00
-13792,39	273,00
-13759,81	256,00
-13727,31	201,00
-13694,90	207,00
-13662,57	203,00
-13630,31	180,00
-13598,14	147,00
-13566,05	79,00
-13534,05	119,00
-13502,12	236,00
-13470,27	191,00
-13438,50	207,00
-13406,80	286,00
-13375,19	202,00
-13343,66	163,00
-13312,20	203,00
-13280,83	253,00
-13249,53	211,00
-13218,30	132,00
-13187,16	198,00
-13156,09	299,00
-13125,10	181,00
-13094,18	203,00
-13063,34	150,00
-13032,58	59,00
-13001,89	150,00
-12971,28	216,00
-12940,74	230,00
-12910,27	113,00
-12879,88	161,00
-12849,57	206,00
-12819,33	145,00
-12789,16	207,00
-12759,06	237,00
-12729,04	150,00
-12699,09	382,00
-12669,21	205,00
-12639,41	258,00
-12609,68	148,00
-12580,02	130,00
-12550,43	216,00
-12520,91	53,00
-12491,46	195,00
-12462,08	126,00
-12432,77	117,00
-12403,54	225,00
-12374,37	122,00
-12345,27	252,00
-12316,24	248,00
-12287,29	199,00
-12258,40	116,00
-12229,57	199,00
-12200,82	232,00
-12172,14	220,00
-12143,52	-7,00
-12114,97	116,00
-12086,49	41,00
-12058,07	213,00
-12029,73	151,00
-12001,44	343,00
-11973,23	183,00
-11945,08	214,00
-11917,00	112,00
-11888,98	98,00
-11861,03	172,00
-11833,15	136,00
-11805,32	134,00
-11777,57	207,00
-11749,88	85,00
-11722,25	207,00
-11694,69	141,00
-11667,19	220,00
-11639,75	201,00
-11612,38	166,00
-11585,07	176,00
-11557,83	200,00
-11530,65	316,00
-11503,53	132,00
-11476,47	252,00
-11449,48	250,00
-11422,54	171,00
-11395,67	61,00
-11368,86	160,00
-11342,11	266,00
-11315,43	134,00
-11288,80	276,00
-11262,23	54,00
-11235,73	234,00
-11209,28	228,00
-11182,90	180,00
-11156,57	304,00
-11130,31	262,00
-11104,10	147,00
-11077,96	218,00
-11051,87	183,00
-11025,84	260,00
-10999,87	-18,00
-10973,96	149,00
-10948,11	194,00
-10922,31	56,00
-10896,58	208,00
-10870,90	178,00
-10845,28	112,00
-10819,71	165,00
-10794,20	242,00
-10768,75	161,00
-10743,36	195,00
-10718,02	180,00
-10692,74	123,00
-10667,52	163,00
-10642,35	210,00
-10617,24	233,00
-10592,18	211,00
-10567,18	69,00
-10542,23	228,00
-10517,34	128,00
-10492,51	159,00
-10467,72	66,00
-10443,00	188,00
-10418,32	110,00
-10393,70	224,00
-10369,14	254,00
-10344,63	195,00
-10320,17	216,00
-10295,77	143,00
-10271,42	124,00
-10247,12	209,00
-10222,88	218,00
-10198,68	68,00
-10174,54	190,00
-10150,46	141,00
-10126,42	149,00
-10102,44	151,00
-10078,51	117,00
-10054,63	164,00
-10030,80	90,00
-10007,03	113,00
-9983,30	171,00
-9959,63	32,00
-9936,01	156,00
-9912,44	-44,00
-9888,92	199,00
-9865,44	141,00
-9842,02	61,00
-9818,65	54,00
-9795,33	3,00
-9772,06	34,00
-9748,84	17,00
-9725,67	-58,00
-9702,55	29,00
-9679,47	-55,00
-9656,45	-60,00
-9633,47	-126,00
-9610,55	-119,00
-9587,67	-59,00
-9564,84	-104,00
-9542,06	-231,00
-9519,32	-303,00
-9496,64	-258,00
-9474,00	-340,00
-9451,41	-534,00
-9428,87	-414,00
-9406,37	-499,00
-9383,92	-372,00
-9361,52	-496,00
-9339,17	-525,00
-9316,86	-541,00
-9294,60	-577,00
-9272,38	-611,00
-9250,21	-639,00
-9228,09	-771,00
-9206,01	-762,00
-9183,98	-536,00
-9162,00	-685,00
-9140,06	-626,00
-9118,16	-607,00
-9096,31	-761,00
-9074,51	-687,00
-9052,75	-654,00
-9031,04	-608,00
-9009,37	-624,00
-8987,74	-672,00
-8966,16	-464,00
-8944,63	-340,00
-8923,14	-407,00
-8901,69	-322,00
-8880,29	-426,00
-8858,93	-415,00
-8837,61	-473,00
-8816,34	-317,00
-8795,11	-601,00
-8773,92	-386,00
-8752,78	-426,00
-8731,68	-327,00
-8710,62	-304,00
-8689,61	-429,00
-8668,63	-432,00
-8647,70	-514,00
-8626,82	-393,00
-8605,97	-461,00
-8585,17	-298,00
-8564,41	-352,00
-8543,69	-337,00
-8523,01	-213,00
-8502,37	-277,00
-8481,78	-353,00
-8461,23	-312,00
-8440,71	-301,00
-8420,24	-343,00
-8399,81	-396,00
-8379,42	-361,00
-8359,08	-316,00
-8338,77	-299,00
-8318,50	-365,00
-8298,27	-226,00
-8278,09	-382,00
-8257,94	-296,00
-8237,83	-326,00
-8217,76	-299,00
-8197,74	-354,00
-8177,75	-413,00
-8157,80	-305,00
-8137,89	-246,00
-8118,02	-295,00
-8098,19	-216,00
-8078,40	-225,00
-8058,65	-132,00
-8038,93	-76,00
-8019,26	-270,00
-7999,62	-75,00
-7980,02	-232,00
-7960,46	-125,00
-7940,94	-313,00
-7921,46	-97,00
-7902,01	-260,00
-7882,60	-85,00
-7863,23	-194,00
-7843,90	-122,00
-7824,61	-194,00
-7805,35	-74,00
-7786,13	-264,00
-7766,95	-157,00
-7747,80	-164,00
-7728,69	1,00
-7709,62	-142,00
-7690,59	-85,00
-7671,59	-233,00
-7652,63	-130,00
-7633,70	-192,00
-7614,81	-142,00
-7595,96	-166,00
-7577,15	-116,00
-7558,37	-195,00
-7539,62	7,00
-7520,91	-139,00
-7502,24	-173,00
-7483,60	-83,00
-7465,00	-144,00
-7446,44	-99,00
-7427,91	-145,00
-7409,41	-24,00
-7390,95	-98,00
-7372,53	-178,00
-7354,14	-58,00
-7335,78	-65,00
-7317,46	-152,00
-7299,18	-72,00
-7280,92	-282,00
-7262,71	-147,00
-7244,52	-172,00
-7226,38	-57,00
-7208,26	-198,00
-7190,18	-163,00
-7172,14	-103,00
-7154,12	3,00
-7136,15	-293,00
-7118,20	-194,00
-7100,29	-197,00
-7082,41	-180,00
-7064,57	-261,00
-7046,76	-85,00
-7028,98	-125,00
-7011,24	6,00
-6993,53	-75,00
-6975,85	37,00
-6958,20	9,00
-6940,59	-86,00
-6923,01	-132,00
-6905,46	-13,00
-6887,94	-202,00
-6870,46	-190,00
-6853,01	-114,00
-6835,59	-89,00
-6818,21	-37,00
-6800,85	-34,00
-6783,53	65,00
-6766,24	66,00
-6748,98	1,00
-6731,76	-87,00
-6714,56	105,00
-6697,40	-106,00
-6680,26	-37,00
-6663,16	-17,00
-6646,09	13,00
-6629,05	-75,00
-6612,05	-11,00
-6595,07	-125,00
-6578,13	-152,00
-6561,21	-4,00
-6544,33	-5,00
-6527,47	17,00
-6510,65	-111,00
-6493,86	37,00
-6477,10	-27,00
-6460,36	-159,00
-6443,66	0,00
-6426,99	-20,00
-6410,35	139,00
-6393,74	-10,00
-6377,16	-32,00
-6360,61	-28,00
-6344,09	-9,00
-6327,59	-14,00
-6311,13	-66,00
-6294,70	-37,00
-6278,29	-8,00
-6261,92	-85,00
-6245,58	-79,00
-6229,26	-59,00
-6212,97	-24,00
-6196,72	-12,00
-6180,49	-34,00
-6164,29	56,00
-6148,12	35,00
-6131,98	-61,00
-6115,86	110,00
-6099,78	-9,00
-6083,72	-50,00
-6067,69	92,00
-6051,69	2,00
-6035,72	112,00
-6019,78	-32,00
-6003,87	-7,00
-5987,98	25,00
-5972,12	-149,00
-5956,29	-155,00
-5940,49	14,00
-5924,71	21,00
-5908,96	50,00
-5893,24	20,00
-5877,55	88,00
-5861,89	33,00
-5846,25	85,00
-5830,64	-20,00
-5815,05	19,00
-5799,50	0,00
-5783,97	19,00
-5768,47	121,00
-5752,99	6,00
-5737,55	-23,00
-5722,12	-14,00
-5706,73	-4,00
-5691,36	15,00
-5676,02	100,00
-5660,71	53,00
-5645,42	125,00
-5630,16	-19,00
-5614,92	17,00
-5599,71	40,00
-5584,53	-35,00
-5569,37	-22,00
-5554,24	-701,00
-5539,14	-5,00
-5524,06	17,00
-5509,01	102,00
-5493,98	19,00
-5478,98	-28,00
-5464,00	124,00
-5449,05	145,00
-5434,13	171,00
-5419,23	46,00
-5404,36	59,00
-5389,51	38,00
-5374,69	-29,00
-5359,89	-55,00
-5345,12	-32,00
-5330,37	80,00
-5315,65	19,00
-5300,95	6,00
-5286,28	-70,00
-5271,63	77,00
-5257,01	31,00
-5242,41	17,00
-5227,84	55,00
-5213,29	5,00
-5198,76	45,00
-5184,26	76,00
-5169,79	43,00
-5155,33	-48,00
-5140,91	76,00
-5126,51	-3,00
-5112,13	-14,00
-5097,77	82,00
-5083,44	13,00
-5069,13	107,00
-5054,85	130,00
-5040,59	149,00
-5026,36	-22,00
-5012,15	7,00
-4997,96	6,00
-4983,80	33,00
-4969,66	111,00
-4955,54	96,00
-4941,44	153,00
-4927,37	41,00
-4913,33	-86,00
-4899,30	-66,00
-4885,30	15,00
-4871,33	43,00
-4857,37	32,00
-4843,44	96,00
-4829,53	135,00
-4815,65	-55,00
-4801,79	-79,00
-4787,95	49,00
-4774,13	31,00
-4760,34	209,00
-4746,56	186,00
-4732,82	94,00
-4719,09	32,00
-4705,38	-8,00
-4691,70	78,00
-4678,04	29,00
-4664,41	22,00
-4650,79	197,00
-4637,20	79,00
-4623,63	180,00
-4610,08	59,00
-4596,56	53,00
-4583,05	58,00
-4569,57	114,00
-4556,11	126,00
-4542,67	55,00
-4529,25	251,00
-4515,86	93,00
-4502,49	-60,00
-4489,13	-4,00
-4475,80	135,00
-4462,49	155,00
-4449,21	100,00
-4435,94	172,00
-4422,70	96,00
-4409,47	77,00
-4396,27	25,00
-4383,09	-52,00
-4369,93	164,00
-4356,79	241,00
-4343,67	109,00
-4330,58	-5,00
-4317,50	209,00
-4304,45	49,00
-4291,41	184,00
-4278,40	134,00
-4265,41	260,00
-4252,44	115,00
-4239,49	-31,00
-4226,55	101,00
-4213,65	105,00
-4200,76	177,00
-4187,89	168,00
-4175,04	177,00
-4162,21	137,00
-4149,40	167,00
-4136,61	138,00
-4123,85	197,00
-4111,10	178,00
-4098,37	164,00
-4085,66	171,00
-4072,98	175,00
-4060,31	217,00
-4047,66	170,00
-4035,04	201,00
-4022,43	251,00
-4009,84	220,00
-3997,27	124,00
-3984,72	158,00
-3972,19	187,00
-3959,69	174,00
-3947,20	282,00
-3934,73	137,00
-3922,27	214,00
-3909,84	127,00
-3897,43	177,00
-3885,04	172,00
-3872,67	249,00
-3860,31	167,00
-3847,98	207,00
-3835,66	239,00
-3823,36	137,00
-3811,09	112,00
-3798,83	239,00
-3786,59	241,00
-3774,37	131,00
-3762,17	230,00
-3749,98	217,00
-3737,82	172,00
-3725,67	377,00
-3713,55	167,00
-3701,44	147,00
-3689,35	223,00
-3677,28	183,00
-3665,22	203,00
-3653,19	109,00
-3641,17	160,00
-3629,18	227,00
-3617,20	206,00
-3605,24	157,00
-3593,30	114,00
-3581,37	284,00
-3569,47	234,00
-3557,58	158,00
-3545,71	285,00
-3533,86	335,00
-3522,02	146,00
-3510,21	145,00
-3498,41	256,00
-3486,63	216,00
-3474,87	224,00
-3463,12	266,00
-3451,40	127,00
-3439,69	202,00
-3428,00	187,00
-3416,33	181,00
-3404,67	197,00
-3393,03	97,00
-3381,41	225,00
-3369,81	174,00
-3358,22	236,00
-3346,66	169,00
-3335,10	136,00
-3323,57	119,00
-3312,06	282,00
-3300,56	163,00
-3289,08	218,00
-3277,61	203,00
-3266,16	173,00
-3254,73	181,00
-3243,32	174,00
-3231,92	306,00
-3220,55	169,00
-3209,18	202,00
-3197,84	176,00
-3186,51	225,00
-3175,20	120,00
-3163,90	239,00
-3152,63	285,00
-3141,36	191,00
-3130,12	116,00
-3118,89	299,00
-3107,68	173,00
-3096,49	149,00
-3085,31	91,00
-3074,15	287,00
-3063,00	204,00
-3051,87	261,00
-3040,76	290,00
-3029,67	181,00
-3018,59	94,00
-3007,52	151,00
-2996,48	104,00
-2985,44	192,00
-2974,43	139,00
-2963,43	140,00
-2952,45	180,00
-2941,48	220,00
-2930,53	161,00
-2919,60	307,00
-2908,68	154,00
-2897,78	135,00
-2886,89	173,00
-2876,02	307,00
-2865,17	216,00
-2854,33	203,00
-2843,50	229,00
-2832,70	310,00
-2821,90	138,00
-2811,13	233,00
-2800,37	327,00
-2789,62	227,00
-2778,89	200,00
-2768,18	282,00
-2757,48	288,00
-2746,80	102,00
-2736,13	289,00
-2725,48	198,00
-2714,84	239,00
-2704,22	188,00
-2693,61	96,00
-2683,02	256,00
-2672,45	237,00
-2661,89	208,00
-2651,34	188,00
-2640,81	271,00
-2630,30	280,00
-2619,80	207,00
-2609,31	157,00
-2598,84	110,00
-2588,39	223,00
-2577,95	127,00
-2567,52	155,00
-2557,11	235,00
-2546,71	182,00
-2536,33	145,00
-2525,97	186,00
-2515,62	279,00
-2505,28	158,00
-2494,96	156,00
-2484,65	182,00
-2474,36	222,00
-2464,08	270,00
-2453,82	193,00
-2443,57	103,00
-2433,33	267,00
-2423,11	105,00
-2412,91	174,00
-2402,72	132,00
-2392,54	121,00
-2382,38	93,00
-2372,23	209,00
-2362,09	327,00
-2351,97	190,00
-2341,87	-39,00
-2331,78	215,00
-2321,70	207,00
-2311,64	181,00
-2301,59	187,00
-2291,55	143,00
-2281,53	171,00
-2271,53	197,00
-2261,53	196,00
-2251,55	215,00
-2241,59	102,00
-2231,64	170,00
-2221,70	183,00
-2211,78	226,00
-2201,87	185,00
-2191,97	256,00
-2182,09	243,00
-2172,22	215,00
-2162,37	109,00
-2152,53	158,00
-2142,70	135,00
-2132,89	190,00
-2123,09	178,00
-2113,30	114,00
-2103,53	228,00
-2093,77	221,00
-2084,02	214,00
-2074,29	383,00
-2064,57	187,00
-2054,86	187,00
-2045,17	238,00
-2035,49	209,00
-2025,82	157,00
-2016,17	202,00
-2006,53	335,00
-1996,91	218,00
-1987,29	157,00
-1977,69	167,00
-1968,11	175,00
-1958,53	261,00
-1948,97	202,00
-1939,42	150,00
-1929,89	208,00
-1920,37	204,00
-1910,86	251,00
-1901,36	233,00
-1891,88	253,00
-1882,41	59,00
-1872,95	155,00
-1863,51	168,00
-1854,08	190,00
-1844,66	226,00
-1835,26	213,00
-1825,86	83,00
-1816,48	180,00
-1807,11	105,00
-1797,76	196,00
-1788,42	197,00
-1779,09	227,00
-1769,77	163,00
-1760,47	204,00
-1751,17	114,00
-1741,89	89,00
-1732,63	216,00
-1723,37	174,00
-1714,13	260,00
-1704,90	175,00
-1695,68	186,00
-1686,48	242,00
-1677,29	98,00
-1668,11	302,00
-1658,94	223,00
-1649,78	134,00
-1640,64	192,00
-1631,51	362,00
-1622,39	240,00
-1613,28	85,00
-1604,19	212,00
-1595,10	276,00
-1586,03	204,00
-1576,97	300,00
-1567,93	239,00
-1558,89	222,00
-1549,87	136,00
-1540,86	210,00
-1531,86	269,00
-1522,87	216,00
-1513,90	262,00
-1504,93	150,00
-1495,98	160,00
-1487,04	117,00
-1478,12	158,00
-1469,20	273,00
-1460,30	186,00
-1451,40	267,00
-1442,52	203,00
-1433,65	226,00
-1424,80	215,00
-1415,95	213,00
-1407,12	193,00
-1398,30	216,00
-1389,48	281,00
-1380,69	88,00
-1371,90	182,00
-1363,12	79,00
-1354,36	344,00
-1345,60	37,00
-1336,86	225,00
-1328,13	275,00
-1319,41	100,00
-1310,70	238,00
-1302,01	346,00
-1293,32	299,00
-1284,65	214,00
-1275,99	217,00
-1267,33	230,00
-1258,69	101,00
-1250,06	155,00
-1241,45	133,00
-1232,84	99,00
-1224,25	330,00
-1215,66	255,00
-1207,09	171,00
-1198,53	222,00
-1189,97	135,00
-1181,43	109,00
-1172,91	175,00
-1164,39	175,00
-1155,88	170,00
-1147,38	141,00
-1138,90	312,00
-1130,43	309,00
-1121,96	213,00
-1113,51	123,00
-1105,07	189,00
-1096,64	249,00
-1088,22	375,00
-1079,81	186,00
-1071,41	285,00
-1063,02	189,00
-1054,65	285,00
-1046,28	243,00
-1037,92	90,00
-1029,58	194,00
-1021,24	180,00
-1012,92	106,00
-1004,61	270,00
-996,30	227,00
-988,01	66,00
-979,73	253,00
-971,46	178,00
-963,20	167,00
-954,95	168,00
-946,71	135,00
-938,48	205,00
-930,26	251,00
-922,06	73,00
-913,86	154,00
-905,67	166,00
-897,49	245,00
-889,33	130,00
-881,17	186,00
-873,02	118,00
-864,89	183,00
-856,76	90,00
-848,65	227,00
-840,54	299,00
-832,45	296,00
-824,36	175,00
-816,29	269,00
-808,22	360,00
-800,17	195,00
-792,12	83,00
-784,09	303,00
-776,06	247,00
-768,05	264,00
-760,04	269,00
-752,05	167,00
-744,07	40,00
-736,09	178,00
-728,13	248,00
-720,17	115,00
-712,23	236,00
-704,29	86,00
-696,37	240,00
-688,45	135,00
-680,55	163,00
-672,65	192,00
-664,77	156,00
-656,89	189,00
-649,03	120,00
-641,17	135,00
-633,32	273,00
-625,49	174,00
-617,66	212,00
-609,84	189,00
-602,03	252,00
-594,23	87,00
-586,45	344,00
-578,67	280,00
-570,90	316,00
-563,14	136,00
-555,39	36,00
-547,65	174,00
-539,91	179,00
-532,19	183,00
-524,48	202,00
-516,78	122,00
-509,08	307,00
-501,40	236,00
-493,72	140,00
-486,06	140,00
-478,40	271,00
-470,76	266,00
-463,12	248,00
-455,49	179,00
-447,87	283,00
-440,26	209,00
-432,66	204,00
-425,07	224,00
-417,49	231,00
-409,92	238,00
-402,35	61,00
-394,80	216,00
-387,25	304,00
-379,72	339,00
-372,19	223,00
-364,67	255,00
-357,17	159,00
-349,67	123,00
-342,18	132,00
-334,69	243,00
-327,22	140,00
-319,76	254,00
-312,30	360,00
-304,86	218,00
-297,42	97,00
-290,00	159,00
-282,58	228,00
-275,17	327,00
-267,77	156,00
-260,37	206,00
-252,99	144,00
-245,62	200,00
-238,25	316,00
-230,90	340,00
-223,55	207,00
-216,21	264,00
-208,88	457,00
-201,56	306,00
-194,25	333,00
-186,94	407,00
-179,65	366,00
-172,36	304,00
-165,08	381,00
-157,81	398,00
-150,55	512,00
-143,30	493,00
-136,06	539,00
-128,82	572,00
-121,60	606,00
-114,38	751,00
-107,17	761,00
-99,97	827,00
-92,78	912,00
-85,60	1065,00
-78,42	1159,00
-71,25	1174,00
-64,10	1408,00
-56,95	1643,00
-49,81	2017,00
-42,67	2438,00
-35,55	2955,00
-28,43	3842,00
-21,33	6541,00
-14,23	21574,00
-7,14	55635,00
-0,05	55419,00
7,02	55129,00
14,09	55339,00
21,14	18790,00
28,19	7829,00
35,23	5031,00
42,27	3809,00
49,29	3058,00
56,31	2809,00
63,32	2247,00
70,32	1856,00
77,31	1502,00
84,29	1418,00
91,27	1252,00
98,23	1138,00
105,19	1161,00
112,14	1073,00
119,09	1440,00
126,02	1876,00
132,95	1962,00
139,87	1810,00
146,78	1752,00
153,68	1740,00
160,58	1708,00
167,46	1763,00
174,34	1649,00
181,21	1571,00
188,08	1621,00
194,93	1574,00
201,78	1497,00
208,62	1660,00
215,45	1448,00
222,27	1540,00
229,09	1578,00
235,90	1543,00
242,70	1590,00
249,49	1433,00
256,27	1470,00
263,05	1422,00
269,82	1424,00
276,58	1406,00
283,33	1371,00
290,08	1384,00
296,82	1337,00
303,55	1273,00
310,27	1284,00
316,98	1207,00
323,69	1313,00
330,39	1277,00
337,08	1330,00
343,76	1414,00
350,44	1328,00
357,11	1201,00
363,77	1235,00
370,42	1251,00
377,07	1233,00
383,71	1177,00
390,34	1338,00
396,96	1263,00
403,58	1320,00
410,19	1267,00
416,79	1271,00
423,38	1433,00
429,97	1304,00
436,55	1130,00
443,12	1164,00
449,68	1196,00
456,24	1254,00
462,79	1122,00
469,33	1152,00
475,86	1155,00
482,39	1242,00
488,91	1081,00
495,42	1035,00
501,93	977,00
508,42	1120,00
514,91	1140,00
521,40	1080,00
527,87	1019,00
534,34	1050,00
540,80	992,00
547,25	1177,00
553,70	922,00
560,14	1138,00
566,57	1031,00
573,00	1085,00
579,41	1026,00
585,83	1015,00
592,23	1067,00
598,62	956,00
605,01	1006,00
611,40	982,00
617,77	1171,00
624,14	1022,00
630,50	1034,00
636,85	967,00
643,20	1075,00
649,54	778,00
655,87	963,00
662,20	1023,00
668,52	858,00
674,83	1005,00
681,13	794,00
687,43	932,00
693,72	940,00
700,00	968,00
706,28	963,00
712,55	834,00
718,81	940,00
725,07	1016,00
731,32	889,00
737,56	888,00
743,79	893,00
750,02	1028,00
756,24	921,00
762,46	877,00
768,67	1011,00
774,87	1014,00
781,06	923,00
787,25	913,00
793,43	874,00
799,60	818,00
805,77	996,00
811,93	971,00
818,08	860,00
824,23	835,00
830,37	928,00
836,50	1016,00
842,63	853,00
848,75	943,00
854,87	998,00
860,97	892,00
867,07	943,00
873,17	1000,00
879,25	932,00
885,33	923,00
891,41	942,00
897,47	983,00
903,53	874,00
909,59	879,00
915,63	958,00
921,67	1005,00
927,71	900,00
933,74	919,00
939,76	821,00
945,77	782,00
951,78	810,00
957,78	867,00
963,78	802,00
969,77	752,00
975,75	901,00
981,72	877,00
987,69	843,00
993,66	862,00
999,61	843,00
1005,56	826,00
1011,51	813,00
1017,44	926,00
1023,37	924,00
1029,30	777,00
1035,22	789,00
1041,13	939,00
1047,03	994,00
1052,93	991,00
1058,83	1195,00
1064,71	1145,00
1070,59	1013,00
1076,47	910,00
1082,33	944,00
1088,20	924,00
1094,05	806,00
1099,90	846,00
1105,74	761,00
1111,58	816,00
1117,41	824,00
1123,23	1043,00
1129,05	1039,00
1134,86	1128,00
1140,67	945,00
1146,47	643,00
1152,26	817,00
1158,05	851,00
1163,83	764,00
1169,60	928,00
1175,37	705,00
1181,13	939,00
1186,89	782,00
1192,64	711,00
1198,38	745,00
1204,12	788,00
1209,85	781,00
1215,58	811,00
1221,30	818,00
1227,02	893,00
1232,72	767,00
1238,43	767,00
1244,12	968,00
1249,81	782,00
1255,50	837,00
1261,17	723,00
1266,85	826,00
1272,51	925,00
1278,17	899,00
1283,83	867,00
1289,47	1082,00
1295,12	1287,00
1300,75	1189,00
1306,38	1032,00
1312,01	1057,00
1317,63	978,00
1323,24	905,00
1328,85	895,00
1334,45	902,00
1340,04	930,00
1345,63	814,00
1351,22	974,00
1356,80	938,00
1362,37	921,00
1367,93	903,00
1373,49	863,00
1379,05	970,00
1384,60	973,00
1390,14	907,00
1395,68	785,00
1401,21	794,00
1406,74	962,00
1412,26	896,00
1417,77	970,00
1423,28	1043,00
1428,78	1075,00
1434,28	1229,00
1439,77	1334,00
1445,26	1330,00
1450,74	1304,00
1456,22	1243,00
1461,68	1253,00
1467,15	1131,00
1472,61	1057,00
1478,06	989,00
1483,51	870,00
1488,95	856,00
1494,38	857,00
1499,81	863,00
1505,24	834,00
1510,65	894,00
1516,07	887,00
1521,48	807,00
1526,88	755,00
1532,27	814,00
1537,67	802,00
1543,05	826,00
1548,43	610,00
1553,81	849,00
1559,18	835,00
1564,54	819,00
1569,90	792,00
1575,25	746,00
1580,60	692,00
1585,94	670,00
1591,28	772,00
1596,61	693,00
1601,93	662,00
1607,25	791,00
1612,57	765,00
1617,88	658,00
1623,18	751,00
1628,48	728,00
1633,77	647,00
1639,06	690,00
1644,34	694,00
1649,62	663,00
1654,89	723,00
1660,16	745,00
1665,42	683,00
1670,67	693,00
1675,92	696,00
1681,17	686,00
1686,41	673,00
1691,64	648,00
1696,87	716,00
1702,10	569,00
1707,32	612,00
1712,53	733,00
1717,74	756,00
1722,94	672,00
1728,14	647,00
1733,33	662,00
1738,52	652,00
1743,70	642,00
1748,88	659,00
1754,05	720,00
1759,22	656,00
1764,38	622,00
1769,53	694,00
1774,69	548,00
1779,83	629,00
1784,97	607,00
1790,11	607,00
1795,24	532,00
1800,36	628,00
1805,48	605,00
1810,60	604,00
1815,71	653,00
1820,82	588,00
1825,92	542,00
1831,01	626,00
1836,10	644,00
1841,19	589,00
1846,26	358,00
1851,34	568,00
1856,41	509,00
1861,47	622,00
1866,53	597,00
1871,59	567,00
1876,64	624,00
1881,68	732,00
1886,72	517,00
1891,76	570,00
1896,79	514,00
1901,81	467,00
1906,83	592,00
1911,85	446,00
1916,86	544,00
1921,86	506,00
1926,86	534,00
1931,86	470,00
1936,85	470,00
1941,83	561,00
1946,81	584,00
1951,79	582,00
1956,76	556,00
1961,72	450,00
1966,68	520,00
1971,64	432,00
1976,59	459,00
1981,54	472,00
1986,48	350,00
1991,42	491,00
1996,35	503,00
2001,27	440,00
2006,20	445,00
2011,11	584,00
2016,03	505,00
2020,93	519,00
2025,84	431,00
2030,73	514,00
2035,63	460,00
2040,52	361,00
2045,40	533,00
2050,28	516,00
2055,15	551,00
2060,02	413,00
2064,89	594,00
2069,75	435,00
2074,60	616,00
2079,46	502,00
2084,30	343,00
2089,14	463,00
2093,98	494,00
2098,81	520,00
2103,64	445,00
2108,46	429,00
2113,28	470,00
2118,09	401,00
2122,90	382,00
2127,70	456,00
2132,50	378,00
2137,30	521,00
2142,09	398,00
2146,87	423,00
2151,66	558,00
2156,43	441,00
2161,20	507,00
2165,97	364,00
2170,73	439,00
2175,49	468,00
2180,24	429,00
2184,99	467,00
2189,74	540,00
2194,48	522,00
2199,21	457,00
2203,94	346,00
2208,67	506,00
2213,39	526,00
2218,11	365,00
2222,82	402,00
2227,53	432,00
2232,23	459,00
2236,93	484,00
2241,63	489,00
2246,32	539,00
2251,00	360,00
2255,68	333,00
2260,36	342,00
2265,03	405,00
2269,70	328,00
2274,36	412,00
2279,02	298,00
2283,68	326,00
2288,33	352,00
2292,97	468,00
2297,61	360,00
2302,25	361,00
2306,88	266,00
2311,51	408,00
2316,14	382,00
2320,75	398,00
2325,37	392,00
2329,98	544,00
2334,59	303,00
2339,19	340,00
2343,79	424,00
2348,38	399,00
2352,97	298,00
2357,55	452,00
2362,13	484,00
2366,71	267,00
2371,28	462,00
2375,85	395,00
2380,41	256,00
2384,97	328,00
2389,52	549,00
2394,07	381,00
2398,62	359,00
2403,16	392,00
2407,70	285,00
2412,23	396,00
2416,76	260,00
2421,29	318,00
2425,81	432,00
2430,32	325,00
2434,84	412,00
2439,34	289,00
2443,85	429,00
2448,35	427,00
2452,84	367,00
2457,33	433,00
2461,82	385,00
2466,30	272,00
2470,78	358,00
2475,25	346,00
2479,72	335,00
2484,19	369,00
2488,65	452,00
2493,11	266,00
2497,56	530,00
2502,01	234,00
2506,46	273,00
2510,90	281,00
2515,34	312,00
2519,77	287,00
2524,20	330,00
2528,62	334,00
2533,04	422,00
2537,46	311,00
2541,87	261,00
2546,28	299,00
2550,68	323,00
2555,08	281,00
2559,48	245,00
2563,87	391,00
2568,26	353,00
2572,64	292,00
2577,02	377,00
2581,40	367,00
2585,77	340,00
2590,14	324,00
2594,50	295,00
2598,86	263,00
2603,22	417,00
2607,57	413,00
2611,92	356,00
2616,26	325,00
2620,60	343,00
2624,94	269,00
2629,27	338,00
2633,60	254,00
2637,92	298,00
2642,24	326,00
2646,56	299,00
2650,87	374,00
2655,18	339,00
2659,48	323,00
2663,78	248,00
2668,08	271,00
2672,37	305,00
2676,66	365,00
2680,95	414,00
2685,23	333,00
2689,50	457,00
2693,78	420,00
2698,05	297,00
2702,31	300,00
2706,57	298,00
2710,83	282,00
2715,08	394,00
2719,33	407,00
2723,58	323,00
2727,82	415,00
2732,06	269,00
2736,29	436,00
2740,53	367,00
2744,75	371,00
2748,97	289,00
2753,19	319,00
2757,41	456,00
2761,62	391,00
2765,83	322,00
2770,03	230,00
2774,23	385,00
2778,43	273,00
2782,62	446,00
2786,81	326,00
2791,00	373,00
2795,18	360,00
2799,35	260,00
2803,53	501,00
2807,70	448,00
2811,86	423,00
2816,03	307,00
2820,19	401,00
2824,34	537,00
2828,49	384,00
2832,64	524,00
2836,78	549,00
2840,92	641,00
2845,06	824,00
2849,19	839,00
2853,32	995,00
2857,45	968,00
2861,57	921,00
2865,69	849,00
2869,80	844,00
2873,91	959,00
2878,02	1000,00
2882,12	981,00
2886,22	1048,00
2890,32	924,00
2894,41	833,00
2898,50	940,00
2902,58	768,00
2906,67	756,00
2910,74	780,00
2914,82	788,00
2918,89	687,00
2922,96	569,00
2927,02	611,00
2931,08	434,00
2935,13	608,00
2939,19	544,00
2943,24	528,00
2947,28	459,00
2951,32	457,00
2955,36	471,00
2959,40	415,00
2963,43	425,00
2967,46	333,00
2971,48	359,00
2975,50	385,00
2979,52	398,00
2983,53	392,00
2987,54	260,00
2991,55	317,00
2995,55	234,00
2999,55	272,00
3003,54	316,00
3007,54	289,00
3011,53	308,00
3015,51	380,00
3019,49	210,00
3023,47	210,00
3027,45	209,00
3031,42	216,00
3035,39	378,00
3039,35	291,00
3043,31	313,00
3047,27	277,00
3051,22	251,00
3055,17	171,00
3059,12	137,00
3063,06	212,00
3067,00	204,00
3070,94	369,00
3074,87	259,00
3078,80	270,00
3082,73	269,00
3086,65	186,00
3090,57	168,00
3094,49	293,00
3098,40	268,00
3102,31	233,00
3106,22	135,00
3110,12	141,00
3114,02	281,00
3117,92	277,00
3121,81	204,00
3125,70	378,00
3129,58	248,00
3133,47	226,00
3137,34	190,00
3141,22	160,00
3145,09	254,00
3148,96	246,00
3152,83	208,00
3156,69	213,00
3160,55	213,00
3164,40	287,00
3168,26	238,00
3172,10	224,00
3175,95	319,00
3179,79	245,00
3183,63	354,00
3187,47	203,00
3191,30	241,00
3195,13	282,00
3198,95	255,00
3202,78	125,00
3206,60	319,00
3210,41	226,00
3214,23	273,00
3218,03	280,00
3221,84	212,00
3225,64	207,00
3229,44	214,00
3233,24	255,00
3237,03	252,00
3240,82	189,00
3244,61	172,00
3248,39	169,00
3252,17	276,00
3255,95	243,00
3259,72	226,00
3263,49	309,00
3267,26	196,00
3271,03	181,00
3274,79	199,00
3278,54	139,00
3282,30	90,00
3286,05	314,00
3289,80	270,00
3293,54	246,00
3297,29	253,00
3301,02	231,00
3304,76	195,00
3308,49	181,00
3312,22	228,00
3315,95	134,00
3319,67	250,00
3323,39	345,00
3327,10	228,00
3330,82	178,00
3334,53	180,00
3338,24	141,00
3341,94	291,00
3345,64	217,00
3349,34	196,00
3353,03	228,00
3356,72	282,00
3360,41	209,00
3364,10	316,00
3367,78	173,00
3371,46	204,00
3375,13	228,00
3378,81	173,00
3382,48	236,00
3386,14	299,00
3389,81	185,00
3393,47	320,00
3397,12	207,00
3400,78	202,00
3404,43	210,00
3408,08	130,00
3411,72	203,00
3415,36	132,00
3419,00	120,00
3422,64	274,00
3426,27	191,00
3429,90	199,00
3433,53	283,00
3437,15	197,00
3440,77	150,00
3444,39	343,00
3448,00	161,00
3451,62	130,00
3455,22	136,00
3458,83	158,00
3462,43	220,00
3466,03	233,00
3469,63	179,00
3473,22	119,00
3476,81	162,00
3480,40	186,00
3483,99	75,00
3487,57	225,00
3491,15	163,00
3494,72	195,00
3498,29	173,00
3501,86	76,00
3505,43	288,00
3508,99	40,00
3512,56	169,00
3516,11	267,00
3519,67	126,00
3523,22	227,00
3526,77	202,00
3530,32	235,00
3533,86	168,00
3537,40	333,00
3540,94	284,00
3544,47	150,00
3548,00	221,00
3551,53	170,00
3555,06	211,00
3558,58	171,00
3562,10	238,00
3565,62	149,00
3569,13	205,00
3572,64	207,00
3576,15	157,00
3579,66	211,00
3583,16	304,00
3586,66	187,00
3590,16	155,00
3593,65	96,00
3597,14	304,00
3600,63	234,00
3604,11	138,00
3607,60	227,00
3611,08	219,00
3614,55	204,00
3618,03	157,00
3621,50	167,00
3624,97	158,00
3628,43	204,00
3631,90	91,00
3635,36	72,00
3638,81	171,00
3642,27	178,00
3645,72	219,00
3649,17	148,00
3652,61	107,00
3656,06	144,00
3659,50	198,00
3662,93	130,00
3666,37	175,00
3669,80	179,00
3673,23	105,00
3676,65	158,00
3680,08	150,00
3683,50	194,00
3686,92	267,00
3690,33	185,00
3693,74	174,00
3697,15	81,00
3700,56	177,00
3703,96	15,00
3707,36	147,00
3710,76	192,00
3714,16	168,00
3717,55	255,00
3720,94	133,00
3724,33	97,00
3727,71	211,00
3731,10	290,00
3734,48	58,00
3737,85	121,00
3741,23	193,00
3744,60	141,00
3747,97	142,00
3751,33	201,00
3754,69	189,00
3758,05	264,00
3761,41	131,00
3764,77	69,00
3768,12	121,00
3771,47	183,00
3774,82	171,00
3778,16	2,00
3781,50	1,00
3784,84	-2,00
3788,18	4,00
>>>>>End Processed Spectral Data<<<<<
