SpectraSuite Data File
++++++++++++++++++++++++++++++++++++
Date: Mon Mar 09 16:20:09 ICT 2026
User: Administrator
Dark Spectrum Present: Yes
Reference Spectrum Present: No
Number of Sampled Component Spectra: 1
Spectrometers: MAYP113682
Integration Time (usec): 3000000 (MAYP113682)
Spectra Averaged: 1 (MAYP113682)
Boxcar Smoothing: 0 (MAYP113682)
Correct for Electrical Dark: No (MAYP113682)
Strobe/Lamp Enabled: No (MAYP113682)
Correct for Detector Non-linearity: No (MAYP113682)
Correct for Stray Light: No (MAYP113682)
Number of Pixels in Processed Spectrum: 2068
>>>>>Begin Processed Spectral Data<<<<<
-37534,58	0,00
-37414,56	0,00
-37295,11	-6,00
-37176,24	-1,00
-37057,95	12,00
-36940,22	16,00
-36823,05	120,00
-36706,45	13,00
-36590,40	118,00
-36474,90	103,00
-36359,95	105,00
-36245,55	76,00
-36131,68	134,00
-36018,35	100,00
-35905,55	28,00
-35793,29	-14,00
-35681,54	2,00
-35570,32	21,00
-35459,62	-67,00
-35349,43	-23,00
-35239,75	17,00
-35130,58	90,00
-35021,91	47,00
-34913,74	77,00
-34806,07	21,00
-34698,89	23,00
-34592,20	-30,00
-34486,00	149,00
-34380,28	99,00
-34275,04	15,00
-34170,27	71,00
-34065,98	35,00
-33962,16	39,00
-33858,81	94,00
-33755,92	198,00
-33653,49	56,00
-33551,52	23,00
-33450,01	132,00
-33348,94	53,00
-33248,33	-33,00
-33148,16	19,00
-33048,43	83,00
-32949,14	54,00
-32850,29	159,00
-32751,87	-34,00
-32653,89	16,00
-32556,33	3,00
-32459,20	124,00
-32362,49	172,00
-32266,19	33,00
-32170,32	92,00
-32074,86	-28,00
-31979,82	-64,00
-31885,18	98,00
-31790,95	7,00
-31697,12	1,00
-31603,69	154,00
-31510,67	48,00
-31418,04	92,00
-31325,80	51,00
-31233,95	206,00
-31142,49	-38,00
-31051,42	65,00
-30960,73	91,00
-30870,43	91,00
-30780,50	86,00
-30690,95	22,00
-30601,77	164,00
-30512,97	166,00
-30424,53	96,00
-30336,46	96,00
-30248,76	-24,00
-30161,42	63,00
-30074,44	75,00
-29987,81	138,00
-29901,55	8,00
-29815,63	66,00
-29730,07	39,00
-29644,86	74,00
-29560,00	-15,00
-29475,48	69,00
-29391,30	85,00
-29307,47	-45,00
-29223,97	44,00
-29140,81	70,00
-29057,99	178,00
-28975,50	75,00
-28893,34	103,00
-28811,51	85,00
-28730,00	77,00
-28648,82	62,00
-28567,97	84,00
-28487,43	89,00
-28407,21	-5,00
-28327,32	87,00
-28247,73	126,00
-28168,46	71,00
-28089,50	-12,00
-28010,85	-66,00
-27932,51	103,00
-27854,48	36,00
-27776,75	37,00
-27699,32	80,00
-27622,19	156,00
-27545,37	-24,00
-27468,84	78,00
-27392,60	-40,00
-27316,66	6,00
-27241,01	132,00
-27165,66	4,00
-27090,59	22,00
-27015,81	112,00
-26941,31	20,00
-26867,10	-30,00
-26793,17	-84,00
-26719,52	-42,00
-26646,15	10,00
-26573,06	32,00
-26500,24	23,00
-26427,70	98,00
-26355,43	84,00
-26283,43	-29,00
-26211,71	36,00
-26140,25	92,00
-26069,06	46,00
-25998,13	176,00
-25927,46	-38,00
-25857,06	117,00
-25786,92	99,00
-25717,04	70,00
-25647,42	184,00
-25578,05	114,00
-25508,94	57,00
-25440,09	40,00
-25371,48	-35,00
-25303,13	117,00
-25235,02	81,00
-25167,17	-13,00
-25099,56	15,00
-25032,19	65,00
-24965,07	87,00
-24898,20	77,00
-24831,56	-11,00
-24765,17	63,00
-24699,01	104,00
-24633,10	23,00
-24567,41	106,00
-24501,97	107,00
-24436,75	78,00
-24371,77	142,00
-24307,03	-59,00
-24242,51	17,00
-24178,22	28,00
-24114,16	45,00
-24050,32	129,00
-23986,71	149,00
-23923,32	70,00
-23860,16	-18,00
-23797,22	220,00
-23734,50	30,00
-23672,00	-47,00
-23609,71	107,00
-23547,65	-28,00
-23485,80	107,00
-23424,16	40,00
-23362,74	66,00
-23301,53	-47,00
-23240,54	32,00
-23179,75	135,00
-23119,17	97,00
-23058,80	92,00
-22998,64	68,00
-22938,68	72,00
-22878,93	-3,00
-22819,39	69,00
-22760,04	-51,00
-22700,90	-61,00
-22641,96	-46,00
-22583,22	90,00
-22524,68	86,00
-22466,33	48,00
-22408,19	96,00
-22350,23	37,00
-22292,48	93,00
-22234,92	143,00
-22177,55	28,00
-22120,37	56,00
-22063,38	88,00
-22006,58	61,00
-21949,98	58,00
-21893,56	39,00
-21837,33	-35,00
-21781,28	36,00
-21725,42	81,00
-21669,74	107,00
-21614,25	2,00
-21558,94	98,00
-21503,81	46,00
-21448,86	-1,00
-21394,10	43,00
-21339,51	27,00
-21285,10	85,00
-21230,86	83,00
-21176,81	22,00
-21122,93	-14,00
-21069,22	31,00
-21015,69	61,00
-20962,33	152,00
-20909,14	117,00
-20856,13	-6,00
-20803,28	-30,00
-20750,61	-12,00
-20698,10	-63,00
-20645,76	24,00
-20593,59	91,00
-20541,59	81,00
-20489,75	-43,00
-20438,07	73,00
-20386,56	61,00
-20335,22	128,00
-20284,03	21,00
-20233,01	6,00
-20182,15	-13,00
-20131,45	-51,00
-20080,91	2,00
-20030,52	-8,00
-19980,30	37,00
-19930,23	26,00
-19880,32	67,00
-19830,56	33,00
-19780,96	98,00
-19731,52	68,00
-19682,23	80,00
-19633,09	51,00
-19584,10	24,00
-19535,26	123,00
-19486,58	61,00
-19438,04	-10,00
-19389,66	76,00
-19341,42	-63,00
-19293,33	60,00
-19245,39	77,00
-19197,60	226,00
-19149,95	52,00
-19102,45	94,00
-19055,09	98,00
-19007,87	69,00
-18960,80	231,00
-18913,87	15,00
-18867,09	33,00
-18820,44	1,00
-18773,94	52,00
-18727,57	-4,00
-18681,35	71,00
-18635,26	56,00
-18589,31	55,00
-18543,50	-9,00
-18497,83	-29,00
-18452,29	53,00
-18406,89	-23,00
-18361,63	82,00
-18316,50	144,00
-18271,50	143,00
-18226,63	9,00
-18181,90	105,00
-18137,30	183,00
-18092,84	41,00
-18048,50	150,00
-18004,29	18,00
-17960,22	5,00
-17916,27	96,00
-17872,45	63,00
-17828,76	153,00
-17785,20	29,00
-17741,77	138,00
-17698,46	129,00
-17655,28	10,00
-17612,22	74,00
-17569,29	67,00
-17526,48	69,00
-17483,79	49,00
-17441,23	9,00
-17398,79	54,00
-17356,48	61,00
-17314,28	-14,00
-17272,21	-4,00
-17230,26	130,00
-17188,42	133,00
-17146,71	-23,00
-17105,12	37,00
-17063,64	-10,00
-17022,28	170,00
-16981,04	57,00
-16939,92	51,00
-16898,91	69,00
-16858,02	54,00
-16817,25	91,00
-16776,59	49,00
-16736,04	-27,00
-16695,61	-14,00
-16655,29	81,00
-16615,09	190,00
-16574,99	95,00
-16535,01	51,00
-16495,15	23,00
-16455,39	108,00
-16415,74	20,00
-16376,21	23,00
-16336,78	141,00
-16297,46	48,00
-16258,26	42,00
-16219,16	36,00
-16180,17	78,00
-16141,28	148,00
-16102,51	36,00
-16063,84	-46,00
-16025,27	48,00
-15986,82	118,00
-15948,46	-78,00
-15910,22	58,00
-15872,07	87,00
-15834,04	52,00
-15796,10	49,00
-15758,27	178,00
-15720,54	34,00
-15682,91	85,00
-15645,39	91,00
-15607,97	-18,00
-15570,64	21,00
-15533,42	-34,00
-15496,30	114,00
-15459,28	141,00
-15422,36	-9,00
-15385,54	-3,00
-15348,82	3,00
-15312,19	-14,00
-15275,66	-8,00
-15239,23	183,00
-15202,90	23,00
-15166,67	41,00
-15130,53	62,00
-15094,48	19,00
-15058,54	65,00
-15022,68	-6,00
-14986,93	164,00
-14951,26	41,00
-14915,69	82,00
-14880,22	67,00
-14844,84	2,00
-14809,55	0,00
-14774,35	153,00
-14739,25	-29,00
-14704,24	40,00
-14669,32	9,00
-14634,49	148,00
-14599,75	119,00
-14565,10	39,00
-14530,55	-40,00
-14496,08	115,00
-14461,70	44,00
-14427,41	59,00
-14393,21	43,00
-14359,10	103,00
-14325,07	-20,00
-14291,14	110,00
-14257,29	-28,00
-14223,52	12,00
-14189,85	70,00
-14156,26	67,00
-14122,76	93,00
-14089,34	111,00
-14056,01	91,00
-14022,76	45,00
-13989,60	-10,00
-13956,52	63,00
-13923,53	-19,00
-13890,62	57,00
-13857,79	-19,00
-13825,05	121,00
-13792,39	57,00
-13759,81	-31,00
-13727,31	37,00
-13694,90	49,00
-13662,57	-6,00
-13630,31	30,00
-13598,14	-34,00
-13566,05	89,00
-13534,05	159,00
-13502,12	-27,00
-13470,27	16,00
-13438,50	24,00
-13406,80	-28,00
-13375,19	114,00
-13343,66	-53,00
-13312,20	62,00
-13280,83	19,00
-13249,53	74,00
-13218,30	92,00
-13187,16	76,00
-13156,09	-23,00
-13125,10	58,00
-13094,18	127,00
-13063,34	86,00
-13032,58	21,00
-13001,89	59,00
-12971,28	9,00
-12940,74	189,00
-12910,27	61,00
-12879,88	12,00
-12849,57	120,00
-12819,33	78,00
-12789,16	-53,00
-12759,06	74,00
-12729,04	78,00
-12699,09	194,00
-12669,21	-10,00
-12639,41	-9,00
-12609,68	108,00
-12580,02	20,00
-12550,43	4,00
-12520,91	41,00
-12491,46	61,00
-12462,08	19,00
-12432,77	-25,00
-12403,54	-24,00
-12374,37	133,00
-12345,27	112,00
-12316,24	39,00
-12287,29	-3,00
-12258,40	66,00
-12229,57	90,00
-12200,82	44,00
-12172,14	6,00
-12143,52	39,00
-12114,97	117,00
-12086,49	40,00
-12058,07	-43,00
-12029,73	88,00
-12001,44	36,00
-11973,23	36,00
-11945,08	68,00
-11917,00	122,00
-11888,98	75,00
-11861,03	131,00
-11833,15	-22,00
-11805,32	228,00
-11777,57	114,00
-11749,88	108,00
-11722,25	25,00
-11694,69	121,00
-11667,19	-28,00
-11639,75	60,00
-11612,38	-47,00
-11585,07	20,00
-11557,83	44,00
-11530,65	20,00
-11503,53	22,00
-11476,47	99,00
-11449,48	82,00
-11422,54	87,00
-11395,67	55,00
-11368,86	-10,00
-11342,11	26,00
-11315,43	5,00
-11288,80	59,00
-11262,23	147,00
-11235,73	52,00
-11209,28	15,00
-11182,90	93,00
-11156,57	126,00
-11130,31	128,00
-11104,10	0,00
-11077,96	9,00
-11051,87	80,00
-11025,84	123,00
-10999,87	-20,00
-10973,96	149,00
-10948,11	4,00
-10922,31	144,00
-10896,58	12,00
-10870,90	79,00
-10845,28	138,00
-10819,71	3,00
-10794,20	-2,00
-10768,75	119,00
-10743,36	37,00
-10718,02	149,00
-10692,74	97,00
-10667,52	116,00
-10642,35	133,00
-10617,24	67,00
-10592,18	113,00
-10567,18	137,00
-10542,23	202,00
-10517,34	189,00
-10492,51	35,00
-10467,72	251,00
-10443,00	111,00
-10418,32	86,00
-10393,70	-14,00
-10369,14	99,00
-10344,63	20,00
-10320,17	207,00
-10295,77	185,00
-10271,42	-6,00
-10247,12	119,00
-10222,88	99,00
-10198,68	165,00
-10174,54	147,00
-10150,46	45,00
-10126,42	162,00
-10102,44	94,00
-10078,51	143,00
-10054,63	178,00
-10030,80	123,00
-10007,03	171,00
-9983,30	36,00
-9959,63	122,00
-9936,01	270,00
-9912,44	175,00
-9888,92	69,00
-9865,44	185,00
-9842,02	6,00
-9818,65	356,00
-9795,33	255,00
-9772,06	98,00
-9748,84	213,00
-9725,67	245,00
-9702,55	282,00
-9679,47	258,00
-9656,45	313,00
-9633,47	424,00
-9610,55	341,00
-9587,67	242,00
-9564,84	477,00
-9542,06	449,00
-9519,32	520,00
-9496,64	525,00
-9474,00	603,00
-9451,41	628,00
-9428,87	555,00
-9406,37	643,00
-9383,92	463,00
-9361,52	583,00
-9339,17	395,00
-9316,86	592,00
-9294,60	754,00
-9272,38	881,00
-9250,21	868,00
-9228,09	812,00
-9206,01	810,00
-9183,98	861,00
-9162,00	655,00
-9140,06	682,00
-9118,16	743,00
-9096,31	780,00
-9074,51	890,00
-9052,75	749,00
-9031,04	829,00
-9009,37	690,00
-8987,74	643,00
-8966,16	517,00
-8944,63	401,00
-8923,14	368,00
-8901,69	412,00
-8880,29	678,00
-8858,93	755,00
-8837,61	810,00
-8816,34	968,00
-8795,11	738,00
-8773,92	739,00
-8752,78	583,00
-8731,68	671,00
-8710,62	495,00
-8689,61	714,00
-8668,63	783,00
-8647,70	678,00
-8626,82	751,00
-8605,97	649,00
-8585,17	641,00
-8564,41	594,00
-8543,69	622,00
-8523,01	391,00
-8502,37	612,00
-8481,78	624,00
-8461,23	683,00
-8440,71	699,00
-8420,24	688,00
-8399,81	758,00
-8379,42	834,00
-8359,08	708,00
-8338,77	660,00
-8318,50	571,00
-8298,27	445,00
-8278,09	489,00
-8257,94	533,00
-8237,83	787,00
-8217,76	813,00
-8197,74	753,00
-8177,75	696,00
-8157,80	625,00
-8137,89	667,00
-8118,02	605,00
-8098,19	593,00
-8078,40	569,00
-8058,65	582,00
-8038,93	772,00
-8019,26	583,00
-7999,62	595,00
-7980,02	400,00
-7960,46	545,00
-7940,94	552,00
-7921,46	423,00
-7902,01	447,00
-7882,60	541,00
-7863,23	518,00
-7843,90	474,00
-7824,61	478,00
-7805,35	666,00
-7786,13	706,00
-7766,95	560,00
-7747,80	553,00
-7728,69	538,00
-7709,62	530,00
-7690,59	611,00
-7671,59	645,00
-7652,63	612,00
-7633,70	723,00
-7614,81	506,00
-7595,96	654,00
-7577,15	437,00
-7558,37	493,00
-7539,62	432,00
-7520,91	597,00
-7502,24	548,00
-7483,60	559,00
-7465,00	489,00
-7446,44	414,00
-7427,91	362,00
-7409,41	408,00
-7390,95	418,00
-7372,53	418,00
-7354,14	348,00
-7335,78	164,00
-7317,46	364,00
-7299,18	437,00
-7280,92	463,00
-7262,71	425,00
-7244,52	559,00
-7226,38	609,00
-7208,26	657,00
-7190,18	563,00
-7172,14	528,00
-7154,12	374,00
-7136,15	403,00
-7118,20	509,00
-7100,29	497,00
-7082,41	566,00
-7064,57	581,00
-7046,76	420,00
-7028,98	353,00
-7011,24	430,00
-6993,53	212,00
-6975,85	189,00
-6958,20	197,00
-6940,59	187,00
-6923,01	295,00
-6905,46	230,00
-6887,94	381,00
-6870,46	474,00
-6853,01	507,00
-6835,59	500,00
-6818,21	362,00
-6800,85	347,00
-6783,53	303,00
-6766,24	75,00
-6748,98	91,00
-6731,76	148,00
-6714,56	86,00
-6697,40	287,00
-6680,26	129,00
-6663,16	258,00
-6646,09	210,00
-6629,05	336,00
-6612,05	370,00
-6595,07	426,00
-6578,13	301,00
-6561,21	246,00
-6544,33	148,00
-6527,47	191,00
-6510,65	42,00
-6493,86	44,00
-6477,10	159,00
-6460,36	97,00
-6443,66	261,00
-6426,99	185,00
-6410,35	169,00
-6393,74	213,00
-6377,16	206,00
-6360,61	190,00
-6344,09	218,00
-6327,59	323,00
-6311,13	259,00
-6294,70	149,00
-6278,29	343,00
-6261,92	430,00
-6245,58	328,00
-6229,26	390,00
-6212,97	381,00
-6196,72	163,00
-6180,49	110,00
-6164,29	55,00
-6148,12	57,00
-6131,98	-15,00
-6115,86	139,00
-6099,78	85,00
-6083,72	57,00
-6067,69	57,00
-6051,69	143,00
-6035,72	134,00
-6019,78	163,00
-6003,87	150,00
-5987,98	223,00
-5972,12	344,00
-5956,29	279,00
-5940,49	366,00
-5924,71	179,00
-5908,96	50,00
-5893,24	72,00
-5877,55	86,00
-5861,89	111,00
-5846,25	21,00
-5830,64	43,00
-5815,05	76,00
-5799,50	156,00
-5783,97	132,00
-5768,47	236,00
-5752,99	228,00
-5737,55	232,00
-5722,12	225,00
-5706,73	372,00
-5691,36	286,00
-5676,02	181,00
-5660,71	125,00
-5645,42	148,00
-5630,16	99,00
-5614,92	111,00
-5599,71	56,00
-5584,53	72,00
-5569,37	178,00
-5554,24	1244,00
-5539,14	112,00
-5524,06	80,00
-5509,01	179,00
-5493,98	64,00
-5478,98	149,00
-5464,00	149,00
-5449,05	63,00
-5434,13	81,00
-5419,23	68,00
-5404,36	140,00
-5389,51	259,00
-5374,69	242,00
-5359,89	166,00
-5345,12	304,00
-5330,37	358,00
-5315,65	140,00
-5300,95	260,00
-5286,28	82,00
-5271,63	191,00
-5257,01	121,00
-5242,41	119,00
-5227,84	10,00
-5213,29	57,00
-5198,76	36,00
-5184,26	40,00
-5169,79	111,00
-5155,33	200,00
-5140,91	151,00
-5126,51	253,00
-5112,13	230,00
-5097,77	134,00
-5083,44	86,00
-5069,13	-39,00
-5054,85	150,00
-5040,59	176,00
-5026,36	142,00
-5012,15	181,00
-4997,96	89,00
-4983,80	45,00
-4969,66	78,00
-4955,54	143,00
-4941,44	167,00
-4927,37	187,00
-4913,33	350,00
-4899,30	233,00
-4885,30	357,00
-4871,33	235,00
-4857,37	86,00
-4843,44	92,00
-4829,53	89,00
-4815,65	161,00
-4801,79	163,00
-4787,95	65,00
-4774,13	195,00
-4760,34	209,00
-4746,56	62,00
-4732,82	94,00
-4719,09	121,00
-4705,38	157,00
-4691,70	247,00
-4678,04	191,00
-4664,41	163,00
-4650,79	176,00
-4637,20	69,00
-4623,63	70,00
-4610,08	69,00
-4596,56	177,00
-4583,05	196,00
-4569,57	125,00
-4556,11	167,00
-4542,67	143,00
-4529,25	138,00
-4515,86	102,00
-4502,49	218,00
-4489,13	213,00
-4475,80	293,00
-4462,49	168,00
-4449,21	79,00
-4435,94	184,00
-4422,70	107,00
-4409,47	134,00
-4396,27	161,00
-4383,09	56,00
-4369,93	50,00
-4356,79	46,00
-4343,67	91,00
-4330,58	44,00
-4317,50	85,00
-4304,45	98,00
-4291,41	50,00
-4278,40	4,00
-4265,41	79,00
-4252,44	199,00
-4239,49	202,00
-4226,55	147,00
-4213,65	62,00
-4200,76	86,00
-4187,89	42,00
-4175,04	132,00
-4162,21	180,00
-4149,40	50,00
-4136,61	160,00
-4123,85	63,00
-4111,10	14,00
-4098,37	-20,00
-4085,66	162,00
-4072,98	262,00
-4060,31	34,00
-4047,66	79,00
-4035,04	51,00
-4022,43	169,00
-4009,84	220,00
-3997,27	23,00
-3984,72	106,00
-3972,19	74,00
-3959,69	66,00
-3947,20	7,00
-3934,73	-6,00
-3922,27	105,00
-3909,84	48,00
-3897,43	111,00
-3885,04	50,00
-3872,67	-65,00
-3860,31	-51,00
-3847,98	190,00
-3835,66	-47,00
-3823,36	31,00
-3811,09	-50,00
-3798,83	122,00
-3786,59	37,00
-3774,37	130,00
-3762,17	188,00
-3749,98	41,00
-3737,82	-1,00
-3725,67	62,00
-3713,55	-11,00
-3701,44	77,00
-3689,35	108,00
-3677,28	67,00
-3665,22	103,00
-3653,19	-4,00
-3641,17	133,00
-3629,18	80,00
-3617,20	-13,00
-3605,24	148,00
-3593,30	-113,00
-3581,37	78,00
-3569,47	59,00
-3557,58	57,00
-3545,71	27,00
-3533,86	38,00
-3522,02	-5,00
-3510,21	101,00
-3498,41	29,00
-3486,63	117,00
-3474,87	34,00
-3463,12	153,00
-3451,40	111,00
-3439,69	160,00
-3428,00	188,00
-3416,33	72,00
-3404,67	57,00
-3393,03	45,00
-3381,41	-56,00
-3369,81	15,00
-3358,22	100,00
-3346,66	120,00
-3335,10	-6,00
-3323,57	116,00
-3312,06	131,00
-3300,56	26,00
-3289,08	101,00
-3277,61	40,00
-3266,16	99,00
-3254,73	108,00
-3243,32	19,00
-3231,92	61,00
-3220,55	-2,00
-3209,18	14,00
-3197,84	171,00
-3186,51	80,00
-3175,20	174,00
-3163,90	-7,00
-3152,63	62,00
-3141,36	-24,00
-3130,12	36,00
-3118,89	4,00
-3107,68	125,00
-3096,49	22,00
-3085,31	25,00
-3074,15	8,00
-3063,00	-59,00
-3051,87	67,00
-3040,76	7,00
-3029,67	43,00
-3018,59	-53,00
-3007,52	55,00
-2996,48	20,00
-2985,44	122,00
-2974,43	-15,00
-2963,43	67,00
-2952,45	62,00
-2941,48	81,00
-2930,53	-25,00
-2919,60	128,00
-2908,68	19,00
-2897,78	75,00
-2886,89	84,00
-2876,02	124,00
-2865,17	202,00
-2854,33	83,00
-2843,50	15,00
-2832,70	151,00
-2821,90	26,00
-2811,13	23,00
-2800,37	-12,00
-2789,62	57,00
-2778,89	265,00
-2768,18	112,00
-2757,48	100,00
-2746,80	49,00
-2736,13	42,00
-2725,48	101,00
-2714,84	15,00
-2704,22	92,00
-2693,61	-70,00
-2683,02	-13,00
-2672,45	176,00
-2661,89	33,00
-2651,34	-87,00
-2640,81	88,00
-2630,30	107,00
-2619,80	118,00
-2609,31	87,00
-2598,84	8,00
-2588,39	68,00
-2577,95	99,00
-2567,52	112,00
-2557,11	4,00
-2546,71	83,00
-2536,33	211,00
-2525,97	62,00
-2515,62	12,00
-2505,28	154,00
-2494,96	-1,00
-2484,65	8,00
-2474,36	417,00
-2464,08	105,00
-2453,82	70,00
-2443,57	84,00
-2433,33	80,00
-2423,11	119,00
-2412,91	75,00
-2402,72	156,00
-2392,54	133,00
-2382,38	50,00
-2372,23	82,00
-2362,09	571,00
-2351,97	-15,00
-2341,87	76,00
-2331,78	-64,00
-2321,70	-128,00
-2311,64	136,00
-2301,59	107,00
-2291,55	-15,00
-2281,53	28,00
-2271,53	-95,00
-2261,53	114,00
-2251,55	133,00
-2241,59	92,00
-2231,64	24,00
-2221,70	36,00
-2211,78	67,00
-2201,87	110,00
-2191,97	-21,00
-2182,09	51,00
-2172,22	94,00
-2162,37	73,00
-2152,53	75,00
-2142,70	46,00
-2132,89	26,00
-2123,09	41,00
-2113,30	121,00
-2103,53	46,00
-2093,77	135,00
-2084,02	40,00
-2074,29	-3,00
-2064,57	105,00
-2054,86	129,00
-2045,17	8,00
-2035,49	-47,00
-2025,82	-28,00
-2016,17	-14,00
-2006,53	24,00
-1996,91	135,00
-1987,29	152,00
-1977,69	58,00
-1968,11	32,00
-1958,53	78,00
-1948,97	-74,00
-1939,42	151,00
-1929,89	-50,00
-1920,37	84,00
-1910,86	81,00
-1901,36	118,00
-1891,88	72,00
-1882,41	31,00
-1872,95	74,00
-1863,51	-62,00
-1854,08	40,00
-1844,66	164,00
-1835,26	52,00
-1825,86	107,00
-1816,48	-54,00
-1807,11	25,00
-1797,76	38,00
-1788,42	11,00
-1779,09	203,00
-1769,77	-3,00
-1760,47	22,00
-1751,17	66,00
-1741,89	-3,00
-1732,63	104,00
-1723,37	283,00
-1714,13	-39,00
-1704,90	99,00
-1695,68	30,00
-1686,48	31,00
-1677,29	124,00
-1668,11	164,00
-1658,94	124,00
-1649,78	52,00
-1640,64	126,00
-1631,51	32,00
-1622,39	206,00
-1613,28	11,00
-1604,19	-45,00
-1595,10	24,00
-1586,03	66,00
-1576,97	-22,00
-1567,93	85,00
-1558,89	-20,00
-1549,87	41,00
-1540,86	10,00
-1531,86	53,00
-1522,87	59,00
-1513,90	183,00
-1504,93	-125,00
-1495,98	127,00
-1487,04	196,00
-1478,12	50,00
-1469,20	77,00
-1460,30	-24,00
-1451,40	93,00
-1442,52	134,00
-1433,65	22,00
-1424,80	148,00
-1415,95	1,00
-1407,12	-45,00
-1398,30	100,00
-1389,48	137,00
-1380,69	117,00
-1371,90	73,00
-1363,12	133,00
-1354,36	-46,00
-1345,60	71,00
-1336,86	35,00
-1328,13	36,00
-1319,41	-49,00
-1310,70	191,00
-1302,01	53,00
-1293,32	-48,00
-1284,65	126,00
-1275,99	60,00
-1267,33	104,00
-1258,69	122,00
-1250,06	98,00
-1241,45	131,00
-1232,84	45,00
-1224,25	110,00
-1215,66	61,00
-1207,09	12,00
-1198,53	50,00
-1189,97	165,00
-1181,43	43,00
-1172,91	112,00
-1164,39	138,00
-1155,88	125,00
-1147,38	61,00
-1138,90	-25,00
-1130,43	73,00
-1121,96	99,00
-1113,51	38,00
-1105,07	119,00
-1096,64	124,00
-1088,22	176,00
-1079,81	228,00
-1071,41	98,00
-1063,02	105,00
-1054,65	167,00
-1046,28	130,00
-1037,92	41,00
-1029,58	171,00
-1021,24	92,00
-1012,92	48,00
-1004,61	3,00
-996,30	163,00
-988,01	-9,00
-979,73	124,00
-971,46	216,00
-963,20	-40,00
-954,95	-4,00
-946,71	51,00
-938,48	-50,00
-930,26	32,00
-922,06	110,00
-913,86	51,00
-905,67	13,00
-897,49	-31,00
-889,33	7,00
-881,17	7,00
-873,02	-30,00
-864,89	123,00
-856,76	202,00
-848,65	110,00
-840,54	106,00
-832,45	32,00
-824,36	96,00
-816,29	27,00
-808,22	112,00
-800,17	-82,00
-792,12	171,00
-784,09	112,00
-776,06	9,00
-768,05	64,00
-760,04	88,00
-752,05	73,00
-744,07	23,00
-736,09	-23,00
-728,13	69,00
-720,17	54,00
-712,23	87,00
-704,29	86,00
-696,37	169,00
-688,45	113,00
-680,55	131,00
-672,65	107,00
-664,77	225,00
-656,89	56,00
-649,03	32,00
-641,17	90,00
-633,32	44,00
-625,49	134,00
-617,66	119,00
-609,84	-81,00
-602,03	148,00
-594,23	27,00
-586,45	44,00
-578,67	34,00
-570,90	37,00
-563,14	60,00
-555,39	39,00
-547,65	114,00
-539,91	112,00
-532,19	72,00
-524,48	134,00
-516,78	98,00
-509,08	82,00
-501,40	34,00
-493,72	32,00
-486,06	35,00
-478,40	131,00
-470,76	-37,00
-463,12	191,00
-455,49	-3,00
-447,87	77,00
-440,26	71,00
-432,66	50,00
-425,07	-47,00
-417,49	104,00
-409,92	47,00
-402,35	167,00
-394,80	65,00
-387,25	30,00
-379,72	-52,00
-372,19	129,00
-364,67	174,00
-357,17	140,00
-349,67	-2,00
-342,18	11,00
-334,69	16,00
-327,22	71,00
-319,76	71,00
-312,30	164,00
-304,86	173,00
-297,42	131,00
-290,00	32,00
-282,58	35,00
-275,17	149,00
-267,77	127,00
-260,37	195,00
-252,99	174,00
-245,62	6,00
-238,25	142,00
-230,90	85,00
-223,55	52,00
-216,21	144,00
-208,88	162,00
-201,56	220,00
-194,25	106,00
-186,94	228,00
-179,65	216,00
-172,36	324,00
-165,08	345,00
-157,81	144,00
-150,55	291,00
-143,30	228,00
-136,06	390,00
-128,82	384,00
-121,60	420,00
-114,38	429,00
-107,17	482,00
-99,97	532,00
-92,78	554,00
-85,60	604,00
-78,42	887,00
-71,25	847,00
-64,10	1082,00
-56,95	1261,00
-49,81	1463,00
-42,67	1797,00
-35,55	2224,00
-28,43	3026,00
-21,33	4992,00
-14,23	16523,00
-7,14	55164,00
-0,05	54791,00
7,02	54542,00
14,09	54694,00
21,14	14824,00
28,19	6268,00
35,23	3719,00
42,27	2904,00
49,29	2451,00
56,31	1999,00
63,32	1641,00
70,32	1316,00
77,31	1219,00
84,29	1018,00
91,27	1028,00
98,23	810,00
105,19	877,00
112,14	1026,00
119,09	1183,00
126,02	1648,00
132,95	2030,00
139,87	2049,00
146,78	2095,00
153,68	1857,00
160,58	1848,00
167,46	1961,00
174,34	1885,00
181,21	1963,00
188,08	1881,00
194,93	1721,00
201,78	1765,00
208,62	1802,00
215,45	1903,00
222,27	1843,00
229,09	1740,00
235,90	1695,00
242,70	1655,00
249,49	1763,00
256,27	1707,00
263,05	1688,00
269,82	1674,00
276,58	1535,00
283,33	1659,00
290,08	1626,00
296,82	1619,00
303,55	1508,00
310,27	1582,00
316,98	1548,00
323,69	1658,00
330,39	1497,00
337,08	1456,00
343,76	1499,00
350,44	1569,00
357,11	1602,00
363,77	1457,00
370,42	1542,00
377,07	1419,00
383,71	1560,00
390,34	1434,00
396,96	1333,00
403,58	1507,00
410,19	1464,00
416,79	1445,00
423,38	1497,00
429,97	1391,00
436,55	1488,00
443,12	1320,00
449,68	1279,00
456,24	1316,00
462,79	1200,00
469,33	1238,00
475,86	1189,00
482,39	1216,00
488,91	1329,00
495,42	1255,00
501,93	1361,00
508,42	1266,00
514,91	1347,00
521,40	1293,00
527,87	1218,00
534,34	1213,00
540,80	1198,00
547,25	1165,00
553,70	1195,00
560,14	1122,00
566,57	1205,00
573,00	1208,00
579,41	1182,00
585,83	1073,00
592,23	1056,00
598,62	1138,00
605,01	1068,00
611,40	1172,00
617,77	1174,00
624,14	1079,00
630,50	1053,00
636,85	1070,00
643,20	1056,00
649,54	1057,00
655,87	996,00
662,20	1017,00
668,52	1025,00
674,83	1083,00
681,13	1056,00
687,43	899,00
693,72	968,00
700,00	948,00
706,28	1068,00
712,55	1022,00
718,81	1004,00
725,07	1049,00
731,32	992,00
737,56	1074,00
743,79	1035,00
750,02	1069,00
756,24	1026,00
762,46	983,00
768,67	973,00
774,87	959,00
781,06	905,00
787,25	1000,00
793,43	1057,00
799,60	954,00
805,77	885,00
811,93	1113,00
818,08	946,00
824,23	1111,00
830,37	971,00
836,50	1047,00
842,63	886,00
848,75	894,00
854,87	980,00
860,97	1035,00
867,07	1063,00
873,17	1054,00
879,25	924,00
885,33	1031,00
891,41	1046,00
897,47	931,00
903,53	1062,00
909,59	1017,00
915,63	985,00
921,67	879,00
927,71	891,00
933,74	909,00
939,76	930,00
945,77	783,00
951,78	927,00
957,78	801,00
963,78	883,00
969,77	820,00
975,75	840,00
981,72	943,00
987,69	815,00
993,66	738,00
999,61	802,00
1005,56	891,00
1011,51	878,00
1017,44	805,00
1023,37	893,00
1029,30	822,00
1035,22	1010,00
1041,13	1023,00
1047,03	918,00
1052,93	991,00
1058,83	1259,00
1064,71	1266,00
1070,59	1212,00
1076,47	1116,00
1082,33	935,00
1088,20	945,00
1094,05	889,00
1099,90	821,00
1105,74	845,00
1111,58	838,00
1117,41	822,00
1123,23	1146,00
1129,05	1232,00
1134,86	1121,00
1140,67	957,00
1146,47	898,00
1152,26	838,00
1158,05	790,00
1163,83	869,00
1169,60	802,00
1175,37	733,00
1181,13	883,00
1186,89	996,00
1192,64	802,00
1198,38	822,00
1204,12	748,00
1209,85	825,00
1215,58	907,00
1221,30	687,00
1227,02	840,00
1232,72	862,00
1238,43	752,00
1244,12	913,00
1249,81	828,00
1255,50	891,00
1261,17	793,00
1266,85	905,00
1272,51	944,00
1278,17	874,00
1283,83	980,00
1289,47	1145,00
1295,12	1499,00
1300,75	1348,00
1306,38	1171,00
1312,01	1076,00
1317,63	949,00
1323,24	867,00
1328,85	1005,00
1334,45	967,00
1340,04	878,00
1345,63	901,00
1351,22	943,00
1356,80	1047,00
1362,37	863,00
1367,93	886,00
1373,49	970,00
1379,05	891,00
1384,60	903,00
1390,14	972,00
1395,68	942,00
1401,21	797,00
1406,74	907,00
1412,26	984,00
1417,77	984,00
1423,28	1100,00
1428,78	1178,00
1434,28	1276,00
1439,77	1542,00
1445,26	1357,00
1450,74	1409,00
1456,22	1379,00
1461,68	1287,00
1467,15	1207,00
1472,61	978,00
1478,06	916,00
1483,51	934,00
1488,95	883,00
1494,38	846,00
1499,81	808,00
1505,24	746,00
1510,65	725,00
1516,07	867,00
1521,48	743,00
1526,88	747,00
1532,27	729,00
1537,67	822,00
1543,05	728,00
1548,43	874,00
1553,81	861,00
1559,18	732,00
1564,54	693,00
1569,90	754,00
1575,25	717,00
1580,60	741,00
1585,94	762,00
1591,28	633,00
1596,61	625,00
1601,93	649,00
1607,25	670,00
1612,57	757,00
1617,88	775,00
1623,18	695,00
1628,48	641,00
1633,77	633,00
1639,06	596,00
1644,34	655,00
1649,62	615,00
1654,89	724,00
1660,16	599,00
1665,42	613,00
1670,67	568,00
1675,92	673,00
1681,17	593,00
1686,41	674,00
1691,64	540,00
1696,87	537,00
1702,10	562,00
1707,32	587,00
1712,53	595,00
1717,74	646,00
1722,94	486,00
1728,14	612,00
1733,33	566,00
1738,52	608,00
1743,70	600,00
1748,88	598,00
1754,05	632,00
1759,22	615,00
1764,38	708,00
1769,53	553,00
1774,69	591,00
1779,83	516,00
1784,97	566,00
1790,11	469,00
1795,24	676,00
1800,36	624,00
1805,48	609,00
1810,60	513,00
1815,71	451,00
1820,82	559,00
1825,92	515,00
1831,01	607,00
1836,10	478,00
1841,19	481,00
1846,26	554,00
1851,34	508,00
1856,41	517,00
1861,47	592,00
1866,53	575,00
1871,59	436,00
1876,64	430,00
1881,68	466,00
1886,72	397,00
1891,76	528,00
1896,79	521,00
1901,81	533,00
1906,83	398,00
1911,85	446,00
1916,86	555,00
1921,86	554,00
1926,86	459,00
1931,86	514,00
1936,85	300,00
1941,83	478,00
1946,81	388,00
1951,79	545,00
1956,76	412,00
1961,72	402,00
1966,68	449,00
1971,64	339,00
1976,59	379,00
1981,54	367,00
1986,48	374,00
1991,42	428,00
1996,35	324,00
2001,27	341,00
2006,20	347,00
2011,11	498,00
2016,03	409,00
2020,93	369,00
2025,84	309,00
2030,73	346,00
2035,63	368,00
2040,52	451,00
2045,40	402,00
2050,28	423,00
2055,15	236,00
2060,02	400,00
2064,89	406,00
2069,75	383,00
2074,60	246,00
2079,46	345,00
2084,30	354,00
2089,14	345,00
2093,98	349,00
2098,81	327,00
2103,64	421,00
2108,46	370,00
2113,28	384,00
2118,09	262,00
2122,90	319,00
2127,70	196,00
2132,50	404,00
2137,30	270,00
2142,09	420,00
2146,87	329,00
2151,66	274,00
2156,43	339,00
2161,20	197,00
2165,97	319,00
2170,73	361,00
2175,49	355,00
2180,24	199,00
2184,99	493,00
2189,74	391,00
2194,48	262,00
2199,21	447,00
2203,94	302,00
2208,67	270,00
2213,39	296,00
2218,11	279,00
2222,82	335,00
2227,53	328,00
2232,23	219,00
2236,93	290,00
2241,63	282,00
2246,32	297,00
2251,00	243,00
2255,68	365,00
2260,36	185,00
2265,03	274,00
2269,70	201,00
2274,36	371,00
2279,02	300,00
2283,68	354,00
2288,33	211,00
2292,97	261,00
2297,61	208,00
2302,25	267,00
2306,88	349,00
2311,51	275,00
2316,14	153,00
2320,75	230,00
2325,37	283,00
2329,98	398,00
2334,59	357,00
2339,19	240,00
2343,79	210,00
2348,38	251,00
2352,97	214,00
2357,55	185,00
2362,13	253,00
2366,71	419,00
2371,28	223,00
2375,85	158,00
2380,41	256,00
2384,97	197,00
2389,52	88,00
2394,07	223,00
2398,62	181,00
2403,16	194,00
2407,70	302,00
2412,23	261,00
2416,76	260,00
2421,29	279,00
2425,81	227,00
2430,32	164,00
2434,84	225,00
2439,34	300,00
2443,85	224,00
2448,35	265,00
2452,84	282,00
2457,33	170,00
2461,82	273,00
2466,30	314,00
2470,78	237,00
2475,25	301,00
2479,72	235,00
2484,19	215,00
2488,65	268,00
2493,11	200,00
2497,56	307,00
2502,01	228,00
2506,46	232,00
2510,90	118,00
2515,34	369,00
2519,77	235,00
2524,20	205,00
2528,62	156,00
2533,04	250,00
2537,46	211,00
2541,87	222,00
2546,28	184,00
2550,68	274,00
2555,08	193,00
2559,48	313,00
2563,87	130,00
2568,26	169,00
2572,64	218,00
2577,02	337,00
2581,40	210,00
2585,77	152,00
2590,14	196,00
2594,50	98,00
2598,86	264,00
2603,22	175,00
2607,57	251,00
2611,92	141,00
2616,26	159,00
2620,60	217,00
2624,94	170,00
2629,27	283,00
2633,60	212,00
2637,92	226,00
2642,24	130,00
2646,56	182,00
2650,87	131,00
2655,18	176,00
2659,48	155,00
2663,78	249,00
2668,08	321,00
2672,37	197,00
2676,66	184,00
2680,95	257,00
2685,23	192,00
2689,50	279,00
2693,78	190,00
2698,05	226,00
2702,31	329,00
2706,57	180,00
2710,83	297,00
2715,08	295,00
2719,33	335,00
2723,58	229,00
2727,82	411,00
2732,06	248,00
2736,29	336,00
2740,53	210,00
2744,75	289,00
2748,97	194,00
2753,19	250,00
2757,41	282,00
2761,62	270,00
2765,83	244,00
2770,03	221,00
2774,23	197,00
2778,43	228,00
2782,62	151,00
2786,81	258,00
2791,00	139,00
2795,18	315,00
2799,35	195,00
2803,53	368,00
2807,70	418,00
2811,86	190,00
2816,03	352,00
2820,19	300,00
2824,34	307,00
2828,49	478,00
2832,64	544,00
2836,78	598,00
2840,92	833,00
2845,06	796,00
2849,19	906,00
2853,32	915,00
2857,45	960,00
2861,57	996,00
2865,69	968,00
2869,80	984,00
2873,91	890,00
2878,02	937,00
2882,12	1019,00
2886,22	1043,00
2890,32	961,00
2894,41	1008,00
2898,50	896,00
2902,58	724,00
2906,67	850,00
2910,74	625,00
2914,82	723,00
2918,89	671,00
2922,96	660,00
2927,02	582,00
2931,08	610,00
2935,13	553,00
2939,19	547,00
2943,24	463,00
2947,28	394,00
2951,32	209,00
2955,36	365,00
2959,40	371,00
2963,43	234,00
2967,46	184,00
2971,48	360,00
2975,50	223,00
2979,52	213,00
2983,53	330,00
2987,54	334,00
2991,55	242,00
2995,55	101,00
2999,55	131,00
3003,54	91,00
3007,54	55,00
3011,53	94,00
3015,51	88,00
3019,49	143,00
3023,47	157,00
3027,45	97,00
3031,42	249,00
3035,39	171,00
3039,35	222,00
3043,31	59,00
3047,27	184,00
3051,22	106,00
3055,17	62,00
3059,12	54,00
3063,06	74,00
3067,00	54,00
3070,94	146,00
3074,87	138,00
3078,80	197,00
3082,73	218,00
3086,65	92,00
3090,57	53,00
3094,49	158,00
3098,40	104,00
3102,31	253,00
3106,22	97,00
3110,12	33,00
3114,02	270,00
3117,92	157,00
3121,81	147,00
3125,70	62,00
3129,58	133,00
3133,47	39,00
3137,34	135,00
3141,22	61,00
3145,09	57,00
3148,96	99,00
3152,83	130,00
3156,69	60,00
3160,55	209,00
3164,40	74,00
3168,26	-1,00
3172,10	170,00
3175,95	150,00
3179,79	154,00
3183,63	71,00
3187,47	199,00
3191,30	117,00
3195,13	153,00
3198,95	134,00
3202,78	56,00
3206,60	170,00
3210,41	80,00
3214,23	177,00
3218,03	88,00
3221,84	129,00
3225,64	37,00
3229,44	131,00
3233,24	306,00
3237,03	122,00
3240,82	-71,00
3244,61	98,00
3248,39	106,00
3252,17	154,00
3255,95	243,00
3259,72	212,00
3263,49	101,00
3267,26	9,00
3271,03	79,00
3274,79	95,00
3278,54	126,00
3282,30	116,00
3286,05	238,00
3289,80	115,00
3293,54	53,00
3297,29	116,00
3301,02	75,00
3304,76	172,00
3308,49	201,00
3312,22	33,00
3315,95	94,00
3319,67	40,00
3323,39	174,00
3327,10	56,00
3330,82	153,00
3334,53	100,00
3338,24	45,00
3341,94	112,00
3345,64	115,00
3349,34	51,00
3353,03	152,00
3356,72	130,00
3360,41	-15,00
3364,10	135,00
3367,78	28,00
3371,46	155,00
3375,13	42,00
3378,81	104,00
3382,48	16,00
3386,14	180,00
3389,81	24,00
3393,47	59,00
3397,12	104,00
3400,78	82,00
3404,43	166,00
3408,08	30,00
3411,72	55,00
3415,36	177,00
3419,00	-124,00
3422,64	-66,00
3426,27	78,00
3429,90	116,00
3433,53	85,00
3437,15	92,00
3440,77	92,00
3444,39	-22,00
3448,00	-37,00
3451,62	211,00
3455,22	43,00
3458,83	49,00
3462,43	88,00
3466,03	-3,00
3469,63	-55,00
3473,22	43,00
3476,81	140,00
3480,40	45,00
3483,99	73,00
3487,57	148,00
3491,15	-14,00
3494,72	83,00
3498,29	150,00
3501,86	13,00
3505,43	99,00
3508,99	61,00
3512,56	116,00
3516,11	-12,00
3519,67	97,00
3523,22	130,00
3526,77	99,00
3530,32	52,00
3533,86	22,00
3537,40	119,00
3540,94	49,00
3544,47	14,00
3548,00	179,00
3551,53	27,00
3555,06	58,00
3558,58	79,00
3562,10	10,00
3565,62	98,00
3569,13	96,00
3572,64	188,00
3576,15	54,00
3579,66	19,00
3583,16	66,00
3586,66	55,00
3590,16	20,00
3593,65	161,00
3597,14	-5,00
3600,63	42,00
3604,11	-18,00
3607,60	28,00
3611,08	202,00
3614,55	-37,00
3618,03	97,00
3621,50	-67,00
3624,97	128,00
3628,43	0,00
3631,90	-1,00
3635,36	120,00
3638,81	74,00
3642,27	9,00
3645,72	71,00
3649,17	73,00
3652,61	-5,00
3656,06	-49,00
3659,50	124,00
3662,93	29,00
3666,37	15,00
3669,80	69,00
3673,23	34,00
3676,65	108,00
3680,08	119,00
3683,50	81,00
3686,92	8,00
3690,33	97,00
3693,74	129,00
3697,15	105,00
3700,56	110,00
3703,96	-44,00
3707,36	-80,00
3710,76	20,00
3714,16	24,00
3717,55	-61,00
3720,94	93,00
3724,33	63,00
3727,71	-7,00
3731,10	34,00
3734,48	18,00
3737,85	-61,00
3741,23	8,00
3744,60	-42,00
3747,97	-144,00
3751,33	222,00
3754,69	175,00
3758,05	157,00
3761,41	-28,00
3764,77	73,00
3768,12	75,00
3771,47	100,00
3774,82	1,00
3778,16	-2,00
3781,50	1,00
3784,84	1,00
3788,18	6,00
>>>>>End Processed Spectral Data<<<<<
