SpectraSuite Data File
++++++++++++++++++++++++++++++++++++
Date: Mon Mar 09 16:01:48 ICT 2026
User: Administrator
Dark Spectrum Present: Yes
Reference Spectrum Present: No
Number of Sampled Component Spectra: 1
Spectrometers: MAYP113682
Integration Time (usec): 3000000 (MAYP113682)
Spectra Averaged: 1 (MAYP113682)
Boxcar Smoothing: 0 (MAYP113682)
Correct for Electrical Dark: No (MAYP113682)
Strobe/Lamp Enabled: No (MAYP113682)
Correct for Detector Non-linearity: No (MAYP113682)
Correct for Stray Light: No (MAYP113682)
Number of Pixels in Processed Spectrum: 2068
>>>>>Begin Processed Spectral Data<<<<<
-37534,58	-4,00
-37414,56	-9,00
-37295,11	3,00
-37176,24	2,00
-37057,95	49,00
-36940,22	113,00
-36823,05	-38,00
-36706,45	140,00
-36590,40	45,00
-36474,90	100,00
-36359,95	73,00
-36245,55	-4,00
-36131,68	-4,00
-36018,35	-39,00
-35905,55	108,00
-35793,29	56,00
-35681,54	159,00
-35570,32	114,00
-35459,62	69,00
-35349,43	92,00
-35239,75	75,00
-35130,58	69,00
-35021,91	-100,00
-34913,74	40,00
-34806,07	48,00
-34698,89	21,00
-34592,20	151,00
-34486,00	47,00
-34380,28	53,00
-34275,04	-127,00
-34170,27	62,00
-34065,98	40,00
-33962,16	116,00
-33858,81	140,00
-33755,92	84,00
-33653,49	80,00
-33551,52	128,00
-33450,01	-3,00
-33348,94	56,00
-33248,33	-26,00
-33148,16	42,00
-33048,43	4,00
-32949,14	33,00
-32850,29	53,00
-32751,87	42,00
-32653,89	128,00
-32556,33	-21,00
-32459,20	61,00
-32362,49	128,00
-32266,19	-18,00
-32170,32	84,00
-32074,86	164,00
-31979,82	116,00
-31885,18	39,00
-31790,95	71,00
-31697,12	106,00
-31603,69	150,00
-31510,67	29,00
-31418,04	105,00
-31325,80	45,00
-31233,95	-8,00
-31142,49	73,00
-31051,42	128,00
-30960,73	40,00
-30870,43	161,00
-30780,50	60,00
-30690,95	107,00
-30601,77	48,00
-30512,97	-1,00
-30424,53	42,00
-30336,46	76,00
-30248,76	-45,00
-30161,42	77,00
-30074,44	20,00
-29987,81	-5,00
-29901,55	83,00
-29815,63	-94,00
-29730,07	217,00
-29644,86	-62,00
-29560,00	38,00
-29475,48	49,00
-29391,30	34,00
-29307,47	30,00
-29223,97	47,00
-29140,81	184,00
-29057,99	12,00
-28975,50	92,00
-28893,34	131,00
-28811,51	50,00
-28730,00	40,00
-28648,82	173,00
-28567,97	55,00
-28487,43	113,00
-28407,21	44,00
-28327,32	33,00
-28247,73	110,00
-28168,46	12,00
-28089,50	58,00
-28010,85	107,00
-27932,51	95,00
-27854,48	-88,00
-27776,75	1,00
-27699,32	39,00
-27622,19	54,00
-27545,37	46,00
-27468,84	27,00
-27392,60	211,00
-27316,66	-10,00
-27241,01	-2,00
-27165,66	204,00
-27090,59	36,00
-27015,81	-10,00
-26941,31	26,00
-26867,10	-1,00
-26793,17	54,00
-26719,52	-19,00
-26646,15	30,00
-26573,06	6,00
-26500,24	46,00
-26427,70	104,00
-26355,43	184,00
-26283,43	41,00
-26211,71	123,00
-26140,25	177,00
-26069,06	150,00
-25998,13	19,00
-25927,46	75,00
-25857,06	-8,00
-25786,92	19,00
-25717,04	42,00
-25647,42	70,00
-25578,05	115,00
-25508,94	-56,00
-25440,09	11,00
-25371,48	69,00
-25303,13	77,00
-25235,02	17,00
-25167,17	149,00
-25099,56	85,00
-25032,19	-64,00
-24965,07	13,00
-24898,20	8,00
-24831,56	40,00
-24765,17	98,00
-24699,01	161,00
-24633,10	-17,00
-24567,41	-68,00
-24501,97	-9,00
-24436,75	-20,00
-24371,77	-5,00
-24307,03	70,00
-24242,51	33,00
-24178,22	22,00
-24114,16	85,00
-24050,32	108,00
-23986,71	112,00
-23923,32	120,00
-23860,16	113,00
-23797,22	32,00
-23734,50	76,00
-23672,00	153,00
-23609,71	94,00
-23547,65	61,00
-23485,80	-47,00
-23424,16	0,00
-23362,74	161,00
-23301,53	-8,00
-23240,54	169,00
-23179,75	12,00
-23119,17	75,00
-23058,80	21,00
-22998,64	-12,00
-22938,68	38,00
-22878,93	151,00
-22819,39	119,00
-22760,04	65,00
-22700,90	22,00
-22641,96	2,00
-22583,22	157,00
-22524,68	27,00
-22466,33	23,00
-22408,19	-59,00
-22350,23	106,00
-22292,48	38,00
-22234,92	22,00
-22177,55	84,00
-22120,37	4,00
-22063,38	104,00
-22006,58	147,00
-21949,98	170,00
-21893,56	22,00
-21837,33	109,00
-21781,28	140,00
-21725,42	79,00
-21669,74	42,00
-21614,25	-7,00
-21558,94	109,00
-21503,81	212,00
-21448,86	82,00
-21394,10	-3,00
-21339,51	86,00
-21285,10	-7,00
-21230,86	12,00
-21176,81	14,00
-21122,93	101,00
-21069,22	116,00
-21015,69	81,00
-20962,33	147,00
-20909,14	68,00
-20856,13	121,00
-20803,28	-6,00
-20750,61	-1,00
-20698,10	-9,00
-20645,76	132,00
-20593,59	16,00
-20541,59	26,00
-20489,75	76,00
-20438,07	49,00
-20386,56	125,00
-20335,22	106,00
-20284,03	66,00
-20233,01	-3,00
-20182,15	92,00
-20131,45	103,00
-20080,91	-88,00
-20030,52	73,00
-19980,30	11,00
-19930,23	121,00
-19880,32	19,00
-19830,56	-2,00
-19780,96	104,00
-19731,52	-37,00
-19682,23	52,00
-19633,09	134,00
-19584,10	-1,00
-19535,26	66,00
-19486,58	-18,00
-19438,04	66,00
-19389,66	119,00
-19341,42	31,00
-19293,33	61,00
-19245,39	102,00
-19197,60	38,00
-19149,95	31,00
-19102,45	33,00
-19055,09	104,00
-19007,87	124,00
-18960,80	45,00
-18913,87	58,00
-18867,09	34,00
-18820,44	108,00
-18773,94	33,00
-18727,57	3,00
-18681,35	52,00
-18635,26	59,00
-18589,31	92,00
-18543,50	88,00
-18497,83	125,00
-18452,29	7,00
-18406,89	6,00
-18361,63	22,00
-18316,50	167,00
-18271,50	80,00
-18226,63	62,00
-18181,90	-48,00
-18137,30	-15,00
-18092,84	41,00
-18048,50	170,00
-18004,29	-25,00
-17960,22	6,00
-17916,27	84,00
-17872,45	80,00
-17828,76	137,00
-17785,20	53,00
-17741,77	114,00
-17698,46	-18,00
-17655,28	42,00
-17612,22	26,00
-17569,29	126,00
-17526,48	84,00
-17483,79	42,00
-17441,23	8,00
-17398,79	162,00
-17356,48	26,00
-17314,28	45,00
-17272,21	60,00
-17230,26	-54,00
-17188,42	125,00
-17146,71	106,00
-17105,12	69,00
-17063,64	26,00
-17022,28	58,00
-16981,04	136,00
-16939,92	153,00
-16898,91	69,00
-16858,02	42,00
-16817,25	28,00
-16776,59	-38,00
-16736,04	66,00
-16695,61	81,00
-16655,29	36,00
-16615,09	17,00
-16574,99	103,00
-16535,01	78,00
-16495,15	85,00
-16455,39	85,00
-16415,74	142,00
-16376,21	-70,00
-16336,78	56,00
-16297,46	77,00
-16258,26	27,00
-16219,16	58,00
-16180,17	15,00
-16141,28	155,00
-16102,51	35,00
-16063,84	-16,00
-16025,27	42,00
-15986,82	47,00
-15948,46	54,00
-15910,22	81,00
-15872,07	51,00
-15834,04	115,00
-15796,10	118,00
-15758,27	166,00
-15720,54	10,00
-15682,91	40,00
-15645,39	41,00
-15607,97	65,00
-15570,64	73,00
-15533,42	61,00
-15496,30	53,00
-15459,28	58,00
-15422,36	21,00
-15385,54	4,00
-15348,82	-14,00
-15312,19	-33,00
-15275,66	118,00
-15239,23	-96,00
-15202,90	180,00
-15166,67	-24,00
-15130,53	55,00
-15094,48	118,00
-15058,54	113,00
-15022,68	68,00
-14986,93	38,00
-14951,26	78,00
-14915,69	48,00
-14880,22	98,00
-14844,84	25,00
-14809,55	64,00
-14774,35	-9,00
-14739,25	58,00
-14704,24	70,00
-14669,32	-12,00
-14634,49	22,00
-14599,75	28,00
-14565,10	122,00
-14530,55	96,00
-14496,08	184,00
-14461,70	32,00
-14427,41	-3,00
-14393,21	155,00
-14359,10	106,00
-14325,07	94,00
-14291,14	7,00
-14257,29	-11,00
-14223,52	46,00
-14189,85	63,00
-14156,26	43,00
-14122,76	118,00
-14089,34	101,00
-14056,01	35,00
-14022,76	-18,00
-13989,60	85,00
-13956,52	75,00
-13923,53	62,00
-13890,62	53,00
-13857,79	106,00
-13825,05	223,00
-13792,39	-79,00
-13759,81	116,00
-13727,31	120,00
-13694,90	149,00
-13662,57	105,00
-13630,31	15,00
-13598,14	31,00
-13566,05	87,00
-13534,05	-24,00
-13502,12	79,00
-13470,27	64,00
-13438,50	65,00
-13406,80	117,00
-13375,19	68,00
-13343,66	106,00
-13312,20	42,00
-13280,83	16,00
-13249,53	65,00
-13218,30	195,00
-13187,16	65,00
-13156,09	119,00
-13125,10	42,00
-13094,18	130,00
-13063,34	55,00
-13032,58	13,00
-13001,89	-15,00
-12971,28	152,00
-12940,74	103,00
-12910,27	-2,00
-12879,88	81,00
-12849,57	28,00
-12819,33	-34,00
-12789,16	11,00
-12759,06	73,00
-12729,04	158,00
-12699,09	1533,00
-12669,21	120,00
-12639,41	7,00
-12609,68	-35,00
-12580,02	111,00
-12550,43	116,00
-12520,91	30,00
-12491,46	131,00
-12462,08	-31,00
-12432,77	102,00
-12403,54	68,00
-12374,37	46,00
-12345,27	150,00
-12316,24	176,00
-12287,29	63,00
-12258,40	-65,00
-12229,57	91,00
-12200,82	-14,00
-12172,14	126,00
-12143,52	121,00
-12114,97	143,00
-12086,49	113,00
-12058,07	196,00
-12029,73	42,00
-12001,44	61,00
-11973,23	59,00
-11945,08	-5,00
-11917,00	113,00
-11888,98	-19,00
-11861,03	75,00
-11833,15	94,00
-11805,32	-10,00
-11777,57	-19,00
-11749,88	100,00
-11722,25	166,00
-11694,69	-9,00
-11667,19	-8,00
-11639,75	-45,00
-11612,38	145,00
-11585,07	139,00
-11557,83	112,00
-11530,65	-136,00
-11503,53	62,00
-11476,47	174,00
-11449,48	218,00
-11422,54	55,00
-11395,67	72,00
-11368,86	77,00
-11342,11	-34,00
-11315,43	92,00
-11288,80	-16,00
-11262,23	13,00
-11235,73	116,00
-11209,28	228,00
-11182,90	44,00
-11156,57	109,00
-11130,31	78,00
-11104,10	107,00
-11077,96	21,00
-11051,87	100,00
-11025,84	87,00
-10999,87	132,00
-10973,96	-13,00
-10948,11	125,00
-10922,31	149,00
-10896,58	38,00
-10870,90	48,00
-10845,28	-50,00
-10819,71	83,00
-10794,20	-4,00
-10768,75	143,00
-10743,36	79,00
-10718,02	-37,00
-10692,74	111,00
-10667,52	-13,00
-10642,35	72,00
-10617,24	77,00
-10592,18	41,00
-10567,18	152,00
-10542,23	134,00
-10517,34	98,00
-10492,51	112,00
-10467,72	174,00
-10443,00	189,00
-10418,32	101,00
-10393,70	133,00
-10369,14	58,00
-10344,63	71,00
-10320,17	85,00
-10295,77	136,00
-10271,42	-14,00
-10247,12	91,00
-10222,88	166,00
-10198,68	122,00
-10174,54	20,00
-10150,46	104,00
-10126,42	272,00
-10102,44	224,00
-10078,51	247,00
-10054,63	220,00
-10030,80	166,00
-10007,03	-4,00
-9983,30	53,00
-9959,63	176,00
-9936,01	275,00
-9912,44	290,00
-9888,92	366,00
-9865,44	155,00
-9842,02	175,00
-9818,65	365,00
-9795,33	197,00
-9772,06	227,00
-9748,84	177,00
-9725,67	353,00
-9702,55	331,00
-9679,47	319,00
-9656,45	437,00
-9633,47	272,00
-9610,55	362,00
-9587,67	389,00
-9564,84	492,00
-9542,06	503,00
-9519,32	441,00
-9496,64	604,00
-9474,00	589,00
-9451,41	665,00
-9428,87	735,00
-9406,37	617,00
-9383,92	651,00
-9361,52	626,00
-9339,17	664,00
-9316,86	726,00
-9294,60	880,00
-9272,38	923,00
-9250,21	1122,00
-9228,09	1067,00
-9206,01	1000,00
-9183,98	909,00
-9162,00	866,00
-9140,06	791,00
-9118,16	883,00
-9096,31	1034,00
-9074,51	1009,00
-9052,75	893,00
-9031,04	895,00
-9009,37	843,00
-8987,74	746,00
-8966,16	753,00
-8944,63	559,00
-8923,14	621,00
-8901,69	587,00
-8880,29	705,00
-8858,93	785,00
-8837,61	804,00
-8816,34	965,00
-8795,11	829,00
-8773,92	815,00
-8752,78	728,00
-8731,68	764,00
-8710,62	767,00
-8689,61	833,00
-8668,63	759,00
-8647,70	921,00
-8626,82	941,00
-8605,97	751,00
-8585,17	835,00
-8564,41	645,00
-8543,69	590,00
-8523,01	480,00
-8502,37	613,00
-8481,78	686,00
-8461,23	788,00
-8440,71	782,00
-8420,24	821,00
-8399,81	776,00
-8379,42	862,00
-8359,08	810,00
-8338,77	707,00
-8318,50	727,00
-8298,27	573,00
-8278,09	699,00
-8257,94	740,00
-8237,83	789,00
-8217,76	835,00
-8197,74	785,00
-8177,75	717,00
-8157,80	679,00
-8137,89	725,00
-8118,02	690,00
-8098,19	555,00
-8078,40	659,00
-8058,65	721,00
-8038,93	740,00
-8019,26	812,00
-7999,62	673,00
-7980,02	648,00
-7960,46	605,00
-7940,94	575,00
-7921,46	418,00
-7902,01	558,00
-7882,60	541,00
-7863,23	538,00
-7843,90	527,00
-7824,61	607,00
-7805,35	462,00
-7786,13	570,00
-7766,95	652,00
-7747,80	633,00
-7728,69	501,00
-7709,62	582,00
-7690,59	623,00
-7671,59	626,00
-7652,63	787,00
-7633,70	744,00
-7614,81	640,00
-7595,96	502,00
-7577,15	704,00
-7558,37	536,00
-7539,62	640,00
-7520,91	671,00
-7502,24	575,00
-7483,60	588,00
-7465,00	535,00
-7446,44	438,00
-7427,91	514,00
-7409,41	416,00
-7390,95	306,00
-7372,53	351,00
-7354,14	426,00
-7335,78	361,00
-7317,46	441,00
-7299,18	466,00
-7280,92	465,00
-7262,71	470,00
-7244,52	645,00
-7226,38	575,00
-7208,26	668,00
-7190,18	592,00
-7172,14	472,00
-7154,12	505,00
-7136,15	633,00
-7118,20	598,00
-7100,29	635,00
-7082,41	552,00
-7064,57	515,00
-7046,76	549,00
-7028,98	525,00
-7011,24	303,00
-6993,53	303,00
-6975,85	410,00
-6958,20	252,00
-6940,59	329,00
-6923,01	289,00
-6905,46	357,00
-6887,94	361,00
-6870,46	3203,00
-6853,01	465,00
-6835,59	638,00
-6818,21	453,00
-6800,85	407,00
-6783,53	211,00
-6766,24	227,00
-6748,98	324,00
-6731,76	212,00
-6714,56	98,00
-6697,40	141,00
-6680,26	201,00
-6663,16	367,00
-6646,09	294,00
-6629,05	517,00
-6612,05	387,00
-6595,07	456,00
-6578,13	422,00
-6561,21	260,00
-6544,33	228,00
-6527,47	213,00
-6510,65	250,00
-6493,86	93,00
-6477,10	240,00
-6460,36	223,00
-6443,66	68,00
-6426,99	173,00
-6410,35	326,00
-6393,74	212,00
-6377,16	136,00
-6360,61	257,00
-6344,09	294,00
-6327,59	311,00
-6311,13	298,00
-6294,70	299,00
-6278,29	357,00
-6261,92	264,00
-6245,58	354,00
-6229,26	424,00
-6212,97	326,00
-6196,72	225,00
-6180,49	230,00
-6164,29	153,00
-6148,12	-45,00
-6131,98	73,00
-6115,86	45,00
-6099,78	163,00
-6083,72	56,00
-6067,69	103,00
-6051,69	115,00
-6035,72	157,00
-6019,78	157,00
-6003,87	248,00
-5987,98	329,00
-5972,12	357,00
-5956,29	206,00
-5940,49	205,00
-5924,71	286,00
-5908,96	185,00
-5893,24	122,00
-5877,55	179,00
-5861,89	98,00
-5846,25	240,00
-5830,64	162,00
-5815,05	95,00
-5799,50	67,00
-5783,97	158,00
-5768,47	171,00
-5752,99	251,00
-5737,55	286,00
-5722,12	278,00
-5706,73	292,00
-5691,36	280,00
-5676,02	194,00
-5660,71	160,00
-5645,42	92,00
-5630,16	231,00
-5614,92	207,00
-5599,71	218,00
-5584,53	261,00
-5569,37	191,00
-5554,24	-580,00
-5539,14	247,00
-5524,06	35,00
-5509,01	116,00
-5493,98	138,00
-5478,98	206,00
-5464,00	139,00
-5449,05	117,00
-5434,13	182,00
-5419,23	111,00
-5404,36	32,00
-5389,51	238,00
-5374,69	173,00
-5359,89	370,00
-5345,12	346,00
-5330,37	315,00
-5315,65	208,00
-5300,95	229,00
-5286,28	204,00
-5271,63	177,00
-5257,01	211,00
-5242,41	151,00
-5227,84	169,00
-5213,29	140,00
-5198,76	62,00
-5184,26	181,00
-5169,79	156,00
-5155,33	110,00
-5140,91	267,00
-5126,51	186,00
-5112,13	313,00
-5097,77	280,00
-5083,44	227,00
-5069,13	110,00
-5054,85	154,00
-5040,59	230,00
-5026,36	251,00
-5012,15	144,00
-4997,96	251,00
-4983,80	92,00
-4969,66	133,00
-4955,54	85,00
-4941,44	290,00
-4927,37	269,00
-4913,33	347,00
-4899,30	441,00
-4885,30	283,00
-4871,33	276,00
-4857,37	228,00
-4843,44	218,00
-4829,53	155,00
-4815,65	215,00
-4801,79	46,00
-4787,95	203,00
-4774,13	177,00
-4760,34	142,00
-4746,56	65,00
-4732,82	86,00
-4719,09	245,00
-4705,38	229,00
-4691,70	204,00
-4678,04	156,00
-4664,41	279,00
-4650,79	133,00
-4637,20	176,00
-4623,63	44,00
-4610,08	119,00
-4596,56	192,00
-4583,05	200,00
-4569,57	251,00
-4556,11	100,00
-4542,67	36,00
-4529,25	125,00
-4515,86	348,00
-4502,49	224,00
-4489,13	265,00
-4475,80	120,00
-4462,49	170,00
-4449,21	237,00
-4435,94	100,00
-4422,70	148,00
-4409,47	247,00
-4396,27	133,00
-4383,09	160,00
-4369,93	190,00
-4356,79	35,00
-4343,67	56,00
-4330,58	154,00
-4317,50	217,00
-4304,45	76,00
-4291,41	13,00
-4278,40	128,00
-4265,41	81,00
-4252,44	162,00
-4239,49	201,00
-4226,55	80,00
-4213,65	150,00
-4200,76	161,00
-4187,89	-74,00
-4175,04	125,00
-4162,21	43,00
-4149,40	103,00
-4136,61	34,00
-4123,85	3,00
-4111,10	11,00
-4098,37	42,00
-4085,66	4,00
-4072,98	188,00
-4060,31	8,00
-4047,66	117,00
-4035,04	28,00
-4022,43	124,00
-4009,84	-48,00
-3997,27	88,00
-3984,72	15,00
-3972,19	93,00
-3959,69	104,00
-3947,20	-24,00
-3934,73	20,00
-3922,27	27,00
-3909,84	-53,00
-3897,43	9,00
-3885,04	128,00
-3872,67	58,00
-3860,31	0,00
-3847,98	-55,00
-3835,66	0,00
-3823,36	142,00
-3811,09	81,00
-3798,83	122,00
-3786,59	-96,00
-3774,37	60,00
-3762,17	20,00
-3749,98	119,00
-3737,82	54,00
-3725,67	106,00
-3713,55	140,00
-3701,44	129,00
-3689,35	240,00
-3677,28	181,00
-3665,22	157,00
-3653,19	15,00
-3641,17	38,00
-3629,18	85,00
-3617,20	103,00
-3605,24	121,00
-3593,30	69,00
-3581,37	221,00
-3569,47	30,00
-3557,58	29,00
-3545,71	18,00
-3533,86	111,00
-3522,02	58,00
-3510,21	173,00
-3498,41	69,00
-3486,63	58,00
-3474,87	181,00
-3463,12	12,00
-3451,40	163,00
-3439,69	136,00
-3428,00	-10,00
-3416,33	22,00
-3404,67	-8,00
-3393,03	98,00
-3381,41	66,00
-3369,81	45,00
-3358,22	146,00
-3346,66	106,00
-3335,10	-2,00
-3323,57	90,00
-3312,06	-41,00
-3300,56	114,00
-3289,08	139,00
-3277,61	47,00
-3266,16	11,00
-3254,73	10,00
-3243,32	109,00
-3231,92	20,00
-3220,55	87,00
-3209,18	74,00
-3197,84	137,00
-3186,51	3,00
-3175,20	99,00
-3163,90	-3,00
-3152,63	65,00
-3141,36	67,00
-3130,12	95,00
-3118,89	15,00
-3107,68	-18,00
-3096,49	33,00
-3085,31	233,00
-3074,15	13,00
-3063,00	92,00
-3051,87	61,00
-3040,76	155,00
-3029,67	35,00
-3018,59	126,00
-3007,52	-33,00
-2996,48	57,00
-2985,44	245,00
-2974,43	-16,00
-2963,43	178,00
-2952,45	121,00
-2941,48	25,00
-2930,53	81,00
-2919,60	109,00
-2908,68	-41,00
-2897,78	39,00
-2886,89	79,00
-2876,02	53,00
-2865,17	32,00
-2854,33	75,00
-2843,50	-8,00
-2832,70	6,00
-2821,90	15,00
-2811,13	104,00
-2800,37	19,00
-2789,62	62,00
-2778,89	36,00
-2768,18	118,00
-2757,48	51,00
-2746,80	80,00
-2736,13	-2,00
-2725,48	-97,00
-2714,84	12,00
-2704,22	93,00
-2693,61	151,00
-2683,02	125,00
-2672,45	53,00
-2661,89	48,00
-2651,34	77,00
-2640,81	50,00
-2630,30	-2,00
-2619,80	72,00
-2609,31	-26,00
-2598,84	89,00
-2588,39	27,00
-2577,95	169,00
-2567,52	123,00
-2557,11	130,00
-2546,71	-11,00
-2536,33	44,00
-2525,97	-16,00
-2515,62	21,00
-2505,28	76,00
-2494,96	146,00
-2484,65	-3,00
-2474,36	12,00
-2464,08	38,00
-2453,82	216,00
-2443,57	58,00
-2433,33	-34,00
-2423,11	31,00
-2412,91	37,00
-2402,72	86,00
-2392,54	139,00
-2382,38	-20,00
-2372,23	57,00
-2362,09	-4555,00
-2351,97	60,00
-2341,87	-58,00
-2331,78	-27,00
-2321,70	83,00
-2311,64	28,00
-2301,59	133,00
-2291,55	69,00
-2281,53	86,00
-2271,53	53,00
-2261,53	120,00
-2251,55	72,00
-2241,59	40,00
-2231,64	-2,00
-2221,70	-52,00
-2211,78	81,00
-2201,87	57,00
-2191,97	29,00
-2182,09	7,00
-2172,22	114,00
-2162,37	56,00
-2152,53	22,00
-2142,70	95,00
-2132,89	133,00
-2123,09	152,00
-2113,30	-39,00
-2103,53	32,00
-2093,77	0,00
-2084,02	-3,00
-2074,29	33,00
-2064,57	-17,00
-2054,86	1,00
-2045,17	169,00
-2035,49	7,00
-2025,82	31,00
-2016,17	58,00
-2006,53	169,00
-1996,91	100,00
-1987,29	-7,00
-1977,69	-27,00
-1968,11	-63,00
-1958,53	-19,00
-1948,97	-5,00
-1939,42	-29,00
-1929,89	89,00
-1920,37	-18,00
-1910,86	29,00
-1901,36	56,00
-1891,88	49,00
-1882,41	-26,00
-1872,95	0,00
-1863,51	185,00
-1854,08	90,00
-1844,66	12,00
-1835,26	49,00
-1825,86	71,00
-1816,48	193,00
-1807,11	97,00
-1797,76	258,00
-1788,42	58,00
-1779,09	-40,00
-1769,77	27,00
-1760,47	214,00
-1751,17	66,00
-1741,89	-86,00
-1732,63	76,00
-1723,37	154,00
-1714,13	32,00
-1704,90	83,00
-1695,68	124,00
-1686,48	89,00
-1677,29	-28,00
-1668,11	120,00
-1658,94	104,00
-1649,78	142,00
-1640,64	69,00
-1631,51	47,00
-1622,39	18,00
-1613,28	121,00
-1604,19	77,00
-1595,10	15,00
-1586,03	115,00
-1576,97	-39,00
-1567,93	-5,00
-1558,89	-11,00
-1549,87	124,00
-1540,86	137,00
-1531,86	27,00
-1522,87	23,00
-1513,90	67,00
-1504,93	79,00
-1495,98	159,00
-1487,04	47,00
-1478,12	18,00
-1469,20	70,00
-1460,30	83,00
-1451,40	-34,00
-1442,52	118,00
-1433,65	-76,00
-1424,80	51,00
-1415,95	189,00
-1407,12	92,00
-1398,30	13,00
-1389,48	69,00
-1380,69	193,00
-1371,90	58,00
-1363,12	-3,00
-1354,36	70,00
-1345,60	-8,00
-1336,86	-46,00
-1328,13	82,00
-1319,41	159,00
-1310,70	89,00
-1302,01	116,00
-1293,32	95,00
-1284,65	172,00
-1275,99	105,00
-1267,33	28,00
-1258,69	57,00
-1250,06	-5,00
-1241,45	70,00
-1232,84	110,00
-1224,25	76,00
-1215,66	42,00
-1207,09	27,00
-1198,53	94,00
-1189,97	-35,00
-1181,43	-21,00
-1172,91	88,00
-1164,39	77,00
-1155,88	94,00
-1147,38	123,00
-1138,90	-66,00
-1130,43	115,00
-1121,96	-19,00
-1113,51	75,00
-1105,07	3,00
-1096,64	158,00
-1088,22	118,00
-1079,81	32,00
-1071,41	31,00
-1063,02	87,00
-1054,65	-122,00
-1046,28	96,00
-1037,92	126,00
-1029,58	220,00
-1021,24	90,00
-1012,92	153,00
-1004,61	23,00
-996,30	180,00
-988,01	168,00
-979,73	58,00
-971,46	85,00
-963,20	123,00
-954,95	-38,00
-946,71	66,00
-938,48	70,00
-930,26	50,00
-922,06	-16,00
-913,86	102,00
-905,67	115,00
-897,49	113,00
-889,33	0,00
-881,17	119,00
-873,02	-16,00
-864,89	-7,00
-856,76	-78,00
-848,65	-43,00
-840,54	135,00
-832,45	59,00
-824,36	123,00
-816,29	40,00
-808,22	-5,00
-800,17	140,00
-792,12	66,00
-784,09	34,00
-776,06	13,00
-768,05	45,00
-760,04	116,00
-752,05	10,00
-744,07	-8,00
-736,09	145,00
-728,13	47,00
-720,17	-7,00
-712,23	78,00
-704,29	58,00
-696,37	38,00
-688,45	-83,00
-680,55	-60,00
-672,65	-2,00
-664,77	21,00
-656,89	119,00
-649,03	40,00
-641,17	149,00
-633,32	-23,00
-625,49	201,00
-617,66	145,00
-609,84	-30,00
-602,03	83,00
-594,23	18,00
-586,45	38,00
-578,67	12,00
-570,90	127,00
-563,14	70,00
-555,39	196,00
-547,65	97,00
-539,91	112,00
-532,19	19,00
-524,48	106,00
-516,78	38,00
-509,08	75,00
-501,40	91,00
-493,72	52,00
-486,06	101,00
-478,40	206,00
-470,76	123,00
-463,12	83,00
-455,49	58,00
-447,87	129,00
-440,26	23,00
-432,66	100,00
-425,07	104,00
-417,49	27,00
-409,92	120,00
-402,35	85,00
-394,80	124,00
-387,25	27,00
-379,72	160,00
-372,19	178,00
-364,67	70,00
-357,17	76,00
-349,67	25,00
-342,18	93,00
-334,69	128,00
-327,22	78,00
-319,76	155,00
-312,30	119,00
-304,86	69,00
-297,42	88,00
-290,00	83,00
-282,58	30,00
-275,17	90,00
-267,77	129,00
-260,37	123,00
-252,99	138,00
-245,62	113,00
-238,25	161,00
-230,90	46,00
-223,55	96,00
-216,21	182,00
-208,88	175,00
-201,56	92,00
-194,25	210,00
-186,94	199,00
-179,65	223,00
-172,36	240,00
-165,08	230,00
-157,81	230,00
-150,55	228,00
-143,30	257,00
-136,06	284,00
-128,82	388,00
-121,60	329,00
-114,38	262,00
-107,17	426,00
-99,97	504,00
-92,78	406,00
-85,60	638,00
-78,42	629,00
-71,25	770,00
-64,10	889,00
-56,95	965,00
-49,81	1120,00
-42,67	1325,00
-35,55	1813,00
-28,43	2172,00
-21,33	3805,00
-14,23	12874,00
-7,14	55238,00
-0,05	54948,00
7,02	54664,00
14,09	40933,00
21,14	10768,00
28,19	4345,00
35,23	2978,00
42,27	2251,00
49,29	1816,00
56,31	1630,00
63,32	1239,00
70,32	1151,00
77,31	787,00
84,29	765,00
91,27	617,00
98,23	721,00
105,19	679,00
112,14	626,00
119,09	885,00
126,02	1599,00
132,95	1888,00
139,87	1957,00
146,78	1863,00
153,68	1967,00
160,58	1917,00
167,46	1688,00
174,34	1945,00
181,21	1692,00
188,08	1834,00
194,93	1772,00
201,78	1836,00
208,62	1854,00
215,45	1802,00
222,27	1872,00
229,09	1583,00
235,90	1774,00
242,70	1721,00
249,49	1672,00
256,27	1619,00
263,05	1709,00
269,82	1597,00
276,58	1639,00
283,33	1547,00
290,08	1649,00
296,82	1635,00
303,55	1692,00
310,27	1438,00
316,98	1614,00
323,69	1476,00
330,39	1737,00
337,08	1503,00
343,76	1523,00
350,44	1538,00
357,11	1488,00
363,77	1609,00
370,42	1341,00
377,07	1429,00
383,71	1487,00
390,34	1470,00
396,96	1539,00
403,58	1570,00
410,19	1373,00
416,79	1498,00
423,38	1473,00
429,97	1445,00
436,55	1396,00
443,12	1274,00
449,68	1232,00
456,24	1456,00
462,79	1303,00
469,33	1300,00
475,86	1297,00
482,39	1272,00
488,91	1240,00
495,42	1233,00
501,93	1259,00
508,42	1194,00
514,91	1176,00
521,40	1352,00
527,87	1242,00
534,34	1202,00
540,80	1335,00
547,25	1193,00
553,70	1267,00
560,14	1153,00
566,57	1076,00
573,00	1200,00
579,41	1232,00
585,83	1155,00
592,23	1210,00
598,62	1074,00
605,01	1184,00
611,40	1165,00
617,77	1058,00
624,14	1166,00
630,50	1170,00
636,85	1073,00
643,20	1141,00
649,54	1105,00
655,87	976,00
662,20	1081,00
668,52	1046,00
674,83	1023,00
681,13	1107,00
687,43	1034,00
693,72	1058,00
700,00	1028,00
706,28	960,00
712,55	1019,00
718,81	1065,00
725,07	976,00
731,32	1006,00
737,56	988,00
743,79	1091,00
750,02	1078,00
756,24	985,00
762,46	936,00
768,67	1065,00
774,87	1022,00
781,06	1164,00
787,25	975,00
793,43	923,00
799,60	1050,00
805,77	1007,00
811,93	950,00
818,08	1005,00
824,23	1045,00
830,37	936,00
836,50	1006,00
842,63	907,00
848,75	1026,00
854,87	997,00
860,97	1070,00
867,07	982,00
873,17	1038,00
879,25	1069,00
885,33	952,00
891,41	1020,00
897,47	938,00
903,53	895,00
909,59	799,00
915,63	997,00
921,67	985,00
927,71	826,00
933,74	939,00
939,76	853,00
945,77	830,00
951,78	865,00
957,78	796,00
963,78	872,00
969,77	860,00
975,75	784,00
981,72	844,00
987,69	856,00
993,66	931,00
999,61	959,00
1005,56	879,00
1011,51	854,00
1017,44	882,00
1023,37	979,00
1029,30	926,00
1035,22	907,00
1041,13	947,00
1047,03	934,00
1052,93	1006,00
1058,83	1276,00
1064,71	1296,00
1070,59	1094,00
1076,47	1031,00
1082,33	987,00
1088,20	981,00
1094,05	791,00
1099,90	861,00
1105,74	696,00
1111,58	821,00
1117,41	1007,00
1123,23	1165,00
1129,05	1071,00
1134,86	1056,00
1140,67	1020,00
1146,47	956,00
1152,26	906,00
1158,05	829,00
1163,83	941,00
1169,60	895,00
1175,37	871,00
1181,13	971,00
1186,89	796,00
1192,64	782,00
1198,38	805,00
1204,12	851,00
1209,85	845,00
1215,58	833,00
1221,30	759,00
1227,02	912,00
1232,72	865,00
1238,43	807,00
1244,12	831,00
1249,81	808,00
1255,50	742,00
1261,17	807,00
1266,85	928,00
1272,51	849,00
1278,17	928,00
1283,83	979,00
1289,47	1101,00
1295,12	1269,00
1300,75	1247,00
1306,38	1200,00
1312,01	997,00
1317,63	935,00
1323,24	935,00
1328,85	868,00
1334,45	901,00
1340,04	879,00
1345,63	952,00
1351,22	867,00
1356,80	876,00
1362,37	841,00
1367,93	831,00
1373,49	884,00
1379,05	943,00
1384,60	795,00
1390,14	907,00
1395,68	984,00
1401,21	929,00
1406,74	944,00
1412,26	910,00
1417,77	989,00
1423,28	990,00
1428,78	1154,00
1434,28	1336,00
1439,77	1341,00
1445,26	1297,00
1450,74	1415,00
1456,22	1359,00
1461,68	1238,00
1467,15	1176,00
1472,61	1009,00
1478,06	1016,00
1483,51	958,00
1488,95	819,00
1494,38	861,00
1499,81	689,00
1505,24	917,00
1510,65	785,00
1516,07	766,00
1521,48	778,00
1526,88	708,00
1532,27	799,00
1537,67	604,00
1543,05	838,00
1548,43	669,00
1553,81	761,00
1559,18	676,00
1564,54	696,00
1569,90	664,00
1575,25	730,00
1580,60	702,00
1585,94	626,00
1591,28	759,00
1596,61	745,00
1601,93	634,00
1607,25	626,00
1612,57	669,00
1617,88	707,00
1623,18	621,00
1628,48	633,00
1633,77	708,00
1639,06	630,00
1644,34	730,00
1649,62	654,00
1654,89	668,00
1660,16	692,00
1665,42	535,00
1670,67	782,00
1675,92	696,00
1681,17	669,00
1686,41	572,00
1691,64	672,00
1696,87	534,00
1702,10	507,00
1707,32	640,00
1712,53	563,00
1717,74	603,00
1722,94	564,00
1728,14	716,00
1733,33	562,00
1738,52	644,00
1743,70	655,00
1748,88	648,00
1754,05	547,00
1759,22	507,00
1764,38	672,00
1769,53	550,00
1774,69	491,00
1779,83	488,00
1784,97	504,00
1790,11	569,00
1795,24	545,00
1800,36	524,00
1805,48	478,00
1810,60	467,00
1815,71	538,00
1820,82	427,00
1825,92	499,00
1831,01	386,00
1836,10	589,00
1841,19	488,00
1846,26	506,00
1851,34	465,00
1856,41	468,00
1861,47	458,00
1866,53	550,00
1871,59	536,00
1876,64	408,00
1881,68	355,00
1886,72	298,00
1891,76	552,00
1896,79	415,00
1901,81	466,00
1906,83	516,00
1911,85	520,00
1916,86	505,00
1921,86	279,00
1926,86	440,00
1931,86	452,00
1936,85	346,00
1941,83	454,00
1946,81	455,00
1951,79	359,00
1956,76	430,00
1961,72	438,00
1966,68	401,00
1971,64	358,00
1976,59	419,00
1981,54	365,00
1986,48	468,00
1991,42	319,00
1996,35	317,00
2001,27	441,00
2006,20	477,00
2011,11	533,00
2016,03	344,00
2020,93	296,00
2025,84	314,00
2030,73	340,00
2035,63	318,00
2040,52	337,00
2045,40	320,00
2050,28	272,00
2055,15	389,00
2060,02	347,00
2064,89	378,00
2069,75	269,00
2074,60	336,00
2079,46	425,00
2084,30	305,00
2089,14	265,00
2093,98	335,00
2098,81	335,00
2103,64	383,00
2108,46	324,00
2113,28	273,00
2118,09	422,00
2122,90	286,00
2127,70	276,00
2132,50	349,00
2137,30	294,00
2142,09	418,00
2146,87	450,00
2151,66	343,00
2156,43	217,00
2161,20	349,00
2165,97	347,00
2170,73	155,00
2175,49	484,00
2180,24	369,00
2184,99	372,00
2189,74	406,00
2194,48	197,00
2199,21	273,00
2203,94	262,00
2208,67	220,00
2213,39	309,00
2218,11	161,00
2222,82	256,00
2227,53	233,00
2232,23	269,00
2236,93	189,00
2241,63	377,00
2246,32	344,00
2251,00	291,00
2255,68	208,00
2260,36	195,00
2265,03	343,00
2269,70	278,00
2274,36	348,00
2279,02	260,00
2283,68	264,00
2288,33	312,00
2292,97	400,00
2297,61	338,00
2302,25	471,00
2306,88	297,00
2311,51	150,00
2316,14	384,00
2320,75	62,00
2325,37	191,00
2329,98	196,00
2334,59	323,00
2339,19	125,00
2343,79	215,00
2348,38	259,00
2352,97	224,00
2357,55	279,00
2362,13	220,00
2366,71	209,00
2371,28	329,00
2375,85	213,00
2380,41	324,00
2384,97	254,00
2389,52	208,00
2394,07	161,00
2398,62	209,00
2403,16	196,00
2407,70	165,00
2412,23	154,00
2416,76	281,00
2421,29	267,00
2425,81	264,00
2430,32	326,00
2434,84	224,00
2439,34	189,00
2443,85	148,00
2448,35	191,00
2452,84	240,00
2457,33	222,00
2461,82	268,00
2466,30	212,00
2470,78	294,00
2475,25	210,00
2479,72	135,00
2484,19	209,00
2488,65	280,00
2493,11	255,00
2497,56	260,00
2502,01	152,00
2506,46	128,00
2510,90	149,00
2515,34	48,00
2519,77	243,00
2524,20	271,00
2528,62	251,00
2533,04	122,00
2537,46	177,00
2541,87	200,00
2546,28	125,00
2550,68	186,00
2555,08	145,00
2559,48	123,00
2563,87	254,00
2568,26	239,00
2572,64	231,00
2577,02	172,00
2581,40	136,00
2585,77	232,00
2590,14	117,00
2594,50	242,00
2598,86	172,00
2603,22	263,00
2607,57	135,00
2611,92	187,00
2616,26	229,00
2620,60	175,00
2624,94	157,00
2629,27	150,00
2633,60	291,00
2637,92	327,00
2642,24	299,00
2646,56	261,00
2650,87	213,00
2655,18	234,00
2659,48	139,00
2663,78	124,00
2668,08	293,00
2672,37	259,00
2676,66	198,00
2680,95	179,00
2685,23	238,00
2689,50	67,00
2693,78	232,00
2698,05	246,00
2702,31	162,00
2706,57	225,00
2710,83	245,00
2715,08	281,00
2719,33	277,00
2723,58	224,00
2727,82	159,00
2732,06	197,00
2736,29	183,00
2740,53	180,00
2744,75	290,00
2748,97	156,00
2753,19	181,00
2757,41	251,00
2761,62	137,00
2765,83	266,00
2770,03	288,00
2774,23	191,00
2778,43	251,00
2782,62	386,00
2786,81	174,00
2791,00	258,00
2795,18	219,00
2799,35	268,00
2803,53	377,00
2807,70	249,00
2811,86	277,00
2816,03	178,00
2820,19	396,00
2824,34	386,00
2828,49	427,00
2832,64	377,00
2836,78	593,00
2840,92	700,00
2845,06	795,00
2849,19	857,00
2853,32	885,00
2857,45	1008,00
2861,57	931,00
2865,69	948,00
2869,80	855,00
2873,91	932,00
2878,02	988,00
2882,12	956,00
2886,22	923,00
2890,32	908,00
2894,41	867,00
2898,50	749,00
2902,58	727,00
2906,67	627,00
2910,74	635,00
2914,82	615,00
2918,89	592,00
2922,96	710,00
2927,02	518,00
2931,08	429,00
2935,13	496,00
2939,19	476,00
2943,24	422,00
2947,28	282,00
2951,32	426,00
2955,36	379,00
2959,40	212,00
2963,43	341,00
2967,46	301,00
2971,48	163,00
2975,50	333,00
2979,52	308,00
2983,53	237,00
2987,54	97,00
2991,55	245,00
2995,55	191,00
2999,55	158,00
3003,54	206,00
3007,54	292,00
3011,53	106,00
3015,51	181,00
3019,49	218,00
3023,47	181,00
3027,45	68,00
3031,42	124,00
3035,39	181,00
3039,35	171,00
3043,31	31,00
3047,27	33,00
3051,22	122,00
3055,17	225,00
3059,12	185,00
3063,06	134,00
3067,00	169,00
3070,94	130,00
3074,87	250,00
3078,80	-4,00
3082,73	124,00
3086,65	127,00
3090,57	167,00
3094,49	138,00
3098,40	141,00
3102,31	187,00
3106,22	85,00
3110,12	26,00
3114,02	195,00
3117,92	114,00
3121,81	125,00
3125,70	14,00
3129,58	141,00
3133,47	74,00
3137,34	47,00
3141,22	91,00
3145,09	161,00
3148,96	88,00
3152,83	142,00
3156,69	197,00
3160,55	161,00
3164,40	122,00
3168,26	91,00
3172,10	120,00
3175,95	-3,00
3179,79	61,00
3183,63	110,00
3187,47	176,00
3191,30	69,00
3195,13	118,00
3198,95	120,00
3202,78	240,00
3206,60	92,00
3210,41	55,00
3214,23	160,00
3218,03	67,00
3221,84	110,00
3225,64	82,00
3229,44	193,00
3233,24	80,00
3237,03	173,00
3240,82	-29,00
3244,61	136,00
3248,39	124,00
3252,17	20,00
3255,95	51,00
3259,72	-35,00
3263,49	66,00
3267,26	93,00
3271,03	123,00
3274,79	181,00
3278,54	57,00
3282,30	77,00
3286,05	112,00
3289,80	55,00
3293,54	9,00
3297,29	-10,00
3301,02	116,00
3304,76	60,00
3308,49	71,00
3312,22	192,00
3315,95	108,00
3319,67	137,00
3323,39	94,00
3327,10	195,00
3330,82	148,00
3334,53	81,00
3338,24	121,00
3341,94	55,00
3345,64	121,00
3349,34	203,00
3353,03	117,00
3356,72	99,00
3360,41	146,00
3364,10	108,00
3367,78	44,00
3371,46	35,00
3375,13	104,00
3378,81	49,00
3382,48	-24,00
3386,14	-68,00
3389,81	66,00
3393,47	-19,00
3397,12	111,00
3400,78	-10,00
3404,43	120,00
3408,08	174,00
3411,72	152,00
3415,36	42,00
3419,00	63,00
3422,64	52,00
3426,27	99,00
3429,90	99,00
3433,53	140,00
3437,15	118,00
3440,77	101,00
3444,39	-79,00
3448,00	145,00
3451,62	190,00
3455,22	173,00
3458,83	25,00
3462,43	76,00
3466,03	52,00
3469,63	87,00
3473,22	102,00
3476,81	68,00
3480,40	16,00
3483,99	92,00
3487,57	34,00
3491,15	-11,00
3494,72	54,00
3498,29	77,00
3501,86	46,00
3505,43	56,00
3508,99	102,00
3512,56	130,00
3516,11	79,00
3519,67	54,00
3523,22	70,00
3526,77	132,00
3530,32	-4,00
3533,86	139,00
3537,40	54,00
3540,94	13,00
3544,47	-49,00
3548,00	67,00
3551,53	133,00
3555,06	76,00
3558,58	100,00
3562,10	53,00
3565,62	5,00
3569,13	142,00
3572,64	38,00
3576,15	8,00
3579,66	135,00
3583,16	3,00
3586,66	149,00
3590,16	36,00
3593,65	170,00
3597,14	-21,00
3600,63	9,00
3604,11	30,00
3607,60	53,00
3611,08	4,00
3614,55	111,00
3618,03	3,00
3621,50	-14,00
3624,97	113,00
3628,43	68,00
3631,90	67,00
3635,36	99,00
3638,81	124,00
3642,27	16,00
3645,72	38,00
3649,17	43,00
3652,61	12,00
3656,06	266,00
3659,50	33,00
3662,93	5,00
3666,37	134,00
3669,80	135,00
3673,23	-2,00
3676,65	62,00
3680,08	-46,00
3683,50	20,00
3686,92	110,00
3690,33	139,00
3693,74	11,00
3697,15	19,00
3700,56	110,00
3703,96	-115,00
3707,36	10,00
3710,76	101,00
3714,16	120,00
3717,55	24,00
3720,94	59,00
3724,33	114,00
3727,71	-109,00
3731,10	86,00
3734,48	56,00
3737,85	114,00
3741,23	49,00
3744,60	3,00
3747,97	61,00
3751,33	-51,00
3754,69	40,00
3758,05	82,00
3761,41	75,00
3764,77	42,00
3768,12	135,00
3771,47	39,00
3774,82	-106,00
3778,16	6,00
3781,50	0,00
3784,84	5,00
3788,18	-2,00
>>>>>End Processed Spectral Data<<<<<
