SpectraSuite Data File
++++++++++++++++++++++++++++++++++++
Date: Mon Mar 09 15:35:56 ICT 2026
User: Administrator
Dark Spectrum Present: Yes
Reference Spectrum Present: No
Number of Sampled Component Spectra: 1
Spectrometers: MAYP113682
Integration Time (usec): 3000000 (MAYP113682)
Spectra Averaged: 1 (MAYP113682)
Boxcar Smoothing: 0 (MAYP113682)
Correct for Electrical Dark: No (MAYP113682)
Strobe/Lamp Enabled: No (MAYP113682)
Correct for Detector Non-linearity: No (MAYP113682)
Correct for Stray Light: No (MAYP113682)
Number of Pixels in Processed Spectrum: 2068
>>>>>Begin Processed Spectral Data<<<<<
-37534,58	6,00
-37414,56	4,00
-37295,11	-3,00
-37176,24	3,00
-37057,95	163,00
-36940,22	168,00
-36823,05	84,00
-36706,45	136,00
-36590,40	108,00
-36474,90	131,00
-36359,95	225,00
-36245,55	222,00
-36131,68	104,00
-36018,35	178,00
-35905,55	168,00
-35793,29	108,00
-35681,54	286,00
-35570,32	119,00
-35459,62	265,00
-35349,43	4,00
-35239,75	145,00
-35130,58	185,00
-35021,91	147,00
-34913,74	62,00
-34806,07	242,00
-34698,89	102,00
-34592,20	84,00
-34486,00	182,00
-34380,28	99,00
-34275,04	147,00
-34170,27	244,00
-34065,98	143,00
-33962,16	402,00
-33858,81	164,00
-33755,92	199,00
-33653,49	110,00
-33551,52	170,00
-33450,01	258,00
-33348,94	171,00
-33248,33	187,00
-33148,16	128,00
-33048,43	222,00
-32949,14	148,00
-32850,29	254,00
-32751,87	264,00
-32653,89	206,00
-32556,33	196,00
-32459,20	60,00
-32362,49	150,00
-32266,19	210,00
-32170,32	180,00
-32074,86	230,00
-31979,82	136,00
-31885,18	162,00
-31790,95	99,00
-31697,12	160,00
-31603,69	252,00
-31510,67	108,00
-31418,04	248,00
-31325,80	94,00
-31233,95	172,00
-31142,49	270,00
-31051,42	139,00
-30960,73	199,00
-30870,43	255,00
-30780,50	167,00
-30690,95	330,00
-30601,77	208,00
-30512,97	136,00
-30424,53	183,00
-30336,46	251,00
-30248,76	291,00
-30161,42	283,00
-30074,44	234,00
-29987,81	219,00
-29901,55	256,00
-29815,63	230,00
-29730,07	161,00
-29644,86	77,00
-29560,00	197,00
-29475,48	228,00
-29391,30	167,00
-29307,47	188,00
-29223,97	281,00
-29140,81	195,00
-29057,99	113,00
-28975,50	133,00
-28893,34	242,00
-28811,51	169,00
-28730,00	267,00
-28648,82	151,00
-28567,97	294,00
-28487,43	195,00
-28407,21	213,00
-28327,32	174,00
-28247,73	145,00
-28168,46	218,00
-28089,50	165,00
-28010,85	166,00
-27932,51	160,00
-27854,48	149,00
-27776,75	113,00
-27699,32	291,00
-27622,19	213,00
-27545,37	293,00
-27468,84	214,00
-27392,60	244,00
-27316,66	204,00
-27241,01	245,00
-27165,66	261,00
-27090,59	138,00
-27015,81	220,00
-26941,31	263,00
-26867,10	258,00
-26793,17	239,00
-26719,52	272,00
-26646,15	168,00
-26573,06	248,00
-26500,24	245,00
-26427,70	209,00
-26355,43	125,00
-26283,43	278,00
-26211,71	188,00
-26140,25	230,00
-26069,06	83,00
-25998,13	199,00
-25927,46	76,00
-25857,06	198,00
-25786,92	259,00
-25717,04	139,00
-25647,42	257,00
-25578,05	113,00
-25508,94	187,00
-25440,09	189,00
-25371,48	238,00
-25303,13	271,00
-25235,02	138,00
-25167,17	224,00
-25099,56	290,00
-25032,19	232,00
-24965,07	284,00
-24898,20	159,00
-24831,56	146,00
-24765,17	173,00
-24699,01	167,00
-24633,10	138,00
-24567,41	114,00
-24501,97	181,00
-24436,75	272,00
-24371,77	122,00
-24307,03	211,00
-24242,51	253,00
-24178,22	181,00
-24114,16	179,00
-24050,32	280,00
-23986,71	70,00
-23923,32	209,00
-23860,16	163,00
-23797,22	198,00
-23734,50	313,00
-23672,00	198,00
-23609,71	144,00
-23547,65	155,00
-23485,80	181,00
-23424,16	139,00
-23362,74	204,00
-23301,53	163,00
-23240,54	194,00
-23179,75	213,00
-23119,17	220,00
-23058,80	215,00
-22998,64	188,00
-22938,68	222,00
-22878,93	193,00
-22819,39	136,00
-22760,04	104,00
-22700,90	222,00
-22641,96	222,00
-22583,22	80,00
-22524,68	169,00
-22466,33	92,00
-22408,19	291,00
-22350,23	144,00
-22292,48	214,00
-22234,92	224,00
-22177,55	257,00
-22120,37	223,00
-22063,38	139,00
-22006,58	121,00
-21949,98	290,00
-21893,56	165,00
-21837,33	246,00
-21781,28	123,00
-21725,42	212,00
-21669,74	249,00
-21614,25	147,00
-21558,94	141,00
-21503,81	271,00
-21448,86	172,00
-21394,10	170,00
-21339,51	219,00
-21285,10	297,00
-21230,86	226,00
-21176,81	188,00
-21122,93	169,00
-21069,22	244,00
-21015,69	60,00
-20962,33	151,00
-20909,14	93,00
-20856,13	184,00
-20803,28	223,00
-20750,61	184,00
-20698,10	239,00
-20645,76	210,00
-20593,59	232,00
-20541,59	185,00
-20489,75	275,00
-20438,07	211,00
-20386,56	206,00
-20335,22	206,00
-20284,03	118,00
-20233,01	203,00
-20182,15	245,00
-20131,45	214,00
-20080,91	216,00
-20030,52	184,00
-19980,30	237,00
-19930,23	170,00
-19880,32	274,00
-19830,56	232,00
-19780,96	92,00
-19731,52	181,00
-19682,23	185,00
-19633,09	285,00
-19584,10	169,00
-19535,26	275,00
-19486,58	317,00
-19438,04	230,00
-19389,66	193,00
-19341,42	133,00
-19293,33	130,00
-19245,39	145,00
-19197,60	253,00
-19149,95	301,00
-19102,45	159,00
-19055,09	161,00
-19007,87	337,00
-18960,80	147,00
-18913,87	350,00
-18867,09	115,00
-18820,44	195,00
-18773,94	359,00
-18727,57	299,00
-18681,35	149,00
-18635,26	11,00
-18589,31	155,00
-18543,50	223,00
-18497,83	296,00
-18452,29	235,00
-18406,89	144,00
-18361,63	169,00
-18316,50	277,00
-18271,50	283,00
-18226,63	231,00
-18181,90	188,00
-18137,30	247,00
-18092,84	128,00
-18048,50	53,00
-18004,29	280,00
-17960,22	137,00
-17916,27	114,00
-17872,45	295,00
-17828,76	101,00
-17785,20	179,00
-17741,77	117,00
-17698,46	178,00
-17655,28	248,00
-17612,22	281,00
-17569,29	197,00
-17526,48	240,00
-17483,79	278,00
-17441,23	89,00
-17398,79	172,00
-17356,48	165,00
-17314,28	154,00
-17272,21	317,00
-17230,26	201,00
-17188,42	210,00
-17146,71	148,00
-17105,12	137,00
-17063,64	294,00
-17022,28	204,00
-16981,04	200,00
-16939,92	216,00
-16898,91	277,00
-16858,02	136,00
-16817,25	264,00
-16776,59	227,00
-16736,04	211,00
-16695,61	216,00
-16655,29	12,00
-16615,09	249,00
-16574,99	188,00
-16535,01	157,00
-16495,15	241,00
-16455,39	181,00
-16415,74	245,00
-16376,21	201,00
-16336,78	220,00
-16297,46	58,00
-16258,26	180,00
-16219,16	236,00
-16180,17	217,00
-16141,28	182,00
-16102,51	87,00
-16063,84	232,00
-16025,27	239,00
-15986,82	148,00
-15948,46	166,00
-15910,22	133,00
-15872,07	274,00
-15834,04	188,00
-15796,10	240,00
-15758,27	296,00
-15720,54	188,00
-15682,91	239,00
-15645,39	210,00
-15607,97	208,00
-15570,64	164,00
-15533,42	192,00
-15496,30	100,00
-15459,28	236,00
-15422,36	174,00
-15385,54	154,00
-15348,82	144,00
-15312,19	62,00
-15275,66	226,00
-15239,23	201,00
-15202,90	93,00
-15166,67	206,00
-15130,53	125,00
-15094,48	110,00
-15058,54	183,00
-15022,68	149,00
-14986,93	148,00
-14951,26	247,00
-14915,69	157,00
-14880,22	113,00
-14844,84	190,00
-14809,55	221,00
-14774,35	247,00
-14739,25	191,00
-14704,24	157,00
-14669,32	246,00
-14634,49	155,00
-14599,75	181,00
-14565,10	144,00
-14530,55	212,00
-14496,08	190,00
-14461,70	118,00
-14427,41	194,00
-14393,21	268,00
-14359,10	149,00
-14325,07	147,00
-14291,14	168,00
-14257,29	193,00
-14223,52	184,00
-14189,85	-4,00
-14156,26	199,00
-14122,76	197,00
-14089,34	144,00
-14056,01	215,00
-14022,76	163,00
-13989,60	193,00
-13956,52	236,00
-13923,53	106,00
-13890,62	191,00
-13857,79	225,00
-13825,05	270,00
-13792,39	223,00
-13759,81	244,00
-13727,31	266,00
-13694,90	145,00
-13662,57	196,00
-13630,31	302,00
-13598,14	255,00
-13566,05	74,00
-13534,05	108,00
-13502,12	222,00
-13470,27	114,00
-13438,50	131,00
-13406,80	276,00
-13375,19	166,00
-13343,66	159,00
-13312,20	237,00
-13280,83	190,00
-13249,53	185,00
-13218,30	119,00
-13187,16	211,00
-13156,09	202,00
-13125,10	243,00
-13094,18	247,00
-13063,34	207,00
-13032,58	149,00
-13001,89	266,00
-12971,28	194,00
-12940,74	186,00
-12910,27	117,00
-12879,88	136,00
-12849,57	166,00
-12819,33	252,00
-12789,16	94,00
-12759,06	201,00
-12729,04	246,00
-12699,09	-890,00
-12669,21	156,00
-12639,41	258,00
-12609,68	86,00
-12580,02	147,00
-12550,43	192,00
-12520,91	200,00
-12491,46	163,00
-12462,08	186,00
-12432,77	148,00
-12403,54	217,00
-12374,37	122,00
-12345,27	126,00
-12316,24	154,00
-12287,29	178,00
-12258,40	114,00
-12229,57	180,00
-12200,82	133,00
-12172,14	241,00
-12143,52	129,00
-12114,97	124,00
-12086,49	154,00
-12058,07	224,00
-12029,73	185,00
-12001,44	380,00
-11973,23	168,00
-11945,08	278,00
-11917,00	164,00
-11888,98	176,00
-11861,03	167,00
-11833,15	111,00
-11805,32	169,00
-11777,57	162,00
-11749,88	129,00
-11722,25	241,00
-11694,69	93,00
-11667,19	230,00
-11639,75	188,00
-11612,38	167,00
-11585,07	174,00
-11557,83	275,00
-11530,65	178,00
-11503,53	158,00
-11476,47	164,00
-11449,48	197,00
-11422,54	217,00
-11395,67	148,00
-11368,86	251,00
-11342,11	152,00
-11315,43	199,00
-11288,80	217,00
-11262,23	178,00
-11235,73	240,00
-11209,28	148,00
-11182,90	251,00
-11156,57	208,00
-11130,31	278,00
-11104,10	246,00
-11077,96	273,00
-11051,87	155,00
-11025,84	247,00
-10999,87	112,00
-10973,96	124,00
-10948,11	216,00
-10922,31	155,00
-10896,58	210,00
-10870,90	168,00
-10845,28	161,00
-10819,71	191,00
-10794,20	231,00
-10768,75	108,00
-10743,36	134,00
-10718,02	152,00
-10692,74	148,00
-10667,52	93,00
-10642,35	200,00
-10617,24	71,00
-10592,18	166,00
-10567,18	52,00
-10542,23	192,00
-10517,34	100,00
-10492,51	124,00
-10467,72	120,00
-10443,00	190,00
-10418,32	33,00
-10393,70	50,00
-10369,14	150,00
-10344,63	196,00
-10320,17	173,00
-10295,77	319,00
-10271,42	156,00
-10247,12	223,00
-10222,88	189,00
-10198,68	135,00
-10174,54	164,00
-10150,46	72,00
-10126,42	135,00
-10102,44	119,00
-10078,51	23,00
-10054,63	88,00
-10030,80	149,00
-10007,03	94,00
-9983,30	124,00
-9959,63	171,00
-9936,01	178,00
-9912,44	8,00
-9888,92	97,00
-9865,44	73,00
-9842,02	68,00
-9818,65	42,00
-9795,33	-24,00
-9772,06	-3,00
-9748,84	-13,00
-9725,67	-91,00
-9702,55	-9,00
-9679,47	-86,00
-9656,45	-114,00
-9633,47	-146,00
-9610,55	-251,00
-9587,67	-113,00
-9564,84	-149,00
-9542,06	-210,00
-9519,32	-370,00
-9496,64	-375,00
-9474,00	-344,00
-9451,41	-521,00
-9428,87	-481,00
-9406,37	-571,00
-9383,92	-460,00
-9361,52	-554,00
-9339,17	-513,00
-9316,86	-609,00
-9294,60	-652,00
-9272,38	-638,00
-9250,21	-644,00
-9228,09	-884,00
-9206,01	-776,00
-9183,98	-638,00
-9162,00	-672,00
-9140,06	-723,00
-9118,16	-750,00
-9096,31	-861,00
-9074,51	-740,00
-9052,75	-640,00
-9031,04	-642,00
-9009,37	-648,00
-8987,74	-642,00
-8966,16	-490,00
-8944,63	-476,00
-8923,14	-527,00
-8901,69	-530,00
-8880,29	-437,00
-8858,93	-445,00
-8837,61	-502,00
-8816,34	-426,00
-8795,11	-625,00
-8773,92	-541,00
-8752,78	-473,00
-8731,68	-337,00
-8710,62	-381,00
-8689,61	-433,00
-8668,63	-475,00
-8647,70	-510,00
-8626,82	-554,00
-8605,97	-411,00
-8585,17	-360,00
-8564,41	-394,00
-8543,69	-334,00
-8523,01	-312,00
-8502,37	-324,00
-8481,78	-288,00
-8461,23	-469,00
-8440,71	-366,00
-8420,24	-464,00
-8399,81	-445,00
-8379,42	-477,00
-8359,08	-317,00
-8338,77	-352,00
-8318,50	-403,00
-8298,27	-227,00
-8278,09	-318,00
-8257,94	-420,00
-8237,83	-356,00
-8217,76	-388,00
-8197,74	-372,00
-8177,75	-462,00
-8157,80	-333,00
-8137,89	-242,00
-8118,02	-336,00
-8098,19	-303,00
-8078,40	-202,00
-8058,65	-220,00
-8038,93	-244,00
-8019,26	-253,00
-7999,62	-304,00
-7980,02	-278,00
-7960,46	-222,00
-7940,94	-166,00
-7921,46	-123,00
-7902,01	-227,00
-7882,60	-125,00
-7863,23	-187,00
-7843,90	-188,00
-7824,61	-160,00
-7805,35	-76,00
-7786,13	-316,00
-7766,95	-193,00
-7747,80	-136,00
-7728,69	-128,00
-7709,62	-157,00
-7690,59	-130,00
-7671,59	-159,00
-7652,63	-234,00
-7633,70	-209,00
-7614,81	-236,00
-7595,96	-197,00
-7577,15	-123,00
-7558,37	-188,00
-7539,62	-106,00
-7520,91	-260,00
-7502,24	-266,00
-7483,60	-125,00
-7465,00	-253,00
-7446,44	-122,00
-7427,91	-245,00
-7409,41	-122,00
-7390,95	-138,00
-7372,53	-149,00
-7354,14	-96,00
-7335,78	-55,00
-7317,46	-91,00
-7299,18	-219,00
-7280,92	-192,00
-7262,71	-235,00
-7244,52	-173,00
-7226,38	-202,00
-7208,26	-190,00
-7190,18	-191,00
-7172,14	-43,00
-7154,12	-126,00
-7136,15	-189,00
-7118,20	-90,00
-7100,29	-258,00
-7082,41	-176,00
-7064,57	-247,00
-7046,76	-29,00
-7028,98	-223,00
-7011,24	-85,00
-6993,53	-183,00
-6975,85	-115,00
-6958,20	-43,00
-6940,59	-39,00
-6923,01	-113,00
-6905,46	-76,00
-6887,94	-103,00
-6870,46	-227,00
-6853,01	-130,00
-6835,59	-95,00
-6818,21	-56,00
-6800,85	-78,00
-6783,53	-106,00
-6766,24	71,00
-6748,98	-41,00
-6731,76	-43,00
-6714,56	-51,00
-6697,40	-119,00
-6680,26	-87,00
-6663,16	-90,00
-6646,09	-112,00
-6629,05	-93,00
-6612,05	0,00
-6595,07	-138,00
-6578,13	-186,00
-6561,21	-60,00
-6544,33	-66,00
-6527,47	18,00
-6510,65	-59,00
-6493,86	6,00
-6477,10	-119,00
-6460,36	-61,00
-6443,66	-73,00
-6426,99	-15,00
-6410,35	12,00
-6393,74	9,00
-6377,16	85,00
-6360,61	22,00
-6344,09	-108,00
-6327,59	-153,00
-6311,13	-59,00
-6294,70	-87,00
-6278,29	-2,00
-6261,92	-148,00
-6245,58	-46,00
-6229,26	-95,00
-6212,97	27,00
-6196,72	-153,00
-6180,49	45,00
-6164,29	78,00
-6148,12	96,00
-6131,98	-45,00
-6115,86	78,00
-6099,78	-5,00
-6083,72	-49,00
-6067,69	2,00
-6051,69	-79,00
-6035,72	147,00
-6019,78	-80,00
-6003,87	-81,00
-5987,98	-8,00
-5972,12	-185,00
-5956,29	-169,00
-5940,49	-3,00
-5924,71	167,00
-5908,96	51,00
-5893,24	-47,00
-5877,55	82,00
-5861,89	-27,00
-5846,25	16,00
-5830,64	-16,00
-5815,05	60,00
-5799,50	-42,00
-5783,97	22,00
-5768,47	88,00
-5752,99	-18,00
-5737,55	12,00
-5722,12	-73,00
-5706,73	-51,00
-5691,36	6,00
-5676,02	-59,00
-5660,71	36,00
-5645,42	17,00
-5630,16	-50,00
-5614,92	-18,00
-5599,71	-94,00
-5584,53	-25,00
-5569,37	-46,00
-5554,24	79,00
-5539,14	-4,00
-5524,06	-36,00
-5509,01	60,00
-5493,98	-42,00
-5478,98	-34,00
-5464,00	44,00
-5449,05	145,00
-5434,13	70,00
-5419,23	105,00
-5404,36	48,00
-5389,51	25,00
-5374,69	28,00
-5359,89	-54,00
-5345,12	-140,00
-5330,37	69,00
-5315,65	-61,00
-5300,95	78,00
-5286,28	-8,00
-5271,63	-104,00
-5257,01	52,00
-5242,41	-4,00
-5227,84	-68,00
-5213,29	-63,00
-5198,76	59,00
-5184,26	17,00
-5169,79	25,00
-5155,33	-60,00
-5140,91	-20,00
-5126,51	3,00
-5112,13	57,00
-5097,77	-31,00
-5083,44	49,00
-5069,13	35,00
-5054,85	102,00
-5040,59	-11,00
-5026,36	8,00
-5012,15	-79,00
-4997,96	16,00
-4983,80	-41,00
-4969,66	38,00
-4955,54	47,00
-4941,44	143,00
-4927,37	77,00
-4913,33	-113,00
-4899,30	-31,00
-4885,30	97,00
-4871,33	60,00
-4857,37	29,00
-4843,44	80,00
-4829,53	130,00
-4815,65	43,00
-4801,79	-17,00
-4787,95	8,00
-4774,13	81,00
-4760,34	117,00
-4746,56	149,00
-4732,82	66,00
-4719,09	140,00
-4705,38	19,00
-4691,70	44,00
-4678,04	51,00
-4664,41	31,00
-4650,79	114,00
-4637,20	182,00
-4623,63	83,00
-4610,08	64,00
-4596,56	2,00
-4583,05	93,00
-4569,57	123,00
-4556,11	127,00
-4542,67	35,00
-4529,25	195,00
-4515,86	143,00
-4502,49	-21,00
-4489,13	76,00
-4475,80	136,00
-4462,49	131,00
-4449,21	148,00
-4435,94	127,00
-4422,70	52,00
-4409,47	100,00
-4396,27	106,00
-4383,09	33,00
-4369,93	192,00
-4356,79	237,00
-4343,67	112,00
-4330,58	97,00
-4317,50	221,00
-4304,45	22,00
-4291,41	152,00
-4278,40	168,00
-4265,41	218,00
-4252,44	127,00
-4239,49	101,00
-4226,55	122,00
-4213,65	101,00
-4200,76	233,00
-4187,89	81,00
-4175,04	126,00
-4162,21	77,00
-4149,40	80,00
-4136,61	60,00
-4123,85	218,00
-4111,10	118,00
-4098,37	167,00
-4085,66	119,00
-4072,98	108,00
-4060,31	136,00
-4047,66	138,00
-4035,04	217,00
-4022,43	178,00
-4009,84	245,00
-3997,27	148,00
-3984,72	196,00
-3972,19	74,00
-3959,69	207,00
-3947,20	208,00
-3934,73	102,00
-3922,27	252,00
-3909,84	104,00
-3897,43	273,00
-3885,04	164,00
-3872,67	285,00
-3860,31	206,00
-3847,98	128,00
-3835,66	164,00
-3823,36	119,00
-3811,09	134,00
-3798,83	176,00
-3786,59	209,00
-3774,37	216,00
-3762,17	299,00
-3749,98	180,00
-3737,82	237,00
-3725,67	258,00
-3713,55	124,00
-3701,44	120,00
-3689,35	203,00
-3677,28	233,00
-3665,22	287,00
-3653,19	97,00
-3641,17	210,00
-3629,18	191,00
-3617,20	246,00
-3605,24	120,00
-3593,30	84,00
-3581,37	190,00
-3569,47	190,00
-3557,58	122,00
-3545,71	298,00
-3533,86	276,00
-3522,02	166,00
-3510,21	230,00
-3498,41	146,00
-3486,63	349,00
-3474,87	138,00
-3463,12	221,00
-3451,40	75,00
-3439,69	172,00
-3428,00	281,00
-3416,33	213,00
-3404,67	196,00
-3393,03	112,00
-3381,41	254,00
-3369,81	207,00
-3358,22	187,00
-3346,66	222,00
-3335,10	218,00
-3323,57	163,00
-3312,06	136,00
-3300,56	130,00
-3289,08	230,00
-3277,61	174,00
-3266,16	223,00
-3254,73	227,00
-3243,32	105,00
-3231,92	317,00
-3220,55	125,00
-3209,18	287,00
-3197,84	208,00
-3186,51	230,00
-3175,20	98,00
-3163,90	248,00
-3152,63	294,00
-3141,36	224,00
-3130,12	166,00
-3118,89	263,00
-3107,68	158,00
-3096,49	209,00
-3085,31	187,00
-3074,15	286,00
-3063,00	288,00
-3051,87	183,00
-3040,76	239,00
-3029,67	241,00
-3018,59	245,00
-3007,52	102,00
-2996,48	231,00
-2985,44	215,00
-2974,43	209,00
-2963,43	210,00
-2952,45	169,00
-2941,48	156,00
-2930,53	175,00
-2919,60	267,00
-2908,68	254,00
-2897,78	171,00
-2886,89	304,00
-2876,02	165,00
-2865,17	183,00
-2854,33	272,00
-2843,50	345,00
-2832,70	299,00
-2821,90	161,00
-2811,13	264,00
-2800,37	122,00
-2789,62	252,00
-2778,89	179,00
-2768,18	285,00
-2757,48	222,00
-2746,80	217,00
-2736,13	230,00
-2725,48	159,00
-2714,84	274,00
-2704,22	185,00
-2693,61	107,00
-2683,02	170,00
-2672,45	207,00
-2661,89	261,00
-2651,34	172,00
-2640,81	179,00
-2630,30	214,00
-2619,80	264,00
-2609,31	131,00
-2598,84	139,00
-2588,39	194,00
-2577,95	197,00
-2567,52	153,00
-2557,11	202,00
-2546,71	259,00
-2536,33	159,00
-2525,97	218,00
-2515,62	235,00
-2505,28	234,00
-2494,96	128,00
-2484,65	143,00
-2474,36	258,00
-2464,08	189,00
-2453,82	167,00
-2443,57	118,00
-2433,33	211,00
-2423,11	140,00
-2412,91	137,00
-2402,72	75,00
-2392,54	175,00
-2382,38	124,00
-2372,23	230,00
-2362,09	418,00
-2351,97	195,00
-2341,87	112,00
-2331,78	293,00
-2321,70	157,00
-2311,64	237,00
-2301,59	206,00
-2291,55	191,00
-2281,53	199,00
-2271,53	123,00
-2261,53	179,00
-2251,55	206,00
-2241,59	179,00
-2231,64	229,00
-2221,70	201,00
-2211,78	269,00
-2201,87	221,00
-2191,97	290,00
-2182,09	261,00
-2172,22	271,00
-2162,37	176,00
-2152,53	230,00
-2142,70	164,00
-2132,89	114,00
-2123,09	111,00
-2113,30	77,00
-2103,53	161,00
-2093,77	224,00
-2084,02	129,00
-2074,29	376,00
-2064,57	188,00
-2054,86	122,00
-2045,17	157,00
-2035,49	158,00
-2025,82	210,00
-2016,17	165,00
-2006,53	212,00
-1996,91	160,00
-1987,29	153,00
-1977,69	232,00
-1968,11	202,00
-1958,53	223,00
-1948,97	293,00
-1939,42	171,00
-1929,89	248,00
-1920,37	257,00
-1910,86	220,00
-1901,36	270,00
-1891,88	241,00
-1882,41	121,00
-1872,95	225,00
-1863,51	189,00
-1854,08	66,00
-1844,66	131,00
-1835,26	134,00
-1825,86	162,00
-1816,48	217,00
-1807,11	85,00
-1797,76	213,00
-1788,42	205,00
-1779,09	180,00
-1769,77	263,00
-1760,47	83,00
-1751,17	69,00
-1741,89	141,00
-1732,63	278,00
-1723,37	148,00
-1714,13	226,00
-1704,90	164,00
-1695,68	259,00
-1686,48	226,00
-1677,29	178,00
-1668,11	247,00
-1658,94	119,00
-1649,78	205,00
-1640,64	192,00
-1631,51	258,00
-1622,39	324,00
-1613,28	175,00
-1604,19	261,00
-1595,10	192,00
-1586,03	249,00
-1576,97	239,00
-1567,93	284,00
-1558,89	165,00
-1549,87	227,00
-1540,86	282,00
-1531,86	226,00
-1522,87	214,00
-1513,90	352,00
-1504,93	146,00
-1495,98	169,00
-1487,04	231,00
-1478,12	258,00
-1469,20	278,00
-1460,30	187,00
-1451,40	209,00
-1442,52	223,00
-1433,65	115,00
-1424,80	237,00
-1415,95	185,00
-1407,12	196,00
-1398,30	176,00
-1389,48	198,00
-1380,69	116,00
-1371,90	137,00
-1363,12	197,00
-1354,36	339,00
-1345,60	53,00
-1336,86	212,00
-1328,13	223,00
-1319,41	188,00
-1310,70	169,00
-1302,01	299,00
-1293,32	277,00
-1284,65	155,00
-1275,99	200,00
-1267,33	242,00
-1258,69	193,00
-1250,06	225,00
-1241,45	154,00
-1232,84	199,00
-1224,25	168,00
-1215,66	164,00
-1207,09	205,00
-1198,53	171,00
-1189,97	177,00
-1181,43	63,00
-1172,91	108,00
-1164,39	238,00
-1155,88	223,00
-1147,38	143,00
-1138,90	335,00
-1130,43	199,00
-1121,96	161,00
-1113,51	242,00
-1105,07	214,00
-1096,64	290,00
-1088,22	316,00
-1079,81	169,00
-1071,41	305,00
-1063,02	190,00
-1054,65	288,00
-1046,28	184,00
-1037,92	195,00
-1029,58	124,00
-1021,24	206,00
-1012,92	43,00
-1004,61	252,00
-996,30	217,00
-988,01	98,00
-979,73	221,00
-971,46	251,00
-963,20	127,00
-954,95	216,00
-946,71	193,00
-938,48	215,00
-930,26	178,00
-922,06	176,00
-913,86	112,00
-905,67	184,00
-897,49	200,00
-889,33	157,00
-881,17	178,00
-873,02	211,00
-864,89	112,00
-856,76	43,00
-848,65	311,00
-840,54	290,00
-832,45	310,00
-824,36	192,00
-816,29	343,00
-808,22	287,00
-800,17	225,00
-792,12	184,00
-784,09	326,00
-776,06	227,00
-768,05	229,00
-760,04	227,00
-752,05	150,00
-744,07	87,00
-736,09	238,00
-728,13	212,00
-720,17	239,00
-712,23	196,00
-704,29	87,00
-696,37	275,00
-688,45	261,00
-680,55	135,00
-672,65	175,00
-664,77	112,00
-656,89	168,00
-649,03	269,00
-641,17	166,00
-633,32	292,00
-625,49	106,00
-617,66	216,00
-609,84	318,00
-602,03	191,00
-594,23	92,00
-586,45	283,00
-578,67	250,00
-570,90	324,00
-563,14	127,00
-555,39	180,00
-547,65	178,00
-539,91	173,00
-532,19	196,00
-524,48	229,00
-516,78	166,00
-509,08	247,00
-501,40	213,00
-493,72	186,00
-486,06	112,00
-478,40	202,00
-470,76	201,00
-463,12	190,00
-455,49	108,00
-447,87	247,00
-440,26	316,00
-432,66	200,00
-425,07	159,00
-417,49	221,00
-409,92	333,00
-402,35	159,00
-394,80	279,00
-387,25	314,00
-379,72	292,00
-372,19	224,00
-364,67	292,00
-357,17	205,00
-349,67	145,00
-342,18	147,00
-334,69	274,00
-327,22	226,00
-319,76	287,00
-312,30	282,00
-304,86	234,00
-297,42	160,00
-290,00	212,00
-282,58	251,00
-275,17	294,00
-267,77	204,00
-260,37	219,00
-252,99	234,00
-245,62	241,00
-238,25	323,00
-230,90	327,00
-223,55	232,00
-216,21	245,00
-208,88	495,00
-201,56	369,00
-194,25	332,00
-186,94	362,00
-179,65	366,00
-172,36	421,00
-165,08	375,00
-157,81	442,00
-150,55	579,00
-143,30	410,00
-136,06	528,00
-128,82	584,00
-121,60	598,00
-114,38	692,00
-107,17	658,00
-99,97	903,00
-92,78	858,00
-85,60	981,00
-78,42	1034,00
-71,25	1157,00
-64,10	1373,00
-56,95	1634,00
-49,81	1903,00
-42,67	2289,00
-35,55	2754,00
-28,43	3763,00
-21,33	6150,00
-14,23	20379,00
-7,14	55635,00
-0,05	55419,00
7,02	55129,00
14,09	55339,00
21,14	17660,00
28,19	7384,00
35,23	4729,00
42,27	3641,00
49,29	3056,00
56,31	2538,00
63,32	2166,00
70,32	1841,00
77,31	1556,00
84,29	1455,00
91,27	1278,00
98,23	1090,00
105,19	1133,00
112,14	988,00
119,09	1391,00
126,02	1988,00
132,95	1943,00
139,87	1969,00
146,78	1903,00
153,68	1943,00
160,58	1909,00
167,46	1825,00
174,34	1787,00
181,21	1767,00
188,08	1909,00
194,93	1706,00
201,78	1807,00
208,62	1766,00
215,45	1625,00
222,27	1666,00
229,09	1647,00
235,90	1713,00
242,70	1754,00
249,49	1624,00
256,27	1648,00
263,05	1635,00
269,82	1658,00
276,58	1644,00
283,33	1591,00
290,08	1626,00
296,82	1511,00
303,55	1539,00
310,27	1352,00
316,98	1598,00
323,69	1478,00
330,39	1442,00
337,08	1417,00
343,76	1495,00
350,44	1486,00
357,11	1337,00
363,77	1385,00
370,42	1415,00
377,07	1396,00
383,71	1347,00
390,34	1500,00
396,96	1391,00
403,58	1366,00
410,19	1566,00
416,79	1303,00
423,38	1480,00
429,97	1424,00
436,55	1305,00
443,12	1357,00
449,68	1249,00
456,24	1288,00
462,79	1215,00
469,33	1241,00
475,86	1296,00
482,39	1281,00
488,91	1176,00
495,42	1167,00
501,93	1024,00
508,42	1228,00
514,91	1243,00
521,40	1222,00
527,87	1144,00
534,34	1091,00
540,80	1094,00
547,25	1246,00
553,70	1098,00
560,14	1157,00
566,57	1225,00
573,00	1146,00
579,41	1230,00
585,83	1163,00
592,23	1170,00
598,62	1071,00
605,01	1098,00
611,40	1141,00
617,77	1293,00
624,14	1128,00
630,50	1161,00
636,85	1099,00
643,20	1156,00
649,54	1010,00
655,87	1108,00
662,20	1125,00
668,52	932,00
674,83	1070,00
681,13	994,00
687,43	892,00
693,72	1052,00
700,00	1065,00
706,28	1090,00
712,55	997,00
718,81	1096,00
725,07	1054,00
731,32	1039,00
737,56	965,00
743,79	1128,00
750,02	1083,00
756,24	1023,00
762,46	1098,00
768,67	1015,00
774,87	1136,00
781,06	1202,00
787,25	1073,00
793,43	966,00
799,60	915,00
805,77	1141,00
811,93	1081,00
818,08	919,00
824,23	974,00
830,37	1057,00
836,50	1108,00
842,63	1078,00
848,75	1010,00
854,87	1088,00
860,97	1010,00
867,07	1067,00
873,17	1055,00
879,25	966,00
885,33	1041,00
891,41	987,00
897,47	1011,00
903,53	1061,00
909,59	992,00
915,63	959,00
921,67	987,00
927,71	966,00
933,74	995,00
939,76	887,00
945,77	975,00
951,78	927,00
957,78	947,00
963,78	941,00
969,77	695,00
975,75	985,00
981,72	944,00
987,69	1041,00
993,66	938,00
999,61	1041,00
1005,56	906,00
1011,51	927,00
1017,44	1023,00
1023,37	1010,00
1029,30	929,00
1035,22	923,00
1041,13	967,00
1047,03	986,00
1052,93	1087,00
1058,83	1280,00
1064,71	1258,00
1070,59	1196,00
1076,47	1037,00
1082,33	992,00
1088,20	1094,00
1094,05	1014,00
1099,90	965,00
1105,74	919,00
1111,58	896,00
1117,41	927,00
1123,23	1148,00
1129,05	1089,00
1134,86	1044,00
1140,67	996,00
1146,47	770,00
1152,26	898,00
1158,05	848,00
1163,83	908,00
1169,60	942,00
1175,37	859,00
1181,13	842,00
1186,89	825,00
1192,64	936,00
1198,38	870,00
1204,12	861,00
1209,85	891,00
1215,58	983,00
1221,30	811,00
1227,02	896,00
1232,72	883,00
1238,43	857,00
1244,12	870,00
1249,81	892,00
1255,50	969,00
1261,17	856,00
1266,85	983,00
1272,51	967,00
1278,17	956,00
1283,83	975,00
1289,47	1246,00
1295,12	1462,00
1300,75	1416,00
1306,38	1159,00
1312,01	1072,00
1317,63	959,00
1323,24	959,00
1328,85	1013,00
1334,45	921,00
1340,04	911,00
1345,63	867,00
1351,22	1132,00
1356,80	948,00
1362,37	874,00
1367,93	1015,00
1373,49	1029,00
1379,05	1047,00
1384,60	1054,00
1390,14	1046,00
1395,68	824,00
1401,21	926,00
1406,74	1039,00
1412,26	1028,00
1417,77	1059,00
1423,28	1175,00
1428,78	1334,00
1434,28	1345,00
1439,77	1498,00
1445,26	1424,00
1450,74	1412,00
1456,22	1361,00
1461,68	1280,00
1467,15	1214,00
1472,61	1189,00
1478,06	1177,00
1483,51	1029,00
1488,95	910,00
1494,38	792,00
1499,81	920,00
1505,24	904,00
1510,65	922,00
1516,07	857,00
1521,48	962,00
1526,88	747,00
1532,27	960,00
1537,67	905,00
1543,05	962,00
1548,43	776,00
1553,81	920,00
1559,18	784,00
1564,54	816,00
1569,90	779,00
1575,25	769,00
1580,60	805,00
1585,94	751,00
1591,28	836,00
1596,61	757,00
1601,93	825,00
1607,25	857,00
1612,57	882,00
1617,88	693,00
1623,18	781,00
1628,48	745,00
1633,77	692,00
1639,06	810,00
1644,34	711,00
1649,62	769,00
1654,89	710,00
1660,16	622,00
1665,42	690,00
1670,67	728,00
1675,92	818,00
1681,17	731,00
1686,41	757,00
1691,64	692,00
1696,87	778,00
1702,10	670,00
1707,32	649,00
1712,53	811,00
1717,74	709,00
1722,94	810,00
1728,14	752,00
1733,33	700,00
1738,52	742,00
1743,70	715,00
1748,88	621,00
1754,05	645,00
1759,22	609,00
1764,38	-753,00
1769,53	623,00
1774,69	681,00
1779,83	700,00
1784,97	665,00
1790,11	572,00
1795,24	635,00
1800,36	562,00
1805,48	624,00
1810,60	667,00
1815,71	715,00
1820,82	616,00
1825,92	605,00
1831,01	627,00
1836,10	615,00
1841,19	642,00
1846,26	521,00
1851,34	529,00
1856,41	547,00
1861,47	499,00
1866,53	727,00
1871,59	631,00
1876,64	637,00
1881,68	681,00
1886,72	507,00
1891,76	459,00
1896,79	621,00
1901,81	534,00
1906,83	571,00
1911,85	523,00
1916,86	550,00
1921,86	512,00
1926,86	515,00
1931,86	468,00
1936,85	536,00
1941,83	622,00
1946,81	567,00
1951,79	603,00
1956,76	514,00
1961,72	426,00
1966,68	543,00
1971,64	544,00
1976,59	427,00
1981,54	519,00
1986,48	462,00
1991,42	548,00
1996,35	581,00
2001,27	425,00
2006,20	487,00
2011,11	555,00
2016,03	508,00
2020,93	525,00
2025,84	570,00
2030,73	593,00
2035,63	553,00
2040,52	451,00
2045,40	530,00
2050,28	493,00
2055,15	589,00
2060,02	423,00
2064,89	493,00
2069,75	456,00
2074,60	536,00
2079,46	504,00
2084,30	384,00
2089,14	557,00
2093,98	485,00
2098,81	506,00
2103,64	565,00
2108,46	489,00
2113,28	535,00
2118,09	437,00
2122,90	378,00
2127,70	454,00
2132,50	398,00
2137,30	511,00
2142,09	524,00
2146,87	507,00
2151,66	595,00
2156,43	504,00
2161,20	504,00
2165,97	397,00
2170,73	512,00
2175,49	519,00
2180,24	440,00
2184,99	560,00
2189,74	563,00
2194,48	473,00
2199,21	552,00
2203,94	432,00
2208,67	484,00
2213,39	519,00
2218,11	349,00
2222,82	443,00
2227,53	486,00
2232,23	373,00
2236,93	493,00
2241,63	408,00
2246,32	528,00
2251,00	361,00
2255,68	431,00
2260,36	395,00
2265,03	537,00
2269,70	452,00
2274,36	422,00
2279,02	443,00
2283,68	479,00
2288,33	387,00
2292,97	514,00
2297,61	358,00
2302,25	415,00
2306,88	437,00
2311,51	476,00
2316,14	431,00
2320,75	430,00
2325,37	457,00
2329,98	594,00
2334,59	362,00
2339,19	328,00
2343,79	459,00
2348,38	449,00
2352,97	376,00
2357,55	453,00
2362,13	402,00
2366,71	274,00
2371,28	431,00
2375,85	439,00
2380,41	348,00
2384,97	408,00
2389,52	315,00
2394,07	319,00
2398,62	458,00
2403,16	387,00
2407,70	305,00
2412,23	365,00
2416,76	326,00
2421,29	499,00
2425,81	460,00
2430,32	435,00
2434,84	357,00
2439,34	375,00
2443,85	278,00
2448,35	456,00
2452,84	358,00
2457,33	456,00
2461,82	463,00
2466,30	450,00
2470,78	356,00
2475,25	329,00
2479,72	307,00
2484,19	320,00
2488,65	374,00
2493,11	315,00
2497,56	437,00
2502,01	222,00
2506,46	296,00
2510,90	265,00
2515,34	223,00
2519,77	330,00
2524,20	311,00
2528,62	346,00
2533,04	343,00
2537,46	233,00
2541,87	366,00
2546,28	308,00
2550,68	371,00
2555,08	331,00
2559,48	435,00
2563,87	337,00
2568,26	331,00
2572,64	393,00
2577,02	378,00
2581,40	315,00
2585,77	385,00
2590,14	195,00
2594,50	289,00
2598,86	252,00
2603,22	382,00
2607,57	386,00
2611,92	348,00
2616,26	389,00
2620,60	512,00
2624,94	159,00
2629,27	344,00
2633,60	257,00
2637,92	352,00
2642,24	264,00
2646,56	339,00
2650,87	346,00
2655,18	420,00
2659,48	359,00
2663,78	260,00
2668,08	269,00
2672,37	284,00
2676,66	330,00
2680,95	433,00
2685,23	359,00
2689,50	399,00
2693,78	380,00
2698,05	373,00
2702,31	370,00
2706,57	354,00
2710,83	514,00
2715,08	331,00
2719,33	419,00
2723,58	477,00
2727,82	481,00
2732,06	351,00
2736,29	348,00
2740,53	386,00
2744,75	318,00
2748,97	294,00
2753,19	309,00
2757,41	430,00
2761,62	448,00
2765,83	361,00
2770,03	338,00
2774,23	348,00
2778,43	269,00
2782,62	342,00
2786,81	389,00
2791,00	441,00
2795,18	461,00
2799,35	355,00
2803,53	494,00
2807,70	461,00
2811,86	344,00
2816,03	387,00
2820,19	391,00
2824,34	602,00
2828,49	422,00
2832,64	470,00
2836,78	670,00
2840,92	747,00
2845,06	907,00
2849,19	934,00
2853,32	1024,00
2857,45	1043,00
2861,57	1007,00
2865,69	982,00
2869,80	984,00
2873,91	1017,00
2878,02	1009,00
2882,12	1105,00
2886,22	1150,00
2890,32	1041,00
2894,41	864,00
2898,50	1060,00
2902,58	848,00
2906,67	781,00
2910,74	848,00
2914,82	844,00
2918,89	832,00
2922,96	672,00
2927,02	571,00
2931,08	626,00
2935,13	648,00
2939,19	637,00
2943,24	569,00
2947,28	443,00
2951,32	501,00
2955,36	511,00
2959,40	400,00
2963,43	384,00
2967,46	287,00
2971,48	307,00
2975,50	416,00
2979,52	321,00
2983,53	353,00
2987,54	355,00
2991,55	333,00
2995,55	319,00
2999,55	340,00
3003,54	404,00
3007,54	326,00
3011,53	362,00
3015,51	289,00
3019,49	337,00
3023,47	300,00
3027,45	392,00
3031,42	258,00
3035,39	366,00
3039,35	265,00
3043,31	330,00
3047,27	272,00
3051,22	242,00
3055,17	228,00
3059,12	230,00
3063,06	239,00
3067,00	203,00
3070,94	257,00
3074,87	198,00
3078,80	265,00
3082,73	247,00
3086,65	212,00
3090,57	236,00
3094,49	314,00
3098,40	334,00
3102,31	303,00
3106,22	145,00
3110,12	271,00
3114,02	310,00
3117,92	282,00
3121,81	177,00
3125,70	327,00
3129,58	160,00
3133,47	276,00
3137,34	315,00
3141,22	147,00
3145,09	298,00
3148,96	193,00
3152,83	180,00
3156,69	205,00
3160,55	203,00
3164,40	284,00
3168,26	282,00
3172,10	258,00
3175,95	290,00
3179,79	163,00
3183,63	366,00
3187,47	198,00
3191,30	252,00
3195,13	227,00
3198,95	248,00
3202,78	55,00
3206,60	354,00
3210,41	228,00
3214,23	215,00
3218,03	167,00
3221,84	280,00
3225,64	141,00
3229,44	228,00
3233,24	296,00
3237,03	222,00
3240,82	199,00
3244,61	240,00
3248,39	152,00
3252,17	256,00
3255,95	294,00
3259,72	241,00
3263,49	230,00
3267,26	217,00
3271,03	204,00
3274,79	308,00
3278,54	133,00
3282,30	151,00
3286,05	234,00
3289,80	204,00
3293,54	139,00
3297,29	260,00
3301,02	202,00
3304,76	217,00
3308,49	122,00
3312,22	187,00
3315,95	178,00
3319,67	255,00
3323,39	201,00
3327,10	182,00
3330,82	250,00
3334,53	185,00
3338,24	210,00
3341,94	312,00
3345,64	207,00
3349,34	202,00
3353,03	276,00
3356,72	212,00
3360,41	257,00
3364,10	191,00
3367,78	238,00
3371,46	127,00
3375,13	212,00
3378,81	141,00
3382,48	179,00
3386,14	209,00
3389,81	109,00
3393,47	310,00
3397,12	292,00
3400,78	353,00
3404,43	137,00
3408,08	157,00
3411,72	176,00
3415,36	156,00
3419,00	101,00
3422,64	304,00
3426,27	208,00
3429,90	167,00
3433,53	203,00
3437,15	250,00
3440,77	295,00
3444,39	307,00
3448,00	157,00
3451,62	116,00
3455,22	179,00
3458,83	224,00
3462,43	227,00
3466,03	232,00
3469,63	164,00
3473,22	138,00
3476,81	148,00
3480,40	232,00
3483,99	204,00
3487,57	136,00
3491,15	162,00
3494,72	225,00
3498,29	237,00
3501,86	117,00
3505,43	211,00
3508,99	21,00
3512,56	153,00
3516,11	177,00
3519,67	167,00
3523,22	292,00
3526,77	248,00
3530,32	181,00
3533,86	180,00
3537,40	396,00
3540,94	246,00
3544,47	175,00
3548,00	208,00
3551,53	220,00
3555,06	156,00
3558,58	104,00
3562,10	188,00
3565,62	161,00
3569,13	203,00
3572,64	232,00
3576,15	158,00
3579,66	337,00
3583,16	283,00
3586,66	258,00
3590,16	97,00
3593,65	202,00
3597,14	285,00
3600,63	189,00
3604,11	233,00
3607,60	190,00
3611,08	262,00
3614,55	193,00
3618,03	160,00
3621,50	179,00
3624,97	227,00
3628,43	124,00
3631,90	139,00
3635,36	115,00
3638,81	217,00
3642,27	223,00
3645,72	253,00
3649,17	162,00
3652,61	211,00
3656,06	156,00
3659,50	240,00
3662,93	222,00
3666,37	220,00
3669,80	200,00
3673,23	80,00
3676,65	216,00
3680,08	198,00
3683,50	154,00
3686,92	275,00
3690,33	209,00
3693,74	244,00
3697,15	83,00
3700,56	238,00
3703,96	108,00
3707,36	110,00
3710,76	145,00
3714,16	179,00
3717,55	286,00
3720,94	182,00
3724,33	209,00
3727,71	240,00
3731,10	217,00
3734,48	114,00
3737,85	124,00
3741,23	252,00
3744,60	154,00
3747,97	160,00
3751,33	204,00
3754,69	255,00
3758,05	189,00
3761,41	239,00
3764,77	103,00
3768,12	178,00
3771,47	164,00
3774,82	211,00
3778,16	-6,00
3781,50	1,00
3784,84	-4,00
3788,18	10,00
>>>>>End Processed Spectral Data<<<<<
