SpectraSuite Data File
++++++++++++++++++++++++++++++++++++
Date: Mon Mar 09 16:13:42 ICT 2026
User: Administrator
Dark Spectrum Present: Yes
Reference Spectrum Present: No
Number of Sampled Component Spectra: 1
Spectrometers: MAYP113682
Integration Time (usec): 3000000 (MAYP113682)
Spectra Averaged: 1 (MAYP113682)
Boxcar Smoothing: 0 (MAYP113682)
Correct for Electrical Dark: No (MAYP113682)
Strobe/Lamp Enabled: No (MAYP113682)
Correct for Detector Non-linearity: No (MAYP113682)
Correct for Stray Light: No (MAYP113682)
Number of Pixels in Processed Spectrum: 2068
>>>>>Begin Processed Spectral Data<<<<<
-37534,58	-6,00
-37414,56	-1,00
-37295,11	-11,00
-37176,24	0,00
-37057,95	-3,00
-36940,22	85,00
-36823,05	20,00
-36706,45	78,00
-36590,40	-40,00
-36474,90	97,00
-36359,95	42,00
-36245,55	-36,00
-36131,68	-23,00
-36018,35	38,00
-35905,55	59,00
-35793,29	-25,00
-35681,54	48,00
-35570,32	-19,00
-35459,62	25,00
-35349,43	65,00
-35239,75	-51,00
-35130,58	63,00
-35021,91	-56,00
-34913,74	81,00
-34806,07	-8,00
-34698,89	-81,00
-34592,20	-94,00
-34486,00	124,00
-34380,28	-10,00
-34275,04	61,00
-34170,27	-61,00
-34065,98	-18,00
-33962,16	14,00
-33858,81	-12,00
-33755,92	229,00
-33653,49	81,00
-33551,52	-88,00
-33450,01	108,00
-33348,94	-18,00
-33248,33	-108,00
-33148,16	-42,00
-33048,43	47,00
-32949,14	-6,00
-32850,29	77,00
-32751,87	-20,00
-32653,89	79,00
-32556,33	0,00
-32459,20	-19,00
-32362,49	37,00
-32266,19	55,00
-32170,32	-25,00
-32074,86	34,00
-31979,82	-104,00
-31885,18	-86,00
-31790,95	80,00
-31697,12	-69,00
-31603,69	55,00
-31510,67	69,00
-31418,04	-60,00
-31325,80	47,00
-31233,95	121,00
-31142,49	39,00
-31051,42	51,00
-30960,73	49,00
-30870,43	53,00
-30780,50	113,00
-30690,95	-88,00
-30601,77	42,00
-30512,97	148,00
-30424,53	-4,00
-30336,46	7,00
-30248,76	-18,00
-30161,42	45,00
-30074,44	-42,00
-29987,81	78,00
-29901,55	70,00
-29815,63	-35,00
-29730,07	36,00
-29644,86	-34,00
-29560,00	-61,00
-29475,48	138,00
-29391,30	69,00
-29307,47	7,00
-29223,97	-9,00
-29140,81	18,00
-29057,99	23,00
-28975,50	-28,00
-28893,34	96,00
-28811,51	34,00
-28730,00	61,00
-28648,82	-22,00
-28567,97	-23,00
-28487,43	-26,00
-28407,21	-40,00
-28327,32	108,00
-28247,73	55,00
-28168,46	98,00
-28089,50	46,00
-28010,85	-73,00
-27932,51	44,00
-27854,48	-33,00
-27776,75	19,00
-27699,32	44,00
-27622,19	45,00
-27545,37	-19,00
-27468,84	135,00
-27392,60	-16,00
-27316,66	-32,00
-27241,01	32,00
-27165,66	25,00
-27090,59	-5,00
-27015,81	14,00
-26941,31	52,00
-26867,10	16,00
-26793,17	-97,00
-26719,52	-44,00
-26646,15	81,00
-26573,06	6,00
-26500,24	76,00
-26427,70	39,00
-26355,43	-20,00
-26283,43	10,00
-26211,71	-84,00
-26140,25	97,00
-26069,06	13,00
-25998,13	108,00
-25927,46	-8,00
-25857,06	59,00
-25786,92	92,00
-25717,04	-51,00
-25647,42	181,00
-25578,05	64,00
-25508,94	-28,00
-25440,09	-77,00
-25371,48	42,00
-25303,13	56,00
-25235,02	-103,00
-25167,17	14,00
-25099,56	58,00
-25032,19	95,00
-24965,07	-45,00
-24898,20	-1,00
-24831,56	-31,00
-24765,17	157,00
-24699,01	68,00
-24633,10	43,00
-24567,41	29,00
-24501,97	76,00
-24436,75	-86,00
-24371,77	132,00
-24307,03	-6,00
-24242,51	15,00
-24178,22	42,00
-24114,16	26,00
-24050,32	145,00
-23986,71	102,00
-23923,32	89,00
-23860,16	-36,00
-23797,22	86,00
-23734,50	15,00
-23672,00	-92,00
-23609,71	27,00
-23547,65	35,00
-23485,80	23,00
-23424,16	67,00
-23362,74	56,00
-23301,53	-38,00
-23240,54	-53,00
-23179,75	90,00
-23119,17	-99,00
-23058,80	-12,00
-22998,64	110,00
-22938,68	80,00
-22878,93	5,00
-22819,39	-6,00
-22760,04	40,00
-22700,90	-54,00
-22641,96	-23,00
-22583,22	43,00
-22524,68	108,00
-22466,33	98,00
-22408,19	-74,00
-22350,23	-35,00
-22292,48	79,00
-22234,92	28,00
-22177,55	34,00
-22120,37	60,00
-22063,38	99,00
-22006,58	15,00
-21949,98	20,00
-21893,56	24,00
-21837,33	-51,00
-21781,28	58,00
-21725,42	54,00
-21669,74	-16,00
-21614,25	3,00
-21558,94	46,00
-21503,81	25,00
-21448,86	-137,00
-21394,10	112,00
-21339,51	24,00
-21285,10	-27,00
-21230,86	72,00
-21176,81	24,00
-21122,93	15,00
-21069,22	-13,00
-21015,69	79,00
-20962,33	34,00
-20909,14	78,00
-20856,13	-18,00
-20803,28	-17,00
-20750,61	-4,00
-20698,10	-75,00
-20645,76	73,00
-20593,59	-55,00
-20541,59	116,00
-20489,75	-24,00
-20438,07	115,00
-20386,56	-117,00
-20335,22	106,00
-20284,03	-81,00
-20233,01	-40,00
-20182,15	-155,00
-20131,45	-68,00
-20080,91	30,00
-20030,52	-74,00
-19980,30	38,00
-19930,23	29,00
-19880,32	19,00
-19830,56	-24,00
-19780,96	-9,00
-19731,52	46,00
-19682,23	3,00
-19633,09	21,00
-19584,10	-30,00
-19535,26	10,00
-19486,58	42,00
-19438,04	114,00
-19389,66	-89,00
-19341,42	-62,00
-19293,33	65,00
-19245,39	94,00
-19197,60	131,00
-19149,95	81,00
-19102,45	122,00
-19055,09	94,00
-19007,87	34,00
-18960,80	70,00
-18913,87	-42,00
-18867,09	38,00
-18820,44	-46,00
-18773,94	33,00
-18727,57	-37,00
-18681,35	-11,00
-18635,26	66,00
-18589,31	69,00
-18543,50	5,00
-18497,83	-80,00
-18452,29	4,00
-18406,89	-43,00
-18361,63	57,00
-18316,50	142,00
-18271,50	140,00
-18226,63	37,00
-18181,90	27,00
-18137,30	156,00
-18092,84	43,00
-18048,50	51,00
-18004,29	78,00
-17960,22	13,00
-17916,27	45,00
-17872,45	28,00
-17828,76	99,00
-17785,20	6,00
-17741,77	121,00
-17698,46	45,00
-17655,28	3,00
-17612,22	-7,00
-17569,29	53,00
-17526,48	-18,00
-17483,79	101,00
-17441,23	73,00
-17398,79	-30,00
-17356,48	112,00
-17314,28	34,00
-17272,21	-38,00
-17230,26	101,00
-17188,42	-15,00
-17146,71	-38,00
-17105,12	18,00
-17063,64	-75,00
-17022,28	199,00
-16981,04	37,00
-16939,92	35,00
-16898,91	1,00
-16858,02	-3,00
-16817,25	-79,00
-16776,59	-16,00
-16736,04	-69,00
-16695,61	-78,00
-16655,29	-11,00
-16615,09	119,00
-16574,99	22,00
-16535,01	145,00
-16495,15	9,00
-16455,39	-64,00
-16415,74	32,00
-16376,21	-51,00
-16336,78	60,00
-16297,46	-129,00
-16258,26	3,00
-16219,16	-24,00
-16180,17	136,00
-16141,28	43,00
-16102,51	70,00
-16063,84	-28,00
-16025,27	89,00
-15986,82	149,00
-15948,46	-64,00
-15910,22	1,00
-15872,07	77,00
-15834,04	-12,00
-15796,10	45,00
-15758,27	50,00
-15720,54	74,00
-15682,91	34,00
-15645,39	36,00
-15607,97	-63,00
-15570,64	-25,00
-15533,42	39,00
-15496,30	120,00
-15459,28	38,00
-15422,36	102,00
-15385,54	-89,00
-15348,82	-59,00
-15312,19	-50,00
-15275,66	-66,00
-15239,23	69,00
-15202,90	-60,00
-15166,67	16,00
-15130,53	72,00
-15094,48	26,00
-15058,54	51,00
-15022,68	-88,00
-14986,93	94,00
-14951,26	-28,00
-14915,69	60,00
-14880,22	130,00
-14844,84	-15,00
-14809,55	24,00
-14774,35	82,00
-14739,25	-7,00
-14704,24	-28,00
-14669,32	-140,00
-14634,49	130,00
-14599,75	101,00
-14565,10	27,00
-14530,55	58,00
-14496,08	62,00
-14461,70	85,00
-14427,41	-23,00
-14393,21	2,00
-14359,10	-27,00
-14325,07	-39,00
-14291,14	-4,00
-14257,29	117,00
-14223,52	57,00
-14189,85	131,00
-14156,26	-11,00
-14122,76	21,00
-14089,34	28,00
-14056,01	53,00
-14022,76	129,00
-13989,60	-68,00
-13956,52	18,00
-13923,53	-123,00
-13890,62	39,00
-13857,79	-29,00
-13825,05	10,00
-13792,39	-53,00
-13759,81	-24,00
-13727,31	-29,00
-13694,90	-35,00
-13662,57	51,00
-13630,31	-79,00
-13598,14	-119,00
-13566,05	-52,00
-13534,05	40,00
-13502,12	1,00
-13470,27	-84,00
-13438,50	68,00
-13406,80	-83,00
-13375,19	88,00
-13343,66	-58,00
-13312,20	43,00
-13280,83	65,00
-13249,53	-2,00
-13218,30	64,00
-13187,16	7,00
-13156,09	36,00
-13125,10	39,00
-13094,18	61,00
-13063,34	15,00
-13032,58	1,00
-13001,89	34,00
-12971,28	-24,00
-12940,74	154,00
-12910,27	52,00
-12879,88	15,00
-12849,57	-26,00
-12819,33	100,00
-12789,16	-71,00
-12759,06	9,00
-12729,04	27,00
-12699,09	-8,00
-12669,21	35,00
-12639,41	-113,00
-12609,68	64,00
-12580,02	-24,00
-12550,43	-55,00
-12520,91	16,00
-12491,46	122,00
-12462,08	-20,00
-12432,77	-54,00
-12403,54	-108,00
-12374,37	63,00
-12345,27	-31,00
-12316,24	63,00
-12287,29	97,00
-12258,40	79,00
-12229,57	33,00
-12200,82	-30,00
-12172,14	-64,00
-12143,52	101,00
-12114,97	3,00
-12086,49	43,00
-12058,07	-83,00
-12029,73	-45,00
-12001,44	1,00
-11973,23	46,00
-11945,08	-2,00
-11917,00	114,00
-11888,98	37,00
-11861,03	17,00
-11833,15	20,00
-11805,32	17,00
-11777,57	-54,00
-11749,88	7,00
-11722,25	-47,00
-11694,69	96,00
-11667,19	120,00
-11639,75	-42,00
-11612,38	-109,00
-11585,07	11,00
-11557,83	-12,00
-11530,65	10,00
-11503,53	7,00
-11476,47	21,00
-11449,48	85,00
-11422,54	-35,00
-11395,67	-84,00
-11368,86	31,00
-11342,11	72,00
-11315,43	15,00
-11288,80	81,00
-11262,23	56,00
-11235,73	25,00
-11209,28	-42,00
-11182,90	103,00
-11156,57	70,00
-11130,31	99,00
-11104,10	-64,00
-11077,96	33,00
-11051,87	112,00
-11025,84	22,00
-10999,87	94,00
-10973,96	17,00
-10948,11	-15,00
-10922,31	101,00
-10896,58	94,00
-10870,90	39,00
-10845,28	1,00
-10819,71	104,00
-10794,20	-2,00
-10768,75	35,00
-10743,36	-58,00
-10718,02	32,00
-10692,74	135,00
-10667,52	129,00
-10642,35	200,00
-10617,24	42,00
-10592,18	75,00
-10567,18	111,00
-10542,23	141,00
-10517,34	222,00
-10492,51	167,00
-10467,72	145,00
-10443,00	137,00
-10418,32	81,00
-10393,70	101,00
-10369,14	104,00
-10344,63	169,00
-10320,17	253,00
-10295,77	228,00
-10271,42	122,00
-10247,12	150,00
-10222,88	190,00
-10198,68	236,00
-10174,54	277,00
-10150,46	213,00
-10126,42	385,00
-10102,44	260,00
-10078,51	351,00
-10054,63	336,00
-10030,80	423,00
-10007,03	282,00
-9983,30	332,00
-9959,63	459,00
-9936,01	619,00
-9912,44	522,00
-9888,92	582,00
-9865,44	439,00
-9842,02	464,00
-9818,65	589,00
-9795,33	594,00
-9772,06	575,00
-9748,84	620,00
-9725,67	680,00
-9702,55	789,00
-9679,47	1042,00
-9656,45	1155,00
-9633,47	1104,00
-9610,55	1157,00
-9587,67	1162,00
-9564,84	1357,00
-9542,06	1511,00
-9519,32	1621,00
-9496,64	1786,00
-9474,00	1971,00
-9451,41	2160,00
-9428,87	1906,00
-9406,37	1922,00
-9383,92	1993,00
-9361,52	1816,00
-9339,17	1987,00
-9316,86	2439,00
-9294,60	2852,00
-9272,38	3077,00
-9250,21	3337,00
-9228,09	3573,00
-9206,01	3332,00
-9183,98	3088,00
-9162,00	2892,00
-9140,06	2607,00
-9118,16	2789,00
-9096,31	2970,00
-9074,51	3160,00
-9052,75	3192,00
-9031,04	3027,00
-9009,37	2677,00
-8987,74	2367,00
-8966,16	2066,00
-8944,63	1722,00
-8923,14	1773,00
-8901,69	1824,00
-8880,29	2204,00
-8858,93	2439,00
-8837,61	2693,00
-8816,34	2907,00
-8795,11	2792,00
-8773,92	2554,00
-8752,78	2162,00
-8731,68	2220,00
-8710,62	2024,00
-8689,61	2383,00
-8668,63	2547,00
-8647,70	2594,00
-8626,82	2574,00
-8605,97	2465,00
-8585,17	2226,00
-8564,41	1995,00
-8543,69	1845,00
-8523,01	1815,00
-8502,37	2027,00
-8481,78	2137,00
-8461,23	2388,00
-8440,71	2462,00
-8420,24	2524,00
-8399,81	2743,00
-8379,42	2783,00
-8359,08	2349,00
-8338,77	2159,00
-8318,50	2114,00
-8298,27	2012,00
-8278,09	2040,00
-8257,94	2216,00
-8237,83	2454,00
-8217,76	2585,00
-8197,74	2629,00
-8177,75	2397,00
-8157,80	2325,00
-8137,89	2075,00
-8118,02	2001,00
-8098,19	1892,00
-8078,40	2002,00
-8058,65	2072,00
-8038,93	2121,00
-8019,26	2075,00
-7999,62	1977,00
-7980,02	1734,00
-7960,46	1767,00
-7940,94	1757,00
-7921,46	1638,00
-7902,01	1589,00
-7882,60	1660,00
-7863,23	1785,00
-7843,90	1697,00
-7824,61	1755,00
-7805,35	1971,00
-7786,13	1998,00
-7766,95	1952,00
-7747,80	1799,00
-7728,69	1844,00
-7709,62	1729,00
-7690,59	1788,00
-7671,59	2080,00
-7652,63	2009,00
-7633,70	2046,00
-7614,81	1856,00
-7595,96	1821,00
-7577,15	1644,00
-7558,37	1502,00
-7539,62	1748,00
-7520,91	1907,00
-7502,24	1749,00
-7483,60	1886,00
-7465,00	1711,00
-7446,44	1597,00
-7427,91	1372,00
-7409,41	1245,00
-7390,95	1080,00
-7372,53	1098,00
-7354,14	1122,00
-7335,78	1043,00
-7317,46	1421,00
-7299,18	1337,00
-7280,92	1517,00
-7262,71	1761,00
-7244,52	1881,00
-7226,38	1970,00
-7208,26	1886,00
-7190,18	1653,00
-7172,14	1632,00
-7154,12	1430,00
-7136,15	1603,00
-7118,20	1616,00
-7100,29	1762,00
-7082,41	1773,00
-7064,57	1695,00
-7046,76	1586,00
-7028,98	1290,00
-7011,24	1454,00
-6993,53	1037,00
-6975,85	888,00
-6958,20	774,00
-6940,59	663,00
-6923,01	820,00
-6905,46	1072,00
-6887,94	1273,00
-6870,46	1399,00
-6853,01	1609,00
-6835,59	1613,00
-6818,21	1458,00
-6800,85	1228,00
-6783,53	942,00
-6766,24	678,00
-6748,98	619,00
-6731,76	616,00
-6714,56	456,00
-6697,40	684,00
-6680,26	637,00
-6663,16	848,00
-6646,09	892,00
-6629,05	1162,00
-6612,05	1283,00
-6595,07	1267,00
-6578,13	1164,00
-6561,21	868,00
-6544,33	577,00
-6527,47	539,00
-6510,65	366,00
-6493,86	461,00
-6477,10	505,00
-6460,36	430,00
-6443,66	469,00
-6426,99	597,00
-6410,35	541,00
-6393,74	580,00
-6377,16	797,00
-6360,61	688,00
-6344,09	806,00
-6327,59	777,00
-6311,13	783,00
-6294,70	740,00
-6278,29	1076,00
-6261,92	1162,00
-6245,58	1211,00
-6229,26	1223,00
-6212,97	1112,00
-6196,72	732,00
-6180,49	485,00
-6164,29	377,00
-6148,12	320,00
-6131,98	223,00
-6115,86	196,00
-6099,78	140,00
-6083,72	151,00
-6067,69	151,00
-6051,69	155,00
-6035,72	374,00
-6019,78	414,00
-6003,87	525,00
-5987,98	828,00
-5972,12	907,00
-5956,29	889,00
-5940,49	701,00
-5924,71	496,00
-5908,96	299,00
-5893,24	221,00
-5877,55	328,00
-5861,89	262,00
-5846,25	307,00
-5830,64	313,00
-5815,05	366,00
-5799,50	389,00
-5783,97	320,00
-5768,47	432,00
-5752,99	612,00
-5737,55	686,00
-5722,12	809,00
-5706,73	920,00
-5691,36	627,00
-5676,02	474,00
-5660,71	343,00
-5645,42	268,00
-5630,16	285,00
-5614,92	514,00
-5599,71	519,00
-5584,53	615,00
-5569,37	567,00
-5554,24	1522,00
-5539,14	415,00
-5524,06	449,00
-5509,01	596,00
-5493,98	438,00
-5478,98	504,00
-5464,00	471,00
-5449,05	387,00
-5434,13	331,00
-5419,23	234,00
-5404,36	348,00
-5389,51	477,00
-5374,69	881,00
-5359,89	766,00
-5345,12	869,00
-5330,37	1008,00
-5315,65	628,00
-5300,95	567,00
-5286,28	456,00
-5271,63	512,00
-5257,01	450,00
-5242,41	508,00
-5227,84	285,00
-5213,29	256,00
-5198,76	150,00
-5184,26	242,00
-5169,79	326,00
-5155,33	394,00
-5140,91	502,00
-5126,51	645,00
-5112,13	584,00
-5097,77	607,00
-5083,44	253,00
-5069,13	294,00
-5054,85	418,00
-5040,59	388,00
-5026,36	438,00
-5012,15	569,00
-4997,96	433,00
-4983,80	282,00
-4969,66	302,00
-4955,54	294,00
-4941,44	473,00
-4927,37	521,00
-4913,33	937,00
-4899,30	936,00
-4885,30	1006,00
-4871,33	692,00
-4857,37	315,00
-4843,44	220,00
-4829,53	286,00
-4815,65	346,00
-4801,79	373,00
-4787,95	283,00
-4774,13	387,00
-4760,34	211,00
-4746,56	195,00
-4732,82	216,00
-4719,09	400,00
-4705,38	695,00
-4691,70	789,00
-4678,04	718,00
-4664,41	576,00
-4650,79	297,00
-4637,20	199,00
-4623,63	267,00
-4610,08	348,00
-4596,56	441,00
-4583,05	546,00
-4569,57	393,00
-4556,11	340,00
-4542,67	166,00
-4529,25	245,00
-4515,86	436,00
-4502,49	682,00
-4489,13	689,00
-4475,80	648,00
-4462,49	415,00
-4449,21	240,00
-4435,94	264,00
-4422,70	286,00
-4409,47	424,00
-4396,27	475,00
-4383,09	288,00
-4369,93	112,00
-4356,79	68,00
-4343,67	61,00
-4330,58	237,00
-4317,50	317,00
-4304,45	348,00
-4291,41	171,00
-4278,40	174,00
-4265,41	181,00
-4252,44	206,00
-4239,49	339,00
-4226,55	456,00
-4213,65	271,00
-4200,76	-30,00
-4187,89	85,00
-4175,04	68,00
-4162,21	143,00
-4149,40	132,00
-4136,61	189,00
-4123,85	28,00
-4111,10	72,00
-4098,37	31,00
-4085,66	217,00
-4072,98	271,00
-4060,31	146,00
-4047,66	163,00
-4035,04	118,00
-4022,43	185,00
-4009,84	211,00
-3997,27	57,00
-3984,72	181,00
-3972,19	38,00
-3959,69	0,00
-3947,20	77,00
-3934,73	-38,00
-3922,27	80,00
-3909,84	-53,00
-3897,43	188,00
-3885,04	-67,00
-3872,67	42,00
-3860,31	-127,00
-3847,98	55,00
-3835,66	-104,00
-3823,36	-70,00
-3811,09	53,00
-3798,83	80,00
-3786,59	-48,00
-3774,37	88,00
-3762,17	65,00
-3749,98	82,00
-3737,82	35,00
-3725,67	-24,00
-3713,55	-17,00
-3701,44	106,00
-3689,35	70,00
-3677,28	16,00
-3665,22	-96,00
-3653,19	-132,00
-3641,17	44,00
-3629,18	117,00
-3617,20	44,00
-3605,24	53,00
-3593,30	-41,00
-3581,37	3,00
-3569,47	56,00
-3557,58	-36,00
-3545,71	49,00
-3533,86	74,00
-3522,02	-83,00
-3510,21	92,00
-3498,41	-65,00
-3486,63	99,00
-3474,87	36,00
-3463,12	102,00
-3451,40	102,00
-3439,69	140,00
-3428,00	155,00
-3416,33	22,00
-3404,67	7,00
-3393,03	103,00
-3381,41	-28,00
-3369,81	-44,00
-3358,22	120,00
-3346,66	68,00
-3335,10	6,00
-3323,57	142,00
-3312,06	12,00
-3300,56	-41,00
-3289,08	28,00
-3277,61	45,00
-3266,16	66,00
-3254,73	125,00
-3243,32	-30,00
-3231,92	6,00
-3220,55	48,00
-3209,18	-32,00
-3197,84	147,00
-3186,51	64,00
-3175,20	111,00
-3163,90	35,00
-3152,63	-20,00
-3141,36	8,00
-3130,12	130,00
-3118,89	-53,00
-3107,68	138,00
-3096,49	61,00
-3085,31	-24,00
-3074,15	-17,00
-3063,00	-46,00
-3051,87	118,00
-3040,76	1,00
-3029,67	5,00
-3018,59	-33,00
-3007,52	69,00
-2996,48	-31,00
-2985,44	45,00
-2974,43	-36,00
-2963,43	51,00
-2952,45	5,00
-2941,48	67,00
-2930,53	-79,00
-2919,60	-37,00
-2908,68	78,00
-2897,78	123,00
-2886,89	-48,00
-2876,02	78,00
-2865,17	41,00
-2854,33	112,00
-2843,50	80,00
-2832,70	47,00
-2821,90	-16,00
-2811,13	66,00
-2800,37	-55,00
-2789,62	-1,00
-2778,89	224,00
-2768,18	71,00
-2757,48	8,00
-2746,80	59,00
-2736,13	-24,00
-2725,48	47,00
-2714,84	-58,00
-2704,22	-5,00
-2693,61	-112,00
-2683,02	56,00
-2672,45	29,00
-2661,89	-28,00
-2651,34	-96,00
-2640,81	-8,00
-2630,30	98,00
-2619,80	68,00
-2609,31	26,00
-2598,84	40,00
-2588,39	107,00
-2577,95	117,00
-2567,52	48,00
-2557,11	-32,00
-2546,71	14,00
-2536,33	140,00
-2525,97	71,00
-2515,62	19,00
-2505,28	46,00
-2494,96	65,00
-2484,65	-48,00
-2474,36	403,00
-2464,08	38,00
-2453,82	15,00
-2443,57	134,00
-2433,33	33,00
-2423,11	115,00
-2412,91	12,00
-2402,72	-6,00
-2392,54	103,00
-2382,38	-15,00
-2372,23	-22,00
-2362,09	406,00
-2351,97	-10,00
-2341,87	-6,00
-2331,78	-47,00
-2321,70	12,00
-2311,64	118,00
-2301,59	19,00
-2291,55	26,00
-2281,53	-90,00
-2271,53	3,00
-2261,53	108,00
-2251,55	-18,00
-2241,59	94,00
-2231,64	17,00
-2221,70	27,00
-2211,78	39,00
-2201,87	100,00
-2191,97	69,00
-2182,09	4,00
-2172,22	82,00
-2162,37	-30,00
-2152,53	42,00
-2142,70	-56,00
-2132,89	-37,00
-2123,09	-12,00
-2113,30	71,00
-2103,53	118,00
-2093,77	-28,00
-2084,02	50,00
-2074,29	13,00
-2064,57	52,00
-2054,86	67,00
-2045,17	-26,00
-2035,49	13,00
-2025,82	1,00
-2016,17	2,00
-2006,53	24,00
-1996,91	11,00
-1987,29	71,00
-1977,69	-16,00
-1968,11	74,00
-1958,53	11,00
-1948,97	65,00
-1939,42	83,00
-1929,89	-12,00
-1920,37	131,00
-1910,86	72,00
-1901,36	-89,00
-1891,88	10,00
-1882,41	-49,00
-1872,95	97,00
-1863,51	-40,00
-1854,08	12,00
-1844,66	0,00
-1835,26	79,00
-1825,86	-52,00
-1816,48	-31,00
-1807,11	13,00
-1797,76	23,00
-1788,42	29,00
-1779,09	47,00
-1769,77	-102,00
-1760,47	-117,00
-1751,17	-4,00
-1741,89	-7,00
-1732,63	98,00
-1723,37	178,00
-1714,13	-28,00
-1704,90	-9,00
-1695,68	-16,00
-1686,48	43,00
-1677,29	117,00
-1668,11	26,00
-1658,94	49,00
-1649,78	-39,00
-1640,64	79,00
-1631,51	-30,00
-1622,39	32,00
-1613,28	91,00
-1604,19	-65,00
-1595,10	25,00
-1586,03	106,00
-1576,97	-77,00
-1567,93	24,00
-1558,89	-23,00
-1549,87	-59,00
-1540,86	119,00
-1531,86	16,00
-1522,87	-41,00
-1513,90	107,00
-1504,93	-115,00
-1495,98	56,00
-1487,04	126,00
-1478,12	21,00
-1469,20	-60,00
-1460,30	-1,00
-1451,40	11,00
-1442,52	78,00
-1433,65	87,00
-1424,80	23,00
-1415,95	-37,00
-1407,12	36,00
-1398,30	111,00
-1389,48	48,00
-1380,69	35,00
-1371,90	-14,00
-1363,12	76,00
-1354,36	79,00
-1345,60	-34,00
-1336,86	94,00
-1328,13	99,00
-1319,41	-74,00
-1310,70	92,00
-1302,01	27,00
-1293,32	77,00
-1284,65	20,00
-1275,99	1,00
-1267,33	-17,00
-1258,69	37,00
-1250,06	63,00
-1241,45	37,00
-1232,84	50,00
-1224,25	-22,00
-1215,66	-12,00
-1207,09	-39,00
-1198,53	-6,00
-1189,97	115,00
-1181,43	-46,00
-1172,91	-19,00
-1164,39	60,00
-1155,88	62,00
-1147,38	-20,00
-1138,90	17,00
-1130,43	40,00
-1121,96	-8,00
-1113,51	101,00
-1105,07	-26,00
-1096,64	-62,00
-1088,22	103,00
-1079,81	68,00
-1071,41	20,00
-1063,02	23,00
-1054,65	99,00
-1046,28	-14,00
-1037,92	65,00
-1029,58	86,00
-1021,24	126,00
-1012,92	97,00
-1004,61	-1,00
-996,30	94,00
-988,01	20,00
-979,73	9,00
-971,46	-21,00
-963,20	-75,00
-954,95	-30,00
-946,71	-9,00
-938,48	-48,00
-930,26	63,00
-922,06	2,00
-913,86	-55,00
-905,67	14,00
-897,49	-14,00
-889,33	-71,00
-881,17	5,00
-873,02	-15,00
-864,89	41,00
-856,76	154,00
-848,65	91,00
-840,54	29,00
-832,45	-146,00
-824,36	97,00
-816,29	65,00
-808,22	-9,00
-800,17	-62,00
-792,12	106,00
-784,09	-18,00
-776,06	-59,00
-768,05	26,00
-760,04	-34,00
-752,05	69,00
-744,07	-3,00
-736,09	-86,00
-728,13	-49,00
-720,17	-7,00
-712,23	106,00
-704,29	53,00
-696,37	160,00
-688,45	21,00
-680,55	42,00
-672,65	118,00
-664,77	172,00
-656,89	-71,00
-649,03	93,00
-641,17	147,00
-633,32	19,00
-625,49	75,00
-617,66	60,00
-609,84	-42,00
-602,03	52,00
-594,23	-16,00
-586,45	53,00
-578,67	-2,00
-570,90	62,00
-563,14	99,00
-555,39	-94,00
-547,65	82,00
-539,91	19,00
-532,19	50,00
-524,48	-13,00
-516,78	-3,00
-509,08	98,00
-501,40	-37,00
-493,72	69,00
-486,06	11,00
-478,40	51,00
-470,76	93,00
-463,12	110,00
-455,49	18,00
-447,87	79,00
-440,26	33,00
-432,66	-9,00
-425,07	45,00
-417,49	153,00
-409,92	90,00
-402,35	180,00
-394,80	21,00
-387,25	24,00
-379,72	11,00
-372,19	30,00
-364,67	132,00
-357,17	85,00
-349,67	-36,00
-342,18	33,00
-334,69	-35,00
-327,22	-23,00
-319,76	-19,00
-312,30	62,00
-304,86	162,00
-297,42	133,00
-290,00	119,00
-282,58	108,00
-275,17	74,00
-267,77	-16,00
-260,37	136,00
-252,99	88,00
-245,62	84,00
-238,25	84,00
-230,90	82,00
-223,55	60,00
-216,21	90,00
-208,88	63,00
-201,56	119,00
-194,25	107,00
-186,94	182,00
-179,65	114,00
-172,36	255,00
-165,08	246,00
-157,81	69,00
-150,55	229,00
-143,30	302,00
-136,06	360,00
-128,82	442,00
-121,60	472,00
-114,38	521,00
-107,17	477,00
-99,97	608,00
-92,78	695,00
-85,60	695,00
-78,42	997,00
-71,25	991,00
-64,10	1191,00
-56,95	1475,00
-49,81	1619,00
-42,67	2014,00
-35,55	2661,00
-28,43	3494,00
-21,33	5761,00
-14,23	19449,00
-7,14	55164,00
-0,05	54791,00
7,02	54542,00
14,09	54846,00
21,14	17216,00
28,19	6992,00
35,23	4528,00
42,27	3340,00
49,29	2674,00
56,31	2214,00
63,32	1891,00
70,32	1599,00
77,31	1391,00
84,29	1146,00
91,27	1118,00
98,23	938,00
105,19	867,00
112,14	969,00
119,09	1202,00
126,02	1763,00
132,95	2098,00
139,87	2119,00
146,78	2087,00
153,68	1999,00
160,58	1949,00
167,46	1890,00
174,34	1913,00
181,21	2048,00
188,08	1816,00
194,93	1805,00
201,78	1766,00
208,62	1822,00
215,45	1881,00
222,27	1828,00
229,09	1868,00
235,90	1827,00
242,70	1766,00
249,49	1870,00
256,27	1718,00
263,05	1649,00
269,82	1666,00
276,58	1534,00
283,33	1691,00
290,08	1666,00
296,82	1597,00
303,55	1562,00
310,27	1504,00
316,98	1557,00
323,69	1637,00
330,39	1511,00
337,08	1509,00
343,76	1483,00
350,44	1496,00
357,11	1552,00
363,77	1476,00
370,42	1496,00
377,07	1557,00
383,71	1479,00
390,34	1438,00
396,96	1465,00
403,58	1441,00
410,19	1543,00
416,79	1511,00
423,38	1517,00
429,97	1361,00
436,55	1475,00
443,12	1445,00
449,68	1273,00
456,24	1307,00
462,79	1178,00
469,33	1219,00
475,86	1166,00
482,39	1237,00
488,91	1233,00
495,42	1298,00
501,93	1265,00
508,42	1265,00
514,91	1242,00
521,40	1185,00
527,87	1225,00
534,34	1213,00
540,80	1321,00
547,25	1078,00
553,70	1190,00
560,14	1103,00
566,57	1338,00
573,00	1237,00
579,41	1185,00
585,83	1049,00
592,23	1021,00
598,62	1123,00
605,01	1177,00
611,40	1117,00
617,77	1138,00
624,14	1108,00
630,50	1120,00
636,85	995,00
643,20	990,00
649,54	1061,00
655,87	1060,00
662,20	1040,00
668,52	1017,00
674,83	1066,00
681,13	1008,00
687,43	914,00
693,72	983,00
700,00	940,00
706,28	1062,00
712,55	952,00
718,81	1100,00
725,07	897,00
731,32	932,00
737,56	947,00
743,79	1001,00
750,02	1147,00
756,24	963,00
762,46	925,00
768,67	1114,00
774,87	943,00
781,06	953,00
787,25	1016,00
793,43	906,00
799,60	931,00
805,77	878,00
811,93	1109,00
818,08	944,00
824,23	1120,00
830,37	916,00
836,50	961,00
842,63	967,00
848,75	939,00
854,87	828,00
860,97	923,00
867,07	964,00
873,17	991,00
879,25	899,00
885,33	954,00
891,41	1008,00
897,47	842,00
903,53	1018,00
909,59	978,00
915,63	911,00
921,67	808,00
927,71	835,00
933,74	936,00
939,76	881,00
945,77	850,00
951,78	836,00
957,78	897,00
963,78	879,00
969,77	806,00
975,75	865,00
981,72	823,00
987,69	1016,00
993,66	831,00
999,61	841,00
1005,56	814,00
1011,51	858,00
1017,44	878,00
1023,37	868,00
1029,30	814,00
1035,22	864,00
1041,13	973,00
1047,03	893,00
1052,93	1013,00
1058,83	1211,00
1064,71	1086,00
1070,59	1111,00
1076,47	1074,00
1082,33	951,00
1088,20	934,00
1094,05	858,00
1099,90	817,00
1105,74	813,00
1111,58	949,00
1117,41	938,00
1123,23	1077,00
1129,05	1189,00
1134,86	1119,00
1140,67	884,00
1146,47	887,00
1152,26	871,00
1158,05	789,00
1163,83	773,00
1169,60	755,00
1175,37	674,00
1181,13	801,00
1186,89	748,00
1192,64	785,00
1198,38	799,00
1204,12	715,00
1209,85	766,00
1215,58	806,00
1221,30	736,00
1227,02	820,00
1232,72	892,00
1238,43	780,00
1244,12	717,00
1249,81	743,00
1255,50	788,00
1261,17	821,00
1266,85	872,00
1272,51	864,00
1278,17	824,00
1283,83	978,00
1289,47	1255,00
1295,12	1298,00
1300,75	1314,00
1306,38	1159,00
1312,01	982,00
1317,63	912,00
1323,24	751,00
1328,85	923,00
1334,45	953,00
1340,04	771,00
1345,63	863,00
1351,22	917,00
1356,80	918,00
1362,37	751,00
1367,93	839,00
1373,49	970,00
1379,05	800,00
1384,60	981,00
1390,14	865,00
1395,68	835,00
1401,21	737,00
1406,74	765,00
1412,26	928,00
1417,77	834,00
1423,28	1072,00
1428,78	1094,00
1434,28	1431,00
1439,77	1473,00
1445,26	1380,00
1450,74	1346,00
1456,22	1230,00
1461,68	1290,00
1467,15	1240,00
1472,61	1046,00
1478,06	957,00
1483,51	972,00
1488,95	872,00
1494,38	737,00
1499,81	769,00
1505,24	737,00
1510,65	671,00
1516,07	846,00
1521,48	704,00
1526,88	662,00
1532,27	678,00
1537,67	750,00
1543,05	700,00
1548,43	673,00
1553,81	761,00
1559,18	673,00
1564,54	737,00
1569,90	667,00
1575,25	706,00
1580,60	607,00
1585,94	522,00
1591,28	645,00
1596,61	624,00
1601,93	696,00
1607,25	676,00
1612,57	654,00
1617,88	664,00
1623,18	638,00
1628,48	578,00
1633,77	519,00
1639,06	529,00
1644,34	632,00
1649,62	727,00
1654,89	622,00
1660,16	579,00
1665,42	631,00
1670,67	477,00
1675,92	600,00
1681,17	585,00
1686,41	560,00
1691,64	454,00
1696,87	569,00
1702,10	491,00
1707,32	508,00
1712,53	601,00
1717,74	596,00
1722,94	444,00
1728,14	533,00
1733,33	603,00
1738,52	525,00
1743,70	613,00
1748,88	440,00
1754,05	549,00
1759,22	542,00
1764,38	-184,00
1769,53	554,00
1774,69	506,00
1779,83	561,00
1784,97	467,00
1790,11	420,00
1795,24	584,00
1800,36	588,00
1805,48	381,00
1810,60	447,00
1815,71	362,00
1820,82	468,00
1825,92	411,00
1831,01	489,00
1836,10	439,00
1841,19	550,00
1846,26	563,00
1851,34	409,00
1856,41	360,00
1861,47	378,00
1866,53	487,00
1871,59	454,00
1876,64	444,00
1881,68	277,00
1886,72	438,00
1891,76	471,00
1896,79	383,00
1901,81	439,00
1906,83	404,00
1911,85	455,00
1916,86	473,00
1921,86	507,00
1926,86	330,00
1931,86	418,00
1936,85	275,00
1941,83	455,00
1946,81	373,00
1951,79	408,00
1956,76	382,00
1961,72	293,00
1966,68	407,00
1971,64	215,00
1976,59	351,00
1981,54	367,00
1986,48	339,00
1991,42	329,00
1996,35	386,00
2001,27	281,00
2006,20	316,00
2011,11	416,00
2016,03	389,00
2020,93	279,00
2025,84	273,00
2030,73	322,00
2035,63	321,00
2040,52	334,00
2045,40	393,00
2050,28	358,00
2055,15	150,00
2060,02	348,00
2064,89	220,00
2069,75	325,00
2074,60	290,00
2079,46	230,00
2084,30	311,00
2089,14	274,00
2093,98	270,00
2098,81	347,00
2103,64	434,00
2108,46	202,00
2113,28	286,00
2118,09	263,00
2122,90	231,00
2127,70	283,00
2132,50	303,00
2137,30	298,00
2142,09	287,00
2146,87	387,00
2151,66	412,00
2156,43	274,00
2161,20	176,00
2165,97	239,00
2170,73	331,00
2175,49	297,00
2180,24	257,00
2184,99	423,00
2189,74	217,00
2194,48	307,00
2199,21	312,00
2203,94	224,00
2208,67	241,00
2213,39	257,00
2218,11	138,00
2222,82	230,00
2227,53	299,00
2232,23	159,00
2236,93	247,00
2241,63	252,00
2246,32	209,00
2251,00	257,00
2255,68	278,00
2260,36	179,00
2265,03	249,00
2269,70	204,00
2274,36	246,00
2279,02	206,00
2283,68	203,00
2288,33	186,00
2292,97	185,00
2297,61	174,00
2302,25	272,00
2306,88	256,00
2311,51	265,00
2316,14	190,00
2320,75	266,00
2325,37	215,00
2329,98	336,00
2334,59	229,00
2339,19	234,00
2343,79	164,00
2348,38	215,00
2352,97	158,00
2357,55	225,00
2362,13	296,00
2366,71	366,00
2371,28	125,00
2375,85	181,00
2380,41	191,00
2384,97	192,00
2389,52	215,00
2394,07	156,00
2398,62	100,00
2403,16	142,00
2407,70	359,00
2412,23	202,00
2416,76	214,00
2421,29	187,00
2425,81	202,00
2430,32	318,00
2434,84	177,00
2439,34	241,00
2443,85	134,00
2448,35	94,00
2452,84	138,00
2457,33	133,00
2461,82	275,00
2466,30	186,00
2470,78	249,00
2475,25	168,00
2479,72	272,00
2484,19	202,00
2488,65	251,00
2493,11	136,00
2497,56	229,00
2502,01	220,00
2506,46	193,00
2510,90	120,00
2515,34	211,00
2519,77	110,00
2524,20	210,00
2528,62	76,00
2533,04	219,00
2537,46	121,00
2541,87	187,00
2546,28	160,00
2550,68	265,00
2555,08	103,00
2559,48	261,00
2563,87	84,00
2568,26	97,00
2572,64	133,00
2577,02	185,00
2581,40	99,00
2585,77	175,00
2590,14	81,00
2594,50	40,00
2598,86	275,00
2603,22	192,00
2607,57	137,00
2611,92	59,00
2616,26	143,00
2620,60	219,00
2624,94	129,00
2629,27	119,00
2633,60	113,00
2637,92	97,00
2642,24	236,00
2646,56	65,00
2650,87	154,00
2655,18	185,00
2659,48	109,00
2663,78	184,00
2668,08	230,00
2672,37	272,00
2676,66	202,00
2680,95	128,00
2685,23	111,00
2689,50	248,00
2693,78	209,00
2698,05	211,00
2702,31	248,00
2706,57	176,00
2710,83	169,00
2715,08	244,00
2719,33	336,00
2723,58	281,00
2727,82	330,00
2732,06	196,00
2736,29	199,00
2740,53	274,00
2744,75	178,00
2748,97	182,00
2753,19	328,00
2757,41	209,00
2761,62	183,00
2765,83	237,00
2770,03	92,00
2774,23	86,00
2778,43	150,00
2782,62	166,00
2786,81	142,00
2791,00	195,00
2795,18	272,00
2799,35	135,00
2803,53	301,00
2807,70	382,00
2811,86	239,00
2816,03	326,00
2820,19	299,00
2824,34	338,00
2828,49	520,00
2832,64	508,00
2836,78	580,00
2840,92	754,00
2845,06	830,00
2849,19	860,00
2853,32	922,00
2857,45	964,00
2861,57	887,00
2865,69	918,00
2869,80	924,00
2873,91	951,00
2878,02	1030,00
2882,12	937,00
2886,22	1046,00
2890,32	926,00
2894,41	997,00
2898,50	886,00
2902,58	785,00
2906,67	724,00
2910,74	619,00
2914,82	655,00
2918,89	626,00
2922,96	640,00
2927,02	552,00
2931,08	464,00
2935,13	453,00
2939,19	523,00
2943,24	359,00
2947,28	313,00
2951,32	296,00
2955,36	400,00
2959,40	206,00
2963,43	181,00
2967,46	219,00
2971,48	257,00
2975,50	189,00
2979,52	283,00
2983,53	211,00
2987,54	186,00
2991,55	142,00
2995,55	171,00
2999,55	72,00
3003,54	-16,00
3007,54	16,00
3011,53	101,00
3015,51	30,00
3019,49	226,00
3023,47	160,00
3027,45	190,00
3031,42	40,00
3035,39	82,00
3039,35	144,00
3043,31	23,00
3047,27	103,00
3051,22	142,00
3055,17	41,00
3059,12	-11,00
3063,06	104,00
3067,00	-13,00
3070,94	151,00
3074,87	28,00
3078,80	149,00
3082,73	117,00
3086,65	-13,00
3090,57	-18,00
3094,49	101,00
3098,40	-11,00
3102,31	161,00
3106,22	26,00
3110,12	22,00
3114,02	172,00
3117,92	39,00
3121,81	11,00
3125,70	86,00
3129,58	65,00
3133,47	88,00
3137,34	-10,00
3141,22	-2,00
3145,09	50,00
3148,96	90,00
3152,83	-9,00
3156,69	6,00
3160,55	157,00
3164,40	-133,00
3168,26	-9,00
3172,10	153,00
3175,95	216,00
3179,79	14,00
3183,63	30,00
3187,47	177,00
3191,30	150,00
3195,13	180,00
3198,95	67,00
3202,78	47,00
3206,60	-8,00
3210,41	22,00
3214,23	144,00
3218,03	11,00
3221,84	91,00
3225,64	-18,00
3229,44	96,00
3233,24	148,00
3237,03	78,00
3240,82	31,00
3244,61	59,00
3248,39	14,00
3252,17	94,00
3255,95	118,00
3259,72	194,00
3263,49	57,00
3267,26	-70,00
3271,03	64,00
3274,79	119,00
3278,54	159,00
3282,30	157,00
3286,05	67,00
3289,80	-43,00
3293,54	81,00
3297,29	190,00
3301,02	-15,00
3304,76	78,00
3308,49	-9,00
3312,22	-30,00
3315,95	77,00
3319,67	43,00
3323,39	28,00
3327,10	53,00
3330,82	54,00
3334,53	1,00
3338,24	58,00
3341,94	112,00
3345,64	13,00
3349,34	-52,00
3353,03	85,00
3356,72	20,00
3360,41	-49,00
3364,10	63,00
3367,78	98,00
3371,46	78,00
3375,13	31,00
3378,81	15,00
3382,48	56,00
3386,14	128,00
3389,81	-3,00
3393,47	39,00
3397,12	3,00
3400,78	42,00
3404,43	17,00
3408,08	-24,00
3411,72	78,00
3415,36	63,00
3419,00	-19,00
3422,64	-86,00
3426,27	101,00
3429,90	36,00
3433,53	2,00
3437,15	123,00
3440,77	59,00
3444,39	-130,00
3448,00	-32,00
3451,62	137,00
3455,22	-29,00
3458,83	93,00
3462,43	102,00
3466,03	-33,00
3469,63	-9,00
3473,22	1,00
3476,81	-24,00
3480,40	7,00
3483,99	97,00
3487,57	64,00
3491,15	-32,00
3494,72	-12,00
3498,29	109,00
3501,86	54,00
3505,43	108,00
3508,99	-48,00
3512,56	136,00
3516,11	45,00
3519,67	24,00
3523,22	116,00
3526,77	87,00
3530,32	-21,00
3533,86	-26,00
3537,40	-16,00
3540,94	110,00
3544,47	-119,00
3548,00	172,00
3551,53	42,00
3555,06	115,00
3558,58	-64,00
3562,10	29,00
3565,62	39,00
3569,13	98,00
3572,64	180,00
3576,15	33,00
3579,66	153,00
3583,16	-30,00
3586,66	-39,00
3590,16	2,00
3593,65	50,00
3597,14	-6,00
3600,63	62,00
3604,11	-42,00
3607,60	-15,00
3611,08	20,00
3614,55	20,00
3618,03	52,00
3621,50	-49,00
3624,97	52,00
3628,43	-45,00
3631,90	-75,00
3635,36	109,00
3638,81	24,00
3642,27	-58,00
3645,72	89,00
3649,17	19,00
3652,61	21,00
3656,06	-78,00
3659,50	24,00
3662,93	-52,00
3666,37	47,00
3669,80	-66,00
3673,23	3,00
3676,65	98,00
3680,08	-7,00
3683,50	74,00
3686,92	-127,00
3690,33	80,00
3693,74	42,00
3697,15	41,00
3700,56	91,00
3703,96	-99,00
3707,36	-101,00
3710,76	26,00
3714,16	64,00
3717,55	-31,00
3720,94	-7,00
3724,33	42,00
3727,71	62,00
3731,10	14,00
3734,48	-56,00
3737,85	-92,00
3741,23	17,00
3744,60	-75,00
3747,97	-32,00
3751,33	101,00
3754,69	67,00
3758,05	48,00
3761,41	-8,00
3764,77	-8,00
3768,12	75,00
3771,47	59,00
3774,82	-57,00
3778,16	-4,00
3781,50	1,00
3784,84	7,00
3788,18	14,00
>>>>>End Processed Spectral Data<<<<<
