SpectraSuite Data File
++++++++++++++++++++++++++++++++++++
Date: Mon Mar 09 16:20:39 ICT 2026
User: Administrator
Dark Spectrum Present: Yes
Reference Spectrum Present: No
Number of Sampled Component Spectra: 1
Spectrometers: MAYP113682
Integration Time (usec): 3000000 (MAYP113682)
Spectra Averaged: 1 (MAYP113682)
Boxcar Smoothing: 0 (MAYP113682)
Correct for Electrical Dark: No (MAYP113682)
Strobe/Lamp Enabled: No (MAYP113682)
Correct for Detector Non-linearity: No (MAYP113682)
Correct for Stray Light: No (MAYP113682)
Number of Pixels in Processed Spectrum: 2068
>>>>>Begin Processed Spectral Data<<<<<
-37534,58	-4,00
-37414,56	5,00
-37295,11	-4,00
-37176,24	1,00
-37057,95	60,00
-36940,22	59,00
-36823,05	94,00
-36706,45	34,00
-36590,40	19,00
-36474,90	178,00
-36359,95	60,00
-36245,55	-26,00
-36131,68	87,00
-36018,35	30,00
-35905,55	25,00
-35793,29	-74,00
-35681,54	62,00
-35570,32	77,00
-35459,62	78,00
-35349,43	64,00
-35239,75	-48,00
-35130,58	70,00
-35021,91	-13,00
-34913,74	22,00
-34806,07	57,00
-34698,89	76,00
-34592,20	95,00
-34486,00	71,00
-34380,28	39,00
-34275,04	85,00
-34170,27	-10,00
-34065,98	15,00
-33962,16	49,00
-33858,81	64,00
-33755,92	163,00
-33653,49	158,00
-33551,52	-15,00
-33450,01	170,00
-33348,94	6,00
-33248,33	6,00
-33148,16	45,00
-33048,43	142,00
-32949,14	50,00
-32850,29	80,00
-32751,87	145,00
-32653,89	8,00
-32556,33	35,00
-32459,20	60,00
-32362,49	212,00
-32266,19	125,00
-32170,32	14,00
-32074,86	98,00
-31979,82	-3,00
-31885,18	48,00
-31790,95	102,00
-31697,12	-85,00
-31603,69	132,00
-31510,67	129,00
-31418,04	92,00
-31325,80	104,00
-31233,95	162,00
-31142,49	73,00
-31051,42	1,00
-30960,73	114,00
-30870,43	56,00
-30780,50	67,00
-30690,95	-51,00
-30601,77	128,00
-30512,97	169,00
-30424,53	-3,00
-30336,46	-9,00
-30248,76	-33,00
-30161,42	142,00
-30074,44	8,00
-29987,81	78,00
-29901,55	73,00
-29815,63	-2,00
-29730,07	105,00
-29644,86	33,00
-29560,00	-49,00
-29475,48	136,00
-29391,30	22,00
-29307,47	64,00
-29223,97	36,00
-29140,81	179,00
-29057,99	170,00
-28975,50	16,00
-28893,34	177,00
-28811,51	24,00
-28730,00	16,00
-28648,82	53,00
-28567,97	82,00
-28487,43	82,00
-28407,21	-16,00
-28327,32	53,00
-28247,73	165,00
-28168,46	113,00
-28089,50	-16,00
-28010,85	-28,00
-27932,51	105,00
-27854,48	34,00
-27776,75	61,00
-27699,32	49,00
-27622,19	76,00
-27545,37	-21,00
-27468,84	140,00
-27392,60	30,00
-27316,66	32,00
-27241,01	186,00
-27165,66	64,00
-27090,59	87,00
-27015,81	64,00
-26941,31	-4,00
-26867,10	77,00
-26793,17	26,00
-26719,52	-57,00
-26646,15	75,00
-26573,06	76,00
-26500,24	100,00
-26427,70	23,00
-26355,43	-46,00
-26283,43	69,00
-26211,71	-72,00
-26140,25	71,00
-26069,06	116,00
-25998,13	160,00
-25927,46	16,00
-25857,06	66,00
-25786,92	107,00
-25717,04	11,00
-25647,42	142,00
-25578,05	111,00
-25508,94	183,00
-25440,09	126,00
-25371,48	84,00
-25303,13	96,00
-25235,02	77,00
-25167,17	74,00
-25099,56	16,00
-25032,19	106,00
-24965,07	63,00
-24898,20	92,00
-24831,56	-11,00
-24765,17	11,00
-24699,01	81,00
-24633,10	-10,00
-24567,41	214,00
-24501,97	55,00
-24436,75	-39,00
-24371,77	164,00
-24307,03	25,00
-24242,51	61,00
-24178,22	-10,00
-24114,16	40,00
-24050,32	29,00
-23986,71	97,00
-23923,32	126,00
-23860,16	13,00
-23797,22	123,00
-23734,50	-45,00
-23672,00	-60,00
-23609,71	139,00
-23547,65	96,00
-23485,80	41,00
-23424,16	17,00
-23362,74	29,00
-23301,53	-45,00
-23240,54	-65,00
-23179,75	75,00
-23119,17	86,00
-23058,80	79,00
-22998,64	55,00
-22938,68	77,00
-22878,93	76,00
-22819,39	86,00
-22760,04	116,00
-22700,90	-8,00
-22641,96	-57,00
-22583,22	108,00
-22524,68	45,00
-22466,33	63,00
-22408,19	36,00
-22350,23	-75,00
-22292,48	49,00
-22234,92	33,00
-22177,55	48,00
-22120,37	90,00
-22063,38	74,00
-22006,58	24,00
-21949,98	137,00
-21893,56	155,00
-21837,33	10,00
-21781,28	40,00
-21725,42	69,00
-21669,74	24,00
-21614,25	84,00
-21558,94	66,00
-21503,81	59,00
-21448,86	-8,00
-21394,10	124,00
-21339,51	93,00
-21285,10	103,00
-21230,86	10,00
-21176,81	18,00
-21122,93	21,00
-21069,22	50,00
-21015,69	49,00
-20962,33	147,00
-20909,14	87,00
-20856,13	-53,00
-20803,28	21,00
-20750,61	22,00
-20698,10	-17,00
-20645,76	58,00
-20593,59	68,00
-20541,59	69,00
-20489,75	-33,00
-20438,07	61,00
-20386,56	45,00
-20335,22	158,00
-20284,03	16,00
-20233,01	-15,00
-20182,15	-78,00
-20131,45	1,00
-20080,91	19,00
-20030,52	2,00
-19980,30	52,00
-19930,23	-32,00
-19880,32	162,00
-19830,56	18,00
-19780,96	63,00
-19731,52	115,00
-19682,23	140,00
-19633,09	0,00
-19584,10	88,00
-19535,26	128,00
-19486,58	86,00
-19438,04	82,00
-19389,66	-80,00
-19341,42	46,00
-19293,33	67,00
-19245,39	7,00
-19197,60	200,00
-19149,95	53,00
-19102,45	20,00
-19055,09	93,00
-19007,87	4,00
-18960,80	234,00
-18913,87	20,00
-18867,09	32,00
-18820,44	-87,00
-18773,94	51,00
-18727,57	25,00
-18681,35	159,00
-18635,26	40,00
-18589,31	92,00
-18543,50	-1,00
-18497,83	-52,00
-18452,29	137,00
-18406,89	42,00
-18361,63	92,00
-18316,50	21,00
-18271,50	87,00
-18226,63	-13,00
-18181,90	66,00
-18137,30	122,00
-18092,84	0,00
-18048,50	168,00
-18004,29	124,00
-17960,22	14,00
-17916,27	179,00
-17872,45	104,00
-17828,76	103,00
-17785,20	46,00
-17741,77	106,00
-17698,46	89,00
-17655,28	117,00
-17612,22	79,00
-17569,29	112,00
-17526,48	104,00
-17483,79	51,00
-17441,23	41,00
-17398,79	30,00
-17356,48	54,00
-17314,28	-27,00
-17272,21	55,00
-17230,26	14,00
-17188,42	121,00
-17146,71	55,00
-17105,12	60,00
-17063,64	67,00
-17022,28	192,00
-16981,04	144,00
-16939,92	9,00
-16898,91	-38,00
-16858,02	96,00
-16817,25	36,00
-16776,59	6,00
-16736,04	-22,00
-16695,61	-81,00
-16655,29	59,00
-16615,09	141,00
-16574,99	67,00
-16535,01	168,00
-16495,15	73,00
-16455,39	64,00
-16415,74	53,00
-16376,21	31,00
-16336,78	97,00
-16297,46	68,00
-16258,26	58,00
-16219,16	18,00
-16180,17	139,00
-16141,28	137,00
-16102,51	79,00
-16063,84	84,00
-16025,27	131,00
-15986,82	151,00
-15948,46	18,00
-15910,22	21,00
-15872,07	55,00
-15834,04	159,00
-15796,10	58,00
-15758,27	105,00
-15720,54	92,00
-15682,91	14,00
-15645,39	47,00
-15607,97	19,00
-15570,64	-32,00
-15533,42	-16,00
-15496,30	132,00
-15459,28	125,00
-15422,36	45,00
-15385,54	17,00
-15348,82	12,00
-15312,19	-41,00
-15275,66	108,00
-15239,23	202,00
-15202,90	77,00
-15166,67	105,00
-15130,53	165,00
-15094,48	63,00
-15058,54	30,00
-15022,68	79,00
-14986,93	107,00
-14951,26	56,00
-14915,69	105,00
-14880,22	161,00
-14844,84	-26,00
-14809,55	157,00
-14774,35	128,00
-14739,25	42,00
-14704,24	69,00
-14669,32	-2,00
-14634,49	102,00
-14599,75	98,00
-14565,10	-34,00
-14530,55	-9,00
-14496,08	104,00
-14461,70	6,00
-14427,41	107,00
-14393,21	15,00
-14359,10	11,00
-14325,07	6,00
-14291,14	25,00
-14257,29	48,00
-14223,52	77,00
-14189,85	58,00
-14156,26	5,00
-14122,76	70,00
-14089,34	209,00
-14056,01	151,00
-14022,76	134,00
-13989,60	-55,00
-13956,52	45,00
-13923,53	-5,00
-13890,62	109,00
-13857,79	-72,00
-13825,05	127,00
-13792,39	-40,00
-13759,81	63,00
-13727,31	22,00
-13694,90	-17,00
-13662,57	118,00
-13630,31	5,00
-13598,14	9,00
-13566,05	99,00
-13534,05	98,00
-13502,12	14,00
-13470,27	55,00
-13438,50	-1,00
-13406,80	1,00
-13375,19	113,00
-13343,66	-59,00
-13312,20	82,00
-13280,83	-26,00
-13249,53	66,00
-13218,30	77,00
-13187,16	34,00
-13156,09	37,00
-13125,10	12,00
-13094,18	100,00
-13063,34	75,00
-13032,58	37,00
-13001,89	96,00
-12971,28	57,00
-12940,74	103,00
-12910,27	-12,00
-12879,88	71,00
-12849,57	129,00
-12819,33	40,00
-12789,16	-25,00
-12759,06	53,00
-12729,04	86,00
-12699,09	-9,00
-12669,21	56,00
-12639,41	-59,00
-12609,68	125,00
-12580,02	66,00
-12550,43	62,00
-12520,91	159,00
-12491,46	129,00
-12462,08	44,00
-12432,77	18,00
-12403,54	-20,00
-12374,37	112,00
-12345,27	-33,00
-12316,24	62,00
-12287,29	59,00
-12258,40	48,00
-12229,57	77,00
-12200,82	178,00
-12172,14	-60,00
-12143,52	124,00
-12114,97	77,00
-12086,49	35,00
-12058,07	42,00
-12029,73	59,00
-12001,44	70,00
-11973,23	136,00
-11945,08	97,00
-11917,00	163,00
-11888,98	4,00
-11861,03	179,00
-11833,15	84,00
-11805,32	113,00
-11777,57	66,00
-11749,88	69,00
-11722,25	40,00
-11694,69	71,00
-11667,19	32,00
-11639,75	23,00
-11612,38	14,00
-11585,07	40,00
-11557,83	61,00
-11530,65	143,00
-11503,53	69,00
-11476,47	87,00
-11449,48	96,00
-11422,54	53,00
-11395,67	-29,00
-11368,86	80,00
-11342,11	89,00
-11315,43	91,00
-11288,80	-6,00
-11262,23	120,00
-11235,73	78,00
-11209,28	1,00
-11182,90	69,00
-11156,57	99,00
-11130,31	31,00
-11104,10	-25,00
-11077,96	67,00
-11051,87	89,00
-11025,84	31,00
-10999,87	107,00
-10973,96	34,00
-10948,11	1,00
-10922,31	169,00
-10896,58	94,00
-10870,90	109,00
-10845,28	57,00
-10819,71	168,00
-10794,20	49,00
-10768,75	59,00
-10743,36	30,00
-10718,02	69,00
-10692,74	130,00
-10667,52	108,00
-10642,35	240,00
-10617,24	-118,00
-10592,18	122,00
-10567,18	91,00
-10542,23	155,00
-10517,34	289,00
-10492,51	134,00
-10467,72	150,00
-10443,00	166,00
-10418,32	115,00
-10393,70	-74,00
-10369,14	178,00
-10344,63	84,00
-10320,17	259,00
-10295,77	212,00
-10271,42	187,00
-10247,12	128,00
-10222,88	129,00
-10198,68	205,00
-10174,54	73,00
-10150,46	175,00
-10126,42	211,00
-10102,44	189,00
-10078,51	272,00
-10054,63	93,00
-10030,80	215,00
-10007,03	225,00
-9983,30	223,00
-9959,63	195,00
-9936,01	397,00
-9912,44	251,00
-9888,92	279,00
-9865,44	349,00
-9842,02	158,00
-9818,65	383,00
-9795,33	325,00
-9772,06	306,00
-9748,84	310,00
-9725,67	241,00
-9702,55	379,00
-9679,47	462,00
-9656,45	456,00
-9633,47	573,00
-9610,55	640,00
-9587,67	396,00
-9564,84	731,00
-9542,06	611,00
-9519,32	737,00
-9496,64	834,00
-9474,00	962,00
-9451,41	974,00
-9428,87	873,00
-9406,37	993,00
-9383,92	886,00
-9361,52	840,00
-9339,17	775,00
-9316,86	1103,00
-9294,60	1295,00
-9272,38	1308,00
-9250,21	1366,00
-9228,09	1505,00
-9206,01	1357,00
-9183,98	1343,00
-9162,00	1165,00
-9140,06	1038,00
-9118,16	1154,00
-9096,31	1232,00
-9074,51	1391,00
-9052,75	1266,00
-9031,04	1313,00
-9009,37	1268,00
-8987,74	1011,00
-8966,16	788,00
-8944,63	658,00
-8923,14	727,00
-8901,69	745,00
-8880,29	1065,00
-8858,93	1141,00
-8837,61	1130,00
-8816,34	1371,00
-8795,11	1407,00
-8773,92	1109,00
-8752,78	952,00
-8731,68	966,00
-8710,62	957,00
-8689,61	1046,00
-8668,63	1181,00
-8647,70	1085,00
-8626,82	1124,00
-8605,97	1111,00
-8585,17	1090,00
-8564,41	878,00
-8543,69	817,00
-8523,01	828,00
-8502,37	823,00
-8481,78	857,00
-8461,23	1065,00
-8440,71	1009,00
-8420,24	1069,00
-8399,81	1165,00
-8379,42	1248,00
-8359,08	1014,00
-8338,77	984,00
-8318,50	939,00
-8298,27	821,00
-8278,09	829,00
-8257,94	1004,00
-8237,83	1056,00
-8217,76	1075,00
-8197,74	1137,00
-8177,75	993,00
-8157,80	1020,00
-8137,89	928,00
-8118,02	950,00
-8098,19	826,00
-8078,40	872,00
-8058,65	917,00
-8038,93	997,00
-8019,26	864,00
-7999,62	931,00
-7980,02	793,00
-7960,46	821,00
-7940,94	811,00
-7921,46	757,00
-7902,01	700,00
-7882,60	775,00
-7863,23	855,00
-7843,90	841,00
-7824,61	729,00
-7805,35	781,00
-7786,13	970,00
-7766,95	903,00
-7747,80	861,00
-7728,69	786,00
-7709,62	805,00
-7690,59	788,00
-7671,59	848,00
-7652,63	919,00
-7633,70	933,00
-7614,81	964,00
-7595,96	824,00
-7577,15	728,00
-7558,37	696,00
-7539,62	715,00
-7520,91	849,00
-7502,24	740,00
-7483,60	1008,00
-7465,00	816,00
-7446,44	705,00
-7427,91	614,00
-7409,41	524,00
-7390,95	591,00
-7372,53	579,00
-7354,14	476,00
-7335,78	432,00
-7317,46	776,00
-7299,18	580,00
-7280,92	643,00
-7262,71	777,00
-7244,52	770,00
-7226,38	904,00
-7208,26	981,00
-7190,18	780,00
-7172,14	804,00
-7154,12	548,00
-7136,15	693,00
-7118,20	755,00
-7100,29	773,00
-7082,41	787,00
-7064,57	772,00
-7046,76	706,00
-7028,98	562,00
-7011,24	558,00
-6993,53	441,00
-6975,85	452,00
-6958,20	322,00
-6940,59	414,00
-6923,01	428,00
-6905,46	365,00
-6887,94	676,00
-6870,46	701,00
-6853,01	760,00
-6835,59	781,00
-6818,21	651,00
-6800,85	599,00
-6783,53	434,00
-6766,24	276,00
-6748,98	226,00
-6731,76	213,00
-6714,56	204,00
-6697,40	327,00
-6680,26	264,00
-6663,16	289,00
-6646,09	421,00
-6629,05	508,00
-6612,05	672,00
-6595,07	596,00
-6578,13	481,00
-6561,21	369,00
-6544,33	362,00
-6527,47	279,00
-6510,65	216,00
-6493,86	183,00
-6477,10	299,00
-6460,36	263,00
-6443,66	294,00
-6426,99	166,00
-6410,35	266,00
-6393,74	246,00
-6377,16	445,00
-6360,61	382,00
-6344,09	350,00
-6327,59	268,00
-6311,13	371,00
-6294,70	310,00
-6278,29	525,00
-6261,92	573,00
-6245,58	531,00
-6229,26	557,00
-6212,97	515,00
-6196,72	377,00
-6180,49	150,00
-6164,29	281,00
-6148,12	135,00
-6131,98	143,00
-6115,86	120,00
-6099,78	74,00
-6083,72	47,00
-6067,69	44,00
-6051,69	21,00
-6035,72	221,00
-6019,78	163,00
-6003,87	241,00
-5987,98	373,00
-5972,12	487,00
-5956,29	359,00
-5940,49	409,00
-5924,71	253,00
-5908,96	199,00
-5893,24	204,00
-5877,55	182,00
-5861,89	172,00
-5846,25	82,00
-5830,64	164,00
-5815,05	181,00
-5799,50	266,00
-5783,97	136,00
-5768,47	264,00
-5752,99	234,00
-5737,55	323,00
-5722,12	391,00
-5706,73	415,00
-5691,36	346,00
-5676,02	226,00
-5660,71	241,00
-5645,42	220,00
-5630,16	204,00
-5614,92	210,00
-5599,71	325,00
-5584,53	221,00
-5569,37	292,00
-5554,24	410,00
-5539,14	285,00
-5524,06	156,00
-5509,01	348,00
-5493,98	291,00
-5478,98	247,00
-5464,00	240,00
-5449,05	247,00
-5434,13	221,00
-5419,23	138,00
-5404,36	206,00
-5389,51	253,00
-5374,69	371,00
-5359,89	306,00
-5345,12	471,00
-5330,37	474,00
-5315,65	294,00
-5300,95	304,00
-5286,28	278,00
-5271,63	333,00
-5257,01	237,00
-5242,41	266,00
-5227,84	100,00
-5213,29	95,00
-5198,76	114,00
-5184,26	121,00
-5169,79	63,00
-5155,33	202,00
-5140,91	297,00
-5126,51	273,00
-5112,13	268,00
-5097,77	285,00
-5083,44	194,00
-5069,13	118,00
-5054,85	221,00
-5040,59	141,00
-5026,36	209,00
-5012,15	364,00
-4997,96	137,00
-4983,80	135,00
-4969,66	106,00
-4955,54	85,00
-4941,44	216,00
-4927,37	324,00
-4913,33	526,00
-4899,30	459,00
-4885,30	395,00
-4871,33	418,00
-4857,37	175,00
-4843,44	280,00
-4829,53	115,00
-4815,65	155,00
-4801,79	221,00
-4787,95	290,00
-4774,13	210,00
-4760,34	62,00
-4746,56	96,00
-4732,82	81,00
-4719,09	174,00
-4705,38	225,00
-4691,70	280,00
-4678,04	270,00
-4664,41	222,00
-4650,79	145,00
-4637,20	144,00
-4623,63	173,00
-4610,08	135,00
-4596,56	219,00
-4583,05	329,00
-4569,57	165,00
-4556,11	262,00
-4542,67	177,00
-4529,25	163,00
-4515,86	87,00
-4502,49	387,00
-4489,13	277,00
-4475,80	364,00
-4462,49	228,00
-4449,21	155,00
-4435,94	197,00
-4422,70	195,00
-4409,47	237,00
-4396,27	222,00
-4383,09	219,00
-4369,93	65,00
-4356,79	21,00
-4343,67	139,00
-4330,58	171,00
-4317,50	100,00
-4304,45	186,00
-4291,41	101,00
-4278,40	-77,00
-4265,41	191,00
-4252,44	158,00
-4239,49	281,00
-4226,55	225,00
-4213,65	224,00
-4200,76	140,00
-4187,89	81,00
-4175,04	38,00
-4162,21	146,00
-4149,40	8,00
-4136,61	154,00
-4123,85	-6,00
-4111,10	48,00
-4098,37	97,00
-4085,66	162,00
-4072,98	158,00
-4060,31	54,00
-4047,66	125,00
-4035,04	188,00
-4022,43	171,00
-4009,84	165,00
-3997,27	74,00
-3984,72	68,00
-3972,19	47,00
-3959,69	85,00
-3947,20	8,00
-3934,73	-10,00
-3922,27	65,00
-3909,84	147,00
-3897,43	115,00
-3885,04	-73,00
-3872,67	21,00
-3860,31	66,00
-3847,98	176,00
-3835,66	28,00
-3823,36	39,00
-3811,09	69,00
-3798,83	65,00
-3786,59	2,00
-3774,37	172,00
-3762,17	94,00
-3749,98	27,00
-3737,82	-64,00
-3725,67	85,00
-3713,55	43,00
-3701,44	132,00
-3689,35	-7,00
-3677,28	12,00
-3665,22	-48,00
-3653,19	-24,00
-3641,17	146,00
-3629,18	156,00
-3617,20	11,00
-3605,24	128,00
-3593,30	21,00
-3581,37	71,00
-3569,47	59,00
-3557,58	56,00
-3545,71	-19,00
-3533,86	44,00
-3522,02	-54,00
-3510,21	155,00
-3498,41	-2,00
-3486,63	101,00
-3474,87	121,00
-3463,12	166,00
-3451,40	129,00
-3439,69	136,00
-3428,00	204,00
-3416,33	-24,00
-3404,67	151,00
-3393,03	97,00
-3381,41	98,00
-3369,81	17,00
-3358,22	169,00
-3346,66	73,00
-3335,10	116,00
-3323,57	37,00
-3312,06	209,00
-3300,56	40,00
-3289,08	58,00
-3277,61	112,00
-3266,16	-68,00
-3254,73	156,00
-3243,32	43,00
-3231,92	44,00
-3220,55	59,00
-3209,18	31,00
-3197,84	4,00
-3186,51	-5,00
-3175,20	127,00
-3163,90	88,00
-3152,63	93,00
-3141,36	10,00
-3130,12	116,00
-3118,89	-28,00
-3107,68	170,00
-3096,49	5,00
-3085,31	48,00
-3074,15	63,00
-3063,00	76,00
-3051,87	61,00
-3040,76	11,00
-3029,67	-10,00
-3018,59	-22,00
-3007,52	136,00
-2996,48	76,00
-2985,44	68,00
-2974,43	13,00
-2963,43	80,00
-2952,45	50,00
-2941,48	8,00
-2930,53	-10,00
-2919,60	14,00
-2908,68	103,00
-2897,78	59,00
-2886,89	131,00
-2876,02	80,00
-2865,17	116,00
-2854,33	97,00
-2843,50	-45,00
-2832,70	110,00
-2821,90	87,00
-2811,13	149,00
-2800,37	21,00
-2789,62	-20,00
-2778,89	89,00
-2768,18	28,00
-2757,48	42,00
-2746,80	40,00
-2736,13	75,00
-2725,48	197,00
-2714,84	-13,00
-2704,22	107,00
-2693,61	59,00
-2683,02	11,00
-2672,45	38,00
-2661,89	5,00
-2651,34	67,00
-2640,81	-28,00
-2630,30	134,00
-2619,80	194,00
-2609,31	-19,00
-2598,84	-79,00
-2588,39	31,00
-2577,95	46,00
-2567,52	24,00
-2557,11	86,00
-2546,71	146,00
-2536,33	108,00
-2525,97	31,00
-2515,62	3,00
-2505,28	123,00
-2494,96	-1,00
-2484,65	30,00
-2474,36	401,00
-2464,08	119,00
-2453,82	213,00
-2443,57	107,00
-2433,33	57,00
-2423,11	134,00
-2412,91	94,00
-2402,72	137,00
-2392,54	253,00
-2382,38	50,00
-2372,23	96,00
-2362,09	-4082,00
-2351,97	175,00
-2341,87	0,00
-2331,78	56,00
-2321,70	55,00
-2311,64	159,00
-2301,59	90,00
-2291,55	38,00
-2281,53	-48,00
-2271,53	-5,00
-2261,53	116,00
-2251,55	70,00
-2241,59	48,00
-2231,64	-34,00
-2221,70	68,00
-2211,78	2,00
-2201,87	142,00
-2191,97	-103,00
-2182,09	188,00
-2172,22	72,00
-2162,37	41,00
-2152,53	-9,00
-2142,70	56,00
-2132,89	21,00
-2123,09	-24,00
-2113,30	107,00
-2103,53	73,00
-2093,77	51,00
-2084,02	84,00
-2074,29	35,00
-2064,57	6,00
-2054,86	144,00
-2045,17	-32,00
-2035,49	20,00
-2025,82	21,00
-2016,17	32,00
-2006,53	15,00
-1996,91	31,00
-1987,29	96,00
-1977,69	9,00
-1968,11	42,00
-1958,53	88,00
-1948,97	80,00
-1939,42	132,00
-1929,89	7,00
-1920,37	91,00
-1910,86	74,00
-1901,36	70,00
-1891,88	7,00
-1882,41	25,00
-1872,95	187,00
-1863,51	-47,00
-1854,08	100,00
-1844,66	115,00
-1835,26	122,00
-1825,86	53,00
-1816,48	6,00
-1807,11	23,00
-1797,76	21,00
-1788,42	17,00
-1779,09	58,00
-1769,77	17,00
-1760,47	47,00
-1751,17	-32,00
-1741,89	44,00
-1732,63	54,00
-1723,37	230,00
-1714,13	71,00
-1704,90	32,00
-1695,68	133,00
-1686,48	83,00
-1677,29	125,00
-1668,11	112,00
-1658,94	91,00
-1649,78	63,00
-1640,64	201,00
-1631,51	-10,00
-1622,39	35,00
-1613,28	79,00
-1604,19	23,00
-1595,10	193,00
-1586,03	17,00
-1576,97	34,00
-1567,93	105,00
-1558,89	59,00
-1549,87	-68,00
-1540,86	17,00
-1531,86	99,00
-1522,87	121,00
-1513,90	176,00
-1504,93	-14,00
-1495,98	66,00
-1487,04	176,00
-1478,12	108,00
-1469,20	28,00
-1460,30	33,00
-1451,40	130,00
-1442,52	140,00
-1433,65	186,00
-1424,80	68,00
-1415,95	37,00
-1407,12	-7,00
-1398,30	170,00
-1389,48	121,00
-1380,69	262,00
-1371,90	8,00
-1363,12	152,00
-1354,36	93,00
-1345,60	59,00
-1336,86	-21,00
-1328,13	98,00
-1319,41	-1,00
-1310,70	139,00
-1302,01	79,00
-1293,32	48,00
-1284,65	-13,00
-1275,99	50,00
-1267,33	127,00
-1258,69	5,00
-1250,06	107,00
-1241,45	39,00
-1232,84	96,00
-1224,25	23,00
-1215,66	61,00
-1207,09	-3,00
-1198,53	91,00
-1189,97	90,00
-1181,43	65,00
-1172,91	54,00
-1164,39	55,00
-1155,88	119,00
-1147,38	72,00
-1138,90	8,00
-1130,43	84,00
-1121,96	170,00
-1113,51	76,00
-1105,07	48,00
-1096,64	28,00
-1088,22	154,00
-1079,81	142,00
-1071,41	46,00
-1063,02	76,00
-1054,65	106,00
-1046,28	61,00
-1037,92	1,00
-1029,58	135,00
-1021,24	78,00
-1012,92	86,00
-1004,61	57,00
-996,30	96,00
-988,01	30,00
-979,73	39,00
-971,46	178,00
-963,20	-138,00
-954,95	78,00
-946,71	47,00
-938,48	77,00
-930,26	9,00
-922,06	88,00
-913,86	83,00
-905,67	57,00
-897,49	26,00
-889,33	7,00
-881,17	-17,00
-873,02	21,00
-864,89	93,00
-856,76	69,00
-848,65	134,00
-840,54	-10,00
-832,45	3,00
-824,36	54,00
-816,29	31,00
-808,22	92,00
-800,17	-20,00
-792,12	148,00
-784,09	56,00
-776,06	-46,00
-768,05	122,00
-760,04	87,00
-752,05	102,00
-744,07	5,00
-736,09	35,00
-728,13	10,00
-720,17	29,00
-712,23	46,00
-704,29	73,00
-696,37	44,00
-688,45	69,00
-680,55	79,00
-672,65	97,00
-664,77	210,00
-656,89	-72,00
-649,03	160,00
-641,17	140,00
-633,32	16,00
-625,49	152,00
-617,66	36,00
-609,84	49,00
-602,03	111,00
-594,23	84,00
-586,45	61,00
-578,67	34,00
-570,90	53,00
-563,14	38,00
-555,39	105,00
-547,65	114,00
-539,91	96,00
-532,19	34,00
-524,48	69,00
-516,78	18,00
-509,08	96,00
-501,40	71,00
-493,72	105,00
-486,06	71,00
-478,40	-6,00
-470,76	133,00
-463,12	124,00
-455,49	81,00
-447,87	144,00
-440,26	56,00
-432,66	-64,00
-425,07	13,00
-417,49	136,00
-409,92	69,00
-402,35	198,00
-394,80	193,00
-387,25	29,00
-379,72	41,00
-372,19	57,00
-364,67	231,00
-357,17	163,00
-349,67	119,00
-342,18	76,00
-334,69	36,00
-327,22	10,00
-319,76	59,00
-312,30	238,00
-304,86	181,00
-297,42	129,00
-290,00	100,00
-282,58	140,00
-275,17	119,00
-267,77	96,00
-260,37	182,00
-252,99	222,00
-245,62	117,00
-238,25	115,00
-230,90	20,00
-223,55	50,00
-216,21	190,00
-208,88	215,00
-201,56	212,00
-194,25	139,00
-186,94	315,00
-179,65	212,00
-172,36	376,00
-165,08	407,00
-157,81	208,00
-150,55	395,00
-143,30	429,00
-136,06	412,00
-128,82	641,00
-121,60	628,00
-114,38	599,00
-107,17	727,00
-99,97	838,00
-92,78	776,00
-85,60	909,00
-78,42	1256,00
-71,25	1351,00
-64,10	1601,00
-56,95	1807,00
-49,81	2201,00
-42,67	2717,00
-35,55	3298,00
-28,43	4389,00
-21,33	7257,00
-14,23	24508,00
-7,14	55164,00
-0,05	54791,00
7,02	54542,00
14,09	54846,00
21,14	22927,00
28,19	9352,00
35,23	5821,00
42,27	4368,00
49,29	3518,00
56,31	2987,00
63,32	2599,00
70,32	2077,00
77,31	1823,00
84,29	1470,00
91,27	1279,00
98,23	1213,00
105,19	1138,00
112,14	1307,00
119,09	1686,00
126,02	2474,00
132,95	2612,00
139,87	2537,00
146,78	2407,00
153,68	2291,00
160,58	2315,00
167,46	2230,00
174,34	2274,00
181,21	2310,00
188,08	2223,00
194,93	2013,00
201,78	2067,00
208,62	2072,00
215,45	2165,00
222,27	2158,00
229,09	2114,00
235,90	2043,00
242,70	1979,00
249,49	1957,00
256,27	1940,00
263,05	1987,00
269,82	2045,00
276,58	1924,00
283,33	1920,00
290,08	1907,00
296,82	1846,00
303,55	1824,00
310,27	1747,00
316,98	1818,00
323,69	1962,00
330,39	1790,00
337,08	1768,00
343,76	1851,00
350,44	1760,00
357,11	1831,00
363,77	1813,00
370,42	1752,00
377,07	1756,00
383,71	1729,00
390,34	1661,00
396,96	1653,00
403,58	1650,00
410,19	1807,00
416,79	1733,00
423,38	1725,00
429,97	1613,00
436,55	1687,00
443,12	1639,00
449,68	1549,00
456,24	1431,00
462,79	1404,00
469,33	1520,00
475,86	1498,00
482,39	1479,00
488,91	1516,00
495,42	1422,00
501,93	1559,00
508,42	1462,00
514,91	1541,00
521,40	1420,00
527,87	1412,00
534,34	1319,00
540,80	1421,00
547,25	1211,00
553,70	1470,00
560,14	1356,00
566,57	1409,00
573,00	1295,00
579,41	1380,00
585,83	1214,00
592,23	1241,00
598,62	1344,00
605,01	1297,00
611,40	1337,00
617,77	1382,00
624,14	1320,00
630,50	1273,00
636,85	1216,00
643,20	1106,00
649,54	1209,00
655,87	1179,00
662,20	1208,00
668,52	1307,00
674,83	1235,00
681,13	1198,00
687,43	1174,00
693,72	1156,00
700,00	1185,00
706,28	1218,00
712,55	1145,00
718,81	1223,00
725,07	1129,00
731,32	1083,00
737,56	1253,00
743,79	1235,00
750,02	1242,00
756,24	1157,00
762,46	1149,00
768,67	1123,00
774,87	1058,00
781,06	1146,00
787,25	1130,00
793,43	1144,00
799,60	1147,00
805,77	1016,00
811,93	1309,00
818,08	1145,00
824,23	1150,00
830,37	1231,00
836,50	1151,00
842,63	1117,00
848,75	1180,00
854,87	1216,00
860,97	1173,00
867,07	1214,00
873,17	1100,00
879,25	1092,00
885,33	1068,00
891,41	1244,00
897,47	1067,00
903,53	1144,00
909,59	1107,00
915,63	1071,00
921,67	1042,00
927,71	1004,00
933,74	995,00
939,76	974,00
945,77	843,00
951,78	890,00
957,78	1026,00
963,78	982,00
969,77	995,00
975,75	917,00
981,72	1050,00
987,69	1047,00
993,66	969,00
999,61	844,00
1005,56	1003,00
1011,51	1065,00
1017,44	1060,00
1023,37	1043,00
1029,30	994,00
1035,22	982,00
1041,13	1047,00
1047,03	946,00
1052,93	1152,00
1058,83	1367,00
1064,71	1323,00
1070,59	1285,00
1076,47	1202,00
1082,33	999,00
1088,20	1055,00
1094,05	1032,00
1099,90	968,00
1105,74	1050,00
1111,58	1028,00
1117,41	919,00
1123,23	1202,00
1129,05	1329,00
1134,86	1332,00
1140,67	1035,00
1146,47	1099,00
1152,26	950,00
1158,05	903,00
1163,83	871,00
1169,60	990,00
1175,37	851,00
1181,13	948,00
1186,89	934,00
1192,64	932,00
1198,38	955,00
1204,12	760,00
1209,85	864,00
1215,58	960,00
1221,30	937,00
1227,02	1111,00
1232,72	1057,00
1238,43	949,00
1244,12	991,00
1249,81	924,00
1255,50	913,00
1261,17	884,00
1266,85	882,00
1272,51	1061,00
1278,17	1042,00
1283,83	1098,00
1289,47	1365,00
1295,12	1480,00
1300,75	1527,00
1306,38	1329,00
1312,01	1254,00
1317,63	1108,00
1323,24	1013,00
1328,85	1144,00
1334,45	1032,00
1340,04	976,00
1345,63	1040,00
1351,22	974,00
1356,80	1085,00
1362,37	993,00
1367,93	1009,00
1373,49	1017,00
1379,05	1058,00
1384,60	1075,00
1390,14	1033,00
1395,68	987,00
1401,21	972,00
1406,74	1058,00
1412,26	1167,00
1417,77	1115,00
1423,28	1225,00
1428,78	1317,00
1434,28	1568,00
1439,77	1592,00
1445,26	1632,00
1450,74	1704,00
1456,22	1310,00
1461,68	1468,00
1467,15	1387,00
1472,61	1264,00
1478,06	1142,00
1483,51	1093,00
1488,95	1010,00
1494,38	1009,00
1499,81	1005,00
1505,24	775,00
1510,65	848,00
1516,07	921,00
1521,48	920,00
1526,88	844,00
1532,27	852,00
1537,67	936,00
1543,05	804,00
1548,43	934,00
1553,81	901,00
1559,18	800,00
1564,54	823,00
1569,90	775,00
1575,25	836,00
1580,60	767,00
1585,94	707,00
1591,28	840,00
1596,61	829,00
1601,93	815,00
1607,25	784,00
1612,57	880,00
1617,88	809,00
1623,18	787,00
1628,48	771,00
1633,77	765,00
1639,06	723,00
1644,34	735,00
1649,62	795,00
1654,89	863,00
1660,16	722,00
1665,42	732,00
1670,67	737,00
1675,92	670,00
1681,17	654,00
1686,41	692,00
1691,64	618,00
1696,87	651,00
1702,10	649,00
1707,32	791,00
1712,53	778,00
1717,74	669,00
1722,94	564,00
1728,14	681,00
1733,33	652,00
1738,52	677,00
1743,70	735,00
1748,88	583,00
1754,05	627,00
1759,22	754,00
1764,38	634,00
1769,53	598,00
1774,69	601,00
1779,83	667,00
1784,97	636,00
1790,11	530,00
1795,24	754,00
1800,36	693,00
1805,48	650,00
1810,60	579,00
1815,71	541,00
1820,82	558,00
1825,92	551,00
1831,01	591,00
1836,10	522,00
1841,19	624,00
1846,26	644,00
1851,34	586,00
1856,41	609,00
1861,47	512,00
1866,53	536,00
1871,59	555,00
1876,64	469,00
1881,68	383,00
1886,72	432,00
1891,76	642,00
1896,79	552,00
1901,81	509,00
1906,83	488,00
1911,85	531,00
1916,86	512,00
1921,86	607,00
1926,86	393,00
1931,86	529,00
1936,85	440,00
1941,83	539,00
1946,81	472,00
1951,79	426,00
1956,76	363,00
1961,72	354,00
1966,68	421,00
1971,64	419,00
1976,59	416,00
1981,54	436,00
1986,48	374,00
1991,42	411,00
1996,35	478,00
2001,27	374,00
2006,20	542,00
2011,11	452,00
2016,03	449,00
2020,93	505,00
2025,84	493,00
2030,73	416,00
2035,63	353,00
2040,52	502,00
2045,40	499,00
2050,28	501,00
2055,15	322,00
2060,02	401,00
2064,89	360,00
2069,75	535,00
2074,60	386,00
2079,46	403,00
2084,30	479,00
2089,14	413,00
2093,98	453,00
2098,81	469,00
2103,64	410,00
2108,46	310,00
2113,28	387,00
2118,09	336,00
2122,90	436,00
2127,70	394,00
2132,50	457,00
2137,30	394,00
2142,09	417,00
2146,87	405,00
2151,66	381,00
2156,43	314,00
2161,20	271,00
2165,97	462,00
2170,73	339,00
2175,49	491,00
2180,24	397,00
2184,99	546,00
2189,74	462,00
2194,48	430,00
2199,21	416,00
2203,94	359,00
2208,67	360,00
2213,39	358,00
2218,11	264,00
2222,82	457,00
2227,53	379,00
2232,23	415,00
2236,93	317,00
2241,63	343,00
2246,32	323,00
2251,00	362,00
2255,68	285,00
2260,36	340,00
2265,03	268,00
2269,70	261,00
2274,36	306,00
2279,02	467,00
2283,68	371,00
2288,33	192,00
2292,97	267,00
2297,61	285,00
2302,25	496,00
2306,88	368,00
2311,51	282,00
2316,14	253,00
2320,75	381,00
2325,37	243,00
2329,98	441,00
2334,59	259,00
2339,19	317,00
2343,79	210,00
2348,38	313,00
2352,97	283,00
2357,55	231,00
2362,13	263,00
2366,71	429,00
2371,28	287,00
2375,85	240,00
2380,41	215,00
2384,97	280,00
2389,52	226,00
2394,07	250,00
2398,62	233,00
2403,16	356,00
2407,70	338,00
2412,23	331,00
2416,76	323,00
2421,29	265,00
2425,81	268,00
2430,32	337,00
2434,84	293,00
2439,34	331,00
2443,85	322,00
2448,35	292,00
2452,84	177,00
2457,33	212,00
2461,82	319,00
2466,30	315,00
2470,78	295,00
2475,25	218,00
2479,72	146,00
2484,19	237,00
2488,65	276,00
2493,11	277,00
2497,56	250,00
2502,01	219,00
2506,46	283,00
2510,90	109,00
2515,34	321,00
2519,77	210,00
2524,20	320,00
2528,62	208,00
2533,04	374,00
2537,46	224,00
2541,87	231,00
2546,28	269,00
2550,68	274,00
2555,08	210,00
2559,48	242,00
2563,87	207,00
2568,26	158,00
2572,64	257,00
2577,02	257,00
2581,40	244,00
2585,77	122,00
2590,14	228,00
2594,50	133,00
2598,86	218,00
2603,22	338,00
2607,57	225,00
2611,92	247,00
2616,26	100,00
2620,60	326,00
2624,94	334,00
2629,27	273,00
2633,60	155,00
2637,92	274,00
2642,24	217,00
2646,56	189,00
2650,87	93,00
2655,18	190,00
2659,48	227,00
2663,78	273,00
2668,08	331,00
2672,37	345,00
2676,66	239,00
2680,95	285,00
2685,23	133,00
2689,50	290,00
2693,78	284,00
2698,05	194,00
2702,31	279,00
2706,57	272,00
2710,83	334,00
2715,08	352,00
2719,33	387,00
2723,58	360,00
2727,82	316,00
2732,06	247,00
2736,29	220,00
2740,53	230,00
2744,75	232,00
2748,97	250,00
2753,19	220,00
2757,41	329,00
2761,62	210,00
2765,83	212,00
2770,03	233,00
2774,23	205,00
2778,43	319,00
2782,62	281,00
2786,81	251,00
2791,00	191,00
2795,18	409,00
2799,35	199,00
2803,53	375,00
2807,70	438,00
2811,86	290,00
2816,03	368,00
2820,19	287,00
2824,34	347,00
2828,49	598,00
2832,64	669,00
2836,78	635,00
2840,92	821,00
2845,06	901,00
2849,19	836,00
2853,32	902,00
2857,45	912,00
2861,57	1104,00
2865,69	1064,00
2869,80	1014,00
2873,91	1015,00
2878,02	1139,00
2882,12	1153,00
2886,22	1099,00
2890,32	1030,00
2894,41	1057,00
2898,50	895,00
2902,58	870,00
2906,67	913,00
2910,74	769,00
2914,82	684,00
2918,89	748,00
2922,96	802,00
2927,02	553,00
2931,08	636,00
2935,13	595,00
2939,19	470,00
2943,24	432,00
2947,28	414,00
2951,32	322,00
2955,36	363,00
2959,40	441,00
2963,43	325,00
2967,46	315,00
2971,48	286,00
2975,50	191,00
2979,52	253,00
2983,53	319,00
2987,54	384,00
2991,55	226,00
2995,55	156,00
2999,55	148,00
3003,54	148,00
3007,54	155,00
3011,53	200,00
3015,51	182,00
3019,49	146,00
3023,47	246,00
3027,45	212,00
3031,42	205,00
3035,39	115,00
3039,35	180,00
3043,31	120,00
3047,27	213,00
3051,22	197,00
3055,17	17,00
3059,12	127,00
3063,06	162,00
3067,00	86,00
3070,94	140,00
3074,87	99,00
3078,80	203,00
3082,73	202,00
3086,65	68,00
3090,57	151,00
3094,49	139,00
3098,40	101,00
3102,31	158,00
3106,22	150,00
3110,12	-53,00
3114,02	193,00
3117,92	124,00
3121,81	121,00
3125,70	200,00
3129,58	114,00
3133,47	74,00
3137,34	57,00
3141,22	158,00
3145,09	34,00
3148,96	91,00
3152,83	58,00
3156,69	122,00
3160,55	155,00
3164,40	38,00
3168,26	127,00
3172,10	142,00
3175,95	77,00
3179,79	212,00
3183,63	168,00
3187,47	155,00
3191,30	189,00
3195,13	166,00
3198,95	124,00
3202,78	150,00
3206,60	101,00
3210,41	69,00
3214,23	181,00
3218,03	35,00
3221,84	47,00
3225,64	-30,00
3229,44	111,00
3233,24	220,00
3237,03	84,00
3240,82	53,00
3244,61	57,00
3248,39	69,00
3252,17	134,00
3255,95	109,00
3259,72	233,00
3263,49	77,00
3267,26	-19,00
3271,03	120,00
3274,79	-6,00
3278,54	145,00
3282,30	113,00
3286,05	130,00
3289,80	34,00
3293,54	131,00
3297,29	182,00
3301,02	19,00
3304,76	148,00
3308,49	146,00
3312,22	-57,00
3315,95	153,00
3319,67	35,00
3323,39	124,00
3327,10	76,00
3330,82	95,00
3334,53	225,00
3338,24	167,00
3341,94	213,00
3345,64	67,00
3349,34	49,00
3353,03	122,00
3356,72	54,00
3360,41	44,00
3364,10	154,00
3367,78	117,00
3371,46	46,00
3375,13	192,00
3378,81	112,00
3382,48	187,00
3386,14	227,00
3389,81	-40,00
3393,47	86,00
3397,12	68,00
3400,78	133,00
3404,43	54,00
3408,08	32,00
3411,72	45,00
3415,36	56,00
3419,00	20,00
3422,64	-46,00
3426,27	97,00
3429,90	114,00
3433,53	168,00
3437,15	150,00
3440,77	-6,00
3444,39	34,00
3448,00	71,00
3451,62	253,00
3455,22	86,00
3458,83	47,00
3462,43	112,00
3466,03	54,00
3469,63	-20,00
3473,22	159,00
3476,81	105,00
3480,40	54,00
3483,99	184,00
3487,57	82,00
3491,15	21,00
3494,72	30,00
3498,29	113,00
3501,86	54,00
3505,43	134,00
3508,99	28,00
3512,56	128,00
3516,11	32,00
3519,67	27,00
3523,22	21,00
3526,77	108,00
3530,32	102,00
3533,86	-8,00
3537,40	0,00
3540,94	179,00
3544,47	11,00
3548,00	92,00
3551,53	90,00
3555,06	179,00
3558,58	14,00
3562,10	92,00
3565,62	99,00
3569,13	72,00
3572,64	239,00
3576,15	124,00
3579,66	134,00
3583,16	68,00
3586,66	52,00
3590,16	26,00
3593,65	126,00
3597,14	6,00
3600,63	120,00
3604,11	-26,00
3607,60	22,00
3611,08	124,00
3614,55	-55,00
3618,03	18,00
3621,50	-17,00
3624,97	37,00
3628,43	78,00
3631,90	-25,00
3635,36	84,00
3638,81	88,00
3642,27	-10,00
3645,72	190,00
3649,17	209,00
3652,61	141,00
3656,06	-41,00
3659,50	80,00
3662,93	-35,00
3666,37	-12,00
3669,80	149,00
3673,23	107,00
3676,65	90,00
3680,08	99,00
3683,50	78,00
3686,92	36,00
3690,33	74,00
3693,74	174,00
3697,15	19,00
3700,56	119,00
3703,96	-116,00
3707,36	97,00
3710,76	-23,00
3714,16	0,00
3717,55	51,00
3720,94	49,00
3724,33	83,00
3727,71	42,00
3731,10	46,00
3734,48	127,00
3737,85	22,00
3741,23	-54,00
3744,60	42,00
3747,97	-105,00
3751,33	175,00
3754,69	70,00
3758,05	163,00
3761,41	58,00
3764,77	54,00
3768,12	75,00
3771,47	93,00
3774,82	-28,00
3778,16	0,00
3781,50	2,00
3784,84	1,00
3788,18	10,00
>>>>>End Processed Spectral Data<<<<<
