SpectraSuite Data File
++++++++++++++++++++++++++++++++++++
Date: Mon Mar 09 16:21:57 ICT 2026
User: Administrator
Dark Spectrum Present: Yes
Reference Spectrum Present: No
Number of Sampled Component Spectra: 1
Spectrometers: MAYP113682
Integration Time (usec): 3000000 (MAYP113682)
Spectra Averaged: 1 (MAYP113682)
Boxcar Smoothing: 0 (MAYP113682)
Correct for Electrical Dark: No (MAYP113682)
Strobe/Lamp Enabled: No (MAYP113682)
Correct for Detector Non-linearity: No (MAYP113682)
Correct for Stray Light: No (MAYP113682)
Number of Pixels in Processed Spectrum: 2068
>>>>>Begin Processed Spectral Data<<<<<
-37534,58	-5,00
-37414,56	4,00
-37295,11	-6,00
-37176,24	6,00
-37057,95	64,00
-36940,22	22,00
-36823,05	115,00
-36706,45	21,00
-36590,40	98,00
-36474,90	-12,00
-36359,95	40,00
-36245,55	68,00
-36131,68	78,00
-36018,35	83,00
-35905,55	93,00
-35793,29	-41,00
-35681,54	95,00
-35570,32	69,00
-35459,62	47,00
-35349,43	14,00
-35239,75	-28,00
-35130,58	56,00
-35021,91	-5,00
-34913,74	67,00
-34806,07	91,00
-34698,89	56,00
-34592,20	-22,00
-34486,00	131,00
-34380,28	112,00
-34275,04	42,00
-34170,27	70,00
-34065,98	-16,00
-33962,16	-43,00
-33858,81	113,00
-33755,92	162,00
-33653,49	192,00
-33551,52	60,00
-33450,01	181,00
-33348,94	-89,00
-33248,33	-105,00
-33148,16	92,00
-33048,43	74,00
-32949,14	29,00
-32850,29	37,00
-32751,87	108,00
-32653,89	117,00
-32556,33	47,00
-32459,20	98,00
-32362,49	148,00
-32266,19	160,00
-32170,32	135,00
-32074,86	41,00
-31979,82	50,00
-31885,18	93,00
-31790,95	60,00
-31697,12	-24,00
-31603,69	76,00
-31510,67	70,00
-31418,04	69,00
-31325,80	67,00
-31233,95	221,00
-31142,49	116,00
-31051,42	125,00
-30960,73	-35,00
-30870,43	113,00
-30780,50	121,00
-30690,95	18,00
-30601,77	96,00
-30512,97	163,00
-30424,53	165,00
-30336,46	-23,00
-30248,76	72,00
-30161,42	216,00
-30074,44	36,00
-29987,81	191,00
-29901,55	117,00
-29815,63	19,00
-29730,07	94,00
-29644,86	69,00
-29560,00	-2,00
-29475,48	225,00
-29391,30	110,00
-29307,47	97,00
-29223,97	105,00
-29140,81	13,00
-29057,99	103,00
-28975,50	101,00
-28893,34	127,00
-28811,51	114,00
-28730,00	120,00
-28648,82	91,00
-28567,97	-14,00
-28487,43	102,00
-28407,21	-50,00
-28327,32	135,00
-28247,73	157,00
-28168,46	86,00
-28089,50	116,00
-28010,85	-41,00
-27932,51	148,00
-27854,48	123,00
-27776,75	29,00
-27699,32	60,00
-27622,19	84,00
-27545,37	74,00
-27468,84	92,00
-27392,60	21,00
-27316,66	92,00
-27241,01	79,00
-27165,66	96,00
-27090,59	23,00
-27015,81	116,00
-26941,31	64,00
-26867,10	62,00
-26793,17	8,00
-26719,52	57,00
-26646,15	113,00
-26573,06	-1,00
-26500,24	182,00
-26427,70	5,00
-26355,43	114,00
-26283,43	87,00
-26211,71	-36,00
-26140,25	72,00
-26069,06	187,00
-25998,13	86,00
-25927,46	-5,00
-25857,06	86,00
-25786,92	80,00
-25717,04	58,00
-25647,42	41,00
-25578,05	29,00
-25508,94	112,00
-25440,09	114,00
-25371,48	75,00
-25303,13	157,00
-25235,02	30,00
-25167,17	43,00
-25099,56	-20,00
-25032,19	34,00
-24965,07	97,00
-24898,20	72,00
-24831,56	-6,00
-24765,17	234,00
-24699,01	166,00
-24633,10	-26,00
-24567,41	94,00
-24501,97	105,00
-24436,75	48,00
-24371,77	132,00
-24307,03	86,00
-24242,51	7,00
-24178,22	56,00
-24114,16	84,00
-24050,32	170,00
-23986,71	243,00
-23923,32	12,00
-23860,16	-24,00
-23797,22	117,00
-23734,50	60,00
-23672,00	-140,00
-23609,71	119,00
-23547,65	57,00
-23485,80	75,00
-23424,16	37,00
-23362,74	126,00
-23301,53	55,00
-23240,54	4,00
-23179,75	52,00
-23119,17	45,00
-23058,80	47,00
-22998,64	46,00
-22938,68	109,00
-22878,93	-3,00
-22819,39	71,00
-22760,04	72,00
-22700,90	17,00
-22641,96	77,00
-22583,22	167,00
-22524,68	65,00
-22466,33	156,00
-22408,19	-55,00
-22350,23	-55,00
-22292,48	99,00
-22234,92	31,00
-22177,55	-32,00
-22120,37	144,00
-22063,38	23,00
-22006,58	39,00
-21949,98	123,00
-21893,56	8,00
-21837,33	-25,00
-21781,28	151,00
-21725,42	125,00
-21669,74	40,00
-21614,25	167,00
-21558,94	12,00
-21503,81	109,00
-21448,86	-55,00
-21394,10	81,00
-21339,51	56,00
-21285,10	47,00
-21230,86	42,00
-21176,81	55,00
-21122,93	70,00
-21069,22	3,00
-21015,69	67,00
-20962,33	136,00
-20909,14	27,00
-20856,13	-19,00
-20803,28	116,00
-20750,61	37,00
-20698,10	71,00
-20645,76	17,00
-20593,59	25,00
-20541,59	107,00
-20489,75	31,00
-20438,07	91,00
-20386,56	-39,00
-20335,22	140,00
-20284,03	-65,00
-20233,01	81,00
-20182,15	-1,00
-20131,45	4,00
-20080,91	72,00
-20030,52	20,00
-19980,30	59,00
-19930,23	128,00
-19880,32	124,00
-19830,56	137,00
-19780,96	33,00
-19731,52	121,00
-19682,23	171,00
-19633,09	116,00
-19584,10	-42,00
-19535,26	13,00
-19486,58	84,00
-19438,04	27,00
-19389,66	41,00
-19341,42	-30,00
-19293,33	97,00
-19245,39	65,00
-19197,60	144,00
-19149,95	118,00
-19102,45	144,00
-19055,09	88,00
-19007,87	62,00
-18960,80	218,00
-18913,87	-51,00
-18867,09	40,00
-18820,44	40,00
-18773,94	115,00
-18727,57	126,00
-18681,35	112,00
-18635,26	86,00
-18589,31	126,00
-18543,50	16,00
-18497,83	-77,00
-18452,29	111,00
-18406,89	6,00
-18361,63	87,00
-18316,50	78,00
-18271,50	123,00
-18226,63	100,00
-18181,90	68,00
-18137,30	171,00
-18092,84	-16,00
-18048,50	86,00
-18004,29	25,00
-17960,22	48,00
-17916,27	80,00
-17872,45	143,00
-17828,76	91,00
-17785,20	93,00
-17741,77	63,00
-17698,46	104,00
-17655,28	76,00
-17612,22	102,00
-17569,29	144,00
-17526,48	69,00
-17483,79	184,00
-17441,23	-12,00
-17398,79	84,00
-17356,48	109,00
-17314,28	123,00
-17272,21	118,00
-17230,26	60,00
-17188,42	102,00
-17146,71	44,00
-17105,12	21,00
-17063,64	33,00
-17022,28	148,00
-16981,04	127,00
-16939,92	104,00
-16898,91	30,00
-16858,02	41,00
-16817,25	68,00
-16776,59	80,00
-16736,04	-67,00
-16695,61	11,00
-16655,29	31,00
-16615,09	85,00
-16574,99	116,00
-16535,01	139,00
-16495,15	32,00
-16455,39	29,00
-16415,74	76,00
-16376,21	107,00
-16336,78	6,00
-16297,46	59,00
-16258,26	-62,00
-16219,16	147,00
-16180,17	189,00
-16141,28	110,00
-16102,51	91,00
-16063,84	10,00
-16025,27	41,00
-15986,82	112,00
-15948,46	-53,00
-15910,22	95,00
-15872,07	137,00
-15834,04	142,00
-15796,10	12,00
-15758,27	132,00
-15720,54	88,00
-15682,91	42,00
-15645,39	93,00
-15607,97	-48,00
-15570,64	24,00
-15533,42	110,00
-15496,30	235,00
-15459,28	62,00
-15422,36	150,00
-15385,54	73,00
-15348,82	52,00
-15312,19	-3,00
-15275,66	107,00
-15239,23	232,00
-15202,90	43,00
-15166,67	49,00
-15130,53	84,00
-15094,48	101,00
-15058,54	54,00
-15022,68	85,00
-14986,93	-28,00
-14951,26	92,00
-14915,69	105,00
-14880,22	227,00
-14844,84	32,00
-14809,55	23,00
-14774,35	59,00
-14739,25	34,00
-14704,24	-11,00
-14669,32	61,00
-14634,49	196,00
-14599,75	135,00
-14565,10	130,00
-14530,55	-16,00
-14496,08	135,00
-14461,70	66,00
-14427,41	64,00
-14393,21	71,00
-14359,10	78,00
-14325,07	-12,00
-14291,14	44,00
-14257,29	-80,00
-14223,52	90,00
-14189,85	89,00
-14156,26	110,00
-14122,76	76,00
-14089,34	156,00
-14056,01	177,00
-14022,76	97,00
-13989,60	-19,00
-13956,52	91,00
-13923,53	-28,00
-13890,62	77,00
-13857,79	-1,00
-13825,05	122,00
-13792,39	-9,00
-13759,81	55,00
-13727,31	113,00
-13694,90	-4,00
-13662,57	142,00
-13630,31	-8,00
-13598,14	-116,00
-13566,05	37,00
-13534,05	90,00
-13502,12	42,00
-13470,27	73,00
-13438,50	62,00
-13406,80	4,00
-13375,19	69,00
-13343,66	-48,00
-13312,20	-1,00
-13280,83	113,00
-13249,53	30,00
-13218,30	107,00
-13187,16	97,00
-13156,09	24,00
-13125,10	147,00
-13094,18	145,00
-13063,34	114,00
-13032,58	45,00
-13001,89	61,00
-12971,28	-33,00
-12940,74	81,00
-12910,27	23,00
-12879,88	66,00
-12849,57	29,00
-12819,33	62,00
-12789,16	16,00
-12759,06	-8,00
-12729,04	120,00
-12699,09	-1097,00
-12669,21	122,00
-12639,41	-44,00
-12609,68	113,00
-12580,02	65,00
-12550,43	36,00
-12520,91	60,00
-12491,46	126,00
-12462,08	18,00
-12432,77	18,00
-12403,54	80,00
-12374,37	150,00
-12345,27	12,00
-12316,24	171,00
-12287,29	145,00
-12258,40	72,00
-12229,57	147,00
-12200,82	66,00
-12172,14	-12,00
-12143,52	103,00
-12114,97	140,00
-12086,49	94,00
-12058,07	-1,00
-12029,73	153,00
-12001,44	40,00
-11973,23	142,00
-11945,08	180,00
-11917,00	165,00
-11888,98	138,00
-11861,03	91,00
-11833,15	4,00
-11805,32	187,00
-11777,57	56,00
-11749,88	57,00
-11722,25	-66,00
-11694,69	130,00
-11667,19	118,00
-11639,75	126,00
-11612,38	-31,00
-11585,07	125,00
-11557,83	85,00
-11530,65	114,00
-11503,53	118,00
-11476,47	153,00
-11449,48	54,00
-11422,54	58,00
-11395,67	-73,00
-11368,86	18,00
-11342,11	148,00
-11315,43	-24,00
-11288,80	156,00
-11262,23	80,00
-11235,73	13,00
-11209,28	-5,00
-11182,90	81,00
-11156,57	47,00
-11130,31	153,00
-11104,10	-110,00
-11077,96	32,00
-11051,87	75,00
-11025,84	201,00
-10999,87	146,00
-10973,96	12,00
-10948,11	4,00
-10922,31	130,00
-10896,58	131,00
-10870,90	67,00
-10845,28	7,00
-10819,71	16,00
-10794,20	18,00
-10768,75	61,00
-10743,36	72,00
-10718,02	148,00
-10692,74	47,00
-10667,52	120,00
-10642,35	233,00
-10617,24	10,00
-10592,18	131,00
-10567,18	41,00
-10542,23	167,00
-10517,34	202,00
-10492,51	110,00
-10467,72	219,00
-10443,00	142,00
-10418,32	152,00
-10393,70	-22,00
-10369,14	129,00
-10344,63	36,00
-10320,17	197,00
-10295,77	164,00
-10271,42	104,00
-10247,12	82,00
-10222,88	8,00
-10198,68	65,00
-10174,54	94,00
-10150,46	17,00
-10126,42	195,00
-10102,44	136,00
-10078,51	134,00
-10054,63	87,00
-10030,80	227,00
-10007,03	215,00
-9983,30	87,00
-9959,63	105,00
-9936,01	226,00
-9912,44	104,00
-9888,92	153,00
-9865,44	172,00
-9842,02	112,00
-9818,65	288,00
-9795,33	166,00
-9772,06	109,00
-9748,84	74,00
-9725,67	151,00
-9702,55	196,00
-9679,47	134,00
-9656,45	193,00
-9633,47	278,00
-9610,55	287,00
-9587,67	244,00
-9564,84	164,00
-9542,06	307,00
-9519,32	278,00
-9496,64	333,00
-9474,00	326,00
-9451,41	424,00
-9428,87	222,00
-9406,37	405,00
-9383,92	199,00
-9361,52	214,00
-9339,17	97,00
-9316,86	206,00
-9294,60	326,00
-9272,38	345,00
-9250,21	463,00
-9228,09	495,00
-9206,01	338,00
-9183,98	474,00
-9162,00	290,00
-9140,06	245,00
-9118,16	396,00
-9096,31	403,00
-9074,51	420,00
-9052,75	403,00
-9031,04	504,00
-9009,37	375,00
-8987,74	158,00
-8966,16	290,00
-8944,63	157,00
-8923,14	58,00
-8901,69	175,00
-8880,29	313,00
-8858,93	452,00
-8837,61	411,00
-8816,34	692,00
-8795,11	463,00
-8773,92	474,00
-8752,78	290,00
-8731,68	400,00
-8710,62	275,00
-8689,61	462,00
-8668,63	452,00
-8647,70	486,00
-8626,82	428,00
-8605,97	492,00
-8585,17	387,00
-8564,41	167,00
-8543,69	323,00
-8523,01	270,00
-8502,37	241,00
-8481,78	361,00
-8461,23	378,00
-8440,71	370,00
-8420,24	458,00
-8399,81	553,00
-8379,42	607,00
-8359,08	396,00
-8338,77	381,00
-8318,50	349,00
-8298,27	241,00
-8278,09	299,00
-8257,94	363,00
-8237,83	487,00
-8217,76	452,00
-8197,74	578,00
-8177,75	418,00
-8157,80	446,00
-8137,89	468,00
-8118,02	429,00
-8098,19	411,00
-8078,40	290,00
-8058,65	508,00
-8038,93	541,00
-8019,26	369,00
-7999,62	374,00
-7980,02	338,00
-7960,46	383,00
-7940,94	447,00
-7921,46	310,00
-7902,01	329,00
-7882,60	343,00
-7863,23	444,00
-7843,90	399,00
-7824,61	283,00
-7805,35	472,00
-7786,13	527,00
-7766,95	369,00
-7747,80	345,00
-7728,69	481,00
-7709,62	353,00
-7690,59	420,00
-7671,59	438,00
-7652,63	520,00
-7633,70	527,00
-7614,81	433,00
-7595,96	453,00
-7577,15	308,00
-7558,37	375,00
-7539,62	346,00
-7520,91	415,00
-7502,24	327,00
-7483,60	457,00
-7465,00	335,00
-7446,44	382,00
-7427,91	313,00
-7409,41	368,00
-7390,95	271,00
-7372,53	254,00
-7354,14	155,00
-7335,78	43,00
-7317,46	380,00
-7299,18	268,00
-7280,92	307,00
-7262,71	456,00
-7244,52	338,00
-7226,38	418,00
-7208,26	523,00
-7190,18	332,00
-7172,14	371,00
-7154,12	182,00
-7136,15	365,00
-7118,20	387,00
-7100,29	370,00
-7082,41	374,00
-7064,57	382,00
-7046,76	298,00
-7028,98	117,00
-7011,24	326,00
-6993,53	121,00
-6975,85	213,00
-6958,20	83,00
-6940,59	41,00
-6923,01	81,00
-6905,46	200,00
-6887,94	262,00
-6870,46	283,00
-6853,01	391,00
-6835,59	329,00
-6818,21	229,00
-6800,85	324,00
-6783,53	118,00
-6766,24	-34,00
-6748,98	-128,00
-6731,76	-21,00
-6714,56	-77,00
-6697,40	199,00
-6680,26	0,00
-6663,16	228,00
-6646,09	84,00
-6629,05	261,00
-6612,05	172,00
-6595,07	298,00
-6578,13	300,00
-6561,21	108,00
-6544,33	34,00
-6527,47	76,00
-6510,65	-78,00
-6493,86	-38,00
-6477,10	67,00
-6460,36	48,00
-6443,66	90,00
-6426,99	49,00
-6410,35	119,00
-6393,74	72,00
-6377,16	214,00
-6360,61	10,00
-6344,09	21,00
-6327,59	114,00
-6311,13	111,00
-6294,70	259,00
-6278,29	247,00
-6261,92	328,00
-6245,58	219,00
-6229,26	350,00
-6212,97	312,00
-6196,72	37,00
-6180,49	-22,00
-6164,29	64,00
-6148,12	-101,00
-6131,98	9,00
-6115,86	0,00
-6099,78	45,00
-6083,72	5,00
-6067,69	-39,00
-6051,69	-25,00
-6035,72	86,00
-6019,78	92,00
-6003,87	142,00
-5987,98	213,00
-5972,12	203,00
-5956,29	183,00
-5940,49	197,00
-5924,71	105,00
-5908,96	-52,00
-5893,24	10,00
-5877,55	49,00
-5861,89	-44,00
-5846,25	51,00
-5830,64	-77,00
-5815,05	0,00
-5799,50	56,00
-5783,97	160,00
-5768,47	88,00
-5752,99	146,00
-5737,55	123,00
-5722,12	170,00
-5706,73	254,00
-5691,36	197,00
-5676,02	101,00
-5660,71	92,00
-5645,42	138,00
-5630,16	15,00
-5614,92	108,00
-5599,71	132,00
-5584,53	14,00
-5569,37	179,00
-5554,24	8,00
-5539,14	162,00
-5524,06	8,00
-5509,01	16,00
-5493,98	35,00
-5478,98	19,00
-5464,00	66,00
-5449,05	101,00
-5434,13	96,00
-5419,23	52,00
-5404,36	22,00
-5389,51	160,00
-5374,69	220,00
-5359,89	80,00
-5345,12	155,00
-5330,37	308,00
-5315,65	140,00
-5300,95	270,00
-5286,28	89,00
-5271,63	184,00
-5257,01	55,00
-5242,41	63,00
-5227,84	-49,00
-5213,29	-45,00
-5198,76	0,00
-5184,26	49,00
-5169,79	38,00
-5155,33	77,00
-5140,91	23,00
-5126,51	66,00
-5112,13	117,00
-5097,77	71,00
-5083,44	5,00
-5069,13	38,00
-5054,85	16,00
-5040,59	201,00
-5026,36	29,00
-5012,15	101,00
-4997,96	27,00
-4983,80	74,00
-4969,66	3,00
-4955,54	132,00
-4941,44	128,00
-4927,37	89,00
-4913,33	230,00
-4899,30	156,00
-4885,30	258,00
-4871,33	213,00
-4857,37	21,00
-4843,44	36,00
-4829,53	104,00
-4815,65	71,00
-4801,79	6,00
-4787,95	-9,00
-4774,13	148,00
-4760,34	51,00
-4746,56	-3,00
-4732,82	55,00
-4719,09	89,00
-4705,38	87,00
-4691,70	153,00
-4678,04	159,00
-4664,41	205,00
-4650,79	57,00
-4637,20	26,00
-4623,63	105,00
-4610,08	86,00
-4596,56	-22,00
-4583,05	163,00
-4569,57	66,00
-4556,11	221,00
-4542,67	3,00
-4529,25	36,00
-4515,86	176,00
-4502,49	220,00
-4489,13	126,00
-4475,80	134,00
-4462,49	121,00
-4449,21	142,00
-4435,94	121,00
-4422,70	51,00
-4409,47	96,00
-4396,27	106,00
-4383,09	152,00
-4369,93	108,00
-4356,79	31,00
-4343,67	1,00
-4330,58	12,00
-4317,50	86,00
-4304,45	69,00
-4291,41	-41,00
-4278,40	-43,00
-4265,41	11,00
-4252,44	101,00
-4239,49	139,00
-4226,55	104,00
-4213,65	95,00
-4200,76	127,00
-4187,89	78,00
-4175,04	57,00
-4162,21	7,00
-4149,40	9,00
-4136,61	169,00
-4123,85	83,00
-4111,10	29,00
-4098,37	17,00
-4085,66	203,00
-4072,98	252,00
-4060,31	57,00
-4047,66	110,00
-4035,04	106,00
-4022,43	149,00
-4009,84	202,00
-3997,27	57,00
-3984,72	103,00
-3972,19	80,00
-3959,69	-72,00
-3947,20	94,00
-3934,73	133,00
-3922,27	197,00
-3909,84	101,00
-3897,43	130,00
-3885,04	-36,00
-3872,67	26,00
-3860,31	-45,00
-3847,98	136,00
-3835,66	45,00
-3823,36	32,00
-3811,09	41,00
-3798,83	53,00
-3786,59	144,00
-3774,37	156,00
-3762,17	61,00
-3749,98	131,00
-3737,82	87,00
-3725,67	107,00
-3713,55	5,00
-3701,44	190,00
-3689,35	73,00
-3677,28	18,00
-3665,22	-74,00
-3653,19	44,00
-3641,17	87,00
-3629,18	201,00
-3617,20	84,00
-3605,24	180,00
-3593,30	-6,00
-3581,37	98,00
-3569,47	22,00
-3557,58	108,00
-3545,71	17,00
-3533,86	217,00
-3522,02	-53,00
-3510,21	69,00
-3498,41	0,00
-3486,63	136,00
-3474,87	-31,00
-3463,12	216,00
-3451,40	101,00
-3439,69	180,00
-3428,00	200,00
-3416,33	143,00
-3404,67	38,00
-3393,03	145,00
-3381,41	-13,00
-3369,81	-33,00
-3358,22	152,00
-3346,66	73,00
-3335,10	-12,00
-3323,57	161,00
-3312,06	-16,00
-3300,56	67,00
-3289,08	116,00
-3277,61	22,00
-3266,16	70,00
-3254,73	200,00
-3243,32	42,00
-3231,92	-17,00
-3220,55	23,00
-3209,18	161,00
-3197,84	179,00
-3186,51	88,00
-3175,20	174,00
-3163,90	24,00
-3152,63	24,00
-3141,36	-35,00
-3130,12	112,00
-3118,89	-57,00
-3107,68	139,00
-3096,49	75,00
-3085,31	26,00
-3074,15	62,00
-3063,00	7,00
-3051,87	37,00
-3040,76	41,00
-3029,67	62,00
-3018,59	-106,00
-3007,52	19,00
-2996,48	69,00
-2985,44	112,00
-2974,43	49,00
-2963,43	141,00
-2952,45	47,00
-2941,48	24,00
-2930,53	-76,00
-2919,60	36,00
-2908,68	67,00
-2897,78	108,00
-2886,89	125,00
-2876,02	54,00
-2865,17	76,00
-2854,33	142,00
-2843,50	94,00
-2832,70	71,00
-2821,90	51,00
-2811,13	113,00
-2800,37	-75,00
-2789,62	16,00
-2778,89	197,00
-2768,18	135,00
-2757,48	104,00
-2746,80	-39,00
-2736,13	85,00
-2725,48	36,00
-2714,84	-29,00
-2704,22	44,00
-2693,61	-53,00
-2683,02	-92,00
-2672,45	105,00
-2661,89	119,00
-2651,34	5,00
-2640,81	112,00
-2630,30	141,00
-2619,80	166,00
-2609,31	93,00
-2598,84	71,00
-2588,39	49,00
-2577,95	100,00
-2567,52	21,00
-2557,11	49,00
-2546,71	124,00
-2536,33	159,00
-2525,97	103,00
-2515,62	34,00
-2505,28	108,00
-2494,96	0,00
-2484,65	49,00
-2474,36	495,00
-2464,08	79,00
-2453,82	68,00
-2443,57	209,00
-2433,33	46,00
-2423,11	90,00
-2412,91	16,00
-2402,72	63,00
-2392,54	190,00
-2382,38	32,00
-2372,23	128,00
-2362,09	432,00
-2351,97	103,00
-2341,87	20,00
-2331,78	45,00
-2321,70	-90,00
-2311,64	112,00
-2301,59	141,00
-2291,55	32,00
-2281,53	-14,00
-2271,53	-16,00
-2261,53	152,00
-2251,55	64,00
-2241,59	74,00
-2231,64	25,00
-2221,70	77,00
-2211,78	159,00
-2201,87	106,00
-2191,97	-25,00
-2182,09	190,00
-2172,22	265,00
-2162,37	74,00
-2152,53	15,00
-2142,70	81,00
-2132,89	105,00
-2123,09	32,00
-2113,30	73,00
-2103,53	83,00
-2093,77	101,00
-2084,02	-25,00
-2074,29	77,00
-2064,57	58,00
-2054,86	203,00
-2045,17	30,00
-2035,49	55,00
-2025,82	-50,00
-2016,17	66,00
-2006,53	12,00
-1996,91	12,00
-1987,29	72,00
-1977,69	87,00
-1968,11	36,00
-1958,53	176,00
-1948,97	-9,00
-1939,42	173,00
-1929,89	27,00
-1920,37	173,00
-1910,86	32,00
-1901,36	66,00
-1891,88	61,00
-1882,41	24,00
-1872,95	59,00
-1863,51	47,00
-1854,08	23,00
-1844,66	179,00
-1835,26	159,00
-1825,86	67,00
-1816,48	95,00
-1807,11	90,00
-1797,76	38,00
-1788,42	101,00
-1779,09	91,00
-1769,77	65,00
-1760,47	61,00
-1751,17	73,00
-1741,89	46,00
-1732,63	129,00
-1723,37	145,00
-1714,13	14,00
-1704,90	94,00
-1695,68	57,00
-1686,48	139,00
-1677,29	158,00
-1668,11	164,00
-1658,94	89,00
-1649,78	42,00
-1640,64	121,00
-1631,51	119,00
-1622,39	52,00
-1613,28	94,00
-1604,19	-70,00
-1595,10	131,00
-1586,03	130,00
-1576,97	-7,00
-1567,93	150,00
-1558,89	-55,00
-1549,87	89,00
-1540,86	15,00
-1531,86	71,00
-1522,87	-9,00
-1513,90	274,00
-1504,93	-5,00
-1495,98	78,00
-1487,04	142,00
-1478,12	85,00
-1469,20	50,00
-1460,30	94,00
-1451,40	14,00
-1442,52	144,00
-1433,65	103,00
-1424,80	193,00
-1415,95	30,00
-1407,12	69,00
-1398,30	181,00
-1389,48	172,00
-1380,69	59,00
-1371,90	41,00
-1363,12	160,00
-1354,36	-82,00
-1345,60	109,00
-1336,86	143,00
-1328,13	161,00
-1319,41	5,00
-1310,70	140,00
-1302,01	76,00
-1293,32	-32,00
-1284,65	92,00
-1275,99	30,00
-1267,33	94,00
-1258,69	80,00
-1250,06	84,00
-1241,45	-24,00
-1232,84	163,00
-1224,25	49,00
-1215,66	51,00
-1207,09	119,00
-1198,53	54,00
-1189,97	148,00
-1181,43	-38,00
-1172,91	79,00
-1164,39	25,00
-1155,88	198,00
-1147,38	-19,00
-1138,90	90,00
-1130,43	97,00
-1121,96	168,00
-1113,51	128,00
-1105,07	5,00
-1096,64	92,00
-1088,22	95,00
-1079,81	107,00
-1071,41	142,00
-1063,02	111,00
-1054,65	235,00
-1046,28	59,00
-1037,92	151,00
-1029,58	77,00
-1021,24	163,00
-1012,92	217,00
-1004,61	-93,00
-996,30	201,00
-988,01	24,00
-979,73	34,00
-971,46	178,00
-963,20	9,00
-954,95	31,00
-946,71	23,00
-938,48	-15,00
-930,26	82,00
-922,06	42,00
-913,86	0,00
-905,67	17,00
-897,49	66,00
-889,33	47,00
-881,17	59,00
-873,02	85,00
-864,89	147,00
-856,76	167,00
-848,65	124,00
-840,54	64,00
-832,45	-70,00
-824,36	141,00
-816,29	93,00
-808,22	22,00
-800,17	-28,00
-792,12	199,00
-784,09	78,00
-776,06	55,00
-768,05	161,00
-760,04	-36,00
-752,05	82,00
-744,07	10,00
-736,09	8,00
-728,13	51,00
-720,17	-9,00
-712,23	72,00
-704,29	176,00
-696,37	152,00
-688,45	157,00
-680,55	53,00
-672,65	160,00
-664,77	164,00
-656,89	35,00
-649,03	246,00
-641,17	75,00
-633,32	63,00
-625,49	215,00
-617,66	140,00
-609,84	-36,00
-602,03	38,00
-594,23	108,00
-586,45	119,00
-578,67	28,00
-570,90	8,00
-563,14	64,00
-555,39	-20,00
-547,65	65,00
-539,91	79,00
-532,19	124,00
-524,48	31,00
-516,78	69,00
-509,08	164,00
-501,40	72,00
-493,72	55,00
-486,06	95,00
-478,40	120,00
-470,76	177,00
-463,12	173,00
-455,49	73,00
-447,87	133,00
-440,26	116,00
-432,66	73,00
-425,07	113,00
-417,49	158,00
-409,92	14,00
-402,35	212,00
-394,80	89,00
-387,25	58,00
-379,72	13,00
-372,19	179,00
-364,67	224,00
-357,17	189,00
-349,67	99,00
-342,18	167,00
-334,69	-60,00
-327,22	-3,00
-319,76	101,00
-312,30	149,00
-304,86	222,00
-297,42	123,00
-290,00	82,00
-282,58	207,00
-275,17	106,00
-267,77	48,00
-260,37	128,00
-252,99	158,00
-245,62	140,00
-238,25	50,00
-230,90	191,00
-223,55	-48,00
-216,21	210,00
-208,88	108,00
-201,56	213,00
-194,25	148,00
-186,94	289,00
-179,65	132,00
-172,36	231,00
-165,08	352,00
-157,81	113,00
-150,55	393,00
-143,30	330,00
-136,06	384,00
-128,82	488,00
-121,60	438,00
-114,38	411,00
-107,17	533,00
-99,97	645,00
-92,78	594,00
-85,60	681,00
-78,42	933,00
-71,25	922,00
-64,10	1114,00
-56,95	1267,00
-49,81	1567,00
-42,67	1822,00
-35,55	2300,00
-28,43	3066,00
-21,33	5007,00
-14,23	16683,00
-7,14	55164,00
-0,05	54791,00
7,02	54542,00
14,09	54846,00
21,14	15252,00
28,19	6246,00
35,23	4005,00
42,27	3052,00
49,29	2556,00
56,31	2040,00
63,32	1822,00
70,32	1328,00
77,31	1287,00
84,29	1041,00
91,27	972,00
98,23	747,00
105,19	793,00
112,14	854,00
119,09	1346,00
126,02	2018,00
132,95	2438,00
139,87	2552,00
146,78	2489,00
153,68	2436,00
160,58	2356,00
167,46	2360,00
174,34	2437,00
181,21	2583,00
188,08	2316,00
194,93	2204,00
201,78	2181,00
208,62	2230,00
215,45	2301,00
222,27	2376,00
229,09	2187,00
235,90	2190,00
242,70	2189,00
249,49	2213,00
256,27	2165,00
263,05	2179,00
269,82	2214,00
276,58	2225,00
283,33	2179,00
290,08	2113,00
296,82	2003,00
303,55	2088,00
310,27	1912,00
316,98	1986,00
323,69	2052,00
330,39	1940,00
337,08	1947,00
343,76	1964,00
350,44	1940,00
357,11	1969,00
363,77	1937,00
370,42	1923,00
377,07	1954,00
383,71	1955,00
390,34	1844,00
396,96	1976,00
403,58	1911,00
410,19	1982,00
416,79	1880,00
423,38	1928,00
429,97	1766,00
436,55	1891,00
443,12	1848,00
449,68	1743,00
456,24	1723,00
462,79	1586,00
469,33	1613,00
475,86	1672,00
482,39	1674,00
488,91	1639,00
495,42	1638,00
501,93	1661,00
508,42	1681,00
514,91	1735,00
521,40	1601,00
527,87	1609,00
534,34	1568,00
540,80	1646,00
547,25	1566,00
553,70	1652,00
560,14	1555,00
566,57	1539,00
573,00	1543,00
579,41	1516,00
585,83	1436,00
592,23	1469,00
598,62	1566,00
605,01	1448,00
611,40	1425,00
617,77	1518,00
624,14	1492,00
630,50	1461,00
636,85	1298,00
643,20	1380,00
649,54	1445,00
655,87	1354,00
662,20	1438,00
668,52	1346,00
674,83	1332,00
681,13	1413,00
687,43	1190,00
693,72	1322,00
700,00	1281,00
706,28	1368,00
712,55	1282,00
718,81	1404,00
725,07	1304,00
731,32	1222,00
737,56	1396,00
743,79	1311,00
750,02	1458,00
756,24	1327,00
762,46	1297,00
768,67	1260,00
774,87	1232,00
781,06	1278,00
787,25	1300,00
793,43	1325,00
799,60	1297,00
805,77	1259,00
811,93	1428,00
818,08	1338,00
824,23	1267,00
830,37	1347,00
836,50	1369,00
842,63	1238,00
848,75	1323,00
854,87	1334,00
860,97	1342,00
867,07	1364,00
873,17	1292,00
879,25	1229,00
885,33	1175,00
891,41	1328,00
897,47	1179,00
903,53	1215,00
909,59	1385,00
915,63	1251,00
921,67	1162,00
927,71	1159,00
933,74	1194,00
939,76	1107,00
945,77	1015,00
951,78	1045,00
957,78	1128,00
963,78	1134,00
969,77	1004,00
975,75	1055,00
981,72	1131,00
987,69	1177,00
993,66	1154,00
999,61	1193,00
1005,56	1140,00
1011,51	1201,00
1017,44	1007,00
1023,37	1229,00
1029,30	1079,00
1035,22	1217,00
1041,13	1205,00
1047,03	1243,00
1052,93	1314,00
1058,83	1471,00
1064,71	1564,00
1070,59	1491,00
1076,47	1310,00
1082,33	1293,00
1088,20	1241,00
1094,05	1172,00
1099,90	1033,00
1105,74	1174,00
1111,58	1143,00
1117,41	1230,00
1123,23	1413,00
1129,05	1531,00
1134,86	1440,00
1140,67	1115,00
1146,47	1271,00
1152,26	1120,00
1158,05	1062,00
1163,83	1091,00
1169,60	1163,00
1175,37	1125,00
1181,13	1065,00
1186,89	1112,00
1192,64	1049,00
1198,38	967,00
1204,12	1043,00
1209,85	1045,00
1215,58	1145,00
1221,30	913,00
1227,02	1064,00
1232,72	1134,00
1238,43	1051,00
1244,12	1057,00
1249,81	1027,00
1255,50	1119,00
1261,17	1096,00
1266,85	1121,00
1272,51	1193,00
1278,17	1163,00
1283,83	1192,00
1289,47	1626,00
1295,12	1794,00
1300,75	1668,00
1306,38	1536,00
1312,01	1433,00
1317,63	1125,00
1323,24	1170,00
1328,85	1278,00
1334,45	1104,00
1340,04	1035,00
1345,63	1231,00
1351,22	1090,00
1356,80	1205,00
1362,37	1126,00
1367,93	1197,00
1373,49	1140,00
1379,05	1174,00
1384,60	1219,00
1390,14	1149,00
1395,68	1105,00
1401,21	1001,00
1406,74	1122,00
1412,26	1337,00
1417,77	1247,00
1423,28	1298,00
1428,78	1481,00
1434,28	1698,00
1439,77	1788,00
1445,26	1868,00
1450,74	1656,00
1456,22	1588,00
1461,68	1549,00
1467,15	1475,00
1472,61	1337,00
1478,06	1259,00
1483,51	1268,00
1488,95	1125,00
1494,38	1086,00
1499,81	1120,00
1505,24	969,00
1510,65	997,00
1516,07	948,00
1521,48	942,00
1526,88	917,00
1532,27	972,00
1537,67	1004,00
1543,05	924,00
1548,43	933,00
1553,81	953,00
1559,18	955,00
1564,54	944,00
1569,90	992,00
1575,25	965,00
1580,60	821,00
1585,94	871,00
1591,28	926,00
1596,61	897,00
1601,93	917,00
1607,25	965,00
1612,57	877,00
1617,88	982,00
1623,18	935,00
1628,48	842,00
1633,77	782,00
1639,06	803,00
1644,34	801,00
1649,62	930,00
1654,89	856,00
1660,16	785,00
1665,42	835,00
1670,67	798,00
1675,92	739,00
1681,17	697,00
1686,41	790,00
1691,64	715,00
1696,87	800,00
1702,10	727,00
1707,32	800,00
1712,53	799,00
1717,74	786,00
1722,94	589,00
1728,14	728,00
1733,33	800,00
1738,52	733,00
1743,70	736,00
1748,88	683,00
1754,05	715,00
1759,22	762,00
1764,38	748,00
1769,53	702,00
1774,69	692,00
1779,83	868,00
1784,97	666,00
1790,11	550,00
1795,24	774,00
1800,36	688,00
1805,48	713,00
1810,60	696,00
1815,71	633,00
1820,82	659,00
1825,92	698,00
1831,01	780,00
1836,10	513,00
1841,19	704,00
1846,26	724,00
1851,34	626,00
1856,41	638,00
1861,47	607,00
1866,53	628,00
1871,59	623,00
1876,64	560,00
1881,68	512,00
1886,72	559,00
1891,76	674,00
1896,79	645,00
1901,81	664,00
1906,83	597,00
1911,85	590,00
1916,86	649,00
1921,86	612,00
1926,86	551,00
1931,86	599,00
1936,85	557,00
1941,83	556,00
1946,81	529,00
1951,79	570,00
1956,76	495,00
1961,72	346,00
1966,68	491,00
1971,64	373,00
1976,59	531,00
1981,54	459,00
1986,48	527,00
1991,42	433,00
1996,35	408,00
2001,27	500,00
2006,20	533,00
2011,11	520,00
2016,03	571,00
2020,93	466,00
2025,84	485,00
2030,73	475,00
2035,63	466,00
2040,52	599,00
2045,40	465,00
2050,28	444,00
2055,15	398,00
2060,02	474,00
2064,89	516,00
2069,75	670,00
2074,60	431,00
2079,46	431,00
2084,30	470,00
2089,14	539,00
2093,98	459,00
2098,81	536,00
2103,64	458,00
2108,46	298,00
2113,28	384,00
2118,09	425,00
2122,90	372,00
2127,70	425,00
2132,50	505,00
2137,30	427,00
2142,09	509,00
2146,87	355,00
2151,66	428,00
2156,43	400,00
2161,20	338,00
2165,97	406,00
2170,73	478,00
2175,49	414,00
2180,24	477,00
2184,99	525,00
2189,74	524,00
2194,48	379,00
2199,21	411,00
2203,94	362,00
2208,67	356,00
2213,39	388,00
2218,11	364,00
2222,82	420,00
2227,53	407,00
2232,23	398,00
2236,93	398,00
2241,63	340,00
2246,32	401,00
2251,00	221,00
2255,68	447,00
2260,36	419,00
2265,03	414,00
2269,70	252,00
2274,36	354,00
2279,02	362,00
2283,68	284,00
2288,33	217,00
2292,97	272,00
2297,61	319,00
2302,25	471,00
2306,88	352,00
2311,51	355,00
2316,14	293,00
2320,75	419,00
2325,37	333,00
2329,98	393,00
2334,59	386,00
2339,19	443,00
2343,79	202,00
2348,38	343,00
2352,97	272,00
2357,55	364,00
2362,13	347,00
2366,71	439,00
2371,28	338,00
2375,85	228,00
2380,41	251,00
2384,97	248,00
2389,52	213,00
2394,07	177,00
2398,62	280,00
2403,16	283,00
2407,70	362,00
2412,23	395,00
2416,76	335,00
2421,29	361,00
2425,81	274,00
2430,32	337,00
2434,84	375,00
2439,34	340,00
2443,85	221,00
2448,35	317,00
2452,84	253,00
2457,33	183,00
2461,82	320,00
2466,30	339,00
2470,78	358,00
2475,25	291,00
2479,72	325,00
2484,19	282,00
2488,65	350,00
2493,11	195,00
2497,56	269,00
2502,01	214,00
2506,46	352,00
2510,90	259,00
2515,34	316,00
2519,77	292,00
2524,20	334,00
2528,62	212,00
2533,04	332,00
2537,46	167,00
2541,87	306,00
2546,28	293,00
2550,68	319,00
2555,08	329,00
2559,48	355,00
2563,87	144,00
2568,26	163,00
2572,64	293,00
2577,02	357,00
2581,40	274,00
2585,77	178,00
2590,14	203,00
2594,50	156,00
2598,86	324,00
2603,22	288,00
2607,57	162,00
2611,92	282,00
2616,26	285,00
2620,60	373,00
2624,94	245,00
2629,27	343,00
2633,60	224,00
2637,92	261,00
2642,24	251,00
2646,56	188,00
2650,87	184,00
2655,18	259,00
2659,48	179,00
2663,78	266,00
2668,08	384,00
2672,37	382,00
2676,66	247,00
2680,95	236,00
2685,23	191,00
2689,50	276,00
2693,78	305,00
2698,05	243,00
2702,31	309,00
2706,57	342,00
2710,83	361,00
2715,08	292,00
2719,33	409,00
2723,58	404,00
2727,82	493,00
2732,06	271,00
2736,29	300,00
2740,53	299,00
2744,75	373,00
2748,97	287,00
2753,19	380,00
2757,41	382,00
2761,62	371,00
2765,83	232,00
2770,03	260,00
2774,23	314,00
2778,43	397,00
2782,62	353,00
2786,81	291,00
2791,00	219,00
2795,18	378,00
2799,35	237,00
2803,53	410,00
2807,70	413,00
2811,86	351,00
2816,03	389,00
2820,19	373,00
2824,34	327,00
2828,49	626,00
2832,64	701,00
2836,78	735,00
2840,92	790,00
2845,06	942,00
2849,19	1051,00
2853,32	1130,00
2857,45	1103,00
2861,57	1240,00
2865,69	1116,00
2869,80	1155,00
2873,91	1175,00
2878,02	1238,00
2882,12	1126,00
2886,22	1159,00
2890,32	1135,00
2894,41	1157,00
2898,50	1027,00
2902,58	992,00
2906,67	997,00
2910,74	760,00
2914,82	766,00
2918,89	644,00
2922,96	838,00
2927,02	644,00
2931,08	762,00
2935,13	517,00
2939,19	576,00
2943,24	534,00
2947,28	481,00
2951,32	325,00
2955,36	425,00
2959,40	499,00
2963,43	311,00
2967,46	287,00
2971,48	315,00
2975,50	216,00
2979,52	322,00
2983,53	331,00
2987,54	411,00
2991,55	173,00
2995,55	252,00
2999,55	192,00
3003,54	206,00
3007,54	167,00
3011,53	214,00
3015,51	240,00
3019,49	261,00
3023,47	245,00
3027,45	258,00
3031,42	258,00
3035,39	167,00
3039,35	197,00
3043,31	115,00
3047,27	130,00
3051,22	187,00
3055,17	105,00
3059,12	19,00
3063,06	146,00
3067,00	126,00
3070,94	124,00
3074,87	112,00
3078,80	177,00
3082,73	186,00
3086,65	119,00
3090,57	43,00
3094,49	117,00
3098,40	73,00
3102,31	157,00
3106,22	85,00
3110,12	63,00
3114,02	209,00
3117,92	40,00
3121,81	118,00
3125,70	179,00
3129,58	85,00
3133,47	110,00
3137,34	63,00
3141,22	149,00
3145,09	124,00
3148,96	163,00
3152,83	142,00
3156,69	76,00
3160,55	239,00
3164,40	-26,00
3168,26	170,00
3172,10	158,00
3175,95	133,00
3179,79	126,00
3183,63	131,00
3187,47	302,00
3191,30	162,00
3195,13	130,00
3198,95	131,00
3202,78	92,00
3206,60	71,00
3210,41	74,00
3214,23	170,00
3218,03	130,00
3221,84	150,00
3225,64	95,00
3229,44	54,00
3233,24	180,00
3237,03	113,00
3240,82	35,00
3244,61	45,00
3248,39	111,00
3252,17	134,00
3255,95	172,00
3259,72	164,00
3263,49	179,00
3267,26	99,00
3271,03	87,00
3274,79	71,00
3278,54	170,00
3282,30	65,00
3286,05	195,00
3289,80	12,00
3293,54	-23,00
3297,29	162,00
3301,02	33,00
3304,76	92,00
3308,49	182,00
3312,22	51,00
3315,95	116,00
3319,67	142,00
3323,39	199,00
3327,10	104,00
3330,82	157,00
3334,53	136,00
3338,24	157,00
3341,94	101,00
3345,64	67,00
3349,34	108,00
3353,03	114,00
3356,72	102,00
3360,41	-37,00
3364,10	203,00
3367,78	31,00
3371,46	148,00
3375,13	97,00
3378,81	159,00
3382,48	123,00
3386,14	208,00
3389,81	21,00
3393,47	87,00
3397,12	131,00
3400,78	72,00
3404,43	197,00
3408,08	-50,00
3411,72	81,00
3415,36	65,00
3419,00	-37,00
3422,64	-56,00
3426,27	72,00
3429,90	114,00
3433,53	69,00
3437,15	116,00
3440,77	84,00
3444,39	-8,00
3448,00	12,00
3451,62	230,00
3455,22	94,00
3458,83	48,00
3462,43	30,00
3466,03	85,00
3469,63	12,00
3473,22	65,00
3476,81	148,00
3480,40	51,00
3483,99	86,00
3487,57	191,00
3491,15	99,00
3494,72	116,00
3498,29	199,00
3501,86	60,00
3505,43	123,00
3508,99	-19,00
3512,56	97,00
3516,11	132,00
3519,67	78,00
3523,22	92,00
3526,77	178,00
3530,32	139,00
3533,86	37,00
3537,40	37,00
3540,94	180,00
3544,47	8,00
3548,00	201,00
3551,53	70,00
3555,06	122,00
3558,58	110,00
3562,10	56,00
3565,62	173,00
3569,13	115,00
3572,64	170,00
3576,15	13,00
3579,66	180,00
3583,16	97,00
3586,66	34,00
3590,16	62,00
3593,65	124,00
3597,14	-25,00
3600,63	123,00
3604,11	3,00
3607,60	92,00
3611,08	59,00
3614,55	-56,00
3618,03	109,00
3621,50	-16,00
3624,97	68,00
3628,43	7,00
3631,90	-15,00
3635,36	95,00
3638,81	-5,00
3642,27	-24,00
3645,72	157,00
3649,17	82,00
3652,61	92,00
3656,06	-17,00
3659,50	132,00
3662,93	10,00
3666,37	38,00
3669,80	103,00
3673,23	112,00
3676,65	121,00
3680,08	18,00
3683,50	12,00
3686,92	3,00
3690,33	91,00
3693,74	159,00
3697,15	123,00
3700,56	43,00
3703,96	-17,00
3707,36	-34,00
3710,76	34,00
3714,16	108,00
3717,55	32,00
3720,94	123,00
3724,33	94,00
3727,71	64,00
3731,10	37,00
3734,48	99,00
3737,85	-51,00
3741,23	-16,00
3744,60	-3,00
3747,97	-17,00
3751,33	72,00
3754,69	195,00
3758,05	43,00
3761,41	-56,00
3764,77	39,00
3768,12	66,00
3771,47	46,00
3774,82	14,00
3778,16	-1,00
3781,50	2,00
3784,84	6,00
3788,18	5,00
>>>>>End Processed Spectral Data<<<<<
