SpectraSuite Data File
++++++++++++++++++++++++++++++++++++
Date: Mon Mar 09 16:27:03 ICT 2026
User: Administrator
Dark Spectrum Present: Yes
Reference Spectrum Present: No
Number of Sampled Component Spectra: 1
Spectrometers: MAYP113682
Integration Time (usec): 3000000 (MAYP113682)
Spectra Averaged: 1 (MAYP113682)
Boxcar Smoothing: 0 (MAYP113682)
Correct for Electrical Dark: No (MAYP113682)
Strobe/Lamp Enabled: No (MAYP113682)
Correct for Detector Non-linearity: No (MAYP113682)
Correct for Stray Light: No (MAYP113682)
Number of Pixels in Processed Spectrum: 2068
>>>>>Begin Processed Spectral Data<<<<<
-37534,58	2,00
-37414,56	1,00
-37295,11	-3,00
-37176,24	-3,00
-37057,95	66,00
-36940,22	127,00
-36823,05	134,00
-36706,45	49,00
-36590,40	133,00
-36474,90	124,00
-36359,95	58,00
-36245,55	211,00
-36131,68	105,00
-36018,35	45,00
-35905,55	81,00
-35793,29	-38,00
-35681,54	178,00
-35570,32	-9,00
-35459,62	101,00
-35349,43	128,00
-35239,75	54,00
-35130,58	108,00
-35021,91	37,00
-34913,74	14,00
-34806,07	149,00
-34698,89	42,00
-34592,20	75,00
-34486,00	125,00
-34380,28	29,00
-34275,04	94,00
-34170,27	-7,00
-34065,98	83,00
-33962,16	36,00
-33858,81	-6,00
-33755,92	181,00
-33653,49	224,00
-33551,52	23,00
-33450,01	193,00
-33348,94	109,00
-33248,33	-1,00
-33148,16	19,00
-33048,43	150,00
-32949,14	86,00
-32850,29	118,00
-32751,87	67,00
-32653,89	46,00
-32556,33	77,00
-32459,20	152,00
-32362,49	199,00
-32266,19	162,00
-32170,32	85,00
-32074,86	89,00
-31979,82	-48,00
-31885,18	122,00
-31790,95	109,00
-31697,12	-39,00
-31603,69	169,00
-31510,67	31,00
-31418,04	166,00
-31325,80	64,00
-31233,95	216,00
-31142,49	121,00
-31051,42	177,00
-30960,73	63,00
-30870,43	40,00
-30780,50	30,00
-30690,95	70,00
-30601,77	114,00
-30512,97	258,00
-30424,53	57,00
-30336,46	40,00
-30248,76	35,00
-30161,42	171,00
-30074,44	117,00
-29987,81	168,00
-29901,55	100,00
-29815,63	91,00
-29730,07	98,00
-29644,86	86,00
-29560,00	-14,00
-29475,48	166,00
-29391,30	108,00
-29307,47	38,00
-29223,97	113,00
-29140,81	118,00
-29057,99	205,00
-28975,50	132,00
-28893,34	265,00
-28811,51	62,00
-28730,00	158,00
-28648,82	146,00
-28567,97	141,00
-28487,43	63,00
-28407,21	115,00
-28327,32	161,00
-28247,73	73,00
-28168,46	85,00
-28089,50	112,00
-28010,85	-48,00
-27932,51	146,00
-27854,48	146,00
-27776,75	118,00
-27699,32	115,00
-27622,19	154,00
-27545,37	46,00
-27468,84	159,00
-27392,60	144,00
-27316,66	52,00
-27241,01	171,00
-27165,66	154,00
-27090,59	75,00
-27015,81	84,00
-26941,31	82,00
-26867,10	111,00
-26793,17	41,00
-26719,52	-50,00
-26646,15	49,00
-26573,06	78,00
-26500,24	140,00
-26427,70	133,00
-26355,43	60,00
-26283,43	118,00
-26211,71	-33,00
-26140,25	118,00
-26069,06	165,00
-25998,13	151,00
-25927,46	9,00
-25857,06	110,00
-25786,92	85,00
-25717,04	128,00
-25647,42	164,00
-25578,05	80,00
-25508,94	168,00
-25440,09	-14,00
-25371,48	217,00
-25303,13	203,00
-25235,02	85,00
-25167,17	62,00
-25099,56	51,00
-25032,19	125,00
-24965,07	71,00
-24898,20	100,00
-24831,56	74,00
-24765,17	128,00
-24699,01	248,00
-24633,10	36,00
-24567,41	137,00
-24501,97	152,00
-24436,75	71,00
-24371,77	142,00
-24307,03	-11,00
-24242,51	136,00
-24178,22	11,00
-24114,16	181,00
-24050,32	108,00
-23986,71	247,00
-23923,32	209,00
-23860,16	36,00
-23797,22	224,00
-23734,50	130,00
-23672,00	57,00
-23609,71	90,00
-23547,65	40,00
-23485,80	88,00
-23424,16	-30,00
-23362,74	211,00
-23301,53	106,00
-23240,54	-16,00
-23179,75	170,00
-23119,17	77,00
-23058,80	117,00
-22998,64	101,00
-22938,68	65,00
-22878,93	33,00
-22819,39	147,00
-22760,04	205,00
-22700,90	26,00
-22641,96	58,00
-22583,22	118,00
-22524,68	116,00
-22466,33	104,00
-22408,19	83,00
-22350,23	-12,00
-22292,48	68,00
-22234,92	92,00
-22177,55	105,00
-22120,37	134,00
-22063,38	67,00
-22006,58	76,00
-21949,98	165,00
-21893,56	102,00
-21837,33	-17,00
-21781,28	41,00
-21725,42	131,00
-21669,74	107,00
-21614,25	84,00
-21558,94	144,00
-21503,81	99,00
-21448,86	-55,00
-21394,10	155,00
-21339,51	71,00
-21285,10	97,00
-21230,86	115,00
-21176,81	118,00
-21122,93	82,00
-21069,22	-31,00
-21015,69	90,00
-20962,33	153,00
-20909,14	2,00
-20856,13	72,00
-20803,28	219,00
-20750,61	148,00
-20698,10	39,00
-20645,76	63,00
-20593,59	96,00
-20541,59	190,00
-20489,75	62,00
-20438,07	99,00
-20386,56	10,00
-20335,22	246,00
-20284,03	60,00
-20233,01	92,00
-20182,15	-26,00
-20131,45	61,00
-20080,91	98,00
-20030,52	47,00
-19980,30	166,00
-19930,23	104,00
-19880,32	199,00
-19830,56	143,00
-19780,96	81,00
-19731,52	165,00
-19682,23	177,00
-19633,09	64,00
-19584,10	101,00
-19535,26	94,00
-19486,58	162,00
-19438,04	173,00
-19389,66	34,00
-19341,42	86,00
-19293,33	56,00
-19245,39	129,00
-19197,60	232,00
-19149,95	31,00
-19102,45	152,00
-19055,09	106,00
-19007,87	133,00
-18960,80	216,00
-18913,87	68,00
-18867,09	58,00
-18820,44	65,00
-18773,94	118,00
-18727,57	59,00
-18681,35	102,00
-18635,26	67,00
-18589,31	152,00
-18543,50	-55,00
-18497,83	86,00
-18452,29	121,00
-18406,89	23,00
-18361,63	124,00
-18316,50	72,00
-18271,50	232,00
-18226,63	96,00
-18181,90	95,00
-18137,30	153,00
-18092,84	-55,00
-18048,50	174,00
-18004,29	8,00
-17960,22	30,00
-17916,27	269,00
-17872,45	81,00
-17828,76	87,00
-17785,20	98,00
-17741,77	165,00
-17698,46	131,00
-17655,28	108,00
-17612,22	100,00
-17569,29	86,00
-17526,48	96,00
-17483,79	99,00
-17441,23	29,00
-17398,79	95,00
-17356,48	153,00
-17314,28	103,00
-17272,21	99,00
-17230,26	111,00
-17188,42	207,00
-17146,71	22,00
-17105,12	47,00
-17063,64	-20,00
-17022,28	199,00
-16981,04	165,00
-16939,92	106,00
-16898,91	137,00
-16858,02	216,00
-16817,25	171,00
-16776,59	110,00
-16736,04	32,00
-16695,61	-82,00
-16655,29	109,00
-16615,09	221,00
-16574,99	157,00
-16535,01	139,00
-16495,15	71,00
-16455,39	-26,00
-16415,74	14,00
-16376,21	52,00
-16336,78	107,00
-16297,46	26,00
-16258,26	86,00
-16219,16	91,00
-16180,17	260,00
-16141,28	125,00
-16102,51	93,00
-16063,84	32,00
-16025,27	85,00
-15986,82	167,00
-15948,46	77,00
-15910,22	41,00
-15872,07	162,00
-15834,04	79,00
-15796,10	59,00
-15758,27	270,00
-15720,54	63,00
-15682,91	121,00
-15645,39	35,00
-15607,97	11,00
-15570,64	95,00
-15533,42	13,00
-15496,30	56,00
-15459,28	114,00
-15422,36	196,00
-15385,54	-45,00
-15348,82	158,00
-15312,19	10,00
-15275,66	30,00
-15239,23	135,00
-15202,90	25,00
-15166,67	17,00
-15130,53	62,00
-15094,48	65,00
-15058,54	125,00
-15022,68	100,00
-14986,93	162,00
-14951,26	173,00
-14915,69	84,00
-14880,22	176,00
-14844,84	9,00
-14809,55	123,00
-14774,35	120,00
-14739,25	39,00
-14704,24	3,00
-14669,32	5,00
-14634,49	237,00
-14599,75	127,00
-14565,10	50,00
-14530,55	70,00
-14496,08	185,00
-14461,70	145,00
-14427,41	168,00
-14393,21	141,00
-14359,10	18,00
-14325,07	-131,00
-14291,14	35,00
-14257,29	89,00
-14223,52	67,00
-14189,85	193,00
-14156,26	101,00
-14122,76	126,00
-14089,34	138,00
-14056,01	108,00
-14022,76	175,00
-13989,60	46,00
-13956,52	98,00
-13923,53	-88,00
-13890,62	147,00
-13857,79	-11,00
-13825,05	72,00
-13792,39	96,00
-13759,81	104,00
-13727,31	110,00
-13694,90	51,00
-13662,57	174,00
-13630,31	69,00
-13598,14	41,00
-13566,05	94,00
-13534,05	180,00
-13502,12	-56,00
-13470,27	114,00
-13438,50	96,00
-13406,80	89,00
-13375,19	164,00
-13343,66	39,00
-13312,20	77,00
-13280,83	25,00
-13249,53	63,00
-13218,30	135,00
-13187,16	74,00
-13156,09	102,00
-13125,10	172,00
-13094,18	182,00
-13063,34	36,00
-13032,58	108,00
-13001,89	140,00
-12971,28	55,00
-12940,74	180,00
-12910,27	115,00
-12879,88	96,00
-12849,57	53,00
-12819,33	73,00
-12789,16	82,00
-12759,06	140,00
-12729,04	174,00
-12699,09	326,00
-12669,21	74,00
-12639,41	44,00
-12609,68	151,00
-12580,02	73,00
-12550,43	92,00
-12520,91	56,00
-12491,46	192,00
-12462,08	71,00
-12432,77	67,00
-12403,54	48,00
-12374,37	158,00
-12345,27	49,00
-12316,24	53,00
-12287,29	83,00
-12258,40	154,00
-12229,57	122,00
-12200,82	85,00
-12172,14	58,00
-12143,52	4,00
-12114,97	159,00
-12086,49	82,00
-12058,07	20,00
-12029,73	113,00
-12001,44	89,00
-11973,23	60,00
-11945,08	23,00
-11917,00	178,00
-11888,98	71,00
-11861,03	176,00
-11833,15	68,00
-11805,32	129,00
-11777,57	134,00
-11749,88	170,00
-11722,25	42,00
-11694,69	186,00
-11667,19	101,00
-11639,75	117,00
-11612,38	64,00
-11585,07	138,00
-11557,83	129,00
-11530,65	-14,00
-11503,53	32,00
-11476,47	174,00
-11449,48	154,00
-11422,54	41,00
-11395,67	32,00
-11368,86	49,00
-11342,11	122,00
-11315,43	115,00
-11288,80	96,00
-11262,23	181,00
-11235,73	25,00
-11209,28	48,00
-11182,90	119,00
-11156,57	66,00
-11130,31	144,00
-11104,10	-49,00
-11077,96	109,00
-11051,87	171,00
-11025,84	136,00
-10999,87	181,00
-10973,96	86,00
-10948,11	75,00
-10922,31	88,00
-10896,58	75,00
-10870,90	135,00
-10845,28	152,00
-10819,71	61,00
-10794,20	184,00
-10768,75	101,00
-10743,36	57,00
-10718,02	115,00
-10692,74	61,00
-10667,52	138,00
-10642,35	116,00
-10617,24	14,00
-10592,18	132,00
-10567,18	232,00
-10542,23	109,00
-10517,34	259,00
-10492,51	100,00
-10467,72	206,00
-10443,00	142,00
-10418,32	106,00
-10393,70	66,00
-10369,14	137,00
-10344,63	48,00
-10320,17	266,00
-10295,77	158,00
-10271,42	177,00
-10247,12	129,00
-10222,88	92,00
-10198,68	156,00
-10174,54	148,00
-10150,46	132,00
-10126,42	233,00
-10102,44	101,00
-10078,51	223,00
-10054,63	151,00
-10030,80	183,00
-10007,03	262,00
-9983,30	89,00
-9959,63	53,00
-9936,01	179,00
-9912,44	227,00
-9888,92	98,00
-9865,44	161,00
-9842,02	87,00
-9818,65	317,00
-9795,33	229,00
-9772,06	127,00
-9748,84	221,00
-9725,67	171,00
-9702,55	162,00
-9679,47	252,00
-9656,45	292,00
-9633,47	237,00
-9610,55	479,00
-9587,67	104,00
-9564,84	377,00
-9542,06	296,00
-9519,32	314,00
-9496,64	429,00
-9474,00	457,00
-9451,41	465,00
-9428,87	345,00
-9406,37	410,00
-9383,92	422,00
-9361,52	251,00
-9339,17	200,00
-9316,86	368,00
-9294,60	533,00
-9272,38	597,00
-9250,21	588,00
-9228,09	613,00
-9206,01	648,00
-9183,98	578,00
-9162,00	358,00
-9140,06	309,00
-9118,16	539,00
-9096,31	432,00
-9074,51	547,00
-9052,75	566,00
-9031,04	634,00
-9009,37	439,00
-8987,74	280,00
-8966,16	310,00
-8944,63	71,00
-8923,14	178,00
-8901,69	223,00
-8880,29	384,00
-8858,93	434,00
-8837,61	468,00
-8816,34	670,00
-8795,11	653,00
-8773,92	601,00
-8752,78	477,00
-8731,68	492,00
-8710,62	321,00
-8689,61	568,00
-8668,63	537,00
-8647,70	584,00
-8626,82	390,00
-8605,97	588,00
-8585,17	523,00
-8564,41	345,00
-8543,69	452,00
-8523,01	344,00
-8502,37	428,00
-8481,78	461,00
-8461,23	477,00
-8440,71	530,00
-8420,24	510,00
-8399,81	559,00
-8379,42	681,00
-8359,08	484,00
-8338,77	433,00
-8318,50	406,00
-8298,27	525,00
-8278,09	434,00
-8257,94	459,00
-8237,83	473,00
-8217,76	566,00
-8197,74	566,00
-8177,75	546,00
-8157,80	617,00
-8137,89	590,00
-8118,02	584,00
-8098,19	450,00
-8078,40	499,00
-8058,65	480,00
-8038,93	594,00
-8019,26	526,00
-7999,62	540,00
-7980,02	394,00
-7960,46	432,00
-7940,94	473,00
-7921,46	427,00
-7902,01	489,00
-7882,60	411,00
-7863,23	543,00
-7843,90	393,00
-7824,61	439,00
-7805,35	494,00
-7786,13	603,00
-7766,95	549,00
-7747,80	483,00
-7728,69	490,00
-7709,62	459,00
-7690,59	447,00
-7671,59	561,00
-7652,63	546,00
-7633,70	653,00
-7614,81	488,00
-7595,96	517,00
-7577,15	421,00
-7558,37	433,00
-7539,62	368,00
-7520,91	561,00
-7502,24	421,00
-7483,60	538,00
-7465,00	491,00
-7446,44	394,00
-7427,91	336,00
-7409,41	333,00
-7390,95	225,00
-7372,53	266,00
-7354,14	220,00
-7335,78	82,00
-7317,46	363,00
-7299,18	289,00
-7280,92	376,00
-7262,71	512,00
-7244,52	434,00
-7226,38	501,00
-7208,26	550,00
-7190,18	540,00
-7172,14	486,00
-7154,12	300,00
-7136,15	352,00
-7118,20	452,00
-7100,29	361,00
-7082,41	431,00
-7064,57	449,00
-7046,76	344,00
-7028,98	284,00
-7011,24	268,00
-6993,53	130,00
-6975,85	34,00
-6958,20	185,00
-6940,59	148,00
-6923,01	219,00
-6905,46	174,00
-6887,94	352,00
-6870,46	-2273,00
-6853,01	464,00
-6835,59	320,00
-6818,21	276,00
-6800,85	338,00
-6783,53	192,00
-6766,24	93,00
-6748,98	-52,00
-6731,76	56,00
-6714,56	85,00
-6697,40	142,00
-6680,26	-1,00
-6663,16	210,00
-6646,09	204,00
-6629,05	243,00
-6612,05	269,00
-6595,07	369,00
-6578,13	236,00
-6561,21	73,00
-6544,33	145,00
-6527,47	123,00
-6510,65	-25,00
-6493,86	5,00
-6477,10	-4,00
-6460,36	20,00
-6443,66	99,00
-6426,99	105,00
-6410,35	66,00
-6393,74	222,00
-6377,16	172,00
-6360,61	63,00
-6344,09	151,00
-6327,59	178,00
-6311,13	174,00
-6294,70	106,00
-6278,29	338,00
-6261,92	372,00
-6245,58	340,00
-6229,26	313,00
-6212,97	265,00
-6196,72	192,00
-6180,49	57,00
-6164,29	58,00
-6148,12	149,00
-6131,98	64,00
-6115,86	156,00
-6099,78	0,00
-6083,72	-30,00
-6067,69	-55,00
-6051,69	-28,00
-6035,72	162,00
-6019,78	87,00
-6003,87	117,00
-5987,98	160,00
-5972,12	321,00
-5956,29	160,00
-5940,49	274,00
-5924,71	154,00
-5908,96	-27,00
-5893,24	-9,00
-5877,55	169,00
-5861,89	55,00
-5846,25	74,00
-5830,64	-42,00
-5815,05	57,00
-5799,50	86,00
-5783,97	95,00
-5768,47	210,00
-5752,99	171,00
-5737,55	203,00
-5722,12	212,00
-5706,73	243,00
-5691,36	228,00
-5676,02	127,00
-5660,71	81,00
-5645,42	47,00
-5630,16	8,00
-5614,92	130,00
-5599,71	109,00
-5584,53	-14,00
-5569,37	107,00
-5554,24	264,00
-5539,14	80,00
-5524,06	92,00
-5509,01	167,00
-5493,98	63,00
-5478,98	95,00
-5464,00	66,00
-5449,05	32,00
-5434,13	111,00
-5419,23	74,00
-5404,36	66,00
-5389,51	122,00
-5374,69	108,00
-5359,89	126,00
-5345,12	235,00
-5330,37	285,00
-5315,65	221,00
-5300,95	182,00
-5286,28	36,00
-5271,63	150,00
-5257,01	110,00
-5242,41	249,00
-5227,84	80,00
-5213,29	5,00
-5198,76	8,00
-5184,26	80,00
-5169,79	124,00
-5155,33	69,00
-5140,91	95,00
-5126,51	134,00
-5112,13	139,00
-5097,77	133,00
-5083,44	70,00
-5069,13	11,00
-5054,85	109,00
-5040,59	130,00
-5026,36	64,00
-5012,15	155,00
-4997,96	87,00
-4983,80	-2,00
-4969,66	69,00
-4955,54	172,00
-4941,44	247,00
-4927,37	131,00
-4913,33	301,00
-4899,30	307,00
-4885,30	232,00
-4871,33	263,00
-4857,37	228,00
-4843,44	196,00
-4829,53	67,00
-4815,65	75,00
-4801,79	33,00
-4787,95	81,00
-4774,13	223,00
-4760,34	116,00
-4746,56	126,00
-4732,82	14,00
-4719,09	179,00
-4705,38	205,00
-4691,70	258,00
-4678,04	119,00
-4664,41	135,00
-4650,79	122,00
-4637,20	141,00
-4623,63	114,00
-4610,08	80,00
-4596,56	107,00
-4583,05	130,00
-4569,57	95,00
-4556,11	60,00
-4542,67	42,00
-4529,25	138,00
-4515,86	110,00
-4502,49	154,00
-4489,13	204,00
-4475,80	209,00
-4462,49	170,00
-4449,21	248,00
-4435,94	85,00
-4422,70	134,00
-4409,47	200,00
-4396,27	117,00
-4383,09	149,00
-4369,93	91,00
-4356,79	126,00
-4343,67	2,00
-4330,58	53,00
-4317,50	55,00
-4304,45	46,00
-4291,41	62,00
-4278,40	-35,00
-4265,41	81,00
-4252,44	70,00
-4239,49	206,00
-4226,55	154,00
-4213,65	150,00
-4200,76	134,00
-4187,89	33,00
-4175,04	67,00
-4162,21	135,00
-4149,40	98,00
-4136,61	202,00
-4123,85	198,00
-4111,10	70,00
-4098,37	49,00
-4085,66	283,00
-4072,98	242,00
-4060,31	62,00
-4047,66	191,00
-4035,04	133,00
-4022,43	165,00
-4009,84	176,00
-3997,27	14,00
-3984,72	43,00
-3972,19	54,00
-3959,69	26,00
-3947,20	73,00
-3934,73	-54,00
-3922,27	207,00
-3909,84	158,00
-3897,43	194,00
-3885,04	71,00
-3872,67	-10,00
-3860,31	-30,00
-3847,98	220,00
-3835,66	8,00
-3823,36	39,00
-3811,09	160,00
-3798,83	127,00
-3786,59	124,00
-3774,37	135,00
-3762,17	45,00
-3749,98	122,00
-3737,82	72,00
-3725,67	83,00
-3713,55	64,00
-3701,44	118,00
-3689,35	24,00
-3677,28	51,00
-3665,22	-13,00
-3653,19	2,00
-3641,17	98,00
-3629,18	182,00
-3617,20	7,00
-3605,24	129,00
-3593,30	5,00
-3581,37	70,00
-3569,47	97,00
-3557,58	-20,00
-3545,71	150,00
-3533,86	58,00
-3522,02	-23,00
-3510,21	79,00
-3498,41	-64,00
-3486,63	127,00
-3474,87	86,00
-3463,12	233,00
-3451,40	156,00
-3439,69	102,00
-3428,00	187,00
-3416,33	94,00
-3404,67	84,00
-3393,03	156,00
-3381,41	60,00
-3369,81	29,00
-3358,22	109,00
-3346,66	215,00
-3335,10	106,00
-3323,57	218,00
-3312,06	105,00
-3300,56	29,00
-3289,08	71,00
-3277,61	104,00
-3266,16	189,00
-3254,73	128,00
-3243,32	-32,00
-3231,92	90,00
-3220,55	103,00
-3209,18	65,00
-3197,84	65,00
-3186,51	102,00
-3175,20	192,00
-3163,90	98,00
-3152,63	97,00
-3141,36	100,00
-3130,12	142,00
-3118,89	62,00
-3107,68	89,00
-3096,49	128,00
-3085,31	51,00
-3074,15	133,00
-3063,00	9,00
-3051,87	159,00
-3040,76	56,00
-3029,67	-2,00
-3018,59	29,00
-3007,52	75,00
-2996,48	108,00
-2985,44	149,00
-2974,43	53,00
-2963,43	79,00
-2952,45	176,00
-2941,48	58,00
-2930,53	-28,00
-2919,60	78,00
-2908,68	63,00
-2897,78	234,00
-2886,89	181,00
-2876,02	183,00
-2865,17	125,00
-2854,33	242,00
-2843,50	128,00
-2832,70	160,00
-2821,90	63,00
-2811,13	126,00
-2800,37	79,00
-2789,62	137,00
-2778,89	181,00
-2768,18	135,00
-2757,48	66,00
-2746,80	34,00
-2736,13	97,00
-2725,48	114,00
-2714,84	-52,00
-2704,22	142,00
-2693,61	19,00
-2683,02	-11,00
-2672,45	162,00
-2661,89	115,00
-2651,34	-10,00
-2640,81	27,00
-2630,30	239,00
-2619,80	154,00
-2609,31	108,00
-2598,84	-23,00
-2588,39	69,00
-2577,95	116,00
-2567,52	26,00
-2557,11	87,00
-2546,71	90,00
-2536,33	219,00
-2525,97	4,00
-2515,62	114,00
-2505,28	64,00
-2494,96	56,00
-2484,65	53,00
-2474,36	194,00
-2464,08	135,00
-2453,82	133,00
-2443,57	159,00
-2433,33	-10,00
-2423,11	159,00
-2412,91	-76,00
-2402,72	258,00
-2392,54	186,00
-2382,38	77,00
-2372,23	63,00
-2362,09	-4074,00
-2351,97	234,00
-2341,87	-16,00
-2331,78	126,00
-2321,70	-53,00
-2311,64	152,00
-2301,59	176,00
-2291,55	38,00
-2281,53	69,00
-2271,53	-9,00
-2261,53	154,00
-2251,55	41,00
-2241,59	152,00
-2231,64	3,00
-2221,70	124,00
-2211,78	147,00
-2201,87	124,00
-2191,97	117,00
-2182,09	155,00
-2172,22	231,00
-2162,37	85,00
-2152,53	175,00
-2142,70	75,00
-2132,89	85,00
-2123,09	-22,00
-2113,30	111,00
-2103,53	222,00
-2093,77	104,00
-2084,02	54,00
-2074,29	73,00
-2064,57	111,00
-2054,86	39,00
-2045,17	77,00
-2035,49	194,00
-2025,82	69,00
-2016,17	12,00
-2006,53	84,00
-1996,91	204,00
-1987,29	75,00
-1977,69	144,00
-1968,11	39,00
-1958,53	90,00
-1948,97	102,00
-1939,42	103,00
-1929,89	97,00
-1920,37	104,00
-1910,86	165,00
-1901,36	86,00
-1891,88	96,00
-1882,41	138,00
-1872,95	101,00
-1863,51	37,00
-1854,08	172,00
-1844,66	132,00
-1835,26	226,00
-1825,86	189,00
-1816,48	62,00
-1807,11	84,00
-1797,76	105,00
-1788,42	74,00
-1779,09	135,00
-1769,77	62,00
-1760,47	68,00
-1751,17	128,00
-1741,89	80,00
-1732,63	140,00
-1723,37	281,00
-1714,13	240,00
-1704,90	-91,00
-1695,68	132,00
-1686,48	73,00
-1677,29	183,00
-1668,11	154,00
-1658,94	176,00
-1649,78	50,00
-1640,64	198,00
-1631,51	40,00
-1622,39	122,00
-1613,28	61,00
-1604,19	-8,00
-1595,10	204,00
-1586,03	90,00
-1576,97	19,00
-1567,93	90,00
-1558,89	42,00
-1549,87	-24,00
-1540,86	91,00
-1531,86	164,00
-1522,87	72,00
-1513,90	233,00
-1504,93	-85,00
-1495,98	177,00
-1487,04	251,00
-1478,12	78,00
-1469,20	62,00
-1460,30	97,00
-1451,40	148,00
-1442,52	212,00
-1433,65	135,00
-1424,80	132,00
-1415,95	63,00
-1407,12	40,00
-1398,30	200,00
-1389,48	121,00
-1380,69	130,00
-1371,90	-43,00
-1363,12	118,00
-1354,36	-52,00
-1345,60	-11,00
-1336,86	7,00
-1328,13	189,00
-1319,41	58,00
-1310,70	173,00
-1302,01	102,00
-1293,32	93,00
-1284,65	146,00
-1275,99	75,00
-1267,33	102,00
-1258,69	128,00
-1250,06	123,00
-1241,45	96,00
-1232,84	112,00
-1224,25	-2,00
-1215,66	32,00
-1207,09	64,00
-1198,53	77,00
-1189,97	114,00
-1181,43	105,00
-1172,91	131,00
-1164,39	114,00
-1155,88	128,00
-1147,38	93,00
-1138,90	52,00
-1130,43	50,00
-1121,96	178,00
-1113,51	178,00
-1105,07	110,00
-1096,64	72,00
-1088,22	214,00
-1079,81	186,00
-1071,41	86,00
-1063,02	168,00
-1054,65	137,00
-1046,28	126,00
-1037,92	107,00
-1029,58	135,00
-1021,24	162,00
-1012,92	137,00
-1004,61	-29,00
-996,30	242,00
-988,01	40,00
-979,73	77,00
-971,46	197,00
-963,20	4,00
-954,95	9,00
-946,71	92,00
-938,48	13,00
-930,26	-12,00
-922,06	77,00
-913,86	127,00
-905,67	51,00
-897,49	93,00
-889,33	63,00
-881,17	62,00
-873,02	55,00
-864,89	130,00
-856,76	255,00
-848,65	164,00
-840,54	164,00
-832,45	-9,00
-824,36	139,00
-816,29	-31,00
-808,22	151,00
-800,17	-28,00
-792,12	172,00
-784,09	77,00
-776,06	17,00
-768,05	166,00
-760,04	25,00
-752,05	272,00
-744,07	16,00
-736,09	93,00
-728,13	47,00
-720,17	46,00
-712,23	79,00
-704,29	91,00
-696,37	118,00
-688,45	172,00
-680,55	186,00
-672,65	134,00
-664,77	141,00
-656,89	89,00
-649,03	174,00
-641,17	211,00
-633,32	82,00
-625,49	149,00
-617,66	89,00
-609,84	105,00
-602,03	150,00
-594,23	89,00
-586,45	121,00
-578,67	65,00
-570,90	158,00
-563,14	113,00
-555,39	131,00
-547,65	168,00
-539,91	140,00
-532,19	96,00
-524,48	60,00
-516,78	158,00
-509,08	129,00
-501,40	238,00
-493,72	74,00
-486,06	62,00
-478,40	30,00
-470,76	124,00
-463,12	180,00
-455,49	104,00
-447,87	141,00
-440,26	113,00
-432,66	63,00
-425,07	40,00
-417,49	187,00
-409,92	185,00
-402,35	191,00
-394,80	64,00
-387,25	160,00
-379,72	133,00
-372,19	148,00
-364,67	246,00
-357,17	188,00
-349,67	110,00
-342,18	195,00
-334,69	63,00
-327,22	61,00
-319,76	104,00
-312,30	146,00
-304,86	223,00
-297,42	106,00
-290,00	71,00
-282,58	242,00
-275,17	101,00
-267,77	162,00
-260,37	184,00
-252,99	170,00
-245,62	117,00
-238,25	163,00
-230,90	152,00
-223,55	31,00
-216,21	171,00
-208,88	203,00
-201,56	217,00
-194,25	193,00
-186,94	221,00
-179,65	260,00
-172,36	344,00
-165,08	335,00
-157,81	148,00
-150,55	313,00
-143,30	335,00
-136,06	454,00
-128,82	471,00
-121,60	512,00
-114,38	449,00
-107,17	485,00
-99,97	671,00
-92,78	629,00
-85,60	723,00
-78,42	949,00
-71,25	1007,00
-64,10	1032,00
-56,95	1331,00
-49,81	1541,00
-42,67	1834,00
-35,55	2247,00
-28,43	3089,00
-21,33	5054,00
-14,23	16847,00
-7,14	55164,00
-0,05	54791,00
7,02	54542,00
14,09	54846,00
21,14	15254,00
28,19	6466,00
35,23	3887,00
42,27	3096,00
49,29	2461,00
56,31	2092,00
63,32	1848,00
70,32	1421,00
77,31	1361,00
84,29	1012,00
91,27	1036,00
98,23	898,00
105,19	915,00
112,14	1036,00
119,09	1602,00
126,02	2341,00
132,95	2768,00
139,87	3000,00
146,78	3053,00
153,68	2840,00
160,58	2942,00
167,46	2792,00
174,34	2836,00
181,21	2944,00
188,08	2750,00
194,93	2732,00
201,78	2634,00
208,62	2679,00
215,45	2713,00
222,27	2771,00
229,09	2778,00
235,90	2766,00
242,70	2658,00
249,49	2611,00
256,27	2595,00
263,05	2608,00
269,82	2633,00
276,58	2574,00
283,33	2604,00
290,08	2564,00
296,82	2567,00
303,55	2469,00
310,27	2349,00
316,98	2431,00
323,69	2455,00
330,39	2352,00
337,08	2376,00
343,76	2442,00
350,44	2304,00
357,11	2302,00
363,77	2335,00
370,42	2288,00
377,07	2356,00
383,71	2487,00
390,34	2287,00
396,96	2344,00
403,58	2301,00
410,19	2426,00
416,79	2306,00
423,38	2216,00
429,97	2306,00
436,55	2253,00
443,12	2224,00
449,68	2130,00
456,24	2124,00
462,79	2073,00
469,33	2090,00
475,86	2061,00
482,39	2075,00
488,91	2037,00
495,42	2080,00
501,93	2074,00
508,42	1979,00
514,91	2043,00
521,40	1933,00
527,87	1918,00
534,34	1907,00
540,80	2034,00
547,25	1744,00
553,70	1923,00
560,14	1816,00
566,57	1902,00
573,00	1901,00
579,41	1893,00
585,83	1720,00
592,23	1826,00
598,62	1731,00
605,01	1762,00
611,40	1894,00
617,77	1746,00
624,14	1781,00
630,50	1817,00
636,85	1573,00
643,20	1776,00
649,54	1643,00
655,87	1766,00
662,20	1614,00
668,52	1557,00
674,83	1623,00
681,13	1600,00
687,43	1469,00
693,72	1471,00
700,00	1542,00
706,28	1651,00
712,55	1674,00
718,81	1662,00
725,07	1582,00
731,32	1535,00
737,56	1539,00
743,79	1557,00
750,02	1638,00
756,24	1586,00
762,46	1480,00
768,67	1546,00
774,87	1578,00
781,06	1508,00
787,25	1497,00
793,43	1532,00
799,60	1466,00
805,77	1348,00
811,93	1640,00
818,08	1542,00
824,23	1552,00
830,37	1507,00
836,50	1541,00
842,63	1514,00
848,75	1489,00
854,87	1435,00
860,97	1552,00
867,07	1586,00
873,17	1428,00
879,25	1404,00
885,33	1389,00
891,41	1478,00
897,47	1354,00
903,53	1463,00
909,59	1489,00
915,63	1477,00
921,67	1361,00
927,71	1424,00
933,74	1409,00
939,76	1340,00
945,77	1212,00
951,78	1269,00
957,78	1273,00
963,78	1265,00
969,77	1275,00
975,75	1293,00
981,72	1310,00
987,69	1413,00
993,66	1335,00
999,61	1254,00
1005,56	1321,00
1011,51	1444,00
1017,44	1291,00
1023,37	1402,00
1029,30	1297,00
1035,22	1386,00
1041,13	1380,00
1047,03	1354,00
1052,93	1426,00
1058,83	1608,00
1064,71	1611,00
1070,59	1554,00
1076,47	1333,00
1082,33	1438,00
1088,20	1316,00
1094,05	1333,00
1099,90	1282,00
1105,74	1261,00
1111,58	1324,00
1117,41	1317,00
1123,23	1590,00
1129,05	1639,00
1134,86	1544,00
1140,67	1370,00
1146,47	1377,00
1152,26	1343,00
1158,05	1192,00
1163,83	1336,00
1169,60	1314,00
1175,37	1237,00
1181,13	1256,00
1186,89	1218,00
1192,64	1206,00
1198,38	1127,00
1204,12	1128,00
1209,85	1136,00
1215,58	1259,00
1221,30	1216,00
1227,02	1250,00
1232,72	1299,00
1238,43	1120,00
1244,12	1280,00
1249,81	1269,00
1255,50	1341,00
1261,17	1250,00
1266,85	1239,00
1272,51	1309,00
1278,17	1287,00
1283,83	1356,00
1289,47	1644,00
1295,12	1918,00
1300,75	1742,00
1306,38	1527,00
1312,01	1478,00
1317,63	1378,00
1323,24	1320,00
1328,85	1353,00
1334,45	1341,00
1340,04	1287,00
1345,63	1329,00
1351,22	1287,00
1356,80	1288,00
1362,37	1211,00
1367,93	1290,00
1373,49	1366,00
1379,05	1215,00
1384,60	1358,00
1390,14	1289,00
1395,68	1209,00
1401,21	1245,00
1406,74	1287,00
1412,26	1428,00
1417,77	1460,00
1423,28	1435,00
1428,78	1587,00
1434,28	1694,00
1439,77	1944,00
1445,26	1840,00
1450,74	1879,00
1456,22	1692,00
1461,68	1722,00
1467,15	1538,00
1472,61	1506,00
1478,06	1389,00
1483,51	1446,00
1488,95	1233,00
1494,38	1211,00
1499,81	1218,00
1505,24	1101,00
1510,65	1126,00
1516,07	1130,00
1521,48	1125,00
1526,88	1091,00
1532,27	1056,00
1537,67	1129,00
1543,05	1211,00
1548,43	1090,00
1553,81	1195,00
1559,18	1087,00
1564,54	982,00
1569,90	1148,00
1575,25	1080,00
1580,60	1190,00
1585,94	996,00
1591,28	1080,00
1596,61	996,00
1601,93	1053,00
1607,25	1095,00
1612,57	1117,00
1617,88	1130,00
1623,18	1085,00
1628,48	1009,00
1633,77	937,00
1639,06	908,00
1644,34	948,00
1649,62	1026,00
1654,89	1113,00
1660,16	1001,00
1665,42	1009,00
1670,67	867,00
1675,92	959,00
1681,17	857,00
1686,41	961,00
1691,64	832,00
1696,87	871,00
1702,10	910,00
1707,32	879,00
1712,53	959,00
1717,74	906,00
1722,94	782,00
1728,14	867,00
1733,33	920,00
1738,52	759,00
1743,70	936,00
1748,88	881,00
1754,05	931,00
1759,22	897,00
1764,38	854,00
1769,53	820,00
1774,69	838,00
1779,83	929,00
1784,97	758,00
1790,11	716,00
1795,24	894,00
1800,36	856,00
1805,48	708,00
1810,60	859,00
1815,71	674,00
1820,82	793,00
1825,92	769,00
1831,01	755,00
1836,10	680,00
1841,19	829,00
1846,26	850,00
1851,34	777,00
1856,41	779,00
1861,47	774,00
1866,53	828,00
1871,59	670,00
1876,64	690,00
1881,68	580,00
1886,72	670,00
1891,76	742,00
1896,79	816,00
1901,81	732,00
1906,83	712,00
1911,85	668,00
1916,86	678,00
1921,86	764,00
1926,86	656,00
1931,86	723,00
1936,85	606,00
1941,83	714,00
1946,81	561,00
1951,79	595,00
1956,76	583,00
1961,72	520,00
1966,68	669,00
1971,64	562,00
1976,59	694,00
1981,54	568,00
1986,48	560,00
1991,42	663,00
1996,35	512,00
2001,27	516,00
2006,20	586,00
2011,11	620,00
2016,03	638,00
2020,93	551,00
2025,84	600,00
2030,73	548,00
2035,63	548,00
2040,52	600,00
2045,40	569,00
2050,28	536,00
2055,15	425,00
2060,02	558,00
2064,89	558,00
2069,75	541,00
2074,60	482,00
2079,46	557,00
2084,30	487,00
2089,14	551,00
2093,98	515,00
2098,81	461,00
2103,64	553,00
2108,46	497,00
2113,28	577,00
2118,09	429,00
2122,90	541,00
2127,70	473,00
2132,50	494,00
2137,30	444,00
2142,09	487,00
2146,87	423,00
2151,66	492,00
2156,43	428,00
2161,20	388,00
2165,97	493,00
2170,73	495,00
2175,49	494,00
2180,24	484,00
2184,99	562,00
2189,74	497,00
2194,48	425,00
2199,21	589,00
2203,94	415,00
2208,67	358,00
2213,39	491,00
2218,11	386,00
2222,82	534,00
2227,53	403,00
2232,23	381,00
2236,93	504,00
2241,63	447,00
2246,32	449,00
2251,00	451,00
2255,68	511,00
2260,36	362,00
2265,03	487,00
2269,70	350,00
2274,36	396,00
2279,02	480,00
2283,68	388,00
2288,33	296,00
2292,97	387,00
2297,61	426,00
2302,25	459,00
2306,88	442,00
2311,51	432,00
2316,14	370,00
2320,75	456,00
2325,37	370,00
2329,98	526,00
2334,59	382,00
2339,19	380,00
2343,79	340,00
2348,38	389,00
2352,97	282,00
2357,55	273,00
2362,13	434,00
2366,71	410,00
2371,28	372,00
2375,85	355,00
2380,41	280,00
2384,97	331,00
2389,52	301,00
2394,07	292,00
2398,62	379,00
2403,16	370,00
2407,70	390,00
2412,23	490,00
2416,76	299,00
2421,29	429,00
2425,81	345,00
2430,32	387,00
2434,84	352,00
2439,34	399,00
2443,85	297,00
2448,35	325,00
2452,84	208,00
2457,33	281,00
2461,82	420,00
2466,30	356,00
2470,78	372,00
2475,25	271,00
2479,72	363,00
2484,19	299,00
2488,65	363,00
2493,11	282,00
2497,56	323,00
2502,01	236,00
2506,46	384,00
2510,90	270,00
2515,34	411,00
2519,77	354,00
2524,20	370,00
2528,62	248,00
2533,04	380,00
2537,46	285,00
2541,87	374,00
2546,28	250,00
2550,68	375,00
2555,08	367,00
2559,48	342,00
2563,87	265,00
2568,26	153,00
2572,64	407,00
2577,02	405,00
2581,40	324,00
2585,77	315,00
2590,14	253,00
2594,50	169,00
2598,86	294,00
2603,22	259,00
2607,57	226,00
2611,92	362,00
2616,26	209,00
2620,60	317,00
2624,94	262,00
2629,27	417,00
2633,60	204,00
2637,92	308,00
2642,24	338,00
2646,56	292,00
2650,87	178,00
2655,18	346,00
2659,48	178,00
2663,78	289,00
2668,08	340,00
2672,37	472,00
2676,66	172,00
2680,95	269,00
2685,23	271,00
2689,50	327,00
2693,78	386,00
2698,05	316,00
2702,31	254,00
2706,57	271,00
2710,83	407,00
2715,08	436,00
2719,33	426,00
2723,58	390,00
2727,82	449,00
2732,06	311,00
2736,29	384,00
2740,53	299,00
2744,75	379,00
2748,97	339,00
2753,19	370,00
2757,41	294,00
2761,62	298,00
2765,83	387,00
2770,03	201,00
2774,23	235,00
2778,43	366,00
2782,62	350,00
2786,81	322,00
2791,00	246,00
2795,18	378,00
2799,35	227,00
2803,53	465,00
2807,70	399,00
2811,86	360,00
2816,03	513,00
2820,19	371,00
2824,34	318,00
2828,49	623,00
2832,64	577,00
2836,78	709,00
2840,92	854,00
2845,06	882,00
2849,19	988,00
2853,32	979,00
2857,45	1083,00
2861,57	1117,00
2865,69	1052,00
2869,80	1043,00
2873,91	1031,00
2878,02	1138,00
2882,12	1100,00
2886,22	1057,00
2890,32	1161,00
2894,41	1103,00
2898,50	921,00
2902,58	925,00
2906,67	857,00
2910,74	794,00
2914,82	693,00
2918,89	775,00
2922,96	718,00
2927,02	642,00
2931,08	606,00
2935,13	627,00
2939,19	583,00
2943,24	517,00
2947,28	482,00
2951,32	305,00
2955,36	501,00
2959,40	471,00
2963,43	375,00
2967,46	316,00
2971,48	408,00
2975,50	313,00
2979,52	266,00
2983,53	306,00
2987,54	350,00
2991,55	309,00
2995,55	288,00
2999,55	156,00
3003,54	320,00
3007,54	185,00
3011,53	187,00
3015,51	115,00
3019,49	268,00
3023,47	283,00
3027,45	288,00
3031,42	189,00
3035,39	149,00
3039,35	207,00
3043,31	171,00
3047,27	203,00
3051,22	187,00
3055,17	171,00
3059,12	88,00
3063,06	122,00
3067,00	168,00
3070,94	136,00
3074,87	132,00
3078,80	299,00
3082,73	247,00
3086,65	161,00
3090,57	142,00
3094,49	163,00
3098,40	169,00
3102,31	227,00
3106,22	127,00
3110,12	92,00
3114,02	275,00
3117,92	194,00
3121,81	87,00
3125,70	170,00
3129,58	107,00
3133,47	141,00
3137,34	162,00
3141,22	93,00
3145,09	163,00
3148,96	174,00
3152,83	192,00
3156,69	85,00
3160,55	251,00
3164,40	66,00
3168,26	119,00
3172,10	195,00
3175,95	255,00
3179,79	151,00
3183,63	64,00
3187,47	291,00
3191,30	247,00
3195,13	129,00
3198,95	125,00
3202,78	92,00
3206,60	122,00
3210,41	122,00
3214,23	207,00
3218,03	98,00
3221,84	149,00
3225,64	23,00
3229,44	140,00
3233,24	304,00
3237,03	277,00
3240,82	82,00
3244,61	65,00
3248,39	202,00
3252,17	186,00
3255,95	114,00
3259,72	246,00
3263,49	126,00
3267,26	165,00
3271,03	133,00
3274,79	141,00
3278,54	238,00
3282,30	196,00
3286,05	244,00
3289,80	154,00
3293,54	73,00
3297,29	195,00
3301,02	147,00
3304,76	125,00
3308,49	86,00
3312,22	33,00
3315,95	196,00
3319,67	145,00
3323,39	227,00
3327,10	109,00
3330,82	96,00
3334,53	180,00
3338,24	176,00
3341,94	256,00
3345,64	140,00
3349,34	146,00
3353,03	181,00
3356,72	123,00
3360,41	89,00
3364,10	138,00
3367,78	87,00
3371,46	146,00
3375,13	113,00
3378,81	126,00
3382,48	31,00
3386,14	133,00
3389,81	-43,00
3393,47	172,00
3397,12	76,00
3400,78	93,00
3404,43	139,00
3408,08	-2,00
3411,72	139,00
3415,36	99,00
3419,00	-9,00
3422,64	-5,00
3426,27	225,00
3429,90	24,00
3433,53	86,00
3437,15	151,00
3440,77	108,00
3444,39	5,00
3448,00	56,00
3451,62	264,00
3455,22	57,00
3458,83	101,00
3462,43	169,00
3466,03	76,00
3469,63	-79,00
3473,22	140,00
3476,81	146,00
3480,40	56,00
3483,99	125,00
3487,57	66,00
3491,15	31,00
3494,72	190,00
3498,29	147,00
3501,86	64,00
3505,43	95,00
3508,99	-29,00
3512,56	249,00
3516,11	79,00
3519,67	160,00
3523,22	120,00
3526,77	208,00
3530,32	149,00
3533,86	-75,00
3537,40	166,00
3540,94	221,00
3544,47	-75,00
3548,00	211,00
3551,53	96,00
3555,06	77,00
3558,58	102,00
3562,10	69,00
3565,62	177,00
3569,13	189,00
3572,64	269,00
3576,15	178,00
3579,66	186,00
3583,16	127,00
3586,66	5,00
3590,16	84,00
3593,65	228,00
3597,14	53,00
3600,63	69,00
3604,11	67,00
3607,60	102,00
3611,08	139,00
3614,55	66,00
3618,03	123,00
3621,50	39,00
3624,97	141,00
3628,43	10,00
3631,90	-21,00
3635,36	105,00
3638,81	104,00
3642,27	-29,00
3645,72	210,00
3649,17	107,00
3652,61	111,00
3656,06	8,00
3659,50	170,00
3662,93	67,00
3666,37	-7,00
3669,80	147,00
3673,23	80,00
3676,65	126,00
3680,08	62,00
3683,50	116,00
3686,92	13,00
3690,33	175,00
3693,74	129,00
3697,15	89,00
3700,56	75,00
3703,96	73,00
3707,36	31,00
3710,76	33,00
3714,16	37,00
3717,55	79,00
3720,94	65,00
3724,33	67,00
3727,71	165,00
3731,10	11,00
3734,48	60,00
3737,85	-25,00
3741,23	7,00
3744,60	19,00
3747,97	-116,00
3751,33	202,00
3754,69	156,00
3758,05	147,00
3761,41	-61,00
3764,77	126,00
3768,12	76,00
3771,47	124,00
3774,82	61,00
3778,16	-1,00
3781,50	-2,00
3784,84	-2,00
3788,18	8,00
>>>>>End Processed Spectral Data<<<<<
