SpectraSuite Data File
++++++++++++++++++++++++++++++++++++
Date: Mon Mar 09 16:08:36 ICT 2026
User: Administrator
Dark Spectrum Present: Yes
Reference Spectrum Present: No
Number of Sampled Component Spectra: 1
Spectrometers: MAYP113682
Integration Time (usec): 3000000 (MAYP113682)
Spectra Averaged: 1 (MAYP113682)
Boxcar Smoothing: 0 (MAYP113682)
Correct for Electrical Dark: No (MAYP113682)
Strobe/Lamp Enabled: No (MAYP113682)
Correct for Detector Non-linearity: No (MAYP113682)
Correct for Stray Light: No (MAYP113682)
Number of Pixels in Processed Spectrum: 2068
>>>>>Begin Processed Spectral Data<<<<<
-37534,58	1,00
-37414,56	-2,00
-37295,11	4,00
-37176,24	-1,00
-37057,95	76,00
-36940,22	45,00
-36823,05	174,00
-36706,45	154,00
-36590,40	62,00
-36474,90	38,00
-36359,95	107,00
-36245,55	164,00
-36131,68	8,00
-36018,35	68,00
-35905,55	151,00
-35793,29	198,00
-35681,54	47,00
-35570,32	133,00
-35459,62	118,00
-35349,43	71,00
-35239,75	162,00
-35130,58	137,00
-35021,91	35,00
-34913,74	24,00
-34806,07	62,00
-34698,89	119,00
-34592,20	153,00
-34486,00	104,00
-34380,28	162,00
-34275,04	25,00
-34170,27	87,00
-34065,98	149,00
-33962,16	157,00
-33858,81	162,00
-33755,92	141,00
-33653,49	182,00
-33551,52	123,00
-33450,01	128,00
-33348,94	67,00
-33248,33	134,00
-33148,16	64,00
-33048,43	73,00
-32949,14	84,00
-32850,29	235,00
-32751,87	44,00
-32653,89	117,00
-32556,33	-42,00
-32459,20	167,00
-32362,49	159,00
-32266,19	51,00
-32170,32	146,00
-32074,86	232,00
-31979,82	182,00
-31885,18	50,00
-31790,95	145,00
-31697,12	132,00
-31603,69	199,00
-31510,67	83,00
-31418,04	61,00
-31325,80	105,00
-31233,95	46,00
-31142,49	111,00
-31051,42	106,00
-30960,73	124,00
-30870,43	91,00
-30780,50	47,00
-30690,95	146,00
-30601,77	110,00
-30512,97	123,00
-30424,53	92,00
-30336,46	119,00
-30248,76	112,00
-30161,42	168,00
-30074,44	102,00
-29987,81	176,00
-29901,55	15,00
-29815,63	22,00
-29730,07	156,00
-29644,86	66,00
-29560,00	142,00
-29475,48	111,00
-29391,30	101,00
-29307,47	54,00
-29223,97	99,00
-29140,81	92,00
-29057,99	184,00
-28975,50	136,00
-28893,34	179,00
-28811,51	132,00
-28730,00	122,00
-28648,82	109,00
-28567,97	89,00
-28487,43	119,00
-28407,21	81,00
-28327,32	120,00
-28247,73	147,00
-28168,46	18,00
-28089,50	212,00
-28010,85	165,00
-27932,51	59,00
-27854,48	25,00
-27776,75	84,00
-27699,32	57,00
-27622,19	123,00
-27545,37	107,00
-27468,84	46,00
-27392,60	108,00
-27316,66	35,00
-27241,01	34,00
-27165,66	165,00
-27090,59	50,00
-27015,81	55,00
-26941,31	67,00
-26867,10	18,00
-26793,17	273,00
-26719,52	35,00
-26646,15	35,00
-26573,06	5,00
-26500,24	96,00
-26427,70	140,00
-26355,43	204,00
-26283,43	150,00
-26211,71	84,00
-26140,25	83,00
-26069,06	183,00
-25998,13	28,00
-25927,46	116,00
-25857,06	39,00
-25786,92	50,00
-25717,04	58,00
-25647,42	94,00
-25578,05	137,00
-25508,94	121,00
-25440,09	80,00
-25371,48	66,00
-25303,13	92,00
-25235,02	83,00
-25167,17	203,00
-25099,56	77,00
-25032,19	35,00
-24965,07	67,00
-24898,20	39,00
-24831,56	103,00
-24765,17	156,00
-24699,01	147,00
-24633,10	127,00
-24567,41	48,00
-24501,97	49,00
-24436,75	-22,00
-24371,77	65,00
-24307,03	142,00
-24242,51	158,00
-24178,22	65,00
-24114,16	63,00
-24050,32	174,00
-23986,71	94,00
-23923,32	211,00
-23860,16	240,00
-23797,22	120,00
-23734,50	85,00
-23672,00	178,00
-23609,71	114,00
-23547,65	136,00
-23485,80	71,00
-23424,16	93,00
-23362,74	74,00
-23301,53	121,00
-23240,54	99,00
-23179,75	16,00
-23119,17	143,00
-23058,80	75,00
-22998,64	44,00
-22938,68	75,00
-22878,93	131,00
-22819,39	105,00
-22760,04	67,00
-22700,90	51,00
-22641,96	26,00
-22583,22	200,00
-22524,68	62,00
-22466,33	69,00
-22408,19	44,00
-22350,23	81,00
-22292,48	126,00
-22234,92	17,00
-22177,55	142,00
-22120,37	95,00
-22063,38	219,00
-22006,58	115,00
-21949,98	126,00
-21893,56	44,00
-21837,33	57,00
-21781,28	169,00
-21725,42	130,00
-21669,74	58,00
-21614,25	38,00
-21558,94	168,00
-21503,81	196,00
-21448,86	147,00
-21394,10	61,00
-21339,51	138,00
-21285,10	43,00
-21230,86	142,00
-21176,81	75,00
-21122,93	152,00
-21069,22	136,00
-21015,69	42,00
-20962,33	187,00
-20909,14	122,00
-20856,13	132,00
-20803,28	92,00
-20750,61	170,00
-20698,10	198,00
-20645,76	135,00
-20593,59	109,00
-20541,59	87,00
-20489,75	126,00
-20438,07	150,00
-20386,56	157,00
-20335,22	177,00
-20284,03	64,00
-20233,01	128,00
-20182,15	171,00
-20131,45	166,00
-20080,91	8,00
-20030,52	187,00
-19980,30	70,00
-19930,23	125,00
-19880,32	76,00
-19830,56	69,00
-19780,96	96,00
-19731,52	98,00
-19682,23	160,00
-19633,09	167,00
-19584,10	13,00
-19535,26	109,00
-19486,58	149,00
-19438,04	105,00
-19389,66	135,00
-19341,42	135,00
-19293,33	96,00
-19245,39	123,00
-19197,60	98,00
-19149,95	-27,00
-19102,45	60,00
-19055,09	69,00
-19007,87	220,00
-18960,80	142,00
-18913,87	62,00
-18867,09	27,00
-18820,44	195,00
-18773,94	171,00
-18727,57	-3,00
-18681,35	36,00
-18635,26	20,00
-18589,31	168,00
-18543,50	-35,00
-18497,83	214,00
-18452,29	-23,00
-18406,89	25,00
-18361,63	67,00
-18316,50	138,00
-18271,50	162,00
-18226,63	122,00
-18181,90	96,00
-18137,30	-19,00
-18092,84	175,00
-18048,50	64,00
-18004,29	48,00
-17960,22	81,00
-17916,27	79,00
-17872,45	31,00
-17828,76	108,00
-17785,20	-45,00
-17741,77	120,00
-17698,46	28,00
-17655,28	69,00
-17612,22	108,00
-17569,29	238,00
-17526,48	192,00
-17483,79	128,00
-17441,23	67,00
-17398,79	177,00
-17356,48	189,00
-17314,28	204,00
-17272,21	148,00
-17230,26	-41,00
-17188,42	166,00
-17146,71	33,00
-17105,12	51,00
-17063,64	150,00
-17022,28	85,00
-16981,04	69,00
-16939,92	131,00
-16898,91	174,00
-16858,02	103,00
-16817,25	117,00
-16776,59	117,00
-16736,04	65,00
-16695,61	115,00
-16655,29	-35,00
-16615,09	59,00
-16574,99	117,00
-16535,01	53,00
-16495,15	234,00
-16455,39	8,00
-16415,74	98,00
-16376,21	25,00
-16336,78	137,00
-16297,46	39,00
-16258,26	148,00
-16219,16	22,00
-16180,17	117,00
-16141,28	88,00
-16102,51	58,00
-16063,84	83,00
-16025,27	159,00
-15986,82	65,00
-15948,46	150,00
-15910,22	192,00
-15872,07	94,00
-15834,04	84,00
-15796,10	194,00
-15758,27	85,00
-15720,54	115,00
-15682,91	37,00
-15645,39	137,00
-15607,97	119,00
-15570,64	130,00
-15533,42	152,00
-15496,30	112,00
-15459,28	54,00
-15422,36	94,00
-15385,54	16,00
-15348,82	68,00
-15312,19	112,00
-15275,66	66,00
-15239,23	73,00
-15202,90	164,00
-15166,67	91,00
-15130,53	12,00
-15094,48	127,00
-15058,54	104,00
-15022,68	70,00
-14986,93	129,00
-14951,26	131,00
-14915,69	50,00
-14880,22	96,00
-14844,84	57,00
-14809,55	35,00
-14774,35	53,00
-14739,25	73,00
-14704,24	98,00
-14669,32	-43,00
-14634,49	23,00
-14599,75	76,00
-14565,10	72,00
-14530,55	89,00
-14496,08	125,00
-14461,70	120,00
-14427,41	64,00
-14393,21	143,00
-14359,10	25,00
-14325,07	50,00
-14291,14	88,00
-14257,29	79,00
-14223,52	136,00
-14189,85	61,00
-14156,26	144,00
-14122,76	89,00
-14089,34	83,00
-14056,01	183,00
-14022,76	119,00
-13989,60	130,00
-13956,52	113,00
-13923,53	143,00
-13890,62	130,00
-13857,79	104,00
-13825,05	278,00
-13792,39	58,00
-13759,81	109,00
-13727,31	178,00
-13694,90	116,00
-13662,57	119,00
-13630,31	95,00
-13598,14	198,00
-13566,05	242,00
-13534,05	23,00
-13502,12	134,00
-13470,27	108,00
-13438,50	111,00
-13406,80	121,00
-13375,19	127,00
-13343,66	89,00
-13312,20	78,00
-13280,83	73,00
-13249,53	94,00
-13218,30	244,00
-13187,16	57,00
-13156,09	210,00
-13125,10	99,00
-13094,18	178,00
-13063,34	206,00
-13032,58	-12,00
-13001,89	27,00
-12971,28	50,00
-12940,74	144,00
-12910,27	6,00
-12879,88	81,00
-12849,57	44,00
-12819,33	126,00
-12789,16	-2,00
-12759,06	143,00
-12729,04	153,00
-12699,09	351,00
-12669,21	120,00
-12639,41	66,00
-12609,68	24,00
-12580,02	221,00
-12550,43	226,00
-12520,91	72,00
-12491,46	197,00
-12462,08	14,00
-12432,77	115,00
-12403,54	135,00
-12374,37	222,00
-12345,27	75,00
-12316,24	194,00
-12287,29	103,00
-12258,40	-16,00
-12229,57	82,00
-12200,82	68,00
-12172,14	84,00
-12143,52	100,00
-12114,97	113,00
-12086,49	102,00
-12058,07	192,00
-12029,73	131,00
-12001,44	-36,00
-11973,23	78,00
-11945,08	149,00
-11917,00	234,00
-11888,98	117,00
-11861,03	77,00
-11833,15	116,00
-11805,32	53,00
-11777,57	-18,00
-11749,88	162,00
-11722,25	132,00
-11694,69	56,00
-11667,19	135,00
-11639,75	11,00
-11612,38	170,00
-11585,07	144,00
-11557,83	102,00
-11530,65	24,00
-11503,53	176,00
-11476,47	219,00
-11449,48	173,00
-11422,54	96,00
-11395,67	139,00
-11368,86	85,00
-11342,11	75,00
-11315,43	157,00
-11288,80	25,00
-11262,23	150,00
-11235,73	71,00
-11209,28	169,00
-11182,90	78,00
-11156,57	154,00
-11130,31	139,00
-11104,10	98,00
-11077,96	70,00
-11051,87	174,00
-11025,84	5,00
-10999,87	133,00
-10973,96	14,00
-10948,11	162,00
-10922,31	153,00
-10896,58	33,00
-10870,90	74,00
-10845,28	36,00
-10819,71	93,00
-10794,20	137,00
-10768,75	300,00
-10743,36	135,00
-10718,02	116,00
-10692,74	114,00
-10667,52	65,00
-10642,35	124,00
-10617,24	161,00
-10592,18	122,00
-10567,18	271,00
-10542,23	187,00
-10517,34	145,00
-10492,51	185,00
-10467,72	172,00
-10443,00	141,00
-10418,32	191,00
-10393,70	111,00
-10369,14	180,00
-10344,63	103,00
-10320,17	201,00
-10295,77	113,00
-10271,42	69,00
-10247,12	212,00
-10222,88	160,00
-10198,68	143,00
-10174,54	81,00
-10150,46	194,00
-10126,42	252,00
-10102,44	286,00
-10078,51	142,00
-10054,63	286,00
-10030,80	163,00
-10007,03	129,00
-9983,30	97,00
-9959,63	242,00
-9936,01	314,00
-9912,44	286,00
-9888,92	323,00
-9865,44	208,00
-9842,02	292,00
-9818,65	401,00
-9795,33	214,00
-9772,06	262,00
-9748,84	358,00
-9725,67	337,00
-9702,55	373,00
-9679,47	375,00
-9656,45	459,00
-9633,47	397,00
-9610,55	466,00
-9587,67	406,00
-9564,84	396,00
-9542,06	618,00
-9519,32	579,00
-9496,64	560,00
-9474,00	617,00
-9451,41	607,00
-9428,87	703,00
-9406,37	615,00
-9383,92	625,00
-9361,52	735,00
-9339,17	751,00
-9316,86	682,00
-9294,60	862,00
-9272,38	1052,00
-9250,21	1112,00
-9228,09	1071,00
-9206,01	985,00
-9183,98	810,00
-9162,00	835,00
-9140,06	889,00
-9118,16	860,00
-9096,31	1015,00
-9074,51	983,00
-9052,75	1096,00
-9031,04	862,00
-9009,37	894,00
-8987,74	708,00
-8966,16	857,00
-8944,63	616,00
-8923,14	709,00
-8901,69	664,00
-8880,29	675,00
-8858,93	815,00
-8837,61	758,00
-8816,34	942,00
-8795,11	721,00
-8773,92	833,00
-8752,78	672,00
-8731,68	634,00
-8710,62	715,00
-8689,61	773,00
-8668,63	767,00
-8647,70	991,00
-8626,82	907,00
-8605,97	814,00
-8585,17	814,00
-8564,41	569,00
-8543,69	630,00
-8523,01	582,00
-8502,37	551,00
-8481,78	610,00
-8461,23	799,00
-8440,71	752,00
-8420,24	840,00
-8399,81	833,00
-8379,42	805,00
-8359,08	794,00
-8338,77	663,00
-8318,50	755,00
-8298,27	606,00
-8278,09	737,00
-8257,94	741,00
-8237,83	816,00
-8217,76	863,00
-8197,74	710,00
-8177,75	786,00
-8157,80	639,00
-8137,89	691,00
-8118,02	716,00
-8098,19	608,00
-8078,40	693,00
-8058,65	645,00
-8038,93	643,00
-8019,26	762,00
-7999,62	629,00
-7980,02	662,00
-7960,46	580,00
-7940,94	518,00
-7921,46	447,00
-7902,01	470,00
-7882,60	631,00
-7863,23	528,00
-7843,90	532,00
-7824,61	625,00
-7805,35	546,00
-7786,13	644,00
-7766,95	754,00
-7747,80	629,00
-7728,69	478,00
-7709,62	570,00
-7690,59	547,00
-7671,59	734,00
-7652,63	717,00
-7633,70	672,00
-7614,81	635,00
-7595,96	505,00
-7577,15	621,00
-7558,37	581,00
-7539,62	662,00
-7520,91	587,00
-7502,24	525,00
-7483,60	575,00
-7465,00	559,00
-7446,44	562,00
-7427,91	413,00
-7409,41	543,00
-7390,95	369,00
-7372,53	396,00
-7354,14	396,00
-7335,78	404,00
-7317,46	434,00
-7299,18	478,00
-7280,92	466,00
-7262,71	534,00
-7244,52	668,00
-7226,38	534,00
-7208,26	552,00
-7190,18	479,00
-7172,14	561,00
-7154,12	483,00
-7136,15	647,00
-7118,20	555,00
-7100,29	677,00
-7082,41	659,00
-7064,57	566,00
-7046,76	490,00
-7028,98	494,00
-7011,24	312,00
-6993,53	359,00
-6975,85	498,00
-6958,20	303,00
-6940,59	324,00
-6923,01	303,00
-6905,46	480,00
-6887,94	412,00
-6870,46	3085,00
-6853,01	532,00
-6835,59	641,00
-6818,21	409,00
-6800,85	455,00
-6783,53	310,00
-6766,24	209,00
-6748,98	323,00
-6731,76	221,00
-6714,56	245,00
-6697,40	176,00
-6680,26	236,00
-6663,16	429,00
-6646,09	407,00
-6629,05	493,00
-6612,05	349,00
-6595,07	392,00
-6578,13	349,00
-6561,21	254,00
-6544,33	252,00
-6527,47	215,00
-6510,65	227,00
-6493,86	184,00
-6477,10	232,00
-6460,36	286,00
-6443,66	156,00
-6426,99	190,00
-6410,35	384,00
-6393,74	168,00
-6377,16	240,00
-6360,61	325,00
-6344,09	279,00
-6327,59	341,00
-6311,13	369,00
-6294,70	404,00
-6278,29	367,00
-6261,92	400,00
-6245,58	438,00
-6229,26	397,00
-6212,97	391,00
-6196,72	229,00
-6180,49	323,00
-6164,29	232,00
-6148,12	27,00
-6131,98	121,00
-6115,86	116,00
-6099,78	168,00
-6083,72	129,00
-6067,69	69,00
-6051,69	132,00
-6035,72	188,00
-6019,78	219,00
-6003,87	303,00
-5987,98	358,00
-5972,12	331,00
-5956,29	185,00
-5940,49	305,00
-5924,71	277,00
-5908,96	194,00
-5893,24	189,00
-5877,55	217,00
-5861,89	155,00
-5846,25	287,00
-5830,64	276,00
-5815,05	134,00
-5799,50	198,00
-5783,97	154,00
-5768,47	190,00
-5752,99	282,00
-5737,55	245,00
-5722,12	302,00
-5706,73	238,00
-5691,36	338,00
-5676,02	146,00
-5660,71	304,00
-5645,42	154,00
-5630,16	408,00
-5614,92	251,00
-5599,71	292,00
-5584,53	293,00
-5569,37	270,00
-5554,24	429,00
-5539,14	182,00
-5524,06	214,00
-5509,01	153,00
-5493,98	225,00
-5478,98	188,00
-5464,00	114,00
-5449,05	244,00
-5434,13	257,00
-5419,23	254,00
-5404,36	149,00
-5389,51	293,00
-5374,69	274,00
-5359,89	395,00
-5345,12	358,00
-5330,37	363,00
-5315,65	287,00
-5300,95	182,00
-5286,28	255,00
-5271,63	209,00
-5257,01	296,00
-5242,41	225,00
-5227,84	219,00
-5213,29	173,00
-5198,76	98,00
-5184,26	55,00
-5169,79	61,00
-5155,33	197,00
-5140,91	259,00
-5126,51	322,00
-5112,13	331,00
-5097,77	295,00
-5083,44	287,00
-5069,13	216,00
-5054,85	100,00
-5040,59	342,00
-5026,36	332,00
-5012,15	242,00
-4997,96	293,00
-4983,80	55,00
-4969,66	147,00
-4955,54	52,00
-4941,44	362,00
-4927,37	269,00
-4913,33	247,00
-4899,30	341,00
-4885,30	351,00
-4871,33	383,00
-4857,37	166,00
-4843,44	281,00
-4829,53	226,00
-4815,65	239,00
-4801,79	197,00
-4787,95	165,00
-4774,13	158,00
-4760,34	76,00
-4746,56	57,00
-4732,82	175,00
-4719,09	261,00
-4705,38	267,00
-4691,70	248,00
-4678,04	270,00
-4664,41	222,00
-4650,79	273,00
-4637,20	152,00
-4623,63	105,00
-4610,08	222,00
-4596,56	171,00
-4583,05	256,00
-4569,57	223,00
-4556,11	154,00
-4542,67	39,00
-4529,25	147,00
-4515,86	333,00
-4502,49	223,00
-4489,13	245,00
-4475,80	145,00
-4462,49	216,00
-4449,21	225,00
-4435,94	164,00
-4422,70	171,00
-4409,47	172,00
-4396,27	203,00
-4383,09	69,00
-4369,93	221,00
-4356,79	113,00
-4343,67	140,00
-4330,58	75,00
-4317,50	229,00
-4304,45	174,00
-4291,41	97,00
-4278,40	180,00
-4265,41	85,00
-4252,44	182,00
-4239,49	174,00
-4226,55	295,00
-4213,65	330,00
-4200,76	123,00
-4187,89	102,00
-4175,04	64,00
-4162,21	144,00
-4149,40	157,00
-4136,61	84,00
-4123,85	1,00
-4111,10	137,00
-4098,37	188,00
-4085,66	167,00
-4072,98	124,00
-4060,31	27,00
-4047,66	78,00
-4035,04	20,00
-4022,43	147,00
-4009,84	133,00
-3997,27	170,00
-3984,72	107,00
-3972,19	100,00
-3959,69	197,00
-3947,20	60,00
-3934,73	11,00
-3922,27	108,00
-3909,84	34,00
-3897,43	68,00
-3885,04	192,00
-3872,67	52,00
-3860,31	39,00
-3847,98	14,00
-3835,66	45,00
-3823,36	137,00
-3811,09	77,00
-3798,83	39,00
-3786,59	76,00
-3774,37	55,00
-3762,17	110,00
-3749,98	210,00
-3737,82	140,00
-3725,67	222,00
-3713,55	86,00
-3701,44	52,00
-3689,35	197,00
-3677,28	213,00
-3665,22	152,00
-3653,19	151,00
-3641,17	105,00
-3629,18	103,00
-3617,20	185,00
-3605,24	146,00
-3593,30	165,00
-3581,37	197,00
-3569,47	70,00
-3557,58	100,00
-3545,71	92,00
-3533,86	225,00
-3522,02	66,00
-3510,21	155,00
-3498,41	63,00
-3486,63	153,00
-3474,87	181,00
-3463,12	44,00
-3451,40	150,00
-3439,69	159,00
-3428,00	83,00
-3416,33	132,00
-3404,67	134,00
-3393,03	85,00
-3381,41	83,00
-3369,81	84,00
-3358,22	83,00
-3346,66	111,00
-3335,10	42,00
-3323,57	78,00
-3312,06	89,00
-3300,56	47,00
-3289,08	57,00
-3277,61	43,00
-3266,16	115,00
-3254,73	82,00
-3243,32	134,00
-3231,92	129,00
-3220,55	121,00
-3209,18	88,00
-3197,84	176,00
-3186,51	48,00
-3175,20	152,00
-3163,90	121,00
-3152,63	107,00
-3141,36	171,00
-3130,12	178,00
-3118,89	111,00
-3107,68	41,00
-3096,49	167,00
-3085,31	231,00
-3074,15	-10,00
-3063,00	157,00
-3051,87	195,00
-3040,76	291,00
-3029,67	106,00
-3018,59	134,00
-3007,52	205,00
-2996,48	1,00
-2985,44	171,00
-2974,43	145,00
-2963,43	133,00
-2952,45	94,00
-2941,48	130,00
-2930,53	245,00
-2919,60	209,00
-2908,68	-16,00
-2897,78	-60,00
-2886,89	34,00
-2876,02	72,00
-2865,17	72,00
-2854,33	130,00
-2843,50	79,00
-2832,70	84,00
-2821,90	102,00
-2811,13	87,00
-2800,37	111,00
-2789,62	104,00
-2778,89	143,00
-2768,18	212,00
-2757,48	83,00
-2746,80	136,00
-2736,13	124,00
-2725,48	4,00
-2714,84	100,00
-2704,22	131,00
-2693,61	237,00
-2683,02	97,00
-2672,45	128,00
-2661,89	157,00
-2651,34	187,00
-2640,81	115,00
-2630,30	-1,00
-2619,80	201,00
-2609,31	67,00
-2598,84	182,00
-2588,39	148,00
-2577,95	150,00
-2567,52	134,00
-2557,11	109,00
-2546,71	54,00
-2536,33	170,00
-2525,97	24,00
-2515,62	64,00
-2505,28	170,00
-2494,96	153,00
-2484,65	130,00
-2474,36	94,00
-2464,08	78,00
-2453,82	167,00
-2443,57	40,00
-2433,33	59,00
-2423,11	188,00
-2412,91	70,00
-2402,72	151,00
-2392,54	129,00
-2382,38	84,00
-2372,23	156,00
-2362,09	49,00
-2351,97	97,00
-2341,87	89,00
-2331,78	86,00
-2321,70	118,00
-2311,64	47,00
-2301,59	99,00
-2291,55	213,00
-2281,53	188,00
-2271,53	98,00
-2261,53	90,00
-2251,55	223,00
-2241,59	172,00
-2231,64	69,00
-2221,70	75,00
-2211,78	172,00
-2201,87	70,00
-2191,97	124,00
-2182,09	134,00
-2172,22	181,00
-2162,37	-13,00
-2152,53	-7,00
-2142,70	156,00
-2132,89	188,00
-2123,09	197,00
-2113,30	109,00
-2103,53	103,00
-2093,77	81,00
-2084,02	71,00
-2074,29	116,00
-2064,57	21,00
-2054,86	-36,00
-2045,17	35,00
-2035,49	47,00
-2025,82	151,00
-2016,17	55,00
-2006,53	214,00
-1996,91	66,00
-1987,29	62,00
-1977,69	139,00
-1968,11	26,00
-1958,53	121,00
-1948,97	42,00
-1939,42	162,00
-1929,89	100,00
-1920,37	52,00
-1910,86	137,00
-1901,36	-19,00
-1891,88	151,00
-1882,41	10,00
-1872,95	74,00
-1863,51	192,00
-1854,08	77,00
-1844,66	119,00
-1835,26	127,00
-1825,86	113,00
-1816,48	219,00
-1807,11	84,00
-1797,76	167,00
-1788,42	223,00
-1779,09	98,00
-1769,77	201,00
-1760,47	223,00
-1751,17	146,00
-1741,89	-66,00
-1732,63	179,00
-1723,37	179,00
-1714,13	84,00
-1704,90	129,00
-1695,68	95,00
-1686,48	12,00
-1677,29	103,00
-1668,11	220,00
-1658,94	78,00
-1649,78	109,00
-1640,64	27,00
-1631,51	48,00
-1622,39	146,00
-1613,28	91,00
-1604,19	125,00
-1595,10	-13,00
-1586,03	186,00
-1576,97	-55,00
-1567,93	52,00
-1558,89	-19,00
-1549,87	247,00
-1540,86	72,00
-1531,86	64,00
-1522,87	63,00
-1513,90	99,00
-1504,93	186,00
-1495,98	220,00
-1487,04	106,00
-1478,12	93,00
-1469,20	38,00
-1460,30	79,00
-1451,40	94,00
-1442,52	86,00
-1433,65	19,00
-1424,80	113,00
-1415,95	177,00
-1407,12	190,00
-1398,30	14,00
-1389,48	79,00
-1380,69	130,00
-1371,90	68,00
-1363,12	146,00
-1354,36	183,00
-1345,60	108,00
-1336,86	21,00
-1328,13	52,00
-1319,41	198,00
-1310,70	-12,00
-1302,01	143,00
-1293,32	104,00
-1284,65	207,00
-1275,99	133,00
-1267,33	142,00
-1258,69	71,00
-1250,06	29,00
-1241,45	75,00
-1232,84	63,00
-1224,25	45,00
-1215,66	64,00
-1207,09	239,00
-1198,53	78,00
-1189,97	101,00
-1181,43	80,00
-1172,91	30,00
-1164,39	219,00
-1155,88	137,00
-1147,38	215,00
-1138,90	131,00
-1130,43	81,00
-1121,96	251,00
-1113,51	162,00
-1105,07	159,00
-1096,64	156,00
-1088,22	179,00
-1079,81	113,00
-1071,41	95,00
-1063,02	198,00
-1054,65	-26,00
-1046,28	112,00
-1037,92	136,00
-1029,58	146,00
-1021,24	29,00
-1012,92	186,00
-1004,61	147,00
-996,30	91,00
-988,01	162,00
-979,73	50,00
-971,46	113,00
-963,20	24,00
-954,95	-11,00
-946,71	31,00
-938,48	162,00
-930,26	158,00
-922,06	108,00
-913,86	171,00
-905,67	127,00
-897,49	114,00
-889,33	82,00
-881,17	121,00
-873,02	72,00
-864,89	100,00
-856,76	6,00
-848,65	130,00
-840,54	37,00
-832,45	116,00
-824,36	129,00
-816,29	89,00
-808,22	105,00
-800,17	197,00
-792,12	135,00
-784,09	139,00
-776,06	-22,00
-768,05	147,00
-760,04	171,00
-752,05	183,00
-744,07	178,00
-736,09	219,00
-728,13	119,00
-720,17	-14,00
-712,23	148,00
-704,29	37,00
-696,37	165,00
-688,45	98,00
-680,55	184,00
-672,65	-56,00
-664,77	82,00
-656,89	64,00
-649,03	124,00
-641,17	111,00
-633,32	81,00
-625,49	255,00
-617,66	94,00
-609,84	72,00
-602,03	30,00
-594,23	65,00
-586,45	-36,00
-578,67	31,00
-570,90	125,00
-563,14	18,00
-555,39	127,00
-547,65	254,00
-539,91	56,00
-532,19	19,00
-524,48	128,00
-516,78	120,00
-509,08	-14,00
-501,40	74,00
-493,72	63,00
-486,06	54,00
-478,40	227,00
-470,76	89,00
-463,12	82,00
-455,49	41,00
-447,87	109,00
-440,26	-16,00
-432,66	103,00
-425,07	103,00
-417,49	161,00
-409,92	69,00
-402,35	131,00
-394,80	199,00
-387,25	136,00
-379,72	197,00
-372,19	196,00
-364,67	161,00
-357,17	14,00
-349,67	93,00
-342,18	182,00
-334,69	228,00
-327,22	144,00
-319,76	177,00
-312,30	87,00
-304,86	231,00
-297,42	304,00
-290,00	136,00
-282,58	57,00
-275,17	95,00
-267,77	160,00
-260,37	186,00
-252,99	209,00
-245,62	170,00
-238,25	220,00
-230,90	125,00
-223,55	165,00
-216,21	174,00
-208,88	306,00
-201,56	211,00
-194,25	304,00
-186,94	226,00
-179,65	267,00
-172,36	294,00
-165,08	203,00
-157,81	351,00
-150,55	318,00
-143,30	512,00
-136,06	386,00
-128,82	562,00
-121,60	440,00
-114,38	389,00
-107,17	692,00
-99,97	655,00
-92,78	597,00
-85,60	846,00
-78,42	927,00
-71,25	1068,00
-64,10	1298,00
-56,95	1293,00
-49,81	1635,00
-42,67	2054,00
-35,55	2485,00
-28,43	3351,00
-21,33	5420,00
-14,23	18407,00
-7,14	55238,00
-0,05	54948,00
7,02	54664,00
14,09	54888,00
21,14	16253,00
28,19	6760,00
35,23	4171,00
42,27	3225,00
49,29	2668,00
56,31	2274,00
63,32	1891,00
70,32	1574,00
77,31	1295,00
84,29	1157,00
91,27	1100,00
98,23	954,00
105,19	974,00
112,14	996,00
119,09	1626,00
126,02	2403,00
132,95	2619,00
139,87	2692,00
146,78	2565,00
153,68	2503,00
160,58	2396,00
167,46	2403,00
174,34	2536,00
181,21	2493,00
188,08	2433,00
194,93	2241,00
201,78	2434,00
208,62	2411,00
215,45	2307,00
222,27	2410,00
229,09	2238,00
235,90	2258,00
242,70	2275,00
249,49	2098,00
256,27	2240,00
263,05	2184,00
269,82	2171,00
276,58	2208,00
283,33	2176,00
290,08	2192,00
296,82	2146,00
303,55	2056,00
310,27	2144,00
316,98	2002,00
323,69	2072,00
330,39	2136,00
337,08	1993,00
343,76	1976,00
350,44	2033,00
357,11	2073,00
363,77	2038,00
370,42	1918,00
377,07	1866,00
383,71	1879,00
390,34	2088,00
396,96	2011,00
403,58	1942,00
410,19	1916,00
416,79	1936,00
423,38	1955,00
429,97	2026,00
436,55	1758,00
443,12	1795,00
449,68	1840,00
456,24	1761,00
462,79	1707,00
469,33	1797,00
475,86	1827,00
482,39	1777,00
488,91	1625,00
495,42	1644,00
501,93	1769,00
508,42	1759,00
514,91	1607,00
521,40	1691,00
527,87	1677,00
534,34	1605,00
540,80	1676,00
547,25	1685,00
553,70	1657,00
560,14	1503,00
566,57	1538,00
573,00	1555,00
579,41	1616,00
585,83	1573,00
592,23	1610,00
598,62	1522,00
605,01	1568,00
611,40	1639,00
617,77	1484,00
624,14	1563,00
630,50	1477,00
636,85	1567,00
643,20	1537,00
649,54	1429,00
655,87	1329,00
662,20	1377,00
668,52	1420,00
674,83	1399,00
681,13	1393,00
687,43	1337,00
693,72	1382,00
700,00	1327,00
706,28	1286,00
712,55	1402,00
718,81	1457,00
725,07	1370,00
731,32	1313,00
737,56	1273,00
743,79	1263,00
750,02	1315,00
756,24	1320,00
762,46	1376,00
768,67	1367,00
774,87	1372,00
781,06	1444,00
787,25	1280,00
793,43	1303,00
799,60	1230,00
805,77	1309,00
811,93	1321,00
818,08	1225,00
824,23	1303,00
830,37	1276,00
836,50	1418,00
842,63	1356,00
848,75	1421,00
854,87	1320,00
860,97	1390,00
867,07	1348,00
873,17	1358,00
879,25	1312,00
885,33	1262,00
891,41	1326,00
897,47	1169,00
903,53	1168,00
909,59	1175,00
915,63	1260,00
921,67	1201,00
927,71	1096,00
933,74	1219,00
939,76	1134,00
945,77	1174,00
951,78	1163,00
957,78	1109,00
963,78	1154,00
969,77	1088,00
975,75	1236,00
981,72	1109,00
987,69	1349,00
993,66	1079,00
999,61	1162,00
1005,56	1140,00
1011,51	1161,00
1017,44	1117,00
1023,37	1169,00
1029,30	1184,00
1035,22	1291,00
1041,13	1279,00
1047,03	1212,00
1052,93	1317,00
1058,83	1562,00
1064,71	1612,00
1070,59	1385,00
1076,47	1290,00
1082,33	1232,00
1088,20	1221,00
1094,05	1096,00
1099,90	1138,00
1105,74	1116,00
1111,58	1071,00
1117,41	1205,00
1123,23	1407,00
1129,05	1414,00
1134,86	1344,00
1140,67	1362,00
1146,47	1262,00
1152,26	1196,00
1158,05	991,00
1163,83	1108,00
1169,60	1099,00
1175,37	1075,00
1181,13	1021,00
1186,89	1062,00
1192,64	1113,00
1198,38	1160,00
1204,12	950,00
1209,85	1036,00
1215,58	1152,00
1221,30	962,00
1227,02	1084,00
1232,72	1061,00
1238,43	1120,00
1244,12	1007,00
1249,81	1015,00
1255,50	969,00
1261,17	1172,00
1266,85	1161,00
1272,51	1103,00
1278,17	1183,00
1283,83	1212,00
1289,47	1545,00
1295,12	1656,00
1300,75	1590,00
1306,38	1472,00
1312,01	1282,00
1317,63	1256,00
1323,24	1230,00
1328,85	1119,00
1334,45	1159,00
1340,04	1175,00
1345,63	1175,00
1351,22	1099,00
1356,80	1143,00
1362,37	1157,00
1367,93	1235,00
1373,49	1142,00
1379,05	1182,00
1384,60	1204,00
1390,14	1179,00
1395,68	1146,00
1401,21	1221,00
1406,74	1184,00
1412,26	1337,00
1417,77	1310,00
1423,28	1250,00
1428,78	1433,00
1434,28	1776,00
1439,77	1702,00
1445,26	1636,00
1450,74	1758,00
1456,22	1556,00
1461,68	1502,00
1467,15	1483,00
1472,61	1369,00
1478,06	1299,00
1483,51	1153,00
1488,95	1086,00
1494,38	1253,00
1499,81	974,00
1505,24	1147,00
1510,65	964,00
1516,07	1041,00
1521,48	1120,00
1526,88	1001,00
1532,27	1103,00
1537,67	937,00
1543,05	1045,00
1548,43	901,00
1553,81	1015,00
1559,18	937,00
1564,54	858,00
1569,90	844,00
1575,25	934,00
1580,60	821,00
1585,94	905,00
1591,28	1069,00
1596,61	988,00
1601,93	846,00
1607,25	992,00
1612,57	863,00
1617,88	1045,00
1623,18	874,00
1628,48	940,00
1633,77	876,00
1639,06	937,00
1644,34	872,00
1649,62	878,00
1654,89	918,00
1660,16	902,00
1665,42	738,00
1670,67	886,00
1675,92	960,00
1681,17	888,00
1686,41	854,00
1691,64	833,00
1696,87	775,00
1702,10	730,00
1707,32	838,00
1712,53	762,00
1717,74	719,00
1722,94	749,00
1728,14	862,00
1733,33	746,00
1738,52	755,00
1743,70	882,00
1748,88	844,00
1754,05	742,00
1759,22	699,00
1764,38	694,00
1769,53	576,00
1774,69	640,00
1779,83	671,00
1784,97	705,00
1790,11	666,00
1795,24	793,00
1800,36	659,00
1805,48	548,00
1810,60	682,00
1815,71	596,00
1820,82	587,00
1825,92	718,00
1831,01	644,00
1836,10	848,00
1841,19	654,00
1846,26	650,00
1851,34	612,00
1856,41	619,00
1861,47	658,00
1866,53	839,00
1871,59	672,00
1876,64	543,00
1881,68	652,00
1886,72	484,00
1891,76	638,00
1896,79	651,00
1901,81	575,00
1906,83	591,00
1911,85	627,00
1916,86	688,00
1921,86	480,00
1926,86	543,00
1931,86	667,00
1936,85	576,00
1941,83	567,00
1946,81	577,00
1951,79	518,00
1956,76	644,00
1961,72	610,00
1966,68	570,00
1971,64	548,00
1976,59	653,00
1981,54	566,00
1986,48	540,00
1991,42	478,00
1996,35	531,00
2001,27	529,00
2006,20	623,00
2011,11	679,00
2016,03	608,00
2020,93	399,00
2025,84	488,00
2030,73	529,00
2035,63	519,00
2040,52	469,00
2045,40	427,00
2050,28	446,00
2055,15	533,00
2060,02	493,00
2064,89	436,00
2069,75	451,00
2074,60	515,00
2079,46	549,00
2084,30	481,00
2089,14	392,00
2093,98	388,00
2098,81	580,00
2103,64	560,00
2108,46	531,00
2113,28	521,00
2118,09	599,00
2122,90	404,00
2127,70	416,00
2132,50	588,00
2137,30	403,00
2142,09	511,00
2146,87	564,00
2151,66	414,00
2156,43	551,00
2161,20	491,00
2165,97	555,00
2170,73	488,00
2175,49	601,00
2180,24	479,00
2184,99	497,00
2189,74	578,00
2194,48	448,00
2199,21	555,00
2203,94	419,00
2208,67	368,00
2213,39	478,00
2218,11	488,00
2222,82	370,00
2227,53	377,00
2232,23	398,00
2236,93	448,00
2241,63	394,00
2246,32	434,00
2251,00	447,00
2255,68	328,00
2260,36	349,00
2265,03	480,00
2269,70	344,00
2274,36	518,00
2279,02	340,00
2283,68	402,00
2288,33	322,00
2292,97	493,00
2297,61	421,00
2302,25	515,00
2306,88	361,00
2311,51	337,00
2316,14	446,00
2320,75	255,00
2325,37	272,00
2329,98	360,00
2334,59	419,00
2339,19	280,00
2343,79	293,00
2348,38	212,00
2352,97	260,00
2357,55	394,00
2362,13	333,00
2366,71	306,00
2371,28	475,00
2375,85	273,00
2380,41	491,00
2384,97	360,00
2389,52	302,00
2394,07	292,00
2398,62	299,00
2403,16	353,00
2407,70	318,00
2412,23	368,00
2416,76	395,00
2421,29	282,00
2425,81	344,00
2430,32	375,00
2434,84	279,00
2439,34	269,00
2443,85	297,00
2448,35	225,00
2452,84	308,00
2457,33	291,00
2461,82	348,00
2466,30	348,00
2470,78	355,00
2475,25	291,00
2479,72	261,00
2484,19	222,00
2488,65	342,00
2493,11	343,00
2497,56	309,00
2502,01	218,00
2506,46	175,00
2510,90	305,00
2515,34	258,00
2519,77	284,00
2524,20	347,00
2528,62	230,00
2533,04	286,00
2537,46	242,00
2541,87	276,00
2546,28	284,00
2550,68	355,00
2555,08	244,00
2559,48	195,00
2563,87	236,00
2568,26	358,00
2572,64	263,00
2577,02	193,00
2581,40	228,00
2585,77	364,00
2590,14	207,00
2594,50	291,00
2598,86	239,00
2603,22	240,00
2607,57	312,00
2611,92	340,00
2616,26	267,00
2620,60	267,00
2624,94	369,00
2629,27	261,00
2633,60	370,00
2637,92	329,00
2642,24	312,00
2646,56	310,00
2650,87	246,00
2655,18	400,00
2659,48	235,00
2663,78	273,00
2668,08	291,00
2672,37	257,00
2676,66	289,00
2680,95	296,00
2685,23	294,00
2689,50	136,00
2693,78	341,00
2698,05	289,00
2702,31	269,00
2706,57	392,00
2710,83	309,00
2715,08	377,00
2719,33	249,00
2723,58	385,00
2727,82	356,00
2732,06	360,00
2736,29	366,00
2740,53	337,00
2744,75	294,00
2748,97	248,00
2753,19	306,00
2757,41	388,00
2761,62	218,00
2765,83	330,00
2770,03	249,00
2774,23	279,00
2778,43	249,00
2782,62	399,00
2786,81	242,00
2791,00	270,00
2795,18	341,00
2799,35	351,00
2803,53	312,00
2807,70	337,00
2811,86	364,00
2816,03	409,00
2820,19	498,00
2824,34	410,00
2828,49	577,00
2832,64	557,00
2836,78	772,00
2840,92	832,00
2845,06	997,00
2849,19	1112,00
2853,32	1048,00
2857,45	1196,00
2861,57	1084,00
2865,69	1143,00
2869,80	995,00
2873,91	1108,00
2878,02	1233,00
2882,12	1184,00
2886,22	1109,00
2890,32	1176,00
2894,41	1085,00
2898,50	952,00
2902,58	961,00
2906,67	906,00
2910,74	808,00
2914,82	728,00
2918,89	733,00
2922,96	789,00
2927,02	639,00
2931,08	548,00
2935,13	691,00
2939,19	661,00
2943,24	505,00
2947,28	434,00
2951,32	416,00
2955,36	514,00
2959,40	290,00
2963,43	451,00
2967,46	301,00
2971,48	346,00
2975,50	448,00
2979,52	394,00
2983,53	336,00
2987,54	179,00
2991,55	243,00
2995,55	264,00
2999,55	246,00
3003,54	245,00
3007,54	263,00
3011,53	248,00
3015,51	152,00
3019,49	306,00
3023,47	168,00
3027,45	193,00
3031,42	265,00
3035,39	200,00
3039,35	191,00
3043,31	27,00
3047,27	209,00
3051,22	176,00
3055,17	231,00
3059,12	125,00
3063,06	276,00
3067,00	190,00
3070,94	124,00
3074,87	268,00
3078,80	119,00
3082,73	140,00
3086,65	155,00
3090,57	265,00
3094,49	231,00
3098,40	117,00
3102,31	207,00
3106,22	123,00
3110,12	77,00
3114,02	229,00
3117,92	174,00
3121,81	133,00
3125,70	88,00
3129,58	192,00
3133,47	153,00
3137,34	273,00
3141,22	175,00
3145,09	142,00
3148,96	113,00
3152,83	160,00
3156,69	211,00
3160,55	208,00
3164,40	176,00
3168,26	145,00
3172,10	180,00
3175,95	58,00
3179,79	151,00
3183,63	50,00
3187,47	182,00
3191,30	104,00
3195,13	202,00
3198,95	141,00
3202,78	158,00
3206,60	55,00
3210,41	90,00
3214,23	145,00
3218,03	191,00
3221,84	251,00
3225,64	137,00
3229,44	180,00
3233,24	227,00
3237,03	118,00
3240,82	101,00
3244,61	126,00
3248,39	201,00
3252,17	161,00
3255,95	117,00
3259,72	117,00
3263,49	192,00
3267,26	97,00
3271,03	196,00
3274,79	212,00
3278,54	107,00
3282,30	77,00
3286,05	118,00
3289,80	123,00
3293,54	30,00
3297,29	129,00
3301,02	184,00
3304,76	130,00
3308,49	111,00
3312,22	269,00
3315,95	171,00
3319,67	136,00
3323,39	100,00
3327,10	290,00
3330,82	126,00
3334,53	145,00
3338,24	168,00
3341,94	61,00
3345,64	233,00
3349,34	242,00
3353,03	124,00
3356,72	129,00
3360,41	215,00
3364,10	182,00
3367,78	98,00
3371,46	129,00
3375,13	304,00
3378,81	123,00
3382,48	124,00
3386,14	135,00
3389,81	109,00
3393,47	62,00
3397,12	161,00
3400,78	14,00
3404,43	200,00
3408,08	175,00
3411,72	161,00
3415,36	127,00
3419,00	86,00
3422,64	142,00
3426,27	122,00
3429,90	192,00
3433,53	151,00
3437,15	150,00
3440,77	207,00
3444,39	46,00
3448,00	200,00
3451,62	179,00
3455,22	103,00
3458,83	44,00
3462,43	188,00
3466,03	38,00
3469,63	183,00
3473,22	118,00
3476,81	190,00
3480,40	85,00
3483,99	193,00
3487,57	174,00
3491,15	66,00
3494,72	81,00
3498,29	170,00
3501,86	4,00
3505,43	149,00
3508,99	146,00
3512,56	90,00
3516,11	188,00
3519,67	158,00
3523,22	55,00
3526,77	175,00
3530,32	104,00
3533,86	135,00
3537,40	65,00
3540,94	17,00
3544,47	73,00
3548,00	165,00
3551,53	45,00
3555,06	138,00
3558,58	76,00
3562,10	151,00
3565,62	96,00
3569,13	203,00
3572,64	110,00
3576,15	100,00
3579,66	18,00
3583,16	101,00
3586,66	167,00
3590,16	95,00
3593,65	219,00
3597,14	124,00
3600,63	226,00
3604,11	74,00
3607,60	73,00
3611,08	-114,00
3614,55	174,00
3618,03	101,00
3621,50	59,00
3624,97	113,00
3628,43	171,00
3631,90	87,00
3635,36	125,00
3638,81	147,00
3642,27	121,00
3645,72	110,00
3649,17	151,00
3652,61	11,00
3656,06	219,00
3659,50	172,00
3662,93	-20,00
3666,37	73,00
3669,80	132,00
3673,23	57,00
3676,65	31,00
3680,08	22,00
3683,50	100,00
3686,92	178,00
3690,33	165,00
3693,74	81,00
3697,15	133,00
3700,56	128,00
3703,96	-6,00
3707,36	73,00
3710,76	153,00
3714,16	104,00
3717,55	-12,00
3720,94	104,00
3724,33	158,00
3727,71	28,00
3731,10	95,00
3734,48	79,00
3737,85	179,00
3741,23	183,00
3744,60	42,00
3747,97	14,00
3751,33	28,00
3754,69	74,00
3758,05	70,00
3761,41	-11,00
3764,77	145,00
3768,12	106,00
3771,47	18,00
3774,82	-1,00
3778,16	-4,00
3781,50	-4,00
3784,84	-1,00
3788,18	0,00
>>>>>End Processed Spectral Data<<<<<
