SpectraSuite Data File
++++++++++++++++++++++++++++++++++++
Date: Mon Mar 09 16:18:03 ICT 2026
User: Administrator
Dark Spectrum Present: Yes
Reference Spectrum Present: No
Number of Sampled Component Spectra: 1
Spectrometers: MAYP113682
Integration Time (usec): 3000000 (MAYP113682)
Spectra Averaged: 1 (MAYP113682)
Boxcar Smoothing: 0 (MAYP113682)
Correct for Electrical Dark: No (MAYP113682)
Strobe/Lamp Enabled: No (MAYP113682)
Correct for Detector Non-linearity: No (MAYP113682)
Correct for Stray Light: No (MAYP113682)
Number of Pixels in Processed Spectrum: 2068
>>>>>Begin Processed Spectral Data<<<<<
-37534,58	1,00
-37414,56	-4,00
-37295,11	-2,00
-37176,24	5,00
-37057,95	-45,00
-36940,22	18,00
-36823,05	113,00
-36706,45	29,00
-36590,40	18,00
-36474,90	86,00
-36359,95	12,00
-36245,55	-6,00
-36131,68	84,00
-36018,35	103,00
-35905,55	95,00
-35793,29	-51,00
-35681,54	66,00
-35570,32	50,00
-35459,62	-24,00
-35349,43	139,00
-35239,75	53,00
-35130,58	32,00
-35021,91	-68,00
-34913,74	20,00
-34806,07	102,00
-34698,89	-3,00
-34592,20	14,00
-34486,00	74,00
-34380,28	73,00
-34275,04	44,00
-34170,27	29,00
-34065,98	2,00
-33962,16	44,00
-33858,81	40,00
-33755,92	239,00
-33653,49	102,00
-33551,52	-23,00
-33450,01	102,00
-33348,94	52,00
-33248,33	-24,00
-33148,16	19,00
-33048,43	164,00
-32949,14	-49,00
-32850,29	-101,00
-32751,87	80,00
-32653,89	26,00
-32556,33	-19,00
-32459,20	35,00
-32362,49	129,00
-32266,19	64,00
-32170,32	-3,00
-32074,86	59,00
-31979,82	-46,00
-31885,18	-38,00
-31790,95	75,00
-31697,12	-67,00
-31603,69	99,00
-31510,67	44,00
-31418,04	3,00
-31325,80	53,00
-31233,95	155,00
-31142,49	82,00
-31051,42	123,00
-30960,73	12,00
-30870,43	26,00
-30780,50	52,00
-30690,95	47,00
-30601,77	99,00
-30512,97	190,00
-30424,53	56,00
-30336,46	10,00
-30248,76	27,00
-30161,42	173,00
-30074,44	55,00
-29987,81	114,00
-29901,55	83,00
-29815,63	80,00
-29730,07	36,00
-29644,86	33,00
-29560,00	-81,00
-29475,48	89,00
-29391,30	-25,00
-29307,47	18,00
-29223,97	70,00
-29140,81	144,00
-29057,99	15,00
-28975,50	27,00
-28893,34	100,00
-28811,51	44,00
-28730,00	126,00
-28648,82	46,00
-28567,97	8,00
-28487,43	39,00
-28407,21	20,00
-28327,32	100,00
-28247,73	67,00
-28168,46	106,00
-28089,50	20,00
-28010,85	11,00
-27932,51	90,00
-27854,48	97,00
-27776,75	32,00
-27699,32	55,00
-27622,19	18,00
-27545,37	66,00
-27468,84	96,00
-27392,60	8,00
-27316,66	45,00
-27241,01	140,00
-27165,66	23,00
-27090,59	3,00
-27015,81	107,00
-26941,31	16,00
-26867,10	0,00
-26793,17	28,00
-26719,52	-94,00
-26646,15	26,00
-26573,06	90,00
-26500,24	103,00
-26427,70	37,00
-26355,43	99,00
-26283,43	10,00
-26211,71	21,00
-26140,25	20,00
-26069,06	45,00
-25998,13	104,00
-25927,46	18,00
-25857,06	28,00
-25786,92	101,00
-25717,04	39,00
-25647,42	59,00
-25578,05	-23,00
-25508,94	149,00
-25440,09	38,00
-25371,48	189,00
-25303,13	94,00
-25235,02	69,00
-25167,17	-55,00
-25099,56	-22,00
-25032,19	238,00
-24965,07	51,00
-24898,20	88,00
-24831,56	9,00
-24765,17	53,00
-24699,01	86,00
-24633,10	45,00
-24567,41	82,00
-24501,97	64,00
-24436,75	-40,00
-24371,77	-5,00
-24307,03	42,00
-24242,51	17,00
-24178,22	2,00
-24114,16	105,00
-24050,32	70,00
-23986,71	25,00
-23923,32	36,00
-23860,16	-53,00
-23797,22	50,00
-23734,50	94,00
-23672,00	-43,00
-23609,71	79,00
-23547,65	35,00
-23485,80	38,00
-23424,16	7,00
-23362,74	18,00
-23301,53	-6,00
-23240,54	-95,00
-23179,75	93,00
-23119,17	97,00
-23058,80	186,00
-22998,64	-18,00
-22938,68	103,00
-22878,93	25,00
-22819,39	64,00
-22760,04	-68,00
-22700,90	-40,00
-22641,96	59,00
-22583,22	11,00
-22524,68	85,00
-22466,33	43,00
-22408,19	-73,00
-22350,23	-11,00
-22292,48	20,00
-22234,92	33,00
-22177,55	63,00
-22120,37	-42,00
-22063,38	106,00
-22006,58	67,00
-21949,98	52,00
-21893,56	112,00
-21837,33	-29,00
-21781,28	-36,00
-21725,42	58,00
-21669,74	-7,00
-21614,25	142,00
-21558,94	-22,00
-21503,81	84,00
-21448,86	30,00
-21394,10	37,00
-21339,51	7,00
-21285,10	86,00
-21230,86	39,00
-21176,81	85,00
-21122,93	-11,00
-21069,22	7,00
-21015,69	44,00
-20962,33	48,00
-20909,14	60,00
-20856,13	-31,00
-20803,28	-9,00
-20750,61	29,00
-20698,10	-16,00
-20645,76	78,00
-20593,59	32,00
-20541,59	126,00
-20489,75	-96,00
-20438,07	29,00
-20386,56	20,00
-20335,22	119,00
-20284,03	-19,00
-20233,01	-45,00
-20182,15	27,00
-20131,45	-146,00
-20080,91	67,00
-20030,52	-69,00
-19980,30	-50,00
-19930,23	17,00
-19880,32	76,00
-19830,56	-42,00
-19780,96	109,00
-19731,52	100,00
-19682,23	28,00
-19633,09	73,00
-19584,10	-10,00
-19535,26	178,00
-19486,58	138,00
-19438,04	-24,00
-19389,66	-32,00
-19341,42	-127,00
-19293,33	98,00
-19245,39	34,00
-19197,60	90,00
-19149,95	58,00
-19102,45	115,00
-19055,09	79,00
-19007,87	96,00
-18960,80	71,00
-18913,87	100,00
-18867,09	-80,00
-18820,44	-48,00
-18773,94	58,00
-18727,57	-67,00
-18681,35	29,00
-18635,26	-18,00
-18589,31	80,00
-18543,50	-83,00
-18497,83	-34,00
-18452,29	43,00
-18406,89	44,00
-18361,63	104,00
-18316,50	63,00
-18271,50	110,00
-18226,63	95,00
-18181,90	38,00
-18137,30	134,00
-18092,84	-38,00
-18048,50	92,00
-18004,29	96,00
-17960,22	-5,00
-17916,27	106,00
-17872,45	27,00
-17828,76	99,00
-17785,20	14,00
-17741,77	-4,00
-17698,46	158,00
-17655,28	-82,00
-17612,22	18,00
-17569,29	128,00
-17526,48	7,00
-17483,79	110,00
-17441,23	90,00
-17398,79	29,00
-17356,48	89,00
-17314,28	-21,00
-17272,21	88,00
-17230,26	108,00
-17188,42	206,00
-17146,71	70,00
-17105,12	44,00
-17063,64	61,00
-17022,28	176,00
-16981,04	236,00
-16939,92	32,00
-16898,91	-52,00
-16858,02	87,00
-16817,25	17,00
-16776,59	33,00
-16736,04	-39,00
-16695,61	43,00
-16655,29	59,00
-16615,09	34,00
-16574,99	7,00
-16535,01	157,00
-16495,15	11,00
-16455,39	-30,00
-16415,74	14,00
-16376,21	34,00
-16336,78	41,00
-16297,46	19,00
-16258,26	76,00
-16219,16	56,00
-16180,17	-11,00
-16141,28	128,00
-16102,51	42,00
-16063,84	55,00
-16025,27	11,00
-15986,82	99,00
-15948,46	-6,00
-15910,22	50,00
-15872,07	75,00
-15834,04	31,00
-15796,10	7,00
-15758,27	153,00
-15720,54	89,00
-15682,91	-14,00
-15645,39	3,00
-15607,97	11,00
-15570,64	1,00
-15533,42	11,00
-15496,30	95,00
-15459,28	120,00
-15422,36	87,00
-15385,54	6,00
-15348,82	14,00
-15312,19	-17,00
-15275,66	-20,00
-15239,23	179,00
-15202,90	-6,00
-15166,67	32,00
-15130,53	26,00
-15094,48	13,00
-15058,54	49,00
-15022,68	0,00
-14986,93	54,00
-14951,26	104,00
-14915,69	53,00
-14880,22	74,00
-14844,84	35,00
-14809,55	133,00
-14774,35	113,00
-14739,25	-51,00
-14704,24	78,00
-14669,32	-103,00
-14634,49	153,00
-14599,75	139,00
-14565,10	18,00
-14530,55	-26,00
-14496,08	46,00
-14461,70	-13,00
-14427,41	-25,00
-14393,21	25,00
-14359,10	51,00
-14325,07	-48,00
-14291,14	-8,00
-14257,29	-54,00
-14223,52	74,00
-14189,85	-2,00
-14156,26	76,00
-14122,76	95,00
-14089,34	162,00
-14056,01	124,00
-14022,76	78,00
-13989,60	-87,00
-13956,52	135,00
-13923,53	-22,00
-13890,62	31,00
-13857,79	42,00
-13825,05	129,00
-13792,39	31,00
-13759,81	57,00
-13727,31	-1,00
-13694,90	63,00
-13662,57	53,00
-13630,31	5,00
-13598,14	-88,00
-13566,05	67,00
-13534,05	91,00
-13502,12	2,00
-13470,27	40,00
-13438,50	78,00
-13406,80	-56,00
-13375,19	94,00
-13343,66	1,00
-13312,20	81,00
-13280,83	9,00
-13249,53	-18,00
-13218,30	36,00
-13187,16	33,00
-13156,09	54,00
-13125,10	28,00
-13094,18	39,00
-13063,34	16,00
-13032,58	-21,00
-13001,89	128,00
-12971,28	-49,00
-12940,74	98,00
-12910,27	6,00
-12879,88	113,00
-12849,57	128,00
-12819,33	98,00
-12789,16	-24,00
-12759,06	60,00
-12729,04	109,00
-12699,09	182,00
-12669,21	67,00
-12639,41	11,00
-12609,68	28,00
-12580,02	80,00
-12550,43	23,00
-12520,91	-44,00
-12491,46	112,00
-12462,08	-23,00
-12432,77	-76,00
-12403,54	-87,00
-12374,37	152,00
-12345,27	143,00
-12316,24	-18,00
-12287,29	25,00
-12258,40	114,00
-12229,57	63,00
-12200,82	101,00
-12172,14	-44,00
-12143,52	105,00
-12114,97	38,00
-12086,49	45,00
-12058,07	-23,00
-12029,73	69,00
-12001,44	-13,00
-11973,23	61,00
-11945,08	-26,00
-11917,00	147,00
-11888,98	99,00
-11861,03	84,00
-11833,15	39,00
-11805,32	1,00
-11777,57	56,00
-11749,88	-9,00
-11722,25	-19,00
-11694,69	86,00
-11667,19	50,00
-11639,75	27,00
-11612,38	-96,00
-11585,07	108,00
-11557,83	-36,00
-11530,65	5,00
-11503,53	66,00
-11476,47	72,00
-11449,48	118,00
-11422,54	-123,00
-11395,67	34,00
-11368,86	82,00
-11342,11	83,00
-11315,43	-61,00
-11288,80	18,00
-11262,23	84,00
-11235,73	103,00
-11209,28	-4,00
-11182,90	23,00
-11156,57	110,00
-11130,31	2,00
-11104,10	-4,00
-11077,96	61,00
-11051,87	108,00
-11025,84	54,00
-10999,87	37,00
-10973,96	0,00
-10948,11	-11,00
-10922,31	56,00
-10896,58	81,00
-10870,90	-13,00
-10845,28	-23,00
-10819,71	59,00
-10794,20	21,00
-10768,75	70,00
-10743,36	2,00
-10718,02	-42,00
-10692,74	57,00
-10667,52	189,00
-10642,35	123,00
-10617,24	72,00
-10592,18	105,00
-10567,18	94,00
-10542,23	93,00
-10517,34	204,00
-10492,51	22,00
-10467,72	151,00
-10443,00	156,00
-10418,32	58,00
-10393,70	-62,00
-10369,14	156,00
-10344,63	-6,00
-10320,17	139,00
-10295,77	103,00
-10271,42	86,00
-10247,12	78,00
-10222,88	82,00
-10198,68	133,00
-10174,54	81,00
-10150,46	-5,00
-10126,42	181,00
-10102,44	35,00
-10078,51	40,00
-10054,63	58,00
-10030,80	201,00
-10007,03	223,00
-9983,30	125,00
-9959,63	-34,00
-9936,01	305,00
-9912,44	113,00
-9888,92	217,00
-9865,44	161,00
-9842,02	65,00
-9818,65	362,00
-9795,33	226,00
-9772,06	130,00
-9748,84	149,00
-9725,67	109,00
-9702,55	191,00
-9679,47	154,00
-9656,45	268,00
-9633,47	422,00
-9610,55	300,00
-9587,67	161,00
-9564,84	327,00
-9542,06	365,00
-9519,32	450,00
-9496,64	410,00
-9474,00	436,00
-9451,41	529,00
-9428,87	338,00
-9406,37	470,00
-9383,92	313,00
-9361,52	488,00
-9339,17	328,00
-9316,86	441,00
-9294,60	616,00
-9272,38	699,00
-9250,21	658,00
-9228,09	846,00
-9206,01	574,00
-9183,98	633,00
-9162,00	424,00
-9140,06	469,00
-9118,16	574,00
-9096,31	672,00
-9074,51	708,00
-9052,75	631,00
-9031,04	645,00
-9009,37	660,00
-8987,74	446,00
-8966,16	289,00
-8944,63	247,00
-8923,14	225,00
-8901,69	294,00
-8880,29	488,00
-8858,93	603,00
-8837,61	495,00
-8816,34	788,00
-8795,11	728,00
-8773,92	567,00
-8752,78	473,00
-8731,68	655,00
-8710,62	456,00
-8689,61	600,00
-8668,63	643,00
-8647,70	543,00
-8626,82	623,00
-8605,97	634,00
-8585,17	524,00
-8564,41	339,00
-8543,69	452,00
-8523,01	344,00
-8502,37	514,00
-8481,78	513,00
-8461,23	526,00
-8440,71	527,00
-8420,24	629,00
-8399,81	675,00
-8379,42	642,00
-8359,08	493,00
-8338,77	562,00
-8318,50	449,00
-8298,27	477,00
-8278,09	444,00
-8257,94	532,00
-8237,83	599,00
-8217,76	574,00
-8197,74	660,00
-8177,75	566,00
-8157,80	520,00
-8137,89	627,00
-8118,02	580,00
-8098,19	463,00
-8078,40	515,00
-8058,65	560,00
-8038,93	651,00
-8019,26	565,00
-7999,62	561,00
-7980,02	341,00
-7960,46	442,00
-7940,94	517,00
-7921,46	351,00
-7902,01	428,00
-7882,60	517,00
-7863,23	594,00
-7843,90	395,00
-7824,61	461,00
-7805,35	603,00
-7786,13	558,00
-7766,95	535,00
-7747,80	493,00
-7728,69	584,00
-7709,62	457,00
-7690,59	473,00
-7671,59	602,00
-7652,63	506,00
-7633,70	594,00
-7614,81	460,00
-7595,96	542,00
-7577,15	397,00
-7558,37	432,00
-7539,62	461,00
-7520,91	506,00
-7502,24	452,00
-7483,60	552,00
-7465,00	423,00
-7446,44	452,00
-7427,91	289,00
-7409,41	192,00
-7390,95	305,00
-7372,53	178,00
-7354,14	116,00
-7335,78	51,00
-7317,46	433,00
-7299,18	394,00
-7280,92	381,00
-7262,71	422,00
-7244,52	572,00
-7226,38	569,00
-7208,26	562,00
-7190,18	543,00
-7172,14	485,00
-7154,12	304,00
-7136,15	386,00
-7118,20	476,00
-7100,29	445,00
-7082,41	457,00
-7064,57	420,00
-7046,76	270,00
-7028,98	218,00
-7011,24	267,00
-6993,53	218,00
-6975,85	230,00
-6958,20	90,00
-6940,59	133,00
-6923,01	251,00
-6905,46	93,00
-6887,94	292,00
-6870,46	343,00
-6853,01	338,00
-6835,59	400,00
-6818,21	397,00
-6800,85	404,00
-6783,53	156,00
-6766,24	60,00
-6748,98	-31,00
-6731,76	8,00
-6714,56	-92,00
-6697,40	163,00
-6680,26	-35,00
-6663,16	254,00
-6646,09	103,00
-6629,05	327,00
-6612,05	346,00
-6595,07	319,00
-6578,13	240,00
-6561,21	155,00
-6544,33	126,00
-6527,47	177,00
-6510,65	-26,00
-6493,86	-44,00
-6477,10	31,00
-6460,36	58,00
-6443,66	91,00
-6426,99	71,00
-6410,35	109,00
-6393,74	114,00
-6377,16	207,00
-6360,61	106,00
-6344,09	83,00
-6327,59	123,00
-6311,13	120,00
-6294,70	146,00
-6278,29	226,00
-6261,92	382,00
-6245,58	267,00
-6229,26	347,00
-6212,97	317,00
-6196,72	124,00
-6180,49	10,00
-6164,29	-15,00
-6148,12	85,00
-6131,98	-5,00
-6115,86	90,00
-6099,78	-17,00
-6083,72	18,00
-6067,69	-9,00
-6051,69	-59,00
-6035,72	38,00
-6019,78	120,00
-6003,87	-21,00
-5987,98	150,00
-5972,12	266,00
-5956,29	154,00
-5940,49	187,00
-5924,71	84,00
-5908,96	74,00
-5893,24	-92,00
-5877,55	132,00
-5861,89	-8,00
-5846,25	-70,00
-5830,64	-57,00
-5815,05	31,00
-5799,50	27,00
-5783,97	-5,00
-5768,47	132,00
-5752,99	78,00
-5737,55	138,00
-5722,12	162,00
-5706,73	240,00
-5691,36	181,00
-5676,02	89,00
-5660,71	165,00
-5645,42	92,00
-5630,16	62,00
-5614,92	156,00
-5599,71	149,00
-5584,53	-64,00
-5569,37	86,00
-5554,24	1156,00
-5539,14	89,00
-5524,06	108,00
-5509,01	139,00
-5493,98	42,00
-5478,98	122,00
-5464,00	110,00
-5449,05	65,00
-5434,13	-38,00
-5419,23	-24,00
-5404,36	55,00
-5389,51	72,00
-5374,69	223,00
-5359,89	40,00
-5345,12	308,00
-5330,37	320,00
-5315,65	81,00
-5300,95	138,00
-5286,28	60,00
-5271,63	133,00
-5257,01	51,00
-5242,41	197,00
-5227,84	3,00
-5213,29	57,00
-5198,76	-54,00
-5184,26	55,00
-5169,79	32,00
-5155,33	58,00
-5140,91	124,00
-5126,51	94,00
-5112,13	67,00
-5097,77	131,00
-5083,44	4,00
-5069,13	-42,00
-5054,85	150,00
-5040,59	73,00
-5026,36	63,00
-5012,15	148,00
-4997,96	118,00
-4983,80	24,00
-4969,66	55,00
-4955,54	59,00
-4941,44	123,00
-4927,37	123,00
-4913,33	227,00
-4899,30	219,00
-4885,30	247,00
-4871,33	152,00
-4857,37	110,00
-4843,44	104,00
-4829,53	36,00
-4815,65	129,00
-4801,79	44,00
-4787,95	27,00
-4774,13	44,00
-4760,34	58,00
-4746,56	-74,00
-4732,82	29,00
-4719,09	84,00
-4705,38	247,00
-4691,70	173,00
-4678,04	150,00
-4664,41	68,00
-4650,79	-46,00
-4637,20	147,00
-4623,63	90,00
-4610,08	33,00
-4596,56	112,00
-4583,05	201,00
-4569,57	59,00
-4556,11	59,00
-4542,67	38,00
-4529,25	84,00
-4515,86	65,00
-4502,49	170,00
-4489,13	260,00
-4475,80	133,00
-4462,49	151,00
-4449,21	76,00
-4435,94	121,00
-4422,70	89,00
-4409,47	84,00
-4396,27	154,00
-4383,09	77,00
-4369,93	17,00
-4356,79	40,00
-4343,67	49,00
-4330,58	3,00
-4317,50	-51,00
-4304,45	95,00
-4291,41	55,00
-4278,40	-5,00
-4265,41	13,00
-4252,44	-12,00
-4239,49	132,00
-4226,55	128,00
-4213,65	68,00
-4200,76	3,00
-4187,89	44,00
-4175,04	66,00
-4162,21	88,00
-4149,40	100,00
-4136,61	217,00
-4123,85	-25,00
-4111,10	50,00
-4098,37	39,00
-4085,66	126,00
-4072,98	181,00
-4060,31	79,00
-4047,66	-15,00
-4035,04	26,00
-4022,43	64,00
-4009,84	179,00
-3997,27	69,00
-3984,72	81,00
-3972,19	-3,00
-3959,69	34,00
-3947,20	59,00
-3934,73	-62,00
-3922,27	114,00
-3909,84	105,00
-3897,43	51,00
-3885,04	7,00
-3872,67	46,00
-3860,31	-35,00
-3847,98	157,00
-3835,66	-51,00
-3823,36	63,00
-3811,09	32,00
-3798,83	-71,00
-3786,59	28,00
-3774,37	131,00
-3762,17	52,00
-3749,98	141,00
-3737,82	2,00
-3725,67	96,00
-3713,55	-8,00
-3701,44	122,00
-3689,35	-14,00
-3677,28	-16,00
-3665,22	-108,00
-3653,19	14,00
-3641,17	76,00
-3629,18	65,00
-3617,20	101,00
-3605,24	94,00
-3593,30	-138,00
-3581,37	2,00
-3569,47	146,00
-3557,58	49,00
-3545,71	68,00
-3533,86	29,00
-3522,02	-69,00
-3510,21	1,00
-3498,41	-7,00
-3486,63	75,00
-3474,87	8,00
-3463,12	156,00
-3451,40	99,00
-3439,69	71,00
-3428,00	184,00
-3416,33	-33,00
-3404,67	52,00
-3393,03	127,00
-3381,41	-72,00
-3369,81	-124,00
-3358,22	207,00
-3346,66	70,00
-3335,10	58,00
-3323,57	127,00
-3312,06	92,00
-3300,56	-42,00
-3289,08	25,00
-3277,61	29,00
-3266,16	148,00
-3254,73	164,00
-3243,32	81,00
-3231,92	74,00
-3220,55	47,00
-3209,18	-36,00
-3197,84	13,00
-3186,51	116,00
-3175,20	-15,00
-3163,90	60,00
-3152,63	-66,00
-3141,36	57,00
-3130,12	59,00
-3118,89	-10,00
-3107,68	106,00
-3096,49	10,00
-3085,31	30,00
-3074,15	65,00
-3063,00	-15,00
-3051,87	-25,00
-3040,76	-33,00
-3029,67	-50,00
-3018,59	-38,00
-3007,52	98,00
-2996,48	-26,00
-2985,44	174,00
-2974,43	32,00
-2963,43	57,00
-2952,45	44,00
-2941,48	-6,00
-2930,53	-70,00
-2919,60	-57,00
-2908,68	85,00
-2897,78	88,00
-2886,89	66,00
-2876,02	136,00
-2865,17	89,00
-2854,33	72,00
-2843,50	47,00
-2832,70	60,00
-2821,90	26,00
-2811,13	-67,00
-2800,37	-52,00
-2789,62	80,00
-2778,89	105,00
-2768,18	66,00
-2757,48	31,00
-2746,80	59,00
-2736,13	-16,00
-2725,48	138,00
-2714,84	25,00
-2704,22	79,00
-2693,61	-53,00
-2683,02	13,00
-2672,45	159,00
-2661,89	80,00
-2651,34	-28,00
-2640,81	86,00
-2630,30	-9,00
-2619,80	66,00
-2609,31	-90,00
-2598,84	-28,00
-2588,39	65,00
-2577,95	168,00
-2567,52	113,00
-2557,11	-30,00
-2546,71	147,00
-2536,33	213,00
-2525,97	63,00
-2515,62	-46,00
-2505,28	16,00
-2494,96	-22,00
-2484,65	-2,00
-2474,36	370,00
-2464,08	0,00
-2453,82	52,00
-2443,57	194,00
-2433,33	16,00
-2423,11	58,00
-2412,91	-32,00
-2402,72	97,00
-2392,54	178,00
-2382,38	40,00
-2372,23	92,00
-2362,09	670,00
-2351,97	87,00
-2341,87	38,00
-2331,78	-4,00
-2321,70	-90,00
-2311,64	120,00
-2301,59	56,00
-2291,55	-23,00
-2281,53	-73,00
-2271,53	-31,00
-2261,53	107,00
-2251,55	-1,00
-2241,59	-8,00
-2231,64	47,00
-2221,70	5,00
-2211,78	41,00
-2201,87	138,00
-2191,97	-8,00
-2182,09	35,00
-2172,22	122,00
-2162,37	51,00
-2152,53	26,00
-2142,70	-12,00
-2132,89	-46,00
-2123,09	-17,00
-2113,30	102,00
-2103,53	146,00
-2093,77	-69,00
-2084,02	34,00
-2074,29	-16,00
-2064,57	11,00
-2054,86	83,00
-2045,17	62,00
-2035,49	110,00
-2025,82	16,00
-2016,17	-21,00
-2006,53	42,00
-1996,91	65,00
-1987,29	106,00
-1977,69	42,00
-1968,11	49,00
-1958,53	131,00
-1948,97	49,00
-1939,42	101,00
-1929,89	-11,00
-1920,37	117,00
-1910,86	23,00
-1901,36	-25,00
-1891,88	22,00
-1882,41	148,00
-1872,95	136,00
-1863,51	-60,00
-1854,08	72,00
-1844,66	104,00
-1835,26	116,00
-1825,86	47,00
-1816,48	62,00
-1807,11	-4,00
-1797,76	-105,00
-1788,42	25,00
-1779,09	5,00
-1769,77	8,00
-1760,47	49,00
-1751,17	113,00
-1741,89	-11,00
-1732,63	46,00
-1723,37	151,00
-1714,13	-35,00
-1704,90	-16,00
-1695,68	45,00
-1686,48	44,00
-1677,29	115,00
-1668,11	177,00
-1658,94	166,00
-1649,78	-16,00
-1640,64	159,00
-1631,51	127,00
-1622,39	34,00
-1613,28	-17,00
-1604,19	2,00
-1595,10	74,00
-1586,03	45,00
-1576,97	0,00
-1567,93	72,00
-1558,89	-20,00
-1549,87	23,00
-1540,86	11,00
-1531,86	111,00
-1522,87	-16,00
-1513,90	189,00
-1504,93	-135,00
-1495,98	39,00
-1487,04	158,00
-1478,12	10,00
-1469,20	-14,00
-1460,30	-10,00
-1451,40	37,00
-1442,52	225,00
-1433,65	-80,00
-1424,80	72,00
-1415,95	106,00
-1407,12	36,00
-1398,30	162,00
-1389,48	104,00
-1380,69	27,00
-1371,90	44,00
-1363,12	76,00
-1354,36	-43,00
-1345,60	-9,00
-1336,86	41,00
-1328,13	60,00
-1319,41	-9,00
-1310,70	124,00
-1302,01	95,00
-1293,32	7,00
-1284,65	48,00
-1275,99	92,00
-1267,33	27,00
-1258,69	48,00
-1250,06	44,00
-1241,45	84,00
-1232,84	26,00
-1224,25	21,00
-1215,66	40,00
-1207,09	18,00
-1198,53	119,00
-1189,97	132,00
-1181,43	13,00
-1172,91	21,00
-1164,39	88,00
-1155,88	105,00
-1147,38	96,00
-1138,90	81,00
-1130,43	57,00
-1121,96	146,00
-1113,51	94,00
-1105,07	-90,00
-1096,64	112,00
-1088,22	138,00
-1079,81	96,00
-1071,41	65,00
-1063,02	135,00
-1054,65	109,00
-1046,28	-37,00
-1037,92	30,00
-1029,58	150,00
-1021,24	71,00
-1012,92	109,00
-1004,61	-103,00
-996,30	63,00
-988,01	-84,00
-979,73	-43,00
-971,46	42,00
-963,20	-26,00
-954,95	-37,00
-946,71	-32,00
-938,48	110,00
-930,26	103,00
-922,06	148,00
-913,86	-12,00
-905,67	52,00
-897,49	-36,00
-889,33	-6,00
-881,17	13,00
-873,02	-42,00
-864,89	67,00
-856,76	116,00
-848,65	90,00
-840,54	-76,00
-832,45	-74,00
-824,36	36,00
-816,29	6,00
-808,22	15,00
-800,17	-117,00
-792,12	114,00
-784,09	-4,00
-776,06	35,00
-768,05	30,00
-760,04	29,00
-752,05	86,00
-744,07	3,00
-736,09	-41,00
-728,13	34,00
-720,17	1,00
-712,23	78,00
-704,29	152,00
-696,37	114,00
-688,45	-19,00
-680,55	-35,00
-672,65	35,00
-664,77	169,00
-656,89	30,00
-649,03	157,00
-641,17	83,00
-633,32	23,00
-625,49	34,00
-617,66	89,00
-609,84	94,00
-602,03	73,00
-594,23	0,00
-586,45	97,00
-578,67	44,00
-570,90	36,00
-563,14	75,00
-555,39	35,00
-547,65	4,00
-539,91	36,00
-532,19	125,00
-524,48	51,00
-516,78	27,00
-509,08	167,00
-501,40	107,00
-493,72	42,00
-486,06	45,00
-478,40	114,00
-470,76	57,00
-463,12	190,00
-455,49	17,00
-447,87	59,00
-440,26	61,00
-432,66	-36,00
-425,07	37,00
-417,49	123,00
-409,92	31,00
-402,35	67,00
-394,80	116,00
-387,25	73,00
-379,72	-22,00
-372,19	83,00
-364,67	118,00
-357,17	87,00
-349,67	76,00
-342,18	30,00
-334,69	-39,00
-327,22	-30,00
-319,76	-22,00
-312,30	142,00
-304,86	202,00
-297,42	52,00
-290,00	-58,00
-282,58	208,00
-275,17	186,00
-267,77	37,00
-260,37	232,00
-252,99	120,00
-245,62	39,00
-238,25	122,00
-230,90	105,00
-223,55	22,00
-216,21	113,00
-208,88	175,00
-201,56	181,00
-194,25	127,00
-186,94	279,00
-179,65	95,00
-172,36	280,00
-165,08	255,00
-157,81	24,00
-150,55	299,00
-143,30	250,00
-136,06	400,00
-128,82	375,00
-121,60	405,00
-114,38	381,00
-107,17	455,00
-99,97	577,00
-92,78	554,00
-85,60	547,00
-78,42	953,00
-71,25	855,00
-64,10	1069,00
-56,95	1262,00
-49,81	1456,00
-42,67	1702,00
-35,55	2172,00
-28,43	2867,00
-21,33	4783,00
-14,23	15960,00
-7,14	55164,00
-0,05	54791,00
7,02	54542,00
14,09	52581,00
21,14	14259,00
28,19	5975,00
35,23	3730,00
42,27	2859,00
49,29	2332,00
56,31	1961,00
63,32	1649,00
70,32	1264,00
77,31	1195,00
84,29	903,00
91,27	892,00
98,23	783,00
105,19	745,00
112,14	852,00
119,09	1110,00
126,02	1807,00
132,95	1995,00
139,87	2054,00
146,78	1978,00
153,68	1919,00
160,58	1904,00
167,46	1826,00
174,34	1950,00
181,21	1928,00
188,08	1836,00
194,93	1634,00
201,78	1720,00
208,62	1697,00
215,45	1850,00
222,27	1825,00
229,09	1722,00
235,90	1656,00
242,70	1704,00
249,49	1644,00
256,27	1719,00
263,05	1729,00
269,82	1656,00
276,58	1548,00
283,33	1615,00
290,08	1616,00
296,82	1667,00
303,55	1570,00
310,27	1542,00
316,98	1531,00
323,69	1550,00
330,39	1525,00
337,08	1567,00
343,76	1556,00
350,44	1553,00
357,11	1517,00
363,77	1420,00
370,42	1501,00
377,07	1506,00
383,71	1384,00
390,34	1432,00
396,96	1495,00
403,58	1454,00
410,19	1486,00
416,79	1319,00
423,38	1437,00
429,97	1460,00
436,55	1467,00
443,12	1387,00
449,68	1345,00
456,24	1213,00
462,79	1138,00
469,33	1195,00
475,86	1271,00
482,39	1273,00
488,91	1200,00
495,42	1268,00
501,93	1396,00
508,42	1231,00
514,91	1246,00
521,40	1253,00
527,87	1289,00
534,34	1178,00
540,80	1207,00
547,25	1120,00
553,70	1208,00
560,14	1102,00
566,57	1197,00
573,00	1056,00
579,41	1150,00
585,83	1072,00
592,23	1020,00
598,62	1138,00
605,01	1066,00
611,40	1112,00
617,77	1062,00
624,14	1159,00
630,50	1165,00
636,85	960,00
643,20	1112,00
649,54	1078,00
655,87	976,00
662,20	1067,00
668,52	908,00
674,83	1113,00
681,13	944,00
687,43	834,00
693,72	977,00
700,00	1032,00
706,28	1031,00
712,55	985,00
718,81	994,00
725,07	964,00
731,32	1009,00
737,56	988,00
743,79	956,00
750,02	1087,00
756,24	1004,00
762,46	900,00
768,67	921,00
774,87	939,00
781,06	818,00
787,25	994,00
793,43	1048,00
799,60	1005,00
805,77	924,00
811,93	1142,00
818,08	1006,00
824,23	1115,00
830,37	1056,00
836,50	1000,00
842,63	928,00
848,75	916,00
854,87	918,00
860,97	1031,00
867,07	1176,00
873,17	986,00
879,25	872,00
885,33	950,00
891,41	1126,00
897,47	896,00
903,53	993,00
909,59	1012,00
915,63	880,00
921,67	889,00
927,71	816,00
933,74	863,00
939,76	810,00
945,77	795,00
951,78	834,00
957,78	844,00
963,78	954,00
969,77	807,00
975,75	865,00
981,72	828,00
987,69	644,00
993,66	816,00
999,61	764,00
1005,56	759,00
1011,51	877,00
1017,44	761,00
1023,37	914,00
1029,30	803,00
1035,22	866,00
1041,13	908,00
1047,03	863,00
1052,93	892,00
1058,83	1150,00
1064,71	1195,00
1070,59	1154,00
1076,47	991,00
1082,33	883,00
1088,20	905,00
1094,05	902,00
1099,90	801,00
1105,74	814,00
1111,58	927,00
1117,41	839,00
1123,23	1087,00
1129,05	1093,00
1134,86	1126,00
1140,67	960,00
1146,47	948,00
1152,26	856,00
1158,05	686,00
1163,83	776,00
1169,60	844,00
1175,37	771,00
1181,13	802,00
1186,89	881,00
1192,64	782,00
1198,38	825,00
1204,12	694,00
1209,85	750,00
1215,58	872,00
1221,30	686,00
1227,02	909,00
1232,72	829,00
1238,43	729,00
1244,12	825,00
1249,81	829,00
1255,50	829,00
1261,17	825,00
1266,85	792,00
1272,51	967,00
1278,17	861,00
1283,83	903,00
1289,47	1193,00
1295,12	1382,00
1300,75	1193,00
1306,38	1144,00
1312,01	1060,00
1317,63	878,00
1323,24	892,00
1328,85	834,00
1334,45	926,00
1340,04	840,00
1345,63	927,00
1351,22	889,00
1356,80	866,00
1362,37	790,00
1367,93	950,00
1373,49	980,00
1379,05	880,00
1384,60	1035,00
1390,14	911,00
1395,68	874,00
1401,21	866,00
1406,74	867,00
1412,26	1017,00
1417,77	962,00
1423,28	1049,00
1428,78	1060,00
1434,28	1323,00
1439,77	1419,00
1445,26	1384,00
1450,74	1359,00
1456,22	1214,00
1461,68	1258,00
1467,15	1240,00
1472,61	1019,00
1478,06	1011,00
1483,51	1000,00
1488,95	814,00
1494,38	809,00
1499,81	863,00
1505,24	713,00
1510,65	655,00
1516,07	904,00
1521,48	813,00
1526,88	723,00
1532,27	726,00
1537,67	849,00
1543,05	814,00
1548,43	726,00
1553,81	852,00
1559,18	812,00
1564,54	662,00
1569,90	669,00
1575,25	694,00
1580,60	639,00
1585,94	651,00
1591,28	625,00
1596,61	634,00
1601,93	668,00
1607,25	671,00
1612,57	751,00
1617,88	782,00
1623,18	699,00
1628,48	668,00
1633,77	617,00
1639,06	614,00
1644,34	591,00
1649,62	609,00
1654,89	659,00
1660,16	623,00
1665,42	616,00
1670,67	595,00
1675,92	525,00
1681,17	502,00
1686,41	605,00
1691,64	550,00
1696,87	583,00
1702,10	596,00
1707,32	712,00
1712,53	645,00
1717,74	578,00
1722,94	480,00
1728,14	492,00
1733,33	549,00
1738,52	608,00
1743,70	588,00
1748,88	539,00
1754,05	552,00
1759,22	564,00
1764,38	607,00
1769,53	547,00
1774,69	453,00
1779,83	530,00
1784,97	533,00
1790,11	456,00
1795,24	649,00
1800,36	526,00
1805,48	530,00
1810,60	540,00
1815,71	396,00
1820,82	524,00
1825,92	474,00
1831,01	503,00
1836,10	439,00
1841,19	442,00
1846,26	594,00
1851,34	506,00
1856,41	495,00
1861,47	463,00
1866,53	519,00
1871,59	418,00
1876,64	329,00
1881,68	437,00
1886,72	436,00
1891,76	496,00
1896,79	455,00
1901,81	552,00
1906,83	362,00
1911,85	463,00
1916,86	472,00
1921,86	514,00
1926,86	468,00
1931,86	479,00
1936,85	416,00
1941,83	478,00
1946,81	346,00
1951,79	432,00
1956,76	385,00
1961,72	346,00
1966,68	327,00
1971,64	388,00
1976,59	463,00
1981,54	331,00
1986,48	323,00
1991,42	345,00
1996,35	354,00
2001,27	313,00
2006,20	352,00
2011,11	446,00
2016,03	384,00
2020,93	317,00
2025,84	398,00
2030,73	281,00
2035,63	333,00
2040,52	462,00
2045,40	341,00
2050,28	348,00
2055,15	324,00
2060,02	249,00
2064,89	333,00
2069,75	343,00
2074,60	256,00
2079,46	325,00
2084,30	312,00
2089,14	366,00
2093,98	289,00
2098,81	386,00
2103,64	352,00
2108,46	227,00
2113,28	390,00
2118,09	332,00
2122,90	269,00
2127,70	343,00
2132,50	342,00
2137,30	369,00
2142,09	356,00
2146,87	316,00
2151,66	287,00
2156,43	271,00
2161,20	130,00
2165,97	325,00
2170,73	304,00
2175,49	370,00
2180,24	363,00
2184,99	414,00
2189,74	385,00
2194,48	337,00
2199,21	333,00
2203,94	251,00
2208,67	402,00
2213,39	335,00
2218,11	177,00
2222,82	375,00
2227,53	196,00
2232,23	331,00
2236,93	381,00
2241,63	291,00
2246,32	268,00
2251,00	266,00
2255,68	357,00
2260,36	228,00
2265,03	287,00
2269,70	257,00
2274,36	272,00
2279,02	226,00
2283,68	300,00
2288,33	254,00
2292,97	239,00
2297,61	306,00
2302,25	318,00
2306,88	357,00
2311,51	243,00
2316,14	180,00
2320,75	361,00
2325,37	228,00
2329,98	354,00
2334,59	321,00
2339,19	200,00
2343,79	151,00
2348,38	226,00
2352,97	227,00
2357,55	216,00
2362,13	178,00
2366,71	368,00
2371,28	258,00
2375,85	155,00
2380,41	92,00
2384,97	183,00
2389,52	121,00
2394,07	192,00
2398,62	164,00
2403,16	230,00
2407,70	310,00
2412,23	291,00
2416,76	319,00
2421,29	250,00
2425,81	235,00
2430,32	221,00
2434,84	239,00
2439,34	175,00
2443,85	99,00
2448,35	215,00
2452,84	104,00
2457,33	211,00
2461,82	326,00
2466,30	208,00
2470,78	270,00
2475,25	281,00
2479,72	128,00
2484,19	244,00
2488,65	287,00
2493,11	175,00
2497,56	282,00
2502,01	217,00
2506,46	232,00
2510,90	43,00
2515,34	241,00
2519,77	108,00
2524,20	328,00
2528,62	91,00
2533,04	262,00
2537,46	242,00
2541,87	205,00
2546,28	38,00
2550,68	309,00
2555,08	175,00
2559,48	205,00
2563,87	76,00
2568,26	39,00
2572,64	281,00
2577,02	269,00
2581,40	245,00
2585,77	206,00
2590,14	167,00
2594,50	47,00
2598,86	180,00
2603,22	116,00
2607,57	177,00
2611,92	175,00
2616,26	17,00
2620,60	204,00
2624,94	125,00
2629,27	193,00
2633,60	158,00
2637,92	222,00
2642,24	95,00
2646,56	80,00
2650,87	98,00
2655,18	155,00
2659,48	192,00
2663,78	187,00
2668,08	298,00
2672,37	390,00
2676,66	201,00
2680,95	217,00
2685,23	166,00
2689,50	248,00
2693,78	183,00
2698,05	221,00
2702,31	165,00
2706,57	286,00
2710,83	306,00
2715,08	308,00
2719,33	248,00
2723,58	296,00
2727,82	334,00
2732,06	268,00
2736,29	187,00
2740,53	196,00
2744,75	308,00
2748,97	146,00
2753,19	345,00
2757,41	309,00
2761,62	311,00
2765,83	196,00
2770,03	148,00
2774,23	261,00
2778,43	223,00
2782,62	248,00
2786,81	212,00
2791,00	199,00
2795,18	272,00
2799,35	123,00
2803,53	290,00
2807,70	394,00
2811,86	211,00
2816,03	423,00
2820,19	325,00
2824,34	287,00
2828,49	500,00
2832,64	539,00
2836,78	527,00
2840,92	681,00
2845,06	775,00
2849,19	735,00
2853,32	809,00
2857,45	752,00
2861,57	904,00
2865,69	860,00
2869,80	884,00
2873,91	903,00
2878,02	885,00
2882,12	896,00
2886,22	1013,00
2890,32	827,00
2894,41	836,00
2898,50	775,00
2902,58	721,00
2906,67	708,00
2910,74	684,00
2914,82	590,00
2918,89	601,00
2922,96	569,00
2927,02	559,00
2931,08	550,00
2935,13	555,00
2939,19	403,00
2943,24	487,00
2947,28	244,00
2951,32	273,00
2955,36	306,00
2959,40	365,00
2963,43	209,00
2967,46	186,00
2971,48	346,00
2975,50	139,00
2979,52	217,00
2983,53	222,00
2987,54	297,00
2991,55	200,00
2995,55	213,00
2999,55	92,00
3003,54	206,00
3007,54	189,00
3011,53	157,00
3015,51	138,00
3019,49	123,00
3023,47	180,00
3027,45	178,00
3031,42	263,00
3035,39	29,00
3039,35	192,00
3043,31	20,00
3047,27	105,00
3051,22	122,00
3055,17	54,00
3059,12	71,00
3063,06	86,00
3067,00	-6,00
3070,94	77,00
3074,87	117,00
3078,80	186,00
3082,73	89,00
3086,65	-1,00
3090,57	34,00
3094,49	127,00
3098,40	209,00
3102,31	218,00
3106,22	116,00
3110,12	60,00
3114,02	153,00
3117,92	120,00
3121,81	131,00
3125,70	133,00
3129,58	38,00
3133,47	-14,00
3137,34	77,00
3141,22	63,00
3145,09	142,00
3148,96	85,00
3152,83	96,00
3156,69	48,00
3160,55	161,00
3164,40	-8,00
3168,26	46,00
3172,10	151,00
3175,95	95,00
3179,79	54,00
3183,63	0,00
3187,47	211,00
3191,30	218,00
3195,13	96,00
3198,95	50,00
3202,78	14,00
3206,60	139,00
3210,41	-1,00
3214,23	132,00
3218,03	24,00
3221,84	87,00
3225,64	63,00
3229,44	87,00
3233,24	226,00
3237,03	80,00
3240,82	-16,00
3244,61	50,00
3248,39	22,00
3252,17	172,00
3255,95	183,00
3259,72	147,00
3263,49	80,00
3267,26	27,00
3271,03	-13,00
3274,79	56,00
3278,54	160,00
3282,30	114,00
3286,05	191,00
3289,80	56,00
3293,54	-1,00
3297,29	191,00
3301,02	-12,00
3304,76	183,00
3308,49	143,00
3312,22	57,00
3315,95	60,00
3319,67	20,00
3323,39	124,00
3327,10	50,00
3330,82	225,00
3334,53	2,00
3338,24	-23,00
3341,94	96,00
3345,64	131,00
3349,34	19,00
3353,03	69,00
3356,72	-9,00
3360,41	-21,00
3364,10	118,00
3367,78	65,00
3371,46	132,00
3375,13	127,00
3378,81	15,00
3382,48	64,00
3386,14	91,00
3389,81	-12,00
3393,47	65,00
3397,12	122,00
3400,78	114,00
3404,43	146,00
3408,08	24,00
3411,72	89,00
3415,36	60,00
3419,00	-7,00
3422,64	-12,00
3426,27	169,00
3429,90	138,00
3433,53	61,00
3437,15	5,00
3440,77	101,00
3444,39	-55,00
3448,00	-10,00
3451,62	145,00
3455,22	110,00
3458,83	7,00
3462,43	63,00
3466,03	92,00
3469,63	-173,00
3473,22	64,00
3476,81	129,00
3480,40	11,00
3483,99	42,00
3487,57	44,00
3491,15	58,00
3494,72	-50,00
3498,29	155,00
3501,86	55,00
3505,43	59,00
3508,99	40,00
3512,56	36,00
3516,11	65,00
3519,67	95,00
3523,22	-16,00
3526,77	89,00
3530,32	36,00
3533,86	-28,00
3537,40	73,00
3540,94	55,00
3544,47	-77,00
3548,00	102,00
3551,53	124,00
3555,06	56,00
3558,58	80,00
3562,10	112,00
3565,62	151,00
3569,13	-9,00
3572,64	196,00
3576,15	57,00
3579,66	9,00
3583,16	-9,00
3586,66	-30,00
3590,16	84,00
3593,65	88,00
3597,14	-31,00
3600,63	85,00
3604,11	-13,00
3607,60	31,00
3611,08	82,00
3614,55	47,00
3618,03	9,00
3621,50	39,00
3624,97	62,00
3628,43	33,00
3631,90	-43,00
3635,36	143,00
3638,81	6,00
3642,27	-28,00
3645,72	171,00
3649,17	162,00
3652,61	67,00
3656,06	-70,00
3659,50	137,00
3662,93	-50,00
3666,37	33,00
3669,80	49,00
3673,23	26,00
3676,65	106,00
3680,08	-11,00
3683,50	78,00
3686,92	-68,00
3690,33	56,00
3693,74	-43,00
3697,15	51,00
3700,56	-8,00
3703,96	-72,00
3707,36	-97,00
3710,76	-54,00
3714,16	80,00
3717,55	-20,00
3720,94	40,00
3724,33	70,00
3727,71	7,00
3731,10	64,00
3734,48	55,00
3737,85	-72,00
3741,23	20,00
3744,60	-63,00
3747,97	-57,00
3751,33	159,00
3754,69	30,00
3758,05	100,00
3761,41	-108,00
3764,77	39,00
3768,12	45,00
3771,47	102,00
3774,82	61,00
3778,16	-3,00
3781,50	1,00
3784,84	3,00
3788,18	-1,00
>>>>>End Processed Spectral Data<<<<<
