SpectraSuite Data File
++++++++++++++++++++++++++++++++++++
Date: Mon Mar 09 15:29:44 ICT 2026
User: Administrator
Dark Spectrum Present: Yes
Reference Spectrum Present: No
Number of Sampled Component Spectra: 1
Spectrometers: MAYP113682
Integration Time (usec): 3000000 (MAYP113682)
Spectra Averaged: 1 (MAYP113682)
Boxcar Smoothing: 0 (MAYP113682)
Correct for Electrical Dark: No (MAYP113682)
Strobe/Lamp Enabled: No (MAYP113682)
Correct for Detector Non-linearity: No (MAYP113682)
Correct for Stray Light: No (MAYP113682)
Number of Pixels in Processed Spectrum: 2068
>>>>>Begin Processed Spectral Data<<<<<
-37534,58	7,00
-37414,56	-4,00
-37295,11	2,00
-37176,24	6,00
-37057,95	122,00
-36940,22	64,00
-36823,05	14,00
-36706,45	128,00
-36590,40	31,00
-36474,90	51,00
-36359,95	113,00
-36245,55	77,00
-36131,68	-25,00
-36018,35	175,00
-35905,55	90,00
-35793,29	62,00
-35681,54	212,00
-35570,32	116,00
-35459,62	92,00
-35349,43	-12,00
-35239,75	90,00
-35130,58	126,00
-35021,91	84,00
-34913,74	109,00
-34806,07	122,00
-34698,89	9,00
-34592,20	60,00
-34486,00	55,00
-34380,28	25,00
-34275,04	51,00
-34170,27	123,00
-34065,98	74,00
-33962,16	251,00
-33858,81	88,00
-33755,92	68,00
-33653,49	102,00
-33551,52	193,00
-33450,01	247,00
-33348,94	28,00
-33248,33	66,00
-33148,16	56,00
-33048,43	107,00
-32949,14	150,00
-32850,29	115,00
-32751,87	204,00
-32653,89	136,00
-32556,33	130,00
-32459,20	25,00
-32362,49	136,00
-32266,19	75,00
-32170,32	13,00
-32074,86	213,00
-31979,82	189,00
-31885,18	18,00
-31790,95	0,00
-31697,12	40,00
-31603,69	120,00
-31510,67	39,00
-31418,04	136,00
-31325,80	18,00
-31233,95	159,00
-31142,49	107,00
-31051,42	70,00
-30960,73	84,00
-30870,43	34,00
-30780,50	89,00
-30690,95	98,00
-30601,77	88,00
-30512,97	134,00
-30424,53	81,00
-30336,46	135,00
-30248,76	112,00
-30161,42	229,00
-30074,44	132,00
-29987,81	150,00
-29901,55	150,00
-29815,63	48,00
-29730,07	28,00
-29644,86	-39,00
-29560,00	115,00
-29475,48	189,00
-29391,30	36,00
-29307,47	144,00
-29223,97	117,00
-29140,81	191,00
-29057,99	63,00
-28975,50	130,00
-28893,34	173,00
-28811,51	21,00
-28730,00	162,00
-28648,82	53,00
-28567,97	210,00
-28487,43	136,00
-28407,21	125,00
-28327,32	57,00
-28247,73	119,00
-28168,46	111,00
-28089,50	61,00
-28010,85	137,00
-27932,51	80,00
-27854,48	64,00
-27776,75	53,00
-27699,32	239,00
-27622,19	112,00
-27545,37	195,00
-27468,84	125,00
-27392,60	151,00
-27316,66	135,00
-27241,01	93,00
-27165,66	86,00
-27090,59	78,00
-27015,81	155,00
-26941,31	197,00
-26867,10	88,00
-26793,17	223,00
-26719,52	143,00
-26646,15	96,00
-26573,06	20,00
-26500,24	88,00
-26427,70	182,00
-26355,43	45,00
-26283,43	7,00
-26211,71	177,00
-26140,25	67,00
-26069,06	191,00
-25998,13	44,00
-25927,46	19,00
-25857,06	35,00
-25786,92	121,00
-25717,04	30,00
-25647,42	112,00
-25578,05	41,00
-25508,94	60,00
-25440,09	44,00
-25371,48	69,00
-25303,13	153,00
-25235,02	45,00
-25167,17	16,00
-25099,56	107,00
-25032,19	67,00
-24965,07	86,00
-24898,20	89,00
-24831,56	73,00
-24765,17	93,00
-24699,01	59,00
-24633,10	106,00
-24567,41	38,00
-24501,97	126,00
-24436,75	158,00
-24371,77	62,00
-24307,03	235,00
-24242,51	125,00
-24178,22	25,00
-24114,16	121,00
-24050,32	188,00
-23986,71	-35,00
-23923,32	80,00
-23860,16	90,00
-23797,22	73,00
-23734,50	195,00
-23672,00	47,00
-23609,71	40,00
-23547,65	100,00
-23485,80	75,00
-23424,16	106,00
-23362,74	90,00
-23301,53	41,00
-23240,54	58,00
-23179,75	137,00
-23119,17	94,00
-23058,80	45,00
-22998,64	30,00
-22938,68	161,00
-22878,93	162,00
-22819,39	-3,00
-22760,04	52,00
-22700,90	70,00
-22641,96	104,00
-22583,22	53,00
-22524,68	32,00
-22466,33	-1,00
-22408,19	140,00
-22350,23	8,00
-22292,48	93,00
-22234,92	71,00
-22177,55	145,00
-22120,37	119,00
-22063,38	131,00
-22006,58	93,00
-21949,98	139,00
-21893,56	54,00
-21837,33	136,00
-21781,28	89,00
-21725,42	124,00
-21669,74	47,00
-21614,25	160,00
-21558,94	77,00
-21503,81	185,00
-21448,86	182,00
-21394,10	70,00
-21339,51	178,00
-21285,10	165,00
-21230,86	84,00
-21176,81	95,00
-21122,93	65,00
-21069,22	200,00
-21015,69	42,00
-20962,33	40,00
-20909,14	54,00
-20856,13	128,00
-20803,28	63,00
-20750,61	67,00
-20698,10	75,00
-20645,76	64,00
-20593,59	223,00
-20541,59	126,00
-20489,75	277,00
-20438,07	12,00
-20386,56	98,00
-20335,22	157,00
-20284,03	127,00
-20233,01	74,00
-20182,15	68,00
-20131,45	184,00
-20080,91	179,00
-20030,52	104,00
-19980,30	77,00
-19930,23	100,00
-19880,32	183,00
-19830,56	22,00
-19780,96	-20,00
-19731,52	124,00
-19682,23	42,00
-19633,09	156,00
-19584,10	61,00
-19535,26	164,00
-19486,58	110,00
-19438,04	75,00
-19389,66	187,00
-19341,42	108,00
-19293,33	108,00
-19245,39	-38,00
-19197,60	155,00
-19149,95	259,00
-19102,45	37,00
-19055,09	103,00
-19007,87	111,00
-18960,80	89,00
-18913,87	170,00
-18867,09	-20,00
-18820,44	83,00
-18773,94	174,00
-18727,57	140,00
-18681,35	103,00
-18635,26	-35,00
-18589,31	59,00
-18543,50	116,00
-18497,83	116,00
-18452,29	21,00
-18406,89	68,00
-18361,63	84,00
-18316,50	138,00
-18271,50	62,00
-18226,63	151,00
-18181,90	174,00
-18137,30	87,00
-18092,84	52,00
-18048,50	10,00
-18004,29	259,00
-17960,22	41,00
-17916,27	112,00
-17872,45	146,00
-17828,76	67,00
-17785,20	57,00
-17741,77	8,00
-17698,46	160,00
-17655,28	237,00
-17612,22	106,00
-17569,29	140,00
-17526,48	194,00
-17483,79	200,00
-17441,23	36,00
-17398,79	137,00
-17356,48	137,00
-17314,28	-29,00
-17272,21	96,00
-17230,26	120,00
-17188,42	119,00
-17146,71	80,00
-17105,12	104,00
-17063,64	93,00
-17022,28	46,00
-16981,04	166,00
-16939,92	88,00
-16898,91	225,00
-16858,02	105,00
-16817,25	226,00
-16776,59	47,00
-16736,04	111,00
-16695,61	95,00
-16655,29	96,00
-16615,09	127,00
-16574,99	55,00
-16535,01	74,00
-16495,15	82,00
-16455,39	129,00
-16415,74	125,00
-16376,21	46,00
-16336,78	112,00
-16297,46	47,00
-16258,26	20,00
-16219,16	193,00
-16180,17	112,00
-16141,28	74,00
-16102,51	22,00
-16063,84	145,00
-16025,27	110,00
-15986,82	39,00
-15948,46	104,00
-15910,22	188,00
-15872,07	114,00
-15834,04	135,00
-15796,10	110,00
-15758,27	142,00
-15720,54	157,00
-15682,91	140,00
-15645,39	62,00
-15607,97	116,00
-15570,64	106,00
-15533,42	155,00
-15496,30	21,00
-15459,28	211,00
-15422,36	68,00
-15385,54	146,00
-15348,82	121,00
-15312,19	57,00
-15275,66	145,00
-15239,23	75,00
-15202,90	131,00
-15166,67	66,00
-15130,53	-18,00
-15094,48	51,00
-15058,54	142,00
-15022,68	59,00
-14986,93	106,00
-14951,26	63,00
-14915,69	-5,00
-14880,22	105,00
-14844,84	142,00
-14809,55	157,00
-14774,35	98,00
-14739,25	179,00
-14704,24	26,00
-14669,32	10,00
-14634,49	101,00
-14599,75	103,00
-14565,10	93,00
-14530,55	65,00
-14496,08	168,00
-14461,70	24,00
-14427,41	148,00
-14393,21	108,00
-14359,10	155,00
-14325,07	82,00
-14291,14	61,00
-14257,29	129,00
-14223,52	62,00
-14189,85	23,00
-14156,26	36,00
-14122,76	65,00
-14089,34	112,00
-14056,01	-6,00
-14022,76	52,00
-13989,60	66,00
-13956,52	77,00
-13923,53	29,00
-13890,62	83,00
-13857,79	61,00
-13825,05	173,00
-13792,39	134,00
-13759,81	128,00
-13727,31	155,00
-13694,90	70,00
-13662,57	69,00
-13630,31	121,00
-13598,14	123,00
-13566,05	44,00
-13534,05	43,00
-13502,12	158,00
-13470,27	-15,00
-13438,50	90,00
-13406,80	178,00
-13375,19	102,00
-13343,66	129,00
-13312,20	136,00
-13280,83	108,00
-13249,53	91,00
-13218,30	27,00
-13187,16	42,00
-13156,09	39,00
-13125,10	205,00
-13094,18	122,00
-13063,34	17,00
-13032,58	29,00
-13001,89	-1,00
-12971,28	121,00
-12940,74	144,00
-12910,27	29,00
-12879,88	82,00
-12849,57	217,00
-12819,33	100,00
-12789,16	22,00
-12759,06	103,00
-12729,04	113,00
-12699,09	-1147,00
-12669,21	120,00
-12639,41	48,00
-12609,68	37,00
-12580,02	51,00
-12550,43	202,00
-12520,91	62,00
-12491,46	96,00
-12462,08	93,00
-12432,77	65,00
-12403,54	29,00
-12374,37	10,00
-12345,27	18,00
-12316,24	138,00
-12287,29	188,00
-12258,40	67,00
-12229,57	173,00
-12200,82	84,00
-12172,14	126,00
-12143,52	-112,00
-12114,97	83,00
-12086,49	66,00
-12058,07	55,00
-12029,73	45,00
-12001,44	254,00
-11973,23	40,00
-11945,08	43,00
-11917,00	34,00
-11888,98	-51,00
-11861,03	179,00
-11833,15	-9,00
-11805,32	-19,00
-11777,57	184,00
-11749,88	66,00
-11722,25	86,00
-11694,69	-8,00
-11667,19	175,00
-11639,75	72,00
-11612,38	200,00
-11585,07	81,00
-11557,83	136,00
-11530,65	104,00
-11503,53	226,00
-11476,47	4,00
-11449,48	145,00
-11422,54	71,00
-11395,67	91,00
-11368,86	114,00
-11342,11	105,00
-11315,43	54,00
-11288,80	188,00
-11262,23	45,00
-11235,73	84,00
-11209,28	79,00
-11182,90	96,00
-11156,57	131,00
-11130,31	69,00
-11104,10	117,00
-11077,96	164,00
-11051,87	188,00
-11025,84	198,00
-10999,87	12,00
-10973,96	98,00
-10948,11	118,00
-10922,31	18,00
-10896,58	61,00
-10870,90	168,00
-10845,28	37,00
-10819,71	103,00
-10794,20	69,00
-10768,75	97,00
-10743,36	129,00
-10718,02	86,00
-10692,74	121,00
-10667,52	108,00
-10642,35	194,00
-10617,24	39,00
-10592,18	98,00
-10567,18	6,00
-10542,23	180,00
-10517,34	47,00
-10492,51	30,00
-10467,72	44,00
-10443,00	66,00
-10418,32	-17,00
-10393,70	69,00
-10369,14	114,00
-10344,63	167,00
-10320,17	102,00
-10295,77	58,00
-10271,42	151,00
-10247,12	103,00
-10222,88	224,00
-10198,68	32,00
-10174,54	166,00
-10150,46	4,00
-10126,42	68,00
-10102,44	79,00
-10078,51	-23,00
-10054,63	181,00
-10030,80	36,00
-10007,03	18,00
-9983,30	0,00
-9959,63	35,00
-9936,01	57,00
-9912,44	42,00
-9888,92	32,00
-9865,44	70,00
-9842,02	55,00
-9818,65	-48,00
-9795,33	-88,00
-9772,06	-57,00
-9748,84	-55,00
-9725,67	-91,00
-9702,55	-83,00
-9679,47	-80,00
-9656,45	-135,00
-9633,47	-40,00
-9610,55	-174,00
-9587,67	-70,00
-9564,84	-64,00
-9542,06	-224,00
-9519,32	-389,00
-9496,64	-227,00
-9474,00	-184,00
-9451,41	-477,00
-9428,87	-399,00
-9406,37	-404,00
-9383,92	-209,00
-9361,52	-306,00
-9339,17	-298,00
-9316,86	-447,00
-9294,60	-452,00
-9272,38	-415,00
-9250,21	-437,00
-9228,09	-599,00
-9206,01	-625,00
-9183,98	-434,00
-9162,00	-466,00
-9140,06	-406,00
-9118,16	-455,00
-9096,31	-499,00
-9074,51	-552,00
-9052,75	-619,00
-9031,04	-490,00
-9009,37	-430,00
-8987,74	-487,00
-8966,16	-325,00
-8944,63	-197,00
-8923,14	-415,00
-8901,69	-236,00
-8880,29	-327,00
-8858,93	-391,00
-8837,61	-320,00
-8816,34	-391,00
-8795,11	-482,00
-8773,92	-454,00
-8752,78	-322,00
-8731,68	-139,00
-8710,62	-305,00
-8689,61	-365,00
-8668,63	-329,00
-8647,70	-442,00
-8626,82	-358,00
-8605,97	-308,00
-8585,17	-311,00
-8564,41	-300,00
-8543,69	-103,00
-8523,01	-195,00
-8502,37	-264,00
-8481,78	-312,00
-8461,23	-333,00
-8440,71	-310,00
-8420,24	-448,00
-8399,81	-289,00
-8379,42	-321,00
-8359,08	-199,00
-8338,77	-308,00
-8318,50	-254,00
-8298,27	-245,00
-8278,09	-246,00
-8257,94	-384,00
-8237,83	-302,00
-8217,76	-309,00
-8197,74	-363,00
-8177,75	-379,00
-8157,80	-262,00
-8137,89	-248,00
-8118,02	-232,00
-8098,19	-255,00
-8078,40	-153,00
-8058,65	-236,00
-8038,93	-91,00
-8019,26	-256,00
-7999,62	-291,00
-7980,02	-248,00
-7960,46	-175,00
-7940,94	-240,00
-7921,46	-106,00
-7902,01	-151,00
-7882,60	-50,00
-7863,23	-204,00
-7843,90	-196,00
-7824,61	-251,00
-7805,35	-152,00
-7786,13	-205,00
-7766,95	-175,00
-7747,80	-156,00
-7728,69	-23,00
-7709,62	-153,00
-7690,59	-133,00
-7671,59	-190,00
-7652,63	-202,00
-7633,70	-186,00
-7614,81	-265,00
-7595,96	-221,00
-7577,15	-119,00
-7558,37	-210,00
-7539,62	-97,00
-7520,91	-241,00
-7502,24	-250,00
-7483,60	-171,00
-7465,00	-293,00
-7446,44	-107,00
-7427,91	-189,00
-7409,41	-22,00
-7390,95	-137,00
-7372,53	-98,00
-7354,14	-110,00
-7335,78	-149,00
-7317,46	-140,00
-7299,18	-156,00
-7280,92	-201,00
-7262,71	-165,00
-7244,52	-190,00
-7226,38	-33,00
-7208,26	-261,00
-7190,18	-297,00
-7172,14	-24,00
-7154,12	-86,00
-7136,15	-284,00
-7118,20	-194,00
-7100,29	-205,00
-7082,41	-239,00
-7064,57	-177,00
-7046,76	-116,00
-7028,98	-160,00
-7011,24	-39,00
-6993,53	-148,00
-6975,85	14,00
-6958,20	12,00
-6940,59	-70,00
-6923,01	-129,00
-6905,46	-82,00
-6887,94	-191,00
-6870,46	2367,00
-6853,01	-229,00
-6835,59	-61,00
-6818,21	-128,00
-6800,85	-98,00
-6783,53	-45,00
-6766,24	100,00
-6748,98	-45,00
-6731,76	2,00
-6714,56	100,00
-6697,40	-75,00
-6680,26	37,00
-6663,16	-58,00
-6646,09	-53,00
-6629,05	-144,00
-6612,05	-47,00
-6595,07	-156,00
-6578,13	-111,00
-6561,21	47,00
-6544,33	-67,00
-6527,47	-17,00
-6510,65	-55,00
-6493,86	29,00
-6477,10	-26,00
-6460,36	-37,00
-6443,66	65,00
-6426,99	29,00
-6410,35	102,00
-6393,74	-6,00
-6377,16	37,00
-6360,61	52,00
-6344,09	-53,00
-6327,59	53,00
-6311,13	-47,00
-6294,70	-75,00
-6278,29	62,00
-6261,92	3,00
-6245,58	-71,00
-6229,26	-65,00
-6212,97	7,00
-6196,72	-55,00
-6180,49	16,00
-6164,29	140,00
-6148,12	167,00
-6131,98	30,00
-6115,86	60,00
-6099,78	67,00
-6083,72	-23,00
-6067,69	17,00
-6051,69	17,00
-6035,72	85,00
-6019,78	-66,00
-6003,87	-56,00
-5987,98	36,00
-5972,12	-207,00
-5956,29	-52,00
-5940,49	23,00
-5924,71	75,00
-5908,96	52,00
-5893,24	4,00
-5877,55	1,00
-5861,89	-24,00
-5846,25	77,00
-5830,64	53,00
-5815,05	82,00
-5799,50	-41,00
-5783,97	53,00
-5768,47	104,00
-5752,99	-58,00
-5737,55	11,00
-5722,12	-14,00
-5706,73	24,00
-5691,36	12,00
-5676,02	57,00
-5660,71	19,00
-5645,42	92,00
-5630,16	-58,00
-5614,92	-51,00
-5599,71	51,00
-5584,53	23,00
-5569,37	-30,00
-5554,24	5,00
-5539,14	135,00
-5524,06	-80,00
-5509,01	113,00
-5493,98	-95,00
-5478,98	16,00
-5464,00	72,00
-5449,05	107,00
-5434,13	138,00
-5419,23	50,00
-5404,36	22,00
-5389,51	-51,00
-5374,69	-10,00
-5359,89	-64,00
-5345,12	-103,00
-5330,37	45,00
-5315,65	-60,00
-5300,95	-44,00
-5286,28	-84,00
-5271,63	-17,00
-5257,01	41,00
-5242,41	49,00
-5227,84	51,00
-5213,29	36,00
-5198,76	-44,00
-5184,26	-44,00
-5169,79	87,00
-5155,33	3,00
-5140,91	24,00
-5126,51	79,00
-5112,13	44,00
-5097,77	-48,00
-5083,44	-3,00
-5069,13	8,00
-5054,85	119,00
-5040,59	89,00
-5026,36	71,00
-5012,15	7,00
-4997,96	64,00
-4983,80	-42,00
-4969,66	-29,00
-4955,54	75,00
-4941,44	149,00
-4927,37	15,00
-4913,33	-99,00
-4899,30	-27,00
-4885,30	3,00
-4871,33	-46,00
-4857,37	-62,00
-4843,44	105,00
-4829,53	75,00
-4815,65	105,00
-4801,79	13,00
-4787,95	56,00
-4774,13	82,00
-4760,34	12,00
-4746,56	119,00
-4732,82	-35,00
-4719,09	51,00
-4705,38	-33,00
-4691,70	21,00
-4678,04	-38,00
-4664,41	0,00
-4650,79	109,00
-4637,20	60,00
-4623,63	111,00
-4610,08	33,00
-4596,56	-44,00
-4583,05	87,00
-4569,57	83,00
-4556,11	88,00
-4542,67	50,00
-4529,25	212,00
-4515,86	136,00
-4502,49	20,00
-4489,13	-65,00
-4475,80	64,00
-4462,49	-11,00
-4449,21	167,00
-4435,94	136,00
-4422,70	35,00
-4409,47	-62,00
-4396,27	87,00
-4383,09	-17,00
-4369,93	98,00
-4356,79	200,00
-4343,67	30,00
-4330,58	28,00
-4317,50	116,00
-4304,45	82,00
-4291,41	17,00
-4278,40	111,00
-4265,41	68,00
-4252,44	70,00
-4239,49	-26,00
-4226,55	2,00
-4213,65	98,00
-4200,76	140,00
-4187,89	-3,00
-4175,04	35,00
-4162,21	11,00
-4149,40	107,00
-4136,61	55,00
-4123,85	197,00
-4111,10	95,00
-4098,37	67,00
-4085,66	85,00
-4072,98	32,00
-4060,31	94,00
-4047,66	115,00
-4035,04	100,00
-4022,43	69,00
-4009,84	157,00
-3997,27	-57,00
-3984,72	21,00
-3972,19	96,00
-3959,69	117,00
-3947,20	219,00
-3934,73	57,00
-3922,27	106,00
-3909,84	24,00
-3897,43	98,00
-3885,04	110,00
-3872,67	143,00
-3860,31	95,00
-3847,98	66,00
-3835,66	153,00
-3823,36	39,00
-3811,09	32,00
-3798,83	123,00
-3786,59	235,00
-3774,37	38,00
-3762,17	120,00
-3749,98	110,00
-3737,82	90,00
-3725,67	60,00
-3713,55	134,00
-3701,44	95,00
-3689,35	111,00
-3677,28	178,00
-3665,22	49,00
-3653,19	170,00
-3641,17	95,00
-3629,18	168,00
-3617,20	72,00
-3605,24	52,00
-3593,30	3,00
-3581,37	179,00
-3569,47	107,00
-3557,58	18,00
-3545,71	208,00
-3533,86	154,00
-3522,02	190,00
-3510,21	154,00
-3498,41	177,00
-3486,63	174,00
-3474,87	72,00
-3463,12	67,00
-3451,40	-9,00
-3439,69	105,00
-3428,00	124,00
-3416,33	130,00
-3404,67	102,00
-3393,03	3,00
-3381,41	157,00
-3369,81	129,00
-3358,22	110,00
-3346,66	108,00
-3335,10	139,00
-3323,57	113,00
-3312,06	145,00
-3300,56	136,00
-3289,08	98,00
-3277,61	123,00
-3266,16	18,00
-3254,73	97,00
-3243,32	78,00
-3231,92	116,00
-3220,55	155,00
-3209,18	146,00
-3197,84	97,00
-3186,51	112,00
-3175,20	36,00
-3163,90	109,00
-3152,63	138,00
-3141,36	-37,00
-3130,12	91,00
-3118,89	212,00
-3107,68	139,00
-3096,49	97,00
-3085,31	20,00
-3074,15	120,00
-3063,00	148,00
-3051,87	125,00
-3040,76	251,00
-3029,67	148,00
-3018,59	21,00
-3007,52	72,00
-2996,48	38,00
-2985,44	145,00
-2974,43	74,00
-2963,43	98,00
-2952,45	86,00
-2941,48	95,00
-2930,53	77,00
-2919,60	206,00
-2908,68	94,00
-2897,78	-23,00
-2886,89	91,00
-2876,02	85,00
-2865,17	133,00
-2854,33	147,00
-2843,50	193,00
-2832,70	303,00
-2821,90	134,00
-2811,13	102,00
-2800,37	108,00
-2789,62	78,00
-2778,89	40,00
-2768,18	123,00
-2757,48	184,00
-2746,80	117,00
-2736,13	227,00
-2725,48	80,00
-2714,84	160,00
-2704,22	190,00
-2693,61	124,00
-2683,02	139,00
-2672,45	180,00
-2661,89	112,00
-2651,34	114,00
-2640,81	97,00
-2630,30	158,00
-2619,80	198,00
-2609,31	58,00
-2598,84	39,00
-2588,39	116,00
-2577,95	76,00
-2567,52	63,00
-2557,11	150,00
-2546,71	86,00
-2536,33	3,00
-2525,97	79,00
-2515,62	61,00
-2505,28	132,00
-2494,96	54,00
-2484,65	56,00
-2474,36	190,00
-2464,08	36,00
-2453,82	132,00
-2443,57	42,00
-2433,33	85,00
-2423,11	98,00
-2412,91	24,00
-2402,72	49,00
-2392,54	52,00
-2382,38	48,00
-2372,23	62,00
-2362,09	137,00
-2351,97	96,00
-2341,87	-62,00
-2331,78	160,00
-2321,70	147,00
-2311,64	67,00
-2301,59	95,00
-2291,55	129,00
-2281,53	79,00
-2271,53	10,00
-2261,53	91,00
-2251,55	210,00
-2241,59	49,00
-2231,64	149,00
-2221,70	130,00
-2211,78	187,00
-2201,87	67,00
-2191,97	140,00
-2182,09	162,00
-2172,22	101,00
-2162,37	135,00
-2152,53	69,00
-2142,70	92,00
-2132,89	74,00
-2123,09	115,00
-2113,30	95,00
-2103,53	100,00
-2093,77	133,00
-2084,02	180,00
-2074,29	228,00
-2064,57	126,00
-2054,86	59,00
-2045,17	-15,00
-2035,49	202,00
-2025,82	169,00
-2016,17	147,00
-2006,53	133,00
-1996,91	131,00
-1987,29	41,00
-1977,69	42,00
-1968,11	119,00
-1958,53	114,00
-1948,97	77,00
-1939,42	82,00
-1929,89	196,00
-1920,37	124,00
-1910,86	30,00
-1901,36	126,00
-1891,88	110,00
-1882,41	-5,00
-1872,95	174,00
-1863,51	79,00
-1854,08	23,00
-1844,66	105,00
-1835,26	31,00
-1825,86	35,00
-1816,48	65,00
-1807,11	101,00
-1797,76	141,00
-1788,42	70,00
-1779,09	72,00
-1769,77	86,00
-1760,47	109,00
-1751,17	74,00
-1741,89	70,00
-1732,63	31,00
-1723,37	108,00
-1714,13	226,00
-1704,90	204,00
-1695,68	-2,00
-1686,48	159,00
-1677,29	47,00
-1668,11	153,00
-1658,94	79,00
-1649,78	165,00
-1640,64	114,00
-1631,51	201,00
-1622,39	116,00
-1613,28	60,00
-1604,19	95,00
-1595,10	195,00
-1586,03	238,00
-1576,97	186,00
-1567,93	73,00
-1558,89	154,00
-1549,87	123,00
-1540,86	53,00
-1531,86	148,00
-1522,87	96,00
-1513,90	136,00
-1504,93	123,00
-1495,98	66,00
-1487,04	61,00
-1478,12	100,00
-1469,20	211,00
-1460,30	46,00
-1451,40	99,00
-1442,52	169,00
-1433,65	-11,00
-1424,80	130,00
-1415,95	21,00
-1407,12	185,00
-1398,30	54,00
-1389,48	48,00
-1380,69	113,00
-1371,90	29,00
-1363,12	134,00
-1354,36	133,00
-1345,60	-40,00
-1336,86	236,00
-1328,13	60,00
-1319,41	43,00
-1310,70	65,00
-1302,01	153,00
-1293,32	112,00
-1284,65	156,00
-1275,99	62,00
-1267,33	101,00
-1258,69	78,00
-1250,06	119,00
-1241,45	36,00
-1232,84	117,00
-1224,25	118,00
-1215,66	159,00
-1207,09	91,00
-1198,53	73,00
-1189,97	134,00
-1181,43	-46,00
-1172,91	22,00
-1164,39	185,00
-1155,88	-17,00
-1147,38	161,00
-1138,90	203,00
-1130,43	28,00
-1121,96	53,00
-1113,51	216,00
-1105,07	133,00
-1096,64	158,00
-1088,22	134,00
-1079,81	115,00
-1071,41	245,00
-1063,02	47,00
-1054,65	100,00
-1046,28	167,00
-1037,92	85,00
-1029,58	68,00
-1021,24	2,00
-1012,92	129,00
-1004,61	128,00
-996,30	117,00
-988,01	121,00
-979,73	183,00
-971,46	155,00
-963,20	10,00
-954,95	90,00
-946,71	34,00
-938,48	113,00
-930,26	93,00
-922,06	55,00
-913,86	171,00
-905,67	97,00
-897,49	100,00
-889,33	75,00
-881,17	79,00
-873,02	75,00
-864,89	44,00
-856,76	-29,00
-848,65	153,00
-840,54	105,00
-832,45	139,00
-824,36	134,00
-816,29	178,00
-808,22	56,00
-800,17	86,00
-792,12	138,00
-784,09	263,00
-776,06	59,00
-768,05	95,00
-760,04	138,00
-752,05	6,00
-744,07	-3,00
-736,09	87,00
-728,13	183,00
-720,17	161,00
-712,23	103,00
-704,29	96,00
-696,37	208,00
-688,45	177,00
-680,55	149,00
-672,65	70,00
-664,77	-1,00
-656,89	89,00
-649,03	-5,00
-641,17	96,00
-633,32	101,00
-625,49	39,00
-617,66	159,00
-609,84	83,00
-602,03	112,00
-594,23	-28,00
-586,45	284,00
-578,67	128,00
-570,90	115,00
-563,14	15,00
-555,39	119,00
-547,65	148,00
-539,91	30,00
-532,19	17,00
-524,48	155,00
-516,78	50,00
-509,08	120,00
-501,40	154,00
-493,72	45,00
-486,06	-55,00
-478,40	94,00
-470,76	179,00
-463,12	47,00
-455,49	62,00
-447,87	206,00
-440,26	36,00
-432,66	97,00
-425,07	92,00
-417,49	89,00
-409,92	78,00
-402,35	34,00
-394,80	134,00
-387,25	191,00
-379,72	248,00
-372,19	111,00
-364,67	159,00
-357,17	154,00
-349,67	69,00
-342,18	99,00
-334,69	219,00
-327,22	22,00
-319,76	146,00
-312,30	111,00
-304,86	135,00
-297,42	63,00
-290,00	95,00
-282,58	104,00
-275,17	151,00
-267,77	124,00
-260,37	75,00
-252,99	118,00
-245,62	29,00
-238,25	193,00
-230,90	192,00
-223,55	219,00
-216,21	39,00
-208,88	394,00
-201,56	249,00
-194,25	171,00
-186,94	333,00
-179,65	295,00
-172,36	283,00
-165,08	282,00
-157,81	320,00
-150,55	458,00
-143,30	298,00
-136,06	496,00
-128,82	544,00
-121,60	438,00
-114,38	635,00
-107,17	469,00
-99,97	679,00
-92,78	801,00
-85,60	828,00
-78,42	980,00
-71,25	1107,00
-64,10	1254,00
-56,95	1438,00
-49,81	1818,00
-42,67	2229,00
-35,55	2507,00
-28,43	3262,00
-21,33	5707,00
-14,23	19389,00
-7,14	55635,00
-0,05	55419,00
7,02	55129,00
14,09	55339,00
21,14	16542,00
28,19	6881,00
35,23	4327,00
42,27	3325,00
49,29	2743,00
56,31	2268,00
63,32	1899,00
70,32	1478,00
77,31	1371,00
84,29	1193,00
91,27	1165,00
98,23	836,00
105,19	1058,00
112,14	976,00
119,09	1464,00
126,02	1733,00
132,95	1860,00
139,87	1912,00
146,78	1905,00
153,68	1790,00
160,58	1784,00
167,46	1769,00
174,34	1688,00
181,21	1624,00
188,08	1732,00
194,93	1598,00
201,78	1701,00
208,62	1724,00
215,45	1516,00
222,27	1537,00
229,09	1684,00
235,90	1696,00
242,70	1649,00
249,49	1552,00
256,27	1457,00
263,05	1432,00
269,82	1528,00
276,58	1517,00
283,33	1485,00
290,08	1494,00
296,82	1452,00
303,55	1381,00
310,27	1386,00
316,98	1432,00
323,69	1426,00
330,39	1413,00
337,08	1332,00
343,76	1310,00
350,44	1429,00
357,11	1325,00
363,77	1248,00
370,42	1403,00
377,07	1303,00
383,71	1286,00
390,34	1323,00
396,96	1233,00
403,58	1275,00
410,19	1349,00
416,79	1273,00
423,38	1434,00
429,97	1363,00
436,55	1184,00
443,12	1184,00
449,68	1101,00
456,24	1305,00
462,79	1254,00
469,33	1208,00
475,86	1179,00
482,39	1222,00
488,91	1144,00
495,42	1267,00
501,93	1132,00
508,42	1167,00
514,91	1160,00
521,40	1163,00
527,87	1114,00
534,34	1033,00
540,80	1050,00
547,25	1164,00
553,70	1065,00
560,14	1086,00
566,57	1069,00
573,00	1154,00
579,41	1181,00
585,83	1087,00
592,23	1124,00
598,62	1026,00
605,01	1030,00
611,40	987,00
617,77	1101,00
624,14	1082,00
630,50	1051,00
636,85	1011,00
643,20	1065,00
649,54	916,00
655,87	1019,00
662,20	1056,00
668,52	1000,00
674,83	951,00
681,13	862,00
687,43	908,00
693,72	1042,00
700,00	1082,00
706,28	1042,00
712,55	958,00
718,81	990,00
725,07	991,00
731,32	970,00
737,56	898,00
743,79	878,00
750,02	986,00
756,24	959,00
762,46	923,00
768,67	1019,00
774,87	978,00
781,06	1084,00
787,25	1010,00
793,43	1041,00
799,60	903,00
805,77	1127,00
811,93	1075,00
818,08	953,00
824,23	924,00
830,37	1080,00
836,50	1159,00
842,63	930,00
848,75	970,00
854,87	1002,00
860,97	980,00
867,07	1007,00
873,17	982,00
879,25	941,00
885,33	975,00
891,41	1015,00
897,47	1105,00
903,53	950,00
909,59	978,00
915,63	889,00
921,67	963,00
927,71	718,00
933,74	972,00
939,76	876,00
945,77	885,00
951,78	917,00
957,78	902,00
963,78	883,00
969,77	773,00
975,75	1038,00
981,72	877,00
987,69	953,00
993,66	858,00
999,61	890,00
1005,56	845,00
1011,51	869,00
1017,44	877,00
1023,37	1003,00
1029,30	790,00
1035,22	838,00
1041,13	999,00
1047,03	990,00
1052,93	956,00
1058,83	1222,00
1064,71	1233,00
1070,59	1259,00
1076,47	966,00
1082,33	980,00
1088,20	1077,00
1094,05	943,00
1099,90	944,00
1105,74	857,00
1111,58	883,00
1117,41	978,00
1123,23	1215,00
1129,05	1155,00
1134,86	1107,00
1140,67	1000,00
1146,47	816,00
1152,26	814,00
1158,05	849,00
1163,83	823,00
1169,60	894,00
1175,37	815,00
1181,13	916,00
1186,89	904,00
1192,64	772,00
1198,38	810,00
1204,12	866,00
1209,85	851,00
1215,58	827,00
1221,30	735,00
1227,02	871,00
1232,72	807,00
1238,43	876,00
1244,12	980,00
1249,81	837,00
1255,50	842,00
1261,17	809,00
1266,85	989,00
1272,51	913,00
1278,17	922,00
1283,83	917,00
1289,47	1211,00
1295,12	1498,00
1300,75	1318,00
1306,38	1084,00
1312,01	1072,00
1317,63	951,00
1323,24	1054,00
1328,85	949,00
1334,45	990,00
1340,04	1030,00
1345,63	971,00
1351,22	1055,00
1356,80	911,00
1362,37	967,00
1367,93	922,00
1373,49	850,00
1379,05	985,00
1384,60	877,00
1390,14	849,00
1395,68	922,00
1401,21	911,00
1406,74	982,00
1412,26	890,00
1417,77	1093,00
1423,28	1165,00
1428,78	1200,00
1434,28	1249,00
1439,77	1600,00
1445,26	1434,00
1450,74	1399,00
1456,22	1310,00
1461,68	1345,00
1467,15	1228,00
1472,61	1162,00
1478,06	1088,00
1483,51	928,00
1488,95	817,00
1494,38	894,00
1499,81	873,00
1505,24	882,00
1510,65	833,00
1516,07	843,00
1521,48	982,00
1526,88	733,00
1532,27	821,00
1537,67	845,00
1543,05	831,00
1548,43	745,00
1553,81	936,00
1559,18	819,00
1564,54	829,00
1569,90	766,00
1575,25	770,00
1580,60	796,00
1585,94	774,00
1591,28	854,00
1596,61	651,00
1601,93	704,00
1607,25	769,00
1612,57	882,00
1617,88	759,00
1623,18	749,00
1628,48	682,00
1633,77	696,00
1639,06	733,00
1644,34	699,00
1649,62	730,00
1654,89	772,00
1660,16	716,00
1665,42	673,00
1670,67	661,00
1675,92	705,00
1681,17	715,00
1686,41	708,00
1691,64	681,00
1696,87	728,00
1702,10	633,00
1707,32	561,00
1712,53	651,00
1717,74	588,00
1722,94	704,00
1728,14	663,00
1733,33	631,00
1738,52	620,00
1743,70	629,00
1748,88	698,00
1754,05	746,00
1759,22	679,00
1764,38	667,00
1769,53	664,00
1774,69	647,00
1779,83	644,00
1784,97	646,00
1790,11	577,00
1795,24	536,00
1800,36	563,00
1805,48	577,00
1810,60	720,00
1815,71	648,00
1820,82	506,00
1825,92	642,00
1831,01	643,00
1836,10	606,00
1841,19	644,00
1846,26	472,00
1851,34	602,00
1856,41	459,00
1861,47	523,00
1866,53	534,00
1871,59	537,00
1876,64	614,00
1881,68	600,00
1886,72	489,00
1891,76	497,00
1896,79	607,00
1901,81	467,00
1906,83	554,00
1911,85	556,00
1916,86	540,00
1921,86	504,00
1926,86	480,00
1931,86	453,00
1936,85	445,00
1941,83	566,00
1946,81	466,00
1951,79	562,00
1956,76	483,00
1961,72	442,00
1966,68	456,00
1971,64	504,00
1976,59	484,00
1981,54	446,00
1986,48	348,00
1991,42	523,00
1996,35	563,00
2001,27	402,00
2006,20	529,00
2011,11	451,00
2016,03	398,00
2020,93	449,00
2025,84	480,00
2030,73	583,00
2035,63	480,00
2040,52	470,00
2045,40	490,00
2050,28	548,00
2055,15	482,00
2060,02	468,00
2064,89	519,00
2069,75	399,00
2074,60	541,00
2079,46	458,00
2084,30	364,00
2089,14	522,00
2093,98	465,00
2098,81	504,00
2103,64	399,00
2108,46	324,00
2113,28	436,00
2118,09	410,00
2122,90	400,00
2127,70	433,00
2132,50	428,00
2137,30	464,00
2142,09	360,00
2146,87	378,00
2151,66	374,00
2156,43	491,00
2161,20	450,00
2165,97	313,00
2170,73	500,00
2175,49	385,00
2180,24	466,00
2184,99	433,00
2189,74	524,00
2194,48	484,00
2199,21	616,00
2203,94	514,00
2208,67	407,00
2213,39	452,00
2218,11	341,00
2222,82	377,00
2227,53	379,00
2232,23	305,00
2236,93	424,00
2241,63	357,00
2246,32	489,00
2251,00	357,00
2255,68	349,00
2260,36	347,00
2265,03	380,00
2269,70	286,00
2274,36	358,00
2279,02	386,00
2283,68	384,00
2288,33	394,00
2292,97	424,00
2297,61	307,00
2302,25	349,00
2306,88	314,00
2311,51	349,00
2316,14	408,00
2320,75	268,00
2325,37	312,00
2329,98	435,00
2334,59	163,00
2339,19	342,00
2343,79	364,00
2348,38	362,00
2352,97	329,00
2357,55	448,00
2362,13	388,00
2366,71	287,00
2371,28	431,00
2375,85	253,00
2380,41	281,00
2384,97	443,00
2389,52	319,00
2394,07	342,00
2398,62	350,00
2403,16	345,00
2407,70	328,00
2412,23	393,00
2416,76	306,00
2421,29	276,00
2425,81	308,00
2430,32	341,00
2434,84	408,00
2439,34	288,00
2443,85	276,00
2448,35	315,00
2452,84	385,00
2457,33	496,00
2461,82	365,00
2466,30	296,00
2470,78	333,00
2475,25	336,00
2479,72	305,00
2484,19	216,00
2488,65	299,00
2493,11	214,00
2497,56	373,00
2502,01	171,00
2506,46	246,00
2510,90	243,00
2515,34	270,00
2519,77	334,00
2524,20	331,00
2528,62	332,00
2533,04	300,00
2537,46	232,00
2541,87	207,00
2546,28	162,00
2550,68	316,00
2555,08	211,00
2559,48	257,00
2563,87	345,00
2568,26	286,00
2572,64	337,00
2577,02	325,00
2581,40	377,00
2585,77	296,00
2590,14	242,00
2594,50	259,00
2598,86	202,00
2603,22	237,00
2607,57	391,00
2611,92	312,00
2616,26	335,00
2620,60	319,00
2624,94	145,00
2629,27	248,00
2633,60	229,00
2637,92	366,00
2642,24	321,00
2646,56	245,00
2650,87	374,00
2655,18	404,00
2659,48	374,00
2663,78	230,00
2668,08	348,00
2672,37	224,00
2676,66	327,00
2680,95	323,00
2685,23	361,00
2689,50	326,00
2693,78	326,00
2698,05	315,00
2702,31	220,00
2706,57	263,00
2710,83	291,00
2715,08	275,00
2719,33	336,00
2723,58	375,00
2727,82	311,00
2732,06	293,00
2736,29	349,00
2740,53	386,00
2744,75	158,00
2748,97	220,00
2753,19	217,00
2757,41	344,00
2761,62	338,00
2765,83	272,00
2770,03	215,00
2774,23	295,00
2778,43	232,00
2782,62	321,00
2786,81	312,00
2791,00	356,00
2795,18	337,00
2799,35	256,00
2803,53	492,00
2807,70	370,00
2811,86	364,00
2816,03	374,00
2820,19	319,00
2824,34	583,00
2828,49	413,00
2832,64	515,00
2836,78	535,00
2840,92	686,00
2845,06	880,00
2849,19	890,00
2853,32	1109,00
2857,45	1060,00
2861,57	1069,00
2865,69	872,00
2869,80	954,00
2873,91	947,00
2878,02	1010,00
2882,12	1084,00
2886,22	1137,00
2890,32	1013,00
2894,41	928,00
2898,50	883,00
2902,58	770,00
2906,67	712,00
2910,74	746,00
2914,82	807,00
2918,89	739,00
2922,96	542,00
2927,02	665,00
2931,08	497,00
2935,13	589,00
2939,19	521,00
2943,24	505,00
2947,28	412,00
2951,32	340,00
2955,36	452,00
2959,40	349,00
2963,43	366,00
2967,46	264,00
2971,48	220,00
2975,50	289,00
2979,52	244,00
2983,53	345,00
2987,54	181,00
2991,55	258,00
2995,55	200,00
2999,55	288,00
3003,54	260,00
3007,54	229,00
3011,53	284,00
3015,51	235,00
3019,49	243,00
3023,47	180,00
3027,45	192,00
3031,42	155,00
3035,39	232,00
3039,35	189,00
3043,31	245,00
3047,27	247,00
3051,22	76,00
3055,17	209,00
3059,12	130,00
3063,06	138,00
3067,00	88,00
3070,94	239,00
3074,87	113,00
3078,80	113,00
3082,73	193,00
3086,65	76,00
3090,57	57,00
3094,49	267,00
3098,40	166,00
3102,31	227,00
3106,22	146,00
3110,12	154,00
3114,02	216,00
3117,92	128,00
3121,81	145,00
3125,70	316,00
3129,58	119,00
3133,47	134,00
3137,34	111,00
3141,22	87,00
3145,09	183,00
3148,96	75,00
3152,83	127,00
3156,69	152,00
3160,55	195,00
3164,40	188,00
3168,26	188,00
3172,10	125,00
3175,95	205,00
3179,79	207,00
3183,63	315,00
3187,47	96,00
3191,30	174,00
3195,13	49,00
3198,95	188,00
3202,78	83,00
3206,60	167,00
3210,41	158,00
3214,23	193,00
3218,03	163,00
3221,84	202,00
3225,64	106,00
3229,44	178,00
3233,24	187,00
3237,03	94,00
3240,82	240,00
3244,61	198,00
3248,39	82,00
3252,17	207,00
3255,95	187,00
3259,72	138,00
3263,49	197,00
3267,26	159,00
3271,03	153,00
3274,79	148,00
3278,54	76,00
3282,30	27,00
3286,05	211,00
3289,80	153,00
3293,54	123,00
3297,29	98,00
3301,02	159,00
3304,76	147,00
3308,49	24,00
3312,22	94,00
3315,95	208,00
3319,67	145,00
3323,39	146,00
3327,10	165,00
3330,82	125,00
3334,53	132,00
3338,24	125,00
3341,94	86,00
3345,64	42,00
3349,34	114,00
3353,03	193,00
3356,72	121,00
3360,41	161,00
3364,10	158,00
3367,78	127,00
3371,46	51,00
3375,13	135,00
3378,81	35,00
3382,48	115,00
3386,14	120,00
3389,81	186,00
3393,47	218,00
3397,12	187,00
3400,78	121,00
3404,43	165,00
3408,08	-33,00
3411,72	103,00
3415,36	98,00
3419,00	66,00
3422,64	150,00
3426,27	114,00
3429,90	114,00
3433,53	115,00
3437,15	135,00
3440,77	95,00
3444,39	137,00
3448,00	122,00
3451,62	61,00
3455,22	59,00
3458,83	106,00
3462,43	160,00
3466,03	72,00
3469,63	102,00
3473,22	53,00
3476,81	96,00
3480,40	127,00
3483,99	55,00
3487,57	122,00
3491,15	78,00
3494,72	211,00
3498,29	277,00
3501,86	95,00
3505,43	63,00
3508,99	87,00
3512,56	1,00
3516,11	119,00
3519,67	28,00
3523,22	175,00
3526,77	167,00
3530,32	110,00
3533,86	72,00
3537,40	158,00
3540,94	109,00
3544,47	135,00
3548,00	77,00
3551,53	122,00
3555,06	153,00
3558,58	72,00
3562,10	94,00
3565,62	46,00
3569,13	98,00
3572,64	172,00
3576,15	92,00
3579,66	143,00
3583,16	166,00
3586,66	93,00
3590,16	-32,00
3593,65	81,00
3597,14	144,00
3600,63	128,00
3604,11	67,00
3607,60	210,00
3611,08	40,00
3614,55	112,00
3618,03	90,00
3621,50	112,00
3624,97	-16,00
3628,43	56,00
3631,90	165,00
3635,36	69,00
3638,81	105,00
3642,27	78,00
3645,72	137,00
3649,17	138,00
3652,61	93,00
3656,06	64,00
3659,50	100,00
3662,93	127,00
3666,37	37,00
3669,80	41,00
3673,23	33,00
3676,65	71,00
3680,08	44,00
3683,50	128,00
3686,92	197,00
3690,33	141,00
3693,74	43,00
3697,15	63,00
3700,56	187,00
3703,96	-65,00
3707,36	35,00
3710,76	60,00
3714,16	92,00
3717,55	192,00
3720,94	54,00
3724,33	122,00
3727,71	172,00
3731,10	207,00
3734,48	11,00
3737,85	85,00
3741,23	102,00
3744,60	-32,00
3747,97	32,00
3751,33	51,00
3754,69	115,00
3758,05	107,00
3761,41	134,00
3764,77	113,00
3768,12	48,00
3771,47	88,00
3774,82	103,00
3778,16	-1,00
3781,50	-1,00
3784,84	-7,00
3788,18	1,00
>>>>>End Processed Spectral Data<<<<<
