SpectraSuite Data File
++++++++++++++++++++++++++++++++++++
Date: Mon Mar 09 15:46:35 ICT 2026
User: Administrator
Dark Spectrum Present: Yes
Reference Spectrum Present: No
Number of Sampled Component Spectra: 1
Spectrometers: MAYP113682
Integration Time (usec): 3000000 (MAYP113682)
Spectra Averaged: 1 (MAYP113682)
Boxcar Smoothing: 0 (MAYP113682)
Correct for Electrical Dark: No (MAYP113682)
Strobe/Lamp Enabled: No (MAYP113682)
Correct for Detector Non-linearity: No (MAYP113682)
Correct for Stray Light: No (MAYP113682)
Number of Pixels in Processed Spectrum: 2068
>>>>>Begin Processed Spectral Data<<<<<
-37534,58	7,00
-37414,56	-2,00
-37295,11	4,00
-37176,24	10,00
-37057,95	245,00
-36940,22	201,00
-36823,05	254,00
-36706,45	292,00
-36590,40	306,00
-36474,90	334,00
-36359,95	322,00
-36245,55	407,00
-36131,68	159,00
-36018,35	322,00
-35905,55	349,00
-35793,29	428,00
-35681,54	402,00
-35570,32	346,00
-35459,62	317,00
-35349,43	172,00
-35239,75	358,00
-35130,58	346,00
-35021,91	257,00
-34913,74	310,00
-34806,07	401,00
-34698,89	268,00
-34592,20	290,00
-34486,00	409,00
-34380,28	316,00
-34275,04	361,00
-34170,27	391,00
-34065,98	361,00
-33962,16	519,00
-33858,81	317,00
-33755,92	387,00
-33653,49	413,00
-33551,52	443,00
-33450,01	490,00
-33348,94	294,00
-33248,33	335,00
-33148,16	339,00
-33048,43	310,00
-32949,14	285,00
-32850,29	489,00
-32751,87	370,00
-32653,89	370,00
-32556,33	255,00
-32459,20	336,00
-32362,49	393,00
-32266,19	338,00
-32170,32	259,00
-32074,86	342,00
-31979,82	418,00
-31885,18	356,00
-31790,95	285,00
-31697,12	310,00
-31603,69	420,00
-31510,67	421,00
-31418,04	355,00
-31325,80	384,00
-31233,95	321,00
-31142,49	401,00
-31051,42	314,00
-30960,73	382,00
-30870,43	368,00
-30780,50	368,00
-30690,95	421,00
-30601,77	397,00
-30512,97	403,00
-30424,53	361,00
-30336,46	473,00
-30248,76	363,00
-30161,42	447,00
-30074,44	275,00
-29987,81	377,00
-29901,55	383,00
-29815,63	339,00
-29730,07	365,00
-29644,86	180,00
-29560,00	406,00
-29475,48	457,00
-29391,30	287,00
-29307,47	326,00
-29223,97	408,00
-29140,81	407,00
-29057,99	340,00
-28975,50	338,00
-28893,34	490,00
-28811,51	325,00
-28730,00	396,00
-28648,82	382,00
-28567,97	433,00
-28487,43	393,00
-28407,21	346,00
-28327,32	258,00
-28247,73	388,00
-28168,46	366,00
-28089,50	290,00
-28010,85	382,00
-27932,51	314,00
-27854,48	400,00
-27776,75	226,00
-27699,32	442,00
-27622,19	360,00
-27545,37	381,00
-27468,84	393,00
-27392,60	366,00
-27316,66	353,00
-27241,01	428,00
-27165,66	399,00
-27090,59	347,00
-27015,81	449,00
-26941,31	466,00
-26867,10	393,00
-26793,17	466,00
-26719,52	410,00
-26646,15	319,00
-26573,06	325,00
-26500,24	395,00
-26427,70	358,00
-26355,43	306,00
-26283,43	386,00
-26211,71	452,00
-26140,25	343,00
-26069,06	399,00
-25998,13	338,00
-25927,46	328,00
-25857,06	387,00
-25786,92	385,00
-25717,04	360,00
-25647,42	435,00
-25578,05	271,00
-25508,94	409,00
-25440,09	326,00
-25371,48	408,00
-25303,13	460,00
-25235,02	366,00
-25167,17	308,00
-25099,56	315,00
-25032,19	378,00
-24965,07	324,00
-24898,20	439,00
-24831,56	426,00
-24765,17	314,00
-24699,01	269,00
-24633,10	319,00
-24567,41	399,00
-24501,97	321,00
-24436,75	354,00
-24371,77	239,00
-24307,03	425,00
-24242,51	313,00
-24178,22	301,00
-24114,16	325,00
-24050,32	397,00
-23986,71	311,00
-23923,32	329,00
-23860,16	392,00
-23797,22	302,00
-23734,50	411,00
-23672,00	348,00
-23609,71	344,00
-23547,65	279,00
-23485,80	421,00
-23424,16	264,00
-23362,74	301,00
-23301,53	298,00
-23240,54	366,00
-23179,75	414,00
-23119,17	470,00
-23058,80	455,00
-22998,64	384,00
-22938,68	401,00
-22878,93	382,00
-22819,39	318,00
-22760,04	262,00
-22700,90	298,00
-22641,96	438,00
-22583,22	331,00
-22524,68	315,00
-22466,33	306,00
-22408,19	493,00
-22350,23	245,00
-22292,48	464,00
-22234,92	331,00
-22177,55	360,00
-22120,37	401,00
-22063,38	387,00
-22006,58	361,00
-21949,98	549,00
-21893,56	401,00
-21837,33	431,00
-21781,28	380,00
-21725,42	437,00
-21669,74	331,00
-21614,25	436,00
-21558,94	313,00
-21503,81	352,00
-21448,86	422,00
-21394,10	371,00
-21339,51	388,00
-21285,10	360,00
-21230,86	369,00
-21176,81	427,00
-21122,93	335,00
-21069,22	437,00
-21015,69	292,00
-20962,33	344,00
-20909,14	321,00
-20856,13	402,00
-20803,28	294,00
-20750,61	293,00
-20698,10	287,00
-20645,76	318,00
-20593,59	463,00
-20541,59	312,00
-20489,75	476,00
-20438,07	280,00
-20386,56	385,00
-20335,22	349,00
-20284,03	341,00
-20233,01	393,00
-20182,15	359,00
-20131,45	386,00
-20080,91	383,00
-20030,52	348,00
-19980,30	429,00
-19930,23	319,00
-19880,32	506,00
-19830,56	338,00
-19780,96	320,00
-19731,52	378,00
-19682,23	235,00
-19633,09	446,00
-19584,10	425,00
-19535,26	418,00
-19486,58	388,00
-19438,04	344,00
-19389,66	311,00
-19341,42	257,00
-19293,33	320,00
-19245,39	357,00
-19197,60	486,00
-19149,95	392,00
-19102,45	319,00
-19055,09	353,00
-19007,87	428,00
-18960,80	291,00
-18913,87	429,00
-18867,09	266,00
-18820,44	421,00
-18773,94	467,00
-18727,57	395,00
-18681,35	360,00
-18635,26	268,00
-18589,31	285,00
-18543,50	317,00
-18497,83	440,00
-18452,29	415,00
-18406,89	270,00
-18361,63	335,00
-18316,50	436,00
-18271,50	331,00
-18226,63	470,00
-18181,90	399,00
-18137,30	387,00
-18092,84	268,00
-18048,50	234,00
-18004,29	408,00
-17960,22	363,00
-17916,27	287,00
-17872,45	455,00
-17828,76	369,00
-17785,20	284,00
-17741,77	239,00
-17698,46	361,00
-17655,28	467,00
-17612,22	336,00
-17569,29	362,00
-17526,48	326,00
-17483,79	458,00
-17441,23	268,00
-17398,79	362,00
-17356,48	387,00
-17314,28	375,00
-17272,21	376,00
-17230,26	342,00
-17188,42	389,00
-17146,71	274,00
-17105,12	237,00
-17063,64	297,00
-17022,28	314,00
-16981,04	367,00
-16939,92	344,00
-16898,91	412,00
-16858,02	428,00
-16817,25	349,00
-16776,59	329,00
-16736,04	378,00
-16695,61	380,00
-16655,29	245,00
-16615,09	380,00
-16574,99	352,00
-16535,01	363,00
-16495,15	328,00
-16455,39	336,00
-16415,74	327,00
-16376,21	354,00
-16336,78	245,00
-16297,46	264,00
-16258,26	235,00
-16219,16	367,00
-16180,17	354,00
-16141,28	424,00
-16102,51	265,00
-16063,84	385,00
-16025,27	380,00
-15986,82	346,00
-15948,46	377,00
-15910,22	324,00
-15872,07	358,00
-15834,04	443,00
-15796,10	353,00
-15758,27	444,00
-15720,54	378,00
-15682,91	472,00
-15645,39	311,00
-15607,97	350,00
-15570,64	367,00
-15533,42	411,00
-15496,30	346,00
-15459,28	385,00
-15422,36	348,00
-15385,54	339,00
-15348,82	326,00
-15312,19	300,00
-15275,66	351,00
-15239,23	439,00
-15202,90	315,00
-15166,67	388,00
-15130,53	367,00
-15094,48	356,00
-15058,54	471,00
-15022,68	346,00
-14986,93	357,00
-14951,26	347,00
-14915,69	345,00
-14880,22	282,00
-14844,84	397,00
-14809,55	404,00
-14774,35	356,00
-14739,25	371,00
-14704,24	223,00
-14669,32	274,00
-14634,49	355,00
-14599,75	306,00
-14565,10	316,00
-14530,55	356,00
-14496,08	387,00
-14461,70	327,00
-14427,41	353,00
-14393,21	269,00
-14359,10	408,00
-14325,07	290,00
-14291,14	274,00
-14257,29	418,00
-14223,52	416,00
-14189,85	303,00
-14156,26	339,00
-14122,76	323,00
-14089,34	332,00
-14056,01	312,00
-14022,76	331,00
-13989,60	402,00
-13956,52	398,00
-13923,53	216,00
-13890,62	354,00
-13857,79	363,00
-13825,05	444,00
-13792,39	385,00
-13759,81	361,00
-13727,31	390,00
-13694,90	363,00
-13662,57	358,00
-13630,31	485,00
-13598,14	352,00
-13566,05	289,00
-13534,05	321,00
-13502,12	412,00
-13470,27	290,00
-13438,50	278,00
-13406,80	411,00
-13375,19	296,00
-13343,66	430,00
-13312,20	342,00
-13280,83	317,00
-13249,53	378,00
-13218,30	244,00
-13187,16	356,00
-13156,09	364,00
-13125,10	390,00
-13094,18	358,00
-13063,34	370,00
-13032,58	186,00
-13001,89	287,00
-12971,28	358,00
-12940,74	357,00
-12910,27	379,00
-12879,88	313,00
-12849,57	488,00
-12819,33	387,00
-12789,16	251,00
-12759,06	277,00
-12729,04	388,00
-12699,09	644,00
-12669,21	373,00
-12639,41	420,00
-12609,68	302,00
-12580,02	334,00
-12550,43	364,00
-12520,91	242,00
-12491,46	425,00
-12462,08	332,00
-12432,77	227,00
-12403,54	424,00
-12374,37	253,00
-12345,27	391,00
-12316,24	411,00
-12287,29	404,00
-12258,40	210,00
-12229,57	321,00
-12200,82	370,00
-12172,14	327,00
-12143,52	175,00
-12114,97	324,00
-12086,49	275,00
-12058,07	272,00
-12029,73	365,00
-12001,44	432,00
-11973,23	365,00
-11945,08	321,00
-11917,00	349,00
-11888,98	298,00
-11861,03	440,00
-11833,15	287,00
-11805,32	309,00
-11777,57	316,00
-11749,88	364,00
-11722,25	370,00
-11694,69	307,00
-11667,19	461,00
-11639,75	352,00
-11612,38	441,00
-11585,07	304,00
-11557,83	367,00
-11530,65	366,00
-11503,53	324,00
-11476,47	331,00
-11449,48	287,00
-11422,54	287,00
-11395,67	295,00
-11368,86	302,00
-11342,11	373,00
-11315,43	356,00
-11288,80	339,00
-11262,23	368,00
-11235,73	395,00
-11209,28	277,00
-11182,90	392,00
-11156,57	437,00
-11130,31	398,00
-11104,10	342,00
-11077,96	399,00
-11051,87	332,00
-11025,84	505,00
-10999,87	296,00
-10973,96	330,00
-10948,11	347,00
-10922,31	278,00
-10896,58	415,00
-10870,90	425,00
-10845,28	366,00
-10819,71	342,00
-10794,20	421,00
-10768,75	351,00
-10743,36	362,00
-10718,02	377,00
-10692,74	387,00
-10667,52	382,00
-10642,35	329,00
-10617,24	386,00
-10592,18	324,00
-10567,18	299,00
-10542,23	415,00
-10517,34	319,00
-10492,51	354,00
-10467,72	296,00
-10443,00	327,00
-10418,32	336,00
-10393,70	236,00
-10369,14	389,00
-10344,63	423,00
-10320,17	310,00
-10295,77	327,00
-10271,42	414,00
-10247,12	375,00
-10222,88	491,00
-10198,68	312,00
-10174,54	353,00
-10150,46	375,00
-10126,42	405,00
-10102,44	344,00
-10078,51	271,00
-10054,63	367,00
-10030,80	308,00
-10007,03	396,00
-9983,30	385,00
-9959,63	312,00
-9936,01	389,00
-9912,44	243,00
-9888,92	403,00
-9865,44	381,00
-9842,02	445,00
-9818,65	395,00
-9795,33	261,00
-9772,06	370,00
-9748,84	266,00
-9725,67	306,00
-9702,55	298,00
-9679,47	303,00
-9656,45	394,00
-9633,47	261,00
-9610,55	370,00
-9587,67	447,00
-9564,84	533,00
-9542,06	322,00
-9519,32	255,00
-9496,64	390,00
-9474,00	301,00
-9451,41	146,00
-9428,87	358,00
-9406,37	344,00
-9383,92	387,00
-9361,52	318,00
-9339,17	325,00
-9316,86	368,00
-9294,60	283,00
-9272,38	410,00
-9250,21	438,00
-9228,09	268,00
-9206,01	339,00
-9183,98	391,00
-9162,00	375,00
-9140,06	408,00
-9118,16	275,00
-9096,31	359,00
-9074,51	340,00
-9052,75	409,00
-9031,04	268,00
-9009,37	375,00
-8987,74	279,00
-8966,16	347,00
-8944,63	492,00
-8923,14	283,00
-8901,69	310,00
-8880,29	397,00
-8858,93	313,00
-8837,61	275,00
-8816,34	394,00
-8795,11	101,00
-8773,92	264,00
-8752,78	230,00
-8731,68	471,00
-8710,62	351,00
-8689,61	306,00
-8668,63	248,00
-8647,70	331,00
-8626,82	270,00
-8605,97	319,00
-8585,17	369,00
-8564,41	394,00
-8543,69	340,00
-8523,01	357,00
-8502,37	363,00
-8481,78	404,00
-8461,23	360,00
-8440,71	283,00
-8420,24	165,00
-8399,81	279,00
-8379,42	344,00
-8359,08	444,00
-8338,77	351,00
-8318,50	291,00
-8298,27	424,00
-8278,09	207,00
-8257,94	361,00
-8237,83	367,00
-8217,76	239,00
-8197,74	223,00
-8177,75	328,00
-8157,80	256,00
-8137,89	290,00
-8118,02	286,00
-8098,19	361,00
-8078,40	352,00
-8058,65	355,00
-8038,93	378,00
-8019,26	361,00
-7999,62	258,00
-7980,02	272,00
-7960,46	368,00
-7940,94	264,00
-7921,46	408,00
-7902,01	314,00
-7882,60	422,00
-7863,23	249,00
-7843,90	253,00
-7824,61	338,00
-7805,35	332,00
-7786,13	250,00
-7766,95	303,00
-7747,80	331,00
-7728,69	472,00
-7709,62	261,00
-7690,59	347,00
-7671,59	365,00
-7652,63	291,00
-7633,70	475,00
-7614,81	345,00
-7595,96	323,00
-7577,15	468,00
-7558,37	231,00
-7539,62	450,00
-7520,91	289,00
-7502,24	261,00
-7483,60	366,00
-7465,00	285,00
-7446,44	342,00
-7427,91	240,00
-7409,41	430,00
-7390,95	360,00
-7372,53	402,00
-7354,14	355,00
-7335,78	417,00
-7317,46	454,00
-7299,18	300,00
-7280,92	246,00
-7262,71	312,00
-7244,52	405,00
-7226,38	337,00
-7208,26	358,00
-7190,18	240,00
-7172,14	348,00
-7154,12	453,00
-7136,15	283,00
-7118,20	403,00
-7100,29	279,00
-7082,41	350,00
-7064,57	248,00
-7046,76	419,00
-7028,98	304,00
-7011,24	500,00
-6993,53	282,00
-6975,85	427,00
-6958,20	429,00
-6940,59	392,00
-6923,01	311,00
-6905,46	434,00
-6887,94	304,00
-6870,46	2877,00
-6853,01	363,00
-6835,59	461,00
-6818,21	432,00
-6800,85	366,00
-6783,53	502,00
-6766,24	463,00
-6748,98	364,00
-6731,76	387,00
-6714,56	449,00
-6697,40	322,00
-6680,26	376,00
-6663,16	294,00
-6646,09	316,00
-6629,05	408,00
-6612,05	443,00
-6595,07	348,00
-6578,13	361,00
-6561,21	326,00
-6544,33	529,00
-6527,47	406,00
-6510,65	346,00
-6493,86	393,00
-6477,10	375,00
-6460,36	357,00
-6443,66	439,00
-6426,99	404,00
-6410,35	413,00
-6393,74	452,00
-6377,16	432,00
-6360,61	352,00
-6344,09	361,00
-6327,59	471,00
-6311,13	375,00
-6294,70	390,00
-6278,29	541,00
-6261,92	247,00
-6245,58	421,00
-6229,26	388,00
-6212,97	347,00
-6196,72	385,00
-6180,49	411,00
-6164,29	369,00
-6148,12	440,00
-6131,98	438,00
-6115,86	496,00
-6099,78	359,00
-6083,72	420,00
-6067,69	418,00
-6051,69	348,00
-6035,72	386,00
-6019,78	365,00
-6003,87	304,00
-5987,98	447,00
-5972,12	238,00
-5956,29	349,00
-5940,49	470,00
-5924,71	388,00
-5908,96	390,00
-5893,24	317,00
-5877,55	339,00
-5861,89	391,00
-5846,25	395,00
-5830,64	346,00
-5815,05	469,00
-5799,50	354,00
-5783,97	399,00
-5768,47	403,00
-5752,99	276,00
-5737,55	464,00
-5722,12	404,00
-5706,73	363,00
-5691,36	402,00
-5676,02	386,00
-5660,71	349,00
-5645,42	438,00
-5630,16	407,00
-5614,92	469,00
-5599,71	405,00
-5584,53	419,00
-5569,37	324,00
-5554,24	-395,00
-5539,14	416,00
-5524,06	335,00
-5509,01	430,00
-5493,98	337,00
-5478,98	403,00
-5464,00	412,00
-5449,05	514,00
-5434,13	509,00
-5419,23	501,00
-5404,36	381,00
-5389,51	432,00
-5374,69	461,00
-5359,89	386,00
-5345,12	356,00
-5330,37	459,00
-5315,65	351,00
-5300,95	381,00
-5286,28	246,00
-5271,63	404,00
-5257,01	455,00
-5242,41	524,00
-5227,84	436,00
-5213,29	300,00
-5198,76	424,00
-5184,26	376,00
-5169,79	331,00
-5155,33	412,00
-5140,91	436,00
-5126,51	569,00
-5112,13	346,00
-5097,77	392,00
-5083,44	282,00
-5069,13	352,00
-5054,85	383,00
-5040,59	440,00
-5026,36	475,00
-5012,15	456,00
-4997,96	304,00
-4983,80	372,00
-4969,66	318,00
-4955,54	366,00
-4941,44	376,00
-4927,37	427,00
-4913,33	309,00
-4899,30	401,00
-4885,30	380,00
-4871,33	301,00
-4857,37	292,00
-4843,44	372,00
-4829,53	435,00
-4815,65	430,00
-4801,79	325,00
-4787,95	478,00
-4774,13	340,00
-4760,34	438,00
-4746,56	390,00
-4732,82	375,00
-4719,09	324,00
-4705,38	447,00
-4691,70	473,00
-4678,04	325,00
-4664,41	290,00
-4650,79	413,00
-4637,20	343,00
-4623,63	362,00
-4610,08	302,00
-4596,56	400,00
-4583,05	371,00
-4569,57	491,00
-4556,11	407,00
-4542,67	270,00
-4529,25	456,00
-4515,86	400,00
-4502,49	297,00
-4489,13	354,00
-4475,80	375,00
-4462,49	387,00
-4449,21	370,00
-4435,94	413,00
-4422,70	443,00
-4409,47	331,00
-4396,27	402,00
-4383,09	283,00
-4369,93	388,00
-4356,79	480,00
-4343,67	251,00
-4330,58	339,00
-4317,50	484,00
-4304,45	403,00
-4291,41	322,00
-4278,40	389,00
-4265,41	301,00
-4252,44	326,00
-4239,49	280,00
-4226,55	301,00
-4213,65	351,00
-4200,76	364,00
-4187,89	233,00
-4175,04	425,00
-4162,21	350,00
-4149,40	316,00
-4136,61	328,00
-4123,85	402,00
-4111,10	412,00
-4098,37	361,00
-4085,66	302,00
-4072,98	339,00
-4060,31	450,00
-4047,66	387,00
-4035,04	380,00
-4022,43	410,00
-4009,84	459,00
-3997,27	303,00
-3984,72	248,00
-3972,19	412,00
-3959,69	214,00
-3947,20	458,00
-3934,73	332,00
-3922,27	391,00
-3909,84	300,00
-3897,43	486,00
-3885,04	374,00
-3872,67	415,00
-3860,31	380,00
-3847,98	316,00
-3835,66	373,00
-3823,36	303,00
-3811,09	274,00
-3798,83	348,00
-3786,59	342,00
-3774,37	455,00
-3762,17	433,00
-3749,98	347,00
-3737,82	301,00
-3725,67	469,00
-3713,55	283,00
-3701,44	369,00
-3689,35	334,00
-3677,28	439,00
-3665,22	353,00
-3653,19	436,00
-3641,17	387,00
-3629,18	386,00
-3617,20	377,00
-3605,24	300,00
-3593,30	275,00
-3581,37	326,00
-3569,47	351,00
-3557,58	231,00
-3545,71	508,00
-3533,86	413,00
-3522,02	294,00
-3510,21	442,00
-3498,41	318,00
-3486,63	388,00
-3474,87	353,00
-3463,12	348,00
-3451,40	386,00
-3439,69	364,00
-3428,00	289,00
-3416,33	333,00
-3404,67	420,00
-3393,03	368,00
-3381,41	374,00
-3369,81	370,00
-3358,22	424,00
-3346,66	443,00
-3335,10	426,00
-3323,57	295,00
-3312,06	412,00
-3300,56	321,00
-3289,08	299,00
-3277,61	397,00
-3266,16	349,00
-3254,73	512,00
-3243,32	314,00
-3231,92	465,00
-3220,55	339,00
-3209,18	503,00
-3197,84	341,00
-3186,51	333,00
-3175,20	236,00
-3163,90	392,00
-3152,63	397,00
-3141,36	347,00
-3130,12	384,00
-3118,89	364,00
-3107,68	351,00
-3096,49	290,00
-3085,31	327,00
-3074,15	456,00
-3063,00	410,00
-3051,87	451,00
-3040,76	439,00
-3029,67	504,00
-3018,59	332,00
-3007,52	360,00
-2996,48	385,00
-2985,44	271,00
-2974,43	388,00
-2963,43	270,00
-2952,45	397,00
-2941,48	426,00
-2930,53	396,00
-2919,60	372,00
-2908,68	393,00
-2897,78	356,00
-2886,89	494,00
-2876,02	290,00
-2865,17	277,00
-2854,33	321,00
-2843,50	361,00
-2832,70	428,00
-2821,90	437,00
-2811,13	264,00
-2800,37	294,00
-2789,62	371,00
-2778,89	348,00
-2768,18	392,00
-2757,48	441,00
-2746,80	320,00
-2736,13	414,00
-2725,48	363,00
-2714,84	402,00
-2704,22	375,00
-2693,61	267,00
-2683,02	394,00
-2672,45	328,00
-2661,89	389,00
-2651,34	337,00
-2640,81	401,00
-2630,30	438,00
-2619,80	353,00
-2609,31	323,00
-2598,84	266,00
-2588,39	304,00
-2577,95	377,00
-2567,52	328,00
-2557,11	462,00
-2546,71	421,00
-2536,33	367,00
-2525,97	388,00
-2515,62	350,00
-2505,28	366,00
-2494,96	348,00
-2484,65	333,00
-2474,36	385,00
-2464,08	364,00
-2453,82	393,00
-2443,57	307,00
-2433,33	270,00
-2423,11	362,00
-2412,91	359,00
-2402,72	289,00
-2392,54	236,00
-2382,38	339,00
-2372,23	269,00
-2362,09	614,00
-2351,97	357,00
-2341,87	236,00
-2331,78	389,00
-2321,70	469,00
-2311,64	325,00
-2301,59	395,00
-2291,55	297,00
-2281,53	351,00
-2271,53	275,00
-2261,53	383,00
-2251,55	454,00
-2241,59	423,00
-2231,64	389,00
-2221,70	315,00
-2211,78	389,00
-2201,87	418,00
-2191,97	444,00
-2182,09	486,00
-2172,22	475,00
-2162,37	375,00
-2152,53	370,00
-2142,70	303,00
-2132,89	306,00
-2123,09	375,00
-2113,30	374,00
-2103,53	374,00
-2093,77	379,00
-2084,02	299,00
-2074,29	491,00
-2064,57	375,00
-2054,86	389,00
-2045,17	365,00
-2035,49	442,00
-2025,82	417,00
-2016,17	342,00
-2006,53	404,00
-1996,91	335,00
-1987,29	312,00
-1977,69	295,00
-1968,11	335,00
-1958,53	304,00
-1948,97	318,00
-1939,42	326,00
-1929,89	441,00
-1920,37	457,00
-1910,86	459,00
-1901,36	363,00
-1891,88	454,00
-1882,41	327,00
-1872,95	335,00
-1863,51	265,00
-1854,08	289,00
-1844,66	304,00
-1835,26	267,00
-1825,86	359,00
-1816,48	386,00
-1807,11	263,00
-1797,76	409,00
-1788,42	316,00
-1779,09	351,00
-1769,77	366,00
-1760,47	334,00
-1751,17	299,00
-1741,89	302,00
-1732,63	450,00
-1723,37	399,00
-1714,13	496,00
-1704,90	391,00
-1695,68	273,00
-1686,48	416,00
-1677,29	337,00
-1668,11	531,00
-1658,94	424,00
-1649,78	285,00
-1640,64	299,00
-1631,51	483,00
-1622,39	422,00
-1613,28	301,00
-1604,19	399,00
-1595,10	351,00
-1586,03	420,00
-1576,97	449,00
-1567,93	424,00
-1558,89	419,00
-1549,87	275,00
-1540,86	385,00
-1531,86	337,00
-1522,87	294,00
-1513,90	440,00
-1504,93	382,00
-1495,98	283,00
-1487,04	334,00
-1478,12	401,00
-1469,20	367,00
-1460,30	336,00
-1451,40	455,00
-1442,52	239,00
-1433,65	249,00
-1424,80	378,00
-1415,95	370,00
-1407,12	424,00
-1398,30	285,00
-1389,48	348,00
-1380,69	346,00
-1371,90	275,00
-1363,12	352,00
-1354,36	472,00
-1345,60	260,00
-1336,86	517,00
-1328,13	378,00
-1319,41	367,00
-1310,70	349,00
-1302,01	395,00
-1293,32	414,00
-1284,65	419,00
-1275,99	464,00
-1267,33	340,00
-1258,69	318,00
-1250,06	294,00
-1241,45	388,00
-1232,84	369,00
-1224,25	344,00
-1215,66	392,00
-1207,09	323,00
-1198,53	390,00
-1189,97	412,00
-1181,43	288,00
-1172,91	291,00
-1164,39	390,00
-1155,88	260,00
-1147,38	337,00
-1138,90	422,00
-1130,43	418,00
-1121,96	304,00
-1113,51	359,00
-1105,07	328,00
-1096,64	305,00
-1088,22	485,00
-1079,81	340,00
-1071,41	449,00
-1063,02	281,00
-1054,65	436,00
-1046,28	388,00
-1037,92	288,00
-1029,58	357,00
-1021,24	323,00
-1012,92	343,00
-1004,61	316,00
-996,30	535,00
-988,01	287,00
-979,73	430,00
-971,46	481,00
-963,20	287,00
-954,95	293,00
-946,71	400,00
-938,48	398,00
-930,26	352,00
-922,06	217,00
-913,86	304,00
-905,67	375,00
-897,49	401,00
-889,33	340,00
-881,17	414,00
-873,02	333,00
-864,89	306,00
-856,76	193,00
-848,65	382,00
-840,54	524,00
-832,45	386,00
-824,36	352,00
-816,29	436,00
-808,22	486,00
-800,17	439,00
-792,12	433,00
-784,09	362,00
-776,06	383,00
-768,05	430,00
-760,04	336,00
-752,05	376,00
-744,07	264,00
-736,09	446,00
-728,13	443,00
-720,17	424,00
-712,23	370,00
-704,29	285,00
-696,37	486,00
-688,45	368,00
-680,55	404,00
-672,65	267,00
-664,77	356,00
-656,89	323,00
-649,03	270,00
-641,17	324,00
-633,32	419,00
-625,49	290,00
-617,66	384,00
-609,84	356,00
-602,03	429,00
-594,23	255,00
-586,45	477,00
-578,67	397,00
-570,90	320,00
-563,14	263,00
-555,39	307,00
-547,65	467,00
-539,91	373,00
-532,19	384,00
-524,48	481,00
-516,78	373,00
-509,08	419,00
-501,40	260,00
-493,72	311,00
-486,06	238,00
-478,40	342,00
-470,76	411,00
-463,12	417,00
-455,49	307,00
-447,87	456,00
-440,26	421,00
-432,66	338,00
-425,07	381,00
-417,49	361,00
-409,92	374,00
-402,35	330,00
-394,80	409,00
-387,25	406,00
-379,72	532,00
-372,19	371,00
-364,67	343,00
-357,17	321,00
-349,67	394,00
-342,18	317,00
-334,69	431,00
-327,22	432,00
-319,76	320,00
-312,30	460,00
-304,86	396,00
-297,42	382,00
-290,00	376,00
-282,58	407,00
-275,17	566,00
-267,77	361,00
-260,37	375,00
-252,99	442,00
-245,62	415,00
-238,25	549,00
-230,90	534,00
-223,55	515,00
-216,21	488,00
-208,88	740,00
-201,56	619,00
-194,25	561,00
-186,94	607,00
-179,65	700,00
-172,36	618,00
-165,08	706,00
-157,81	774,00
-150,55	813,00
-143,30	758,00
-136,06	909,00
-128,82	916,00
-121,60	1007,00
-114,38	1069,00
-107,17	1102,00
-99,97	1292,00
-92,78	1367,00
-85,60	1517,00
-78,42	1701,00
-71,25	1894,00
-64,10	2148,00
-56,95	2558,00
-49,81	2959,00
-42,67	3633,00
-35,55	4423,00
-28,43	5757,00
-21,33	9421,00
-14,23	30773,00
-7,14	55635,00
-0,05	55419,00
7,02	55129,00
14,09	55339,00
21,14	27721,00
28,19	11675,00
35,23	7362,00
42,27	5608,00
49,29	4710,00
56,31	3955,00
63,32	3262,00
70,32	2758,00
77,31	2390,00
84,29	2064,00
91,27	1947,00
98,23	1774,00
105,19	1727,00
112,14	1539,00
119,09	1867,00
126,02	2286,00
132,95	2370,00
139,87	2456,00
146,78	2350,00
153,68	2312,00
160,58	2289,00
167,46	2219,00
174,34	2243,00
181,21	2104,00
188,08	2052,00
194,93	2102,00
201,78	2123,00
208,62	2143,00
215,45	2064,00
222,27	2017,00
229,09	2072,00
235,90	2023,00
242,70	2119,00
249,49	2084,00
256,27	1871,00
263,05	1960,00
269,82	1965,00
276,58	1956,00
283,33	1968,00
290,08	1873,00
296,82	1889,00
303,55	1745,00
310,27	1770,00
316,98	1799,00
323,69	1810,00
330,39	1842,00
337,08	1679,00
343,76	1765,00
350,44	1849,00
357,11	1655,00
363,77	1771,00
370,42	1857,00
377,07	1736,00
383,71	1743,00
390,34	1772,00
396,96	1667,00
403,58	1690,00
410,19	1864,00
416,79	1778,00
423,38	1874,00
429,97	1812,00
436,55	1616,00
443,12	1624,00
449,68	1611,00
456,24	1608,00
462,79	1565,00
469,33	1537,00
475,86	1555,00
482,39	1616,00
488,91	1514,00
495,42	1457,00
501,93	1394,00
508,42	1506,00
514,91	1539,00
521,40	1487,00
527,87	1506,00
534,34	1377,00
540,80	1383,00
547,25	1481,00
553,70	1362,00
560,14	1480,00
566,57	1409,00
573,00	1431,00
579,41	1439,00
585,83	1437,00
592,23	1471,00
598,62	1303,00
605,01	1279,00
611,40	1450,00
617,77	1407,00
624,14	1342,00
630,50	1340,00
636,85	1384,00
643,20	1384,00
649,54	1152,00
655,87	1264,00
662,20	1384,00
668,52	1198,00
674,83	1350,00
681,13	1202,00
687,43	1206,00
693,72	1382,00
700,00	1336,00
706,28	1345,00
712,55	1187,00
718,81	1325,00
725,07	1256,00
731,32	1198,00
737,56	1236,00
743,79	1236,00
750,02	1393,00
756,24	1199,00
762,46	1243,00
768,67	1266,00
774,87	1258,00
781,06	1275,00
787,25	1349,00
793,43	1173,00
799,60	1113,00
805,77	1339,00
811,93	1297,00
818,08	1037,00
824,23	1205,00
830,37	1201,00
836,50	1321,00
842,63	1107,00
848,75	1314,00
854,87	1100,00
860,97	1235,00
867,07	1234,00
873,17	1242,00
879,25	1189,00
885,33	1153,00
891,41	1223,00
897,47	1245,00
903,53	1152,00
909,59	1305,00
915,63	1133,00
921,67	1168,00
927,71	1094,00
933,74	1206,00
939,76	996,00
945,77	1111,00
951,78	1181,00
957,78	1112,00
963,78	1066,00
969,77	1019,00
975,75	1230,00
981,72	1203,00
987,69	1709,00
993,66	1170,00
999,61	1187,00
1005,56	1073,00
1011,51	1177,00
1017,44	1188,00
1023,37	1210,00
1029,30	1061,00
1035,22	1089,00
1041,13	1253,00
1047,03	1075,00
1052,93	1270,00
1058,83	1447,00
1064,71	1352,00
1070,59	1351,00
1076,47	1116,00
1082,33	1077,00
1088,20	1240,00
1094,05	1199,00
1099,90	1182,00
1105,74	958,00
1111,58	1101,00
1117,41	1091,00
1123,23	1356,00
1129,05	1255,00
1134,86	1351,00
1140,67	1218,00
1146,47	952,00
1152,26	1052,00
1158,05	1061,00
1163,83	1086,00
1169,60	1117,00
1175,37	966,00
1181,13	1170,00
1186,89	1079,00
1192,64	1090,00
1198,38	998,00
1204,12	1145,00
1209,85	1047,00
1215,58	1062,00
1221,30	1104,00
1227,02	1210,00
1232,72	1087,00
1238,43	1078,00
1244,12	1039,00
1249,81	1071,00
1255,50	1046,00
1261,17	1014,00
1266,85	1212,00
1272,51	1103,00
1278,17	1160,00
1283,83	1025,00
1289,47	1345,00
1295,12	1469,00
1300,75	1509,00
1306,38	1262,00
1312,01	1262,00
1317,63	1137,00
1323,24	1101,00
1328,85	1063,00
1334,45	1118,00
1340,04	1135,00
1345,63	1062,00
1351,22	1245,00
1356,80	1233,00
1362,37	1096,00
1367,93	1141,00
1373,49	1025,00
1379,05	1214,00
1384,60	1116,00
1390,14	1165,00
1395,68	1097,00
1401,21	1091,00
1406,74	1141,00
1412,26	1109,00
1417,77	1185,00
1423,28	1296,00
1428,78	1435,00
1434,28	1418,00
1439,77	1607,00
1445,26	1575,00
1450,74	1466,00
1456,22	1518,00
1461,68	1401,00
1467,15	1266,00
1472,61	1312,00
1478,06	1253,00
1483,51	1176,00
1488,95	1001,00
1494,38	991,00
1499,81	1064,00
1505,24	995,00
1510,65	1086,00
1516,07	1142,00
1521,48	1058,00
1526,88	985,00
1532,27	1097,00
1537,67	933,00
1543,05	1142,00
1548,43	888,00
1553,81	995,00
1559,18	1020,00
1564,54	1034,00
1569,90	1009,00
1575,25	903,00
1580,60	938,00
1585,94	926,00
1591,28	1060,00
1596,61	849,00
1601,93	955,00
1607,25	935,00
1612,57	1077,00
1617,88	913,00
1623,18	951,00
1628,48	969,00
1633,77	809,00
1639,06	969,00
1644,34	862,00
1649,62	910,00
1654,89	902,00
1660,16	888,00
1665,42	1048,00
1670,67	853,00
1675,92	936,00
1681,17	922,00
1686,41	964,00
1691,64	930,00
1696,87	944,00
1702,10	765,00
1707,32	793,00
1712,53	833,00
1717,74	839,00
1722,94	874,00
1728,14	791,00
1733,33	854,00
1738,52	889,00
1743,70	785,00
1748,88	797,00
1754,05	865,00
1759,22	898,00
1764,38	909,00
1769,53	861,00
1774,69	775,00
1779,83	858,00
1784,97	857,00
1790,11	722,00
1795,24	713,00
1800,36	833,00
1805,48	743,00
1810,60	796,00
1815,71	752,00
1820,82	723,00
1825,92	740,00
1831,01	836,00
1836,10	823,00
1841,19	801,00
1846,26	630,00
1851,34	755,00
1856,41	710,00
1861,47	747,00
1866,53	731,00
1871,59	804,00
1876,64	707,00
1881,68	856,00
1886,72	663,00
1891,76	719,00
1896,79	809,00
1901,81	645,00
1906,83	779,00
1911,85	783,00
1916,86	778,00
1921,86	673,00
1926,86	725,00
1931,86	657,00
1936,85	611,00
1941,83	745,00
1946,81	742,00
1951,79	749,00
1956,76	576,00
1961,72	598,00
1966,68	633,00
1971,64	611,00
1976,59	585,00
1981,54	632,00
1986,48	658,00
1991,42	631,00
1996,35	766,00
2001,27	619,00
2006,20	575,00
2011,11	583,00
2016,03	663,00
2020,93	597,00
2025,84	686,00
2030,73	733,00
2035,63	575,00
2040,52	607,00
2045,40	741,00
2050,28	559,00
2055,15	644,00
2060,02	620,00
2064,89	634,00
2069,75	594,00
2074,60	644,00
2079,46	597,00
2084,30	511,00
2089,14	652,00
2093,98	632,00
2098,81	626,00
2103,64	646,00
2108,46	684,00
2113,28	602,00
2118,09	529,00
2122,90	572,00
2127,70	608,00
2132,50	597,00
2137,30	642,00
2142,09	548,00
2146,87	569,00
2151,66	711,00
2156,43	643,00
2161,20	598,00
2165,97	465,00
2170,73	592,00
2175,49	618,00
2180,24	657,00
2184,99	532,00
2189,74	534,00
2194,48	715,00
2199,21	774,00
2203,94	539,00
2208,67	611,00
2213,39	609,00
2218,11	541,00
2222,82	409,00
2227,53	607,00
2232,23	516,00
2236,93	640,00
2241,63	639,00
2246,32	653,00
2251,00	541,00
2255,68	587,00
2260,36	579,00
2265,03	520,00
2269,70	495,00
2274,36	544,00
2279,02	642,00
2283,68	670,00
2288,33	581,00
2292,97	668,00
2297,61	507,00
2302,25	608,00
2306,88	545,00
2311,51	510,00
2316,14	575,00
2320,75	537,00
2325,37	573,00
2329,98	624,00
2334,59	467,00
2339,19	461,00
2343,79	506,00
2348,38	534,00
2352,97	548,00
2357,55	550,00
2362,13	571,00
2366,71	424,00
2371,28	592,00
2375,85	488,00
2380,41	425,00
2384,97	552,00
2389,52	561,00
2394,07	583,00
2398,62	628,00
2403,16	554,00
2407,70	417,00
2412,23	610,00
2416,76	449,00
2421,29	614,00
2425,81	638,00
2430,32	583,00
2434,84	468,00
2439,34	477,00
2443,85	498,00
2448,35	555,00
2452,84	559,00
2457,33	649,00
2461,82	514,00
2466,30	396,00
2470,78	576,00
2475,25	497,00
2479,72	426,00
2484,19	551,00
2488,65	569,00
2493,11	426,00
2497,56	671,00
2502,01	459,00
2506,46	425,00
2510,90	416,00
2515,34	551,00
2519,77	495,00
2524,20	480,00
2528,62	521,00
2533,04	492,00
2537,46	557,00
2541,87	363,00
2546,28	415,00
2550,68	520,00
2555,08	478,00
2559,48	486,00
2563,87	503,00
2568,26	485,00
2572,64	495,00
2577,02	640,00
2581,40	555,00
2585,77	484,00
2590,14	397,00
2594,50	338,00
2598,86	457,00
2603,22	482,00
2607,57	565,00
2611,92	483,00
2616,26	496,00
2620,60	546,00
2624,94	361,00
2629,27	446,00
2633,60	387,00
2637,92	533,00
2642,24	526,00
2646,56	555,00
2650,87	477,00
2655,18	560,00
2659,48	540,00
2663,78	372,00
2668,08	433,00
2672,37	379,00
2676,66	507,00
2680,95	484,00
2685,23	545,00
2689,50	601,00
2693,78	467,00
2698,05	515,00
2702,31	463,00
2706,57	482,00
2710,83	590,00
2715,08	582,00
2719,33	631,00
2723,58	648,00
2727,82	640,00
2732,06	524,00
2736,29	504,00
2740,53	565,00
2744,75	464,00
2748,97	452,00
2753,19	405,00
2757,41	584,00
2761,62	508,00
2765,83	536,00
2770,03	415,00
2774,23	525,00
2778,43	467,00
2782,62	537,00
2786,81	493,00
2791,00	464,00
2795,18	563,00
2799,35	535,00
2803,53	612,00
2807,70	554,00
2811,86	515,00
2816,03	546,00
2820,19	590,00
2824,34	764,00
2828,49	550,00
2832,64	708,00
2836,78	681,00
2840,92	732,00
2845,06	948,00
2849,19	1030,00
2853,32	1123,00
2857,45	1082,00
2861,57	1147,00
2865,69	1042,00
2869,80	1019,00
2873,91	1048,00
2878,02	1075,00
2882,12	1127,00
2886,22	1148,00
2890,32	1082,00
2894,41	989,00
2898,50	1043,00
2902,58	875,00
2906,67	877,00
2910,74	974,00
2914,82	900,00
2918,89	852,00
2922,96	812,00
2927,02	753,00
2931,08	807,00
2935,13	634,00
2939,19	794,00
2943,24	696,00
2947,28	642,00
2951,32	558,00
2955,36	648,00
2959,40	556,00
2963,43	541,00
2967,46	549,00
2971,48	379,00
2975,50	535,00
2979,52	514,00
2983,53	605,00
2987,54	429,00
2991,55	476,00
2995,55	445,00
2999,55	454,00
3003,54	439,00
3007,54	455,00
3011,53	551,00
3015,51	431,00
3019,49	505,00
3023,47	411,00
3027,45	416,00
3031,42	377,00
3035,39	415,00
3039,35	542,00
3043,31	385,00
3047,27	427,00
3051,22	373,00
3055,17	353,00
3059,12	324,00
3063,06	487,00
3067,00	384,00
3070,94	502,00
3074,87	407,00
3078,80	391,00
3082,73	394,00
3086,65	342,00
3090,57	388,00
3094,49	513,00
3098,40	365,00
3102,31	388,00
3106,22	445,00
3110,12	382,00
3114,02	473,00
3117,92	434,00
3121,81	436,00
3125,70	498,00
3129,58	266,00
3133,47	336,00
3137,34	411,00
3141,22	327,00
3145,09	457,00
3148,96	484,00
3152,83	434,00
3156,69	371,00
3160,55	408,00
3164,40	467,00
3168,26	354,00
3172,10	455,00
3175,95	495,00
3179,79	425,00
3183,63	474,00
3187,47	387,00
3191,30	393,00
3195,13	389,00
3198,95	452,00
3202,78	236,00
3206,60	511,00
3210,41	375,00
3214,23	369,00
3218,03	345,00
3221,84	373,00
3225,64	366,00
3229,44	434,00
3233,24	396,00
3237,03	409,00
3240,82	438,00
3244,61	348,00
3248,39	298,00
3252,17	487,00
3255,95	461,00
3259,72	438,00
3263,49	424,00
3267,26	290,00
3271,03	414,00
3274,79	395,00
3278,54	393,00
3282,30	269,00
3286,05	355,00
3289,80	378,00
3293,54	314,00
3297,29	360,00
3301,02	335,00
3304,76	340,00
3308,49	315,00
3312,22	271,00
3315,95	454,00
3319,67	435,00
3323,39	454,00
3327,10	307,00
3330,82	437,00
3334,53	370,00
3338,24	302,00
3341,94	389,00
3345,64	295,00
3349,34	351,00
3353,03	377,00
3356,72	422,00
3360,41	392,00
3364,10	373,00
3367,78	306,00
3371,46	337,00
3375,13	388,00
3378,81	327,00
3382,48	318,00
3386,14	323,00
3389,81	356,00
3393,47	448,00
3397,12	443,00
3400,78	440,00
3404,43	323,00
3408,08	392,00
3411,72	371,00
3415,36	278,00
3419,00	325,00
3422,64	421,00
3426,27	307,00
3429,90	365,00
3433,53	367,00
3437,15	436,00
3440,77	358,00
3444,39	366,00
3448,00	400,00
3451,62	451,00
3455,22	318,00
3458,83	435,00
3462,43	371,00
3466,03	370,00
3469,63	451,00
3473,22	303,00
3476,81	359,00
3480,40	464,00
3483,99	269,00
3487,57	363,00
3491,15	335,00
3494,72	386,00
3498,29	403,00
3501,86	321,00
3505,43	396,00
3508,99	253,00
3512,56	243,00
3516,11	353,00
3519,67	261,00
3523,22	436,00
3526,77	394,00
3530,32	306,00
3533,86	368,00
3537,40	452,00
3540,94	480,00
3544,47	319,00
3548,00	381,00
3551,53	244,00
3555,06	328,00
3558,58	306,00
3562,10	389,00
3565,62	372,00
3569,13	374,00
3572,64	424,00
3576,15	309,00
3579,66	329,00
3583,16	386,00
3586,66	419,00
3590,16	259,00
3593,65	352,00
3597,14	312,00
3600,63	365,00
3604,11	377,00
3607,60	268,00
3611,08	419,00
3614,55	255,00
3618,03	357,00
3621,50	310,00
3624,97	326,00
3628,43	331,00
3631,90	273,00
3635,36	327,00
3638,81	438,00
3642,27	372,00
3645,72	336,00
3649,17	304,00
3652,61	331,00
3656,06	311,00
3659,50	296,00
3662,93	244,00
3666,37	348,00
3669,80	220,00
3673,23	290,00
3676,65	355,00
3680,08	395,00
3683,50	243,00
3686,92	538,00
3690,33	321,00
3693,74	305,00
3697,15	296,00
3700,56	378,00
3703,96	257,00
3707,36	309,00
3710,76	357,00
3714,16	375,00
3717,55	327,00
3720,94	343,00
3724,33	265,00
3727,71	341,00
3731,10	388,00
3734,48	322,00
3737,85	214,00
3741,23	308,00
3744,60	236,00
3747,97	240,00
3751,33	264,00
3754,69	372,00
3758,05	343,00
3761,41	309,00
3764,77	285,00
3768,12	293,00
3771,47	267,00
3774,82	352,00
3778,16	-7,00
3781,50	7,00
3784,84	-2,00
3788,18	8,00
>>>>>End Processed Spectral Data<<<<<
