SpectraSuite Data File
++++++++++++++++++++++++++++++++++++
Date: Mon Mar 09 16:24:30 ICT 2026
User: Administrator
Dark Spectrum Present: Yes
Reference Spectrum Present: No
Number of Sampled Component Spectra: 1
Spectrometers: MAYP113682
Integration Time (usec): 3000000 (MAYP113682)
Spectra Averaged: 1 (MAYP113682)
Boxcar Smoothing: 0 (MAYP113682)
Correct for Electrical Dark: No (MAYP113682)
Strobe/Lamp Enabled: No (MAYP113682)
Correct for Detector Non-linearity: No (MAYP113682)
Correct for Stray Light: No (MAYP113682)
Number of Pixels in Processed Spectrum: 2068
>>>>>Begin Processed Spectral Data<<<<<
-37534,58	-6,00
-37414,56	1,00
-37295,11	-6,00
-37176,24	-2,00
-37057,95	-36,00
-36940,22	57,00
-36823,05	104,00
-36706,45	69,00
-36590,40	133,00
-36474,90	139,00
-36359,95	34,00
-36245,55	73,00
-36131,68	94,00
-36018,35	165,00
-35905,55	17,00
-35793,29	35,00
-35681,54	62,00
-35570,32	106,00
-35459,62	16,00
-35349,43	119,00
-35239,75	72,00
-35130,58	-26,00
-35021,91	80,00
-34913,74	9,00
-34806,07	131,00
-34698,89	-17,00
-34592,20	64,00
-34486,00	126,00
-34380,28	105,00
-34275,04	52,00
-34170,27	10,00
-34065,98	37,00
-33962,16	112,00
-33858,81	112,00
-33755,92	235,00
-33653,49	164,00
-33551,52	109,00
-33450,01	177,00
-33348,94	70,00
-33248,33	-47,00
-33148,16	0,00
-33048,43	108,00
-32949,14	71,00
-32850,29	36,00
-32751,87	121,00
-32653,89	26,00
-32556,33	78,00
-32459,20	59,00
-32362,49	230,00
-32266,19	219,00
-32170,32	137,00
-32074,86	94,00
-31979,82	-12,00
-31885,18	40,00
-31790,95	114,00
-31697,12	34,00
-31603,69	219,00
-31510,67	131,00
-31418,04	91,00
-31325,80	87,00
-31233,95	198,00
-31142,49	124,00
-31051,42	161,00
-30960,73	20,00
-30870,43	98,00
-30780,50	51,00
-30690,95	-52,00
-30601,77	191,00
-30512,97	135,00
-30424,53	70,00
-30336,46	64,00
-30248,76	34,00
-30161,42	128,00
-30074,44	135,00
-29987,81	131,00
-29901,55	66,00
-29815,63	62,00
-29730,07	68,00
-29644,86	60,00
-29560,00	-52,00
-29475,48	193,00
-29391,30	104,00
-29307,47	39,00
-29223,97	99,00
-29140,81	110,00
-29057,99	121,00
-28975,50	4,00
-28893,34	154,00
-28811,51	53,00
-28730,00	56,00
-28648,82	73,00
-28567,97	79,00
-28487,43	118,00
-28407,21	139,00
-28327,32	118,00
-28247,73	107,00
-28168,46	49,00
-28089,50	163,00
-28010,85	12,00
-27932,51	142,00
-27854,48	128,00
-27776,75	81,00
-27699,32	77,00
-27622,19	40,00
-27545,37	62,00
-27468,84	55,00
-27392,60	196,00
-27316,66	-15,00
-27241,01	225,00
-27165,66	92,00
-27090,59	60,00
-27015,81	211,00
-26941,31	65,00
-26867,10	19,00
-26793,17	-73,00
-26719,52	56,00
-26646,15	5,00
-26573,06	40,00
-26500,24	198,00
-26427,70	108,00
-26355,43	16,00
-26283,43	18,00
-26211,71	35,00
-26140,25	162,00
-26069,06	169,00
-25998,13	193,00
-25927,46	36,00
-25857,06	159,00
-25786,92	11,00
-25717,04	187,00
-25647,42	218,00
-25578,05	141,00
-25508,94	56,00
-25440,09	100,00
-25371,48	143,00
-25303,13	236,00
-25235,02	36,00
-25167,17	137,00
-25099,56	-19,00
-25032,19	194,00
-24965,07	24,00
-24898,20	14,00
-24831,56	61,00
-24765,17	102,00
-24699,01	188,00
-24633,10	74,00
-24567,41	77,00
-24501,97	20,00
-24436,75	28,00
-24371,77	166,00
-24307,03	-20,00
-24242,51	106,00
-24178,22	-7,00
-24114,16	60,00
-24050,32	211,00
-23986,71	179,00
-23923,32	105,00
-23860,16	66,00
-23797,22	45,00
-23734,50	0,00
-23672,00	-73,00
-23609,71	133,00
-23547,65	5,00
-23485,80	100,00
-23424,16	-16,00
-23362,74	118,00
-23301,53	-23,00
-23240,54	28,00
-23179,75	129,00
-23119,17	35,00
-23058,80	81,00
-22998,64	97,00
-22938,68	132,00
-22878,93	188,00
-22819,39	84,00
-22760,04	141,00
-22700,90	-151,00
-22641,96	68,00
-22583,22	107,00
-22524,68	147,00
-22466,33	192,00
-22408,19	27,00
-22350,23	9,00
-22292,48	112,00
-22234,92	79,00
-22177,55	160,00
-22120,37	194,00
-22063,38	65,00
-22006,58	26,00
-21949,98	58,00
-21893,56	119,00
-21837,33	-17,00
-21781,28	138,00
-21725,42	42,00
-21669,74	138,00
-21614,25	96,00
-21558,94	181,00
-21503,81	136,00
-21448,86	23,00
-21394,10	76,00
-21339,51	72,00
-21285,10	79,00
-21230,86	57,00
-21176,81	80,00
-21122,93	46,00
-21069,22	-33,00
-21015,69	95,00
-20962,33	107,00
-20909,14	29,00
-20856,13	-58,00
-20803,28	93,00
-20750,61	125,00
-20698,10	4,00
-20645,76	120,00
-20593,59	78,00
-20541,59	124,00
-20489,75	21,00
-20438,07	36,00
-20386,56	16,00
-20335,22	106,00
-20284,03	15,00
-20233,01	81,00
-20182,15	7,00
-20131,45	-13,00
-20080,91	76,00
-20030,52	50,00
-19980,30	-32,00
-19930,23	109,00
-19880,32	110,00
-19830,56	30,00
-19780,96	33,00
-19731,52	214,00
-19682,23	98,00
-19633,09	-4,00
-19584,10	-55,00
-19535,26	50,00
-19486,58	65,00
-19438,04	110,00
-19389,66	-1,00
-19341,42	76,00
-19293,33	140,00
-19245,39	114,00
-19197,60	244,00
-19149,95	37,00
-19102,45	112,00
-19055,09	151,00
-19007,87	84,00
-18960,80	236,00
-18913,87	66,00
-18867,09	80,00
-18820,44	53,00
-18773,94	143,00
-18727,57	57,00
-18681,35	27,00
-18635,26	44,00
-18589,31	63,00
-18543,50	-54,00
-18497,83	94,00
-18452,29	59,00
-18406,89	-6,00
-18361,63	181,00
-18316,50	159,00
-18271,50	160,00
-18226,63	59,00
-18181,90	11,00
-18137,30	173,00
-18092,84	8,00
-18048,50	194,00
-18004,29	44,00
-17960,22	156,00
-17916,27	196,00
-17872,45	44,00
-17828,76	96,00
-17785,20	99,00
-17741,77	127,00
-17698,46	109,00
-17655,28	124,00
-17612,22	74,00
-17569,29	52,00
-17526,48	-9,00
-17483,79	166,00
-17441,23	51,00
-17398,79	9,00
-17356,48	88,00
-17314,28	154,00
-17272,21	17,00
-17230,26	126,00
-17188,42	128,00
-17146,71	110,00
-17105,12	39,00
-17063,64	-9,00
-17022,28	225,00
-16981,04	188,00
-16939,92	38,00
-16898,91	115,00
-16858,02	19,00
-16817,25	79,00
-16776,59	144,00
-16736,04	-48,00
-16695,61	17,00
-16655,29	57,00
-16615,09	67,00
-16574,99	130,00
-16535,01	45,00
-16495,15	9,00
-16455,39	95,00
-16415,74	85,00
-16376,21	106,00
-16336,78	131,00
-16297,46	77,00
-16258,26	107,00
-16219,16	128,00
-16180,17	91,00
-16141,28	4,00
-16102,51	93,00
-16063,84	77,00
-16025,27	103,00
-15986,82	102,00
-15948,46	-19,00
-15910,22	45,00
-15872,07	89,00
-15834,04	235,00
-15796,10	2,00
-15758,27	176,00
-15720,54	43,00
-15682,91	115,00
-15645,39	147,00
-15607,97	-4,00
-15570,64	54,00
-15533,42	80,00
-15496,30	122,00
-15459,28	100,00
-15422,36	75,00
-15385,54	-6,00
-15348,82	29,00
-15312,19	-3,00
-15275,66	104,00
-15239,23	154,00
-15202,90	64,00
-15166,67	86,00
-15130,53	111,00
-15094,48	101,00
-15058,54	63,00
-15022,68	71,00
-14986,93	96,00
-14951,26	-3,00
-14915,69	57,00
-14880,22	79,00
-14844,84	88,00
-14809,55	59,00
-14774,35	81,00
-14739,25	168,00
-14704,24	65,00
-14669,32	-51,00
-14634,49	84,00
-14599,75	21,00
-14565,10	51,00
-14530,55	67,00
-14496,08	106,00
-14461,70	142,00
-14427,41	69,00
-14393,21	105,00
-14359,10	37,00
-14325,07	-37,00
-14291,14	51,00
-14257,29	55,00
-14223,52	106,00
-14189,85	200,00
-14156,26	46,00
-14122,76	92,00
-14089,34	82,00
-14056,01	36,00
-14022,76	214,00
-13989,60	-2,00
-13956,52	144,00
-13923,53	-6,00
-13890,62	71,00
-13857,79	-60,00
-13825,05	114,00
-13792,39	59,00
-13759,81	91,00
-13727,31	66,00
-13694,90	56,00
-13662,57	140,00
-13630,31	-3,00
-13598,14	-32,00
-13566,05	44,00
-13534,05	48,00
-13502,12	80,00
-13470,27	154,00
-13438,50	103,00
-13406,80	1,00
-13375,19	143,00
-13343,66	-20,00
-13312,20	20,00
-13280,83	91,00
-13249,53	40,00
-13218,30	113,00
-13187,16	94,00
-13156,09	73,00
-13125,10	80,00
-13094,18	93,00
-13063,34	73,00
-13032,58	-32,00
-13001,89	80,00
-12971,28	-54,00
-12940,74	166,00
-12910,27	87,00
-12879,88	89,00
-12849,57	179,00
-12819,33	164,00
-12789,16	-24,00
-12759,06	134,00
-12729,04	138,00
-12699,09	217,00
-12669,21	5,00
-12639,41	74,00
-12609,68	180,00
-12580,02	79,00
-12550,43	54,00
-12520,91	-16,00
-12491,46	119,00
-12462,08	11,00
-12432,77	-53,00
-12403,54	44,00
-12374,37	188,00
-12345,27	139,00
-12316,24	50,00
-12287,29	124,00
-12258,40	92,00
-12229,57	37,00
-12200,82	46,00
-12172,14	-25,00
-12143,52	-1,00
-12114,97	107,00
-12086,49	101,00
-12058,07	-21,00
-12029,73	45,00
-12001,44	87,00
-11973,23	103,00
-11945,08	28,00
-11917,00	253,00
-11888,98	114,00
-11861,03	179,00
-11833,15	82,00
-11805,32	193,00
-11777,57	154,00
-11749,88	72,00
-11722,25	49,00
-11694,69	218,00
-11667,19	75,00
-11639,75	102,00
-11612,38	94,00
-11585,07	124,00
-11557,83	131,00
-11530,65	66,00
-11503,53	30,00
-11476,47	135,00
-11449,48	91,00
-11422,54	29,00
-11395,67	41,00
-11368,86	46,00
-11342,11	-2,00
-11315,43	60,00
-11288,80	60,00
-11262,23	168,00
-11235,73	139,00
-11209,28	-33,00
-11182,90	118,00
-11156,57	76,00
-11130,31	101,00
-11104,10	48,00
-11077,96	108,00
-11051,87	160,00
-11025,84	99,00
-10999,87	133,00
-10973,96	32,00
-10948,11	20,00
-10922,31	143,00
-10896,58	39,00
-10870,90	66,00
-10845,28	78,00
-10819,71	113,00
-10794,20	36,00
-10768,75	80,00
-10743,36	22,00
-10718,02	15,00
-10692,74	150,00
-10667,52	168,00
-10642,35	125,00
-10617,24	37,00
-10592,18	161,00
-10567,18	148,00
-10542,23	156,00
-10517,34	203,00
-10492,51	179,00
-10467,72	149,00
-10443,00	137,00
-10418,32	119,00
-10393,70	61,00
-10369,14	143,00
-10344,63	55,00
-10320,17	191,00
-10295,77	215,00
-10271,42	94,00
-10247,12	162,00
-10222,88	84,00
-10198,68	141,00
-10174,54	158,00
-10150,46	177,00
-10126,42	202,00
-10102,44	89,00
-10078,51	185,00
-10054,63	154,00
-10030,80	140,00
-10007,03	208,00
-9983,30	171,00
-9959,63	79,00
-9936,01	357,00
-9912,44	301,00
-9888,92	133,00
-9865,44	292,00
-9842,02	139,00
-9818,65	327,00
-9795,33	308,00
-9772,06	247,00
-9748,84	196,00
-9725,67	228,00
-9702,55	253,00
-9679,47	268,00
-9656,45	339,00
-9633,47	348,00
-9610,55	434,00
-9587,67	281,00
-9564,84	481,00
-9542,06	458,00
-9519,32	551,00
-9496,64	520,00
-9474,00	580,00
-9451,41	657,00
-9428,87	539,00
-9406,37	604,00
-9383,92	564,00
-9361,52	641,00
-9339,17	434,00
-9316,86	667,00
-9294,60	890,00
-9272,38	917,00
-9250,21	974,00
-9228,09	927,00
-9206,01	863,00
-9183,98	902,00
-9162,00	720,00
-9140,06	650,00
-9118,16	741,00
-9096,31	875,00
-9074,51	884,00
-9052,75	807,00
-9031,04	878,00
-9009,37	742,00
-8987,74	578,00
-8966,16	485,00
-8944,63	417,00
-8923,14	398,00
-8901,69	462,00
-8880,29	696,00
-8858,93	666,00
-8837,61	843,00
-8816,34	963,00
-8795,11	784,00
-8773,92	709,00
-8752,78	588,00
-8731,68	637,00
-8710,62	609,00
-8689,61	731,00
-8668,63	799,00
-8647,70	641,00
-8626,82	845,00
-8605,97	879,00
-8585,17	681,00
-8564,41	542,00
-8543,69	597,00
-8523,01	505,00
-8502,37	631,00
-8481,78	660,00
-8461,23	635,00
-8440,71	765,00
-8420,24	751,00
-8399,81	855,00
-8379,42	872,00
-8359,08	789,00
-8338,77	733,00
-8318,50	650,00
-8298,27	605,00
-8278,09	581,00
-8257,94	657,00
-8237,83	763,00
-8217,76	801,00
-8197,74	822,00
-8177,75	639,00
-8157,80	744,00
-8137,89	671,00
-8118,02	670,00
-8098,19	662,00
-8078,40	611,00
-8058,65	599,00
-8038,93	766,00
-8019,26	733,00
-7999,62	632,00
-7980,02	547,00
-7960,46	724,00
-7940,94	607,00
-7921,46	468,00
-7902,01	574,00
-7882,60	499,00
-7863,23	632,00
-7843,90	446,00
-7824,61	549,00
-7805,35	646,00
-7786,13	681,00
-7766,95	754,00
-7747,80	541,00
-7728,69	613,00
-7709,62	645,00
-7690,59	556,00
-7671,59	722,00
-7652,63	674,00
-7633,70	666,00
-7614,81	674,00
-7595,96	645,00
-7577,15	559,00
-7558,37	475,00
-7539,62	533,00
-7520,91	649,00
-7502,24	553,00
-7483,60	597,00
-7465,00	552,00
-7446,44	466,00
-7427,91	405,00
-7409,41	401,00
-7390,95	348,00
-7372,53	419,00
-7354,14	282,00
-7335,78	241,00
-7317,46	467,00
-7299,18	413,00
-7280,92	562,00
-7262,71	582,00
-7244,52	552,00
-7226,38	646,00
-7208,26	653,00
-7190,18	400,00
-7172,14	540,00
-7154,12	439,00
-7136,15	620,00
-7118,20	628,00
-7100,29	650,00
-7082,41	585,00
-7064,57	614,00
-7046,76	438,00
-7028,98	407,00
-7011,24	484,00
-6993,53	261,00
-6975,85	268,00
-6958,20	195,00
-6940,59	210,00
-6923,01	255,00
-6905,46	325,00
-6887,94	465,00
-6870,46	432,00
-6853,01	478,00
-6835,59	590,00
-6818,21	379,00
-6800,85	434,00
-6783,53	326,00
-6766,24	149,00
-6748,98	112,00
-6731,76	118,00
-6714,56	23,00
-6697,40	237,00
-6680,26	72,00
-6663,16	259,00
-6646,09	320,00
-6629,05	324,00
-6612,05	427,00
-6595,07	429,00
-6578,13	426,00
-6561,21	314,00
-6544,33	221,00
-6527,47	160,00
-6510,65	117,00
-6493,86	86,00
-6477,10	197,00
-6460,36	187,00
-6443,66	283,00
-6426,99	184,00
-6410,35	149,00
-6393,74	188,00
-6377,16	289,00
-6360,61	207,00
-6344,09	207,00
-6327,59	235,00
-6311,13	313,00
-6294,70	213,00
-6278,29	474,00
-6261,92	424,00
-6245,58	419,00
-6229,26	458,00
-6212,97	325,00
-6196,72	280,00
-6180,49	202,00
-6164,29	139,00
-6148,12	94,00
-6131,98	-56,00
-6115,86	133,00
-6099,78	5,00
-6083,72	4,00
-6067,69	8,00
-6051,69	111,00
-6035,72	223,00
-6019,78	184,00
-6003,87	130,00
-5987,98	354,00
-5972,12	346,00
-5956,29	264,00
-5940,49	283,00
-5924,71	295,00
-5908,96	66,00
-5893,24	142,00
-5877,55	188,00
-5861,89	97,00
-5846,25	96,00
-5830,64	68,00
-5815,05	41,00
-5799,50	121,00
-5783,97	70,00
-5768,47	200,00
-5752,99	200,00
-5737,55	281,00
-5722,12	218,00
-5706,73	337,00
-5691,36	263,00
-5676,02	137,00
-5660,71	285,00
-5645,42	103,00
-5630,16	158,00
-5614,92	215,00
-5599,71	169,00
-5584,53	71,00
-5569,37	95,00
-5554,24	1236,00
-5539,14	200,00
-5524,06	142,00
-5509,01	221,00
-5493,98	79,00
-5478,98	168,00
-5464,00	248,00
-5449,05	192,00
-5434,13	182,00
-5419,23	142,00
-5404,36	124,00
-5389,51	272,00
-5374,69	277,00
-5359,89	194,00
-5345,12	338,00
-5330,37	308,00
-5315,65	284,00
-5300,95	305,00
-5286,28	188,00
-5271,63	134,00
-5257,01	96,00
-5242,41	242,00
-5227,84	84,00
-5213,29	48,00
-5198,76	44,00
-5184,26	146,00
-5169,79	126,00
-5155,33	228,00
-5140,91	69,00
-5126,51	266,00
-5112,13	261,00
-5097,77	96,00
-5083,44	80,00
-5069,13	89,00
-5054,85	165,00
-5040,59	252,00
-5026,36	123,00
-5012,15	299,00
-4997,96	129,00
-4983,80	60,00
-4969,66	87,00
-4955,54	162,00
-4941,44	230,00
-4927,37	203,00
-4913,33	276,00
-4899,30	314,00
-4885,30	370,00
-4871,33	290,00
-4857,37	166,00
-4843,44	162,00
-4829,53	137,00
-4815,65	194,00
-4801,79	136,00
-4787,95	102,00
-4774,13	181,00
-4760,34	135,00
-4746,56	38,00
-4732,82	99,00
-4719,09	126,00
-4705,38	244,00
-4691,70	372,00
-4678,04	236,00
-4664,41	172,00
-4650,79	129,00
-4637,20	188,00
-4623,63	187,00
-4610,08	60,00
-4596,56	96,00
-4583,05	249,00
-4569,57	115,00
-4556,11	174,00
-4542,67	71,00
-4529,25	40,00
-4515,86	144,00
-4502,49	299,00
-4489,13	291,00
-4475,80	254,00
-4462,49	173,00
-4449,21	191,00
-4435,94	237,00
-4422,70	130,00
-4409,47	180,00
-4396,27	304,00
-4383,09	188,00
-4369,93	64,00
-4356,79	128,00
-4343,67	20,00
-4330,58	140,00
-4317,50	216,00
-4304,45	173,00
-4291,41	66,00
-4278,40	145,00
-4265,41	123,00
-4252,44	177,00
-4239,49	221,00
-4226,55	145,00
-4213,65	297,00
-4200,76	143,00
-4187,89	61,00
-4175,04	137,00
-4162,21	168,00
-4149,40	175,00
-4136,61	189,00
-4123,85	105,00
-4111,10	50,00
-4098,37	78,00
-4085,66	206,00
-4072,98	163,00
-4060,31	77,00
-4047,66	135,00
-4035,04	104,00
-4022,43	127,00
-4009,84	180,00
-3997,27	26,00
-3984,72	100,00
-3972,19	61,00
-3959,69	64,00
-3947,20	47,00
-3934,73	-8,00
-3922,27	72,00
-3909,84	75,00
-3897,43	143,00
-3885,04	0,00
-3872,67	27,00
-3860,31	64,00
-3847,98	109,00
-3835,66	-6,00
-3823,36	100,00
-3811,09	3,00
-3798,83	136,00
-3786,59	66,00
-3774,37	171,00
-3762,17	113,00
-3749,98	176,00
-3737,82	3,00
-3725,67	60,00
-3713,55	97,00
-3701,44	155,00
-3689,35	28,00
-3677,28	63,00
-3665,22	52,00
-3653,19	-14,00
-3641,17	171,00
-3629,18	103,00
-3617,20	138,00
-3605,24	194,00
-3593,30	59,00
-3581,37	-25,00
-3569,47	125,00
-3557,58	135,00
-3545,71	-30,00
-3533,86	129,00
-3522,02	46,00
-3510,21	154,00
-3498,41	-54,00
-3486,63	141,00
-3474,87	106,00
-3463,12	130,00
-3451,40	-13,00
-3439,69	190,00
-3428,00	229,00
-3416,33	74,00
-3404,67	54,00
-3393,03	149,00
-3381,41	-21,00
-3369,81	-18,00
-3358,22	132,00
-3346,66	204,00
-3335,10	121,00
-3323,57	146,00
-3312,06	98,00
-3300,56	9,00
-3289,08	122,00
-3277,61	161,00
-3266,16	169,00
-3254,73	196,00
-3243,32	70,00
-3231,92	124,00
-3220,55	110,00
-3209,18	73,00
-3197,84	141,00
-3186,51	19,00
-3175,20	179,00
-3163,90	51,00
-3152,63	13,00
-3141,36	21,00
-3130,12	167,00
-3118,89	62,00
-3107,68	161,00
-3096,49	45,00
-3085,31	-122,00
-3074,15	128,00
-3063,00	32,00
-3051,87	121,00
-3040,76	80,00
-3029,67	98,00
-3018,59	-44,00
-3007,52	85,00
-2996,48	-31,00
-2985,44	169,00
-2974,43	46,00
-2963,43	153,00
-2952,45	58,00
-2941,48	34,00
-2930,53	87,00
-2919,60	168,00
-2908,68	112,00
-2897,78	-4,00
-2886,89	112,00
-2876,02	92,00
-2865,17	140,00
-2854,33	111,00
-2843,50	87,00
-2832,70	101,00
-2821,90	111,00
-2811,13	95,00
-2800,37	24,00
-2789,62	85,00
-2778,89	241,00
-2768,18	55,00
-2757,48	60,00
-2746,80	142,00
-2736,13	-36,00
-2725,48	259,00
-2714,84	17,00
-2704,22	105,00
-2693,61	-77,00
-2683,02	46,00
-2672,45	154,00
-2661,89	81,00
-2651,34	51,00
-2640,81	37,00
-2630,30	102,00
-2619,80	194,00
-2609,31	43,00
-2598,84	128,00
-2588,39	123,00
-2577,95	111,00
-2567,52	72,00
-2557,11	45,00
-2546,71	197,00
-2536,33	191,00
-2525,97	97,00
-2515,62	15,00
-2505,28	150,00
-2494,96	45,00
-2484,65	54,00
-2474,36	144,00
-2464,08	139,00
-2453,82	93,00
-2443,57	213,00
-2433,33	-7,00
-2423,11	42,00
-2412,91	31,00
-2402,72	98,00
-2392,54	233,00
-2382,38	21,00
-2372,23	139,00
-2362,09	-4199,00
-2351,97	145,00
-2341,87	0,00
-2331,78	32,00
-2321,70	52,00
-2311,64	88,00
-2301,59	136,00
-2291,55	92,00
-2281,53	61,00
-2271,53	-10,00
-2261,53	185,00
-2251,55	101,00
-2241,59	123,00
-2231,64	64,00
-2221,70	-61,00
-2211,78	111,00
-2201,87	113,00
-2191,97	116,00
-2182,09	23,00
-2172,22	157,00
-2162,37	77,00
-2152,53	70,00
-2142,70	66,00
-2132,89	45,00
-2123,09	58,00
-2113,30	165,00
-2103,53	81,00
-2093,77	17,00
-2084,02	-10,00
-2074,29	99,00
-2064,57	73,00
-2054,86	108,00
-2045,17	-22,00
-2035,49	85,00
-2025,82	-65,00
-2016,17	69,00
-2006,53	55,00
-1996,91	16,00
-1987,29	95,00
-1977,69	25,00
-1968,11	88,00
-1958,53	111,00
-1948,97	76,00
-1939,42	203,00
-1929,89	-48,00
-1920,37	72,00
-1910,86	103,00
-1901,36	91,00
-1891,88	122,00
-1882,41	42,00
-1872,95	60,00
-1863,51	26,00
-1854,08	128,00
-1844,66	130,00
-1835,26	62,00
-1825,86	122,00
-1816,48	42,00
-1807,11	84,00
-1797,76	80,00
-1788,42	22,00
-1779,09	112,00
-1769,77	-3,00
-1760,47	33,00
-1751,17	-46,00
-1741,89	70,00
-1732,63	149,00
-1723,37	297,00
-1714,13	106,00
-1704,90	95,00
-1695,68	8,00
-1686,48	134,00
-1677,29	67,00
-1668,11	155,00
-1658,94	176,00
-1649,78	166,00
-1640,64	95,00
-1631,51	37,00
-1622,39	123,00
-1613,28	183,00
-1604,19	45,00
-1595,10	102,00
-1586,03	133,00
-1576,97	47,00
-1567,93	165,00
-1558,89	24,00
-1549,87	-35,00
-1540,86	89,00
-1531,86	119,00
-1522,87	-20,00
-1513,90	171,00
-1504,93	-23,00
-1495,98	114,00
-1487,04	136,00
-1478,12	136,00
-1469,20	35,00
-1460,30	31,00
-1451,40	86,00
-1442,52	178,00
-1433,65	49,00
-1424,80	100,00
-1415,95	-31,00
-1407,12	196,00
-1398,30	228,00
-1389,48	87,00
-1380,69	56,00
-1371,90	0,00
-1363,12	172,00
-1354,36	16,00
-1345,60	120,00
-1336,86	66,00
-1328,13	59,00
-1319,41	36,00
-1310,70	163,00
-1302,01	99,00
-1293,32	149,00
-1284,65	113,00
-1275,99	30,00
-1267,33	35,00
-1258,69	81,00
-1250,06	178,00
-1241,45	82,00
-1232,84	79,00
-1224,25	-86,00
-1215,66	88,00
-1207,09	94,00
-1198,53	109,00
-1189,97	214,00
-1181,43	69,00
-1172,91	49,00
-1164,39	58,00
-1155,88	166,00
-1147,38	65,00
-1138,90	67,00
-1130,43	40,00
-1121,96	95,00
-1113,51	54,00
-1105,07	146,00
-1096,64	31,00
-1088,22	197,00
-1079,81	108,00
-1071,41	140,00
-1063,02	82,00
-1054,65	247,00
-1046,28	174,00
-1037,92	69,00
-1029,58	136,00
-1021,24	70,00
-1012,92	255,00
-1004,61	-39,00
-996,30	188,00
-988,01	2,00
-979,73	-4,00
-971,46	71,00
-963,20	-116,00
-954,95	-12,00
-946,71	62,00
-938,48	81,00
-930,26	52,00
-922,06	70,00
-913,86	153,00
-905,67	93,00
-897,49	-11,00
-889,33	88,00
-881,17	13,00
-873,02	-36,00
-864,89	83,00
-856,76	90,00
-848,65	90,00
-840,54	135,00
-832,45	65,00
-824,36	142,00
-816,29	40,00
-808,22	96,00
-800,17	44,00
-792,12	161,00
-784,09	102,00
-776,06	79,00
-768,05	118,00
-760,04	119,00
-752,05	61,00
-744,07	10,00
-736,09	9,00
-728,13	6,00
-720,17	4,00
-712,23	22,00
-704,29	96,00
-696,37	124,00
-688,45	116,00
-680,55	7,00
-672,65	190,00
-664,77	187,00
-656,89	42,00
-649,03	186,00
-641,17	209,00
-633,32	81,00
-625,49	132,00
-617,66	115,00
-609,84	47,00
-602,03	53,00
-594,23	80,00
-586,45	131,00
-578,67	40,00
-570,90	32,00
-563,14	165,00
-555,39	35,00
-547,65	45,00
-539,91	55,00
-532,19	84,00
-524,48	117,00
-516,78	3,00
-509,08	140,00
-501,40	73,00
-493,72	125,00
-486,06	61,00
-478,40	99,00
-470,76	86,00
-463,12	145,00
-455,49	23,00
-447,87	217,00
-440,26	55,00
-432,66	17,00
-425,07	-9,00
-417,49	99,00
-409,92	163,00
-402,35	164,00
-394,80	65,00
-387,25	54,00
-379,72	59,00
-372,19	134,00
-364,67	137,00
-357,17	168,00
-349,67	151,00
-342,18	123,00
-334,69	-42,00
-327,22	71,00
-319,76	162,00
-312,30	68,00
-304,86	148,00
-297,42	119,00
-290,00	52,00
-282,58	238,00
-275,17	184,00
-267,77	137,00
-260,37	163,00
-252,99	308,00
-245,62	160,00
-238,25	143,00
-230,90	200,00
-223,55	63,00
-216,21	162,00
-208,88	193,00
-201,56	124,00
-194,25	189,00
-186,94	243,00
-179,65	144,00
-172,36	263,00
-165,08	365,00
-157,81	84,00
-150,55	306,00
-143,30	311,00
-136,06	416,00
-128,82	489,00
-121,60	506,00
-114,38	425,00
-107,17	601,00
-99,97	675,00
-92,78	651,00
-85,60	611,00
-78,42	913,00
-71,25	979,00
-64,10	1077,00
-56,95	1302,00
-49,81	1537,00
-42,67	1844,00
-35,55	2320,00
-28,43	3040,00
-21,33	4936,00
-14,23	16524,00
-7,14	55164,00
-0,05	54791,00
7,02	54542,00
14,09	54734,00
21,14	14783,00
28,19	6257,00
35,23	3888,00
42,27	2942,00
49,29	2482,00
56,31	2047,00
63,32	1720,00
70,32	1387,00
77,31	1262,00
84,29	1062,00
91,27	1070,00
98,23	876,00
105,19	811,00
112,14	877,00
119,09	1265,00
126,02	1911,00
132,95	2214,00
139,87	2278,00
146,78	2352,00
153,68	2180,00
160,58	2153,00
167,46	2219,00
174,34	2235,00
181,21	2230,00
188,08	2183,00
194,93	1988,00
201,78	1937,00
208,62	2098,00
215,45	2047,00
222,27	2188,00
229,09	2007,00
235,90	2047,00
242,70	2022,00
249,49	2008,00
256,27	1982,00
263,05	2093,00
269,82	1965,00
276,58	1925,00
283,33	1971,00
290,08	1818,00
296,82	1824,00
303,55	1874,00
310,27	1766,00
316,98	1827,00
323,69	1884,00
330,39	1765,00
337,08	1841,00
343,76	1774,00
350,44	1746,00
357,11	1757,00
363,77	1758,00
370,42	1716,00
377,07	1773,00
383,71	1745,00
390,34	1705,00
396,96	1703,00
403,58	1727,00
410,19	1778,00
416,79	1655,00
423,38	1654,00
429,97	1637,00
436,55	1736,00
443,12	1671,00
449,68	1682,00
456,24	1601,00
462,79	1424,00
469,33	1606,00
475,86	1521,00
482,39	1431,00
488,91	1622,00
495,42	1528,00
501,93	1571,00
508,42	1480,00
514,91	1536,00
521,40	1520,00
527,87	1431,00
534,34	1341,00
540,80	1422,00
547,25	1385,00
553,70	1350,00
560,14	1346,00
566,57	1496,00
573,00	1493,00
579,41	1424,00
585,83	1273,00
592,23	1316,00
598,62	1352,00
605,01	1332,00
611,40	1417,00
617,77	1332,00
624,14	1314,00
630,50	1307,00
636,85	1207,00
643,20	1229,00
649,54	1257,00
655,87	1203,00
662,20	1232,00
668,52	1314,00
674,83	1246,00
681,13	1285,00
687,43	1054,00
693,72	1147,00
700,00	1208,00
706,28	1247,00
712,55	1190,00
718,81	1275,00
725,07	1330,00
731,32	1119,00
737,56	1114,00
743,79	1147,00
750,02	1282,00
756,24	1295,00
762,46	1126,00
768,67	1273,00
774,87	1184,00
781,06	1115,00
787,25	1227,00
793,43	1170,00
799,60	1194,00
805,77	1051,00
811,93	1221,00
818,08	1120,00
824,23	1295,00
830,37	1124,00
836,50	1136,00
842,63	1214,00
848,75	1189,00
854,87	1112,00
860,97	1217,00
867,07	1254,00
873,17	1171,00
879,25	1070,00
885,33	1141,00
891,41	1215,00
897,47	1033,00
903,53	1139,00
909,59	1227,00
915,63	1038,00
921,67	983,00
927,71	1008,00
933,74	1127,00
939,76	991,00
945,77	871,00
951,78	969,00
957,78	1058,00
963,78	1212,00
969,77	863,00
975,75	1019,00
981,72	1042,00
987,69	1061,00
993,66	1064,00
999,61	976,00
1005,56	985,00
1011,51	1114,00
1017,44	1002,00
1023,37	1050,00
1029,30	934,00
1035,22	1138,00
1041,13	1187,00
1047,03	1054,00
1052,93	1144,00
1058,83	1408,00
1064,71	1458,00
1070,59	1269,00
1076,47	1251,00
1082,33	1139,00
1088,20	1076,00
1094,05	1050,00
1099,90	1037,00
1105,74	1095,00
1111,58	1072,00
1117,41	1103,00
1123,23	1235,00
1129,05	1341,00
1134,86	1329,00
1140,67	1129,00
1146,47	1161,00
1152,26	998,00
1158,05	868,00
1163,83	1008,00
1169,60	1019,00
1175,37	950,00
1181,13	969,00
1186,89	1092,00
1192,64	912,00
1198,38	951,00
1204,12	929,00
1209,85	904,00
1215,58	964,00
1221,30	930,00
1227,02	1040,00
1232,72	1112,00
1238,43	800,00
1244,12	991,00
1249,81	1007,00
1255,50	984,00
1261,17	1065,00
1266,85	990,00
1272,51	1037,00
1278,17	1037,00
1283,83	1181,00
1289,47	1383,00
1295,12	1523,00
1300,75	1456,00
1306,38	1339,00
1312,01	1288,00
1317,63	1002,00
1323,24	1016,00
1328,85	1120,00
1334,45	1098,00
1340,04	965,00
1345,63	979,00
1351,22	996,00
1356,80	976,00
1362,37	989,00
1367,93	1053,00
1373,49	1110,00
1379,05	916,00
1384,60	1015,00
1390,14	997,00
1395,68	1062,00
1401,21	1037,00
1406,74	993,00
1412,26	1120,00
1417,77	1125,00
1423,28	1257,00
1428,78	1316,00
1434,28	1457,00
1439,77	1569,00
1445,26	1594,00
1450,74	1609,00
1456,22	1423,00
1461,68	1480,00
1467,15	1302,00
1472,61	1208,00
1478,06	1115,00
1483,51	1153,00
1488,95	1011,00
1494,38	938,00
1499,81	1004,00
1505,24	801,00
1510,65	929,00
1516,07	987,00
1521,48	835,00
1526,88	897,00
1532,27	856,00
1537,67	950,00
1543,05	848,00
1548,43	883,00
1553,81	945,00
1559,18	802,00
1564,54	814,00
1569,90	898,00
1575,25	912,00
1580,60	848,00
1585,94	821,00
1591,28	779,00
1596,61	764,00
1601,93	865,00
1607,25	748,00
1612,57	834,00
1617,88	853,00
1623,18	839,00
1628,48	780,00
1633,77	789,00
1639,06	597,00
1644,34	755,00
1649,62	847,00
1654,89	850,00
1660,16	813,00
1665,42	716,00
1670,67	721,00
1675,92	752,00
1681,17	732,00
1686,41	741,00
1691,64	650,00
1696,87	634,00
1702,10	735,00
1707,32	743,00
1712,53	707,00
1717,74	753,00
1722,94	502,00
1728,14	640,00
1733,33	683,00
1738,52	723,00
1743,70	704,00
1748,88	591,00
1754,05	722,00
1759,22	736,00
1764,38	-687,00
1769,53	714,00
1774,69	643,00
1779,83	701,00
1784,97	648,00
1790,11	582,00
1795,24	672,00
1800,36	635,00
1805,48	692,00
1810,60	559,00
1815,71	645,00
1820,82	706,00
1825,92	518,00
1831,01	613,00
1836,10	617,00
1841,19	570,00
1846,26	600,00
1851,34	512,00
1856,41	641,00
1861,47	477,00
1866,53	580,00
1871,59	607,00
1876,64	460,00
1881,68	490,00
1886,72	553,00
1891,76	565,00
1896,79	573,00
1901,81	572,00
1906,83	475,00
1911,85	541,00
1916,86	601,00
1921,86	554,00
1926,86	572,00
1931,86	584,00
1936,85	504,00
1941,83	549,00
1946,81	510,00
1951,79	403,00
1956,76	570,00
1961,72	402,00
1966,68	516,00
1971,64	466,00
1976,59	548,00
1981,54	481,00
1986,48	510,00
1991,42	523,00
1996,35	448,00
2001,27	394,00
2006,20	507,00
2011,11	440,00
2016,03	505,00
2020,93	477,00
2025,84	379,00
2030,73	362,00
2035,63	409,00
2040,52	527,00
2045,40	483,00
2050,28	450,00
2055,15	328,00
2060,02	478,00
2064,89	425,00
2069,75	512,00
2074,60	406,00
2079,46	436,00
2084,30	407,00
2089,14	475,00
2093,98	358,00
2098,81	554,00
2103,64	452,00
2108,46	396,00
2113,28	434,00
2118,09	248,00
2122,90	341,00
2127,70	337,00
2132,50	432,00
2137,30	408,00
2142,09	489,00
2146,87	353,00
2151,66	581,00
2156,43	380,00
2161,20	319,00
2165,97	443,00
2170,73	384,00
2175,49	374,00
2180,24	376,00
2184,99	521,00
2189,74	461,00
2194,48	396,00
2199,21	386,00
2203,94	334,00
2208,67	393,00
2213,39	417,00
2218,11	277,00
2222,82	465,00
2227,53	359,00
2232,23	304,00
2236,93	374,00
2241,63	298,00
2246,32	380,00
2251,00	291,00
2255,68	369,00
2260,36	364,00
2265,03	416,00
2269,70	215,00
2274,36	317,00
2279,02	314,00
2283,68	306,00
2288,33	319,00
2292,97	303,00
2297,61	313,00
2302,25	409,00
2306,88	420,00
2311,51	328,00
2316,14	317,00
2320,75	396,00
2325,37	350,00
2329,98	471,00
2334,59	303,00
2339,19	348,00
2343,79	202,00
2348,38	337,00
2352,97	297,00
2357,55	271,00
2362,13	324,00
2366,71	464,00
2371,28	336,00
2375,85	271,00
2380,41	254,00
2384,97	347,00
2389,52	210,00
2394,07	223,00
2398,62	195,00
2403,16	328,00
2407,70	379,00
2412,23	272,00
2416,76	294,00
2421,29	316,00
2425,81	347,00
2430,32	349,00
2434,84	243,00
2439,34	348,00
2443,85	262,00
2448,35	246,00
2452,84	233,00
2457,33	307,00
2461,82	333,00
2466,30	285,00
2470,78	369,00
2475,25	247,00
2479,72	245,00
2484,19	292,00
2488,65	346,00
2493,11	220,00
2497,56	293,00
2502,01	207,00
2506,46	218,00
2510,90	188,00
2515,34	318,00
2519,77	235,00
2524,20	344,00
2528,62	201,00
2533,04	359,00
2537,46	303,00
2541,87	349,00
2546,28	249,00
2550,68	304,00
2555,08	193,00
2559,48	171,00
2563,87	135,00
2568,26	188,00
2572,64	269,00
2577,02	430,00
2581,40	290,00
2585,77	200,00
2590,14	172,00
2594,50	211,00
2598,86	286,00
2603,22	253,00
2607,57	227,00
2611,92	173,00
2616,26	245,00
2620,60	290,00
2624,94	246,00
2629,27	358,00
2633,60	186,00
2637,92	269,00
2642,24	247,00
2646,56	214,00
2650,87	151,00
2655,18	236,00
2659,48	215,00
2663,78	273,00
2668,08	327,00
2672,37	358,00
2676,66	157,00
2680,95	301,00
2685,23	203,00
2689,50	307,00
2693,78	272,00
2698,05	210,00
2702,31	264,00
2706,57	313,00
2710,83	389,00
2715,08	345,00
2719,33	392,00
2723,58	342,00
2727,82	371,00
2732,06	289,00
2736,29	310,00
2740,53	307,00
2744,75	214,00
2748,97	256,00
2753,19	349,00
2757,41	277,00
2761,62	260,00
2765,83	214,00
2770,03	130,00
2774,23	328,00
2778,43	296,00
2782,62	275,00
2786,81	222,00
2791,00	280,00
2795,18	277,00
2799,35	318,00
2803,53	394,00
2807,70	407,00
2811,86	252,00
2816,03	434,00
2820,19	316,00
2824,34	385,00
2828,49	591,00
2832,64	513,00
2836,78	610,00
2840,92	794,00
2845,06	860,00
2849,19	891,00
2853,32	1056,00
2857,45	1093,00
2861,57	993,00
2865,69	1061,00
2869,80	1034,00
2873,91	998,00
2878,02	1161,00
2882,12	1035,00
2886,22	1124,00
2890,32	996,00
2894,41	964,00
2898,50	1055,00
2902,58	851,00
2906,67	787,00
2910,74	772,00
2914,82	718,00
2918,89	637,00
2922,96	673,00
2927,02	578,00
2931,08	583,00
2935,13	628,00
2939,19	584,00
2943,24	444,00
2947,28	417,00
2951,32	351,00
2955,36	408,00
2959,40	410,00
2963,43	228,00
2967,46	244,00
2971,48	362,00
2975,50	320,00
2979,52	259,00
2983,53	341,00
2987,54	242,00
2991,55	235,00
2995,55	254,00
2999,55	223,00
3003,54	119,00
3007,54	174,00
3011,53	142,00
3015,51	172,00
3019,49	117,00
3023,47	196,00
3027,45	209,00
3031,42	263,00
3035,39	201,00
3039,35	213,00
3043,31	140,00
3047,27	235,00
3051,22	234,00
3055,17	235,00
3059,12	88,00
3063,06	151,00
3067,00	127,00
3070,94	135,00
3074,87	72,00
3078,80	196,00
3082,73	219,00
3086,65	93,00
3090,57	223,00
3094,49	140,00
3098,40	196,00
3102,31	179,00
3106,22	132,00
3110,12	-15,00
3114,02	214,00
3117,92	104,00
3121,81	97,00
3125,70	217,00
3129,58	97,00
3133,47	137,00
3137,34	100,00
3141,22	181,00
3145,09	198,00
3148,96	242,00
3152,83	161,00
3156,69	60,00
3160,55	189,00
3164,40	29,00
3168,26	30,00
3172,10	193,00
3175,95	163,00
3179,79	141,00
3183,63	102,00
3187,47	307,00
3191,30	123,00
3195,13	120,00
3198,95	130,00
3202,78	127,00
3206,60	244,00
3210,41	91,00
3214,23	130,00
3218,03	133,00
3221,84	142,00
3225,64	0,00
3229,44	105,00
3233,24	271,00
3237,03	96,00
3240,82	65,00
3244,61	31,00
3248,39	162,00
3252,17	116,00
3255,95	255,00
3259,72	210,00
3263,49	176,00
3267,26	143,00
3271,03	118,00
3274,79	22,00
3278,54	158,00
3282,30	142,00
3286,05	200,00
3289,80	9,00
3293,54	98,00
3297,29	176,00
3301,02	49,00
3304,76	78,00
3308,49	122,00
3312,22	14,00
3315,95	121,00
3319,67	68,00
3323,39	125,00
3327,10	98,00
3330,82	161,00
3334,53	169,00
3338,24	93,00
3341,94	176,00
3345,64	160,00
3349,34	65,00
3353,03	70,00
3356,72	129,00
3360,41	29,00
3364,10	154,00
3367,78	67,00
3371,46	157,00
3375,13	102,00
3378,81	159,00
3382,48	107,00
3386,14	187,00
3389,81	5,00
3393,47	251,00
3397,12	74,00
3400,78	160,00
3404,43	179,00
3408,08	-4,00
3411,72	25,00
3415,36	23,00
3419,00	51,00
3422,64	10,00
3426,27	153,00
3429,90	155,00
3433,53	139,00
3437,15	117,00
3440,77	63,00
3444,39	32,00
3448,00	-12,00
3451,62	168,00
3455,22	24,00
3458,83	49,00
3462,43	72,00
3466,03	115,00
3469,63	54,00
3473,22	203,00
3476,81	98,00
3480,40	133,00
3483,99	148,00
3487,57	169,00
3491,15	72,00
3494,72	31,00
3498,29	160,00
3501,86	133,00
3505,43	130,00
3508,99	74,00
3512,56	138,00
3516,11	208,00
3519,67	117,00
3523,22	91,00
3526,77	135,00
3530,32	127,00
3533,86	66,00
3537,40	81,00
3540,94	134,00
3544,47	20,00
3548,00	190,00
3551,53	139,00
3555,06	171,00
3558,58	95,00
3562,10	-5,00
3565,62	227,00
3569,13	139,00
3572,64	185,00
3576,15	147,00
3579,66	163,00
3583,16	72,00
3586,66	62,00
3590,16	56,00
3593,65	143,00
3597,14	81,00
3600,63	123,00
3604,11	-3,00
3607,60	48,00
3611,08	59,00
3614,55	32,00
3618,03	77,00
3621,50	18,00
3624,97	155,00
3628,43	80,00
3631,90	29,00
3635,36	45,00
3638,81	21,00
3642,27	26,00
3645,72	194,00
3649,17	179,00
3652,61	106,00
3656,06	28,00
3659,50	90,00
3662,93	70,00
3666,37	42,00
3669,80	81,00
3673,23	95,00
3676,65	130,00
3680,08	65,00
3683,50	14,00
3686,92	16,00
3690,33	138,00
3693,74	122,00
3697,15	180,00
3700,56	159,00
3703,96	38,00
3707,36	-44,00
3710,76	-9,00
3714,16	63,00
3717,55	18,00
3720,94	86,00
3724,33	39,00
3727,71	110,00
3731,10	20,00
3734,48	58,00
3737,85	37,00
3741,23	21,00
3744,60	-37,00
3747,97	-119,00
3751,33	118,00
3754,69	138,00
3758,05	110,00
3761,41	-15,00
3764,77	78,00
3768,12	47,00
3771,47	170,00
3774,82	95,00
3778,16	-2,00
3781,50	-1,00
3784,84	6,00
3788,18	7,00
>>>>>End Processed Spectral Data<<<<<
