SpectraSuite Data File
++++++++++++++++++++++++++++++++++++
Date: Mon Mar 09 15:38:14 ICT 2026
User: Administrator
Dark Spectrum Present: Yes
Reference Spectrum Present: No
Number of Sampled Component Spectra: 1
Spectrometers: MAYP113682
Integration Time (usec): 3000000 (MAYP113682)
Spectra Averaged: 1 (MAYP113682)
Boxcar Smoothing: 0 (MAYP113682)
Correct for Electrical Dark: No (MAYP113682)
Strobe/Lamp Enabled: No (MAYP113682)
Correct for Detector Non-linearity: No (MAYP113682)
Correct for Stray Light: No (MAYP113682)
Number of Pixels in Processed Spectrum: 2068
>>>>>Begin Processed Spectral Data<<<<<
-37534,58	4,00
-37414,56	-3,00
-37295,11	0,00
-37176,24	8,00
-37057,95	159,00
-36940,22	95,00
-36823,05	151,00
-36706,45	257,00
-36590,40	146,00
-36474,90	141,00
-36359,95	256,00
-36245,55	335,00
-36131,68	98,00
-36018,35	184,00
-35905,55	194,00
-35793,29	122,00
-35681,54	183,00
-35570,32	172,00
-35459,62	117,00
-35349,43	165,00
-35239,75	265,00
-35130,58	392,00
-35021,91	156,00
-34913,74	109,00
-34806,07	250,00
-34698,89	148,00
-34592,20	224,00
-34486,00	158,00
-34380,28	162,00
-34275,04	217,00
-34170,27	238,00
-34065,98	138,00
-33962,16	413,00
-33858,81	112,00
-33755,92	230,00
-33653,49	136,00
-33551,52	316,00
-33450,01	276,00
-33348,94	138,00
-33248,33	225,00
-33148,16	233,00
-33048,43	188,00
-32949,14	195,00
-32850,29	236,00
-32751,87	263,00
-32653,89	261,00
-32556,33	178,00
-32459,20	203,00
-32362,49	291,00
-32266,19	122,00
-32170,32	142,00
-32074,86	233,00
-31979,82	304,00
-31885,18	232,00
-31790,95	193,00
-31697,12	221,00
-31603,69	358,00
-31510,67	109,00
-31418,04	316,00
-31325,80	112,00
-31233,95	164,00
-31142,49	237,00
-31051,42	283,00
-30960,73	237,00
-30870,43	269,00
-30780,50	155,00
-30690,95	348,00
-30601,77	222,00
-30512,97	240,00
-30424,53	200,00
-30336,46	288,00
-30248,76	251,00
-30161,42	305,00
-30074,44	224,00
-29987,81	323,00
-29901,55	307,00
-29815,63	206,00
-29730,07	163,00
-29644,86	139,00
-29560,00	306,00
-29475,48	344,00
-29391,30	170,00
-29307,47	236,00
-29223,97	319,00
-29140,81	242,00
-29057,99	153,00
-28975,50	258,00
-28893,34	338,00
-28811,51	171,00
-28730,00	290,00
-28648,82	271,00
-28567,97	260,00
-28487,43	193,00
-28407,21	249,00
-28327,32	89,00
-28247,73	265,00
-28168,46	182,00
-28089,50	196,00
-28010,85	235,00
-27932,51	218,00
-27854,48	213,00
-27776,75	231,00
-27699,32	298,00
-27622,19	289,00
-27545,37	354,00
-27468,84	329,00
-27392,60	260,00
-27316,66	232,00
-27241,01	230,00
-27165,66	381,00
-27090,59	113,00
-27015,81	237,00
-26941,31	297,00
-26867,10	182,00
-26793,17	372,00
-26719,52	309,00
-26646,15	223,00
-26573,06	229,00
-26500,24	296,00
-26427,70	247,00
-26355,43	189,00
-26283,43	258,00
-26211,71	163,00
-26140,25	229,00
-26069,06	222,00
-25998,13	230,00
-25927,46	216,00
-25857,06	223,00
-25786,92	199,00
-25717,04	199,00
-25647,42	322,00
-25578,05	183,00
-25508,94	282,00
-25440,09	217,00
-25371,48	281,00
-25303,13	271,00
-25235,02	243,00
-25167,17	152,00
-25099,56	217,00
-25032,19	234,00
-24965,07	188,00
-24898,20	298,00
-24831,56	206,00
-24765,17	271,00
-24699,01	191,00
-24633,10	187,00
-24567,41	208,00
-24501,97	232,00
-24436,75	249,00
-24371,77	203,00
-24307,03	274,00
-24242,51	351,00
-24178,22	175,00
-24114,16	213,00
-24050,32	281,00
-23986,71	104,00
-23923,32	240,00
-23860,16	324,00
-23797,22	237,00
-23734,50	319,00
-23672,00	146,00
-23609,71	196,00
-23547,65	250,00
-23485,80	321,00
-23424,16	142,00
-23362,74	197,00
-23301,53	272,00
-23240,54	230,00
-23179,75	261,00
-23119,17	310,00
-23058,80	128,00
-22998,64	255,00
-22938,68	303,00
-22878,93	236,00
-22819,39	204,00
-22760,04	158,00
-22700,90	197,00
-22641,96	127,00
-22583,22	94,00
-22524,68	302,00
-22466,33	183,00
-22408,19	290,00
-22350,23	220,00
-22292,48	235,00
-22234,92	251,00
-22177,55	222,00
-22120,37	277,00
-22063,38	272,00
-22006,58	115,00
-21949,98	299,00
-21893,56	208,00
-21837,33	217,00
-21781,28	310,00
-21725,42	121,00
-21669,74	249,00
-21614,25	203,00
-21558,94	225,00
-21503,81	175,00
-21448,86	213,00
-21394,10	276,00
-21339,51	218,00
-21285,10	268,00
-21230,86	145,00
-21176,81	235,00
-21122,93	197,00
-21069,22	197,00
-21015,69	105,00
-20962,33	272,00
-20909,14	167,00
-20856,13	245,00
-20803,28	162,00
-20750,61	246,00
-20698,10	160,00
-20645,76	284,00
-20593,59	250,00
-20541,59	226,00
-20489,75	255,00
-20438,07	212,00
-20386,56	234,00
-20335,22	213,00
-20284,03	261,00
-20233,01	298,00
-20182,15	196,00
-20131,45	247,00
-20080,91	195,00
-20030,52	208,00
-19980,30	170,00
-19930,23	208,00
-19880,32	401,00
-19830,56	177,00
-19780,96	191,00
-19731,52	259,00
-19682,23	267,00
-19633,09	263,00
-19584,10	223,00
-19535,26	268,00
-19486,58	291,00
-19438,04	284,00
-19389,66	299,00
-19341,42	203,00
-19293,33	185,00
-19245,39	168,00
-19197,60	317,00
-19149,95	225,00
-19102,45	172,00
-19055,09	84,00
-19007,87	309,00
-18960,80	208,00
-18913,87	311,00
-18867,09	129,00
-18820,44	247,00
-18773,94	309,00
-18727,57	276,00
-18681,35	213,00
-18635,26	109,00
-18589,31	161,00
-18543,50	194,00
-18497,83	249,00
-18452,29	270,00
-18406,89	146,00
-18361,63	157,00
-18316,50	290,00
-18271,50	237,00
-18226,63	259,00
-18181,90	297,00
-18137,30	288,00
-18092,84	134,00
-18048,50	81,00
-18004,29	204,00
-17960,22	315,00
-17916,27	154,00
-17872,45	236,00
-17828,76	203,00
-17785,20	179,00
-17741,77	89,00
-17698,46	234,00
-17655,28	201,00
-17612,22	230,00
-17569,29	209,00
-17526,48	186,00
-17483,79	301,00
-17441,23	105,00
-17398,79	207,00
-17356,48	310,00
-17314,28	166,00
-17272,21	244,00
-17230,26	223,00
-17188,42	133,00
-17146,71	173,00
-17105,12	169,00
-17063,64	239,00
-17022,28	151,00
-16981,04	235,00
-16939,92	207,00
-16898,91	290,00
-16858,02	234,00
-16817,25	343,00
-16776,59	269,00
-16736,04	314,00
-16695,61	206,00
-16655,29	121,00
-16615,09	328,00
-16574,99	159,00
-16535,01	152,00
-16495,15	237,00
-16455,39	204,00
-16415,74	239,00
-16376,21	198,00
-16336,78	281,00
-16297,46	155,00
-16258,26	200,00
-16219,16	320,00
-16180,17	215,00
-16141,28	209,00
-16102,51	146,00
-16063,84	174,00
-16025,27	192,00
-15986,82	292,00
-15948,46	282,00
-15910,22	260,00
-15872,07	315,00
-15834,04	242,00
-15796,10	270,00
-15758,27	331,00
-15720,54	247,00
-15682,91	334,00
-15645,39	230,00
-15607,97	161,00
-15570,64	271,00
-15533,42	128,00
-15496,30	136,00
-15459,28	319,00
-15422,36	202,00
-15385,54	219,00
-15348,82	344,00
-15312,19	159,00
-15275,66	237,00
-15239,23	171,00
-15202,90	182,00
-15166,67	222,00
-15130,53	179,00
-15094,48	158,00
-15058,54	238,00
-15022,68	221,00
-14986,93	241,00
-14951,26	209,00
-14915,69	123,00
-14880,22	243,00
-14844,84	224,00
-14809,55	241,00
-14774,35	223,00
-14739,25	171,00
-14704,24	168,00
-14669,32	136,00
-14634,49	262,00
-14599,75	206,00
-14565,10	218,00
-14530,55	122,00
-14496,08	271,00
-14461,70	163,00
-14427,41	306,00
-14393,21	217,00
-14359,10	193,00
-14325,07	165,00
-14291,14	141,00
-14257,29	221,00
-14223,52	240,00
-14189,85	236,00
-14156,26	241,00
-14122,76	157,00
-14089,34	204,00
-14056,01	147,00
-14022,76	205,00
-13989,60	197,00
-13956,52	249,00
-13923,53	209,00
-13890,62	156,00
-13857,79	224,00
-13825,05	269,00
-13792,39	330,00
-13759,81	217,00
-13727,31	316,00
-13694,90	175,00
-13662,57	304,00
-13630,31	227,00
-13598,14	267,00
-13566,05	138,00
-13534,05	169,00
-13502,12	254,00
-13470,27	184,00
-13438,50	259,00
-13406,80	371,00
-13375,19	218,00
-13343,66	272,00
-13312,20	195,00
-13280,83	337,00
-13249,53	245,00
-13218,30	165,00
-13187,16	176,00
-13156,09	255,00
-13125,10	249,00
-13094,18	183,00
-13063,34	231,00
-13032,58	174,00
-13001,89	156,00
-12971,28	149,00
-12940,74	165,00
-12910,27	182,00
-12879,88	177,00
-12849,57	261,00
-12819,33	203,00
-12789,16	141,00
-12759,06	247,00
-12729,04	211,00
-12699,09	-834,00
-12669,21	238,00
-12639,41	216,00
-12609,68	153,00
-12580,02	157,00
-12550,43	337,00
-12520,91	106,00
-12491,46	182,00
-12462,08	285,00
-12432,77	200,00
-12403,54	232,00
-12374,37	88,00
-12345,27	192,00
-12316,24	166,00
-12287,29	241,00
-12258,40	181,00
-12229,57	182,00
-12200,82	183,00
-12172,14	230,00
-12143,52	25,00
-12114,97	194,00
-12086,49	164,00
-12058,07	255,00
-12029,73	259,00
-12001,44	384,00
-11973,23	130,00
-11945,08	235,00
-11917,00	93,00
-11888,98	170,00
-11861,03	255,00
-11833,15	171,00
-11805,32	195,00
-11777,57	277,00
-11749,88	157,00
-11722,25	218,00
-11694,69	137,00
-11667,19	329,00
-11639,75	244,00
-11612,38	218,00
-11585,07	186,00
-11557,83	280,00
-11530,65	299,00
-11503,53	220,00
-11476,47	213,00
-11449,48	246,00
-11422,54	251,00
-11395,67	167,00
-11368,86	192,00
-11342,11	321,00
-11315,43	169,00
-11288,80	270,00
-11262,23	129,00
-11235,73	225,00
-11209,28	233,00
-11182,90	85,00
-11156,57	305,00
-11130,31	312,00
-11104,10	152,00
-11077,96	257,00
-11051,87	253,00
-11025,84	312,00
-10999,87	43,00
-10973,96	122,00
-10948,11	189,00
-10922,31	104,00
-10896,58	339,00
-10870,90	172,00
-10845,28	200,00
-10819,71	197,00
-10794,20	262,00
-10768,75	199,00
-10743,36	227,00
-10718,02	190,00
-10692,74	230,00
-10667,52	152,00
-10642,35	269,00
-10617,24	224,00
-10592,18	183,00
-10567,18	116,00
-10542,23	322,00
-10517,34	130,00
-10492,51	189,00
-10467,72	147,00
-10443,00	131,00
-10418,32	108,00
-10393,70	63,00
-10369,14	181,00
-10344,63	276,00
-10320,17	242,00
-10295,77	308,00
-10271,42	156,00
-10247,12	254,00
-10222,88	239,00
-10198,68	161,00
-10174,54	181,00
-10150,46	177,00
-10126,42	153,00
-10102,44	172,00
-10078,51	104,00
-10054,63	186,00
-10030,80	128,00
-10007,03	125,00
-9983,30	141,00
-9959,63	87,00
-9936,01	101,00
-9912,44	45,00
-9888,92	114,00
-9865,44	151,00
-9842,02	133,00
-9818,65	28,00
-9795,33	10,00
-9772,06	66,00
-9748,84	-30,00
-9725,67	-64,00
-9702,55	-99,00
-9679,47	-21,00
-9656,45	-54,00
-9633,47	-127,00
-9610,55	-267,00
-9587,67	-283,00
-9564,84	-110,00
-9542,06	-322,00
-9519,32	-477,00
-9496,64	-386,00
-9474,00	-426,00
-9451,41	-633,00
-9428,87	-487,00
-9406,37	-618,00
-9383,92	-522,00
-9361,52	-711,00
-9339,17	-628,00
-9316,86	-673,00
-9294,60	-778,00
-9272,38	-811,00
-9250,21	-858,00
-9228,09	-1011,00
-9206,01	-890,00
-9183,98	-838,00
-9162,00	-909,00
-9140,06	-747,00
-9118,16	-923,00
-9096,31	-977,00
-9074,51	-878,00
-9052,75	-867,00
-9031,04	-808,00
-9009,37	-688,00
-8987,74	-690,00
-8966,16	-523,00
-8944,63	-579,00
-8923,14	-563,00
-8901,69	-497,00
-8880,29	-500,00
-8858,93	-600,00
-8837,61	-606,00
-8816,34	-559,00
-8795,11	-731,00
-8773,92	-537,00
-8752,78	-534,00
-8731,68	-391,00
-8710,62	-401,00
-8689,61	-544,00
-8668,63	-514,00
-8647,70	-466,00
-8626,82	-412,00
-8605,97	-438,00
-8585,17	-502,00
-8564,41	-421,00
-8543,69	-442,00
-8523,01	-416,00
-8502,37	-385,00
-8481,78	-425,00
-8461,23	-516,00
-8440,71	-446,00
-8420,24	-580,00
-8399,81	-465,00
-8379,42	-406,00
-8359,08	-336,00
-8338,77	-418,00
-8318,50	-378,00
-8298,27	-372,00
-8278,09	-359,00
-8257,94	-430,00
-8237,83	-374,00
-8217,76	-410,00
-8197,74	-458,00
-8177,75	-360,00
-8157,80	-324,00
-8137,89	-343,00
-8118,02	-330,00
-8098,19	-300,00
-8078,40	-174,00
-8058,65	-305,00
-8038,93	-192,00
-8019,26	-234,00
-7999,62	-210,00
-7980,02	-273,00
-7960,46	-184,00
-7940,94	-230,00
-7921,46	-173,00
-7902,01	-240,00
-7882,60	-85,00
-7863,23	-207,00
-7843,90	-196,00
-7824,61	-255,00
-7805,35	-170,00
-7786,13	-315,00
-7766,95	-274,00
-7747,80	-237,00
-7728,69	-62,00
-7709,62	-167,00
-7690,59	-98,00
-7671,59	-128,00
-7652,63	-252,00
-7633,70	-237,00
-7614,81	-274,00
-7595,96	-252,00
-7577,15	-148,00
-7558,37	-241,00
-7539,62	-116,00
-7520,91	-144,00
-7502,24	-261,00
-7483,60	-125,00
-7465,00	-154,00
-7446,44	-167,00
-7427,91	-177,00
-7409,41	-78,00
-7390,95	-92,00
-7372,53	-32,00
-7354,14	-102,00
-7335,78	-169,00
-7317,46	-117,00
-7299,18	-190,00
-7280,92	-232,00
-7262,71	-191,00
-7244,52	-220,00
-7226,38	-64,00
-7208,26	-195,00
-7190,18	-289,00
-7172,14	-70,00
-7154,12	-101,00
-7136,15	-345,00
-7118,20	-166,00
-7100,29	-232,00
-7082,41	-183,00
-7064,57	-183,00
-7046,76	-98,00
-7028,98	-226,00
-7011,24	-100,00
-6993,53	-253,00
-6975,85	-94,00
-6958,20	-36,00
-6940,59	-130,00
-6923,01	-209,00
-6905,46	-49,00
-6887,94	-261,00
-6870,46	-292,00
-6853,01	-138,00
-6835,59	-178,00
-6818,21	-128,00
-6800,85	-37,00
-6783,53	-136,00
-6766,24	-15,00
-6748,98	-173,00
-6731,76	-147,00
-6714,56	-105,00
-6697,40	-164,00
-6680,26	-62,00
-6663,16	-32,00
-6646,09	-176,00
-6629,05	-110,00
-6612,05	-87,00
-6595,07	-219,00
-6578,13	-165,00
-6561,21	-139,00
-6544,33	-100,00
-6527,47	-56,00
-6510,65	-133,00
-6493,86	-22,00
-6477,10	-82,00
-6460,36	-151,00
-6443,66	-90,00
-6426,99	-45,00
-6410,35	-7,00
-6393,74	-93,00
-6377,16	-66,00
-6360,61	-29,00
-6344,09	-74,00
-6327,59	19,00
-6311,13	-35,00
-6294,70	-109,00
-6278,29	-116,00
-6261,92	-74,00
-6245,58	-146,00
-6229,26	-4,00
-6212,97	-39,00
-6196,72	-169,00
-6180,49	76,00
-6164,29	17,00
-6148,12	-25,00
-6131,98	15,00
-6115,86	29,00
-6099,78	-72,00
-6083,72	-60,00
-6067,69	10,00
-6051,69	46,00
-6035,72	105,00
-6019,78	-14,00
-6003,87	0,00
-5987,98	-105,00
-5972,12	-176,00
-5956,29	-110,00
-5940,49	-47,00
-5924,71	120,00
-5908,96	2,00
-5893,24	29,00
-5877,55	79,00
-5861,89	-62,00
-5846,25	49,00
-5830,64	-137,00
-5815,05	-2,00
-5799,50	-63,00
-5783,97	-46,00
-5768,47	-4,00
-5752,99	-90,00
-5737,55	-31,00
-5722,12	-84,00
-5706,73	-44,00
-5691,36	-3,00
-5676,02	108,00
-5660,71	65,00
-5645,42	4,00
-5630,16	-75,00
-5614,92	66,00
-5599,71	-176,00
-5584,53	-61,00
-5569,37	-113,00
-5554,24	32,00
-5539,14	-21,00
-5524,06	-29,00
-5509,01	53,00
-5493,98	-59,00
-5478,98	-86,00
-5464,00	-19,00
-5449,05	72,00
-5434,13	198,00
-5419,23	80,00
-5404,36	66,00
-5389,51	-52,00
-5374,69	-13,00
-5359,89	-78,00
-5345,12	-103,00
-5330,37	139,00
-5315,65	-60,00
-5300,95	11,00
-5286,28	-13,00
-5271,63	-11,00
-5257,01	58,00
-5242,41	-131,00
-5227,84	-145,00
-5213,29	-46,00
-5198,76	78,00
-5184,26	53,00
-5169,79	100,00
-5155,33	-43,00
-5140,91	-54,00
-5126,51	112,00
-5112,13	15,00
-5097,77	17,00
-5083,44	44,00
-5069,13	34,00
-5054,85	151,00
-5040,59	109,00
-5026,36	-43,00
-5012,15	-56,00
-4997,96	-14,00
-4983,80	110,00
-4969,66	60,00
-4955,54	123,00
-4941,44	81,00
-4927,37	146,00
-4913,33	-86,00
-4899,30	-80,00
-4885,30	-20,00
-4871,33	84,00
-4857,37	91,00
-4843,44	111,00
-4829,53	89,00
-4815,65	63,00
-4801,79	-5,00
-4787,95	108,00
-4774,13	92,00
-4760,34	144,00
-4746,56	228,00
-4732,82	93,00
-4719,09	113,00
-4705,38	139,00
-4691,70	-14,00
-4678,04	-45,00
-4664,41	4,00
-4650,79	207,00
-4637,20	177,00
-4623,63	138,00
-4610,08	104,00
-4596,56	-30,00
-4583,05	78,00
-4569,57	200,00
-4556,11	243,00
-4542,67	11,00
-4529,25	218,00
-4515,86	190,00
-4502,49	-23,00
-4489,13	-4,00
-4475,80	132,00
-4462,49	94,00
-4449,21	210,00
-4435,94	170,00
-4422,70	113,00
-4409,47	38,00
-4396,27	110,00
-4383,09	21,00
-4369,93	145,00
-4356,79	274,00
-4343,67	149,00
-4330,58	21,00
-4317,50	214,00
-4304,45	134,00
-4291,41	118,00
-4278,40	184,00
-4265,41	163,00
-4252,44	169,00
-4239,49	9,00
-4226,55	153,00
-4213,65	104,00
-4200,76	198,00
-4187,89	226,00
-4175,04	126,00
-4162,21	66,00
-4149,40	159,00
-4136,61	161,00
-4123,85	188,00
-4111,10	312,00
-4098,37	220,00
-4085,66	180,00
-4072,98	218,00
-4060,31	209,00
-4047,66	193,00
-4035,04	279,00
-4022,43	310,00
-4009,84	180,00
-3997,27	218,00
-3984,72	166,00
-3972,19	256,00
-3959,69	220,00
-3947,20	245,00
-3934,73	158,00
-3922,27	246,00
-3909,84	143,00
-3897,43	264,00
-3885,04	246,00
-3872,67	274,00
-3860,31	224,00
-3847,98	234,00
-3835,66	126,00
-3823,36	177,00
-3811,09	170,00
-3798,83	291,00
-3786,59	208,00
-3774,37	205,00
-3762,17	305,00
-3749,98	192,00
-3737,82	200,00
-3725,67	335,00
-3713,55	249,00
-3701,44	223,00
-3689,35	162,00
-3677,28	233,00
-3665,22	294,00
-3653,19	206,00
-3641,17	175,00
-3629,18	200,00
-3617,20	241,00
-3605,24	196,00
-3593,30	198,00
-3581,37	239,00
-3569,47	235,00
-3557,58	71,00
-3545,71	313,00
-3533,86	318,00
-3522,02	245,00
-3510,21	275,00
-3498,41	171,00
-3486,63	348,00
-3474,87	182,00
-3463,12	174,00
-3451,40	184,00
-3439,69	199,00
-3428,00	154,00
-3416,33	180,00
-3404,67	278,00
-3393,03	111,00
-3381,41	317,00
-3369,81	178,00
-3358,22	217,00
-3346,66	113,00
-3335,10	208,00
-3323,57	210,00
-3312,06	324,00
-3300,56	210,00
-3289,08	81,00
-3277,61	144,00
-3266,16	140,00
-3254,73	288,00
-3243,32	132,00
-3231,92	232,00
-3220,55	242,00
-3209,18	302,00
-3197,84	212,00
-3186,51	232,00
-3175,20	154,00
-3163,90	233,00
-3152,63	215,00
-3141,36	242,00
-3130,12	246,00
-3118,89	181,00
-3107,68	196,00
-3096,49	249,00
-3085,31	134,00
-3074,15	337,00
-3063,00	309,00
-3051,87	275,00
-3040,76	301,00
-3029,67	233,00
-3018,59	194,00
-3007,52	249,00
-2996,48	344,00
-2985,44	179,00
-2974,43	229,00
-2963,43	177,00
-2952,45	244,00
-2941,48	328,00
-2930,53	131,00
-2919,60	343,00
-2908,68	252,00
-2897,78	218,00
-2886,89	322,00
-2876,02	248,00
-2865,17	261,00
-2854,33	222,00
-2843,50	294,00
-2832,70	417,00
-2821,90	259,00
-2811,13	183,00
-2800,37	172,00
-2789,62	181,00
-2778,89	208,00
-2768,18	292,00
-2757,48	293,00
-2746,80	95,00
-2736,13	392,00
-2725,48	342,00
-2714,84	217,00
-2704,22	177,00
-2693,61	197,00
-2683,02	273,00
-2672,45	290,00
-2661,89	250,00
-2651,34	216,00
-2640,81	260,00
-2630,30	316,00
-2619,80	356,00
-2609,31	281,00
-2598,84	174,00
-2588,39	243,00
-2577,95	160,00
-2567,52	189,00
-2557,11	199,00
-2546,71	239,00
-2536,33	213,00
-2525,97	216,00
-2515,62	206,00
-2505,28	192,00
-2494,96	193,00
-2484,65	203,00
-2474,36	411,00
-2464,08	201,00
-2453,82	169,00
-2443,57	216,00
-2433,33	231,00
-2423,11	278,00
-2412,91	149,00
-2402,72	125,00
-2392,54	175,00
-2382,38	224,00
-2372,23	259,00
-2362,09	281,00
-2351,97	231,00
-2341,87	107,00
-2331,78	266,00
-2321,70	188,00
-2311,64	126,00
-2301,59	226,00
-2291,55	175,00
-2281,53	120,00
-2271,53	183,00
-2261,53	167,00
-2251,55	233,00
-2241,59	178,00
-2231,64	266,00
-2221,70	294,00
-2211,78	269,00
-2201,87	203,00
-2191,97	304,00
-2182,09	299,00
-2172,22	232,00
-2162,37	236,00
-2152,53	131,00
-2142,70	246,00
-2132,89	216,00
-2123,09	218,00
-2113,30	108,00
-2103,53	185,00
-2093,77	299,00
-2084,02	183,00
-2074,29	414,00
-2064,57	216,00
-2054,86	181,00
-2045,17	245,00
-2035,49	198,00
-2025,82	170,00
-2016,17	154,00
-2006,53	240,00
-1996,91	278,00
-1987,29	167,00
-1977,69	200,00
-1968,11	240,00
-1958,53	314,00
-1948,97	326,00
-1939,42	224,00
-1929,89	296,00
-1920,37	293,00
-1910,86	277,00
-1901,36	291,00
-1891,88	284,00
-1882,41	131,00
-1872,95	187,00
-1863,51	106,00
-1854,08	63,00
-1844,66	226,00
-1835,26	168,00
-1825,86	184,00
-1816,48	243,00
-1807,11	166,00
-1797,76	240,00
-1788,42	149,00
-1779,09	186,00
-1769,77	302,00
-1760,47	230,00
-1751,17	175,00
-1741,89	227,00
-1732,63	222,00
-1723,37	300,00
-1714,13	291,00
-1704,90	234,00
-1695,68	173,00
-1686,48	279,00
-1677,29	270,00
-1668,11	291,00
-1658,94	191,00
-1649,78	213,00
-1640,64	191,00
-1631,51	257,00
-1622,39	323,00
-1613,28	189,00
-1604,19	259,00
-1595,10	227,00
-1586,03	211,00
-1576,97	254,00
-1567,93	252,00
-1558,89	268,00
-1549,87	206,00
-1540,86	140,00
-1531,86	296,00
-1522,87	285,00
-1513,90	323,00
-1504,93	294,00
-1495,98	212,00
-1487,04	201,00
-1478,12	264,00
-1469,20	288,00
-1460,30	108,00
-1451,40	175,00
-1442,52	228,00
-1433,65	261,00
-1424,80	338,00
-1415,95	243,00
-1407,12	331,00
-1398,30	247,00
-1389,48	293,00
-1380,69	292,00
-1371,90	134,00
-1363,12	185,00
-1354,36	437,00
-1345,60	135,00
-1336,86	385,00
-1328,13	309,00
-1319,41	161,00
-1310,70	249,00
-1302,01	328,00
-1293,32	205,00
-1284,65	246,00
-1275,99	246,00
-1267,33	122,00
-1258,69	211,00
-1250,06	180,00
-1241,45	186,00
-1232,84	78,00
-1224,25	210,00
-1215,66	310,00
-1207,09	213,00
-1198,53	227,00
-1189,97	204,00
-1181,43	101,00
-1172,91	224,00
-1164,39	242,00
-1155,88	185,00
-1147,38	152,00
-1138,90	370,00
-1130,43	213,00
-1121,96	211,00
-1113,51	249,00
-1105,07	188,00
-1096,64	238,00
-1088,22	271,00
-1079,81	236,00
-1071,41	254,00
-1063,02	257,00
-1054,65	282,00
-1046,28	311,00
-1037,92	187,00
-1029,58	250,00
-1021,24	210,00
-1012,92	242,00
-1004,61	277,00
-996,30	119,00
-988,01	188,00
-979,73	258,00
-971,46	228,00
-963,20	127,00
-954,95	239,00
-946,71	197,00
-938,48	267,00
-930,26	198,00
-922,06	192,00
-913,86	135,00
-905,67	170,00
-897,49	289,00
-889,33	173,00
-881,17	211,00
-873,02	214,00
-864,89	226,00
-856,76	102,00
-848,65	263,00
-840,54	261,00
-832,45	266,00
-824,36	236,00
-816,29	339,00
-808,22	380,00
-800,17	222,00
-792,12	238,00
-784,09	405,00
-776,06	263,00
-768,05	272,00
-760,04	232,00
-752,05	208,00
-744,07	164,00
-736,09	309,00
-728,13	315,00
-720,17	265,00
-712,23	180,00
-704,29	213,00
-696,37	293,00
-688,45	143,00
-680,55	237,00
-672,65	212,00
-664,77	226,00
-656,89	188,00
-649,03	148,00
-641,17	149,00
-633,32	303,00
-625,49	172,00
-617,66	221,00
-609,84	226,00
-602,03	220,00
-594,23	-4,00
-586,45	381,00
-578,67	212,00
-570,90	261,00
-563,14	175,00
-555,39	216,00
-547,65	265,00
-539,91	237,00
-532,19	92,00
-524,48	296,00
-516,78	263,00
-509,08	230,00
-501,40	265,00
-493,72	62,00
-486,06	277,00
-478,40	188,00
-470,76	253,00
-463,12	276,00
-455,49	236,00
-447,87	357,00
-440,26	318,00
-432,66	234,00
-425,07	246,00
-417,49	263,00
-409,92	291,00
-402,35	232,00
-394,80	255,00
-387,25	310,00
-379,72	316,00
-372,19	122,00
-364,67	168,00
-357,17	175,00
-349,67	196,00
-342,18	130,00
-334,69	212,00
-327,22	150,00
-319,76	251,00
-312,30	269,00
-304,86	273,00
-297,42	161,00
-290,00	319,00
-282,58	217,00
-275,17	363,00
-267,77	134,00
-260,37	268,00
-252,99	248,00
-245,62	205,00
-238,25	326,00
-230,90	384,00
-223,55	288,00
-216,21	157,00
-208,88	472,00
-201,56	321,00
-194,25	352,00
-186,94	326,00
-179,65	367,00
-172,36	281,00
-165,08	326,00
-157,81	455,00
-150,55	539,00
-143,30	323,00
-136,06	596,00
-128,82	539,00
-121,60	553,00
-114,38	663,00
-107,17	591,00
-99,97	794,00
-92,78	753,00
-85,60	826,00
-78,42	1027,00
-71,25	987,00
-64,10	1143,00
-56,95	1357,00
-49,81	1624,00
-42,67	1925,00
-35,55	2227,00
-28,43	2945,00
-21,33	4794,00
-14,23	16267,00
-7,14	55635,00
-0,05	55419,00
7,02	55129,00
14,09	49905,00
21,14	13723,00
28,19	5664,00
35,23	3725,00
42,27	2934,00
49,29	2423,00
56,31	2104,00
63,32	1826,00
70,32	1454,00
77,31	1343,00
84,29	1157,00
91,27	1016,00
98,23	794,00
105,19	964,00
112,14	972,00
119,09	1348,00
126,02	1831,00
132,95	2074,00
139,87	1979,00
146,78	2065,00
153,68	1987,00
160,58	1963,00
167,46	1959,00
174,34	2007,00
181,21	1842,00
188,08	1829,00
194,93	1794,00
201,78	1940,00
208,62	2027,00
215,45	1824,00
222,27	1852,00
229,09	1822,00
235,90	1883,00
242,70	1907,00
249,49	1753,00
256,27	1742,00
263,05	1690,00
269,82	1643,00
276,58	1808,00
283,33	1667,00
290,08	1709,00
296,82	1658,00
303,55	1618,00
310,27	1597,00
316,98	1606,00
323,69	1614,00
330,39	1603,00
337,08	1549,00
343,76	1694,00
350,44	1660,00
357,11	1480,00
363,77	1584,00
370,42	1609,00
377,07	1644,00
383,71	1445,00
390,34	1685,00
396,96	1448,00
403,58	1465,00
410,19	1539,00
416,79	1482,00
423,38	1651,00
429,97	1525,00
436,55	1449,00
443,12	1510,00
449,68	1471,00
456,24	1367,00
462,79	1366,00
469,33	1369,00
475,86	1410,00
482,39	1369,00
488,91	1229,00
495,42	1373,00
501,93	1321,00
508,42	1386,00
514,91	1419,00
521,40	1331,00
527,87	1281,00
534,34	1205,00
540,80	1223,00
547,25	1231,00
553,70	1224,00
560,14	1301,00
566,57	1269,00
573,00	1352,00
579,41	1243,00
585,83	1243,00
592,23	1311,00
598,62	1207,00
605,01	1104,00
611,40	1266,00
617,77	1267,00
624,14	1172,00
630,50	1239,00
636,85	1189,00
643,20	1215,00
649,54	1130,00
655,87	1091,00
662,20	1174,00
668,52	1034,00
674,83	1281,00
681,13	942,00
687,43	1110,00
693,72	1167,00
700,00	1094,00
706,28	1125,00
712,55	984,00
718,81	1161,00
725,07	1067,00
731,32	1123,00
737,56	1184,00
743,79	1000,00
750,02	1192,00
756,24	1037,00
762,46	1109,00
768,67	1204,00
774,87	1128,00
781,06	1037,00
787,25	1101,00
793,43	1074,00
799,60	1006,00
805,77	1174,00
811,93	1163,00
818,08	1020,00
824,23	1058,00
830,37	1045,00
836,50	1138,00
842,63	1025,00
848,75	1055,00
854,87	1072,00
860,97	1070,00
867,07	1110,00
873,17	1116,00
879,25	1062,00
885,33	867,00
891,41	1093,00
897,47	1123,00
903,53	1073,00
909,59	987,00
915,63	1034,00
921,67	1028,00
927,71	966,00
933,74	1076,00
939,76	898,00
945,77	1014,00
951,78	1090,00
957,78	1056,00
963,78	905,00
969,77	861,00
975,75	1010,00
981,72	982,00
987,69	1532,00
993,66	1007,00
999,61	998,00
1005,56	893,00
1011,51	1037,00
1017,44	991,00
1023,37	1117,00
1029,30	994,00
1035,22	944,00
1041,13	1001,00
1047,03	1015,00
1052,93	1204,00
1058,83	1242,00
1064,71	1284,00
1070,59	1232,00
1076,47	1002,00
1082,33	999,00
1088,20	965,00
1094,05	969,00
1099,90	985,00
1105,74	969,00
1111,58	969,00
1117,41	982,00
1123,23	1221,00
1129,05	1241,00
1134,86	1145,00
1140,67	1127,00
1146,47	834,00
1152,26	893,00
1158,05	924,00
1163,83	799,00
1169,60	979,00
1175,37	848,00
1181,13	899,00
1186,89	917,00
1192,64	832,00
1198,38	842,00
1204,12	958,00
1209,85	948,00
1215,58	932,00
1221,30	907,00
1227,02	918,00
1232,72	869,00
1238,43	955,00
1244,12	1000,00
1249,81	916,00
1255,50	1005,00
1261,17	864,00
1266,85	983,00
1272,51	1004,00
1278,17	1044,00
1283,83	1014,00
1289,47	1231,00
1295,12	1460,00
1300,75	1459,00
1306,38	1253,00
1312,01	1117,00
1317,63	1026,00
1323,24	1043,00
1328,85	916,00
1334,45	1065,00
1340,04	1051,00
1345,63	883,00
1351,22	1102,00
1356,80	1004,00
1362,37	976,00
1367,93	1067,00
1373,49	1032,00
1379,05	1063,00
1384,60	988,00
1390,14	1084,00
1395,68	947,00
1401,21	885,00
1406,74	1034,00
1412,26	991,00
1417,77	1117,00
1423,28	1190,00
1428,78	1222,00
1434,28	1334,00
1439,77	1640,00
1445,26	1457,00
1450,74	1461,00
1456,22	1402,00
1461,68	1376,00
1467,15	1193,00
1472,61	1140,00
1478,06	1163,00
1483,51	1094,00
1488,95	918,00
1494,38	869,00
1499,81	973,00
1505,24	892,00
1510,65	967,00
1516,07	901,00
1521,48	934,00
1526,88	858,00
1532,27	1005,00
1537,67	865,00
1543,05	898,00
1548,43	690,00
1553,81	952,00
1559,18	909,00
1564,54	949,00
1569,90	782,00
1575,25	845,00
1580,60	720,00
1585,94	835,00
1591,28	724,00
1596,61	689,00
1601,93	829,00
1607,25	788,00
1612,57	851,00
1617,88	757,00
1623,18	744,00
1628,48	723,00
1633,77	735,00
1639,06	809,00
1644,34	787,00
1649,62	726,00
1654,89	784,00
1660,16	708,00
1665,42	705,00
1670,67	779,00
1675,92	726,00
1681,17	793,00
1686,41	718,00
1691,64	665,00
1696,87	753,00
1702,10	641,00
1707,32	652,00
1712,53	697,00
1717,74	710,00
1722,94	788,00
1728,14	560,00
1733,33	639,00
1738,52	756,00
1743,70	687,00
1748,88	790,00
1754,05	700,00
1759,22	648,00
1764,38	-791,00
1769,53	805,00
1774,69	681,00
1779,83	761,00
1784,97	712,00
1790,11	582,00
1795,24	565,00
1800,36	635,00
1805,48	649,00
1810,60	706,00
1815,71	561,00
1820,82	557,00
1825,92	615,00
1831,01	630,00
1836,10	633,00
1841,19	571,00
1846,26	469,00
1851,34	754,00
1856,41	609,00
1861,47	573,00
1866,53	593,00
1871,59	522,00
1876,64	645,00
1881,68	765,00
1886,72	524,00
1891,76	556,00
1896,79	590,00
1901,81	520,00
1906,83	555,00
1911,85	513,00
1916,86	544,00
1921,86	498,00
1926,86	603,00
1931,86	464,00
1936,85	459,00
1941,83	572,00
1946,81	564,00
1951,79	595,00
1956,76	557,00
1961,72	405,00
1966,68	516,00
1971,64	498,00
1976,59	452,00
1981,54	483,00
1986,48	398,00
1991,42	554,00
1996,35	454,00
2001,27	491,00
2006,20	473,00
2011,11	507,00
2016,03	491,00
2020,93	486,00
2025,84	508,00
2030,73	492,00
2035,63	521,00
2040,52	408,00
2045,40	442,00
2050,28	539,00
2055,15	470,00
2060,02	479,00
2064,89	508,00
2069,75	418,00
2074,60	531,00
2079,46	408,00
2084,30	456,00
2089,14	513,00
2093,98	439,00
2098,81	450,00
2103,64	485,00
2108,46	477,00
2113,28	522,00
2118,09	340,00
2122,90	414,00
2127,70	564,00
2132,50	411,00
2137,30	540,00
2142,09	428,00
2146,87	496,00
2151,66	443,00
2156,43	452,00
2161,20	464,00
2165,97	490,00
2170,73	435,00
2175,49	514,00
2180,24	516,00
2184,99	460,00
2189,74	492,00
2194,48	527,00
2199,21	556,00
2203,94	457,00
2208,67	529,00
2213,39	462,00
2218,11	365,00
2222,82	369,00
2227,53	446,00
2232,23	317,00
2236,93	503,00
2241,63	427,00
2246,32	507,00
2251,00	424,00
2255,68	432,00
2260,36	435,00
2265,03	437,00
2269,70	342,00
2274,36	415,00
2279,02	434,00
2283,68	349,00
2288,33	353,00
2292,97	458,00
2297,61	343,00
2302,25	352,00
2306,88	372,00
2311,51	434,00
2316,14	449,00
2320,75	451,00
2325,37	444,00
2329,98	530,00
2334,59	335,00
2339,19	354,00
2343,79	449,00
2348,38	368,00
2352,97	466,00
2357,55	349,00
2362,13	479,00
2366,71	294,00
2371,28	541,00
2375,85	483,00
2380,41	342,00
2384,97	400,00
2389,52	382,00
2394,07	420,00
2398,62	415,00
2403,16	396,00
2407,70	294,00
2412,23	402,00
2416,76	389,00
2421,29	405,00
2425,81	356,00
2430,32	343,00
2434,84	392,00
2439,34	401,00
2443,85	421,00
2448,35	333,00
2452,84	468,00
2457,33	433,00
2461,82	421,00
2466,30	348,00
2470,78	382,00
2475,25	328,00
2479,72	309,00
2484,19	278,00
2488,65	398,00
2493,11	341,00
2497,56	477,00
2502,01	259,00
2506,46	284,00
2510,90	314,00
2515,34	287,00
2519,77	302,00
2524,20	452,00
2528,62	465,00
2533,04	400,00
2537,46	385,00
2541,87	281,00
2546,28	285,00
2550,68	358,00
2555,08	327,00
2559,48	380,00
2563,87	420,00
2568,26	416,00
2572,64	333,00
2577,02	467,00
2581,40	384,00
2585,77	258,00
2590,14	313,00
2594,50	335,00
2598,86	232,00
2603,22	345,00
2607,57	471,00
2611,92	328,00
2616,26	336,00
2620,60	468,00
2624,94	231,00
2629,27	352,00
2633,60	290,00
2637,92	392,00
2642,24	398,00
2646,56	408,00
2650,87	424,00
2655,18	381,00
2659,48	343,00
2663,78	264,00
2668,08	372,00
2672,37	318,00
2676,66	471,00
2680,95	338,00
2685,23	517,00
2689,50	407,00
2693,78	481,00
2698,05	422,00
2702,31	433,00
2706,57	340,00
2710,83	461,00
2715,08	388,00
2719,33	484,00
2723,58	471,00
2727,82	474,00
2732,06	306,00
2736,29	396,00
2740,53	499,00
2744,75	319,00
2748,97	299,00
2753,19	338,00
2757,41	440,00
2761,62	438,00
2765,83	355,00
2770,03	373,00
2774,23	431,00
2778,43	244,00
2782,62	416,00
2786,81	358,00
2791,00	380,00
2795,18	400,00
2799,35	331,00
2803,53	502,00
2807,70	454,00
2811,86	422,00
2816,03	419,00
2820,19	404,00
2824,34	523,00
2828,49	522,00
2832,64	597,00
2836,78	596,00
2840,92	769,00
2845,06	976,00
2849,19	1015,00
2853,32	1096,00
2857,45	1114,00
2861,57	1143,00
2865,69	1075,00
2869,80	969,00
2873,91	1026,00
2878,02	1093,00
2882,12	1075,00
2886,22	1179,00
2890,32	1102,00
2894,41	1059,00
2898,50	902,00
2902,58	806,00
2906,67	891,00
2910,74	807,00
2914,82	875,00
2918,89	795,00
2922,96	722,00
2927,02	651,00
2931,08	633,00
2935,13	547,00
2939,19	657,00
2943,24	634,00
2947,28	486,00
2951,32	498,00
2955,36	570,00
2959,40	466,00
2963,43	399,00
2967,46	472,00
2971,48	423,00
2975,50	366,00
2979,52	294,00
2983,53	366,00
2987,54	303,00
2991,55	301,00
2995,55	242,00
2999,55	375,00
3003,54	380,00
3007,54	349,00
3011,53	439,00
3015,51	374,00
3019,49	296,00
3023,47	285,00
3027,45	316,00
3031,42	284,00
3035,39	455,00
3039,35	178,00
3043,31	382,00
3047,27	379,00
3051,22	264,00
3055,17	241,00
3059,12	200,00
3063,06	248,00
3067,00	176,00
3070,94	335,00
3074,87	249,00
3078,80	300,00
3082,73	283,00
3086,65	213,00
3090,57	205,00
3094,49	356,00
3098,40	290,00
3102,31	263,00
3106,22	187,00
3110,12	281,00
3114,02	364,00
3117,92	303,00
3121,81	285,00
3125,70	370,00
3129,58	240,00
3133,47	211,00
3137,34	300,00
3141,22	177,00
3145,09	179,00
3148,96	327,00
3152,83	275,00
3156,69	261,00
3160,55	335,00
3164,40	314,00
3168,26	318,00
3172,10	247,00
3175,95	352,00
3179,79	298,00
3183,63	379,00
3187,47	211,00
3191,30	361,00
3195,13	226,00
3198,95	264,00
3202,78	184,00
3206,60	309,00
3210,41	267,00
3214,23	288,00
3218,03	201,00
3221,84	288,00
3225,64	211,00
3229,44	191,00
3233,24	179,00
3237,03	301,00
3240,82	199,00
3244,61	194,00
3248,39	156,00
3252,17	181,00
3255,95	154,00
3259,72	253,00
3263,49	212,00
3267,26	200,00
3271,03	239,00
3274,79	299,00
3278,54	195,00
3282,30	210,00
3286,05	342,00
3289,80	213,00
3293,54	314,00
3297,29	216,00
3301,02	226,00
3304,76	237,00
3308,49	157,00
3312,22	291,00
3315,95	236,00
3319,67	278,00
3323,39	387,00
3327,10	88,00
3330,82	256,00
3334,53	260,00
3338,24	187,00
3341,94	290,00
3345,64	224,00
3349,34	181,00
3353,03	264,00
3356,72	286,00
3360,41	289,00
3364,10	259,00
3367,78	194,00
3371,46	264,00
3375,13	169,00
3378,81	179,00
3382,48	195,00
3386,14	322,00
3389,81	259,00
3393,47	311,00
3397,12	351,00
3400,78	230,00
3404,43	314,00
3408,08	143,00
3411,72	258,00
3415,36	173,00
3419,00	99,00
3422,64	294,00
3426,27	243,00
3429,90	221,00
3433,53	234,00
3437,15	306,00
3440,77	231,00
3444,39	330,00
3448,00	195,00
3451,62	248,00
3455,22	150,00
3458,83	264,00
3462,43	264,00
3466,03	168,00
3469,63	170,00
3473,22	165,00
3476,81	233,00
3480,40	311,00
3483,99	221,00
3487,57	178,00
3491,15	138,00
3494,72	284,00
3498,29	332,00
3501,86	255,00
3505,43	379,00
3508,99	163,00
3512,56	124,00
3516,11	234,00
3519,67	163,00
3523,22	321,00
3526,77	318,00
3530,32	165,00
3533,86	233,00
3537,40	353,00
3540,94	226,00
3544,47	193,00
3548,00	199,00
3551,53	247,00
3555,06	263,00
3558,58	149,00
3562,10	235,00
3565,62	91,00
3569,13	256,00
3572,64	297,00
3576,15	171,00
3579,66	238,00
3583,16	256,00
3586,66	181,00
3590,16	233,00
3593,65	256,00
3597,14	251,00
3600,63	351,00
3604,11	185,00
3607,60	212,00
3611,08	261,00
3614,55	210,00
3618,03	175,00
3621,50	217,00
3624,97	240,00
3628,43	193,00
3631,90	172,00
3635,36	137,00
3638,81	198,00
3642,27	193,00
3645,72	204,00
3649,17	211,00
3652,61	113,00
3656,06	159,00
3659,50	304,00
3662,93	143,00
3666,37	241,00
3669,80	153,00
3673,23	122,00
3676,65	162,00
3680,08	244,00
3683,50	249,00
3686,92	272,00
3690,33	223,00
3693,74	89,00
3697,15	143,00
3700,56	282,00
3703,96	108,00
3707,36	305,00
3710,76	217,00
3714,16	270,00
3717,55	292,00
3720,94	228,00
3724,33	136,00
3727,71	280,00
3731,10	249,00
3734,48	136,00
3737,85	129,00
3741,23	266,00
3744,60	185,00
3747,97	206,00
3751,33	129,00
3754,69	262,00
3758,05	201,00
3761,41	211,00
3764,77	104,00
3768,12	186,00
3771,47	201,00
3774,82	220,00
3778,16	-3,00
3781,50	-3,00
3784,84	-2,00
3788,18	3,00
>>>>>End Processed Spectral Data<<<<<
