SpectraSuite Data File
++++++++++++++++++++++++++++++++++++
Date: Mon Mar 09 15:41:59 ICT 2026
User: Administrator
Dark Spectrum Present: Yes
Reference Spectrum Present: No
Number of Sampled Component Spectra: 1
Spectrometers: MAYP113682
Integration Time (usec): 3000000 (MAYP113682)
Spectra Averaged: 1 (MAYP113682)
Boxcar Smoothing: 0 (MAYP113682)
Correct for Electrical Dark: No (MAYP113682)
Strobe/Lamp Enabled: No (MAYP113682)
Correct for Detector Non-linearity: No (MAYP113682)
Correct for Stray Light: No (MAYP113682)
Number of Pixels in Processed Spectrum: 2068
>>>>>Begin Processed Spectral Data<<<<<
-37534,58	9,00
-37414,56	-2,00
-37295,11	2,00
-37176,24	3,00
-37057,95	232,00
-36940,22	215,00
-36823,05	148,00
-36706,45	248,00
-36590,40	280,00
-36474,90	239,00
-36359,95	273,00
-36245,55	287,00
-36131,68	220,00
-36018,35	202,00
-35905,55	179,00
-35793,29	293,00
-35681,54	365,00
-35570,32	286,00
-35459,62	213,00
-35349,43	205,00
-35239,75	257,00
-35130,58	313,00
-35021,91	310,00
-34913,74	206,00
-34806,07	312,00
-34698,89	253,00
-34592,20	275,00
-34486,00	288,00
-34380,28	185,00
-34275,04	385,00
-34170,27	235,00
-34065,98	327,00
-33962,16	429,00
-33858,81	233,00
-33755,92	350,00
-33653,49	245,00
-33551,52	322,00
-33450,01	355,00
-33348,94	244,00
-33248,33	309,00
-33148,16	257,00
-33048,43	322,00
-32949,14	281,00
-32850,29	309,00
-32751,87	425,00
-32653,89	349,00
-32556,33	270,00
-32459,20	246,00
-32362,49	255,00
-32266,19	248,00
-32170,32	188,00
-32074,86	271,00
-31979,82	335,00
-31885,18	265,00
-31790,95	353,00
-31697,12	293,00
-31603,69	407,00
-31510,67	255,00
-31418,04	347,00
-31325,80	266,00
-31233,95	380,00
-31142,49	284,00
-31051,42	288,00
-30960,73	392,00
-30870,43	309,00
-30780,50	298,00
-30690,95	381,00
-30601,77	273,00
-30512,97	330,00
-30424,53	238,00
-30336,46	245,00
-30248,76	341,00
-30161,42	355,00
-30074,44	399,00
-29987,81	372,00
-29901,55	424,00
-29815,63	276,00
-29730,07	286,00
-29644,86	156,00
-29560,00	318,00
-29475,48	317,00
-29391,30	174,00
-29307,47	307,00
-29223,97	286,00
-29140,81	241,00
-29057,99	195,00
-28975,50	292,00
-28893,34	390,00
-28811,51	263,00
-28730,00	328,00
-28648,82	302,00
-28567,97	445,00
-28487,43	100,00
-28407,21	319,00
-28327,32	208,00
-28247,73	246,00
-28168,46	312,00
-28089,50	297,00
-28010,85	333,00
-27932,51	332,00
-27854,48	281,00
-27776,75	264,00
-27699,32	315,00
-27622,19	258,00
-27545,37	320,00
-27468,84	366,00
-27392,60	353,00
-27316,66	273,00
-27241,01	307,00
-27165,66	398,00
-27090,59	209,00
-27015,81	288,00
-26941,31	434,00
-26867,10	320,00
-26793,17	393,00
-26719,52	290,00
-26646,15	369,00
-26573,06	297,00
-26500,24	266,00
-26427,70	214,00
-26355,43	258,00
-26283,43	316,00
-26211,71	282,00
-26140,25	189,00
-26069,06	339,00
-25998,13	244,00
-25927,46	316,00
-25857,06	300,00
-25786,92	285,00
-25717,04	383,00
-25647,42	327,00
-25578,05	352,00
-25508,94	336,00
-25440,09	243,00
-25371,48	408,00
-25303,13	336,00
-25235,02	352,00
-25167,17	254,00
-25099,56	354,00
-25032,19	274,00
-24965,07	369,00
-24898,20	351,00
-24831,56	341,00
-24765,17	343,00
-24699,01	184,00
-24633,10	272,00
-24567,41	192,00
-24501,97	219,00
-24436,75	400,00
-24371,77	241,00
-24307,03	368,00
-24242,51	309,00
-24178,22	266,00
-24114,16	268,00
-24050,32	326,00
-23986,71	127,00
-23923,32	308,00
-23860,16	309,00
-23797,22	271,00
-23734,50	309,00
-23672,00	235,00
-23609,71	253,00
-23547,65	300,00
-23485,80	341,00
-23424,16	204,00
-23362,74	301,00
-23301,53	241,00
-23240,54	341,00
-23179,75	344,00
-23119,17	314,00
-23058,80	253,00
-22998,64	252,00
-22938,68	281,00
-22878,93	285,00
-22819,39	263,00
-22760,04	236,00
-22700,90	283,00
-22641,96	256,00
-22583,22	260,00
-22524,68	246,00
-22466,33	151,00
-22408,19	324,00
-22350,23	182,00
-22292,48	385,00
-22234,92	310,00
-22177,55	286,00
-22120,37	381,00
-22063,38	276,00
-22006,58	281,00
-21949,98	354,00
-21893,56	224,00
-21837,33	340,00
-21781,28	289,00
-21725,42	217,00
-21669,74	344,00
-21614,25	369,00
-21558,94	302,00
-21503,81	362,00
-21448,86	398,00
-21394,10	392,00
-21339,51	261,00
-21285,10	341,00
-21230,86	234,00
-21176,81	225,00
-21122,93	269,00
-21069,22	382,00
-21015,69	260,00
-20962,33	234,00
-20909,14	220,00
-20856,13	269,00
-20803,28	208,00
-20750,61	268,00
-20698,10	222,00
-20645,76	302,00
-20593,59	289,00
-20541,59	270,00
-20489,75	426,00
-20438,07	316,00
-20386,56	375,00
-20335,22	260,00
-20284,03	330,00
-20233,01	305,00
-20182,15	263,00
-20131,45	258,00
-20080,91	329,00
-20030,52	265,00
-19980,30	190,00
-19930,23	259,00
-19880,32	434,00
-19830,56	236,00
-19780,96	209,00
-19731,52	229,00
-19682,23	253,00
-19633,09	246,00
-19584,10	354,00
-19535,26	328,00
-19486,58	392,00
-19438,04	330,00
-19389,66	273,00
-19341,42	293,00
-19293,33	277,00
-19245,39	122,00
-19197,60	309,00
-19149,95	373,00
-19102,45	263,00
-19055,09	236,00
-19007,87	201,00
-18960,80	209,00
-18913,87	341,00
-18867,09	206,00
-18820,44	329,00
-18773,94	409,00
-18727,57	385,00
-18681,35	285,00
-18635,26	176,00
-18589,31	245,00
-18543,50	356,00
-18497,83	224,00
-18452,29	351,00
-18406,89	282,00
-18361,63	282,00
-18316,50	372,00
-18271,50	236,00
-18226,63	254,00
-18181,90	409,00
-18137,30	363,00
-18092,84	248,00
-18048,50	250,00
-18004,29	347,00
-17960,22	284,00
-17916,27	185,00
-17872,45	320,00
-17828,76	303,00
-17785,20	284,00
-17741,77	197,00
-17698,46	272,00
-17655,28	349,00
-17612,22	322,00
-17569,29	381,00
-17526,48	320,00
-17483,79	367,00
-17441,23	164,00
-17398,79	277,00
-17356,48	264,00
-17314,28	263,00
-17272,21	283,00
-17230,26	235,00
-17188,42	280,00
-17146,71	245,00
-17105,12	188,00
-17063,64	301,00
-17022,28	285,00
-16981,04	267,00
-16939,92	273,00
-16898,91	303,00
-16858,02	239,00
-16817,25	320,00
-16776,59	252,00
-16736,04	319,00
-16695,61	164,00
-16655,29	247,00
-16615,09	394,00
-16574,99	348,00
-16535,01	210,00
-16495,15	271,00
-16455,39	245,00
-16415,74	248,00
-16376,21	255,00
-16336,78	296,00
-16297,46	145,00
-16258,26	331,00
-16219,16	337,00
-16180,17	197,00
-16141,28	187,00
-16102,51	247,00
-16063,84	314,00
-16025,27	340,00
-15986,82	323,00
-15948,46	279,00
-15910,22	252,00
-15872,07	353,00
-15834,04	271,00
-15796,10	315,00
-15758,27	380,00
-15720,54	309,00
-15682,91	286,00
-15645,39	272,00
-15607,97	170,00
-15570,64	214,00
-15533,42	349,00
-15496,30	206,00
-15459,28	403,00
-15422,36	307,00
-15385,54	286,00
-15348,82	330,00
-15312,19	156,00
-15275,66	211,00
-15239,23	262,00
-15202,90	229,00
-15166,67	205,00
-15130,53	236,00
-15094,48	134,00
-15058,54	355,00
-15022,68	239,00
-14986,93	238,00
-14951,26	274,00
-14915,69	214,00
-14880,22	303,00
-14844,84	276,00
-14809,55	259,00
-14774,35	327,00
-14739,25	320,00
-14704,24	285,00
-14669,32	177,00
-14634,49	242,00
-14599,75	320,00
-14565,10	193,00
-14530,55	199,00
-14496,08	347,00
-14461,70	233,00
-14427,41	312,00
-14393,21	324,00
-14359,10	309,00
-14325,07	203,00
-14291,14	280,00
-14257,29	322,00
-14223,52	269,00
-14189,85	253,00
-14156,26	225,00
-14122,76	247,00
-14089,34	307,00
-14056,01	249,00
-14022,76	247,00
-13989,60	282,00
-13956,52	213,00
-13923,53	155,00
-13890,62	203,00
-13857,79	301,00
-13825,05	359,00
-13792,39	327,00
-13759,81	173,00
-13727,31	325,00
-13694,90	146,00
-13662,57	312,00
-13630,31	293,00
-13598,14	355,00
-13566,05	125,00
-13534,05	245,00
-13502,12	306,00
-13470,27	187,00
-13438,50	282,00
-13406,80	352,00
-13375,19	255,00
-13343,66	354,00
-13312,20	289,00
-13280,83	232,00
-13249,53	228,00
-13218,30	194,00
-13187,16	195,00
-13156,09	332,00
-13125,10	279,00
-13094,18	264,00
-13063,34	233,00
-13032,58	207,00
-13001,89	281,00
-12971,28	207,00
-12940,74	245,00
-12910,27	318,00
-12879,88	287,00
-12849,57	325,00
-12819,33	264,00
-12789,16	196,00
-12759,06	213,00
-12729,04	388,00
-12699,09	-794,00
-12669,21	282,00
-12639,41	274,00
-12609,68	207,00
-12580,02	170,00
-12550,43	384,00
-12520,91	240,00
-12491,46	261,00
-12462,08	264,00
-12432,77	256,00
-12403,54	294,00
-12374,37	191,00
-12345,27	290,00
-12316,24	225,00
-12287,29	298,00
-12258,40	275,00
-12229,57	376,00
-12200,82	282,00
-12172,14	233,00
-12143,52	77,00
-12114,97	253,00
-12086,49	222,00
-12058,07	315,00
-12029,73	365,00
-12001,44	378,00
-11973,23	155,00
-11945,08	329,00
-11917,00	224,00
-11888,98	164,00
-11861,03	377,00
-11833,15	170,00
-11805,32	277,00
-11777,57	304,00
-11749,88	215,00
-11722,25	325,00
-11694,69	194,00
-11667,19	338,00
-11639,75	308,00
-11612,38	337,00
-11585,07	238,00
-11557,83	316,00
-11530,65	223,00
-11503,53	264,00
-11476,47	258,00
-11449,48	249,00
-11422,54	303,00
-11395,67	220,00
-11368,86	318,00
-11342,11	352,00
-11315,43	210,00
-11288,80	276,00
-11262,23	246,00
-11235,73	281,00
-11209,28	248,00
-11182,90	266,00
-11156,57	446,00
-11130,31	335,00
-11104,10	263,00
-11077,96	347,00
-11051,87	328,00
-11025,84	294,00
-10999,87	194,00
-10973,96	223,00
-10948,11	311,00
-10922,31	230,00
-10896,58	219,00
-10870,90	252,00
-10845,28	222,00
-10819,71	303,00
-10794,20	250,00
-10768,75	320,00
-10743,36	304,00
-10718,02	236,00
-10692,74	334,00
-10667,52	260,00
-10642,35	298,00
-10617,24	192,00
-10592,18	309,00
-10567,18	245,00
-10542,23	338,00
-10517,34	278,00
-10492,51	202,00
-10467,72	213,00
-10443,00	201,00
-10418,32	246,00
-10393,70	155,00
-10369,14	249,00
-10344,63	326,00
-10320,17	297,00
-10295,77	258,00
-10271,42	270,00
-10247,12	314,00
-10222,88	360,00
-10198,68	180,00
-10174,54	233,00
-10150,46	175,00
-10126,42	276,00
-10102,44	199,00
-10078,51	108,00
-10054,63	246,00
-10030,80	74,00
-10007,03	152,00
-9983,30	215,00
-9959,63	140,00
-9936,01	191,00
-9912,44	103,00
-9888,92	181,00
-9865,44	129,00
-9842,02	71,00
-9818,65	132,00
-9795,33	48,00
-9772,06	120,00
-9748,84	28,00
-9725,67	0,00
-9702,55	35,00
-9679,47	-24,00
-9656,45	-37,00
-9633,47	-77,00
-9610,55	-117,00
-9587,67	-118,00
-9564,84	-77,00
-9542,06	-276,00
-9519,32	-447,00
-9496,64	-345,00
-9474,00	-302,00
-9451,41	-570,00
-9428,87	-480,00
-9406,37	-557,00
-9383,92	-531,00
-9361,52	-630,00
-9339,17	-595,00
-9316,86	-746,00
-9294,60	-751,00
-9272,38	-786,00
-9250,21	-832,00
-9228,09	-868,00
-9206,01	-837,00
-9183,98	-819,00
-9162,00	-797,00
-9140,06	-726,00
-9118,16	-860,00
-9096,31	-841,00
-9074,51	-774,00
-9052,75	-731,00
-9031,04	-715,00
-9009,37	-674,00
-8987,74	-686,00
-8966,16	-378,00
-8944,63	-403,00
-8923,14	-662,00
-8901,69	-526,00
-8880,29	-422,00
-8858,93	-582,00
-8837,61	-568,00
-8816,34	-455,00
-8795,11	-605,00
-8773,92	-530,00
-8752,78	-468,00
-8731,68	-302,00
-8710,62	-408,00
-8689,61	-552,00
-8668,63	-498,00
-8647,70	-411,00
-8626,82	-446,00
-8605,97	-398,00
-8585,17	-391,00
-8564,41	-368,00
-8543,69	-345,00
-8523,01	-328,00
-8502,37	-229,00
-8481,78	-381,00
-8461,23	-331,00
-8440,71	-475,00
-8420,24	-484,00
-8399,81	-343,00
-8379,42	-368,00
-8359,08	-346,00
-8338,77	-377,00
-8318,50	-329,00
-8298,27	-239,00
-8278,09	-387,00
-8257,94	-373,00
-8237,83	-317,00
-8217,76	-367,00
-8197,74	-403,00
-8177,75	-358,00
-8157,80	-195,00
-8137,89	-306,00
-8118,02	-183,00
-8098,19	-240,00
-8078,40	-154,00
-8058,65	-218,00
-8038,93	-129,00
-8019,26	-123,00
-7999,62	-211,00
-7980,02	-309,00
-7960,46	-159,00
-7940,94	-211,00
-7921,46	-176,00
-7902,01	-198,00
-7882,60	-41,00
-7863,23	-144,00
-7843,90	-156,00
-7824,61	-126,00
-7805,35	-50,00
-7786,13	-263,00
-7766,95	-118,00
-7747,80	-91,00
-7728,69	43,00
-7709,62	-141,00
-7690,59	-25,00
-7671,59	-89,00
-7652,63	-220,00
-7633,70	-134,00
-7614,81	-213,00
-7595,96	-132,00
-7577,15	-116,00
-7558,37	-135,00
-7539,62	-75,00
-7520,91	-147,00
-7502,24	-163,00
-7483,60	-159,00
-7465,00	-163,00
-7446,44	-42,00
-7427,91	-120,00
-7409,41	-9,00
-7390,95	-127,00
-7372,53	-122,00
-7354,14	0,00
-7335,78	7,00
-7317,46	-41,00
-7299,18	-115,00
-7280,92	-138,00
-7262,71	-150,00
-7244,52	-135,00
-7226,38	-158,00
-7208,26	-93,00
-7190,18	-204,00
-7172,14	-73,00
-7154,12	-119,00
-7136,15	-267,00
-7118,20	-76,00
-7100,29	-135,00
-7082,41	-122,00
-7064,57	-151,00
-7046,76	-68,00
-7028,98	-128,00
-7011,24	-35,00
-6993,53	-165,00
-6975,85	-22,00
-6958,20	17,00
-6940,59	-167,00
-6923,01	-170,00
-6905,46	-36,00
-6887,94	-172,00
-6870,46	2438,00
-6853,01	-157,00
-6835,59	-60,00
-6818,21	-125,00
-6800,85	-50,00
-6783,53	-61,00
-6766,24	27,00
-6748,98	-72,00
-6731,76	-57,00
-6714,56	-81,00
-6697,40	-191,00
-6680,26	-39,00
-6663,16	-119,00
-6646,09	-24,00
-6629,05	-124,00
-6612,05	-96,00
-6595,07	-89,00
-6578,13	-129,00
-6561,21	-13,00
-6544,33	-43,00
-6527,47	52,00
-6510,65	-54,00
-6493,86	73,00
-6477,10	-118,00
-6460,36	-72,00
-6443,66	18,00
-6426,99	-1,00
-6410,35	74,00
-6393,74	-2,00
-6377,16	-53,00
-6360,61	4,00
-6344,09	48,00
-6327,59	-68,00
-6311,13	-112,00
-6294,70	-38,00
-6278,29	113,00
-6261,92	14,00
-6245,58	-24,00
-6229,26	-97,00
-6212,97	-52,00
-6196,72	-60,00
-6180,49	-5,00
-6164,29	45,00
-6148,12	60,00
-6131,98	52,00
-6115,86	8,00
-6099,78	-65,00
-6083,72	-107,00
-6067,69	100,00
-6051,69	19,00
-6035,72	42,00
-6019,78	-10,00
-6003,87	-26,00
-5987,98	-47,00
-5972,12	-129,00
-5956,29	-70,00
-5940,49	69,00
-5924,71	108,00
-5908,96	64,00
-5893,24	22,00
-5877,55	68,00
-5861,89	-97,00
-5846,25	18,00
-5830,64	-30,00
-5815,05	80,00
-5799,50	37,00
-5783,97	57,00
-5768,47	84,00
-5752,99	-23,00
-5737,55	-8,00
-5722,12	-24,00
-5706,73	38,00
-5691,36	-43,00
-5676,02	0,00
-5660,71	141,00
-5645,42	78,00
-5630,16	125,00
-5614,92	11,00
-5599,71	-64,00
-5584,53	17,00
-5569,37	-36,00
-5554,24	52,00
-5539,14	99,00
-5524,06	46,00
-5509,01	89,00
-5493,98	-25,00
-5478,98	-33,00
-5464,00	73,00
-5449,05	70,00
-5434,13	143,00
-5419,23	134,00
-5404,36	64,00
-5389,51	24,00
-5374,69	111,00
-5359,89	28,00
-5345,12	-37,00
-5330,37	184,00
-5315,65	121,00
-5300,95	134,00
-5286,28	60,00
-5271,63	42,00
-5257,01	80,00
-5242,41	34,00
-5227,84	25,00
-5213,29	-31,00
-5198,76	158,00
-5184,26	52,00
-5169,79	102,00
-5155,33	17,00
-5140,91	22,00
-5126,51	89,00
-5112,13	32,00
-5097,77	24,00
-5083,44	92,00
-5069,13	166,00
-5054,85	200,00
-5040,59	178,00
-5026,36	40,00
-5012,15	51,00
-4997,96	26,00
-4983,80	22,00
-4969,66	194,00
-4955,54	93,00
-4941,44	137,00
-4927,37	210,00
-4913,33	38,00
-4899,30	106,00
-4885,30	49,00
-4871,33	77,00
-4857,37	147,00
-4843,44	188,00
-4829,53	205,00
-4815,65	161,00
-4801,79	1,00
-4787,95	110,00
-4774,13	83,00
-4760,34	139,00
-4746,56	251,00
-4732,82	173,00
-4719,09	186,00
-4705,38	103,00
-4691,70	92,00
-4678,04	-15,00
-4664,41	105,00
-4650,79	252,00
-4637,20	161,00
-4623,63	143,00
-4610,08	128,00
-4596,56	42,00
-4583,05	217,00
-4569,57	160,00
-4556,11	237,00
-4542,67	189,00
-4529,25	253,00
-4515,86	231,00
-4502,49	62,00
-4489,13	-57,00
-4475,80	236,00
-4462,49	170,00
-4449,21	251,00
-4435,94	234,00
-4422,70	163,00
-4409,47	25,00
-4396,27	130,00
-4383,09	85,00
-4369,93	193,00
-4356,79	279,00
-4343,67	198,00
-4330,58	110,00
-4317,50	330,00
-4304,45	205,00
-4291,41	206,00
-4278,40	224,00
-4265,41	219,00
-4252,44	158,00
-4239,49	70,00
-4226,55	114,00
-4213,65	111,00
-4200,76	218,00
-4187,89	210,00
-4175,04	164,00
-4162,21	258,00
-4149,40	168,00
-4136,61	187,00
-4123,85	234,00
-4111,10	275,00
-4098,37	212,00
-4085,66	302,00
-4072,98	206,00
-4060,31	293,00
-4047,66	242,00
-4035,04	316,00
-4022,43	280,00
-4009,84	361,00
-3997,27	248,00
-3984,72	263,00
-3972,19	304,00
-3959,69	248,00
-3947,20	321,00
-3934,73	206,00
-3922,27	366,00
-3909,84	201,00
-3897,43	243,00
-3885,04	247,00
-3872,67	298,00
-3860,31	340,00
-3847,98	335,00
-3835,66	291,00
-3823,36	215,00
-3811,09	153,00
-3798,83	324,00
-3786,59	279,00
-3774,37	295,00
-3762,17	310,00
-3749,98	339,00
-3737,82	206,00
-3725,67	484,00
-3713,55	179,00
-3701,44	134,00
-3689,35	314,00
-3677,28	286,00
-3665,22	300,00
-3653,19	262,00
-3641,17	263,00
-3629,18	334,00
-3617,20	257,00
-3605,24	286,00
-3593,30	253,00
-3581,37	251,00
-3569,47	317,00
-3557,58	91,00
-3545,71	378,00
-3533,86	408,00
-3522,02	265,00
-3510,21	333,00
-3498,41	300,00
-3486,63	405,00
-3474,87	280,00
-3463,12	307,00
-3451,40	293,00
-3439,69	257,00
-3428,00	313,00
-3416,33	306,00
-3404,67	329,00
-3393,03	213,00
-3381,41	327,00
-3369,81	307,00
-3358,22	338,00
-3346,66	418,00
-3335,10	201,00
-3323,57	339,00
-3312,06	334,00
-3300,56	224,00
-3289,08	257,00
-3277,61	257,00
-3266,16	298,00
-3254,73	457,00
-3243,32	184,00
-3231,92	369,00
-3220,55	317,00
-3209,18	295,00
-3197,84	289,00
-3186,51	298,00
-3175,20	200,00
-3163,90	336,00
-3152,63	407,00
-3141,36	319,00
-3130,12	186,00
-3118,89	294,00
-3107,68	229,00
-3096,49	379,00
-3085,31	195,00
-3074,15	367,00
-3063,00	288,00
-3051,87	291,00
-3040,76	416,00
-3029,67	265,00
-3018,59	303,00
-3007,52	259,00
-2996,48	305,00
-2985,44	375,00
-2974,43	325,00
-2963,43	290,00
-2952,45	308,00
-2941,48	392,00
-2930,53	222,00
-2919,60	393,00
-2908,68	235,00
-2897,78	289,00
-2886,89	346,00
-2876,02	329,00
-2865,17	281,00
-2854,33	268,00
-2843,50	385,00
-2832,70	432,00
-2821,90	280,00
-2811,13	253,00
-2800,37	275,00
-2789,62	327,00
-2778,89	283,00
-2768,18	331,00
-2757,48	337,00
-2746,80	250,00
-2736,13	316,00
-2725,48	253,00
-2714,84	318,00
-2704,22	289,00
-2693,61	194,00
-2683,02	284,00
-2672,45	255,00
-2661,89	298,00
-2651,34	322,00
-2640,81	338,00
-2630,30	313,00
-2619,80	379,00
-2609,31	325,00
-2598,84	216,00
-2588,39	284,00
-2577,95	337,00
-2567,52	241,00
-2557,11	306,00
-2546,71	304,00
-2536,33	320,00
-2525,97	206,00
-2515,62	319,00
-2505,28	315,00
-2494,96	273,00
-2484,65	242,00
-2474,36	440,00
-2464,08	241,00
-2453,82	221,00
-2443,57	266,00
-2433,33	297,00
-2423,11	269,00
-2412,91	217,00
-2402,72	214,00
-2392,54	227,00
-2382,38	310,00
-2372,23	203,00
-2362,09	603,00
-2351,97	291,00
-2341,87	119,00
-2331,78	282,00
-2321,70	306,00
-2311,64	175,00
-2301,59	178,00
-2291,55	198,00
-2281,53	213,00
-2271,53	129,00
-2261,53	289,00
-2251,55	372,00
-2241,59	283,00
-2231,64	233,00
-2221,70	331,00
-2211,78	308,00
-2201,87	268,00
-2191,97	383,00
-2182,09	345,00
-2172,22	340,00
-2162,37	308,00
-2152,53	224,00
-2142,70	295,00
-2132,89	219,00
-2123,09	301,00
-2113,30	271,00
-2103,53	301,00
-2093,77	264,00
-2084,02	282,00
-2074,29	490,00
-2064,57	323,00
-2054,86	267,00
-2045,17	276,00
-2035,49	288,00
-2025,82	299,00
-2016,17	231,00
-2006,53	310,00
-1996,91	325,00
-1987,29	291,00
-1977,69	273,00
-1968,11	209,00
-1958,53	248,00
-1948,97	261,00
-1939,42	283,00
-1929,89	291,00
-1920,37	469,00
-1910,86	468,00
-1901,36	446,00
-1891,88	358,00
-1882,41	310,00
-1872,95	343,00
-1863,51	185,00
-1854,08	337,00
-1844,66	296,00
-1835,26	256,00
-1825,86	344,00
-1816,48	282,00
-1807,11	253,00
-1797,76	283,00
-1788,42	219,00
-1779,09	339,00
-1769,77	257,00
-1760,47	180,00
-1751,17	292,00
-1741,89	199,00
-1732,63	302,00
-1723,37	303,00
-1714,13	342,00
-1704,90	376,00
-1695,68	295,00
-1686,48	404,00
-1677,29	233,00
-1668,11	463,00
-1658,94	368,00
-1649,78	232,00
-1640,64	343,00
-1631,51	340,00
-1622,39	342,00
-1613,28	218,00
-1604,19	278,00
-1595,10	316,00
-1586,03	336,00
-1576,97	325,00
-1567,93	292,00
-1558,89	359,00
-1549,87	276,00
-1540,86	285,00
-1531,86	325,00
-1522,87	317,00
-1513,90	355,00
-1504,93	188,00
-1495,98	339,00
-1487,04	287,00
-1478,12	317,00
-1469,20	399,00
-1460,30	200,00
-1451,40	229,00
-1442,52	280,00
-1433,65	286,00
-1424,80	366,00
-1415,95	331,00
-1407,12	334,00
-1398,30	282,00
-1389,48	281,00
-1380,69	357,00
-1371,90	196,00
-1363,12	286,00
-1354,36	387,00
-1345,60	133,00
-1336,86	461,00
-1328,13	293,00
-1319,41	329,00
-1310,70	183,00
-1302,01	466,00
-1293,32	247,00
-1284,65	390,00
-1275,99	315,00
-1267,33	193,00
-1258,69	278,00
-1250,06	275,00
-1241,45	280,00
-1232,84	274,00
-1224,25	325,00
-1215,66	292,00
-1207,09	166,00
-1198,53	242,00
-1189,97	259,00
-1181,43	234,00
-1172,91	274,00
-1164,39	305,00
-1155,88	193,00
-1147,38	288,00
-1138,90	406,00
-1130,43	233,00
-1121,96	351,00
-1113,51	321,00
-1105,07	331,00
-1096,64	365,00
-1088,22	348,00
-1079,81	356,00
-1071,41	343,00
-1063,02	298,00
-1054,65	374,00
-1046,28	365,00
-1037,92	254,00
-1029,58	221,00
-1021,24	204,00
-1012,92	316,00
-1004,61	364,00
-996,30	532,00
-988,01	228,00
-979,73	380,00
-971,46	319,00
-963,20	185,00
-954,95	223,00
-946,71	211,00
-938,48	243,00
-930,26	411,00
-922,06	251,00
-913,86	283,00
-905,67	259,00
-897,49	265,00
-889,33	204,00
-881,17	346,00
-873,02	276,00
-864,89	207,00
-856,76	144,00
-848,65	307,00
-840,54	380,00
-832,45	427,00
-824,36	319,00
-816,29	357,00
-808,22	319,00
-800,17	375,00
-792,12	292,00
-784,09	322,00
-776,06	398,00
-768,05	195,00
-760,04	327,00
-752,05	279,00
-744,07	234,00
-736,09	396,00
-728,13	234,00
-720,17	322,00
-712,23	233,00
-704,29	201,00
-696,37	347,00
-688,45	257,00
-680,55	318,00
-672,65	314,00
-664,77	238,00
-656,89	324,00
-649,03	203,00
-641,17	322,00
-633,32	286,00
-625,49	297,00
-617,66	255,00
-609,84	242,00
-602,03	303,00
-594,23	173,00
-586,45	412,00
-578,67	422,00
-570,90	360,00
-563,14	190,00
-555,39	314,00
-547,65	308,00
-539,91	313,00
-532,19	241,00
-524,48	302,00
-516,78	303,00
-509,08	319,00
-501,40	237,00
-493,72	275,00
-486,06	186,00
-478,40	259,00
-470,76	281,00
-463,12	327,00
-455,49	198,00
-447,87	344,00
-440,26	315,00
-432,66	307,00
-425,07	355,00
-417,49	286,00
-409,92	256,00
-402,35	187,00
-394,80	352,00
-387,25	319,00
-379,72	435,00
-372,19	214,00
-364,67	354,00
-357,17	187,00
-349,67	247,00
-342,18	301,00
-334,69	268,00
-327,22	264,00
-319,76	331,00
-312,30	337,00
-304,86	354,00
-297,42	294,00
-290,00	324,00
-282,58	407,00
-275,17	488,00
-267,77	319,00
-260,37	314,00
-252,99	318,00
-245,62	262,00
-238,25	380,00
-230,90	463,00
-223,55	295,00
-216,21	371,00
-208,88	458,00
-201,56	504,00
-194,25	435,00
-186,94	428,00
-179,65	520,00
-172,36	446,00
-165,08	512,00
-157,81	578,00
-150,55	653,00
-143,30	586,00
-136,06	772,00
-128,82	721,00
-121,60	708,00
-114,38	856,00
-107,17	840,00
-99,97	1016,00
-92,78	981,00
-85,60	1142,00
-78,42	1249,00
-71,25	1367,00
-64,10	1618,00
-56,95	1890,00
-49,81	2168,00
-42,67	2677,00
-35,55	3301,00
-28,43	4110,00
-21,33	6980,00
-14,23	23185,00
-7,14	55635,00
-0,05	55419,00
7,02	55129,00
14,09	55339,00
21,14	20083,00
28,19	8345,00
35,23	5409,00
42,27	4040,00
49,29	3383,00
56,31	2994,00
63,32	2368,00
70,32	2146,00
77,31	1796,00
84,29	1649,00
91,27	1545,00
98,23	1400,00
105,19	1408,00
112,14	1307,00
119,09	1875,00
126,02	2348,00
132,95	2583,00
139,87	2465,00
146,78	2489,00
153,68	2430,00
160,58	2390,00
167,46	2324,00
174,34	2365,00
181,21	2195,00
188,08	2267,00
194,93	2189,00
201,78	2229,00
208,62	2324,00
215,45	2205,00
222,27	2191,00
229,09	2236,00
235,90	2174,00
242,70	2250,00
249,49	2190,00
256,27	2026,00
263,05	2073,00
269,82	2027,00
276,58	2093,00
283,33	2013,00
290,08	2085,00
296,82	1907,00
303,55	1795,00
310,27	1867,00
316,98	1925,00
323,69	1922,00
330,39	1908,00
337,08	1779,00
343,76	1852,00
350,44	1907,00
357,11	1825,00
363,77	1830,00
370,42	1900,00
377,07	1811,00
383,71	1690,00
390,34	1925,00
396,96	1796,00
403,58	1771,00
410,19	1823,00
416,79	1801,00
423,38	1957,00
429,97	1820,00
436,55	1669,00
443,12	1748,00
449,68	1649,00
456,24	1680,00
462,79	1601,00
469,33	1731,00
475,86	1698,00
482,39	1711,00
488,91	1618,00
495,42	1653,00
501,93	1621,00
508,42	1571,00
514,91	1560,00
521,40	1603,00
527,87	1542,00
534,34	1457,00
540,80	1547,00
547,25	1586,00
553,70	1455,00
560,14	1554,00
566,57	1467,00
573,00	1518,00
579,41	1545,00
585,83	1409,00
592,23	1497,00
598,62	1373,00
605,01	1381,00
611,40	1383,00
617,77	1545,00
624,14	1413,00
630,50	1498,00
636,85	1465,00
643,20	1488,00
649,54	1225,00
655,87	1398,00
662,20	1385,00
668,52	1344,00
674,83	1463,00
681,13	1195,00
687,43	1223,00
693,72	1332,00
700,00	1273,00
706,28	1410,00
712,55	1227,00
718,81	1337,00
725,07	1372,00
731,32	1307,00
737,56	1206,00
743,79	1254,00
750,02	1487,00
756,24	1166,00
762,46	1333,00
768,67	1377,00
774,87	1414,00
781,06	1341,00
787,25	1389,00
793,43	1312,00
799,60	1167,00
805,77	1518,00
811,93	1405,00
818,08	1192,00
824,23	1216,00
830,37	1323,00
836,50	1356,00
842,63	1288,00
848,75	1326,00
854,87	1311,00
860,97	1250,00
867,07	1337,00
873,17	1321,00
879,25	1312,00
885,33	1324,00
891,41	1364,00
897,47	1399,00
903,53	1231,00
909,59	1217,00
915,63	1241,00
921,67	1389,00
927,71	1113,00
933,74	1298,00
939,76	1101,00
945,77	1139,00
951,78	1160,00
957,78	1133,00
963,78	1204,00
969,77	1050,00
975,75	1195,00
981,72	1206,00
987,69	1572,00
993,66	1056,00
999,61	1245,00
1005,56	1154,00
1011,51	1157,00
1017,44	1171,00
1023,37	1271,00
1029,30	1275,00
1035,22	1175,00
1041,13	1242,00
1047,03	1222,00
1052,93	1431,00
1058,83	1598,00
1064,71	1576,00
1070,59	1415,00
1076,47	1315,00
1082,33	1235,00
1088,20	1365,00
1094,05	1193,00
1099,90	1363,00
1105,74	1035,00
1111,58	1107,00
1117,41	1276,00
1123,23	1528,00
1129,05	1481,00
1134,86	1461,00
1140,67	1314,00
1146,47	1047,00
1152,26	999,00
1158,05	1083,00
1163,83	1190,00
1169,60	1116,00
1175,37	1149,00
1181,13	1087,00
1186,89	1079,00
1192,64	1063,00
1198,38	1073,00
1204,12	1142,00
1209,85	1148,00
1215,58	1165,00
1221,30	1125,00
1227,02	1116,00
1232,72	1061,00
1238,43	1097,00
1244,12	1175,00
1249,81	1061,00
1255,50	1117,00
1261,17	997,00
1266,85	1263,00
1272,51	1183,00
1278,17	1257,00
1283,83	1193,00
1289,47	1538,00
1295,12	1822,00
1300,75	1776,00
1306,38	1372,00
1312,01	1422,00
1317,63	1127,00
1323,24	1283,00
1328,85	1211,00
1334,45	1319,00
1340,04	1246,00
1345,63	1156,00
1351,22	1280,00
1356,80	1125,00
1362,37	1186,00
1367,93	1163,00
1373,49	1135,00
1379,05	1355,00
1384,60	1265,00
1390,14	1278,00
1395,68	1079,00
1401,21	1202,00
1406,74	1266,00
1412,26	1180,00
1417,77	1323,00
1423,28	1452,00
1428,78	1582,00
1434,28	1627,00
1439,77	1867,00
1445,26	1827,00
1450,74	1736,00
1456,22	1749,00
1461,68	1671,00
1467,15	1600,00
1472,61	1422,00
1478,06	1349,00
1483,51	1369,00
1488,95	1073,00
1494,38	1099,00
1499,81	1126,00
1505,24	1153,00
1510,65	1117,00
1516,07	1150,00
1521,48	1007,00
1526,88	1028,00
1532,27	1086,00
1537,67	1064,00
1543,05	1092,00
1548,43	856,00
1553,81	1007,00
1559,18	1008,00
1564,54	1046,00
1569,90	979,00
1575,25	1004,00
1580,60	909,00
1585,94	864,00
1591,28	992,00
1596,61	880,00
1601,93	900,00
1607,25	973,00
1612,57	1050,00
1617,88	916,00
1623,18	971,00
1628,48	904,00
1633,77	879,00
1639,06	1098,00
1644,34	838,00
1649,62	871,00
1654,89	919,00
1660,16	829,00
1665,42	848,00
1670,67	947,00
1675,92	987,00
1681,17	899,00
1686,41	916,00
1691,64	864,00
1696,87	960,00
1702,10	767,00
1707,32	811,00
1712,53	898,00
1717,74	874,00
1722,94	962,00
1728,14	794,00
1733,33	846,00
1738,52	854,00
1743,70	726,00
1748,88	915,00
1754,05	815,00
1759,22	832,00
1764,38	864,00
1769,53	771,00
1774,69	810,00
1779,83	849,00
1784,97	768,00
1790,11	723,00
1795,24	737,00
1800,36	766,00
1805,48	775,00
1810,60	855,00
1815,71	782,00
1820,82	682,00
1825,92	685,00
1831,01	818,00
1836,10	814,00
1841,19	779,00
1846,26	629,00
1851,34	750,00
1856,41	702,00
1861,47	700,00
1866,53	771,00
1871,59	834,00
1876,64	831,00
1881,68	754,00
1886,72	729,00
1891,76	729,00
1896,79	715,00
1901,81	653,00
1906,83	756,00
1911,85	652,00
1916,86	664,00
1921,86	651,00
1926,86	641,00
1931,86	598,00
1936,85	571,00
1941,83	694,00
1946,81	650,00
1951,79	697,00
1956,76	661,00
1961,72	538,00
1966,68	652,00
1971,64	627,00
1976,59	644,00
1981,54	637,00
1986,48	660,00
1991,42	658,00
1996,35	742,00
2001,27	462,00
2006,20	623,00
2011,11	632,00
2016,03	586,00
2020,93	714,00
2025,84	674,00
2030,73	675,00
2035,63	642,00
2040,52	514,00
2045,40	573,00
2050,28	644,00
2055,15	595,00
2060,02	556,00
2064,89	700,00
2069,75	520,00
2074,60	623,00
2079,46	612,00
2084,30	456,00
2089,14	616,00
2093,98	682,00
2098,81	590,00
2103,64	587,00
2108,46	633,00
2113,28	661,00
2118,09	546,00
2122,90	527,00
2127,70	599,00
2132,50	473,00
2137,30	652,00
2142,09	601,00
2146,87	536,00
2151,66	654,00
2156,43	648,00
2161,20	555,00
2165,97	462,00
2170,73	732,00
2175,49	548,00
2180,24	616,00
2184,99	637,00
2189,74	646,00
2194,48	664,00
2199,21	720,00
2203,94	620,00
2208,67	576,00
2213,39	564,00
2218,11	500,00
2222,82	416,00
2227,53	612,00
2232,23	521,00
2236,93	652,00
2241,63	544,00
2246,32	603,00
2251,00	543,00
2255,68	628,00
2260,36	530,00
2265,03	498,00
2269,70	501,00
2274,36	559,00
2279,02	483,00
2283,68	500,00
2288,33	439,00
2292,97	670,00
2297,61	499,00
2302,25	581,00
2306,88	424,00
2311,51	456,00
2316,14	473,00
2320,75	461,00
2325,37	562,00
2329,98	689,00
2334,59	430,00
2339,19	413,00
2343,79	534,00
2348,38	473,00
2352,97	490,00
2357,55	594,00
2362,13	462,00
2366,71	423,00
2371,28	451,00
2375,85	528,00
2380,41	397,00
2384,97	601,00
2389,52	515,00
2394,07	393,00
2398,62	442,00
2403,16	501,00
2407,70	428,00
2412,23	479,00
2416,76	412,00
2421,29	498,00
2425,81	497,00
2430,32	563,00
2434,84	442,00
2439,34	452,00
2443,85	422,00
2448,35	455,00
2452,84	476,00
2457,33	523,00
2461,82	519,00
2466,30	323,00
2470,78	477,00
2475,25	537,00
2479,72	405,00
2484,19	418,00
2488,65	507,00
2493,11	410,00
2497,56	579,00
2502,01	269,00
2506,46	301,00
2510,90	479,00
2515,34	347,00
2519,77	383,00
2524,20	501,00
2528,62	456,00
2533,04	511,00
2537,46	459,00
2541,87	324,00
2546,28	457,00
2550,68	457,00
2555,08	510,00
2559,48	507,00
2563,87	354,00
2568,26	415,00
2572,64	453,00
2577,02	497,00
2581,40	509,00
2585,77	487,00
2590,14	366,00
2594,50	318,00
2598,86	380,00
2603,22	465,00
2607,57	532,00
2611,92	402,00
2616,26	391,00
2620,60	545,00
2624,94	331,00
2629,27	422,00
2633,60	351,00
2637,92	513,00
2642,24	426,00
2646,56	477,00
2650,87	392,00
2655,18	527,00
2659,48	464,00
2663,78	308,00
2668,08	392,00
2672,37	387,00
2676,66	479,00
2680,95	453,00
2685,23	589,00
2689,50	604,00
2693,78	479,00
2698,05	486,00
2702,31	365,00
2706,57	525,00
2710,83	622,00
2715,08	476,00
2719,33	531,00
2723,58	573,00
2727,82	477,00
2732,06	455,00
2736,29	515,00
2740,53	522,00
2744,75	438,00
2748,97	526,00
2753,19	508,00
2757,41	543,00
2761,62	582,00
2765,83	506,00
2770,03	438,00
2774,23	496,00
2778,43	407,00
2782,62	545,00
2786,81	505,00
2791,00	492,00
2795,18	467,00
2799,35	420,00
2803,53	608,00
2807,70	572,00
2811,86	549,00
2816,03	540,00
2820,19	544,00
2824,34	675,00
2828,49	541,00
2832,64	791,00
2836,78	848,00
2840,92	993,00
2845,06	1258,00
2849,19	1296,00
2853,32	1421,00
2857,45	1404,00
2861,57	1397,00
2865,69	1261,00
2869,80	1267,00
2873,91	1290,00
2878,02	1370,00
2882,12	1453,00
2886,22	1581,00
2890,32	1414,00
2894,41	1302,00
2898,50	1391,00
2902,58	1033,00
2906,67	1077,00
2910,74	1027,00
2914,82	1129,00
2918,89	1099,00
2922,96	1011,00
2927,02	840,00
2931,08	876,00
2935,13	792,00
2939,19	775,00
2943,24	754,00
2947,28	789,00
2951,32	665,00
2955,36	621,00
2959,40	571,00
2963,43	540,00
2967,46	424,00
2971,48	522,00
2975,50	519,00
2979,52	512,00
2983,53	533,00
2987,54	356,00
2991,55	408,00
2995,55	400,00
2999,55	412,00
3003,54	471,00
3007,54	424,00
3011,53	361,00
3015,51	395,00
3019,49	477,00
3023,47	374,00
3027,45	366,00
3031,42	318,00
3035,39	377,00
3039,35	448,00
3043,31	344,00
3047,27	372,00
3051,22	311,00
3055,17	395,00
3059,12	313,00
3063,06	244,00
3067,00	220,00
3070,94	324,00
3074,87	348,00
3078,80	401,00
3082,73	381,00
3086,65	323,00
3090,57	278,00
3094,49	436,00
3098,40	269,00
3102,31	324,00
3106,22	301,00
3110,12	321,00
3114,02	322,00
3117,92	439,00
3121,81	388,00
3125,70	381,00
3129,58	308,00
3133,47	301,00
3137,34	345,00
3141,22	255,00
3145,09	278,00
3148,96	357,00
3152,83	274,00
3156,69	337,00
3160,55	345,00
3164,40	353,00
3168,26	373,00
3172,10	347,00
3175,95	320,00
3179,79	292,00
3183,63	410,00
3187,47	322,00
3191,30	315,00
3195,13	311,00
3198,95	345,00
3202,78	259,00
3206,60	357,00
3210,41	381,00
3214,23	367,00
3218,03	241,00
3221,84	359,00
3225,64	267,00
3229,44	389,00
3233,24	278,00
3237,03	355,00
3240,82	358,00
3244,61	281,00
3248,39	223,00
3252,17	335,00
3255,95	265,00
3259,72	355,00
3263,49	363,00
3267,26	297,00
3271,03	320,00
3274,79	346,00
3278,54	342,00
3282,30	319,00
3286,05	416,00
3289,80	249,00
3293,54	249,00
3297,29	337,00
3301,02	311,00
3304,76	329,00
3308,49	242,00
3312,22	246,00
3315,95	247,00
3319,67	362,00
3323,39	411,00
3327,10	267,00
3330,82	340,00
3334,53	346,00
3338,24	303,00
3341,94	315,00
3345,64	287,00
3349,34	249,00
3353,03	301,00
3356,72	325,00
3360,41	344,00
3364,10	334,00
3367,78	319,00
3371,46	291,00
3375,13	337,00
3378,81	210,00
3382,48	299,00
3386,14	403,00
3389,81	320,00
3393,47	318,00
3397,12	325,00
3400,78	344,00
3404,43	248,00
3408,08	260,00
3411,72	283,00
3415,36	218,00
3419,00	267,00
3422,64	350,00
3426,27	303,00
3429,90	335,00
3433,53	318,00
3437,15	353,00
3440,77	300,00
3444,39	385,00
3448,00	272,00
3451,62	344,00
3455,22	193,00
3458,83	341,00
3462,43	398,00
3466,03	199,00
3469,63	298,00
3473,22	244,00
3476,81	304,00
3480,40	328,00
3483,99	239,00
3487,57	229,00
3491,15	270,00
3494,72	281,00
3498,29	374,00
3501,86	192,00
3505,43	295,00
3508,99	223,00
3512,56	283,00
3516,11	231,00
3519,67	219,00
3523,22	310,00
3526,77	295,00
3530,32	163,00
3533,86	226,00
3537,40	342,00
3540,94	369,00
3544,47	163,00
3548,00	223,00
3551,53	277,00
3555,06	304,00
3558,58	309,00
3562,10	353,00
3565,62	191,00
3569,13	252,00
3572,64	359,00
3576,15	223,00
3579,66	344,00
3583,16	286,00
3586,66	310,00
3590,16	153,00
3593,65	352,00
3597,14	287,00
3600,63	335,00
3604,11	289,00
3607,60	288,00
3611,08	285,00
3614,55	230,00
3618,03	350,00
3621,50	287,00
3624,97	217,00
3628,43	287,00
3631,90	240,00
3635,36	235,00
3638,81	266,00
3642,27	238,00
3645,72	316,00
3649,17	202,00
3652,61	251,00
3656,06	158,00
3659,50	248,00
3662,93	249,00
3666,37	344,00
3669,80	245,00
3673,23	238,00
3676,65	351,00
3680,08	260,00
3683,50	231,00
3686,92	314,00
3690,33	204,00
3693,74	207,00
3697,15	232,00
3700,56	257,00
3703,96	111,00
3707,36	219,00
3710,76	253,00
3714,16	235,00
3717,55	382,00
3720,94	189,00
3724,33	293,00
3727,71	292,00
3731,10	330,00
3734,48	250,00
3737,85	206,00
3741,23	229,00
3744,60	290,00
3747,97	208,00
3751,33	233,00
3754,69	254,00
3758,05	228,00
3761,41	237,00
3764,77	230,00
3768,12	229,00
3771,47	256,00
3774,82	286,00
3778,16	3,00
3781,50	10,00
3784,84	-2,00
3788,18	2,00
>>>>>End Processed Spectral Data<<<<<
