SpectraSuite Data File
++++++++++++++++++++++++++++++++++++
Date: Mon Mar 09 16:11:48 ICT 2026
User: Administrator
Dark Spectrum Present: Yes
Reference Spectrum Present: No
Number of Sampled Component Spectra: 1
Spectrometers: MAYP113682
Integration Time (usec): 3000000 (MAYP113682)
Spectra Averaged: 1 (MAYP113682)
Boxcar Smoothing: 0 (MAYP113682)
Correct for Electrical Dark: No (MAYP113682)
Strobe/Lamp Enabled: No (MAYP113682)
Correct for Detector Non-linearity: No (MAYP113682)
Correct for Stray Light: No (MAYP113682)
Number of Pixels in Processed Spectrum: 2068
>>>>>Begin Processed Spectral Data<<<<<
-37534,58	-6,00
-37414,56	3,00
-37295,11	-4,00
-37176,24	0,00
-37057,95	23,00
-36940,22	70,00
-36823,05	55,00
-36706,45	-11,00
-36590,40	20,00
-36474,90	29,00
-36359,95	-68,00
-36245,55	44,00
-36131,68	42,00
-36018,35	38,00
-35905,55	34,00
-35793,29	-55,00
-35681,54	48,00
-35570,32	17,00
-35459,62	-53,00
-35349,43	-69,00
-35239,75	-14,00
-35130,58	123,00
-35021,91	-52,00
-34913,74	29,00
-34806,07	5,00
-34698,89	-13,00
-34592,20	-76,00
-34486,00	103,00
-34380,28	15,00
-34275,04	42,00
-34170,27	-57,00
-34065,98	-34,00
-33962,16	88,00
-33858,81	67,00
-33755,92	156,00
-33653,49	69,00
-33551,52	-19,00
-33450,01	80,00
-33348,94	-67,00
-33248,33	-51,00
-33148,16	2,00
-33048,43	38,00
-32949,14	69,00
-32850,29	-19,00
-32751,87	-15,00
-32653,89	29,00
-32556,33	-28,00
-32459,20	6,00
-32362,49	108,00
-32266,19	14,00
-32170,32	41,00
-32074,86	48,00
-31979,82	-92,00
-31885,18	41,00
-31790,95	9,00
-31697,12	-65,00
-31603,69	74,00
-31510,67	0,00
-31418,04	-54,00
-31325,80	-59,00
-31233,95	151,00
-31142,49	2,00
-31051,42	110,00
-30960,73	-85,00
-30870,43	9,00
-30780,50	5,00
-30690,95	-108,00
-30601,77	65,00
-30512,97	137,00
-30424,53	84,00
-30336,46	-34,00
-30248,76	-102,00
-30161,42	42,00
-30074,44	-1,00
-29987,81	99,00
-29901,55	31,00
-29815,63	-47,00
-29730,07	15,00
-29644,86	-113,00
-29560,00	-128,00
-29475,48	152,00
-29391,30	-40,00
-29307,47	47,00
-29223,97	-2,00
-29140,81	-9,00
-29057,99	-17,00
-28975,50	-22,00
-28893,34	47,00
-28811,51	35,00
-28730,00	15,00
-28648,82	-46,00
-28567,97	-31,00
-28487,43	12,00
-28407,21	-79,00
-28327,32	111,00
-28247,73	-16,00
-28168,46	98,00
-28089,50	5,00
-28010,85	15,00
-27932,51	4,00
-27854,48	5,00
-27776,75	-26,00
-27699,32	84,00
-27622,19	7,00
-27545,37	25,00
-27468,84	145,00
-27392,60	60,00
-27316,66	-64,00
-27241,01	-20,00
-27165,66	48,00
-27090,59	-48,00
-27015,81	-32,00
-26941,31	85,00
-26867,10	12,00
-26793,17	-49,00
-26719,52	-72,00
-26646,15	5,00
-26573,06	-4,00
-26500,24	100,00
-26427,70	41,00
-26355,43	-95,00
-26283,43	12,00
-26211,71	-43,00
-26140,25	-100,00
-26069,06	-21,00
-25998,13	-13,00
-25927,46	-77,00
-25857,06	69,00
-25786,92	4,00
-25717,04	-1,00
-25647,42	70,00
-25578,05	40,00
-25508,94	119,00
-25440,09	20,00
-25371,48	107,00
-25303,13	133,00
-25235,02	4,00
-25167,17	21,00
-25099,56	-31,00
-25032,19	56,00
-24965,07	-38,00
-24898,20	48,00
-24831,56	-34,00
-24765,17	4,00
-24699,01	121,00
-24633,10	-80,00
-24567,41	66,00
-24501,97	20,00
-24436,75	-71,00
-24371,77	48,00
-24307,03	13,00
-24242,51	48,00
-24178,22	-46,00
-24114,16	-13,00
-24050,32	49,00
-23986,71	102,00
-23923,32	-83,00
-23860,16	-51,00
-23797,22	56,00
-23734,50	24,00
-23672,00	-195,00
-23609,71	94,00
-23547,65	73,00
-23485,80	-61,00
-23424,16	-24,00
-23362,74	15,00
-23301,53	-106,00
-23240,54	-43,00
-23179,75	40,00
-23119,17	-29,00
-23058,80	11,00
-22998,64	28,00
-22938,68	40,00
-22878,93	-104,00
-22819,39	45,00
-22760,04	-19,00
-22700,90	-61,00
-22641,96	-46,00
-22583,22	29,00
-22524,68	49,00
-22466,33	-17,00
-22408,19	-42,00
-22350,23	3,00
-22292,48	107,00
-22234,92	-6,00
-22177,55	-13,00
-22120,37	72,00
-22063,38	97,00
-22006,58	12,00
-21949,98	-61,00
-21893,56	38,00
-21837,33	-167,00
-21781,28	-38,00
-21725,42	-2,00
-21669,74	36,00
-21614,25	-66,00
-21558,94	18,00
-21503,81	25,00
-21448,86	-153,00
-21394,10	95,00
-21339,51	-25,00
-21285,10	71,00
-21230,86	35,00
-21176,81	55,00
-21122,93	-35,00
-21069,22	-16,00
-21015,69	8,00
-20962,33	6,00
-20909,14	27,00
-20856,13	4,00
-20803,28	-16,00
-20750,61	-9,00
-20698,10	-117,00
-20645,76	-14,00
-20593,59	-49,00
-20541,59	28,00
-20489,75	-80,00
-20438,07	5,00
-20386,56	-57,00
-20335,22	18,00
-20284,03	-86,00
-20233,01	15,00
-20182,15	-76,00
-20131,45	-104,00
-20080,91	-33,00
-20030,52	-61,00
-19980,30	-65,00
-19930,23	-87,00
-19880,32	82,00
-19830,56	-158,00
-19780,96	-14,00
-19731,52	37,00
-19682,23	8,00
-19633,09	71,00
-19584,10	-12,00
-19535,26	21,00
-19486,58	74,00
-19438,04	45,00
-19389,66	-78,00
-19341,42	-113,00
-19293,33	24,00
-19245,39	-40,00
-19197,60	35,00
-19149,95	-10,00
-19102,45	103,00
-19055,09	73,00
-19007,87	46,00
-18960,80	111,00
-18913,87	-21,00
-18867,09	-28,00
-18820,44	-92,00
-18773,94	2,00
-18727,57	-4,00
-18681,35	-44,00
-18635,26	3,00
-18589,31	14,00
-18543,50	-51,00
-18497,83	-84,00
-18452,29	-32,00
-18406,89	-4,00
-18361,63	127,00
-18316,50	-40,00
-18271,50	128,00
-18226,63	15,00
-18181,90	24,00
-18137,30	137,00
-18092,84	-106,00
-18048,50	80,00
-18004,29	19,00
-17960,22	73,00
-17916,27	-14,00
-17872,45	-53,00
-17828,76	45,00
-17785,20	27,00
-17741,77	129,00
-17698,46	71,00
-17655,28	11,00
-17612,22	112,00
-17569,29	103,00
-17526,48	-48,00
-17483,79	72,00
-17441,23	-52,00
-17398,79	45,00
-17356,48	132,00
-17314,28	2,00
-17272,21	-20,00
-17230,26	17,00
-17188,42	70,00
-17146,71	-49,00
-17105,12	-59,00
-17063,64	-87,00
-17022,28	101,00
-16981,04	50,00
-16939,92	-2,00
-16898,91	59,00
-16858,02	29,00
-16817,25	38,00
-16776,59	44,00
-16736,04	-53,00
-16695,61	-22,00
-16655,29	30,00
-16615,09	53,00
-16574,99	30,00
-16535,01	87,00
-16495,15	84,00
-16455,39	-22,00
-16415,74	54,00
-16376,21	-33,00
-16336,78	68,00
-16297,46	-43,00
-16258,26	-55,00
-16219,16	-11,00
-16180,17	77,00
-16141,28	11,00
-16102,51	-83,00
-16063,84	-64,00
-16025,27	38,00
-15986,82	94,00
-15948,46	-48,00
-15910,22	-43,00
-15872,07	77,00
-15834,04	22,00
-15796,10	39,00
-15758,27	20,00
-15720,54	29,00
-15682,91	6,00
-15645,39	-16,00
-15607,97	-19,00
-15570,64	-47,00
-15533,42	-66,00
-15496,30	81,00
-15459,28	88,00
-15422,36	90,00
-15385,54	-77,00
-15348,82	-24,00
-15312,19	-110,00
-15275,66	21,00
-15239,23	159,00
-15202,90	1,00
-15166,67	21,00
-15130,53	0,00
-15094,48	-38,00
-15058,54	-58,00
-15022,68	59,00
-14986,93	82,00
-14951,26	33,00
-14915,69	27,00
-14880,22	108,00
-14844,84	-79,00
-14809,55	-2,00
-14774,35	-13,00
-14739,25	129,00
-14704,24	-36,00
-14669,32	-58,00
-14634,49	96,00
-14599,75	-42,00
-14565,10	-61,00
-14530,55	-131,00
-14496,08	33,00
-14461,70	76,00
-14427,41	29,00
-14393,21	-15,00
-14359,10	8,00
-14325,07	-56,00
-14291,14	6,00
-14257,29	54,00
-14223,52	28,00
-14189,85	101,00
-14156,26	100,00
-14122,76	-26,00
-14089,34	116,00
-14056,01	-21,00
-14022,76	-30,00
-13989,60	-161,00
-13956,52	15,00
-13923,53	-40,00
-13890,62	18,00
-13857,79	-31,00
-13825,05	45,00
-13792,39	-38,00
-13759,81	49,00
-13727,31	-34,00
-13694,90	8,00
-13662,57	91,00
-13630,31	-36,00
-13598,14	-124,00
-13566,05	14,00
-13534,05	50,00
-13502,12	-2,00
-13470,27	28,00
-13438,50	43,00
-13406,80	-76,00
-13375,19	73,00
-13343,66	-74,00
-13312,20	-39,00
-13280,83	-37,00
-13249,53	2,00
-13218,30	58,00
-13187,16	85,00
-13156,09	-20,00
-13125,10	-18,00
-13094,18	103,00
-13063,34	-21,00
-13032,58	8,00
-13001,89	66,00
-12971,28	-92,00
-12940,74	65,00
-12910,27	-59,00
-12879,88	-17,00
-12849,57	16,00
-12819,33	115,00
-12789,16	-83,00
-12759,06	-13,00
-12729,04	96,00
-12699,09	47,00
-12669,21	11,00
-12639,41	-53,00
-12609,68	64,00
-12580,02	26,00
-12550,43	9,00
-12520,91	22,00
-12491,46	-7,00
-12462,08	-30,00
-12432,77	-112,00
-12403,54	-120,00
-12374,37	81,00
-12345,27	-31,00
-12316,24	16,00
-12287,29	77,00
-12258,40	59,00
-12229,57	109,00
-12200,82	87,00
-12172,14	-88,00
-12143,52	21,00
-12114,97	87,00
-12086,49	51,00
-12058,07	-5,00
-12029,73	36,00
-12001,44	-146,00
-11973,23	41,00
-11945,08	1,00
-11917,00	82,00
-11888,98	37,00
-11861,03	60,00
-11833,15	-20,00
-11805,32	-33,00
-11777,57	65,00
-11749,88	-31,00
-11722,25	-63,00
-11694,69	8,00
-11667,19	-14,00
-11639,75	34,00
-11612,38	-76,00
-11585,07	2,00
-11557,83	-6,00
-11530,65	54,00
-11503,53	-25,00
-11476,47	67,00
-11449,48	-17,00
-11422,54	-123,00
-11395,67	-47,00
-11368,86	93,00
-11342,11	26,00
-11315,43	-18,00
-11288,80	-13,00
-11262,23	29,00
-11235,73	-113,00
-11209,28	-91,00
-11182,90	60,00
-11156,57	30,00
-11130,31	83,00
-11104,10	-134,00
-11077,96	-5,00
-11051,87	46,00
-11025,84	-49,00
-10999,87	20,00
-10973,96	98,00
-10948,11	-115,00
-10922,31	9,00
-10896,58	14,00
-10870,90	15,00
-10845,28	26,00
-10819,71	-4,00
-10794,20	14,00
-10768,75	101,00
-10743,36	-97,00
-10718,02	-20,00
-10692,74	145,00
-10667,52	-14,00
-10642,35	172,00
-10617,24	-15,00
-10592,18	88,00
-10567,18	116,00
-10542,23	59,00
-10517,34	249,00
-10492,51	63,00
-10467,72	86,00
-10443,00	33,00
-10418,32	-31,00
-10393,70	-83,00
-10369,14	-3,00
-10344,63	-54,00
-10320,17	146,00
-10295,77	130,00
-10271,42	84,00
-10247,12	131,00
-10222,88	30,00
-10198,68	85,00
-10174,54	121,00
-10150,46	40,00
-10126,42	59,00
-10102,44	108,00
-10078,51	72,00
-10054,63	14,00
-10030,80	163,00
-10007,03	118,00
-9983,30	25,00
-9959,63	60,00
-9936,01	237,00
-9912,44	139,00
-9888,92	130,00
-9865,44	172,00
-9842,02	124,00
-9818,65	239,00
-9795,33	157,00
-9772,06	226,00
-9748,84	205,00
-9725,67	134,00
-9702,55	241,00
-9679,47	318,00
-9656,45	338,00
-9633,47	325,00
-9610,55	353,00
-9587,67	334,00
-9564,84	342,00
-9542,06	397,00
-9519,32	389,00
-9496,64	467,00
-9474,00	609,00
-9451,41	600,00
-9428,87	499,00
-9406,37	597,00
-9383,92	569,00
-9361,52	504,00
-9339,17	480,00
-9316,86	682,00
-9294,60	848,00
-9272,38	919,00
-9250,21	949,00
-9228,09	951,00
-9206,01	834,00
-9183,98	860,00
-9162,00	733,00
-9140,06	623,00
-9118,16	842,00
-9096,31	770,00
-9074,51	857,00
-9052,75	833,00
-9031,04	878,00
-9009,37	696,00
-8987,74	704,00
-8966,16	515,00
-8944,63	413,00
-8923,14	431,00
-8901,69	518,00
-8880,29	636,00
-8858,93	659,00
-8837,61	778,00
-8816,34	906,00
-8795,11	678,00
-8773,92	729,00
-8752,78	556,00
-8731,68	651,00
-8710,62	581,00
-8689,61	686,00
-8668,63	721,00
-8647,70	728,00
-8626,82	725,00
-8605,97	665,00
-8585,17	613,00
-8564,41	449,00
-8543,69	515,00
-8523,01	499,00
-8502,37	415,00
-8481,78	607,00
-8461,23	688,00
-8440,71	772,00
-8420,24	718,00
-8399,81	709,00
-8379,42	783,00
-8359,08	637,00
-8338,77	633,00
-8318,50	529,00
-8298,27	458,00
-8278,09	594,00
-8257,94	717,00
-8237,83	676,00
-8217,76	775,00
-8197,74	649,00
-8177,75	616,00
-8157,80	625,00
-8137,89	653,00
-8118,02	552,00
-8098,19	577,00
-8078,40	631,00
-8058,65	602,00
-8038,93	605,00
-8019,26	615,00
-7999,62	472,00
-7980,02	428,00
-7960,46	471,00
-7940,94	584,00
-7921,46	476,00
-7902,01	427,00
-7882,60	479,00
-7863,23	454,00
-7843,90	549,00
-7824,61	535,00
-7805,35	522,00
-7786,13	698,00
-7766,95	539,00
-7747,80	467,00
-7728,69	544,00
-7709,62	603,00
-7690,59	551,00
-7671,59	642,00
-7652,63	570,00
-7633,70	666,00
-7614,81	630,00
-7595,96	491,00
-7577,15	607,00
-7558,37	418,00
-7539,62	489,00
-7520,91	566,00
-7502,24	401,00
-7483,60	562,00
-7465,00	520,00
-7446,44	431,00
-7427,91	326,00
-7409,41	294,00
-7390,95	262,00
-7372,53	294,00
-7354,14	257,00
-7335,78	169,00
-7317,46	490,00
-7299,18	466,00
-7280,92	483,00
-7262,71	413,00
-7244,52	487,00
-7226,38	552,00
-7208,26	579,00
-7190,18	566,00
-7172,14	585,00
-7154,12	374,00
-7136,15	453,00
-7118,20	550,00
-7100,29	512,00
-7082,41	456,00
-7064,57	605,00
-7046,76	417,00
-7028,98	267,00
-7011,24	288,00
-6993,53	260,00
-6975,85	197,00
-6958,20	140,00
-6940,59	209,00
-6923,01	205,00
-6905,46	123,00
-6887,94	389,00
-6870,46	391,00
-6853,01	550,00
-6835,59	427,00
-6818,21	326,00
-6800,85	380,00
-6783,53	197,00
-6766,24	141,00
-6748,98	76,00
-6731,76	100,00
-6714,56	-98,00
-6697,40	173,00
-6680,26	121,00
-6663,16	248,00
-6646,09	180,00
-6629,05	433,00
-6612,05	354,00
-6595,07	359,00
-6578,13	307,00
-6561,21	166,00
-6544,33	138,00
-6527,47	148,00
-6510,65	-78,00
-6493,86	99,00
-6477,10	194,00
-6460,36	45,00
-6443,66	100,00
-6426,99	142,00
-6410,35	160,00
-6393,74	165,00
-6377,16	175,00
-6360,61	192,00
-6344,09	150,00
-6327,59	108,00
-6311,13	229,00
-6294,70	141,00
-6278,29	321,00
-6261,92	372,00
-6245,58	308,00
-6229,26	420,00
-6212,97	380,00
-6196,72	231,00
-6180,49	85,00
-6164,29	122,00
-6148,12	-44,00
-6131,98	15,00
-6115,86	31,00
-6099,78	-13,00
-6083,72	12,00
-6067,69	18,00
-6051,69	0,00
-6035,72	72,00
-6019,78	135,00
-6003,87	108,00
-5987,98	189,00
-5972,12	219,00
-5956,29	208,00
-5940,49	252,00
-5924,71	127,00
-5908,96	34,00
-5893,24	93,00
-5877,55	17,00
-5861,89	46,00
-5846,25	93,00
-5830,64	1,00
-5815,05	69,00
-5799,50	41,00
-5783,97	93,00
-5768,47	92,00
-5752,99	143,00
-5737,55	192,00
-5722,12	198,00
-5706,73	278,00
-5691,36	260,00
-5676,02	63,00
-5660,71	120,00
-5645,42	75,00
-5630,16	47,00
-5614,92	165,00
-5599,71	128,00
-5584,53	55,00
-5569,37	149,00
-5554,24	1292,00
-5539,14	15,00
-5524,06	-37,00
-5509,01	147,00
-5493,98	47,00
-5478,98	162,00
-5464,00	108,00
-5449,05	107,00
-5434,13	113,00
-5419,23	120,00
-5404,36	131,00
-5389,51	175,00
-5374,69	227,00
-5359,89	106,00
-5345,12	234,00
-5330,37	286,00
-5315,65	225,00
-5300,95	215,00
-5286,28	95,00
-5271,63	189,00
-5257,01	43,00
-5242,41	170,00
-5227,84	1,00
-5213,29	-39,00
-5198,76	-32,00
-5184,26	114,00
-5169,79	131,00
-5155,33	97,00
-5140,91	119,00
-5126,51	145,00
-5112,13	140,00
-5097,77	148,00
-5083,44	60,00
-5069,13	-15,00
-5054,85	52,00
-5040,59	169,00
-5026,36	43,00
-5012,15	229,00
-4997,96	141,00
-4983,80	28,00
-4969,66	77,00
-4955,54	178,00
-4941,44	154,00
-4927,37	274,00
-4913,33	178,00
-4899,30	122,00
-4885,30	200,00
-4871,33	199,00
-4857,37	82,00
-4843,44	150,00
-4829,53	38,00
-4815,65	103,00
-4801,79	54,00
-4787,95	66,00
-4774,13	183,00
-4760,34	143,00
-4746,56	88,00
-4732,82	-10,00
-4719,09	102,00
-4705,38	111,00
-4691,70	196,00
-4678,04	225,00
-4664,41	128,00
-4650,79	35,00
-4637,20	55,00
-4623,63	84,00
-4610,08	116,00
-4596,56	-32,00
-4583,05	129,00
-4569,57	-51,00
-4556,11	138,00
-4542,67	108,00
-4529,25	70,00
-4515,86	44,00
-4502,49	219,00
-4489,13	236,00
-4475,80	130,00
-4462,49	115,00
-4449,21	85,00
-4435,94	143,00
-4422,70	103,00
-4409,47	142,00
-4396,27	236,00
-4383,09	45,00
-4369,93	-19,00
-4356,79	4,00
-4343,67	13,00
-4330,58	-22,00
-4317,50	41,00
-4304,45	64,00
-4291,41	27,00
-4278,40	-164,00
-4265,41	20,00
-4252,44	49,00
-4239,49	109,00
-4226,55	175,00
-4213,65	81,00
-4200,76	83,00
-4187,89	-42,00
-4175,04	15,00
-4162,21	102,00
-4149,40	109,00
-4136,61	80,00
-4123,85	63,00
-4111,10	-48,00
-4098,37	-8,00
-4085,66	96,00
-4072,98	147,00
-4060,31	28,00
-4047,66	92,00
-4035,04	29,00
-4022,43	126,00
-4009,84	103,00
-3997,27	-38,00
-3984,72	38,00
-3972,19	-20,00
-3959,69	-54,00
-3947,20	20,00
-3934,73	-24,00
-3922,27	61,00
-3909,84	-4,00
-3897,43	87,00
-3885,04	-27,00
-3872,67	-76,00
-3860,31	-109,00
-3847,98	-79,00
-3835,66	-72,00
-3823,36	-23,00
-3811,09	70,00
-3798,83	2,00
-3786,59	110,00
-3774,37	20,00
-3762,17	38,00
-3749,98	134,00
-3737,82	6,00
-3725,67	-98,00
-3713,55	-2,00
-3701,44	102,00
-3689,35	-60,00
-3677,28	-109,00
-3665,22	-46,00
-3653,19	-61,00
-3641,17	37,00
-3629,18	10,00
-3617,20	-5,00
-3605,24	8,00
-3593,30	-44,00
-3581,37	-48,00
-3569,47	29,00
-3557,58	-16,00
-3545,71	0,00
-3533,86	96,00
-3522,02	26,00
-3510,21	-30,00
-3498,41	-70,00
-3486,63	77,00
-3474,87	-48,00
-3463,12	32,00
-3451,40	71,00
-3439,69	105,00
-3428,00	168,00
-3416,33	-2,00
-3404,67	-61,00
-3393,03	90,00
-3381,41	34,00
-3369,81	-117,00
-3358,22	137,00
-3346,66	136,00
-3335,10	75,00
-3323,57	115,00
-3312,06	8,00
-3300,56	-30,00
-3289,08	-71,00
-3277,61	19,00
-3266,16	95,00
-3254,73	41,00
-3243,32	46,00
-3231,92	106,00
-3220,55	11,00
-3209,18	54,00
-3197,84	-21,00
-3186,51	15,00
-3175,20	41,00
-3163,90	-49,00
-3152,63	-110,00
-3141,36	-42,00
-3130,12	-4,00
-3118,89	-21,00
-3107,68	53,00
-3096,49	-43,00
-3085,31	34,00
-3074,15	12,00
-3063,00	49,00
-3051,87	19,00
-3040,76	18,00
-3029,67	14,00
-3018,59	-52,00
-3007,52	125,00
-2996,48	-19,00
-2985,44	115,00
-2974,43	-86,00
-2963,43	-30,00
-2952,45	-4,00
-2941,48	-12,00
-2930,53	-72,00
-2919,60	55,00
-2908,68	101,00
-2897,78	4,00
-2886,89	152,00
-2876,02	58,00
-2865,17	108,00
-2854,33	58,00
-2843,50	-34,00
-2832,70	14,00
-2821,90	26,00
-2811,13	-18,00
-2800,37	-22,00
-2789,62	-11,00
-2778,89	56,00
-2768,18	50,00
-2757,48	-27,00
-2746,80	-37,00
-2736,13	70,00
-2725,48	153,00
-2714,84	-49,00
-2704,22	59,00
-2693,61	-41,00
-2683,02	-164,00
-2672,45	42,00
-2661,89	0,00
-2651,34	-145,00
-2640,81	6,00
-2630,30	-40,00
-2619,80	57,00
-2609,31	110,00
-2598,84	-61,00
-2588,39	-68,00
-2577,95	-31,00
-2567,52	65,00
-2557,11	5,00
-2546,71	-20,00
-2536,33	24,00
-2525,97	47,00
-2515,62	-15,00
-2505,28	199,00
-2494,96	-30,00
-2484,65	-47,00
-2474,36	160,00
-2464,08	-24,00
-2453,82	-6,00
-2443,57	70,00
-2433,33	-72,00
-2423,11	78,00
-2412,91	-92,00
-2402,72	-7,00
-2392,54	174,00
-2382,38	-3,00
-2372,23	-32,00
-2362,09	-4372,00
-2351,97	95,00
-2341,87	-119,00
-2331,78	-14,00
-2321,70	4,00
-2311,64	90,00
-2301,59	48,00
-2291,55	36,00
-2281,53	-6,00
-2271,53	-20,00
-2261,53	76,00
-2251,55	-4,00
-2241,59	56,00
-2231,64	-24,00
-2221,70	36,00
-2211,78	18,00
-2201,87	102,00
-2191,97	26,00
-2182,09	37,00
-2172,22	30,00
-2162,37	-145,00
-2152,53	31,00
-2142,70	-24,00
-2132,89	-35,00
-2123,09	-36,00
-2113,30	112,00
-2103,53	99,00
-2093,77	33,00
-2084,02	21,00
-2074,29	24,00
-2064,57	31,00
-2054,86	-75,00
-2045,17	-69,00
-2035,49	30,00
-2025,82	-66,00
-2016,17	-63,00
-2006,53	56,00
-1996,91	-38,00
-1987,29	-13,00
-1977,69	-36,00
-1968,11	-35,00
-1958,53	33,00
-1948,97	-85,00
-1939,42	41,00
-1929,89	-30,00
-1920,37	-48,00
-1910,86	62,00
-1901,36	-1,00
-1891,88	-33,00
-1882,41	-71,00
-1872,95	115,00
-1863,51	-61,00
-1854,08	24,00
-1844,66	11,00
-1835,26	68,00
-1825,86	7,00
-1816,48	10,00
-1807,11	0,00
-1797,76	-8,00
-1788,42	14,00
-1779,09	53,00
-1769,77	-23,00
-1760,47	-5,00
-1751,17	-89,00
-1741,89	-28,00
-1732,63	84,00
-1723,37	247,00
-1714,13	-38,00
-1704,90	34,00
-1695,68	-31,00
-1686,48	31,00
-1677,29	-9,00
-1668,11	75,00
-1658,94	47,00
-1649,78	16,00
-1640,64	103,00
-1631,51	-52,00
-1622,39	124,00
-1613,28	-13,00
-1604,19	-108,00
-1595,10	122,00
-1586,03	69,00
-1576,97	-99,00
-1567,93	59,00
-1558,89	-57,00
-1549,87	-29,00
-1540,86	8,00
-1531,86	-38,00
-1522,87	-44,00
-1513,90	62,00
-1504,93	-85,00
-1495,98	45,00
-1487,04	234,00
-1478,12	63,00
-1469,20	-94,00
-1460,30	9,00
-1451,40	-50,00
-1442,52	132,00
-1433,65	45,00
-1424,80	24,00
-1415,95	-125,00
-1407,12	-58,00
-1398,30	93,00
-1389,48	22,00
-1380,69	133,00
-1371,90	-30,00
-1363,12	24,00
-1354,36	-1,00
-1345,60	-76,00
-1336,86	-17,00
-1328,13	114,00
-1319,41	-170,00
-1310,70	46,00
-1302,01	9,00
-1293,32	31,00
-1284,65	83,00
-1275,99	-31,00
-1267,33	-2,00
-1258,69	-85,00
-1250,06	92,00
-1241,45	-30,00
-1232,84	-5,00
-1224,25	5,00
-1215,66	13,00
-1207,09	-65,00
-1198,53	31,00
-1189,97	14,00
-1181,43	-9,00
-1172,91	-66,00
-1164,39	85,00
-1155,88	150,00
-1147,38	-36,00
-1138,90	-84,00
-1130,43	-67,00
-1121,96	-1,00
-1113,51	-9,00
-1105,07	-21,00
-1096,64	-72,00
-1088,22	92,00
-1079,81	45,00
-1071,41	64,00
-1063,02	41,00
-1054,65	99,00
-1046,28	-58,00
-1037,92	88,00
-1029,58	49,00
-1021,24	-16,00
-1012,92	2,00
-1004,61	-115,00
-996,30	155,00
-988,01	-18,00
-979,73	-14,00
-971,46	48,00
-963,20	18,00
-954,95	-58,00
-946,71	-75,00
-938,48	26,00
-930,26	-8,00
-922,06	-75,00
-913,86	-6,00
-905,67	-20,00
-897,49	-13,00
-889,33	89,00
-881,17	-76,00
-873,02	-32,00
-864,89	86,00
-856,76	48,00
-848,65	64,00
-840,54	21,00
-832,45	41,00
-824,36	64,00
-816,29	-36,00
-808,22	86,00
-800,17	-153,00
-792,12	12,00
-784,09	72,00
-776,06	-14,00
-768,05	55,00
-760,04	-118,00
-752,05	64,00
-744,07	-5,00
-736,09	-121,00
-728,13	18,00
-720,17	-61,00
-712,23	-19,00
-704,29	-10,00
-696,37	15,00
-688,45	-44,00
-680,55	42,00
-672,65	128,00
-664,77	180,00
-656,89	-63,00
-649,03	64,00
-641,17	-7,00
-633,32	-2,00
-625,49	64,00
-617,66	-15,00
-609,84	63,00
-602,03	0,00
-594,23	68,00
-586,45	-9,00
-578,67	-51,00
-570,90	-91,00
-563,14	-6,00
-555,39	-89,00
-547,65	4,00
-539,91	65,00
-532,19	49,00
-524,48	-40,00
-516,78	-11,00
-509,08	40,00
-501,40	-13,00
-493,72	-29,00
-486,06	72,00
-478,40	17,00
-470,76	116,00
-463,12	57,00
-455,49	-21,00
-447,87	91,00
-440,26	17,00
-432,66	-14,00
-425,07	-71,00
-417,49	126,00
-409,92	-6,00
-402,35	87,00
-394,80	50,00
-387,25	-16,00
-379,72	8,00
-372,19	67,00
-364,67	107,00
-357,17	50,00
-349,67	3,00
-342,18	27,00
-334,69	-113,00
-327,22	30,00
-319,76	-10,00
-312,30	147,00
-304,86	67,00
-297,42	50,00
-290,00	14,00
-282,58	112,00
-275,17	139,00
-267,77	21,00
-260,37	76,00
-252,99	137,00
-245,62	61,00
-238,25	47,00
-230,90	36,00
-223,55	-87,00
-216,21	93,00
-208,88	71,00
-201,56	95,00
-194,25	120,00
-186,94	240,00
-179,65	73,00
-172,36	162,00
-165,08	190,00
-157,81	62,00
-150,55	219,00
-143,30	168,00
-136,06	300,00
-128,82	402,00
-121,60	301,00
-114,38	344,00
-107,17	370,00
-99,97	469,00
-92,78	415,00
-85,60	497,00
-78,42	720,00
-71,25	766,00
-64,10	910,00
-56,95	1066,00
-49,81	1248,00
-42,67	1549,00
-35,55	2043,00
-28,43	2601,00
-21,33	4319,00
-14,23	14792,00
-7,14	55164,00
-0,05	54791,00
7,02	54542,00
14,09	48410,00
21,14	12786,00
28,19	5416,00
35,23	3394,00
42,27	2477,00
49,29	2108,00
56,31	1724,00
63,32	1443,00
70,32	1216,00
77,31	1123,00
84,29	834,00
91,27	804,00
98,23	656,00
105,19	620,00
112,14	768,00
119,09	992,00
126,02	1527,00
132,95	1848,00
139,87	1982,00
146,78	1976,00
153,68	1862,00
160,58	1739,00
167,46	1829,00
174,34	1826,00
181,21	1897,00
188,08	1724,00
194,93	1659,00
201,78	1651,00
208,62	1710,00
215,45	1850,00
222,27	1706,00
229,09	1691,00
235,90	1649,00
242,70	1640,00
249,49	1638,00
256,27	1579,00
263,05	1581,00
269,82	1581,00
276,58	1607,00
283,33	1635,00
290,08	1609,00
296,82	1579,00
303,55	1553,00
310,27	1491,00
316,98	1461,00
323,69	1525,00
330,39	1485,00
337,08	1412,00
343,76	1409,00
350,44	1409,00
357,11	1502,00
363,77	1399,00
370,42	1458,00
377,07	1447,00
383,71	1428,00
390,34	1371,00
396,96	1351,00
403,58	1381,00
410,19	1348,00
416,79	1473,00
423,38	1288,00
429,97	1432,00
436,55	1348,00
443,12	1343,00
449,68	1162,00
456,24	1309,00
462,79	1185,00
469,33	1170,00
475,86	1184,00
482,39	1238,00
488,91	1152,00
495,42	1123,00
501,93	1203,00
508,42	1167,00
514,91	1236,00
521,40	1157,00
527,87	1217,00
534,34	1091,00
540,80	1164,00
547,25	1145,00
553,70	1137,00
560,14	1075,00
566,57	1165,00
573,00	1112,00
579,41	1073,00
585,83	956,00
592,23	962,00
598,62	1063,00
605,01	986,00
611,40	1123,00
617,77	1059,00
624,14	933,00
630,50	942,00
636,85	960,00
643,20	1024,00
649,54	982,00
655,87	904,00
662,20	991,00
668,52	945,00
674,83	896,00
681,13	987,00
687,43	813,00
693,72	841,00
700,00	941,00
706,28	1055,00
712,55	994,00
718,81	952,00
725,07	957,00
731,32	855,00
737,56	927,00
743,79	986,00
750,02	1013,00
756,24	833,00
762,46	881,00
768,67	958,00
774,87	860,00
781,06	893,00
787,25	930,00
793,43	911,00
799,60	958,00
805,77	764,00
811,93	1012,00
818,08	824,00
824,23	1005,00
830,37	925,00
836,50	936,00
842,63	940,00
848,75	869,00
854,87	962,00
860,97	908,00
867,07	1002,00
873,17	919,00
879,25	879,00
885,33	917,00
891,41	869,00
897,47	810,00
903,53	975,00
909,59	855,00
915,63	802,00
921,67	826,00
927,71	848,00
933,74	865,00
939,76	802,00
945,77	625,00
951,78	717,00
957,78	739,00
963,78	777,00
969,77	784,00
975,75	773,00
981,72	675,00
987,69	933,00
993,66	800,00
999,61	840,00
1005,56	713,00
1011,51	851,00
1017,44	939,00
1023,37	844,00
1029,30	812,00
1035,22	863,00
1041,13	901,00
1047,03	802,00
1052,93	846,00
1058,83	1194,00
1064,71	1134,00
1070,59	1063,00
1076,47	846,00
1082,33	911,00
1088,20	773,00
1094,05	703,00
1099,90	807,00
1105,74	768,00
1111,58	878,00
1117,41	774,00
1123,23	1039,00
1129,05	1076,00
1134,86	1071,00
1140,67	814,00
1146,47	931,00
1152,26	938,00
1158,05	646,00
1163,83	664,00
1169,60	722,00
1175,37	722,00
1181,13	777,00
1186,89	736,00
1192,64	676,00
1198,38	774,00
1204,12	654,00
1209,85	649,00
1215,58	801,00
1221,30	585,00
1227,02	820,00
1232,72	838,00
1238,43	680,00
1244,12	700,00
1249,81	730,00
1255,50	791,00
1261,17	763,00
1266,85	856,00
1272,51	879,00
1278,17	789,00
1283,83	859,00
1289,47	1222,00
1295,12	1353,00
1300,75	1226,00
1306,38	1077,00
1312,01	1075,00
1317,63	826,00
1323,24	868,00
1328,85	907,00
1334,45	816,00
1340,04	654,00
1345,63	883,00
1351,22	778,00
1356,80	740,00
1362,37	794,00
1367,93	822,00
1373,49	944,00
1379,05	821,00
1384,60	812,00
1390,14	798,00
1395,68	791,00
1401,21	792,00
1406,74	793,00
1412,26	915,00
1417,77	961,00
1423,28	910,00
1428,78	1070,00
1434,28	1309,00
1439,77	1423,00
1445,26	1270,00
1450,74	1304,00
1456,22	1239,00
1461,68	1209,00
1467,15	1053,00
1472,61	1042,00
1478,06	947,00
1483,51	940,00
1488,95	842,00
1494,38	776,00
1499,81	756,00
1505,24	658,00
1510,65	742,00
1516,07	701,00
1521,48	740,00
1526,88	665,00
1532,27	666,00
1537,67	773,00
1543,05	642,00
1548,43	688,00
1553,81	888,00
1559,18	609,00
1564,54	658,00
1569,90	668,00
1575,25	610,00
1580,60	704,00
1585,94	600,00
1591,28	596,00
1596,61	544,00
1601,93	605,00
1607,25	691,00
1612,57	728,00
1617,88	743,00
1623,18	646,00
1628,48	580,00
1633,77	569,00
1639,06	461,00
1644,34	606,00
1649,62	625,00
1654,89	607,00
1660,16	537,00
1665,42	546,00
1670,67	517,00
1675,92	526,00
1681,17	578,00
1686,41	529,00
1691,64	475,00
1696,87	605,00
1702,10	441,00
1707,32	509,00
1712,53	573,00
1717,74	592,00
1722,94	372,00
1728,14	525,00
1733,33	508,00
1738,52	557,00
1743,70	602,00
1748,88	502,00
1754,05	427,00
1759,22	446,00
1764,38	-1059,00
1769,53	469,00
1774,69	492,00
1779,83	545,00
1784,97	531,00
1790,11	439,00
1795,24	517,00
1800,36	382,00
1805,48	399,00
1810,60	457,00
1815,71	359,00
1820,82	427,00
1825,92	376,00
1831,01	463,00
1836,10	388,00
1841,19	349,00
1846,26	501,00
1851,34	399,00
1856,41	419,00
1861,47	406,00
1866,53	430,00
1871,59	294,00
1876,64	359,00
1881,68	260,00
1886,72	393,00
1891,76	367,00
1896,79	469,00
1901,81	429,00
1906,83	376,00
1911,85	310,00
1916,86	367,00
1921,86	353,00
1926,86	375,00
1931,86	448,00
1936,85	307,00
1941,83	462,00
1946,81	361,00
1951,79	353,00
1956,76	295,00
1961,72	329,00
1966,68	412,00
1971,64	232,00
1976,59	349,00
1981,54	228,00
1986,48	395,00
1991,42	289,00
1996,35	245,00
2001,27	293,00
2006,20	259,00
2011,11	430,00
2016,03	344,00
2020,93	382,00
2025,84	263,00
2030,73	302,00
2035,63	308,00
2040,52	429,00
2045,40	357,00
2050,28	369,00
2055,15	222,00
2060,02	311,00
2064,89	378,00
2069,75	296,00
2074,60	193,00
2079,46	208,00
2084,30	324,00
2089,14	400,00
2093,98	325,00
2098,81	353,00
2103,64	358,00
2108,46	166,00
2113,28	178,00
2118,09	253,00
2122,90	241,00
2127,70	322,00
2132,50	276,00
2137,30	306,00
2142,09	283,00
2146,87	249,00
2151,66	289,00
2156,43	264,00
2161,20	112,00
2165,97	225,00
2170,73	307,00
2175,49	120,00
2180,24	253,00
2184,99	327,00
2189,74	269,00
2194,48	219,00
2199,21	264,00
2203,94	195,00
2208,67	115,00
2213,39	365,00
2218,11	173,00
2222,82	215,00
2227,53	291,00
2232,23	228,00
2236,93	266,00
2241,63	235,00
2246,32	262,00
2251,00	221,00
2255,68	231,00
2260,36	188,00
2265,03	254,00
2269,70	241,00
2274,36	234,00
2279,02	188,00
2283,68	216,00
2288,33	173,00
2292,97	144,00
2297,61	177,00
2302,25	200,00
2306,88	264,00
2311,51	265,00
2316,14	205,00
2320,75	296,00
2325,37	163,00
2329,98	361,00
2334,59	218,00
2339,19	174,00
2343,79	100,00
2348,38	220,00
2352,97	108,00
2357,55	123,00
2362,13	151,00
2366,71	318,00
2371,28	145,00
2375,85	192,00
2380,41	89,00
2384,97	196,00
2389,52	140,00
2394,07	71,00
2398,62	186,00
2403,16	123,00
2407,70	294,00
2412,23	187,00
2416,76	194,00
2421,29	256,00
2425,81	277,00
2430,32	201,00
2434,84	218,00
2439,34	177,00
2443,85	132,00
2448,35	191,00
2452,84	68,00
2457,33	115,00
2461,82	232,00
2466,30	147,00
2470,78	207,00
2475,25	121,00
2479,72	205,00
2484,19	85,00
2488,65	264,00
2493,11	119,00
2497,56	176,00
2502,01	173,00
2506,46	205,00
2510,90	169,00
2515,34	238,00
2519,77	22,00
2524,20	205,00
2528,62	103,00
2533,04	204,00
2537,46	84,00
2541,87	137,00
2546,28	102,00
2550,68	229,00
2555,08	136,00
2559,48	121,00
2563,87	107,00
2568,26	172,00
2572,64	145,00
2577,02	221,00
2581,40	168,00
2585,77	180,00
2590,14	148,00
2594,50	33,00
2598,86	125,00
2603,22	237,00
2607,57	123,00
2611,92	115,00
2616,26	140,00
2620,60	229,00
2624,94	143,00
2629,27	154,00
2633,60	21,00
2637,92	143,00
2642,24	146,00
2646,56	-14,00
2650,87	102,00
2655,18	90,00
2659,48	181,00
2663,78	164,00
2668,08	147,00
2672,37	257,00
2676,66	161,00
2680,95	175,00
2685,23	82,00
2689,50	273,00
2693,78	107,00
2698,05	250,00
2702,31	177,00
2706,57	198,00
2710,83	159,00
2715,08	266,00
2719,33	279,00
2723,58	294,00
2727,82	258,00
2732,06	138,00
2736,29	227,00
2740,53	246,00
2744,75	220,00
2748,97	133,00
2753,19	316,00
2757,41	280,00
2761,62	246,00
2765,83	136,00
2770,03	125,00
2774,23	122,00
2778,43	253,00
2782,62	301,00
2786,81	144,00
2791,00	181,00
2795,18	207,00
2799,35	76,00
2803,53	256,00
2807,70	317,00
2811,86	162,00
2816,03	310,00
2820,19	195,00
2824,34	181,00
2828,49	440,00
2832,64	413,00
2836,78	541,00
2840,92	704,00
2845,06	761,00
2849,19	701,00
2853,32	851,00
2857,45	878,00
2861,57	960,00
2865,69	934,00
2869,80	944,00
2873,91	841,00
2878,02	946,00
2882,12	882,00
2886,22	938,00
2890,32	939,00
2894,41	854,00
2898,50	818,00
2902,58	714,00
2906,67	676,00
2910,74	639,00
2914,82	618,00
2918,89	533,00
2922,96	601,00
2927,02	464,00
2931,08	504,00
2935,13	503,00
2939,19	370,00
2943,24	299,00
2947,28	392,00
2951,32	233,00
2955,36	347,00
2959,40	248,00
2963,43	253,00
2967,46	216,00
2971,48	223,00
2975,50	124,00
2979,52	88,00
2983,53	232,00
2987,54	160,00
2991,55	105,00
2995,55	105,00
2999,55	88,00
3003,54	140,00
3007,54	131,00
3011,53	80,00
3015,51	145,00
3019,49	102,00
3023,47	98,00
3027,45	154,00
3031,42	108,00
3035,39	108,00
3039,35	203,00
3043,31	-8,00
3047,27	59,00
3051,22	130,00
3055,17	-9,00
3059,12	-60,00
3063,06	126,00
3067,00	8,00
3070,94	-56,00
3074,87	63,00
3078,80	69,00
3082,73	46,00
3086,65	33,00
3090,57	61,00
3094,49	121,00
3098,40	106,00
3102,31	151,00
3106,22	64,00
3110,12	-2,00
3114,02	79,00
3117,92	66,00
3121,81	23,00
3125,70	88,00
3129,58	-7,00
3133,47	22,00
3137,34	64,00
3141,22	96,00
3145,09	126,00
3148,96	74,00
3152,83	-26,00
3156,69	34,00
3160,55	101,00
3164,40	21,00
3168,26	-35,00
3172,10	167,00
3175,95	27,00
3179,79	158,00
3183,63	9,00
3187,47	99,00
3191,30	171,00
3195,13	24,00
3198,95	63,00
3202,78	-17,00
3206,60	106,00
3210,41	-7,00
3214,23	193,00
3218,03	-63,00
3221,84	26,00
3225,64	-16,00
3229,44	69,00
3233,24	198,00
3237,03	108,00
3240,82	57,00
3244,61	-34,00
3248,39	2,00
3252,17	108,00
3255,95	136,00
3259,72	88,00
3263,49	-5,00
3267,26	19,00
3271,03	7,00
3274,79	14,00
3278,54	80,00
3282,30	18,00
3286,05	91,00
3289,80	-7,00
3293,54	80,00
3297,29	86,00
3301,02	65,00
3304,76	182,00
3308,49	22,00
3312,22	-85,00
3315,95	46,00
3319,67	-32,00
3323,39	26,00
3327,10	-19,00
3330,82	56,00
3334,53	22,00
3338,24	66,00
3341,94	85,00
3345,64	57,00
3349,34	-29,00
3353,03	148,00
3356,72	-86,00
3360,41	-19,00
3364,10	102,00
3367,78	51,00
3371,46	38,00
3375,13	11,00
3378,81	10,00
3382,48	-8,00
3386,14	184,00
3389,81	-10,00
3393,47	-33,00
3397,12	4,00
3400,78	-4,00
3404,43	50,00
3408,08	-26,00
3411,72	29,00
3415,36	-48,00
3419,00	-128,00
3422,64	-77,00
3426,27	98,00
3429,90	-3,00
3433,53	-16,00
3437,15	17,00
3440,77	49,00
3444,39	-76,00
3448,00	-39,00
3451,62	124,00
3455,22	-31,00
3458,83	-13,00
3462,43	57,00
3466,03	27,00
3469,63	-58,00
3473,22	58,00
3476,81	-35,00
3480,40	8,00
3483,99	-37,00
3487,57	85,00
3491,15	28,00
3494,72	-6,00
3498,29	74,00
3501,86	18,00
3505,43	39,00
3508,99	-46,00
3512,56	-12,00
3516,11	-3,00
3519,67	12,00
3523,22	41,00
3526,77	55,00
3530,32	49,00
3533,86	-115,00
3537,40	-15,00
3540,94	90,00
3544,47	-101,00
3548,00	85,00
3551,53	16,00
3555,06	21,00
3558,58	-5,00
3562,10	19,00
3565,62	77,00
3569,13	65,00
3572,64	31,00
3576,15	11,00
3579,66	58,00
3583,16	19,00
3586,66	24,00
3590,16	-42,00
3593,65	90,00
3597,14	-85,00
3600,63	10,00
3604,11	-6,00
3607,60	-40,00
3611,08	93,00
3614,55	-101,00
3618,03	71,00
3621,50	-42,00
3624,97	66,00
3628,43	7,00
3631,90	-129,00
3635,36	-1,00
3638,81	68,00
3642,27	-71,00
3645,72	43,00
3649,17	63,00
3652,61	26,00
3656,06	-90,00
3659,50	100,00
3662,93	24,00
3666,37	-33,00
3669,80	65,00
3673,23	-23,00
3676,65	52,00
3680,08	-24,00
3683,50	54,00
3686,92	-91,00
3690,33	55,00
3693,74	20,00
3697,15	17,00
3700,56	69,00
3703,96	23,00
3707,36	-82,00
3710,76	-75,00
3714,16	45,00
3717,55	-51,00
3720,94	-19,00
3724,33	65,00
3727,71	138,00
3731,10	35,00
3734,48	-17,00
3737,85	-69,00
3741,23	-13,00
3744,60	-92,00
3747,97	-145,00
3751,33	71,00
3754,69	14,00
3758,05	139,00
3761,41	4,00
3764,77	7,00
3768,12	-10,00
3771,47	57,00
3774,82	-48,00
3778,16	6,00
3781,50	4,00
3784,84	4,00
3788,18	8,00
>>>>>End Processed Spectral Data<<<<<
