SpectraSuite Data File
++++++++++++++++++++++++++++++++++++
Date: Mon Mar 09 16:03:42 ICT 2026
User: Administrator
Dark Spectrum Present: Yes
Reference Spectrum Present: No
Number of Sampled Component Spectra: 1
Spectrometers: MAYP113682
Integration Time (usec): 3000000 (MAYP113682)
Spectra Averaged: 1 (MAYP113682)
Boxcar Smoothing: 0 (MAYP113682)
Correct for Electrical Dark: No (MAYP113682)
Strobe/Lamp Enabled: No (MAYP113682)
Correct for Detector Non-linearity: No (MAYP113682)
Correct for Stray Light: No (MAYP113682)
Number of Pixels in Processed Spectrum: 2068
>>>>>Begin Processed Spectral Data<<<<<
-37534,58	-3,00
-37414,56	-1,00
-37295,11	4,00
-37176,24	-3,00
-37057,95	61,00
-36940,22	48,00
-36823,05	92,00
-36706,45	180,00
-36590,40	40,00
-36474,90	55,00
-36359,95	17,00
-36245,55	103,00
-36131,68	22,00
-36018,35	71,00
-35905,55	132,00
-35793,29	94,00
-35681,54	82,00
-35570,32	108,00
-35459,62	89,00
-35349,43	55,00
-35239,75	44,00
-35130,58	115,00
-35021,91	16,00
-34913,74	-2,00
-34806,07	52,00
-34698,89	124,00
-34592,20	123,00
-34486,00	108,00
-34380,28	146,00
-34275,04	-48,00
-34170,27	2,00
-34065,98	-8,00
-33962,16	75,00
-33858,81	117,00
-33755,92	116,00
-33653,49	78,00
-33551,52	90,00
-33450,01	69,00
-33348,94	8,00
-33248,33	88,00
-33148,16	15,00
-33048,43	29,00
-32949,14	112,00
-32850,29	57,00
-32751,87	-11,00
-32653,89	126,00
-32556,33	22,00
-32459,20	176,00
-32362,49	145,00
-32266,19	4,00
-32170,32	51,00
-32074,86	69,00
-31979,82	43,00
-31885,18	112,00
-31790,95	83,00
-31697,12	122,00
-31603,69	120,00
-31510,67	145,00
-31418,04	11,00
-31325,80	78,00
-31233,95	-39,00
-31142,49	70,00
-31051,42	175,00
-30960,73	91,00
-30870,43	74,00
-30780,50	50,00
-30690,95	180,00
-30601,77	41,00
-30512,97	95,00
-30424,53	34,00
-30336,46	149,00
-30248,76	60,00
-30161,42	41,00
-30074,44	38,00
-29987,81	-16,00
-29901,55	41,00
-29815,63	2,00
-29730,07	71,00
-29644,86	-27,00
-29560,00	20,00
-29475,48	73,00
-29391,30	87,00
-29307,47	-77,00
-29223,97	35,00
-29140,81	169,00
-29057,99	-3,00
-28975,50	126,00
-28893,34	5,00
-28811,51	67,00
-28730,00	19,00
-28648,82	130,00
-28567,97	59,00
-28487,43	23,00
-28407,21	114,00
-28327,32	96,00
-28247,73	52,00
-28168,46	-30,00
-28089,50	32,00
-28010,85	144,00
-27932,51	41,00
-27854,48	-61,00
-27776,75	-2,00
-27699,32	56,00
-27622,19	134,00
-27545,37	132,00
-27468,84	88,00
-27392,60	190,00
-27316,66	44,00
-27241,01	64,00
-27165,66	129,00
-27090,59	141,00
-27015,81	12,00
-26941,31	68,00
-26867,10	60,00
-26793,17	67,00
-26719,52	61,00
-26646,15	20,00
-26573,06	-86,00
-26500,24	-11,00
-26427,70	101,00
-26355,43	83,00
-26283,43	70,00
-26211,71	44,00
-26140,25	121,00
-26069,06	130,00
-25998,13	7,00
-25927,46	112,00
-25857,06	6,00
-25786,92	40,00
-25717,04	91,00
-25647,42	129,00
-25578,05	32,00
-25508,94	-18,00
-25440,09	23,00
-25371,48	112,00
-25303,13	133,00
-25235,02	17,00
-25167,17	106,00
-25099,56	145,00
-25032,19	8,00
-24965,07	53,00
-24898,20	22,00
-24831,56	-9,00
-24765,17	70,00
-24699,01	110,00
-24633,10	-21,00
-24567,41	-7,00
-24501,97	-64,00
-24436,75	-7,00
-24371,77	43,00
-24307,03	14,00
-24242,51	83,00
-24178,22	52,00
-24114,16	50,00
-24050,32	122,00
-23986,71	17,00
-23923,32	180,00
-23860,16	106,00
-23797,22	91,00
-23734,50	3,00
-23672,00	123,00
-23609,71	85,00
-23547,65	178,00
-23485,80	5,00
-23424,16	-23,00
-23362,74	96,00
-23301,53	106,00
-23240,54	95,00
-23179,75	-15,00
-23119,17	73,00
-23058,80	88,00
-22998,64	-11,00
-22938,68	119,00
-22878,93	110,00
-22819,39	217,00
-22760,04	23,00
-22700,90	24,00
-22641,96	-65,00
-22583,22	138,00
-22524,68	81,00
-22466,33	42,00
-22408,19	41,00
-22350,23	55,00
-22292,48	68,00
-22234,92	44,00
-22177,55	136,00
-22120,37	3,00
-22063,38	130,00
-22006,58	167,00
-21949,98	195,00
-21893,56	-1,00
-21837,33	-35,00
-21781,28	130,00
-21725,42	135,00
-21669,74	-4,00
-21614,25	55,00
-21558,94	157,00
-21503,81	302,00
-21448,86	100,00
-21394,10	11,00
-21339,51	258,00
-21285,10	93,00
-21230,86	124,00
-21176,81	34,00
-21122,93	128,00
-21069,22	133,00
-21015,69	24,00
-20962,33	184,00
-20909,14	106,00
-20856,13	46,00
-20803,28	22,00
-20750,61	5,00
-20698,10	99,00
-20645,76	112,00
-20593,59	55,00
-20541,59	49,00
-20489,75	67,00
-20438,07	65,00
-20386,56	137,00
-20335,22	56,00
-20284,03	89,00
-20233,01	-19,00
-20182,15	49,00
-20131,45	117,00
-20080,91	16,00
-20030,52	119,00
-19980,30	56,00
-19930,23	139,00
-19880,32	97,00
-19830,56	161,00
-19780,96	4,00
-19731,52	86,00
-19682,23	139,00
-19633,09	113,00
-19584,10	-28,00
-19535,26	83,00
-19486,58	85,00
-19438,04	50,00
-19389,66	157,00
-19341,42	135,00
-19293,33	-2,00
-19245,39	81,00
-19197,60	41,00
-19149,95	57,00
-19102,45	61,00
-19055,09	81,00
-19007,87	116,00
-18960,80	90,00
-18913,87	38,00
-18867,09	66,00
-18820,44	101,00
-18773,94	61,00
-18727,57	61,00
-18681,35	45,00
-18635,26	18,00
-18589,31	35,00
-18543,50	20,00
-18497,83	146,00
-18452,29	54,00
-18406,89	41,00
-18361,63	56,00
-18316,50	48,00
-18271,50	118,00
-18226,63	98,00
-18181,90	-34,00
-18137,30	-99,00
-18092,84	126,00
-18048,50	74,00
-18004,29	67,00
-17960,22	88,00
-17916,27	39,00
-17872,45	60,00
-17828,76	150,00
-17785,20	11,00
-17741,77	127,00
-17698,46	-7,00
-17655,28	14,00
-17612,22	110,00
-17569,29	117,00
-17526,48	87,00
-17483,79	77,00
-17441,23	104,00
-17398,79	100,00
-17356,48	78,00
-17314,28	93,00
-17272,21	78,00
-17230,26	-66,00
-17188,42	92,00
-17146,71	100,00
-17105,12	135,00
-17063,64	99,00
-17022,28	50,00
-16981,04	62,00
-16939,92	135,00
-16898,91	130,00
-16858,02	62,00
-16817,25	-26,00
-16776,59	1,00
-16736,04	45,00
-16695,61	55,00
-16655,29	8,00
-16615,09	31,00
-16574,99	8,00
-16535,01	40,00
-16495,15	161,00
-16455,39	94,00
-16415,74	113,00
-16376,21	-14,00
-16336,78	118,00
-16297,46	40,00
-16258,26	82,00
-16219,16	128,00
-16180,17	-1,00
-16141,28	124,00
-16102,51	4,00
-16063,84	80,00
-16025,27	55,00
-15986,82	-49,00
-15948,46	-1,00
-15910,22	76,00
-15872,07	150,00
-15834,04	112,00
-15796,10	206,00
-15758,27	51,00
-15720,54	126,00
-15682,91	27,00
-15645,39	51,00
-15607,97	60,00
-15570,64	100,00
-15533,42	-30,00
-15496,30	70,00
-15459,28	171,00
-15422,36	65,00
-15385,54	35,00
-15348,82	-46,00
-15312,19	57,00
-15275,66	23,00
-15239,23	9,00
-15202,90	69,00
-15166,67	24,00
-15130,53	-42,00
-15094,48	54,00
-15058,54	173,00
-15022,68	55,00
-14986,93	126,00
-14951,26	-10,00
-14915,69	-91,00
-14880,22	17,00
-14844,84	57,00
-14809,55	-17,00
-14774,35	55,00
-14739,25	36,00
-14704,24	104,00
-14669,32	-121,00
-14634,49	107,00
-14599,75	48,00
-14565,10	50,00
-14530,55	76,00
-14496,08	225,00
-14461,70	123,00
-14427,41	-62,00
-14393,21	149,00
-14359,10	84,00
-14325,07	19,00
-14291,14	125,00
-14257,29	45,00
-14223,52	60,00
-14189,85	106,00
-14156,26	84,00
-14122,76	71,00
-14089,34	115,00
-14056,01	140,00
-14022,76	-16,00
-13989,60	142,00
-13956,52	43,00
-13923,53	28,00
-13890,62	44,00
-13857,79	120,00
-13825,05	160,00
-13792,39	-60,00
-13759,81	194,00
-13727,31	71,00
-13694,90	153,00
-13662,57	11,00
-13630,31	71,00
-13598,14	167,00
-13566,05	155,00
-13534,05	121,00
-13502,12	50,00
-13470,27	70,00
-13438,50	-11,00
-13406,80	129,00
-13375,19	72,00
-13343,66	77,00
-13312,20	11,00
-13280,83	109,00
-13249,53	-32,00
-13218,30	150,00
-13187,16	18,00
-13156,09	144,00
-13125,10	141,00
-13094,18	102,00
-13063,34	94,00
-13032,58	0,00
-13001,89	22,00
-12971,28	131,00
-12940,74	122,00
-12910,27	136,00
-12879,88	46,00
-12849,57	65,00
-12819,33	0,00
-12789,16	-90,00
-12759,06	127,00
-12729,04	162,00
-12699,09	58,00
-12669,21	119,00
-12639,41	-62,00
-12609,68	-29,00
-12580,02	51,00
-12550,43	191,00
-12520,91	145,00
-12491,46	204,00
-12462,08	-5,00
-12432,77	52,00
-12403,54	137,00
-12374,37	87,00
-12345,27	99,00
-12316,24	116,00
-12287,29	79,00
-12258,40	60,00
-12229,57	57,00
-12200,82	59,00
-12172,14	121,00
-12143,52	95,00
-12114,97	132,00
-12086,49	93,00
-12058,07	220,00
-12029,73	51,00
-12001,44	-24,00
-11973,23	10,00
-11945,08	33,00
-11917,00	123,00
-11888,98	38,00
-11861,03	51,00
-11833,15	93,00
-11805,32	15,00
-11777,57	-52,00
-11749,88	23,00
-11722,25	82,00
-11694,69	36,00
-11667,19	43,00
-11639,75	6,00
-11612,38	67,00
-11585,07	190,00
-11557,83	-30,00
-11530,65	-14,00
-11503,53	114,00
-11476,47	220,00
-11449,48	97,00
-11422,54	100,00
-11395,67	81,00
-11368,86	82,00
-11342,11	-8,00
-11315,43	80,00
-11288,80	38,00
-11262,23	92,00
-11235,73	43,00
-11209,28	213,00
-11182,90	33,00
-11156,57	89,00
-11130,31	94,00
-11104,10	131,00
-11077,96	71,00
-11051,87	105,00
-11025,84	-7,00
-10999,87	92,00
-10973,96	63,00
-10948,11	84,00
-10922,31	165,00
-10896,58	71,00
-10870,90	52,00
-10845,28	53,00
-10819,71	120,00
-10794,20	100,00
-10768,75	248,00
-10743,36	64,00
-10718,02	-15,00
-10692,74	131,00
-10667,52	52,00
-10642,35	158,00
-10617,24	145,00
-10592,18	97,00
-10567,18	193,00
-10542,23	154,00
-10517,34	123,00
-10492,51	102,00
-10467,72	115,00
-10443,00	29,00
-10418,32	100,00
-10393,70	244,00
-10369,14	117,00
-10344,63	142,00
-10320,17	119,00
-10295,77	75,00
-10271,42	31,00
-10247,12	165,00
-10222,88	83,00
-10198,68	88,00
-10174,54	46,00
-10150,46	151,00
-10126,42	135,00
-10102,44	216,00
-10078,51	56,00
-10054,63	210,00
-10030,80	174,00
-10007,03	44,00
-9983,30	-41,00
-9959,63	215,00
-9936,01	206,00
-9912,44	162,00
-9888,92	182,00
-9865,44	177,00
-9842,02	240,00
-9818,65	237,00
-9795,33	167,00
-9772,06	229,00
-9748,84	136,00
-9725,67	228,00
-9702,55	226,00
-9679,47	276,00
-9656,45	357,00
-9633,47	218,00
-9610,55	285,00
-9587,67	296,00
-9564,84	268,00
-9542,06	462,00
-9519,32	354,00
-9496,64	461,00
-9474,00	452,00
-9451,41	548,00
-9428,87	484,00
-9406,37	407,00
-9383,92	396,00
-9361,52	638,00
-9339,17	580,00
-9316,86	540,00
-9294,60	635,00
-9272,38	723,00
-9250,21	765,00
-9228,09	789,00
-9206,01	642,00
-9183,98	588,00
-9162,00	507,00
-9140,06	671,00
-9118,16	644,00
-9096,31	840,00
-9074,51	751,00
-9052,75	644,00
-9031,04	627,00
-9009,37	637,00
-8987,74	462,00
-8966,16	478,00
-8944,63	393,00
-8923,14	492,00
-8901,69	456,00
-8880,29	462,00
-8858,93	509,00
-8837,61	591,00
-8816,34	705,00
-8795,11	609,00
-8773,92	532,00
-8752,78	590,00
-8731,68	532,00
-8710,62	517,00
-8689,61	563,00
-8668,63	501,00
-8647,70	816,00
-8626,82	722,00
-8605,97	572,00
-8585,17	599,00
-8564,41	454,00
-8543,69	528,00
-8523,01	443,00
-8502,37	534,00
-8481,78	513,00
-8461,23	585,00
-8440,71	568,00
-8420,24	500,00
-8399,81	536,00
-8379,42	676,00
-8359,08	633,00
-8338,77	514,00
-8318,50	469,00
-8298,27	480,00
-8278,09	448,00
-8257,94	599,00
-8237,83	610,00
-8217,76	560,00
-8197,74	468,00
-8177,75	580,00
-8157,80	513,00
-8137,89	512,00
-8118,02	429,00
-8098,19	446,00
-8078,40	496,00
-8058,65	489,00
-8038,93	459,00
-8019,26	462,00
-7999,62	505,00
-7980,02	452,00
-7960,46	381,00
-7940,94	541,00
-7921,46	362,00
-7902,01	268,00
-7882,60	439,00
-7863,23	254,00
-7843,90	405,00
-7824,61	504,00
-7805,35	422,00
-7786,13	412,00
-7766,95	484,00
-7747,80	512,00
-7728,69	442,00
-7709,62	435,00
-7690,59	409,00
-7671,59	525,00
-7652,63	580,00
-7633,70	499,00
-7614,81	573,00
-7595,96	337,00
-7577,15	503,00
-7558,37	430,00
-7539,62	506,00
-7520,91	560,00
-7502,24	425,00
-7483,60	455,00
-7465,00	368,00
-7446,44	313,00
-7427,91	349,00
-7409,41	483,00
-7390,95	249,00
-7372,53	263,00
-7354,14	411,00
-7335,78	298,00
-7317,46	292,00
-7299,18	294,00
-7280,92	335,00
-7262,71	358,00
-7244,52	491,00
-7226,38	452,00
-7208,26	544,00
-7190,18	385,00
-7172,14	322,00
-7154,12	412,00
-7136,15	384,00
-7118,20	446,00
-7100,29	478,00
-7082,41	552,00
-7064,57	419,00
-7046,76	365,00
-7028,98	421,00
-7011,24	307,00
-6993,53	253,00
-6975,85	317,00
-6958,20	315,00
-6940,59	339,00
-6923,01	253,00
-6905,46	269,00
-6887,94	276,00
-6870,46	3027,00
-6853,01	349,00
-6835,59	526,00
-6818,21	346,00
-6800,85	412,00
-6783,53	223,00
-6766,24	168,00
-6748,98	289,00
-6731,76	145,00
-6714,56	158,00
-6697,40	75,00
-6680,26	191,00
-6663,16	304,00
-6646,09	281,00
-6629,05	204,00
-6612,05	291,00
-6595,07	356,00
-6578,13	304,00
-6561,21	320,00
-6544,33	247,00
-6527,47	73,00
-6510,65	206,00
-6493,86	115,00
-6477,10	142,00
-6460,36	271,00
-6443,66	184,00
-6426,99	144,00
-6410,35	246,00
-6393,74	141,00
-6377,16	112,00
-6360,61	252,00
-6344,09	135,00
-6327,59	342,00
-6311,13	318,00
-6294,70	264,00
-6278,29	359,00
-6261,92	350,00
-6245,58	276,00
-6229,26	333,00
-6212,97	345,00
-6196,72	195,00
-6180,49	296,00
-6164,29	287,00
-6148,12	104,00
-6131,98	128,00
-6115,86	72,00
-6099,78	106,00
-6083,72	76,00
-6067,69	139,00
-6051,69	80,00
-6035,72	155,00
-6019,78	219,00
-6003,87	268,00
-5987,98	240,00
-5972,12	363,00
-5956,29	153,00
-5940,49	304,00
-5924,71	259,00
-5908,96	156,00
-5893,24	102,00
-5877,55	142,00
-5861,89	68,00
-5846,25	190,00
-5830,64	145,00
-5815,05	45,00
-5799,50	118,00
-5783,97	97,00
-5768,47	226,00
-5752,99	214,00
-5737,55	238,00
-5722,12	149,00
-5706,73	260,00
-5691,36	279,00
-5676,02	110,00
-5660,71	179,00
-5645,42	120,00
-5630,16	247,00
-5614,92	212,00
-5599,71	147,00
-5584,53	221,00
-5569,37	207,00
-5554,24	-639,00
-5539,14	272,00
-5524,06	116,00
-5509,01	202,00
-5493,98	221,00
-5478,98	134,00
-5464,00	128,00
-5449,05	238,00
-5434,13	251,00
-5419,23	162,00
-5404,36	132,00
-5389,51	190,00
-5374,69	153,00
-5359,89	351,00
-5345,12	308,00
-5330,37	240,00
-5315,65	243,00
-5300,95	162,00
-5286,28	224,00
-5271,63	187,00
-5257,01	286,00
-5242,41	183,00
-5227,84	83,00
-5213,29	149,00
-5198,76	49,00
-5184,26	163,00
-5169,79	54,00
-5155,33	86,00
-5140,91	216,00
-5126,51	199,00
-5112,13	178,00
-5097,77	211,00
-5083,44	150,00
-5069,13	112,00
-5054,85	151,00
-5040,59	201,00
-5026,36	201,00
-5012,15	192,00
-4997,96	207,00
-4983,80	154,00
-4969,66	112,00
-4955,54	117,00
-4941,44	165,00
-4927,37	239,00
-4913,33	201,00
-4899,30	291,00
-4885,30	253,00
-4871,33	185,00
-4857,37	169,00
-4843,44	109,00
-4829,53	207,00
-4815,65	181,00
-4801,79	164,00
-4787,95	29,00
-4774,13	195,00
-4760,34	-6,00
-4746,56	136,00
-4732,82	16,00
-4719,09	196,00
-4705,38	325,00
-4691,70	151,00
-4678,04	218,00
-4664,41	205,00
-4650,79	125,00
-4637,20	109,00
-4623,63	-14,00
-4610,08	195,00
-4596,56	62,00
-4583,05	250,00
-4569,57	96,00
-4556,11	202,00
-4542,67	42,00
-4529,25	69,00
-4515,86	387,00
-4502,49	274,00
-4489,13	137,00
-4475,80	173,00
-4462,49	173,00
-4449,21	227,00
-4435,94	192,00
-4422,70	190,00
-4409,47	167,00
-4396,27	220,00
-4383,09	110,00
-4369,93	104,00
-4356,79	70,00
-4343,67	37,00
-4330,58	166,00
-4317,50	249,00
-4304,45	136,00
-4291,41	93,00
-4278,40	163,00
-4265,41	39,00
-4252,44	150,00
-4239,49	128,00
-4226,55	73,00
-4213,65	135,00
-4200,76	272,00
-4187,89	61,00
-4175,04	168,00
-4162,21	-14,00
-4149,40	227,00
-4136,61	161,00
-4123,85	-9,00
-4111,10	51,00
-4098,37	91,00
-4085,66	69,00
-4072,98	180,00
-4060,31	55,00
-4047,66	75,00
-4035,04	115,00
-4022,43	175,00
-4009,84	-62,00
-3997,27	55,00
-3984,72	88,00
-3972,19	62,00
-3959,69	147,00
-3947,20	134,00
-3934,73	45,00
-3922,27	63,00
-3909,84	19,00
-3897,43	104,00
-3885,04	186,00
-3872,67	47,00
-3860,31	4,00
-3847,98	-21,00
-3835,66	-57,00
-3823,36	86,00
-3811,09	67,00
-3798,83	90,00
-3786,59	100,00
-3774,37	33,00
-3762,17	-66,00
-3749,98	76,00
-3737,82	82,00
-3725,67	168,00
-3713,55	-6,00
-3701,44	165,00
-3689,35	196,00
-3677,28	142,00
-3665,22	104,00
-3653,19	63,00
-3641,17	116,00
-3629,18	95,00
-3617,20	129,00
-3605,24	148,00
-3593,30	101,00
-3581,37	181,00
-3569,47	70,00
-3557,58	145,00
-3545,71	-4,00
-3533,86	176,00
-3522,02	69,00
-3510,21	174,00
-3498,41	142,00
-3486,63	134,00
-3474,87	122,00
-3463,12	-22,00
-3451,40	108,00
-3439,69	136,00
-3428,00	70,00
-3416,33	-22,00
-3404,67	-12,00
-3393,03	77,00
-3381,41	37,00
-3369,81	79,00
-3358,22	181,00
-3346,66	121,00
-3335,10	39,00
-3323,57	-10,00
-3312,06	51,00
-3300,56	99,00
-3289,08	93,00
-3277,61	7,00
-3266,16	-18,00
-3254,73	80,00
-3243,32	128,00
-3231,92	7,00
-3220,55	85,00
-3209,18	74,00
-3197,84	123,00
-3186,51	36,00
-3175,20	127,00
-3163,90	-12,00
-3152,63	95,00
-3141,36	128,00
-3130,12	188,00
-3118,89	-53,00
-3107,68	-32,00
-3096,49	36,00
-3085,31	220,00
-3074,15	25,00
-3063,00	202,00
-3051,87	123,00
-3040,76	174,00
-3029,67	-9,00
-3018,59	88,00
-3007,52	-3,00
-2996,48	36,00
-2985,44	101,00
-2974,43	29,00
-2963,43	135,00
-2952,45	75,00
-2941,48	1,00
-2930,53	86,00
-2919,60	118,00
-2908,68	66,00
-2897,78	110,00
-2886,89	-67,00
-2876,02	23,00
-2865,17	57,00
-2854,33	57,00
-2843,50	44,00
-2832,70	103,00
-2821,90	-17,00
-2811,13	131,00
-2800,37	67,00
-2789,62	-7,00
-2778,89	-9,00
-2768,18	81,00
-2757,48	55,00
-2746,80	67,00
-2736,13	-36,00
-2725,48	-25,00
-2714,84	99,00
-2704,22	120,00
-2693,61	123,00
-2683,02	140,00
-2672,45	80,00
-2661,89	80,00
-2651,34	135,00
-2640,81	103,00
-2630,30	11,00
-2619,80	107,00
-2609,31	72,00
-2598,84	157,00
-2588,39	24,00
-2577,95	192,00
-2567,52	37,00
-2557,11	52,00
-2546,71	-6,00
-2536,33	68,00
-2525,97	-71,00
-2515,62	100,00
-2505,28	52,00
-2494,96	135,00
-2484,65	18,00
-2474,36	-20,00
-2464,08	-43,00
-2453,82	155,00
-2443,57	178,00
-2433,33	23,00
-2423,11	217,00
-2412,91	48,00
-2402,72	115,00
-2392,54	-7,00
-2382,38	64,00
-2372,23	104,00
-2362,09	-4480,00
-2351,97	59,00
-2341,87	-32,00
-2331,78	79,00
-2321,70	126,00
-2311,64	30,00
-2301,59	108,00
-2291,55	66,00
-2281,53	24,00
-2271,53	151,00
-2261,53	74,00
-2251,55	182,00
-2241,59	88,00
-2231,64	3,00
-2221,70	40,00
-2211,78	93,00
-2201,87	8,00
-2191,97	44,00
-2182,09	58,00
-2172,22	27,00
-2162,37	55,00
-2152,53	181,00
-2142,70	131,00
-2132,89	175,00
-2123,09	124,00
-2113,30	30,00
-2103,53	28,00
-2093,77	2,00
-2084,02	25,00
-2074,29	117,00
-2064,57	36,00
-2054,86	38,00
-2045,17	67,00
-2035,49	35,00
-2025,82	150,00
-2016,17	25,00
-2006,53	150,00
-1996,91	72,00
-1987,29	53,00
-1977,69	65,00
-1968,11	-39,00
-1958,53	78,00
-1948,97	80,00
-1939,42	34,00
-1929,89	81,00
-1920,37	28,00
-1910,86	61,00
-1901,36	-69,00
-1891,88	43,00
-1882,41	-31,00
-1872,95	-11,00
-1863,51	92,00
-1854,08	108,00
-1844,66	66,00
-1835,26	36,00
-1825,86	100,00
-1816,48	82,00
-1807,11	149,00
-1797,76	202,00
-1788,42	57,00
-1779,09	36,00
-1769,77	121,00
-1760,47	159,00
-1751,17	159,00
-1741,89	-4,00
-1732,63	19,00
-1723,37	87,00
-1714,13	108,00
-1704,90	-4,00
-1695,68	115,00
-1686,48	100,00
-1677,29	-12,00
-1668,11	0,00
-1658,94	-40,00
-1649,78	164,00
-1640,64	27,00
-1631,51	50,00
-1622,39	61,00
-1613,28	46,00
-1604,19	131,00
-1595,10	51,00
-1586,03	170,00
-1576,97	75,00
-1567,93	10,00
-1558,89	-23,00
-1549,87	172,00
-1540,86	94,00
-1531,86	59,00
-1522,87	61,00
-1513,90	44,00
-1504,93	81,00
-1495,98	206,00
-1487,04	78,00
-1478,12	115,00
-1469,20	101,00
-1460,30	113,00
-1451,40	101,00
-1442,52	69,00
-1433,65	32,00
-1424,80	62,00
-1415,95	139,00
-1407,12	123,00
-1398,30	47,00
-1389,48	111,00
-1380,69	129,00
-1371,90	37,00
-1363,12	-16,00
-1354,36	145,00
-1345,60	54,00
-1336,86	34,00
-1328,13	108,00
-1319,41	92,00
-1310,70	37,00
-1302,01	49,00
-1293,32	1,00
-1284,65	81,00
-1275,99	135,00
-1267,33	75,00
-1258,69	49,00
-1250,06	1,00
-1241,45	77,00
-1232,84	32,00
-1224,25	-1,00
-1215,66	-24,00
-1207,09	76,00
-1198,53	77,00
-1189,97	84,00
-1181,43	-39,00
-1172,91	-31,00
-1164,39	27,00
-1155,88	140,00
-1147,38	95,00
-1138,90	21,00
-1130,43	106,00
-1121,96	-6,00
-1113,51	149,00
-1105,07	136,00
-1096,64	141,00
-1088,22	255,00
-1079,81	109,00
-1071,41	58,00
-1063,02	221,00
-1054,65	-60,00
-1046,28	67,00
-1037,92	111,00
-1029,58	111,00
-1021,24	97,00
-1012,92	109,00
-1004,61	98,00
-996,30	135,00
-988,01	115,00
-979,73	82,00
-971,46	63,00
-963,20	47,00
-954,95	23,00
-946,71	86,00
-938,48	95,00
-930,26	-17,00
-922,06	34,00
-913,86	48,00
-905,67	112,00
-897,49	37,00
-889,33	104,00
-881,17	51,00
-873,02	2,00
-864,89	50,00
-856,76	-99,00
-848,65	99,00
-840,54	126,00
-832,45	202,00
-824,36	68,00
-816,29	55,00
-808,22	21,00
-800,17	115,00
-792,12	100,00
-784,09	42,00
-776,06	21,00
-768,05	56,00
-760,04	126,00
-752,05	-28,00
-744,07	84,00
-736,09	176,00
-728,13	19,00
-720,17	-39,00
-712,23	64,00
-704,29	80,00
-696,37	46,00
-688,45	57,00
-680,55	85,00
-672,65	-11,00
-664,77	5,00
-656,89	25,00
-649,03	189,00
-641,17	13,00
-633,32	4,00
-625,49	133,00
-617,66	198,00
-609,84	35,00
-602,03	74,00
-594,23	48,00
-586,45	-41,00
-578,67	-28,00
-570,90	59,00
-563,14	-18,00
-555,39	182,00
-547,65	77,00
-539,91	45,00
-532,19	-4,00
-524,48	4,00
-516,78	65,00
-509,08	57,00
-501,40	109,00
-493,72	77,00
-486,06	157,00
-478,40	178,00
-470,76	45,00
-463,12	34,00
-455,49	89,00
-447,87	174,00
-440,26	17,00
-432,66	81,00
-425,07	136,00
-417,49	114,00
-409,92	36,00
-402,35	185,00
-394,80	214,00
-387,25	-65,00
-379,72	82,00
-372,19	169,00
-364,67	140,00
-357,17	-33,00
-349,67	-44,00
-342,18	128,00
-334,69	209,00
-327,22	73,00
-319,76	220,00
-312,30	62,00
-304,86	164,00
-297,42	110,00
-290,00	97,00
-282,58	32,00
-275,17	60,00
-267,77	160,00
-260,37	42,00
-252,99	136,00
-245,62	121,00
-238,25	230,00
-230,90	65,00
-223,55	155,00
-216,21	129,00
-208,88	211,00
-201,56	47,00
-194,25	250,00
-186,94	125,00
-179,65	231,00
-172,36	187,00
-165,08	248,00
-157,81	234,00
-150,55	238,00
-143,30	312,00
-136,06	343,00
-128,82	457,00
-121,60	328,00
-114,38	334,00
-107,17	572,00
-99,97	562,00
-92,78	566,00
-85,60	652,00
-78,42	797,00
-71,25	828,00
-64,10	1104,00
-56,95	1086,00
-49,81	1370,00
-42,67	1562,00
-35,55	2100,00
-28,43	2703,00
-21,33	4469,00
-14,23	15267,00
-7,14	55238,00
-0,05	54948,00
7,02	54664,00
14,09	47787,00
21,14	12763,00
28,19	5270,00
35,23	3413,00
42,27	2720,00
49,29	2062,00
56,31	1886,00
63,32	1447,00
70,32	1222,00
77,31	994,00
84,29	893,00
91,27	842,00
98,23	747,00
105,19	711,00
112,14	590,00
119,09	1102,00
126,02	1740,00
132,95	2049,00
139,87	2073,00
146,78	2069,00
153,68	1950,00
160,58	1965,00
167,46	1914,00
174,34	2005,00
181,21	1777,00
188,08	1850,00
194,93	1782,00
201,78	1938,00
208,62	1762,00
215,45	1803,00
222,27	1914,00
229,09	1792,00
235,90	1935,00
242,70	1808,00
249,49	1743,00
256,27	1734,00
263,05	1605,00
269,82	1627,00
276,58	1799,00
283,33	1730,00
290,08	1636,00
296,82	1591,00
303,55	1618,00
310,27	1662,00
316,98	1662,00
323,69	1673,00
330,39	1719,00
337,08	1641,00
343,76	1625,00
350,44	1583,00
357,11	1638,00
363,77	1620,00
370,42	1402,00
377,07	1523,00
383,71	1575,00
390,34	1614,00
396,96	1627,00
403,58	1603,00
410,19	1426,00
416,79	1574,00
423,38	1476,00
429,97	1492,00
436,55	1367,00
443,12	1405,00
449,68	1372,00
456,24	1553,00
462,79	1332,00
469,33	1376,00
475,86	1383,00
482,39	1367,00
488,91	1183,00
495,42	1193,00
501,93	1294,00
508,42	1341,00
514,91	1284,00
521,40	1376,00
527,87	1340,00
534,34	1280,00
540,80	1342,00
547,25	1359,00
553,70	1209,00
560,14	1274,00
566,57	1168,00
573,00	1264,00
579,41	1235,00
585,83	1161,00
592,23	1165,00
598,62	1187,00
605,01	1140,00
611,40	1182,00
617,77	1094,00
624,14	1219,00
630,50	1211,00
636,85	1219,00
643,20	1171,00
649,54	1079,00
655,87	1105,00
662,20	1072,00
668,52	1128,00
674,83	1060,00
681,13	1170,00
687,43	1052,00
693,72	1147,00
700,00	1010,00
706,28	1029,00
712,55	1083,00
718,81	1082,00
725,07	1062,00
731,32	966,00
737,56	1043,00
743,79	1016,00
750,02	1123,00
756,24	991,00
762,46	1076,00
768,67	972,00
774,87	989,00
781,06	1183,00
787,25	1008,00
793,43	1018,00
799,60	909,00
805,77	955,00
811,93	1007,00
818,08	949,00
824,23	1027,00
830,37	997,00
836,50	1107,00
842,63	963,00
848,75	1042,00
854,87	957,00
860,97	1063,00
867,07	1040,00
873,17	1034,00
879,25	1056,00
885,33	929,00
891,41	1009,00
897,47	919,00
903,53	894,00
909,59	934,00
915,63	928,00
921,67	925,00
927,71	860,00
933,74	957,00
939,76	827,00
945,77	886,00
951,78	930,00
957,78	823,00
963,78	950,00
969,77	809,00
975,75	852,00
981,72	849,00
987,69	1034,00
993,66	884,00
999,61	878,00
1005,56	859,00
1011,51	866,00
1017,44	800,00
1023,37	903,00
1029,30	898,00
1035,22	960,00
1041,13	1032,00
1047,03	907,00
1052,93	899,00
1058,83	1145,00
1064,71	1199,00
1070,59	1061,00
1076,47	939,00
1082,33	953,00
1088,20	956,00
1094,05	827,00
1099,90	797,00
1105,74	760,00
1111,58	895,00
1117,41	919,00
1123,23	1022,00
1129,05	1014,00
1134,86	1043,00
1140,67	1108,00
1146,47	984,00
1152,26	858,00
1158,05	810,00
1163,83	856,00
1169,60	866,00
1175,37	782,00
1181,13	851,00
1186,89	854,00
1192,64	856,00
1198,38	903,00
1204,12	836,00
1209,85	777,00
1215,58	840,00
1221,30	779,00
1227,02	775,00
1232,72	764,00
1238,43	783,00
1244,12	841,00
1249,81	811,00
1255,50	703,00
1261,17	801,00
1266,85	852,00
1272,51	886,00
1278,17	886,00
1283,83	932,00
1289,47	1002,00
1295,12	1177,00
1300,75	1275,00
1306,38	1106,00
1312,01	982,00
1317,63	976,00
1323,24	996,00
1328,85	828,00
1334,45	832,00
1340,04	852,00
1345,63	924,00
1351,22	827,00
1356,80	914,00
1362,37	931,00
1367,93	802,00
1373,49	863,00
1379,05	858,00
1384,60	973,00
1390,14	959,00
1395,68	950,00
1401,21	878,00
1406,74	946,00
1412,26	940,00
1417,77	1015,00
1423,28	1050,00
1428,78	1152,00
1434,28	1385,00
1439,77	1199,00
1445,26	1271,00
1450,74	1332,00
1456,22	1242,00
1461,68	1141,00
1467,15	1182,00
1472,61	1076,00
1478,06	996,00
1483,51	838,00
1488,95	931,00
1494,38	922,00
1499,81	664,00
1505,24	918,00
1510,65	719,00
1516,07	723,00
1521,48	782,00
1526,88	711,00
1532,27	973,00
1537,67	673,00
1543,05	721,00
1548,43	755,00
1553,81	833,00
1559,18	675,00
1564,54	733,00
1569,90	641,00
1575,25	684,00
1580,60	661,00
1585,94	702,00
1591,28	789,00
1596,61	765,00
1601,93	702,00
1607,25	748,00
1612,57	685,00
1617,88	777,00
1623,18	640,00
1628,48	635,00
1633,77	581,00
1639,06	688,00
1644,34	648,00
1649,62	683,00
1654,89	751,00
1660,16	694,00
1665,42	642,00
1670,67	705,00
1675,92	725,00
1681,17	636,00
1686,41	605,00
1691,64	596,00
1696,87	602,00
1702,10	593,00
1707,32	612,00
1712,53	509,00
1717,74	459,00
1722,94	574,00
1728,14	642,00
1733,33	651,00
1738,52	547,00
1743,70	667,00
1748,88	574,00
1754,05	647,00
1759,22	456,00
1764,38	-836,00
1769,53	513,00
1774,69	440,00
1779,83	434,00
1784,97	482,00
1790,11	595,00
1795,24	578,00
1800,36	431,00
1805,48	434,00
1810,60	483,00
1815,71	455,00
1820,82	427,00
1825,92	604,00
1831,01	447,00
1836,10	674,00
1841,19	556,00
1846,26	423,00
1851,34	520,00
1856,41	455,00
1861,47	553,00
1866,53	537,00
1871,59	459,00
1876,64	464,00
1881,68	321,00
1886,72	258,00
1891,76	593,00
1896,79	449,00
1901,81	461,00
1906,83	547,00
1911,85	463,00
1916,86	493,00
1921,86	485,00
1926,86	363,00
1931,86	422,00
1936,85	465,00
1941,83	529,00
1946,81	466,00
1951,79	404,00
1956,76	476,00
1961,72	326,00
1966,68	450,00
1971,64	470,00
1976,59	468,00
1981,54	392,00
1986,48	408,00
1991,42	459,00
1996,35	438,00
2001,27	353,00
2006,20	451,00
2011,11	550,00
2016,03	464,00
2020,93	366,00
2025,84	256,00
2030,73	375,00
2035,63	236,00
2040,52	356,00
2045,40	387,00
2050,28	344,00
2055,15	450,00
2060,02	307,00
2064,89	373,00
2069,75	311,00
2074,60	327,00
2079,46	371,00
2084,30	355,00
2089,14	329,00
2093,98	321,00
2098,81	291,00
2103,64	392,00
2108,46	402,00
2113,28	468,00
2118,09	383,00
2122,90	278,00
2127,70	224,00
2132,50	448,00
2137,30	339,00
2142,09	323,00
2146,87	384,00
2151,66	299,00
2156,43	371,00
2161,20	354,00
2165,97	415,00
2170,73	215,00
2175,49	417,00
2180,24	307,00
2184,99	339,00
2189,74	403,00
2194,48	234,00
2199,21	331,00
2203,94	283,00
2208,67	286,00
2213,39	367,00
2218,11	310,00
2222,82	280,00
2227,53	273,00
2232,23	277,00
2236,93	218,00
2241,63	368,00
2246,32	341,00
2251,00	319,00
2255,68	270,00
2260,36	240,00
2265,03	354,00
2269,70	259,00
2274,36	329,00
2279,02	281,00
2283,68	267,00
2288,33	289,00
2292,97	414,00
2297,61	316,00
2302,25	408,00
2306,88	313,00
2311,51	194,00
2316,14	349,00
2320,75	38,00
2325,37	187,00
2329,98	243,00
2334,59	319,00
2339,19	178,00
2343,79	199,00
2348,38	253,00
2352,97	244,00
2357,55	221,00
2362,13	231,00
2366,71	181,00
2371,28	308,00
2375,85	248,00
2380,41	332,00
2384,97	231,00
2389,52	144,00
2394,07	211,00
2398,62	154,00
2403,16	298,00
2407,70	215,00
2412,23	228,00
2416,76	283,00
2421,29	353,00
2425,81	350,00
2430,32	257,00
2434,84	186,00
2439,34	209,00
2443,85	205,00
2448,35	251,00
2452,84	228,00
2457,33	286,00
2461,82	271,00
2466,30	177,00
2470,78	292,00
2475,25	250,00
2479,72	177,00
2484,19	203,00
2488,65	268,00
2493,11	228,00
2497,56	257,00
2502,01	172,00
2506,46	209,00
2510,90	204,00
2515,34	104,00
2519,77	184,00
2524,20	255,00
2528,62	132,00
2533,04	251,00
2537,46	144,00
2541,87	80,00
2546,28	169,00
2550,68	255,00
2555,08	141,00
2559,48	204,00
2563,87	189,00
2568,26	199,00
2572,64	288,00
2577,02	171,00
2581,40	163,00
2585,77	199,00
2590,14	184,00
2594,50	255,00
2598,86	222,00
2603,22	203,00
2607,57	201,00
2611,92	59,00
2616,26	339,00
2620,60	155,00
2624,94	187,00
2629,27	229,00
2633,60	207,00
2637,92	133,00
2642,24	285,00
2646,56	252,00
2650,87	237,00
2655,18	186,00
2659,48	171,00
2663,78	106,00
2668,08	248,00
2672,37	284,00
2676,66	146,00
2680,95	183,00
2685,23	220,00
2689,50	98,00
2693,78	270,00
2698,05	176,00
2702,31	178,00
2706,57	160,00
2710,83	183,00
2715,08	241,00
2719,33	303,00
2723,58	248,00
2727,82	201,00
2732,06	259,00
2736,29	248,00
2740,53	256,00
2744,75	267,00
2748,97	102,00
2753,19	204,00
2757,41	391,00
2761,62	143,00
2765,83	215,00
2770,03	238,00
2774,23	183,00
2778,43	183,00
2782,62	281,00
2786,81	124,00
2791,00	155,00
2795,18	226,00
2799,35	241,00
2803,53	212,00
2807,70	305,00
2811,86	207,00
2816,03	342,00
2820,19	381,00
2824,34	200,00
2828,49	432,00
2832,64	243,00
2836,78	438,00
2840,92	529,00
2845,06	619,00
2849,19	680,00
2853,32	701,00
2857,45	818,00
2861,57	777,00
2865,69	658,00
2869,80	628,00
2873,91	711,00
2878,02	771,00
2882,12	805,00
2886,22	738,00
2890,32	726,00
2894,41	814,00
2898,50	659,00
2902,58	677,00
2906,67	623,00
2910,74	630,00
2914,82	486,00
2918,89	569,00
2922,96	455,00
2927,02	498,00
2931,08	311,00
2935,13	409,00
2939,19	477,00
2943,24	363,00
2947,28	208,00
2951,32	367,00
2955,36	326,00
2959,40	133,00
2963,43	323,00
2967,46	228,00
2971,48	221,00
2975,50	228,00
2979,52	269,00
2983,53	215,00
2987,54	88,00
2991,55	136,00
2995,55	169,00
2999,55	132,00
3003,54	154,00
3007,54	241,00
3011,53	198,00
3015,51	202,00
3019,49	184,00
3023,47	141,00
3027,45	132,00
3031,42	143,00
3035,39	160,00
3039,35	150,00
3043,31	-41,00
3047,27	112,00
3051,22	196,00
3055,17	210,00
3059,12	23,00
3063,06	70,00
3067,00	140,00
3070,94	143,00
3074,87	99,00
3078,80	35,00
3082,73	69,00
3086,65	107,00
3090,57	175,00
3094,49	126,00
3098,40	182,00
3102,31	214,00
3106,22	139,00
3110,12	-11,00
3114,02	105,00
3117,92	67,00
3121,81	209,00
3125,70	106,00
3129,58	87,00
3133,47	154,00
3137,34	58,00
3141,22	62,00
3145,09	150,00
3148,96	158,00
3152,83	73,00
3156,69	180,00
3160,55	177,00
3164,40	108,00
3168,26	101,00
3172,10	66,00
3175,95	125,00
3179,79	68,00
3183,63	132,00
3187,47	179,00
3191,30	195,00
3195,13	124,00
3198,95	137,00
3202,78	215,00
3206,60	107,00
3210,41	82,00
3214,23	127,00
3218,03	86,00
3221,84	171,00
3225,64	124,00
3229,44	166,00
3233,24	199,00
3237,03	161,00
3240,82	-73,00
3244,61	145,00
3248,39	149,00
3252,17	88,00
3255,95	25,00
3259,72	120,00
3263,49	28,00
3267,26	149,00
3271,03	164,00
3274,79	138,00
3278,54	117,00
3282,30	138,00
3286,05	107,00
3289,80	80,00
3293,54	-13,00
3297,29	32,00
3301,02	147,00
3304,76	33,00
3308,49	76,00
3312,22	226,00
3315,95	53,00
3319,67	118,00
3323,39	53,00
3327,10	171,00
3330,82	222,00
3334,53	123,00
3338,24	25,00
3341,94	61,00
3345,64	148,00
3349,34	130,00
3353,03	85,00
3356,72	122,00
3360,41	153,00
3364,10	158,00
3367,78	103,00
3371,46	17,00
3375,13	143,00
3378,81	91,00
3382,48	61,00
3386,14	62,00
3389,81	132,00
3393,47	47,00
3397,12	97,00
3400,78	-58,00
3404,43	140,00
3408,08	166,00
3411,72	49,00
3415,36	133,00
3419,00	54,00
3422,64	117,00
3426,27	122,00
3429,90	55,00
3433,53	149,00
3437,15	42,00
3440,77	145,00
3444,39	47,00
3448,00	172,00
3451,62	136,00
3455,22	142,00
3458,83	39,00
3462,43	166,00
3466,03	26,00
3469,63	59,00
3473,22	171,00
3476,81	169,00
3480,40	9,00
3483,99	105,00
3487,57	72,00
3491,15	94,00
3494,72	69,00
3498,29	68,00
3501,86	34,00
3505,43	83,00
3508,99	192,00
3512,56	98,00
3516,11	69,00
3519,67	110,00
3523,22	44,00
3526,77	145,00
3530,32	75,00
3533,86	116,00
3537,40	73,00
3540,94	23,00
3544,47	-56,00
3548,00	138,00
3551,53	-43,00
3555,06	114,00
3558,58	55,00
3562,10	85,00
3565,62	28,00
3569,13	160,00
3572,64	7,00
3576,15	133,00
3579,66	-40,00
3583,16	115,00
3586,66	115,00
3590,16	211,00
3593,65	174,00
3597,14	33,00
3600,63	100,00
3604,11	69,00
3607,60	-14,00
3611,08	35,00
3614,55	125,00
3618,03	73,00
3621,50	67,00
3624,97	14,00
3628,43	124,00
3631,90	50,00
3635,36	107,00
3638,81	107,00
3642,27	63,00
3645,72	41,00
3649,17	70,00
3652,61	41,00
3656,06	152,00
3659,50	140,00
3662,93	1,00
3666,37	49,00
3669,80	-4,00
3673,23	-23,00
3676,65	9,00
3680,08	78,00
3683,50	11,00
3686,92	138,00
3690,33	153,00
3693,74	57,00
3697,15	118,00
3700,56	59,00
3703,96	-60,00
3707,36	23,00
3710,76	153,00
3714,16	81,00
3717,55	41,00
3720,94	113,00
3724,33	108,00
3727,71	-98,00
3731,10	114,00
3734,48	37,00
3737,85	85,00
3741,23	196,00
3744,60	0,00
3747,97	61,00
3751,33	3,00
3754,69	93,00
3758,05	121,00
3761,41	79,00
3764,77	115,00
3768,12	54,00
3771,47	63,00
3774,82	47,00
3778,16	-3,00
3781,50	-3,00
3784,84	4,00
3788,18	-4,00
>>>>>End Processed Spectral Data<<<<<
