SpectraSuite Data File
++++++++++++++++++++++++++++++++++++
Date: Mon Mar 09 16:18:48 ICT 2026
User: Administrator
Dark Spectrum Present: Yes
Reference Spectrum Present: No
Number of Sampled Component Spectra: 1
Spectrometers: MAYP113682
Integration Time (usec): 3000000 (MAYP113682)
Spectra Averaged: 1 (MAYP113682)
Boxcar Smoothing: 0 (MAYP113682)
Correct for Electrical Dark: No (MAYP113682)
Strobe/Lamp Enabled: No (MAYP113682)
Correct for Detector Non-linearity: No (MAYP113682)
Correct for Stray Light: No (MAYP113682)
Number of Pixels in Processed Spectrum: 2068
>>>>>Begin Processed Spectral Data<<<<<
-37534,58	-3,00
-37414,56	4,00
-37295,11	-7,00
-37176,24	4,00
-37057,95	62,00
-36940,22	48,00
-36823,05	79,00
-36706,45	38,00
-36590,40	115,00
-36474,90	162,00
-36359,95	17,00
-36245,55	45,00
-36131,68	79,00
-36018,35	5,00
-35905,55	17,00
-35793,29	-35,00
-35681,54	-13,00
-35570,32	-18,00
-35459,62	88,00
-35349,43	-25,00
-35239,75	47,00
-35130,58	40,00
-35021,91	13,00
-34913,74	13,00
-34806,07	57,00
-34698,89	90,00
-34592,20	-38,00
-34486,00	88,00
-34380,28	35,00
-34275,04	92,00
-34170,27	-71,00
-34065,98	55,00
-33962,16	12,00
-33858,81	63,00
-33755,92	200,00
-33653,49	132,00
-33551,52	-31,00
-33450,01	119,00
-33348,94	-37,00
-33248,33	-88,00
-33148,16	-67,00
-33048,43	79,00
-32949,14	49,00
-32850,29	127,00
-32751,87	-32,00
-32653,89	107,00
-32556,33	-37,00
-32459,20	108,00
-32362,49	198,00
-32266,19	124,00
-32170,32	66,00
-32074,86	53,00
-31979,82	-91,00
-31885,18	70,00
-31790,95	84,00
-31697,12	-3,00
-31603,69	61,00
-31510,67	4,00
-31418,04	60,00
-31325,80	-11,00
-31233,95	72,00
-31142,49	55,00
-31051,42	51,00
-30960,73	56,00
-30870,43	91,00
-30780,50	-24,00
-30690,95	-41,00
-30601,77	147,00
-30512,97	165,00
-30424,53	23,00
-30336,46	-29,00
-30248,76	-3,00
-30161,42	115,00
-30074,44	-33,00
-29987,81	130,00
-29901,55	73,00
-29815,63	7,00
-29730,07	27,00
-29644,86	56,00
-29560,00	-9,00
-29475,48	87,00
-29391,30	4,00
-29307,47	-37,00
-29223,97	15,00
-29140,81	58,00
-29057,99	144,00
-28975,50	-19,00
-28893,34	81,00
-28811,51	27,00
-28730,00	46,00
-28648,82	45,00
-28567,97	9,00
-28487,43	38,00
-28407,21	43,00
-28327,32	188,00
-28247,73	69,00
-28168,46	77,00
-28089,50	112,00
-28010,85	-28,00
-27932,51	117,00
-27854,48	24,00
-27776,75	-10,00
-27699,32	72,00
-27622,19	110,00
-27545,37	-7,00
-27468,84	72,00
-27392,60	35,00
-27316,66	-105,00
-27241,01	60,00
-27165,66	30,00
-27090,59	95,00
-27015,81	10,00
-26941,31	2,00
-26867,10	46,00
-26793,17	17,00
-26719,52	-54,00
-26646,15	53,00
-26573,06	60,00
-26500,24	126,00
-26427,70	21,00
-26355,43	-16,00
-26283,43	-28,00
-26211,71	40,00
-26140,25	61,00
-26069,06	29,00
-25998,13	81,00
-25927,46	35,00
-25857,06	68,00
-25786,92	48,00
-25717,04	48,00
-25647,42	95,00
-25578,05	99,00
-25508,94	97,00
-25440,09	98,00
-25371,48	25,00
-25303,13	128,00
-25235,02	-4,00
-25167,17	28,00
-25099,56	-120,00
-25032,19	118,00
-24965,07	78,00
-24898,20	50,00
-24831,56	17,00
-24765,17	78,00
-24699,01	187,00
-24633,10	-40,00
-24567,41	16,00
-24501,97	34,00
-24436,75	45,00
-24371,77	129,00
-24307,03	89,00
-24242,51	89,00
-24178,22	21,00
-24114,16	26,00
-24050,32	157,00
-23986,71	132,00
-23923,32	89,00
-23860,16	-18,00
-23797,22	112,00
-23734,50	32,00
-23672,00	-23,00
-23609,71	69,00
-23547,65	151,00
-23485,80	16,00
-23424,16	-12,00
-23362,74	64,00
-23301,53	-66,00
-23240,54	-146,00
-23179,75	134,00
-23119,17	38,00
-23058,80	70,00
-22998,64	108,00
-22938,68	119,00
-22878,93	122,00
-22819,39	136,00
-22760,04	80,00
-22700,90	-86,00
-22641,96	4,00
-22583,22	160,00
-22524,68	50,00
-22466,33	126,00
-22408,19	-51,00
-22350,23	-23,00
-22292,48	116,00
-22234,92	51,00
-22177,55	96,00
-22120,37	125,00
-22063,38	13,00
-22006,58	22,00
-21949,98	53,00
-21893,56	36,00
-21837,33	-71,00
-21781,28	-10,00
-21725,42	63,00
-21669,74	68,00
-21614,25	84,00
-21558,94	16,00
-21503,81	89,00
-21448,86	-81,00
-21394,10	105,00
-21339,51	76,00
-21285,10	13,00
-21230,86	17,00
-21176,81	63,00
-21122,93	-46,00
-21069,22	37,00
-21015,69	20,00
-20962,33	49,00
-20909,14	80,00
-20856,13	-1,00
-20803,28	99,00
-20750,61	20,00
-20698,10	56,00
-20645,76	75,00
-20593,59	68,00
-20541,59	44,00
-20489,75	-39,00
-20438,07	44,00
-20386,56	-63,00
-20335,22	135,00
-20284,03	-3,00
-20233,01	31,00
-20182,15	-17,00
-20131,45	54,00
-20080,91	-16,00
-20030,52	-2,00
-19980,30	154,00
-19930,23	-22,00
-19880,32	99,00
-19830,56	45,00
-19780,96	-26,00
-19731,52	97,00
-19682,23	52,00
-19633,09	90,00
-19584,10	-88,00
-19535,26	34,00
-19486,58	80,00
-19438,04	77,00
-19389,66	-74,00
-19341,42	-32,00
-19293,33	12,00
-19245,39	29,00
-19197,60	91,00
-19149,95	35,00
-19102,45	20,00
-19055,09	55,00
-19007,87	28,00
-18960,80	111,00
-18913,87	16,00
-18867,09	74,00
-18820,44	64,00
-18773,94	20,00
-18727,57	58,00
-18681,35	73,00
-18635,26	28,00
-18589,31	-40,00
-18543,50	-76,00
-18497,83	-107,00
-18452,29	63,00
-18406,89	10,00
-18361,63	160,00
-18316,50	59,00
-18271,50	152,00
-18226,63	59,00
-18181,90	58,00
-18137,30	229,00
-18092,84	-40,00
-18048,50	233,00
-18004,29	-60,00
-17960,22	44,00
-17916,27	126,00
-17872,45	47,00
-17828,76	61,00
-17785,20	18,00
-17741,77	57,00
-17698,46	108,00
-17655,28	90,00
-17612,22	79,00
-17569,29	95,00
-17526,48	68,00
-17483,79	45,00
-17441,23	0,00
-17398,79	78,00
-17356,48	96,00
-17314,28	103,00
-17272,21	23,00
-17230,26	69,00
-17188,42	121,00
-17146,71	-25,00
-17105,12	97,00
-17063,64	-57,00
-17022,28	129,00
-16981,04	218,00
-16939,92	-24,00
-16898,91	43,00
-16858,02	64,00
-16817,25	45,00
-16776,59	4,00
-16736,04	-14,00
-16695,61	8,00
-16655,29	7,00
-16615,09	153,00
-16574,99	90,00
-16535,01	49,00
-16495,15	94,00
-16455,39	12,00
-16415,74	52,00
-16376,21	84,00
-16336,78	68,00
-16297,46	78,00
-16258,26	23,00
-16219,16	30,00
-16180,17	47,00
-16141,28	133,00
-16102,51	-5,00
-16063,84	36,00
-16025,27	31,00
-15986,82	133,00
-15948,46	38,00
-15910,22	53,00
-15872,07	104,00
-15834,04	101,00
-15796,10	-10,00
-15758,27	77,00
-15720,54	21,00
-15682,91	-27,00
-15645,39	54,00
-15607,97	3,00
-15570,64	-14,00
-15533,42	3,00
-15496,30	172,00
-15459,28	114,00
-15422,36	122,00
-15385,54	-22,00
-15348,82	12,00
-15312,19	53,00
-15275,66	-46,00
-15239,23	110,00
-15202,90	-10,00
-15166,67	-17,00
-15130,53	54,00
-15094,48	61,00
-15058,54	49,00
-15022,68	50,00
-14986,93	24,00
-14951,26	42,00
-14915,69	115,00
-14880,22	104,00
-14844,84	25,00
-14809,55	46,00
-14774,35	46,00
-14739,25	-6,00
-14704,24	89,00
-14669,32	-69,00
-14634,49	181,00
-14599,75	-64,00
-14565,10	28,00
-14530,55	-19,00
-14496,08	39,00
-14461,70	96,00
-14427,41	79,00
-14393,21	-67,00
-14359,10	47,00
-14325,07	-51,00
-14291,14	-2,00
-14257,29	54,00
-14223,52	-8,00
-14189,85	116,00
-14156,26	196,00
-14122,76	-8,00
-14089,34	180,00
-14056,01	37,00
-14022,76	85,00
-13989,60	-61,00
-13956,52	106,00
-13923,53	-33,00
-13890,62	15,00
-13857,79	-47,00
-13825,05	100,00
-13792,39	39,00
-13759,81	54,00
-13727,31	-27,00
-13694,90	-22,00
-13662,57	168,00
-13630,31	58,00
-13598,14	-133,00
-13566,05	34,00
-13534,05	76,00
-13502,12	-80,00
-13470,27	79,00
-13438,50	8,00
-13406,80	-76,00
-13375,19	59,00
-13343,66	8,00
-13312,20	40,00
-13280,83	38,00
-13249,53	-55,00
-13218,30	11,00
-13187,16	122,00
-13156,09	31,00
-13125,10	113,00
-13094,18	102,00
-13063,34	14,00
-13032,58	14,00
-13001,89	106,00
-12971,28	57,00
-12940,74	97,00
-12910,27	13,00
-12879,88	-24,00
-12849,57	49,00
-12819,33	23,00
-12789,16	13,00
-12759,06	84,00
-12729,04	190,00
-12699,09	155,00
-12669,21	66,00
-12639,41	-60,00
-12609,68	72,00
-12580,02	-12,00
-12550,43	72,00
-12520,91	-68,00
-12491,46	18,00
-12462,08	4,00
-12432,77	-85,00
-12403,54	-87,00
-12374,37	128,00
-12345,27	85,00
-12316,24	-3,00
-12287,29	2,00
-12258,40	2,00
-12229,57	70,00
-12200,82	-8,00
-12172,14	-9,00
-12143,52	94,00
-12114,97	25,00
-12086,49	18,00
-12058,07	-20,00
-12029,73	127,00
-12001,44	-67,00
-11973,23	71,00
-11945,08	-1,00
-11917,00	175,00
-11888,98	127,00
-11861,03	110,00
-11833,15	20,00
-11805,32	115,00
-11777,57	138,00
-11749,88	41,00
-11722,25	24,00
-11694,69	157,00
-11667,19	29,00
-11639,75	83,00
-11612,38	88,00
-11585,07	53,00
-11557,83	11,00
-11530,65	-2,00
-11503,53	92,00
-11476,47	41,00
-11449,48	69,00
-11422,54	-29,00
-11395,67	32,00
-11368,86	-55,00
-11342,11	54,00
-11315,43	30,00
-11288,80	71,00
-11262,23	110,00
-11235,73	55,00
-11209,28	47,00
-11182,90	143,00
-11156,57	94,00
-11130,31	29,00
-11104,10	-60,00
-11077,96	-58,00
-11051,87	109,00
-11025,84	93,00
-10999,87	94,00
-10973,96	74,00
-10948,11	16,00
-10922,31	125,00
-10896,58	138,00
-10870,90	90,00
-10845,28	79,00
-10819,71	47,00
-10794,20	13,00
-10768,75	113,00
-10743,36	-15,00
-10718,02	33,00
-10692,74	-13,00
-10667,52	37,00
-10642,35	169,00
-10617,24	31,00
-10592,18	40,00
-10567,18	80,00
-10542,23	126,00
-10517,34	226,00
-10492,51	120,00
-10467,72	228,00
-10443,00	72,00
-10418,32	147,00
-10393,70	-54,00
-10369,14	123,00
-10344,63	-45,00
-10320,17	121,00
-10295,77	194,00
-10271,42	173,00
-10247,12	8,00
-10222,88	117,00
-10198,68	148,00
-10174,54	105,00
-10150,46	103,00
-10126,42	85,00
-10102,44	85,00
-10078,51	155,00
-10054,63	93,00
-10030,80	137,00
-10007,03	144,00
-9983,30	113,00
-9959,63	135,00
-9936,01	281,00
-9912,44	88,00
-9888,92	99,00
-9865,44	198,00
-9842,02	119,00
-9818,65	231,00
-9795,33	133,00
-9772,06	180,00
-9748,84	112,00
-9725,67	85,00
-9702,55	87,00
-9679,47	229,00
-9656,45	169,00
-9633,47	291,00
-9610,55	325,00
-9587,67	168,00
-9564,84	160,00
-9542,06	218,00
-9519,32	308,00
-9496,64	370,00
-9474,00	452,00
-9451,41	316,00
-9428,87	327,00
-9406,37	311,00
-9383,92	204,00
-9361,52	323,00
-9339,17	114,00
-9316,86	379,00
-9294,60	402,00
-9272,38	524,00
-9250,21	449,00
-9228,09	652,00
-9206,01	501,00
-9183,98	480,00
-9162,00	375,00
-9140,06	238,00
-9118,16	472,00
-9096,31	433,00
-9074,51	415,00
-9052,75	475,00
-9031,04	448,00
-9009,37	463,00
-8987,74	407,00
-8966,16	284,00
-8944,63	183,00
-8923,14	51,00
-8901,69	328,00
-8880,29	358,00
-8858,93	446,00
-8837,61	498,00
-8816,34	657,00
-8795,11	487,00
-8773,92	464,00
-8752,78	366,00
-8731,68	384,00
-8710,62	264,00
-8689,61	449,00
-8668,63	473,00
-8647,70	464,00
-8626,82	452,00
-8605,97	453,00
-8585,17	431,00
-8564,41	431,00
-8543,69	278,00
-8523,01	217,00
-8502,37	385,00
-8481,78	315,00
-8461,23	524,00
-8440,71	488,00
-8420,24	545,00
-8399,81	457,00
-8379,42	603,00
-8359,08	466,00
-8338,77	450,00
-8318,50	356,00
-8298,27	355,00
-8278,09	384,00
-8257,94	502,00
-8237,83	537,00
-8217,76	573,00
-8197,74	562,00
-8177,75	419,00
-8157,80	541,00
-8137,89	447,00
-8118,02	364,00
-8098,19	404,00
-8078,40	491,00
-8058,65	497,00
-8038,93	478,00
-8019,26	460,00
-7999,62	444,00
-7980,02	344,00
-7960,46	491,00
-7940,94	451,00
-7921,46	306,00
-7902,01	364,00
-7882,60	412,00
-7863,23	438,00
-7843,90	371,00
-7824,61	416,00
-7805,35	392,00
-7786,13	499,00
-7766,95	450,00
-7747,80	423,00
-7728,69	528,00
-7709,62	363,00
-7690,59	384,00
-7671,59	576,00
-7652,63	520,00
-7633,70	484,00
-7614,81	488,00
-7595,96	479,00
-7577,15	414,00
-7558,37	384,00
-7539,62	345,00
-7520,91	425,00
-7502,24	307,00
-7483,60	447,00
-7465,00	354,00
-7446,44	324,00
-7427,91	186,00
-7409,41	308,00
-7390,95	179,00
-7372,53	153,00
-7354,14	166,00
-7335,78	32,00
-7317,46	314,00
-7299,18	292,00
-7280,92	397,00
-7262,71	277,00
-7244,52	428,00
-7226,38	474,00
-7208,26	448,00
-7190,18	348,00
-7172,14	428,00
-7154,12	201,00
-7136,15	293,00
-7118,20	400,00
-7100,29	484,00
-7082,41	370,00
-7064,57	469,00
-7046,76	394,00
-7028,98	235,00
-7011,24	249,00
-6993,53	134,00
-6975,85	170,00
-6958,20	163,00
-6940,59	71,00
-6923,01	161,00
-6905,46	137,00
-6887,94	305,00
-6870,46	-2427,00
-6853,01	455,00
-6835,59	338,00
-6818,21	188,00
-6800,85	259,00
-6783,53	159,00
-6766,24	-83,00
-6748,98	-15,00
-6731,76	-93,00
-6714,56	-19,00
-6697,40	117,00
-6680,26	41,00
-6663,16	190,00
-6646,09	159,00
-6629,05	190,00
-6612,05	238,00
-6595,07	304,00
-6578,13	165,00
-6561,21	172,00
-6544,33	45,00
-6527,47	74,00
-6510,65	-92,00
-6493,86	-11,00
-6477,10	-27,00
-6460,36	7,00
-6443,66	4,00
-6426,99	-18,00
-6410,35	1,00
-6393,74	172,00
-6377,16	83,00
-6360,61	148,00
-6344,09	88,00
-6327,59	37,00
-6311,13	144,00
-6294,70	23,00
-6278,29	265,00
-6261,92	175,00
-6245,58	256,00
-6229,26	240,00
-6212,97	279,00
-6196,72	42,00
-6180,49	41,00
-6164,29	12,00
-6148,12	-32,00
-6131,98	-168,00
-6115,86	13,00
-6099,78	-92,00
-6083,72	-115,00
-6067,69	-124,00
-6051,69	-116,00
-6035,72	82,00
-6019,78	80,00
-6003,87	5,00
-5987,98	243,00
-5972,12	175,00
-5956,29	183,00
-5940,49	152,00
-5924,71	96,00
-5908,96	-80,00
-5893,24	-39,00
-5877,55	101,00
-5861,89	65,00
-5846,25	-83,00
-5830,64	-16,00
-5815,05	38,00
-5799,50	37,00
-5783,97	67,00
-5768,47	61,00
-5752,99	111,00
-5737,55	137,00
-5722,12	120,00
-5706,73	239,00
-5691,36	174,00
-5676,02	53,00
-5660,71	113,00
-5645,42	-25,00
-5630,16	-12,00
-5614,92	39,00
-5599,71	3,00
-5584,53	-31,00
-5569,37	87,00
-5554,24	287,00
-5539,14	63,00
-5524,06	0,00
-5509,01	77,00
-5493,98	5,00
-5478,98	48,00
-5464,00	95,00
-5449,05	-8,00
-5434,13	24,00
-5419,23	-22,00
-5404,36	96,00
-5389,51	191,00
-5374,69	152,00
-5359,89	-7,00
-5345,12	208,00
-5330,37	252,00
-5315,65	128,00
-5300,95	144,00
-5286,28	111,00
-5271,63	29,00
-5257,01	40,00
-5242,41	133,00
-5227,84	-62,00
-5213,29	-52,00
-5198,76	-57,00
-5184,26	73,00
-5169,79	24,00
-5155,33	8,00
-5140,91	2,00
-5126,51	110,00
-5112,13	30,00
-5097,77	103,00
-5083,44	-31,00
-5069,13	-62,00
-5054,85	83,00
-5040,59	87,00
-5026,36	35,00
-5012,15	95,00
-4997,96	33,00
-4983,80	-64,00
-4969,66	49,00
-4955,54	0,00
-4941,44	145,00
-4927,37	153,00
-4913,33	239,00
-4899,30	171,00
-4885,30	265,00
-4871,33	194,00
-4857,37	-19,00
-4843,44	126,00
-4829,53	75,00
-4815,65	175,00
-4801,79	61,00
-4787,95	25,00
-4774,13	100,00
-4760,34	66,00
-4746,56	48,00
-4732,82	25,00
-4719,09	58,00
-4705,38	99,00
-4691,70	215,00
-4678,04	52,00
-4664,41	143,00
-4650,79	19,00
-4637,20	148,00
-4623,63	101,00
-4610,08	51,00
-4596,56	40,00
-4583,05	144,00
-4569,57	-45,00
-4556,11	81,00
-4542,67	-5,00
-4529,25	60,00
-4515,86	155,00
-4502,49	177,00
-4489,13	101,00
-4475,80	142,00
-4462,49	116,00
-4449,21	85,00
-4435,94	234,00
-4422,70	-9,00
-4409,47	113,00
-4396,27	157,00
-4383,09	13,00
-4369,93	60,00
-4356,79	96,00
-4343,67	52,00
-4330,58	107,00
-4317,50	128,00
-4304,45	109,00
-4291,41	10,00
-4278,40	-114,00
-4265,41	69,00
-4252,44	87,00
-4239,49	118,00
-4226,55	112,00
-4213,65	126,00
-4200,76	9,00
-4187,89	34,00
-4175,04	32,00
-4162,21	200,00
-4149,40	72,00
-4136,61	141,00
-4123,85	-5,00
-4111,10	71,00
-4098,37	-16,00
-4085,66	49,00
-4072,98	189,00
-4060,31	33,00
-4047,66	157,00
-4035,04	-28,00
-4022,43	42,00
-4009,84	150,00
-3997,27	71,00
-3984,72	85,00
-3972,19	41,00
-3959,69	21,00
-3947,20	116,00
-3934,73	-36,00
-3922,27	117,00
-3909,84	-4,00
-3897,43	89,00
-3885,04	24,00
-3872,67	-24,00
-3860,31	-45,00
-3847,98	99,00
-3835,66	33,00
-3823,36	2,00
-3811,09	41,00
-3798,83	-23,00
-3786,59	79,00
-3774,37	110,00
-3762,17	189,00
-3749,98	3,00
-3737,82	30,00
-3725,67	10,00
-3713,55	-22,00
-3701,44	129,00
-3689,35	-5,00
-3677,28	-45,00
-3665,22	-31,00
-3653,19	-26,00
-3641,17	108,00
-3629,18	88,00
-3617,20	-5,00
-3605,24	200,00
-3593,30	41,00
-3581,37	-15,00
-3569,47	-12,00
-3557,58	26,00
-3545,71	52,00
-3533,86	70,00
-3522,02	-19,00
-3510,21	37,00
-3498,41	44,00
-3486,63	58,00
-3474,87	51,00
-3463,12	95,00
-3451,40	106,00
-3439,69	121,00
-3428,00	116,00
-3416,33	54,00
-3404,67	28,00
-3393,03	102,00
-3381,41	-43,00
-3369,81	-43,00
-3358,22	206,00
-3346,66	58,00
-3335,10	154,00
-3323,57	146,00
-3312,06	35,00
-3300,56	60,00
-3289,08	71,00
-3277,61	21,00
-3266,16	92,00
-3254,73	48,00
-3243,32	-44,00
-3231,92	58,00
-3220,55	7,00
-3209,18	141,00
-3197,84	147,00
-3186,51	45,00
-3175,20	137,00
-3163,90	12,00
-3152,63	42,00
-3141,36	-3,00
-3130,12	108,00
-3118,89	-14,00
-3107,68	112,00
-3096,49	120,00
-3085,31	-14,00
-3074,15	34,00
-3063,00	-10,00
-3051,87	103,00
-3040,76	92,00
-3029,67	-13,00
-3018,59	-42,00
-3007,52	83,00
-2996,48	-22,00
-2985,44	172,00
-2974,43	31,00
-2963,43	5,00
-2952,45	97,00
-2941,48	20,00
-2930,53	-125,00
-2919,60	-2,00
-2908,68	87,00
-2897,78	109,00
-2886,89	124,00
-2876,02	198,00
-2865,17	89,00
-2854,33	153,00
-2843,50	-16,00
-2832,70	46,00
-2821,90	25,00
-2811,13	79,00
-2800,37	-29,00
-2789,62	146,00
-2778,89	108,00
-2768,18	4,00
-2757,48	49,00
-2746,80	-3,00
-2736,13	-37,00
-2725,48	129,00
-2714,84	7,00
-2704,22	14,00
-2693,61	36,00
-2683,02	-47,00
-2672,45	93,00
-2661,89	-1,00
-2651,34	-84,00
-2640,81	12,00
-2630,30	88,00
-2619,80	94,00
-2609,31	10,00
-2598,84	-74,00
-2588,39	15,00
-2577,95	79,00
-2567,52	49,00
-2557,11	-22,00
-2546,71	49,00
-2536,33	97,00
-2525,97	66,00
-2515,62	23,00
-2505,28	42,00
-2494,96	1,00
-2484,65	90,00
-2474,36	406,00
-2464,08	17,00
-2453,82	89,00
-2443,57	141,00
-2433,33	124,00
-2423,11	153,00
-2412,91	-14,00
-2402,72	32,00
-2392,54	130,00
-2382,38	5,00
-2372,23	66,00
-2362,09	379,00
-2351,97	58,00
-2341,87	-1,00
-2331,78	28,00
-2321,70	36,00
-2311,64	157,00
-2301,59	158,00
-2291,55	44,00
-2281,53	-94,00
-2271,53	-22,00
-2261,53	114,00
-2251,55	-95,00
-2241,59	163,00
-2231,64	-15,00
-2221,70	34,00
-2211,78	7,00
-2201,87	135,00
-2191,97	-32,00
-2182,09	81,00
-2172,22	97,00
-2162,37	17,00
-2152,53	62,00
-2142,70	35,00
-2132,89	75,00
-2123,09	-72,00
-2113,30	40,00
-2103,53	43,00
-2093,77	75,00
-2084,02	29,00
-2074,29	-63,00
-2064,57	29,00
-2054,86	42,00
-2045,17	35,00
-2035,49	66,00
-2025,82	-58,00
-2016,17	-31,00
-2006,53	3,00
-1996,91	27,00
-1987,29	37,00
-1977,69	-53,00
-1968,11	-44,00
-1958,53	116,00
-1948,97	61,00
-1939,42	130,00
-1929,89	55,00
-1920,37	27,00
-1910,86	46,00
-1901,36	80,00
-1891,88	98,00
-1882,41	14,00
-1872,95	-65,00
-1863,51	-83,00
-1854,08	76,00
-1844,66	112,00
-1835,26	129,00
-1825,86	176,00
-1816,48	23,00
-1807,11	0,00
-1797,76	-44,00
-1788,42	-7,00
-1779,09	120,00
-1769,77	-19,00
-1760,47	86,00
-1751,17	17,00
-1741,89	20,00
-1732,63	96,00
-1723,37	237,00
-1714,13	92,00
-1704,90	-9,00
-1695,68	72,00
-1686,48	132,00
-1677,29	122,00
-1668,11	143,00
-1658,94	55,00
-1649,78	39,00
-1640,64	78,00
-1631,51	8,00
-1622,39	86,00
-1613,28	129,00
-1604,19	32,00
-1595,10	95,00
-1586,03	113,00
-1576,97	-20,00
-1567,93	112,00
-1558,89	78,00
-1549,87	-14,00
-1540,86	86,00
-1531,86	-16,00
-1522,87	-11,00
-1513,90	87,00
-1504,93	-13,00
-1495,98	75,00
-1487,04	68,00
-1478,12	128,00
-1469,20	-28,00
-1460,30	32,00
-1451,40	39,00
-1442,52	78,00
-1433,65	103,00
-1424,80	21,00
-1415,95	64,00
-1407,12	48,00
-1398,30	158,00
-1389,48	163,00
-1380,69	67,00
-1371,90	127,00
-1363,12	-3,00
-1354,36	-42,00
-1345,60	-4,00
-1336,86	66,00
-1328,13	28,00
-1319,41	-56,00
-1310,70	182,00
-1302,01	81,00
-1293,32	3,00
-1284,65	179,00
-1275,99	45,00
-1267,33	75,00
-1258,69	55,00
-1250,06	81,00
-1241,45	28,00
-1232,84	3,00
-1224,25	-25,00
-1215,66	27,00
-1207,09	103,00
-1198,53	-2,00
-1189,97	102,00
-1181,43	71,00
-1172,91	16,00
-1164,39	10,00
-1155,88	118,00
-1147,38	-64,00
-1138,90	9,00
-1130,43	94,00
-1121,96	200,00
-1113,51	122,00
-1105,07	-16,00
-1096,64	46,00
-1088,22	151,00
-1079,81	111,00
-1071,41	50,00
-1063,02	63,00
-1054,65	153,00
-1046,28	39,00
-1037,92	27,00
-1029,58	103,00
-1021,24	105,00
-1012,92	79,00
-1004,61	-19,00
-996,30	36,00
-988,01	29,00
-979,73	49,00
-971,46	136,00
-963,20	-47,00
-954,95	79,00
-946,71	30,00
-938,48	15,00
-930,26	69,00
-922,06	149,00
-913,86	150,00
-905,67	73,00
-897,49	96,00
-889,33	15,00
-881,17	5,00
-873,02	-63,00
-864,89	29,00
-856,76	162,00
-848,65	94,00
-840,54	41,00
-832,45	-22,00
-824,36	89,00
-816,29	138,00
-808,22	21,00
-800,17	-18,00
-792,12	135,00
-784,09	83,00
-776,06	4,00
-768,05	146,00
-760,04	93,00
-752,05	115,00
-744,07	-1,00
-736,09	28,00
-728,13	-34,00
-720,17	-16,00
-712,23	112,00
-704,29	104,00
-696,37	10,00
-688,45	105,00
-680,55	81,00
-672,65	60,00
-664,77	162,00
-656,89	23,00
-649,03	107,00
-641,17	-15,00
-633,32	26,00
-625,49	149,00
-617,66	40,00
-609,84	22,00
-602,03	2,00
-594,23	81,00
-586,45	81,00
-578,67	-8,00
-570,90	13,00
-563,14	91,00
-555,39	-13,00
-547,65	120,00
-539,91	15,00
-532,19	72,00
-524,48	-20,00
-516,78	39,00
-509,08	131,00
-501,40	38,00
-493,72	42,00
-486,06	7,00
-478,40	119,00
-470,76	144,00
-463,12	109,00
-455,49	17,00
-447,87	164,00
-440,26	-14,00
-432,66	-42,00
-425,07	92,00
-417,49	27,00
-409,92	-24,00
-402,35	224,00
-394,80	84,00
-387,25	85,00
-379,72	3,00
-372,19	87,00
-364,67	233,00
-357,17	103,00
-349,67	111,00
-342,18	65,00
-334,69	-3,00
-327,22	-2,00
-319,76	98,00
-312,30	144,00
-304,86	246,00
-297,42	116,00
-290,00	26,00
-282,58	136,00
-275,17	85,00
-267,77	17,00
-260,37	130,00
-252,99	195,00
-245,62	185,00
-238,25	39,00
-230,90	123,00
-223,55	58,00
-216,21	187,00
-208,88	165,00
-201,56	202,00
-194,25	193,00
-186,94	280,00
-179,65	225,00
-172,36	288,00
-165,08	344,00
-157,81	116,00
-150,55	366,00
-143,30	302,00
-136,06	457,00
-128,82	518,00
-121,60	492,00
-114,38	450,00
-107,17	568,00
-99,97	660,00
-92,78	676,00
-85,60	753,00
-78,42	950,00
-71,25	1059,00
-64,10	1231,00
-56,95	1434,00
-49,81	1682,00
-42,67	2074,00
-35,55	2593,00
-28,43	3578,00
-21,33	5821,00
-14,23	19792,00
-7,14	55164,00
-0,05	54791,00
7,02	54542,00
14,09	54846,00
21,14	17920,00
28,19	7399,00
35,23	4571,00
42,27	3485,00
49,29	2722,00
56,31	2364,00
63,32	2024,00
70,32	1551,00
77,31	1514,00
84,29	1102,00
91,27	973,00
98,23	988,00
105,19	884,00
112,14	1074,00
119,09	1312,00
126,02	2030,00
132,95	2283,00
139,87	2386,00
146,78	2375,00
153,68	2197,00
160,58	2133,00
167,46	2140,00
174,34	2156,00
181,21	2177,00
188,08	2015,00
194,93	1923,00
201,78	1984,00
208,62	2016,00
215,45	2009,00
222,27	2038,00
229,09	2073,00
235,90	1903,00
242,70	1918,00
249,49	1868,00
256,27	1853,00
263,05	1841,00
269,82	1952,00
276,58	1793,00
283,33	1794,00
290,08	1796,00
296,82	1928,00
303,55	1894,00
310,27	1628,00
316,98	1867,00
323,69	1827,00
330,39	1730,00
337,08	1743,00
343,76	1681,00
350,44	1849,00
357,11	1713,00
363,77	1740,00
370,42	1721,00
377,07	1691,00
383,71	1728,00
390,34	1683,00
396,96	1590,00
403,58	1589,00
410,19	1626,00
416,79	1622,00
423,38	1652,00
429,97	1601,00
436,55	1631,00
443,12	1641,00
449,68	1482,00
456,24	1523,00
462,79	1433,00
469,33	1427,00
475,86	1428,00
482,39	1526,00
488,91	1581,00
495,42	1409,00
501,93	1484,00
508,42	1371,00
514,91	1393,00
521,40	1477,00
527,87	1379,00
534,34	1434,00
540,80	1395,00
547,25	1306,00
553,70	1315,00
560,14	1342,00
566,57	1361,00
573,00	1308,00
579,41	1288,00
585,83	1240,00
592,23	1257,00
598,62	1340,00
605,01	1263,00
611,40	1305,00
617,77	1228,00
624,14	1279,00
630,50	1241,00
636,85	1163,00
643,20	1188,00
649,54	1229,00
655,87	1140,00
662,20	1142,00
668,52	1241,00
674,83	1170,00
681,13	1102,00
687,43	1035,00
693,72	1150,00
700,00	1196,00
706,28	1220,00
712,55	1097,00
718,81	1148,00
725,07	1102,00
731,32	1123,00
737,56	1183,00
743,79	1162,00
750,02	1194,00
756,24	1156,00
762,46	1078,00
768,67	1105,00
774,87	1114,00
781,06	1113,00
787,25	1012,00
793,43	1120,00
799,60	1161,00
805,77	1052,00
811,93	1094,00
818,08	1104,00
824,23	1155,00
830,37	1059,00
836,50	1257,00
842,63	1076,00
848,75	1198,00
854,87	1085,00
860,97	1138,00
867,07	1224,00
873,17	984,00
879,25	1005,00
885,33	1067,00
891,41	1056,00
897,47	980,00
903,53	1125,00
909,59	1047,00
915,63	1060,00
921,67	1084,00
927,71	1040,00
933,74	1027,00
939,76	1006,00
945,77	845,00
951,78	852,00
957,78	967,00
963,78	1033,00
969,77	947,00
975,75	951,00
981,72	1074,00
987,69	973,00
993,66	872,00
999,61	935,00
1005,56	905,00
1011,51	1059,00
1017,44	966,00
1023,37	1056,00
1029,30	953,00
1035,22	1025,00
1041,13	1056,00
1047,03	956,00
1052,93	1059,00
1058,83	1202,00
1064,71	1256,00
1070,59	1180,00
1076,47	1127,00
1082,33	1040,00
1088,20	1003,00
1094,05	930,00
1099,90	868,00
1105,74	977,00
1111,58	996,00
1117,41	1004,00
1123,23	1195,00
1129,05	1240,00
1134,86	1266,00
1140,67	934,00
1146,47	1059,00
1152,26	925,00
1158,05	795,00
1163,83	886,00
1169,60	920,00
1175,37	839,00
1181,13	860,00
1186,89	899,00
1192,64	941,00
1198,38	937,00
1204,12	839,00
1209,85	801,00
1215,58	943,00
1221,30	749,00
1227,02	882,00
1232,72	926,00
1238,43	822,00
1244,12	874,00
1249,81	912,00
1255,50	877,00
1261,17	926,00
1266,85	970,00
1272,51	1033,00
1278,17	978,00
1283,83	925,00
1289,47	1235,00
1295,12	1448,00
1300,75	1329,00
1306,38	1181,00
1312,01	1167,00
1317,63	1024,00
1323,24	914,00
1328,85	1017,00
1334,45	951,00
1340,04	858,00
1345,63	1022,00
1351,22	969,00
1356,80	1126,00
1362,37	857,00
1367,93	941,00
1373,49	1061,00
1379,05	956,00
1384,60	1020,00
1390,14	991,00
1395,68	880,00
1401,21	900,00
1406,74	953,00
1412,26	1038,00
1417,77	1089,00
1423,28	1074,00
1428,78	1172,00
1434,28	1388,00
1439,77	1498,00
1445,26	1535,00
1450,74	1391,00
1456,22	1323,00
1461,68	1386,00
1467,15	1378,00
1472,61	1187,00
1478,06	1079,00
1483,51	1163,00
1488,95	962,00
1494,38	945,00
1499,81	968,00
1505,24	772,00
1510,65	781,00
1516,07	938,00
1521,48	896,00
1526,88	849,00
1532,27	774,00
1537,67	948,00
1543,05	838,00
1548,43	769,00
1553,81	842,00
1559,18	840,00
1564,54	823,00
1569,90	748,00
1575,25	763,00
1580,60	720,00
1585,94	699,00
1591,28	677,00
1596,61	804,00
1601,93	776,00
1607,25	791,00
1612,57	906,00
1617,88	859,00
1623,18	883,00
1628,48	676,00
1633,77	652,00
1639,06	626,00
1644,34	694,00
1649,62	813,00
1654,89	792,00
1660,16	697,00
1665,42	725,00
1670,67	606,00
1675,92	742,00
1681,17	659,00
1686,41	608,00
1691,64	612,00
1696,87	727,00
1702,10	522,00
1707,32	795,00
1712,53	725,00
1717,74	682,00
1722,94	474,00
1728,14	618,00
1733,33	656,00
1738,52	652,00
1743,70	672,00
1748,88	572,00
1754,05	661,00
1759,22	691,00
1764,38	539,00
1769,53	602,00
1774,69	610,00
1779,83	642,00
1784,97	572,00
1790,11	515,00
1795,24	747,00
1800,36	601,00
1805,48	563,00
1810,60	573,00
1815,71	583,00
1820,82	622,00
1825,92	519,00
1831,01	623,00
1836,10	397,00
1841,19	535,00
1846,26	599,00
1851,34	485,00
1856,41	568,00
1861,47	565,00
1866,53	609,00
1871,59	524,00
1876,64	417,00
1881,68	379,00
1886,72	538,00
1891,76	547,00
1896,79	482,00
1901,81	606,00
1906,83	520,00
1911,85	450,00
1916,86	512,00
1921,86	426,00
1926,86	482,00
1931,86	527,00
1936,85	429,00
1941,83	564,00
1946,81	437,00
1951,79	509,00
1956,76	458,00
1961,72	415,00
1966,68	465,00
1971,64	478,00
1976,59	495,00
1981,54	440,00
1986,48	373,00
1991,42	400,00
1996,35	439,00
2001,27	332,00
2006,20	346,00
2011,11	487,00
2016,03	437,00
2020,93	355,00
2025,84	461,00
2030,73	388,00
2035,63	448,00
2040,52	535,00
2045,40	486,00
2050,28	407,00
2055,15	373,00
2060,02	403,00
2064,89	364,00
2069,75	466,00
2074,60	263,00
2079,46	297,00
2084,30	367,00
2089,14	515,00
2093,98	368,00
2098,81	404,00
2103,64	442,00
2108,46	313,00
2113,28	433,00
2118,09	344,00
2122,90	403,00
2127,70	368,00
2132,50	393,00
2137,30	288,00
2142,09	410,00
2146,87	291,00
2151,66	412,00
2156,43	294,00
2161,20	254,00
2165,97	339,00
2170,73	380,00
2175,49	472,00
2180,24	316,00
2184,99	554,00
2189,74	408,00
2194,48	345,00
2199,21	436,00
2203,94	348,00
2208,67	276,00
2213,39	442,00
2218,11	257,00
2222,82	326,00
2227,53	393,00
2232,23	251,00
2236,93	297,00
2241,63	292,00
2246,32	334,00
2251,00	352,00
2255,68	272,00
2260,36	208,00
2265,03	300,00
2269,70	299,00
2274,36	305,00
2279,02	307,00
2283,68	314,00
2288,33	258,00
2292,97	283,00
2297,61	221,00
2302,25	367,00
2306,88	448,00
2311,51	325,00
2316,14	377,00
2320,75	240,00
2325,37	285,00
2329,98	389,00
2334,59	314,00
2339,19	265,00
2343,79	175,00
2348,38	291,00
2352,97	312,00
2357,55	218,00
2362,13	277,00
2366,71	377,00
2371,28	268,00
2375,85	241,00
2380,41	176,00
2384,97	207,00
2389,52	123,00
2394,07	219,00
2398,62	214,00
2403,16	290,00
2407,70	279,00
2412,23	316,00
2416,76	300,00
2421,29	324,00
2425,81	303,00
2430,32	277,00
2434,84	181,00
2439,34	324,00
2443,85	206,00
2448,35	218,00
2452,84	123,00
2457,33	216,00
2461,82	358,00
2466,30	238,00
2470,78	251,00
2475,25	361,00
2479,72	228,00
2484,19	313,00
2488,65	314,00
2493,11	203,00
2497,56	244,00
2502,01	209,00
2506,46	244,00
2510,90	148,00
2515,34	333,00
2519,77	177,00
2524,20	184,00
2528,62	119,00
2533,04	276,00
2537,46	135,00
2541,87	291,00
2546,28	219,00
2550,68	237,00
2555,08	188,00
2559,48	173,00
2563,87	122,00
2568,26	98,00
2572,64	220,00
2577,02	278,00
2581,40	170,00
2585,77	149,00
2590,14	144,00
2594,50	94,00
2598,86	200,00
2603,22	162,00
2607,57	176,00
2611,92	175,00
2616,26	197,00
2620,60	342,00
2624,94	137,00
2629,27	276,00
2633,60	209,00
2637,92	232,00
2642,24	277,00
2646,56	154,00
2650,87	105,00
2655,18	197,00
2659,48	218,00
2663,78	358,00
2668,08	310,00
2672,37	304,00
2676,66	231,00
2680,95	228,00
2685,23	146,00
2689,50	251,00
2693,78	154,00
2698,05	222,00
2702,31	256,00
2706,57	240,00
2710,83	250,00
2715,08	245,00
2719,33	365,00
2723,58	253,00
2727,82	311,00
2732,06	235,00
2736,29	275,00
2740,53	275,00
2744,75	262,00
2748,97	304,00
2753,19	244,00
2757,41	323,00
2761,62	292,00
2765,83	224,00
2770,03	273,00
2774,23	122,00
2778,43	330,00
2782,62	216,00
2786,81	261,00
2791,00	150,00
2795,18	342,00
2799,35	142,00
2803,53	310,00
2807,70	369,00
2811,86	260,00
2816,03	393,00
2820,19	341,00
2824,34	173,00
2828,49	570,00
2832,64	531,00
2836,78	523,00
2840,92	698,00
2845,06	822,00
2849,19	876,00
2853,32	803,00
2857,45	842,00
2861,57	936,00
2865,69	1010,00
2869,80	862,00
2873,91	948,00
2878,02	941,00
2882,12	957,00
2886,22	934,00
2890,32	950,00
2894,41	900,00
2898,50	795,00
2902,58	742,00
2906,67	732,00
2910,74	645,00
2914,82	552,00
2918,89	549,00
2922,96	647,00
2927,02	551,00
2931,08	656,00
2935,13	512,00
2939,19	487,00
2943,24	382,00
2947,28	363,00
2951,32	279,00
2955,36	329,00
2959,40	355,00
2963,43	212,00
2967,46	210,00
2971,48	353,00
2975,50	243,00
2979,52	232,00
2983,53	301,00
2987,54	272,00
2991,55	223,00
2995,55	231,00
2999,55	174,00
3003,54	153,00
3007,54	108,00
3011,53	143,00
3015,51	172,00
3019,49	48,00
3023,47	209,00
3027,45	128,00
3031,42	81,00
3035,39	171,00
3039,35	197,00
3043,31	35,00
3047,27	130,00
3051,22	161,00
3055,17	165,00
3059,12	44,00
3063,06	154,00
3067,00	127,00
3070,94	85,00
3074,87	137,00
3078,80	259,00
3082,73	171,00
3086,65	67,00
3090,57	39,00
3094,49	173,00
3098,40	116,00
3102,31	183,00
3106,22	38,00
3110,12	138,00
3114,02	179,00
3117,92	159,00
3121,81	121,00
3125,70	176,00
3129,58	19,00
3133,47	95,00
3137,34	94,00
3141,22	53,00
3145,09	105,00
3148,96	201,00
3152,83	58,00
3156,69	50,00
3160,55	149,00
3164,40	-81,00
3168,26	108,00
3172,10	131,00
3175,95	136,00
3179,79	69,00
3183,63	65,00
3187,47	138,00
3191,30	199,00
3195,13	109,00
3198,95	42,00
3202,78	133,00
3206,60	110,00
3210,41	141,00
3214,23	110,00
3218,03	38,00
3221,84	136,00
3225,64	3,00
3229,44	181,00
3233,24	205,00
3237,03	82,00
3240,82	87,00
3244,61	33,00
3248,39	155,00
3252,17	81,00
3255,95	138,00
3259,72	44,00
3263,49	129,00
3267,26	-32,00
3271,03	53,00
3274,79	68,00
3278,54	223,00
3282,30	87,00
3286,05	123,00
3289,80	30,00
3293,54	42,00
3297,29	139,00
3301,02	47,00
3304,76	132,00
3308,49	44,00
3312,22	27,00
3315,95	80,00
3319,67	40,00
3323,39	160,00
3327,10	108,00
3330,82	120,00
3334,53	51,00
3338,24	88,00
3341,94	82,00
3345,64	199,00
3349,34	-26,00
3353,03	55,00
3356,72	103,00
3360,41	-79,00
3364,10	160,00
3367,78	93,00
3371,46	115,00
3375,13	-7,00
3378,81	118,00
3382,48	27,00
3386,14	174,00
3389,81	-11,00
3393,47	86,00
3397,12	132,00
3400,78	229,00
3404,43	45,00
3408,08	23,00
3411,72	128,00
3415,36	16,00
3419,00	-55,00
3422,64	-48,00
3426,27	157,00
3429,90	28,00
3433,53	69,00
3437,15	84,00
3440,77	79,00
3444,39	48,00
3448,00	30,00
3451,62	194,00
3455,22	96,00
3458,83	21,00
3462,43	153,00
3466,03	39,00
3469,63	-53,00
3473,22	85,00
3476,81	41,00
3480,40	107,00
3483,99	94,00
3487,57	105,00
3491,15	-8,00
3494,72	154,00
3498,29	55,00
3501,86	42,00
3505,43	92,00
3508,99	116,00
3512,56	-3,00
3516,11	-1,00
3519,67	166,00
3523,22	43,00
3526,77	73,00
3530,32	202,00
3533,86	6,00
3537,40	40,00
3540,94	138,00
3544,47	-95,00
3548,00	169,00
3551,53	74,00
3555,06	102,00
3558,58	100,00
3562,10	28,00
3565,62	115,00
3569,13	18,00
3572,64	116,00
3576,15	9,00
3579,66	104,00
3583,16	80,00
3586,66	75,00
3590,16	66,00
3593,65	60,00
3597,14	-16,00
3600,63	112,00
3604,11	-41,00
3607,60	79,00
3611,08	28,00
3614,55	79,00
3618,03	26,00
3621,50	-15,00
3624,97	151,00
3628,43	150,00
3631,90	-12,00
3635,36	67,00
3638,81	24,00
3642,27	-28,00
3645,72	118,00
3649,17	20,00
3652,61	31,00
3656,06	5,00
3659,50	114,00
3662,93	16,00
3666,37	-18,00
3669,80	46,00
3673,23	115,00
3676,65	45,00
3680,08	47,00
3683,50	81,00
3686,92	-12,00
3690,33	161,00
3693,74	120,00
3697,15	134,00
3700,56	125,00
3703,96	-33,00
3707,36	-16,00
3710,76	-54,00
3714,16	42,00
3717,55	-71,00
3720,94	57,00
3724,33	74,00
3727,71	33,00
3731,10	82,00
3734,48	62,00
3737,85	-114,00
3741,23	-3,00
3744,60	-25,00
3747,97	-74,00
3751,33	126,00
3754,69	69,00
3758,05	127,00
3761,41	-70,00
3764,77	73,00
3768,12	74,00
3771,47	41,00
3774,82	2,00
3778,16	-2,00
3781,50	-1,00
3784,84	5,00
3788,18	7,00
>>>>>End Processed Spectral Data<<<<<
