SpectraSuite Data File
++++++++++++++++++++++++++++++++++++
Date: Mon Mar 09 16:18:27 ICT 2026
User: Administrator
Dark Spectrum Present: Yes
Reference Spectrum Present: No
Number of Sampled Component Spectra: 1
Spectrometers: MAYP113682
Integration Time (usec): 3000000 (MAYP113682)
Spectra Averaged: 1 (MAYP113682)
Boxcar Smoothing: 0 (MAYP113682)
Correct for Electrical Dark: No (MAYP113682)
Strobe/Lamp Enabled: No (MAYP113682)
Correct for Detector Non-linearity: No (MAYP113682)
Correct for Stray Light: No (MAYP113682)
Number of Pixels in Processed Spectrum: 2068
>>>>>Begin Processed Spectral Data<<<<<
-37534,58	-3,00
-37414,56	4,00
-37295,11	-1,00
-37176,24	-4,00
-37057,95	-95,00
-36940,22	56,00
-36823,05	101,00
-36706,45	56,00
-36590,40	98,00
-36474,90	94,00
-36359,95	84,00
-36245,55	16,00
-36131,68	62,00
-36018,35	89,00
-35905,55	4,00
-35793,29	-112,00
-35681,54	-40,00
-35570,32	45,00
-35459,62	46,00
-35349,43	25,00
-35239,75	48,00
-35130,58	96,00
-35021,91	-44,00
-34913,74	-6,00
-34806,07	91,00
-34698,89	-7,00
-34592,20	2,00
-34486,00	60,00
-34380,28	100,00
-34275,04	97,00
-34170,27	-75,00
-34065,98	95,00
-33962,16	-38,00
-33858,81	105,00
-33755,92	143,00
-33653,49	86,00
-33551,52	13,00
-33450,01	103,00
-33348,94	47,00
-33248,33	4,00
-33148,16	-69,00
-33048,43	137,00
-32949,14	-23,00
-32850,29	119,00
-32751,87	98,00
-32653,89	71,00
-32556,33	-52,00
-32459,20	98,00
-32362,49	45,00
-32266,19	136,00
-32170,32	-15,00
-32074,86	24,00
-31979,82	-55,00
-31885,18	63,00
-31790,95	149,00
-31697,12	-91,00
-31603,69	158,00
-31510,67	83,00
-31418,04	92,00
-31325,80	67,00
-31233,95	141,00
-31142,49	102,00
-31051,42	96,00
-30960,73	112,00
-30870,43	12,00
-30780,50	84,00
-30690,95	-48,00
-30601,77	60,00
-30512,97	114,00
-30424,53	113,00
-30336,46	28,00
-30248,76	107,00
-30161,42	59,00
-30074,44	31,00
-29987,81	111,00
-29901,55	34,00
-29815,63	132,00
-29730,07	26,00
-29644,86	26,00
-29560,00	-57,00
-29475,48	108,00
-29391,30	46,00
-29307,47	103,00
-29223,97	62,00
-29140,81	57,00
-29057,99	58,00
-28975,50	24,00
-28893,34	102,00
-28811,51	-54,00
-28730,00	114,00
-28648,82	-49,00
-28567,97	-5,00
-28487,43	22,00
-28407,21	-6,00
-28327,32	96,00
-28247,73	56,00
-28168,46	9,00
-28089,50	14,00
-28010,85	2,00
-27932,51	64,00
-27854,48	53,00
-27776,75	-3,00
-27699,32	135,00
-27622,19	134,00
-27545,37	18,00
-27468,84	43,00
-27392,60	10,00
-27316,66	98,00
-27241,01	63,00
-27165,66	-29,00
-27090,59	90,00
-27015,81	-5,00
-26941,31	58,00
-26867,10	-23,00
-26793,17	-68,00
-26719,52	-7,00
-26646,15	59,00
-26573,06	56,00
-26500,24	-9,00
-26427,70	124,00
-26355,43	0,00
-26283,43	0,00
-26211,71	13,00
-26140,25	33,00
-26069,06	41,00
-25998,13	3,00
-25927,46	54,00
-25857,06	81,00
-25786,92	52,00
-25717,04	85,00
-25647,42	138,00
-25578,05	22,00
-25508,94	58,00
-25440,09	-5,00
-25371,48	34,00
-25303,13	33,00
-25235,02	0,00
-25167,17	65,00
-25099,56	-33,00
-25032,19	149,00
-24965,07	26,00
-24898,20	153,00
-24831,56	33,00
-24765,17	213,00
-24699,01	184,00
-24633,10	8,00
-24567,41	122,00
-24501,97	50,00
-24436,75	35,00
-24371,77	117,00
-24307,03	15,00
-24242,51	80,00
-24178,22	-1,00
-24114,16	39,00
-24050,32	82,00
-23986,71	177,00
-23923,32	129,00
-23860,16	-37,00
-23797,22	74,00
-23734,50	102,00
-23672,00	-119,00
-23609,71	157,00
-23547,65	-8,00
-23485,80	-50,00
-23424,16	23,00
-23362,74	114,00
-23301,53	-55,00
-23240,54	-38,00
-23179,75	-11,00
-23119,17	-62,00
-23058,80	58,00
-22998,64	-3,00
-22938,68	42,00
-22878,93	45,00
-22819,39	156,00
-22760,04	53,00
-22700,90	-36,00
-22641,96	-7,00
-22583,22	134,00
-22524,68	55,00
-22466,33	146,00
-22408,19	-7,00
-22350,23	-14,00
-22292,48	90,00
-22234,92	83,00
-22177,55	35,00
-22120,37	70,00
-22063,38	93,00
-22006,58	58,00
-21949,98	36,00
-21893,56	-26,00
-21837,33	-73,00
-21781,28	59,00
-21725,42	41,00
-21669,74	69,00
-21614,25	89,00
-21558,94	82,00
-21503,81	5,00
-21448,86	-53,00
-21394,10	118,00
-21339,51	-44,00
-21285,10	-23,00
-21230,86	112,00
-21176,81	74,00
-21122,93	-15,00
-21069,22	-15,00
-21015,69	59,00
-20962,33	57,00
-20909,14	101,00
-20856,13	66,00
-20803,28	69,00
-20750,61	-6,00
-20698,10	-92,00
-20645,76	115,00
-20593,59	59,00
-20541,59	100,00
-20489,75	-19,00
-20438,07	59,00
-20386,56	-39,00
-20335,22	153,00
-20284,03	21,00
-20233,01	63,00
-20182,15	-31,00
-20131,45	-32,00
-20080,91	109,00
-20030,52	-13,00
-19980,30	34,00
-19930,23	85,00
-19880,32	74,00
-19830,56	2,00
-19780,96	32,00
-19731,52	125,00
-19682,23	52,00
-19633,09	66,00
-19584,10	30,00
-19535,26	77,00
-19486,58	167,00
-19438,04	105,00
-19389,66	-63,00
-19341,42	-47,00
-19293,33	4,00
-19245,39	58,00
-19197,60	107,00
-19149,95	30,00
-19102,45	92,00
-19055,09	22,00
-19007,87	105,00
-18960,80	90,00
-18913,87	97,00
-18867,09	-49,00
-18820,44	-79,00
-18773,94	35,00
-18727,57	9,00
-18681,35	18,00
-18635,26	78,00
-18589,31	53,00
-18543,50	42,00
-18497,83	-20,00
-18452,29	23,00
-18406,89	-69,00
-18361,63	143,00
-18316,50	86,00
-18271,50	157,00
-18226,63	39,00
-18181,90	-64,00
-18137,30	184,00
-18092,84	-21,00
-18048,50	117,00
-18004,29	57,00
-17960,22	75,00
-17916,27	69,00
-17872,45	-6,00
-17828,76	21,00
-17785,20	59,00
-17741,77	79,00
-17698,46	91,00
-17655,28	29,00
-17612,22	39,00
-17569,29	133,00
-17526,48	82,00
-17483,79	18,00
-17441,23	-73,00
-17398,79	19,00
-17356,48	98,00
-17314,28	138,00
-17272,21	57,00
-17230,26	112,00
-17188,42	32,00
-17146,71	26,00
-17105,12	13,00
-17063,64	76,00
-17022,28	124,00
-16981,04	60,00
-16939,92	54,00
-16898,91	78,00
-16858,02	59,00
-16817,25	41,00
-16776,59	-33,00
-16736,04	-90,00
-16695,61	3,00
-16655,29	3,00
-16615,09	181,00
-16574,99	61,00
-16535,01	99,00
-16495,15	49,00
-16455,39	52,00
-16415,74	22,00
-16376,21	-9,00
-16336,78	6,00
-16297,46	-23,00
-16258,26	-2,00
-16219,16	18,00
-16180,17	78,00
-16141,28	129,00
-16102,51	32,00
-16063,84	-34,00
-16025,27	24,00
-15986,82	65,00
-15948,46	-66,00
-15910,22	64,00
-15872,07	107,00
-15834,04	92,00
-15796,10	45,00
-15758,27	160,00
-15720,54	46,00
-15682,91	16,00
-15645,39	64,00
-15607,97	-4,00
-15570,64	3,00
-15533,42	17,00
-15496,30	209,00
-15459,28	143,00
-15422,36	122,00
-15385,54	-24,00
-15348,82	-30,00
-15312,19	-45,00
-15275,66	56,00
-15239,23	198,00
-15202,90	46,00
-15166,67	2,00
-15130,53	106,00
-15094,48	37,00
-15058,54	80,00
-15022,68	29,00
-14986,93	7,00
-14951,26	11,00
-14915,69	51,00
-14880,22	118,00
-14844,84	-34,00
-14809,55	151,00
-14774,35	114,00
-14739,25	43,00
-14704,24	29,00
-14669,32	-46,00
-14634,49	141,00
-14599,75	47,00
-14565,10	-52,00
-14530,55	-27,00
-14496,08	-2,00
-14461,70	26,00
-14427,41	94,00
-14393,21	28,00
-14359,10	9,00
-14325,07	-14,00
-14291,14	63,00
-14257,29	50,00
-14223,52	142,00
-14189,85	129,00
-14156,26	72,00
-14122,76	25,00
-14089,34	80,00
-14056,01	120,00
-14022,76	117,00
-13989,60	-66,00
-13956,52	84,00
-13923,53	-58,00
-13890,62	58,00
-13857,79	-5,00
-13825,05	136,00
-13792,39	96,00
-13759,81	58,00
-13727,31	71,00
-13694,90	75,00
-13662,57	87,00
-13630,31	10,00
-13598,14	-20,00
-13566,05	-9,00
-13534,05	159,00
-13502,12	-64,00
-13470,27	73,00
-13438,50	74,00
-13406,80	-51,00
-13375,19	-11,00
-13343,66	5,00
-13312,20	96,00
-13280,83	3,00
-13249,53	-8,00
-13218,30	61,00
-13187,16	-2,00
-13156,09	125,00
-13125,10	85,00
-13094,18	114,00
-13063,34	168,00
-13032,58	-58,00
-13001,89	35,00
-12971,28	-44,00
-12940,74	136,00
-12910,27	-103,00
-12879,88	14,00
-12849,57	76,00
-12819,33	0,00
-12789,16	-9,00
-12759,06	45,00
-12729,04	93,00
-12699,09	223,00
-12669,21	9,00
-12639,41	11,00
-12609,68	75,00
-12580,02	24,00
-12550,43	3,00
-12520,91	34,00
-12491,46	85,00
-12462,08	58,00
-12432,77	-39,00
-12403,54	-82,00
-12374,37	103,00
-12345,27	-5,00
-12316,24	92,00
-12287,29	141,00
-12258,40	49,00
-12229,57	109,00
-12200,82	39,00
-12172,14	-73,00
-12143,52	67,00
-12114,97	48,00
-12086,49	67,00
-12058,07	19,00
-12029,73	45,00
-12001,44	21,00
-11973,23	75,00
-11945,08	-8,00
-11917,00	138,00
-11888,98	57,00
-11861,03	76,00
-11833,15	11,00
-11805,32	22,00
-11777,57	27,00
-11749,88	29,00
-11722,25	23,00
-11694,69	166,00
-11667,19	54,00
-11639,75	32,00
-11612,38	-82,00
-11585,07	15,00
-11557,83	-13,00
-11530,65	28,00
-11503,53	-40,00
-11476,47	122,00
-11449,48	128,00
-11422,54	-20,00
-11395,67	47,00
-11368,86	48,00
-11342,11	59,00
-11315,43	15,00
-11288,80	51,00
-11262,23	13,00
-11235,73	25,00
-11209,28	-82,00
-11182,90	125,00
-11156,57	31,00
-11130,31	100,00
-11104,10	-138,00
-11077,96	-7,00
-11051,87	209,00
-11025,84	30,00
-10999,87	73,00
-10973,96	69,00
-10948,11	-1,00
-10922,31	62,00
-10896,58	71,00
-10870,90	26,00
-10845,28	12,00
-10819,71	84,00
-10794,20	-25,00
-10768,75	94,00
-10743,36	4,00
-10718,02	14,00
-10692,74	92,00
-10667,52	87,00
-10642,35	81,00
-10617,24	-23,00
-10592,18	57,00
-10567,18	56,00
-10542,23	51,00
-10517,34	87,00
-10492,51	67,00
-10467,72	62,00
-10443,00	61,00
-10418,32	64,00
-10393,70	-38,00
-10369,14	137,00
-10344,63	23,00
-10320,17	198,00
-10295,77	102,00
-10271,42	91,00
-10247,12	-13,00
-10222,88	42,00
-10198,68	51,00
-10174,54	-26,00
-10150,46	-32,00
-10126,42	204,00
-10102,44	7,00
-10078,51	50,00
-10054,63	3,00
-10030,80	3,00
-10007,03	89,00
-9983,30	-4,00
-9959,63	51,00
-9936,01	151,00
-9912,44	65,00
-9888,92	34,00
-9865,44	90,00
-9842,02	-52,00
-9818,65	108,00
-9795,33	96,00
-9772,06	-17,00
-9748,84	-19,00
-9725,67	71,00
-9702,55	-83,00
-9679,47	71,00
-9656,45	42,00
-9633,47	47,00
-9610,55	119,00
-9587,67	-76,00
-9564,84	32,00
-9542,06	-65,00
-9519,32	-56,00
-9496,64	-10,00
-9474,00	-129,00
-9451,41	6,00
-9428,87	-171,00
-9406,37	-67,00
-9383,92	-103,00
-9361,52	-114,00
-9339,17	-254,00
-9316,86	-167,00
-9294,60	-35,00
-9272,38	-168,00
-9250,21	-117,00
-9228,09	72,00
-9206,01	-218,00
-9183,98	-130,00
-9162,00	-126,00
-9140,06	-395,00
-9118,16	-179,00
-9096,31	-152,00
-9074,51	-91,00
-9052,75	-159,00
-9031,04	-103,00
-9009,37	-65,00
-8987,74	-181,00
-8966,16	-127,00
-8944,63	-344,00
-8923,14	-176,00
-8901,69	-144,00
-8880,29	-115,00
-8858,93	17,00
-8837,61	84,00
-8816,34	222,00
-8795,11	90,00
-8773,92	87,00
-8752,78	-80,00
-8731,68	60,00
-8710,62	-119,00
-8689,61	50,00
-8668,63	122,00
-8647,70	78,00
-8626,82	108,00
-8605,97	130,00
-8585,17	-13,00
-8564,41	-109,00
-8543,69	-36,00
-8523,01	-96,00
-8502,37	-65,00
-8481,78	60,00
-8461,23	46,00
-8440,71	54,00
-8420,24	74,00
-8399,81	146,00
-8379,42	108,00
-8359,08	-1,00
-8338,77	-7,00
-8318,50	41,00
-8298,27	34,00
-8278,09	38,00
-8257,94	137,00
-8237,83	145,00
-8217,76	241,00
-8197,74	139,00
-8177,75	86,00
-8157,80	161,00
-8137,89	125,00
-8118,02	155,00
-8098,19	46,00
-8078,40	117,00
-8058,65	105,00
-8038,93	267,00
-8019,26	197,00
-7999,62	131,00
-7980,02	125,00
-7960,46	171,00
-7940,94	142,00
-7921,46	27,00
-7902,01	99,00
-7882,60	174,00
-7863,23	170,00
-7843,90	74,00
-7824,61	78,00
-7805,35	221,00
-7786,13	228,00
-7766,95	192,00
-7747,80	164,00
-7728,69	225,00
-7709,62	141,00
-7690,59	260,00
-7671,59	181,00
-7652,63	231,00
-7633,70	160,00
-7614,81	182,00
-7595,96	295,00
-7577,15	90,00
-7558,37	107,00
-7539,62	166,00
-7520,91	154,00
-7502,24	76,00
-7483,60	247,00
-7465,00	166,00
-7446,44	77,00
-7427,91	13,00
-7409,41	59,00
-7390,95	41,00
-7372,53	35,00
-7354,14	-35,00
-7335,78	-230,00
-7317,46	207,00
-7299,18	130,00
-7280,92	112,00
-7262,71	179,00
-7244,52	226,00
-7226,38	159,00
-7208,26	191,00
-7190,18	87,00
-7172,14	172,00
-7154,12	-48,00
-7136,15	86,00
-7118,20	185,00
-7100,29	109,00
-7082,41	139,00
-7064,57	175,00
-7046,76	5,00
-7028,98	-154,00
-7011,24	-77,00
-6993,53	-137,00
-6975,85	-6,00
-6958,20	-65,00
-6940,59	-100,00
-6923,01	-23,00
-6905,46	-157,00
-6887,94	62,00
-6870,46	-438,00
-6853,01	67,00
-6835,59	122,00
-6818,21	62,00
-6800,85	-24,00
-6783,53	43,00
-6766,24	-213,00
-6748,98	-116,00
-6731,76	-212,00
-6714,56	-215,00
-6697,40	-23,00
-6680,26	-150,00
-6663,16	49,00
-6646,09	-44,00
-6629,05	-11,00
-6612,05	52,00
-6595,07	10,00
-6578,13	-60,00
-6561,21	-98,00
-6544,33	-53,00
-6527,47	-178,00
-6510,65	-265,00
-6493,86	-217,00
-6477,10	-141,00
-6460,36	-141,00
-6443,66	-99,00
-6426,99	-26,00
-6410,35	-80,00
-6393,74	50,00
-6377,16	-11,00
-6360,61	-94,00
-6344,09	-157,00
-6327,59	-176,00
-6311,13	-75,00
-6294,70	-22,00
-6278,29	65,00
-6261,92	87,00
-6245,58	113,00
-6229,26	76,00
-6212,97	-14,00
-6196,72	-72,00
-6180,49	-106,00
-6164,29	-36,00
-6148,12	-99,00
-6131,98	-63,00
-6115,86	-104,00
-6099,78	-125,00
-6083,72	-155,00
-6067,69	-194,00
-6051,69	-108,00
-6035,72	-14,00
-6019,78	-60,00
-6003,87	-66,00
-5987,98	13,00
-5972,12	-33,00
-5956,29	50,00
-5940,49	57,00
-5924,71	-53,00
-5908,96	-127,00
-5893,24	-20,00
-5877,55	-52,00
-5861,89	-99,00
-5846,25	-249,00
-5830,64	-30,00
-5815,05	-152,00
-5799,50	-70,00
-5783,97	-27,00
-5768,47	-3,00
-5752,99	-45,00
-5737,55	-80,00
-5722,12	-53,00
-5706,73	92,00
-5691,36	16,00
-5676,02	22,00
-5660,71	-62,00
-5645,42	-39,00
-5630,16	-105,00
-5614,92	-34,00
-5599,71	-207,00
-5584,53	-116,00
-5569,37	-37,00
-5554,24	991,00
-5539,14	-44,00
-5524,06	-71,00
-5509,01	42,00
-5493,98	-151,00
-5478,98	-112,00
-5464,00	-44,00
-5449,05	-160,00
-5434,13	-99,00
-5419,23	-118,00
-5404,36	-36,00
-5389,51	-15,00
-5374,69	32,00
-5359,89	-47,00
-5345,12	2,00
-5330,37	67,00
-5315,65	77,00
-5300,95	83,00
-5286,28	63,00
-5271,63	-51,00
-5257,01	-209,00
-5242,41	15,00
-5227,84	-213,00
-5213,29	-199,00
-5198,76	-57,00
-5184,26	1,00
-5169,79	10,00
-5155,33	-4,00
-5140,91	-131,00
-5126,51	-74,00
-5112,13	-13,00
-5097,77	92,00
-5083,44	-120,00
-5069,13	-88,00
-5054,85	5,00
-5040,59	33,00
-5026,36	-47,00
-5012,15	46,00
-4997,96	-22,00
-4983,80	-138,00
-4969,66	-74,00
-4955,54	-2,00
-4941,44	69,00
-4927,37	63,00
-4913,33	72,00
-4899,30	59,00
-4885,30	42,00
-4871,33	114,00
-4857,37	75,00
-4843,44	86,00
-4829,53	-73,00
-4815,65	12,00
-4801,79	-70,00
-4787,95	-182,00
-4774,13	-41,00
-4760,34	22,00
-4746,56	-76,00
-4732,82	-35,00
-4719,09	5,00
-4705,38	-61,00
-4691,70	150,00
-4678,04	-44,00
-4664,41	95,00
-4650,79	55,00
-4637,20	0,00
-4623,63	28,00
-4610,08	-44,00
-4596,56	-41,00
-4583,05	90,00
-4569,57	-44,00
-4556,11	24,00
-4542,67	-59,00
-4529,25	42,00
-4515,86	-12,00
-4502,49	151,00
-4489,13	-2,00
-4475,80	22,00
-4462,49	49,00
-4449,21	51,00
-4435,94	138,00
-4422,70	8,00
-4409,47	50,00
-4396,27	-52,00
-4383,09	72,00
-4369,93	-31,00
-4356,79	15,00
-4343,67	-8,00
-4330,58	-44,00
-4317,50	-7,00
-4304,45	-43,00
-4291,41	-33,00
-4278,40	-23,00
-4265,41	29,00
-4252,44	54,00
-4239,49	-22,00
-4226,55	106,00
-4213,65	55,00
-4200,76	4,00
-4187,89	97,00
-4175,04	58,00
-4162,21	150,00
-4149,40	42,00
-4136,61	106,00
-4123,85	14,00
-4111,10	29,00
-4098,37	-21,00
-4085,66	111,00
-4072,98	125,00
-4060,31	36,00
-4047,66	133,00
-4035,04	-59,00
-4022,43	52,00
-4009,84	7,00
-3997,27	-11,00
-3984,72	-3,00
-3972,19	-7,00
-3959,69	-15,00
-3947,20	27,00
-3934,73	-39,00
-3922,27	72,00
-3909,84	70,00
-3897,43	146,00
-3885,04	22,00
-3872,67	-39,00
-3860,31	-122,00
-3847,98	22,00
-3835,66	-104,00
-3823,36	3,00
-3811,09	75,00
-3798,83	-37,00
-3786,59	19,00
-3774,37	249,00
-3762,17	57,00
-3749,98	59,00
-3737,82	68,00
-3725,67	10,00
-3713,55	57,00
-3701,44	31,00
-3689,35	-11,00
-3677,28	-22,00
-3665,22	57,00
-3653,19	-54,00
-3641,17	48,00
-3629,18	32,00
-3617,20	37,00
-3605,24	213,00
-3593,30	-95,00
-3581,37	97,00
-3569,47	-3,00
-3557,58	86,00
-3545,71	150,00
-3533,86	129,00
-3522,02	-64,00
-3510,21	78,00
-3498,41	26,00
-3486,63	26,00
-3474,87	71,00
-3463,12	189,00
-3451,40	52,00
-3439,69	193,00
-3428,00	183,00
-3416,33	29,00
-3404,67	65,00
-3393,03	92,00
-3381,41	73,00
-3369,81	-40,00
-3358,22	192,00
-3346,66	61,00
-3335,10	68,00
-3323,57	106,00
-3312,06	42,00
-3300,56	0,00
-3289,08	53,00
-3277,61	32,00
-3266,16	134,00
-3254,73	152,00
-3243,32	62,00
-3231,92	33,00
-3220,55	-40,00
-3209,18	79,00
-3197,84	23,00
-3186,51	33,00
-3175,20	88,00
-3163,90	-49,00
-3152,63	41,00
-3141,36	6,00
-3130,12	106,00
-3118,89	64,00
-3107,68	157,00
-3096,49	18,00
-3085,31	25,00
-3074,15	21,00
-3063,00	25,00
-3051,87	83,00
-3040,76	-9,00
-3029,67	105,00
-3018,59	-71,00
-3007,52	35,00
-2996,48	40,00
-2985,44	-30,00
-2974,43	63,00
-2963,43	98,00
-2952,45	-5,00
-2941,48	89,00
-2930,53	4,00
-2919,60	84,00
-2908,68	96,00
-2897,78	53,00
-2886,89	190,00
-2876,02	96,00
-2865,17	62,00
-2854,33	132,00
-2843,50	84,00
-2832,70	198,00
-2821,90	47,00
-2811,13	98,00
-2800,37	117,00
-2789,62	74,00
-2778,89	194,00
-2768,18	110,00
-2757,48	-39,00
-2746,80	-30,00
-2736,13	69,00
-2725,48	66,00
-2714,84	-29,00
-2704,22	93,00
-2693,61	-83,00
-2683,02	5,00
-2672,45	70,00
-2661,89	6,00
-2651,34	-46,00
-2640,81	27,00
-2630,30	112,00
-2619,80	84,00
-2609,31	64,00
-2598,84	-85,00
-2588,39	57,00
-2577,95	-33,00
-2567,52	-34,00
-2557,11	18,00
-2546,71	45,00
-2536,33	149,00
-2525,97	68,00
-2515,62	-20,00
-2505,28	79,00
-2494,96	-12,00
-2484,65	15,00
-2474,36	475,00
-2464,08	87,00
-2453,82	95,00
-2443,57	98,00
-2433,33	-35,00
-2423,11	142,00
-2412,91	-56,00
-2402,72	76,00
-2392,54	166,00
-2382,38	74,00
-2372,23	81,00
-2362,09	324,00
-2351,97	60,00
-2341,87	21,00
-2331,78	48,00
-2321,70	-105,00
-2311,64	172,00
-2301,59	104,00
-2291,55	63,00
-2281,53	57,00
-2271,53	-18,00
-2261,53	80,00
-2251,55	35,00
-2241,59	111,00
-2231,64	-15,00
-2221,70	-10,00
-2211,78	69,00
-2201,87	21,00
-2191,97	-40,00
-2182,09	38,00
-2172,22	99,00
-2162,37	29,00
-2152,53	97,00
-2142,70	46,00
-2132,89	65,00
-2123,09	9,00
-2113,30	132,00
-2103,53	135,00
-2093,77	23,00
-2084,02	57,00
-2074,29	-33,00
-2064,57	4,00
-2054,86	-16,00
-2045,17	6,00
-2035,49	19,00
-2025,82	0,00
-2016,17	82,00
-2006,53	8,00
-1996,91	-20,00
-1987,29	110,00
-1977,69	2,00
-1968,11	86,00
-1958,53	110,00
-1948,97	88,00
-1939,42	139,00
-1929,89	37,00
-1920,37	175,00
-1910,86	110,00
-1901,36	-41,00
-1891,88	14,00
-1882,41	76,00
-1872,95	122,00
-1863,51	-102,00
-1854,08	51,00
-1844,66	153,00
-1835,26	120,00
-1825,86	69,00
-1816,48	-119,00
-1807,11	143,00
-1797,76	-22,00
-1788,42	-79,00
-1779,09	-12,00
-1769,77	8,00
-1760,47	120,00
-1751,17	-80,00
-1741,89	-18,00
-1732,63	5,00
-1723,37	184,00
-1714,13	10,00
-1704,90	-63,00
-1695,68	68,00
-1686,48	25,00
-1677,29	96,00
-1668,11	187,00
-1658,94	167,00
-1649,78	29,00
-1640,64	123,00
-1631,51	13,00
-1622,39	98,00
-1613,28	55,00
-1604,19	26,00
-1595,10	43,00
-1586,03	144,00
-1576,97	-15,00
-1567,93	68,00
-1558,89	-12,00
-1549,87	34,00
-1540,86	55,00
-1531,86	66,00
-1522,87	61,00
-1513,90	189,00
-1504,93	-22,00
-1495,98	70,00
-1487,04	156,00
-1478,12	103,00
-1469,20	64,00
-1460,30	3,00
-1451,40	48,00
-1442,52	101,00
-1433,65	50,00
-1424,80	80,00
-1415,95	85,00
-1407,12	84,00
-1398,30	114,00
-1389,48	63,00
-1380,69	106,00
-1371,90	35,00
-1363,12	82,00
-1354,36	39,00
-1345,60	-94,00
-1336,86	4,00
-1328,13	46,00
-1319,41	-14,00
-1310,70	203,00
-1302,01	16,00
-1293,32	-49,00
-1284,65	77,00
-1275,99	-13,00
-1267,33	128,00
-1258,69	55,00
-1250,06	74,00
-1241,45	-15,00
-1232,84	30,00
-1224,25	44,00
-1215,66	-6,00
-1207,09	-13,00
-1198,53	109,00
-1189,97	102,00
-1181,43	54,00
-1172,91	55,00
-1164,39	161,00
-1155,88	171,00
-1147,38	72,00
-1138,90	-12,00
-1130,43	-4,00
-1121,96	82,00
-1113,51	106,00
-1105,07	21,00
-1096,64	9,00
-1088,22	93,00
-1079,81	107,00
-1071,41	-45,00
-1063,02	89,00
-1054,65	62,00
-1046,28	-23,00
-1037,92	16,00
-1029,58	98,00
-1021,24	59,00
-1012,92	179,00
-1004,61	25,00
-996,30	214,00
-988,01	52,00
-979,73	-21,00
-971,46	87,00
-963,20	-55,00
-954,95	-48,00
-946,71	98,00
-938,48	4,00
-930,26	-11,00
-922,06	19,00
-913,86	54,00
-905,67	17,00
-897,49	-43,00
-889,33	-51,00
-881,17	47,00
-873,02	-80,00
-864,89	70,00
-856,76	198,00
-848,65	74,00
-840,54	117,00
-832,45	-44,00
-824,36	155,00
-816,29	14,00
-808,22	19,00
-800,17	-53,00
-792,12	192,00
-784,09	27,00
-776,06	33,00
-768,05	116,00
-760,04	25,00
-752,05	80,00
-744,07	92,00
-736,09	-69,00
-728,13	65,00
-720,17	-10,00
-712,23	80,00
-704,29	70,00
-696,37	79,00
-688,45	124,00
-680,55	83,00
-672,65	165,00
-664,77	131,00
-656,89	8,00
-649,03	79,00
-641,17	6,00
-633,32	75,00
-625,49	137,00
-617,66	118,00
-609,84	45,00
-602,03	36,00
-594,23	109,00
-586,45	75,00
-578,67	40,00
-570,90	68,00
-563,14	67,00
-555,39	3,00
-547,65	85,00
-539,91	13,00
-532,19	120,00
-524,48	-9,00
-516,78	-9,00
-509,08	94,00
-501,40	90,00
-493,72	94,00
-486,06	76,00
-478,40	90,00
-470,76	143,00
-463,12	134,00
-455,49	48,00
-447,87	126,00
-440,26	99,00
-432,66	10,00
-425,07	-34,00
-417,49	162,00
-409,92	119,00
-402,35	109,00
-394,80	79,00
-387,25	-13,00
-379,72	14,00
-372,19	105,00
-364,67	128,00
-357,17	149,00
-349,67	74,00
-342,18	33,00
-334,69	-74,00
-327,22	7,00
-319,76	52,00
-312,30	241,00
-304,86	83,00
-297,42	93,00
-290,00	21,00
-282,58	130,00
-275,17	150,00
-267,77	86,00
-260,37	152,00
-252,99	163,00
-245,62	67,00
-238,25	161,00
-230,90	120,00
-223,55	128,00
-216,21	109,00
-208,88	75,00
-201,56	185,00
-194,25	247,00
-186,94	342,00
-179,65	265,00
-172,36	295,00
-165,08	340,00
-157,81	189,00
-150,55	330,00
-143,30	374,00
-136,06	419,00
-128,82	591,00
-121,60	490,00
-114,38	363,00
-107,17	624,00
-99,97	560,00
-92,78	604,00
-85,60	791,00
-78,42	1064,00
-71,25	1110,00
-64,10	1308,00
-56,95	1492,00
-49,81	1831,00
-42,67	2114,00
-35,55	2724,00
-28,43	3476,00
-21,33	5914,00
-14,23	20101,00
-7,14	55164,00
-0,05	54791,00
7,02	54542,00
14,09	54846,00
21,14	18269,00
28,19	7445,00
35,23	4758,00
42,27	3437,00
49,29	2970,00
56,31	2387,00
63,32	2078,00
70,32	1774,00
77,31	1457,00
84,29	1112,00
91,27	1113,00
98,23	874,00
105,19	932,00
112,14	1033,00
119,09	1358,00
126,02	2039,00
132,95	2183,00
139,87	2214,00
146,78	2161,00
153,68	2060,00
160,58	2122,00
167,46	1946,00
174,34	2044,00
181,21	2106,00
188,08	2064,00
194,93	1857,00
201,78	1884,00
208,62	1822,00
215,45	1995,00
222,27	1926,00
229,09	1832,00
235,90	1969,00
242,70	1820,00
249,49	1862,00
256,27	1907,00
263,05	1861,00
269,82	1889,00
276,58	1758,00
283,33	1920,00
290,08	1775,00
296,82	1778,00
303,55	1711,00
310,27	1595,00
316,98	1638,00
323,69	1758,00
330,39	1660,00
337,08	1743,00
343,76	1660,00
350,44	1681,00
357,11	1598,00
363,77	1640,00
370,42	1613,00
377,07	1649,00
383,71	1739,00
390,34	1580,00
396,96	1628,00
403,58	1555,00
410,19	1629,00
416,79	1603,00
423,38	1660,00
429,97	1544,00
436,55	1627,00
443,12	1454,00
449,68	1410,00
456,24	1427,00
462,79	1297,00
469,33	1407,00
475,86	1422,00
482,39	1405,00
488,91	1375,00
495,42	1322,00
501,93	1407,00
508,42	1346,00
514,91	1439,00
521,40	1376,00
527,87	1335,00
534,34	1307,00
540,80	1367,00
547,25	1270,00
553,70	1261,00
560,14	1172,00
566,57	1368,00
573,00	1295,00
579,41	1323,00
585,83	1147,00
592,23	1207,00
598,62	1153,00
605,01	1187,00
611,40	1253,00
617,77	1277,00
624,14	1219,00
630,50	1167,00
636,85	1143,00
643,20	1230,00
649,54	1217,00
655,87	1046,00
662,20	1165,00
668,52	1137,00
674,83	1153,00
681,13	1098,00
687,43	1042,00
693,72	1070,00
700,00	1078,00
706,28	1178,00
712,55	1082,00
718,81	1200,00
725,07	1140,00
731,32	1047,00
737,56	1095,00
743,79	1191,00
750,02	1171,00
756,24	1228,00
762,46	1112,00
768,67	1068,00
774,87	1002,00
781,06	1072,00
787,25	1127,00
793,43	1137,00
799,60	1114,00
805,77	939,00
811,93	1149,00
818,08	1129,00
824,23	1134,00
830,37	963,00
836,50	1185,00
842,63	1054,00
848,75	1111,00
854,87	1066,00
860,97	1141,00
867,07	1155,00
873,17	983,00
879,25	971,00
885,33	1024,00
891,41	1135,00
897,47	958,00
903,53	1007,00
909,59	1096,00
915,63	1079,00
921,67	963,00
927,71	912,00
933,74	980,00
939,76	946,00
945,77	850,00
951,78	865,00
957,78	1014,00
963,78	949,00
969,77	905,00
975,75	958,00
981,72	918,00
987,69	1013,00
993,66	970,00
999,61	887,00
1005,56	891,00
1011,51	1016,00
1017,44	884,00
1023,37	1052,00
1029,30	962,00
1035,22	984,00
1041,13	1006,00
1047,03	1005,00
1052,93	1009,00
1058,83	1187,00
1064,71	1215,00
1070,59	1083,00
1076,47	985,00
1082,33	1076,00
1088,20	995,00
1094,05	906,00
1099,90	868,00
1105,74	890,00
1111,58	956,00
1117,41	909,00
1123,23	1121,00
1129,05	1088,00
1134,86	1126,00
1140,67	974,00
1146,47	961,00
1152,26	923,00
1158,05	786,00
1163,83	923,00
1169,60	930,00
1175,37	795,00
1181,13	789,00
1186,89	873,00
1192,64	808,00
1198,38	882,00
1204,12	825,00
1209,85	756,00
1215,58	924,00
1221,30	825,00
1227,02	947,00
1232,72	938,00
1238,43	885,00
1244,12	787,00
1249,81	908,00
1255,50	1011,00
1261,17	840,00
1266,85	925,00
1272,51	894,00
1278,17	962,00
1283,83	1017,00
1289,47	1267,00
1295,12	1378,00
1300,75	1312,00
1306,38	1201,00
1312,01	1128,00
1317,63	948,00
1323,24	974,00
1328,85	937,00
1334,45	990,00
1340,04	991,00
1345,63	1106,00
1351,22	950,00
1356,80	1012,00
1362,37	909,00
1367,93	975,00
1373,49	1011,00
1379,05	944,00
1384,60	1104,00
1390,14	1083,00
1395,68	856,00
1401,21	826,00
1406,74	959,00
1412,26	1080,00
1417,77	1060,00
1423,28	1134,00
1428,78	1112,00
1434,28	1342,00
1439,77	1497,00
1445,26	1391,00
1450,74	1421,00
1456,22	1225,00
1461,68	1310,00
1467,15	1258,00
1472,61	1044,00
1478,06	1093,00
1483,51	1061,00
1488,95	983,00
1494,38	894,00
1499,81	889,00
1505,24	820,00
1510,65	881,00
1516,07	919,00
1521,48	876,00
1526,88	816,00
1532,27	708,00
1537,67	842,00
1543,05	802,00
1548,43	843,00
1553,81	850,00
1559,18	767,00
1564,54	738,00
1569,90	826,00
1575,25	877,00
1580,60	667,00
1585,94	743,00
1591,28	784,00
1596,61	667,00
1601,93	737,00
1607,25	789,00
1612,57	834,00
1617,88	821,00
1623,18	731,00
1628,48	754,00
1633,77	696,00
1639,06	637,00
1644,34	767,00
1649,62	726,00
1654,89	872,00
1660,16	613,00
1665,42	678,00
1670,67	669,00
1675,92	586,00
1681,17	738,00
1686,41	758,00
1691,64	688,00
1696,87	626,00
1702,10	564,00
1707,32	745,00
1712,53	715,00
1717,74	656,00
1722,94	545,00
1728,14	648,00
1733,33	630,00
1738,52	680,00
1743,70	727,00
1748,88	606,00
1754,05	670,00
1759,22	688,00
1764,38	664,00
1769,53	498,00
1774,69	599,00
1779,83	697,00
1784,97	530,00
1790,11	451,00
1795,24	701,00
1800,36	589,00
1805,48	553,00
1810,60	607,00
1815,71	522,00
1820,82	546,00
1825,92	544,00
1831,01	587,00
1836,10	459,00
1841,19	563,00
1846,26	653,00
1851,34	547,00
1856,41	436,00
1861,47	566,00
1866,53	540,00
1871,59	521,00
1876,64	390,00
1881,68	451,00
1886,72	464,00
1891,76	607,00
1896,79	353,00
1901,81	540,00
1906,83	501,00
1911,85	430,00
1916,86	541,00
1921,86	501,00
1926,86	538,00
1931,86	668,00
1936,85	403,00
1941,83	498,00
1946,81	372,00
1951,79	530,00
1956,76	384,00
1961,72	434,00
1966,68	549,00
1971,64	390,00
1976,59	436,00
1981,54	371,00
1986,48	394,00
1991,42	394,00
1996,35	474,00
2001,27	324,00
2006,20	466,00
2011,11	491,00
2016,03	496,00
2020,93	414,00
2025,84	409,00
2030,73	361,00
2035,63	392,00
2040,52	513,00
2045,40	481,00
2050,28	415,00
2055,15	285,00
2060,02	438,00
2064,89	429,00
2069,75	361,00
2074,60	400,00
2079,46	402,00
2084,30	399,00
2089,14	456,00
2093,98	345,00
2098,81	430,00
2103,64	460,00
2108,46	373,00
2113,28	468,00
2118,09	254,00
2122,90	342,00
2127,70	344,00
2132,50	461,00
2137,30	303,00
2142,09	396,00
2146,87	407,00
2151,66	394,00
2156,43	315,00
2161,20	218,00
2165,97	388,00
2170,73	314,00
2175,49	526,00
2180,24	375,00
2184,99	535,00
2189,74	398,00
2194,48	326,00
2199,21	412,00
2203,94	374,00
2208,67	327,00
2213,39	438,00
2218,11	251,00
2222,82	380,00
2227,53	399,00
2232,23	355,00
2236,93	274,00
2241,63	309,00
2246,32	468,00
2251,00	288,00
2255,68	370,00
2260,36	357,00
2265,03	312,00
2269,70	158,00
2274,36	266,00
2279,02	312,00
2283,68	307,00
2288,33	248,00
2292,97	174,00
2297,61	268,00
2302,25	300,00
2306,88	365,00
2311,51	276,00
2316,14	298,00
2320,75	416,00
2325,37	314,00
2329,98	329,00
2334,59	328,00
2339,19	303,00
2343,79	202,00
2348,38	296,00
2352,97	302,00
2357,55	253,00
2362,13	219,00
2366,71	359,00
2371,28	175,00
2375,85	200,00
2380,41	256,00
2384,97	240,00
2389,52	228,00
2394,07	156,00
2398,62	332,00
2403,16	367,00
2407,70	297,00
2412,23	316,00
2416,76	253,00
2421,29	321,00
2425,81	164,00
2430,32	237,00
2434,84	273,00
2439,34	281,00
2443,85	177,00
2448,35	265,00
2452,84	154,00
2457,33	145,00
2461,82	301,00
2466,30	233,00
2470,78	348,00
2475,25	184,00
2479,72	233,00
2484,19	167,00
2488,65	235,00
2493,11	188,00
2497,56	251,00
2502,01	168,00
2506,46	320,00
2510,90	160,00
2515,34	321,00
2519,77	143,00
2524,20	245,00
2528,62	110,00
2533,04	303,00
2537,46	141,00
2541,87	204,00
2546,28	157,00
2550,68	258,00
2555,08	133,00
2559,48	214,00
2563,87	179,00
2568,26	235,00
2572,64	229,00
2577,02	332,00
2581,40	247,00
2585,77	155,00
2590,14	202,00
2594,50	140,00
2598,86	236,00
2603,22	205,00
2607,57	178,00
2611,92	152,00
2616,26	131,00
2620,60	268,00
2624,94	152,00
2629,27	325,00
2633,60	114,00
2637,92	252,00
2642,24	189,00
2646,56	151,00
2650,87	97,00
2655,18	78,00
2659,48	206,00
2663,78	294,00
2668,08	325,00
2672,37	299,00
2676,66	182,00
2680,95	205,00
2685,23	225,00
2689,50	251,00
2693,78	154,00
2698,05	204,00
2702,31	312,00
2706,57	187,00
2710,83	230,00
2715,08	273,00
2719,33	356,00
2723,58	299,00
2727,82	344,00
2732,06	215,00
2736,29	253,00
2740,53	222,00
2744,75	285,00
2748,97	219,00
2753,19	285,00
2757,41	259,00
2761,62	278,00
2765,83	135,00
2770,03	168,00
2774,23	202,00
2778,43	318,00
2782,62	160,00
2786,81	201,00
2791,00	118,00
2795,18	387,00
2799,35	114,00
2803,53	356,00
2807,70	460,00
2811,86	236,00
2816,03	341,00
2820,19	221,00
2824,34	332,00
2828,49	577,00
2832,64	368,00
2836,78	478,00
2840,92	647,00
2845,06	692,00
2849,19	751,00
2853,32	810,00
2857,45	740,00
2861,57	825,00
2865,69	805,00
2869,80	828,00
2873,91	779,00
2878,02	943,00
2882,12	844,00
2886,22	826,00
2890,32	879,00
2894,41	821,00
2898,50	692,00
2902,58	738,00
2906,67	695,00
2910,74	568,00
2914,82	601,00
2918,89	556,00
2922,96	638,00
2927,02	439,00
2931,08	571,00
2935,13	468,00
2939,19	448,00
2943,24	330,00
2947,28	288,00
2951,32	226,00
2955,36	354,00
2959,40	295,00
2963,43	261,00
2967,46	216,00
2971,48	258,00
2975,50	222,00
2979,52	189,00
2983,53	227,00
2987,54	218,00
2991,55	146,00
2995,55	49,00
2999,55	80,00
3003,54	73,00
3007,54	95,00
3011,53	157,00
3015,51	146,00
3019,49	143,00
3023,47	253,00
3027,45	184,00
3031,42	116,00
3035,39	231,00
3039,35	176,00
3043,31	122,00
3047,27	153,00
3051,22	196,00
3055,17	22,00
3059,12	121,00
3063,06	77,00
3067,00	128,00
3070,94	185,00
3074,87	61,00
3078,80	224,00
3082,73	108,00
3086,65	142,00
3090,57	120,00
3094,49	158,00
3098,40	105,00
3102,31	112,00
3106,22	159,00
3110,12	-17,00
3114,02	176,00
3117,92	122,00
3121,81	156,00
3125,70	88,00
3129,58	53,00
3133,47	104,00
3137,34	92,00
3141,22	63,00
3145,09	98,00
3148,96	108,00
3152,83	174,00
3156,69	81,00
3160,55	84,00
3164,40	-16,00
3168,26	71,00
3172,10	182,00
3175,95	168,00
3179,79	172,00
3183,63	98,00
3187,47	200,00
3191,30	175,00
3195,13	165,00
3198,95	84,00
3202,78	52,00
3206,60	111,00
3210,41	78,00
3214,23	82,00
3218,03	14,00
3221,84	86,00
3225,64	33,00
3229,44	123,00
3233,24	181,00
3237,03	111,00
3240,82	19,00
3244,61	73,00
3248,39	68,00
3252,17	9,00
3255,95	233,00
3259,72	206,00
3263,49	129,00
3267,26	29,00
3271,03	93,00
3274,79	71,00
3278,54	195,00
3282,30	86,00
3286,05	125,00
3289,80	112,00
3293,54	42,00
3297,29	28,00
3301,02	114,00
3304,76	74,00
3308,49	138,00
3312,22	-21,00
3315,95	82,00
3319,67	-8,00
3323,39	74,00
3327,10	-3,00
3330,82	145,00
3334,53	119,00
3338,24	92,00
3341,94	136,00
3345,64	138,00
3349,34	3,00
3353,03	1,00
3356,72	91,00
3360,41	-12,00
3364,10	143,00
3367,78	102,00
3371,46	199,00
3375,13	139,00
3378,81	179,00
3382,48	-11,00
3386,14	215,00
3389,81	-12,00
3393,47	69,00
3397,12	94,00
3400,78	143,00
3404,43	173,00
3408,08	11,00
3411,72	156,00
3415,36	62,00
3419,00	-95,00
3422,64	-39,00
3426,27	98,00
3429,90	57,00
3433,53	116,00
3437,15	145,00
3440,77	131,00
3444,39	-11,00
3448,00	4,00
3451,62	195,00
3455,22	31,00
3458,83	67,00
3462,43	56,00
3466,03	17,00
3469,63	-73,00
3473,22	63,00
3476,81	67,00
3480,40	82,00
3483,99	74,00
3487,57	91,00
3491,15	-69,00
3494,72	6,00
3498,29	218,00
3501,86	18,00
3505,43	141,00
3508,99	-13,00
3512,56	48,00
3516,11	116,00
3519,67	-2,00
3523,22	111,00
3526,77	143,00
3530,32	93,00
3533,86	-4,00
3537,40	-5,00
3540,94	193,00
3544,47	-90,00
3548,00	157,00
3551,53	119,00
3555,06	32,00
3558,58	40,00
3562,10	60,00
3565,62	186,00
3569,13	55,00
3572,64	186,00
3576,15	-5,00
3579,66	72,00
3583,16	99,00
3586,66	52,00
3590,16	39,00
3593,65	73,00
3597,14	49,00
3600,63	66,00
3604,11	81,00
3607,60	-15,00
3611,08	142,00
3614,55	-11,00
3618,03	81,00
3621,50	47,00
3624,97	180,00
3628,43	-10,00
3631,90	17,00
3635,36	104,00
3638,81	-5,00
3642,27	-30,00
3645,72	178,00
3649,17	99,00
3652,61	102,00
3656,06	-65,00
3659,50	117,00
3662,93	-54,00
3666,37	0,00
3669,80	90,00
3673,23	95,00
3676,65	148,00
3680,08	60,00
3683,50	51,00
3686,92	-6,00
3690,33	85,00
3693,74	32,00
3697,15	142,00
3700,56	144,00
3703,96	-99,00
3707,36	-17,00
3710,76	23,00
3714,16	69,00
3717,55	-65,00
3720,94	107,00
3724,33	35,00
3727,71	61,00
3731,10	50,00
3734,48	13,00
3737,85	-65,00
3741,23	-107,00
3744,60	-87,00
3747,97	-52,00
3751,33	153,00
3754,69	76,00
3758,05	95,00
3761,41	-85,00
3764,77	90,00
3768,12	14,00
3771,47	23,00
3774,82	39,00
3778,16	-1,00
3781,50	2,00
3784,84	1,00
3788,18	0,00
>>>>>End Processed Spectral Data<<<<<
