SpectraSuite Data File
++++++++++++++++++++++++++++++++++++
Date: Mon Mar 09 16:14:18 ICT 2026
User: Administrator
Dark Spectrum Present: Yes
Reference Spectrum Present: No
Number of Sampled Component Spectra: 1
Spectrometers: MAYP113682
Integration Time (usec): 3000000 (MAYP113682)
Spectra Averaged: 1 (MAYP113682)
Boxcar Smoothing: 0 (MAYP113682)
Correct for Electrical Dark: No (MAYP113682)
Strobe/Lamp Enabled: No (MAYP113682)
Correct for Detector Non-linearity: No (MAYP113682)
Correct for Stray Light: No (MAYP113682)
Number of Pixels in Processed Spectrum: 2068
>>>>>Begin Processed Spectral Data<<<<<
-37534,58	-9,00
-37414,56	9,00
-37295,11	-7,00
-37176,24	-3,00
-37057,95	-10,00
-36940,22	-3,00
-36823,05	-16,00
-36706,45	46,00
-36590,40	73,00
-36474,90	69,00
-36359,95	11,00
-36245,55	46,00
-36131,68	32,00
-36018,35	45,00
-35905,55	36,00
-35793,29	-1,00
-35681,54	-45,00
-35570,32	-31,00
-35459,62	-9,00
-35349,43	-28,00
-35239,75	118,00
-35130,58	44,00
-35021,91	-1,00
-34913,74	-48,00
-34806,07	79,00
-34698,89	-123,00
-34592,20	11,00
-34486,00	26,00
-34380,28	78,00
-34275,04	46,00
-34170,27	-41,00
-34065,98	-13,00
-33962,16	114,00
-33858,81	-27,00
-33755,92	238,00
-33653,49	79,00
-33551,52	7,00
-33450,01	124,00
-33348,94	65,00
-33248,33	-133,00
-33148,16	3,00
-33048,43	48,00
-32949,14	-127,00
-32850,29	47,00
-32751,87	55,00
-32653,89	11,00
-32556,33	-73,00
-32459,20	77,00
-32362,49	137,00
-32266,19	180,00
-32170,32	3,00
-32074,86	-82,00
-31979,82	-64,00
-31885,18	97,00
-31790,95	117,00
-31697,12	-58,00
-31603,69	85,00
-31510,67	-16,00
-31418,04	134,00
-31325,80	69,00
-31233,95	150,00
-31142,49	7,00
-31051,42	18,00
-30960,73	106,00
-30870,43	20,00
-30780,50	-5,00
-30690,95	2,00
-30601,77	-10,00
-30512,97	136,00
-30424,53	-40,00
-30336,46	-14,00
-30248,76	69,00
-30161,42	134,00
-30074,44	94,00
-29987,81	-13,00
-29901,55	65,00
-29815,63	-5,00
-29730,07	54,00
-29644,86	-40,00
-29560,00	-146,00
-29475,48	157,00
-29391,30	222,00
-29307,47	27,00
-29223,97	74,00
-29140,81	51,00
-29057,99	75,00
-28975,50	-52,00
-28893,34	58,00
-28811,51	15,00
-28730,00	82,00
-28648,82	50,00
-28567,97	-70,00
-28487,43	22,00
-28407,21	-42,00
-28327,32	61,00
-28247,73	23,00
-28168,46	-10,00
-28089,50	45,00
-28010,85	-135,00
-27932,51	75,00
-27854,48	50,00
-27776,75	-4,00
-27699,32	75,00
-27622,19	206,00
-27545,37	-33,00
-27468,84	158,00
-27392,60	92,00
-27316,66	-73,00
-27241,01	41,00
-27165,66	-13,00
-27090,59	3,00
-27015,81	60,00
-26941,31	55,00
-26867,10	121,00
-26793,17	-12,00
-26719,52	-53,00
-26646,15	81,00
-26573,06	-76,00
-26500,24	65,00
-26427,70	87,00
-26355,43	-59,00
-26283,43	59,00
-26211,71	-6,00
-26140,25	43,00
-26069,06	90,00
-25998,13	176,00
-25927,46	-8,00
-25857,06	5,00
-25786,92	26,00
-25717,04	107,00
-25647,42	65,00
-25578,05	9,00
-25508,94	104,00
-25440,09	-120,00
-25371,48	79,00
-25303,13	128,00
-25235,02	33,00
-25167,17	5,00
-25099,56	-68,00
-25032,19	127,00
-24965,07	12,00
-24898,20	86,00
-24831,56	-11,00
-24765,17	39,00
-24699,01	100,00
-24633,10	-23,00
-24567,41	40,00
-24501,97	171,00
-24436,75	-5,00
-24371,77	62,00
-24307,03	-64,00
-24242,51	16,00
-24178,22	-22,00
-24114,16	48,00
-24050,32	81,00
-23986,71	121,00
-23923,32	118,00
-23860,16	-115,00
-23797,22	114,00
-23734,50	-50,00
-23672,00	-58,00
-23609,71	21,00
-23547,65	-52,00
-23485,80	1,00
-23424,16	49,00
-23362,74	10,00
-23301,53	-89,00
-23240,54	-50,00
-23179,75	3,00
-23119,17	-66,00
-23058,80	29,00
-22998,64	-4,00
-22938,68	-66,00
-22878,93	76,00
-22819,39	58,00
-22760,04	74,00
-22700,90	-100,00
-22641,96	-69,00
-22583,22	34,00
-22524,68	-13,00
-22466,33	8,00
-22408,19	20,00
-22350,23	-102,00
-22292,48	83,00
-22234,92	-17,00
-22177,55	-27,00
-22120,37	99,00
-22063,38	74,00
-22006,58	16,00
-21949,98	3,00
-21893,56	63,00
-21837,33	-89,00
-21781,28	6,00
-21725,42	90,00
-21669,74	-19,00
-21614,25	9,00
-21558,94	-66,00
-21503,81	66,00
-21448,86	-106,00
-21394,10	66,00
-21339,51	4,00
-21285,10	45,00
-21230,86	18,00
-21176,81	48,00
-21122,93	5,00
-21069,22	-8,00
-21015,69	27,00
-20962,33	66,00
-20909,14	23,00
-20856,13	-16,00
-20803,28	68,00
-20750,61	-32,00
-20698,10	-41,00
-20645,76	137,00
-20593,59	-2,00
-20541,59	54,00
-20489,75	-45,00
-20438,07	-12,00
-20386,56	-32,00
-20335,22	111,00
-20284,03	-45,00
-20233,01	74,00
-20182,15	-58,00
-20131,45	-113,00
-20080,91	-21,00
-20030,52	-38,00
-19980,30	16,00
-19930,23	-15,00
-19880,32	19,00
-19830,56	-33,00
-19780,96	-1,00
-19731,52	30,00
-19682,23	73,00
-19633,09	81,00
-19584,10	-62,00
-19535,26	31,00
-19486,58	88,00
-19438,04	12,00
-19389,66	43,00
-19341,42	7,00
-19293,33	75,00
-19245,39	-64,00
-19197,60	9,00
-19149,95	5,00
-19102,45	85,00
-19055,09	44,00
-19007,87	10,00
-18960,80	111,00
-18913,87	-16,00
-18867,09	-32,00
-18820,44	-56,00
-18773,94	44,00
-18727,57	2,00
-18681,35	113,00
-18635,26	-33,00
-18589,31	8,00
-18543,50	-68,00
-18497,83	-33,00
-18452,29	24,00
-18406,89	-3,00
-18361,63	-10,00
-18316,50	108,00
-18271,50	51,00
-18226,63	4,00
-18181,90	86,00
-18137,30	98,00
-18092,84	38,00
-18048,50	197,00
-18004,29	-1,00
-17960,22	73,00
-17916,27	64,00
-17872,45	-14,00
-17828,76	48,00
-17785,20	42,00
-17741,77	-27,00
-17698,46	25,00
-17655,28	-3,00
-17612,22	-19,00
-17569,29	27,00
-17526,48	37,00
-17483,79	69,00
-17441,23	-16,00
-17398,79	-67,00
-17356,48	76,00
-17314,28	-54,00
-17272,21	11,00
-17230,26	-16,00
-17188,42	98,00
-17146,71	-51,00
-17105,12	45,00
-17063,64	-59,00
-17022,28	77,00
-16981,04	137,00
-16939,92	-41,00
-16898,91	21,00
-16858,02	66,00
-16817,25	72,00
-16776,59	53,00
-16736,04	-35,00
-16695,61	-45,00
-16655,29	7,00
-16615,09	48,00
-16574,99	78,00
-16535,01	79,00
-16495,15	11,00
-16455,39	-22,00
-16415,74	5,00
-16376,21	29,00
-16336,78	-2,00
-16297,46	28,00
-16258,26	5,00
-16219,16	-12,00
-16180,17	81,00
-16141,28	-20,00
-16102,51	-1,00
-16063,84	-75,00
-16025,27	73,00
-15986,82	139,00
-15948,46	-10,00
-15910,22	48,00
-15872,07	14,00
-15834,04	86,00
-15796,10	-1,00
-15758,27	109,00
-15720,54	13,00
-15682,91	74,00
-15645,39	13,00
-15607,97	-11,00
-15570,64	69,00
-15533,42	19,00
-15496,30	90,00
-15459,28	162,00
-15422,36	-20,00
-15385,54	-58,00
-15348,82	-41,00
-15312,19	-89,00
-15275,66	-14,00
-15239,23	109,00
-15202,90	-15,00
-15166,67	36,00
-15130,53	34,00
-15094,48	34,00
-15058,54	65,00
-15022,68	122,00
-14986,93	-34,00
-14951,26	63,00
-14915,69	53,00
-14880,22	98,00
-14844,84	21,00
-14809,55	46,00
-14774,35	3,00
-14739,25	54,00
-14704,24	16,00
-14669,32	-93,00
-14634,49	98,00
-14599,75	2,00
-14565,10	33,00
-14530,55	8,00
-14496,08	75,00
-14461,70	63,00
-14427,41	57,00
-14393,21	-14,00
-14359,10	-16,00
-14325,07	-143,00
-14291,14	-58,00
-14257,29	47,00
-14223,52	-11,00
-14189,85	124,00
-14156,26	121,00
-14122,76	19,00
-14089,34	52,00
-14056,01	105,00
-14022,76	91,00
-13989,60	-120,00
-13956,52	23,00
-13923,53	-80,00
-13890,62	82,00
-13857,79	-5,00
-13825,05	-9,00
-13792,39	-54,00
-13759,81	-46,00
-13727,31	-41,00
-13694,90	14,00
-13662,57	108,00
-13630,31	56,00
-13598,14	-46,00
-13566,05	42,00
-13534,05	212,00
-13502,12	18,00
-13470,27	32,00
-13438,50	69,00
-13406,80	-125,00
-13375,19	86,00
-13343,66	-41,00
-13312,20	-49,00
-13280,83	80,00
-13249,53	-21,00
-13218,30	14,00
-13187,16	39,00
-13156,09	-5,00
-13125,10	38,00
-13094,18	64,00
-13063,34	48,00
-13032,58	-66,00
-13001,89	67,00
-12971,28	-33,00
-12940,74	23,00
-12910,27	61,00
-12879,88	85,00
-12849,57	61,00
-12819,33	13,00
-12789,16	-29,00
-12759,06	-37,00
-12729,04	66,00
-12699,09	56,00
-12669,21	99,00
-12639,41	-15,00
-12609,68	62,00
-12580,02	12,00
-12550,43	4,00
-12520,91	137,00
-12491,46	31,00
-12462,08	34,00
-12432,77	8,00
-12403,54	-72,00
-12374,37	76,00
-12345,27	-12,00
-12316,24	-30,00
-12287,29	67,00
-12258,40	7,00
-12229,57	63,00
-12200,82	52,00
-12172,14	-85,00
-12143,52	17,00
-12114,97	-9,00
-12086,49	50,00
-12058,07	-37,00
-12029,73	74,00
-12001,44	25,00
-11973,23	96,00
-11945,08	28,00
-11917,00	203,00
-11888,98	48,00
-11861,03	81,00
-11833,15	42,00
-11805,32	-44,00
-11777,57	54,00
-11749,88	76,00
-11722,25	-97,00
-11694,69	40,00
-11667,19	23,00
-11639,75	-11,00
-11612,38	11,00
-11585,07	-31,00
-11557,83	109,00
-11530,65	50,00
-11503,53	56,00
-11476,47	57,00
-11449,48	85,00
-11422,54	-38,00
-11395,67	10,00
-11368,86	15,00
-11342,11	16,00
-11315,43	-72,00
-11288,80	27,00
-11262,23	130,00
-11235,73	63,00
-11209,28	-98,00
-11182,90	9,00
-11156,57	83,00
-11130,31	-90,00
-11104,10	-72,00
-11077,96	-59,00
-11051,87	87,00
-11025,84	24,00
-10999,87	41,00
-10973,96	-15,00
-10948,11	-37,00
-10922,31	27,00
-10896,58	95,00
-10870,90	42,00
-10845,28	111,00
-10819,71	-23,00
-10794,20	19,00
-10768,75	36,00
-10743,36	27,00
-10718,02	29,00
-10692,74	112,00
-10667,52	135,00
-10642,35	170,00
-10617,24	47,00
-10592,18	67,00
-10567,18	152,00
-10542,23	55,00
-10517,34	115,00
-10492,51	-3,00
-10467,72	101,00
-10443,00	113,00
-10418,32	40,00
-10393,70	-50,00
-10369,14	157,00
-10344,63	27,00
-10320,17	186,00
-10295,77	61,00
-10271,42	99,00
-10247,12	-7,00
-10222,88	47,00
-10198,68	69,00
-10174,54	76,00
-10150,46	47,00
-10126,42	113,00
-10102,44	35,00
-10078,51	58,00
-10054,63	75,00
-10030,80	96,00
-10007,03	127,00
-9983,30	18,00
-9959,63	44,00
-9936,01	280,00
-9912,44	128,00
-9888,92	66,00
-9865,44	118,00
-9842,02	10,00
-9818,65	162,00
-9795,33	231,00
-9772,06	133,00
-9748,84	57,00
-9725,67	114,00
-9702,55	204,00
-9679,47	264,00
-9656,45	189,00
-9633,47	288,00
-9610,55	282,00
-9587,67	127,00
-9564,84	311,00
-9542,06	316,00
-9519,32	307,00
-9496,64	403,00
-9474,00	390,00
-9451,41	475,00
-9428,87	265,00
-9406,37	417,00
-9383,92	288,00
-9361,52	294,00
-9339,17	119,00
-9316,86	467,00
-9294,60	621,00
-9272,38	497,00
-9250,21	646,00
-9228,09	669,00
-9206,01	556,00
-9183,98	598,00
-9162,00	322,00
-9140,06	328,00
-9118,16	421,00
-9096,31	637,00
-9074,51	561,00
-9052,75	549,00
-9031,04	634,00
-9009,37	598,00
-8987,74	420,00
-8966,16	405,00
-8944,63	220,00
-8923,14	86,00
-8901,69	165,00
-8880,29	525,00
-8858,93	528,00
-8837,61	517,00
-8816,34	785,00
-8795,11	580,00
-8773,92	587,00
-8752,78	519,00
-8731,68	627,00
-8710,62	310,00
-8689,61	493,00
-8668,63	659,00
-8647,70	556,00
-8626,82	663,00
-8605,97	615,00
-8585,17	448,00
-8564,41	461,00
-8543,69	403,00
-8523,01	268,00
-8502,37	407,00
-8481,78	598,00
-8461,23	486,00
-8440,71	538,00
-8420,24	591,00
-8399,81	705,00
-8379,42	742,00
-8359,08	396,00
-8338,77	498,00
-8318,50	474,00
-8298,27	461,00
-8278,09	441,00
-8257,94	534,00
-8237,83	567,00
-8217,76	630,00
-8197,74	596,00
-8177,75	535,00
-8157,80	651,00
-8137,89	431,00
-8118,02	573,00
-8098,19	520,00
-8078,40	555,00
-8058,65	584,00
-8038,93	616,00
-8019,26	549,00
-7999,62	511,00
-7980,02	454,00
-7960,46	503,00
-7940,94	510,00
-7921,46	390,00
-7902,01	402,00
-7882,60	415,00
-7863,23	458,00
-7843,90	539,00
-7824,61	435,00
-7805,35	543,00
-7786,13	629,00
-7766,95	507,00
-7747,80	547,00
-7728,69	571,00
-7709,62	457,00
-7690,59	479,00
-7671,59	455,00
-7652,63	556,00
-7633,70	595,00
-7614,81	588,00
-7595,96	598,00
-7577,15	455,00
-7558,37	388,00
-7539,62	404,00
-7520,91	496,00
-7502,24	479,00
-7483,60	491,00
-7465,00	467,00
-7446,44	406,00
-7427,91	411,00
-7409,41	294,00
-7390,95	341,00
-7372,53	304,00
-7354,14	156,00
-7335,78	89,00
-7317,46	413,00
-7299,18	324,00
-7280,92	387,00
-7262,71	468,00
-7244,52	582,00
-7226,38	413,00
-7208,26	544,00
-7190,18	432,00
-7172,14	513,00
-7154,12	301,00
-7136,15	352,00
-7118,20	551,00
-7100,29	466,00
-7082,41	410,00
-7064,57	333,00
-7046,76	397,00
-7028,98	199,00
-7011,24	287,00
-6993,53	158,00
-6975,85	99,00
-6958,20	57,00
-6940,59	94,00
-6923,01	140,00
-6905,46	156,00
-6887,94	376,00
-6870,46	-2441,00
-6853,01	453,00
-6835,59	362,00
-6818,21	308,00
-6800,85	325,00
-6783,53	142,00
-6766,24	86,00
-6748,98	-80,00
-6731,76	-42,00
-6714,56	-115,00
-6697,40	114,00
-6680,26	94,00
-6663,16	149,00
-6646,09	110,00
-6629,05	241,00
-6612,05	273,00
-6595,07	358,00
-6578,13	237,00
-6561,21	217,00
-6544,33	60,00
-6527,47	-18,00
-6510,65	-165,00
-6493,86	25,00
-6477,10	42,00
-6460,36	-34,00
-6443,66	35,00
-6426,99	120,00
-6410,35	9,00
-6393,74	75,00
-6377,16	122,00
-6360,61	67,00
-6344,09	127,00
-6327,59	51,00
-6311,13	112,00
-6294,70	61,00
-6278,29	285,00
-6261,92	276,00
-6245,58	291,00
-6229,26	289,00
-6212,97	378,00
-6196,72	127,00
-6180,49	-5,00
-6164,29	43,00
-6148,12	-46,00
-6131,98	-159,00
-6115,86	-99,00
-6099,78	-120,00
-6083,72	-184,00
-6067,69	-106,00
-6051,69	-103,00
-6035,72	33,00
-6019,78	56,00
-6003,87	-6,00
-5987,98	227,00
-5972,12	275,00
-5956,29	156,00
-5940,49	121,00
-5924,71	21,00
-5908,96	14,00
-5893,24	-61,00
-5877,55	-28,00
-5861,89	31,00
-5846,25	-95,00
-5830,64	-7,00
-5815,05	-11,00
-5799,50	-5,00
-5783,97	58,00
-5768,47	169,00
-5752,99	59,00
-5737,55	133,00
-5722,12	99,00
-5706,73	241,00
-5691,36	205,00
-5676,02	20,00
-5660,71	84,00
-5645,42	56,00
-5630,16	65,00
-5614,92	44,00
-5599,71	21,00
-5584,53	-76,00
-5569,37	93,00
-5554,24	285,00
-5539,14	-41,00
-5524,06	8,00
-5509,01	99,00
-5493,98	-18,00
-5478,98	45,00
-5464,00	-59,00
-5449,05	53,00
-5434,13	28,00
-5419,23	57,00
-5404,36	-8,00
-5389,51	20,00
-5374,69	216,00
-5359,89	146,00
-5345,12	178,00
-5330,37	239,00
-5315,65	-7,00
-5300,95	105,00
-5286,28	91,00
-5271,63	60,00
-5257,01	68,00
-5242,41	29,00
-5227,84	-133,00
-5213,29	-38,00
-5198,76	-15,00
-5184,26	-20,00
-5169,79	28,00
-5155,33	41,00
-5140,91	23,00
-5126,51	122,00
-5112,13	161,00
-5097,77	110,00
-5083,44	-24,00
-5069,13	34,00
-5054,85	89,00
-5040,59	26,00
-5026,36	25,00
-5012,15	108,00
-4997,96	-25,00
-4983,80	-49,00
-4969,66	24,00
-4955,54	146,00
-4941,44	112,00
-4927,37	178,00
-4913,33	312,00
-4899,30	243,00
-4885,30	263,00
-4871,33	247,00
-4857,37	132,00
-4843,44	82,00
-4829,53	51,00
-4815,65	-26,00
-4801,79	72,00
-4787,95	-119,00
-4774,13	4,00
-4760,34	66,00
-4746,56	86,00
-4732,82	33,00
-4719,09	182,00
-4705,38	125,00
-4691,70	197,00
-4678,04	158,00
-4664,41	164,00
-4650,79	9,00
-4637,20	63,00
-4623,63	50,00
-4610,08	-81,00
-4596,56	33,00
-4583,05	133,00
-4569,57	-56,00
-4556,11	121,00
-4542,67	34,00
-4529,25	117,00
-4515,86	64,00
-4502,49	242,00
-4489,13	202,00
-4475,80	144,00
-4462,49	96,00
-4449,21	95,00
-4435,94	144,00
-4422,70	78,00
-4409,47	81,00
-4396,27	128,00
-4383,09	29,00
-4369,93	13,00
-4356,79	115,00
-4343,67	80,00
-4330,58	2,00
-4317,50	88,00
-4304,45	59,00
-4291,41	43,00
-4278,40	25,00
-4265,41	42,00
-4252,44	4,00
-4239,49	135,00
-4226,55	190,00
-4213,65	86,00
-4200,76	108,00
-4187,89	-17,00
-4175,04	126,00
-4162,21	94,00
-4149,40	56,00
-4136,61	199,00
-4123,85	23,00
-4111,10	-58,00
-4098,37	36,00
-4085,66	54,00
-4072,98	129,00
-4060,31	57,00
-4047,66	45,00
-4035,04	48,00
-4022,43	47,00
-4009,84	121,00
-3997,27	7,00
-3984,72	139,00
-3972,19	2,00
-3959,69	-23,00
-3947,20	-5,00
-3934,73	-64,00
-3922,27	88,00
-3909,84	14,00
-3897,43	71,00
-3885,04	-40,00
-3872,67	-8,00
-3860,31	-53,00
-3847,98	66,00
-3835,66	-42,00
-3823,36	-93,00
-3811,09	6,00
-3798,83	56,00
-3786,59	1,00
-3774,37	98,00
-3762,17	78,00
-3749,98	67,00
-3737,82	-33,00
-3725,67	13,00
-3713,55	-39,00
-3701,44	13,00
-3689,35	5,00
-3677,28	-83,00
-3665,22	-18,00
-3653,19	-73,00
-3641,17	20,00
-3629,18	111,00
-3617,20	123,00
-3605,24	167,00
-3593,30	-143,00
-3581,37	21,00
-3569,47	12,00
-3557,58	52,00
-3545,71	28,00
-3533,86	-43,00
-3522,02	35,00
-3510,21	45,00
-3498,41	66,00
-3486,63	64,00
-3474,87	-42,00
-3463,12	188,00
-3451,40	77,00
-3439,69	114,00
-3428,00	124,00
-3416,33	97,00
-3404,67	69,00
-3393,03	111,00
-3381,41	29,00
-3369,81	-128,00
-3358,22	86,00
-3346,66	50,00
-3335,10	41,00
-3323,57	150,00
-3312,06	77,00
-3300,56	58,00
-3289,08	37,00
-3277,61	20,00
-3266,16	135,00
-3254,73	79,00
-3243,32	-15,00
-3231,92	25,00
-3220,55	15,00
-3209,18	9,00
-3197,84	23,00
-3186,51	22,00
-3175,20	126,00
-3163,90	-37,00
-3152,63	-38,00
-3141,36	66,00
-3130,12	132,00
-3118,89	-12,00
-3107,68	97,00
-3096,49	81,00
-3085,31	-9,00
-3074,15	-32,00
-3063,00	5,00
-3051,87	93,00
-3040,76	7,00
-3029,67	17,00
-3018,59	-96,00
-3007,52	29,00
-2996,48	62,00
-2985,44	44,00
-2974,43	36,00
-2963,43	-21,00
-2952,45	18,00
-2941,48	19,00
-2930,53	43,00
-2919,60	-16,00
-2908,68	123,00
-2897,78	79,00
-2886,89	18,00
-2876,02	61,00
-2865,17	86,00
-2854,33	51,00
-2843,50	39,00
-2832,70	24,00
-2821,90	13,00
-2811,13	14,00
-2800,37	-63,00
-2789,62	25,00
-2778,89	109,00
-2768,18	109,00
-2757,48	102,00
-2746,80	-20,00
-2736,13	-85,00
-2725,48	25,00
-2714,84	-92,00
-2704,22	47,00
-2693,61	-89,00
-2683,02	-46,00
-2672,45	95,00
-2661,89	64,00
-2651,34	-65,00
-2640,81	38,00
-2630,30	97,00
-2619,80	76,00
-2609,31	-69,00
-2598,84	-25,00
-2588,39	67,00
-2577,95	1,00
-2567,52	39,00
-2557,11	-45,00
-2546,71	146,00
-2536,33	87,00
-2525,97	1,00
-2515,62	-78,00
-2505,28	81,00
-2494,96	101,00
-2484,65	14,00
-2474,36	314,00
-2464,08	-18,00
-2453,82	57,00
-2443,57	112,00
-2433,33	61,00
-2423,11	105,00
-2412,91	34,00
-2402,72	106,00
-2392,54	169,00
-2382,38	99,00
-2372,23	19,00
-2362,09	-4351,00
-2351,97	131,00
-2341,87	-18,00
-2331,78	83,00
-2321,70	-104,00
-2311,64	66,00
-2301,59	83,00
-2291,55	-45,00
-2281,53	-29,00
-2271,53	-38,00
-2261,53	77,00
-2251,55	91,00
-2241,59	64,00
-2231,64	-6,00
-2221,70	59,00
-2211,78	33,00
-2201,87	157,00
-2191,97	-16,00
-2182,09	-1,00
-2172,22	101,00
-2162,37	-12,00
-2152,53	52,00
-2142,70	-62,00
-2132,89	-2,00
-2123,09	-56,00
-2113,30	58,00
-2103,53	37,00
-2093,77	16,00
-2084,02	73,00
-2074,29	-6,00
-2064,57	9,00
-2054,86	39,00
-2045,17	-114,00
-2035,49	-23,00
-2025,82	-17,00
-2016,17	-41,00
-2006,53	94,00
-1996,91	23,00
-1987,29	39,00
-1977,69	38,00
-1968,11	-11,00
-1958,53	8,00
-1948,97	-5,00
-1939,42	117,00
-1929,89	-22,00
-1920,37	46,00
-1910,86	55,00
-1901,36	90,00
-1891,88	33,00
-1882,41	-48,00
-1872,95	88,00
-1863,51	-42,00
-1854,08	11,00
-1844,66	27,00
-1835,26	108,00
-1825,86	13,00
-1816,48	26,00
-1807,11	-20,00
-1797,76	56,00
-1788,42	-74,00
-1779,09	35,00
-1769,77	36,00
-1760,47	75,00
-1751,17	11,00
-1741,89	0,00
-1732,63	75,00
-1723,37	137,00
-1714,13	-5,00
-1704,90	-48,00
-1695,68	7,00
-1686,48	19,00
-1677,29	95,00
-1668,11	170,00
-1658,94	68,00
-1649,78	-53,00
-1640,64	101,00
-1631,51	44,00
-1622,39	-55,00
-1613,28	-31,00
-1604,19	1,00
-1595,10	-7,00
-1586,03	-75,00
-1576,97	-20,00
-1567,93	92,00
-1558,89	-19,00
-1549,87	-56,00
-1540,86	-18,00
-1531,86	43,00
-1522,87	42,00
-1513,90	46,00
-1504,93	-141,00
-1495,98	84,00
-1487,04	135,00
-1478,12	45,00
-1469,20	-31,00
-1460,30	-15,00
-1451,40	92,00
-1442,52	70,00
-1433,65	21,00
-1424,80	184,00
-1415,95	16,00
-1407,12	48,00
-1398,30	150,00
-1389,48	91,00
-1380,69	38,00
-1371,90	-19,00
-1363,12	137,00
-1354,36	-3,00
-1345,60	31,00
-1336,86	-93,00
-1328,13	16,00
-1319,41	45,00
-1310,70	69,00
-1302,01	-21,00
-1293,32	-55,00
-1284,65	178,00
-1275,99	-21,00
-1267,33	12,00
-1258,69	43,00
-1250,06	82,00
-1241,45	50,00
-1232,84	82,00
-1224,25	-49,00
-1215,66	112,00
-1207,09	76,00
-1198,53	50,00
-1189,97	188,00
-1181,43	10,00
-1172,91	-48,00
-1164,39	50,00
-1155,88	98,00
-1147,38	-6,00
-1138,90	14,00
-1130,43	20,00
-1121,96	136,00
-1113,51	83,00
-1105,07	-1,00
-1096,64	15,00
-1088,22	19,00
-1079,81	60,00
-1071,41	34,00
-1063,02	128,00
-1054,65	99,00
-1046,28	-7,00
-1037,92	-44,00
-1029,58	83,00
-1021,24	-14,00
-1012,92	115,00
-1004,61	-23,00
-996,30	138,00
-988,01	12,00
-979,73	-16,00
-971,46	89,00
-963,20	-24,00
-954,95	39,00
-946,71	15,00
-938,48	-73,00
-930,26	-41,00
-922,06	-52,00
-913,86	-60,00
-905,67	20,00
-897,49	-52,00
-889,33	20,00
-881,17	-100,00
-873,02	-39,00
-864,89	138,00
-856,76	93,00
-848,65	118,00
-840,54	-93,00
-832,45	-138,00
-824,36	40,00
-816,29	29,00
-808,22	-13,00
-800,17	-84,00
-792,12	149,00
-784,09	-34,00
-776,06	25,00
-768,05	127,00
-760,04	-30,00
-752,05	54,00
-744,07	-56,00
-736,09	-28,00
-728,13	34,00
-720,17	-71,00
-712,23	4,00
-704,29	56,00
-696,37	36,00
-688,45	95,00
-680,55	-33,00
-672,65	92,00
-664,77	98,00
-656,89	-59,00
-649,03	76,00
-641,17	-21,00
-633,32	-11,00
-625,49	32,00
-617,66	81,00
-609,84	-33,00
-602,03	73,00
-594,23	59,00
-586,45	20,00
-578,67	19,00
-570,90	28,00
-563,14	85,00
-555,39	49,00
-547,65	119,00
-539,91	31,00
-532,19	-3,00
-524,48	83,00
-516,78	-27,00
-509,08	106,00
-501,40	101,00
-493,72	31,00
-486,06	-14,00
-478,40	-14,00
-470,76	153,00
-463,12	111,00
-455,49	-65,00
-447,87	76,00
-440,26	-54,00
-432,66	2,00
-425,07	38,00
-417,49	70,00
-409,92	56,00
-402,35	128,00
-394,80	46,00
-387,25	19,00
-379,72	23,00
-372,19	123,00
-364,67	160,00
-357,17	227,00
-349,67	73,00
-342,18	7,00
-334,69	-41,00
-327,22	-101,00
-319,76	-46,00
-312,30	190,00
-304,86	198,00
-297,42	29,00
-290,00	9,00
-282,58	77,00
-275,17	97,00
-267,77	46,00
-260,37	127,00
-252,99	165,00
-245,62	-94,00
-238,25	51,00
-230,90	53,00
-223,55	10,00
-216,21	88,00
-208,88	155,00
-201,56	204,00
-194,25	196,00
-186,94	204,00
-179,65	144,00
-172,36	292,00
-165,08	323,00
-157,81	116,00
-150,55	345,00
-143,30	277,00
-136,06	324,00
-128,82	431,00
-121,60	410,00
-114,38	364,00
-107,17	487,00
-99,97	579,00
-92,78	582,00
-85,60	664,00
-78,42	931,00
-71,25	935,00
-64,10	1216,00
-56,95	1310,00
-49,81	1462,00
-42,67	1870,00
-35,55	2353,00
-28,43	3156,00
-21,33	5147,00
-14,23	17241,00
-7,14	55164,00
-0,05	54791,00
7,02	54542,00
14,09	54846,00
21,14	15577,00
28,19	6387,00
35,23	3895,00
42,27	2988,00
49,29	2538,00
56,31	2066,00
63,32	1689,00
70,32	1420,00
77,31	1292,00
84,29	1036,00
91,27	995,00
98,23	775,00
105,19	695,00
112,14	900,00
119,09	1185,00
126,02	1803,00
132,95	2155,00
139,87	2317,00
146,78	2184,00
153,68	2106,00
160,58	2169,00
167,46	2143,00
174,34	2072,00
181,21	2173,00
188,08	2113,00
194,93	1812,00
201,78	1905,00
208,62	1948,00
215,45	2064,00
222,27	2079,00
229,09	1912,00
235,90	1958,00
242,70	1884,00
249,49	1814,00
256,27	1803,00
263,05	1944,00
269,82	1902,00
276,58	1787,00
283,33	1751,00
290,08	1890,00
296,82	1808,00
303,55	1759,00
310,27	1715,00
316,98	1633,00
323,69	1842,00
330,39	1651,00
337,08	1732,00
343,76	1590,00
350,44	1638,00
357,11	1678,00
363,77	1737,00
370,42	1555,00
377,07	1765,00
383,71	1629,00
390,34	1594,00
396,96	1608,00
403,58	1557,00
410,19	1626,00
416,79	1558,00
423,38	1603,00
429,97	1535,00
436,55	1543,00
443,12	1496,00
449,68	1451,00
456,24	1372,00
462,79	1287,00
469,33	1349,00
475,86	1320,00
482,39	1373,00
488,91	1362,00
495,42	1375,00
501,93	1371,00
508,42	1314,00
514,91	1434,00
521,40	1348,00
527,87	1320,00
534,34	1266,00
540,80	1325,00
547,25	1251,00
553,70	1257,00
560,14	1239,00
566,57	1347,00
573,00	1261,00
579,41	1326,00
585,83	1194,00
592,23	1256,00
598,62	1243,00
605,01	1203,00
611,40	1321,00
617,77	1267,00
624,14	1210,00
630,50	1174,00
636,85	1181,00
643,20	1234,00
649,54	1191,00
655,87	1162,00
662,20	1099,00
668,52	1138,00
674,83	1015,00
681,13	1143,00
687,43	926,00
693,72	1027,00
700,00	1108,00
706,28	1112,00
712,55	1111,00
718,81	1189,00
725,07	1184,00
731,32	1031,00
737,56	1052,00
743,79	1046,00
750,02	1129,00
756,24	1097,00
762,46	995,00
768,67	1118,00
774,87	956,00
781,06	1039,00
787,25	1140,00
793,43	1069,00
799,60	1002,00
805,77	1048,00
811,93	1076,00
818,08	1017,00
824,23	1205,00
830,37	1090,00
836,50	1057,00
842,63	1108,00
848,75	1046,00
854,87	1051,00
860,97	1058,00
867,07	1127,00
873,17	1006,00
879,25	925,00
885,33	1116,00
891,41	1054,00
897,47	998,00
903,53	1110,00
909,59	973,00
915,63	976,00
921,67	904,00
927,71	851,00
933,74	1002,00
939,76	898,00
945,77	768,00
951,78	864,00
957,78	877,00
963,78	936,00
969,77	770,00
975,75	927,00
981,72	899,00
987,69	861,00
993,66	937,00
999,61	783,00
1005,56	945,00
1011,51	1004,00
1017,44	912,00
1023,37	980,00
1029,30	905,00
1035,22	955,00
1041,13	910,00
1047,03	854,00
1052,93	1015,00
1058,83	1254,00
1064,71	1285,00
1070,59	1162,00
1076,47	951,00
1082,33	1003,00
1088,20	1103,00
1094,05	802,00
1099,90	913,00
1105,74	887,00
1111,58	950,00
1117,41	1001,00
1123,23	1202,00
1129,05	1230,00
1134,86	1148,00
1140,67	892,00
1146,47	912,00
1152,26	913,00
1158,05	768,00
1163,83	882,00
1169,60	868,00
1175,37	728,00
1181,13	810,00
1186,89	827,00
1192,64	785,00
1198,38	806,00
1204,12	795,00
1209,85	737,00
1215,58	937,00
1221,30	748,00
1227,02	857,00
1232,72	935,00
1238,43	794,00
1244,12	792,00
1249,81	865,00
1255,50	1068,00
1261,17	883,00
1266,85	816,00
1272,51	911,00
1278,17	927,00
1283,83	1020,00
1289,47	1352,00
1295,12	1534,00
1300,75	1363,00
1306,38	1174,00
1312,01	1091,00
1317,63	872,00
1323,24	942,00
1328,85	1080,00
1334,45	972,00
1340,04	853,00
1345,63	1045,00
1351,22	957,00
1356,80	921,00
1362,37	795,00
1367,93	876,00
1373,49	933,00
1379,05	838,00
1384,60	944,00
1390,14	900,00
1395,68	887,00
1401,21	777,00
1406,74	928,00
1412,26	1008,00
1417,77	904,00
1423,28	1120,00
1428,78	1109,00
1434,28	1394,00
1439,77	1461,00
1445,26	1529,00
1450,74	1467,00
1456,22	1301,00
1461,68	1411,00
1467,15	1183,00
1472,61	989,00
1478,06	989,00
1483,51	980,00
1488,95	901,00
1494,38	868,00
1499,81	940,00
1505,24	723,00
1510,65	734,00
1516,07	811,00
1521,48	845,00
1526,88	777,00
1532,27	734,00
1537,67	857,00
1543,05	722,00
1548,43	785,00
1553,81	886,00
1559,18	784,00
1564,54	700,00
1569,90	731,00
1575,25	726,00
1580,60	755,00
1585,94	666,00
1591,28	750,00
1596,61	730,00
1601,93	698,00
1607,25	689,00
1612,57	747,00
1617,88	894,00
1623,18	704,00
1628,48	617,00
1633,77	708,00
1639,06	659,00
1644,34	698,00
1649,62	749,00
1654,89	675,00
1660,16	603,00
1665,42	655,00
1670,67	591,00
1675,92	560,00
1681,17	644,00
1686,41	650,00
1691,64	545,00
1696,87	647,00
1702,10	450,00
1707,32	621,00
1712,53	601,00
1717,74	601,00
1722,94	432,00
1728,14	525,00
1733,33	610,00
1738,52	563,00
1743,70	539,00
1748,88	518,00
1754,05	656,00
1759,22	549,00
1764,38	-967,00
1769,53	577,00
1774,69	596,00
1779,83	591,00
1784,97	510,00
1790,11	489,00
1795,24	676,00
1800,36	556,00
1805,48	435,00
1810,60	556,00
1815,71	465,00
1820,82	549,00
1825,92	463,00
1831,01	632,00
1836,10	496,00
1841,19	444,00
1846,26	634,00
1851,34	500,00
1856,41	531,00
1861,47	463,00
1866,53	495,00
1871,59	413,00
1876,64	382,00
1881,68	368,00
1886,72	455,00
1891,76	458,00
1896,79	414,00
1901,81	520,00
1906,83	463,00
1911,85	481,00
1916,86	476,00
1921,86	466,00
1926,86	383,00
1931,86	514,00
1936,85	329,00
1941,83	509,00
1946,81	318,00
1951,79	461,00
1956,76	336,00
1961,72	300,00
1966,68	433,00
1971,64	361,00
1976,59	364,00
1981,54	326,00
1986,48	304,00
1991,42	390,00
1996,35	475,00
2001,27	320,00
2006,20	391,00
2011,11	400,00
2016,03	411,00
2020,93	191,00
2025,84	357,00
2030,73	335,00
2035,63	356,00
2040,52	425,00
2045,40	455,00
2050,28	313,00
2055,15	241,00
2060,02	431,00
2064,89	406,00
2069,75	395,00
2074,60	311,00
2079,46	357,00
2084,30	340,00
2089,14	340,00
2093,98	330,00
2098,81	315,00
2103,64	315,00
2108,46	193,00
2113,28	320,00
2118,09	206,00
2122,90	322,00
2127,70	294,00
2132,50	311,00
2137,30	272,00
2142,09	303,00
2146,87	350,00
2151,66	301,00
2156,43	285,00
2161,20	217,00
2165,97	214,00
2170,73	346,00
2175,49	372,00
2180,24	337,00
2184,99	440,00
2189,74	274,00
2194,48	263,00
2199,21	308,00
2203,94	234,00
2208,67	209,00
2213,39	303,00
2218,11	209,00
2222,82	338,00
2227,53	305,00
2232,23	274,00
2236,93	322,00
2241,63	222,00
2246,32	295,00
2251,00	311,00
2255,68	331,00
2260,36	208,00
2265,03	292,00
2269,70	150,00
2274,36	183,00
2279,02	235,00
2283,68	161,00
2288,33	264,00
2292,97	166,00
2297,61	299,00
2302,25	280,00
2306,88	256,00
2311,51	205,00
2316,14	246,00
2320,75	314,00
2325,37	267,00
2329,98	298,00
2334,59	316,00
2339,19	191,00
2343,79	160,00
2348,38	122,00
2352,97	187,00
2357,55	144,00
2362,13	193,00
2366,71	319,00
2371,28	285,00
2375,85	365,00
2380,41	274,00
2384,97	171,00
2389,52	112,00
2394,07	127,00
2398,62	157,00
2403,16	204,00
2407,70	312,00
2412,23	333,00
2416,76	213,00
2421,29	222,00
2425,81	246,00
2430,32	270,00
2434,84	175,00
2439,34	226,00
2443,85	142,00
2448,35	163,00
2452,84	108,00
2457,33	84,00
2461,82	280,00
2466,30	228,00
2470,78	140,00
2475,25	253,00
2479,72	224,00
2484,19	176,00
2488,65	248,00
2493,11	159,00
2497,56	227,00
2502,01	238,00
2506,46	223,00
2510,90	80,00
2515,34	180,00
2519,77	91,00
2524,20	222,00
2528,62	56,00
2533,04	315,00
2537,46	135,00
2541,87	224,00
2546,28	174,00
2550,68	176,00
2555,08	116,00
2559,48	239,00
2563,87	78,00
2568,26	131,00
2572,64	153,00
2577,02	357,00
2581,40	197,00
2585,77	162,00
2590,14	154,00
2594,50	66,00
2598,86	150,00
2603,22	145,00
2607,57	236,00
2611,92	126,00
2616,26	122,00
2620,60	243,00
2624,94	139,00
2629,27	216,00
2633,60	121,00
2637,92	219,00
2642,24	131,00
2646,56	33,00
2650,87	133,00
2655,18	161,00
2659,48	271,00
2663,78	192,00
2668,08	214,00
2672,37	333,00
2676,66	163,00
2680,95	323,00
2685,23	66,00
2689,50	239,00
2693,78	178,00
2698,05	256,00
2702,31	152,00
2706,57	159,00
2710,83	295,00
2715,08	205,00
2719,33	362,00
2723,58	316,00
2727,82	271,00
2732,06	248,00
2736,29	193,00
2740,53	201,00
2744,75	192,00
2748,97	147,00
2753,19	295,00
2757,41	197,00
2761,62	204,00
2765,83	222,00
2770,03	111,00
2774,23	226,00
2778,43	294,00
2782,62	235,00
2786,81	215,00
2791,00	162,00
2795,18	361,00
2799,35	100,00
2803,53	353,00
2807,70	399,00
2811,86	288,00
2816,03	302,00
2820,19	356,00
2824,34	265,00
2828,49	532,00
2832,64	467,00
2836,78	490,00
2840,92	741,00
2845,06	811,00
2849,19	856,00
2853,32	931,00
2857,45	872,00
2861,57	1058,00
2865,69	920,00
2869,80	1019,00
2873,91	1006,00
2878,02	1041,00
2882,12	1035,00
2886,22	1010,00
2890,32	971,00
2894,41	959,00
2898,50	896,00
2902,58	777,00
2906,67	695,00
2910,74	744,00
2914,82	702,00
2918,89	657,00
2922,96	701,00
2927,02	565,00
2931,08	553,00
2935,13	501,00
2939,19	476,00
2943,24	460,00
2947,28	331,00
2951,32	246,00
2955,36	332,00
2959,40	338,00
2963,43	265,00
2967,46	235,00
2971,48	283,00
2975,50	217,00
2979,52	211,00
2983,53	218,00
2987,54	211,00
2991,55	182,00
2995,55	110,00
2999,55	138,00
3003,54	181,00
3007,54	52,00
3011,53	91,00
3015,51	101,00
3019,49	56,00
3023,47	156,00
3027,45	219,00
3031,42	192,00
3035,39	82,00
3039,35	223,00
3043,31	-2,00
3047,27	151,00
3051,22	93,00
3055,17	93,00
3059,12	5,00
3063,06	133,00
3067,00	-8,00
3070,94	54,00
3074,87	48,00
3078,80	219,00
3082,73	50,00
3086,65	74,00
3090,57	-43,00
3094,49	87,00
3098,40	119,00
3102,31	175,00
3106,22	62,00
3110,12	40,00
3114,02	182,00
3117,92	93,00
3121,81	127,00
3125,70	34,00
3129,58	123,00
3133,47	52,00
3137,34	27,00
3141,22	137,00
3145,09	152,00
3148,96	110,00
3152,83	16,00
3156,69	69,00
3160,55	110,00
3164,40	-8,00
3168,26	12,00
3172,10	179,00
3175,95	93,00
3179,79	114,00
3183,63	106,00
3187,47	178,00
3191,30	75,00
3195,13	186,00
3198,95	31,00
3202,78	77,00
3206,60	129,00
3210,41	-12,00
3214,23	108,00
3218,03	46,00
3221,84	164,00
3225,64	-26,00
3229,44	85,00
3233,24	157,00
3237,03	117,00
3240,82	-60,00
3244,61	-43,00
3248,39	-99,00
3252,17	65,00
3255,95	67,00
3259,72	76,00
3263,49	8,00
3267,26	72,00
3271,03	59,00
3274,79	12,00
3278,54	183,00
3282,30	30,00
3286,05	146,00
3289,80	35,00
3293,54	48,00
3297,29	102,00
3301,02	-2,00
3304,76	109,00
3308,49	101,00
3312,22	-44,00
3315,95	27,00
3319,67	-66,00
3323,39	69,00
3327,10	48,00
3330,82	97,00
3334,53	85,00
3338,24	9,00
3341,94	66,00
3345,64	69,00
3349,34	39,00
3353,03	56,00
3356,72	91,00
3360,41	26,00
3364,10	133,00
3367,78	21,00
3371,46	106,00
3375,13	76,00
3378,81	52,00
3382,48	-53,00
3386,14	173,00
3389,81	-39,00
3393,47	6,00
3397,12	102,00
3400,78	85,00
3404,43	127,00
3408,08	32,00
3411,72	32,00
3415,36	-18,00
3419,00	-61,00
3422,64	-96,00
3426,27	74,00
3429,90	69,00
3433,53	50,00
3437,15	74,00
3440,77	50,00
3444,39	16,00
3448,00	-47,00
3451,62	215,00
3455,22	82,00
3458,83	27,00
3462,43	88,00
3466,03	20,00
3469,63	5,00
3473,22	0,00
3476,81	-48,00
3480,40	91,00
3483,99	119,00
3487,57	75,00
3491,15	-26,00
3494,72	15,00
3498,29	118,00
3501,86	25,00
3505,43	42,00
3508,99	-28,00
3512,56	29,00
3516,11	15,00
3519,67	55,00
3523,22	110,00
3526,77	65,00
3530,32	35,00
3533,86	-37,00
3537,40	121,00
3540,94	69,00
3544,47	-77,00
3548,00	130,00
3551,53	96,00
3555,06	90,00
3558,58	46,00
3562,10	13,00
3565,62	89,00
3569,13	0,00
3572,64	120,00
3576,15	22,00
3579,66	14,00
3583,16	42,00
3586,66	-51,00
3590,16	34,00
3593,65	124,00
3597,14	-52,00
3600,63	116,00
3604,11	-27,00
3607,60	24,00
3611,08	54,00
3614,55	-39,00
3618,03	12,00
3621,50	-25,00
3624,97	63,00
3628,43	-10,00
3631,90	-95,00
3635,36	109,00
3638,81	76,00
3642,27	11,00
3645,72	59,00
3649,17	-3,00
3652,61	22,00
3656,06	-23,00
3659,50	145,00
3662,93	-10,00
3666,37	2,00
3669,80	40,00
3673,23	17,00
3676,65	5,00
3680,08	-65,00
3683,50	136,00
3686,92	-30,00
3690,33	27,00
3693,74	16,00
3697,15	35,00
3700,56	53,00
3703,96	-138,00
3707,36	-106,00
3710,76	48,00
3714,16	34,00
3717,55	5,00
3720,94	18,00
3724,33	60,00
3727,71	-15,00
3731,10	44,00
3734,48	-89,00
3737,85	25,00
3741,23	-58,00
3744,60	-68,00
3747,97	-106,00
3751,33	99,00
3754,69	144,00
3758,05	104,00
3761,41	-79,00
3764,77	73,00
3768,12	-14,00
3771,47	43,00
3774,82	-6,00
3778,16	1,00
3781,50	-1,00
3784,84	3,00
3788,18	5,00
>>>>>End Processed Spectral Data<<<<<
