SpectraSuite Data File
++++++++++++++++++++++++++++++++++++
Date: Mon Mar 09 16:03:30 ICT 2026
User: Administrator
Dark Spectrum Present: Yes
Reference Spectrum Present: No
Number of Sampled Component Spectra: 1
Spectrometers: MAYP113682
Integration Time (usec): 3000000 (MAYP113682)
Spectra Averaged: 1 (MAYP113682)
Boxcar Smoothing: 0 (MAYP113682)
Correct for Electrical Dark: No (MAYP113682)
Strobe/Lamp Enabled: No (MAYP113682)
Correct for Detector Non-linearity: No (MAYP113682)
Correct for Stray Light: No (MAYP113682)
Number of Pixels in Processed Spectrum: 2068
>>>>>Begin Processed Spectral Data<<<<<
-37534,58	-3,00
-37414,56	-1,00
-37295,11	4,00
-37176,24	2,00
-37057,95	123,00
-36940,22	17,00
-36823,05	90,00
-36706,45	182,00
-36590,40	77,00
-36474,90	-50,00
-36359,95	114,00
-36245,55	2,00
-36131,68	-10,00
-36018,35	10,00
-35905,55	81,00
-35793,29	87,00
-35681,54	125,00
-35570,32	27,00
-35459,62	160,00
-35349,43	29,00
-35239,75	149,00
-35130,58	110,00
-35021,91	110,00
-34913,74	10,00
-34806,07	95,00
-34698,89	109,00
-34592,20	92,00
-34486,00	45,00
-34380,28	93,00
-34275,04	-35,00
-34170,27	28,00
-34065,98	99,00
-33962,16	142,00
-33858,81	186,00
-33755,92	139,00
-33653,49	53,00
-33551,52	112,00
-33450,01	100,00
-33348,94	24,00
-33248,33	16,00
-33148,16	37,00
-33048,43	24,00
-32949,14	-3,00
-32850,29	122,00
-32751,87	12,00
-32653,89	138,00
-32556,33	-20,00
-32459,20	120,00
-32362,49	87,00
-32266,19	37,00
-32170,32	109,00
-32074,86	215,00
-31979,82	113,00
-31885,18	6,00
-31790,95	53,00
-31697,12	68,00
-31603,69	136,00
-31510,67	37,00
-31418,04	91,00
-31325,80	111,00
-31233,95	89,00
-31142,49	118,00
-31051,42	188,00
-30960,73	128,00
-30870,43	132,00
-30780,50	-62,00
-30690,95	13,00
-30601,77	-7,00
-30512,97	82,00
-30424,53	32,00
-30336,46	94,00
-30248,76	75,00
-30161,42	70,00
-30074,44	62,00
-29987,81	2,00
-29901,55	67,00
-29815,63	18,00
-29730,07	72,00
-29644,86	68,00
-29560,00	73,00
-29475,48	51,00
-29391,30	60,00
-29307,47	122,00
-29223,97	30,00
-29140,81	170,00
-29057,99	18,00
-28975,50	138,00
-28893,34	109,00
-28811,51	105,00
-28730,00	61,00
-28648,82	111,00
-28567,97	87,00
-28487,43	48,00
-28407,21	76,00
-28327,32	61,00
-28247,73	154,00
-28168,46	54,00
-28089,50	10,00
-28010,85	67,00
-27932,51	46,00
-27854,48	-17,00
-27776,75	43,00
-27699,32	40,00
-27622,19	49,00
-27545,37	22,00
-27468,84	111,00
-27392,60	143,00
-27316,66	-7,00
-27241,01	65,00
-27165,66	97,00
-27090,59	195,00
-27015,81	50,00
-26941,31	38,00
-26867,10	4,00
-26793,17	127,00
-26719,52	63,00
-26646,15	33,00
-26573,06	8,00
-26500,24	-18,00
-26427,70	74,00
-26355,43	217,00
-26283,43	167,00
-26211,71	121,00
-26140,25	183,00
-26069,06	40,00
-25998,13	30,00
-25927,46	112,00
-25857,06	21,00
-25786,92	-63,00
-25717,04	72,00
-25647,42	75,00
-25578,05	74,00
-25508,94	115,00
-25440,09	125,00
-25371,48	44,00
-25303,13	171,00
-25235,02	104,00
-25167,17	111,00
-25099,56	108,00
-25032,19	-54,00
-24965,07	148,00
-24898,20	30,00
-24831,56	55,00
-24765,17	129,00
-24699,01	89,00
-24633,10	22,00
-24567,41	9,00
-24501,97	31,00
-24436,75	-94,00
-24371,77	23,00
-24307,03	-10,00
-24242,51	110,00
-24178,22	-1,00
-24114,16	-45,00
-24050,32	136,00
-23986,71	126,00
-23923,32	182,00
-23860,16	80,00
-23797,22	62,00
-23734,50	83,00
-23672,00	148,00
-23609,71	160,00
-23547,65	104,00
-23485,80	45,00
-23424,16	7,00
-23362,74	42,00
-23301,53	-23,00
-23240,54	159,00
-23179,75	97,00
-23119,17	123,00
-23058,80	101,00
-22998,64	84,00
-22938,68	60,00
-22878,93	61,00
-22819,39	104,00
-22760,04	75,00
-22700,90	5,00
-22641,96	26,00
-22583,22	210,00
-22524,68	107,00
-22466,33	49,00
-22408,19	-101,00
-22350,23	-22,00
-22292,48	128,00
-22234,92	52,00
-22177,55	144,00
-22120,37	24,00
-22063,38	213,00
-22006,58	163,00
-21949,98	60,00
-21893,56	65,00
-21837,33	5,00
-21781,28	179,00
-21725,42	125,00
-21669,74	49,00
-21614,25	-14,00
-21558,94	48,00
-21503,81	185,00
-21448,86	83,00
-21394,10	12,00
-21339,51	4,00
-21285,10	32,00
-21230,86	34,00
-21176,81	111,00
-21122,93	170,00
-21069,22	104,00
-21015,69	-44,00
-20962,33	62,00
-20909,14	54,00
-20856,13	160,00
-20803,28	23,00
-20750,61	15,00
-20698,10	221,00
-20645,76	85,00
-20593,59	44,00
-20541,59	114,00
-20489,75	97,00
-20438,07	139,00
-20386,56	100,00
-20335,22	101,00
-20284,03	83,00
-20233,01	5,00
-20182,15	11,00
-20131,45	148,00
-20080,91	8,00
-20030,52	83,00
-19980,30	-11,00
-19930,23	121,00
-19880,32	28,00
-19830,56	117,00
-19780,96	103,00
-19731,52	5,00
-19682,23	101,00
-19633,09	117,00
-19584,10	-26,00
-19535,26	99,00
-19486,58	-3,00
-19438,04	195,00
-19389,66	14,00
-19341,42	57,00
-19293,33	32,00
-19245,39	52,00
-19197,60	49,00
-19149,95	104,00
-19102,45	18,00
-19055,09	84,00
-19007,87	27,00
-18960,80	23,00
-18913,87	90,00
-18867,09	11,00
-18820,44	122,00
-18773,94	9,00
-18727,57	-11,00
-18681,35	81,00
-18635,26	7,00
-18589,31	109,00
-18543,50	68,00
-18497,83	142,00
-18452,29	96,00
-18406,89	33,00
-18361,63	34,00
-18316,50	95,00
-18271,50	93,00
-18226,63	103,00
-18181,90	53,00
-18137,30	-133,00
-18092,84	75,00
-18048,50	86,00
-18004,29	35,00
-17960,22	79,00
-17916,27	-16,00
-17872,45	20,00
-17828,76	134,00
-17785,20	77,00
-17741,77	106,00
-17698,46	-63,00
-17655,28	53,00
-17612,22	88,00
-17569,29	138,00
-17526,48	113,00
-17483,79	206,00
-17441,23	72,00
-17398,79	142,00
-17356,48	110,00
-17314,28	83,00
-17272,21	38,00
-17230,26	21,00
-17188,42	102,00
-17146,71	67,00
-17105,12	144,00
-17063,64	14,00
-17022,28	10,00
-16981,04	48,00
-16939,92	81,00
-16898,91	132,00
-16858,02	81,00
-16817,25	95,00
-16776,59	-4,00
-16736,04	4,00
-16695,61	10,00
-16655,29	-1,00
-16615,09	-71,00
-16574,99	96,00
-16535,01	18,00
-16495,15	81,00
-16455,39	-6,00
-16415,74	25,00
-16376,21	-33,00
-16336,78	74,00
-16297,46	73,00
-16258,26	86,00
-16219,16	71,00
-16180,17	-117,00
-16141,28	20,00
-16102,51	190,00
-16063,84	84,00
-16025,27	141,00
-15986,82	-72,00
-15948,46	156,00
-15910,22	-43,00
-15872,07	190,00
-15834,04	72,00
-15796,10	68,00
-15758,27	133,00
-15720,54	145,00
-15682,91	28,00
-15645,39	164,00
-15607,97	81,00
-15570,64	54,00
-15533,42	93,00
-15496,30	92,00
-15459,28	191,00
-15422,36	34,00
-15385,54	-18,00
-15348,82	32,00
-15312,19	120,00
-15275,66	36,00
-15239,23	20,00
-15202,90	116,00
-15166,67	131,00
-15130,53	57,00
-15094,48	93,00
-15058,54	99,00
-15022,68	93,00
-14986,93	101,00
-14951,26	164,00
-14915,69	-6,00
-14880,22	147,00
-14844,84	3,00
-14809,55	89,00
-14774,35	32,00
-14739,25	81,00
-14704,24	80,00
-14669,32	-134,00
-14634,49	205,00
-14599,75	-19,00
-14565,10	108,00
-14530,55	2,00
-14496,08	133,00
-14461,70	11,00
-14427,41	-34,00
-14393,21	135,00
-14359,10	156,00
-14325,07	71,00
-14291,14	55,00
-14257,29	28,00
-14223,52	74,00
-14189,85	103,00
-14156,26	132,00
-14122,76	185,00
-14089,34	46,00
-14056,01	118,00
-14022,76	28,00
-13989,60	120,00
-13956,52	78,00
-13923,53	-18,00
-13890,62	92,00
-13857,79	-22,00
-13825,05	58,00
-13792,39	117,00
-13759,81	157,00
-13727,31	159,00
-13694,90	121,00
-13662,57	49,00
-13630,31	100,00
-13598,14	92,00
-13566,05	101,00
-13534,05	103,00
-13502,12	88,00
-13470,27	83,00
-13438,50	20,00
-13406,80	166,00
-13375,19	-53,00
-13343,66	50,00
-13312,20	80,00
-13280,83	79,00
-13249,53	82,00
-13218,30	107,00
-13187,16	49,00
-13156,09	28,00
-13125,10	46,00
-13094,18	187,00
-13063,34	194,00
-13032,58	-40,00
-13001,89	-26,00
-12971,28	58,00
-12940,74	66,00
-12910,27	48,00
-12879,88	85,00
-12849,57	50,00
-12819,33	19,00
-12789,16	47,00
-12759,06	113,00
-12729,04	209,00
-12699,09	108,00
-12669,21	94,00
-12639,41	52,00
-12609,68	-18,00
-12580,02	168,00
-12550,43	94,00
-12520,91	-66,00
-12491,46	53,00
-12462,08	-66,00
-12432,77	168,00
-12403,54	51,00
-12374,37	48,00
-12345,27	85,00
-12316,24	138,00
-12287,29	41,00
-12258,40	90,00
-12229,57	82,00
-12200,82	120,00
-12172,14	54,00
-12143,52	108,00
-12114,97	66,00
-12086,49	110,00
-12058,07	152,00
-12029,73	90,00
-12001,44	83,00
-11973,23	101,00
-11945,08	48,00
-11917,00	134,00
-11888,98	91,00
-11861,03	37,00
-11833,15	39,00
-11805,32	76,00
-11777,57	-56,00
-11749,88	111,00
-11722,25	124,00
-11694,69	76,00
-11667,19	8,00
-11639,75	-71,00
-11612,38	137,00
-11585,07	165,00
-11557,83	91,00
-11530,65	-50,00
-11503,53	125,00
-11476,47	175,00
-11449,48	131,00
-11422,54	20,00
-11395,67	102,00
-11368,86	48,00
-11342,11	-8,00
-11315,43	23,00
-11288,80	16,00
-11262,23	46,00
-11235,73	85,00
-11209,28	128,00
-11182,90	65,00
-11156,57	54,00
-11130,31	62,00
-11104,10	53,00
-11077,96	21,00
-11051,87	118,00
-11025,84	95,00
-10999,87	104,00
-10973,96	44,00
-10948,11	86,00
-10922,31	165,00
-10896,58	101,00
-10870,90	163,00
-10845,28	-38,00
-10819,71	72,00
-10794,20	88,00
-10768,75	106,00
-10743,36	146,00
-10718,02	44,00
-10692,74	79,00
-10667,52	57,00
-10642,35	73,00
-10617,24	93,00
-10592,18	74,00
-10567,18	150,00
-10542,23	186,00
-10517,34	181,00
-10492,51	181,00
-10467,72	159,00
-10443,00	144,00
-10418,32	97,00
-10393,70	197,00
-10369,14	59,00
-10344,63	90,00
-10320,17	155,00
-10295,77	131,00
-10271,42	47,00
-10247,12	204,00
-10222,88	91,00
-10198,68	70,00
-10174,54	162,00
-10150,46	131,00
-10126,42	145,00
-10102,44	176,00
-10078,51	198,00
-10054,63	289,00
-10030,80	185,00
-10007,03	34,00
-9983,30	16,00
-9959,63	266,00
-9936,01	172,00
-9912,44	242,00
-9888,92	343,00
-9865,44	166,00
-9842,02	279,00
-9818,65	326,00
-9795,33	306,00
-9772,06	331,00
-9748,84	233,00
-9725,67	312,00
-9702,55	315,00
-9679,47	409,00
-9656,45	384,00
-9633,47	480,00
-9610,55	445,00
-9587,67	499,00
-9564,84	471,00
-9542,06	688,00
-9519,32	467,00
-9496,64	655,00
-9474,00	722,00
-9451,41	818,00
-9428,87	865,00
-9406,37	747,00
-9383,92	795,00
-9361,52	788,00
-9339,17	860,00
-9316,86	867,00
-9294,60	984,00
-9272,38	1152,00
-9250,21	1186,00
-9228,09	1213,00
-9206,01	1214,00
-9183,98	1041,00
-9162,00	1093,00
-9140,06	1022,00
-9118,16	1031,00
-9096,31	1144,00
-9074,51	1104,00
-9052,75	1136,00
-9031,04	1046,00
-9009,37	1056,00
-8987,74	850,00
-8966,16	910,00
-8944,63	731,00
-8923,14	880,00
-8901,69	703,00
-8880,29	788,00
-8858,93	807,00
-8837,61	869,00
-8816,34	874,00
-8795,11	853,00
-8773,92	853,00
-8752,78	833,00
-8731,68	807,00
-8710,62	784,00
-8689,61	791,00
-8668,63	829,00
-8647,70	962,00
-8626,82	915,00
-8605,97	753,00
-8585,17	830,00
-8564,41	764,00
-8543,69	655,00
-8523,01	606,00
-8502,37	739,00
-8481,78	765,00
-8461,23	891,00
-8440,71	900,00
-8420,24	854,00
-8399,81	844,00
-8379,42	912,00
-8359,08	897,00
-8338,77	750,00
-8318,50	826,00
-8298,27	703,00
-8278,09	755,00
-8257,94	784,00
-8237,83	805,00
-8217,76	820,00
-8197,74	841,00
-8177,75	794,00
-8157,80	834,00
-8137,89	729,00
-8118,02	680,00
-8098,19	539,00
-8078,40	713,00
-8058,65	775,00
-8038,93	763,00
-8019,26	889,00
-7999,62	743,00
-7980,02	560,00
-7960,46	627,00
-7940,94	586,00
-7921,46	600,00
-7902,01	463,00
-7882,60	586,00
-7863,23	544,00
-7843,90	661,00
-7824,61	644,00
-7805,35	644,00
-7786,13	614,00
-7766,95	727,00
-7747,80	610,00
-7728,69	554,00
-7709,62	628,00
-7690,59	611,00
-7671,59	720,00
-7652,63	726,00
-7633,70	682,00
-7614,81	590,00
-7595,96	549,00
-7577,15	599,00
-7558,37	654,00
-7539,62	563,00
-7520,91	791,00
-7502,24	649,00
-7483,60	603,00
-7465,00	549,00
-7446,44	488,00
-7427,91	458,00
-7409,41	495,00
-7390,95	403,00
-7372,53	409,00
-7354,14	489,00
-7335,78	404,00
-7317,46	520,00
-7299,18	550,00
-7280,92	455,00
-7262,71	580,00
-7244,52	702,00
-7226,38	625,00
-7208,26	693,00
-7190,18	490,00
-7172,14	641,00
-7154,12	639,00
-7136,15	665,00
-7118,20	599,00
-7100,29	621,00
-7082,41	683,00
-7064,57	618,00
-7046,76	521,00
-7028,98	540,00
-7011,24	415,00
-6993,53	370,00
-6975,85	412,00
-6958,20	277,00
-6940,59	367,00
-6923,01	413,00
-6905,46	500,00
-6887,94	414,00
-6870,46	3240,00
-6853,01	643,00
-6835,59	578,00
-6818,21	451,00
-6800,85	519,00
-6783,53	403,00
-6766,24	338,00
-6748,98	402,00
-6731,76	264,00
-6714,56	268,00
-6697,40	283,00
-6680,26	306,00
-6663,16	397,00
-6646,09	505,00
-6629,05	530,00
-6612,05	374,00
-6595,07	486,00
-6578,13	487,00
-6561,21	263,00
-6544,33	298,00
-6527,47	224,00
-6510,65	422,00
-6493,86	169,00
-6477,10	299,00
-6460,36	362,00
-6443,66	256,00
-6426,99	255,00
-6410,35	413,00
-6393,74	181,00
-6377,16	334,00
-6360,61	294,00
-6344,09	286,00
-6327,59	360,00
-6311,13	330,00
-6294,70	418,00
-6278,29	460,00
-6261,92	403,00
-6245,58	508,00
-6229,26	527,00
-6212,97	382,00
-6196,72	374,00
-6180,49	328,00
-6164,29	269,00
-6148,12	134,00
-6131,98	143,00
-6115,86	141,00
-6099,78	229,00
-6083,72	193,00
-6067,69	138,00
-6051,69	172,00
-6035,72	242,00
-6019,78	263,00
-6003,87	293,00
-5987,98	333,00
-5972,12	454,00
-5956,29	323,00
-5940,49	349,00
-5924,71	267,00
-5908,96	243,00
-5893,24	247,00
-5877,55	294,00
-5861,89	146,00
-5846,25	320,00
-5830,64	314,00
-5815,05	156,00
-5799,50	153,00
-5783,97	139,00
-5768,47	205,00
-5752,99	336,00
-5737,55	396,00
-5722,12	316,00
-5706,73	233,00
-5691,36	430,00
-5676,02	224,00
-5660,71	157,00
-5645,42	94,00
-5630,16	318,00
-5614,92	245,00
-5599,71	260,00
-5584,53	344,00
-5569,37	314,00
-5554,24	-613,00
-5539,14	233,00
-5524,06	166,00
-5509,01	227,00
-5493,98	332,00
-5478,98	203,00
-5464,00	160,00
-5449,05	306,00
-5434,13	261,00
-5419,23	217,00
-5404,36	120,00
-5389,51	289,00
-5374,69	274,00
-5359,89	505,00
-5345,12	427,00
-5330,37	295,00
-5315,65	385,00
-5300,95	252,00
-5286,28	183,00
-5271,63	312,00
-5257,01	323,00
-5242,41	202,00
-5227,84	189,00
-5213,29	255,00
-5198,76	120,00
-5184,26	179,00
-5169,79	139,00
-5155,33	113,00
-5140,91	257,00
-5126,51	318,00
-5112,13	305,00
-5097,77	224,00
-5083,44	291,00
-5069,13	152,00
-5054,85	153,00
-5040,59	301,00
-5026,36	397,00
-5012,15	238,00
-4997,96	258,00
-4983,80	258,00
-4969,66	168,00
-4955,54	151,00
-4941,44	310,00
-4927,37	383,00
-4913,33	339,00
-4899,30	414,00
-4885,30	308,00
-4871,33	295,00
-4857,37	287,00
-4843,44	215,00
-4829,53	226,00
-4815,65	227,00
-4801,79	142,00
-4787,95	227,00
-4774,13	217,00
-4760,34	71,00
-4746,56	77,00
-4732,82	99,00
-4719,09	138,00
-4705,38	246,00
-4691,70	366,00
-4678,04	325,00
-4664,41	310,00
-4650,79	113,00
-4637,20	176,00
-4623,63	138,00
-4610,08	290,00
-4596,56	249,00
-4583,05	248,00
-4569,57	173,00
-4556,11	184,00
-4542,67	18,00
-4529,25	101,00
-4515,86	315,00
-4502,49	338,00
-4489,13	254,00
-4475,80	290,00
-4462,49	163,00
-4449,21	262,00
-4435,94	207,00
-4422,70	170,00
-4409,47	201,00
-4396,27	260,00
-4383,09	156,00
-4369,93	188,00
-4356,79	168,00
-4343,67	48,00
-4330,58	136,00
-4317,50	209,00
-4304,45	118,00
-4291,41	148,00
-4278,40	183,00
-4265,41	86,00
-4252,44	94,00
-4239,49	199,00
-4226,55	134,00
-4213,65	136,00
-4200,76	271,00
-4187,89	72,00
-4175,04	204,00
-4162,21	52,00
-4149,40	129,00
-4136,61	14,00
-4123,85	-17,00
-4111,10	78,00
-4098,37	127,00
-4085,66	158,00
-4072,98	166,00
-4060,31	-132,00
-4047,66	46,00
-4035,04	68,00
-4022,43	88,00
-4009,84	-65,00
-3997,27	59,00
-3984,72	115,00
-3972,19	-21,00
-3959,69	115,00
-3947,20	168,00
-3934,73	69,00
-3922,27	63,00
-3909,84	29,00
-3897,43	39,00
-3885,04	132,00
-3872,67	54,00
-3860,31	34,00
-3847,98	-47,00
-3835,66	39,00
-3823,36	154,00
-3811,09	75,00
-3798,83	74,00
-3786,59	17,00
-3774,37	117,00
-3762,17	87,00
-3749,98	147,00
-3737,82	146,00
-3725,67	179,00
-3713,55	104,00
-3701,44	37,00
-3689,35	122,00
-3677,28	162,00
-3665,22	105,00
-3653,19	81,00
-3641,17	60,00
-3629,18	74,00
-3617,20	29,00
-3605,24	42,00
-3593,30	59,00
-3581,37	192,00
-3569,47	102,00
-3557,58	163,00
-3545,71	176,00
-3533,86	94,00
-3522,02	98,00
-3510,21	106,00
-3498,41	151,00
-3486,63	106,00
-3474,87	169,00
-3463,12	-54,00
-3451,40	78,00
-3439,69	156,00
-3428,00	74,00
-3416,33	72,00
-3404,67	65,00
-3393,03	103,00
-3381,41	94,00
-3369,81	-45,00
-3358,22	237,00
-3346,66	119,00
-3335,10	117,00
-3323,57	16,00
-3312,06	-16,00
-3300,56	98,00
-3289,08	146,00
-3277,61	46,00
-3266,16	37,00
-3254,73	7,00
-3243,32	3,00
-3231,92	-1,00
-3220,55	82,00
-3209,18	176,00
-3197,84	129,00
-3186,51	30,00
-3175,20	189,00
-3163,90	53,00
-3152,63	74,00
-3141,36	72,00
-3130,12	78,00
-3118,89	26,00
-3107,68	7,00
-3096,49	-36,00
-3085,31	85,00
-3074,15	32,00
-3063,00	123,00
-3051,87	109,00
-3040,76	131,00
-3029,67	44,00
-3018,59	61,00
-3007,52	-17,00
-2996,48	17,00
-2985,44	134,00
-2974,43	31,00
-2963,43	74,00
-2952,45	162,00
-2941,48	39,00
-2930,53	122,00
-2919,60	81,00
-2908,68	14,00
-2897,78	-63,00
-2886,89	140,00
-2876,02	-14,00
-2865,17	83,00
-2854,33	162,00
-2843,50	3,00
-2832,70	43,00
-2821,90	-68,00
-2811,13	94,00
-2800,37	30,00
-2789,62	38,00
-2778,89	18,00
-2768,18	146,00
-2757,48	-28,00
-2746,80	110,00
-2736,13	81,00
-2725,48	-9,00
-2714,84	48,00
-2704,22	157,00
-2693,61	137,00
-2683,02	128,00
-2672,45	56,00
-2661,89	94,00
-2651,34	172,00
-2640,81	172,00
-2630,30	-10,00
-2619,80	67,00
-2609,31	86,00
-2598,84	55,00
-2588,39	103,00
-2577,95	60,00
-2567,52	78,00
-2557,11	119,00
-2546,71	-45,00
-2536,33	67,00
-2525,97	-63,00
-2515,62	53,00
-2505,28	82,00
-2494,96	188,00
-2484,65	34,00
-2474,36	105,00
-2464,08	-90,00
-2453,82	104,00
-2443,57	113,00
-2433,33	-64,00
-2423,11	62,00
-2412,91	29,00
-2402,72	41,00
-2392,54	93,00
-2382,38	14,00
-2372,23	104,00
-2362,09	67,00
-2351,97	-171,00
-2341,87	115,00
-2331,78	102,00
-2321,70	59,00
-2311,64	-6,00
-2301,59	28,00
-2291,55	127,00
-2281,53	38,00
-2271,53	113,00
-2261,53	-23,00
-2251,55	111,00
-2241,59	23,00
-2231,64	41,00
-2221,70	91,00
-2211,78	108,00
-2201,87	-68,00
-2191,97	65,00
-2182,09	151,00
-2172,22	80,00
-2162,37	-6,00
-2152,53	100,00
-2142,70	173,00
-2132,89	119,00
-2123,09	156,00
-2113,30	4,00
-2103,53	-8,00
-2093,77	18,00
-2084,02	41,00
-2074,29	8,00
-2064,57	-23,00
-2054,86	10,00
-2045,17	20,00
-2035,49	18,00
-2025,82	114,00
-2016,17	69,00
-2006,53	190,00
-1996,91	-16,00
-1987,29	33,00
-1977,69	81,00
-1968,11	-31,00
-1958,53	173,00
-1948,97	11,00
-1939,42	-30,00
-1929,89	2,00
-1920,37	62,00
-1910,86	62,00
-1901,36	-57,00
-1891,88	47,00
-1882,41	7,00
-1872,95	-71,00
-1863,51	206,00
-1854,08	57,00
-1844,66	122,00
-1835,26	51,00
-1825,86	16,00
-1816,48	235,00
-1807,11	88,00
-1797,76	259,00
-1788,42	33,00
-1779,09	33,00
-1769,77	148,00
-1760,47	159,00
-1751,17	49,00
-1741,89	-11,00
-1732,63	152,00
-1723,37	56,00
-1714,13	-49,00
-1704,90	38,00
-1695,68	36,00
-1686,48	140,00
-1677,29	18,00
-1668,11	134,00
-1658,94	19,00
-1649,78	169,00
-1640,64	103,00
-1631,51	108,00
-1622,39	60,00
-1613,28	125,00
-1604,19	97,00
-1595,10	-13,00
-1586,03	137,00
-1576,97	-33,00
-1567,93	50,00
-1558,89	93,00
-1549,87	83,00
-1540,86	156,00
-1531,86	0,00
-1522,87	57,00
-1513,90	31,00
-1504,93	116,00
-1495,98	149,00
-1487,04	-18,00
-1478,12	165,00
-1469,20	-26,00
-1460,30	58,00
-1451,40	69,00
-1442,52	68,00
-1433,65	-29,00
-1424,80	24,00
-1415,95	99,00
-1407,12	101,00
-1398,30	26,00
-1389,48	74,00
-1380,69	60,00
-1371,90	194,00
-1363,12	104,00
-1354,36	44,00
-1345,60	-21,00
-1336,86	29,00
-1328,13	150,00
-1319,41	173,00
-1310,70	60,00
-1302,01	33,00
-1293,32	29,00
-1284,65	112,00
-1275,99	124,00
-1267,33	122,00
-1258,69	114,00
-1250,06	77,00
-1241,45	118,00
-1232,84	74,00
-1224,25	57,00
-1215,66	26,00
-1207,09	198,00
-1198,53	120,00
-1189,97	41,00
-1181,43	-41,00
-1172,91	17,00
-1164,39	134,00
-1155,88	98,00
-1147,38	149,00
-1138,90	-5,00
-1130,43	75,00
-1121,96	95,00
-1113,51	111,00
-1105,07	100,00
-1096,64	100,00
-1088,22	182,00
-1079,81	54,00
-1071,41	81,00
-1063,02	123,00
-1054,65	-61,00
-1046,28	67,00
-1037,92	100,00
-1029,58	102,00
-1021,24	56,00
-1012,92	78,00
-1004,61	59,00
-996,30	90,00
-988,01	67,00
-979,73	86,00
-971,46	47,00
-963,20	44,00
-954,95	72,00
-946,71	32,00
-938,48	46,00
-930,26	123,00
-922,06	108,00
-913,86	139,00
-905,67	67,00
-897,49	48,00
-889,33	69,00
-881,17	67,00
-873,02	71,00
-864,89	148,00
-856,76	-19,00
-848,65	123,00
-840,54	82,00
-832,45	70,00
-824,36	60,00
-816,29	37,00
-808,22	96,00
-800,17	25,00
-792,12	145,00
-784,09	99,00
-776,06	28,00
-768,05	53,00
-760,04	136,00
-752,05	-7,00
-744,07	101,00
-736,09	127,00
-728,13	37,00
-720,17	2,00
-712,23	96,00
-704,29	29,00
-696,37	72,00
-688,45	-20,00
-680,55	112,00
-672,65	-21,00
-664,77	21,00
-656,89	89,00
-649,03	128,00
-641,17	138,00
-633,32	17,00
-625,49	140,00
-617,66	206,00
-609,84	-68,00
-602,03	82,00
-594,23	81,00
-586,45	-32,00
-578,67	22,00
-570,90	77,00
-563,14	-28,00
-555,39	231,00
-547,65	111,00
-539,91	77,00
-532,19	-21,00
-524,48	-71,00
-516,78	115,00
-509,08	51,00
-501,40	59,00
-493,72	49,00
-486,06	83,00
-478,40	51,00
-470,76	126,00
-463,12	81,00
-455,49	42,00
-447,87	223,00
-440,26	-10,00
-432,66	190,00
-425,07	-32,00
-417,49	97,00
-409,92	141,00
-402,35	232,00
-394,80	202,00
-387,25	92,00
-379,72	147,00
-372,19	66,00
-364,67	130,00
-357,17	71,00
-349,67	100,00
-342,18	33,00
-334,69	189,00
-327,22	-40,00
-319,76	106,00
-312,30	92,00
-304,86	58,00
-297,42	69,00
-290,00	61,00
-282,58	-8,00
-275,17	108,00
-267,77	144,00
-260,37	72,00
-252,99	98,00
-245,62	49,00
-238,25	143,00
-230,90	33,00
-223,55	93,00
-216,21	146,00
-208,88	121,00
-201,56	125,00
-194,25	219,00
-186,94	184,00
-179,65	260,00
-172,36	180,00
-165,08	208,00
-157,81	235,00
-150,55	241,00
-143,30	336,00
-136,06	271,00
-128,82	438,00
-121,60	351,00
-114,38	330,00
-107,17	549,00
-99,97	476,00
-92,78	500,00
-85,60	657,00
-78,42	582,00
-71,25	779,00
-64,10	993,00
-56,95	985,00
-49,81	1284,00
-42,67	1480,00
-35,55	1905,00
-28,43	2474,00
-21,33	4144,00
-14,23	13858,00
-7,14	55238,00
-0,05	54948,00
7,02	54664,00
14,09	43868,00
21,14	11586,00
28,19	4795,00
35,23	3066,00
42,27	2338,00
49,29	1919,00
56,31	1626,00
63,32	1463,00
70,32	1145,00
77,31	889,00
84,29	786,00
91,27	798,00
98,23	757,00
105,19	736,00
112,14	622,00
119,09	905,00
126,02	1580,00
132,95	1747,00
139,87	1882,00
146,78	1820,00
153,68	1795,00
160,58	1716,00
167,46	1710,00
174,34	1770,00
181,21	1667,00
188,08	1829,00
194,93	1609,00
201,78	1659,00
208,62	1679,00
215,45	1689,00
222,27	1644,00
229,09	1572,00
235,90	1591,00
242,70	1638,00
249,49	1617,00
256,27	1529,00
263,05	1545,00
269,82	1478,00
276,58	1558,00
283,33	1617,00
290,08	1501,00
296,82	1504,00
303,55	1491,00
310,27	1469,00
316,98	1407,00
323,69	1420,00
330,39	1559,00
337,08	1409,00
343,76	1403,00
350,44	1420,00
357,11	1452,00
363,77	1478,00
370,42	1207,00
377,07	1337,00
383,71	1359,00
390,34	1367,00
396,96	1469,00
403,58	1402,00
410,19	1240,00
416,79	1459,00
423,38	1426,00
429,97	1313,00
436,55	1260,00
443,12	1190,00
449,68	1233,00
456,24	1383,00
462,79	1269,00
469,33	1238,00
475,86	1243,00
482,39	1194,00
488,91	1131,00
495,42	1152,00
501,93	1227,00
508,42	1191,00
514,91	1192,00
521,40	1124,00
527,87	1141,00
534,34	1143,00
540,80	1246,00
547,25	1157,00
553,70	1114,00
560,14	1086,00
566,57	1005,00
573,00	1132,00
579,41	1155,00
585,83	959,00
592,23	1086,00
598,62	1087,00
605,01	996,00
611,40	1069,00
617,77	1080,00
624,14	1131,00
630,50	1069,00
636,85	1039,00
643,20	1112,00
649,54	1019,00
655,87	1002,00
662,20	1010,00
668,52	1026,00
674,83	950,00
681,13	1024,00
687,43	884,00
693,72	930,00
700,00	939,00
706,28	949,00
712,55	937,00
718,81	1019,00
725,07	914,00
731,32	945,00
737,56	940,00
743,79	1011,00
750,02	911,00
756,24	889,00
762,46	927,00
768,67	1019,00
774,87	885,00
781,06	1064,00
787,25	953,00
793,43	877,00
799,60	783,00
805,77	954,00
811,93	1017,00
818,08	854,00
824,23	967,00
830,37	885,00
836,50	1075,00
842,63	899,00
848,75	1005,00
854,87	928,00
860,97	966,00
867,07	944,00
873,17	879,00
879,25	958,00
885,33	911,00
891,41	991,00
897,47	851,00
903,53	829,00
909,59	816,00
915,63	928,00
921,67	784,00
927,71	780,00
933,74	753,00
939,76	793,00
945,77	829,00
951,78	742,00
957,78	734,00
963,78	763,00
969,77	751,00
975,75	839,00
981,72	667,00
987,69	884,00
993,66	838,00
999,61	743,00
1005,56	888,00
1011,51	837,00
1017,44	846,00
1023,37	813,00
1029,30	820,00
1035,22	824,00
1041,13	885,00
1047,03	850,00
1052,93	886,00
1058,83	1198,00
1064,71	1152,00
1070,59	1025,00
1076,47	932,00
1082,33	925,00
1088,20	898,00
1094,05	768,00
1099,90	869,00
1105,74	726,00
1111,58	768,00
1117,41	911,00
1123,23	1017,00
1129,05	953,00
1134,86	1000,00
1140,67	991,00
1146,47	894,00
1152,26	896,00
1158,05	681,00
1163,83	859,00
1169,60	790,00
1175,37	811,00
1181,13	783,00
1186,89	737,00
1192,64	817,00
1198,38	856,00
1204,12	676,00
1209,85	702,00
1215,58	887,00
1221,30	744,00
1227,02	721,00
1232,72	705,00
1238,43	730,00
1244,12	661,00
1249,81	813,00
1255,50	684,00
1261,17	675,00
1266,85	809,00
1272,51	800,00
1278,17	871,00
1283,83	899,00
1289,47	1103,00
1295,12	1221,00
1300,75	1187,00
1306,38	1074,00
1312,01	937,00
1317,63	899,00
1323,24	884,00
1328,85	784,00
1334,45	724,00
1340,04	887,00
1345,63	881,00
1351,22	723,00
1356,80	846,00
1362,37	895,00
1367,93	925,00
1373,49	808,00
1379,05	890,00
1384,60	881,00
1390,14	763,00
1395,68	835,00
1401,21	877,00
1406,74	834,00
1412,26	926,00
1417,77	836,00
1423,28	984,00
1428,78	1117,00
1434,28	1359,00
1439,77	1338,00
1445,26	1261,00
1450,74	1270,00
1456,22	1249,00
1461,68	1163,00
1467,15	1075,00
1472,61	974,00
1478,06	969,00
1483,51	823,00
1488,95	880,00
1494,38	824,00
1499,81	628,00
1505,24	860,00
1510,65	683,00
1516,07	697,00
1521,48	751,00
1526,88	565,00
1532,27	784,00
1537,67	673,00
1543,05	726,00
1548,43	630,00
1553,81	645,00
1559,18	617,00
1564,54	736,00
1569,90	649,00
1575,25	661,00
1580,60	716,00
1585,94	659,00
1591,28	827,00
1596,61	702,00
1601,93	531,00
1607,25	784,00
1612,57	622,00
1617,88	762,00
1623,18	609,00
1628,48	535,00
1633,77	627,00
1639,06	633,00
1644,34	601,00
1649,62	587,00
1654,89	684,00
1660,16	638,00
1665,42	581,00
1670,67	631,00
1675,92	614,00
1681,17	641,00
1686,41	609,00
1691,64	633,00
1696,87	538,00
1702,10	431,00
1707,32	439,00
1712,53	540,00
1717,74	506,00
1722,94	452,00
1728,14	599,00
1733,33	620,00
1738,52	595,00
1743,70	532,00
1748,88	524,00
1754,05	571,00
1759,22	481,00
1764,38	-949,00
1769,53	461,00
1774,69	488,00
1779,83	419,00
1784,97	510,00
1790,11	442,00
1795,24	473,00
1800,36	387,00
1805,48	235,00
1810,60	398,00
1815,71	387,00
1820,82	349,00
1825,92	394,00
1831,01	464,00
1836,10	587,00
1841,19	488,00
1846,26	445,00
1851,34	438,00
1856,41	508,00
1861,47	384,00
1866,53	539,00
1871,59	457,00
1876,64	387,00
1881,68	317,00
1886,72	405,00
1891,76	509,00
1896,79	367,00
1901,81	383,00
1906,83	511,00
1911,85	467,00
1916,86	476,00
1921,86	372,00
1926,86	408,00
1931,86	344,00
1936,85	367,00
1941,83	427,00
1946,81	410,00
1951,79	368,00
1956,76	455,00
1961,72	310,00
1966,68	410,00
1971,64	294,00
1976,59	432,00
1981,54	498,00
1986,48	428,00
1991,42	310,00
1996,35	352,00
2001,27	284,00
2006,20	447,00
2011,11	403,00
2016,03	403,00
2020,93	334,00
2025,84	222,00
2030,73	359,00
2035,63	299,00
2040,52	182,00
2045,40	265,00
2050,28	261,00
2055,15	266,00
2060,02	306,00
2064,89	267,00
2069,75	218,00
2074,60	409,00
2079,46	340,00
2084,30	202,00
2089,14	195,00
2093,98	279,00
2098,81	381,00
2103,64	311,00
2108,46	368,00
2113,28	362,00
2118,09	364,00
2122,90	286,00
2127,70	213,00
2132,50	428,00
2137,30	302,00
2142,09	368,00
2146,87	393,00
2151,66	290,00
2156,43	246,00
2161,20	325,00
2165,97	294,00
2170,73	243,00
2175,49	438,00
2180,24	316,00
2184,99	337,00
2189,74	284,00
2194,48	272,00
2199,21	317,00
2203,94	277,00
2208,67	268,00
2213,39	327,00
2218,11	300,00
2222,82	228,00
2227,53	280,00
2232,23	258,00
2236,93	221,00
2241,63	301,00
2246,32	291,00
2251,00	341,00
2255,68	260,00
2260,36	235,00
2265,03	418,00
2269,70	234,00
2274,36	231,00
2279,02	209,00
2283,68	246,00
2288,33	240,00
2292,97	367,00
2297,61	357,00
2302,25	376,00
2306,88	312,00
2311,51	213,00
2316,14	258,00
2320,75	120,00
2325,37	153,00
2329,98	214,00
2334,59	231,00
2339,19	176,00
2343,79	161,00
2348,38	270,00
2352,97	208,00
2357,55	283,00
2362,13	245,00
2366,71	281,00
2371,28	320,00
2375,85	147,00
2380,41	312,00
2384,97	271,00
2389,52	154,00
2394,07	215,00
2398,62	245,00
2403,16	186,00
2407,70	151,00
2412,23	286,00
2416,76	162,00
2421,29	179,00
2425,81	239,00
2430,32	316,00
2434,84	174,00
2439,34	235,00
2443,85	148,00
2448,35	240,00
2452,84	170,00
2457,33	224,00
2461,82	252,00
2466,30	201,00
2470,78	241,00
2475,25	163,00
2479,72	132,00
2484,19	105,00
2488,65	285,00
2493,11	262,00
2497,56	268,00
2502,01	157,00
2506,46	145,00
2510,90	265,00
2515,34	134,00
2519,77	264,00
2524,20	294,00
2528,62	184,00
2533,04	225,00
2537,46	168,00
2541,87	239,00
2546,28	232,00
2550,68	194,00
2555,08	230,00
2559,48	144,00
2563,87	183,00
2568,26	194,00
2572,64	241,00
2577,02	183,00
2581,40	193,00
2585,77	201,00
2590,14	142,00
2594,50	247,00
2598,86	172,00
2603,22	229,00
2607,57	242,00
2611,92	170,00
2616,26	290,00
2620,60	114,00
2624,94	157,00
2629,27	191,00
2633,60	197,00
2637,92	160,00
2642,24	236,00
2646,56	155,00
2650,87	310,00
2655,18	252,00
2659,48	163,00
2663,78	141,00
2668,08	241,00
2672,37	251,00
2676,66	179,00
2680,95	128,00
2685,23	179,00
2689,50	192,00
2693,78	281,00
2698,05	232,00
2702,31	229,00
2706,57	216,00
2710,83	229,00
2715,08	288,00
2719,33	281,00
2723,58	263,00
2727,82	213,00
2732,06	268,00
2736,29	245,00
2740,53	178,00
2744,75	243,00
2748,97	149,00
2753,19	189,00
2757,41	346,00
2761,62	139,00
2765,83	128,00
2770,03	238,00
2774,23	231,00
2778,43	170,00
2782,62	212,00
2786,81	157,00
2791,00	179,00
2795,18	182,00
2799,35	351,00
2803,53	337,00
2807,70	211,00
2811,86	247,00
2816,03	268,00
2820,19	423,00
2824,34	292,00
2828,49	347,00
2832,64	418,00
2836,78	503,00
2840,92	731,00
2845,06	749,00
2849,19	754,00
2853,32	834,00
2857,45	865,00
2861,57	909,00
2865,69	861,00
2869,80	853,00
2873,91	808,00
2878,02	1002,00
2882,12	939,00
2886,22	975,00
2890,32	910,00
2894,41	904,00
2898,50	763,00
2902,58	778,00
2906,67	676,00
2910,74	666,00
2914,82	612,00
2918,89	613,00
2922,96	587,00
2927,02	538,00
2931,08	537,00
2935,13	547,00
2939,19	527,00
2943,24	442,00
2947,28	336,00
2951,32	355,00
2955,36	436,00
2959,40	175,00
2963,43	292,00
2967,46	232,00
2971,48	268,00
2975,50	284,00
2979,52	295,00
2983,53	220,00
2987,54	52,00
2991,55	241,00
2995,55	130,00
2999,55	66,00
3003,54	267,00
3007,54	147,00
3011,53	139,00
3015,51	213,00
3019,49	187,00
3023,47	150,00
3027,45	123,00
3031,42	153,00
3035,39	176,00
3039,35	186,00
3043,31	0,00
3047,27	116,00
3051,22	212,00
3055,17	203,00
3059,12	10,00
3063,06	87,00
3067,00	99,00
3070,94	110,00
3074,87	212,00
3078,80	38,00
3082,73	147,00
3086,65	27,00
3090,57	124,00
3094,49	108,00
3098,40	156,00
3102,31	189,00
3106,22	103,00
3110,12	-9,00
3114,02	160,00
3117,92	129,00
3121,81	99,00
3125,70	80,00
3129,58	165,00
3133,47	47,00
3137,34	76,00
3141,22	130,00
3145,09	118,00
3148,96	134,00
3152,83	113,00
3156,69	180,00
3160,55	226,00
3164,40	46,00
3168,26	116,00
3172,10	248,00
3175,95	73,00
3179,79	90,00
3183,63	51,00
3187,47	235,00
3191,30	170,00
3195,13	154,00
3198,95	92,00
3202,78	236,00
3206,60	78,00
3210,41	47,00
3214,23	77,00
3218,03	138,00
3221,84	207,00
3225,64	32,00
3229,44	173,00
3233,24	162,00
3237,03	188,00
3240,82	-45,00
3244,61	141,00
3248,39	154,00
3252,17	87,00
3255,95	87,00
3259,72	39,00
3263,49	112,00
3267,26	100,00
3271,03	125,00
3274,79	206,00
3278,54	180,00
3282,30	42,00
3286,05	183,00
3289,80	13,00
3293,54	45,00
3297,29	42,00
3301,02	107,00
3304,76	-35,00
3308,49	131,00
3312,22	224,00
3315,95	141,00
3319,67	132,00
3323,39	157,00
3327,10	192,00
3330,82	103,00
3334,53	116,00
3338,24	122,00
3341,94	-1,00
3345,64	78,00
3349,34	145,00
3353,03	35,00
3356,72	134,00
3360,41	104,00
3364,10	119,00
3367,78	135,00
3371,46	-5,00
3375,13	170,00
3378,81	87,00
3382,48	101,00
3386,14	-117,00
3389,81	101,00
3393,47	5,00
3397,12	53,00
3400,78	-5,00
3404,43	155,00
3408,08	176,00
3411,72	184,00
3415,36	110,00
3419,00	11,00
3422,64	87,00
3426,27	105,00
3429,90	121,00
3433,53	78,00
3437,15	69,00
3440,77	53,00
3444,39	31,00
3448,00	198,00
3451,62	85,00
3455,22	88,00
3458,83	22,00
3462,43	108,00
3466,03	6,00
3469,63	46,00
3473,22	94,00
3476,81	226,00
3480,40	41,00
3483,99	166,00
3487,57	90,00
3491,15	141,00
3494,72	96,00
3498,29	97,00
3501,86	40,00
3505,43	62,00
3508,99	106,00
3512,56	90,00
3516,11	145,00
3519,67	-22,00
3523,22	91,00
3526,77	112,00
3530,32	54,00
3533,86	122,00
3537,40	140,00
3540,94	75,00
3544,47	74,00
3548,00	127,00
3551,53	124,00
3555,06	199,00
3558,58	129,00
3562,10	91,00
3565,62	-4,00
3569,13	136,00
3572,64	42,00
3576,15	62,00
3579,66	8,00
3583,16	115,00
3586,66	199,00
3590,16	136,00
3593,65	-9,00
3597,14	90,00
3600,63	94,00
3604,11	59,00
3607,60	51,00
3611,08	-34,00
3614,55	155,00
3618,03	71,00
3621,50	-53,00
3624,97	17,00
3628,43	154,00
3631,90	138,00
3635,36	183,00
3638,81	139,00
3642,27	-20,00
3645,72	2,00
3649,17	102,00
3652,61	16,00
3656,06	109,00
3659,50	73,00
3662,93	-36,00
3666,37	44,00
3669,80	71,00
3673,23	-19,00
3676,65	-7,00
3680,08	35,00
3683,50	97,00
3686,92	116,00
3690,33	93,00
3693,74	125,00
3697,15	68,00
3700,56	132,00
3703,96	-41,00
3707,36	85,00
3710,76	92,00
3714,16	67,00
3717,55	46,00
3720,94	96,00
3724,33	52,00
3727,71	-121,00
3731,10	48,00
3734,48	65,00
3737,85	106,00
3741,23	158,00
3744,60	-46,00
3747,97	62,00
3751,33	63,00
3754,69	4,00
3758,05	75,00
3761,41	19,00
3764,77	113,00
3768,12	48,00
3771,47	97,00
3774,82	-104,00
3778,16	6,00
3781,50	0,00
3784,84	-2,00
3788,18	-1,00
>>>>>End Processed Spectral Data<<<<<
