SpectraSuite Data File
++++++++++++++++++++++++++++++++++++
Date: Mon Mar 09 16:19:00 ICT 2026
User: Administrator
Dark Spectrum Present: Yes
Reference Spectrum Present: No
Number of Sampled Component Spectra: 1
Spectrometers: MAYP113682
Integration Time (usec): 3000000 (MAYP113682)
Spectra Averaged: 1 (MAYP113682)
Boxcar Smoothing: 0 (MAYP113682)
Correct for Electrical Dark: No (MAYP113682)
Strobe/Lamp Enabled: No (MAYP113682)
Correct for Detector Non-linearity: No (MAYP113682)
Correct for Stray Light: No (MAYP113682)
Number of Pixels in Processed Spectrum: 2068
>>>>>Begin Processed Spectral Data<<<<<
-37534,58	-6,00
-37414,56	4,00
-37295,11	-4,00
-37176,24	-1,00
-37057,95	10,00
-36940,22	90,00
-36823,05	106,00
-36706,45	49,00
-36590,40	117,00
-36474,90	68,00
-36359,95	78,00
-36245,55	55,00
-36131,68	12,00
-36018,35	104,00
-35905,55	94,00
-35793,29	-25,00
-35681,54	53,00
-35570,32	71,00
-35459,62	-5,00
-35349,43	1,00
-35239,75	19,00
-35130,58	77,00
-35021,91	61,00
-34913,74	92,00
-34806,07	-4,00
-34698,89	15,00
-34592,20	-11,00
-34486,00	101,00
-34380,28	106,00
-34275,04	-12,00
-34170,27	23,00
-34065,98	112,00
-33962,16	46,00
-33858,81	37,00
-33755,92	149,00
-33653,49	98,00
-33551,52	-11,00
-33450,01	138,00
-33348,94	45,00
-33248,33	-64,00
-33148,16	-10,00
-33048,43	130,00
-32949,14	-82,00
-32850,29	-4,00
-32751,87	-14,00
-32653,89	57,00
-32556,33	36,00
-32459,20	115,00
-32362,49	169,00
-32266,19	163,00
-32170,32	-3,00
-32074,86	-13,00
-31979,82	-37,00
-31885,18	97,00
-31790,95	153,00
-31697,12	-150,00
-31603,69	141,00
-31510,67	-22,00
-31418,04	-22,00
-31325,80	16,00
-31233,95	92,00
-31142,49	97,00
-31051,42	47,00
-30960,73	38,00
-30870,43	2,00
-30780,50	7,00
-30690,95	-3,00
-30601,77	119,00
-30512,97	252,00
-30424,53	-98,00
-30336,46	79,00
-30248,76	-41,00
-30161,42	197,00
-30074,44	28,00
-29987,81	169,00
-29901,55	50,00
-29815,63	20,00
-29730,07	-32,00
-29644,86	29,00
-29560,00	58,00
-29475,48	100,00
-29391,30	77,00
-29307,47	-47,00
-29223,97	46,00
-29140,81	108,00
-29057,99	155,00
-28975,50	3,00
-28893,34	109,00
-28811,51	66,00
-28730,00	-54,00
-28648,82	70,00
-28567,97	22,00
-28487,43	73,00
-28407,21	18,00
-28327,32	-14,00
-28247,73	58,00
-28168,46	26,00
-28089,50	88,00
-28010,85	-96,00
-27932,51	117,00
-27854,48	90,00
-27776,75	5,00
-27699,32	67,00
-27622,19	41,00
-27545,37	4,00
-27468,84	-7,00
-27392,60	95,00
-27316,66	21,00
-27241,01	116,00
-27165,66	98,00
-27090,59	113,00
-27015,81	81,00
-26941,31	-14,00
-26867,10	125,00
-26793,17	8,00
-26719,52	-12,00
-26646,15	118,00
-26573,06	79,00
-26500,24	38,00
-26427,70	-11,00
-26355,43	34,00
-26283,43	140,00
-26211,71	52,00
-26140,25	89,00
-26069,06	123,00
-25998,13	147,00
-25927,46	-18,00
-25857,06	127,00
-25786,92	82,00
-25717,04	118,00
-25647,42	166,00
-25578,05	85,00
-25508,94	126,00
-25440,09	8,00
-25371,48	61,00
-25303,13	98,00
-25235,02	-12,00
-25167,17	62,00
-25099,56	-38,00
-25032,19	140,00
-24965,07	-11,00
-24898,20	140,00
-24831,56	-71,00
-24765,17	73,00
-24699,01	199,00
-24633,10	0,00
-24567,41	152,00
-24501,97	126,00
-24436,75	-47,00
-24371,77	48,00
-24307,03	11,00
-24242,51	43,00
-24178,22	-70,00
-24114,16	29,00
-24050,32	169,00
-23986,71	192,00
-23923,32	35,00
-23860,16	4,00
-23797,22	110,00
-23734,50	27,00
-23672,00	-48,00
-23609,71	16,00
-23547,65	56,00
-23485,80	87,00
-23424,16	-6,00
-23362,74	130,00
-23301,53	-3,00
-23240,54	-33,00
-23179,75	84,00
-23119,17	-14,00
-23058,80	79,00
-22998,64	35,00
-22938,68	97,00
-22878,93	36,00
-22819,39	129,00
-22760,04	35,00
-22700,90	-2,00
-22641,96	106,00
-22583,22	20,00
-22524,68	-7,00
-22466,33	94,00
-22408,19	49,00
-22350,23	13,00
-22292,48	-5,00
-22234,92	40,00
-22177,55	21,00
-22120,37	102,00
-22063,38	139,00
-22006,58	94,00
-21949,98	150,00
-21893,56	68,00
-21837,33	-45,00
-21781,28	18,00
-21725,42	87,00
-21669,74	-46,00
-21614,25	58,00
-21558,94	77,00
-21503,81	95,00
-21448,86	-80,00
-21394,10	121,00
-21339,51	50,00
-21285,10	8,00
-21230,86	58,00
-21176,81	24,00
-21122,93	6,00
-21069,22	34,00
-21015,69	96,00
-20962,33	38,00
-20909,14	123,00
-20856,13	-66,00
-20803,28	105,00
-20750,61	47,00
-20698,10	-20,00
-20645,76	17,00
-20593,59	-17,00
-20541,59	97,00
-20489,75	72,00
-20438,07	33,00
-20386,56	-101,00
-20335,22	114,00
-20284,03	-30,00
-20233,01	-7,00
-20182,15	-90,00
-20131,45	-113,00
-20080,91	78,00
-20030,52	58,00
-19980,30	23,00
-19930,23	94,00
-19880,32	15,00
-19830,56	25,00
-19780,96	63,00
-19731,52	129,00
-19682,23	129,00
-19633,09	-32,00
-19584,10	45,00
-19535,26	39,00
-19486,58	78,00
-19438,04	61,00
-19389,66	9,00
-19341,42	-53,00
-19293,33	96,00
-19245,39	82,00
-19197,60	95,00
-19149,95	20,00
-19102,45	80,00
-19055,09	25,00
-19007,87	31,00
-18960,80	140,00
-18913,87	-12,00
-18867,09	131,00
-18820,44	-14,00
-18773,94	88,00
-18727,57	31,00
-18681,35	63,00
-18635,26	21,00
-18589,31	71,00
-18543,50	75,00
-18497,83	-30,00
-18452,29	124,00
-18406,89	54,00
-18361,63	94,00
-18316,50	80,00
-18271,50	119,00
-18226,63	12,00
-18181,90	63,00
-18137,30	139,00
-18092,84	38,00
-18048,50	51,00
-18004,29	58,00
-17960,22	56,00
-17916,27	111,00
-17872,45	33,00
-17828,76	105,00
-17785,20	33,00
-17741,77	62,00
-17698,46	117,00
-17655,28	23,00
-17612,22	27,00
-17569,29	135,00
-17526,48	9,00
-17483,79	75,00
-17441,23	48,00
-17398,79	-27,00
-17356,48	110,00
-17314,28	22,00
-17272,21	88,00
-17230,26	6,00
-17188,42	156,00
-17146,71	-54,00
-17105,12	25,00
-17063,64	-25,00
-17022,28	154,00
-16981,04	134,00
-16939,92	82,00
-16898,91	73,00
-16858,02	38,00
-16817,25	60,00
-16776,59	38,00
-16736,04	-76,00
-16695,61	92,00
-16655,29	32,00
-16615,09	173,00
-16574,99	44,00
-16535,01	62,00
-16495,15	124,00
-16455,39	-14,00
-16415,74	58,00
-16376,21	115,00
-16336,78	78,00
-16297,46	-30,00
-16258,26	-85,00
-16219,16	28,00
-16180,17	59,00
-16141,28	81,00
-16102,51	100,00
-16063,84	6,00
-16025,27	59,00
-15986,82	142,00
-15948,46	50,00
-15910,22	19,00
-15872,07	40,00
-15834,04	11,00
-15796,10	40,00
-15758,27	60,00
-15720,54	26,00
-15682,91	161,00
-15645,39	84,00
-15607,97	-21,00
-15570,64	63,00
-15533,42	-20,00
-15496,30	165,00
-15459,28	166,00
-15422,36	143,00
-15385,54	-41,00
-15348,82	7,00
-15312,19	29,00
-15275,66	26,00
-15239,23	124,00
-15202,90	18,00
-15166,67	7,00
-15130,53	105,00
-15094,48	108,00
-15058,54	30,00
-15022,68	-12,00
-14986,93	70,00
-14951,26	13,00
-14915,69	90,00
-14880,22	112,00
-14844,84	49,00
-14809,55	76,00
-14774,35	128,00
-14739,25	51,00
-14704,24	-25,00
-14669,32	-1,00
-14634,49	146,00
-14599,75	37,00
-14565,10	-8,00
-14530,55	-17,00
-14496,08	57,00
-14461,70	10,00
-14427,41	52,00
-14393,21	69,00
-14359,10	82,00
-14325,07	8,00
-14291,14	20,00
-14257,29	-67,00
-14223,52	-117,00
-14189,85	141,00
-14156,26	97,00
-14122,76	68,00
-14089,34	76,00
-14056,01	132,00
-14022,76	105,00
-13989,60	-37,00
-13956,52	61,00
-13923,53	13,00
-13890,62	22,00
-13857,79	20,00
-13825,05	119,00
-13792,39	-24,00
-13759,81	19,00
-13727,31	-10,00
-13694,90	83,00
-13662,57	148,00
-13630,31	51,00
-13598,14	3,00
-13566,05	8,00
-13534,05	110,00
-13502,12	13,00
-13470,27	65,00
-13438,50	41,00
-13406,80	7,00
-13375,19	109,00
-13343,66	-55,00
-13312,20	71,00
-13280,83	5,00
-13249,53	74,00
-13218,30	121,00
-13187,16	87,00
-13156,09	97,00
-13125,10	76,00
-13094,18	155,00
-13063,34	62,00
-13032,58	13,00
-13001,89	72,00
-12971,28	-114,00
-12940,74	84,00
-12910,27	39,00
-12879,88	24,00
-12849,57	108,00
-12819,33	83,00
-12789,16	4,00
-12759,06	-26,00
-12729,04	0,00
-12699,09	210,00
-12669,21	-34,00
-12639,41	-89,00
-12609,68	42,00
-12580,02	10,00
-12550,43	29,00
-12520,91	-4,00
-12491,46	86,00
-12462,08	54,00
-12432,77	-86,00
-12403,54	-61,00
-12374,37	138,00
-12345,27	-11,00
-12316,24	-13,00
-12287,29	30,00
-12258,40	83,00
-12229,57	34,00
-12200,82	32,00
-12172,14	-53,00
-12143,52	22,00
-12114,97	36,00
-12086,49	-56,00
-12058,07	-27,00
-12029,73	105,00
-12001,44	-1,00
-11973,23	26,00
-11945,08	27,00
-11917,00	176,00
-11888,98	56,00
-11861,03	133,00
-11833,15	59,00
-11805,32	65,00
-11777,57	56,00
-11749,88	28,00
-11722,25	54,00
-11694,69	100,00
-11667,19	27,00
-11639,75	83,00
-11612,38	7,00
-11585,07	37,00
-11557,83	106,00
-11530,65	57,00
-11503,53	173,00
-11476,47	118,00
-11449,48	104,00
-11422,54	32,00
-11395,67	60,00
-11368,86	14,00
-11342,11	47,00
-11315,43	-25,00
-11288,80	30,00
-11262,23	129,00
-11235,73	-49,00
-11209,28	-34,00
-11182,90	75,00
-11156,57	45,00
-11130,31	116,00
-11104,10	-2,00
-11077,96	69,00
-11051,87	89,00
-11025,84	92,00
-10999,87	128,00
-10973,96	38,00
-10948,11	-49,00
-10922,31	122,00
-10896,58	61,00
-10870,90	109,00
-10845,28	99,00
-10819,71	10,00
-10794,20	-99,00
-10768,75	25,00
-10743,36	19,00
-10718,02	107,00
-10692,74	84,00
-10667,52	41,00
-10642,35	92,00
-10617,24	-30,00
-10592,18	73,00
-10567,18	155,00
-10542,23	178,00
-10517,34	155,00
-10492,51	74,00
-10467,72	111,00
-10443,00	91,00
-10418,32	87,00
-10393,70	-55,00
-10369,14	94,00
-10344,63	38,00
-10320,17	180,00
-10295,77	173,00
-10271,42	-16,00
-10247,12	14,00
-10222,88	19,00
-10198,68	123,00
-10174,54	-25,00
-10150,46	51,00
-10126,42	114,00
-10102,44	40,00
-10078,51	60,00
-10054,63	75,00
-10030,80	94,00
-10007,03	50,00
-9983,30	58,00
-9959,63	76,00
-9936,01	246,00
-9912,44	157,00
-9888,92	71,00
-9865,44	113,00
-9842,02	-29,00
-9818,65	108,00
-9795,33	161,00
-9772,06	160,00
-9748,84	46,00
-9725,67	20,00
-9702,55	100,00
-9679,47	79,00
-9656,45	199,00
-9633,47	147,00
-9610,55	231,00
-9587,67	4,00
-9564,84	149,00
-9542,06	125,00
-9519,32	240,00
-9496,64	111,00
-9474,00	231,00
-9451,41	266,00
-9428,87	75,00
-9406,37	151,00
-9383,92	145,00
-9361,52	-38,00
-9339,17	-41,00
-9316,86	-42,00
-9294,60	215,00
-9272,38	174,00
-9250,21	199,00
-9228,09	261,00
-9206,01	247,00
-9183,98	266,00
-9162,00	180,00
-9140,06	-4,00
-9118,16	145,00
-9096,31	154,00
-9074,51	247,00
-9052,75	223,00
-9031,04	275,00
-9009,37	173,00
-8987,74	24,00
-8966,16	117,00
-8944,63	-66,00
-8923,14	-71,00
-8901,69	-34,00
-8880,29	130,00
-8858,93	189,00
-8837,61	266,00
-8816,34	467,00
-8795,11	282,00
-8773,92	256,00
-8752,78	141,00
-8731,68	320,00
-8710,62	104,00
-8689,61	285,00
-8668,63	252,00
-8647,70	228,00
-8626,82	213,00
-8605,97	295,00
-8585,17	175,00
-8564,41	172,00
-8543,69	123,00
-8523,01	111,00
-8502,37	66,00
-8481,78	208,00
-8461,23	239,00
-8440,71	274,00
-8420,24	301,00
-8399,81	351,00
-8379,42	416,00
-8359,08	304,00
-8338,77	213,00
-8318,50	166,00
-8298,27	183,00
-8278,09	235,00
-8257,94	298,00
-8237,83	302,00
-8217,76	380,00
-8197,74	445,00
-8177,75	303,00
-8157,80	252,00
-8137,89	263,00
-8118,02	316,00
-8098,19	214,00
-8078,40	312,00
-8058,65	268,00
-8038,93	354,00
-8019,26	329,00
-7999,62	248,00
-7980,02	183,00
-7960,46	308,00
-7940,94	300,00
-7921,46	128,00
-7902,01	140,00
-7882,60	322,00
-7863,23	371,00
-7843,90	298,00
-7824,61	170,00
-7805,35	226,00
-7786,13	434,00
-7766,95	271,00
-7747,80	322,00
-7728,69	257,00
-7709,62	220,00
-7690,59	198,00
-7671,59	311,00
-7652,63	307,00
-7633,70	392,00
-7614,81	326,00
-7595,96	331,00
-7577,15	318,00
-7558,37	361,00
-7539,62	142,00
-7520,91	323,00
-7502,24	177,00
-7483,60	301,00
-7465,00	268,00
-7446,44	154,00
-7427,91	135,00
-7409,41	93,00
-7390,95	217,00
-7372,53	140,00
-7354,14	112,00
-7335,78	62,00
-7317,46	257,00
-7299,18	197,00
-7280,92	228,00
-7262,71	226,00
-7244,52	259,00
-7226,38	274,00
-7208,26	252,00
-7190,18	210,00
-7172,14	205,00
-7154,12	121,00
-7136,15	196,00
-7118,20	391,00
-7100,29	244,00
-7082,41	303,00
-7064,57	271,00
-7046,76	199,00
-7028,98	45,00
-7011,24	156,00
-6993,53	45,00
-6975,85	89,00
-6958,20	-30,00
-6940,59	54,00
-6923,01	53,00
-6905,46	62,00
-6887,94	86,00
-6870,46	165,00
-6853,01	163,00
-6835,59	146,00
-6818,21	146,00
-6800,85	168,00
-6783,53	96,00
-6766,24	-107,00
-6748,98	-153,00
-6731,76	-85,00
-6714,56	-189,00
-6697,40	26,00
-6680,26	-23,00
-6663,16	95,00
-6646,09	4,00
-6629,05	148,00
-6612,05	260,00
-6595,07	162,00
-6578,13	49,00
-6561,21	9,00
-6544,33	21,00
-6527,47	19,00
-6510,65	-169,00
-6493,86	-25,00
-6477,10	20,00
-6460,36	55,00
-6443,66	81,00
-6426,99	-43,00
-6410,35	-7,00
-6393,74	68,00
-6377,16	6,00
-6360,61	-85,00
-6344,09	123,00
-6327,59	-24,00
-6311,13	96,00
-6294,70	20,00
-6278,29	160,00
-6261,92	222,00
-6245,58	185,00
-6229,26	230,00
-6212,97	148,00
-6196,72	71,00
-6180,49	-116,00
-6164,29	50,00
-6148,12	-79,00
-6131,98	-116,00
-6115,86	-36,00
-6099,78	-133,00
-6083,72	-66,00
-6067,69	-173,00
-6051,69	-59,00
-6035,72	-14,00
-6019,78	32,00
-6003,87	58,00
-5987,98	50,00
-5972,12	159,00
-5956,29	62,00
-5940,49	125,00
-5924,71	-1,00
-5908,96	-86,00
-5893,24	-31,00
-5877,55	60,00
-5861,89	-69,00
-5846,25	-101,00
-5830,64	-90,00
-5815,05	-67,00
-5799,50	45,00
-5783,97	-10,00
-5768,47	111,00
-5752,99	140,00
-5737,55	106,00
-5722,12	62,00
-5706,73	103,00
-5691,36	58,00
-5676,02	27,00
-5660,71	6,00
-5645,42	51,00
-5630,16	-19,00
-5614,92	53,00
-5599,71	-28,00
-5584,53	-125,00
-5569,37	61,00
-5554,24	190,00
-5539,14	113,00
-5524,06	18,00
-5509,01	135,00
-5493,98	6,00
-5478,98	-44,00
-5464,00	69,00
-5449,05	-66,00
-5434,13	64,00
-5419,23	-101,00
-5404,36	-29,00
-5389,51	-5,00
-5374,69	120,00
-5359,89	-100,00
-5345,12	151,00
-5330,37	204,00
-5315,65	26,00
-5300,95	29,00
-5286,28	1,00
-5271,63	-36,00
-5257,01	5,00
-5242,41	-29,00
-5227,84	-61,00
-5213,29	-117,00
-5198,76	-35,00
-5184,26	61,00
-5169,79	71,00
-5155,33	43,00
-5140,91	-36,00
-5126,51	-12,00
-5112,13	85,00
-5097,77	21,00
-5083,44	-154,00
-5069,13	15,00
-5054,85	-87,00
-5040,59	78,00
-5026,36	-48,00
-5012,15	56,00
-4997,96	74,00
-4983,80	-88,00
-4969,66	52,00
-4955,54	67,00
-4941,44	106,00
-4927,37	48,00
-4913,33	153,00
-4899,30	151,00
-4885,30	149,00
-4871,33	181,00
-4857,37	45,00
-4843,44	127,00
-4829,53	-47,00
-4815,65	15,00
-4801,79	25,00
-4787,95	36,00
-4774,13	167,00
-4760,34	62,00
-4746,56	-15,00
-4732,82	14,00
-4719,09	40,00
-4705,38	57,00
-4691,70	145,00
-4678,04	23,00
-4664,41	47,00
-4650,79	113,00
-4637,20	46,00
-4623,63	99,00
-4610,08	28,00
-4596,56	-51,00
-4583,05	135,00
-4569,57	56,00
-4556,11	118,00
-4542,67	46,00
-4529,25	14,00
-4515,86	2,00
-4502,49	79,00
-4489,13	146,00
-4475,80	104,00
-4462,49	29,00
-4449,21	106,00
-4435,94	156,00
-4422,70	11,00
-4409,47	69,00
-4396,27	151,00
-4383,09	126,00
-4369,93	41,00
-4356,79	60,00
-4343,67	17,00
-4330,58	-46,00
-4317,50	122,00
-4304,45	-7,00
-4291,41	34,00
-4278,40	-68,00
-4265,41	56,00
-4252,44	110,00
-4239,49	53,00
-4226,55	147,00
-4213,65	71,00
-4200,76	58,00
-4187,89	46,00
-4175,04	75,00
-4162,21	31,00
-4149,40	102,00
-4136,61	136,00
-4123,85	50,00
-4111,10	3,00
-4098,37	121,00
-4085,66	118,00
-4072,98	105,00
-4060,31	52,00
-4047,66	67,00
-4035,04	-42,00
-4022,43	90,00
-4009,84	141,00
-3997,27	-36,00
-3984,72	154,00
-3972,19	86,00
-3959,69	-32,00
-3947,20	66,00
-3934,73	-32,00
-3922,27	123,00
-3909,84	62,00
-3897,43	75,00
-3885,04	-54,00
-3872,67	19,00
-3860,31	-32,00
-3847,98	38,00
-3835,66	-10,00
-3823,36	43,00
-3811,09	89,00
-3798,83	-32,00
-3786,59	119,00
-3774,37	155,00
-3762,17	125,00
-3749,98	56,00
-3737,82	37,00
-3725,67	91,00
-3713,55	-36,00
-3701,44	125,00
-3689,35	-101,00
-3677,28	-55,00
-3665,22	23,00
-3653,19	-47,00
-3641,17	124,00
-3629,18	107,00
-3617,20	44,00
-3605,24	192,00
-3593,30	-78,00
-3581,37	-36,00
-3569,47	18,00
-3557,58	-18,00
-3545,71	67,00
-3533,86	133,00
-3522,02	-96,00
-3510,21	-1,00
-3498,41	-9,00
-3486,63	54,00
-3474,87	69,00
-3463,12	196,00
-3451,40	157,00
-3439,69	146,00
-3428,00	90,00
-3416,33	66,00
-3404,67	111,00
-3393,03	127,00
-3381,41	67,00
-3369,81	-36,00
-3358,22	229,00
-3346,66	79,00
-3335,10	107,00
-3323,57	149,00
-3312,06	51,00
-3300,56	59,00
-3289,08	41,00
-3277,61	-17,00
-3266,16	79,00
-3254,73	80,00
-3243,32	41,00
-3231,92	48,00
-3220,55	13,00
-3209,18	68,00
-3197,84	116,00
-3186,51	79,00
-3175,20	96,00
-3163,90	10,00
-3152,63	36,00
-3141,36	26,00
-3130,12	58,00
-3118,89	-24,00
-3107,68	113,00
-3096,49	18,00
-3085,31	58,00
-3074,15	91,00
-3063,00	29,00
-3051,87	131,00
-3040,76	21,00
-3029,67	35,00
-3018,59	-20,00
-3007,52	81,00
-2996,48	10,00
-2985,44	25,00
-2974,43	39,00
-2963,43	107,00
-2952,45	51,00
-2941,48	112,00
-2930,53	-140,00
-2919,60	-39,00
-2908,68	118,00
-2897,78	94,00
-2886,89	29,00
-2876,02	83,00
-2865,17	156,00
-2854,33	48,00
-2843,50	112,00
-2832,70	83,00
-2821,90	-44,00
-2811,13	95,00
-2800,37	22,00
-2789,62	10,00
-2778,89	150,00
-2768,18	90,00
-2757,48	1,00
-2746,80	36,00
-2736,13	92,00
-2725,48	97,00
-2714,84	-31,00
-2704,22	54,00
-2693,61	-40,00
-2683,02	-74,00
-2672,45	159,00
-2661,89	81,00
-2651,34	-89,00
-2640,81	23,00
-2630,30	65,00
-2619,80	94,00
-2609,31	21,00
-2598,84	-48,00
-2588,39	76,00
-2577,95	75,00
-2567,52	-56,00
-2557,11	108,00
-2546,71	10,00
-2536,33	190,00
-2525,97	105,00
-2515,62	34,00
-2505,28	78,00
-2494,96	70,00
-2484,65	-15,00
-2474,36	402,00
-2464,08	111,00
-2453,82	69,00
-2443,57	163,00
-2433,33	64,00
-2423,11	59,00
-2412,91	48,00
-2402,72	102,00
-2392,54	217,00
-2382,38	44,00
-2372,23	153,00
-2362,09	489,00
-2351,97	92,00
-2341,87	45,00
-2331,78	50,00
-2321,70	-81,00
-2311,64	114,00
-2301,59	140,00
-2291,55	-68,00
-2281,53	-84,00
-2271,53	-43,00
-2261,53	188,00
-2251,55	-3,00
-2241,59	63,00
-2231,64	64,00
-2221,70	30,00
-2211,78	77,00
-2201,87	107,00
-2191,97	73,00
-2182,09	28,00
-2172,22	143,00
-2162,37	14,00
-2152,53	74,00
-2142,70	128,00
-2132,89	18,00
-2123,09	-40,00
-2113,30	82,00
-2103,53	117,00
-2093,77	111,00
-2084,02	44,00
-2074,29	108,00
-2064,57	96,00
-2054,86	60,00
-2045,17	-13,00
-2035,49	50,00
-2025,82	-41,00
-2016,17	6,00
-2006,53	68,00
-1996,91	14,00
-1987,29	40,00
-1977,69	-29,00
-1968,11	21,00
-1958,53	95,00
-1948,97	18,00
-1939,42	134,00
-1929,89	12,00
-1920,37	84,00
-1910,86	49,00
-1901,36	-2,00
-1891,88	94,00
-1882,41	41,00
-1872,95	89,00
-1863,51	-18,00
-1854,08	36,00
-1844,66	115,00
-1835,26	58,00
-1825,86	108,00
-1816,48	-22,00
-1807,11	74,00
-1797,76	20,00
-1788,42	124,00
-1779,09	85,00
-1769,77	51,00
-1760,47	174,00
-1751,17	-52,00
-1741,89	-3,00
-1732,63	129,00
-1723,37	197,00
-1714,13	87,00
-1704,90	-6,00
-1695,68	1,00
-1686,48	130,00
-1677,29	134,00
-1668,11	92,00
-1658,94	95,00
-1649,78	14,00
-1640,64	131,00
-1631,51	18,00
-1622,39	106,00
-1613,28	132,00
-1604,19	-109,00
-1595,10	154,00
-1586,03	103,00
-1576,97	28,00
-1567,93	54,00
-1558,89	54,00
-1549,87	19,00
-1540,86	100,00
-1531,86	180,00
-1522,87	22,00
-1513,90	48,00
-1504,93	-68,00
-1495,98	94,00
-1487,04	176,00
-1478,12	93,00
-1469,20	-32,00
-1460,30	71,00
-1451,40	66,00
-1442,52	95,00
-1433,65	65,00
-1424,80	160,00
-1415,95	5,00
-1407,12	13,00
-1398,30	128,00
-1389,48	80,00
-1380,69	103,00
-1371,90	-10,00
-1363,12	75,00
-1354,36	56,00
-1345,60	51,00
-1336,86	57,00
-1328,13	34,00
-1319,41	50,00
-1310,70	192,00
-1302,01	92,00
-1293,32	-30,00
-1284,65	116,00
-1275,99	47,00
-1267,33	-25,00
-1258,69	-23,00
-1250,06	125,00
-1241,45	94,00
-1232,84	66,00
-1224,25	-31,00
-1215,66	11,00
-1207,09	-32,00
-1198,53	-43,00
-1189,97	76,00
-1181,43	19,00
-1172,91	82,00
-1164,39	153,00
-1155,88	153,00
-1147,38	-97,00
-1138,90	37,00
-1130,43	77,00
-1121,96	118,00
-1113,51	61,00
-1105,07	92,00
-1096,64	86,00
-1088,22	95,00
-1079,81	92,00
-1071,41	64,00
-1063,02	119,00
-1054,65	118,00
-1046,28	-50,00
-1037,92	55,00
-1029,58	63,00
-1021,24	117,00
-1012,92	72,00
-1004,61	-52,00
-996,30	191,00
-988,01	-9,00
-979,73	99,00
-971,46	66,00
-963,20	-103,00
-954,95	-3,00
-946,71	102,00
-938,48	-1,00
-930,26	50,00
-922,06	10,00
-913,86	76,00
-905,67	62,00
-897,49	8,00
-889,33	47,00
-881,17	27,00
-873,02	46,00
-864,89	52,00
-856,76	150,00
-848,65	83,00
-840,54	-15,00
-832,45	-85,00
-824,36	87,00
-816,29	61,00
-808,22	47,00
-800,17	-56,00
-792,12	120,00
-784,09	32,00
-776,06	29,00
-768,05	153,00
-760,04	-26,00
-752,05	98,00
-744,07	-40,00
-736,09	-48,00
-728,13	50,00
-720,17	-53,00
-712,23	37,00
-704,29	26,00
-696,37	104,00
-688,45	12,00
-680,55	62,00
-672,65	204,00
-664,77	111,00
-656,89	-42,00
-649,03	198,00
-641,17	57,00
-633,32	112,00
-625,49	44,00
-617,66	117,00
-609,84	5,00
-602,03	52,00
-594,23	27,00
-586,45	49,00
-578,67	30,00
-570,90	18,00
-563,14	75,00
-555,39	-17,00
-547,65	18,00
-539,91	69,00
-532,19	168,00
-524,48	-53,00
-516,78	-35,00
-509,08	163,00
-501,40	29,00
-493,72	9,00
-486,06	94,00
-478,40	70,00
-470,76	163,00
-463,12	175,00
-455,49	41,00
-447,87	19,00
-440,26	84,00
-432,66	39,00
-425,07	56,00
-417,49	123,00
-409,92	46,00
-402,35	127,00
-394,80	99,00
-387,25	50,00
-379,72	50,00
-372,19	137,00
-364,67	187,00
-357,17	68,00
-349,67	58,00
-342,18	71,00
-334,69	-40,00
-327,22	-4,00
-319,76	33,00
-312,30	123,00
-304,86	134,00
-297,42	109,00
-290,00	44,00
-282,58	97,00
-275,17	55,00
-267,77	86,00
-260,37	101,00
-252,99	148,00
-245,62	94,00
-238,25	86,00
-230,90	124,00
-223,55	79,00
-216,21	105,00
-208,88	158,00
-201,56	256,00
-194,25	98,00
-186,94	271,00
-179,65	196,00
-172,36	344,00
-165,08	266,00
-157,81	184,00
-150,55	394,00
-143,30	381,00
-136,06	465,00
-128,82	594,00
-121,60	581,00
-114,38	561,00
-107,17	605,00
-99,97	781,00
-92,78	568,00
-85,60	844,00
-78,42	1092,00
-71,25	1212,00
-64,10	1370,00
-56,95	1666,00
-49,81	2019,00
-42,67	2288,00
-35,55	2931,00
-28,43	3956,00
-21,33	6635,00
-14,23	22195,00
-7,14	55164,00
-0,05	54791,00
7,02	54542,00
14,09	54846,00
21,14	20229,00
28,19	8338,00
35,23	5148,00
42,27	3844,00
49,29	3179,00
56,31	2720,00
63,32	2184,00
70,32	1780,00
77,31	1656,00
84,29	1381,00
91,27	1187,00
98,23	1102,00
105,19	1003,00
112,14	1232,00
119,09	1565,00
126,02	2493,00
132,95	2744,00
139,87	2808,00
146,78	2799,00
153,68	2623,00
160,58	2535,00
167,46	2531,00
174,34	2661,00
181,21	2648,00
188,08	2493,00
194,93	2385,00
201,78	2380,00
208,62	2403,00
215,45	2429,00
222,27	2535,00
229,09	2330,00
235,90	2336,00
242,70	2310,00
249,49	2326,00
256,27	2299,00
263,05	2349,00
269,82	2300,00
276,58	2260,00
283,33	2209,00
290,08	2239,00
296,82	2202,00
303,55	2179,00
310,27	2023,00
316,98	2182,00
323,69	2178,00
330,39	2003,00
337,08	2051,00
343,76	2107,00
350,44	2025,00
357,11	2100,00
363,77	2104,00
370,42	2096,00
377,07	2094,00
383,71	2138,00
390,34	2038,00
396,96	2085,00
403,58	2077,00
410,19	2155,00
416,79	2071,00
423,38	2015,00
429,97	1913,00
436,55	1922,00
443,12	1898,00
449,68	1916,00
456,24	1844,00
462,79	1701,00
469,33	1866,00
475,86	1839,00
482,39	1855,00
488,91	1847,00
495,42	1720,00
501,93	1754,00
508,42	1750,00
514,91	1755,00
521,40	1755,00
527,87	1701,00
534,34	1603,00
540,80	1577,00
547,25	1571,00
553,70	1756,00
560,14	1589,00
566,57	1777,00
573,00	1537,00
579,41	1595,00
585,83	1490,00
592,23	1548,00
598,62	1580,00
605,01	1587,00
611,40	1672,00
617,77	1614,00
624,14	1511,00
630,50	1535,00
636,85	1533,00
643,20	1562,00
649,54	1534,00
655,87	1582,00
662,20	1402,00
668,52	1501,00
674,83	1391,00
681,13	1390,00
687,43	1317,00
693,72	1407,00
700,00	1467,00
706,28	1386,00
712,55	1466,00
718,81	1525,00
725,07	1430,00
731,32	1410,00
737,56	1390,00
743,79	1459,00
750,02	1449,00
756,24	1387,00
762,46	1389,00
768,67	1438,00
774,87	1290,00
781,06	1284,00
787,25	1368,00
793,43	1355,00
799,60	1367,00
805,77	1224,00
811,93	1478,00
818,08	1266,00
824,23	1481,00
830,37	1321,00
836,50	1288,00
842,63	1359,00
848,75	1267,00
854,87	1356,00
860,97	1408,00
867,07	1346,00
873,17	1315,00
879,25	1341,00
885,33	1199,00
891,41	1431,00
897,47	1200,00
903,53	1319,00
909,59	1330,00
915,63	1231,00
921,67	1181,00
927,71	1139,00
933,74	1252,00
939,76	1236,00
945,77	1115,00
951,78	1122,00
957,78	1181,00
963,78	1126,00
969,77	1140,00
975,75	1194,00
981,72	1223,00
987,69	1334,00
993,66	1054,00
999,61	1220,00
1005,56	1086,00
1011,51	1178,00
1017,44	1145,00
1023,37	1191,00
1029,30	1146,00
1035,22	1195,00
1041,13	1204,00
1047,03	1244,00
1052,93	1201,00
1058,83	1484,00
1064,71	1500,00
1070,59	1477,00
1076,47	1334,00
1082,33	1300,00
1088,20	1270,00
1094,05	1119,00
1099,90	1192,00
1105,74	1210,00
1111,58	1190,00
1117,41	1121,00
1123,23	1399,00
1129,05	1401,00
1134,86	1357,00
1140,67	1260,00
1146,47	1222,00
1152,26	1146,00
1158,05	1067,00
1163,83	1023,00
1169,60	1073,00
1175,37	984,00
1181,13	1058,00
1186,89	1129,00
1192,64	1084,00
1198,38	1031,00
1204,12	1071,00
1209,85	1038,00
1215,58	1095,00
1221,30	1018,00
1227,02	1126,00
1232,72	1131,00
1238,43	1117,00
1244,12	1109,00
1249,81	1101,00
1255,50	1266,00
1261,17	1148,00
1266,85	1116,00
1272,51	1114,00
1278,17	1073,00
1283,83	1221,00
1289,47	1467,00
1295,12	1631,00
1300,75	1586,00
1306,38	1338,00
1312,01	1412,00
1317,63	1140,00
1323,24	1143,00
1328,85	1206,00
1334,45	1177,00
1340,04	1142,00
1345,63	1144,00
1351,22	1109,00
1356,80	1113,00
1362,37	1082,00
1367,93	1077,00
1373,49	1210,00
1379,05	1174,00
1384,60	1236,00
1390,14	1139,00
1395,68	1134,00
1401,21	1108,00
1406,74	1164,00
1412,26	1193,00
1417,77	1216,00
1423,28	1295,00
1428,78	1349,00
1434,28	1639,00
1439,77	1645,00
1445,26	1600,00
1450,74	1647,00
1456,22	1386,00
1461,68	1565,00
1467,15	1438,00
1472,61	1358,00
1478,06	1297,00
1483,51	1238,00
1488,95	1070,00
1494,38	1125,00
1499,81	1117,00
1505,24	921,00
1510,65	1021,00
1516,07	1036,00
1521,48	1156,00
1526,88	966,00
1532,27	916,00
1537,67	1139,00
1543,05	1077,00
1548,43	983,00
1553,81	1060,00
1559,18	943,00
1564,54	909,00
1569,90	985,00
1575,25	1013,00
1580,60	943,00
1585,94	812,00
1591,28	957,00
1596,61	1040,00
1601,93	954,00
1607,25	982,00
1612,57	1038,00
1617,88	996,00
1623,18	948,00
1628,48	955,00
1633,77	810,00
1639,06	731,00
1644,34	1020,00
1649,62	906,00
1654,89	994,00
1660,16	824,00
1665,42	866,00
1670,67	782,00
1675,92	771,00
1681,17	802,00
1686,41	881,00
1691,64	700,00
1696,87	852,00
1702,10	773,00
1707,32	834,00
1712,53	820,00
1717,74	794,00
1722,94	699,00
1728,14	833,00
1733,33	804,00
1738,52	694,00
1743,70	784,00
1748,88	734,00
1754,05	740,00
1759,22	781,00
1764,38	745,00
1769,53	711,00
1774,69	741,00
1779,83	809,00
1784,97	734,00
1790,11	686,00
1795,24	809,00
1800,36	728,00
1805,48	737,00
1810,60	727,00
1815,71	658,00
1820,82	669,00
1825,92	699,00
1831,01	673,00
1836,10	618,00
1841,19	707,00
1846,26	781,00
1851,34	634,00
1856,41	640,00
1861,47	702,00
1866,53	675,00
1871,59	652,00
1876,64	545,00
1881,68	468,00
1886,72	638,00
1891,76	705,00
1896,79	601,00
1901,81	706,00
1906,83	682,00
1911,85	628,00
1916,86	666,00
1921,86	642,00
1926,86	566,00
1931,86	668,00
1936,85	499,00
1941,83	712,00
1946,81	555,00
1951,79	527,00
1956,76	568,00
1961,72	498,00
1966,68	555,00
1971,64	627,00
1976,59	530,00
1981,54	513,00
1986,48	472,00
1991,42	488,00
1996,35	543,00
2001,27	467,00
2006,20	466,00
2011,11	592,00
2016,03	532,00
2020,93	528,00
2025,84	612,00
2030,73	405,00
2035,63	485,00
2040,52	555,00
2045,40	592,00
2050,28	507,00
2055,15	395,00
2060,02	488,00
2064,89	525,00
2069,75	516,00
2074,60	353,00
2079,46	427,00
2084,30	504,00
2089,14	532,00
2093,98	441,00
2098,81	506,00
2103,64	582,00
2108,46	499,00
2113,28	535,00
2118,09	411,00
2122,90	433,00
2127,70	426,00
2132,50	574,00
2137,30	370,00
2142,09	526,00
2146,87	475,00
2151,66	488,00
2156,43	391,00
2161,20	357,00
2165,97	436,00
2170,73	372,00
2175,49	545,00
2180,24	397,00
2184,99	683,00
2189,74	476,00
2194,48	344,00
2199,21	473,00
2203,94	392,00
2208,67	488,00
2213,39	513,00
2218,11	343,00
2222,82	462,00
2227,53	458,00
2232,23	408,00
2236,93	415,00
2241,63	363,00
2246,32	415,00
2251,00	326,00
2255,68	376,00
2260,36	305,00
2265,03	455,00
2269,70	293,00
2274,36	335,00
2279,02	379,00
2283,68	359,00
2288,33	280,00
2292,97	305,00
2297,61	316,00
2302,25	373,00
2306,88	359,00
2311,51	369,00
2316,14	310,00
2320,75	369,00
2325,37	314,00
2329,98	496,00
2334,59	361,00
2339,19	277,00
2343,79	240,00
2348,38	377,00
2352,97	372,00
2357,55	297,00
2362,13	274,00
2366,71	362,00
2371,28	368,00
2375,85	273,00
2380,41	329,00
2384,97	187,00
2389,52	233,00
2394,07	235,00
2398,62	261,00
2403,16	342,00
2407,70	413,00
2412,23	374,00
2416,76	362,00
2421,29	378,00
2425,81	301,00
2430,32	301,00
2434,84	288,00
2439,34	280,00
2443,85	194,00
2448,35	152,00
2452,84	218,00
2457,33	132,00
2461,82	308,00
2466,30	293,00
2470,78	351,00
2475,25	245,00
2479,72	266,00
2484,19	295,00
2488,65	421,00
2493,11	242,00
2497,56	409,00
2502,01	284,00
2506,46	206,00
2510,90	167,00
2515,34	442,00
2519,77	109,00
2524,20	366,00
2528,62	162,00
2533,04	284,00
2537,46	262,00
2541,87	298,00
2546,28	220,00
2550,68	267,00
2555,08	250,00
2559,48	321,00
2563,87	187,00
2568,26	271,00
2572,64	382,00
2577,02	288,00
2581,40	278,00
2585,77	270,00
2590,14	254,00
2594,50	127,00
2598,86	168,00
2603,22	183,00
2607,57	226,00
2611,92	214,00
2616,26	227,00
2620,60	377,00
2624,94	393,00
2629,27	204,00
2633,60	159,00
2637,92	296,00
2642,24	244,00
2646,56	209,00
2650,87	188,00
2655,18	233,00
2659,48	235,00
2663,78	294,00
2668,08	298,00
2672,37	358,00
2676,66	205,00
2680,95	262,00
2685,23	182,00
2689,50	229,00
2693,78	231,00
2698,05	240,00
2702,31	172,00
2706,57	294,00
2710,83	240,00
2715,08	318,00
2719,33	368,00
2723,58	314,00
2727,82	450,00
2732,06	293,00
2736,29	264,00
2740,53	270,00
2744,75	346,00
2748,97	273,00
2753,19	340,00
2757,41	295,00
2761,62	290,00
2765,83	252,00
2770,03	209,00
2774,23	208,00
2778,43	286,00
2782,62	205,00
2786,81	225,00
2791,00	240,00
2795,18	427,00
2799,35	164,00
2803,53	298,00
2807,70	425,00
2811,86	269,00
2816,03	411,00
2820,19	240,00
2824,34	254,00
2828,49	559,00
2832,64	478,00
2836,78	573,00
2840,92	792,00
2845,06	703,00
2849,19	848,00
2853,32	923,00
2857,45	862,00
2861,57	963,00
2865,69	944,00
2869,80	912,00
2873,91	847,00
2878,02	920,00
2882,12	1024,00
2886,22	923,00
2890,32	877,00
2894,41	844,00
2898,50	853,00
2902,58	811,00
2906,67	736,00
2910,74	644,00
2914,82	599,00
2918,89	580,00
2922,96	656,00
2927,02	543,00
2931,08	496,00
2935,13	550,00
2939,19	414,00
2943,24	401,00
2947,28	355,00
2951,32	289,00
2955,36	433,00
2959,40	295,00
2963,43	250,00
2967,46	181,00
2971,48	340,00
2975,50	152,00
2979,52	280,00
2983,53	324,00
2987,54	284,00
2991,55	161,00
2995,55	152,00
2999,55	189,00
3003,54	89,00
3007,54	176,00
3011,53	61,00
3015,51	198,00
3019,49	61,00
3023,47	189,00
3027,45	178,00
3031,42	174,00
3035,39	181,00
3039,35	154,00
3043,31	150,00
3047,27	142,00
3051,22	185,00
3055,17	160,00
3059,12	69,00
3063,06	206,00
3067,00	68,00
3070,94	9,00
3074,87	110,00
3078,80	222,00
3082,73	150,00
3086,65	60,00
3090,57	15,00
3094,49	108,00
3098,40	130,00
3102,31	161,00
3106,22	80,00
3110,12	41,00
3114,02	199,00
3117,92	57,00
3121,81	127,00
3125,70	128,00
3129,58	129,00
3133,47	127,00
3137,34	110,00
3141,22	67,00
3145,09	79,00
3148,96	141,00
3152,83	42,00
3156,69	97,00
3160,55	180,00
3164,40	75,00
3168,26	-53,00
3172,10	141,00
3175,95	183,00
3179,79	110,00
3183,63	139,00
3187,47	325,00
3191,30	174,00
3195,13	115,00
3198,95	63,00
3202,78	133,00
3206,60	114,00
3210,41	70,00
3214,23	133,00
3218,03	-17,00
3221,84	53,00
3225,64	16,00
3229,44	102,00
3233,24	197,00
3237,03	116,00
3240,82	52,00
3244,61	106,00
3248,39	56,00
3252,17	114,00
3255,95	213,00
3259,72	157,00
3263,49	91,00
3267,26	8,00
3271,03	124,00
3274,79	62,00
3278,54	201,00
3282,30	111,00
3286,05	176,00
3289,80	-36,00
3293,54	97,00
3297,29	154,00
3301,02	55,00
3304,76	84,00
3308,49	121,00
3312,22	17,00
3315,95	73,00
3319,67	63,00
3323,39	121,00
3327,10	5,00
3330,82	34,00
3334,53	88,00
3338,24	112,00
3341,94	166,00
3345,64	125,00
3349,34	20,00
3353,03	96,00
3356,72	43,00
3360,41	-32,00
3364,10	83,00
3367,78	105,00
3371,46	93,00
3375,13	108,00
3378,81	53,00
3382,48	95,00
3386,14	182,00
3389,81	20,00
3393,47	139,00
3397,12	133,00
3400,78	130,00
3404,43	33,00
3408,08	-48,00
3411,72	146,00
3415,36	40,00
3419,00	-66,00
3422,64	-33,00
3426,27	142,00
3429,90	174,00
3433,53	145,00
3437,15	129,00
3440,77	74,00
3444,39	32,00
3448,00	2,00
3451,62	180,00
3455,22	111,00
3458,83	61,00
3462,43	167,00
3466,03	14,00
3469,63	-26,00
3473,22	159,00
3476,81	-6,00
3480,40	64,00
3483,99	59,00
3487,57	48,00
3491,15	61,00
3494,72	114,00
3498,29	197,00
3501,86	43,00
3505,43	88,00
3508,99	-12,00
3512,56	95,00
3516,11	25,00
3519,67	8,00
3523,22	78,00
3526,77	130,00
3530,32	106,00
3533,86	-27,00
3537,40	76,00
3540,94	183,00
3544,47	-130,00
3548,00	84,00
3551,53	105,00
3555,06	71,00
3558,58	54,00
3562,10	60,00
3565,62	3,00
3569,13	41,00
3572,64	183,00
3576,15	43,00
3579,66	54,00
3583,16	69,00
3586,66	-6,00
3590,16	-5,00
3593,65	39,00
3597,14	-26,00
3600,63	35,00
3604,11	15,00
3607,60	58,00
3611,08	90,00
3614,55	-9,00
3618,03	51,00
3621,50	48,00
3624,97	107,00
3628,43	-37,00
3631,90	-45,00
3635,36	92,00
3638,81	13,00
3642,27	-19,00
3645,72	165,00
3649,17	71,00
3652,61	99,00
3656,06	-27,00
3659,50	32,00
3662,93	-12,00
3666,37	26,00
3669,80	17,00
3673,23	6,00
3676,65	148,00
3680,08	39,00
3683,50	86,00
3686,92	25,00
3690,33	95,00
3693,74	37,00
3697,15	124,00
3700,56	34,00
3703,96	1,00
3707,36	-2,00
3710,76	-79,00
3714,16	19,00
3717,55	-2,00
3720,94	139,00
3724,33	63,00
3727,71	15,00
3731,10	70,00
3734,48	68,00
3737,85	-29,00
3741,23	37,00
3744,60	-85,00
3747,97	-33,00
3751,33	172,00
3754,69	201,00
3758,05	70,00
3761,41	-55,00
3764,77	30,00
3768,12	57,00
3771,47	42,00
3774,82	2,00
3778,16	-3,00
3781,50	-2,00
3784,84	4,00
3788,18	8,00
>>>>>End Processed Spectral Data<<<<<
