SpectraSuite Data File
++++++++++++++++++++++++++++++++++++
Date: Mon Mar 09 15:47:35 ICT 2026
User: Administrator
Dark Spectrum Present: Yes
Reference Spectrum Present: No
Number of Sampled Component Spectra: 1
Spectrometers: MAYP113682
Integration Time (usec): 3000000 (MAYP113682)
Spectra Averaged: 1 (MAYP113682)
Boxcar Smoothing: 0 (MAYP113682)
Correct for Electrical Dark: No (MAYP113682)
Strobe/Lamp Enabled: No (MAYP113682)
Correct for Detector Non-linearity: No (MAYP113682)
Correct for Stray Light: No (MAYP113682)
Number of Pixels in Processed Spectrum: 2068
>>>>>Begin Processed Spectral Data<<<<<
-37534,58	2,00
-37414,56	2,00
-37295,11	6,00
-37176,24	8,00
-37057,95	339,00
-36940,22	201,00
-36823,05	241,00
-36706,45	395,00
-36590,40	314,00
-36474,90	246,00
-36359,95	335,00
-36245,55	374,00
-36131,68	275,00
-36018,35	404,00
-35905,55	297,00
-35793,29	300,00
-35681,54	422,00
-35570,32	273,00
-35459,62	342,00
-35349,43	251,00
-35239,75	343,00
-35130,58	481,00
-35021,91	361,00
-34913,74	221,00
-34806,07	305,00
-34698,89	277,00
-34592,20	301,00
-34486,00	333,00
-34380,28	325,00
-34275,04	410,00
-34170,27	325,00
-34065,98	312,00
-33962,16	475,00
-33858,81	290,00
-33755,92	366,00
-33653,49	341,00
-33551,52	389,00
-33450,01	517,00
-33348,94	243,00
-33248,33	285,00
-33148,16	379,00
-33048,43	389,00
-32949,14	372,00
-32850,29	411,00
-32751,87	429,00
-32653,89	305,00
-32556,33	349,00
-32459,20	266,00
-32362,49	455,00
-32266,19	388,00
-32170,32	340,00
-32074,86	401,00
-31979,82	517,00
-31885,18	405,00
-31790,95	216,00
-31697,12	374,00
-31603,69	467,00
-31510,67	382,00
-31418,04	440,00
-31325,80	330,00
-31233,95	405,00
-31142,49	395,00
-31051,42	369,00
-30960,73	422,00
-30870,43	402,00
-30780,50	476,00
-30690,95	328,00
-30601,77	430,00
-30512,97	487,00
-30424,53	406,00
-30336,46	436,00
-30248,76	412,00
-30161,42	474,00
-30074,44	426,00
-29987,81	499,00
-29901,55	464,00
-29815,63	374,00
-29730,07	283,00
-29644,86	252,00
-29560,00	464,00
-29475,48	485,00
-29391,30	310,00
-29307,47	343,00
-29223,97	393,00
-29140,81	390,00
-29057,99	273,00
-28975,50	360,00
-28893,34	455,00
-28811,51	398,00
-28730,00	395,00
-28648,82	306,00
-28567,97	416,00
-28487,43	412,00
-28407,21	398,00
-28327,32	351,00
-28247,73	347,00
-28168,46	403,00
-28089,50	279,00
-28010,85	394,00
-27932,51	371,00
-27854,48	428,00
-27776,75	270,00
-27699,32	479,00
-27622,19	376,00
-27545,37	403,00
-27468,84	431,00
-27392,60	372,00
-27316,66	349,00
-27241,01	428,00
-27165,66	425,00
-27090,59	293,00
-27015,81	371,00
-26941,31	470,00
-26867,10	298,00
-26793,17	495,00
-26719,52	455,00
-26646,15	363,00
-26573,06	330,00
-26500,24	348,00
-26427,70	355,00
-26355,43	412,00
-26283,43	362,00
-26211,71	455,00
-26140,25	375,00
-26069,06	457,00
-25998,13	315,00
-25927,46	281,00
-25857,06	320,00
-25786,92	351,00
-25717,04	370,00
-25647,42	434,00
-25578,05	327,00
-25508,94	439,00
-25440,09	451,00
-25371,48	376,00
-25303,13	466,00
-25235,02	425,00
-25167,17	413,00
-25099,56	461,00
-25032,19	409,00
-24965,07	395,00
-24898,20	389,00
-24831,56	422,00
-24765,17	371,00
-24699,01	422,00
-24633,10	315,00
-24567,41	282,00
-24501,97	291,00
-24436,75	373,00
-24371,77	357,00
-24307,03	428,00
-24242,51	356,00
-24178,22	342,00
-24114,16	315,00
-24050,32	369,00
-23986,71	190,00
-23923,32	403,00
-23860,16	346,00
-23797,22	346,00
-23734,50	341,00
-23672,00	377,00
-23609,71	279,00
-23547,65	356,00
-23485,80	384,00
-23424,16	261,00
-23362,74	409,00
-23301,53	310,00
-23240,54	401,00
-23179,75	446,00
-23119,17	436,00
-23058,80	481,00
-22998,64	386,00
-22938,68	338,00
-22878,93	445,00
-22819,39	334,00
-22760,04	329,00
-22700,90	321,00
-22641,96	384,00
-22583,22	304,00
-22524,68	378,00
-22466,33	274,00
-22408,19	403,00
-22350,23	476,00
-22292,48	308,00
-22234,92	364,00
-22177,55	381,00
-22120,37	509,00
-22063,38	426,00
-22006,58	372,00
-21949,98	403,00
-21893,56	304,00
-21837,33	338,00
-21781,28	370,00
-21725,42	275,00
-21669,74	401,00
-21614,25	420,00
-21558,94	234,00
-21503,81	470,00
-21448,86	445,00
-21394,10	346,00
-21339,51	376,00
-21285,10	466,00
-21230,86	320,00
-21176,81	399,00
-21122,93	307,00
-21069,22	415,00
-21015,69	286,00
-20962,33	342,00
-20909,14	423,00
-20856,13	367,00
-20803,28	289,00
-20750,61	314,00
-20698,10	327,00
-20645,76	345,00
-20593,59	444,00
-20541,59	438,00
-20489,75	464,00
-20438,07	313,00
-20386,56	336,00
-20335,22	372,00
-20284,03	340,00
-20233,01	416,00
-20182,15	433,00
-20131,45	365,00
-20080,91	404,00
-20030,52	285,00
-19980,30	359,00
-19930,23	347,00
-19880,32	515,00
-19830,56	337,00
-19780,96	261,00
-19731,52	321,00
-19682,23	337,00
-19633,09	366,00
-19584,10	441,00
-19535,26	391,00
-19486,58	506,00
-19438,04	384,00
-19389,66	439,00
-19341,42	306,00
-19293,33	363,00
-19245,39	259,00
-19197,60	436,00
-19149,95	414,00
-19102,45	324,00
-19055,09	313,00
-19007,87	379,00
-18960,80	312,00
-18913,87	460,00
-18867,09	330,00
-18820,44	407,00
-18773,94	419,00
-18727,57	315,00
-18681,35	279,00
-18635,26	301,00
-18589,31	307,00
-18543,50	481,00
-18497,83	434,00
-18452,29	441,00
-18406,89	370,00
-18361,63	365,00
-18316,50	491,00
-18271,50	405,00
-18226,63	428,00
-18181,90	438,00
-18137,30	400,00
-18092,84	293,00
-18048,50	280,00
-18004,29	452,00
-17960,22	433,00
-17916,27	222,00
-17872,45	392,00
-17828,76	398,00
-17785,20	319,00
-17741,77	205,00
-17698,46	370,00
-17655,28	379,00
-17612,22	363,00
-17569,29	360,00
-17526,48	356,00
-17483,79	473,00
-17441,23	310,00
-17398,79	297,00
-17356,48	310,00
-17314,28	363,00
-17272,21	465,00
-17230,26	309,00
-17188,42	361,00
-17146,71	244,00
-17105,12	357,00
-17063,64	293,00
-17022,28	303,00
-16981,04	381,00
-16939,92	322,00
-16898,91	516,00
-16858,02	326,00
-16817,25	421,00
-16776,59	345,00
-16736,04	411,00
-16695,61	356,00
-16655,29	265,00
-16615,09	305,00
-16574,99	390,00
-16535,01	373,00
-16495,15	376,00
-16455,39	321,00
-16415,74	410,00
-16376,21	341,00
-16336,78	402,00
-16297,46	253,00
-16258,26	327,00
-16219,16	437,00
-16180,17	349,00
-16141,28	326,00
-16102,51	276,00
-16063,84	386,00
-16025,27	417,00
-15986,82	447,00
-15948,46	383,00
-15910,22	304,00
-15872,07	340,00
-15834,04	325,00
-15796,10	496,00
-15758,27	348,00
-15720,54	467,00
-15682,91	323,00
-15645,39	338,00
-15607,97	328,00
-15570,64	399,00
-15533,42	347,00
-15496,30	348,00
-15459,28	438,00
-15422,36	339,00
-15385,54	373,00
-15348,82	344,00
-15312,19	372,00
-15275,66	332,00
-15239,23	425,00
-15202,90	318,00
-15166,67	302,00
-15130,53	350,00
-15094,48	288,00
-15058,54	459,00
-15022,68	324,00
-14986,93	432,00
-14951,26	296,00
-14915,69	318,00
-14880,22	313,00
-14844,84	464,00
-14809,55	405,00
-14774,35	383,00
-14739,25	303,00
-14704,24	295,00
-14669,32	302,00
-14634,49	281,00
-14599,75	314,00
-14565,10	320,00
-14530,55	344,00
-14496,08	336,00
-14461,70	278,00
-14427,41	376,00
-14393,21	311,00
-14359,10	345,00
-14325,07	277,00
-14291,14	389,00
-14257,29	397,00
-14223,52	380,00
-14189,85	349,00
-14156,26	352,00
-14122,76	467,00
-14089,34	368,00
-14056,01	288,00
-14022,76	361,00
-13989,60	345,00
-13956,52	423,00
-13923,53	289,00
-13890,62	332,00
-13857,79	421,00
-13825,05	498,00
-13792,39	386,00
-13759,81	366,00
-13727,31	448,00
-13694,90	368,00
-13662,57	318,00
-13630,31	399,00
-13598,14	433,00
-13566,05	243,00
-13534,05	365,00
-13502,12	427,00
-13470,27	298,00
-13438,50	341,00
-13406,80	469,00
-13375,19	374,00
-13343,66	347,00
-13312,20	438,00
-13280,83	429,00
-13249,53	327,00
-13218,30	376,00
-13187,16	314,00
-13156,09	408,00
-13125,10	300,00
-13094,18	333,00
-13063,34	299,00
-13032,58	341,00
-13001,89	318,00
-12971,28	321,00
-12940,74	360,00
-12910,27	371,00
-12879,88	204,00
-12849,57	375,00
-12819,33	297,00
-12789,16	383,00
-12759,06	334,00
-12729,04	380,00
-12699,09	-645,00
-12669,21	209,00
-12639,41	448,00
-12609,68	289,00
-12580,02	324,00
-12550,43	423,00
-12520,91	330,00
-12491,46	311,00
-12462,08	459,00
-12432,77	312,00
-12403,54	312,00
-12374,37	275,00
-12345,27	331,00
-12316,24	466,00
-12287,29	320,00
-12258,40	326,00
-12229,57	433,00
-12200,82	383,00
-12172,14	407,00
-12143,52	217,00
-12114,97	297,00
-12086,49	381,00
-12058,07	346,00
-12029,73	308,00
-12001,44	472,00
-11973,23	351,00
-11945,08	448,00
-11917,00	360,00
-11888,98	266,00
-11861,03	428,00
-11833,15	321,00
-11805,32	314,00
-11777,57	388,00
-11749,88	288,00
-11722,25	353,00
-11694,69	335,00
-11667,19	385,00
-11639,75	399,00
-11612,38	401,00
-11585,07	322,00
-11557,83	405,00
-11530,65	357,00
-11503,53	357,00
-11476,47	304,00
-11449,48	334,00
-11422,54	311,00
-11395,67	333,00
-11368,86	256,00
-11342,11	409,00
-11315,43	400,00
-11288,80	453,00
-11262,23	390,00
-11235,73	401,00
-11209,28	372,00
-11182,90	325,00
-11156,57	470,00
-11130,31	544,00
-11104,10	351,00
-11077,96	349,00
-11051,87	425,00
-11025,84	393,00
-10999,87	350,00
-10973,96	379,00
-10948,11	364,00
-10922,31	256,00
-10896,58	402,00
-10870,90	419,00
-10845,28	301,00
-10819,71	407,00
-10794,20	374,00
-10768,75	363,00
-10743,36	374,00
-10718,02	416,00
-10692,74	387,00
-10667,52	331,00
-10642,35	377,00
-10617,24	333,00
-10592,18	316,00
-10567,18	296,00
-10542,23	347,00
-10517,34	372,00
-10492,51	317,00
-10467,72	329,00
-10443,00	394,00
-10418,32	291,00
-10393,70	285,00
-10369,14	327,00
-10344,63	414,00
-10320,17	346,00
-10295,77	427,00
-10271,42	340,00
-10247,12	494,00
-10222,88	447,00
-10198,68	196,00
-10174,54	337,00
-10150,46	246,00
-10126,42	353,00
-10102,44	395,00
-10078,51	304,00
-10054,63	338,00
-10030,80	253,00
-10007,03	289,00
-9983,30	390,00
-9959,63	172,00
-9936,01	282,00
-9912,44	102,00
-9888,92	346,00
-9865,44	279,00
-9842,02	234,00
-9818,65	232,00
-9795,33	251,00
-9772,06	251,00
-9748,84	121,00
-9725,67	123,00
-9702,55	252,00
-9679,47	184,00
-9656,45	185,00
-9633,47	65,00
-9610,55	-5,00
-9587,67	27,00
-9564,84	219,00
-9542,06	-84,00
-9519,32	-221,00
-9496,64	-88,00
-9474,00	-84,00
-9451,41	-374,00
-9428,87	-204,00
-9406,37	-244,00
-9383,92	-70,00
-9361,52	-286,00
-9339,17	-166,00
-9316,86	-359,00
-9294,60	-394,00
-9272,38	-413,00
-9250,21	-313,00
-9228,09	-602,00
-9206,01	-488,00
-9183,98	-376,00
-9162,00	-520,00
-9140,06	-389,00
-9118,16	-418,00
-9096,31	-492,00
-9074,51	-498,00
-9052,75	-427,00
-9031,04	-301,00
-9009,37	-322,00
-8987,74	-328,00
-8966,16	-199,00
-8944,63	-37,00
-8923,14	-269,00
-8901,69	-237,00
-8880,29	-230,00
-8858,93	-257,00
-8837,61	-275,00
-8816,34	-227,00
-8795,11	-369,00
-8773,92	-192,00
-8752,78	-207,00
-8731,68	-72,00
-8710,62	-130,00
-8689,61	-231,00
-8668,63	-217,00
-8647,70	-239,00
-8626,82	-244,00
-8605,97	-147,00
-8585,17	-196,00
-8564,41	-169,00
-8543,69	-9,00
-8523,01	-137,00
-8502,37	-85,00
-8481,78	21,00
-8461,23	-159,00
-8440,71	-134,00
-8420,24	-196,00
-8399,81	-228,00
-8379,42	-99,00
-8359,08	-32,00
-8338,77	-199,00
-8318,50	-82,00
-8298,27	-126,00
-8278,09	-158,00
-8257,94	-159,00
-8237,83	-18,00
-8217,76	-139,00
-8197,74	-260,00
-8177,75	-137,00
-8157,80	-71,00
-8137,89	-94,00
-8118,02	-79,00
-8098,19	-58,00
-8078,40	6,00
-8058,65	-23,00
-8038,93	80,00
-8019,26	-7,00
-7999,62	-59,00
-7980,02	-58,00
-7960,46	92,00
-7940,94	-6,00
-7921,46	117,00
-7902,01	12,00
-7882,60	164,00
-7863,23	31,00
-7843,90	96,00
-7824,61	50,00
-7805,35	55,00
-7786,13	-45,00
-7766,95	5,00
-7747,80	7,00
-7728,69	165,00
-7709,62	12,00
-7690,59	130,00
-7671,59	110,00
-7652,63	52,00
-7633,70	34,00
-7614,81	39,00
-7595,96	-48,00
-7577,15	183,00
-7558,37	0,00
-7539,62	147,00
-7520,91	-21,00
-7502,24	-46,00
-7483,60	86,00
-7465,00	26,00
-7446,44	86,00
-7427,91	36,00
-7409,41	172,00
-7390,95	201,00
-7372,53	76,00
-7354,14	157,00
-7335,78	85,00
-7317,46	112,00
-7299,18	16,00
-7280,92	21,00
-7262,71	99,00
-7244,52	-52,00
-7226,38	23,00
-7208,26	-6,00
-7190,18	43,00
-7172,14	198,00
-7154,12	167,00
-7136,15	-83,00
-7118,20	95,00
-7100,29	35,00
-7082,41	-16,00
-7064,57	71,00
-7046,76	108,00
-7028,98	-2,00
-7011,24	144,00
-6993,53	39,00
-6975,85	194,00
-6958,20	232,00
-6940,59	137,00
-6923,01	102,00
-6905,46	205,00
-6887,94	67,00
-6870,46	2641,00
-6853,01	29,00
-6835,59	33,00
-6818,21	76,00
-6800,85	198,00
-6783,53	105,00
-6766,24	251,00
-6748,98	124,00
-6731,76	92,00
-6714,56	287,00
-6697,40	61,00
-6680,26	96,00
-6663,16	104,00
-6646,09	168,00
-6629,05	146,00
-6612,05	182,00
-6595,07	54,00
-6578,13	59,00
-6561,21	122,00
-6544,33	170,00
-6527,47	256,00
-6510,65	137,00
-6493,86	166,00
-6477,10	124,00
-6460,36	122,00
-6443,66	200,00
-6426,99	96,00
-6410,35	253,00
-6393,74	238,00
-6377,16	261,00
-6360,61	160,00
-6344,09	131,00
-6327,59	173,00
-6311,13	108,00
-6294,70	137,00
-6278,29	198,00
-6261,92	206,00
-6245,58	263,00
-6229,26	165,00
-6212,97	162,00
-6196,72	144,00
-6180,49	165,00
-6164,29	286,00
-6148,12	286,00
-6131,98	196,00
-6115,86	322,00
-6099,78	240,00
-6083,72	92,00
-6067,69	338,00
-6051,69	168,00
-6035,72	212,00
-6019,78	131,00
-6003,87	168,00
-5987,98	142,00
-5972,12	-27,00
-5956,29	148,00
-5940,49	143,00
-5924,71	293,00
-5908,96	214,00
-5893,24	295,00
-5877,55	212,00
-5861,89	137,00
-5846,25	223,00
-5830,64	185,00
-5815,05	240,00
-5799,50	243,00
-5783,97	217,00
-5768,47	287,00
-5752,99	215,00
-5737,55	147,00
-5722,12	196,00
-5706,73	185,00
-5691,36	177,00
-5676,02	198,00
-5660,71	268,00
-5645,42	240,00
-5630,16	207,00
-5614,92	269,00
-5599,71	98,00
-5584,53	166,00
-5569,37	125,00
-5554,24	414,00
-5539,14	218,00
-5524,06	157,00
-5509,01	263,00
-5493,98	180,00
-5478,98	187,00
-5464,00	247,00
-5449,05	284,00
-5434,13	336,00
-5419,23	307,00
-5404,36	297,00
-5389,51	175,00
-5374,69	285,00
-5359,89	99,00
-5345,12	106,00
-5330,37	310,00
-5315,65	202,00
-5300,95	234,00
-5286,28	182,00
-5271,63	203,00
-5257,01	323,00
-5242,41	211,00
-5227,84	158,00
-5213,29	191,00
-5198,76	297,00
-5184,26	243,00
-5169,79	163,00
-5155,33	160,00
-5140,91	238,00
-5126,51	283,00
-5112,13	182,00
-5097,77	208,00
-5083,44	207,00
-5069,13	298,00
-5054,85	301,00
-5040,59	244,00
-5026,36	274,00
-5012,15	212,00
-4997,96	234,00
-4983,80	218,00
-4969,66	297,00
-4955,54	302,00
-4941,44	304,00
-4927,37	272,00
-4913,33	212,00
-4899,30	251,00
-4885,30	206,00
-4871,33	198,00
-4857,37	302,00
-4843,44	377,00
-4829,53	406,00
-4815,65	217,00
-4801,79	182,00
-4787,95	305,00
-4774,13	275,00
-4760,34	303,00
-4746,56	363,00
-4732,82	300,00
-4719,09	292,00
-4705,38	291,00
-4691,70	330,00
-4678,04	196,00
-4664,41	211,00
-4650,79	367,00
-4637,20	338,00
-4623,63	269,00
-4610,08	220,00
-4596,56	219,00
-4583,05	262,00
-4569,57	309,00
-4556,11	311,00
-4542,67	292,00
-4529,25	371,00
-4515,86	315,00
-4502,49	255,00
-4489,13	218,00
-4475,80	272,00
-4462,49	254,00
-4449,21	374,00
-4435,94	362,00
-4422,70	231,00
-4409,47	210,00
-4396,27	289,00
-4383,09	205,00
-4369,93	370,00
-4356,79	366,00
-4343,67	271,00
-4330,58	284,00
-4317,50	394,00
-4304,45	373,00
-4291,41	292,00
-4278,40	350,00
-4265,41	356,00
-4252,44	312,00
-4239,49	202,00
-4226,55	240,00
-4213,65	298,00
-4200,76	416,00
-4187,89	294,00
-4175,04	346,00
-4162,21	299,00
-4149,40	233,00
-4136,61	249,00
-4123,85	402,00
-4111,10	411,00
-4098,37	360,00
-4085,66	339,00
-4072,98	485,00
-4060,31	470,00
-4047,66	306,00
-4035,04	345,00
-4022,43	341,00
-4009,84	470,00
-3997,27	379,00
-3984,72	235,00
-3972,19	312,00
-3959,69	412,00
-3947,20	375,00
-3934,73	378,00
-3922,27	354,00
-3909,84	289,00
-3897,43	394,00
-3885,04	321,00
-3872,67	465,00
-3860,31	425,00
-3847,98	465,00
-3835,66	394,00
-3823,36	290,00
-3811,09	238,00
-3798,83	379,00
-3786,59	399,00
-3774,37	378,00
-3762,17	434,00
-3749,98	372,00
-3737,82	377,00
-3725,67	561,00
-3713,55	316,00
-3701,44	367,00
-3689,35	347,00
-3677,28	442,00
-3665,22	385,00
-3653,19	356,00
-3641,17	323,00
-3629,18	347,00
-3617,20	347,00
-3605,24	392,00
-3593,30	336,00
-3581,37	479,00
-3569,47	373,00
-3557,58	346,00
-3545,71	461,00
-3533,86	456,00
-3522,02	374,00
-3510,21	427,00
-3498,41	325,00
-3486,63	431,00
-3474,87	296,00
-3463,12	329,00
-3451,40	308,00
-3439,69	321,00
-3428,00	410,00
-3416,33	378,00
-3404,67	418,00
-3393,03	323,00
-3381,41	399,00
-3369,81	373,00
-3358,22	425,00
-3346,66	337,00
-3335,10	453,00
-3323,57	335,00
-3312,06	343,00
-3300,56	375,00
-3289,08	332,00
-3277,61	398,00
-3266,16	372,00
-3254,73	432,00
-3243,32	364,00
-3231,92	404,00
-3220,55	372,00
-3209,18	420,00
-3197,84	420,00
-3186,51	408,00
-3175,20	224,00
-3163,90	367,00
-3152,63	373,00
-3141,36	382,00
-3130,12	379,00
-3118,89	430,00
-3107,68	352,00
-3096,49	376,00
-3085,31	337,00
-3074,15	449,00
-3063,00	409,00
-3051,87	501,00
-3040,76	448,00
-3029,67	463,00
-3018,59	342,00
-3007,52	332,00
-2996,48	392,00
-2985,44	387,00
-2974,43	413,00
-2963,43	367,00
-2952,45	409,00
-2941,48	442,00
-2930,53	294,00
-2919,60	439,00
-2908,68	381,00
-2897,78	332,00
-2886,89	415,00
-2876,02	430,00
-2865,17	360,00
-2854,33	345,00
-2843,50	429,00
-2832,70	486,00
-2821,90	348,00
-2811,13	330,00
-2800,37	378,00
-2789,62	397,00
-2778,89	355,00
-2768,18	501,00
-2757,48	389,00
-2746,80	346,00
-2736,13	493,00
-2725,48	361,00
-2714,84	443,00
-2704,22	363,00
-2693,61	231,00
-2683,02	431,00
-2672,45	493,00
-2661,89	431,00
-2651,34	416,00
-2640,81	367,00
-2630,30	424,00
-2619,80	404,00
-2609,31	298,00
-2598,84	266,00
-2588,39	372,00
-2577,95	372,00
-2567,52	321,00
-2557,11	417,00
-2546,71	424,00
-2536,33	290,00
-2525,97	230,00
-2515,62	354,00
-2505,28	346,00
-2494,96	334,00
-2484,65	326,00
-2474,36	600,00
-2464,08	317,00
-2453,82	428,00
-2443,57	314,00
-2433,33	354,00
-2423,11	315,00
-2412,91	304,00
-2402,72	280,00
-2392,54	285,00
-2382,38	330,00
-2372,23	344,00
-2362,09	-3562,00
-2351,97	375,00
-2341,87	216,00
-2331,78	474,00
-2321,70	417,00
-2311,64	357,00
-2301,59	255,00
-2291,55	255,00
-2281,53	363,00
-2271,53	327,00
-2261,53	354,00
-2251,55	465,00
-2241,59	381,00
-2231,64	458,00
-2221,70	439,00
-2211,78	385,00
-2201,87	335,00
-2191,97	464,00
-2182,09	414,00
-2172,22	369,00
-2162,37	333,00
-2152,53	351,00
-2142,70	346,00
-2132,89	263,00
-2123,09	353,00
-2113,30	396,00
-2103,53	353,00
-2093,77	367,00
-2084,02	437,00
-2074,29	506,00
-2064,57	475,00
-2054,86	431,00
-2045,17	405,00
-2035,49	430,00
-2025,82	259,00
-2016,17	347,00
-2006,53	387,00
-1996,91	359,00
-1987,29	278,00
-1977,69	312,00
-1968,11	342,00
-1958,53	428,00
-1948,97	404,00
-1939,42	385,00
-1929,89	387,00
-1920,37	439,00
-1910,86	373,00
-1901,36	549,00
-1891,88	374,00
-1882,41	309,00
-1872,95	397,00
-1863,51	325,00
-1854,08	294,00
-1844,66	418,00
-1835,26	377,00
-1825,86	409,00
-1816,48	435,00
-1807,11	344,00
-1797,76	427,00
-1788,42	302,00
-1779,09	395,00
-1769,77	389,00
-1760,47	393,00
-1751,17	300,00
-1741,89	399,00
-1732,63	344,00
-1723,37	391,00
-1714,13	480,00
-1704,90	376,00
-1695,68	276,00
-1686,48	442,00
-1677,29	303,00
-1668,11	452,00
-1658,94	349,00
-1649,78	396,00
-1640,64	445,00
-1631,51	376,00
-1622,39	440,00
-1613,28	364,00
-1604,19	395,00
-1595,10	423,00
-1586,03	394,00
-1576,97	365,00
-1567,93	359,00
-1558,89	398,00
-1549,87	376,00
-1540,86	384,00
-1531,86	440,00
-1522,87	300,00
-1513,90	482,00
-1504,93	330,00
-1495,98	394,00
-1487,04	294,00
-1478,12	359,00
-1469,20	490,00
-1460,30	349,00
-1451,40	440,00
-1442,52	331,00
-1433,65	415,00
-1424,80	383,00
-1415,95	340,00
-1407,12	522,00
-1398,30	362,00
-1389,48	357,00
-1380,69	362,00
-1371,90	183,00
-1363,12	397,00
-1354,36	522,00
-1345,60	287,00
-1336,86	493,00
-1328,13	449,00
-1319,41	332,00
-1310,70	315,00
-1302,01	437,00
-1293,32	475,00
-1284,65	376,00
-1275,99	350,00
-1267,33	272,00
-1258,69	384,00
-1250,06	403,00
-1241,45	269,00
-1232,84	333,00
-1224,25	440,00
-1215,66	451,00
-1207,09	358,00
-1198,53	308,00
-1189,97	386,00
-1181,43	282,00
-1172,91	418,00
-1164,39	445,00
-1155,88	358,00
-1147,38	295,00
-1138,90	593,00
-1130,43	309,00
-1121,96	297,00
-1113,51	378,00
-1105,07	414,00
-1096,64	388,00
-1088,22	465,00
-1079,81	386,00
-1071,41	491,00
-1063,02	360,00
-1054,65	505,00
-1046,28	503,00
-1037,92	433,00
-1029,58	364,00
-1021,24	374,00
-1012,92	466,00
-1004,61	380,00
-996,30	578,00
-988,01	335,00
-979,73	349,00
-971,46	451,00
-963,20	342,00
-954,95	334,00
-946,71	321,00
-938,48	356,00
-930,26	363,00
-922,06	333,00
-913,86	347,00
-905,67	312,00
-897,49	381,00
-889,33	377,00
-881,17	383,00
-873,02	388,00
-864,89	335,00
-856,76	311,00
-848,65	459,00
-840,54	462,00
-832,45	413,00
-824,36	392,00
-816,29	483,00
-808,22	413,00
-800,17	435,00
-792,12	520,00
-784,09	484,00
-776,06	376,00
-768,05	363,00
-760,04	420,00
-752,05	318,00
-744,07	414,00
-736,09	439,00
-728,13	394,00
-720,17	265,00
-712,23	365,00
-704,29	341,00
-696,37	444,00
-688,45	366,00
-680,55	394,00
-672,65	382,00
-664,77	301,00
-656,89	355,00
-649,03	265,00
-641,17	345,00
-633,32	400,00
-625,49	290,00
-617,66	388,00
-609,84	331,00
-602,03	399,00
-594,23	188,00
-586,45	516,00
-578,67	444,00
-570,90	409,00
-563,14	284,00
-555,39	409,00
-547,65	446,00
-539,91	326,00
-532,19	338,00
-524,48	408,00
-516,78	355,00
-509,08	331,00
-501,40	388,00
-493,72	378,00
-486,06	303,00
-478,40	400,00
-470,76	410,00
-463,12	383,00
-455,49	339,00
-447,87	486,00
-440,26	394,00
-432,66	391,00
-425,07	349,00
-417,49	426,00
-409,92	376,00
-402,35	250,00
-394,80	398,00
-387,25	511,00
-379,72	513,00
-372,19	362,00
-364,67	474,00
-357,17	354,00
-349,67	318,00
-342,18	301,00
-334,69	418,00
-327,22	286,00
-319,76	446,00
-312,30	397,00
-304,86	450,00
-297,42	300,00
-290,00	321,00
-282,58	346,00
-275,17	553,00
-267,77	322,00
-260,37	403,00
-252,99	464,00
-245,62	351,00
-238,25	432,00
-230,90	418,00
-223,55	486,00
-216,21	391,00
-208,88	581,00
-201,56	435,00
-194,25	357,00
-186,94	551,00
-179,65	485,00
-172,36	413,00
-165,08	526,00
-157,81	680,00
-150,55	699,00
-143,30	523,00
-136,06	575,00
-128,82	757,00
-121,60	760,00
-114,38	743,00
-107,17	668,00
-99,97	880,00
-92,78	842,00
-85,60	894,00
-78,42	1116,00
-71,25	1090,00
-64,10	1191,00
-56,95	1424,00
-49,81	1625,00
-42,67	1939,00
-35,55	2225,00
-28,43	2850,00
-21,33	4546,00
-14,23	15106,00
-7,14	55635,00
-0,05	55419,00
7,02	55129,00
14,09	47408,00
21,14	12751,00
28,19	5503,00
35,23	3636,00
42,27	2888,00
49,29	2501,00
56,31	2076,00
63,32	1854,00
70,32	1478,00
77,31	1367,00
84,29	1272,00
91,27	1237,00
98,23	1069,00
105,19	1028,00
112,14	1044,00
119,09	1463,00
126,02	1915,00
132,95	2073,00
139,87	1981,00
146,78	2155,00
153,68	1991,00
160,58	2155,00
167,46	2031,00
174,34	2061,00
181,21	1983,00
188,08	2007,00
194,93	1919,00
201,78	1982,00
208,62	1992,00
215,45	1786,00
222,27	1940,00
229,09	1918,00
235,90	1958,00
242,70	2000,00
249,49	1941,00
256,27	1770,00
263,05	1801,00
269,82	1827,00
276,58	1939,00
283,33	1881,00
290,08	1781,00
296,82	1820,00
303,55	1684,00
310,27	1624,00
316,98	1726,00
323,69	1611,00
330,39	1703,00
337,08	1663,00
343,76	1724,00
350,44	1719,00
357,11	1618,00
363,77	1674,00
370,42	1674,00
377,07	1635,00
383,71	1606,00
390,34	1694,00
396,96	1583,00
403,58	1631,00
410,19	1689,00
416,79	1553,00
423,38	1760,00
429,97	1713,00
436,55	1475,00
443,12	1559,00
449,68	1462,00
456,24	1663,00
462,79	1468,00
469,33	1502,00
475,86	1449,00
482,39	1579,00
488,91	1447,00
495,42	1440,00
501,93	1444,00
508,42	1522,00
514,91	1462,00
521,40	1446,00
527,87	1433,00
534,34	1437,00
540,80	1294,00
547,25	1400,00
553,70	1301,00
560,14	1411,00
566,57	1387,00
573,00	1319,00
579,41	1419,00
585,83	1363,00
592,23	1411,00
598,62	1316,00
605,01	1274,00
611,40	1326,00
617,77	1329,00
624,14	1235,00
630,50	1336,00
636,85	1198,00
643,20	1330,00
649,54	1134,00
655,87	1262,00
662,20	1359,00
668,52	1164,00
674,83	1262,00
681,13	1196,00
687,43	1230,00
693,72	1237,00
700,00	1291,00
706,28	1188,00
712,55	1180,00
718,81	1333,00
725,07	1242,00
731,32	1174,00
737,56	1205,00
743,79	1149,00
750,02	1245,00
756,24	1093,00
762,46	1090,00
768,67	1313,00
774,87	1296,00
781,06	1259,00
787,25	1304,00
793,43	1207,00
799,60	1039,00
805,77	1370,00
811,93	1255,00
818,08	1102,00
824,23	1167,00
830,37	1306,00
836,50	1238,00
842,63	1202,00
848,75	1194,00
854,87	1226,00
860,97	1112,00
867,07	1195,00
873,17	1183,00
879,25	1184,00
885,33	1189,00
891,41	1161,00
897,47	1146,00
903,53	1151,00
909,59	1194,00
915,63	1103,00
921,67	1231,00
927,71	1144,00
933,74	1201,00
939,76	1072,00
945,77	1104,00
951,78	1269,00
957,78	985,00
963,78	1051,00
969,77	992,00
975,75	1148,00
981,72	1099,00
987,69	1392,00
993,66	1049,00
999,61	1153,00
1005,56	1137,00
1011,51	1185,00
1017,44	1081,00
1023,37	1047,00
1029,30	1100,00
1035,22	1059,00
1041,13	1200,00
1047,03	1182,00
1052,93	1259,00
1058,83	1397,00
1064,71	1300,00
1070,59	1283,00
1076,47	1094,00
1082,33	1154,00
1088,20	1268,00
1094,05	1092,00
1099,90	1096,00
1105,74	1008,00
1111,58	1091,00
1117,41	1137,00
1123,23	1323,00
1129,05	1268,00
1134,86	1326,00
1140,67	1148,00
1146,47	1032,00
1152,26	1002,00
1158,05	1012,00
1163,83	1045,00
1169,60	1019,00
1175,37	890,00
1181,13	983,00
1186,89	1000,00
1192,64	960,00
1198,38	935,00
1204,12	1060,00
1209,85	1028,00
1215,58	1137,00
1221,30	1047,00
1227,02	1146,00
1232,72	1106,00
1238,43	1059,00
1244,12	1068,00
1249,81	1059,00
1255,50	1035,00
1261,17	1036,00
1266,85	1133,00
1272,51	1102,00
1278,17	1076,00
1283,83	1072,00
1289,47	1310,00
1295,12	1493,00
1300,75	1404,00
1306,38	1183,00
1312,01	1201,00
1317,63	1056,00
1323,24	1192,00
1328,85	1068,00
1334,45	1070,00
1340,04	1236,00
1345,63	1022,00
1351,22	1267,00
1356,80	1185,00
1362,37	1071,00
1367,93	1147,00
1373,49	1054,00
1379,05	1156,00
1384,60	1048,00
1390,14	1061,00
1395,68	1073,00
1401,21	1034,00
1406,74	1199,00
1412,26	1124,00
1417,77	1134,00
1423,28	1325,00
1428,78	1352,00
1434,28	1360,00
1439,77	1602,00
1445,26	1543,00
1450,74	1512,00
1456,22	1474,00
1461,68	1407,00
1467,15	1336,00
1472,61	1309,00
1478,06	1196,00
1483,51	1164,00
1488,95	914,00
1494,38	1049,00
1499,81	1040,00
1505,24	1054,00
1510,65	1044,00
1516,07	1062,00
1521,48	981,00
1526,88	912,00
1532,27	1065,00
1537,67	1070,00
1543,05	1086,00
1548,43	902,00
1553,81	994,00
1559,18	972,00
1564,54	983,00
1569,90	990,00
1575,25	874,00
1580,60	954,00
1585,94	1023,00
1591,28	972,00
1596,61	795,00
1601,93	888,00
1607,25	1009,00
1612,57	1063,00
1617,88	935,00
1623,18	963,00
1628,48	879,00
1633,77	878,00
1639,06	925,00
1644,34	919,00
1649,62	834,00
1654,89	948,00
1660,16	842,00
1665,42	857,00
1670,67	874,00
1675,92	882,00
1681,17	841,00
1686,41	835,00
1691,64	766,00
1696,87	946,00
1702,10	777,00
1707,32	802,00
1712,53	873,00
1717,74	780,00
1722,94	960,00
1728,14	736,00
1733,33	900,00
1738,52	863,00
1743,70	853,00
1748,88	786,00
1754,05	755,00
1759,22	784,00
1764,38	884,00
1769,53	969,00
1774,69	802,00
1779,83	836,00
1784,97	725,00
1790,11	718,00
1795,24	700,00
1800,36	838,00
1805,48	768,00
1810,60	854,00
1815,71	749,00
1820,82	671,00
1825,92	731,00
1831,01	856,00
1836,10	755,00
1841,19	731,00
1846,26	620,00
1851,34	740,00
1856,41	674,00
1861,47	722,00
1866,53	735,00
1871,59	813,00
1876,64	840,00
1881,68	765,00
1886,72	689,00
1891,76	707,00
1896,79	734,00
1901,81	615,00
1906,83	701,00
1911,85	725,00
1916,86	740,00
1921,86	733,00
1926,86	624,00
1931,86	701,00
1936,85	578,00
1941,83	719,00
1946,81	656,00
1951,79	699,00
1956,76	662,00
1961,72	590,00
1966,68	598,00
1971,64	598,00
1976,59	632,00
1981,54	641,00
1986,48	614,00
1991,42	698,00
1996,35	754,00
2001,27	570,00
2006,20	585,00
2011,11	730,00
2016,03	659,00
2020,93	597,00
2025,84	654,00
2030,73	598,00
2035,63	618,00
2040,52	584,00
2045,40	673,00
2050,28	608,00
2055,15	801,00
2060,02	583,00
2064,89	721,00
2069,75	653,00
2074,60	796,00
2079,46	573,00
2084,30	524,00
2089,14	660,00
2093,98	643,00
2098,81	695,00
2103,64	675,00
2108,46	598,00
2113,28	603,00
2118,09	565,00
2122,90	582,00
2127,70	584,00
2132,50	587,00
2137,30	659,00
2142,09	523,00
2146,87	631,00
2151,66	643,00
2156,43	699,00
2161,20	556,00
2165,97	556,00
2170,73	577,00
2175,49	757,00
2180,24	516,00
2184,99	658,00
2189,74	702,00
2194,48	677,00
2199,21	712,00
2203,94	625,00
2208,67	549,00
2213,39	591,00
2218,11	484,00
2222,82	551,00
2227,53	625,00
2232,23	487,00
2236,93	586,00
2241,63	563,00
2246,32	659,00
2251,00	658,00
2255,68	549,00
2260,36	528,00
2265,03	551,00
2269,70	467,00
2274,36	559,00
2279,02	510,00
2283,68	569,00
2288,33	544,00
2292,97	553,00
2297,61	465,00
2302,25	570,00
2306,88	564,00
2311,51	505,00
2316,14	573,00
2320,75	434,00
2325,37	585,00
2329,98	719,00
2334,59	357,00
2339,19	515,00
2343,79	481,00
2348,38	556,00
2352,97	468,00
2357,55	615,00
2362,13	541,00
2366,71	462,00
2371,28	706,00
2375,85	633,00
2380,41	404,00
2384,97	614,00
2389,52	659,00
2394,07	520,00
2398,62	558,00
2403,16	530,00
2407,70	533,00
2412,23	476,00
2416,76	589,00
2421,29	618,00
2425,81	564,00
2430,32	629,00
2434,84	491,00
2439,34	453,00
2443,85	563,00
2448,35	462,00
2452,84	498,00
2457,33	651,00
2461,82	517,00
2466,30	434,00
2470,78	581,00
2475,25	535,00
2479,72	418,00
2484,19	516,00
2488,65	529,00
2493,11	487,00
2497,56	569,00
2502,01	365,00
2506,46	396,00
2510,90	440,00
2515,34	460,00
2519,77	437,00
2524,20	509,00
2528,62	590,00
2533,04	542,00
2537,46	440,00
2541,87	403,00
2546,28	507,00
2550,68	498,00
2555,08	559,00
2559,48	527,00
2563,87	482,00
2568,26	529,00
2572,64	552,00
2577,02	633,00
2581,40	537,00
2585,77	518,00
2590,14	345,00
2594,50	418,00
2598,86	408,00
2603,22	461,00
2607,57	615,00
2611,92	520,00
2616,26	449,00
2620,60	641,00
2624,94	406,00
2629,27	500,00
2633,60	380,00
2637,92	645,00
2642,24	536,00
2646,56	589,00
2650,87	561,00
2655,18	561,00
2659,48	537,00
2663,78	378,00
2668,08	552,00
2672,37	489,00
2676,66	592,00
2680,95	492,00
2685,23	606,00
2689,50	631,00
2693,78	425,00
2698,05	471,00
2702,31	465,00
2706,57	572,00
2710,83	503,00
2715,08	488,00
2719,33	692,00
2723,58	575,00
2727,82	598,00
2732,06	387,00
2736,29	601,00
2740,53	571,00
2744,75	477,00
2748,97	464,00
2753,19	471,00
2757,41	585,00
2761,62	590,00
2765,83	557,00
2770,03	470,00
2774,23	460,00
2778,43	412,00
2782,62	519,00
2786,81	547,00
2791,00	505,00
2795,18	621,00
2799,35	578,00
2803,53	727,00
2807,70	648,00
2811,86	561,00
2816,03	638,00
2820,19	509,00
2824,34	671,00
2828,49	541,00
2832,64	646,00
2836,78	715,00
2840,92	801,00
2845,06	985,00
2849,19	973,00
2853,32	1111,00
2857,45	1058,00
2861,57	1056,00
2865,69	965,00
2869,80	1025,00
2873,91	1029,00
2878,02	1155,00
2882,12	1090,00
2886,22	1148,00
2890,32	1073,00
2894,41	971,00
2898,50	958,00
2902,58	751,00
2906,67	896,00
2910,74	761,00
2914,82	881,00
2918,89	888,00
2922,96	703,00
2927,02	656,00
2931,08	719,00
2935,13	639,00
2939,19	757,00
2943,24	660,00
2947,28	765,00
2951,32	576,00
2955,36	543,00
2959,40	517,00
2963,43	528,00
2967,46	515,00
2971,48	497,00
2975,50	540,00
2979,52	480,00
2983,53	533,00
2987,54	434,00
2991,55	401,00
2995,55	456,00
2999,55	410,00
3003,54	466,00
3007,54	572,00
3011,53	526,00
3015,51	509,00
3019,49	520,00
3023,47	412,00
3027,45	349,00
3031,42	476,00
3035,39	468,00
3039,35	504,00
3043,31	454,00
3047,27	419,00
3051,22	315,00
3055,17	378,00
3059,12	287,00
3063,06	426,00
3067,00	368,00
3070,94	412,00
3074,87	356,00
3078,80	440,00
3082,73	361,00
3086,65	372,00
3090,57	398,00
3094,49	488,00
3098,40	406,00
3102,31	393,00
3106,22	340,00
3110,12	388,00
3114,02	373,00
3117,92	416,00
3121,81	375,00
3125,70	497,00
3129,58	407,00
3133,47	399,00
3137,34	421,00
3141,22	338,00
3145,09	428,00
3148,96	455,00
3152,83	408,00
3156,69	495,00
3160,55	472,00
3164,40	386,00
3168,26	358,00
3172,10	523,00
3175,95	379,00
3179,79	419,00
3183,63	572,00
3187,47	345,00
3191,30	462,00
3195,13	389,00
3198,95	462,00
3202,78	271,00
3206,60	464,00
3210,41	399,00
3214,23	450,00
3218,03	342,00
3221,84	525,00
3225,64	402,00
3229,44	405,00
3233,24	329,00
3237,03	443,00
3240,82	399,00
3244,61	283,00
3248,39	375,00
3252,17	472,00
3255,95	472,00
3259,72	442,00
3263,49	525,00
3267,26	356,00
3271,03	464,00
3274,79	380,00
3278,54	307,00
3282,30	336,00
3286,05	428,00
3289,80	476,00
3293,54	423,00
3297,29	422,00
3301,02	379,00
3304,76	386,00
3308,49	272,00
3312,22	311,00
3315,95	372,00
3319,67	433,00
3323,39	500,00
3327,10	377,00
3330,82	378,00
3334,53	429,00
3338,24	281,00
3341,94	483,00
3345,64	388,00
3349,34	434,00
3353,03	460,00
3356,72	452,00
3360,41	433,00
3364,10	500,00
3367,78	331,00
3371,46	397,00
3375,13	274,00
3378,81	349,00
3382,48	312,00
3386,14	422,00
3389,81	345,00
3393,47	480,00
3397,12	508,00
3400,78	422,00
3404,43	316,00
3408,08	420,00
3411,72	393,00
3415,36	375,00
3419,00	295,00
3422,64	485,00
3426,27	380,00
3429,90	315,00
3433,53	435,00
3437,15	428,00
3440,77	368,00
3444,39	417,00
3448,00	235,00
3451,62	366,00
3455,22	293,00
3458,83	297,00
3462,43	350,00
3466,03	380,00
3469,63	450,00
3473,22	285,00
3476,81	304,00
3480,40	444,00
3483,99	298,00
3487,57	304,00
3491,15	332,00
3494,72	454,00
3498,29	438,00
3501,86	349,00
3505,43	399,00
3508,99	228,00
3512,56	241,00
3516,11	434,00
3519,67	345,00
3523,22	418,00
3526,77	255,00
3530,32	311,00
3533,86	305,00
3537,40	440,00
3540,94	558,00
3544,47	266,00
3548,00	424,00
3551,53	294,00
3555,06	458,00
3558,58	335,00
3562,10	362,00
3565,62	401,00
3569,13	336,00
3572,64	466,00
3576,15	295,00
3579,66	401,00
3583,16	444,00
3586,66	361,00
3590,16	371,00
3593,65	344,00
3597,14	418,00
3600,63	381,00
3604,11	303,00
3607,60	394,00
3611,08	421,00
3614,55	297,00
3618,03	318,00
3621,50	333,00
3624,97	226,00
3628,43	381,00
3631,90	382,00
3635,36	315,00
3638,81	289,00
3642,27	413,00
3645,72	368,00
3649,17	281,00
3652,61	304,00
3656,06	249,00
3659,50	303,00
3662,93	379,00
3666,37	362,00
3669,80	419,00
3673,23	266,00
3676,65	336,00
3680,08	481,00
3683,50	343,00
3686,92	398,00
3690,33	417,00
3693,74	359,00
3697,15	307,00
3700,56	347,00
3703,96	275,00
3707,36	327,00
3710,76	333,00
3714,16	357,00
3717,55	367,00
3720,94	341,00
3724,33	298,00
3727,71	401,00
3731,10	411,00
3734,48	306,00
3737,85	275,00
3741,23	323,00
3744,60	317,00
3747,97	246,00
3751,33	284,00
3754,69	425,00
3758,05	284,00
3761,41	301,00
3764,77	224,00
3768,12	319,00
3771,47	333,00
3774,82	278,00
3778,16	-2,00
3781,50	2,00
3784,84	-1,00
3788,18	7,00
>>>>>End Processed Spectral Data<<<<<
