SpectraSuite Data File
++++++++++++++++++++++++++++++++++++
Date: Mon Mar 09 16:26:54 ICT 2026
User: Administrator
Dark Spectrum Present: Yes
Reference Spectrum Present: No
Number of Sampled Component Spectra: 1
Spectrometers: MAYP113682
Integration Time (usec): 3000000 (MAYP113682)
Spectra Averaged: 1 (MAYP113682)
Boxcar Smoothing: 0 (MAYP113682)
Correct for Electrical Dark: No (MAYP113682)
Strobe/Lamp Enabled: No (MAYP113682)
Correct for Detector Non-linearity: No (MAYP113682)
Correct for Stray Light: No (MAYP113682)
Number of Pixels in Processed Spectrum: 2068
>>>>>Begin Processed Spectral Data<<<<<
-37534,58	-1,00
-37414,56	4,00
-37295,11	-5,00
-37176,24	1,00
-37057,95	-4,00
-36940,22	127,00
-36823,05	155,00
-36706,45	152,00
-36590,40	102,00
-36474,90	157,00
-36359,95	47,00
-36245,55	59,00
-36131,68	99,00
-36018,35	71,00
-35905,55	-15,00
-35793,29	77,00
-35681,54	105,00
-35570,32	85,00
-35459,62	43,00
-35349,43	102,00
-35239,75	81,00
-35130,58	99,00
-35021,91	-71,00
-34913,74	80,00
-34806,07	96,00
-34698,89	71,00
-34592,20	19,00
-34486,00	169,00
-34380,28	40,00
-34275,04	61,00
-34170,27	5,00
-34065,98	22,00
-33962,16	50,00
-33858,81	76,00
-33755,92	197,00
-33653,49	191,00
-33551,52	99,00
-33450,01	149,00
-33348,94	107,00
-33248,33	19,00
-33148,16	34,00
-33048,43	200,00
-32949,14	82,00
-32850,29	217,00
-32751,87	88,00
-32653,89	13,00
-32556,33	38,00
-32459,20	177,00
-32362,49	129,00
-32266,19	213,00
-32170,32	74,00
-32074,86	42,00
-31979,82	14,00
-31885,18	77,00
-31790,95	218,00
-31697,12	-52,00
-31603,69	188,00
-31510,67	111,00
-31418,04	154,00
-31325,80	92,00
-31233,95	109,00
-31142,49	141,00
-31051,42	128,00
-30960,73	31,00
-30870,43	54,00
-30780,50	41,00
-30690,95	98,00
-30601,77	163,00
-30512,97	167,00
-30424,53	167,00
-30336,46	1,00
-30248,76	40,00
-30161,42	212,00
-30074,44	130,00
-29987,81	125,00
-29901,55	30,00
-29815,63	113,00
-29730,07	138,00
-29644,86	30,00
-29560,00	44,00
-29475,48	191,00
-29391,30	118,00
-29307,47	90,00
-29223,97	119,00
-29140,81	121,00
-29057,99	213,00
-28975,50	70,00
-28893,34	219,00
-28811,51	57,00
-28730,00	69,00
-28648,82	127,00
-28567,97	49,00
-28487,43	146,00
-28407,21	45,00
-28327,32	113,00
-28247,73	88,00
-28168,46	58,00
-28089,50	150,00
-28010,85	19,00
-27932,51	141,00
-27854,48	163,00
-27776,75	81,00
-27699,32	72,00
-27622,19	179,00
-27545,37	155,00
-27468,84	255,00
-27392,60	126,00
-27316,66	-38,00
-27241,01	147,00
-27165,66	67,00
-27090,59	65,00
-27015,81	154,00
-26941,31	105,00
-26867,10	71,00
-26793,17	133,00
-26719,52	95,00
-26646,15	17,00
-26573,06	82,00
-26500,24	125,00
-26427,70	173,00
-26355,43	38,00
-26283,43	67,00
-26211,71	-20,00
-26140,25	81,00
-26069,06	170,00
-25998,13	142,00
-25927,46	62,00
-25857,06	176,00
-25786,92	157,00
-25717,04	126,00
-25647,42	266,00
-25578,05	119,00
-25508,94	213,00
-25440,09	33,00
-25371,48	124,00
-25303,13	174,00
-25235,02	118,00
-25167,17	104,00
-25099,56	50,00
-25032,19	164,00
-24965,07	48,00
-24898,20	193,00
-24831,56	73,00
-24765,17	184,00
-24699,01	120,00
-24633,10	42,00
-24567,41	222,00
-24501,97	169,00
-24436,75	30,00
-24371,77	158,00
-24307,03	97,00
-24242,51	126,00
-24178,22	15,00
-24114,16	25,00
-24050,32	192,00
-23986,71	199,00
-23923,32	77,00
-23860,16	105,00
-23797,22	185,00
-23734,50	131,00
-23672,00	60,00
-23609,71	154,00
-23547,65	108,00
-23485,80	88,00
-23424,16	86,00
-23362,74	99,00
-23301,53	57,00
-23240,54	76,00
-23179,75	138,00
-23119,17	67,00
-23058,80	115,00
-22998,64	94,00
-22938,68	169,00
-22878,93	180,00
-22819,39	153,00
-22760,04	121,00
-22700,90	-50,00
-22641,96	40,00
-22583,22	141,00
-22524,68	155,00
-22466,33	114,00
-22408,19	69,00
-22350,23	62,00
-22292,48	110,00
-22234,92	116,00
-22177,55	82,00
-22120,37	213,00
-22063,38	153,00
-22006,58	146,00
-21949,98	182,00
-21893,56	110,00
-21837,33	44,00
-21781,28	127,00
-21725,42	84,00
-21669,74	91,00
-21614,25	125,00
-21558,94	58,00
-21503,81	131,00
-21448,86	15,00
-21394,10	163,00
-21339,51	23,00
-21285,10	113,00
-21230,86	156,00
-21176,81	49,00
-21122,93	63,00
-21069,22	108,00
-21015,69	70,00
-20962,33	164,00
-20909,14	60,00
-20856,13	115,00
-20803,28	41,00
-20750,61	96,00
-20698,10	109,00
-20645,76	74,00
-20593,59	137,00
-20541,59	120,00
-20489,75	57,00
-20438,07	127,00
-20386,56	90,00
-20335,22	123,00
-20284,03	9,00
-20233,01	105,00
-20182,15	-10,00
-20131,45	-46,00
-20080,91	84,00
-20030,52	28,00
-19980,30	16,00
-19930,23	120,00
-19880,32	189,00
-19830,56	87,00
-19780,96	100,00
-19731,52	200,00
-19682,23	92,00
-19633,09	95,00
-19584,10	22,00
-19535,26	93,00
-19486,58	131,00
-19438,04	165,00
-19389,66	-65,00
-19341,42	-52,00
-19293,33	144,00
-19245,39	83,00
-19197,60	153,00
-19149,95	83,00
-19102,45	170,00
-19055,09	99,00
-19007,87	37,00
-18960,80	219,00
-18913,87	71,00
-18867,09	30,00
-18820,44	-52,00
-18773,94	77,00
-18727,57	29,00
-18681,35	178,00
-18635,26	92,00
-18589,31	126,00
-18543,50	18,00
-18497,83	16,00
-18452,29	20,00
-18406,89	114,00
-18361,63	166,00
-18316,50	81,00
-18271,50	61,00
-18226,63	59,00
-18181,90	139,00
-18137,30	213,00
-18092,84	101,00
-18048,50	168,00
-18004,29	61,00
-17960,22	0,00
-17916,27	206,00
-17872,45	145,00
-17828,76	119,00
-17785,20	87,00
-17741,77	-4,00
-17698,46	115,00
-17655,28	146,00
-17612,22	93,00
-17569,29	243,00
-17526,48	119,00
-17483,79	83,00
-17441,23	42,00
-17398,79	62,00
-17356,48	105,00
-17314,28	122,00
-17272,21	77,00
-17230,26	84,00
-17188,42	136,00
-17146,71	121,00
-17105,12	76,00
-17063,64	30,00
-17022,28	215,00
-16981,04	123,00
-16939,92	123,00
-16898,91	94,00
-16858,02	86,00
-16817,25	66,00
-16776,59	74,00
-16736,04	-34,00
-16695,61	77,00
-16655,29	121,00
-16615,09	146,00
-16574,99	113,00
-16535,01	117,00
-16495,15	131,00
-16455,39	23,00
-16415,74	88,00
-16376,21	134,00
-16336,78	66,00
-16297,46	63,00
-16258,26	78,00
-16219,16	-7,00
-16180,17	88,00
-16141,28	163,00
-16102,51	78,00
-16063,84	52,00
-16025,27	125,00
-15986,82	271,00
-15948,46	81,00
-15910,22	43,00
-15872,07	176,00
-15834,04	133,00
-15796,10	33,00
-15758,27	205,00
-15720,54	42,00
-15682,91	106,00
-15645,39	64,00
-15607,97	21,00
-15570,64	134,00
-15533,42	31,00
-15496,30	189,00
-15459,28	115,00
-15422,36	45,00
-15385,54	3,00
-15348,82	126,00
-15312,19	63,00
-15275,66	-13,00
-15239,23	185,00
-15202,90	120,00
-15166,67	-73,00
-15130,53	170,00
-15094,48	-3,00
-15058,54	82,00
-15022,68	112,00
-14986,93	139,00
-14951,26	51,00
-14915,69	144,00
-14880,22	118,00
-14844,84	100,00
-14809,55	52,00
-14774,35	122,00
-14739,25	98,00
-14704,24	2,00
-14669,32	-6,00
-14634,49	181,00
-14599,75	75,00
-14565,10	94,00
-14530,55	41,00
-14496,08	188,00
-14461,70	112,00
-14427,41	22,00
-14393,21	159,00
-14359,10	36,00
-14325,07	-2,00
-14291,14	-3,00
-14257,29	62,00
-14223,52	126,00
-14189,85	165,00
-14156,26	127,00
-14122,76	84,00
-14089,34	121,00
-14056,01	121,00
-14022,76	161,00
-13989,60	23,00
-13956,52	150,00
-13923,53	-31,00
-13890,62	232,00
-13857,79	49,00
-13825,05	112,00
-13792,39	104,00
-13759,81	76,00
-13727,31	-15,00
-13694,90	75,00
-13662,57	51,00
-13630,31	18,00
-13598,14	-37,00
-13566,05	3,00
-13534,05	40,00
-13502,12	49,00
-13470,27	125,00
-13438,50	-72,00
-13406,80	13,00
-13375,19	164,00
-13343,66	-29,00
-13312,20	71,00
-13280,83	21,00
-13249,53	51,00
-13218,30	163,00
-13187,16	77,00
-13156,09	54,00
-13125,10	11,00
-13094,18	123,00
-13063,34	52,00
-13032,58	82,00
-13001,89	194,00
-12971,28	24,00
-12940,74	171,00
-12910,27	86,00
-12879,88	71,00
-12849,57	163,00
-12819,33	102,00
-12789,16	120,00
-12759,06	-3,00
-12729,04	106,00
-12699,09	175,00
-12669,21	26,00
-12639,41	66,00
-12609,68	105,00
-12580,02	11,00
-12550,43	81,00
-12520,91	27,00
-12491,46	165,00
-12462,08	75,00
-12432,77	18,00
-12403,54	-7,00
-12374,37	233,00
-12345,27	48,00
-12316,24	138,00
-12287,29	148,00
-12258,40	100,00
-12229,57	139,00
-12200,82	65,00
-12172,14	26,00
-12143,52	34,00
-12114,97	175,00
-12086,49	48,00
-12058,07	28,00
-12029,73	127,00
-12001,44	73,00
-11973,23	194,00
-11945,08	92,00
-11917,00	253,00
-11888,98	103,00
-11861,03	165,00
-11833,15	133,00
-11805,32	44,00
-11777,57	156,00
-11749,88	153,00
-11722,25	28,00
-11694,69	101,00
-11667,19	86,00
-11639,75	85,00
-11612,38	87,00
-11585,07	63,00
-11557,83	112,00
-11530,65	90,00
-11503,53	139,00
-11476,47	118,00
-11449,48	198,00
-11422,54	37,00
-11395,67	32,00
-11368,86	118,00
-11342,11	82,00
-11315,43	99,00
-11288,80	96,00
-11262,23	105,00
-11235,73	128,00
-11209,28	85,00
-11182,90	84,00
-11156,57	174,00
-11130,31	155,00
-11104,10	-7,00
-11077,96	79,00
-11051,87	96,00
-11025,84	146,00
-10999,87	175,00
-10973,96	106,00
-10948,11	95,00
-10922,31	41,00
-10896,58	178,00
-10870,90	140,00
-10845,28	48,00
-10819,71	142,00
-10794,20	6,00
-10768,75	89,00
-10743,36	70,00
-10718,02	90,00
-10692,74	232,00
-10667,52	146,00
-10642,35	149,00
-10617,24	12,00
-10592,18	148,00
-10567,18	275,00
-10542,23	227,00
-10517,34	308,00
-10492,51	167,00
-10467,72	191,00
-10443,00	203,00
-10418,32	116,00
-10393,70	3,00
-10369,14	152,00
-10344,63	24,00
-10320,17	191,00
-10295,77	129,00
-10271,42	70,00
-10247,12	102,00
-10222,88	134,00
-10198,68	132,00
-10174,54	64,00
-10150,46	105,00
-10126,42	133,00
-10102,44	121,00
-10078,51	59,00
-10054,63	199,00
-10030,80	126,00
-10007,03	124,00
-9983,30	59,00
-9959,63	73,00
-9936,01	241,00
-9912,44	183,00
-9888,92	69,00
-9865,44	224,00
-9842,02	129,00
-9818,65	207,00
-9795,33	156,00
-9772,06	142,00
-9748,84	131,00
-9725,67	98,00
-9702,55	88,00
-9679,47	183,00
-9656,45	160,00
-9633,47	256,00
-9610,55	248,00
-9587,67	65,00
-9564,84	128,00
-9542,06	119,00
-9519,32	239,00
-9496,64	352,00
-9474,00	282,00
-9451,41	309,00
-9428,87	271,00
-9406,37	216,00
-9383,92	244,00
-9361,52	226,00
-9339,17	-42,00
-9316,86	237,00
-9294,60	289,00
-9272,38	258,00
-9250,21	409,00
-9228,09	340,00
-9206,01	333,00
-9183,98	349,00
-9162,00	230,00
-9140,06	176,00
-9118,16	274,00
-9096,31	205,00
-9074,51	354,00
-9052,75	335,00
-9031,04	401,00
-9009,37	308,00
-8987,74	204,00
-8966,16	150,00
-8944,63	29,00
-8923,14	82,00
-8901,69	81,00
-8880,29	299,00
-8858,93	240,00
-8837,61	305,00
-8816,34	515,00
-8795,11	335,00
-8773,92	400,00
-8752,78	269,00
-8731,68	281,00
-8710,62	296,00
-8689,61	315,00
-8668,63	320,00
-8647,70	330,00
-8626,82	320,00
-8605,97	401,00
-8585,17	380,00
-8564,41	260,00
-8543,69	204,00
-8523,01	245,00
-8502,37	224,00
-8481,78	386,00
-8461,23	370,00
-8440,71	369,00
-8420,24	318,00
-8399,81	442,00
-8379,42	464,00
-8359,08	401,00
-8338,77	323,00
-8318,50	283,00
-8298,27	331,00
-8278,09	309,00
-8257,94	336,00
-8237,83	378,00
-8217,76	403,00
-8197,74	421,00
-8177,75	451,00
-8157,80	424,00
-8137,89	316,00
-8118,02	292,00
-8098,19	340,00
-8078,40	401,00
-8058,65	336,00
-8038,93	450,00
-8019,26	361,00
-7999,62	327,00
-7980,02	263,00
-7960,46	396,00
-7940,94	368,00
-7921,46	180,00
-7902,01	271,00
-7882,60	339,00
-7863,23	347,00
-7843,90	315,00
-7824,61	320,00
-7805,35	393,00
-7786,13	543,00
-7766,95	357,00
-7747,80	415,00
-7728,69	393,00
-7709,62	340,00
-7690,59	359,00
-7671,59	468,00
-7652,63	414,00
-7633,70	479,00
-7614,81	383,00
-7595,96	387,00
-7577,15	379,00
-7558,37	391,00
-7539,62	260,00
-7520,91	385,00
-7502,24	274,00
-7483,60	460,00
-7465,00	335,00
-7446,44	303,00
-7427,91	244,00
-7409,41	174,00
-7390,95	269,00
-7372,53	214,00
-7354,14	96,00
-7335,78	63,00
-7317,46	405,00
-7299,18	239,00
-7280,92	399,00
-7262,71	367,00
-7244,52	339,00
-7226,38	367,00
-7208,26	420,00
-7190,18	356,00
-7172,14	406,00
-7154,12	294,00
-7136,15	266,00
-7118,20	391,00
-7100,29	296,00
-7082,41	281,00
-7064,57	336,00
-7046,76	294,00
-7028,98	157,00
-7011,24	289,00
-6993,53	74,00
-6975,85	37,00
-6958,20	104,00
-6940,59	20,00
-6923,01	177,00
-6905,46	58,00
-6887,94	118,00
-6870,46	-2445,00
-6853,01	389,00
-6835,59	311,00
-6818,21	238,00
-6800,85	238,00
-6783,53	146,00
-6766,24	-33,00
-6748,98	-92,00
-6731,76	-30,00
-6714,56	-97,00
-6697,40	-49,00
-6680,26	-46,00
-6663,16	76,00
-6646,09	80,00
-6629,05	350,00
-6612,05	166,00
-6595,07	213,00
-6578,13	202,00
-6561,21	24,00
-6544,33	44,00
-6527,47	132,00
-6510,65	-38,00
-6493,86	11,00
-6477,10	-32,00
-6460,36	-50,00
-6443,66	108,00
-6426,99	30,00
-6410,35	8,00
-6393,74	141,00
-6377,16	141,00
-6360,61	-3,00
-6344,09	114,00
-6327,59	116,00
-6311,13	69,00
-6294,70	38,00
-6278,29	296,00
-6261,92	244,00
-6245,58	219,00
-6229,26	288,00
-6212,97	261,00
-6196,72	122,00
-6180,49	-13,00
-6164,29	119,00
-6148,12	62,00
-6131,98	-21,00
-6115,86	17,00
-6099,78	-50,00
-6083,72	-23,00
-6067,69	-126,00
-6051,69	-38,00
-6035,72	121,00
-6019,78	123,00
-6003,87	90,00
-5987,98	121,00
-5972,12	244,00
-5956,29	86,00
-5940,49	178,00
-5924,71	43,00
-5908,96	14,00
-5893,24	25,00
-5877,55	105,00
-5861,89	31,00
-5846,25	1,00
-5830,64	-73,00
-5815,05	-15,00
-5799,50	107,00
-5783,97	31,00
-5768,47	112,00
-5752,99	47,00
-5737,55	80,00
-5722,12	100,00
-5706,73	193,00
-5691,36	90,00
-5676,02	-22,00
-5660,71	97,00
-5645,42	46,00
-5630,16	101,00
-5614,92	128,00
-5599,71	1,00
-5584,53	0,00
-5569,37	175,00
-5554,24	147,00
-5539,14	75,00
-5524,06	10,00
-5509,01	132,00
-5493,98	61,00
-5478,98	85,00
-5464,00	33,00
-5449,05	-31,00
-5434,13	17,00
-5419,23	32,00
-5404,36	97,00
-5389,51	161,00
-5374,69	198,00
-5359,89	46,00
-5345,12	79,00
-5330,37	238,00
-5315,65	135,00
-5300,95	179,00
-5286,28	92,00
-5271,63	64,00
-5257,01	26,00
-5242,41	140,00
-5227,84	-78,00
-5213,29	10,00
-5198,76	-64,00
-5184,26	61,00
-5169,79	59,00
-5155,33	121,00
-5140,91	25,00
-5126,51	18,00
-5112,13	165,00
-5097,77	133,00
-5083,44	95,00
-5069,13	67,00
-5054,85	89,00
-5040,59	203,00
-5026,36	35,00
-5012,15	33,00
-4997,96	5,00
-4983,80	35,00
-4969,66	-15,00
-4955,54	88,00
-4941,44	137,00
-4927,37	176,00
-4913,33	244,00
-4899,30	184,00
-4885,30	326,00
-4871,33	274,00
-4857,37	41,00
-4843,44	175,00
-4829,53	103,00
-4815,65	140,00
-4801,79	-12,00
-4787,95	0,00
-4774,13	56,00
-4760,34	138,00
-4746,56	96,00
-4732,82	31,00
-4719,09	69,00
-4705,38	99,00
-4691,70	191,00
-4678,04	37,00
-4664,41	82,00
-4650,79	81,00
-4637,20	142,00
-4623,63	133,00
-4610,08	107,00
-4596,56	20,00
-4583,05	118,00
-4569,57	102,00
-4556,11	142,00
-4542,67	96,00
-4529,25	121,00
-4515,86	121,00
-4502,49	138,00
-4489,13	134,00
-4475,80	199,00
-4462,49	119,00
-4449,21	172,00
-4435,94	172,00
-4422,70	74,00
-4409,47	172,00
-4396,27	114,00
-4383,09	201,00
-4369,93	65,00
-4356,79	111,00
-4343,67	24,00
-4330,58	77,00
-4317,50	98,00
-4304,45	60,00
-4291,41	54,00
-4278,40	-20,00
-4265,41	55,00
-4252,44	53,00
-4239,49	102,00
-4226,55	146,00
-4213,65	131,00
-4200,76	113,00
-4187,89	77,00
-4175,04	3,00
-4162,21	77,00
-4149,40	49,00
-4136,61	167,00
-4123,85	102,00
-4111,10	16,00
-4098,37	61,00
-4085,66	196,00
-4072,98	165,00
-4060,31	117,00
-4047,66	86,00
-4035,04	94,00
-4022,43	129,00
-4009,84	171,00
-3997,27	146,00
-3984,72	214,00
-3972,19	70,00
-3959,69	4,00
-3947,20	138,00
-3934,73	-30,00
-3922,27	72,00
-3909,84	92,00
-3897,43	190,00
-3885,04	23,00
-3872,67	79,00
-3860,31	-31,00
-3847,98	141,00
-3835,66	-46,00
-3823,36	65,00
-3811,09	119,00
-3798,83	95,00
-3786,59	45,00
-3774,37	126,00
-3762,17	138,00
-3749,98	112,00
-3737,82	75,00
-3725,67	38,00
-3713,55	1,00
-3701,44	109,00
-3689,35	52,00
-3677,28	38,00
-3665,22	63,00
-3653,19	2,00
-3641,17	99,00
-3629,18	118,00
-3617,20	40,00
-3605,24	178,00
-3593,30	39,00
-3581,37	47,00
-3569,47	-20,00
-3557,58	161,00
-3545,71	147,00
-3533,86	171,00
-3522,02	-109,00
-3510,21	188,00
-3498,41	89,00
-3486,63	44,00
-3474,87	101,00
-3463,12	195,00
-3451,40	91,00
-3439,69	147,00
-3428,00	241,00
-3416,33	-20,00
-3404,67	52,00
-3393,03	95,00
-3381,41	55,00
-3369,81	-42,00
-3358,22	194,00
-3346,66	150,00
-3335,10	116,00
-3323,57	129,00
-3312,06	119,00
-3300,56	145,00
-3289,08	7,00
-3277,61	145,00
-3266,16	175,00
-3254,73	128,00
-3243,32	66,00
-3231,92	56,00
-3220,55	129,00
-3209,18	87,00
-3197,84	120,00
-3186,51	134,00
-3175,20	163,00
-3163,90	75,00
-3152,63	31,00
-3141,36	129,00
-3130,12	119,00
-3118,89	38,00
-3107,68	176,00
-3096,49	128,00
-3085,31	91,00
-3074,15	52,00
-3063,00	135,00
-3051,87	129,00
-3040,76	58,00
-3029,67	74,00
-3018,59	83,00
-3007,52	200,00
-2996,48	165,00
-2985,44	75,00
-2974,43	80,00
-2963,43	77,00
-2952,45	114,00
-2941,48	101,00
-2930,53	35,00
-2919,60	183,00
-2908,68	101,00
-2897,78	148,00
-2886,89	98,00
-2876,02	198,00
-2865,17	214,00
-2854,33	155,00
-2843,50	45,00
-2832,70	115,00
-2821,90	181,00
-2811,13	112,00
-2800,37	42,00
-2789,62	126,00
-2778,89	265,00
-2768,18	151,00
-2757,48	12,00
-2746,80	108,00
-2736,13	91,00
-2725,48	137,00
-2714,84	50,00
-2704,22	110,00
-2693,61	-14,00
-2683,02	49,00
-2672,45	166,00
-2661,89	136,00
-2651,34	15,00
-2640,81	183,00
-2630,30	171,00
-2619,80	204,00
-2609,31	64,00
-2598,84	-74,00
-2588,39	132,00
-2577,95	64,00
-2567,52	85,00
-2557,11	73,00
-2546,71	175,00
-2536,33	259,00
-2525,97	99,00
-2515,62	35,00
-2505,28	97,00
-2494,96	100,00
-2484,65	101,00
-2474,36	438,00
-2464,08	114,00
-2453,82	178,00
-2443,57	230,00
-2433,33	73,00
-2423,11	185,00
-2412,91	2,00
-2402,72	79,00
-2392,54	148,00
-2382,38	58,00
-2372,23	35,00
-2362,09	-4064,00
-2351,97	134,00
-2341,87	-2,00
-2331,78	77,00
-2321,70	8,00
-2311,64	167,00
-2301,59	201,00
-2291,55	123,00
-2281,53	43,00
-2271,53	-24,00
-2261,53	242,00
-2251,55	81,00
-2241,59	125,00
-2231,64	55,00
-2221,70	114,00
-2211,78	52,00
-2201,87	90,00
-2191,97	99,00
-2182,09	33,00
-2172,22	108,00
-2162,37	87,00
-2152,53	97,00
-2142,70	42,00
-2132,89	145,00
-2123,09	10,00
-2113,30	141,00
-2103,53	221,00
-2093,77	148,00
-2084,02	-14,00
-2074,29	99,00
-2064,57	89,00
-2054,86	104,00
-2045,17	14,00
-2035,49	111,00
-2025,82	-16,00
-2016,17	60,00
-2006,53	100,00
-1996,91	66,00
-1987,29	61,00
-1977,69	35,00
-1968,11	96,00
-1958,53	159,00
-1948,97	88,00
-1939,42	278,00
-1929,89	25,00
-1920,37	134,00
-1910,86	129,00
-1901,36	145,00
-1891,88	158,00
-1882,41	58,00
-1872,95	177,00
-1863,51	7,00
-1854,08	118,00
-1844,66	131,00
-1835,26	217,00
-1825,86	170,00
-1816,48	42,00
-1807,11	78,00
-1797,76	196,00
-1788,42	23,00
-1779,09	123,00
-1769,77	143,00
-1760,47	101,00
-1751,17	101,00
-1741,89	144,00
-1732,63	66,00
-1723,37	234,00
-1714,13	28,00
-1704,90	54,00
-1695,68	130,00
-1686,48	61,00
-1677,29	169,00
-1668,11	237,00
-1658,94	25,00
-1649,78	84,00
-1640,64	131,00
-1631,51	117,00
-1622,39	49,00
-1613,28	140,00
-1604,19	-28,00
-1595,10	179,00
-1586,03	89,00
-1576,97	31,00
-1567,93	108,00
-1558,89	68,00
-1549,87	70,00
-1540,86	77,00
-1531,86	163,00
-1522,87	66,00
-1513,90	229,00
-1504,93	-62,00
-1495,98	207,00
-1487,04	193,00
-1478,12	108,00
-1469,20	-11,00
-1460,30	122,00
-1451,40	19,00
-1442,52	160,00
-1433,65	2,00
-1424,80	204,00
-1415,95	62,00
-1407,12	150,00
-1398,30	208,00
-1389,48	104,00
-1380,69	170,00
-1371,90	0,00
-1363,12	214,00
-1354,36	22,00
-1345,60	119,00
-1336,86	175,00
-1328,13	192,00
-1319,41	42,00
-1310,70	166,00
-1302,01	59,00
-1293,32	6,00
-1284,65	123,00
-1275,99	59,00
-1267,33	8,00
-1258,69	98,00
-1250,06	166,00
-1241,45	135,00
-1232,84	138,00
-1224,25	125,00
-1215,66	157,00
-1207,09	63,00
-1198,53	116,00
-1189,97	205,00
-1181,43	11,00
-1172,91	60,00
-1164,39	182,00
-1155,88	128,00
-1147,38	62,00
-1138,90	88,00
-1130,43	124,00
-1121,96	108,00
-1113,51	124,00
-1105,07	69,00
-1096,64	70,00
-1088,22	222,00
-1079,81	123,00
-1071,41	113,00
-1063,02	116,00
-1054,65	194,00
-1046,28	4,00
-1037,92	72,00
-1029,58	84,00
-1021,24	192,00
-1012,92	172,00
-1004,61	60,00
-996,30	85,00
-988,01	-23,00
-979,73	172,00
-971,46	96,00
-963,20	39,00
-954,95	47,00
-946,71	142,00
-938,48	62,00
-930,26	96,00
-922,06	70,00
-913,86	74,00
-905,67	12,00
-897,49	65,00
-889,33	113,00
-881,17	46,00
-873,02	-60,00
-864,89	102,00
-856,76	156,00
-848,65	89,00
-840,54	93,00
-832,45	-3,00
-824,36	158,00
-816,29	98,00
-808,22	109,00
-800,17	-68,00
-792,12	154,00
-784,09	90,00
-776,06	61,00
-768,05	218,00
-760,04	7,00
-752,05	148,00
-744,07	135,00
-736,09	45,00
-728,13	45,00
-720,17	69,00
-712,23	106,00
-704,29	138,00
-696,37	152,00
-688,45	148,00
-680,55	165,00
-672,65	208,00
-664,77	225,00
-656,89	150,00
-649,03	184,00
-641,17	85,00
-633,32	62,00
-625,49	224,00
-617,66	88,00
-609,84	38,00
-602,03	49,00
-594,23	164,00
-586,45	149,00
-578,67	163,00
-570,90	124,00
-563,14	128,00
-555,39	56,00
-547,65	97,00
-539,91	122,00
-532,19	108,00
-524,48	91,00
-516,78	-42,00
-509,08	103,00
-501,40	89,00
-493,72	212,00
-486,06	121,00
-478,40	61,00
-470,76	186,00
-463,12	182,00
-455,49	12,00
-447,87	219,00
-440,26	57,00
-432,66	-13,00
-425,07	93,00
-417,49	253,00
-409,92	114,00
-402,35	197,00
-394,80	242,00
-387,25	34,00
-379,72	-4,00
-372,19	128,00
-364,67	221,00
-357,17	118,00
-349,67	179,00
-342,18	207,00
-334,69	113,00
-327,22	51,00
-319,76	141,00
-312,30	263,00
-304,86	169,00
-297,42	160,00
-290,00	125,00
-282,58	101,00
-275,17	92,00
-267,77	164,00
-260,37	185,00
-252,99	146,00
-245,62	124,00
-238,25	213,00
-230,90	194,00
-223,55	55,00
-216,21	178,00
-208,88	194,00
-201,56	306,00
-194,25	167,00
-186,94	336,00
-179,65	208,00
-172,36	350,00
-165,08	442,00
-157,81	182,00
-150,55	241,00
-143,30	281,00
-136,06	416,00
-128,82	482,00
-121,60	465,00
-114,38	493,00
-107,17	626,00
-99,97	679,00
-92,78	630,00
-85,60	710,00
-78,42	1024,00
-71,25	1002,00
-64,10	1041,00
-56,95	1471,00
-49,81	1481,00
-42,67	1839,00
-35,55	2284,00
-28,43	3034,00
-21,33	5093,00
-14,23	16895,00
-7,14	55164,00
-0,05	54791,00
7,02	54542,00
14,09	54846,00
21,14	15279,00
28,19	6490,00
35,23	3941,00
42,27	3076,00
49,29	2515,00
56,31	2121,00
63,32	1809,00
70,32	1471,00
77,31	1315,00
84,29	1180,00
91,27	1060,00
98,23	895,00
105,19	902,00
112,14	1090,00
119,09	1374,00
126,02	2414,00
132,95	2748,00
139,87	2861,00
146,78	2775,00
153,68	2658,00
160,58	2701,00
167,46	2645,00
174,34	2676,00
181,21	2810,00
188,08	2674,00
194,93	2373,00
201,78	2497,00
208,62	2517,00
215,45	2610,00
222,27	2639,00
229,09	2538,00
235,90	2573,00
242,70	2440,00
249,49	2462,00
256,27	2433,00
263,05	2415,00
269,82	2470,00
276,58	2337,00
283,33	2370,00
290,08	2364,00
296,82	2359,00
303,55	2365,00
310,27	2082,00
316,98	2259,00
323,69	2286,00
330,39	2207,00
337,08	2229,00
343,76	2273,00
350,44	2267,00
357,11	2175,00
363,77	2097,00
370,42	2218,00
377,07	2193,00
383,71	2184,00
390,34	2244,00
396,96	2120,00
403,58	2124,00
410,19	2280,00
416,79	2181,00
423,38	2173,00
429,97	2082,00
436,55	2189,00
443,12	2046,00
449,68	1969,00
456,24	1979,00
462,79	1826,00
469,33	1927,00
475,86	1859,00
482,39	1979,00
488,91	1933,00
495,42	1895,00
501,93	1908,00
508,42	1777,00
514,91	1857,00
521,40	1839,00
527,87	1773,00
534,34	1795,00
540,80	1792,00
547,25	1781,00
553,70	1761,00
560,14	1737,00
566,57	1785,00
573,00	1804,00
579,41	1703,00
585,83	1684,00
592,23	1666,00
598,62	1760,00
605,01	1716,00
611,40	1683,00
617,77	1674,00
624,14	1562,00
630,50	1651,00
636,85	1500,00
643,20	1527,00
649,54	1616,00
655,87	1583,00
662,20	1566,00
668,52	1498,00
674,83	1659,00
681,13	1566,00
687,43	1336,00
693,72	1547,00
700,00	1480,00
706,28	1482,00
712,55	1495,00
718,81	1542,00
725,07	1541,00
731,32	1451,00
737,56	1539,00
743,79	1501,00
750,02	1593,00
756,24	1488,00
762,46	1499,00
768,67	1449,00
774,87	1446,00
781,06	1386,00
787,25	1490,00
793,43	1464,00
799,60	1419,00
805,77	1391,00
811,93	1520,00
818,08	1435,00
824,23	1473,00
830,37	1382,00
836,50	1446,00
842,63	1378,00
848,75	1444,00
854,87	1324,00
860,97	1459,00
867,07	1503,00
873,17	1517,00
879,25	1369,00
885,33	1424,00
891,41	1472,00
897,47	1358,00
903,53	1468,00
909,59	1346,00
915,63	1287,00
921,67	1297,00
927,71	1401,00
933,74	1321,00
939,76	1263,00
945,77	1179,00
951,78	1166,00
957,78	1327,00
963,78	1311,00
969,77	1148,00
975,75	1332,00
981,72	1241,00
987,69	1457,00
993,66	1317,00
999,61	1262,00
1005,56	1269,00
1011,51	1378,00
1017,44	1185,00
1023,37	1225,00
1029,30	1341,00
1035,22	1322,00
1041,13	1401,00
1047,03	1165,00
1052,93	1358,00
1058,83	1575,00
1064,71	1655,00
1070,59	1562,00
1076,47	1525,00
1082,33	1361,00
1088,20	1306,00
1094,05	1249,00
1099,90	1252,00
1105,74	1244,00
1111,58	1301,00
1117,41	1269,00
1123,23	1536,00
1129,05	1580,00
1134,86	1636,00
1140,67	1307,00
1146,47	1382,00
1152,26	1253,00
1158,05	1126,00
1163,83	1262,00
1169,60	1122,00
1175,37	1220,00
1181,13	1135,00
1186,89	1198,00
1192,64	1201,00
1198,38	1205,00
1204,12	1211,00
1209,85	1091,00
1215,58	1161,00
1221,30	1133,00
1227,02	1268,00
1232,72	1226,00
1238,43	1059,00
1244,12	1301,00
1249,81	1190,00
1255,50	1247,00
1261,17	1228,00
1266,85	1216,00
1272,51	1254,00
1278,17	1289,00
1283,83	1322,00
1289,47	1699,00
1295,12	1924,00
1300,75	1786,00
1306,38	1503,00
1312,01	1437,00
1317,63	1161,00
1323,24	1273,00
1328,85	1295,00
1334,45	1289,00
1340,04	1198,00
1345,63	1189,00
1351,22	1279,00
1356,80	1365,00
1362,37	1244,00
1367,93	1259,00
1373,49	1315,00
1379,05	1201,00
1384,60	1339,00
1390,14	1323,00
1395,68	1190,00
1401,21	1071,00
1406,74	1194,00
1412,26	1401,00
1417,77	1368,00
1423,28	1466,00
1428,78	1477,00
1434,28	1841,00
1439,77	2006,00
1445,26	1775,00
1450,74	1934,00
1456,22	1665,00
1461,68	1736,00
1467,15	1674,00
1472,61	1415,00
1478,06	1419,00
1483,51	1299,00
1488,95	1226,00
1494,38	1189,00
1499,81	1255,00
1505,24	1001,00
1510,65	1120,00
1516,07	1129,00
1521,48	1108,00
1526,88	1029,00
1532,27	1111,00
1537,67	1125,00
1543,05	923,00
1548,43	982,00
1553,81	1126,00
1559,18	1017,00
1564,54	1024,00
1569,90	948,00
1575,25	1011,00
1580,60	1072,00
1585,94	900,00
1591,28	975,00
1596,61	978,00
1601,93	1092,00
1607,25	1045,00
1612,57	1059,00
1617,88	1109,00
1623,18	1064,00
1628,48	936,00
1633,77	881,00
1639,06	847,00
1644,34	975,00
1649,62	1091,00
1654,89	1114,00
1660,16	916,00
1665,42	906,00
1670,67	914,00
1675,92	920,00
1681,17	860,00
1686,41	889,00
1691,64	773,00
1696,87	811,00
1702,10	809,00
1707,32	977,00
1712,53	905,00
1717,74	928,00
1722,94	683,00
1728,14	839,00
1733,33	836,00
1738,52	858,00
1743,70	763,00
1748,88	872,00
1754,05	774,00
1759,22	922,00
1764,38	853,00
1769,53	826,00
1774,69	792,00
1779,83	807,00
1784,97	815,00
1790,11	790,00
1795,24	940,00
1800,36	751,00
1805,48	760,00
1810,60	768,00
1815,71	721,00
1820,82	693,00
1825,92	704,00
1831,01	758,00
1836,10	655,00
1841,19	860,00
1846,26	842,00
1851,34	734,00
1856,41	715,00
1861,47	689,00
1866,53	708,00
1871,59	671,00
1876,64	653,00
1881,68	680,00
1886,72	767,00
1891,76	752,00
1896,79	758,00
1901,81	779,00
1906,83	635,00
1911,85	645,00
1916,86	752,00
1921,86	675,00
1926,86	650,00
1931,86	652,00
1936,85	578,00
1941,83	604,00
1946,81	568,00
1951,79	608,00
1956,76	552,00
1961,72	554,00
1966,68	599,00
1971,64	684,00
1976,59	601,00
1981,54	631,00
1986,48	543,00
1991,42	609,00
1996,35	636,00
2001,27	579,00
2006,20	562,00
2011,11	618,00
2016,03	643,00
2020,93	585,00
2025,84	488,00
2030,73	582,00
2035,63	588,00
2040,52	701,00
2045,40	579,00
2050,28	459,00
2055,15	509,00
2060,02	509,00
2064,89	536,00
2069,75	656,00
2074,60	457,00
2079,46	526,00
2084,30	577,00
2089,14	486,00
2093,98	496,00
2098,81	622,00
2103,64	642,00
2108,46	377,00
2113,28	556,00
2118,09	352,00
2122,90	520,00
2127,70	548,00
2132,50	516,00
2137,30	533,00
2142,09	526,00
2146,87	442,00
2151,66	526,00
2156,43	451,00
2161,20	419,00
2165,97	509,00
2170,73	474,00
2175,49	466,00
2180,24	512,00
2184,99	661,00
2189,74	513,00
2194,48	419,00
2199,21	567,00
2203,94	447,00
2208,67	426,00
2213,39	459,00
2218,11	282,00
2222,82	497,00
2227,53	383,00
2232,23	476,00
2236,93	487,00
2241,63	417,00
2246,32	415,00
2251,00	377,00
2255,68	430,00
2260,36	354,00
2265,03	432,00
2269,70	302,00
2274,36	444,00
2279,02	296,00
2283,68	419,00
2288,33	396,00
2292,97	431,00
2297,61	457,00
2302,25	500,00
2306,88	423,00
2311,51	454,00
2316,14	356,00
2320,75	467,00
2325,37	365,00
2329,98	553,00
2334,59	440,00
2339,19	380,00
2343,79	348,00
2348,38	404,00
2352,97	328,00
2357,55	413,00
2362,13	373,00
2366,71	518,00
2371,28	420,00
2375,85	394,00
2380,41	226,00
2384,97	370,00
2389,52	247,00
2394,07	274,00
2398,62	301,00
2403,16	431,00
2407,70	402,00
2412,23	444,00
2416,76	410,00
2421,29	489,00
2425,81	315,00
2430,32	450,00
2434,84	350,00
2439,34	345,00
2443,85	365,00
2448,35	234,00
2452,84	202,00
2457,33	278,00
2461,82	403,00
2466,30	304,00
2470,78	505,00
2475,25	283,00
2479,72	283,00
2484,19	347,00
2488,65	418,00
2493,11	249,00
2497,56	294,00
2502,01	284,00
2506,46	407,00
2510,90	249,00
2515,34	335,00
2519,77	264,00
2524,20	398,00
2528,62	194,00
2533,04	410,00
2537,46	279,00
2541,87	320,00
2546,28	261,00
2550,68	308,00
2555,08	328,00
2559,48	341,00
2563,87	171,00
2568,26	267,00
2572,64	324,00
2577,02	407,00
2581,40	305,00
2585,77	292,00
2590,14	220,00
2594,50	227,00
2598,86	272,00
2603,22	242,00
2607,57	350,00
2611,92	332,00
2616,26	144,00
2620,60	326,00
2624,94	341,00
2629,27	425,00
2633,60	235,00
2637,92	371,00
2642,24	368,00
2646,56	321,00
2650,87	223,00
2655,18	250,00
2659,48	261,00
2663,78	265,00
2668,08	351,00
2672,37	424,00
2676,66	322,00
2680,95	381,00
2685,23	156,00
2689,50	352,00
2693,78	258,00
2698,05	393,00
2702,31	379,00
2706,57	338,00
2710,83	368,00
2715,08	303,00
2719,33	392,00
2723,58	411,00
2727,82	410,00
2732,06	255,00
2736,29	307,00
2740,53	383,00
2744,75	372,00
2748,97	325,00
2753,19	404,00
2757,41	420,00
2761,62	279,00
2765,83	314,00
2770,03	171,00
2774,23	271,00
2778,43	365,00
2782,62	351,00
2786,81	265,00
2791,00	254,00
2795,18	323,00
2799,35	253,00
2803,53	458,00
2807,70	529,00
2811,86	424,00
2816,03	553,00
2820,19	373,00
2824,34	435,00
2828,49	631,00
2832,64	707,00
2836,78	725,00
2840,92	968,00
2845,06	1088,00
2849,19	1018,00
2853,32	1146,00
2857,45	1026,00
2861,57	1288,00
2865,69	1100,00
2869,80	1120,00
2873,91	1093,00
2878,02	1188,00
2882,12	1293,00
2886,22	1185,00
2890,32	1136,00
2894,41	1115,00
2898,50	1081,00
2902,58	966,00
2906,67	926,00
2910,74	802,00
2914,82	812,00
2918,89	790,00
2922,96	915,00
2927,02	733,00
2931,08	762,00
2935,13	674,00
2939,19	611,00
2943,24	540,00
2947,28	447,00
2951,32	398,00
2955,36	496,00
2959,40	458,00
2963,43	311,00
2967,46	341,00
2971,48	308,00
2975,50	339,00
2979,52	196,00
2983,53	312,00
2987,54	347,00
2991,55	221,00
2995,55	276,00
2999,55	245,00
3003,54	200,00
3007,54	146,00
3011,53	158,00
3015,51	227,00
3019,49	81,00
3023,47	313,00
3027,45	317,00
3031,42	207,00
3035,39	214,00
3039,35	272,00
3043,31	177,00
3047,27	254,00
3051,22	321,00
3055,17	154,00
3059,12	100,00
3063,06	178,00
3067,00	67,00
3070,94	76,00
3074,87	200,00
3078,80	219,00
3082,73	250,00
3086,65	135,00
3090,57	98,00
3094,49	173,00
3098,40	130,00
3102,31	265,00
3106,22	108,00
3110,12	183,00
3114,02	177,00
3117,92	172,00
3121,81	158,00
3125,70	203,00
3129,58	156,00
3133,47	173,00
3137,34	69,00
3141,22	121,00
3145,09	223,00
3148,96	204,00
3152,83	167,00
3156,69	133,00
3160,55	216,00
3164,40	123,00
3168,26	104,00
3172,10	267,00
3175,95	156,00
3179,79	164,00
3183,63	193,00
3187,47	254,00
3191,30	241,00
3195,13	186,00
3198,95	101,00
3202,78	95,00
3206,60	137,00
3210,41	94,00
3214,23	162,00
3218,03	122,00
3221,84	146,00
3225,64	25,00
3229,44	116,00
3233,24	179,00
3237,03	75,00
3240,82	28,00
3244,61	105,00
3248,39	174,00
3252,17	155,00
3255,95	264,00
3259,72	132,00
3263,49	67,00
3267,26	133,00
3271,03	61,00
3274,79	101,00
3278,54	199,00
3282,30	125,00
3286,05	154,00
3289,80	82,00
3293,54	161,00
3297,29	173,00
3301,02	52,00
3304,76	207,00
3308,49	177,00
3312,22	37,00
3315,95	175,00
3319,67	141,00
3323,39	161,00
3327,10	100,00
3330,82	259,00
3334,53	79,00
3338,24	210,00
3341,94	185,00
3345,64	94,00
3349,34	-11,00
3353,03	188,00
3356,72	78,00
3360,41	98,00
3364,10	218,00
3367,78	143,00
3371,46	140,00
3375,13	193,00
3378,81	162,00
3382,48	139,00
3386,14	248,00
3389,81	9,00
3393,47	128,00
3397,12	93,00
3400,78	166,00
3404,43	131,00
3408,08	64,00
3411,72	103,00
3415,36	110,00
3419,00	-18,00
3422,64	17,00
3426,27	144,00
3429,90	75,00
3433,53	184,00
3437,15	125,00
3440,77	108,00
3444,39	101,00
3448,00	38,00
3451,62	254,00
3455,22	83,00
3458,83	108,00
3462,43	182,00
3466,03	54,00
3469,63	-77,00
3473,22	273,00
3476,81	70,00
3480,40	84,00
3483,99	161,00
3487,57	131,00
3491,15	138,00
3494,72	133,00
3498,29	188,00
3501,86	127,00
3505,43	127,00
3508,99	34,00
3512,56	133,00
3516,11	39,00
3519,67	156,00
3523,22	125,00
3526,77	191,00
3530,32	162,00
3533,86	154,00
3537,40	163,00
3540,94	197,00
3544,47	62,00
3548,00	220,00
3551,53	95,00
3555,06	85,00
3558,58	106,00
3562,10	-10,00
3565,62	167,00
3569,13	125,00
3572,64	180,00
3576,15	155,00
3579,66	173,00
3583,16	167,00
3586,66	77,00
3590,16	137,00
3593,65	128,00
3597,14	99,00
3600,63	197,00
3604,11	84,00
3607,60	104,00
3611,08	138,00
3614,55	18,00
3618,03	78,00
3621,50	139,00
3624,97	112,00
3628,43	17,00
3631,90	24,00
3635,36	146,00
3638,81	29,00
3642,27	145,00
3645,72	96,00
3649,17	114,00
3652,61	165,00
3656,06	-48,00
3659,50	72,00
3662,93	101,00
3666,37	109,00
3669,80	76,00
3673,23	-14,00
3676,65	159,00
3680,08	69,00
3683,50	170,00
3686,92	-16,00
3690,33	190,00
3693,74	75,00
3697,15	140,00
3700,56	171,00
3703,96	23,00
3707,36	-44,00
3710,76	38,00
3714,16	72,00
3717,55	61,00
3720,94	89,00
3724,33	110,00
3727,71	48,00
3731,10	58,00
3734,48	109,00
3737,85	3,00
3741,23	45,00
3744,60	10,00
3747,97	-19,00
3751,33	215,00
3754,69	226,00
3758,05	188,00
3761,41	30,00
3764,77	52,00
3768,12	159,00
3771,47	104,00
3774,82	-44,00
3778,16	3,00
3781,50	2,00
3784,84	8,00
3788,18	3,00
>>>>>End Processed Spectral Data<<<<<
