SpectraSuite Data File
++++++++++++++++++++++++++++++++++++
Date: Mon Mar 09 16:25:06 ICT 2026
User: Administrator
Dark Spectrum Present: Yes
Reference Spectrum Present: No
Number of Sampled Component Spectra: 1
Spectrometers: MAYP113682
Integration Time (usec): 3000000 (MAYP113682)
Spectra Averaged: 1 (MAYP113682)
Boxcar Smoothing: 0 (MAYP113682)
Correct for Electrical Dark: No (MAYP113682)
Strobe/Lamp Enabled: No (MAYP113682)
Correct for Detector Non-linearity: No (MAYP113682)
Correct for Stray Light: No (MAYP113682)
Number of Pixels in Processed Spectrum: 2068
>>>>>Begin Processed Spectral Data<<<<<
-37534,58	-4,00
-37414,56	4,00
-37295,11	-7,00
-37176,24	-5,00
-37057,95	100,00
-36940,22	24,00
-36823,05	53,00
-36706,45	62,00
-36590,40	112,00
-36474,90	128,00
-36359,95	97,00
-36245,55	84,00
-36131,68	119,00
-36018,35	140,00
-35905,55	116,00
-35793,29	56,00
-35681,54	69,00
-35570,32	67,00
-35459,62	61,00
-35349,43	33,00
-35239,75	11,00
-35130,58	105,00
-35021,91	72,00
-34913,74	75,00
-34806,07	191,00
-34698,89	51,00
-34592,20	67,00
-34486,00	113,00
-34380,28	199,00
-34275,04	48,00
-34170,27	-55,00
-34065,98	71,00
-33962,16	64,00
-33858,81	84,00
-33755,92	157,00
-33653,49	122,00
-33551,52	10,00
-33450,01	167,00
-33348,94	19,00
-33248,33	-47,00
-33148,16	36,00
-33048,43	183,00
-32949,14	43,00
-32850,29	242,00
-32751,87	93,00
-32653,89	26,00
-32556,33	48,00
-32459,20	96,00
-32362,49	216,00
-32266,19	100,00
-32170,32	120,00
-32074,86	34,00
-31979,82	79,00
-31885,18	99,00
-31790,95	135,00
-31697,12	-57,00
-31603,69	196,00
-31510,67	-70,00
-31418,04	105,00
-31325,80	60,00
-31233,95	150,00
-31142,49	99,00
-31051,42	69,00
-30960,73	55,00
-30870,43	75,00
-30780,50	82,00
-30690,95	9,00
-30601,77	77,00
-30512,97	306,00
-30424,53	79,00
-30336,46	13,00
-30248,76	75,00
-30161,42	150,00
-30074,44	89,00
-29987,81	148,00
-29901,55	79,00
-29815,63	93,00
-29730,07	115,00
-29644,86	128,00
-29560,00	-4,00
-29475,48	236,00
-29391,30	154,00
-29307,47	67,00
-29223,97	56,00
-29140,81	133,00
-29057,99	123,00
-28975,50	25,00
-28893,34	180,00
-28811,51	114,00
-28730,00	120,00
-28648,82	150,00
-28567,97	47,00
-28487,43	94,00
-28407,21	146,00
-28327,32	54,00
-28247,73	103,00
-28168,46	121,00
-28089,50	42,00
-28010,85	-46,00
-27932,51	106,00
-27854,48	140,00
-27776,75	35,00
-27699,32	238,00
-27622,19	103,00
-27545,37	136,00
-27468,84	189,00
-27392,60	125,00
-27316,66	-3,00
-27241,01	225,00
-27165,66	124,00
-27090,59	62,00
-27015,81	122,00
-26941,31	166,00
-26867,10	85,00
-26793,17	-37,00
-26719,52	65,00
-26646,15	34,00
-26573,06	0,00
-26500,24	116,00
-26427,70	108,00
-26355,43	57,00
-26283,43	43,00
-26211,71	80,00
-26140,25	106,00
-26069,06	21,00
-25998,13	180,00
-25927,46	15,00
-25857,06	166,00
-25786,92	127,00
-25717,04	55,00
-25647,42	38,00
-25578,05	93,00
-25508,94	110,00
-25440,09	13,00
-25371,48	56,00
-25303,13	172,00
-25235,02	7,00
-25167,17	110,00
-25099,56	32,00
-25032,19	175,00
-24965,07	94,00
-24898,20	145,00
-24831,56	111,00
-24765,17	120,00
-24699,01	293,00
-24633,10	-34,00
-24567,41	154,00
-24501,97	61,00
-24436,75	16,00
-24371,77	114,00
-24307,03	27,00
-24242,51	152,00
-24178,22	48,00
-24114,16	103,00
-24050,32	38,00
-23986,71	70,00
-23923,32	122,00
-23860,16	34,00
-23797,22	189,00
-23734,50	176,00
-23672,00	-6,00
-23609,71	106,00
-23547,65	90,00
-23485,80	52,00
-23424,16	113,00
-23362,74	146,00
-23301,53	13,00
-23240,54	-32,00
-23179,75	96,00
-23119,17	78,00
-23058,80	81,00
-22998,64	138,00
-22938,68	63,00
-22878,93	83,00
-22819,39	72,00
-22760,04	160,00
-22700,90	-17,00
-22641,96	77,00
-22583,22	35,00
-22524,68	100,00
-22466,33	104,00
-22408,19	2,00
-22350,23	3,00
-22292,48	117,00
-22234,92	140,00
-22177,55	117,00
-22120,37	87,00
-22063,38	103,00
-22006,58	151,00
-21949,98	57,00
-21893,56	76,00
-21837,33	-11,00
-21781,28	37,00
-21725,42	-10,00
-21669,74	110,00
-21614,25	139,00
-21558,94	146,00
-21503,81	165,00
-21448,86	-63,00
-21394,10	84,00
-21339,51	21,00
-21285,10	127,00
-21230,86	76,00
-21176,81	64,00
-21122,93	-16,00
-21069,22	158,00
-21015,69	6,00
-20962,33	68,00
-20909,14	36,00
-20856,13	28,00
-20803,28	172,00
-20750,61	59,00
-20698,10	1,00
-20645,76	-47,00
-20593,59	136,00
-20541,59	100,00
-20489,75	-24,00
-20438,07	145,00
-20386,56	-80,00
-20335,22	232,00
-20284,03	55,00
-20233,01	42,00
-20182,15	-2,00
-20131,45	10,00
-20080,91	26,00
-20030,52	-70,00
-19980,30	27,00
-19930,23	108,00
-19880,32	76,00
-19830,56	70,00
-19780,96	91,00
-19731,52	208,00
-19682,23	6,00
-19633,09	47,00
-19584,10	21,00
-19535,26	135,00
-19486,58	139,00
-19438,04	93,00
-19389,66	-29,00
-19341,42	14,00
-19293,33	73,00
-19245,39	148,00
-19197,60	186,00
-19149,95	144,00
-19102,45	152,00
-19055,09	67,00
-19007,87	85,00
-18960,80	197,00
-18913,87	-27,00
-18867,09	40,00
-18820,44	42,00
-18773,94	172,00
-18727,57	107,00
-18681,35	59,00
-18635,26	4,00
-18589,31	71,00
-18543,50	9,00
-18497,83	91,00
-18452,29	6,00
-18406,89	72,00
-18361,63	103,00
-18316,50	184,00
-18271,50	194,00
-18226,63	70,00
-18181,90	98,00
-18137,30	126,00
-18092,84	-23,00
-18048,50	196,00
-18004,29	92,00
-17960,22	76,00
-17916,27	112,00
-17872,45	90,00
-17828,76	225,00
-17785,20	103,00
-17741,77	145,00
-17698,46	160,00
-17655,28	8,00
-17612,22	73,00
-17569,29	134,00
-17526,48	31,00
-17483,79	106,00
-17441,23	85,00
-17398,79	74,00
-17356,48	118,00
-17314,28	91,00
-17272,21	44,00
-17230,26	105,00
-17188,42	177,00
-17146,71	9,00
-17105,12	87,00
-17063,64	-45,00
-17022,28	178,00
-16981,04	158,00
-16939,92	76,00
-16898,91	-12,00
-16858,02	63,00
-16817,25	111,00
-16776,59	37,00
-16736,04	28,00
-16695,61	127,00
-16655,29	43,00
-16615,09	147,00
-16574,99	125,00
-16535,01	165,00
-16495,15	113,00
-16455,39	77,00
-16415,74	138,00
-16376,21	113,00
-16336,78	167,00
-16297,46	83,00
-16258,26	46,00
-16219,16	55,00
-16180,17	146,00
-16141,28	124,00
-16102,51	0,00
-16063,84	49,00
-16025,27	74,00
-15986,82	215,00
-15948,46	-14,00
-15910,22	198,00
-15872,07	105,00
-15834,04	185,00
-15796,10	114,00
-15758,27	239,00
-15720,54	45,00
-15682,91	130,00
-15645,39	-32,00
-15607,97	100,00
-15570,64	19,00
-15533,42	47,00
-15496,30	111,00
-15459,28	194,00
-15422,36	28,00
-15385,54	-50,00
-15348,82	29,00
-15312,19	78,00
-15275,66	35,00
-15239,23	183,00
-15202,90	24,00
-15166,67	3,00
-15130,53	87,00
-15094,48	120,00
-15058,54	59,00
-15022,68	94,00
-14986,93	128,00
-14951,26	-59,00
-14915,69	74,00
-14880,22	226,00
-14844,84	65,00
-14809,55	130,00
-14774,35	68,00
-14739,25	75,00
-14704,24	101,00
-14669,32	-17,00
-14634,49	117,00
-14599,75	108,00
-14565,10	-18,00
-14530,55	34,00
-14496,08	139,00
-14461,70	1,00
-14427,41	83,00
-14393,21	102,00
-14359,10	71,00
-14325,07	20,00
-14291,14	41,00
-14257,29	64,00
-14223,52	116,00
-14189,85	93,00
-14156,26	117,00
-14122,76	153,00
-14089,34	119,00
-14056,01	132,00
-14022,76	201,00
-13989,60	15,00
-13956,52	156,00
-13923,53	35,00
-13890,62	76,00
-13857,79	-7,00
-13825,05	59,00
-13792,39	-43,00
-13759,81	74,00
-13727,31	27,00
-13694,90	81,00
-13662,57	153,00
-13630,31	10,00
-13598,14	-23,00
-13566,05	53,00
-13534,05	166,00
-13502,12	115,00
-13470,27	35,00
-13438,50	120,00
-13406,80	49,00
-13375,19	91,00
-13343,66	82,00
-13312,20	-44,00
-13280,83	24,00
-13249,53	82,00
-13218,30	73,00
-13187,16	124,00
-13156,09	27,00
-13125,10	169,00
-13094,18	127,00
-13063,34	170,00
-13032,58	50,00
-13001,89	86,00
-12971,28	192,00
-12940,74	172,00
-12910,27	113,00
-12879,88	82,00
-12849,57	80,00
-12819,33	91,00
-12789,16	27,00
-12759,06	90,00
-12729,04	106,00
-12699,09	346,00
-12669,21	-61,00
-12639,41	36,00
-12609,68	165,00
-12580,02	29,00
-12550,43	148,00
-12520,91	36,00
-12491,46	92,00
-12462,08	143,00
-12432,77	-35,00
-12403,54	-37,00
-12374,37	66,00
-12345,27	83,00
-12316,24	21,00
-12287,29	177,00
-12258,40	135,00
-12229,57	117,00
-12200,82	41,00
-12172,14	-26,00
-12143,52	48,00
-12114,97	107,00
-12086,49	61,00
-12058,07	78,00
-12029,73	116,00
-12001,44	-35,00
-11973,23	117,00
-11945,08	86,00
-11917,00	223,00
-11888,98	165,00
-11861,03	172,00
-11833,15	53,00
-11805,32	165,00
-11777,57	148,00
-11749,88	99,00
-11722,25	51,00
-11694,69	146,00
-11667,19	185,00
-11639,75	128,00
-11612,38	46,00
-11585,07	20,00
-11557,83	27,00
-11530,65	46,00
-11503,53	175,00
-11476,47	188,00
-11449,48	111,00
-11422,54	10,00
-11395,67	22,00
-11368,86	113,00
-11342,11	126,00
-11315,43	67,00
-11288,80	74,00
-11262,23	144,00
-11235,73	88,00
-11209,28	-25,00
-11182,90	146,00
-11156,57	135,00
-11130,31	94,00
-11104,10	-5,00
-11077,96	11,00
-11051,87	218,00
-11025,84	203,00
-10999,87	93,00
-10973,96	50,00
-10948,11	25,00
-10922,31	57,00
-10896,58	74,00
-10870,90	102,00
-10845,28	117,00
-10819,71	78,00
-10794,20	91,00
-10768,75	150,00
-10743,36	71,00
-10718,02	-21,00
-10692,74	217,00
-10667,52	121,00
-10642,35	135,00
-10617,24	8,00
-10592,18	161,00
-10567,18	106,00
-10542,23	142,00
-10517,34	153,00
-10492,51	108,00
-10467,72	113,00
-10443,00	174,00
-10418,32	143,00
-10393,70	39,00
-10369,14	162,00
-10344,63	24,00
-10320,17	307,00
-10295,77	156,00
-10271,42	153,00
-10247,12	51,00
-10222,88	8,00
-10198,68	39,00
-10174,54	126,00
-10150,46	95,00
-10126,42	180,00
-10102,44	39,00
-10078,51	123,00
-10054,63	135,00
-10030,80	17,00
-10007,03	48,00
-9983,30	128,00
-9959,63	-7,00
-9936,01	304,00
-9912,44	142,00
-9888,92	-5,00
-9865,44	48,00
-9842,02	-113,00
-9818,65	153,00
-9795,33	58,00
-9772,06	77,00
-9748,84	-10,00
-9725,67	49,00
-9702,55	-37,00
-9679,47	37,00
-9656,45	-56,00
-9633,47	47,00
-9610,55	51,00
-9587,67	-42,00
-9564,84	-19,00
-9542,06	-45,00
-9519,32	65,00
-9496,64	-58,00
-9474,00	-102,00
-9451,41	19,00
-9428,87	-97,00
-9406,37	-47,00
-9383,92	-106,00
-9361,52	-90,00
-9339,17	-237,00
-9316,86	-111,00
-9294,60	-83,00
-9272,38	-91,00
-9250,21	-155,00
-9228,09	10,00
-9206,01	-154,00
-9183,98	-104,00
-9162,00	-311,00
-9140,06	-215,00
-9118,16	-139,00
-9096,31	-171,00
-9074,51	-82,00
-9052,75	-14,00
-9031,04	-56,00
-9009,37	-151,00
-8987,74	-160,00
-8966,16	-156,00
-8944,63	-224,00
-8923,14	-277,00
-8901,69	-193,00
-8880,29	-33,00
-8858,93	58,00
-8837,61	56,00
-8816,34	232,00
-8795,11	21,00
-8773,92	100,00
-8752,78	-52,00
-8731,68	41,00
-8710,62	-95,00
-8689,61	48,00
-8668,63	84,00
-8647,70	2,00
-8626,82	44,00
-8605,97	113,00
-8585,17	19,00
-8564,41	3,00
-8543,69	-25,00
-8523,01	-125,00
-8502,37	-63,00
-8481,78	8,00
-8461,23	53,00
-8440,71	-8,00
-8420,24	183,00
-8399,81	57,00
-8379,42	156,00
-8359,08	-63,00
-8338,77	42,00
-8318,50	-12,00
-8298,27	98,00
-8278,09	-25,00
-8257,94	59,00
-8237,83	110,00
-8217,76	218,00
-8197,74	195,00
-8177,75	5,00
-8157,80	113,00
-8137,89	96,00
-8118,02	124,00
-8098,19	152,00
-8078,40	152,00
-8058,65	47,00
-8038,93	163,00
-8019,26	219,00
-7999,62	122,00
-7980,02	68,00
-7960,46	184,00
-7940,94	159,00
-7921,46	94,00
-7902,01	95,00
-7882,60	233,00
-7863,23	156,00
-7843,90	90,00
-7824,61	115,00
-7805,35	176,00
-7786,13	309,00
-7766,95	233,00
-7747,80	204,00
-7728,69	67,00
-7709,62	176,00
-7690,59	45,00
-7671,59	162,00
-7652,63	215,00
-7633,70	235,00
-7614,81	170,00
-7595,96	244,00
-7577,15	208,00
-7558,37	168,00
-7539,62	156,00
-7520,91	243,00
-7502,24	54,00
-7483,60	219,00
-7465,00	125,00
-7446,44	109,00
-7427,91	83,00
-7409,41	86,00
-7390,95	71,00
-7372,53	120,00
-7354,14	-55,00
-7335,78	-73,00
-7317,46	159,00
-7299,18	82,00
-7280,92	77,00
-7262,71	154,00
-7244,52	75,00
-7226,38	219,00
-7208,26	249,00
-7190,18	138,00
-7172,14	214,00
-7154,12	-59,00
-7136,15	66,00
-7118,20	226,00
-7100,29	81,00
-7082,41	20,00
-7064,57	146,00
-7046,76	1,00
-7028,98	-31,00
-7011,24	-33,00
-6993,53	-138,00
-6975,85	-53,00
-6958,20	-22,00
-6940,59	-31,00
-6923,01	-24,00
-6905,46	-33,00
-6887,94	130,00
-6870,46	-2663,00
-6853,01	129,00
-6835,59	107,00
-6818,21	74,00
-6800,85	95,00
-6783,53	-95,00
-6766,24	-157,00
-6748,98	-131,00
-6731,76	-44,00
-6714,56	-194,00
-6697,40	-6,00
-6680,26	-40,00
-6663,16	16,00
-6646,09	-23,00
-6629,05	-26,00
-6612,05	49,00
-6595,07	94,00
-6578,13	-94,00
-6561,21	32,00
-6544,33	-24,00
-6527,47	-69,00
-6510,65	-233,00
-6493,86	-121,00
-6477,10	-114,00
-6460,36	-104,00
-6443,66	-39,00
-6426,99	-70,00
-6410,35	-92,00
-6393,74	-31,00
-6377,16	-12,00
-6360,61	-190,00
-6344,09	-18,00
-6327,59	71,00
-6311,13	-103,00
-6294,70	-2,00
-6278,29	183,00
-6261,92	82,00
-6245,58	27,00
-6229,26	175,00
-6212,97	121,00
-6196,72	-105,00
-6180,49	-173,00
-6164,29	-45,00
-6148,12	-54,00
-6131,98	-169,00
-6115,86	-10,00
-6099,78	-164,00
-6083,72	-64,00
-6067,69	-75,00
-6051,69	-166,00
-6035,72	41,00
-6019,78	-11,00
-6003,87	25,00
-5987,98	66,00
-5972,12	71,00
-5956,29	-7,00
-5940,49	52,00
-5924,71	-54,00
-5908,96	12,00
-5893,24	-65,00
-5877,55	15,00
-5861,89	-60,00
-5846,25	-186,00
-5830,64	-130,00
-5815,05	-83,00
-5799,50	19,00
-5783,97	87,00
-5768,47	108,00
-5752,99	71,00
-5737,55	-22,00
-5722,12	25,00
-5706,73	8,00
-5691,36	54,00
-5676,02	-48,00
-5660,71	72,00
-5645,42	31,00
-5630,16	-25,00
-5614,92	99,00
-5599,71	20,00
-5584,53	-134,00
-5569,37	-20,00
-5554,24	1096,00
-5539,14	12,00
-5524,06	-63,00
-5509,01	75,00
-5493,98	12,00
-5478,98	-11,00
-5464,00	-97,00
-5449,05	-27,00
-5434,13	-59,00
-5419,23	-31,00
-5404,36	-49,00
-5389,51	39,00
-5374,69	57,00
-5359,89	-43,00
-5345,12	53,00
-5330,37	246,00
-5315,65	45,00
-5300,95	66,00
-5286,28	27,00
-5271,63	42,00
-5257,01	-66,00
-5242,41	52,00
-5227,84	-97,00
-5213,29	-131,00
-5198,76	24,00
-5184,26	-50,00
-5169,79	35,00
-5155,33	14,00
-5140,91	-19,00
-5126,51	39,00
-5112,13	95,00
-5097,77	7,00
-5083,44	-5,00
-5069,13	-37,00
-5054,85	23,00
-5040,59	102,00
-5026,36	-89,00
-5012,15	29,00
-4997,96	37,00
-4983,80	-46,00
-4969,66	91,00
-4955,54	54,00
-4941,44	123,00
-4927,37	71,00
-4913,33	35,00
-4899,30	52,00
-4885,30	85,00
-4871,33	111,00
-4857,37	11,00
-4843,44	91,00
-4829,53	103,00
-4815,65	31,00
-4801,79	-3,00
-4787,95	4,00
-4774,13	83,00
-4760,34	130,00
-4746,56	53,00
-4732,82	76,00
-4719,09	-30,00
-4705,38	94,00
-4691,70	49,00
-4678,04	-39,00
-4664,41	-11,00
-4650,79	53,00
-4637,20	49,00
-4623,63	44,00
-4610,08	-93,00
-4596,56	-32,00
-4583,05	40,00
-4569,57	-69,00
-4556,11	137,00
-4542,67	113,00
-4529,25	57,00
-4515,86	-38,00
-4502,49	154,00
-4489,13	86,00
-4475,80	179,00
-4462,49	65,00
-4449,21	123,00
-4435,94	106,00
-4422,70	-8,00
-4409,47	111,00
-4396,27	35,00
-4383,09	24,00
-4369,93	20,00
-4356,79	77,00
-4343,67	15,00
-4330,58	-37,00
-4317,50	16,00
-4304,45	112,00
-4291,41	-7,00
-4278,40	15,00
-4265,41	60,00
-4252,44	38,00
-4239,49	143,00
-4226,55	146,00
-4213,65	77,00
-4200,76	68,00
-4187,89	71,00
-4175,04	17,00
-4162,21	41,00
-4149,40	6,00
-4136,61	165,00
-4123,85	105,00
-4111,10	138,00
-4098,37	32,00
-4085,66	127,00
-4072,98	172,00
-4060,31	34,00
-4047,66	65,00
-4035,04	89,00
-4022,43	48,00
-4009,84	113,00
-3997,27	60,00
-3984,72	107,00
-3972,19	23,00
-3959,69	-20,00
-3947,20	112,00
-3934,73	99,00
-3922,27	114,00
-3909,84	70,00
-3897,43	195,00
-3885,04	124,00
-3872,67	4,00
-3860,31	16,00
-3847,98	200,00
-3835,66	2,00
-3823,36	-16,00
-3811,09	32,00
-3798,83	103,00
-3786,59	-6,00
-3774,37	171,00
-3762,17	46,00
-3749,98	89,00
-3737,82	56,00
-3725,67	120,00
-3713,55	132,00
-3701,44	85,00
-3689,35	120,00
-3677,28	-50,00
-3665,22	-1,00
-3653,19	-3,00
-3641,17	46,00
-3629,18	151,00
-3617,20	92,00
-3605,24	248,00
-3593,30	40,00
-3581,37	-9,00
-3569,47	187,00
-3557,58	59,00
-3545,71	133,00
-3533,86	112,00
-3522,02	-15,00
-3510,21	55,00
-3498,41	6,00
-3486,63	137,00
-3474,87	92,00
-3463,12	160,00
-3451,40	109,00
-3439,69	190,00
-3428,00	122,00
-3416,33	93,00
-3404,67	115,00
-3393,03	210,00
-3381,41	75,00
-3369,81	43,00
-3358,22	184,00
-3346,66	154,00
-3335,10	36,00
-3323,57	141,00
-3312,06	94,00
-3300,56	89,00
-3289,08	51,00
-3277,61	135,00
-3266,16	38,00
-3254,73	169,00
-3243,32	15,00
-3231,92	47,00
-3220,55	34,00
-3209,18	39,00
-3197,84	82,00
-3186,51	34,00
-3175,20	61,00
-3163,90	111,00
-3152,63	81,00
-3141,36	84,00
-3130,12	59,00
-3118,89	-3,00
-3107,68	146,00
-3096,49	1,00
-3085,31	65,00
-3074,15	132,00
-3063,00	39,00
-3051,87	-12,00
-3040,76	54,00
-3029,67	98,00
-3018,59	-7,00
-3007,52	-27,00
-2996,48	118,00
-2985,44	59,00
-2974,43	60,00
-2963,43	31,00
-2952,45	-40,00
-2941,48	134,00
-2930,53	-10,00
-2919,60	119,00
-2908,68	162,00
-2897,78	104,00
-2886,89	73,00
-2876,02	152,00
-2865,17	121,00
-2854,33	89,00
-2843,50	147,00
-2832,70	185,00
-2821,90	41,00
-2811,13	10,00
-2800,37	15,00
-2789,62	64,00
-2778,89	172,00
-2768,18	88,00
-2757,48	122,00
-2746,80	114,00
-2736,13	-46,00
-2725,48	120,00
-2714,84	38,00
-2704,22	96,00
-2693,61	23,00
-2683,02	38,00
-2672,45	84,00
-2661,89	35,00
-2651,34	48,00
-2640,81	47,00
-2630,30	100,00
-2619,80	60,00
-2609,31	127,00
-2598,84	-25,00
-2588,39	75,00
-2577,95	77,00
-2567,52	85,00
-2557,11	-15,00
-2546,71	104,00
-2536,33	193,00
-2525,97	58,00
-2515,62	4,00
-2505,28	103,00
-2494,96	36,00
-2484,65	-1,00
-2474,36	283,00
-2464,08	145,00
-2453,82	181,00
-2443,57	168,00
-2433,33	85,00
-2423,11	162,00
-2412,91	86,00
-2402,72	188,00
-2392,54	157,00
-2382,38	138,00
-2372,23	74,00
-2362,09	-4129,00
-2351,97	160,00
-2341,87	149,00
-2331,78	49,00
-2321,70	-55,00
-2311,64	201,00
-2301,59	139,00
-2291,55	62,00
-2281,53	50,00
-2271,53	14,00
-2261,53	156,00
-2251,55	106,00
-2241,59	128,00
-2231,64	45,00
-2221,70	137,00
-2211,78	100,00
-2201,87	54,00
-2191,97	10,00
-2182,09	66,00
-2172,22	264,00
-2162,37	27,00
-2152,53	100,00
-2142,70	43,00
-2132,89	0,00
-2123,09	104,00
-2113,30	151,00
-2103,53	168,00
-2093,77	73,00
-2084,02	130,00
-2074,29	130,00
-2064,57	75,00
-2054,86	16,00
-2045,17	32,00
-2035,49	77,00
-2025,82	-18,00
-2016,17	181,00
-2006,53	21,00
-1996,91	-24,00
-1987,29	122,00
-1977,69	38,00
-1968,11	96,00
-1958,53	134,00
-1948,97	89,00
-1939,42	169,00
-1929,89	-1,00
-1920,37	103,00
-1910,86	179,00
-1901,36	130,00
-1891,88	40,00
-1882,41	34,00
-1872,95	152,00
-1863,51	29,00
-1854,08	62,00
-1844,66	48,00
-1835,26	38,00
-1825,86	157,00
-1816,48	-41,00
-1807,11	157,00
-1797,76	100,00
-1788,42	160,00
-1779,09	47,00
-1769,77	20,00
-1760,47	135,00
-1751,17	10,00
-1741,89	88,00
-1732,63	106,00
-1723,37	245,00
-1714,13	36,00
-1704,90	52,00
-1695,68	76,00
-1686,48	131,00
-1677,29	106,00
-1668,11	119,00
-1658,94	109,00
-1649,78	141,00
-1640,64	143,00
-1631,51	67,00
-1622,39	79,00
-1613,28	17,00
-1604,19	31,00
-1595,10	114,00
-1586,03	68,00
-1576,97	7,00
-1567,93	160,00
-1558,89	42,00
-1549,87	57,00
-1540,86	100,00
-1531,86	33,00
-1522,87	-56,00
-1513,90	249,00
-1504,93	24,00
-1495,98	47,00
-1487,04	173,00
-1478,12	65,00
-1469,20	13,00
-1460,30	14,00
-1451,40	96,00
-1442,52	194,00
-1433,65	98,00
-1424,80	132,00
-1415,95	112,00
-1407,12	-36,00
-1398,30	153,00
-1389,48	108,00
-1380,69	135,00
-1371,90	25,00
-1363,12	169,00
-1354,36	188,00
-1345,60	-45,00
-1336,86	51,00
-1328,13	203,00
-1319,41	9,00
-1310,70	216,00
-1302,01	67,00
-1293,32	102,00
-1284,65	177,00
-1275,99	52,00
-1267,33	-31,00
-1258,69	45,00
-1250,06	116,00
-1241,45	132,00
-1232,84	119,00
-1224,25	33,00
-1215,66	108,00
-1207,09	-12,00
-1198,53	157,00
-1189,97	187,00
-1181,43	89,00
-1172,91	55,00
-1164,39	154,00
-1155,88	97,00
-1147,38	83,00
-1138,90	0,00
-1130,43	141,00
-1121,96	159,00
-1113,51	63,00
-1105,07	29,00
-1096,64	51,00
-1088,22	181,00
-1079,81	47,00
-1071,41	148,00
-1063,02	121,00
-1054,65	171,00
-1046,28	45,00
-1037,92	65,00
-1029,58	207,00
-1021,24	120,00
-1012,92	210,00
-1004,61	17,00
-996,30	157,00
-988,01	26,00
-979,73	12,00
-971,46	113,00
-963,20	-57,00
-954,95	36,00
-946,71	-17,00
-938,48	65,00
-930,26	120,00
-922,06	-27,00
-913,86	3,00
-905,67	60,00
-897,49	126,00
-889,33	67,00
-881,17	92,00
-873,02	21,00
-864,89	156,00
-856,76	104,00
-848,65	212,00
-840,54	76,00
-832,45	-8,00
-824,36	128,00
-816,29	36,00
-808,22	5,00
-800,17	60,00
-792,12	178,00
-784,09	51,00
-776,06	62,00
-768,05	130,00
-760,04	99,00
-752,05	190,00
-744,07	27,00
-736,09	49,00
-728,13	73,00
-720,17	3,00
-712,23	138,00
-704,29	118,00
-696,37	101,00
-688,45	163,00
-680,55	177,00
-672,65	80,00
-664,77	207,00
-656,89	-2,00
-649,03	106,00
-641,17	192,00
-633,32	-35,00
-625,49	228,00
-617,66	57,00
-609,84	46,00
-602,03	121,00
-594,23	180,00
-586,45	97,00
-578,67	55,00
-570,90	100,00
-563,14	142,00
-555,39	-35,00
-547,65	169,00
-539,91	86,00
-532,19	131,00
-524,48	70,00
-516,78	80,00
-509,08	107,00
-501,40	89,00
-493,72	65,00
-486,06	67,00
-478,40	67,00
-470,76	176,00
-463,12	202,00
-455,49	48,00
-447,87	128,00
-440,26	170,00
-432,66	83,00
-425,07	-39,00
-417,49	212,00
-409,92	42,00
-402,35	146,00
-394,80	72,00
-387,25	104,00
-379,72	118,00
-372,19	101,00
-364,67	108,00
-357,17	83,00
-349,67	95,00
-342,18	145,00
-334,69	12,00
-327,22	97,00
-319,76	71,00
-312,30	220,00
-304,86	208,00
-297,42	219,00
-290,00	15,00
-282,58	139,00
-275,17	193,00
-267,77	122,00
-260,37	163,00
-252,99	126,00
-245,62	80,00
-238,25	179,00
-230,90	199,00
-223,55	0,00
-216,21	183,00
-208,88	209,00
-201,56	140,00
-194,25	202,00
-186,94	202,00
-179,65	111,00
-172,36	330,00
-165,08	310,00
-157,81	138,00
-150,55	316,00
-143,30	275,00
-136,06	326,00
-128,82	411,00
-121,60	435,00
-114,38	340,00
-107,17	508,00
-99,97	564,00
-92,78	550,00
-85,60	510,00
-78,42	885,00
-71,25	791,00
-64,10	995,00
-56,95	1167,00
-49,81	1370,00
-42,67	1691,00
-35,55	2111,00
-28,43	2748,00
-21,33	4457,00
-14,23	14861,00
-7,14	55164,00
-0,05	54791,00
7,02	54542,00
14,09	49265,00
21,14	13156,00
28,19	5495,00
35,23	3480,00
42,27	2700,00
49,29	2246,00
56,31	1820,00
63,32	1540,00
70,32	1312,00
77,31	1101,00
84,29	946,00
91,27	884,00
98,23	752,00
105,19	711,00
112,14	920,00
119,09	1115,00
126,02	1842,00
132,95	1973,00
139,87	2123,00
146,78	2072,00
153,68	1916,00
160,58	1870,00
167,46	1922,00
174,34	1940,00
181,21	2028,00
188,08	1872,00
194,93	1810,00
201,78	1788,00
208,62	1749,00
215,45	1906,00
222,27	1806,00
229,09	1864,00
235,90	1917,00
242,70	1789,00
249,49	1859,00
256,27	1732,00
263,05	1810,00
269,82	1767,00
276,58	1733,00
283,33	1821,00
290,08	1791,00
296,82	1770,00
303,55	1717,00
310,27	1578,00
316,98	1630,00
323,69	1708,00
330,39	1644,00
337,08	1585,00
343,76	1552,00
350,44	1616,00
357,11	1512,00
363,77	1556,00
370,42	1613,00
377,07	1671,00
383,71	1653,00
390,34	1538,00
396,96	1468,00
403,58	1537,00
410,19	1590,00
416,79	1573,00
423,38	1505,00
429,97	1451,00
436,55	1578,00
443,12	1515,00
449,68	1423,00
456,24	1360,00
462,79	1328,00
469,33	1359,00
475,86	1407,00
482,39	1315,00
488,91	1334,00
495,42	1313,00
501,93	1371,00
508,42	1314,00
514,91	1428,00
521,40	1375,00
527,87	1192,00
534,34	1237,00
540,80	1282,00
547,25	1209,00
553,70	1293,00
560,14	1153,00
566,57	1331,00
573,00	1277,00
579,41	1191,00
585,83	1100,00
592,23	1167,00
598,62	1271,00
605,01	1165,00
611,40	1211,00
617,77	1110,00
624,14	1200,00
630,50	1171,00
636,85	1167,00
643,20	1166,00
649,54	1143,00
655,87	1083,00
662,20	1061,00
668,52	1140,00
674,83	1121,00
681,13	1086,00
687,43	927,00
693,72	1111,00
700,00	1064,00
706,28	1109,00
712,55	1019,00
718,81	1148,00
725,07	1060,00
731,32	1038,00
737,56	1026,00
743,79	1122,00
750,02	1127,00
756,24	1128,00
762,46	1024,00
768,67	1092,00
774,87	957,00
781,06	1005,00
787,25	1075,00
793,43	1080,00
799,60	1027,00
805,77	1007,00
811,93	1171,00
818,08	1063,00
824,23	1125,00
830,37	1087,00
836,50	1051,00
842,63	1061,00
848,75	1114,00
854,87	1019,00
860,97	1100,00
867,07	1107,00
873,17	985,00
879,25	1013,00
885,33	1006,00
891,41	1049,00
897,47	948,00
903,53	1092,00
909,59	1085,00
915,63	990,00
921,67	971,00
927,71	932,00
933,74	957,00
939,76	905,00
945,77	823,00
951,78	828,00
957,78	935,00
963,78	901,00
969,77	874,00
975,75	1028,00
981,72	912,00
987,69	983,00
993,66	890,00
999,61	717,00
1005,56	939,00
1011,51	1019,00
1017,44	930,00
1023,37	896,00
1029,30	827,00
1035,22	982,00
1041,13	976,00
1047,03	935,00
1052,93	1009,00
1058,83	1183,00
1064,71	1167,00
1070,59	1175,00
1076,47	1099,00
1082,33	1082,00
1088,20	1046,00
1094,05	947,00
1099,90	887,00
1105,74	1014,00
1111,58	967,00
1117,41	965,00
1123,23	1146,00
1129,05	1189,00
1134,86	1162,00
1140,67	979,00
1146,47	1058,00
1152,26	889,00
1158,05	740,00
1163,83	897,00
1169,60	974,00
1175,37	780,00
1181,13	850,00
1186,89	916,00
1192,64	835,00
1198,38	803,00
1204,12	835,00
1209,85	796,00
1215,58	890,00
1221,30	782,00
1227,02	886,00
1232,72	956,00
1238,43	825,00
1244,12	895,00
1249,81	827,00
1255,50	912,00
1261,17	920,00
1266,85	985,00
1272,51	941,00
1278,17	920,00
1283,83	1020,00
1289,47	1331,00
1295,12	1449,00
1300,75	1293,00
1306,38	1146,00
1312,01	1084,00
1317,63	968,00
1323,24	862,00
1328,85	966,00
1334,45	990,00
1340,04	1006,00
1345,63	925,00
1351,22	944,00
1356,80	918,00
1362,37	930,00
1367,93	854,00
1373,49	943,00
1379,05	809,00
1384,60	979,00
1390,14	986,00
1395,68	866,00
1401,21	811,00
1406,74	967,00
1412,26	1032,00
1417,77	1024,00
1423,28	1120,00
1428,78	1176,00
1434,28	1365,00
1439,77	1518,00
1445,26	1433,00
1450,74	1375,00
1456,22	1282,00
1461,68	1322,00
1467,15	1182,00
1472,61	1134,00
1478,06	1007,00
1483,51	943,00
1488,95	912,00
1494,38	889,00
1499,81	879,00
1505,24	814,00
1510,65	883,00
1516,07	864,00
1521,48	813,00
1526,88	659,00
1532,27	772,00
1537,67	784,00
1543,05	793,00
1548,43	794,00
1553,81	814,00
1559,18	867,00
1564,54	651,00
1569,90	696,00
1575,25	768,00
1580,60	774,00
1585,94	655,00
1591,28	796,00
1596,61	681,00
1601,93	810,00
1607,25	774,00
1612,57	735,00
1617,88	885,00
1623,18	792,00
1628,48	711,00
1633,77	694,00
1639,06	590,00
1644,34	649,00
1649,62	899,00
1654,89	856,00
1660,16	619,00
1665,42	635,00
1670,67	694,00
1675,92	579,00
1681,17	635,00
1686,41	665,00
1691,64	548,00
1696,87	614,00
1702,10	581,00
1707,32	702,00
1712,53	631,00
1717,74	680,00
1722,94	420,00
1728,14	630,00
1733,33	637,00
1738,52	591,00
1743,70	756,00
1748,88	681,00
1754,05	623,00
1759,22	537,00
1764,38	-846,00
1769,53	534,00
1774,69	665,00
1779,83	688,00
1784,97	531,00
1790,11	536,00
1795,24	586,00
1800,36	664,00
1805,48	534,00
1810,60	566,00
1815,71	366,00
1820,82	565,00
1825,92	463,00
1831,01	581,00
1836,10	498,00
1841,19	547,00
1846,26	556,00
1851,34	509,00
1856,41	512,00
1861,47	514,00
1866,53	530,00
1871,59	515,00
1876,64	400,00
1881,68	381,00
1886,72	423,00
1891,76	592,00
1896,79	513,00
1901,81	615,00
1906,83	486,00
1911,85	420,00
1916,86	518,00
1921,86	598,00
1926,86	542,00
1931,86	508,00
1936,85	372,00
1941,83	404,00
1946,81	460,00
1951,79	418,00
1956,76	303,00
1961,72	320,00
1966,68	456,00
1971,64	391,00
1976,59	434,00
1981,54	440,00
1986,48	383,00
1991,42	250,00
1996,35	450,00
2001,27	423,00
2006,20	424,00
2011,11	448,00
2016,03	489,00
2020,93	363,00
2025,84	400,00
2030,73	390,00
2035,63	457,00
2040,52	438,00
2045,40	459,00
2050,28	359,00
2055,15	275,00
2060,02	401,00
2064,89	377,00
2069,75	435,00
2074,60	334,00
2079,46	384,00
2084,30	457,00
2089,14	399,00
2093,98	393,00
2098,81	442,00
2103,64	465,00
2108,46	412,00
2113,28	440,00
2118,09	299,00
2122,90	399,00
2127,70	339,00
2132,50	419,00
2137,30	295,00
2142,09	422,00
2146,87	304,00
2151,66	323,00
2156,43	349,00
2161,20	258,00
2165,97	423,00
2170,73	343,00
2175,49	318,00
2180,24	397,00
2184,99	524,00
2189,74	440,00
2194,48	317,00
2199,21	436,00
2203,94	303,00
2208,67	309,00
2213,39	363,00
2218,11	272,00
2222,82	391,00
2227,53	392,00
2232,23	300,00
2236,93	369,00
2241,63	383,00
2246,32	408,00
2251,00	323,00
2255,68	427,00
2260,36	294,00
2265,03	407,00
2269,70	303,00
2274,36	329,00
2279,02	298,00
2283,68	254,00
2288,33	194,00
2292,97	318,00
2297,61	275,00
2302,25	357,00
2306,88	338,00
2311,51	332,00
2316,14	291,00
2320,75	306,00
2325,37	308,00
2329,98	353,00
2334,59	224,00
2339,19	290,00
2343,79	159,00
2348,38	233,00
2352,97	246,00
2357,55	291,00
2362,13	257,00
2366,71	348,00
2371,28	235,00
2375,85	231,00
2380,41	231,00
2384,97	230,00
2389,52	237,00
2394,07	174,00
2398,62	301,00
2403,16	299,00
2407,70	327,00
2412,23	394,00
2416,76	254,00
2421,29	297,00
2425,81	174,00
2430,32	260,00
2434,84	236,00
2439,34	362,00
2443,85	298,00
2448,35	165,00
2452,84	295,00
2457,33	237,00
2461,82	365,00
2466,30	276,00
2470,78	335,00
2475,25	183,00
2479,72	172,00
2484,19	299,00
2488,65	323,00
2493,11	197,00
2497,56	217,00
2502,01	266,00
2506,46	243,00
2510,90	162,00
2515,34	352,00
2519,77	135,00
2524,20	344,00
2528,62	220,00
2533,04	333,00
2537,46	172,00
2541,87	247,00
2546,28	247,00
2550,68	291,00
2555,08	265,00
2559,48	296,00
2563,87	264,00
2568,26	247,00
2572,64	351,00
2577,02	163,00
2581,40	227,00
2585,77	211,00
2590,14	196,00
2594,50	85,00
2598,86	273,00
2603,22	195,00
2607,57	281,00
2611,92	211,00
2616,26	217,00
2620,60	303,00
2624,94	192,00
2629,27	324,00
2633,60	132,00
2637,92	252,00
2642,24	192,00
2646,56	134,00
2650,87	96,00
2655,18	195,00
2659,48	259,00
2663,78	274,00
2668,08	299,00
2672,37	330,00
2676,66	224,00
2680,95	282,00
2685,23	191,00
2689,50	229,00
2693,78	139,00
2698,05	190,00
2702,31	246,00
2706,57	287,00
2710,83	428,00
2715,08	355,00
2719,33	344,00
2723,58	429,00
2727,82	379,00
2732,06	265,00
2736,29	285,00
2740,53	345,00
2744,75	278,00
2748,97	283,00
2753,19	295,00
2757,41	294,00
2761,62	301,00
2765,83	212,00
2770,03	174,00
2774,23	271,00
2778,43	363,00
2782,62	299,00
2786,81	287,00
2791,00	156,00
2795,18	231,00
2799,35	189,00
2803,53	363,00
2807,70	451,00
2811,86	232,00
2816,03	371,00
2820,19	328,00
2824,34	324,00
2828,49	501,00
2832,64	534,00
2836,78	553,00
2840,92	794,00
2845,06	919,00
2849,19	783,00
2853,32	979,00
2857,45	973,00
2861,57	1030,00
2865,69	924,00
2869,80	1056,00
2873,91	959,00
2878,02	1073,00
2882,12	1022,00
2886,22	972,00
2890,32	886,00
2894,41	932,00
2898,50	893,00
2902,58	813,00
2906,67	830,00
2910,74	586,00
2914,82	640,00
2918,89	662,00
2922,96	602,00
2927,02	540,00
2931,08	632,00
2935,13	586,00
2939,19	388,00
2943,24	385,00
2947,28	459,00
2951,32	359,00
2955,36	452,00
2959,40	409,00
2963,43	307,00
2967,46	309,00
2971,48	306,00
2975,50	236,00
2979,52	230,00
2983,53	168,00
2987,54	286,00
2991,55	189,00
2995,55	126,00
2999,55	132,00
3003,54	222,00
3007,54	174,00
3011,53	132,00
3015,51	252,00
3019,49	167,00
3023,47	194,00
3027,45	243,00
3031,42	136,00
3035,39	217,00
3039,35	217,00
3043,31	82,00
3047,27	282,00
3051,22	209,00
3055,17	239,00
3059,12	61,00
3063,06	190,00
3067,00	36,00
3070,94	162,00
3074,87	80,00
3078,80	195,00
3082,73	146,00
3086,65	173,00
3090,57	107,00
3094,49	237,00
3098,40	70,00
3102,31	259,00
3106,22	58,00
3110,12	122,00
3114,02	216,00
3117,92	82,00
3121,81	126,00
3125,70	115,00
3129,58	156,00
3133,47	108,00
3137,34	156,00
3141,22	111,00
3145,09	119,00
3148,96	201,00
3152,83	136,00
3156,69	16,00
3160,55	151,00
3164,40	84,00
3168,26	135,00
3172,10	235,00
3175,95	136,00
3179,79	130,00
3183,63	145,00
3187,47	135,00
3191,30	216,00
3195,13	171,00
3198,95	100,00
3202,78	153,00
3206,60	129,00
3210,41	15,00
3214,23	139,00
3218,03	115,00
3221,84	143,00
3225,64	113,00
3229,44	58,00
3233,24	241,00
3237,03	132,00
3240,82	90,00
3244,61	142,00
3248,39	165,00
3252,17	78,00
3255,95	212,00
3259,72	203,00
3263,49	172,00
3267,26	129,00
3271,03	91,00
3274,79	146,00
3278,54	175,00
3282,30	28,00
3286,05	134,00
3289,80	50,00
3293,54	146,00
3297,29	170,00
3301,02	99,00
3304,76	143,00
3308,49	214,00
3312,22	46,00
3315,95	197,00
3319,67	30,00
3323,39	144,00
3327,10	151,00
3330,82	164,00
3334,53	199,00
3338,24	127,00
3341,94	248,00
3345,64	206,00
3349,34	53,00
3353,03	146,00
3356,72	79,00
3360,41	92,00
3364,10	184,00
3367,78	211,00
3371,46	155,00
3375,13	93,00
3378,81	153,00
3382,48	51,00
3386,14	203,00
3389,81	-18,00
3393,47	123,00
3397,12	265,00
3400,78	151,00
3404,43	84,00
3408,08	48,00
3411,72	41,00
3415,36	96,00
3419,00	16,00
3422,64	2,00
3426,27	248,00
3429,90	116,00
3433,53	81,00
3437,15	37,00
3440,77	74,00
3444,39	108,00
3448,00	-20,00
3451,62	379,00
3455,22	32,00
3458,83	62,00
3462,43	106,00
3466,03	57,00
3469,63	12,00
3473,22	161,00
3476,81	81,00
3480,40	164,00
3483,99	151,00
3487,57	181,00
3491,15	164,00
3494,72	89,00
3498,29	196,00
3501,86	6,00
3505,43	130,00
3508,99	21,00
3512,56	79,00
3516,11	82,00
3519,67	67,00
3523,22	26,00
3526,77	153,00
3530,32	55,00
3533,86	65,00
3537,40	91,00
3540,94	183,00
3544,47	15,00
3548,00	282,00
3551,53	133,00
3555,06	139,00
3558,58	22,00
3562,10	95,00
3565,62	123,00
3569,13	34,00
3572,64	237,00
3576,15	54,00
3579,66	146,00
3583,16	185,00
3586,66	32,00
3590,16	84,00
3593,65	147,00
3597,14	96,00
3600,63	162,00
3604,11	92,00
3607,60	48,00
3611,08	197,00
3614,55	39,00
3618,03	140,00
3621,50	86,00
3624,97	172,00
3628,43	98,00
3631,90	-8,00
3635,36	220,00
3638,81	47,00
3642,27	6,00
3645,72	114,00
3649,17	120,00
3652,61	125,00
3656,06	-82,00
3659,50	98,00
3662,93	63,00
3666,37	26,00
3669,80	113,00
3673,23	63,00
3676,65	195,00
3680,08	81,00
3683,50	127,00
3686,92	-30,00
3690,33	170,00
3693,74	109,00
3697,15	90,00
3700,56	129,00
3703,96	-54,00
3707,36	-1,00
3710,76	75,00
3714,16	111,00
3717,55	54,00
3720,94	62,00
3724,33	143,00
3727,71	66,00
3731,10	70,00
3734,48	153,00
3737,85	6,00
3741,23	40,00
3744,60	-25,00
3747,97	-58,00
3751,33	284,00
3754,69	149,00
3758,05	98,00
3761,41	45,00
3764,77	78,00
3768,12	157,00
3771,47	116,00
3774,82	125,00
3778,16	1,00
3781,50	5,00
3784,84	1,00
3788,18	6,00
>>>>>End Processed Spectral Data<<<<<
