SpectraSuite Data File
++++++++++++++++++++++++++++++++++++
Date: Mon Mar 09 16:19:36 ICT 2026
User: Administrator
Dark Spectrum Present: Yes
Reference Spectrum Present: No
Number of Sampled Component Spectra: 1
Spectrometers: MAYP113682
Integration Time (usec): 3000000 (MAYP113682)
Spectra Averaged: 1 (MAYP113682)
Boxcar Smoothing: 0 (MAYP113682)
Correct for Electrical Dark: No (MAYP113682)
Strobe/Lamp Enabled: No (MAYP113682)
Correct for Detector Non-linearity: No (MAYP113682)
Correct for Stray Light: No (MAYP113682)
Number of Pixels in Processed Spectrum: 2068
>>>>>Begin Processed Spectral Data<<<<<
-37534,58	1,00
-37414,56	2,00
-37295,11	-3,00
-37176,24	-3,00
-37057,95	6,00
-36940,22	-7,00
-36823,05	99,00
-36706,45	20,00
-36590,40	43,00
-36474,90	53,00
-36359,95	82,00
-36245,55	96,00
-36131,68	-21,00
-36018,35	70,00
-35905,55	17,00
-35793,29	-77,00
-35681,54	64,00
-35570,32	21,00
-35459,62	20,00
-35349,43	79,00
-35239,75	16,00
-35130,58	83,00
-35021,91	-27,00
-34913,74	-46,00
-34806,07	-11,00
-34698,89	-34,00
-34592,20	33,00
-34486,00	89,00
-34380,28	19,00
-34275,04	80,00
-34170,27	2,00
-34065,98	33,00
-33962,16	55,00
-33858,81	70,00
-33755,92	102,00
-33653,49	124,00
-33551,52	146,00
-33450,01	134,00
-33348,94	12,00
-33248,33	-102,00
-33148,16	-1,00
-33048,43	96,00
-32949,14	12,00
-32850,29	39,00
-32751,87	124,00
-32653,89	99,00
-32556,33	-4,00
-32459,20	131,00
-32362,49	197,00
-32266,19	99,00
-32170,32	21,00
-32074,86	-29,00
-31979,82	-103,00
-31885,18	37,00
-31790,95	146,00
-31697,12	-22,00
-31603,69	113,00
-31510,67	59,00
-31418,04	94,00
-31325,80	109,00
-31233,95	141,00
-31142,49	81,00
-31051,42	222,00
-30960,73	178,00
-30870,43	68,00
-30780,50	126,00
-30690,95	-3,00
-30601,77	131,00
-30512,97	158,00
-30424,53	30,00
-30336,46	77,00
-30248,76	22,00
-30161,42	97,00
-30074,44	37,00
-29987,81	171,00
-29901,55	17,00
-29815,63	-45,00
-29730,07	-9,00
-29644,86	123,00
-29560,00	-53,00
-29475,48	132,00
-29391,30	4,00
-29307,47	64,00
-29223,97	108,00
-29140,81	17,00
-29057,99	167,00
-28975,50	22,00
-28893,34	102,00
-28811,51	73,00
-28730,00	67,00
-28648,82	69,00
-28567,97	62,00
-28487,43	-36,00
-28407,21	139,00
-28327,32	78,00
-28247,73	86,00
-28168,46	58,00
-28089,50	80,00
-28010,85	-88,00
-27932,51	146,00
-27854,48	45,00
-27776,75	129,00
-27699,32	142,00
-27622,19	39,00
-27545,37	30,00
-27468,84	123,00
-27392,60	86,00
-27316,66	-55,00
-27241,01	92,00
-27165,66	119,00
-27090,59	17,00
-27015,81	139,00
-26941,31	-10,00
-26867,10	-2,00
-26793,17	-6,00
-26719,52	-104,00
-26646,15	44,00
-26573,06	38,00
-26500,24	128,00
-26427,70	93,00
-26355,43	62,00
-26283,43	-29,00
-26211,71	82,00
-26140,25	34,00
-26069,06	165,00
-25998,13	209,00
-25927,46	4,00
-25857,06	71,00
-25786,92	8,00
-25717,04	118,00
-25647,42	20,00
-25578,05	45,00
-25508,94	104,00
-25440,09	-11,00
-25371,48	175,00
-25303,13	201,00
-25235,02	-5,00
-25167,17	-18,00
-25099,56	53,00
-25032,19	76,00
-24965,07	32,00
-24898,20	-7,00
-24831,56	-12,00
-24765,17	130,00
-24699,01	127,00
-24633,10	12,00
-24567,41	76,00
-24501,97	41,00
-24436,75	-9,00
-24371,77	94,00
-24307,03	-21,00
-24242,51	56,00
-24178,22	-32,00
-24114,16	62,00
-24050,32	110,00
-23986,71	45,00
-23923,32	108,00
-23860,16	-15,00
-23797,22	-8,00
-23734,50	79,00
-23672,00	-28,00
-23609,71	38,00
-23547,65	120,00
-23485,80	-47,00
-23424,16	7,00
-23362,74	95,00
-23301,53	33,00
-23240,54	-120,00
-23179,75	94,00
-23119,17	30,00
-23058,80	40,00
-22998,64	98,00
-22938,68	87,00
-22878,93	126,00
-22819,39	186,00
-22760,04	35,00
-22700,90	-153,00
-22641,96	10,00
-22583,22	107,00
-22524,68	102,00
-22466,33	188,00
-22408,19	48,00
-22350,23	57,00
-22292,48	-25,00
-22234,92	-10,00
-22177,55	106,00
-22120,37	70,00
-22063,38	15,00
-22006,58	82,00
-21949,98	23,00
-21893,56	138,00
-21837,33	1,00
-21781,28	23,00
-21725,42	47,00
-21669,74	39,00
-21614,25	73,00
-21558,94	81,00
-21503,81	8,00
-21448,86	-92,00
-21394,10	34,00
-21339,51	34,00
-21285,10	95,00
-21230,86	77,00
-21176,81	40,00
-21122,93	74,00
-21069,22	62,00
-21015,69	126,00
-20962,33	97,00
-20909,14	98,00
-20856,13	56,00
-20803,28	51,00
-20750,61	49,00
-20698,10	-12,00
-20645,76	27,00
-20593,59	64,00
-20541,59	77,00
-20489,75	59,00
-20438,07	81,00
-20386,56	-30,00
-20335,22	161,00
-20284,03	7,00
-20233,01	6,00
-20182,15	-39,00
-20131,45	-36,00
-20080,91	73,00
-20030,52	-69,00
-19980,30	109,00
-19930,23	110,00
-19880,32	59,00
-19830,56	21,00
-19780,96	-1,00
-19731,52	76,00
-19682,23	148,00
-19633,09	23,00
-19584,10	-21,00
-19535,26	43,00
-19486,58	173,00
-19438,04	67,00
-19389,66	0,00
-19341,42	-6,00
-19293,33	100,00
-19245,39	76,00
-19197,60	196,00
-19149,95	73,00
-19102,45	146,00
-19055,09	61,00
-19007,87	161,00
-18960,80	165,00
-18913,87	-63,00
-18867,09	-43,00
-18820,44	-82,00
-18773,94	33,00
-18727,57	-22,00
-18681,35	144,00
-18635,26	111,00
-18589,31	23,00
-18543,50	-53,00
-18497,83	7,00
-18452,29	43,00
-18406,89	48,00
-18361,63	75,00
-18316,50	82,00
-18271,50	178,00
-18226,63	45,00
-18181,90	130,00
-18137,30	201,00
-18092,84	33,00
-18048,50	59,00
-18004,29	80,00
-17960,22	46,00
-17916,27	109,00
-17872,45	5,00
-17828,76	68,00
-17785,20	95,00
-17741,77	112,00
-17698,46	92,00
-17655,28	61,00
-17612,22	122,00
-17569,29	186,00
-17526,48	28,00
-17483,79	194,00
-17441,23	54,00
-17398,79	43,00
-17356,48	99,00
-17314,28	39,00
-17272,21	62,00
-17230,26	103,00
-17188,42	21,00
-17146,71	-48,00
-17105,12	31,00
-17063,64	38,00
-17022,28	220,00
-16981,04	57,00
-16939,92	-3,00
-16898,91	81,00
-16858,02	-14,00
-16817,25	36,00
-16776,59	91,00
-16736,04	59,00
-16695,61	-43,00
-16655,29	55,00
-16615,09	106,00
-16574,99	102,00
-16535,01	69,00
-16495,15	-17,00
-16455,39	37,00
-16415,74	102,00
-16376,21	72,00
-16336,78	72,00
-16297,46	51,00
-16258,26	67,00
-16219,16	-8,00
-16180,17	193,00
-16141,28	88,00
-16102,51	38,00
-16063,84	-3,00
-16025,27	143,00
-15986,82	114,00
-15948,46	-15,00
-15910,22	132,00
-15872,07	70,00
-15834,04	126,00
-15796,10	-10,00
-15758,27	161,00
-15720,54	63,00
-15682,91	-7,00
-15645,39	118,00
-15607,97	17,00
-15570,64	31,00
-15533,42	77,00
-15496,30	111,00
-15459,28	93,00
-15422,36	-12,00
-15385,54	-126,00
-15348,82	69,00
-15312,19	-10,00
-15275,66	17,00
-15239,23	112,00
-15202,90	73,00
-15166,67	40,00
-15130,53	-4,00
-15094,48	76,00
-15058,54	38,00
-15022,68	110,00
-14986,93	89,00
-14951,26	-14,00
-14915,69	5,00
-14880,22	-5,00
-14844,84	116,00
-14809,55	102,00
-14774,35	18,00
-14739,25	41,00
-14704,24	17,00
-14669,32	-121,00
-14634,49	102,00
-14599,75	49,00
-14565,10	21,00
-14530,55	0,00
-14496,08	158,00
-14461,70	126,00
-14427,41	63,00
-14393,21	80,00
-14359,10	-98,00
-14325,07	-29,00
-14291,14	-38,00
-14257,29	7,00
-14223,52	2,00
-14189,85	61,00
-14156,26	49,00
-14122,76	50,00
-14089,34	91,00
-14056,01	30,00
-14022,76	42,00
-13989,60	45,00
-13956,52	57,00
-13923,53	-24,00
-13890,62	75,00
-13857,79	5,00
-13825,05	116,00
-13792,39	4,00
-13759,81	-10,00
-13727,31	68,00
-13694,90	-62,00
-13662,57	81,00
-13630,31	38,00
-13598,14	-43,00
-13566,05	83,00
-13534,05	44,00
-13502,12	-42,00
-13470,27	48,00
-13438,50	74,00
-13406,80	10,00
-13375,19	2,00
-13343,66	-49,00
-13312,20	-20,00
-13280,83	32,00
-13249,53	-78,00
-13218,30	38,00
-13187,16	22,00
-13156,09	-32,00
-13125,10	120,00
-13094,18	112,00
-13063,34	-6,00
-13032,58	-4,00
-13001,89	-28,00
-12971,28	-116,00
-12940,74	219,00
-12910,27	-19,00
-12879,88	79,00
-12849,57	40,00
-12819,33	-1,00
-12789,16	-17,00
-12759,06	65,00
-12729,04	103,00
-12699,09	206,00
-12669,21	-42,00
-12639,41	21,00
-12609,68	108,00
-12580,02	36,00
-12550,43	-32,00
-12520,91	-10,00
-12491,46	64,00
-12462,08	78,00
-12432,77	-11,00
-12403,54	9,00
-12374,37	157,00
-12345,27	66,00
-12316,24	94,00
-12287,29	93,00
-12258,40	41,00
-12229,57	9,00
-12200,82	-37,00
-12172,14	-12,00
-12143,52	103,00
-12114,97	3,00
-12086,49	-1,00
-12058,07	-47,00
-12029,73	114,00
-12001,44	66,00
-11973,23	124,00
-11945,08	113,00
-11917,00	115,00
-11888,98	139,00
-11861,03	132,00
-11833,15	10,00
-11805,32	96,00
-11777,57	130,00
-11749,88	93,00
-11722,25	-72,00
-11694,69	149,00
-11667,19	97,00
-11639,75	44,00
-11612,38	-9,00
-11585,07	52,00
-11557,83	29,00
-11530,65	31,00
-11503,53	52,00
-11476,47	87,00
-11449,48	69,00
-11422,54	58,00
-11395,67	-23,00
-11368,86	-29,00
-11342,11	45,00
-11315,43	-3,00
-11288,80	76,00
-11262,23	181,00
-11235,73	53,00
-11209,28	-9,00
-11182,90	69,00
-11156,57	10,00
-11130,31	79,00
-11104,10	-59,00
-11077,96	82,00
-11051,87	131,00
-11025,84	90,00
-10999,87	41,00
-10973,96	81,00
-10948,11	0,00
-10922,31	75,00
-10896,58	22,00
-10870,90	37,00
-10845,28	39,00
-10819,71	125,00
-10794,20	30,00
-10768,75	40,00
-10743,36	-8,00
-10718,02	54,00
-10692,74	72,00
-10667,52	107,00
-10642,35	204,00
-10617,24	-34,00
-10592,18	77,00
-10567,18	117,00
-10542,23	140,00
-10517,34	139,00
-10492,51	122,00
-10467,72	133,00
-10443,00	166,00
-10418,32	97,00
-10393,70	-46,00
-10369,14	123,00
-10344,63	12,00
-10320,17	225,00
-10295,77	153,00
-10271,42	165,00
-10247,12	114,00
-10222,88	204,00
-10198,68	178,00
-10174,54	94,00
-10150,46	2,00
-10126,42	120,00
-10102,44	50,00
-10078,51	141,00
-10054,63	165,00
-10030,80	172,00
-10007,03	165,00
-9983,30	78,00
-9959,63	57,00
-9936,01	315,00
-9912,44	205,00
-9888,92	117,00
-9865,44	230,00
-9842,02	35,00
-9818,65	302,00
-9795,33	119,00
-9772,06	162,00
-9748,84	186,00
-9725,67	170,00
-9702,55	265,00
-9679,47	293,00
-9656,45	277,00
-9633,47	372,00
-9610,55	394,00
-9587,67	243,00
-9564,84	452,00
-9542,06	350,00
-9519,32	412,00
-9496,64	479,00
-9474,00	465,00
-9451,41	523,00
-9428,87	444,00
-9406,37	552,00
-9383,92	504,00
-9361,52	523,00
-9339,17	322,00
-9316,86	491,00
-9294,60	734,00
-9272,38	733,00
-9250,21	862,00
-9228,09	862,00
-9206,01	724,00
-9183,98	745,00
-9162,00	617,00
-9140,06	510,00
-9118,16	637,00
-9096,31	718,00
-9074,51	748,00
-9052,75	782,00
-9031,04	725,00
-9009,37	688,00
-8987,74	532,00
-8966,16	509,00
-8944,63	276,00
-8923,14	368,00
-8901,69	396,00
-8880,29	523,00
-8858,93	715,00
-8837,61	725,00
-8816,34	873,00
-8795,11	722,00
-8773,92	747,00
-8752,78	658,00
-8731,68	659,00
-8710,62	490,00
-8689,61	607,00
-8668,63	735,00
-8647,70	744,00
-8626,82	673,00
-8605,97	671,00
-8585,17	609,00
-8564,41	524,00
-8543,69	497,00
-8523,01	386,00
-8502,37	475,00
-8481,78	687,00
-8461,23	562,00
-8440,71	624,00
-8420,24	667,00
-8399,81	716,00
-8379,42	797,00
-8359,08	621,00
-8338,77	585,00
-8318,50	600,00
-8298,27	611,00
-8278,09	526,00
-8257,94	582,00
-8237,83	702,00
-8217,76	629,00
-8197,74	770,00
-8177,75	679,00
-8157,80	670,00
-8137,89	625,00
-8118,02	550,00
-8098,19	431,00
-8078,40	647,00
-8058,65	571,00
-8038,93	794,00
-8019,26	622,00
-7999,62	598,00
-7980,02	482,00
-7960,46	512,00
-7940,94	565,00
-7921,46	392,00
-7902,01	418,00
-7882,60	459,00
-7863,23	518,00
-7843,90	503,00
-7824,61	394,00
-7805,35	599,00
-7786,13	607,00
-7766,95	615,00
-7747,80	553,00
-7728,69	608,00
-7709,62	557,00
-7690,59	592,00
-7671,59	591,00
-7652,63	665,00
-7633,70	614,00
-7614,81	547,00
-7595,96	654,00
-7577,15	563,00
-7558,37	508,00
-7539,62	573,00
-7520,91	552,00
-7502,24	426,00
-7483,60	476,00
-7465,00	525,00
-7446,44	509,00
-7427,91	451,00
-7409,41	327,00
-7390,95	284,00
-7372,53	334,00
-7354,14	163,00
-7335,78	159,00
-7317,46	550,00
-7299,18	370,00
-7280,92	503,00
-7262,71	427,00
-7244,52	531,00
-7226,38	632,00
-7208,26	655,00
-7190,18	499,00
-7172,14	523,00
-7154,12	393,00
-7136,15	433,00
-7118,20	582,00
-7100,29	569,00
-7082,41	471,00
-7064,57	471,00
-7046,76	467,00
-7028,98	272,00
-7011,24	338,00
-6993,53	161,00
-6975,85	306,00
-6958,20	255,00
-6940,59	174,00
-6923,01	279,00
-6905,46	148,00
-6887,94	347,00
-6870,46	-2238,00
-6853,01	513,00
-6835,59	523,00
-6818,21	431,00
-6800,85	400,00
-6783,53	152,00
-6766,24	176,00
-6748,98	41,00
-6731,76	73,00
-6714,56	39,00
-6697,40	190,00
-6680,26	93,00
-6663,16	286,00
-6646,09	260,00
-6629,05	346,00
-6612,05	315,00
-6595,07	377,00
-6578,13	344,00
-6561,21	244,00
-6544,33	188,00
-6527,47	176,00
-6510,65	-35,00
-6493,86	121,00
-6477,10	121,00
-6460,36	156,00
-6443,66	29,00
-6426,99	103,00
-6410,35	97,00
-6393,74	113,00
-6377,16	178,00
-6360,61	147,00
-6344,09	182,00
-6327,59	220,00
-6311,13	150,00
-6294,70	126,00
-6278,29	456,00
-6261,92	417,00
-6245,58	360,00
-6229,26	444,00
-6212,97	395,00
-6196,72	177,00
-6180,49	103,00
-6164,29	60,00
-6148,12	9,00
-6131,98	139,00
-6115,86	187,00
-6099,78	-8,00
-6083,72	-74,00
-6067,69	3,00
-6051,69	-16,00
-6035,72	69,00
-6019,78	133,00
-6003,87	-20,00
-5987,98	313,00
-5972,12	304,00
-5956,29	295,00
-5940,49	216,00
-5924,71	139,00
-5908,96	-34,00
-5893,24	59,00
-5877,55	52,00
-5861,89	58,00
-5846,25	-27,00
-5830,64	0,00
-5815,05	26,00
-5799,50	190,00
-5783,97	97,00
-5768,47	159,00
-5752,99	277,00
-5737,55	182,00
-5722,12	198,00
-5706,73	282,00
-5691,36	188,00
-5676,02	113,00
-5660,71	179,00
-5645,42	137,00
-5630,16	146,00
-5614,92	227,00
-5599,71	118,00
-5584,53	-55,00
-5569,37	170,00
-5554,24	1143,00
-5539,14	148,00
-5524,06	57,00
-5509,01	117,00
-5493,98	73,00
-5478,98	150,00
-5464,00	171,00
-5449,05	83,00
-5434,13	35,00
-5419,23	135,00
-5404,36	93,00
-5389,51	284,00
-5374,69	185,00
-5359,89	183,00
-5345,12	264,00
-5330,37	365,00
-5315,65	205,00
-5300,95	210,00
-5286,28	43,00
-5271,63	156,00
-5257,01	44,00
-5242,41	149,00
-5227,84	118,00
-5213,29	93,00
-5198,76	-90,00
-5184,26	171,00
-5169,79	78,00
-5155,33	117,00
-5140,91	137,00
-5126,51	208,00
-5112,13	190,00
-5097,77	157,00
-5083,44	-13,00
-5069,13	32,00
-5054,85	18,00
-5040,59	110,00
-5026,36	131,00
-5012,15	243,00
-4997,96	152,00
-4983,80	91,00
-4969,66	19,00
-4955,54	81,00
-4941,44	188,00
-4927,37	248,00
-4913,33	337,00
-4899,30	262,00
-4885,30	498,00
-4871,33	302,00
-4857,37	114,00
-4843,44	249,00
-4829,53	170,00
-4815,65	125,00
-4801,79	132,00
-4787,95	106,00
-4774,13	130,00
-4760,34	109,00
-4746,56	158,00
-4732,82	40,00
-4719,09	88,00
-4705,38	210,00
-4691,70	276,00
-4678,04	241,00
-4664,41	192,00
-4650,79	126,00
-4637,20	128,00
-4623,63	64,00
-4610,08	99,00
-4596,56	52,00
-4583,05	232,00
-4569,57	17,00
-4556,11	126,00
-4542,67	125,00
-4529,25	131,00
-4515,86	74,00
-4502,49	192,00
-4489,13	207,00
-4475,80	237,00
-4462,49	171,00
-4449,21	123,00
-4435,94	190,00
-4422,70	71,00
-4409,47	112,00
-4396,27	228,00
-4383,09	103,00
-4369,93	61,00
-4356,79	18,00
-4343,67	64,00
-4330,58	-48,00
-4317,50	67,00
-4304,45	140,00
-4291,41	47,00
-4278,40	15,00
-4265,41	66,00
-4252,44	56,00
-4239,49	102,00
-4226,55	140,00
-4213,65	70,00
-4200,76	96,00
-4187,89	88,00
-4175,04	118,00
-4162,21	173,00
-4149,40	99,00
-4136,61	284,00
-4123,85	-5,00
-4111,10	43,00
-4098,37	67,00
-4085,66	283,00
-4072,98	105,00
-4060,31	83,00
-4047,66	32,00
-4035,04	187,00
-4022,43	95,00
-4009,84	141,00
-3997,27	-4,00
-3984,72	100,00
-3972,19	22,00
-3959,69	30,00
-3947,20	92,00
-3934,73	-66,00
-3922,27	72,00
-3909,84	22,00
-3897,43	93,00
-3885,04	28,00
-3872,67	-47,00
-3860,31	-42,00
-3847,98	98,00
-3835,66	-4,00
-3823,36	-20,00
-3811,09	35,00
-3798,83	4,00
-3786,59	45,00
-3774,37	101,00
-3762,17	109,00
-3749,98	36,00
-3737,82	50,00
-3725,67	12,00
-3713,55	10,00
-3701,44	111,00
-3689,35	-11,00
-3677,28	16,00
-3665,22	88,00
-3653,19	-16,00
-3641,17	89,00
-3629,18	44,00
-3617,20	41,00
-3605,24	122,00
-3593,30	-60,00
-3581,37	51,00
-3569,47	33,00
-3557,58	-17,00
-3545,71	124,00
-3533,86	155,00
-3522,02	8,00
-3510,21	65,00
-3498,41	-10,00
-3486,63	52,00
-3474,87	54,00
-3463,12	116,00
-3451,40	134,00
-3439,69	129,00
-3428,00	250,00
-3416,33	103,00
-3404,67	22,00
-3393,03	118,00
-3381,41	-53,00
-3369,81	-32,00
-3358,22	151,00
-3346,66	49,00
-3335,10	91,00
-3323,57	77,00
-3312,06	48,00
-3300,56	-41,00
-3289,08	100,00
-3277,61	22,00
-3266,16	-13,00
-3254,73	92,00
-3243,32	17,00
-3231,92	63,00
-3220,55	6,00
-3209,18	100,00
-3197,84	171,00
-3186,51	27,00
-3175,20	55,00
-3163,90	18,00
-3152,63	-36,00
-3141,36	70,00
-3130,12	143,00
-3118,89	-54,00
-3107,68	101,00
-3096,49	126,00
-3085,31	48,00
-3074,15	52,00
-3063,00	55,00
-3051,87	72,00
-3040,76	-2,00
-3029,67	10,00
-3018,59	18,00
-3007,52	106,00
-2996,48	-2,00
-2985,44	84,00
-2974,43	-13,00
-2963,43	38,00
-2952,45	58,00
-2941,48	114,00
-2930,53	-82,00
-2919,60	0,00
-2908,68	152,00
-2897,78	93,00
-2886,89	97,00
-2876,02	98,00
-2865,17	109,00
-2854,33	151,00
-2843,50	-1,00
-2832,70	149,00
-2821,90	7,00
-2811,13	143,00
-2800,37	77,00
-2789,62	46,00
-2778,89	135,00
-2768,18	103,00
-2757,48	26,00
-2746,80	21,00
-2736,13	-17,00
-2725,48	69,00
-2714,84	-52,00
-2704,22	60,00
-2693,61	-38,00
-2683,02	20,00
-2672,45	90,00
-2661,89	47,00
-2651,34	-18,00
-2640,81	33,00
-2630,30	93,00
-2619,80	173,00
-2609,31	-12,00
-2598,84	1,00
-2588,39	32,00
-2577,95	78,00
-2567,52	64,00
-2557,11	57,00
-2546,71	133,00
-2536,33	183,00
-2525,97	95,00
-2515,62	4,00
-2505,28	116,00
-2494,96	-57,00
-2484,65	1,00
-2474,36	448,00
-2464,08	72,00
-2453,82	-104,00
-2443,57	204,00
-2433,33	113,00
-2423,11	127,00
-2412,91	63,00
-2402,72	109,00
-2392,54	118,00
-2382,38	90,00
-2372,23	69,00
-2362,09	489,00
-2351,97	14,00
-2341,87	24,00
-2331,78	65,00
-2321,70	-45,00
-2311,64	120,00
-2301,59	125,00
-2291,55	92,00
-2281,53	-32,00
-2271,53	8,00
-2261,53	-3,00
-2251,55	51,00
-2241,59	23,00
-2231,64	-16,00
-2221,70	45,00
-2211,78	87,00
-2201,87	192,00
-2191,97	7,00
-2182,09	87,00
-2172,22	82,00
-2162,37	-32,00
-2152,53	24,00
-2142,70	41,00
-2132,89	25,00
-2123,09	21,00
-2113,30	73,00
-2103,53	86,00
-2093,77	29,00
-2084,02	74,00
-2074,29	79,00
-2064,57	19,00
-2054,86	48,00
-2045,17	26,00
-2035,49	40,00
-2025,82	-63,00
-2016,17	58,00
-2006,53	78,00
-1996,91	44,00
-1987,29	-2,00
-1977,69	46,00
-1968,11	51,00
-1958,53	28,00
-1948,97	83,00
-1939,42	182,00
-1929,89	1,00
-1920,37	33,00
-1910,86	41,00
-1901,36	101,00
-1891,88	-15,00
-1882,41	54,00
-1872,95	54,00
-1863,51	30,00
-1854,08	75,00
-1844,66	175,00
-1835,26	66,00
-1825,86	122,00
-1816,48	19,00
-1807,11	73,00
-1797,76	138,00
-1788,42	59,00
-1779,09	-31,00
-1769,77	44,00
-1760,47	-22,00
-1751,17	47,00
-1741,89	-10,00
-1732,63	103,00
-1723,37	229,00
-1714,13	28,00
-1704,90	13,00
-1695,68	19,00
-1686,48	95,00
-1677,29	112,00
-1668,11	187,00
-1658,94	144,00
-1649,78	14,00
-1640,64	65,00
-1631,51	55,00
-1622,39	53,00
-1613,28	110,00
-1604,19	-13,00
-1595,10	54,00
-1586,03	16,00
-1576,97	40,00
-1567,93	84,00
-1558,89	34,00
-1549,87	-11,00
-1540,86	32,00
-1531,86	85,00
-1522,87	68,00
-1513,90	186,00
-1504,93	-68,00
-1495,98	157,00
-1487,04	136,00
-1478,12	95,00
-1469,20	115,00
-1460,30	56,00
-1451,40	2,00
-1442,52	120,00
-1433,65	5,00
-1424,80	177,00
-1415,95	-13,00
-1407,12	48,00
-1398,30	184,00
-1389,48	152,00
-1380,69	156,00
-1371,90	112,00
-1363,12	34,00
-1354,36	58,00
-1345,60	64,00
-1336,86	19,00
-1328,13	-14,00
-1319,41	-13,00
-1310,70	208,00
-1302,01	78,00
-1293,32	56,00
-1284,65	146,00
-1275,99	76,00
-1267,33	25,00
-1258,69	55,00
-1250,06	163,00
-1241,45	6,00
-1232,84	84,00
-1224,25	28,00
-1215,66	41,00
-1207,09	-21,00
-1198,53	9,00
-1189,97	151,00
-1181,43	-84,00
-1172,91	121,00
-1164,39	30,00
-1155,88	11,00
-1147,38	-7,00
-1138,90	68,00
-1130,43	29,00
-1121,96	112,00
-1113,51	98,00
-1105,07	124,00
-1096,64	29,00
-1088,22	105,00
-1079,81	152,00
-1071,41	52,00
-1063,02	71,00
-1054,65	65,00
-1046,28	70,00
-1037,92	13,00
-1029,58	98,00
-1021,24	31,00
-1012,92	251,00
-1004,61	-95,00
-996,30	119,00
-988,01	45,00
-979,73	-21,00
-971,46	97,00
-963,20	-19,00
-954,95	-39,00
-946,71	88,00
-938,48	30,00
-930,26	-30,00
-922,06	-66,00
-913,86	7,00
-905,67	9,00
-897,49	-20,00
-889,33	83,00
-881,17	65,00
-873,02	-138,00
-864,89	118,00
-856,76	21,00
-848,65	162,00
-840,54	-34,00
-832,45	27,00
-824,36	62,00
-816,29	58,00
-808,22	2,00
-800,17	8,00
-792,12	143,00
-784,09	34,00
-776,06	21,00
-768,05	35,00
-760,04	-17,00
-752,05	65,00
-744,07	10,00
-736,09	8,00
-728,13	71,00
-720,17	59,00
-712,23	155,00
-704,29	56,00
-696,37	60,00
-688,45	134,00
-680,55	-57,00
-672,65	105,00
-664,77	207,00
-656,89	10,00
-649,03	130,00
-641,17	26,00
-633,32	55,00
-625,49	117,00
-617,66	50,00
-609,84	27,00
-602,03	88,00
-594,23	126,00
-586,45	121,00
-578,67	59,00
-570,90	49,00
-563,14	95,00
-555,39	-73,00
-547,65	58,00
-539,91	105,00
-532,19	117,00
-524,48	-21,00
-516,78	34,00
-509,08	104,00
-501,40	137,00
-493,72	123,00
-486,06	10,00
-478,40	64,00
-470,76	124,00
-463,12	82,00
-455,49	-41,00
-447,87	61,00
-440,26	116,00
-432,66	62,00
-425,07	2,00
-417,49	69,00
-409,92	122,00
-402,35	245,00
-394,80	9,00
-387,25	46,00
-379,72	72,00
-372,19	121,00
-364,67	134,00
-357,17	147,00
-349,67	12,00
-342,18	76,00
-334,69	119,00
-327,22	35,00
-319,76	73,00
-312,30	83,00
-304,86	119,00
-297,42	3,00
-290,00	16,00
-282,58	75,00
-275,17	112,00
-267,77	108,00
-260,37	219,00
-252,99	147,00
-245,62	40,00
-238,25	172,00
-230,90	108,00
-223,55	-8,00
-216,21	178,00
-208,88	196,00
-201,56	197,00
-194,25	203,00
-186,94	199,00
-179,65	158,00
-172,36	163,00
-165,08	308,00
-157,81	144,00
-150,55	254,00
-143,30	324,00
-136,06	359,00
-128,82	386,00
-121,60	312,00
-114,38	392,00
-107,17	549,00
-99,97	625,00
-92,78	482,00
-85,60	582,00
-78,42	883,00
-71,25	872,00
-64,10	1056,00
-56,95	1314,00
-49,81	1475,00
-42,67	1716,00
-35,55	2269,00
-28,43	2939,00
-21,33	5010,00
-14,23	16703,00
-7,14	55164,00
-0,05	54791,00
7,02	54542,00
14,09	54044,00
21,14	14724,00
28,19	6198,00
35,23	3848,00
42,27	2991,00
49,29	2383,00
56,31	1918,00
63,32	1731,00
70,32	1364,00
77,31	1173,00
84,29	997,00
91,27	916,00
98,23	727,00
105,19	820,00
112,14	806,00
119,09	1246,00
126,02	1906,00
132,95	2309,00
139,87	2418,00
146,78	2356,00
153,68	2155,00
160,58	2188,00
167,46	2195,00
174,34	2143,00
181,21	2328,00
188,08	2191,00
194,93	2011,00
201,78	1954,00
208,62	2112,00
215,45	2168,00
222,27	2059,00
229,09	2107,00
235,90	2020,00
242,70	1977,00
249,49	1987,00
256,27	1942,00
263,05	1993,00
269,82	1976,00
276,58	1897,00
283,33	1930,00
290,08	2067,00
296,82	1851,00
303,55	1884,00
310,27	1839,00
316,98	1890,00
323,69	1908,00
330,39	1761,00
337,08	1719,00
343,76	1797,00
350,44	1890,00
357,11	1711,00
363,77	1819,00
370,42	1707,00
377,07	1870,00
383,71	1757,00
390,34	1778,00
396,96	1804,00
403,58	1669,00
410,19	1844,00
416,79	1713,00
423,38	1743,00
429,97	1707,00
436,55	1677,00
443,12	1698,00
449,68	1479,00
456,24	1666,00
462,79	1470,00
469,33	1559,00
475,86	1453,00
482,39	1615,00
488,91	1529,00
495,42	1553,00
501,93	1473,00
508,42	1490,00
514,91	1546,00
521,40	1499,00
527,87	1505,00
534,34	1431,00
540,80	1461,00
547,25	1455,00
553,70	1477,00
560,14	1362,00
566,57	1577,00
573,00	1400,00
579,41	1392,00
585,83	1295,00
592,23	1308,00
598,62	1393,00
605,01	1293,00
611,40	1313,00
617,77	1441,00
624,14	1273,00
630,50	1396,00
636,85	1230,00
643,20	1234,00
649,54	1289,00
655,87	1241,00
662,20	1278,00
668,52	1263,00
674,83	1212,00
681,13	1232,00
687,43	981,00
693,72	1165,00
700,00	1206,00
706,28	1335,00
712,55	1197,00
718,81	1253,00
725,07	1195,00
731,32	1104,00
737,56	1149,00
743,79	1267,00
750,02	1205,00
756,24	1289,00
762,46	1193,00
768,67	1203,00
774,87	1116,00
781,06	1151,00
787,25	1223,00
793,43	1166,00
799,60	1234,00
805,77	994,00
811,93	1236,00
818,08	1192,00
824,23	1119,00
830,37	1035,00
836,50	1236,00
842,63	1130,00
848,75	1105,00
854,87	1183,00
860,97	1248,00
867,07	1257,00
873,17	1143,00
879,25	1147,00
885,33	1296,00
891,41	1261,00
897,47	1043,00
903,53	1214,00
909,59	1071,00
915,63	1197,00
921,67	998,00
927,71	1027,00
933,74	1068,00
939,76	977,00
945,77	962,00
951,78	1071,00
957,78	1009,00
963,78	1055,00
969,77	916,00
975,75	1081,00
981,72	1020,00
987,69	974,00
993,66	1040,00
999,61	935,00
1005,56	1056,00
1011,51	1199,00
1017,44	986,00
1023,37	946,00
1029,30	1035,00
1035,22	1144,00
1041,13	1101,00
1047,03	1003,00
1052,93	1176,00
1058,83	1279,00
1064,71	1416,00
1070,59	1282,00
1076,47	1174,00
1082,33	1120,00
1088,20	1138,00
1094,05	1087,00
1099,90	1059,00
1105,74	1092,00
1111,58	980,00
1117,41	1005,00
1123,23	1301,00
1129,05	1383,00
1134,86	1349,00
1140,67	1041,00
1146,47	1159,00
1152,26	1002,00
1158,05	818,00
1163,83	980,00
1169,60	968,00
1175,37	876,00
1181,13	993,00
1186,89	1084,00
1192,64	957,00
1198,38	1007,00
1204,12	906,00
1209,85	905,00
1215,58	995,00
1221,30	848,00
1227,02	1030,00
1232,72	1067,00
1238,43	843,00
1244,12	995,00
1249,81	1031,00
1255,50	1072,00
1261,17	1003,00
1266,85	1048,00
1272,51	1052,00
1278,17	1106,00
1283,83	1115,00
1289,47	1382,00
1295,12	1715,00
1300,75	1476,00
1306,38	1322,00
1312,01	1259,00
1317,63	973,00
1323,24	1054,00
1328,85	1107,00
1334,45	998,00
1340,04	1051,00
1345,63	1096,00
1351,22	1026,00
1356,80	931,00
1362,37	946,00
1367,93	989,00
1373,49	1098,00
1379,05	1075,00
1384,60	1071,00
1390,14	1118,00
1395,68	1101,00
1401,21	934,00
1406,74	1029,00
1412,26	1172,00
1417,77	1138,00
1423,28	1150,00
1428,78	1233,00
1434,28	1479,00
1439,77	1585,00
1445,26	1639,00
1450,74	1565,00
1456,22	1407,00
1461,68	1397,00
1467,15	1294,00
1472,61	1144,00
1478,06	1168,00
1483,51	1149,00
1488,95	1000,00
1494,38	967,00
1499,81	877,00
1505,24	856,00
1510,65	900,00
1516,07	897,00
1521,48	955,00
1526,88	841,00
1532,27	900,00
1537,67	974,00
1543,05	829,00
1548,43	851,00
1553,81	915,00
1559,18	838,00
1564,54	877,00
1569,90	773,00
1575,25	761,00
1580,60	899,00
1585,94	701,00
1591,28	830,00
1596,61	728,00
1601,93	789,00
1607,25	715,00
1612,57	863,00
1617,88	872,00
1623,18	848,00
1628,48	848,00
1633,77	883,00
1639,06	623,00
1644,34	747,00
1649,62	795,00
1654,89	909,00
1660,16	707,00
1665,42	709,00
1670,67	812,00
1675,92	783,00
1681,17	680,00
1686,41	782,00
1691,64	549,00
1696,87	728,00
1702,10	693,00
1707,32	600,00
1712,53	742,00
1717,74	642,00
1722,94	585,00
1728,14	723,00
1733,33	682,00
1738,52	671,00
1743,70	778,00
1748,88	668,00
1754,05	661,00
1759,22	698,00
1764,38	677,00
1769,53	635,00
1774,69	650,00
1779,83	715,00
1784,97	582,00
1790,11	662,00
1795,24	732,00
1800,36	584,00
1805,48	654,00
1810,60	597,00
1815,71	584,00
1820,82	602,00
1825,92	559,00
1831,01	584,00
1836,10	534,00
1841,19	676,00
1846,26	627,00
1851,34	601,00
1856,41	609,00
1861,47	582,00
1866,53	572,00
1871,59	456,00
1876,64	467,00
1881,68	441,00
1886,72	574,00
1891,76	610,00
1896,79	551,00
1901,81	509,00
1906,83	544,00
1911,85	522,00
1916,86	673,00
1921,86	575,00
1926,86	470,00
1931,86	557,00
1936,85	450,00
1941,83	576,00
1946,81	487,00
1951,79	507,00
1956,76	485,00
1961,72	354,00
1966,68	519,00
1971,64	405,00
1976,59	545,00
1981,54	422,00
1986,48	422,00
1991,42	491,00
1996,35	462,00
2001,27	384,00
2006,20	379,00
2011,11	474,00
2016,03	480,00
2020,93	495,00
2025,84	537,00
2030,73	327,00
2035,63	433,00
2040,52	457,00
2045,40	518,00
2050,28	410,00
2055,15	293,00
2060,02	440,00
2064,89	465,00
2069,75	424,00
2074,60	419,00
2079,46	340,00
2084,30	438,00
2089,14	374,00
2093,98	453,00
2098,81	439,00
2103,64	493,00
2108,46	355,00
2113,28	405,00
2118,09	371,00
2122,90	392,00
2127,70	372,00
2132,50	340,00
2137,30	332,00
2142,09	412,00
2146,87	315,00
2151,66	357,00
2156,43	428,00
2161,20	272,00
2165,97	334,00
2170,73	332,00
2175,49	399,00
2180,24	320,00
2184,99	487,00
2189,74	399,00
2194,48	401,00
2199,21	479,00
2203,94	341,00
2208,67	312,00
2213,39	347,00
2218,11	284,00
2222,82	476,00
2227,53	292,00
2232,23	317,00
2236,93	370,00
2241,63	295,00
2246,32	312,00
2251,00	445,00
2255,68	318,00
2260,36	256,00
2265,03	355,00
2269,70	210,00
2274,36	284,00
2279,02	294,00
2283,68	394,00
2288,33	290,00
2292,97	250,00
2297,61	328,00
2302,25	343,00
2306,88	298,00
2311,51	281,00
2316,14	283,00
2320,75	348,00
2325,37	288,00
2329,98	413,00
2334,59	316,00
2339,19	321,00
2343,79	239,00
2348,38	251,00
2352,97	262,00
2357,55	227,00
2362,13	396,00
2366,71	366,00
2371,28	323,00
2375,85	268,00
2380,41	171,00
2384,97	284,00
2389,52	110,00
2394,07	212,00
2398,62	178,00
2403,16	202,00
2407,70	349,00
2412,23	315,00
2416,76	319,00
2421,29	343,00
2425,81	257,00
2430,32	360,00
2434,84	191,00
2439,34	313,00
2443,85	187,00
2448,35	176,00
2452,84	137,00
2457,33	164,00
2461,82	333,00
2466,30	181,00
2470,78	271,00
2475,25	244,00
2479,72	245,00
2484,19	222,00
2488,65	337,00
2493,11	211,00
2497,56	216,00
2502,01	310,00
2506,46	277,00
2510,90	174,00
2515,34	317,00
2519,77	216,00
2524,20	311,00
2528,62	137,00
2533,04	323,00
2537,46	220,00
2541,87	164,00
2546,28	191,00
2550,68	298,00
2555,08	263,00
2559,48	267,00
2563,87	170,00
2568,26	161,00
2572,64	269,00
2577,02	303,00
2581,40	208,00
2585,77	251,00
2590,14	182,00
2594,50	127,00
2598,86	282,00
2603,22	234,00
2607,57	216,00
2611,92	210,00
2616,26	167,00
2620,60	285,00
2624,94	223,00
2629,27	272,00
2633,60	37,00
2637,92	295,00
2642,24	190,00
2646,56	150,00
2650,87	107,00
2655,18	190,00
2659,48	239,00
2663,78	216,00
2668,08	354,00
2672,37	343,00
2676,66	234,00
2680,95	263,00
2685,23	226,00
2689,50	157,00
2693,78	357,00
2698,05	190,00
2702,31	210,00
2706,57	257,00
2710,83	227,00
2715,08	284,00
2719,33	397,00
2723,58	361,00
2727,82	409,00
2732,06	238,00
2736,29	199,00
2740,53	252,00
2744,75	337,00
2748,97	254,00
2753,19	270,00
2757,41	328,00
2761,62	329,00
2765,83	170,00
2770,03	228,00
2774,23	223,00
2778,43	209,00
2782,62	294,00
2786,81	224,00
2791,00	147,00
2795,18	365,00
2799,35	219,00
2803,53	457,00
2807,70	438,00
2811,86	315,00
2816,03	467,00
2820,19	409,00
2824,34	354,00
2828,49	594,00
2832,64	570,00
2836,78	587,00
2840,92	886,00
2845,06	933,00
2849,19	990,00
2853,32	914,00
2857,45	967,00
2861,57	1048,00
2865,69	1036,00
2869,80	1033,00
2873,91	914,00
2878,02	1026,00
2882,12	1106,00
2886,22	1052,00
2890,32	997,00
2894,41	936,00
2898,50	905,00
2902,58	973,00
2906,67	938,00
2910,74	887,00
2914,82	651,00
2918,89	692,00
2922,96	757,00
2927,02	522,00
2931,08	585,00
2935,13	518,00
2939,19	512,00
2943,24	461,00
2947,28	459,00
2951,32	267,00
2955,36	372,00
2959,40	336,00
2963,43	308,00
2967,46	255,00
2971,48	244,00
2975,50	163,00
2979,52	298,00
2983,53	255,00
2987,54	269,00
2991,55	193,00
2995,55	133,00
2999,55	203,00
3003,54	161,00
3007,54	128,00
3011,53	126,00
3015,51	114,00
3019,49	66,00
3023,47	214,00
3027,45	295,00
3031,42	202,00
3035,39	129,00
3039,35	241,00
3043,31	104,00
3047,27	250,00
3051,22	271,00
3055,17	111,00
3059,12	39,00
3063,06	149,00
3067,00	54,00
3070,94	84,00
3074,87	92,00
3078,80	221,00
3082,73	68,00
3086,65	-10,00
3090,57	102,00
3094,49	166,00
3098,40	107,00
3102,31	230,00
3106,22	44,00
3110,12	78,00
3114,02	145,00
3117,92	54,00
3121,81	99,00
3125,70	128,00
3129,58	77,00
3133,47	106,00
3137,34	179,00
3141,22	57,00
3145,09	144,00
3148,96	168,00
3152,83	76,00
3156,69	127,00
3160,55	158,00
3164,40	-41,00
3168,26	-8,00
3172,10	154,00
3175,95	176,00
3179,79	126,00
3183,63	144,00
3187,47	223,00
3191,30	196,00
3195,13	135,00
3198,95	120,00
3202,78	14,00
3206,60	189,00
3210,41	71,00
3214,23	176,00
3218,03	104,00
3221,84	61,00
3225,64	87,00
3229,44	178,00
3233,24	169,00
3237,03	108,00
3240,82	66,00
3244,61	38,00
3248,39	79,00
3252,17	166,00
3255,95	170,00
3259,72	89,00
3263,49	132,00
3267,26	79,00
3271,03	87,00
3274,79	53,00
3278,54	170,00
3282,30	187,00
3286,05	139,00
3289,80	25,00
3293,54	63,00
3297,29	96,00
3301,02	89,00
3304,76	118,00
3308,49	68,00
3312,22	16,00
3315,95	99,00
3319,67	82,00
3323,39	172,00
3327,10	125,00
3330,82	118,00
3334,53	184,00
3338,24	42,00
3341,94	87,00
3345,64	143,00
3349,34	15,00
3353,03	91,00
3356,72	-26,00
3360,41	-30,00
3364,10	156,00
3367,78	167,00
3371,46	140,00
3375,13	77,00
3378,81	21,00
3382,48	56,00
3386,14	169,00
3389,81	-27,00
3393,47	83,00
3397,12	59,00
3400,78	34,00
3404,43	50,00
3408,08	38,00
3411,72	101,00
3415,36	103,00
3419,00	13,00
3422,64	-94,00
3426,27	162,00
3429,90	193,00
3433,53	90,00
3437,15	129,00
3440,77	82,00
3444,39	35,00
3448,00	77,00
3451,62	152,00
3455,22	58,00
3458,83	-31,00
3462,43	143,00
3466,03	-2,00
3469,63	-47,00
3473,22	81,00
3476,81	110,00
3480,40	43,00
3483,99	98,00
3487,57	84,00
3491,15	1,00
3494,72	94,00
3498,29	99,00
3501,86	58,00
3505,43	56,00
3508,99	-27,00
3512,56	121,00
3516,11	84,00
3519,67	73,00
3523,22	143,00
3526,77	175,00
3530,32	5,00
3533,86	-54,00
3537,40	99,00
3540,94	118,00
3544,47	26,00
3548,00	154,00
3551,53	31,00
3555,06	86,00
3558,58	-7,00
3562,10	65,00
3565,62	87,00
3569,13	93,00
3572,64	105,00
3576,15	27,00
3579,66	81,00
3583,16	106,00
3586,66	-25,00
3590,16	80,00
3593,65	122,00
3597,14	58,00
3600,63	108,00
3604,11	53,00
3607,60	102,00
3611,08	73,00
3614,55	-30,00
3618,03	84,00
3621,50	-12,00
3624,97	125,00
3628,43	43,00
3631,90	24,00
3635,36	65,00
3638,81	51,00
3642,27	-14,00
3645,72	66,00
3649,17	135,00
3652,61	11,00
3656,06	-16,00
3659,50	108,00
3662,93	48,00
3666,37	17,00
3669,80	73,00
3673,23	54,00
3676,65	123,00
3680,08	58,00
3683,50	89,00
3686,92	-4,00
3690,33	110,00
3693,74	127,00
3697,15	74,00
3700,56	68,00
3703,96	8,00
3707,36	-61,00
3710,76	79,00
3714,16	73,00
3717,55	-36,00
3720,94	219,00
3724,33	38,00
3727,71	74,00
3731,10	16,00
3734,48	32,00
3737,85	-62,00
3741,23	28,00
3744,60	9,00
3747,97	-46,00
3751,33	152,00
3754,69	122,00
3758,05	162,00
3761,41	-44,00
3764,77	43,00
3768,12	15,00
3771,47	21,00
3774,82	-8,00
3778,16	-2,00
3781,50	-1,00
3784,84	7,00
3788,18	6,00
>>>>>End Processed Spectral Data<<<<<
