SpectraSuite Data File
++++++++++++++++++++++++++++++++++++
Date: Mon Mar 09 15:40:05 ICT 2026
User: Administrator
Dark Spectrum Present: Yes
Reference Spectrum Present: No
Number of Sampled Component Spectra: 1
Spectrometers: MAYP113682
Integration Time (usec): 3000000 (MAYP113682)
Spectra Averaged: 1 (MAYP113682)
Boxcar Smoothing: 0 (MAYP113682)
Correct for Electrical Dark: No (MAYP113682)
Strobe/Lamp Enabled: No (MAYP113682)
Correct for Detector Non-linearity: No (MAYP113682)
Correct for Stray Light: No (MAYP113682)
Number of Pixels in Processed Spectrum: 2068
>>>>>Begin Processed Spectral Data<<<<<
-37534,58	4,00
-37414,56	2,00
-37295,11	4,00
-37176,24	4,00
-37057,95	186,00
-36940,22	165,00
-36823,05	181,00
-36706,45	186,00
-36590,40	218,00
-36474,90	197,00
-36359,95	276,00
-36245,55	279,00
-36131,68	174,00
-36018,35	284,00
-35905,55	256,00
-35793,29	297,00
-35681,54	243,00
-35570,32	203,00
-35459,62	299,00
-35349,43	154,00
-35239,75	264,00
-35130,58	243,00
-35021,91	149,00
-34913,74	228,00
-34806,07	268,00
-34698,89	193,00
-34592,20	243,00
-34486,00	246,00
-34380,28	190,00
-34275,04	258,00
-34170,27	276,00
-34065,98	166,00
-33962,16	359,00
-33858,81	191,00
-33755,92	232,00
-33653,49	293,00
-33551,52	258,00
-33450,01	303,00
-33348,94	113,00
-33248,33	213,00
-33148,16	283,00
-33048,43	265,00
-32949,14	184,00
-32850,29	214,00
-32751,87	334,00
-32653,89	275,00
-32556,33	109,00
-32459,20	159,00
-32362,49	288,00
-32266,19	273,00
-32170,32	269,00
-32074,86	264,00
-31979,82	355,00
-31885,18	121,00
-31790,95	223,00
-31697,12	142,00
-31603,69	308,00
-31510,67	298,00
-31418,04	298,00
-31325,80	162,00
-31233,95	191,00
-31142,49	284,00
-31051,42	186,00
-30960,73	289,00
-30870,43	275,00
-30780,50	267,00
-30690,95	275,00
-30601,77	360,00
-30512,97	176,00
-30424,53	310,00
-30336,46	213,00
-30248,76	286,00
-30161,42	421,00
-30074,44	253,00
-29987,81	165,00
-29901,55	340,00
-29815,63	319,00
-29730,07	243,00
-29644,86	146,00
-29560,00	245,00
-29475,48	306,00
-29391,30	160,00
-29307,47	249,00
-29223,97	253,00
-29140,81	314,00
-29057,99	245,00
-28975,50	234,00
-28893,34	310,00
-28811,51	218,00
-28730,00	328,00
-28648,82	269,00
-28567,97	301,00
-28487,43	204,00
-28407,21	236,00
-28327,32	216,00
-28247,73	211,00
-28168,46	318,00
-28089,50	197,00
-28010,85	186,00
-27932,51	254,00
-27854,48	299,00
-27776,75	282,00
-27699,32	376,00
-27622,19	277,00
-27545,37	403,00
-27468,84	264,00
-27392,60	325,00
-27316,66	251,00
-27241,01	363,00
-27165,66	270,00
-27090,59	232,00
-27015,81	242,00
-26941,31	376,00
-26867,10	186,00
-26793,17	362,00
-26719,52	320,00
-26646,15	235,00
-26573,06	225,00
-26500,24	285,00
-26427,70	253,00
-26355,43	215,00
-26283,43	332,00
-26211,71	323,00
-26140,25	291,00
-26069,06	208,00
-25998,13	230,00
-25927,46	322,00
-25857,06	272,00
-25786,92	289,00
-25717,04	361,00
-25647,42	365,00
-25578,05	302,00
-25508,94	273,00
-25440,09	234,00
-25371,48	231,00
-25303,13	375,00
-25235,02	140,00
-25167,17	151,00
-25099,56	347,00
-25032,19	351,00
-24965,07	367,00
-24898,20	311,00
-24831,56	192,00
-24765,17	170,00
-24699,01	207,00
-24633,10	291,00
-24567,41	156,00
-24501,97	265,00
-24436,75	357,00
-24371,77	197,00
-24307,03	313,00
-24242,51	293,00
-24178,22	218,00
-24114,16	247,00
-24050,32	367,00
-23986,71	200,00
-23923,32	213,00
-23860,16	222,00
-23797,22	310,00
-23734,50	287,00
-23672,00	243,00
-23609,71	265,00
-23547,65	183,00
-23485,80	318,00
-23424,16	193,00
-23362,74	256,00
-23301,53	229,00
-23240,54	284,00
-23179,75	193,00
-23119,17	351,00
-23058,80	255,00
-22998,64	248,00
-22938,68	295,00
-22878,93	212,00
-22819,39	64,00
-22760,04	165,00
-22700,90	310,00
-22641,96	269,00
-22583,22	200,00
-22524,68	266,00
-22466,33	244,00
-22408,19	268,00
-22350,23	169,00
-22292,48	170,00
-22234,92	272,00
-22177,55	294,00
-22120,37	299,00
-22063,38	288,00
-22006,58	250,00
-21949,98	316,00
-21893,56	202,00
-21837,33	317,00
-21781,28	320,00
-21725,42	243,00
-21669,74	210,00
-21614,25	355,00
-21558,94	160,00
-21503,81	321,00
-21448,86	266,00
-21394,10	282,00
-21339,51	306,00
-21285,10	206,00
-21230,86	201,00
-21176,81	286,00
-21122,93	339,00
-21069,22	336,00
-21015,69	157,00
-20962,33	225,00
-20909,14	203,00
-20856,13	335,00
-20803,28	215,00
-20750,61	219,00
-20698,10	252,00
-20645,76	169,00
-20593,59	322,00
-20541,59	267,00
-20489,75	422,00
-20438,07	177,00
-20386,56	300,00
-20335,22	272,00
-20284,03	257,00
-20233,01	291,00
-20182,15	296,00
-20131,45	243,00
-20080,91	249,00
-20030,52	253,00
-19980,30	226,00
-19930,23	189,00
-19880,32	289,00
-19830,56	191,00
-19780,96	209,00
-19731,52	303,00
-19682,23	200,00
-19633,09	310,00
-19584,10	287,00
-19535,26	308,00
-19486,58	330,00
-19438,04	325,00
-19389,66	331,00
-19341,42	99,00
-19293,33	172,00
-19245,39	167,00
-19197,60	323,00
-19149,95	364,00
-19102,45	179,00
-19055,09	162,00
-19007,87	376,00
-18960,80	259,00
-18913,87	357,00
-18867,09	158,00
-18820,44	298,00
-18773,94	291,00
-18727,57	264,00
-18681,35	206,00
-18635,26	138,00
-18589,31	245,00
-18543,50	320,00
-18497,83	332,00
-18452,29	244,00
-18406,89	234,00
-18361,63	216,00
-18316,50	331,00
-18271,50	296,00
-18226,63	378,00
-18181,90	289,00
-18137,30	294,00
-18092,84	225,00
-18048,50	142,00
-18004,29	295,00
-17960,22	239,00
-17916,27	209,00
-17872,45	265,00
-17828,76	267,00
-17785,20	270,00
-17741,77	172,00
-17698,46	252,00
-17655,28	319,00
-17612,22	271,00
-17569,29	247,00
-17526,48	305,00
-17483,79	280,00
-17441,23	200,00
-17398,79	255,00
-17356,48	341,00
-17314,28	243,00
-17272,21	225,00
-17230,26	203,00
-17188,42	144,00
-17146,71	230,00
-17105,12	225,00
-17063,64	287,00
-17022,28	157,00
-16981,04	315,00
-16939,92	254,00
-16898,91	361,00
-16858,02	284,00
-16817,25	288,00
-16776,59	259,00
-16736,04	277,00
-16695,61	326,00
-16655,29	210,00
-16615,09	213,00
-16574,99	300,00
-16535,01	165,00
-16495,15	287,00
-16455,39	267,00
-16415,74	311,00
-16376,21	222,00
-16336,78	266,00
-16297,46	223,00
-16258,26	336,00
-16219,16	279,00
-16180,17	252,00
-16141,28	221,00
-16102,51	248,00
-16063,84	324,00
-16025,27	269,00
-15986,82	299,00
-15948,46	271,00
-15910,22	192,00
-15872,07	287,00
-15834,04	285,00
-15796,10	332,00
-15758,27	364,00
-15720,54	269,00
-15682,91	315,00
-15645,39	259,00
-15607,97	210,00
-15570,64	236,00
-15533,42	274,00
-15496,30	124,00
-15459,28	330,00
-15422,36	201,00
-15385,54	286,00
-15348,82	257,00
-15312,19	82,00
-15275,66	213,00
-15239,23	335,00
-15202,90	195,00
-15166,67	258,00
-15130,53	181,00
-15094,48	208,00
-15058,54	371,00
-15022,68	261,00
-14986,93	202,00
-14951,26	215,00
-14915,69	247,00
-14880,22	167,00
-14844,84	365,00
-14809,55	256,00
-14774,35	225,00
-14739,25	259,00
-14704,24	129,00
-14669,32	108,00
-14634,49	212,00
-14599,75	287,00
-14565,10	189,00
-14530,55	208,00
-14496,08	233,00
-14461,70	75,00
-14427,41	238,00
-14393,21	243,00
-14359,10	311,00
-14325,07	236,00
-14291,14	258,00
-14257,29	315,00
-14223,52	288,00
-14189,85	176,00
-14156,26	205,00
-14122,76	250,00
-14089,34	269,00
-14056,01	208,00
-14022,76	234,00
-13989,60	180,00
-13956,52	219,00
-13923,53	204,00
-13890,62	250,00
-13857,79	291,00
-13825,05	300,00
-13792,39	244,00
-13759,81	251,00
-13727,31	249,00
-13694,90	184,00
-13662,57	336,00
-13630,31	326,00
-13598,14	256,00
-13566,05	172,00
-13534,05	251,00
-13502,12	324,00
-13470,27	268,00
-13438,50	209,00
-13406,80	341,00
-13375,19	272,00
-13343,66	278,00
-13312,20	294,00
-13280,83	342,00
-13249,53	195,00
-13218,30	259,00
-13187,16	283,00
-13156,09	287,00
-13125,10	300,00
-13094,18	287,00
-13063,34	229,00
-13032,58	178,00
-13001,89	262,00
-12971,28	245,00
-12940,74	280,00
-12910,27	255,00
-12879,88	211,00
-12849,57	280,00
-12819,33	277,00
-12789,16	236,00
-12759,06	258,00
-12729,04	267,00
-12699,09	485,00
-12669,21	283,00
-12639,41	203,00
-12609,68	178,00
-12580,02	200,00
-12550,43	271,00
-12520,91	285,00
-12491,46	357,00
-12462,08	267,00
-12432,77	286,00
-12403,54	254,00
-12374,37	161,00
-12345,27	269,00
-12316,24	245,00
-12287,29	261,00
-12258,40	221,00
-12229,57	284,00
-12200,82	281,00
-12172,14	364,00
-12143,52	144,00
-12114,97	200,00
-12086,49	299,00
-12058,07	160,00
-12029,73	263,00
-12001,44	423,00
-11973,23	184,00
-11945,08	276,00
-11917,00	163,00
-11888,98	171,00
-11861,03	257,00
-11833,15	199,00
-11805,32	119,00
-11777,57	359,00
-11749,88	145,00
-11722,25	394,00
-11694,69	204,00
-11667,19	236,00
-11639,75	349,00
-11612,38	173,00
-11585,07	177,00
-11557,83	376,00
-11530,65	266,00
-11503,53	291,00
-11476,47	242,00
-11449,48	248,00
-11422,54	224,00
-11395,67	258,00
-11368,86	254,00
-11342,11	287,00
-11315,43	200,00
-11288,80	238,00
-11262,23	235,00
-11235,73	241,00
-11209,28	186,00
-11182,90	366,00
-11156,57	372,00
-11130,31	265,00
-11104,10	214,00
-11077,96	345,00
-11051,87	295,00
-11025,84	320,00
-10999,87	232,00
-10973,96	211,00
-10948,11	186,00
-10922,31	285,00
-10896,58	306,00
-10870,90	198,00
-10845,28	222,00
-10819,71	232,00
-10794,20	322,00
-10768,75	151,00
-10743,36	263,00
-10718,02	197,00
-10692,74	249,00
-10667,52	174,00
-10642,35	229,00
-10617,24	203,00
-10592,18	328,00
-10567,18	160,00
-10542,23	314,00
-10517,34	137,00
-10492,51	282,00
-10467,72	186,00
-10443,00	264,00
-10418,32	175,00
-10393,70	164,00
-10369,14	242,00
-10344,63	334,00
-10320,17	249,00
-10295,77	287,00
-10271,42	199,00
-10247,12	295,00
-10222,88	261,00
-10198,68	182,00
-10174,54	230,00
-10150,46	151,00
-10126,42	120,00
-10102,44	209,00
-10078,51	103,00
-10054,63	228,00
-10030,80	45,00
-10007,03	80,00
-9983,30	133,00
-9959,63	110,00
-9936,01	208,00
-9912,44	48,00
-9888,92	94,00
-9865,44	221,00
-9842,02	148,00
-9818,65	41,00
-9795,33	60,00
-9772,06	73,00
-9748,84	47,00
-9725,67	-38,00
-9702,55	-51,00
-9679,47	-48,00
-9656,45	63,00
-9633,47	-122,00
-9610,55	-102,00
-9587,67	-21,00
-9564,84	63,00
-9542,06	-27,00
-9519,32	-351,00
-9496,64	-235,00
-9474,00	-328,00
-9451,41	-497,00
-9428,87	-421,00
-9406,37	-436,00
-9383,92	-252,00
-9361,52	-362,00
-9339,17	-484,00
-9316,86	-457,00
-9294,60	-603,00
-9272,38	-606,00
-9250,21	-665,00
-9228,09	-725,00
-9206,01	-645,00
-9183,98	-603,00
-9162,00	-659,00
-9140,06	-543,00
-9118,16	-586,00
-9096,31	-653,00
-9074,51	-604,00
-9052,75	-646,00
-9031,04	-590,00
-9009,37	-495,00
-8987,74	-519,00
-8966,16	-320,00
-8944,63	-255,00
-8923,14	-425,00
-8901,69	-323,00
-8880,29	-293,00
-8858,93	-387,00
-8837,61	-422,00
-8816,34	-425,00
-8795,11	-643,00
-8773,92	-385,00
-8752,78	-403,00
-8731,68	-199,00
-8710,62	-321,00
-8689,61	-386,00
-8668,63	-321,00
-8647,70	-430,00
-8626,82	-406,00
-8605,97	-280,00
-8585,17	-381,00
-8564,41	-269,00
-8543,69	-169,00
-8523,01	-234,00
-8502,37	-258,00
-8481,78	-220,00
-8461,23	-324,00
-8440,71	-371,00
-8420,24	-380,00
-8399,81	-356,00
-8379,42	-316,00
-8359,08	-187,00
-8338,77	-312,00
-8318,50	-215,00
-8298,27	-199,00
-8278,09	-335,00
-8257,94	-342,00
-8237,83	-261,00
-8217,76	-297,00
-8197,74	-419,00
-8177,75	-306,00
-8157,80	-269,00
-8137,89	-213,00
-8118,02	-215,00
-8098,19	-181,00
-8078,40	-145,00
-8058,65	-201,00
-8038,93	-66,00
-8019,26	-229,00
-7999,62	-131,00
-7980,02	-244,00
-7960,46	-135,00
-7940,94	-186,00
-7921,46	-24,00
-7902,01	-221,00
-7882,60	-41,00
-7863,23	-74,00
-7843,90	-108,00
-7824,61	-206,00
-7805,35	-101,00
-7786,13	-134,00
-7766,95	-80,00
-7747,80	-105,00
-7728,69	8,00
-7709,62	-159,00
-7690,59	-108,00
-7671,59	-98,00
-7652,63	-98,00
-7633,70	-182,00
-7614,81	-133,00
-7595,96	-200,00
-7577,15	-51,00
-7558,37	-107,00
-7539,62	42,00
-7520,91	-174,00
-7502,24	-172,00
-7483,60	-107,00
-7465,00	-226,00
-7446,44	-73,00
-7427,91	-77,00
-7409,41	-11,00
-7390,95	-14,00
-7372,53	-42,00
-7354,14	29,00
-7335,78	-72,00
-7317,46	-23,00
-7299,18	-68,00
-7280,92	-178,00
-7262,71	-101,00
-7244,52	-126,00
-7226,38	-70,00
-7208,26	-156,00
-7190,18	-213,00
-7172,14	-4,00
-7154,12	-79,00
-7136,15	-312,00
-7118,20	-40,00
-7100,29	-165,00
-7082,41	-92,00
-7064,57	-146,00
-7046,76	-69,00
-7028,98	-152,00
-7011,24	41,00
-6993,53	-86,00
-6975,85	38,00
-6958,20	41,00
-6940,59	43,00
-6923,01	9,00
-6905,46	40,00
-6887,94	-82,00
-6870,46	-157,00
-6853,01	-73,00
-6835,59	-45,00
-6818,21	-56,00
-6800,85	43,00
-6783,53	51,00
-6766,24	146,00
-6748,98	15,00
-6731,76	38,00
-6714,56	65,00
-6697,40	-55,00
-6680,26	66,00
-6663,16	34,00
-6646,09	93,00
-6629,05	-77,00
-6612,05	-71,00
-6595,07	-154,00
-6578,13	-99,00
-6561,21	-3,00
-6544,33	50,00
-6527,47	132,00
-6510,65	36,00
-6493,86	90,00
-6477,10	27,00
-6460,36	5,00
-6443,66	95,00
-6426,99	88,00
-6410,35	161,00
-6393,74	84,00
-6377,16	129,00
-6360,61	84,00
-6344,09	18,00
-6327,59	54,00
-6311,13	-99,00
-6294,70	-27,00
-6278,29	120,00
-6261,92	-60,00
-6245,58	-95,00
-6229,26	-23,00
-6212,97	-65,00
-6196,72	-48,00
-6180,49	139,00
-6164,29	71,00
-6148,12	175,00
-6131,98	104,00
-6115,86	135,00
-6099,78	106,00
-6083,72	-1,00
-6067,69	138,00
-6051,69	46,00
-6035,72	169,00
-6019,78	66,00
-6003,87	-46,00
-5987,98	119,00
-5972,12	-109,00
-5956,29	-22,00
-5940,49	62,00
-5924,71	240,00
-5908,96	156,00
-5893,24	106,00
-5877,55	174,00
-5861,89	88,00
-5846,25	83,00
-5830,64	48,00
-5815,05	189,00
-5799,50	45,00
-5783,97	127,00
-5768,47	174,00
-5752,99	148,00
-5737,55	61,00
-5722,12	33,00
-5706,73	77,00
-5691,36	-46,00
-5676,02	65,00
-5660,71	115,00
-5645,42	129,00
-5630,16	32,00
-5614,92	152,00
-5599,71	20,00
-5584,53	67,00
-5569,37	81,00
-5554,24	-668,00
-5539,14	85,00
-5524,06	20,00
-5509,01	121,00
-5493,98	42,00
-5478,98	144,00
-5464,00	228,00
-5449,05	179,00
-5434,13	267,00
-5419,23	175,00
-5404,36	130,00
-5389,51	30,00
-5374,69	178,00
-5359,89	7,00
-5345,12	-51,00
-5330,37	224,00
-5315,65	125,00
-5300,95	106,00
-5286,28	84,00
-5271,63	81,00
-5257,01	208,00
-5242,41	129,00
-5227,84	104,00
-5213,29	148,00
-5198,76	193,00
-5184,26	155,00
-5169,79	139,00
-5155,33	49,00
-5140,91	109,00
-5126,51	114,00
-5112,13	103,00
-5097,77	122,00
-5083,44	70,00
-5069,13	238,00
-5054,85	253,00
-5040,59	192,00
-5026,36	87,00
-5012,15	88,00
-4997,96	83,00
-4983,80	172,00
-4969,66	132,00
-4955,54	183,00
-4941,44	240,00
-4927,37	106,00
-4913,33	-34,00
-4899,30	61,00
-4885,30	-1,00
-4871,33	60,00
-4857,37	178,00
-4843,44	194,00
-4829,53	285,00
-4815,65	134,00
-4801,79	54,00
-4787,95	189,00
-4774,13	190,00
-4760,34	292,00
-4746,56	275,00
-4732,82	152,00
-4719,09	168,00
-4705,38	117,00
-4691,70	132,00
-4678,04	76,00
-4664,41	65,00
-4650,79	234,00
-4637,20	176,00
-4623,63	167,00
-4610,08	184,00
-4596,56	89,00
-4583,05	167,00
-4569,57	187,00
-4556,11	263,00
-4542,67	90,00
-4529,25	288,00
-4515,86	196,00
-4502,49	19,00
-4489,13	97,00
-4475,80	92,00
-4462,49	70,00
-4449,21	146,00
-4435,94	154,00
-4422,70	217,00
-4409,47	63,00
-4396,27	208,00
-4383,09	46,00
-4369,93	239,00
-4356,79	341,00
-4343,67	93,00
-4330,58	68,00
-4317,50	280,00
-4304,45	180,00
-4291,41	180,00
-4278,40	227,00
-4265,41	198,00
-4252,44	135,00
-4239,49	143,00
-4226,55	115,00
-4213,65	120,00
-4200,76	243,00
-4187,89	179,00
-4175,04	196,00
-4162,21	291,00
-4149,40	145,00
-4136,61	168,00
-4123,85	336,00
-4111,10	246,00
-4098,37	165,00
-4085,66	360,00
-4072,98	193,00
-4060,31	348,00
-4047,66	309,00
-4035,04	260,00
-4022,43	259,00
-4009,84	372,00
-3997,27	234,00
-3984,72	218,00
-3972,19	248,00
-3959,69	299,00
-3947,20	231,00
-3934,73	221,00
-3922,27	255,00
-3909,84	262,00
-3897,43	311,00
-3885,04	175,00
-3872,67	284,00
-3860,31	283,00
-3847,98	258,00
-3835,66	211,00
-3823,36	172,00
-3811,09	202,00
-3798,83	262,00
-3786,59	347,00
-3774,37	222,00
-3762,17	262,00
-3749,98	237,00
-3737,82	182,00
-3725,67	367,00
-3713,55	202,00
-3701,44	250,00
-3689,35	263,00
-3677,28	211,00
-3665,22	327,00
-3653,19	243,00
-3641,17	289,00
-3629,18	286,00
-3617,20	323,00
-3605,24	279,00
-3593,30	308,00
-3581,37	322,00
-3569,47	284,00
-3557,58	135,00
-3545,71	402,00
-3533,86	302,00
-3522,02	264,00
-3510,21	301,00
-3498,41	250,00
-3486,63	409,00
-3474,87	291,00
-3463,12	304,00
-3451,40	225,00
-3439,69	279,00
-3428,00	238,00
-3416,33	213,00
-3404,67	289,00
-3393,03	126,00
-3381,41	279,00
-3369,81	150,00
-3358,22	241,00
-3346,66	195,00
-3335,10	216,00
-3323,57	270,00
-3312,06	234,00
-3300,56	226,00
-3289,08	255,00
-3277,61	242,00
-3266,16	243,00
-3254,73	311,00
-3243,32	208,00
-3231,92	319,00
-3220,55	230,00
-3209,18	350,00
-3197,84	268,00
-3186,51	165,00
-3175,20	120,00
-3163,90	256,00
-3152,63	320,00
-3141,36	178,00
-3130,12	212,00
-3118,89	273,00
-3107,68	252,00
-3096,49	193,00
-3085,31	213,00
-3074,15	352,00
-3063,00	300,00
-3051,87	324,00
-3040,76	332,00
-3029,67	322,00
-3018,59	271,00
-3007,52	246,00
-2996,48	373,00
-2985,44	231,00
-2974,43	239,00
-2963,43	229,00
-2952,45	261,00
-2941,48	311,00
-2930,53	183,00
-2919,60	274,00
-2908,68	270,00
-2897,78	205,00
-2886,89	224,00
-2876,02	266,00
-2865,17	236,00
-2854,33	253,00
-2843,50	319,00
-2832,70	434,00
-2821,90	297,00
-2811,13	243,00
-2800,37	308,00
-2789,62	262,00
-2778,89	254,00
-2768,18	315,00
-2757,48	268,00
-2746,80	100,00
-2736,13	321,00
-2725,48	243,00
-2714,84	336,00
-2704,22	256,00
-2693,61	199,00
-2683,02	265,00
-2672,45	288,00
-2661,89	304,00
-2651,34	298,00
-2640,81	305,00
-2630,30	342,00
-2619,80	332,00
-2609,31	262,00
-2598,84	258,00
-2588,39	251,00
-2577,95	221,00
-2567,52	214,00
-2557,11	329,00
-2546,71	322,00
-2536,33	149,00
-2525,97	218,00
-2515,62	325,00
-2505,28	206,00
-2494,96	228,00
-2484,65	230,00
-2474,36	366,00
-2464,08	217,00
-2453,82	282,00
-2443,57	133,00
-2433,33	300,00
-2423,11	245,00
-2412,91	268,00
-2402,72	196,00
-2392,54	223,00
-2382,38	159,00
-2372,23	167,00
-2362,09	-4140,00
-2351,97	356,00
-2341,87	128,00
-2331,78	299,00
-2321,70	267,00
-2311,64	227,00
-2301,59	253,00
-2291,55	313,00
-2281,53	233,00
-2271,53	170,00
-2261,53	188,00
-2251,55	327,00
-2241,59	204,00
-2231,64	222,00
-2221,70	272,00
-2211,78	334,00
-2201,87	247,00
-2191,97	301,00
-2182,09	351,00
-2172,22	302,00
-2162,37	218,00
-2152,53	233,00
-2142,70	271,00
-2132,89	181,00
-2123,09	222,00
-2113,30	176,00
-2103,53	271,00
-2093,77	300,00
-2084,02	330,00
-2074,29	321,00
-2064,57	251,00
-2054,86	207,00
-2045,17	177,00
-2035,49	296,00
-2025,82	239,00
-2016,17	216,00
-2006,53	211,00
-1996,91	324,00
-1987,29	248,00
-1977,69	303,00
-1968,11	283,00
-1958,53	313,00
-1948,97	325,00
-1939,42	280,00
-1929,89	259,00
-1920,37	368,00
-1910,86	225,00
-1901,36	267,00
-1891,88	246,00
-1882,41	211,00
-1872,95	263,00
-1863,51	173,00
-1854,08	244,00
-1844,66	284,00
-1835,26	211,00
-1825,86	210,00
-1816,48	297,00
-1807,11	267,00
-1797,76	360,00
-1788,42	161,00
-1779,09	223,00
-1769,77	274,00
-1760,47	295,00
-1751,17	150,00
-1741,89	197,00
-1732,63	325,00
-1723,37	228,00
-1714,13	347,00
-1704,90	248,00
-1695,68	135,00
-1686,48	330,00
-1677,29	269,00
-1668,11	253,00
-1658,94	324,00
-1649,78	288,00
-1640,64	247,00
-1631,51	308,00
-1622,39	339,00
-1613,28	155,00
-1604,19	348,00
-1595,10	294,00
-1586,03	273,00
-1576,97	282,00
-1567,93	252,00
-1558,89	345,00
-1549,87	261,00
-1540,86	267,00
-1531,86	360,00
-1522,87	364,00
-1513,90	369,00
-1504,93	308,00
-1495,98	223,00
-1487,04	257,00
-1478,12	198,00
-1469,20	323,00
-1460,30	338,00
-1451,40	244,00
-1442,52	243,00
-1433,65	283,00
-1424,80	340,00
-1415,95	310,00
-1407,12	370,00
-1398,30	251,00
-1389,48	317,00
-1380,69	243,00
-1371,90	245,00
-1363,12	287,00
-1354,36	403,00
-1345,60	168,00
-1336,86	401,00
-1328,13	263,00
-1319,41	240,00
-1310,70	317,00
-1302,01	333,00
-1293,32	356,00
-1284,65	296,00
-1275,99	360,00
-1267,33	267,00
-1258,69	252,00
-1250,06	260,00
-1241,45	222,00
-1232,84	145,00
-1224,25	314,00
-1215,66	314,00
-1207,09	145,00
-1198,53	240,00
-1189,97	249,00
-1181,43	94,00
-1172,91	304,00
-1164,39	251,00
-1155,88	192,00
-1147,38	132,00
-1138,90	323,00
-1130,43	289,00
-1121,96	311,00
-1113,51	342,00
-1105,07	228,00
-1096,64	311,00
-1088,22	262,00
-1079,81	412,00
-1071,41	316,00
-1063,02	259,00
-1054,65	354,00
-1046,28	250,00
-1037,92	240,00
-1029,58	234,00
-1021,24	263,00
-1012,92	259,00
-1004,61	249,00
-996,30	333,00
-988,01	105,00
-979,73	239,00
-971,46	320,00
-963,20	192,00
-954,95	245,00
-946,71	346,00
-938,48	306,00
-930,26	299,00
-922,06	197,00
-913,86	223,00
-905,67	310,00
-897,49	261,00
-889,33	254,00
-881,17	239,00
-873,02	297,00
-864,89	155,00
-856,76	108,00
-848,65	260,00
-840,54	424,00
-832,45	349,00
-824,36	278,00
-816,29	436,00
-808,22	315,00
-800,17	296,00
-792,12	384,00
-784,09	297,00
-776,06	298,00
-768,05	291,00
-760,04	298,00
-752,05	290,00
-744,07	204,00
-736,09	254,00
-728,13	319,00
-720,17	298,00
-712,23	240,00
-704,29	209,00
-696,37	323,00
-688,45	205,00
-680,55	265,00
-672,65	235,00
-664,77	183,00
-656,89	267,00
-649,03	266,00
-641,17	326,00
-633,32	390,00
-625,49	109,00
-617,66	344,00
-609,84	224,00
-602,03	257,00
-594,23	165,00
-586,45	387,00
-578,67	233,00
-570,90	378,00
-563,14	165,00
-555,39	269,00
-547,65	324,00
-539,91	277,00
-532,19	231,00
-524,48	288,00
-516,78	240,00
-509,08	261,00
-501,40	212,00
-493,72	245,00
-486,06	164,00
-478,40	291,00
-470,76	285,00
-463,12	287,00
-455,49	236,00
-447,87	402,00
-440,26	278,00
-432,66	271,00
-425,07	378,00
-417,49	293,00
-409,92	186,00
-402,35	137,00
-394,80	305,00
-387,25	316,00
-379,72	359,00
-372,19	206,00
-364,67	327,00
-357,17	231,00
-349,67	200,00
-342,18	298,00
-334,69	325,00
-327,22	167,00
-319,76	257,00
-312,30	405,00
-304,86	329,00
-297,42	275,00
-290,00	265,00
-282,58	339,00
-275,17	310,00
-267,77	236,00
-260,37	314,00
-252,99	251,00
-245,62	272,00
-238,25	404,00
-230,90	411,00
-223,55	305,00
-216,21	320,00
-208,88	526,00
-201,56	423,00
-194,25	367,00
-186,94	434,00
-179,65	501,00
-172,36	285,00
-165,08	525,00
-157,81	581,00
-150,55	665,00
-143,30	475,00
-136,06	642,00
-128,82	615,00
-121,60	672,00
-114,38	797,00
-107,17	809,00
-99,97	994,00
-92,78	922,00
-85,60	1040,00
-78,42	1345,00
-71,25	1359,00
-64,10	1612,00
-56,95	1820,00
-49,81	2136,00
-42,67	2612,00
-35,55	2998,00
-28,43	4118,00
-21,33	6714,00
-14,23	22494,00
-7,14	55635,00
-0,05	55419,00
7,02	55129,00
14,09	55339,00
21,14	19479,00
28,19	8139,00
35,23	5256,00
42,27	3992,00
49,29	3362,00
56,31	2851,00
63,32	2491,00
70,32	1999,00
77,31	1770,00
84,29	1547,00
91,27	1427,00
98,23	1311,00
105,19	1285,00
112,14	1310,00
119,09	1713,00
126,02	2141,00
132,95	2158,00
139,87	2088,00
146,78	2019,00
153,68	2113,00
160,58	2067,00
167,46	2008,00
174,34	1942,00
181,21	1939,00
188,08	1934,00
194,93	2001,00
201,78	1928,00
208,62	1974,00
215,45	1837,00
222,27	1886,00
229,09	1845,00
235,90	1893,00
242,70	1987,00
249,49	1794,00
256,27	1827,00
263,05	1761,00
269,82	1814,00
276,58	1759,00
283,33	1805,00
290,08	1804,00
296,82	1667,00
303,55	1558,00
310,27	1670,00
316,98	1636,00
323,69	1658,00
330,39	1598,00
337,08	1595,00
343,76	1696,00
350,44	1635,00
357,11	1595,00
363,77	1474,00
370,42	1660,00
377,07	1588,00
383,71	1506,00
390,34	1657,00
396,96	1527,00
403,58	1527,00
410,19	1607,00
416,79	1533,00
423,38	1564,00
429,97	1681,00
436,55	1444,00
443,12	1483,00
449,68	1356,00
456,24	1486,00
462,79	1444,00
469,33	1401,00
475,86	1455,00
482,39	1463,00
488,91	1377,00
495,42	1393,00
501,93	1310,00
508,42	1285,00
514,91	1384,00
521,40	1442,00
527,87	1284,00
534,34	1250,00
540,80	1271,00
547,25	1358,00
553,70	1245,00
560,14	1354,00
566,57	1315,00
573,00	1331,00
579,41	1311,00
585,83	1282,00
592,23	1248,00
598,62	1217,00
605,01	1159,00
611,40	1184,00
617,77	1310,00
624,14	1200,00
630,50	1274,00
636,85	1096,00
643,20	1251,00
649,54	1028,00
655,87	1222,00
662,20	1172,00
668,52	1150,00
674,83	1132,00
681,13	1093,00
687,43	991,00
693,72	1233,00
700,00	1212,00
706,28	1152,00
712,55	1062,00
718,81	1126,00
725,07	1091,00
731,32	1132,00
737,56	1017,00
743,79	1063,00
750,02	1243,00
756,24	1090,00
762,46	1158,00
768,67	1097,00
774,87	1149,00
781,06	1227,00
787,25	1173,00
793,43	1224,00
799,60	1047,00
805,77	1198,00
811,93	1211,00
818,08	1023,00
824,23	1085,00
830,37	1110,00
836,50	1247,00
842,63	1127,00
848,75	1061,00
854,87	1194,00
860,97	1116,00
867,07	1140,00
873,17	1112,00
879,25	1012,00
885,33	1176,00
891,41	1128,00
897,47	1114,00
903,53	1173,00
909,59	1032,00
915,63	1115,00
921,67	1081,00
927,71	1015,00
933,74	1089,00
939,76	990,00
945,77	1001,00
951,78	997,00
957,78	979,00
963,78	925,00
969,77	1010,00
975,75	1024,00
981,72	1099,00
987,69	1274,00
993,66	975,00
999,61	944,00
1005,56	940,00
1011,51	1016,00
1017,44	1045,00
1023,37	1124,00
1029,30	1062,00
1035,22	998,00
1041,13	1135,00
1047,03	1021,00
1052,93	1185,00
1058,83	1434,00
1064,71	1319,00
1070,59	1202,00
1076,47	1082,00
1082,33	1139,00
1088,20	1177,00
1094,05	1025,00
1099,90	997,00
1105,74	1012,00
1111,58	1060,00
1117,41	1079,00
1123,23	1304,00
1129,05	1125,00
1134,86	1162,00
1140,67	1154,00
1146,47	823,00
1152,26	1001,00
1158,05	941,00
1163,83	998,00
1169,60	1016,00
1175,37	889,00
1181,13	1116,00
1186,89	896,00
1192,64	936,00
1198,38	888,00
1204,12	1043,00
1209,85	911,00
1215,58	1033,00
1221,30	872,00
1227,02	1031,00
1232,72	999,00
1238,43	914,00
1244,12	1011,00
1249,81	1016,00
1255,50	960,00
1261,17	863,00
1266,85	1007,00
1272,51	1021,00
1278,17	1048,00
1283,83	938,00
1289,47	1343,00
1295,12	1433,00
1300,75	1547,00
1306,38	1273,00
1312,01	1169,00
1317,63	1031,00
1323,24	1055,00
1328,85	1010,00
1334,45	1049,00
1340,04	1007,00
1345,63	965,00
1351,22	1131,00
1356,80	1065,00
1362,37	947,00
1367,93	1013,00
1373,49	1029,00
1379,05	1109,00
1384,60	1075,00
1390,14	1007,00
1395,68	976,00
1401,21	923,00
1406,74	1041,00
1412,26	952,00
1417,77	1094,00
1423,28	1246,00
1428,78	1275,00
1434,28	1402,00
1439,77	1471,00
1445,26	1543,00
1450,74	1487,00
1456,22	1483,00
1461,68	1432,00
1467,15	1227,00
1472,61	1303,00
1478,06	1108,00
1483,51	1047,00
1488,95	856,00
1494,38	863,00
1499,81	991,00
1505,24	956,00
1510,65	997,00
1516,07	974,00
1521,48	924,00
1526,88	899,00
1532,27	935,00
1537,67	926,00
1543,05	953,00
1548,43	731,00
1553,81	881,00
1559,18	962,00
1564,54	854,00
1569,90	855,00
1575,25	823,00
1580,60	872,00
1585,94	756,00
1591,28	872,00
1596,61	721,00
1601,93	778,00
1607,25	803,00
1612,57	972,00
1617,88	817,00
1623,18	721,00
1628,48	754,00
1633,77	777,00
1639,06	841,00
1644,34	749,00
1649,62	788,00
1654,89	759,00
1660,16	715,00
1665,42	797,00
1670,67	718,00
1675,92	747,00
1681,17	790,00
1686,41	745,00
1691,64	722,00
1696,87	908,00
1702,10	708,00
1707,32	639,00
1712,53	703,00
1717,74	714,00
1722,94	857,00
1728,14	733,00
1733,33	722,00
1738,52	725,00
1743,70	813,00
1748,88	734,00
1754,05	783,00
1759,22	755,00
1764,38	818,00
1769,53	773,00
1774,69	683,00
1779,83	755,00
1784,97	714,00
1790,11	665,00
1795,24	681,00
1800,36	663,00
1805,48	685,00
1810,60	808,00
1815,71	707,00
1820,82	629,00
1825,92	609,00
1831,01	679,00
1836,10	662,00
1841,19	617,00
1846,26	487,00
1851,34	716,00
1856,41	578,00
1861,47	630,00
1866,53	686,00
1871,59	650,00
1876,64	703,00
1881,68	664,00
1886,72	585,00
1891,76	580,00
1896,79	587,00
1901,81	548,00
1906,83	622,00
1911,85	610,00
1916,86	626,00
1921,86	614,00
1926,86	645,00
1931,86	594,00
1936,85	563,00
1941,83	640,00
1946,81	554,00
1951,79	568,00
1956,76	546,00
1961,72	414,00
1966,68	496,00
1971,64	587,00
1976,59	528,00
1981,54	527,00
1986,48	435,00
1991,42	599,00
1996,35	593,00
2001,27	467,00
2006,20	507,00
2011,11	527,00
2016,03	499,00
2020,93	486,00
2025,84	533,00
2030,73	635,00
2035,63	580,00
2040,52	499,00
2045,40	482,00
2050,28	537,00
2055,15	573,00
2060,02	536,00
2064,89	622,00
2069,75	546,00
2074,60	587,00
2079,46	501,00
2084,30	401,00
2089,14	477,00
2093,98	569,00
2098,81	552,00
2103,64	574,00
2108,46	546,00
2113,28	624,00
2118,09	525,00
2122,90	479,00
2127,70	538,00
2132,50	507,00
2137,30	556,00
2142,09	481,00
2146,87	479,00
2151,66	564,00
2156,43	525,00
2161,20	528,00
2165,97	442,00
2170,73	478,00
2175,49	579,00
2180,24	512,00
2184,99	393,00
2189,74	551,00
2194,48	593,00
2199,21	566,00
2203,94	490,00
2208,67	532,00
2213,39	510,00
2218,11	378,00
2222,82	491,00
2227,53	450,00
2232,23	434,00
2236,93	486,00
2241,63	510,00
2246,32	550,00
2251,00	456,00
2255,68	380,00
2260,36	438,00
2265,03	451,00
2269,70	440,00
2274,36	381,00
2279,02	363,00
2283,68	494,00
2288,33	388,00
2292,97	549,00
2297,61	443,00
2302,25	480,00
2306,88	398,00
2311,51	430,00
2316,14	468,00
2320,75	451,00
2325,37	446,00
2329,98	574,00
2334,59	365,00
2339,19	428,00
2343,79	433,00
2348,38	416,00
2352,97	344,00
2357,55	553,00
2362,13	460,00
2366,71	390,00
2371,28	541,00
2375,85	497,00
2380,41	357,00
2384,97	482,00
2389,52	406,00
2394,07	502,00
2398,62	573,00
2403,16	488,00
2407,70	357,00
2412,23	335,00
2416,76	404,00
2421,29	452,00
2425,81	466,00
2430,32	492,00
2434,84	471,00
2439,34	386,00
2443,85	459,00
2448,35	386,00
2452,84	475,00
2457,33	464,00
2461,82	466,00
2466,30	410,00
2470,78	473,00
2475,25	404,00
2479,72	427,00
2484,19	453,00
2488,65	431,00
2493,11	379,00
2497,56	518,00
2502,01	308,00
2506,46	286,00
2510,90	360,00
2515,34	396,00
2519,77	370,00
2524,20	413,00
2528,62	432,00
2533,04	405,00
2537,46	355,00
2541,87	263,00
2546,28	361,00
2550,68	379,00
2555,08	457,00
2559,48	493,00
2563,87	389,00
2568,26	312,00
2572,64	339,00
2577,02	439,00
2581,40	434,00
2585,77	329,00
2590,14	362,00
2594,50	384,00
2598,86	361,00
2603,22	327,00
2607,57	410,00
2611,92	475,00
2616,26	401,00
2620,60	484,00
2624,94	279,00
2629,27	405,00
2633,60	355,00
2637,92	423,00
2642,24	433,00
2646,56	358,00
2650,87	266,00
2655,18	447,00
2659,48	431,00
2663,78	375,00
2668,08	249,00
2672,37	325,00
2676,66	360,00
2680,95	440,00
2685,23	490,00
2689,50	480,00
2693,78	439,00
2698,05	418,00
2702,31	386,00
2706,57	437,00
2710,83	360,00
2715,08	473,00
2719,33	529,00
2723,58	569,00
2727,82	436,00
2732,06	399,00
2736,29	446,00
2740,53	463,00
2744,75	366,00
2748,97	248,00
2753,19	415,00
2757,41	341,00
2761,62	455,00
2765,83	405,00
2770,03	315,00
2774,23	471,00
2778,43	361,00
2782,62	430,00
2786,81	447,00
2791,00	382,00
2795,18	497,00
2799,35	352,00
2803,53	536,00
2807,70	466,00
2811,86	441,00
2816,03	471,00
2820,19	509,00
2824,34	690,00
2828,49	479,00
2832,64	744,00
2836,78	683,00
2840,92	763,00
2845,06	924,00
2849,19	1027,00
2853,32	1196,00
2857,45	1159,00
2861,57	1093,00
2865,69	964,00
2869,80	1048,00
2873,91	1030,00
2878,02	1142,00
2882,12	1176,00
2886,22	1220,00
2890,32	1156,00
2894,41	1057,00
2898,50	1120,00
2902,58	874,00
2906,67	894,00
2910,74	866,00
2914,82	903,00
2918,89	894,00
2922,96	684,00
2927,02	711,00
2931,08	647,00
2935,13	719,00
2939,19	719,00
2943,24	629,00
2947,28	480,00
2951,32	517,00
2955,36	550,00
2959,40	492,00
2963,43	335,00
2967,46	390,00
2971,48	370,00
2975,50	410,00
2979,52	383,00
2983,53	393,00
2987,54	459,00
2991,55	374,00
2995,55	335,00
2999,55	403,00
3003,54	362,00
3007,54	439,00
3011,53	313,00
3015,51	399,00
3019,49	424,00
3023,47	393,00
3027,45	233,00
3031,42	319,00
3035,39	381,00
3039,35	319,00
3043,31	310,00
3047,27	272,00
3051,22	299,00
3055,17	393,00
3059,12	176,00
3063,06	388,00
3067,00	225,00
3070,94	419,00
3074,87	280,00
3078,80	343,00
3082,73	269,00
3086,65	353,00
3090,57	299,00
3094,49	415,00
3098,40	239,00
3102,31	253,00
3106,22	318,00
3110,12	262,00
3114,02	264,00
3117,92	294,00
3121,81	300,00
3125,70	338,00
3129,58	266,00
3133,47	265,00
3137,34	397,00
3141,22	270,00
3145,09	314,00
3148,96	270,00
3152,83	319,00
3156,69	247,00
3160,55	370,00
3164,40	282,00
3168,26	306,00
3172,10	335,00
3175,95	295,00
3179,79	310,00
3183,63	366,00
3187,47	267,00
3191,30	376,00
3195,13	317,00
3198,95	343,00
3202,78	270,00
3206,60	294,00
3210,41	190,00
3214,23	363,00
3218,03	245,00
3221,84	380,00
3225,64	234,00
3229,44	238,00
3233,24	294,00
3237,03	322,00
3240,82	233,00
3244,61	315,00
3248,39	171,00
3252,17	293,00
3255,95	212,00
3259,72	220,00
3263,49	262,00
3267,26	275,00
3271,03	257,00
3274,79	292,00
3278,54	246,00
3282,30	301,00
3286,05	267,00
3289,80	321,00
3293,54	255,00
3297,29	366,00
3301,02	209,00
3304,76	277,00
3308,49	178,00
3312,22	283,00
3315,95	402,00
3319,67	286,00
3323,39	383,00
3327,10	200,00
3330,82	296,00
3334,53	239,00
3338,24	249,00
3341,94	350,00
3345,64	259,00
3349,34	287,00
3353,03	338,00
3356,72	245,00
3360,41	422,00
3364,10	275,00
3367,78	323,00
3371,46	206,00
3375,13	261,00
3378,81	167,00
3382,48	230,00
3386,14	344,00
3389,81	220,00
3393,47	295,00
3397,12	344,00
3400,78	352,00
3404,43	269,00
3408,08	305,00
3411,72	286,00
3415,36	157,00
3419,00	168,00
3422,64	377,00
3426,27	225,00
3429,90	253,00
3433,53	309,00
3437,15	328,00
3440,77	245,00
3444,39	355,00
3448,00	251,00
3451,62	245,00
3455,22	255,00
3458,83	188,00
3462,43	314,00
3466,03	254,00
3469,63	306,00
3473,22	155,00
3476,81	231,00
3480,40	360,00
3483,99	218,00
3487,57	282,00
3491,15	263,00
3494,72	262,00
3498,29	320,00
3501,86	304,00
3505,43	276,00
3508,99	198,00
3512,56	256,00
3516,11	336,00
3519,67	206,00
3523,22	431,00
3526,77	249,00
3530,32	217,00
3533,86	242,00
3537,40	294,00
3540,94	345,00
3544,47	186,00
3548,00	190,00
3551,53	189,00
3555,06	242,00
3558,58	184,00
3562,10	294,00
3565,62	167,00
3569,13	197,00
3572,64	250,00
3576,15	241,00
3579,66	340,00
3583,16	331,00
3586,66	287,00
3590,16	207,00
3593,65	306,00
3597,14	342,00
3600,63	281,00
3604,11	331,00
3607,60	283,00
3611,08	231,00
3614,55	242,00
3618,03	282,00
3621,50	234,00
3624,97	230,00
3628,43	272,00
3631,90	250,00
3635,36	253,00
3638,81	225,00
3642,27	306,00
3645,72	287,00
3649,17	228,00
3652,61	161,00
3656,06	213,00
3659,50	259,00
3662,93	195,00
3666,37	259,00
3669,80	210,00
3673,23	158,00
3676,65	192,00
3680,08	251,00
3683,50	176,00
3686,92	173,00
3690,33	238,00
3693,74	196,00
3697,15	205,00
3700,56	224,00
3703,96	232,00
3707,36	260,00
3710,76	214,00
3714,16	275,00
3717,55	334,00
3720,94	229,00
3724,33	216,00
3727,71	310,00
3731,10	331,00
3734,48	147,00
3737,85	173,00
3741,23	247,00
3744,60	205,00
3747,97	135,00
3751,33	223,00
3754,69	245,00
3758,05	261,00
3761,41	267,00
3764,77	205,00
3768,12	196,00
3771,47	190,00
3774,82	261,00
3778,16	-2,00
3781,50	6,00
3784,84	2,00
3788,18	2,00
>>>>>End Processed Spectral Data<<<<<
