SpectraSuite Data File
++++++++++++++++++++++++++++++++++++
Date: Mon Mar 09 16:14:36 ICT 2026
User: Administrator
Dark Spectrum Present: Yes
Reference Spectrum Present: No
Number of Sampled Component Spectra: 1
Spectrometers: MAYP113682
Integration Time (usec): 3000000 (MAYP113682)
Spectra Averaged: 1 (MAYP113682)
Boxcar Smoothing: 0 (MAYP113682)
Correct for Electrical Dark: No (MAYP113682)
Strobe/Lamp Enabled: No (MAYP113682)
Correct for Detector Non-linearity: No (MAYP113682)
Correct for Stray Light: No (MAYP113682)
Number of Pixels in Processed Spectrum: 2068
>>>>>Begin Processed Spectral Data<<<<<
-37534,58	-4,00
-37414,56	1,00
-37295,11	0,00
-37176,24	-3,00
-37057,95	-43,00
-36940,22	-2,00
-36823,05	53,00
-36706,45	43,00
-36590,40	-8,00
-36474,90	99,00
-36359,95	-3,00
-36245,55	144,00
-36131,68	16,00
-36018,35	94,00
-35905,55	-36,00
-35793,29	-118,00
-35681,54	-39,00
-35570,32	-29,00
-35459,62	-36,00
-35349,43	-37,00
-35239,75	-11,00
-35130,58	-5,00
-35021,91	-41,00
-34913,74	-16,00
-34806,07	-14,00
-34698,89	-26,00
-34592,20	-93,00
-34486,00	63,00
-34380,28	83,00
-34275,04	61,00
-34170,27	52,00
-34065,98	-22,00
-33962,16	-14,00
-33858,81	32,00
-33755,92	202,00
-33653,49	101,00
-33551,52	44,00
-33450,01	98,00
-33348,94	-30,00
-33248,33	-5,00
-33148,16	-16,00
-33048,43	-1,00
-32949,14	38,00
-32850,29	58,00
-32751,87	-8,00
-32653,89	57,00
-32556,33	18,00
-32459,20	20,00
-32362,49	94,00
-32266,19	20,00
-32170,32	64,00
-32074,86	-37,00
-31979,82	-91,00
-31885,18	30,00
-31790,95	62,00
-31697,12	-63,00
-31603,69	129,00
-31510,67	53,00
-31418,04	220,00
-31325,80	-41,00
-31233,95	24,00
-31142,49	62,00
-31051,42	97,00
-30960,73	-3,00
-30870,43	16,00
-30780,50	31,00
-30690,95	-105,00
-30601,77	68,00
-30512,97	193,00
-30424,53	-12,00
-30336,46	30,00
-30248,76	-47,00
-30161,42	120,00
-30074,44	23,00
-29987,81	125,00
-29901,55	86,00
-29815,63	60,00
-29730,07	-38,00
-29644,86	-4,00
-29560,00	-39,00
-29475,48	123,00
-29391,30	52,00
-29307,47	38,00
-29223,97	-65,00
-29140,81	41,00
-29057,99	105,00
-28975,50	-41,00
-28893,34	40,00
-28811,51	28,00
-28730,00	71,00
-28648,82	-77,00
-28567,97	-75,00
-28487,43	76,00
-28407,21	2,00
-28327,32	55,00
-28247,73	85,00
-28168,46	3,00
-28089,50	42,00
-28010,85	-62,00
-27932,51	12,00
-27854,48	93,00
-27776,75	-22,00
-27699,32	76,00
-27622,19	-53,00
-27545,37	-54,00
-27468,84	10,00
-27392,60	-45,00
-27316,66	15,00
-27241,01	119,00
-27165,66	32,00
-27090,59	5,00
-27015,81	106,00
-26941,31	-10,00
-26867,10	-7,00
-26793,17	45,00
-26719,52	-132,00
-26646,15	28,00
-26573,06	10,00
-26500,24	106,00
-26427,70	-41,00
-26355,43	-45,00
-26283,43	-83,00
-26211,71	-95,00
-26140,25	64,00
-26069,06	40,00
-25998,13	72,00
-25927,46	54,00
-25857,06	49,00
-25786,92	83,00
-25717,04	79,00
-25647,42	79,00
-25578,05	36,00
-25508,94	137,00
-25440,09	-62,00
-25371,48	88,00
-25303,13	4,00
-25235,02	68,00
-25167,17	-55,00
-25099,56	27,00
-25032,19	82,00
-24965,07	26,00
-24898,20	45,00
-24831,56	16,00
-24765,17	86,00
-24699,01	112,00
-24633,10	-15,00
-24567,41	101,00
-24501,97	119,00
-24436,75	-43,00
-24371,77	123,00
-24307,03	-39,00
-24242,51	65,00
-24178,22	-27,00
-24114,16	13,00
-24050,32	54,00
-23986,71	116,00
-23923,32	40,00
-23860,16	50,00
-23797,22	80,00
-23734,50	7,00
-23672,00	-115,00
-23609,71	29,00
-23547,65	-88,00
-23485,80	117,00
-23424,16	5,00
-23362,74	-10,00
-23301,53	-7,00
-23240,54	-139,00
-23179,75	39,00
-23119,17	-43,00
-23058,80	-45,00
-22998,64	5,00
-22938,68	133,00
-22878,93	53,00
-22819,39	61,00
-22760,04	6,00
-22700,90	-132,00
-22641,96	35,00
-22583,22	6,00
-22524,68	15,00
-22466,33	37,00
-22408,19	-2,00
-22350,23	-96,00
-22292,48	36,00
-22234,92	25,00
-22177,55	39,00
-22120,37	91,00
-22063,38	89,00
-22006,58	29,00
-21949,98	192,00
-21893,56	60,00
-21837,33	-70,00
-21781,28	75,00
-21725,42	106,00
-21669,74	50,00
-21614,25	-1,00
-21558,94	-35,00
-21503,81	1,00
-21448,86	-124,00
-21394,10	-31,00
-21339,51	38,00
-21285,10	58,00
-21230,86	6,00
-21176,81	-2,00
-21122,93	-37,00
-21069,22	37,00
-21015,69	132,00
-20962,33	125,00
-20909,14	137,00
-20856,13	-20,00
-20803,28	9,00
-20750,61	31,00
-20698,10	-79,00
-20645,76	-10,00
-20593,59	17,00
-20541,59	35,00
-20489,75	-50,00
-20438,07	80,00
-20386,56	-81,00
-20335,22	132,00
-20284,03	-24,00
-20233,01	-3,00
-20182,15	-80,00
-20131,45	-45,00
-20080,91	-23,00
-20030,52	-31,00
-19980,30	-57,00
-19930,23	28,00
-19880,32	-27,00
-19830,56	-27,00
-19780,96	19,00
-19731,52	78,00
-19682,23	46,00
-19633,09	11,00
-19584,10	17,00
-19535,26	68,00
-19486,58	89,00
-19438,04	45,00
-19389,66	55,00
-19341,42	-13,00
-19293,33	8,00
-19245,39	29,00
-19197,60	88,00
-19149,95	18,00
-19102,45	21,00
-19055,09	12,00
-19007,87	-18,00
-18960,80	155,00
-18913,87	-110,00
-18867,09	-18,00
-18820,44	7,00
-18773,94	41,00
-18727,57	-12,00
-18681,35	10,00
-18635,26	91,00
-18589,31	36,00
-18543,50	30,00
-18497,83	-59,00
-18452,29	51,00
-18406,89	-5,00
-18361,63	43,00
-18316,50	-30,00
-18271,50	135,00
-18226,63	2,00
-18181,90	57,00
-18137,30	97,00
-18092,84	-45,00
-18048,50	125,00
-18004,29	2,00
-17960,22	-12,00
-17916,27	34,00
-17872,45	-39,00
-17828,76	62,00
-17785,20	-60,00
-17741,77	-21,00
-17698,46	-17,00
-17655,28	42,00
-17612,22	-69,00
-17569,29	54,00
-17526,48	35,00
-17483,79	78,00
-17441,23	60,00
-17398,79	77,00
-17356,48	182,00
-17314,28	0,00
-17272,21	-68,00
-17230,26	52,00
-17188,42	16,00
-17146,71	29,00
-17105,12	-29,00
-17063,64	-26,00
-17022,28	123,00
-16981,04	117,00
-16939,92	-14,00
-16898,91	-153,00
-16858,02	10,00
-16817,25	-22,00
-16776,59	20,00
-16736,04	-25,00
-16695,61	-54,00
-16655,29	17,00
-16615,09	77,00
-16574,99	58,00
-16535,01	72,00
-16495,15	74,00
-16455,39	53,00
-16415,74	-49,00
-16376,21	84,00
-16336,78	86,00
-16297,46	-33,00
-16258,26	-7,00
-16219,16	1,00
-16180,17	35,00
-16141,28	25,00
-16102,51	70,00
-16063,84	-3,00
-16025,27	26,00
-15986,82	132,00
-15948,46	-59,00
-15910,22	122,00
-15872,07	87,00
-15834,04	53,00
-15796,10	-7,00
-15758,27	64,00
-15720,54	34,00
-15682,91	-29,00
-15645,39	72,00
-15607,97	-83,00
-15570,64	-7,00
-15533,42	-77,00
-15496,30	36,00
-15459,28	80,00
-15422,36	103,00
-15385,54	-130,00
-15348,82	-41,00
-15312,19	-47,00
-15275,66	49,00
-15239,23	45,00
-15202,90	47,00
-15166,67	45,00
-15130,53	93,00
-15094,48	36,00
-15058,54	41,00
-15022,68	16,00
-14986,93	7,00
-14951,26	12,00
-14915,69	19,00
-14880,22	15,00
-14844,84	25,00
-14809,55	92,00
-14774,35	66,00
-14739,25	41,00
-14704,24	8,00
-14669,32	-161,00
-14634,49	6,00
-14599,75	-9,00
-14565,10	-101,00
-14530,55	7,00
-14496,08	97,00
-14461,70	-13,00
-14427,41	4,00
-14393,21	-4,00
-14359,10	-31,00
-14325,07	8,00
-14291,14	-4,00
-14257,29	-39,00
-14223,52	60,00
-14189,85	154,00
-14156,26	157,00
-14122,76	0,00
-14089,34	75,00
-14056,01	-9,00
-14022,76	82,00
-13989,60	-105,00
-13956,52	-2,00
-13923,53	-74,00
-13890,62	13,00
-13857,79	-59,00
-13825,05	18,00
-13792,39	-14,00
-13759,81	-21,00
-13727,31	-73,00
-13694,90	65,00
-13662,57	40,00
-13630,31	-20,00
-13598,14	-211,00
-13566,05	9,00
-13534,05	83,00
-13502,12	-64,00
-13470,27	84,00
-13438,50	35,00
-13406,80	-60,00
-13375,19	110,00
-13343,66	-111,00
-13312,20	52,00
-13280,83	92,00
-13249,53	53,00
-13218,30	17,00
-13187,16	10,00
-13156,09	-7,00
-13125,10	31,00
-13094,18	40,00
-13063,34	13,00
-13032,58	-8,00
-13001,89	70,00
-12971,28	-27,00
-12940,74	208,00
-12910,27	20,00
-12879,88	-22,00
-12849,57	32,00
-12819,33	-8,00
-12789,16	-33,00
-12759,06	38,00
-12729,04	40,00
-12699,09	66,00
-12669,21	36,00
-12639,41	27,00
-12609,68	37,00
-12580,02	-84,00
-12550,43	-1,00
-12520,91	12,00
-12491,46	47,00
-12462,08	-60,00
-12432,77	-106,00
-12403,54	-7,00
-12374,37	35,00
-12345,27	75,00
-12316,24	-26,00
-12287,29	22,00
-12258,40	22,00
-12229,57	20,00
-12200,82	8,00
-12172,14	-23,00
-12143,52	121,00
-12114,97	-38,00
-12086,49	-7,00
-12058,07	-39,00
-12029,73	81,00
-12001,44	32,00
-11973,23	75,00
-11945,08	-12,00
-11917,00	114,00
-11888,98	19,00
-11861,03	129,00
-11833,15	53,00
-11805,32	96,00
-11777,57	81,00
-11749,88	39,00
-11722,25	-48,00
-11694,69	115,00
-11667,19	70,00
-11639,75	29,00
-11612,38	-14,00
-11585,07	33,00
-11557,83	77,00
-11530,65	35,00
-11503,53	36,00
-11476,47	98,00
-11449,48	91,00
-11422,54	-53,00
-11395,67	42,00
-11368,86	67,00
-11342,11	12,00
-11315,43	11,00
-11288,80	30,00
-11262,23	52,00
-11235,73	77,00
-11209,28	-53,00
-11182,90	145,00
-11156,57	122,00
-11130,31	78,00
-11104,10	-160,00
-11077,96	-44,00
-11051,87	-56,00
-11025,84	-49,00
-10999,87	59,00
-10973,96	41,00
-10948,11	-105,00
-10922,31	-10,00
-10896,58	-10,00
-10870,90	28,00
-10845,28	-8,00
-10819,71	85,00
-10794,20	23,00
-10768,75	-10,00
-10743,36	-147,00
-10718,02	14,00
-10692,74	39,00
-10667,52	66,00
-10642,35	144,00
-10617,24	-21,00
-10592,18	128,00
-10567,18	228,00
-10542,23	89,00
-10517,34	192,00
-10492,51	143,00
-10467,72	158,00
-10443,00	151,00
-10418,32	86,00
-10393,70	-63,00
-10369,14	108,00
-10344,63	18,00
-10320,17	225,00
-10295,77	182,00
-10271,42	107,00
-10247,12	139,00
-10222,88	44,00
-10198,68	96,00
-10174,54	-15,00
-10150,46	76,00
-10126,42	191,00
-10102,44	59,00
-10078,51	138,00
-10054,63	211,00
-10030,80	108,00
-10007,03	67,00
-9983,30	85,00
-9959,63	108,00
-9936,01	199,00
-9912,44	204,00
-9888,92	239,00
-9865,44	212,00
-9842,02	135,00
-9818,65	275,00
-9795,33	355,00
-9772,06	236,00
-9748,84	141,00
-9725,67	191,00
-9702,55	338,00
-9679,47	307,00
-9656,45	322,00
-9633,47	487,00
-9610,55	457,00
-9587,67	274,00
-9564,84	413,00
-9542,06	459,00
-9519,32	505,00
-9496,64	662,00
-9474,00	793,00
-9451,41	712,00
-9428,87	663,00
-9406,37	659,00
-9383,92	573,00
-9361,52	626,00
-9339,17	502,00
-9316,86	660,00
-9294,60	904,00
-9272,38	1084,00
-9250,21	1009,00
-9228,09	1158,00
-9206,01	951,00
-9183,98	1025,00
-9162,00	827,00
-9140,06	724,00
-9118,16	868,00
-9096,31	929,00
-9074,51	968,00
-9052,75	1024,00
-9031,04	921,00
-9009,37	824,00
-8987,74	645,00
-8966,16	579,00
-8944,63	383,00
-8923,14	427,00
-8901,69	566,00
-8880,29	635,00
-8858,93	855,00
-8837,61	770,00
-8816,34	988,00
-8795,11	927,00
-8773,92	768,00
-8752,78	692,00
-8731,68	768,00
-8710,62	659,00
-8689,61	780,00
-8668,63	926,00
-8647,70	830,00
-8626,82	854,00
-8605,97	775,00
-8585,17	788,00
-8564,41	667,00
-8543,69	722,00
-8523,01	590,00
-8502,37	575,00
-8481,78	806,00
-8461,23	826,00
-8440,71	860,00
-8420,24	860,00
-8399,81	920,00
-8379,42	1043,00
-8359,08	836,00
-8338,77	700,00
-8318,50	719,00
-8298,27	657,00
-8278,09	704,00
-8257,94	760,00
-8237,83	807,00
-8217,76	916,00
-8197,74	936,00
-8177,75	835,00
-8157,80	811,00
-8137,89	776,00
-8118,02	665,00
-8098,19	702,00
-8078,40	577,00
-8058,65	635,00
-8038,93	843,00
-8019,26	738,00
-7999,62	725,00
-7980,02	535,00
-7960,46	654,00
-7940,94	710,00
-7921,46	580,00
-7902,01	626,00
-7882,60	558,00
-7863,23	655,00
-7843,90	654,00
-7824,61	704,00
-7805,35	722,00
-7786,13	866,00
-7766,95	743,00
-7747,80	605,00
-7728,69	728,00
-7709,62	601,00
-7690,59	673,00
-7671,59	789,00
-7652,63	857,00
-7633,70	753,00
-7614,81	792,00
-7595,96	686,00
-7577,15	519,00
-7558,37	596,00
-7539,62	613,00
-7520,91	705,00
-7502,24	648,00
-7483,60	645,00
-7465,00	629,00
-7446,44	563,00
-7427,91	483,00
-7409,41	402,00
-7390,95	366,00
-7372,53	407,00
-7354,14	309,00
-7335,78	235,00
-7317,46	498,00
-7299,18	473,00
-7280,92	587,00
-7262,71	599,00
-7244,52	603,00
-7226,38	744,00
-7208,26	761,00
-7190,18	565,00
-7172,14	569,00
-7154,12	390,00
-7136,15	561,00
-7118,20	772,00
-7100,29	626,00
-7082,41	535,00
-7064,57	675,00
-7046,76	559,00
-7028,98	345,00
-7011,24	337,00
-6993,53	314,00
-6975,85	269,00
-6958,20	192,00
-6940,59	158,00
-6923,01	276,00
-6905,46	251,00
-6887,94	373,00
-6870,46	-2219,00
-6853,01	605,00
-6835,59	621,00
-6818,21	472,00
-6800,85	427,00
-6783,53	263,00
-6766,24	103,00
-6748,98	95,00
-6731,76	63,00
-6714,56	-39,00
-6697,40	134,00
-6680,26	111,00
-6663,16	224,00
-6646,09	265,00
-6629,05	407,00
-6612,05	403,00
-6595,07	373,00
-6578,13	386,00
-6561,21	319,00
-6544,33	99,00
-6527,47	181,00
-6510,65	132,00
-6493,86	18,00
-6477,10	44,00
-6460,36	151,00
-6443,66	116,00
-6426,99	103,00
-6410,35	89,00
-6393,74	187,00
-6377,16	252,00
-6360,61	150,00
-6344,09	222,00
-6327,59	179,00
-6311,13	266,00
-6294,70	172,00
-6278,29	407,00
-6261,92	426,00
-6245,58	339,00
-6229,26	433,00
-6212,97	421,00
-6196,72	282,00
-6180,49	23,00
-6164,29	92,00
-6148,12	-29,00
-6131,98	-23,00
-6115,86	20,00
-6099,78	47,00
-6083,72	36,00
-6067,69	-143,00
-6051,69	-12,00
-6035,72	69,00
-6019,78	107,00
-6003,87	145,00
-5987,98	276,00
-5972,12	395,00
-5956,29	198,00
-5940,49	254,00
-5924,71	189,00
-5908,96	88,00
-5893,24	44,00
-5877,55	49,00
-5861,89	7,00
-5846,25	-43,00
-5830,64	-18,00
-5815,05	100,00
-5799,50	105,00
-5783,97	114,00
-5768,47	63,00
-5752,99	91,00
-5737,55	175,00
-5722,12	259,00
-5706,73	303,00
-5691,36	233,00
-5676,02	40,00
-5660,71	123,00
-5645,42	-29,00
-5630,16	89,00
-5614,92	178,00
-5599,71	52,00
-5584,53	43,00
-5569,37	103,00
-5554,24	278,00
-5539,14	95,00
-5524,06	88,00
-5509,01	142,00
-5493,98	134,00
-5478,98	182,00
-5464,00	94,00
-5449,05	111,00
-5434,13	85,00
-5419,23	48,00
-5404,36	143,00
-5389,51	261,00
-5374,69	220,00
-5359,89	239,00
-5345,12	229,00
-5330,37	376,00
-5315,65	195,00
-5300,95	147,00
-5286,28	149,00
-5271,63	149,00
-5257,01	101,00
-5242,41	163,00
-5227,84	13,00
-5213,29	-22,00
-5198,76	-26,00
-5184,26	32,00
-5169,79	85,00
-5155,33	53,00
-5140,91	142,00
-5126,51	201,00
-5112,13	226,00
-5097,77	230,00
-5083,44	45,00
-5069,13	35,00
-5054,85	88,00
-5040,59	86,00
-5026,36	54,00
-5012,15	150,00
-4997,96	45,00
-4983,80	112,00
-4969,66	12,00
-4955,54	98,00
-4941,44	138,00
-4927,37	126,00
-4913,33	322,00
-4899,30	259,00
-4885,30	350,00
-4871,33	340,00
-4857,37	90,00
-4843,44	139,00
-4829,53	60,00
-4815,65	168,00
-4801,79	96,00
-4787,95	48,00
-4774,13	91,00
-4760,34	69,00
-4746,56	-53,00
-4732,82	48,00
-4719,09	158,00
-4705,38	237,00
-4691,70	338,00
-4678,04	220,00
-4664,41	83,00
-4650,79	3,00
-4637,20	89,00
-4623,63	47,00
-4610,08	112,00
-4596,56	94,00
-4583,05	182,00
-4569,57	45,00
-4556,11	108,00
-4542,67	49,00
-4529,25	55,00
-4515,86	72,00
-4502,49	231,00
-4489,13	63,00
-4475,80	220,00
-4462,49	164,00
-4449,21	158,00
-4435,94	225,00
-4422,70	55,00
-4409,47	128,00
-4396,27	117,00
-4383,09	65,00
-4369,93	-61,00
-4356,79	20,00
-4343,67	35,00
-4330,58	37,00
-4317,50	79,00
-4304,45	95,00
-4291,41	47,00
-4278,40	-58,00
-4265,41	27,00
-4252,44	66,00
-4239,49	96,00
-4226,55	107,00
-4213,65	150,00
-4200,76	-55,00
-4187,89	41,00
-4175,04	26,00
-4162,21	90,00
-4149,40	108,00
-4136,61	104,00
-4123,85	-11,00
-4111,10	57,00
-4098,37	-4,00
-4085,66	9,00
-4072,98	190,00
-4060,31	-13,00
-4047,66	190,00
-4035,04	147,00
-4022,43	43,00
-4009,84	69,00
-3997,27	-24,00
-3984,72	117,00
-3972,19	6,00
-3959,69	11,00
-3947,20	114,00
-3934,73	-34,00
-3922,27	48,00
-3909,84	104,00
-3897,43	92,00
-3885,04	-2,00
-3872,67	25,00
-3860,31	-120,00
-3847,98	88,00
-3835,66	-40,00
-3823,36	-22,00
-3811,09	-15,00
-3798,83	2,00
-3786,59	12,00
-3774,37	130,00
-3762,17	121,00
-3749,98	137,00
-3737,82	21,00
-3725,67	-76,00
-3713,55	-58,00
-3701,44	62,00
-3689,35	16,00
-3677,28	-75,00
-3665,22	-23,00
-3653,19	-99,00
-3641,17	-14,00
-3629,18	47,00
-3617,20	11,00
-3605,24	72,00
-3593,30	-105,00
-3581,37	-22,00
-3569,47	20,00
-3557,58	156,00
-3545,71	-36,00
-3533,86	51,00
-3522,02	-90,00
-3510,21	73,00
-3498,41	-9,00
-3486,63	49,00
-3474,87	42,00
-3463,12	87,00
-3451,40	62,00
-3439,69	160,00
-3428,00	156,00
-3416,33	-16,00
-3404,67	-98,00
-3393,03	95,00
-3381,41	31,00
-3369,81	-65,00
-3358,22	155,00
-3346,66	74,00
-3335,10	32,00
-3323,57	71,00
-3312,06	7,00
-3300,56	6,00
-3289,08	-31,00
-3277,61	13,00
-3266,16	64,00
-3254,73	43,00
-3243,32	-50,00
-3231,92	67,00
-3220,55	17,00
-3209,18	75,00
-3197,84	133,00
-3186,51	34,00
-3175,20	55,00
-3163,90	67,00
-3152,63	-50,00
-3141,36	-51,00
-3130,12	-12,00
-3118,89	37,00
-3107,68	226,00
-3096,49	20,00
-3085,31	-45,00
-3074,15	33,00
-3063,00	-52,00
-3051,87	72,00
-3040,76	-27,00
-3029,67	85,00
-3018,59	-14,00
-3007,52	78,00
-2996,48	15,00
-2985,44	99,00
-2974,43	67,00
-2963,43	38,00
-2952,45	68,00
-2941,48	96,00
-2930,53	8,00
-2919,60	100,00
-2908,68	82,00
-2897,78	67,00
-2886,89	66,00
-2876,02	89,00
-2865,17	21,00
-2854,33	76,00
-2843,50	34,00
-2832,70	27,00
-2821,90	68,00
-2811,13	110,00
-2800,37	-83,00
-2789,62	-14,00
-2778,89	185,00
-2768,18	33,00
-2757,48	6,00
-2746,80	5,00
-2736,13	6,00
-2725,48	59,00
-2714,84	-48,00
-2704,22	62,00
-2693,61	-19,00
-2683,02	-56,00
-2672,45	17,00
-2661,89	-11,00
-2651,34	-148,00
-2640,81	-22,00
-2630,30	175,00
-2619,80	125,00
-2609,31	76,00
-2598,84	-15,00
-2588,39	-11,00
-2577,95	44,00
-2567,52	16,00
-2557,11	-59,00
-2546,71	93,00
-2536,33	169,00
-2525,97	71,00
-2515,62	45,00
-2505,28	57,00
-2494,96	-3,00
-2484,65	-53,00
-2474,36	356,00
-2464,08	26,00
-2453,82	72,00
-2443,57	111,00
-2433,33	-7,00
-2423,11	181,00
-2412,91	-84,00
-2402,72	17,00
-2392,54	151,00
-2382,38	92,00
-2372,23	-66,00
-2362,09	407,00
-2351,97	14,00
-2341,87	-86,00
-2331,78	-51,00
-2321,70	-8,00
-2311,64	133,00
-2301,59	49,00
-2291,55	31,00
-2281,53	-123,00
-2271,53	-4,00
-2261,53	110,00
-2251,55	88,00
-2241,59	23,00
-2231,64	17,00
-2221,70	49,00
-2211,78	45,00
-2201,87	116,00
-2191,97	-116,00
-2182,09	36,00
-2172,22	88,00
-2162,37	70,00
-2152,53	79,00
-2142,70	11,00
-2132,89	-7,00
-2123,09	-12,00
-2113,30	88,00
-2103,53	-1,00
-2093,77	-33,00
-2084,02	-10,00
-2074,29	-79,00
-2064,57	14,00
-2054,86	16,00
-2045,17	46,00
-2035,49	28,00
-2025,82	-13,00
-2016,17	-27,00
-2006,53	-32,00
-1996,91	3,00
-1987,29	-14,00
-1977,69	-5,00
-1968,11	-37,00
-1958,53	27,00
-1948,97	33,00
-1939,42	100,00
-1929,89	-90,00
-1920,37	115,00
-1910,86	-66,00
-1901,36	94,00
-1891,88	28,00
-1882,41	15,00
-1872,95	62,00
-1863,51	8,00
-1854,08	26,00
-1844,66	90,00
-1835,26	193,00
-1825,86	135,00
-1816,48	0,00
-1807,11	1,00
-1797,76	-33,00
-1788,42	82,00
-1779,09	59,00
-1769,77	-15,00
-1760,47	24,00
-1751,17	71,00
-1741,89	18,00
-1732,63	93,00
-1723,37	267,00
-1714,13	35,00
-1704,90	-31,00
-1695,68	55,00
-1686,48	56,00
-1677,29	118,00
-1668,11	146,00
-1658,94	112,00
-1649,78	-53,00
-1640,64	60,00
-1631,51	-40,00
-1622,39	-59,00
-1613,28	26,00
-1604,19	-36,00
-1595,10	39,00
-1586,03	-7,00
-1576,97	-104,00
-1567,93	18,00
-1558,89	-104,00
-1549,87	-90,00
-1540,86	25,00
-1531,86	54,00
-1522,87	-39,00
-1513,90	138,00
-1504,93	-111,00
-1495,98	-23,00
-1487,04	33,00
-1478,12	50,00
-1469,20	12,00
-1460,30	-27,00
-1451,40	-1,00
-1442,52	74,00
-1433,65	76,00
-1424,80	57,00
-1415,95	-6,00
-1407,12	-41,00
-1398,30	141,00
-1389,48	33,00
-1380,69	87,00
-1371,90	-8,00
-1363,12	71,00
-1354,36	12,00
-1345,60	-54,00
-1336,86	-9,00
-1328,13	67,00
-1319,41	51,00
-1310,70	64,00
-1302,01	-67,00
-1293,32	62,00
-1284,65	112,00
-1275,99	64,00
-1267,33	-18,00
-1258,69	-52,00
-1250,06	12,00
-1241,45	83,00
-1232,84	13,00
-1224,25	29,00
-1215,66	51,00
-1207,09	-3,00
-1198,53	1,00
-1189,97	111,00
-1181,43	45,00
-1172,91	87,00
-1164,39	41,00
-1155,88	36,00
-1147,38	-37,00
-1138,90	43,00
-1130,43	33,00
-1121,96	59,00
-1113,51	-21,00
-1105,07	24,00
-1096,64	49,00
-1088,22	107,00
-1079,81	79,00
-1071,41	-31,00
-1063,02	9,00
-1054,65	108,00
-1046,28	-60,00
-1037,92	27,00
-1029,58	-1,00
-1021,24	126,00
-1012,92	167,00
-1004,61	-45,00
-996,30	144,00
-988,01	-50,00
-979,73	-45,00
-971,46	-24,00
-963,20	-105,00
-954,95	55,00
-946,71	49,00
-938,48	10,00
-930,26	-93,00
-922,06	-16,00
-913,86	-10,00
-905,67	51,00
-897,49	7,00
-889,33	-7,00
-881,17	32,00
-873,02	-24,00
-864,89	78,00
-856,76	37,00
-848,65	88,00
-840,54	-52,00
-832,45	-60,00
-824,36	144,00
-816,29	74,00
-808,22	27,00
-800,17	26,00
-792,12	157,00
-784,09	-60,00
-776,06	-78,00
-768,05	84,00
-760,04	-2,00
-752,05	59,00
-744,07	-15,00
-736,09	-75,00
-728,13	4,00
-720,17	-24,00
-712,23	79,00
-704,29	-5,00
-696,37	49,00
-688,45	78,00
-680,55	44,00
-672,65	51,00
-664,77	220,00
-656,89	-14,00
-649,03	61,00
-641,17	141,00
-633,32	6,00
-625,49	85,00
-617,66	-12,00
-609,84	32,00
-602,03	17,00
-594,23	36,00
-586,45	51,00
-578,67	22,00
-570,90	-27,00
-563,14	-11,00
-555,39	-5,00
-547,65	32,00
-539,91	101,00
-532,19	12,00
-524,48	62,00
-516,78	47,00
-509,08	125,00
-501,40	-15,00
-493,72	61,00
-486,06	150,00
-478,40	73,00
-470,76	79,00
-463,12	178,00
-455,49	-17,00
-447,87	40,00
-440,26	42,00
-432,66	-67,00
-425,07	-30,00
-417,49	155,00
-409,92	27,00
-402,35	184,00
-394,80	97,00
-387,25	19,00
-379,72	41,00
-372,19	26,00
-364,67	35,00
-357,17	81,00
-349,67	18,00
-342,18	90,00
-334,69	55,00
-327,22	-14,00
-319,76	72,00
-312,30	103,00
-304,86	150,00
-297,42	40,00
-290,00	100,00
-282,58	114,00
-275,17	45,00
-267,77	149,00
-260,37	117,00
-252,99	178,00
-245,62	109,00
-238,25	123,00
-230,90	65,00
-223,55	-21,00
-216,21	135,00
-208,88	60,00
-201,56	151,00
-194,25	140,00
-186,94	266,00
-179,65	159,00
-172,36	207,00
-165,08	301,00
-157,81	201,00
-150,55	164,00
-143,30	294,00
-136,06	422,00
-128,82	410,00
-121,60	434,00
-114,38	392,00
-107,17	621,00
-99,97	538,00
-92,78	505,00
-85,60	773,00
-78,42	904,00
-71,25	1067,00
-64,10	1257,00
-56,95	1414,00
-49,81	1656,00
-42,67	2010,00
-35,55	2521,00
-28,43	3518,00
-21,33	5725,00
-14,23	19212,00
-7,14	55164,00
-0,05	54791,00
7,02	54542,00
14,09	54846,00
21,14	17209,00
28,19	7118,00
35,23	4296,00
42,27	3378,00
49,29	2859,00
56,31	2300,00
63,32	1961,00
70,32	1547,00
77,31	1362,00
84,29	1132,00
91,27	1083,00
98,23	821,00
105,19	812,00
112,14	873,00
119,09	1163,00
126,02	1839,00
132,95	2072,00
139,87	2056,00
146,78	2099,00
153,68	1992,00
160,58	1970,00
167,46	1811,00
174,34	1881,00
181,21	2024,00
188,08	1860,00
194,93	1730,00
201,78	1812,00
208,62	1760,00
215,45	1826,00
222,27	1850,00
229,09	1742,00
235,90	1781,00
242,70	1691,00
249,49	1717,00
256,27	1671,00
263,05	1696,00
269,82	1669,00
276,58	1670,00
283,33	1652,00
290,08	1591,00
296,82	1578,00
303,55	1563,00
310,27	1557,00
316,98	1583,00
323,69	1625,00
330,39	1436,00
337,08	1602,00
343,76	1498,00
350,44	1551,00
357,11	1575,00
363,77	1537,00
370,42	1452,00
377,07	1444,00
383,71	1607,00
390,34	1373,00
396,96	1529,00
403,58	1411,00
410,19	1484,00
416,79	1380,00
423,38	1431,00
429,97	1381,00
436,55	1443,00
443,12	1366,00
449,68	1340,00
456,24	1331,00
462,79	1117,00
469,33	1326,00
475,86	1273,00
482,39	1264,00
488,91	1292,00
495,42	1264,00
501,93	1309,00
508,42	1174,00
514,91	1286,00
521,40	1204,00
527,87	1241,00
534,34	1119,00
540,80	1250,00
547,25	1177,00
553,70	1058,00
560,14	1176,00
566,57	1198,00
573,00	1123,00
579,41	1040,00
585,83	1035,00
592,23	1066,00
598,62	1205,00
605,01	1060,00
611,40	1158,00
617,77	1092,00
624,14	1177,00
630,50	1093,00
636,85	1077,00
643,20	1045,00
649,54	1042,00
655,87	1058,00
662,20	1082,00
668,52	963,00
674,83	973,00
681,13	1033,00
687,43	828,00
693,72	1000,00
700,00	919,00
706,28	979,00
712,55	1014,00
718,81	1133,00
725,07	1028,00
731,32	911,00
737,56	951,00
743,79	1018,00
750,02	964,00
756,24	1020,00
762,46	906,00
768,67	957,00
774,87	941,00
781,06	874,00
787,25	1015,00
793,43	1009,00
799,60	976,00
805,77	818,00
811,93	1048,00
818,08	1011,00
824,23	1039,00
830,37	941,00
836,50	1030,00
842,63	1006,00
848,75	1103,00
854,87	991,00
860,97	1048,00
867,07	982,00
873,17	912,00
879,25	925,00
885,33	897,00
891,41	1013,00
897,47	970,00
903,53	969,00
909,59	947,00
915,63	907,00
921,67	905,00
927,71	840,00
933,74	769,00
939,76	791,00
945,77	832,00
951,78	821,00
957,78	972,00
963,78	800,00
969,77	734,00
975,75	860,00
981,72	917,00
987,69	591,00
993,66	803,00
999,61	835,00
1005,56	795,00
1011,51	876,00
1017,44	931,00
1023,37	827,00
1029,30	785,00
1035,22	893,00
1041,13	918,00
1047,03	825,00
1052,93	940,00
1058,83	1116,00
1064,71	1129,00
1070,59	1111,00
1076,47	1063,00
1082,33	926,00
1088,20	937,00
1094,05	837,00
1099,90	874,00
1105,74	810,00
1111,58	882,00
1117,41	856,00
1123,23	1103,00
1129,05	1256,00
1134,86	1136,00
1140,67	933,00
1146,47	898,00
1152,26	847,00
1158,05	708,00
1163,83	874,00
1169,60	867,00
1175,37	788,00
1181,13	829,00
1186,89	763,00
1192,64	763,00
1198,38	839,00
1204,12	788,00
1209,85	744,00
1215,58	860,00
1221,30	665,00
1227,02	760,00
1232,72	840,00
1238,43	718,00
1244,12	766,00
1249,81	827,00
1255,50	863,00
1261,17	867,00
1266,85	828,00
1272,51	801,00
1278,17	879,00
1283,83	861,00
1289,47	1221,00
1295,12	1336,00
1300,75	1335,00
1306,38	1142,00
1312,01	1054,00
1317,63	966,00
1323,24	919,00
1328,85	1020,00
1334,45	932,00
1340,04	741,00
1345,63	844,00
1351,22	880,00
1356,80	838,00
1362,37	808,00
1367,93	896,00
1373,49	929,00
1379,05	840,00
1384,60	814,00
1390,14	905,00
1395,68	760,00
1401,21	778,00
1406,74	776,00
1412,26	918,00
1417,77	1012,00
1423,28	945,00
1428,78	1137,00
1434,28	1276,00
1439,77	1456,00
1445,26	1440,00
1450,74	1358,00
1456,22	1247,00
1461,68	1265,00
1467,15	1175,00
1472,61	1037,00
1478,06	919,00
1483,51	956,00
1488,95	856,00
1494,38	809,00
1499,81	788,00
1505,24	669,00
1510,65	672,00
1516,07	772,00
1521,48	755,00
1526,88	642,00
1532,27	634,00
1537,67	720,00
1543,05	704,00
1548,43	740,00
1553,81	832,00
1559,18	696,00
1564,54	689,00
1569,90	676,00
1575,25	743,00
1580,60	782,00
1585,94	652,00
1591,28	699,00
1596,61	572,00
1601,93	680,00
1607,25	696,00
1612,57	735,00
1617,88	768,00
1623,18	687,00
1628,48	505,00
1633,77	629,00
1639,06	490,00
1644,34	533,00
1649,62	670,00
1654,89	701,00
1660,16	525,00
1665,42	493,00
1670,67	550,00
1675,92	555,00
1681,17	639,00
1686,41	535,00
1691,64	571,00
1696,87	574,00
1702,10	615,00
1707,32	682,00
1712,53	659,00
1717,74	536,00
1722,94	465,00
1728,14	480,00
1733,33	572,00
1738,52	545,00
1743,70	558,00
1748,88	480,00
1754,05	411,00
1759,22	546,00
1764,38	-1042,00
1769,53	560,00
1774,69	500,00
1779,83	522,00
1784,97	475,00
1790,11	500,00
1795,24	553,00
1800,36	544,00
1805,48	460,00
1810,60	444,00
1815,71	329,00
1820,82	595,00
1825,92	469,00
1831,01	505,00
1836,10	445,00
1841,19	491,00
1846,26	543,00
1851,34	381,00
1856,41	453,00
1861,47	346,00
1866,53	468,00
1871,59	412,00
1876,64	416,00
1881,68	369,00
1886,72	461,00
1891,76	500,00
1896,79	505,00
1901,81	532,00
1906,83	347,00
1911,85	411,00
1916,86	221,00
1921,86	482,00
1926,86	427,00
1931,86	389,00
1936,85	295,00
1941,83	321,00
1946,81	360,00
1951,79	395,00
1956,76	299,00
1961,72	262,00
1966,68	335,00
1971,64	379,00
1976,59	414,00
1981,54	351,00
1986,48	332,00
1991,42	282,00
1996,35	360,00
2001,27	267,00
2006,20	438,00
2011,11	474,00
2016,03	404,00
2020,93	307,00
2025,84	247,00
2030,73	342,00
2035,63	297,00
2040,52	419,00
2045,40	455,00
2050,28	295,00
2055,15	196,00
2060,02	403,00
2064,89	379,00
2069,75	263,00
2074,60	234,00
2079,46	372,00
2084,30	327,00
2089,14	424,00
2093,98	363,00
2098,81	337,00
2103,64	406,00
2108,46	269,00
2113,28	243,00
2118,09	171,00
2122,90	282,00
2127,70	316,00
2132,50	300,00
2137,30	282,00
2142,09	330,00
2146,87	258,00
2151,66	333,00
2156,43	316,00
2161,20	220,00
2165,97	261,00
2170,73	270,00
2175,49	344,00
2180,24	314,00
2184,99	402,00
2189,74	311,00
2194,48	212,00
2199,21	361,00
2203,94	251,00
2208,67	241,00
2213,39	300,00
2218,11	136,00
2222,82	354,00
2227,53	254,00
2232,23	228,00
2236,93	185,00
2241,63	190,00
2246,32	260,00
2251,00	246,00
2255,68	358,00
2260,36	335,00
2265,03	182,00
2269,70	201,00
2274,36	232,00
2279,02	197,00
2283,68	262,00
2288,33	147,00
2292,97	172,00
2297,61	243,00
2302,25	324,00
2306,88	325,00
2311,51	157,00
2316,14	229,00
2320,75	253,00
2325,37	155,00
2329,98	224,00
2334,59	215,00
2339,19	211,00
2343,79	161,00
2348,38	174,00
2352,97	206,00
2357,55	264,00
2362,13	153,00
2366,71	290,00
2371,28	246,00
2375,85	212,00
2380,41	160,00
2384,97	164,00
2389,52	129,00
2394,07	167,00
2398,62	142,00
2403,16	264,00
2407,70	285,00
2412,23	299,00
2416,76	207,00
2421,29	268,00
2425,81	194,00
2430,32	319,00
2434,84	189,00
2439,34	261,00
2443,85	142,00
2448,35	183,00
2452,84	127,00
2457,33	80,00
2461,82	263,00
2466,30	166,00
2470,78	185,00
2475,25	145,00
2479,72	156,00
2484,19	192,00
2488,65	212,00
2493,11	113,00
2497,56	149,00
2502,01	231,00
2506,46	232,00
2510,90	169,00
2515,34	353,00
2519,77	114,00
2524,20	207,00
2528,62	95,00
2533,04	212,00
2537,46	172,00
2541,87	89,00
2546,28	250,00
2550,68	170,00
2555,08	167,00
2559,48	214,00
2563,87	79,00
2568,26	194,00
2572,64	168,00
2577,02	256,00
2581,40	137,00
2585,77	121,00
2590,14	26,00
2594,50	86,00
2598,86	197,00
2603,22	215,00
2607,57	144,00
2611,92	176,00
2616,26	156,00
2620,60	236,00
2624,94	179,00
2629,27	248,00
2633,60	87,00
2637,92	159,00
2642,24	134,00
2646,56	111,00
2650,87	15,00
2655,18	153,00
2659,48	142,00
2663,78	149,00
2668,08	224,00
2672,37	318,00
2676,66	174,00
2680,95	246,00
2685,23	93,00
2689,50	194,00
2693,78	145,00
2698,05	189,00
2702,31	247,00
2706,57	243,00
2710,83	184,00
2715,08	255,00
2719,33	319,00
2723,58	378,00
2727,82	293,00
2732,06	273,00
2736,29	260,00
2740,53	239,00
2744,75	222,00
2748,97	274,00
2753,19	312,00
2757,41	195,00
2761,62	337,00
2765,83	226,00
2770,03	128,00
2774,23	99,00
2778,43	248,00
2782,62	141,00
2786,81	291,00
2791,00	142,00
2795,18	255,00
2799,35	144,00
2803,53	346,00
2807,70	431,00
2811,86	273,00
2816,03	335,00
2820,19	223,00
2824,34	425,00
2828,49	582,00
2832,64	484,00
2836,78	509,00
2840,92	715,00
2845,06	885,00
2849,19	888,00
2853,32	983,00
2857,45	998,00
2861,57	1153,00
2865,69	944,00
2869,80	1085,00
2873,91	993,00
2878,02	1065,00
2882,12	976,00
2886,22	1042,00
2890,32	969,00
2894,41	854,00
2898,50	907,00
2902,58	836,00
2906,67	865,00
2910,74	714,00
2914,82	638,00
2918,89	607,00
2922,96	665,00
2927,02	589,00
2931,08	650,00
2935,13	565,00
2939,19	520,00
2943,24	411,00
2947,28	310,00
2951,32	300,00
2955,36	376,00
2959,40	307,00
2963,43	251,00
2967,46	294,00
2971,48	288,00
2975,50	235,00
2979,52	244,00
2983,53	185,00
2987,54	270,00
2991,55	191,00
2995,55	189,00
2999,55	85,00
3003,54	201,00
3007,54	71,00
3011,53	125,00
3015,51	135,00
3019,49	111,00
3023,47	178,00
3027,45	219,00
3031,42	48,00
3035,39	96,00
3039,35	182,00
3043,31	-25,00
3047,27	96,00
3051,22	105,00
3055,17	15,00
3059,12	-44,00
3063,06	88,00
3067,00	56,00
3070,94	67,00
3074,87	8,00
3078,80	185,00
3082,73	111,00
3086,65	21,00
3090,57	-24,00
3094,49	168,00
3098,40	128,00
3102,31	91,00
3106,22	78,00
3110,12	68,00
3114,02	75,00
3117,92	24,00
3121,81	87,00
3125,70	88,00
3129,58	69,00
3133,47	88,00
3137,34	62,00
3141,22	46,00
3145,09	108,00
3148,96	82,00
3152,83	-23,00
3156,69	-2,00
3160,55	103,00
3164,40	-58,00
3168,26	49,00
3172,10	198,00
3175,95	90,00
3179,79	46,00
3183,63	54,00
3187,47	115,00
3191,30	121,00
3195,13	75,00
3198,95	98,00
3202,78	59,00
3206,60	131,00
3210,41	55,00
3214,23	128,00
3218,03	10,00
3221,84	59,00
3225,64	-40,00
3229,44	56,00
3233,24	222,00
3237,03	151,00
3240,82	-47,00
3244,61	64,00
3248,39	60,00
3252,17	104,00
3255,95	154,00
3259,72	139,00
3263,49	43,00
3267,26	43,00
3271,03	72,00
3274,79	120,00
3278,54	103,00
3282,30	50,00
3286,05	101,00
3289,80	-31,00
3293,54	39,00
3297,29	38,00
3301,02	-112,00
3304,76	125,00
3308,49	-2,00
3312,22	5,00
3315,95	112,00
3319,67	-46,00
3323,39	102,00
3327,10	9,00
3330,82	176,00
3334,53	17,00
3338,24	49,00
3341,94	142,00
3345,64	75,00
3349,34	25,00
3353,03	53,00
3356,72	70,00
3360,41	-19,00
3364,10	119,00
3367,78	83,00
3371,46	51,00
3375,13	74,00
3378,81	49,00
3382,48	73,00
3386,14	133,00
3389,81	-41,00
3393,47	85,00
3397,12	40,00
3400,78	74,00
3404,43	128,00
3408,08	94,00
3411,72	38,00
3415,36	74,00
3419,00	-72,00
3422,64	-120,00
3426,27	31,00
3429,90	-31,00
3433,53	27,00
3437,15	79,00
3440,77	94,00
3444,39	24,00
3448,00	34,00
3451,62	124,00
3455,22	32,00
3458,83	-24,00
3462,43	2,00
3466,03	8,00
3469,63	5,00
3473,22	108,00
3476,81	-37,00
3480,40	52,00
3483,99	40,00
3487,57	129,00
3491,15	-16,00
3494,72	27,00
3498,29	91,00
3501,86	77,00
3505,43	158,00
3508,99	-47,00
3512,56	39,00
3516,11	57,00
3519,67	49,00
3523,22	90,00
3526,77	108,00
3530,32	31,00
3533,86	-35,00
3537,40	36,00
3540,94	128,00
3544,47	-58,00
3548,00	131,00
3551,53	27,00
3555,06	37,00
3558,58	37,00
3562,10	26,00
3565,62	38,00
3569,13	76,00
3572,64	227,00
3576,15	87,00
3579,66	98,00
3583,16	68,00
3586,66	2,00
3590,16	3,00
3593,65	100,00
3597,14	26,00
3600,63	62,00
3604,11	-1,00
3607,60	19,00
3611,08	68,00
3614,55	0,00
3618,03	24,00
3621,50	-11,00
3624,97	146,00
3628,43	28,00
3631,90	-37,00
3635,36	5,00
3638,81	-29,00
3642,27	-65,00
3645,72	80,00
3649,17	75,00
3652,61	-2,00
3656,06	-60,00
3659,50	71,00
3662,93	26,00
3666,37	-56,00
3669,80	36,00
3673,23	38,00
3676,65	145,00
3680,08	58,00
3683,50	-37,00
3686,92	-44,00
3690,33	66,00
3693,74	36,00
3697,15	69,00
3700,56	88,00
3703,96	-40,00
3707,36	-43,00
3710,76	-41,00
3714,16	-21,00
3717,55	32,00
3720,94	-3,00
3724,33	81,00
3727,71	37,00
3731,10	35,00
3734,48	-36,00
3737,85	-74,00
3741,23	-39,00
3744,60	-71,00
3747,97	-104,00
3751,33	47,00
3754,69	154,00
3758,05	93,00
3761,41	-173,00
3764,77	12,00
3768,12	26,00
3771,47	51,00
3774,82	-5,00
3778,16	-2,00
3781,50	0,00
3784,84	8,00
3788,18	7,00
>>>>>End Processed Spectral Data<<<<<
