SpectraSuite Data File
++++++++++++++++++++++++++++++++++++
Date: Mon Mar 09 15:47:14 ICT 2026
User: Administrator
Dark Spectrum Present: Yes
Reference Spectrum Present: No
Number of Sampled Component Spectra: 1
Spectrometers: MAYP113682
Integration Time (usec): 3000000 (MAYP113682)
Spectra Averaged: 1 (MAYP113682)
Boxcar Smoothing: 0 (MAYP113682)
Correct for Electrical Dark: No (MAYP113682)
Strobe/Lamp Enabled: No (MAYP113682)
Correct for Detector Non-linearity: No (MAYP113682)
Correct for Stray Light: No (MAYP113682)
Number of Pixels in Processed Spectrum: 2068
>>>>>Begin Processed Spectral Data<<<<<
-37534,58	7,00
-37414,56	-3,00
-37295,11	3,00
-37176,24	4,00
-37057,95	335,00
-36940,22	243,00
-36823,05	334,00
-36706,45	281,00
-36590,40	384,00
-36474,90	346,00
-36359,95	261,00
-36245,55	389,00
-36131,68	225,00
-36018,35	341,00
-35905,55	277,00
-35793,29	356,00
-35681,54	427,00
-35570,32	270,00
-35459,62	338,00
-35349,43	154,00
-35239,75	322,00
-35130,58	381,00
-35021,91	257,00
-34913,74	300,00
-34806,07	369,00
-34698,89	291,00
-34592,20	326,00
-34486,00	333,00
-34380,28	274,00
-34275,04	290,00
-34170,27	298,00
-34065,98	316,00
-33962,16	454,00
-33858,81	396,00
-33755,92	298,00
-33653,49	346,00
-33551,52	366,00
-33450,01	515,00
-33348,94	324,00
-33248,33	378,00
-33148,16	382,00
-33048,43	394,00
-32949,14	361,00
-32850,29	430,00
-32751,87	400,00
-32653,89	353,00
-32556,33	315,00
-32459,20	355,00
-32362,49	361,00
-32266,19	436,00
-32170,32	361,00
-32074,86	461,00
-31979,82	383,00
-31885,18	344,00
-31790,95	368,00
-31697,12	331,00
-31603,69	414,00
-31510,67	315,00
-31418,04	386,00
-31325,80	292,00
-31233,95	481,00
-31142,49	428,00
-31051,42	420,00
-30960,73	465,00
-30870,43	375,00
-30780,50	423,00
-30690,95	443,00
-30601,77	486,00
-30512,97	371,00
-30424,53	375,00
-30336,46	391,00
-30248,76	330,00
-30161,42	542,00
-30074,44	445,00
-29987,81	474,00
-29901,55	456,00
-29815,63	358,00
-29730,07	344,00
-29644,86	273,00
-29560,00	402,00
-29475,48	472,00
-29391,30	239,00
-29307,47	402,00
-29223,97	383,00
-29140,81	376,00
-29057,99	385,00
-28975,50	256,00
-28893,34	467,00
-28811,51	341,00
-28730,00	408,00
-28648,82	394,00
-28567,97	485,00
-28487,43	360,00
-28407,21	370,00
-28327,32	277,00
-28247,73	312,00
-28168,46	418,00
-28089,50	274,00
-28010,85	359,00
-27932,51	304,00
-27854,48	345,00
-27776,75	371,00
-27699,32	465,00
-27622,19	401,00
-27545,37	507,00
-27468,84	390,00
-27392,60	400,00
-27316,66	391,00
-27241,01	411,00
-27165,66	449,00
-27090,59	311,00
-27015,81	414,00
-26941,31	458,00
-26867,10	422,00
-26793,17	483,00
-26719,52	449,00
-26646,15	408,00
-26573,06	325,00
-26500,24	367,00
-26427,70	358,00
-26355,43	285,00
-26283,43	379,00
-26211,71	471,00
-26140,25	409,00
-26069,06	349,00
-25998,13	348,00
-25927,46	366,00
-25857,06	306,00
-25786,92	290,00
-25717,04	413,00
-25647,42	536,00
-25578,05	377,00
-25508,94	373,00
-25440,09	337,00
-25371,48	354,00
-25303,13	445,00
-25235,02	361,00
-25167,17	356,00
-25099,56	493,00
-25032,19	402,00
-24965,07	345,00
-24898,20	342,00
-24831,56	409,00
-24765,17	352,00
-24699,01	270,00
-24633,10	299,00
-24567,41	215,00
-24501,97	347,00
-24436,75	523,00
-24371,77	306,00
-24307,03	387,00
-24242,51	394,00
-24178,22	377,00
-24114,16	425,00
-24050,32	459,00
-23986,71	183,00
-23923,32	401,00
-23860,16	293,00
-23797,22	348,00
-23734,50	401,00
-23672,00	364,00
-23609,71	325,00
-23547,65	325,00
-23485,80	328,00
-23424,16	374,00
-23362,74	397,00
-23301,53	426,00
-23240,54	348,00
-23179,75	385,00
-23119,17	422,00
-23058,80	323,00
-22998,64	386,00
-22938,68	362,00
-22878,93	341,00
-22819,39	299,00
-22760,04	284,00
-22700,90	343,00
-22641,96	363,00
-22583,22	289,00
-22524,68	408,00
-22466,33	326,00
-22408,19	428,00
-22350,23	303,00
-22292,48	386,00
-22234,92	501,00
-22177,55	358,00
-22120,37	458,00
-22063,38	385,00
-22006,58	307,00
-21949,98	403,00
-21893,56	289,00
-21837,33	369,00
-21781,28	447,00
-21725,42	345,00
-21669,74	386,00
-21614,25	345,00
-21558,94	230,00
-21503,81	386,00
-21448,86	405,00
-21394,10	282,00
-21339,51	416,00
-21285,10	388,00
-21230,86	363,00
-21176,81	401,00
-21122,93	382,00
-21069,22	442,00
-21015,69	287,00
-20962,33	386,00
-20909,14	362,00
-20856,13	359,00
-20803,28	340,00
-20750,61	374,00
-20698,10	297,00
-20645,76	382,00
-20593,59	437,00
-20541,59	346,00
-20489,75	536,00
-20438,07	396,00
-20386,56	386,00
-20335,22	311,00
-20284,03	376,00
-20233,01	444,00
-20182,15	370,00
-20131,45	380,00
-20080,91	352,00
-20030,52	322,00
-19980,30	334,00
-19930,23	374,00
-19880,32	531,00
-19830,56	340,00
-19780,96	215,00
-19731,52	358,00
-19682,23	398,00
-19633,09	353,00
-19584,10	364,00
-19535,26	384,00
-19486,58	370,00
-19438,04	462,00
-19389,66	430,00
-19341,42	327,00
-19293,33	265,00
-19245,39	228,00
-19197,60	409,00
-19149,95	453,00
-19102,45	342,00
-19055,09	281,00
-19007,87	411,00
-18960,80	370,00
-18913,87	455,00
-18867,09	298,00
-18820,44	327,00
-18773,94	470,00
-18727,57	324,00
-18681,35	418,00
-18635,26	307,00
-18589,31	237,00
-18543,50	385,00
-18497,83	404,00
-18452,29	372,00
-18406,89	316,00
-18361,63	382,00
-18316,50	402,00
-18271,50	361,00
-18226,63	457,00
-18181,90	406,00
-18137,30	426,00
-18092,84	265,00
-18048,50	272,00
-18004,29	376,00
-17960,22	394,00
-17916,27	273,00
-17872,45	401,00
-17828,76	351,00
-17785,20	300,00
-17741,77	309,00
-17698,46	431,00
-17655,28	365,00
-17612,22	341,00
-17569,29	348,00
-17526,48	363,00
-17483,79	453,00
-17441,23	227,00
-17398,79	326,00
-17356,48	421,00
-17314,28	404,00
-17272,21	385,00
-17230,26	248,00
-17188,42	351,00
-17146,71	299,00
-17105,12	288,00
-17063,64	422,00
-17022,28	320,00
-16981,04	318,00
-16939,92	286,00
-16898,91	437,00
-16858,02	314,00
-16817,25	498,00
-16776,59	383,00
-16736,04	394,00
-16695,61	381,00
-16655,29	264,00
-16615,09	387,00
-16574,99	415,00
-16535,01	239,00
-16495,15	454,00
-16455,39	313,00
-16415,74	410,00
-16376,21	318,00
-16336,78	322,00
-16297,46	190,00
-16258,26	325,00
-16219,16	367,00
-16180,17	340,00
-16141,28	293,00
-16102,51	341,00
-16063,84	349,00
-16025,27	323,00
-15986,82	468,00
-15948,46	309,00
-15910,22	362,00
-15872,07	430,00
-15834,04	402,00
-15796,10	320,00
-15758,27	408,00
-15720,54	320,00
-15682,91	374,00
-15645,39	398,00
-15607,97	309,00
-15570,64	339,00
-15533,42	292,00
-15496,30	274,00
-15459,28	481,00
-15422,36	352,00
-15385,54	345,00
-15348,82	334,00
-15312,19	296,00
-15275,66	367,00
-15239,23	364,00
-15202,90	287,00
-15166,67	260,00
-15130,53	283,00
-15094,48	327,00
-15058,54	418,00
-15022,68	351,00
-14986,93	373,00
-14951,26	422,00
-14915,69	316,00
-14880,22	229,00
-14844,84	439,00
-14809,55	529,00
-14774,35	414,00
-14739,25	406,00
-14704,24	263,00
-14669,32	383,00
-14634,49	334,00
-14599,75	415,00
-14565,10	280,00
-14530,55	379,00
-14496,08	427,00
-14461,70	333,00
-14427,41	375,00
-14393,21	326,00
-14359,10	398,00
-14325,07	351,00
-14291,14	316,00
-14257,29	464,00
-14223,52	428,00
-14189,85	322,00
-14156,26	360,00
-14122,76	384,00
-14089,34	369,00
-14056,01	315,00
-14022,76	317,00
-13989,60	329,00
-13956,52	286,00
-13923,53	234,00
-13890,62	305,00
-13857,79	326,00
-13825,05	319,00
-13792,39	447,00
-13759,81	368,00
-13727,31	469,00
-13694,90	288,00
-13662,57	419,00
-13630,31	373,00
-13598,14	415,00
-13566,05	264,00
-13534,05	323,00
-13502,12	433,00
-13470,27	311,00
-13438,50	355,00
-13406,80	429,00
-13375,19	374,00
-13343,66	363,00
-13312,20	436,00
-13280,83	299,00
-13249,53	359,00
-13218,30	404,00
-13187,16	380,00
-13156,09	429,00
-13125,10	304,00
-13094,18	364,00
-13063,34	366,00
-13032,58	313,00
-13001,89	345,00
-12971,28	385,00
-12940,74	357,00
-12910,27	353,00
-12879,88	327,00
-12849,57	392,00
-12819,33	355,00
-12789,16	323,00
-12759,06	344,00
-12729,04	265,00
-12699,09	865,00
-12669,21	338,00
-12639,41	371,00
-12609,68	267,00
-12580,02	328,00
-12550,43	397,00
-12520,91	343,00
-12491,46	280,00
-12462,08	357,00
-12432,77	288,00
-12403,54	387,00
-12374,37	323,00
-12345,27	270,00
-12316,24	441,00
-12287,29	355,00
-12258,40	221,00
-12229,57	379,00
-12200,82	379,00
-12172,14	394,00
-12143,52	150,00
-12114,97	301,00
-12086,49	367,00
-12058,07	366,00
-12029,73	408,00
-12001,44	501,00
-11973,23	302,00
-11945,08	359,00
-11917,00	392,00
-11888,98	402,00
-11861,03	443,00
-11833,15	283,00
-11805,32	250,00
-11777,57	325,00
-11749,88	324,00
-11722,25	380,00
-11694,69	341,00
-11667,19	374,00
-11639,75	364,00
-11612,38	355,00
-11585,07	359,00
-11557,83	370,00
-11530,65	340,00
-11503,53	359,00
-11476,47	319,00
-11449,48	303,00
-11422,54	390,00
-11395,67	353,00
-11368,86	463,00
-11342,11	405,00
-11315,43	380,00
-11288,80	387,00
-11262,23	390,00
-11235,73	308,00
-11209,28	312,00
-11182,90	235,00
-11156,57	458,00
-11130,31	392,00
-11104,10	344,00
-11077,96	518,00
-11051,87	422,00
-11025,84	415,00
-10999,87	142,00
-10973,96	398,00
-10948,11	342,00
-10922,31	170,00
-10896,58	406,00
-10870,90	348,00
-10845,28	327,00
-10819,71	393,00
-10794,20	264,00
-10768,75	391,00
-10743,36	397,00
-10718,02	347,00
-10692,74	406,00
-10667,52	287,00
-10642,35	331,00
-10617,24	363,00
-10592,18	351,00
-10567,18	322,00
-10542,23	518,00
-10517,34	202,00
-10492,51	405,00
-10467,72	320,00
-10443,00	355,00
-10418,32	272,00
-10393,70	324,00
-10369,14	385,00
-10344,63	389,00
-10320,17	355,00
-10295,77	421,00
-10271,42	215,00
-10247,12	381,00
-10222,88	419,00
-10198,68	277,00
-10174,54	311,00
-10150,46	271,00
-10126,42	312,00
-10102,44	310,00
-10078,51	244,00
-10054,63	345,00
-10030,80	278,00
-10007,03	336,00
-9983,30	256,00
-9959,63	156,00
-9936,01	227,00
-9912,44	215,00
-9888,92	332,00
-9865,44	258,00
-9842,02	248,00
-9818,65	198,00
-9795,33	93,00
-9772,06	147,00
-9748,84	143,00
-9725,67	98,00
-9702,55	190,00
-9679,47	159,00
-9656,45	173,00
-9633,47	-8,00
-9610,55	45,00
-9587,67	65,00
-9564,84	160,00
-9542,06	-126,00
-9519,32	-178,00
-9496,64	-102,00
-9474,00	-198,00
-9451,41	-339,00
-9428,87	-221,00
-9406,37	-331,00
-9383,92	-118,00
-9361,52	-284,00
-9339,17	-218,00
-9316,86	-422,00
-9294,60	-351,00
-9272,38	-379,00
-9250,21	-391,00
-9228,09	-634,00
-9206,01	-546,00
-9183,98	-431,00
-9162,00	-476,00
-9140,06	-368,00
-9118,16	-425,00
-9096,31	-619,00
-9074,51	-544,00
-9052,75	-533,00
-9031,04	-367,00
-9009,37	-465,00
-8987,74	-427,00
-8966,16	-298,00
-8944,63	-141,00
-8923,14	-388,00
-8901,69	-271,00
-8880,29	-192,00
-8858,93	-250,00
-8837,61	-184,00
-8816,34	-177,00
-8795,11	-411,00
-8773,92	-247,00
-8752,78	-214,00
-8731,68	-70,00
-8710,62	-139,00
-8689,61	-315,00
-8668,63	-295,00
-8647,70	-305,00
-8626,82	-265,00
-8605,97	-292,00
-8585,17	-227,00
-8564,41	-247,00
-8543,69	-127,00
-8523,01	-117,00
-8502,37	-64,00
-8481,78	-81,00
-8461,23	-274,00
-8440,71	-225,00
-8420,24	-313,00
-8399,81	-160,00
-8379,42	-129,00
-8359,08	-69,00
-8338,77	-203,00
-8318,50	-145,00
-8298,27	18,00
-8278,09	-240,00
-8257,94	-159,00
-8237,83	-141,00
-8217,76	-167,00
-8197,74	-232,00
-8177,75	-167,00
-8157,80	-10,00
-8137,89	-108,00
-8118,02	-90,00
-8098,19	-129,00
-8078,40	-47,00
-8058,65	-134,00
-8038,93	17,00
-8019,26	-77,00
-7999,62	-48,00
-7980,02	-40,00
-7960,46	-15,00
-7940,94	-27,00
-7921,46	26,00
-7902,01	-48,00
-7882,60	100,00
-7863,23	-11,00
-7843,90	52,00
-7824,61	-8,00
-7805,35	41,00
-7786,13	-109,00
-7766,95	39,00
-7747,80	-54,00
-7728,69	123,00
-7709,62	91,00
-7690,59	75,00
-7671,59	0,00
-7652,63	25,00
-7633,70	8,00
-7614,81	-62,00
-7595,96	8,00
-7577,15	70,00
-7558,37	-10,00
-7539,62	192,00
-7520,91	-40,00
-7502,24	-7,00
-7483,60	18,00
-7465,00	-26,00
-7446,44	44,00
-7427,91	4,00
-7409,41	114,00
-7390,95	155,00
-7372,53	71,00
-7354,14	106,00
-7335,78	68,00
-7317,46	98,00
-7299,18	28,00
-7280,92	-18,00
-7262,71	40,00
-7244,52	-22,00
-7226,38	22,00
-7208,26	88,00
-7190,18	-97,00
-7172,14	77,00
-7154,12	84,00
-7136,15	-105,00
-7118,20	42,00
-7100,29	23,00
-7082,41	44,00
-7064,57	-119,00
-7046,76	55,00
-7028,98	-30,00
-7011,24	187,00
-6993,53	50,00
-6975,85	67,00
-6958,20	173,00
-6940,59	227,00
-6923,01	114,00
-6905,46	124,00
-6887,94	13,00
-6870,46	2622,00
-6853,01	-34,00
-6835,59	99,00
-6818,21	94,00
-6800,85	237,00
-6783,53	122,00
-6766,24	126,00
-6748,98	125,00
-6731,76	192,00
-6714,56	192,00
-6697,40	128,00
-6680,26	125,00
-6663,16	70,00
-6646,09	157,00
-6629,05	21,00
-6612,05	68,00
-6595,07	15,00
-6578,13	9,00
-6561,21	162,00
-6544,33	176,00
-6527,47	194,00
-6510,65	114,00
-6493,86	230,00
-6477,10	142,00
-6460,36	170,00
-6443,66	216,00
-6426,99	115,00
-6410,35	255,00
-6393,74	122,00
-6377,16	221,00
-6360,61	165,00
-6344,09	89,00
-6327,59	154,00
-6311,13	20,00
-6294,70	76,00
-6278,29	126,00
-6261,92	-4,00
-6245,58	76,00
-6229,26	157,00
-6212,97	149,00
-6196,72	159,00
-6180,49	335,00
-6164,29	176,00
-6148,12	306,00
-6131,98	245,00
-6115,86	215,00
-6099,78	176,00
-6083,72	71,00
-6067,69	330,00
-6051,69	228,00
-6035,72	299,00
-6019,78	136,00
-6003,87	143,00
-5987,98	120,00
-5972,12	78,00
-5956,29	98,00
-5940,49	156,00
-5924,71	316,00
-5908,96	286,00
-5893,24	237,00
-5877,55	216,00
-5861,89	197,00
-5846,25	176,00
-5830,64	153,00
-5815,05	300,00
-5799,50	137,00
-5783,97	164,00
-5768,47	304,00
-5752,99	259,00
-5737,55	263,00
-5722,12	133,00
-5706,73	209,00
-5691,36	125,00
-5676,02	250,00
-5660,71	272,00
-5645,42	279,00
-5630,16	63,00
-5614,92	287,00
-5599,71	83,00
-5584,53	307,00
-5569,37	108,00
-5554,24	-468,00
-5539,14	200,00
-5524,06	161,00
-5509,01	239,00
-5493,98	121,00
-5478,98	126,00
-5464,00	260,00
-5449,05	308,00
-5434,13	310,00
-5419,23	279,00
-5404,36	258,00
-5389,51	124,00
-5374,69	236,00
-5359,89	205,00
-5345,12	176,00
-5330,37	278,00
-5315,65	121,00
-5300,95	236,00
-5286,28	206,00
-5271,63	108,00
-5257,01	284,00
-5242,41	256,00
-5227,84	227,00
-5213,29	241,00
-5198,76	220,00
-5184,26	240,00
-5169,79	276,00
-5155,33	197,00
-5140,91	179,00
-5126,51	328,00
-5112,13	197,00
-5097,77	184,00
-5083,44	266,00
-5069,13	293,00
-5054,85	251,00
-5040,59	250,00
-5026,36	234,00
-5012,15	140,00
-4997,96	192,00
-4983,80	212,00
-4969,66	310,00
-4955,54	293,00
-4941,44	311,00
-4927,37	277,00
-4913,33	130,00
-4899,30	188,00
-4885,30	156,00
-4871,33	249,00
-4857,37	214,00
-4843,44	351,00
-4829,53	390,00
-4815,65	308,00
-4801,79	155,00
-4787,95	287,00
-4774,13	202,00
-4760,34	326,00
-4746,56	364,00
-4732,82	349,00
-4719,09	271,00
-4705,38	278,00
-4691,70	257,00
-4678,04	131,00
-4664,41	175,00
-4650,79	297,00
-4637,20	333,00
-4623,63	282,00
-4610,08	237,00
-4596,56	215,00
-4583,05	247,00
-4569,57	360,00
-4556,11	370,00
-4542,67	213,00
-4529,25	369,00
-4515,86	311,00
-4502,49	174,00
-4489,13	167,00
-4475,80	218,00
-4462,49	204,00
-4449,21	335,00
-4435,94	335,00
-4422,70	313,00
-4409,47	247,00
-4396,27	350,00
-4383,09	148,00
-4369,93	324,00
-4356,79	428,00
-4343,67	316,00
-4330,58	232,00
-4317,50	411,00
-4304,45	289,00
-4291,41	296,00
-4278,40	415,00
-4265,41	253,00
-4252,44	347,00
-4239,49	197,00
-4226,55	244,00
-4213,65	411,00
-4200,76	362,00
-4187,89	281,00
-4175,04	296,00
-4162,21	297,00
-4149,40	261,00
-4136,61	262,00
-4123,85	337,00
-4111,10	360,00
-4098,37	383,00
-4085,66	234,00
-4072,98	340,00
-4060,31	379,00
-4047,66	368,00
-4035,04	366,00
-4022,43	390,00
-4009,84	492,00
-3997,27	297,00
-3984,72	311,00
-3972,19	350,00
-3959,69	326,00
-3947,20	337,00
-3934,73	426,00
-3922,27	321,00
-3909,84	245,00
-3897,43	330,00
-3885,04	335,00
-3872,67	424,00
-3860,31	408,00
-3847,98	357,00
-3835,66	360,00
-3823,36	330,00
-3811,09	328,00
-3798,83	404,00
-3786,59	495,00
-3774,37	413,00
-3762,17	455,00
-3749,98	388,00
-3737,82	384,00
-3725,67	572,00
-3713,55	265,00
-3701,44	379,00
-3689,35	317,00
-3677,28	450,00
-3665,22	516,00
-3653,19	325,00
-3641,17	315,00
-3629,18	346,00
-3617,20	420,00
-3605,24	369,00
-3593,30	358,00
-3581,37	400,00
-3569,47	335,00
-3557,58	115,00
-3545,71	465,00
-3533,86	419,00
-3522,02	448,00
-3510,21	457,00
-3498,41	317,00
-3486,63	434,00
-3474,87	379,00
-3463,12	431,00
-3451,40	406,00
-3439,69	342,00
-3428,00	324,00
-3416,33	391,00
-3404,67	336,00
-3393,03	334,00
-3381,41	335,00
-3369,81	316,00
-3358,22	349,00
-3346,66	460,00
-3335,10	376,00
-3323,57	305,00
-3312,06	467,00
-3300,56	355,00
-3289,08	322,00
-3277,61	372,00
-3266,16	454,00
-3254,73	457,00
-3243,32	283,00
-3231,92	415,00
-3220,55	426,00
-3209,18	403,00
-3197,84	294,00
-3186,51	395,00
-3175,20	315,00
-3163,90	429,00
-3152,63	389,00
-3141,36	365,00
-3130,12	362,00
-3118,89	351,00
-3107,68	362,00
-3096,49	369,00
-3085,31	234,00
-3074,15	484,00
-3063,00	490,00
-3051,87	411,00
-3040,76	387,00
-3029,67	352,00
-3018,59	360,00
-3007,52	338,00
-2996,48	467,00
-2985,44	373,00
-2974,43	397,00
-2963,43	269,00
-2952,45	322,00
-2941,48	515,00
-2930,53	339,00
-2919,60	491,00
-2908,68	378,00
-2897,78	214,00
-2886,89	397,00
-2876,02	429,00
-2865,17	422,00
-2854,33	391,00
-2843,50	428,00
-2832,70	456,00
-2821,90	474,00
-2811,13	371,00
-2800,37	434,00
-2789,62	431,00
-2778,89	401,00
-2768,18	486,00
-2757,48	367,00
-2746,80	333,00
-2736,13	418,00
-2725,48	401,00
-2714,84	390,00
-2704,22	321,00
-2693,61	316,00
-2683,02	330,00
-2672,45	377,00
-2661,89	422,00
-2651,34	398,00
-2640,81	451,00
-2630,30	452,00
-2619,80	465,00
-2609,31	402,00
-2598,84	299,00
-2588,39	345,00
-2577,95	218,00
-2567,52	335,00
-2557,11	394,00
-2546,71	358,00
-2536,33	372,00
-2525,97	270,00
-2515,62	408,00
-2505,28	319,00
-2494,96	392,00
-2484,65	401,00
-2474,36	477,00
-2464,08	346,00
-2453,82	386,00
-2443,57	240,00
-2433,33	340,00
-2423,11	317,00
-2412,91	323,00
-2402,72	311,00
-2392,54	275,00
-2382,38	209,00
-2372,23	324,00
-2362,09	552,00
-2351,97	477,00
-2341,87	181,00
-2331,78	402,00
-2321,70	382,00
-2311,64	304,00
-2301,59	401,00
-2291,55	271,00
-2281,53	406,00
-2271,53	253,00
-2261,53	312,00
-2251,55	471,00
-2241,59	344,00
-2231,64	332,00
-2221,70	330,00
-2211,78	397,00
-2201,87	350,00
-2191,97	485,00
-2182,09	364,00
-2172,22	357,00
-2162,37	291,00
-2152,53	329,00
-2142,70	322,00
-2132,89	315,00
-2123,09	357,00
-2113,30	316,00
-2103,53	445,00
-2093,77	415,00
-2084,02	461,00
-2074,29	486,00
-2064,57	406,00
-2054,86	389,00
-2045,17	395,00
-2035,49	352,00
-2025,82	379,00
-2016,17	332,00
-2006,53	384,00
-1996,91	329,00
-1987,29	373,00
-1977,69	419,00
-1968,11	346,00
-1958,53	367,00
-1948,97	356,00
-1939,42	340,00
-1929,89	438,00
-1920,37	385,00
-1910,86	358,00
-1901,36	411,00
-1891,88	426,00
-1882,41	253,00
-1872,95	412,00
-1863,51	304,00
-1854,08	326,00
-1844,66	346,00
-1835,26	304,00
-1825,86	363,00
-1816,48	324,00
-1807,11	274,00
-1797,76	358,00
-1788,42	330,00
-1779,09	315,00
-1769,77	448,00
-1760,47	379,00
-1751,17	364,00
-1741,89	321,00
-1732,63	336,00
-1723,37	388,00
-1714,13	349,00
-1704,90	534,00
-1695,68	358,00
-1686,48	399,00
-1677,29	264,00
-1668,11	460,00
-1658,94	405,00
-1649,78	373,00
-1640,64	328,00
-1631,51	511,00
-1622,39	480,00
-1613,28	340,00
-1604,19	474,00
-1595,10	412,00
-1586,03	397,00
-1576,97	410,00
-1567,93	426,00
-1558,89	481,00
-1549,87	409,00
-1540,86	375,00
-1531,86	377,00
-1522,87	424,00
-1513,90	442,00
-1504,93	356,00
-1495,98	373,00
-1487,04	408,00
-1478,12	333,00
-1469,20	403,00
-1460,30	390,00
-1451,40	453,00
-1442,52	381,00
-1433,65	392,00
-1424,80	429,00
-1415,95	389,00
-1407,12	473,00
-1398,30	390,00
-1389,48	384,00
-1380,69	372,00
-1371,90	282,00
-1363,12	342,00
-1354,36	567,00
-1345,60	289,00
-1336,86	470,00
-1328,13	413,00
-1319,41	415,00
-1310,70	335,00
-1302,01	462,00
-1293,32	451,00
-1284,65	347,00
-1275,99	364,00
-1267,33	383,00
-1258,69	422,00
-1250,06	268,00
-1241,45	381,00
-1232,84	349,00
-1224,25	395,00
-1215,66	329,00
-1207,09	253,00
-1198,53	340,00
-1189,97	240,00
-1181,43	263,00
-1172,91	381,00
-1164,39	376,00
-1155,88	364,00
-1147,38	312,00
-1138,90	479,00
-1130,43	310,00
-1121,96	329,00
-1113,51	379,00
-1105,07	329,00
-1096,64	460,00
-1088,22	436,00
-1079,81	506,00
-1071,41	476,00
-1063,02	383,00
-1054,65	498,00
-1046,28	386,00
-1037,92	289,00
-1029,58	340,00
-1021,24	316,00
-1012,92	442,00
-1004,61	329,00
-996,30	579,00
-988,01	259,00
-979,73	447,00
-971,46	363,00
-963,20	252,00
-954,95	310,00
-946,71	321,00
-938,48	484,00
-930,26	350,00
-922,06	250,00
-913,86	340,00
-905,67	309,00
-897,49	405,00
-889,33	380,00
-881,17	333,00
-873,02	389,00
-864,89	289,00
-856,76	274,00
-848,65	439,00
-840,54	467,00
-832,45	488,00
-824,36	368,00
-816,29	463,00
-808,22	383,00
-800,17	487,00
-792,12	401,00
-784,09	460,00
-776,06	416,00
-768,05	437,00
-760,04	404,00
-752,05	388,00
-744,07	281,00
-736,09	435,00
-728,13	360,00
-720,17	397,00
-712,23	407,00
-704,29	338,00
-696,37	439,00
-688,45	338,00
-680,55	354,00
-672,65	393,00
-664,77	300,00
-656,89	323,00
-649,03	280,00
-641,17	330,00
-633,32	436,00
-625,49	250,00
-617,66	467,00
-609,84	310,00
-602,03	363,00
-594,23	198,00
-586,45	494,00
-578,67	441,00
-570,90	471,00
-563,14	275,00
-555,39	363,00
-547,65	421,00
-539,91	406,00
-532,19	372,00
-524,48	413,00
-516,78	329,00
-509,08	466,00
-501,40	409,00
-493,72	397,00
-486,06	287,00
-478,40	350,00
-470,76	362,00
-463,12	371,00
-455,49	251,00
-447,87	416,00
-440,26	320,00
-432,66	384,00
-425,07	382,00
-417,49	371,00
-409,92	343,00
-402,35	321,00
-394,80	443,00
-387,25	456,00
-379,72	480,00
-372,19	312,00
-364,67	437,00
-357,17	329,00
-349,67	251,00
-342,18	232,00
-334,69	467,00
-327,22	387,00
-319,76	406,00
-312,30	427,00
-304,86	466,00
-297,42	307,00
-290,00	388,00
-282,58	344,00
-275,17	456,00
-267,77	336,00
-260,37	346,00
-252,99	487,00
-245,62	405,00
-238,25	419,00
-230,90	458,00
-223,55	447,00
-216,21	366,00
-208,88	570,00
-201,56	440,00
-194,25	509,00
-186,94	517,00
-179,65	513,00
-172,36	387,00
-165,08	465,00
-157,81	535,00
-150,55	539,00
-143,30	535,00
-136,06	651,00
-128,82	685,00
-121,60	736,00
-114,38	785,00
-107,17	700,00
-99,97	879,00
-92,78	853,00
-85,60	914,00
-78,42	1123,00
-71,25	1112,00
-64,10	1301,00
-56,95	1451,00
-49,81	1783,00
-42,67	2075,00
-35,55	2316,00
-28,43	3168,00
-21,33	5007,00
-14,23	16293,00
-7,14	55635,00
-0,05	55419,00
7,02	55129,00
14,09	50273,00
21,14	13714,00
28,19	5864,00
35,23	3986,00
42,27	3006,00
49,29	2548,00
56,31	2226,00
63,32	1882,00
70,32	1727,00
77,31	1383,00
84,29	1299,00
91,27	1301,00
98,23	1064,00
105,19	1119,00
112,14	1012,00
119,09	1464,00
126,02	1727,00
132,95	1862,00
139,87	1946,00
146,78	1951,00
153,68	1906,00
160,58	1855,00
167,46	1804,00
174,34	1821,00
181,21	1759,00
188,08	1815,00
194,93	1819,00
201,78	1768,00
208,62	1862,00
215,45	1788,00
222,27	1806,00
229,09	1852,00
235,90	1857,00
242,70	1845,00
249,49	1799,00
256,27	1626,00
263,05	1651,00
269,82	1640,00
276,58	1780,00
283,33	1544,00
290,08	1751,00
296,82	1583,00
303,55	1509,00
310,27	1622,00
316,98	1536,00
323,69	1558,00
330,39	1528,00
337,08	1485,00
343,76	1531,00
350,44	1531,00
357,11	1487,00
363,77	1503,00
370,42	1522,00
377,07	1565,00
383,71	1468,00
390,34	1520,00
396,96	1503,00
403,58	1363,00
410,19	1439,00
416,79	1448,00
423,38	1541,00
429,97	1592,00
436,55	1329,00
443,12	1428,00
449,68	1310,00
456,24	1337,00
462,79	1369,00
469,33	1407,00
475,86	1465,00
482,39	1384,00
488,91	1233,00
495,42	1356,00
501,93	1252,00
508,42	1294,00
514,91	1395,00
521,40	1299,00
527,87	1241,00
534,34	1217,00
540,80	1244,00
547,25	1322,00
553,70	1192,00
560,14	1222,00
566,57	1199,00
573,00	1264,00
579,41	1243,00
585,83	1137,00
592,23	1286,00
598,62	1118,00
605,01	1166,00
611,40	1227,00
617,77	1411,00
624,14	1189,00
630,50	1251,00
636,85	1166,00
643,20	1338,00
649,54	1001,00
655,87	1182,00
662,20	1181,00
668,52	1163,00
674,83	1116,00
681,13	1080,00
687,43	1060,00
693,72	1086,00
700,00	1120,00
706,28	1244,00
712,55	1082,00
718,81	1257,00
725,07	1093,00
731,32	1155,00
737,56	1065,00
743,79	1018,00
750,02	1210,00
756,24	996,00
762,46	1023,00
768,67	1186,00
774,87	1230,00
781,06	1260,00
787,25	1121,00
793,43	1120,00
799,60	1010,00
805,77	1221,00
811,93	1188,00
818,08	992,00
824,23	1076,00
830,37	1148,00
836,50	1193,00
842,63	1136,00
848,75	1164,00
854,87	1166,00
860,97	1011,00
867,07	1077,00
873,17	1112,00
879,25	1056,00
885,33	1057,00
891,41	1080,00
897,47	1089,00
903,53	1037,00
909,59	1053,00
915,63	1044,00
921,67	1080,00
927,71	1008,00
933,74	1137,00
939,76	973,00
945,77	1003,00
951,78	1018,00
957,78	916,00
963,78	955,00
969,77	952,00
975,75	1034,00
981,72	1010,00
987,69	1536,00
993,66	986,00
999,61	990,00
1005,56	975,00
1011,51	1058,00
1017,44	1019,00
1023,37	1047,00
1029,30	1036,00
1035,22	946,00
1041,13	1099,00
1047,03	1035,00
1052,93	1179,00
1058,83	1300,00
1064,71	1349,00
1070,59	1152,00
1076,47	1103,00
1082,33	1077,00
1088,20	1125,00
1094,05	1085,00
1099,90	1068,00
1105,74	968,00
1111,58	957,00
1117,41	1094,00
1123,23	1257,00
1129,05	1134,00
1134,86	1283,00
1140,67	1106,00
1146,47	814,00
1152,26	965,00
1158,05	959,00
1163,83	936,00
1169,60	1016,00
1175,37	894,00
1181,13	941,00
1186,89	883,00
1192,64	916,00
1198,38	829,00
1204,12	910,00
1209,85	944,00
1215,58	936,00
1221,30	960,00
1227,02	995,00
1232,72	968,00
1238,43	1027,00
1244,12	1068,00
1249,81	945,00
1255,50	925,00
1261,17	916,00
1266,85	1050,00
1272,51	1065,00
1278,17	1106,00
1283,83	1052,00
1289,47	1114,00
1295,12	1380,00
1300,75	1418,00
1306,38	1179,00
1312,01	1165,00
1317,63	1043,00
1323,24	943,00
1328,85	904,00
1334,45	1032,00
1340,04	1076,00
1345,63	992,00
1351,22	1149,00
1356,80	1040,00
1362,37	945,00
1367,93	1092,00
1373,49	1123,00
1379,05	1189,00
1384,60	995,00
1390,14	1126,00
1395,68	970,00
1401,21	1010,00
1406,74	1130,00
1412,26	1030,00
1417,77	1158,00
1423,28	1196,00
1428,78	1314,00
1434,28	1369,00
1439,77	1436,00
1445,26	1419,00
1450,74	1471,00
1456,22	1382,00
1461,68	1322,00
1467,15	1227,00
1472,61	1193,00
1478,06	1155,00
1483,51	1107,00
1488,95	841,00
1494,38	948,00
1499,81	967,00
1505,24	930,00
1510,65	1046,00
1516,07	987,00
1521,48	956,00
1526,88	892,00
1532,27	1014,00
1537,67	933,00
1543,05	931,00
1548,43	780,00
1553,81	961,00
1559,18	933,00
1564,54	899,00
1569,90	874,00
1575,25	858,00
1580,60	865,00
1585,94	860,00
1591,28	826,00
1596,61	765,00
1601,93	844,00
1607,25	848,00
1612,57	878,00
1617,88	836,00
1623,18	810,00
1628,48	805,00
1633,77	856,00
1639,06	854,00
1644,34	763,00
1649,62	864,00
1654,89	789,00
1660,16	832,00
1665,42	819,00
1670,67	848,00
1675,92	863,00
1681,17	738,00
1686,41	854,00
1691,64	795,00
1696,87	820,00
1702,10	750,00
1707,32	713,00
1712,53	795,00
1717,74	812,00
1722,94	868,00
1728,14	797,00
1733,33	778,00
1738,52	750,00
1743,70	860,00
1748,88	746,00
1754,05	820,00
1759,22	822,00
1764,38	842,00
1769,53	714,00
1774,69	760,00
1779,83	766,00
1784,97	762,00
1790,11	640,00
1795,24	728,00
1800,36	712,00
1805,48	725,00
1810,60	733,00
1815,71	755,00
1820,82	682,00
1825,92	702,00
1831,01	730,00
1836,10	677,00
1841,19	787,00
1846,26	499,00
1851,34	682,00
1856,41	678,00
1861,47	640,00
1866,53	705,00
1871,59	760,00
1876,64	879,00
1881,68	810,00
1886,72	688,00
1891,76	762,00
1896,79	802,00
1901,81	626,00
1906,83	674,00
1911,85	616,00
1916,86	741,00
1921,86	712,00
1926,86	712,00
1931,86	631,00
1936,85	630,00
1941,83	677,00
1946,81	617,00
1951,79	718,00
1956,76	565,00
1961,72	554,00
1966,68	500,00
1971,64	553,00
1976,59	606,00
1981,54	566,00
1986,48	620,00
1991,42	740,00
1996,35	722,00
2001,27	613,00
2006,20	682,00
2011,11	609,00
2016,03	559,00
2020,93	569,00
2025,84	611,00
2030,73	614,00
2035,63	640,00
2040,52	475,00
2045,40	577,00
2050,28	590,00
2055,15	590,00
2060,02	562,00
2064,89	582,00
2069,75	558,00
2074,60	697,00
2079,46	435,00
2084,30	471,00
2089,14	536,00
2093,98	615,00
2098,81	633,00
2103,64	611,00
2108,46	614,00
2113,28	596,00
2118,09	535,00
2122,90	553,00
2127,70	526,00
2132,50	454,00
2137,30	660,00
2142,09	523,00
2146,87	530,00
2151,66	686,00
2156,43	627,00
2161,20	583,00
2165,97	447,00
2170,73	613,00
2175,49	571,00
2180,24	500,00
2184,99	534,00
2189,74	501,00
2194,48	624,00
2199,21	673,00
2203,94	491,00
2208,67	624,00
2213,39	603,00
2218,11	485,00
2222,82	460,00
2227,53	509,00
2232,23	542,00
2236,93	566,00
2241,63	589,00
2246,32	646,00
2251,00	465,00
2255,68	525,00
2260,36	590,00
2265,03	509,00
2269,70	500,00
2274,36	523,00
2279,02	532,00
2283,68	568,00
2288,33	400,00
2292,97	594,00
2297,61	527,00
2302,25	493,00
2306,88	540,00
2311,51	541,00
2316,14	552,00
2320,75	544,00
2325,37	606,00
2329,98	676,00
2334,59	358,00
2339,19	464,00
2343,79	480,00
2348,38	532,00
2352,97	522,00
2357,55	576,00
2362,13	576,00
2366,71	386,00
2371,28	655,00
2375,85	528,00
2380,41	413,00
2384,97	582,00
2389,52	416,00
2394,07	608,00
2398,62	710,00
2403,16	557,00
2407,70	429,00
2412,23	553,00
2416,76	547,00
2421,29	506,00
2425,81	465,00
2430,32	501,00
2434,84	533,00
2439,34	436,00
2443,85	457,00
2448,35	450,00
2452,84	480,00
2457,33	501,00
2461,82	568,00
2466,30	460,00
2470,78	497,00
2475,25	446,00
2479,72	458,00
2484,19	466,00
2488,65	553,00
2493,11	454,00
2497,56	560,00
2502,01	448,00
2506,46	417,00
2510,90	338,00
2515,34	443,00
2519,77	450,00
2524,20	521,00
2528,62	574,00
2533,04	551,00
2537,46	427,00
2541,87	438,00
2546,28	424,00
2550,68	507,00
2555,08	452,00
2559,48	488,00
2563,87	479,00
2568,26	421,00
2572,64	589,00
2577,02	627,00
2581,40	563,00
2585,77	452,00
2590,14	393,00
2594,50	369,00
2598,86	434,00
2603,22	464,00
2607,57	610,00
2611,92	408,00
2616,26	505,00
2620,60	566,00
2624,94	437,00
2629,27	461,00
2633,60	402,00
2637,92	504,00
2642,24	483,00
2646,56	541,00
2650,87	459,00
2655,18	625,00
2659,48	520,00
2663,78	471,00
2668,08	513,00
2672,37	482,00
2676,66	446,00
2680,95	490,00
2685,23	503,00
2689,50	533,00
2693,78	553,00
2698,05	525,00
2702,31	419,00
2706,57	444,00
2710,83	441,00
2715,08	419,00
2719,33	599,00
2723,58	630,00
2727,82	613,00
2732,06	465,00
2736,29	477,00
2740,53	593,00
2744,75	487,00
2748,97	494,00
2753,19	442,00
2757,41	592,00
2761,62	453,00
2765,83	503,00
2770,03	412,00
2774,23	513,00
2778,43	381,00
2782,62	454,00
2786,81	533,00
2791,00	517,00
2795,18	556,00
2799,35	485,00
2803,53	677,00
2807,70	486,00
2811,86	548,00
2816,03	585,00
2820,19	577,00
2824,34	743,00
2828,49	528,00
2832,64	636,00
2836,78	774,00
2840,92	768,00
2845,06	952,00
2849,19	967,00
2853,32	1086,00
2857,45	1093,00
2861,57	991,00
2865,69	1026,00
2869,80	1039,00
2873,91	1080,00
2878,02	1096,00
2882,12	1118,00
2886,22	1066,00
2890,32	1142,00
2894,41	978,00
2898,50	976,00
2902,58	880,00
2906,67	910,00
2910,74	890,00
2914,82	916,00
2918,89	864,00
2922,96	677,00
2927,02	717,00
2931,08	696,00
2935,13	664,00
2939,19	759,00
2943,24	730,00
2947,28	691,00
2951,32	604,00
2955,36	596,00
2959,40	481,00
2963,43	467,00
2967,46	450,00
2971,48	498,00
2975,50	563,00
2979,52	432,00
2983,53	467,00
2987,54	459,00
2991,55	519,00
2995,55	497,00
2999,55	500,00
3003,54	452,00
3007,54	487,00
3011,53	554,00
3015,51	499,00
3019,49	568,00
3023,47	464,00
3027,45	326,00
3031,42	427,00
3035,39	465,00
3039,35	438,00
3043,31	383,00
3047,27	434,00
3051,22	352,00
3055,17	380,00
3059,12	382,00
3063,06	434,00
3067,00	370,00
3070,94	435,00
3074,87	391,00
3078,80	368,00
3082,73	476,00
3086,65	339,00
3090,57	364,00
3094,49	427,00
3098,40	392,00
3102,31	370,00
3106,22	403,00
3110,12	376,00
3114,02	357,00
3117,92	400,00
3121,81	349,00
3125,70	493,00
3129,58	342,00
3133,47	365,00
3137,34	354,00
3141,22	291,00
3145,09	487,00
3148,96	423,00
3152,83	344,00
3156,69	366,00
3160,55	368,00
3164,40	471,00
3168,26	415,00
3172,10	496,00
3175,95	428,00
3179,79	396,00
3183,63	531,00
3187,47	396,00
3191,30	411,00
3195,13	434,00
3198,95	348,00
3202,78	305,00
3206,60	487,00
3210,41	362,00
3214,23	431,00
3218,03	428,00
3221,84	423,00
3225,64	451,00
3229,44	346,00
3233,24	405,00
3237,03	428,00
3240,82	387,00
3244,61	503,00
3248,39	364,00
3252,17	443,00
3255,95	475,00
3259,72	450,00
3263,49	524,00
3267,26	337,00
3271,03	400,00
3274,79	357,00
3278,54	358,00
3282,30	223,00
3286,05	362,00
3289,80	317,00
3293,54	328,00
3297,29	502,00
3301,02	279,00
3304,76	402,00
3308,49	332,00
3312,22	310,00
3315,95	338,00
3319,67	477,00
3323,39	474,00
3327,10	343,00
3330,82	456,00
3334,53	283,00
3338,24	334,00
3341,94	352,00
3345,64	308,00
3349,34	314,00
3353,03	391,00
3356,72	423,00
3360,41	419,00
3364,10	404,00
3367,78	414,00
3371,46	420,00
3375,13	396,00
3378,81	322,00
3382,48	358,00
3386,14	331,00
3389,81	288,00
3393,47	489,00
3397,12	510,00
3400,78	384,00
3404,43	389,00
3408,08	289,00
3411,72	369,00
3415,36	352,00
3419,00	278,00
3422,64	430,00
3426,27	374,00
3429,90	380,00
3433,53	433,00
3437,15	388,00
3440,77	344,00
3444,39	426,00
3448,00	221,00
3451,62	384,00
3455,22	364,00
3458,83	447,00
3462,43	413,00
3466,03	365,00
3469,63	388,00
3473,22	303,00
3476,81	313,00
3480,40	377,00
3483,99	279,00
3487,57	397,00
3491,15	309,00
3494,72	403,00
3498,29	438,00
3501,86	385,00
3505,43	400,00
3508,99	338,00
3512,56	312,00
3516,11	403,00
3519,67	352,00
3523,22	458,00
3526,77	464,00
3530,32	397,00
3533,86	254,00
3537,40	456,00
3540,94	367,00
3544,47	286,00
3548,00	415,00
3551,53	373,00
3555,06	362,00
3558,58	362,00
3562,10	413,00
3565,62	326,00
3569,13	230,00
3572,64	438,00
3576,15	323,00
3579,66	426,00
3583,16	376,00
3586,66	367,00
3590,16	349,00
3593,65	315,00
3597,14	419,00
3600,63	452,00
3604,11	377,00
3607,60	343,00
3611,08	303,00
3614,55	315,00
3618,03	349,00
3621,50	384,00
3624,97	379,00
3628,43	257,00
3631,90	328,00
3635,36	291,00
3638,81	335,00
3642,27	304,00
3645,72	381,00
3649,17	362,00
3652,61	198,00
3656,06	338,00
3659,50	342,00
3662,93	295,00
3666,37	364,00
3669,80	283,00
3673,23	215,00
3676,65	325,00
3680,08	396,00
3683,50	334,00
3686,92	457,00
3690,33	393,00
3693,74	317,00
3697,15	309,00
3700,56	359,00
3703,96	274,00
3707,36	381,00
3710,76	377,00
3714,16	302,00
3717,55	301,00
3720,94	321,00
3724,33	295,00
3727,71	412,00
3731,10	431,00
3734,48	222,00
3737,85	195,00
3741,23	362,00
3744,60	244,00
3747,97	280,00
3751,33	357,00
3754,69	403,00
3758,05	352,00
3761,41	330,00
3764,77	244,00
3768,12	291,00
3771,47	389,00
3774,82	336,00
3778,16	-4,00
3781,50	4,00
3784,84	-2,00
3788,18	4,00
>>>>>End Processed Spectral Data<<<<<
