SpectraSuite Data File
++++++++++++++++++++++++++++++++++++
Date: Mon Mar 09 15:38:35 ICT 2026
User: Administrator
Dark Spectrum Present: Yes
Reference Spectrum Present: No
Number of Sampled Component Spectra: 1
Spectrometers: MAYP113682
Integration Time (usec): 3000000 (MAYP113682)
Spectra Averaged: 1 (MAYP113682)
Boxcar Smoothing: 0 (MAYP113682)
Correct for Electrical Dark: No (MAYP113682)
Strobe/Lamp Enabled: No (MAYP113682)
Correct for Detector Non-linearity: No (MAYP113682)
Correct for Stray Light: No (MAYP113682)
Number of Pixels in Processed Spectrum: 2068
>>>>>Begin Processed Spectral Data<<<<<
-37534,58	5,00
-37414,56	-1,00
-37295,11	6,00
-37176,24	4,00
-37057,95	244,00
-36940,22	218,00
-36823,05	156,00
-36706,45	308,00
-36590,40	209,00
-36474,90	244,00
-36359,95	238,00
-36245,55	286,00
-36131,68	72,00
-36018,35	217,00
-35905,55	155,00
-35793,29	147,00
-35681,54	243,00
-35570,32	160,00
-35459,62	169,00
-35349,43	96,00
-35239,75	224,00
-35130,58	257,00
-35021,91	137,00
-34913,74	201,00
-34806,07	242,00
-34698,89	112,00
-34592,20	179,00
-34486,00	180,00
-34380,28	125,00
-34275,04	174,00
-34170,27	156,00
-34065,98	184,00
-33962,16	377,00
-33858,81	194,00
-33755,92	223,00
-33653,49	241,00
-33551,52	248,00
-33450,01	412,00
-33348,94	129,00
-33248,33	207,00
-33148,16	226,00
-33048,43	193,00
-32949,14	200,00
-32850,29	318,00
-32751,87	247,00
-32653,89	294,00
-32556,33	262,00
-32459,20	138,00
-32362,49	218,00
-32266,19	167,00
-32170,32	204,00
-32074,86	266,00
-31979,82	138,00
-31885,18	247,00
-31790,95	206,00
-31697,12	186,00
-31603,69	130,00
-31510,67	210,00
-31418,04	316,00
-31325,80	178,00
-31233,95	327,00
-31142,49	312,00
-31051,42	177,00
-30960,73	278,00
-30870,43	239,00
-30780,50	265,00
-30690,95	218,00
-30601,77	216,00
-30512,97	225,00
-30424,53	209,00
-30336,46	371,00
-30248,76	243,00
-30161,42	450,00
-30074,44	272,00
-29987,81	255,00
-29901,55	247,00
-29815,63	290,00
-29730,07	128,00
-29644,86	137,00
-29560,00	312,00
-29475,48	326,00
-29391,30	179,00
-29307,47	131,00
-29223,97	184,00
-29140,81	221,00
-29057,99	163,00
-28975,50	225,00
-28893,34	312,00
-28811,51	189,00
-28730,00	287,00
-28648,82	153,00
-28567,97	305,00
-28487,43	132,00
-28407,21	322,00
-28327,32	75,00
-28247,73	181,00
-28168,46	292,00
-28089,50	229,00
-28010,85	200,00
-27932,51	169,00
-27854,48	268,00
-27776,75	222,00
-27699,32	298,00
-27622,19	231,00
-27545,37	201,00
-27468,84	200,00
-27392,60	323,00
-27316,66	243,00
-27241,01	258,00
-27165,66	242,00
-27090,59	152,00
-27015,81	241,00
-26941,31	304,00
-26867,10	266,00
-26793,17	364,00
-26719,52	154,00
-26646,15	276,00
-26573,06	237,00
-26500,24	209,00
-26427,70	290,00
-26355,43	199,00
-26283,43	326,00
-26211,71	298,00
-26140,25	291,00
-26069,06	236,00
-25998,13	251,00
-25927,46	165,00
-25857,06	180,00
-25786,92	225,00
-25717,04	261,00
-25647,42	317,00
-25578,05	150,00
-25508,94	183,00
-25440,09	322,00
-25371,48	281,00
-25303,13	235,00
-25235,02	233,00
-25167,17	167,00
-25099,56	343,00
-25032,19	291,00
-24965,07	234,00
-24898,20	210,00
-24831,56	251,00
-24765,17	202,00
-24699,01	215,00
-24633,10	160,00
-24567,41	210,00
-24501,97	251,00
-24436,75	249,00
-24371,77	173,00
-24307,03	292,00
-24242,51	214,00
-24178,22	225,00
-24114,16	201,00
-24050,32	375,00
-23986,71	128,00
-23923,32	196,00
-23860,16	217,00
-23797,22	341,00
-23734,50	250,00
-23672,00	167,00
-23609,71	193,00
-23547,65	191,00
-23485,80	254,00
-23424,16	221,00
-23362,74	300,00
-23301,53	240,00
-23240,54	214,00
-23179,75	313,00
-23119,17	264,00
-23058,80	234,00
-22998,64	264,00
-22938,68	267,00
-22878,93	186,00
-22819,39	190,00
-22760,04	175,00
-22700,90	180,00
-22641,96	252,00
-22583,22	167,00
-22524,68	193,00
-22466,33	254,00
-22408,19	284,00
-22350,23	196,00
-22292,48	240,00
-22234,92	227,00
-22177,55	232,00
-22120,37	184,00
-22063,38	261,00
-22006,58	185,00
-21949,98	336,00
-21893,56	197,00
-21837,33	258,00
-21781,28	160,00
-21725,42	165,00
-21669,74	279,00
-21614,25	270,00
-21558,94	213,00
-21503,81	181,00
-21448,86	230,00
-21394,10	161,00
-21339,51	305,00
-21285,10	241,00
-21230,86	191,00
-21176,81	149,00
-21122,93	218,00
-21069,22	270,00
-21015,69	234,00
-20962,33	260,00
-20909,14	188,00
-20856,13	248,00
-20803,28	205,00
-20750,61	188,00
-20698,10	222,00
-20645,76	242,00
-20593,59	332,00
-20541,59	313,00
-20489,75	282,00
-20438,07	288,00
-20386,56	249,00
-20335,22	244,00
-20284,03	140,00
-20233,01	224,00
-20182,15	338,00
-20131,45	189,00
-20080,91	254,00
-20030,52	161,00
-19980,30	200,00
-19930,23	183,00
-19880,32	360,00
-19830,56	128,00
-19780,96	132,00
-19731,52	220,00
-19682,23	171,00
-19633,09	285,00
-19584,10	259,00
-19535,26	305,00
-19486,58	364,00
-19438,04	228,00
-19389,66	253,00
-19341,42	178,00
-19293,33	187,00
-19245,39	180,00
-19197,60	318,00
-19149,95	287,00
-19102,45	73,00
-19055,09	146,00
-19007,87	215,00
-18960,80	225,00
-18913,87	290,00
-18867,09	153,00
-18820,44	218,00
-18773,94	287,00
-18727,57	293,00
-18681,35	197,00
-18635,26	141,00
-18589,31	211,00
-18543,50	332,00
-18497,83	177,00
-18452,29	265,00
-18406,89	186,00
-18361,63	213,00
-18316,50	320,00
-18271,50	245,00
-18226,63	208,00
-18181,90	298,00
-18137,30	368,00
-18092,84	147,00
-18048,50	131,00
-18004,29	234,00
-17960,22	157,00
-17916,27	119,00
-17872,45	264,00
-17828,76	198,00
-17785,20	206,00
-17741,77	99,00
-17698,46	235,00
-17655,28	261,00
-17612,22	253,00
-17569,29	252,00
-17526,48	191,00
-17483,79	327,00
-17441,23	152,00
-17398,79	254,00
-17356,48	250,00
-17314,28	145,00
-17272,21	335,00
-17230,26	220,00
-17188,42	222,00
-17146,71	149,00
-17105,12	241,00
-17063,64	247,00
-17022,28	245,00
-16981,04	262,00
-16939,92	339,00
-16898,91	216,00
-16858,02	175,00
-16817,25	248,00
-16776,59	197,00
-16736,04	297,00
-16695,61	245,00
-16655,29	95,00
-16615,09	361,00
-16574,99	245,00
-16535,01	165,00
-16495,15	216,00
-16455,39	257,00
-16415,74	290,00
-16376,21	256,00
-16336,78	362,00
-16297,46	172,00
-16258,26	205,00
-16219,16	323,00
-16180,17	210,00
-16141,28	184,00
-16102,51	186,00
-16063,84	234,00
-16025,27	225,00
-15986,82	236,00
-15948,46	217,00
-15910,22	208,00
-15872,07	273,00
-15834,04	288,00
-15796,10	215,00
-15758,27	276,00
-15720,54	291,00
-15682,91	212,00
-15645,39	153,00
-15607,97	171,00
-15570,64	240,00
-15533,42	230,00
-15496,30	147,00
-15459,28	373,00
-15422,36	149,00
-15385,54	115,00
-15348,82	219,00
-15312,19	172,00
-15275,66	155,00
-15239,23	270,00
-15202,90	234,00
-15166,67	126,00
-15130,53	220,00
-15094,48	112,00
-15058,54	322,00
-15022,68	227,00
-14986,93	218,00
-14951,26	254,00
-14915,69	193,00
-14880,22	256,00
-14844,84	305,00
-14809,55	297,00
-14774,35	317,00
-14739,25	267,00
-14704,24	136,00
-14669,32	175,00
-14634,49	248,00
-14599,75	285,00
-14565,10	228,00
-14530,55	225,00
-14496,08	206,00
-14461,70	276,00
-14427,41	241,00
-14393,21	267,00
-14359,10	295,00
-14325,07	148,00
-14291,14	115,00
-14257,29	252,00
-14223,52	257,00
-14189,85	161,00
-14156,26	232,00
-14122,76	245,00
-14089,34	253,00
-14056,01	127,00
-14022,76	212,00
-13989,60	252,00
-13956,52	224,00
-13923,53	166,00
-13890,62	188,00
-13857,79	224,00
-13825,05	301,00
-13792,39	346,00
-13759,81	185,00
-13727,31	267,00
-13694,90	204,00
-13662,57	284,00
-13630,31	349,00
-13598,14	273,00
-13566,05	122,00
-13534,05	191,00
-13502,12	270,00
-13470,27	243,00
-13438,50	183,00
-13406,80	249,00
-13375,19	243,00
-13343,66	304,00
-13312,20	209,00
-13280,83	244,00
-13249,53	191,00
-13218,30	249,00
-13187,16	181,00
-13156,09	276,00
-13125,10	266,00
-13094,18	202,00
-13063,34	141,00
-13032,58	150,00
-13001,89	245,00
-12971,28	299,00
-12940,74	203,00
-12910,27	195,00
-12879,88	199,00
-12849,57	282,00
-12819,33	292,00
-12789,16	212,00
-12759,06	229,00
-12729,04	230,00
-12699,09	-881,00
-12669,21	130,00
-12639,41	224,00
-12609,68	169,00
-12580,02	205,00
-12550,43	290,00
-12520,91	178,00
-12491,46	279,00
-12462,08	211,00
-12432,77	179,00
-12403,54	226,00
-12374,37	47,00
-12345,27	192,00
-12316,24	219,00
-12287,29	277,00
-12258,40	207,00
-12229,57	252,00
-12200,82	291,00
-12172,14	191,00
-12143,52	51,00
-12114,97	181,00
-12086,49	221,00
-12058,07	126,00
-12029,73	290,00
-12001,44	325,00
-11973,23	243,00
-11945,08	343,00
-11917,00	223,00
-11888,98	205,00
-11861,03	271,00
-11833,15	84,00
-11805,32	174,00
-11777,57	260,00
-11749,88	154,00
-11722,25	150,00
-11694,69	223,00
-11667,19	280,00
-11639,75	302,00
-11612,38	250,00
-11585,07	119,00
-11557,83	354,00
-11530,65	303,00
-11503,53	214,00
-11476,47	195,00
-11449,48	257,00
-11422,54	135,00
-11395,67	229,00
-11368,86	178,00
-11342,11	183,00
-11315,43	209,00
-11288,80	204,00
-11262,23	208,00
-11235,73	274,00
-11209,28	206,00
-11182,90	242,00
-11156,57	289,00
-11130,31	281,00
-11104,10	196,00
-11077,96	310,00
-11051,87	303,00
-11025,84	247,00
-10999,87	124,00
-10973,96	280,00
-10948,11	228,00
-10922,31	168,00
-10896,58	266,00
-10870,90	258,00
-10845,28	155,00
-10819,71	247,00
-10794,20	208,00
-10768,75	223,00
-10743,36	242,00
-10718,02	187,00
-10692,74	176,00
-10667,52	138,00
-10642,35	290,00
-10617,24	194,00
-10592,18	160,00
-10567,18	93,00
-10542,23	313,00
-10517,34	225,00
-10492,51	173,00
-10467,72	166,00
-10443,00	162,00
-10418,32	125,00
-10393,70	199,00
-10369,14	259,00
-10344,63	249,00
-10320,17	188,00
-10295,77	284,00
-10271,42	292,00
-10247,12	235,00
-10222,88	272,00
-10198,68	152,00
-10174,54	157,00
-10150,46	166,00
-10126,42	197,00
-10102,44	209,00
-10078,51	101,00
-10054,63	300,00
-10030,80	38,00
-10007,03	182,00
-9983,30	170,00
-9959,63	114,00
-9936,01	190,00
-9912,44	18,00
-9888,92	159,00
-9865,44	100,00
-9842,02	166,00
-9818,65	108,00
-9795,33	40,00
-9772,06	78,00
-9748,84	55,00
-9725,67	-31,00
-9702,55	-74,00
-9679,47	29,00
-9656,45	-72,00
-9633,47	-55,00
-9610,55	-189,00
-9587,67	-130,00
-9564,84	-97,00
-9542,06	-155,00
-9519,32	-381,00
-9496,64	-275,00
-9474,00	-325,00
-9451,41	-540,00
-9428,87	-391,00
-9406,37	-429,00
-9383,92	-376,00
-9361,52	-492,00
-9339,17	-441,00
-9316,86	-501,00
-9294,60	-581,00
-9272,38	-531,00
-9250,21	-654,00
-9228,09	-761,00
-9206,01	-578,00
-9183,98	-574,00
-9162,00	-726,00
-9140,06	-614,00
-9118,16	-689,00
-9096,31	-730,00
-9074,51	-675,00
-9052,75	-695,00
-9031,04	-601,00
-9009,37	-496,00
-8987,74	-553,00
-8966,16	-428,00
-8944,63	-397,00
-8923,14	-420,00
-8901,69	-359,00
-8880,29	-391,00
-8858,93	-488,00
-8837,61	-455,00
-8816,34	-391,00
-8795,11	-575,00
-8773,92	-437,00
-8752,78	-334,00
-8731,68	-195,00
-8710,62	-401,00
-8689,61	-362,00
-8668,63	-502,00
-8647,70	-444,00
-8626,82	-403,00
-8605,97	-326,00
-8585,17	-375,00
-8564,41	-288,00
-8543,69	-194,00
-8523,01	-244,00
-8502,37	-327,00
-8481,78	-165,00
-8461,23	-368,00
-8440,71	-293,00
-8420,24	-376,00
-8399,81	-332,00
-8379,42	-263,00
-8359,08	-214,00
-8338,77	-300,00
-8318,50	-259,00
-8298,27	-217,00
-8278,09	-313,00
-8257,94	-258,00
-8237,83	-326,00
-8217,76	-266,00
-8197,74	-319,00
-8177,75	-267,00
-8157,80	-325,00
-8137,89	-222,00
-8118,02	-285,00
-8098,19	-301,00
-8078,40	-135,00
-8058,65	-140,00
-8038,93	-109,00
-8019,26	-230,00
-7999,62	-277,00
-7980,02	-214,00
-7960,46	-126,00
-7940,94	-199,00
-7921,46	-118,00
-7902,01	-234,00
-7882,60	-37,00
-7863,23	-37,00
-7843,90	-130,00
-7824,61	-94,00
-7805,35	-168,00
-7786,13	-228,00
-7766,95	-111,00
-7747,80	-23,00
-7728,69	-14,00
-7709,62	-99,00
-7690,59	-70,00
-7671,59	-83,00
-7652,63	-75,00
-7633,70	-142,00
-7614,81	-97,00
-7595,96	-147,00
-7577,15	9,00
-7558,37	-131,00
-7539,62	-61,00
-7520,91	-135,00
-7502,24	-221,00
-7483,60	-169,00
-7465,00	-106,00
-7446,44	-63,00
-7427,91	-126,00
-7409,41	-77,00
-7390,95	0,00
-7372,53	-66,00
-7354,14	-52,00
-7335,78	-78,00
-7317,46	23,00
-7299,18	-103,00
-7280,92	-158,00
-7262,71	-82,00
-7244,52	-127,00
-7226,38	-13,00
-7208,26	-56,00
-7190,18	-153,00
-7172,14	-98,00
-7154,12	-6,00
-7136,15	-186,00
-7118,20	-38,00
-7100,29	-159,00
-7082,41	-100,00
-7064,57	-233,00
-7046,76	-49,00
-7028,98	-161,00
-7011,24	-5,00
-6993,53	-93,00
-6975,85	-66,00
-6958,20	-43,00
-6940,59	39,00
-6923,01	-113,00
-6905,46	-13,00
-6887,94	-118,00
-6870,46	-207,00
-6853,01	-84,00
-6835,59	-90,00
-6818,21	-95,00
-6800,85	-1,00
-6783,53	-1,00
-6766,24	125,00
-6748,98	-76,00
-6731,76	-61,00
-6714,56	33,00
-6697,40	-127,00
-6680,26	4,00
-6663,16	57,00
-6646,09	32,00
-6629,05	-19,00
-6612,05	-33,00
-6595,07	-134,00
-6578,13	-126,00
-6561,21	-10,00
-6544,33	37,00
-6527,47	24,00
-6510,65	-54,00
-6493,86	66,00
-6477,10	-136,00
-6460,36	59,00
-6443,66	22,00
-6426,99	4,00
-6410,35	147,00
-6393,74	-55,00
-6377,16	-37,00
-6360,61	-31,00
-6344,09	-16,00
-6327,59	4,00
-6311,13	-32,00
-6294,70	16,00
-6278,29	72,00
-6261,92	-29,00
-6245,58	-40,00
-6229,26	-14,00
-6212,97	-42,00
-6196,72	-6,00
-6180,49	57,00
-6164,29	98,00
-6148,12	118,00
-6131,98	48,00
-6115,86	84,00
-6099,78	48,00
-6083,72	-114,00
-6067,69	64,00
-6051,69	51,00
-6035,72	154,00
-6019,78	96,00
-6003,87	60,00
-5987,98	-2,00
-5972,12	-134,00
-5956,29	-114,00
-5940,49	-30,00
-5924,71	87,00
-5908,96	88,00
-5893,24	58,00
-5877,55	47,00
-5861,89	-39,00
-5846,25	-13,00
-5830,64	-43,00
-5815,05	79,00
-5799,50	18,00
-5783,97	24,00
-5768,47	39,00
-5752,99	25,00
-5737,55	103,00
-5722,12	13,00
-5706,73	14,00
-5691,36	-54,00
-5676,02	85,00
-5660,71	137,00
-5645,42	98,00
-5630,16	134,00
-5614,92	88,00
-5599,71	-120,00
-5584,53	111,00
-5569,37	28,00
-5554,24	-841,00
-5539,14	92,00
-5524,06	44,00
-5509,01	157,00
-5493,98	-52,00
-5478,98	38,00
-5464,00	112,00
-5449,05	78,00
-5434,13	169,00
-5419,23	127,00
-5404,36	48,00
-5389,51	3,00
-5374,69	186,00
-5359,89	-13,00
-5345,12	-61,00
-5330,37	120,00
-5315,65	74,00
-5300,95	124,00
-5286,28	-12,00
-5271,63	90,00
-5257,01	129,00
-5242,41	41,00
-5227,84	-78,00
-5213,29	39,00
-5198,76	74,00
-5184,26	105,00
-5169,79	29,00
-5155,33	22,00
-5140,91	74,00
-5126,51	131,00
-5112,13	5,00
-5097,77	61,00
-5083,44	100,00
-5069,13	144,00
-5054,85	127,00
-5040,59	167,00
-5026,36	117,00
-5012,15	29,00
-4997,96	53,00
-4983,80	-12,00
-4969,66	129,00
-4955,54	95,00
-4941,44	156,00
-4927,37	176,00
-4913,33	37,00
-4899,30	31,00
-4885,30	121,00
-4871,33	84,00
-4857,37	63,00
-4843,44	140,00
-4829,53	177,00
-4815,65	185,00
-4801,79	36,00
-4787,95	78,00
-4774,13	174,00
-4760,34	145,00
-4746,56	201,00
-4732,82	141,00
-4719,09	144,00
-4705,38	143,00
-4691,70	169,00
-4678,04	14,00
-4664,41	111,00
-4650,79	196,00
-4637,20	143,00
-4623,63	150,00
-4610,08	119,00
-4596,56	98,00
-4583,05	96,00
-4569,57	119,00
-4556,11	141,00
-4542,67	152,00
-4529,25	258,00
-4515,86	161,00
-4502,49	107,00
-4489,13	33,00
-4475,80	134,00
-4462,49	175,00
-4449,21	159,00
-4435,94	278,00
-4422,70	205,00
-4409,47	49,00
-4396,27	149,00
-4383,09	93,00
-4369,93	148,00
-4356,79	306,00
-4343,67	130,00
-4330,58	135,00
-4317,50	335,00
-4304,45	174,00
-4291,41	139,00
-4278,40	244,00
-4265,41	201,00
-4252,44	239,00
-4239,49	88,00
-4226,55	222,00
-4213,65	181,00
-4200,76	291,00
-4187,89	126,00
-4175,04	222,00
-4162,21	242,00
-4149,40	65,00
-4136,61	252,00
-4123,85	231,00
-4111,10	203,00
-4098,37	216,00
-4085,66	214,00
-4072,98	253,00
-4060,31	243,00
-4047,66	92,00
-4035,04	287,00
-4022,43	278,00
-4009,84	253,00
-3997,27	151,00
-3984,72	258,00
-3972,19	170,00
-3959,69	260,00
-3947,20	311,00
-3934,73	217,00
-3922,27	193,00
-3909,84	124,00
-3897,43	240,00
-3885,04	173,00
-3872,67	260,00
-3860,31	183,00
-3847,98	300,00
-3835,66	250,00
-3823,36	182,00
-3811,09	135,00
-3798,83	264,00
-3786,59	178,00
-3774,37	321,00
-3762,17	368,00
-3749,98	249,00
-3737,82	188,00
-3725,67	291,00
-3713,55	244,00
-3701,44	197,00
-3689,35	191,00
-3677,28	377,00
-3665,22	295,00
-3653,19	204,00
-3641,17	221,00
-3629,18	270,00
-3617,20	223,00
-3605,24	202,00
-3593,30	276,00
-3581,37	242,00
-3569,47	196,00
-3557,58	178,00
-3545,71	379,00
-3533,86	271,00
-3522,02	158,00
-3510,21	285,00
-3498,41	294,00
-3486,63	301,00
-3474,87	192,00
-3463,12	217,00
-3451,40	249,00
-3439,69	267,00
-3428,00	234,00
-3416,33	261,00
-3404,67	205,00
-3393,03	158,00
-3381,41	237,00
-3369,81	199,00
-3358,22	241,00
-3346,66	191,00
-3335,10	270,00
-3323,57	236,00
-3312,06	177,00
-3300,56	178,00
-3289,08	218,00
-3277,61	225,00
-3266,16	247,00
-3254,73	227,00
-3243,32	156,00
-3231,92	337,00
-3220,55	252,00
-3209,18	274,00
-3197,84	248,00
-3186,51	210,00
-3175,20	151,00
-3163,90	213,00
-3152,63	405,00
-3141,36	225,00
-3130,12	282,00
-3118,89	299,00
-3107,68	231,00
-3096,49	286,00
-3085,31	140,00
-3074,15	325,00
-3063,00	305,00
-3051,87	281,00
-3040,76	282,00
-3029,67	271,00
-3018,59	212,00
-3007,52	171,00
-2996,48	271,00
-2985,44	272,00
-2974,43	244,00
-2963,43	232,00
-2952,45	228,00
-2941,48	247,00
-2930,53	142,00
-2919,60	338,00
-2908,68	266,00
-2897,78	225,00
-2886,89	239,00
-2876,02	324,00
-2865,17	180,00
-2854,33	175,00
-2843,50	260,00
-2832,70	422,00
-2821,90	214,00
-2811,13	234,00
-2800,37	194,00
-2789,62	257,00
-2778,89	178,00
-2768,18	316,00
-2757,48	247,00
-2746,80	238,00
-2736,13	250,00
-2725,48	216,00
-2714,84	281,00
-2704,22	237,00
-2693,61	178,00
-2683,02	211,00
-2672,45	273,00
-2661,89	273,00
-2651,34	180,00
-2640,81	224,00
-2630,30	305,00
-2619,80	220,00
-2609,31	142,00
-2598,84	197,00
-2588,39	249,00
-2577,95	266,00
-2567,52	183,00
-2557,11	267,00
-2546,71	303,00
-2536,33	179,00
-2525,97	122,00
-2515,62	279,00
-2505,28	240,00
-2494,96	312,00
-2484,65	162,00
-2474,36	287,00
-2464,08	295,00
-2453,82	225,00
-2443,57	194,00
-2433,33	286,00
-2423,11	252,00
-2412,91	117,00
-2402,72	172,00
-2392,54	167,00
-2382,38	175,00
-2372,23	202,00
-2362,09	-3989,00
-2351,97	326,00
-2341,87	107,00
-2331,78	233,00
-2321,70	289,00
-2311,64	139,00
-2301,59	186,00
-2291,55	240,00
-2281,53	213,00
-2271,53	153,00
-2261,53	244,00
-2251,55	208,00
-2241,59	274,00
-2231,64	270,00
-2221,70	304,00
-2211,78	275,00
-2201,87	284,00
-2191,97	277,00
-2182,09	335,00
-2172,22	255,00
-2162,37	328,00
-2152,53	170,00
-2142,70	207,00
-2132,89	171,00
-2123,09	251,00
-2113,30	170,00
-2103,53	301,00
-2093,77	260,00
-2084,02	245,00
-2074,29	324,00
-2064,57	244,00
-2054,86	266,00
-2045,17	119,00
-2035,49	334,00
-2025,82	196,00
-2016,17	278,00
-2006,53	210,00
-1996,91	261,00
-1987,29	87,00
-1977,69	181,00
-1968,11	215,00
-1958,53	367,00
-1948,97	249,00
-1939,42	230,00
-1929,89	364,00
-1920,37	285,00
-1910,86	224,00
-1901,36	205,00
-1891,88	327,00
-1882,41	211,00
-1872,95	195,00
-1863,51	210,00
-1854,08	196,00
-1844,66	225,00
-1835,26	210,00
-1825,86	217,00
-1816,48	277,00
-1807,11	200,00
-1797,76	156,00
-1788,42	140,00
-1779,09	169,00
-1769,77	221,00
-1760,47	191,00
-1751,17	240,00
-1741,89	165,00
-1732,63	301,00
-1723,37	235,00
-1714,13	292,00
-1704,90	200,00
-1695,68	222,00
-1686,48	220,00
-1677,29	273,00
-1668,11	317,00
-1658,94	205,00
-1649,78	194,00
-1640,64	244,00
-1631,51	189,00
-1622,39	330,00
-1613,28	218,00
-1604,19	244,00
-1595,10	212,00
-1586,03	321,00
-1576,97	161,00
-1567,93	305,00
-1558,89	262,00
-1549,87	225,00
-1540,86	240,00
-1531,86	271,00
-1522,87	258,00
-1513,90	288,00
-1504,93	229,00
-1495,98	78,00
-1487,04	249,00
-1478,12	203,00
-1469,20	289,00
-1460,30	244,00
-1451,40	204,00
-1442,52	258,00
-1433,65	184,00
-1424,80	315,00
-1415,95	209,00
-1407,12	282,00
-1398,30	182,00
-1389,48	217,00
-1380,69	257,00
-1371,90	144,00
-1363,12	175,00
-1354,36	425,00
-1345,60	200,00
-1336,86	283,00
-1328,13	268,00
-1319,41	182,00
-1310,70	196,00
-1302,01	379,00
-1293,32	221,00
-1284,65	286,00
-1275,99	221,00
-1267,33	212,00
-1258,69	302,00
-1250,06	204,00
-1241,45	150,00
-1232,84	241,00
-1224,25	144,00
-1215,66	270,00
-1207,09	157,00
-1198,53	271,00
-1189,97	254,00
-1181,43	247,00
-1172,91	211,00
-1164,39	302,00
-1155,88	80,00
-1147,38	215,00
-1138,90	357,00
-1130,43	225,00
-1121,96	192,00
-1113,51	217,00
-1105,07	234,00
-1096,64	307,00
-1088,22	283,00
-1079,81	239,00
-1071,41	346,00
-1063,02	196,00
-1054,65	281,00
-1046,28	290,00
-1037,92	238,00
-1029,58	236,00
-1021,24	173,00
-1012,92	245,00
-1004,61	332,00
-996,30	306,00
-988,01	123,00
-979,73	243,00
-971,46	256,00
-963,20	203,00
-954,95	200,00
-946,71	197,00
-938,48	277,00
-930,26	175,00
-922,06	123,00
-913,86	137,00
-905,67	109,00
-897,49	177,00
-889,33	137,00
-881,17	213,00
-873,02	175,00
-864,89	238,00
-856,76	170,00
-848,65	253,00
-840,54	250,00
-832,45	315,00
-824,36	275,00
-816,29	385,00
-808,22	339,00
-800,17	273,00
-792,12	222,00
-784,09	337,00
-776,06	264,00
-768,05	290,00
-760,04	217,00
-752,05	188,00
-744,07	297,00
-736,09	266,00
-728,13	226,00
-720,17	252,00
-712,23	260,00
-704,29	118,00
-696,37	280,00
-688,45	164,00
-680,55	180,00
-672,65	99,00
-664,77	254,00
-656,89	219,00
-649,03	238,00
-641,17	222,00
-633,32	337,00
-625,49	262,00
-617,66	293,00
-609,84	234,00
-602,03	175,00
-594,23	149,00
-586,45	465,00
-578,67	272,00
-570,90	346,00
-563,14	170,00
-555,39	226,00
-547,65	249,00
-539,91	234,00
-532,19	270,00
-524,48	274,00
-516,78	257,00
-509,08	209,00
-501,40	212,00
-493,72	259,00
-486,06	41,00
-478,40	218,00
-470,76	164,00
-463,12	257,00
-455,49	232,00
-447,87	320,00
-440,26	278,00
-432,66	289,00
-425,07	225,00
-417,49	246,00
-409,92	316,00
-402,35	116,00
-394,80	346,00
-387,25	327,00
-379,72	298,00
-372,19	223,00
-364,67	264,00
-357,17	229,00
-349,67	268,00
-342,18	238,00
-334,69	330,00
-327,22	144,00
-319,76	295,00
-312,30	354,00
-304,86	222,00
-297,42	255,00
-290,00	301,00
-282,58	223,00
-275,17	361,00
-267,77	203,00
-260,37	236,00
-252,99	304,00
-245,62	188,00
-238,25	252,00
-230,90	323,00
-223,55	295,00
-216,21	231,00
-208,88	468,00
-201,56	371,00
-194,25	330,00
-186,94	479,00
-179,65	352,00
-172,36	340,00
-165,08	412,00
-157,81	480,00
-150,55	577,00
-143,30	450,00
-136,06	575,00
-128,82	576,00
-121,60	676,00
-114,38	840,00
-107,17	617,00
-99,97	916,00
-92,78	936,00
-85,60	994,00
-78,42	1307,00
-71,25	1311,00
-64,10	1516,00
-56,95	1658,00
-49,81	2084,00
-42,67	2530,00
-35,55	2998,00
-28,43	3851,00
-21,33	6483,00
-14,23	21767,00
-7,14	55635,00
-0,05	55419,00
7,02	55129,00
14,09	55339,00
21,14	18696,00
28,19	7882,00
35,23	5079,00
42,27	3704,00
49,29	3137,00
56,31	2814,00
63,32	2431,00
70,32	1918,00
77,31	1651,00
84,29	1546,00
91,27	1348,00
98,23	1167,00
105,19	1273,00
112,14	1128,00
119,09	1561,00
126,02	2132,00
132,95	2287,00
139,87	2145,00
146,78	2151,00
153,68	2171,00
160,58	2100,00
167,46	2007,00
174,34	2009,00
181,21	1940,00
188,08	1955,00
194,93	1932,00
201,78	1884,00
208,62	2103,00
215,45	1862,00
222,27	1837,00
229,09	1920,00
235,90	1878,00
242,70	1938,00
249,49	1865,00
256,27	1831,00
263,05	1795,00
269,82	1710,00
276,58	1800,00
283,33	1738,00
290,08	1840,00
296,82	1746,00
303,55	1705,00
310,27	1569,00
316,98	1668,00
323,69	1637,00
330,39	1596,00
337,08	1548,00
343,76	1616,00
350,44	1699,00
357,11	1667,00
363,77	1505,00
370,42	1577,00
377,07	1638,00
383,71	1490,00
390,34	1562,00
396,96	1565,00
403,58	1470,00
410,19	1534,00
416,79	1554,00
423,38	1655,00
429,97	1589,00
436,55	1448,00
443,12	1427,00
449,68	1358,00
456,24	1463,00
462,79	1391,00
469,33	1427,00
475,86	1490,00
482,39	1387,00
488,91	1338,00
495,42	1387,00
501,93	1369,00
508,42	1278,00
514,91	1392,00
521,40	1308,00
527,87	1348,00
534,34	1243,00
540,80	1265,00
547,25	1345,00
553,70	1179,00
560,14	1292,00
566,57	1307,00
573,00	1345,00
579,41	1249,00
585,83	1252,00
592,23	1246,00
598,62	1181,00
605,01	1197,00
611,40	1253,00
617,77	1249,00
624,14	1173,00
630,50	1306,00
636,85	1245,00
643,20	1297,00
649,54	1092,00
655,87	1216,00
662,20	1215,00
668,52	1140,00
674,83	1207,00
681,13	1008,00
687,43	1061,00
693,72	1174,00
700,00	1135,00
706,28	1187,00
712,55	945,00
718,81	1238,00
725,07	1126,00
731,32	1063,00
737,56	1121,00
743,79	1134,00
750,02	1169,00
756,24	1027,00
762,46	1152,00
768,67	1173,00
774,87	1277,00
781,06	1211,00
787,25	1115,00
793,43	1174,00
799,60	1042,00
805,77	1158,00
811,93	1155,00
818,08	1012,00
824,23	1073,00
830,37	1130,00
836,50	1271,00
842,63	1000,00
848,75	1128,00
854,87	1130,00
860,97	1039,00
867,07	1207,00
873,17	1162,00
879,25	1024,00
885,33	1167,00
891,41	1180,00
897,47	1049,00
903,53	1045,00
909,59	1033,00
915,63	976,00
921,67	1125,00
927,71	1060,00
933,74	1072,00
939,76	964,00
945,77	1030,00
951,78	1011,00
957,78	1027,00
963,78	904,00
969,77	952,00
975,75	1105,00
981,72	1032,00
987,69	1259,00
993,66	956,00
999,61	1029,00
1005,56	1050,00
1011,51	893,00
1017,44	1027,00
1023,37	1073,00
1029,30	1072,00
1035,22	1015,00
1041,13	1009,00
1047,03	1074,00
1052,93	1106,00
1058,83	1353,00
1064,71	1242,00
1070,59	1233,00
1076,47	1079,00
1082,33	1083,00
1088,20	1152,00
1094,05	997,00
1099,90	1007,00
1105,74	912,00
1111,58	945,00
1117,41	1039,00
1123,23	1207,00
1129,05	1175,00
1134,86	1258,00
1140,67	1134,00
1146,47	862,00
1152,26	1040,00
1158,05	989,00
1163,83	907,00
1169,60	1058,00
1175,37	868,00
1181,13	949,00
1186,89	834,00
1192,64	879,00
1198,38	966,00
1204,12	1009,00
1209,85	1005,00
1215,58	946,00
1221,30	941,00
1227,02	968,00
1232,72	951,00
1238,43	970,00
1244,12	944,00
1249,81	992,00
1255,50	921,00
1261,17	916,00
1266,85	995,00
1272,51	1080,00
1278,17	1078,00
1283,83	1026,00
1289,47	1325,00
1295,12	1470,00
1300,75	1439,00
1306,38	1135,00
1312,01	1145,00
1317,63	1007,00
1323,24	968,00
1328,85	987,00
1334,45	1025,00
1340,04	1001,00
1345,63	1024,00
1351,22	1063,00
1356,80	1042,00
1362,37	940,00
1367,93	1135,00
1373,49	1113,00
1379,05	1127,00
1384,60	1062,00
1390,14	1123,00
1395,68	981,00
1401,21	887,00
1406,74	1034,00
1412,26	1026,00
1417,77	1167,00
1423,28	1255,00
1428,78	1293,00
1434,28	1410,00
1439,77	1605,00
1445,26	1605,00
1450,74	1495,00
1456,22	1516,00
1461,68	1397,00
1467,15	1260,00
1472,61	1284,00
1478,06	1204,00
1483,51	1123,00
1488,95	915,00
1494,38	1009,00
1499,81	965,00
1505,24	1004,00
1510,65	986,00
1516,07	981,00
1521,48	995,00
1526,88	871,00
1532,27	936,00
1537,67	850,00
1543,05	944,00
1548,43	805,00
1553,81	959,00
1559,18	886,00
1564,54	860,00
1569,90	846,00
1575,25	839,00
1580,60	743,00
1585,94	742,00
1591,28	869,00
1596,61	717,00
1601,93	804,00
1607,25	824,00
1612,57	965,00
1617,88	752,00
1623,18	870,00
1628,48	731,00
1633,77	797,00
1639,06	894,00
1644,34	904,00
1649,62	728,00
1654,89	867,00
1660,16	754,00
1665,42	850,00
1670,67	767,00
1675,92	810,00
1681,17	813,00
1686,41	862,00
1691,64	780,00
1696,87	801,00
1702,10	659,00
1707,32	640,00
1712,53	795,00
1717,74	708,00
1722,94	816,00
1728,14	731,00
1733,33	643,00
1738,52	767,00
1743,70	709,00
1748,88	727,00
1754,05	761,00
1759,22	671,00
1764,38	-742,00
1769,53	779,00
1774,69	620,00
1779,83	787,00
1784,97	729,00
1790,11	569,00
1795,24	566,00
1800,36	716,00
1805,48	741,00
1810,60	701,00
1815,71	699,00
1820,82	542,00
1825,92	590,00
1831,01	650,00
1836,10	670,00
1841,19	668,00
1846,26	525,00
1851,34	636,00
1856,41	527,00
1861,47	571,00
1866,53	680,00
1871,59	565,00
1876,64	760,00
1881,68	650,00
1886,72	553,00
1891,76	588,00
1896,79	634,00
1901,81	598,00
1906,83	645,00
1911,85	636,00
1916,86	608,00
1921,86	555,00
1926,86	585,00
1931,86	623,00
1936,85	518,00
1941,83	610,00
1946,81	521,00
1951,79	672,00
1956,76	563,00
1961,72	496,00
1966,68	514,00
1971,64	560,00
1976,59	458,00
1981,54	525,00
1986,48	429,00
1991,42	520,00
1996,35	581,00
2001,27	447,00
2006,20	455,00
2011,11	557,00
2016,03	485,00
2020,93	565,00
2025,84	564,00
2030,73	557,00
2035,63	585,00
2040,52	457,00
2045,40	536,00
2050,28	498,00
2055,15	528,00
2060,02	464,00
2064,89	542,00
2069,75	543,00
2074,60	675,00
2079,46	357,00
2084,30	425,00
2089,14	492,00
2093,98	562,00
2098,81	569,00
2103,64	602,00
2108,46	537,00
2113,28	591,00
2118,09	503,00
2122,90	441,00
2127,70	490,00
2132,50	455,00
2137,30	598,00
2142,09	439,00
2146,87	490,00
2151,66	595,00
2156,43	522,00
2161,20	491,00
2165,97	410,00
2170,73	617,00
2175,49	516,00
2180,24	556,00
2184,99	523,00
2189,74	544,00
2194,48	516,00
2199,21	514,00
2203,94	565,00
2208,67	571,00
2213,39	579,00
2218,11	332,00
2222,82	396,00
2227,53	473,00
2232,23	457,00
2236,93	498,00
2241,63	431,00
2246,32	479,00
2251,00	455,00
2255,68	427,00
2260,36	470,00
2265,03	399,00
2269,70	379,00
2274,36	432,00
2279,02	467,00
2283,68	482,00
2288,33	475,00
2292,97	551,00
2297,61	441,00
2302,25	438,00
2306,88	445,00
2311,51	474,00
2316,14	449,00
2320,75	447,00
2325,37	477,00
2329,98	581,00
2334,59	315,00
2339,19	389,00
2343,79	418,00
2348,38	488,00
2352,97	472,00
2357,55	450,00
2362,13	470,00
2366,71	389,00
2371,28	541,00
2375,85	473,00
2380,41	298,00
2384,97	532,00
2389,52	442,00
2394,07	431,00
2398,62	493,00
2403,16	412,00
2407,70	341,00
2412,23	367,00
2416,76	402,00
2421,29	369,00
2425,81	407,00
2430,32	414,00
2434,84	406,00
2439,34	434,00
2443,85	321,00
2448,35	428,00
2452,84	434,00
2457,33	493,00
2461,82	427,00
2466,30	344,00
2470,78	455,00
2475,25	369,00
2479,72	412,00
2484,19	350,00
2488,65	500,00
2493,11	334,00
2497,56	380,00
2502,01	352,00
2506,46	269,00
2510,90	193,00
2515,34	381,00
2519,77	425,00
2524,20	400,00
2528,62	430,00
2533,04	422,00
2537,46	348,00
2541,87	277,00
2546,28	259,00
2550,68	435,00
2555,08	377,00
2559,48	360,00
2563,87	336,00
2568,26	400,00
2572,64	390,00
2577,02	447,00
2581,40	382,00
2585,77	408,00
2590,14	244,00
2594,50	266,00
2598,86	261,00
2603,22	306,00
2607,57	383,00
2611,92	368,00
2616,26	368,00
2620,60	441,00
2624,94	277,00
2629,27	406,00
2633,60	338,00
2637,92	400,00
2642,24	377,00
2646,56	348,00
2650,87	394,00
2655,18	438,00
2659,48	418,00
2663,78	330,00
2668,08	310,00
2672,37	280,00
2676,66	440,00
2680,95	468,00
2685,23	480,00
2689,50	410,00
2693,78	387,00
2698,05	406,00
2702,31	369,00
2706,57	405,00
2710,83	431,00
2715,08	340,00
2719,33	405,00
2723,58	489,00
2727,82	449,00
2732,06	347,00
2736,29	412,00
2740,53	435,00
2744,75	346,00
2748,97	365,00
2753,19	432,00
2757,41	460,00
2761,62	434,00
2765,83	411,00
2770,03	347,00
2774,23	356,00
2778,43	329,00
2782,62	428,00
2786,81	442,00
2791,00	395,00
2795,18	429,00
2799,35	372,00
2803,53	618,00
2807,70	420,00
2811,86	413,00
2816,03	445,00
2820,19	489,00
2824,34	660,00
2828,49	474,00
2832,64	546,00
2836,78	665,00
2840,92	773,00
2845,06	997,00
2849,19	1068,00
2853,32	1114,00
2857,45	1066,00
2861,57	1101,00
2865,69	1010,00
2869,80	956,00
2873,91	1057,00
2878,02	1114,00
2882,12	1037,00
2886,22	1090,00
2890,32	1081,00
2894,41	999,00
2898,50	938,00
2902,58	921,00
2906,67	950,00
2910,74	890,00
2914,82	821,00
2918,89	885,00
2922,96	765,00
2927,02	674,00
2931,08	666,00
2935,13	642,00
2939,19	621,00
2943,24	659,00
2947,28	570,00
2951,32	524,00
2955,36	561,00
2959,40	451,00
2963,43	474,00
2967,46	431,00
2971,48	403,00
2975,50	394,00
2979,52	294,00
2983,53	399,00
2987,54	380,00
2991,55	396,00
2995,55	317,00
2999,55	320,00
3003,54	285,00
3007,54	303,00
3011,53	410,00
3015,51	351,00
3019,49	309,00
3023,47	343,00
3027,45	342,00
3031,42	246,00
3035,39	308,00
3039,35	290,00
3043,31	303,00
3047,27	271,00
3051,22	319,00
3055,17	233,00
3059,12	315,00
3063,06	200,00
3067,00	225,00
3070,94	422,00
3074,87	313,00
3078,80	344,00
3082,73	323,00
3086,65	250,00
3090,57	220,00
3094,49	380,00
3098,40	294,00
3102,31	349,00
3106,22	198,00
3110,12	254,00
3114,02	324,00
3117,92	302,00
3121,81	313,00
3125,70	270,00
3129,58	260,00
3133,47	303,00
3137,34	398,00
3141,22	251,00
3145,09	169,00
3148,96	368,00
3152,83	304,00
3156,69	288,00
3160,55	257,00
3164,40	237,00
3168,26	288,00
3172,10	268,00
3175,95	314,00
3179,79	266,00
3183,63	410,00
3187,47	233,00
3191,30	331,00
3195,13	201,00
3198,95	330,00
3202,78	201,00
3206,60	336,00
3210,41	196,00
3214,23	290,00
3218,03	217,00
3221,84	288,00
3225,64	259,00
3229,44	344,00
3233,24	293,00
3237,03	312,00
3240,82	260,00
3244,61	306,00
3248,39	162,00
3252,17	360,00
3255,95	278,00
3259,72	321,00
3263,49	288,00
3267,26	318,00
3271,03	335,00
3274,79	258,00
3278,54	145,00
3282,30	85,00
3286,05	257,00
3289,80	230,00
3293,54	327,00
3297,29	324,00
3301,02	170,00
3304,76	276,00
3308,49	245,00
3312,22	207,00
3315,95	250,00
3319,67	294,00
3323,39	315,00
3327,10	134,00
3330,82	256,00
3334,53	226,00
3338,24	221,00
3341,94	220,00
3345,64	194,00
3349,34	256,00
3353,03	304,00
3356,72	346,00
3360,41	313,00
3364,10	205,00
3367,78	312,00
3371,46	210,00
3375,13	235,00
3378,81	56,00
3382,48	210,00
3386,14	274,00
3389,81	188,00
3393,47	260,00
3397,12	322,00
3400,78	257,00
3404,43	169,00
3408,08	244,00
3411,72	339,00
3415,36	194,00
3419,00	247,00
3422,64	335,00
3426,27	173,00
3429,90	219,00
3433,53	308,00
3437,15	341,00
3440,77	204,00
3444,39	318,00
3448,00	231,00
3451,62	210,00
3455,22	224,00
3458,83	267,00
3462,43	264,00
3466,03	278,00
3469,63	236,00
3473,22	152,00
3476,81	182,00
3480,40	191,00
3483,99	280,00
3487,57	206,00
3491,15	188,00
3494,72	261,00
3498,29	252,00
3501,86	172,00
3505,43	215,00
3508,99	179,00
3512,56	164,00
3516,11	290,00
3519,67	215,00
3523,22	307,00
3526,77	271,00
3530,32	142,00
3533,86	272,00
3537,40	357,00
3540,94	355,00
3544,47	149,00
3548,00	216,00
3551,53	209,00
3555,06	282,00
3558,58	216,00
3562,10	224,00
3565,62	180,00
3569,13	234,00
3572,64	287,00
3576,15	157,00
3579,66	243,00
3583,16	214,00
3586,66	211,00
3590,16	207,00
3593,65	217,00
3597,14	204,00
3600,63	324,00
3604,11	196,00
3607,60	203,00
3611,08	241,00
3614,55	222,00
3618,03	247,00
3621,50	213,00
3624,97	306,00
3628,43	196,00
3631,90	235,00
3635,36	199,00
3638,81	221,00
3642,27	226,00
3645,72	246,00
3649,17	208,00
3652,61	227,00
3656,06	238,00
3659,50	199,00
3662,93	216,00
3666,37	257,00
3669,80	322,00
3673,23	79,00
3676,65	202,00
3680,08	188,00
3683,50	179,00
3686,92	290,00
3690,33	176,00
3693,74	160,00
3697,15	111,00
3700,56	306,00
3703,96	154,00
3707,36	229,00
3710,76	156,00
3714,16	144,00
3717,55	181,00
3720,94	224,00
3724,33	213,00
3727,71	266,00
3731,10	275,00
3734,48	218,00
3737,85	52,00
3741,23	251,00
3744,60	179,00
3747,97	132,00
3751,33	239,00
3754,69	244,00
3758,05	269,00
3761,41	145,00
3764,77	193,00
3768,12	175,00
3771,47	139,00
3774,82	237,00
3778,16	-6,00
3781,50	4,00
3784,84	-6,00
3788,18	7,00
>>>>>End Processed Spectral Data<<<<<
