SpectraSuite Data File
++++++++++++++++++++++++++++++++++++
Date: Mon Mar 09 15:39:23 ICT 2026
User: Administrator
Dark Spectrum Present: Yes
Reference Spectrum Present: No
Number of Sampled Component Spectra: 1
Spectrometers: MAYP113682
Integration Time (usec): 3000000 (MAYP113682)
Spectra Averaged: 1 (MAYP113682)
Boxcar Smoothing: 0 (MAYP113682)
Correct for Electrical Dark: No (MAYP113682)
Strobe/Lamp Enabled: No (MAYP113682)
Correct for Detector Non-linearity: No (MAYP113682)
Correct for Stray Light: No (MAYP113682)
Number of Pixels in Processed Spectrum: 2068
>>>>>Begin Processed Spectral Data<<<<<
-37534,58	9,00
-37414,56	-2,00
-37295,11	3,00
-37176,24	3,00
-37057,95	221,00
-36940,22	205,00
-36823,05	158,00
-36706,45	241,00
-36590,40	170,00
-36474,90	221,00
-36359,95	274,00
-36245,55	246,00
-36131,68	184,00
-36018,35	242,00
-35905,55	190,00
-35793,29	290,00
-35681,54	308,00
-35570,32	167,00
-35459,62	184,00
-35349,43	146,00
-35239,75	243,00
-35130,58	226,00
-35021,91	148,00
-34913,74	97,00
-34806,07	195,00
-34698,89	168,00
-34592,20	216,00
-34486,00	286,00
-34380,28	231,00
-34275,04	253,00
-34170,27	271,00
-34065,98	200,00
-33962,16	303,00
-33858,81	221,00
-33755,92	248,00
-33653,49	345,00
-33551,52	272,00
-33450,01	310,00
-33348,94	243,00
-33248,33	216,00
-33148,16	180,00
-33048,43	126,00
-32949,14	211,00
-32850,29	249,00
-32751,87	311,00
-32653,89	208,00
-32556,33	230,00
-32459,20	247,00
-32362,49	248,00
-32266,19	263,00
-32170,32	151,00
-32074,86	265,00
-31979,82	335,00
-31885,18	239,00
-31790,95	138,00
-31697,12	196,00
-31603,69	335,00
-31510,67	197,00
-31418,04	261,00
-31325,80	154,00
-31233,95	240,00
-31142,49	190,00
-31051,42	248,00
-30960,73	294,00
-30870,43	241,00
-30780,50	215,00
-30690,95	273,00
-30601,77	220,00
-30512,97	237,00
-30424,53	230,00
-30336,46	332,00
-30248,76	194,00
-30161,42	329,00
-30074,44	350,00
-29987,81	245,00
-29901,55	348,00
-29815,63	164,00
-29730,07	200,00
-29644,86	-3,00
-29560,00	292,00
-29475,48	236,00
-29391,30	148,00
-29307,47	193,00
-29223,97	304,00
-29140,81	290,00
-29057,99	191,00
-28975,50	236,00
-28893,34	284,00
-28811,51	173,00
-28730,00	239,00
-28648,82	265,00
-28567,97	341,00
-28487,43	223,00
-28407,21	264,00
-28327,32	197,00
-28247,73	181,00
-28168,46	166,00
-28089,50	125,00
-28010,85	185,00
-27932,51	203,00
-27854,48	266,00
-27776,75	161,00
-27699,32	405,00
-27622,19	287,00
-27545,37	323,00
-27468,84	298,00
-27392,60	342,00
-27316,66	227,00
-27241,01	308,00
-27165,66	265,00
-27090,59	156,00
-27015,81	312,00
-26941,31	259,00
-26867,10	213,00
-26793,17	322,00
-26719,52	221,00
-26646,15	245,00
-26573,06	165,00
-26500,24	192,00
-26427,70	269,00
-26355,43	258,00
-26283,43	291,00
-26211,71	322,00
-26140,25	154,00
-26069,06	275,00
-25998,13	126,00
-25927,46	217,00
-25857,06	198,00
-25786,92	259,00
-25717,04	240,00
-25647,42	270,00
-25578,05	216,00
-25508,94	335,00
-25440,09	226,00
-25371,48	316,00
-25303,13	368,00
-25235,02	90,00
-25167,17	142,00
-25099,56	320,00
-25032,19	226,00
-24965,07	345,00
-24898,20	223,00
-24831,56	187,00
-24765,17	225,00
-24699,01	214,00
-24633,10	191,00
-24567,41	197,00
-24501,97	250,00
-24436,75	283,00
-24371,77	198,00
-24307,03	332,00
-24242,51	273,00
-24178,22	151,00
-24114,16	225,00
-24050,32	371,00
-23986,71	128,00
-23923,32	217,00
-23860,16	232,00
-23797,22	283,00
-23734,50	314,00
-23672,00	153,00
-23609,71	208,00
-23547,65	221,00
-23485,80	227,00
-23424,16	206,00
-23362,74	238,00
-23301,53	212,00
-23240,54	239,00
-23179,75	320,00
-23119,17	267,00
-23058,80	256,00
-22998,64	236,00
-22938,68	338,00
-22878,93	263,00
-22819,39	191,00
-22760,04	308,00
-22700,90	197,00
-22641,96	306,00
-22583,22	216,00
-22524,68	223,00
-22466,33	188,00
-22408,19	229,00
-22350,23	237,00
-22292,48	272,00
-22234,92	238,00
-22177,55	303,00
-22120,37	220,00
-22063,38	278,00
-22006,58	215,00
-21949,98	258,00
-21893,56	264,00
-21837,33	243,00
-21781,28	175,00
-21725,42	159,00
-21669,74	286,00
-21614,25	242,00
-21558,94	279,00
-21503,81	340,00
-21448,86	257,00
-21394,10	167,00
-21339,51	306,00
-21285,10	338,00
-21230,86	159,00
-21176,81	170,00
-21122,93	291,00
-21069,22	256,00
-21015,69	211,00
-20962,33	233,00
-20909,14	314,00
-20856,13	259,00
-20803,28	103,00
-20750,61	214,00
-20698,10	181,00
-20645,76	252,00
-20593,59	290,00
-20541,59	229,00
-20489,75	353,00
-20438,07	203,00
-20386,56	367,00
-20335,22	202,00
-20284,03	230,00
-20233,01	176,00
-20182,15	193,00
-20131,45	286,00
-20080,91	249,00
-20030,52	277,00
-19980,30	253,00
-19930,23	168,00
-19880,32	355,00
-19830,56	100,00
-19780,96	188,00
-19731,52	155,00
-19682,23	175,00
-19633,09	274,00
-19584,10	243,00
-19535,26	333,00
-19486,58	207,00
-19438,04	406,00
-19389,66	343,00
-19341,42	200,00
-19293,33	198,00
-19245,39	176,00
-19197,60	271,00
-19149,95	244,00
-19102,45	161,00
-19055,09	177,00
-19007,87	184,00
-18960,80	250,00
-18913,87	359,00
-18867,09	128,00
-18820,44	288,00
-18773,94	301,00
-18727,57	243,00
-18681,35	206,00
-18635,26	207,00
-18589,31	163,00
-18543,50	306,00
-18497,83	299,00
-18452,29	242,00
-18406,89	277,00
-18361,63	149,00
-18316,50	295,00
-18271,50	181,00
-18226,63	305,00
-18181,90	286,00
-18137,30	295,00
-18092,84	185,00
-18048,50	200,00
-18004,29	289,00
-17960,22	179,00
-17916,27	150,00
-17872,45	227,00
-17828,76	192,00
-17785,20	192,00
-17741,77	141,00
-17698,46	233,00
-17655,28	307,00
-17612,22	341,00
-17569,29	202,00
-17526,48	293,00
-17483,79	317,00
-17441,23	134,00
-17398,79	204,00
-17356,48	310,00
-17314,28	217,00
-17272,21	214,00
-17230,26	192,00
-17188,42	205,00
-17146,71	233,00
-17105,12	220,00
-17063,64	363,00
-17022,28	187,00
-16981,04	270,00
-16939,92	246,00
-16898,91	344,00
-16858,02	282,00
-16817,25	281,00
-16776,59	244,00
-16736,04	297,00
-16695,61	293,00
-16655,29	116,00
-16615,09	283,00
-16574,99	232,00
-16535,01	243,00
-16495,15	189,00
-16455,39	190,00
-16415,74	255,00
-16376,21	230,00
-16336,78	252,00
-16297,46	77,00
-16258,26	270,00
-16219,16	318,00
-16180,17	254,00
-16141,28	210,00
-16102,51	186,00
-16063,84	258,00
-16025,27	183,00
-15986,82	272,00
-15948,46	318,00
-15910,22	304,00
-15872,07	257,00
-15834,04	220,00
-15796,10	252,00
-15758,27	282,00
-15720,54	240,00
-15682,91	329,00
-15645,39	192,00
-15607,97	280,00
-15570,64	171,00
-15533,42	260,00
-15496,30	182,00
-15459,28	271,00
-15422,36	243,00
-15385,54	215,00
-15348,82	209,00
-15312,19	86,00
-15275,66	239,00
-15239,23	296,00
-15202,90	194,00
-15166,67	225,00
-15130,53	192,00
-15094,48	163,00
-15058,54	257,00
-15022,68	171,00
-14986,93	242,00
-14951,26	210,00
-14915,69	222,00
-14880,22	176,00
-14844,84	266,00
-14809,55	306,00
-14774,35	281,00
-14739,25	251,00
-14704,24	140,00
-14669,32	213,00
-14634,49	213,00
-14599,75	320,00
-14565,10	206,00
-14530,55	303,00
-14496,08	241,00
-14461,70	137,00
-14427,41	295,00
-14393,21	203,00
-14359,10	287,00
-14325,07	148,00
-14291,14	236,00
-14257,29	251,00
-14223,52	167,00
-14189,85	152,00
-14156,26	212,00
-14122,76	338,00
-14089,34	123,00
-14056,01	243,00
-14022,76	200,00
-13989,60	238,00
-13956,52	213,00
-13923,53	322,00
-13890,62	114,00
-13857,79	322,00
-13825,05	330,00
-13792,39	333,00
-13759,81	262,00
-13727,31	273,00
-13694,90	197,00
-13662,57	236,00
-13630,31	221,00
-13598,14	274,00
-13566,05	164,00
-13534,05	125,00
-13502,12	242,00
-13470,27	150,00
-13438,50	181,00
-13406,80	242,00
-13375,19	234,00
-13343,66	209,00
-13312,20	219,00
-13280,83	209,00
-13249,53	308,00
-13218,30	221,00
-13187,16	290,00
-13156,09	294,00
-13125,10	154,00
-13094,18	191,00
-13063,34	249,00
-13032,58	168,00
-13001,89	273,00
-12971,28	197,00
-12940,74	269,00
-12910,27	241,00
-12879,88	216,00
-12849,57	286,00
-12819,33	247,00
-12789,16	233,00
-12759,06	263,00
-12729,04	269,00
-12699,09	566,00
-12669,21	279,00
-12639,41	212,00
-12609,68	258,00
-12580,02	212,00
-12550,43	225,00
-12520,91	167,00
-12491,46	277,00
-12462,08	256,00
-12432,77	195,00
-12403,54	373,00
-12374,37	141,00
-12345,27	191,00
-12316,24	248,00
-12287,29	360,00
-12258,40	155,00
-12229,57	198,00
-12200,82	247,00
-12172,14	259,00
-12143,52	71,00
-12114,97	199,00
-12086,49	231,00
-12058,07	239,00
-12029,73	262,00
-12001,44	374,00
-11973,23	228,00
-11945,08	284,00
-11917,00	233,00
-11888,98	189,00
-11861,03	324,00
-11833,15	129,00
-11805,32	82,00
-11777,57	296,00
-11749,88	215,00
-11722,25	313,00
-11694,69	199,00
-11667,19	280,00
-11639,75	347,00
-11612,38	321,00
-11585,07	218,00
-11557,83	222,00
-11530,65	272,00
-11503,53	227,00
-11476,47	192,00
-11449,48	303,00
-11422,54	246,00
-11395,67	213,00
-11368,86	312,00
-11342,11	312,00
-11315,43	233,00
-11288,80	277,00
-11262,23	196,00
-11235,73	247,00
-11209,28	247,00
-11182,90	276,00
-11156,57	305,00
-11130,31	325,00
-11104,10	242,00
-11077,96	367,00
-11051,87	270,00
-11025,84	223,00
-10999,87	203,00
-10973,96	238,00
-10948,11	96,00
-10922,31	189,00
-10896,58	292,00
-10870,90	270,00
-10845,28	283,00
-10819,71	285,00
-10794,20	245,00
-10768,75	226,00
-10743,36	286,00
-10718,02	253,00
-10692,74	215,00
-10667,52	218,00
-10642,35	215,00
-10617,24	189,00
-10592,18	276,00
-10567,18	-23,00
-10542,23	367,00
-10517,34	117,00
-10492,51	199,00
-10467,72	182,00
-10443,00	153,00
-10418,32	185,00
-10393,70	147,00
-10369,14	250,00
-10344,63	307,00
-10320,17	206,00
-10295,77	247,00
-10271,42	109,00
-10247,12	215,00
-10222,88	270,00
-10198,68	164,00
-10174,54	214,00
-10150,46	114,00
-10126,42	179,00
-10102,44	114,00
-10078,51	138,00
-10054,63	190,00
-10030,80	157,00
-10007,03	176,00
-9983,30	149,00
-9959,63	76,00
-9936,01	177,00
-9912,44	28,00
-9888,92	83,00
-9865,44	138,00
-9842,02	141,00
-9818,65	165,00
-9795,33	9,00
-9772,06	128,00
-9748,84	-15,00
-9725,67	11,00
-9702,55	-42,00
-9679,47	-27,00
-9656,45	-88,00
-9633,47	-54,00
-9610,55	-156,00
-9587,67	-157,00
-9564,84	-86,00
-9542,06	-209,00
-9519,32	-287,00
-9496,64	-280,00
-9474,00	-268,00
-9451,41	-542,00
-9428,87	-408,00
-9406,37	-578,00
-9383,92	-428,00
-9361,52	-466,00
-9339,17	-519,00
-9316,86	-533,00
-9294,60	-679,00
-9272,38	-597,00
-9250,21	-626,00
-9228,09	-777,00
-9206,01	-603,00
-9183,98	-608,00
-9162,00	-679,00
-9140,06	-601,00
-9118,16	-623,00
-9096,31	-702,00
-9074,51	-684,00
-9052,75	-715,00
-9031,04	-578,00
-9009,37	-566,00
-8987,74	-430,00
-8966,16	-430,00
-8944,63	-371,00
-8923,14	-522,00
-8901,69	-290,00
-8880,29	-425,00
-8858,93	-427,00
-8837,61	-556,00
-8816,34	-349,00
-8795,11	-529,00
-8773,92	-430,00
-8752,78	-379,00
-8731,68	-212,00
-8710,62	-444,00
-8689,61	-392,00
-8668,63	-426,00
-8647,70	-415,00
-8626,82	-380,00
-8605,97	-312,00
-8585,17	-307,00
-8564,41	-213,00
-8543,69	-344,00
-8523,01	-292,00
-8502,37	-309,00
-8481,78	-251,00
-8461,23	-291,00
-8440,71	-430,00
-8420,24	-376,00
-8399,81	-299,00
-8379,42	-324,00
-8359,08	-242,00
-8338,77	-325,00
-8318,50	-226,00
-8298,27	-241,00
-8278,09	-284,00
-8257,94	-369,00
-8237,83	-248,00
-8217,76	-323,00
-8197,74	-342,00
-8177,75	-303,00
-8157,80	-258,00
-8137,89	-292,00
-8118,02	-252,00
-8098,19	-176,00
-8078,40	-185,00
-8058,65	-128,00
-8038,93	-132,00
-8019,26	-176,00
-7999,62	-182,00
-7980,02	-169,00
-7960,46	-78,00
-7940,94	-256,00
-7921,46	-84,00
-7902,01	-192,00
-7882,60	13,00
-7863,23	-182,00
-7843,90	-72,00
-7824,61	-116,00
-7805,35	-56,00
-7786,13	-141,00
-7766,95	-129,00
-7747,80	-146,00
-7728,69	-18,00
-7709,62	-110,00
-7690,59	-66,00
-7671,59	-82,00
-7652,63	-177,00
-7633,70	-119,00
-7614,81	-101,00
-7595,96	-235,00
-7577,15	-60,00
-7558,37	-164,00
-7539,62	16,00
-7520,91	-12,00
-7502,24	-150,00
-7483,60	-71,00
-7465,00	-131,00
-7446,44	-23,00
-7427,91	-82,00
-7409,41	-7,00
-7390,95	47,00
-7372,53	-111,00
-7354,14	-84,00
-7335,78	-34,00
-7317,46	-115,00
-7299,18	-136,00
-7280,92	-104,00
-7262,71	-57,00
-7244,52	-155,00
-7226,38	-97,00
-7208,26	-158,00
-7190,18	-188,00
-7172,14	-82,00
-7154,12	9,00
-7136,15	-209,00
-7118,20	-121,00
-7100,29	-216,00
-7082,41	-78,00
-7064,57	-239,00
-7046,76	-118,00
-7028,98	-96,00
-7011,24	35,00
-6993,53	-138,00
-6975,85	-116,00
-6958,20	-59,00
-6940,59	-77,00
-6923,01	-29,00
-6905,46	10,00
-6887,94	-142,00
-6870,46	-137,00
-6853,01	-125,00
-6835,59	-78,00
-6818,21	-96,00
-6800,85	41,00
-6783,53	117,00
-6766,24	128,00
-6748,98	-70,00
-6731,76	-20,00
-6714,56	-21,00
-6697,40	-64,00
-6680,26	30,00
-6663,16	-67,00
-6646,09	-50,00
-6629,05	-89,00
-6612,05	-60,00
-6595,07	-156,00
-6578,13	-132,00
-6561,21	3,00
-6544,33	76,00
-6527,47	64,00
-6510,65	-109,00
-6493,86	22,00
-6477,10	-86,00
-6460,36	-38,00
-6443,66	52,00
-6426,99	4,00
-6410,35	86,00
-6393,74	15,00
-6377,16	83,00
-6360,61	-12,00
-6344,09	-46,00
-6327,59	34,00
-6311,13	3,00
-6294,70	-31,00
-6278,29	-14,00
-6261,92	7,00
-6245,58	-19,00
-6229,26	54,00
-6212,97	24,00
-6196,72	-30,00
-6180,49	85,00
-6164,29	86,00
-6148,12	69,00
-6131,98	12,00
-6115,86	86,00
-6099,78	26,00
-6083,72	-20,00
-6067,69	81,00
-6051,69	106,00
-6035,72	197,00
-6019,78	26,00
-6003,87	-48,00
-5987,98	2,00
-5972,12	-111,00
-5956,29	-96,00
-5940,49	19,00
-5924,71	116,00
-5908,96	198,00
-5893,24	-15,00
-5877,55	11,00
-5861,89	67,00
-5846,25	3,00
-5830,64	-39,00
-5815,05	90,00
-5799,50	137,00
-5783,97	128,00
-5768,47	33,00
-5752,99	-13,00
-5737,55	46,00
-5722,12	-43,00
-5706,73	80,00
-5691,36	28,00
-5676,02	35,00
-5660,71	186,00
-5645,42	127,00
-5630,16	62,00
-5614,92	92,00
-5599,71	-99,00
-5584,53	48,00
-5569,37	7,00
-5554,24	-720,00
-5539,14	122,00
-5524,06	5,00
-5509,01	120,00
-5493,98	70,00
-5478,98	54,00
-5464,00	128,00
-5449,05	176,00
-5434,13	166,00
-5419,23	164,00
-5404,36	151,00
-5389,51	37,00
-5374,69	123,00
-5359,89	36,00
-5345,12	10,00
-5330,37	39,00
-5315,65	6,00
-5300,95	139,00
-5286,28	40,00
-5271,63	43,00
-5257,01	126,00
-5242,41	-5,00
-5227,84	88,00
-5213,29	44,00
-5198,76	59,00
-5184,26	70,00
-5169,79	194,00
-5155,33	40,00
-5140,91	111,00
-5126,51	148,00
-5112,13	100,00
-5097,77	72,00
-5083,44	-23,00
-5069,13	101,00
-5054,85	88,00
-5040,59	115,00
-5026,36	149,00
-5012,15	56,00
-4997,96	-14,00
-4983,80	142,00
-4969,66	88,00
-4955,54	166,00
-4941,44	280,00
-4927,37	65,00
-4913,33	23,00
-4899,30	75,00
-4885,30	93,00
-4871,33	48,00
-4857,37	214,00
-4843,44	174,00
-4829,53	168,00
-4815,65	132,00
-4801,79	22,00
-4787,95	114,00
-4774,13	165,00
-4760,34	199,00
-4746,56	235,00
-4732,82	178,00
-4719,09	100,00
-4705,38	82,00
-4691,70	213,00
-4678,04	41,00
-4664,41	46,00
-4650,79	201,00
-4637,20	150,00
-4623,63	143,00
-4610,08	118,00
-4596,56	116,00
-4583,05	139,00
-4569,57	159,00
-4556,11	154,00
-4542,67	58,00
-4529,25	195,00
-4515,86	247,00
-4502,49	38,00
-4489,13	70,00
-4475,80	140,00
-4462,49	116,00
-4449,21	205,00
-4435,94	251,00
-4422,70	188,00
-4409,47	68,00
-4396,27	243,00
-4383,09	-27,00
-4369,93	112,00
-4356,79	299,00
-4343,67	185,00
-4330,58	101,00
-4317,50	251,00
-4304,45	199,00
-4291,41	146,00
-4278,40	189,00
-4265,41	262,00
-4252,44	180,00
-4239,49	142,00
-4226,55	134,00
-4213,65	161,00
-4200,76	216,00
-4187,89	209,00
-4175,04	224,00
-4162,21	115,00
-4149,40	134,00
-4136,61	161,00
-4123,85	276,00
-4111,10	242,00
-4098,37	213,00
-4085,66	266,00
-4072,98	220,00
-4060,31	239,00
-4047,66	228,00
-4035,04	276,00
-4022,43	186,00
-4009,84	305,00
-3997,27	144,00
-3984,72	194,00
-3972,19	227,00
-3959,69	207,00
-3947,20	242,00
-3934,73	154,00
-3922,27	281,00
-3909,84	200,00
-3897,43	331,00
-3885,04	221,00
-3872,67	262,00
-3860,31	232,00
-3847,98	300,00
-3835,66	249,00
-3823,36	184,00
-3811,09	179,00
-3798,83	237,00
-3786,59	274,00
-3774,37	275,00
-3762,17	262,00
-3749,98	214,00
-3737,82	243,00
-3725,67	364,00
-3713,55	200,00
-3701,44	187,00
-3689,35	167,00
-3677,28	291,00
-3665,22	231,00
-3653,19	163,00
-3641,17	237,00
-3629,18	266,00
-3617,20	253,00
-3605,24	290,00
-3593,30	180,00
-3581,37	223,00
-3569,47	247,00
-3557,58	130,00
-3545,71	281,00
-3533,86	312,00
-3522,02	219,00
-3510,21	255,00
-3498,41	294,00
-3486,63	389,00
-3474,87	242,00
-3463,12	273,00
-3451,40	182,00
-3439,69	249,00
-3428,00	271,00
-3416,33	256,00
-3404,67	258,00
-3393,03	171,00
-3381,41	268,00
-3369,81	267,00
-3358,22	278,00
-3346,66	218,00
-3335,10	199,00
-3323,57	240,00
-3312,06	267,00
-3300,56	194,00
-3289,08	237,00
-3277,61	168,00
-3266,16	194,00
-3254,73	369,00
-3243,32	146,00
-3231,92	319,00
-3220,55	212,00
-3209,18	301,00
-3197,84	183,00
-3186,51	314,00
-3175,20	247,00
-3163,90	309,00
-3152,63	303,00
-3141,36	245,00
-3130,12	230,00
-3118,89	305,00
-3107,68	257,00
-3096,49	248,00
-3085,31	245,00
-3074,15	337,00
-3063,00	321,00
-3051,87	283,00
-3040,76	311,00
-3029,67	308,00
-3018,59	193,00
-3007,52	204,00
-2996,48	216,00
-2985,44	277,00
-2974,43	257,00
-2963,43	191,00
-2952,45	313,00
-2941,48	305,00
-2930,53	160,00
-2919,60	390,00
-2908,68	184,00
-2897,78	191,00
-2886,89	385,00
-2876,02	290,00
-2865,17	230,00
-2854,33	241,00
-2843,50	336,00
-2832,70	347,00
-2821,90	218,00
-2811,13	274,00
-2800,37	187,00
-2789,62	268,00
-2778,89	200,00
-2768,18	378,00
-2757,48	322,00
-2746,80	221,00
-2736,13	270,00
-2725,48	315,00
-2714,84	324,00
-2704,22	245,00
-2693,61	205,00
-2683,02	287,00
-2672,45	266,00
-2661,89	285,00
-2651,34	265,00
-2640,81	371,00
-2630,30	282,00
-2619,80	267,00
-2609,31	200,00
-2598,84	140,00
-2588,39	216,00
-2577,95	141,00
-2567,52	196,00
-2557,11	272,00
-2546,71	358,00
-2536,33	148,00
-2525,97	158,00
-2515,62	344,00
-2505,28	151,00
-2494,96	192,00
-2484,65	243,00
-2474,36	372,00
-2464,08	305,00
-2453,82	281,00
-2443,57	256,00
-2433,33	205,00
-2423,11	245,00
-2412,91	220,00
-2402,72	221,00
-2392,54	159,00
-2382,38	225,00
-2372,23	211,00
-2362,09	583,00
-2351,97	313,00
-2341,87	77,00
-2331,78	360,00
-2321,70	193,00
-2311,64	177,00
-2301,59	206,00
-2291,55	225,00
-2281,53	206,00
-2271,53	175,00
-2261,53	207,00
-2251,55	251,00
-2241,59	188,00
-2231,64	219,00
-2221,70	369,00
-2211,78	273,00
-2201,87	262,00
-2191,97	257,00
-2182,09	332,00
-2172,22	322,00
-2162,37	234,00
-2152,53	186,00
-2142,70	224,00
-2132,89	227,00
-2123,09	342,00
-2113,30	217,00
-2103,53	243,00
-2093,77	339,00
-2084,02	273,00
-2074,29	384,00
-2064,57	250,00
-2054,86	272,00
-2045,17	251,00
-2035,49	261,00
-2025,82	301,00
-2016,17	224,00
-2006,53	332,00
-1996,91	365,00
-1987,29	219,00
-1977,69	215,00
-1968,11	188,00
-1958,53	215,00
-1948,97	319,00
-1939,42	276,00
-1929,89	364,00
-1920,37	369,00
-1910,86	319,00
-1901,36	290,00
-1891,88	273,00
-1882,41	186,00
-1872,95	244,00
-1863,51	227,00
-1854,08	189,00
-1844,66	264,00
-1835,26	181,00
-1825,86	240,00
-1816,48	270,00
-1807,11	170,00
-1797,76	211,00
-1788,42	253,00
-1779,09	186,00
-1769,77	262,00
-1760,47	240,00
-1751,17	190,00
-1741,89	275,00
-1732,63	228,00
-1723,37	245,00
-1714,13	315,00
-1704,90	294,00
-1695,68	174,00
-1686,48	225,00
-1677,29	219,00
-1668,11	348,00
-1658,94	251,00
-1649,78	285,00
-1640,64	264,00
-1631,51	237,00
-1622,39	335,00
-1613,28	243,00
-1604,19	273,00
-1595,10	334,00
-1586,03	324,00
-1576,97	289,00
-1567,93	359,00
-1558,89	270,00
-1549,87	322,00
-1540,86	174,00
-1531,86	252,00
-1522,87	339,00
-1513,90	315,00
-1504,93	242,00
-1495,98	311,00
-1487,04	223,00
-1478,12	254,00
-1469,20	320,00
-1460,30	166,00
-1451,40	312,00
-1442,52	205,00
-1433,65	211,00
-1424,80	324,00
-1415,95	282,00
-1407,12	125,00
-1398,30	239,00
-1389,48	235,00
-1380,69	238,00
-1371,90	125,00
-1363,12	201,00
-1354,36	360,00
-1345,60	137,00
-1336,86	423,00
-1328,13	307,00
-1319,41	285,00
-1310,70	257,00
-1302,01	291,00
-1293,32	243,00
-1284,65	258,00
-1275,99	319,00
-1267,33	179,00
-1258,69	236,00
-1250,06	305,00
-1241,45	213,00
-1232,84	172,00
-1224,25	200,00
-1215,66	288,00
-1207,09	223,00
-1198,53	256,00
-1189,97	223,00
-1181,43	117,00
-1172,91	255,00
-1164,39	236,00
-1155,88	191,00
-1147,38	211,00
-1138,90	357,00
-1130,43	288,00
-1121,96	182,00
-1113,51	289,00
-1105,07	223,00
-1096,64	383,00
-1088,22	252,00
-1079,81	203,00
-1071,41	341,00
-1063,02	237,00
-1054,65	318,00
-1046,28	307,00
-1037,92	172,00
-1029,58	220,00
-1021,24	176,00
-1012,92	276,00
-1004,61	304,00
-996,30	382,00
-988,01	131,00
-979,73	288,00
-971,46	297,00
-963,20	195,00
-954,95	232,00
-946,71	205,00
-938,48	264,00
-930,26	214,00
-922,06	166,00
-913,86	206,00
-905,67	136,00
-897,49	216,00
-889,33	254,00
-881,17	227,00
-873,02	149,00
-864,89	186,00
-856,76	90,00
-848,65	271,00
-840,54	345,00
-832,45	312,00
-824,36	285,00
-816,29	423,00
-808,22	391,00
-800,17	268,00
-792,12	289,00
-784,09	369,00
-776,06	320,00
-768,05	306,00
-760,04	248,00
-752,05	204,00
-744,07	113,00
-736,09	261,00
-728,13	333,00
-720,17	248,00
-712,23	225,00
-704,29	163,00
-696,37	257,00
-688,45	249,00
-680,55	212,00
-672,65	266,00
-664,77	149,00
-656,89	192,00
-649,03	197,00
-641,17	171,00
-633,32	343,00
-625,49	223,00
-617,66	277,00
-609,84	210,00
-602,03	189,00
-594,23	108,00
-586,45	409,00
-578,67	334,00
-570,90	305,00
-563,14	207,00
-555,39	313,00
-547,65	293,00
-539,91	285,00
-532,19	197,00
-524,48	347,00
-516,78	214,00
-509,08	251,00
-501,40	255,00
-493,72	227,00
-486,06	132,00
-478,40	220,00
-470,76	192,00
-463,12	299,00
-455,49	255,00
-447,87	281,00
-440,26	253,00
-432,66	219,00
-425,07	345,00
-417,49	228,00
-409,92	234,00
-402,35	133,00
-394,80	341,00
-387,25	237,00
-379,72	387,00
-372,19	183,00
-364,67	304,00
-357,17	242,00
-349,67	118,00
-342,18	199,00
-334,69	297,00
-327,22	167,00
-319,76	163,00
-312,30	410,00
-304,86	327,00
-297,42	333,00
-290,00	222,00
-282,58	260,00
-275,17	332,00
-267,77	268,00
-260,37	324,00
-252,99	280,00
-245,62	290,00
-238,25	359,00
-230,90	354,00
-223,55	319,00
-216,21	194,00
-208,88	525,00
-201,56	399,00
-194,25	424,00
-186,94	410,00
-179,65	429,00
-172,36	353,00
-165,08	502,00
-157,81	456,00
-150,55	491,00
-143,30	404,00
-136,06	653,00
-128,82	659,00
-121,60	666,00
-114,38	708,00
-107,17	732,00
-99,97	904,00
-92,78	954,00
-85,60	958,00
-78,42	1205,00
-71,25	1230,00
-64,10	1342,00
-56,95	1569,00
-49,81	1853,00
-42,67	2225,00
-35,55	2802,00
-28,43	3540,00
-21,33	5992,00
-14,23	19700,00
-7,14	55635,00
-0,05	55419,00
7,02	55129,00
14,09	55339,00
21,14	16957,00
28,19	7099,00
35,23	4564,00
42,27	3636,00
49,29	3033,00
56,31	2536,00
63,32	2163,00
70,32	1808,00
77,31	1507,00
84,29	1323,00
91,27	1216,00
98,23	1110,00
105,19	1238,00
112,14	1138,00
119,09	1463,00
126,02	1960,00
132,95	1993,00
139,87	1980,00
146,78	1873,00
153,68	1911,00
160,58	1868,00
167,46	1785,00
174,34	1917,00
181,21	1809,00
188,08	1848,00
194,93	1801,00
201,78	1732,00
208,62	1791,00
215,45	1698,00
222,27	1615,00
229,09	1740,00
235,90	1769,00
242,70	1752,00
249,49	1633,00
256,27	1583,00
263,05	1662,00
269,82	1652,00
276,58	1673,00
283,33	1531,00
290,08	1489,00
296,82	1475,00
303,55	1478,00
310,27	1530,00
316,98	1579,00
323,69	1545,00
330,39	1463,00
337,08	1483,00
343,76	1494,00
350,44	1563,00
357,11	1391,00
363,77	1433,00
370,42	1502,00
377,07	1452,00
383,71	1311,00
390,34	1562,00
396,96	1400,00
403,58	1409,00
410,19	1565,00
416,79	1411,00
423,38	1547,00
429,97	1553,00
436,55	1309,00
443,12	1395,00
449,68	1332,00
456,24	1334,00
462,79	1287,00
469,33	1259,00
475,86	1264,00
482,39	1422,00
488,91	1215,00
495,42	1287,00
501,93	1257,00
508,42	1299,00
514,91	1375,00
521,40	1251,00
527,87	1149,00
534,34	1133,00
540,80	1168,00
547,25	1220,00
553,70	1193,00
560,14	1138,00
566,57	1278,00
573,00	1189,00
579,41	1239,00
585,83	1121,00
592,23	1151,00
598,62	1069,00
605,01	1130,00
611,40	1102,00
617,77	1185,00
624,14	1112,00
630,50	1093,00
636,85	1069,00
643,20	1199,00
649,54	990,00
655,87	1179,00
662,20	1167,00
668,52	1057,00
674,83	1068,00
681,13	993,00
687,43	1028,00
693,72	1018,00
700,00	1099,00
706,28	1025,00
712,55	981,00
718,81	1093,00
725,07	1071,00
731,32	983,00
737,56	1138,00
743,79	1023,00
750,02	1128,00
756,24	980,00
762,46	1044,00
768,67	1086,00
774,87	1100,00
781,06	1048,00
787,25	1140,00
793,43	1054,00
799,60	953,00
805,77	1128,00
811,93	1166,00
818,08	1009,00
824,23	1036,00
830,37	1071,00
836,50	1143,00
842,63	1008,00
848,75	1088,00
854,87	1050,00
860,97	961,00
867,07	1050,00
873,17	1100,00
879,25	1013,00
885,33	1006,00
891,41	1083,00
897,47	1147,00
903,53	1095,00
909,59	1027,00
915,63	1053,00
921,67	997,00
927,71	988,00
933,74	983,00
939,76	873,00
945,77	934,00
951,78	938,00
957,78	983,00
963,78	914,00
969,77	838,00
975,75	1055,00
981,72	1003,00
987,69	1221,00
993,66	978,00
999,61	919,00
1005,56	918,00
1011,51	994,00
1017,44	974,00
1023,37	977,00
1029,30	1014,00
1035,22	915,00
1041,13	998,00
1047,03	1062,00
1052,93	1097,00
1058,83	1252,00
1064,71	1414,00
1070,59	1225,00
1076,47	1031,00
1082,33	1027,00
1088,20	1067,00
1094,05	986,00
1099,90	1059,00
1105,74	921,00
1111,58	901,00
1117,41	1005,00
1123,23	1281,00
1129,05	1148,00
1134,86	1091,00
1140,67	1019,00
1146,47	797,00
1152,26	780,00
1158,05	934,00
1163,83	880,00
1169,60	929,00
1175,37	822,00
1181,13	956,00
1186,89	882,00
1192,64	814,00
1198,38	833,00
1204,12	868,00
1209,85	896,00
1215,58	980,00
1221,30	871,00
1227,02	964,00
1232,72	827,00
1238,43	957,00
1244,12	943,00
1249,81	1004,00
1255,50	864,00
1261,17	774,00
1266,85	987,00
1272,51	999,00
1278,17	1130,00
1283,83	900,00
1289,47	1365,00
1295,12	1424,00
1300,75	1383,00
1306,38	1103,00
1312,01	1112,00
1317,63	947,00
1323,24	1037,00
1328,85	896,00
1334,45	939,00
1340,04	1014,00
1345,63	888,00
1351,22	1108,00
1356,80	855,00
1362,37	987,00
1367,93	1058,00
1373,49	995,00
1379,05	1084,00
1384,60	1028,00
1390,14	948,00
1395,68	897,00
1401,21	893,00
1406,74	956,00
1412,26	1003,00
1417,77	978,00
1423,28	1126,00
1428,78	1290,00
1434,28	1251,00
1439,77	1525,00
1445,26	1394,00
1450,74	1484,00
1456,22	1426,00
1461,68	1346,00
1467,15	1272,00
1472,61	1223,00
1478,06	1118,00
1483,51	1019,00
1488,95	894,00
1494,38	879,00
1499,81	873,00
1505,24	952,00
1510,65	910,00
1516,07	907,00
1521,48	881,00
1526,88	769,00
1532,27	883,00
1537,67	890,00
1543,05	925,00
1548,43	739,00
1553,81	868,00
1559,18	899,00
1564,54	860,00
1569,90	813,00
1575,25	772,00
1580,60	826,00
1585,94	780,00
1591,28	802,00
1596,61	750,00
1601,93	703,00
1607,25	821,00
1612,57	930,00
1617,88	776,00
1623,18	825,00
1628,48	742,00
1633,77	660,00
1639,06	764,00
1644,34	751,00
1649,62	760,00
1654,89	785,00
1660,16	740,00
1665,42	733,00
1670,67	690,00
1675,92	782,00
1681,17	758,00
1686,41	656,00
1691,64	604,00
1696,87	822,00
1702,10	600,00
1707,32	720,00
1712,53	852,00
1717,74	774,00
1722,94	706,00
1728,14	604,00
1733,33	712,00
1738,52	775,00
1743,70	737,00
1748,88	658,00
1754,05	654,00
1759,22	625,00
1764,38	-787,00
1769,53	677,00
1774,69	627,00
1779,83	734,00
1784,97	706,00
1790,11	525,00
1795,24	673,00
1800,36	673,00
1805,48	579,00
1810,60	646,00
1815,71	635,00
1820,82	642,00
1825,92	643,00
1831,01	620,00
1836,10	683,00
1841,19	687,00
1846,26	421,00
1851,34	549,00
1856,41	581,00
1861,47	604,00
1866,53	720,00
1871,59	657,00
1876,64	674,00
1881,68	740,00
1886,72	538,00
1891,76	539,00
1896,79	570,00
1901,81	505,00
1906,83	611,00
1911,85	516,00
1916,86	646,00
1921,86	552,00
1926,86	670,00
1931,86	478,00
1936,85	461,00
1941,83	551,00
1946,81	516,00
1951,79	587,00
1956,76	510,00
1961,72	454,00
1966,68	413,00
1971,64	515,00
1976,59	526,00
1981,54	471,00
1986,48	482,00
1991,42	592,00
1996,35	537,00
2001,27	467,00
2006,20	460,00
2011,11	531,00
2016,03	526,00
2020,93	449,00
2025,84	525,00
2030,73	502,00
2035,63	518,00
2040,52	537,00
2045,40	538,00
2050,28	509,00
2055,15	571,00
2060,02	482,00
2064,89	549,00
2069,75	420,00
2074,60	560,00
2079,46	477,00
2084,30	462,00
2089,14	495,00
2093,98	529,00
2098,81	449,00
2103,64	489,00
2108,46	418,00
2113,28	548,00
2118,09	463,00
2122,90	484,00
2127,70	457,00
2132,50	506,00
2137,30	494,00
2142,09	462,00
2146,87	466,00
2151,66	597,00
2156,43	448,00
2161,20	465,00
2165,97	471,00
2170,73	458,00
2175,49	451,00
2180,24	460,00
2184,99	489,00
2189,74	520,00
2194,48	599,00
2199,21	573,00
2203,94	496,00
2208,67	503,00
2213,39	614,00
2218,11	409,00
2222,82	401,00
2227,53	476,00
2232,23	406,00
2236,93	448,00
2241,63	473,00
2246,32	529,00
2251,00	457,00
2255,68	515,00
2260,36	430,00
2265,03	426,00
2269,70	382,00
2274,36	445,00
2279,02	476,00
2283,68	450,00
2288,33	347,00
2292,97	428,00
2297,61	426,00
2302,25	510,00
2306,88	398,00
2311,51	422,00
2316,14	420,00
2320,75	446,00
2325,37	468,00
2329,98	590,00
2334,59	314,00
2339,19	329,00
2343,79	443,00
2348,38	409,00
2352,97	374,00
2357,55	404,00
2362,13	506,00
2366,71	313,00
2371,28	588,00
2375,85	450,00
2380,41	295,00
2384,97	501,00
2389,52	428,00
2394,07	408,00
2398,62	451,00
2403,16	472,00
2407,70	343,00
2412,23	387,00
2416,76	379,00
2421,29	396,00
2425,81	403,00
2430,32	410,00
2434,84	410,00
2439,34	426,00
2443,85	419,00
2448,35	400,00
2452,84	450,00
2457,33	534,00
2461,82	422,00
2466,30	354,00
2470,78	413,00
2475,25	414,00
2479,72	366,00
2484,19	427,00
2488,65	534,00
2493,11	460,00
2497,56	456,00
2502,01	204,00
2506,46	314,00
2510,90	323,00
2515,34	317,00
2519,77	331,00
2524,20	401,00
2528,62	486,00
2533,04	346,00
2537,46	333,00
2541,87	276,00
2546,28	369,00
2550,68	479,00
2555,08	403,00
2559,48	465,00
2563,87	344,00
2568,26	401,00
2572,64	429,00
2577,02	469,00
2581,40	410,00
2585,77	365,00
2590,14	176,00
2594,50	333,00
2598,86	298,00
2603,22	298,00
2607,57	487,00
2611,92	354,00
2616,26	382,00
2620,60	408,00
2624,94	202,00
2629,27	422,00
2633,60	296,00
2637,92	416,00
2642,24	474,00
2646,56	432,00
2650,87	376,00
2655,18	500,00
2659,48	373,00
2663,78	357,00
2668,08	261,00
2672,37	349,00
2676,66	462,00
2680,95	406,00
2685,23	454,00
2689,50	445,00
2693,78	441,00
2698,05	383,00
2702,31	363,00
2706,57	452,00
2710,83	464,00
2715,08	414,00
2719,33	448,00
2723,58	390,00
2727,82	456,00
2732,06	306,00
2736,29	445,00
2740,53	559,00
2744,75	368,00
2748,97	327,00
2753,19	304,00
2757,41	416,00
2761,62	384,00
2765,83	409,00
2770,03	267,00
2774,23	461,00
2778,43	368,00
2782,62	403,00
2786,81	496,00
2791,00	436,00
2795,18	489,00
2799,35	337,00
2803,53	490,00
2807,70	536,00
2811,86	475,00
2816,03	422,00
2820,19	483,00
2824,34	584,00
2828,49	400,00
2832,64	546,00
2836,78	667,00
2840,92	868,00
2845,06	926,00
2849,19	998,00
2853,32	1099,00
2857,45	1128,00
2861,57	1072,00
2865,69	1026,00
2869,80	963,00
2873,91	967,00
2878,02	1183,00
2882,12	1074,00
2886,22	1215,00
2890,32	1048,00
2894,41	985,00
2898,50	1074,00
2902,58	889,00
2906,67	915,00
2910,74	775,00
2914,82	842,00
2918,89	983,00
2922,96	746,00
2927,02	748,00
2931,08	676,00
2935,13	633,00
2939,19	677,00
2943,24	609,00
2947,28	570,00
2951,32	551,00
2955,36	554,00
2959,40	494,00
2963,43	485,00
2967,46	418,00
2971,48	328,00
2975,50	368,00
2979,52	269,00
2983,53	452,00
2987,54	390,00
2991,55	359,00
2995,55	347,00
2999,55	376,00
3003,54	439,00
3007,54	400,00
3011,53	361,00
3015,51	353,00
3019,49	353,00
3023,47	378,00
3027,45	260,00
3031,42	283,00
3035,39	317,00
3039,35	330,00
3043,31	351,00
3047,27	309,00
3051,22	271,00
3055,17	365,00
3059,12	171,00
3063,06	266,00
3067,00	237,00
3070,94	331,00
3074,87	312,00
3078,80	321,00
3082,73	304,00
3086,65	255,00
3090,57	168,00
3094,49	297,00
3098,40	297,00
3102,31	302,00
3106,22	206,00
3110,12	244,00
3114,02	318,00
3117,92	312,00
3121,81	334,00
3125,70	263,00
3129,58	313,00
3133,47	269,00
3137,34	342,00
3141,22	178,00
3145,09	328,00
3148,96	305,00
3152,83	282,00
3156,69	320,00
3160,55	278,00
3164,40	272,00
3168,26	247,00
3172,10	285,00
3175,95	311,00
3179,79	228,00
3183,63	371,00
3187,47	251,00
3191,30	293,00
3195,13	251,00
3198,95	270,00
3202,78	179,00
3206,60	252,00
3210,41	254,00
3214,23	372,00
3218,03	163,00
3221,84	335,00
3225,64	237,00
3229,44	256,00
3233,24	295,00
3237,03	315,00
3240,82	287,00
3244,61	299,00
3248,39	235,00
3252,17	357,00
3255,95	244,00
3259,72	363,00
3263,49	184,00
3267,26	239,00
3271,03	221,00
3274,79	253,00
3278,54	284,00
3282,30	181,00
3286,05	276,00
3289,80	229,00
3293,54	276,00
3297,29	213,00
3301,02	199,00
3304,76	205,00
3308,49	203,00
3312,22	228,00
3315,95	221,00
3319,67	369,00
3323,39	316,00
3327,10	309,00
3330,82	257,00
3334,53	309,00
3338,24	343,00
3341,94	215,00
3345,64	214,00
3349,34	249,00
3353,03	195,00
3356,72	323,00
3360,41	258,00
3364,10	304,00
3367,78	247,00
3371,46	230,00
3375,13	291,00
3378,81	198,00
3382,48	200,00
3386,14	260,00
3389,81	251,00
3393,47	288,00
3397,12	394,00
3400,78	306,00
3404,43	217,00
3408,08	265,00
3411,72	238,00
3415,36	120,00
3419,00	272,00
3422,64	330,00
3426,27	217,00
3429,90	184,00
3433,53	311,00
3437,15	351,00
3440,77	234,00
3444,39	306,00
3448,00	238,00
3451,62	210,00
3455,22	166,00
3458,83	257,00
3462,43	258,00
3466,03	272,00
3469,63	277,00
3473,22	169,00
3476,81	255,00
3480,40	305,00
3483,99	212,00
3487,57	139,00
3491,15	229,00
3494,72	283,00
3498,29	310,00
3501,86	272,00
3505,43	305,00
3508,99	130,00
3512,56	244,00
3516,11	270,00
3519,67	207,00
3523,22	362,00
3526,77	286,00
3530,32	163,00
3533,86	186,00
3537,40	408,00
3540,94	240,00
3544,47	192,00
3548,00	281,00
3551,53	248,00
3555,06	350,00
3558,58	271,00
3562,10	209,00
3565,62	246,00
3569,13	181,00
3572,64	292,00
3576,15	156,00
3579,66	303,00
3583,16	330,00
3586,66	210,00
3590,16	144,00
3593,65	187,00
3597,14	322,00
3600,63	246,00
3604,11	220,00
3607,60	225,00
3611,08	280,00
3614,55	232,00
3618,03	235,00
3621,50	186,00
3624,97	185,00
3628,43	209,00
3631,90	147,00
3635,36	217,00
3638,81	255,00
3642,27	166,00
3645,72	304,00
3649,17	218,00
3652,61	195,00
3656,06	211,00
3659,50	239,00
3662,93	100,00
3666,37	202,00
3669,80	211,00
3673,23	169,00
3676,65	210,00
3680,08	208,00
3683,50	236,00
3686,92	295,00
3690,33	222,00
3693,74	158,00
3697,15	168,00
3700,56	233,00
3703,96	49,00
3707,36	228,00
3710,76	162,00
3714,16	250,00
3717,55	367,00
3720,94	264,00
3724,33	178,00
3727,71	329,00
3731,10	280,00
3734,48	165,00
3737,85	108,00
3741,23	138,00
3744,60	257,00
3747,97	206,00
3751,33	190,00
3754,69	319,00
3758,05	248,00
3761,41	235,00
3764,77	183,00
3768,12	163,00
3771,47	303,00
3774,82	239,00
3778,16	1,00
3781,50	7,00
3784,84	0,00
3788,18	4,00
>>>>>End Processed Spectral Data<<<<<
