SpectraSuite Data File
++++++++++++++++++++++++++++++++++++
Date: Mon Mar 09 16:22:33 ICT 2026
User: Administrator
Dark Spectrum Present: Yes
Reference Spectrum Present: No
Number of Sampled Component Spectra: 1
Spectrometers: MAYP113682
Integration Time (usec): 3000000 (MAYP113682)
Spectra Averaged: 1 (MAYP113682)
Boxcar Smoothing: 0 (MAYP113682)
Correct for Electrical Dark: No (MAYP113682)
Strobe/Lamp Enabled: No (MAYP113682)
Correct for Detector Non-linearity: No (MAYP113682)
Correct for Stray Light: No (MAYP113682)
Number of Pixels in Processed Spectrum: 2068
>>>>>Begin Processed Spectral Data<<<<<
-37534,58	-4,00
-37414,56	-2,00
-37295,11	-7,00
-37176,24	0,00
-37057,95	-7,00
-36940,22	111,00
-36823,05	111,00
-36706,45	132,00
-36590,40	92,00
-36474,90	199,00
-36359,95	34,00
-36245,55	111,00
-36131,68	138,00
-36018,35	128,00
-35905,55	4,00
-35793,29	7,00
-35681,54	60,00
-35570,32	82,00
-35459,62	17,00
-35349,43	23,00
-35239,75	67,00
-35130,58	176,00
-35021,91	-44,00
-34913,74	18,00
-34806,07	81,00
-34698,89	100,00
-34592,20	-32,00
-34486,00	165,00
-34380,28	45,00
-34275,04	72,00
-34170,27	-14,00
-34065,98	48,00
-33962,16	-24,00
-33858,81	77,00
-33755,92	149,00
-33653,49	178,00
-33551,52	102,00
-33450,01	195,00
-33348,94	61,00
-33248,33	92,00
-33148,16	-1,00
-33048,43	136,00
-32949,14	31,00
-32850,29	17,00
-32751,87	120,00
-32653,89	10,00
-32556,33	124,00
-32459,20	55,00
-32362,49	165,00
-32266,19	132,00
-32170,32	85,00
-32074,86	-19,00
-31979,82	-11,00
-31885,18	11,00
-31790,95	150,00
-31697,12	-75,00
-31603,69	166,00
-31510,67	114,00
-31418,04	61,00
-31325,80	139,00
-31233,95	93,00
-31142,49	60,00
-31051,42	78,00
-30960,73	73,00
-30870,43	-10,00
-30780,50	96,00
-30690,95	14,00
-30601,77	115,00
-30512,97	154,00
-30424,53	33,00
-30336,46	135,00
-30248,76	46,00
-30161,42	164,00
-30074,44	5,00
-29987,81	121,00
-29901,55	-18,00
-29815,63	64,00
-29730,07	57,00
-29644,86	63,00
-29560,00	-19,00
-29475,48	109,00
-29391,30	136,00
-29307,47	56,00
-29223,97	66,00
-29140,81	15,00
-29057,99	135,00
-28975,50	14,00
-28893,34	193,00
-28811,51	74,00
-28730,00	109,00
-28648,82	93,00
-28567,97	16,00
-28487,43	106,00
-28407,21	118,00
-28327,32	43,00
-28247,73	109,00
-28168,46	39,00
-28089,50	46,00
-28010,85	-61,00
-27932,51	98,00
-27854,48	49,00
-27776,75	37,00
-27699,32	66,00
-27622,19	145,00
-27545,37	39,00
-27468,84	64,00
-27392,60	-80,00
-27316,66	-9,00
-27241,01	87,00
-27165,66	86,00
-27090,59	-19,00
-27015,81	69,00
-26941,31	39,00
-26867,10	19,00
-26793,17	18,00
-26719,52	-25,00
-26646,15	27,00
-26573,06	5,00
-26500,24	126,00
-26427,70	58,00
-26355,43	0,00
-26283,43	-24,00
-26211,71	18,00
-26140,25	119,00
-26069,06	61,00
-25998,13	168,00
-25927,46	-72,00
-25857,06	176,00
-25786,92	103,00
-25717,04	146,00
-25647,42	170,00
-25578,05	46,00
-25508,94	111,00
-25440,09	106,00
-25371,48	148,00
-25303,13	138,00
-25235,02	91,00
-25167,17	23,00
-25099,56	6,00
-25032,19	120,00
-24965,07	52,00
-24898,20	116,00
-24831,56	91,00
-24765,17	98,00
-24699,01	164,00
-24633,10	38,00
-24567,41	184,00
-24501,97	136,00
-24436,75	-11,00
-24371,77	117,00
-24307,03	2,00
-24242,51	109,00
-24178,22	-6,00
-24114,16	97,00
-24050,32	176,00
-23986,71	185,00
-23923,32	137,00
-23860,16	94,00
-23797,22	73,00
-23734,50	55,00
-23672,00	-67,00
-23609,71	19,00
-23547,65	137,00
-23485,80	124,00
-23424,16	27,00
-23362,74	60,00
-23301,53	89,00
-23240,54	34,00
-23179,75	186,00
-23119,17	12,00
-23058,80	81,00
-22998,64	51,00
-22938,68	110,00
-22878,93	131,00
-22819,39	65,00
-22760,04	97,00
-22700,90	47,00
-22641,96	20,00
-22583,22	94,00
-22524,68	99,00
-22466,33	124,00
-22408,19	2,00
-22350,23	72,00
-22292,48	66,00
-22234,92	90,00
-22177,55	-58,00
-22120,37	147,00
-22063,38	79,00
-22006,58	87,00
-21949,98	56,00
-21893,56	187,00
-21837,33	-137,00
-21781,28	43,00
-21725,42	148,00
-21669,74	159,00
-21614,25	71,00
-21558,94	2,00
-21503,81	104,00
-21448,86	-65,00
-21394,10	92,00
-21339,51	59,00
-21285,10	42,00
-21230,86	55,00
-21176,81	48,00
-21122,93	67,00
-21069,22	93,00
-21015,69	80,00
-20962,33	86,00
-20909,14	114,00
-20856,13	124,00
-20803,28	29,00
-20750,61	19,00
-20698,10	-26,00
-20645,76	150,00
-20593,59	69,00
-20541,59	193,00
-20489,75	-52,00
-20438,07	60,00
-20386,56	86,00
-20335,22	76,00
-20284,03	40,00
-20233,01	0,00
-20182,15	-24,00
-20131,45	-47,00
-20080,91	103,00
-20030,52	23,00
-19980,30	117,00
-19930,23	88,00
-19880,32	71,00
-19830,56	45,00
-19780,96	72,00
-19731,52	190,00
-19682,23	59,00
-19633,09	46,00
-19584,10	0,00
-19535,26	147,00
-19486,58	24,00
-19438,04	169,00
-19389,66	92,00
-19341,42	-33,00
-19293,33	91,00
-19245,39	107,00
-19197,60	183,00
-19149,95	41,00
-19102,45	129,00
-19055,09	40,00
-19007,87	35,00
-18960,80	179,00
-18913,87	66,00
-18867,09	-12,00
-18820,44	75,00
-18773,94	60,00
-18727,57	-69,00
-18681,35	106,00
-18635,26	83,00
-18589,31	113,00
-18543,50	-15,00
-18497,83	-56,00
-18452,29	31,00
-18406,89	21,00
-18361,63	159,00
-18316,50	29,00
-18271,50	187,00
-18226,63	37,00
-18181,90	8,00
-18137,30	161,00
-18092,84	-5,00
-18048,50	134,00
-18004,29	86,00
-17960,22	60,00
-17916,27	151,00
-17872,45	109,00
-17828,76	24,00
-17785,20	85,00
-17741,77	103,00
-17698,46	164,00
-17655,28	61,00
-17612,22	102,00
-17569,29	83,00
-17526,48	110,00
-17483,79	83,00
-17441,23	32,00
-17398,79	-1,00
-17356,48	48,00
-17314,28	166,00
-17272,21	9,00
-17230,26	115,00
-17188,42	167,00
-17146,71	89,00
-17105,12	78,00
-17063,64	22,00
-17022,28	190,00
-16981,04	133,00
-16939,92	81,00
-16898,91	61,00
-16858,02	45,00
-16817,25	34,00
-16776,59	57,00
-16736,04	94,00
-16695,61	-44,00
-16655,29	52,00
-16615,09	130,00
-16574,99	203,00
-16535,01	105,00
-16495,15	202,00
-16455,39	68,00
-16415,74	83,00
-16376,21	20,00
-16336,78	79,00
-16297,46	15,00
-16258,26	132,00
-16219,16	-1,00
-16180,17	111,00
-16141,28	169,00
-16102,51	26,00
-16063,84	-18,00
-16025,27	55,00
-15986,82	165,00
-15948,46	43,00
-15910,22	55,00
-15872,07	74,00
-15834,04	204,00
-15796,10	123,00
-15758,27	122,00
-15720,54	68,00
-15682,91	63,00
-15645,39	206,00
-15607,97	-1,00
-15570,64	110,00
-15533,42	51,00
-15496,30	127,00
-15459,28	74,00
-15422,36	105,00
-15385,54	18,00
-15348,82	38,00
-15312,19	1,00
-15275,66	16,00
-15239,23	148,00
-15202,90	140,00
-15166,67	36,00
-15130,53	85,00
-15094,48	21,00
-15058,54	86,00
-15022,68	175,00
-14986,93	56,00
-14951,26	-2,00
-14915,69	81,00
-14880,22	113,00
-14844,84	64,00
-14809,55	144,00
-14774,35	160,00
-14739,25	137,00
-14704,24	42,00
-14669,32	-70,00
-14634,49	165,00
-14599,75	55,00
-14565,10	92,00
-14530,55	25,00
-14496,08	40,00
-14461,70	5,00
-14427,41	61,00
-14393,21	71,00
-14359,10	10,00
-14325,07	-51,00
-14291,14	67,00
-14257,29	135,00
-14223,52	11,00
-14189,85	137,00
-14156,26	80,00
-14122,76	-5,00
-14089,34	108,00
-14056,01	115,00
-14022,76	142,00
-13989,60	-61,00
-13956,52	85,00
-13923,53	-53,00
-13890,62	110,00
-13857,79	-30,00
-13825,05	12,00
-13792,39	55,00
-13759,81	18,00
-13727,31	66,00
-13694,90	54,00
-13662,57	128,00
-13630,31	-13,00
-13598,14	-14,00
-13566,05	29,00
-13534,05	80,00
-13502,12	26,00
-13470,27	32,00
-13438,50	37,00
-13406,80	89,00
-13375,19	127,00
-13343,66	45,00
-13312,20	132,00
-13280,83	10,00
-13249,53	121,00
-13218,30	129,00
-13187,16	58,00
-13156,09	47,00
-13125,10	88,00
-13094,18	143,00
-13063,34	68,00
-13032,58	-35,00
-13001,89	28,00
-12971,28	40,00
-12940,74	170,00
-12910,27	8,00
-12879,88	106,00
-12849,57	81,00
-12819,33	11,00
-12789,16	43,00
-12759,06	124,00
-12729,04	32,00
-12699,09	-1235,00
-12669,21	50,00
-12639,41	32,00
-12609,68	95,00
-12580,02	101,00
-12550,43	8,00
-12520,91	12,00
-12491,46	89,00
-12462,08	84,00
-12432,77	-63,00
-12403,54	0,00
-12374,37	81,00
-12345,27	-19,00
-12316,24	-10,00
-12287,29	92,00
-12258,40	127,00
-12229,57	153,00
-12200,82	-2,00
-12172,14	66,00
-12143,52	8,00
-12114,97	8,00
-12086,49	64,00
-12058,07	-22,00
-12029,73	92,00
-12001,44	168,00
-11973,23	118,00
-11945,08	63,00
-11917,00	140,00
-11888,98	77,00
-11861,03	147,00
-11833,15	160,00
-11805,32	63,00
-11777,57	111,00
-11749,88	80,00
-11722,25	54,00
-11694,69	169,00
-11667,19	-22,00
-11639,75	140,00
-11612,38	86,00
-11585,07	119,00
-11557,83	76,00
-11530,65	23,00
-11503,53	46,00
-11476,47	81,00
-11449,48	124,00
-11422,54	-7,00
-11395,67	46,00
-11368,86	139,00
-11342,11	99,00
-11315,43	66,00
-11288,80	99,00
-11262,23	146,00
-11235,73	158,00
-11209,28	40,00
-11182,90	216,00
-11156,57	130,00
-11130,31	147,00
-11104,10	-8,00
-11077,96	55,00
-11051,87	91,00
-11025,84	107,00
-10999,87	98,00
-10973,96	110,00
-10948,11	-27,00
-10922,31	118,00
-10896,58	85,00
-10870,90	72,00
-10845,28	124,00
-10819,71	48,00
-10794,20	8,00
-10768,75	110,00
-10743,36	136,00
-10718,02	49,00
-10692,74	164,00
-10667,52	149,00
-10642,35	183,00
-10617,24	85,00
-10592,18	119,00
-10567,18	156,00
-10542,23	131,00
-10517,34	192,00
-10492,51	102,00
-10467,72	111,00
-10443,00	178,00
-10418,32	109,00
-10393,70	8,00
-10369,14	156,00
-10344,63	-37,00
-10320,17	156,00
-10295,77	128,00
-10271,42	124,00
-10247,12	121,00
-10222,88	131,00
-10198,68	146,00
-10174,54	136,00
-10150,46	96,00
-10126,42	192,00
-10102,44	131,00
-10078,51	132,00
-10054,63	172,00
-10030,80	210,00
-10007,03	131,00
-9983,30	136,00
-9959,63	104,00
-9936,01	254,00
-9912,44	267,00
-9888,92	192,00
-9865,44	282,00
-9842,02	123,00
-9818,65	333,00
-9795,33	319,00
-9772,06	235,00
-9748,84	262,00
-9725,67	297,00
-9702,55	261,00
-9679,47	430,00
-9656,45	444,00
-9633,47	410,00
-9610,55	442,00
-9587,67	432,00
-9564,84	500,00
-9542,06	423,00
-9519,32	607,00
-9496,64	617,00
-9474,00	666,00
-9451,41	687,00
-9428,87	664,00
-9406,37	698,00
-9383,92	708,00
-9361,52	728,00
-9339,17	535,00
-9316,86	748,00
-9294,60	918,00
-9272,38	970,00
-9250,21	1116,00
-9228,09	1144,00
-9206,01	1074,00
-9183,98	991,00
-9162,00	853,00
-9140,06	824,00
-9118,16	914,00
-9096,31	923,00
-9074,51	997,00
-9052,75	975,00
-9031,04	1106,00
-9009,37	888,00
-8987,74	790,00
-8966,16	696,00
-8944,63	527,00
-8923,14	545,00
-8901,69	535,00
-8880,29	686,00
-8858,93	930,00
-8837,61	736,00
-8816,34	1119,00
-8795,11	996,00
-8773,92	894,00
-8752,78	723,00
-8731,68	796,00
-8710,62	653,00
-8689,61	775,00
-8668,63	837,00
-8647,70	805,00
-8626,82	956,00
-8605,97	801,00
-8585,17	751,00
-8564,41	680,00
-8543,69	733,00
-8523,01	634,00
-8502,37	787,00
-8481,78	765,00
-8461,23	811,00
-8440,71	792,00
-8420,24	829,00
-8399,81	972,00
-8379,42	1021,00
-8359,08	832,00
-8338,77	796,00
-8318,50	771,00
-8298,27	722,00
-8278,09	703,00
-8257,94	701,00
-8237,83	833,00
-8217,76	899,00
-8197,74	921,00
-8177,75	810,00
-8157,80	781,00
-8137,89	710,00
-8118,02	689,00
-8098,19	711,00
-8078,40	777,00
-8058,65	834,00
-8038,93	805,00
-8019,26	713,00
-7999,62	711,00
-7980,02	513,00
-7960,46	640,00
-7940,94	700,00
-7921,46	460,00
-7902,01	498,00
-7882,60	696,00
-7863,23	635,00
-7843,90	609,00
-7824,61	566,00
-7805,35	740,00
-7786,13	802,00
-7766,95	659,00
-7747,80	652,00
-7728,69	686,00
-7709,62	585,00
-7690,59	694,00
-7671,59	723,00
-7652,63	729,00
-7633,70	788,00
-7614,81	616,00
-7595,96	671,00
-7577,15	594,00
-7558,37	570,00
-7539,62	608,00
-7520,91	721,00
-7502,24	508,00
-7483,60	722,00
-7465,00	608,00
-7446,44	650,00
-7427,91	445,00
-7409,41	463,00
-7390,95	394,00
-7372,53	438,00
-7354,14	454,00
-7335,78	210,00
-7317,46	583,00
-7299,18	493,00
-7280,92	454,00
-7262,71	651,00
-7244,52	596,00
-7226,38	705,00
-7208,26	669,00
-7190,18	656,00
-7172,14	626,00
-7154,12	458,00
-7136,15	610,00
-7118,20	717,00
-7100,29	682,00
-7082,41	569,00
-7064,57	569,00
-7046,76	568,00
-7028,98	440,00
-7011,24	500,00
-6993,53	208,00
-6975,85	289,00
-6958,20	293,00
-6940,59	260,00
-6923,01	382,00
-6905,46	356,00
-6887,94	458,00
-6870,46	-2135,00
-6853,01	620,00
-6835,59	446,00
-6818,21	488,00
-6800,85	589,00
-6783,53	384,00
-6766,24	199,00
-6748,98	88,00
-6731,76	171,00
-6714,56	123,00
-6697,40	216,00
-6680,26	239,00
-6663,16	313,00
-6646,09	290,00
-6629,05	405,00
-6612,05	505,00
-6595,07	557,00
-6578,13	367,00
-6561,21	299,00
-6544,33	228,00
-6527,47	191,00
-6510,65	56,00
-6493,86	73,00
-6477,10	319,00
-6460,36	204,00
-6443,66	230,00
-6426,99	209,00
-6410,35	188,00
-6393,74	160,00
-6377,16	366,00
-6360,61	129,00
-6344,09	274,00
-6327,59	215,00
-6311,13	266,00
-6294,70	197,00
-6278,29	467,00
-6261,92	531,00
-6245,58	510,00
-6229,26	519,00
-6212,97	439,00
-6196,72	331,00
-6180,49	88,00
-6164,29	186,00
-6148,12	98,00
-6131,98	69,00
-6115,86	124,00
-6099,78	101,00
-6083,72	102,00
-6067,69	34,00
-6051,69	95,00
-6035,72	185,00
-6019,78	177,00
-6003,87	262,00
-5987,98	296,00
-5972,12	346,00
-5956,29	369,00
-5940,49	366,00
-5924,71	200,00
-5908,96	32,00
-5893,24	120,00
-5877,55	157,00
-5861,89	232,00
-5846,25	112,00
-5830,64	67,00
-5815,05	192,00
-5799,50	207,00
-5783,97	93,00
-5768,47	238,00
-5752,99	199,00
-5737,55	248,00
-5722,12	376,00
-5706,73	458,00
-5691,36	300,00
-5676,02	159,00
-5660,71	101,00
-5645,42	115,00
-5630,16	62,00
-5614,92	162,00
-5599,71	173,00
-5584,53	146,00
-5569,37	264,00
-5554,24	1371,00
-5539,14	186,00
-5524,06	74,00
-5509,01	278,00
-5493,98	167,00
-5478,98	244,00
-5464,00	251,00
-5449,05	134,00
-5434,13	144,00
-5419,23	89,00
-5404,36	70,00
-5389,51	307,00
-5374,69	420,00
-5359,89	175,00
-5345,12	361,00
-5330,37	340,00
-5315,65	243,00
-5300,95	313,00
-5286,28	218,00
-5271,63	177,00
-5257,01	132,00
-5242,41	168,00
-5227,84	116,00
-5213,29	143,00
-5198,76	42,00
-5184,26	117,00
-5169,79	206,00
-5155,33	246,00
-5140,91	245,00
-5126,51	212,00
-5112,13	341,00
-5097,77	146,00
-5083,44	68,00
-5069,13	92,00
-5054,85	98,00
-5040,59	171,00
-5026,36	117,00
-5012,15	299,00
-4997,96	192,00
-4983,80	71,00
-4969,66	110,00
-4955,54	150,00
-4941,44	220,00
-4927,37	302,00
-4913,33	361,00
-4899,30	433,00
-4885,30	419,00
-4871,33	337,00
-4857,37	71,00
-4843,44	197,00
-4829,53	127,00
-4815,65	113,00
-4801,79	103,00
-4787,95	172,00
-4774,13	260,00
-4760,34	180,00
-4746,56	125,00
-4732,82	169,00
-4719,09	249,00
-4705,38	203,00
-4691,70	287,00
-4678,04	279,00
-4664,41	202,00
-4650,79	27,00
-4637,20	170,00
-4623,63	166,00
-4610,08	71,00
-4596,56	72,00
-4583,05	194,00
-4569,57	123,00
-4556,11	140,00
-4542,67	66,00
-4529,25	133,00
-4515,86	111,00
-4502,49	252,00
-4489,13	303,00
-4475,80	183,00
-4462,49	154,00
-4449,21	141,00
-4435,94	133,00
-4422,70	96,00
-4409,47	161,00
-4396,27	219,00
-4383,09	134,00
-4369,93	15,00
-4356,79	35,00
-4343,67	72,00
-4330,58	117,00
-4317,50	152,00
-4304,45	100,00
-4291,41	132,00
-4278,40	20,00
-4265,41	76,00
-4252,44	169,00
-4239,49	183,00
-4226,55	180,00
-4213,65	148,00
-4200,76	153,00
-4187,89	48,00
-4175,04	71,00
-4162,21	117,00
-4149,40	36,00
-4136,61	225,00
-4123,85	50,00
-4111,10	81,00
-4098,37	81,00
-4085,66	198,00
-4072,98	159,00
-4060,31	78,00
-4047,66	179,00
-4035,04	138,00
-4022,43	98,00
-4009,84	181,00
-3997,27	114,00
-3984,72	144,00
-3972,19	48,00
-3959,69	33,00
-3947,20	48,00
-3934,73	49,00
-3922,27	57,00
-3909,84	77,00
-3897,43	119,00
-3885,04	80,00
-3872,67	116,00
-3860,31	11,00
-3847,98	176,00
-3835,66	17,00
-3823,36	-19,00
-3811,09	66,00
-3798,83	63,00
-3786,59	97,00
-3774,37	205,00
-3762,17	51,00
-3749,98	115,00
-3737,82	82,00
-3725,67	74,00
-3713,55	-4,00
-3701,44	53,00
-3689,35	51,00
-3677,28	15,00
-3665,22	67,00
-3653,19	-22,00
-3641,17	109,00
-3629,18	138,00
-3617,20	78,00
-3605,24	182,00
-3593,30	-23,00
-3581,37	110,00
-3569,47	94,00
-3557,58	80,00
-3545,71	102,00
-3533,86	48,00
-3522,02	-44,00
-3510,21	89,00
-3498,41	-76,00
-3486,63	55,00
-3474,87	71,00
-3463,12	217,00
-3451,40	133,00
-3439,69	148,00
-3428,00	252,00
-3416,33	28,00
-3404,67	86,00
-3393,03	140,00
-3381,41	27,00
-3369,81	19,00
-3358,22	206,00
-3346,66	227,00
-3335,10	67,00
-3323,57	105,00
-3312,06	104,00
-3300,56	170,00
-3289,08	-10,00
-3277,61	54,00
-3266,16	47,00
-3254,73	127,00
-3243,32	-25,00
-3231,92	16,00
-3220,55	68,00
-3209,18	70,00
-3197,84	193,00
-3186,51	68,00
-3175,20	76,00
-3163,90	84,00
-3152,63	28,00
-3141,36	-4,00
-3130,12	76,00
-3118,89	18,00
-3107,68	163,00
-3096,49	131,00
-3085,31	9,00
-3074,15	81,00
-3063,00	6,00
-3051,87	46,00
-3040,76	-47,00
-3029,67	13,00
-3018,59	-53,00
-3007,52	95,00
-2996,48	41,00
-2985,44	65,00
-2974,43	84,00
-2963,43	13,00
-2952,45	50,00
-2941,48	137,00
-2930,53	20,00
-2919,60	130,00
-2908,68	171,00
-2897,78	45,00
-2886,89	149,00
-2876,02	87,00
-2865,17	161,00
-2854,33	167,00
-2843,50	82,00
-2832,70	124,00
-2821,90	57,00
-2811,13	58,00
-2800,37	-25,00
-2789,62	120,00
-2778,89	107,00
-2768,18	134,00
-2757,48	23,00
-2746,80	75,00
-2736,13	44,00
-2725,48	118,00
-2714,84	-10,00
-2704,22	76,00
-2693,61	-46,00
-2683,02	18,00
-2672,45	80,00
-2661,89	-11,00
-2651,34	-108,00
-2640,81	28,00
-2630,30	100,00
-2619,80	152,00
-2609,31	90,00
-2598,84	18,00
-2588,39	94,00
-2577,95	90,00
-2567,52	117,00
-2557,11	-31,00
-2546,71	132,00
-2536,33	241,00
-2525,97	9,00
-2515,62	-9,00
-2505,28	92,00
-2494,96	32,00
-2484,65	71,00
-2474,36	445,00
-2464,08	54,00
-2453,82	143,00
-2443,57	198,00
-2433,33	47,00
-2423,11	163,00
-2412,91	73,00
-2402,72	107,00
-2392,54	151,00
-2382,38	146,00
-2372,23	-47,00
-2362,09	535,00
-2351,97	75,00
-2341,87	50,00
-2331,78	-5,00
-2321,70	103,00
-2311,64	167,00
-2301,59	203,00
-2291,55	62,00
-2281,53	-6,00
-2271,53	-72,00
-2261,53	146,00
-2251,55	87,00
-2241,59	71,00
-2231,64	-4,00
-2221,70	127,00
-2211,78	82,00
-2201,87	124,00
-2191,97	-33,00
-2182,09	143,00
-2172,22	152,00
-2162,37	54,00
-2152,53	13,00
-2142,70	81,00
-2132,89	25,00
-2123,09	-26,00
-2113,30	157,00
-2103,53	143,00
-2093,77	78,00
-2084,02	55,00
-2074,29	161,00
-2064,57	116,00
-2054,86	16,00
-2045,17	40,00
-2035,49	5,00
-2025,82	-1,00
-2016,17	48,00
-2006,53	117,00
-1996,91	47,00
-1987,29	116,00
-1977,69	-6,00
-1968,11	-37,00
-1958,53	12,00
-1948,97	55,00
-1939,42	109,00
-1929,89	7,00
-1920,37	146,00
-1910,86	123,00
-1901,36	115,00
-1891,88	79,00
-1882,41	51,00
-1872,95	58,00
-1863,51	54,00
-1854,08	65,00
-1844,66	79,00
-1835,26	152,00
-1825,86	-7,00
-1816,48	-40,00
-1807,11	83,00
-1797,76	26,00
-1788,42	114,00
-1779,09	67,00
-1769,77	27,00
-1760,47	21,00
-1751,17	97,00
-1741,89	76,00
-1732,63	144,00
-1723,37	262,00
-1714,13	-29,00
-1704,90	-10,00
-1695,68	45,00
-1686,48	63,00
-1677,29	137,00
-1668,11	123,00
-1658,94	125,00
-1649,78	55,00
-1640,64	165,00
-1631,51	22,00
-1622,39	36,00
-1613,28	95,00
-1604,19	85,00
-1595,10	67,00
-1586,03	56,00
-1576,97	-20,00
-1567,93	72,00
-1558,89	-18,00
-1549,87	3,00
-1540,86	38,00
-1531,86	12,00
-1522,87	50,00
-1513,90	280,00
-1504,93	-43,00
-1495,98	119,00
-1487,04	149,00
-1478,12	122,00
-1469,20	49,00
-1460,30	17,00
-1451,40	93,00
-1442,52	122,00
-1433,65	189,00
-1424,80	151,00
-1415,95	-25,00
-1407,12	12,00
-1398,30	81,00
-1389,48	171,00
-1380,69	65,00
-1371,90	52,00
-1363,12	203,00
-1354,36	60,00
-1345,60	53,00
-1336,86	69,00
-1328,13	125,00
-1319,41	-42,00
-1310,70	51,00
-1302,01	4,00
-1293,32	-17,00
-1284,65	202,00
-1275,99	78,00
-1267,33	78,00
-1258,69	48,00
-1250,06	132,00
-1241,45	50,00
-1232,84	48,00
-1224,25	145,00
-1215,66	66,00
-1207,09	-3,00
-1198,53	120,00
-1189,97	172,00
-1181,43	38,00
-1172,91	51,00
-1164,39	73,00
-1155,88	202,00
-1147,38	79,00
-1138,90	38,00
-1130,43	100,00
-1121,96	108,00
-1113,51	135,00
-1105,07	49,00
-1096,64	-42,00
-1088,22	268,00
-1079,81	60,00
-1071,41	23,00
-1063,02	62,00
-1054,65	112,00
-1046,28	90,00
-1037,92	63,00
-1029,58	92,00
-1021,24	123,00
-1012,92	130,00
-1004,61	14,00
-996,30	177,00
-988,01	-1,00
-979,73	33,00
-971,46	122,00
-963,20	-22,00
-954,95	62,00
-946,71	162,00
-938,48	58,00
-930,26	60,00
-922,06	38,00
-913,86	66,00
-905,67	4,00
-897,49	-20,00
-889,33	95,00
-881,17	-24,00
-873,02	-4,00
-864,89	151,00
-856,76	154,00
-848,65	57,00
-840,54	81,00
-832,45	-80,00
-824,36	123,00
-816,29	76,00
-808,22	120,00
-800,17	-12,00
-792,12	77,00
-784,09	85,00
-776,06	7,00
-768,05	217,00
-760,04	92,00
-752,05	35,00
-744,07	-38,00
-736,09	28,00
-728,13	21,00
-720,17	-48,00
-712,23	149,00
-704,29	95,00
-696,37	99,00
-688,45	122,00
-680,55	85,00
-672,65	130,00
-664,77	191,00
-656,89	6,00
-649,03	83,00
-641,17	92,00
-633,32	48,00
-625,49	134,00
-617,66	87,00
-609,84	1,00
-602,03	28,00
-594,23	96,00
-586,45	165,00
-578,67	60,00
-570,90	125,00
-563,14	82,00
-555,39	74,00
-547,65	100,00
-539,91	76,00
-532,19	98,00
-524,48	94,00
-516,78	0,00
-509,08	158,00
-501,40	99,00
-493,72	8,00
-486,06	51,00
-478,40	107,00
-470,76	156,00
-463,12	155,00
-455,49	53,00
-447,87	142,00
-440,26	91,00
-432,66	73,00
-425,07	19,00
-417,49	127,00
-409,92	36,00
-402,35	242,00
-394,80	103,00
-387,25	60,00
-379,72	90,00
-372,19	84,00
-364,67	170,00
-357,17	156,00
-349,67	80,00
-342,18	175,00
-334,69	52,00
-327,22	29,00
-319,76	12,00
-312,30	85,00
-304,86	159,00
-297,42	208,00
-290,00	40,00
-282,58	167,00
-275,17	95,00
-267,77	149,00
-260,37	231,00
-252,99	95,00
-245,62	144,00
-238,25	69,00
-230,90	76,00
-223,55	41,00
-216,21	188,00
-208,88	121,00
-201,56	176,00
-194,25	157,00
-186,94	270,00
-179,65	181,00
-172,36	270,00
-165,08	395,00
-157,81	141,00
-150,55	311,00
-143,30	316,00
-136,06	353,00
-128,82	503,00
-121,60	488,00
-114,38	341,00
-107,17	494,00
-99,97	600,00
-92,78	515,00
-85,60	665,00
-78,42	913,00
-71,25	1039,00
-64,10	1128,00
-56,95	1305,00
-49,81	1560,00
-42,67	1822,00
-35,55	2436,00
-28,43	3112,00
-21,33	5172,00
-14,23	17165,00
-7,14	55164,00
-0,05	54791,00
7,02	54542,00
14,09	54846,00
21,14	15480,00
28,19	6436,00
35,23	4032,00
42,27	3080,00
49,29	2476,00
56,31	2171,00
63,32	1812,00
70,32	1407,00
77,31	1398,00
84,29	1000,00
91,27	928,00
98,23	829,00
105,19	866,00
112,14	1042,00
119,09	1228,00
126,02	1986,00
132,95	2153,00
139,87	2351,00
146,78	2232,00
153,68	2010,00
160,58	2063,00
167,46	2076,00
174,34	2014,00
181,21	2142,00
188,08	2057,00
194,93	1927,00
201,78	1961,00
208,62	1839,00
215,45	1940,00
222,27	1976,00
229,09	1956,00
235,90	1872,00
242,70	1856,00
249,49	1837,00
256,27	1827,00
263,05	1865,00
269,82	1898,00
276,58	1834,00
283,33	1837,00
290,08	1848,00
296,82	1816,00
303,55	1732,00
310,27	1642,00
316,98	1742,00
323,69	1774,00
330,39	1605,00
337,08	1706,00
343,76	1614,00
350,44	1688,00
357,11	1707,00
363,77	1713,00
370,42	1634,00
377,07	1526,00
383,71	1603,00
390,34	1544,00
396,96	1629,00
403,58	1621,00
410,19	1748,00
416,79	1592,00
423,38	1640,00
429,97	1608,00
436,55	1531,00
443,12	1570,00
449,68	1387,00
456,24	1448,00
462,79	1265,00
469,33	1455,00
475,86	1354,00
482,39	1440,00
488,91	1377,00
495,42	1457,00
501,93	1480,00
508,42	1307,00
514,91	1402,00
521,40	1474,00
527,87	1435,00
534,34	1314,00
540,80	1351,00
547,25	1247,00
553,70	1372,00
560,14	1287,00
566,57	1368,00
573,00	1310,00
579,41	1251,00
585,83	1239,00
592,23	1184,00
598,62	1305,00
605,01	1377,00
611,40	1249,00
617,77	1295,00
624,14	1226,00
630,50	1283,00
636,85	1194,00
643,20	1134,00
649,54	1283,00
655,87	1082,00
662,20	1175,00
668,52	1210,00
674,83	1149,00
681,13	1135,00
687,43	1133,00
693,72	1081,00
700,00	1084,00
706,28	1187,00
712,55	1135,00
718,81	1244,00
725,07	1130,00
731,32	1118,00
737,56	1228,00
743,79	1169,00
750,02	1150,00
756,24	1111,00
762,46	1058,00
768,67	1151,00
774,87	979,00
781,06	1013,00
787,25	1206,00
793,43	1218,00
799,60	1116,00
805,77	990,00
811,93	1289,00
818,08	1095,00
824,23	1155,00
830,37	1089,00
836,50	1183,00
842,63	1139,00
848,75	1193,00
854,87	1139,00
860,97	1106,00
867,07	1158,00
873,17	1024,00
879,25	987,00
885,33	1066,00
891,41	1172,00
897,47	1053,00
903,53	1137,00
909,59	1116,00
915,63	1028,00
921,67	1022,00
927,71	924,00
933,74	1006,00
939,76	977,00
945,77	989,00
951,78	1029,00
957,78	984,00
963,78	911,00
969,77	930,00
975,75	937,00
981,72	947,00
987,69	995,00
993,66	960,00
999,61	862,00
1005,56	915,00
1011,51	966,00
1017,44	941,00
1023,37	979,00
1029,30	988,00
1035,22	1115,00
1041,13	1032,00
1047,03	907,00
1052,93	1073,00
1058,83	1277,00
1064,71	1391,00
1070,59	1284,00
1076,47	1092,00
1082,33	1092,00
1088,20	1021,00
1094,05	923,00
1099,90	917,00
1105,74	875,00
1111,58	1041,00
1117,41	918,00
1123,23	1295,00
1129,05	1228,00
1134,86	1241,00
1140,67	1007,00
1146,47	1075,00
1152,26	978,00
1158,05	832,00
1163,83	987,00
1169,60	984,00
1175,37	870,00
1181,13	950,00
1186,89	1068,00
1192,64	705,00
1198,38	936,00
1204,12	854,00
1209,85	890,00
1215,58	930,00
1221,30	756,00
1227,02	978,00
1232,72	938,00
1238,43	822,00
1244,12	899,00
1249,81	965,00
1255,50	1075,00
1261,17	965,00
1266,85	972,00
1272,51	1016,00
1278,17	1071,00
1283,83	946,00
1289,47	1402,00
1295,12	1573,00
1300,75	1431,00
1306,38	1304,00
1312,01	1226,00
1317,63	998,00
1323,24	1035,00
1328,85	1056,00
1334,45	1044,00
1340,04	920,00
1345,63	1088,00
1351,22	1001,00
1356,80	1020,00
1362,37	927,00
1367,93	961,00
1373,49	968,00
1379,05	1000,00
1384,60	1027,00
1390,14	945,00
1395,68	936,00
1401,21	865,00
1406,74	1052,00
1412,26	1100,00
1417,77	1084,00
1423,28	1154,00
1428,78	1240,00
1434,28	1523,00
1439,77	1485,00
1445,26	1458,00
1450,74	1537,00
1456,22	1296,00
1461,68	1426,00
1467,15	1244,00
1472,61	1112,00
1478,06	1039,00
1483,51	1124,00
1488,95	927,00
1494,38	965,00
1499,81	978,00
1505,24	840,00
1510,65	814,00
1516,07	851,00
1521,48	878,00
1526,88	830,00
1532,27	788,00
1537,67	874,00
1543,05	786,00
1548,43	822,00
1553,81	959,00
1559,18	842,00
1564,54	756,00
1569,90	807,00
1575,25	816,00
1580,60	783,00
1585,94	614,00
1591,28	727,00
1596,61	659,00
1601,93	738,00
1607,25	776,00
1612,57	806,00
1617,88	830,00
1623,18	785,00
1628,48	712,00
1633,77	783,00
1639,06	675,00
1644,34	740,00
1649,62	764,00
1654,89	949,00
1660,16	735,00
1665,42	656,00
1670,67	700,00
1675,92	641,00
1681,17	677,00
1686,41	758,00
1691,64	517,00
1696,87	683,00
1702,10	610,00
1707,32	702,00
1712,53	694,00
1717,74	706,00
1722,94	470,00
1728,14	628,00
1733,33	644,00
1738,52	624,00
1743,70	652,00
1748,88	551,00
1754,05	626,00
1759,22	680,00
1764,38	620,00
1769,53	488,00
1774,69	641,00
1779,83	672,00
1784,97	536,00
1790,11	578,00
1795,24	641,00
1800,36	663,00
1805,48	594,00
1810,60	598,00
1815,71	483,00
1820,82	650,00
1825,92	566,00
1831,01	671,00
1836,10	521,00
1841,19	596,00
1846,26	627,00
1851,34	555,00
1856,41	453,00
1861,47	519,00
1866,53	486,00
1871,59	552,00
1876,64	499,00
1881,68	405,00
1886,72	537,00
1891,76	531,00
1896,79	512,00
1901,81	629,00
1906,83	498,00
1911,85	495,00
1916,86	545,00
1921,86	509,00
1926,86	490,00
1931,86	514,00
1936,85	426,00
1941,83	533,00
1946,81	388,00
1951,79	494,00
1956,76	513,00
1961,72	317,00
1966,68	513,00
1971,64	360,00
1976,59	416,00
1981,54	319,00
1986,48	506,00
1991,42	468,00
1996,35	411,00
2001,27	373,00
2006,20	495,00
2011,11	484,00
2016,03	483,00
2020,93	462,00
2025,84	397,00
2030,73	405,00
2035,63	438,00
2040,52	426,00
2045,40	530,00
2050,28	365,00
2055,15	285,00
2060,02	461,00
2064,89	361,00
2069,75	472,00
2074,60	277,00
2079,46	338,00
2084,30	416,00
2089,14	453,00
2093,98	394,00
2098,81	444,00
2103,64	470,00
2108,46	376,00
2113,28	398,00
2118,09	400,00
2122,90	311,00
2127,70	415,00
2132,50	491,00
2137,30	413,00
2142,09	388,00
2146,87	310,00
2151,66	434,00
2156,43	386,00
2161,20	310,00
2165,97	487,00
2170,73	504,00
2175,49	445,00
2180,24	348,00
2184,99	489,00
2189,74	374,00
2194,48	353,00
2199,21	415,00
2203,94	319,00
2208,67	348,00
2213,39	454,00
2218,11	296,00
2222,82	409,00
2227,53	450,00
2232,23	291,00
2236,93	412,00
2241,63	344,00
2246,32	281,00
2251,00	304,00
2255,68	364,00
2260,36	400,00
2265,03	393,00
2269,70	205,00
2274,36	252,00
2279,02	296,00
2283,68	336,00
2288,33	257,00
2292,97	312,00
2297,61	226,00
2302,25	312,00
2306,88	362,00
2311,51	324,00
2316,14	318,00
2320,75	300,00
2325,37	290,00
2329,98	439,00
2334,59	322,00
2339,19	385,00
2343,79	147,00
2348,38	235,00
2352,97	237,00
2357,55	154,00
2362,13	243,00
2366,71	436,00
2371,28	250,00
2375,85	212,00
2380,41	208,00
2384,97	223,00
2389,52	208,00
2394,07	269,00
2398,62	223,00
2403,16	276,00
2407,70	388,00
2412,23	347,00
2416,76	265,00
2421,29	326,00
2425,81	207,00
2430,32	305,00
2434,84	263,00
2439,34	297,00
2443,85	204,00
2448,35	233,00
2452,84	203,00
2457,33	187,00
2461,82	354,00
2466,30	250,00
2470,78	291,00
2475,25	207,00
2479,72	249,00
2484,19	303,00
2488,65	291,00
2493,11	141,00
2497,56	212,00
2502,01	259,00
2506,46	338,00
2510,90	132,00
2515,34	352,00
2519,77	170,00
2524,20	278,00
2528,62	212,00
2533,04	289,00
2537,46	110,00
2541,87	251,00
2546,28	244,00
2550,68	326,00
2555,08	304,00
2559,48	297,00
2563,87	162,00
2568,26	175,00
2572,64	300,00
2577,02	292,00
2581,40	209,00
2585,77	254,00
2590,14	295,00
2594,50	173,00
2598,86	181,00
2603,22	181,00
2607,57	244,00
2611,92	267,00
2616,26	226,00
2620,60	229,00
2624,94	188,00
2629,27	323,00
2633,60	231,00
2637,92	257,00
2642,24	225,00
2646,56	148,00
2650,87	190,00
2655,18	171,00
2659,48	284,00
2663,78	230,00
2668,08	327,00
2672,37	410,00
2676,66	172,00
2680,95	297,00
2685,23	199,00
2689,50	191,00
2693,78	139,00
2698,05	340,00
2702,31	216,00
2706,57	291,00
2710,83	308,00
2715,08	287,00
2719,33	335,00
2723,58	366,00
2727,82	394,00
2732,06	284,00
2736,29	205,00
2740,53	345,00
2744,75	241,00
2748,97	265,00
2753,19	302,00
2757,41	319,00
2761,62	306,00
2765,83	220,00
2770,03	158,00
2774,23	286,00
2778,43	426,00
2782,62	262,00
2786,81	243,00
2791,00	242,00
2795,18	326,00
2799,35	238,00
2803,53	427,00
2807,70	436,00
2811,86	274,00
2816,03	438,00
2820,19	324,00
2824,34	319,00
2828,49	586,00
2832,64	597,00
2836,78	578,00
2840,92	718,00
2845,06	919,00
2849,19	886,00
2853,32	978,00
2857,45	1003,00
2861,57	1036,00
2865,69	1052,00
2869,80	946,00
2873,91	1024,00
2878,02	1003,00
2882,12	978,00
2886,22	1124,00
2890,32	944,00
2894,41	938,00
2898,50	845,00
2902,58	820,00
2906,67	875,00
2910,74	673,00
2914,82	725,00
2918,89	656,00
2922,96	729,00
2927,02	553,00
2931,08	643,00
2935,13	583,00
2939,19	505,00
2943,24	534,00
2947,28	467,00
2951,32	235,00
2955,36	335,00
2959,40	369,00
2963,43	254,00
2967,46	267,00
2971,48	321,00
2975,50	166,00
2979,52	228,00
2983,53	360,00
2987,54	234,00
2991,55	256,00
2995,55	192,00
2999,55	80,00
3003,54	102,00
3007,54	219,00
3011,53	220,00
3015,51	142,00
3019,49	94,00
3023,47	258,00
3027,45	191,00
3031,42	233,00
3035,39	191,00
3039,35	182,00
3043,31	119,00
3047,27	208,00
3051,22	281,00
3055,17	113,00
3059,12	88,00
3063,06	109,00
3067,00	85,00
3070,94	246,00
3074,87	55,00
3078,80	250,00
3082,73	226,00
3086,65	49,00
3090,57	101,00
3094,49	179,00
3098,40	57,00
3102,31	124,00
3106,22	186,00
3110,12	-47,00
3114,02	177,00
3117,92	130,00
3121,81	135,00
3125,70	152,00
3129,58	183,00
3133,47	65,00
3137,34	92,00
3141,22	143,00
3145,09	154,00
3148,96	105,00
3152,83	134,00
3156,69	132,00
3160,55	32,00
3164,40	50,00
3168,26	83,00
3172,10	189,00
3175,95	239,00
3179,79	87,00
3183,63	90,00
3187,47	248,00
3191,30	307,00
3195,13	168,00
3198,95	101,00
3202,78	139,00
3206,60	201,00
3210,41	107,00
3214,23	144,00
3218,03	84,00
3221,84	145,00
3225,64	34,00
3229,44	95,00
3233,24	340,00
3237,03	219,00
3240,82	38,00
3244,61	52,00
3248,39	114,00
3252,17	216,00
3255,95	265,00
3259,72	279,00
3263,49	59,00
3267,26	73,00
3271,03	111,00
3274,79	118,00
3278,54	185,00
3282,30	83,00
3286,05	139,00
3289,80	94,00
3293,54	65,00
3297,29	201,00
3301,02	74,00
3304,76	173,00
3308,49	116,00
3312,22	31,00
3315,95	45,00
3319,67	92,00
3323,39	115,00
3327,10	41,00
3330,82	169,00
3334,53	197,00
3338,24	-5,00
3341,94	145,00
3345,64	142,00
3349,34	58,00
3353,03	271,00
3356,72	109,00
3360,41	25,00
3364,10	48,00
3367,78	150,00
3371,46	115,00
3375,13	86,00
3378,81	131,00
3382,48	124,00
3386,14	188,00
3389,81	33,00
3393,47	205,00
3397,12	65,00
3400,78	179,00
3404,43	92,00
3408,08	18,00
3411,72	63,00
3415,36	182,00
3419,00	43,00
3422,64	106,00
3426,27	155,00
3429,90	158,00
3433,53	5,00
3437,15	133,00
3440,77	116,00
3444,39	17,00
3448,00	35,00
3451,62	190,00
3455,22	109,00
3458,83	63,00
3462,43	148,00
3466,03	78,00
3469,63	14,00
3473,22	79,00
3476,81	121,00
3480,40	133,00
3483,99	16,00
3487,57	138,00
3491,15	83,00
3494,72	118,00
3498,29	127,00
3501,86	67,00
3505,43	217,00
3508,99	74,00
3512,56	76,00
3516,11	57,00
3519,67	111,00
3523,22	122,00
3526,77	180,00
3530,32	127,00
3533,86	25,00
3537,40	58,00
3540,94	164,00
3544,47	66,00
3548,00	92,00
3551,53	111,00
3555,06	71,00
3558,58	64,00
3562,10	6,00
3565,62	143,00
3569,13	12,00
3572,64	260,00
3576,15	181,00
3579,66	149,00
3583,16	105,00
3586,66	55,00
3590,16	69,00
3593,65	102,00
3597,14	77,00
3600,63	71,00
3604,11	-7,00
3607,60	64,00
3611,08	156,00
3614,55	-24,00
3618,03	88,00
3621,50	81,00
3624,97	68,00
3628,43	-14,00
3631,90	-35,00
3635,36	118,00
3638,81	56,00
3642,27	-3,00
3645,72	99,00
3649,17	127,00
3652,61	51,00
3656,06	-49,00
3659,50	118,00
3662,93	9,00
3666,37	30,00
3669,80	86,00
3673,23	50,00
3676,65	104,00
3680,08	138,00
3683,50	44,00
3686,92	-66,00
3690,33	107,00
3693,74	102,00
3697,15	33,00
3700,56	91,00
3703,96	-44,00
3707,36	7,00
3710,76	90,00
3714,16	62,00
3717,55	33,00
3720,94	66,00
3724,33	23,00
3727,71	46,00
3731,10	18,00
3734,48	91,00
3737,85	-27,00
3741,23	1,00
3744,60	27,00
3747,97	-40,00
3751,33	165,00
3754,69	129,00
3758,05	165,00
3761,41	-47,00
3764,77	101,00
3768,12	29,00
3771,47	92,00
3774,82	0,00
3778,16	-2,00
3781,50	3,00
3784,84	4,00
3788,18	6,00
>>>>>End Processed Spectral Data<<<<<
