SpectraSuite Data File
++++++++++++++++++++++++++++++++++++
Date: Mon Mar 09 16:23:24 ICT 2026
User: Administrator
Dark Spectrum Present: Yes
Reference Spectrum Present: No
Number of Sampled Component Spectra: 1
Spectrometers: MAYP113682
Integration Time (usec): 3000000 (MAYP113682)
Spectra Averaged: 1 (MAYP113682)
Boxcar Smoothing: 0 (MAYP113682)
Correct for Electrical Dark: No (MAYP113682)
Strobe/Lamp Enabled: No (MAYP113682)
Correct for Detector Non-linearity: No (MAYP113682)
Correct for Stray Light: No (MAYP113682)
Number of Pixels in Processed Spectrum: 2068
>>>>>Begin Processed Spectral Data<<<<<
-37534,58	-5,00
-37414,56	0,00
-37295,11	-7,00
-37176,24	3,00
-37057,95	16,00
-36940,22	25,00
-36823,05	105,00
-36706,45	118,00
-36590,40	15,00
-36474,90	91,00
-36359,95	29,00
-36245,55	120,00
-36131,68	126,00
-36018,35	90,00
-35905,55	4,00
-35793,29	35,00
-35681,54	117,00
-35570,32	65,00
-35459,62	158,00
-35349,43	102,00
-35239,75	77,00
-35130,58	58,00
-35021,91	15,00
-34913,74	33,00
-34806,07	109,00
-34698,89	91,00
-34592,20	43,00
-34486,00	142,00
-34380,28	149,00
-34275,04	8,00
-34170,27	-72,00
-34065,98	-1,00
-33962,16	-14,00
-33858,81	111,00
-33755,92	221,00
-33653,49	136,00
-33551,52	-7,00
-33450,01	266,00
-33348,94	43,00
-33248,33	-36,00
-33148,16	73,00
-33048,43	76,00
-32949,14	106,00
-32850,29	110,00
-32751,87	102,00
-32653,89	87,00
-32556,33	63,00
-32459,20	90,00
-32362,49	244,00
-32266,19	110,00
-32170,32	123,00
-32074,86	7,00
-31979,82	18,00
-31885,18	109,00
-31790,95	151,00
-31697,12	-49,00
-31603,69	76,00
-31510,67	119,00
-31418,04	80,00
-31325,80	55,00
-31233,95	220,00
-31142,49	142,00
-31051,42	68,00
-30960,73	68,00
-30870,43	9,00
-30780,50	58,00
-30690,95	15,00
-30601,77	152,00
-30512,97	152,00
-30424,53	29,00
-30336,46	22,00
-30248,76	13,00
-30161,42	61,00
-30074,44	93,00
-29987,81	173,00
-29901,55	186,00
-29815,63	109,00
-29730,07	73,00
-29644,86	195,00
-29560,00	-80,00
-29475,48	197,00
-29391,30	59,00
-29307,47	69,00
-29223,97	60,00
-29140,81	67,00
-29057,99	154,00
-28975,50	31,00
-28893,34	224,00
-28811,51	32,00
-28730,00	43,00
-28648,82	-4,00
-28567,97	-14,00
-28487,43	42,00
-28407,21	-67,00
-28327,32	120,00
-28247,73	85,00
-28168,46	31,00
-28089,50	158,00
-28010,85	27,00
-27932,51	156,00
-27854,48	93,00
-27776,75	131,00
-27699,32	178,00
-27622,19	18,00
-27545,37	35,00
-27468,84	156,00
-27392,60	99,00
-27316,66	96,00
-27241,01	180,00
-27165,66	77,00
-27090,59	84,00
-27015,81	162,00
-26941,31	-31,00
-26867,10	43,00
-26793,17	-78,00
-26719,52	-5,00
-26646,15	169,00
-26573,06	16,00
-26500,24	112,00
-26427,70	124,00
-26355,43	-10,00
-26283,43	54,00
-26211,71	14,00
-26140,25	30,00
-26069,06	33,00
-25998,13	121,00
-25927,46	7,00
-25857,06	157,00
-25786,92	125,00
-25717,04	17,00
-25647,42	162,00
-25578,05	68,00
-25508,94	149,00
-25440,09	151,00
-25371,48	74,00
-25303,13	144,00
-25235,02	81,00
-25167,17	80,00
-25099,56	41,00
-25032,19	96,00
-24965,07	132,00
-24898,20	100,00
-24831,56	38,00
-24765,17	90,00
-24699,01	67,00
-24633,10	-59,00
-24567,41	138,00
-24501,97	107,00
-24436,75	-41,00
-24371,77	95,00
-24307,03	85,00
-24242,51	110,00
-24178,22	-20,00
-24114,16	65,00
-24050,32	156,00
-23986,71	161,00
-23923,32	108,00
-23860,16	-41,00
-23797,22	145,00
-23734,50	99,00
-23672,00	34,00
-23609,71	48,00
-23547,65	50,00
-23485,80	92,00
-23424,16	-62,00
-23362,74	187,00
-23301,53	-25,00
-23240,54	-38,00
-23179,75	136,00
-23119,17	45,00
-23058,80	106,00
-22998,64	53,00
-22938,68	80,00
-22878,93	74,00
-22819,39	129,00
-22760,04	89,00
-22700,90	58,00
-22641,96	46,00
-22583,22	-1,00
-22524,68	127,00
-22466,33	146,00
-22408,19	33,00
-22350,23	-18,00
-22292,48	47,00
-22234,92	74,00
-22177,55	50,00
-22120,37	93,00
-22063,38	81,00
-22006,58	62,00
-21949,98	35,00
-21893,56	144,00
-21837,33	54,00
-21781,28	108,00
-21725,42	109,00
-21669,74	40,00
-21614,25	86,00
-21558,94	79,00
-21503,81	113,00
-21448,86	-88,00
-21394,10	113,00
-21339,51	91,00
-21285,10	54,00
-21230,86	98,00
-21176,81	67,00
-21122,93	93,00
-21069,22	6,00
-21015,69	141,00
-20962,33	184,00
-20909,14	10,00
-20856,13	41,00
-20803,28	132,00
-20750,61	181,00
-20698,10	-33,00
-20645,76	-26,00
-20593,59	76,00
-20541,59	28,00
-20489,75	49,00
-20438,07	167,00
-20386,56	104,00
-20335,22	121,00
-20284,03	5,00
-20233,01	71,00
-20182,15	-12,00
-20131,45	87,00
-20080,91	61,00
-20030,52	18,00
-19980,30	80,00
-19930,23	92,00
-19880,32	110,00
-19830,56	71,00
-19780,96	33,00
-19731,52	196,00
-19682,23	62,00
-19633,09	111,00
-19584,10	36,00
-19535,26	108,00
-19486,58	90,00
-19438,04	120,00
-19389,66	80,00
-19341,42	-69,00
-19293,33	20,00
-19245,39	50,00
-19197,60	171,00
-19149,95	31,00
-19102,45	69,00
-19055,09	-24,00
-19007,87	64,00
-18960,80	181,00
-18913,87	79,00
-18867,09	83,00
-18820,44	66,00
-18773,94	138,00
-18727,57	-15,00
-18681,35	169,00
-18635,26	74,00
-18589,31	112,00
-18543,50	29,00
-18497,83	41,00
-18452,29	-3,00
-18406,89	-27,00
-18361,63	117,00
-18316,50	38,00
-18271,50	218,00
-18226,63	96,00
-18181,90	77,00
-18137,30	198,00
-18092,84	12,00
-18048,50	118,00
-18004,29	147,00
-17960,22	109,00
-17916,27	56,00
-17872,45	60,00
-17828,76	150,00
-17785,20	-67,00
-17741,77	109,00
-17698,46	159,00
-17655,28	-50,00
-17612,22	16,00
-17569,29	82,00
-17526,48	62,00
-17483,79	137,00
-17441,23	130,00
-17398,79	102,00
-17356,48	129,00
-17314,28	19,00
-17272,21	-13,00
-17230,26	184,00
-17188,42	151,00
-17146,71	53,00
-17105,12	23,00
-17063,64	-9,00
-17022,28	225,00
-16981,04	160,00
-16939,92	42,00
-16898,91	23,00
-16858,02	22,00
-16817,25	44,00
-16776,59	135,00
-16736,04	-29,00
-16695,61	-41,00
-16655,29	38,00
-16615,09	125,00
-16574,99	103,00
-16535,01	178,00
-16495,15	111,00
-16455,39	-2,00
-16415,74	78,00
-16376,21	68,00
-16336,78	105,00
-16297,46	22,00
-16258,26	110,00
-16219,16	48,00
-16180,17	194,00
-16141,28	68,00
-16102,51	82,00
-16063,84	-16,00
-16025,27	92,00
-15986,82	108,00
-15948,46	-11,00
-15910,22	120,00
-15872,07	25,00
-15834,04	149,00
-15796,10	55,00
-15758,27	184,00
-15720,54	30,00
-15682,91	67,00
-15645,39	117,00
-15607,97	91,00
-15570,64	21,00
-15533,42	91,00
-15496,30	139,00
-15459,28	95,00
-15422,36	143,00
-15385,54	-39,00
-15348,82	3,00
-15312,19	77,00
-15275,66	183,00
-15239,23	96,00
-15202,90	26,00
-15166,67	96,00
-15130,53	7,00
-15094,48	13,00
-15058,54	100,00
-15022,68	140,00
-14986,93	197,00
-14951,26	9,00
-14915,69	156,00
-14880,22	170,00
-14844,84	38,00
-14809,55	153,00
-14774,35	124,00
-14739,25	95,00
-14704,24	74,00
-14669,32	18,00
-14634,49	182,00
-14599,75	101,00
-14565,10	65,00
-14530,55	71,00
-14496,08	47,00
-14461,70	77,00
-14427,41	73,00
-14393,21	77,00
-14359,10	41,00
-14325,07	-32,00
-14291,14	99,00
-14257,29	92,00
-14223,52	85,00
-14189,85	57,00
-14156,26	115,00
-14122,76	11,00
-14089,34	120,00
-14056,01	161,00
-14022,76	241,00
-13989,60	-108,00
-13956,52	144,00
-13923,53	16,00
-13890,62	125,00
-13857,79	28,00
-13825,05	166,00
-13792,39	45,00
-13759,81	135,00
-13727,31	51,00
-13694,90	22,00
-13662,57	121,00
-13630,31	45,00
-13598,14	-37,00
-13566,05	57,00
-13534,05	106,00
-13502,12	50,00
-13470,27	68,00
-13438,50	107,00
-13406,80	-3,00
-13375,19	75,00
-13343,66	-44,00
-13312,20	18,00
-13280,83	113,00
-13249,53	-36,00
-13218,30	10,00
-13187,16	141,00
-13156,09	101,00
-13125,10	55,00
-13094,18	85,00
-13063,34	55,00
-13032,58	10,00
-13001,89	137,00
-12971,28	25,00
-12940,74	154,00
-12910,27	15,00
-12879,88	82,00
-12849,57	175,00
-12819,33	98,00
-12789,16	36,00
-12759,06	20,00
-12729,04	134,00
-12699,09	-1111,00
-12669,21	54,00
-12639,41	121,00
-12609,68	182,00
-12580,02	73,00
-12550,43	104,00
-12520,91	-38,00
-12491,46	69,00
-12462,08	46,00
-12432,77	-14,00
-12403,54	-6,00
-12374,37	298,00
-12345,27	100,00
-12316,24	110,00
-12287,29	59,00
-12258,40	132,00
-12229,57	69,00
-12200,82	111,00
-12172,14	-27,00
-12143,52	29,00
-12114,97	133,00
-12086,49	123,00
-12058,07	75,00
-12029,73	80,00
-12001,44	55,00
-11973,23	134,00
-11945,08	13,00
-11917,00	107,00
-11888,98	107,00
-11861,03	137,00
-11833,15	36,00
-11805,32	181,00
-11777,57	36,00
-11749,88	163,00
-11722,25	-96,00
-11694,69	89,00
-11667,19	61,00
-11639,75	86,00
-11612,38	-44,00
-11585,07	10,00
-11557,83	170,00
-11530,65	106,00
-11503,53	23,00
-11476,47	153,00
-11449,48	130,00
-11422,54	41,00
-11395,67	-14,00
-11368,86	43,00
-11342,11	70,00
-11315,43	11,00
-11288,80	57,00
-11262,23	131,00
-11235,73	90,00
-11209,28	-45,00
-11182,90	124,00
-11156,57	162,00
-11130,31	135,00
-11104,10	37,00
-11077,96	66,00
-11051,87	122,00
-11025,84	80,00
-10999,87	103,00
-10973,96	94,00
-10948,11	71,00
-10922,31	70,00
-10896,58	126,00
-10870,90	26,00
-10845,28	101,00
-10819,71	106,00
-10794,20	97,00
-10768,75	123,00
-10743,36	81,00
-10718,02	121,00
-10692,74	91,00
-10667,52	105,00
-10642,35	172,00
-10617,24	16,00
-10592,18	153,00
-10567,18	138,00
-10542,23	218,00
-10517,34	212,00
-10492,51	64,00
-10467,72	186,00
-10443,00	115,00
-10418,32	114,00
-10393,70	0,00
-10369,14	185,00
-10344,63	126,00
-10320,17	247,00
-10295,77	187,00
-10271,42	103,00
-10247,12	175,00
-10222,88	64,00
-10198,68	100,00
-10174,54	86,00
-10150,46	68,00
-10126,42	118,00
-10102,44	63,00
-10078,51	207,00
-10054,63	160,00
-10030,80	167,00
-10007,03	105,00
-9983,30	107,00
-9959,63	107,00
-9936,01	259,00
-9912,44	142,00
-9888,92	109,00
-9865,44	208,00
-9842,02	48,00
-9818,65	331,00
-9795,33	255,00
-9772,06	143,00
-9748,84	212,00
-9725,67	137,00
-9702,55	253,00
-9679,47	201,00
-9656,45	319,00
-9633,47	265,00
-9610,55	253,00
-9587,67	290,00
-9564,84	385,00
-9542,06	292,00
-9519,32	361,00
-9496,64	308,00
-9474,00	417,00
-9451,41	457,00
-9428,87	317,00
-9406,37	472,00
-9383,92	402,00
-9361,52	359,00
-9339,17	175,00
-9316,86	368,00
-9294,60	551,00
-9272,38	588,00
-9250,21	558,00
-9228,09	587,00
-9206,01	568,00
-9183,98	512,00
-9162,00	424,00
-9140,06	399,00
-9118,16	557,00
-9096,31	619,00
-9074,51	530,00
-9052,75	557,00
-9031,04	525,00
-9009,37	534,00
-8987,74	331,00
-8966,16	253,00
-8944,63	199,00
-8923,14	227,00
-8901,69	328,00
-8880,29	435,00
-8858,93	479,00
-8837,61	488,00
-8816,34	655,00
-8795,11	558,00
-8773,92	571,00
-8752,78	469,00
-8731,68	539,00
-8710,62	393,00
-8689,61	456,00
-8668,63	605,00
-8647,70	549,00
-8626,82	496,00
-8605,97	618,00
-8585,17	426,00
-8564,41	353,00
-8543,69	400,00
-8523,01	330,00
-8502,37	482,00
-8481,78	439,00
-8461,23	547,00
-8440,71	472,00
-8420,24	525,00
-8399,81	663,00
-8379,42	545,00
-8359,08	397,00
-8338,77	501,00
-8318,50	418,00
-8298,27	493,00
-8278,09	406,00
-8257,94	518,00
-8237,83	551,00
-8217,76	582,00
-8197,74	637,00
-8177,75	489,00
-8157,80	573,00
-8137,89	456,00
-8118,02	507,00
-8098,19	445,00
-8078,40	549,00
-8058,65	495,00
-8038,93	521,00
-8019,26	532,00
-7999,62	539,00
-7980,02	341,00
-7960,46	426,00
-7940,94	475,00
-7921,46	414,00
-7902,01	398,00
-7882,60	423,00
-7863,23	485,00
-7843,90	406,00
-7824,61	322,00
-7805,35	494,00
-7786,13	619,00
-7766,95	472,00
-7747,80	463,00
-7728,69	545,00
-7709,62	402,00
-7690,59	477,00
-7671,59	453,00
-7652,63	498,00
-7633,70	497,00
-7614,81	516,00
-7595,96	489,00
-7577,15	461,00
-7558,37	359,00
-7539,62	294,00
-7520,91	494,00
-7502,24	367,00
-7483,60	526,00
-7465,00	467,00
-7446,44	393,00
-7427,91	298,00
-7409,41	364,00
-7390,95	332,00
-7372,53	308,00
-7354,14	132,00
-7335,78	178,00
-7317,46	362,00
-7299,18	377,00
-7280,92	427,00
-7262,71	372,00
-7244,52	549,00
-7226,38	557,00
-7208,26	506,00
-7190,18	423,00
-7172,14	449,00
-7154,12	316,00
-7136,15	337,00
-7118,20	476,00
-7100,29	457,00
-7082,41	365,00
-7064,57	448,00
-7046,76	354,00
-7028,98	250,00
-7011,24	240,00
-6993,53	235,00
-6975,85	237,00
-6958,20	98,00
-6940,59	167,00
-6923,01	265,00
-6905,46	156,00
-6887,94	421,00
-6870,46	-2388,00
-6853,01	462,00
-6835,59	415,00
-6818,21	357,00
-6800,85	260,00
-6783,53	203,00
-6766,24	45,00
-6748,98	78,00
-6731,76	71,00
-6714,56	-21,00
-6697,40	115,00
-6680,26	103,00
-6663,16	139,00
-6646,09	194,00
-6629,05	227,00
-6612,05	292,00
-6595,07	298,00
-6578,13	186,00
-6561,21	213,00
-6544,33	201,00
-6527,47	97,00
-6510,65	11,00
-6493,86	46,00
-6477,10	26,00
-6460,36	100,00
-6443,66	67,00
-6426,99	43,00
-6410,35	86,00
-6393,74	117,00
-6377,16	126,00
-6360,61	-21,00
-6344,09	81,00
-6327,59	66,00
-6311,13	176,00
-6294,70	226,00
-6278,29	304,00
-6261,92	393,00
-6245,58	301,00
-6229,26	301,00
-6212,97	187,00
-6196,72	205,00
-6180,49	-12,00
-6164,29	8,00
-6148,12	84,00
-6131,98	-25,00
-6115,86	102,00
-6099,78	-4,00
-6083,72	5,00
-6067,69	-79,00
-6051,69	-58,00
-6035,72	143,00
-6019,78	57,00
-6003,87	102,00
-5987,98	238,00
-5972,12	218,00
-5956,29	245,00
-5940,49	312,00
-5924,71	125,00
-5908,96	68,00
-5893,24	-15,00
-5877,55	184,00
-5861,89	88,00
-5846,25	-70,00
-5830,64	59,00
-5815,05	53,00
-5799,50	155,00
-5783,97	41,00
-5768,47	29,00
-5752,99	123,00
-5737,55	166,00
-5722,12	202,00
-5706,73	304,00
-5691,36	120,00
-5676,02	91,00
-5660,71	168,00
-5645,42	24,00
-5630,16	16,00
-5614,92	148,00
-5599,71	188,00
-5584,53	135,00
-5569,37	127,00
-5554,24	108,00
-5539,14	208,00
-5524,06	85,00
-5509,01	136,00
-5493,98	112,00
-5478,98	106,00
-5464,00	163,00
-5449,05	-14,00
-5434,13	126,00
-5419,23	121,00
-5404,36	123,00
-5389,51	198,00
-5374,69	203,00
-5359,89	107,00
-5345,12	203,00
-5330,37	250,00
-5315,65	200,00
-5300,95	215,00
-5286,28	110,00
-5271,63	112,00
-5257,01	43,00
-5242,41	173,00
-5227,84	-23,00
-5213,29	63,00
-5198,76	7,00
-5184,26	51,00
-5169,79	63,00
-5155,33	35,00
-5140,91	95,00
-5126,51	98,00
-5112,13	124,00
-5097,77	122,00
-5083,44	-3,00
-5069,13	95,00
-5054,85	79,00
-5040,59	177,00
-5026,36	45,00
-5012,15	145,00
-4997,96	159,00
-4983,80	48,00
-4969,66	33,00
-4955,54	169,00
-4941,44	211,00
-4927,37	208,00
-4913,33	275,00
-4899,30	296,00
-4885,30	347,00
-4871,33	212,00
-4857,37	138,00
-4843,44	203,00
-4829,53	107,00
-4815,65	93,00
-4801,79	151,00
-4787,95	22,00
-4774,13	185,00
-4760,34	170,00
-4746,56	33,00
-4732,82	94,00
-4719,09	210,00
-4705,38	148,00
-4691,70	299,00
-4678,04	217,00
-4664,41	120,00
-4650,79	85,00
-4637,20	119,00
-4623,63	179,00
-4610,08	105,00
-4596,56	1,00
-4583,05	137,00
-4569,57	133,00
-4556,11	194,00
-4542,67	67,00
-4529,25	114,00
-4515,86	111,00
-4502,49	215,00
-4489,13	177,00
-4475,80	193,00
-4462,49	126,00
-4449,21	177,00
-4435,94	121,00
-4422,70	116,00
-4409,47	199,00
-4396,27	125,00
-4383,09	112,00
-4369,93	76,00
-4356,79	180,00
-4343,67	124,00
-4330,58	60,00
-4317,50	94,00
-4304,45	31,00
-4291,41	55,00
-4278,40	-59,00
-4265,41	16,00
-4252,44	118,00
-4239,49	144,00
-4226,55	166,00
-4213,65	97,00
-4200,76	66,00
-4187,89	61,00
-4175,04	50,00
-4162,21	159,00
-4149,40	123,00
-4136,61	168,00
-4123,85	164,00
-4111,10	19,00
-4098,37	95,00
-4085,66	94,00
-4072,98	182,00
-4060,31	75,00
-4047,66	182,00
-4035,04	164,00
-4022,43	230,00
-4009,84	146,00
-3997,27	-3,00
-3984,72	178,00
-3972,19	112,00
-3959,69	18,00
-3947,20	40,00
-3934,73	29,00
-3922,27	215,00
-3909,84	77,00
-3897,43	110,00
-3885,04	-4,00
-3872,67	28,00
-3860,31	-5,00
-3847,98	183,00
-3835,66	-10,00
-3823,36	-23,00
-3811,09	109,00
-3798,83	94,00
-3786,59	123,00
-3774,37	175,00
-3762,17	128,00
-3749,98	116,00
-3737,82	30,00
-3725,67	2,00
-3713,55	-52,00
-3701,44	72,00
-3689,35	90,00
-3677,28	8,00
-3665,22	36,00
-3653,19	-35,00
-3641,17	204,00
-3629,18	42,00
-3617,20	9,00
-3605,24	226,00
-3593,30	-81,00
-3581,37	67,00
-3569,47	161,00
-3557,58	105,00
-3545,71	87,00
-3533,86	154,00
-3522,02	-39,00
-3510,21	150,00
-3498,41	67,00
-3486,63	135,00
-3474,87	75,00
-3463,12	170,00
-3451,40	117,00
-3439,69	111,00
-3428,00	155,00
-3416,33	67,00
-3404,67	118,00
-3393,03	241,00
-3381,41	70,00
-3369,81	-76,00
-3358,22	190,00
-3346,66	88,00
-3335,10	55,00
-3323,57	129,00
-3312,06	2,00
-3300,56	15,00
-3289,08	59,00
-3277,61	148,00
-3266,16	-14,00
-3254,73	45,00
-3243,32	48,00
-3231,92	-8,00
-3220,55	61,00
-3209,18	78,00
-3197,84	161,00
-3186,51	114,00
-3175,20	54,00
-3163,90	118,00
-3152,63	-17,00
-3141,36	11,00
-3130,12	92,00
-3118,89	22,00
-3107,68	121,00
-3096,49	164,00
-3085,31	-11,00
-3074,15	20,00
-3063,00	7,00
-3051,87	116,00
-3040,76	66,00
-3029,67	8,00
-3018,59	55,00
-3007,52	193,00
-2996,48	20,00
-2985,44	168,00
-2974,43	107,00
-2963,43	47,00
-2952,45	78,00
-2941,48	14,00
-2930,53	-81,00
-2919,60	113,00
-2908,68	130,00
-2897,78	34,00
-2886,89	134,00
-2876,02	169,00
-2865,17	85,00
-2854,33	151,00
-2843,50	155,00
-2832,70	80,00
-2821,90	72,00
-2811,13	139,00
-2800,37	-98,00
-2789,62	32,00
-2778,89	200,00
-2768,18	93,00
-2757,48	69,00
-2746,80	68,00
-2736,13	17,00
-2725,48	86,00
-2714,84	4,00
-2704,22	142,00
-2693,61	73,00
-2683,02	29,00
-2672,45	185,00
-2661,89	-14,00
-2651,34	27,00
-2640,81	109,00
-2630,30	53,00
-2619,80	127,00
-2609,31	95,00
-2598,84	-10,00
-2588,39	-44,00
-2577,95	97,00
-2567,52	107,00
-2557,11	110,00
-2546,71	60,00
-2536,33	219,00
-2525,97	56,00
-2515,62	53,00
-2505,28	139,00
-2494,96	75,00
-2484,65	14,00
-2474,36	541,00
-2464,08	102,00
-2453,82	98,00
-2443,57	96,00
-2433,33	73,00
-2423,11	93,00
-2412,91	74,00
-2402,72	57,00
-2392,54	239,00
-2382,38	97,00
-2372,23	105,00
-2362,09	620,00
-2351,97	76,00
-2341,87	54,00
-2331,78	71,00
-2321,70	21,00
-2311,64	102,00
-2301,59	188,00
-2291,55	64,00
-2281,53	13,00
-2271,53	48,00
-2261,53	139,00
-2251,55	39,00
-2241,59	29,00
-2231,64	92,00
-2221,70	0,00
-2211,78	126,00
-2201,87	110,00
-2191,97	-126,00
-2182,09	24,00
-2172,22	133,00
-2162,37	83,00
-2152,53	46,00
-2142,70	32,00
-2132,89	108,00
-2123,09	2,00
-2113,30	161,00
-2103,53	176,00
-2093,77	63,00
-2084,02	70,00
-2074,29	62,00
-2064,57	57,00
-2054,86	28,00
-2045,17	59,00
-2035,49	48,00
-2025,82	-51,00
-2016,17	92,00
-2006,53	86,00
-1996,91	144,00
-1987,29	77,00
-1977,69	3,00
-1968,11	56,00
-1958,53	168,00
-1948,97	100,00
-1939,42	114,00
-1929,89	115,00
-1920,37	37,00
-1910,86	114,00
-1901,36	149,00
-1891,88	73,00
-1882,41	18,00
-1872,95	104,00
-1863,51	-14,00
-1854,08	77,00
-1844,66	104,00
-1835,26	139,00
-1825,86	98,00
-1816,48	-4,00
-1807,11	67,00
-1797,76	49,00
-1788,42	128,00
-1779,09	120,00
-1769,77	31,00
-1760,47	137,00
-1751,17	108,00
-1741,89	-20,00
-1732,63	67,00
-1723,37	283,00
-1714,13	113,00
-1704,90	-22,00
-1695,68	89,00
-1686,48	138,00
-1677,29	117,00
-1668,11	116,00
-1658,94	179,00
-1649,78	76,00
-1640,64	156,00
-1631,51	53,00
-1622,39	113,00
-1613,28	105,00
-1604,19	81,00
-1595,10	83,00
-1586,03	125,00
-1576,97	54,00
-1567,93	160,00
-1558,89	10,00
-1549,87	53,00
-1540,86	92,00
-1531,86	116,00
-1522,87	-8,00
-1513,90	224,00
-1504,93	-5,00
-1495,98	30,00
-1487,04	259,00
-1478,12	108,00
-1469,20	43,00
-1460,30	159,00
-1451,40	32,00
-1442,52	167,00
-1433,65	88,00
-1424,80	115,00
-1415,95	79,00
-1407,12	-10,00
-1398,30	130,00
-1389,48	108,00
-1380,69	146,00
-1371,90	118,00
-1363,12	137,00
-1354,36	152,00
-1345,60	60,00
-1336,86	16,00
-1328,13	93,00
-1319,41	8,00
-1310,70	185,00
-1302,01	35,00
-1293,32	-52,00
-1284,65	136,00
-1275,99	77,00
-1267,33	67,00
-1258,69	135,00
-1250,06	118,00
-1241,45	85,00
-1232,84	90,00
-1224,25	73,00
-1215,66	164,00
-1207,09	-24,00
-1198,53	40,00
-1189,97	118,00
-1181,43	-36,00
-1172,91	84,00
-1164,39	131,00
-1155,88	190,00
-1147,38	73,00
-1138,90	17,00
-1130,43	97,00
-1121,96	118,00
-1113,51	128,00
-1105,07	34,00
-1096,64	-8,00
-1088,22	120,00
-1079,81	107,00
-1071,41	124,00
-1063,02	90,00
-1054,65	109,00
-1046,28	-3,00
-1037,92	68,00
-1029,58	109,00
-1021,24	94,00
-1012,92	71,00
-1004,61	-38,00
-996,30	95,00
-988,01	28,00
-979,73	79,00
-971,46	101,00
-963,20	-44,00
-954,95	116,00
-946,71	45,00
-938,48	54,00
-930,26	111,00
-922,06	49,00
-913,86	47,00
-905,67	149,00
-897,49	77,00
-889,33	139,00
-881,17	107,00
-873,02	70,00
-864,89	123,00
-856,76	122,00
-848,65	75,00
-840,54	83,00
-832,45	-30,00
-824,36	97,00
-816,29	90,00
-808,22	59,00
-800,17	-54,00
-792,12	149,00
-784,09	36,00
-776,06	71,00
-768,05	193,00
-760,04	29,00
-752,05	69,00
-744,07	41,00
-736,09	102,00
-728,13	23,00
-720,17	16,00
-712,23	121,00
-704,29	151,00
-696,37	79,00
-688,45	112,00
-680,55	-6,00
-672,65	124,00
-664,77	186,00
-656,89	39,00
-649,03	114,00
-641,17	24,00
-633,32	38,00
-625,49	96,00
-617,66	19,00
-609,84	52,00
-602,03	64,00
-594,23	27,00
-586,45	115,00
-578,67	101,00
-570,90	43,00
-563,14	109,00
-555,39	-23,00
-547,65	127,00
-539,91	65,00
-532,19	161,00
-524,48	63,00
-516,78	40,00
-509,08	149,00
-501,40	151,00
-493,72	86,00
-486,06	109,00
-478,40	21,00
-470,76	163,00
-463,12	131,00
-455,49	41,00
-447,87	88,00
-440,26	115,00
-432,66	5,00
-425,07	117,00
-417,49	177,00
-409,92	59,00
-402,35	220,00
-394,80	62,00
-387,25	15,00
-379,72	51,00
-372,19	183,00
-364,67	158,00
-357,17	188,00
-349,67	18,00
-342,18	102,00
-334,69	130,00
-327,22	13,00
-319,76	89,00
-312,30	229,00
-304,86	154,00
-297,42	129,00
-290,00	27,00
-282,58	114,00
-275,17	159,00
-267,77	131,00
-260,37	95,00
-252,99	182,00
-245,62	83,00
-238,25	186,00
-230,90	138,00
-223,55	9,00
-216,21	216,00
-208,88	96,00
-201,56	140,00
-194,25	228,00
-186,94	294,00
-179,65	260,00
-172,36	317,00
-165,08	357,00
-157,81	170,00
-150,55	400,00
-143,30	352,00
-136,06	412,00
-128,82	496,00
-121,60	415,00
-114,38	446,00
-107,17	516,00
-99,97	682,00
-92,78	608,00
-85,60	585,00
-78,42	1048,00
-71,25	929,00
-64,10	1107,00
-56,95	1303,00
-49,81	1453,00
-42,67	1831,00
-35,55	2262,00
-28,43	3107,00
-21,33	5070,00
-14,23	17128,00
-7,14	55164,00
-0,05	54791,00
7,02	54542,00
14,09	54846,00
21,14	15128,00
28,19	6333,00
35,23	3863,00
42,27	3067,00
49,29	2479,00
56,31	2178,00
63,32	1778,00
70,32	1340,00
77,31	1306,00
84,29	1055,00
91,27	947,00
98,23	801,00
105,19	842,00
112,14	991,00
119,09	1151,00
126,02	1880,00
132,95	2094,00
139,87	2224,00
146,78	2090,00
153,68	2115,00
160,58	2050,00
167,46	2049,00
174,34	1966,00
181,21	2161,00
188,08	2044,00
194,93	1767,00
201,78	1801,00
208,62	1911,00
215,45	1910,00
222,27	1936,00
229,09	1994,00
235,90	1822,00
242,70	1817,00
249,49	1771,00
256,27	1798,00
263,05	1903,00
269,82	1854,00
276,58	1719,00
283,33	1781,00
290,08	1795,00
296,82	1758,00
303,55	1776,00
310,27	1669,00
316,98	1614,00
323,69	1713,00
330,39	1548,00
337,08	1593,00
343,76	1563,00
350,44	1610,00
357,11	1608,00
363,77	1627,00
370,42	1670,00
377,07	1654,00
383,71	1672,00
390,34	1497,00
396,96	1597,00
403,58	1611,00
410,19	1572,00
416,79	1554,00
423,38	1571,00
429,97	1570,00
436,55	1584,00
443,12	1517,00
449,68	1310,00
456,24	1430,00
462,79	1248,00
469,33	1452,00
475,86	1265,00
482,39	1414,00
488,91	1271,00
495,42	1326,00
501,93	1416,00
508,42	1222,00
514,91	1304,00
521,40	1290,00
527,87	1372,00
534,34	1284,00
540,80	1281,00
547,25	1309,00
553,70	1323,00
560,14	1204,00
566,57	1445,00
573,00	1250,00
579,41	1308,00
585,83	1129,00
592,23	1190,00
598,62	1253,00
605,01	1098,00
611,40	1313,00
617,77	1355,00
624,14	1204,00
630,50	1190,00
636,85	1138,00
643,20	1191,00
649,54	1260,00
655,87	1028,00
662,20	1134,00
668,52	1164,00
674,83	1130,00
681,13	1098,00
687,43	977,00
693,72	1170,00
700,00	1048,00
706,28	1136,00
712,55	1115,00
718,81	1209,00
725,07	1061,00
731,32	1114,00
737,56	1065,00
743,79	1124,00
750,02	1214,00
756,24	1107,00
762,46	1041,00
768,67	1046,00
774,87	1050,00
781,06	1108,00
787,25	1014,00
793,43	1060,00
799,60	1144,00
805,77	988,00
811,93	1135,00
818,08	1150,00
824,23	1125,00
830,37	1024,00
836,50	1149,00
842,63	1089,00
848,75	1071,00
854,87	1042,00
860,97	1056,00
867,07	1141,00
873,17	993,00
879,25	1036,00
885,33	1090,00
891,41	998,00
897,47	1005,00
903,53	1049,00
909,59	1114,00
915,63	1067,00
921,67	875,00
927,71	949,00
933,74	973,00
939,76	984,00
945,77	817,00
951,78	768,00
957,78	925,00
963,78	891,00
969,77	903,00
975,75	948,00
981,72	933,00
987,69	918,00
993,66	956,00
999,61	877,00
1005,56	950,00
1011,51	1143,00
1017,44	948,00
1023,37	919,00
1029,30	978,00
1035,22	982,00
1041,13	1124,00
1047,03	1009,00
1052,93	991,00
1058,83	1286,00
1064,71	1281,00
1070,59	1226,00
1076,47	1176,00
1082,33	1182,00
1088,20	1046,00
1094,05	960,00
1099,90	945,00
1105,74	869,00
1111,58	1022,00
1117,41	901,00
1123,23	1136,00
1129,05	1277,00
1134,86	1401,00
1140,67	1017,00
1146,47	1005,00
1152,26	898,00
1158,05	853,00
1163,83	945,00
1169,60	1056,00
1175,37	754,00
1181,13	794,00
1186,89	923,00
1192,64	831,00
1198,38	909,00
1204,12	867,00
1209,85	930,00
1215,58	954,00
1221,30	737,00
1227,02	959,00
1232,72	916,00
1238,43	809,00
1244,12	825,00
1249,81	871,00
1255,50	1023,00
1261,17	957,00
1266,85	955,00
1272,51	980,00
1278,17	954,00
1283,83	1041,00
1289,47	1399,00
1295,12	1605,00
1300,75	1376,00
1306,38	1274,00
1312,01	1122,00
1317,63	969,00
1323,24	995,00
1328,85	1065,00
1334,45	1068,00
1340,04	863,00
1345,63	1055,00
1351,22	964,00
1356,80	892,00
1362,37	930,00
1367,93	929,00
1373,49	1040,00
1379,05	906,00
1384,60	1044,00
1390,14	998,00
1395,68	914,00
1401,21	947,00
1406,74	970,00
1412,26	1135,00
1417,77	1019,00
1423,28	1221,00
1428,78	1242,00
1434,28	1443,00
1439,77	1658,00
1445,26	1612,00
1450,74	1515,00
1456,22	1376,00
1461,68	1432,00
1467,15	1275,00
1472,61	1173,00
1478,06	1079,00
1483,51	1033,00
1488,95	975,00
1494,38	846,00
1499,81	807,00
1505,24	720,00
1510,65	853,00
1516,07	922,00
1521,48	864,00
1526,88	820,00
1532,27	773,00
1537,67	820,00
1543,05	804,00
1548,43	823,00
1553,81	908,00
1559,18	852,00
1564,54	702,00
1569,90	794,00
1575,25	845,00
1580,60	744,00
1585,94	678,00
1591,28	799,00
1596,61	647,00
1601,93	795,00
1607,25	765,00
1612,57	844,00
1617,88	766,00
1623,18	764,00
1628,48	698,00
1633,77	775,00
1639,06	605,00
1644,34	716,00
1649,62	809,00
1654,89	821,00
1660,16	655,00
1665,42	703,00
1670,67	686,00
1675,92	700,00
1681,17	726,00
1686,41	668,00
1691,64	635,00
1696,87	606,00
1702,10	580,00
1707,32	685,00
1712,53	713,00
1717,74	722,00
1722,94	565,00
1728,14	631,00
1733,33	668,00
1738,52	573,00
1743,70	585,00
1748,88	609,00
1754,05	565,00
1759,22	617,00
1764,38	630,00
1769,53	599,00
1774,69	559,00
1779,83	647,00
1784,97	606,00
1790,11	577,00
1795,24	626,00
1800,36	669,00
1805,48	649,00
1810,60	639,00
1815,71	458,00
1820,82	579,00
1825,92	535,00
1831,01	587,00
1836,10	502,00
1841,19	546,00
1846,26	559,00
1851,34	481,00
1856,41	598,00
1861,47	552,00
1866,53	600,00
1871,59	532,00
1876,64	455,00
1881,68	398,00
1886,72	475,00
1891,76	580,00
1896,79	507,00
1901,81	559,00
1906,83	565,00
1911,85	475,00
1916,86	544,00
1921,86	525,00
1926,86	559,00
1931,86	448,00
1936,85	449,00
1941,83	468,00
1946,81	485,00
1951,79	505,00
1956,76	406,00
1961,72	388,00
1966,68	463,00
1971,64	408,00
1976,59	451,00
1981,54	423,00
1986,48	395,00
1991,42	424,00
1996,35	435,00
2001,27	379,00
2006,20	430,00
2011,11	514,00
2016,03	540,00
2020,93	474,00
2025,84	439,00
2030,73	474,00
2035,63	421,00
2040,52	513,00
2045,40	427,00
2050,28	366,00
2055,15	280,00
2060,02	436,00
2064,89	368,00
2069,75	396,00
2074,60	266,00
2079,46	342,00
2084,30	397,00
2089,14	470,00
2093,98	376,00
2098,81	501,00
2103,64	544,00
2108,46	453,00
2113,28	363,00
2118,09	311,00
2122,90	446,00
2127,70	359,00
2132,50	439,00
2137,30	405,00
2142,09	447,00
2146,87	328,00
2151,66	382,00
2156,43	383,00
2161,20	253,00
2165,97	426,00
2170,73	424,00
2175,49	430,00
2180,24	374,00
2184,99	614,00
2189,74	311,00
2194,48	330,00
2199,21	347,00
2203,94	300,00
2208,67	322,00
2213,39	346,00
2218,11	182,00
2222,82	425,00
2227,53	340,00
2232,23	342,00
2236,93	288,00
2241,63	322,00
2246,32	390,00
2251,00	377,00
2255,68	342,00
2260,36	336,00
2265,03	378,00
2269,70	279,00
2274,36	287,00
2279,02	210,00
2283,68	399,00
2288,33	235,00
2292,97	213,00
2297,61	317,00
2302,25	272,00
2306,88	393,00
2311,51	307,00
2316,14	283,00
2320,75	407,00
2325,37	238,00
2329,98	320,00
2334,59	308,00
2339,19	325,00
2343,79	286,00
2348,38	437,00
2352,97	246,00
2357,55	251,00
2362,13	185,00
2366,71	386,00
2371,28	247,00
2375,85	227,00
2380,41	265,00
2384,97	267,00
2389,52	295,00
2394,07	280,00
2398,62	202,00
2403,16	252,00
2407,70	315,00
2412,23	337,00
2416,76	283,00
2421,29	305,00
2425,81	152,00
2430,32	280,00
2434,84	350,00
2439,34	303,00
2443,85	234,00
2448,35	203,00
2452,84	278,00
2457,33	145,00
2461,82	321,00
2466,30	265,00
2470,78	258,00
2475,25	139,00
2479,72	217,00
2484,19	216,00
2488,65	360,00
2493,11	208,00
2497,56	242,00
2502,01	190,00
2506,46	329,00
2510,90	164,00
2515,34	283,00
2519,77	182,00
2524,20	305,00
2528,62	207,00
2533,04	322,00
2537,46	211,00
2541,87	256,00
2546,28	253,00
2550,68	283,00
2555,08	188,00
2559,48	259,00
2563,87	178,00
2568,26	266,00
2572,64	218,00
2577,02	438,00
2581,40	265,00
2585,77	227,00
2590,14	220,00
2594,50	184,00
2598,86	222,00
2603,22	226,00
2607,57	219,00
2611,92	210,00
2616,26	153,00
2620,60	264,00
2624,94	165,00
2629,27	286,00
2633,60	115,00
2637,92	212,00
2642,24	278,00
2646,56	165,00
2650,87	126,00
2655,18	200,00
2659,48	261,00
2663,78	188,00
2668,08	283,00
2672,37	380,00
2676,66	217,00
2680,95	270,00
2685,23	196,00
2689,50	283,00
2693,78	280,00
2698,05	255,00
2702,31	201,00
2706,57	219,00
2710,83	498,00
2715,08	241,00
2719,33	248,00
2723,58	380,00
2727,82	409,00
2732,06	309,00
2736,29	319,00
2740,53	350,00
2744,75	336,00
2748,97	214,00
2753,19	334,00
2757,41	359,00
2761,62	302,00
2765,83	253,00
2770,03	210,00
2774,23	175,00
2778,43	385,00
2782,62	308,00
2786,81	266,00
2791,00	154,00
2795,18	345,00
2799,35	192,00
2803,53	397,00
2807,70	463,00
2811,86	252,00
2816,03	456,00
2820,19	340,00
2824,34	374,00
2828,49	576,00
2832,64	607,00
2836,78	562,00
2840,92	848,00
2845,06	933,00
2849,19	1015,00
2853,32	1067,00
2857,45	1004,00
2861,57	1128,00
2865,69	1093,00
2869,80	1034,00
2873,91	1126,00
2878,02	1226,00
2882,12	1093,00
2886,22	1169,00
2890,32	1056,00
2894,41	1053,00
2898,50	975,00
2902,58	869,00
2906,67	780,00
2910,74	844,00
2914,82	681,00
2918,89	678,00
2922,96	790,00
2927,02	602,00
2931,08	702,00
2935,13	612,00
2939,19	585,00
2943,24	468,00
2947,28	455,00
2951,32	294,00
2955,36	417,00
2959,40	467,00
2963,43	306,00
2967,46	275,00
2971,48	400,00
2975,50	247,00
2979,52	242,00
2983,53	395,00
2987,54	302,00
2991,55	226,00
2995,55	187,00
2999,55	144,00
3003,54	203,00
3007,54	137,00
3011,53	163,00
3015,51	225,00
3019,49	126,00
3023,47	197,00
3027,45	184,00
3031,42	150,00
3035,39	183,00
3039,35	228,00
3043,31	167,00
3047,27	192,00
3051,22	147,00
3055,17	97,00
3059,12	55,00
3063,06	149,00
3067,00	99,00
3070,94	136,00
3074,87	67,00
3078,80	172,00
3082,73	207,00
3086,65	80,00
3090,57	58,00
3094,49	182,00
3098,40	120,00
3102,31	244,00
3106,22	132,00
3110,12	110,00
3114,02	159,00
3117,92	77,00
3121,81	150,00
3125,70	167,00
3129,58	171,00
3133,47	22,00
3137,34	79,00
3141,22	128,00
3145,09	173,00
3148,96	179,00
3152,83	85,00
3156,69	54,00
3160,55	217,00
3164,40	-18,00
3168,26	60,00
3172,10	283,00
3175,95	199,00
3179,79	107,00
3183,63	74,00
3187,47	182,00
3191,30	260,00
3195,13	143,00
3198,95	140,00
3202,78	154,00
3206,60	129,00
3210,41	99,00
3214,23	139,00
3218,03	59,00
3221,84	204,00
3225,64	-4,00
3229,44	142,00
3233,24	300,00
3237,03	146,00
3240,82	131,00
3244,61	30,00
3248,39	102,00
3252,17	161,00
3255,95	190,00
3259,72	149,00
3263,49	108,00
3267,26	77,00
3271,03	76,00
3274,79	128,00
3278,54	219,00
3282,30	141,00
3286,05	129,00
3289,80	49,00
3293,54	20,00
3297,29	159,00
3301,02	84,00
3304,76	205,00
3308,49	178,00
3312,22	27,00
3315,95	88,00
3319,67	79,00
3323,39	49,00
3327,10	111,00
3330,82	191,00
3334,53	191,00
3338,24	83,00
3341,94	94,00
3345,64	177,00
3349,34	85,00
3353,03	181,00
3356,72	138,00
3360,41	29,00
3364,10	87,00
3367,78	99,00
3371,46	168,00
3375,13	61,00
3378,81	135,00
3382,48	78,00
3386,14	80,00
3389,81	-18,00
3393,47	85,00
3397,12	113,00
3400,78	95,00
3404,43	76,00
3408,08	76,00
3411,72	126,00
3415,36	70,00
3419,00	56,00
3422,64	-18,00
3426,27	167,00
3429,90	104,00
3433,53	41,00
3437,15	134,00
3440,77	91,00
3444,39	96,00
3448,00	44,00
3451,62	174,00
3455,22	151,00
3458,83	75,00
3462,43	56,00
3466,03	71,00
3469,63	-37,00
3473,22	134,00
3476,81	104,00
3480,40	58,00
3483,99	155,00
3487,57	236,00
3491,15	72,00
3494,72	164,00
3498,29	179,00
3501,86	120,00
3505,43	85,00
3508,99	43,00
3512,56	89,00
3516,11	79,00
3519,67	124,00
3523,22	161,00
3526,77	125,00
3530,32	144,00
3533,86	-27,00
3537,40	159,00
3540,94	197,00
3544,47	0,00
3548,00	142,00
3551,53	69,00
3555,06	174,00
3558,58	102,00
3562,10	9,00
3565,62	151,00
3569,13	112,00
3572,64	176,00
3576,15	143,00
3579,66	138,00
3583,16	193,00
3586,66	24,00
3590,16	34,00
3593,65	189,00
3597,14	51,00
3600,63	114,00
3604,11	149,00
3607,60	49,00
3611,08	147,00
3614,55	-22,00
3618,03	56,00
3621,50	8,00
3624,97	210,00
3628,43	-27,00
3631,90	18,00
3635,36	233,00
3638,81	37,00
3642,27	4,00
3645,72	137,00
3649,17	136,00
3652,61	94,00
3656,06	-12,00
3659,50	193,00
3662,93	98,00
3666,37	-41,00
3669,80	-34,00
3673,23	100,00
3676,65	192,00
3680,08	-16,00
3683,50	83,00
3686,92	5,00
3690,33	115,00
3693,74	167,00
3697,15	53,00
3700,56	117,00
3703,96	30,00
3707,36	-79,00
3710,76	66,00
3714,16	80,00
3717,55	36,00
3720,94	29,00
3724,33	89,00
3727,71	14,00
3731,10	56,00
3734,48	90,00
3737,85	24,00
3741,23	-40,00
3744,60	-22,00
3747,97	-56,00
3751,33	195,00
3754,69	97,00
3758,05	84,00
3761,41	-18,00
3764,77	42,00
3768,12	-36,00
3771,47	90,00
3774,82	-64,00
3778,16	1,00
3781,50	2,00
3784,84	7,00
3788,18	9,00
>>>>>End Processed Spectral Data<<<<<
