SpectraSuite Data File
++++++++++++++++++++++++++++++++++++
Date: Mon Mar 09 16:24:42 ICT 2026
User: Administrator
Dark Spectrum Present: Yes
Reference Spectrum Present: No
Number of Sampled Component Spectra: 1
Spectrometers: MAYP113682
Integration Time (usec): 3000000 (MAYP113682)
Spectra Averaged: 1 (MAYP113682)
Boxcar Smoothing: 0 (MAYP113682)
Correct for Electrical Dark: No (MAYP113682)
Strobe/Lamp Enabled: No (MAYP113682)
Correct for Detector Non-linearity: No (MAYP113682)
Correct for Stray Light: No (MAYP113682)
Number of Pixels in Processed Spectrum: 2068
>>>>>Begin Processed Spectral Data<<<<<
-37534,58	-8,00
-37414,56	2,00
-37295,11	-11,00
-37176,24	1,00
-37057,95	10,00
-36940,22	22,00
-36823,05	146,00
-36706,45	93,00
-36590,40	76,00
-36474,90	178,00
-36359,95	77,00
-36245,55	108,00
-36131,68	117,00
-36018,35	91,00
-35905,55	16,00
-35793,29	-36,00
-35681,54	86,00
-35570,32	122,00
-35459,62	28,00
-35349,43	92,00
-35239,75	96,00
-35130,58	112,00
-35021,91	-10,00
-34913,74	44,00
-34806,07	142,00
-34698,89	60,00
-34592,20	36,00
-34486,00	172,00
-34380,28	127,00
-34275,04	116,00
-34170,27	27,00
-34065,98	42,00
-33962,16	37,00
-33858,81	122,00
-33755,92	225,00
-33653,49	163,00
-33551,52	148,00
-33450,01	167,00
-33348,94	16,00
-33248,33	-79,00
-33148,16	-31,00
-33048,43	120,00
-32949,14	0,00
-32850,29	105,00
-32751,87	22,00
-32653,89	121,00
-32556,33	24,00
-32459,20	185,00
-32362,49	144,00
-32266,19	133,00
-32170,32	85,00
-32074,86	-1,00
-31979,82	85,00
-31885,18	53,00
-31790,95	53,00
-31697,12	63,00
-31603,69	246,00
-31510,67	98,00
-31418,04	150,00
-31325,80	71,00
-31233,95	162,00
-31142,49	143,00
-31051,42	34,00
-30960,73	12,00
-30870,43	58,00
-30780,50	-18,00
-30690,95	-11,00
-30601,77	198,00
-30512,97	236,00
-30424,53	40,00
-30336,46	53,00
-30248,76	137,00
-30161,42	103,00
-30074,44	177,00
-29987,81	138,00
-29901,55	-11,00
-29815,63	68,00
-29730,07	104,00
-29644,86	80,00
-29560,00	37,00
-29475,48	173,00
-29391,30	65,00
-29307,47	58,00
-29223,97	11,00
-29140,81	80,00
-29057,99	20,00
-28975,50	59,00
-28893,34	171,00
-28811,51	41,00
-28730,00	40,00
-28648,82	81,00
-28567,97	-78,00
-28487,43	3,00
-28407,21	67,00
-28327,32	222,00
-28247,73	163,00
-28168,46	164,00
-28089,50	130,00
-28010,85	38,00
-27932,51	123,00
-27854,48	116,00
-27776,75	93,00
-27699,32	43,00
-27622,19	68,00
-27545,37	92,00
-27468,84	181,00
-27392,60	74,00
-27316,66	1,00
-27241,01	81,00
-27165,66	65,00
-27090,59	57,00
-27015,81	93,00
-26941,31	100,00
-26867,10	150,00
-26793,17	2,00
-26719,52	136,00
-26646,15	59,00
-26573,06	16,00
-26500,24	97,00
-26427,70	69,00
-26355,43	-24,00
-26283,43	94,00
-26211,71	21,00
-26140,25	128,00
-26069,06	94,00
-25998,13	102,00
-25927,46	87,00
-25857,06	158,00
-25786,92	76,00
-25717,04	197,00
-25647,42	139,00
-25578,05	52,00
-25508,94	182,00
-25440,09	9,00
-25371,48	195,00
-25303,13	174,00
-25235,02	91,00
-25167,17	88,00
-25099,56	50,00
-25032,19	77,00
-24965,07	41,00
-24898,20	43,00
-24831,56	-20,00
-24765,17	72,00
-24699,01	73,00
-24633,10	-49,00
-24567,41	116,00
-24501,97	69,00
-24436,75	-42,00
-24371,77	112,00
-24307,03	26,00
-24242,51	55,00
-24178,22	-53,00
-24114,16	88,00
-24050,32	129,00
-23986,71	150,00
-23923,32	65,00
-23860,16	31,00
-23797,22	153,00
-23734,50	70,00
-23672,00	-52,00
-23609,71	77,00
-23547,65	86,00
-23485,80	36,00
-23424,16	62,00
-23362,74	99,00
-23301,53	15,00
-23240,54	-6,00
-23179,75	134,00
-23119,17	61,00
-23058,80	139,00
-22998,64	109,00
-22938,68	161,00
-22878,93	153,00
-22819,39	148,00
-22760,04	45,00
-22700,90	-78,00
-22641,96	82,00
-22583,22	59,00
-22524,68	164,00
-22466,33	137,00
-22408,19	-17,00
-22350,23	37,00
-22292,48	135,00
-22234,92	65,00
-22177,55	134,00
-22120,37	103,00
-22063,38	156,00
-22006,58	108,00
-21949,98	42,00
-21893,56	104,00
-21837,33	15,00
-21781,28	84,00
-21725,42	140,00
-21669,74	73,00
-21614,25	18,00
-21558,94	156,00
-21503,81	87,00
-21448,86	-83,00
-21394,10	62,00
-21339,51	182,00
-21285,10	128,00
-21230,86	69,00
-21176,81	78,00
-21122,93	47,00
-21069,22	126,00
-21015,69	182,00
-20962,33	149,00
-20909,14	85,00
-20856,13	40,00
-20803,28	-41,00
-20750,61	80,00
-20698,10	32,00
-20645,76	37,00
-20593,59	81,00
-20541,59	154,00
-20489,75	60,00
-20438,07	85,00
-20386,56	12,00
-20335,22	191,00
-20284,03	63,00
-20233,01	28,00
-20182,15	53,00
-20131,45	-10,00
-20080,91	10,00
-20030,52	63,00
-19980,30	90,00
-19930,23	67,00
-19880,32	96,00
-19830,56	82,00
-19780,96	125,00
-19731,52	132,00
-19682,23	62,00
-19633,09	77,00
-19584,10	24,00
-19535,26	68,00
-19486,58	150,00
-19438,04	83,00
-19389,66	36,00
-19341,42	-14,00
-19293,33	94,00
-19245,39	92,00
-19197,60	222,00
-19149,95	18,00
-19102,45	123,00
-19055,09	148,00
-19007,87	185,00
-18960,80	195,00
-18913,87	34,00
-18867,09	-6,00
-18820,44	-19,00
-18773,94	203,00
-18727,57	49,00
-18681,35	121,00
-18635,26	37,00
-18589,31	104,00
-18543,50	5,00
-18497,83	10,00
-18452,29	101,00
-18406,89	23,00
-18361,63	190,00
-18316,50	85,00
-18271,50	222,00
-18226,63	137,00
-18181,90	149,00
-18137,30	167,00
-18092,84	-16,00
-18048,50	163,00
-18004,29	28,00
-17960,22	114,00
-17916,27	198,00
-17872,45	65,00
-17828,76	196,00
-17785,20	51,00
-17741,77	158,00
-17698,46	179,00
-17655,28	109,00
-17612,22	45,00
-17569,29	165,00
-17526,48	115,00
-17483,79	126,00
-17441,23	-32,00
-17398,79	81,00
-17356,48	135,00
-17314,28	86,00
-17272,21	55,00
-17230,26	104,00
-17188,42	163,00
-17146,71	66,00
-17105,12	105,00
-17063,64	-10,00
-17022,28	151,00
-16981,04	235,00
-16939,92	26,00
-16898,91	62,00
-16858,02	129,00
-16817,25	77,00
-16776,59	72,00
-16736,04	-12,00
-16695,61	-11,00
-16655,29	11,00
-16615,09	144,00
-16574,99	94,00
-16535,01	65,00
-16495,15	171,00
-16455,39	45,00
-16415,74	164,00
-16376,21	158,00
-16336,78	37,00
-16297,46	28,00
-16258,26	3,00
-16219,16	135,00
-16180,17	116,00
-16141,28	12,00
-16102,51	65,00
-16063,84	1,00
-16025,27	39,00
-15986,82	168,00
-15948,46	-67,00
-15910,22	115,00
-15872,07	118,00
-15834,04	165,00
-15796,10	71,00
-15758,27	144,00
-15720,54	76,00
-15682,91	52,00
-15645,39	54,00
-15607,97	44,00
-15570,64	146,00
-15533,42	53,00
-15496,30	222,00
-15459,28	173,00
-15422,36	36,00
-15385,54	43,00
-15348,82	-41,00
-15312,19	36,00
-15275,66	89,00
-15239,23	136,00
-15202,90	133,00
-15166,67	97,00
-15130,53	150,00
-15094,48	91,00
-15058,54	-5,00
-15022,68	128,00
-14986,93	86,00
-14951,26	-19,00
-14915,69	94,00
-14880,22	18,00
-14844,84	27,00
-14809,55	90,00
-14774,35	114,00
-14739,25	188,00
-14704,24	39,00
-14669,32	-34,00
-14634,49	180,00
-14599,75	50,00
-14565,10	70,00
-14530,55	66,00
-14496,08	116,00
-14461,70	94,00
-14427,41	35,00
-14393,21	61,00
-14359,10	113,00
-14325,07	-7,00
-14291,14	100,00
-14257,29	30,00
-14223,52	111,00
-14189,85	137,00
-14156,26	104,00
-14122,76	124,00
-14089,34	180,00
-14056,01	142,00
-14022,76	209,00
-13989,60	-39,00
-13956,52	38,00
-13923,53	-20,00
-13890,62	119,00
-13857,79	10,00
-13825,05	103,00
-13792,39	-9,00
-13759,81	49,00
-13727,31	50,00
-13694,90	38,00
-13662,57	99,00
-13630,31	21,00
-13598,14	36,00
-13566,05	110,00
-13534,05	120,00
-13502,12	101,00
-13470,27	68,00
-13438,50	93,00
-13406,80	-8,00
-13375,19	67,00
-13343,66	46,00
-13312,20	124,00
-13280,83	58,00
-13249,53	99,00
-13218,30	31,00
-13187,16	108,00
-13156,09	96,00
-13125,10	56,00
-13094,18	149,00
-13063,34	193,00
-13032,58	22,00
-13001,89	57,00
-12971,28	10,00
-12940,74	102,00
-12910,27	45,00
-12879,88	145,00
-12849,57	114,00
-12819,33	135,00
-12789,16	26,00
-12759,06	96,00
-12729,04	147,00
-12699,09	200,00
-12669,21	14,00
-12639,41	33,00
-12609,68	105,00
-12580,02	-40,00
-12550,43	68,00
-12520,91	109,00
-12491,46	90,00
-12462,08	59,00
-12432,77	-40,00
-12403,54	33,00
-12374,37	155,00
-12345,27	7,00
-12316,24	91,00
-12287,29	139,00
-12258,40	113,00
-12229,57	64,00
-12200,82	70,00
-12172,14	16,00
-12143,52	143,00
-12114,97	159,00
-12086,49	79,00
-12058,07	48,00
-12029,73	111,00
-12001,44	42,00
-11973,23	80,00
-11945,08	25,00
-11917,00	221,00
-11888,98	137,00
-11861,03	107,00
-11833,15	143,00
-11805,32	80,00
-11777,57	80,00
-11749,88	107,00
-11722,25	83,00
-11694,69	105,00
-11667,19	136,00
-11639,75	130,00
-11612,38	40,00
-11585,07	143,00
-11557,83	132,00
-11530,65	129,00
-11503,53	37,00
-11476,47	166,00
-11449,48	120,00
-11422,54	71,00
-11395,67	-17,00
-11368,86	134,00
-11342,11	136,00
-11315,43	94,00
-11288,80	42,00
-11262,23	179,00
-11235,73	12,00
-11209,28	2,00
-11182,90	164,00
-11156,57	156,00
-11130,31	139,00
-11104,10	-79,00
-11077,96	87,00
-11051,87	49,00
-11025,84	64,00
-10999,87	91,00
-10973,96	131,00
-10948,11	-47,00
-10922,31	44,00
-10896,58	82,00
-10870,90	35,00
-10845,28	109,00
-10819,71	96,00
-10794,20	161,00
-10768,75	45,00
-10743,36	-31,00
-10718,02	158,00
-10692,74	165,00
-10667,52	118,00
-10642,35	80,00
-10617,24	41,00
-10592,18	126,00
-10567,18	189,00
-10542,23	189,00
-10517,34	221,00
-10492,51	11,00
-10467,72	229,00
-10443,00	162,00
-10418,32	185,00
-10393,70	82,00
-10369,14	149,00
-10344,63	106,00
-10320,17	262,00
-10295,77	169,00
-10271,42	179,00
-10247,12	156,00
-10222,88	116,00
-10198,68	266,00
-10174,54	152,00
-10150,46	47,00
-10126,42	183,00
-10102,44	139,00
-10078,51	191,00
-10054,63	140,00
-10030,80	206,00
-10007,03	247,00
-9983,30	244,00
-9959,63	121,00
-9936,01	381,00
-9912,44	223,00
-9888,92	162,00
-9865,44	179,00
-9842,02	170,00
-9818,65	322,00
-9795,33	292,00
-9772,06	304,00
-9748,84	238,00
-9725,67	229,00
-9702,55	298,00
-9679,47	305,00
-9656,45	505,00
-9633,47	450,00
-9610,55	536,00
-9587,67	441,00
-9564,84	567,00
-9542,06	504,00
-9519,32	560,00
-9496,64	718,00
-9474,00	726,00
-9451,41	636,00
-9428,87	629,00
-9406,37	708,00
-9383,92	679,00
-9361,52	701,00
-9339,17	487,00
-9316,86	770,00
-9294,60	885,00
-9272,38	981,00
-9250,21	1037,00
-9228,09	1127,00
-9206,01	998,00
-9183,98	972,00
-9162,00	940,00
-9140,06	779,00
-9118,16	873,00
-9096,31	894,00
-9074,51	1043,00
-9052,75	1026,00
-9031,04	1028,00
-9009,37	835,00
-8987,74	725,00
-8966,16	676,00
-8944,63	394,00
-8923,14	523,00
-8901,69	548,00
-8880,29	793,00
-8858,93	816,00
-8837,61	900,00
-8816,34	985,00
-8795,11	875,00
-8773,92	850,00
-8752,78	681,00
-8731,68	751,00
-8710,62	630,00
-8689,61	790,00
-8668,63	874,00
-8647,70	866,00
-8626,82	809,00
-8605,97	920,00
-8585,17	771,00
-8564,41	715,00
-8543,69	692,00
-8523,01	523,00
-8502,37	662,00
-8481,78	790,00
-8461,23	801,00
-8440,71	747,00
-8420,24	834,00
-8399,81	966,00
-8379,42	888,00
-8359,08	778,00
-8338,77	763,00
-8318,50	667,00
-8298,27	704,00
-8278,09	681,00
-8257,94	681,00
-8237,83	804,00
-8217,76	813,00
-8197,74	843,00
-8177,75	782,00
-8157,80	782,00
-8137,89	651,00
-8118,02	673,00
-8098,19	703,00
-8078,40	715,00
-8058,65	726,00
-8038,93	866,00
-8019,26	770,00
-7999,62	601,00
-7980,02	580,00
-7960,46	698,00
-7940,94	541,00
-7921,46	675,00
-7902,01	434,00
-7882,60	621,00
-7863,23	664,00
-7843,90	579,00
-7824,61	544,00
-7805,35	705,00
-7786,13	746,00
-7766,95	728,00
-7747,80	657,00
-7728,69	696,00
-7709,62	541,00
-7690,59	649,00
-7671,59	732,00
-7652,63	672,00
-7633,70	709,00
-7614,81	613,00
-7595,96	688,00
-7577,15	578,00
-7558,37	505,00
-7539,62	585,00
-7520,91	685,00
-7502,24	552,00
-7483,60	682,00
-7465,00	567,00
-7446,44	640,00
-7427,91	489,00
-7409,41	522,00
-7390,95	469,00
-7372,53	444,00
-7354,14	349,00
-7335,78	299,00
-7317,46	456,00
-7299,18	496,00
-7280,92	576,00
-7262,71	602,00
-7244,52	653,00
-7226,38	705,00
-7208,26	686,00
-7190,18	624,00
-7172,14	652,00
-7154,12	468,00
-7136,15	476,00
-7118,20	742,00
-7100,29	646,00
-7082,41	672,00
-7064,57	658,00
-7046,76	488,00
-7028,98	456,00
-7011,24	448,00
-6993,53	361,00
-6975,85	395,00
-6958,20	317,00
-6940,59	293,00
-6923,01	374,00
-6905,46	313,00
-6887,94	588,00
-6870,46	-2245,00
-6853,01	640,00
-6835,59	604,00
-6818,21	508,00
-6800,85	491,00
-6783,53	277,00
-6766,24	176,00
-6748,98	124,00
-6731,76	143,00
-6714,56	128,00
-6697,40	303,00
-6680,26	265,00
-6663,16	251,00
-6646,09	266,00
-6629,05	409,00
-6612,05	413,00
-6595,07	535,00
-6578,13	435,00
-6561,21	243,00
-6544,33	343,00
-6527,47	268,00
-6510,65	69,00
-6493,86	184,00
-6477,10	220,00
-6460,36	196,00
-6443,66	212,00
-6426,99	283,00
-6410,35	198,00
-6393,74	231,00
-6377,16	340,00
-6360,61	326,00
-6344,09	257,00
-6327,59	244,00
-6311,13	254,00
-6294,70	286,00
-6278,29	532,00
-6261,92	512,00
-6245,58	494,00
-6229,26	469,00
-6212,97	465,00
-6196,72	293,00
-6180,49	177,00
-6164,29	178,00
-6148,12	82,00
-6131,98	58,00
-6115,86	110,00
-6099,78	91,00
-6083,72	149,00
-6067,69	36,00
-6051,69	104,00
-6035,72	131,00
-6019,78	168,00
-6003,87	97,00
-5987,98	249,00
-5972,12	440,00
-5956,29	386,00
-5940,49	353,00
-5924,71	253,00
-5908,96	101,00
-5893,24	91,00
-5877,55	245,00
-5861,89	247,00
-5846,25	39,00
-5830,64	134,00
-5815,05	170,00
-5799,50	144,00
-5783,97	244,00
-5768,47	110,00
-5752,99	159,00
-5737,55	303,00
-5722,12	354,00
-5706,73	399,00
-5691,36	335,00
-5676,02	221,00
-5660,71	173,00
-5645,42	169,00
-5630,16	178,00
-5614,92	188,00
-5599,71	201,00
-5584,53	155,00
-5569,37	284,00
-5554,24	1269,00
-5539,14	159,00
-5524,06	119,00
-5509,01	171,00
-5493,98	188,00
-5478,98	184,00
-5464,00	216,00
-5449,05	90,00
-5434,13	228,00
-5419,23	175,00
-5404,36	133,00
-5389,51	141,00
-5374,69	402,00
-5359,89	316,00
-5345,12	386,00
-5330,37	455,00
-5315,65	292,00
-5300,95	254,00
-5286,28	205,00
-5271,63	289,00
-5257,01	138,00
-5242,41	210,00
-5227,84	91,00
-5213,29	63,00
-5198,76	76,00
-5184,26	66,00
-5169,79	144,00
-5155,33	253,00
-5140,91	251,00
-5126,51	253,00
-5112,13	265,00
-5097,77	211,00
-5083,44	19,00
-5069,13	55,00
-5054,85	113,00
-5040,59	211,00
-5026,36	158,00
-5012,15	171,00
-4997,96	170,00
-4983,80	150,00
-4969,66	82,00
-4955,54	203,00
-4941,44	231,00
-4927,37	197,00
-4913,33	265,00
-4899,30	363,00
-4885,30	423,00
-4871,33	359,00
-4857,37	173,00
-4843,44	281,00
-4829,53	201,00
-4815,65	179,00
-4801,79	175,00
-4787,95	135,00
-4774,13	231,00
-4760,34	157,00
-4746,56	72,00
-4732,82	73,00
-4719,09	192,00
-4705,38	274,00
-4691,70	283,00
-4678,04	394,00
-4664,41	220,00
-4650,79	79,00
-4637,20	185,00
-4623,63	91,00
-4610,08	115,00
-4596,56	110,00
-4583,05	267,00
-4569,57	200,00
-4556,11	265,00
-4542,67	175,00
-4529,25	197,00
-4515,86	100,00
-4502,49	290,00
-4489,13	303,00
-4475,80	278,00
-4462,49	182,00
-4449,21	200,00
-4435,94	161,00
-4422,70	158,00
-4409,47	182,00
-4396,27	242,00
-4383,09	160,00
-4369,93	57,00
-4356,79	114,00
-4343,67	103,00
-4330,58	32,00
-4317,50	210,00
-4304,45	134,00
-4291,41	119,00
-4278,40	15,00
-4265,41	143,00
-4252,44	202,00
-4239,49	212,00
-4226,55	116,00
-4213,65	214,00
-4200,76	79,00
-4187,89	83,00
-4175,04	48,00
-4162,21	165,00
-4149,40	191,00
-4136,61	154,00
-4123,85	93,00
-4111,10	95,00
-4098,37	100,00
-4085,66	185,00
-4072,98	281,00
-4060,31	85,00
-4047,66	159,00
-4035,04	128,00
-4022,43	124,00
-4009,84	129,00
-3997,27	62,00
-3984,72	147,00
-3972,19	3,00
-3959,69	-35,00
-3947,20	118,00
-3934,73	-10,00
-3922,27	43,00
-3909,84	97,00
-3897,43	213,00
-3885,04	18,00
-3872,67	8,00
-3860,31	53,00
-3847,98	69,00
-3835,66	15,00
-3823,36	78,00
-3811,09	136,00
-3798,83	168,00
-3786,59	97,00
-3774,37	86,00
-3762,17	117,00
-3749,98	121,00
-3737,82	78,00
-3725,67	83,00
-3713,55	19,00
-3701,44	184,00
-3689,35	57,00
-3677,28	9,00
-3665,22	-35,00
-3653,19	84,00
-3641,17	102,00
-3629,18	184,00
-3617,20	90,00
-3605,24	160,00
-3593,30	-39,00
-3581,37	19,00
-3569,47	72,00
-3557,58	62,00
-3545,71	180,00
-3533,86	110,00
-3522,02	53,00
-3510,21	82,00
-3498,41	150,00
-3486,63	193,00
-3474,87	116,00
-3463,12	165,00
-3451,40	138,00
-3439,69	190,00
-3428,00	135,00
-3416,33	45,00
-3404,67	48,00
-3393,03	174,00
-3381,41	101,00
-3369,81	-5,00
-3358,22	147,00
-3346,66	158,00
-3335,10	88,00
-3323,57	101,00
-3312,06	159,00
-3300,56	-1,00
-3289,08	128,00
-3277,61	31,00
-3266,16	89,00
-3254,73	223,00
-3243,32	94,00
-3231,92	54,00
-3220,55	80,00
-3209,18	64,00
-3197,84	128,00
-3186,51	77,00
-3175,20	83,00
-3163,90	24,00
-3152,63	94,00
-3141,36	111,00
-3130,12	135,00
-3118,89	58,00
-3107,68	90,00
-3096,49	-3,00
-3085,31	21,00
-3074,15	-9,00
-3063,00	21,00
-3051,87	129,00
-3040,76	57,00
-3029,67	151,00
-3018,59	-36,00
-3007,52	75,00
-2996,48	67,00
-2985,44	162,00
-2974,43	74,00
-2963,43	64,00
-2952,45	29,00
-2941,48	119,00
-2930,53	-29,00
-2919,60	75,00
-2908,68	133,00
-2897,78	195,00
-2886,89	149,00
-2876,02	83,00
-2865,17	187,00
-2854,33	44,00
-2843,50	122,00
-2832,70	115,00
-2821,90	74,00
-2811,13	99,00
-2800,37	58,00
-2789,62	63,00
-2778,89	120,00
-2768,18	69,00
-2757,48	84,00
-2746,80	80,00
-2736,13	64,00
-2725,48	166,00
-2714,84	-28,00
-2704,22	116,00
-2693,61	9,00
-2683,02	-21,00
-2672,45	144,00
-2661,89	60,00
-2651,34	-32,00
-2640,81	117,00
-2630,30	119,00
-2619,80	174,00
-2609,31	-80,00
-2598,84	48,00
-2588,39	71,00
-2577,95	102,00
-2567,52	62,00
-2557,11	12,00
-2546,71	136,00
-2536,33	241,00
-2525,97	132,00
-2515,62	-45,00
-2505,28	144,00
-2494,96	37,00
-2484,65	31,00
-2474,36	343,00
-2464,08	123,00
-2453,82	111,00
-2443,57	248,00
-2433,33	119,00
-2423,11	184,00
-2412,91	50,00
-2402,72	111,00
-2392,54	175,00
-2382,38	29,00
-2372,23	47,00
-2362,09	-4224,00
-2351,97	180,00
-2341,87	71,00
-2331,78	103,00
-2321,70	-53,00
-2311,64	123,00
-2301,59	119,00
-2291,55	79,00
-2281,53	-11,00
-2271,53	17,00
-2261,53	192,00
-2251,55	59,00
-2241,59	67,00
-2231,64	49,00
-2221,70	86,00
-2211,78	85,00
-2201,87	122,00
-2191,97	12,00
-2182,09	13,00
-2172,22	138,00
-2162,37	28,00
-2152,53	150,00
-2142,70	94,00
-2132,89	41,00
-2123,09	69,00
-2113,30	145,00
-2103,53	197,00
-2093,77	86,00
-2084,02	126,00
-2074,29	103,00
-2064,57	55,00
-2054,86	26,00
-2045,17	5,00
-2035,49	38,00
-2025,82	45,00
-2016,17	50,00
-2006,53	104,00
-1996,91	78,00
-1987,29	132,00
-1977,69	151,00
-1968,11	70,00
-1958,53	12,00
-1948,97	156,00
-1939,42	113,00
-1929,89	-7,00
-1920,37	204,00
-1910,86	107,00
-1901,36	123,00
-1891,88	162,00
-1882,41	-3,00
-1872,95	189,00
-1863,51	65,00
-1854,08	-2,00
-1844,66	109,00
-1835,26	87,00
-1825,86	204,00
-1816,48	62,00
-1807,11	52,00
-1797,76	179,00
-1788,42	25,00
-1779,09	11,00
-1769,77	31,00
-1760,47	51,00
-1751,17	123,00
-1741,89	88,00
-1732,63	222,00
-1723,37	273,00
-1714,13	32,00
-1704,90	44,00
-1695,68	122,00
-1686,48	95,00
-1677,29	143,00
-1668,11	132,00
-1658,94	106,00
-1649,78	50,00
-1640,64	248,00
-1631,51	137,00
-1622,39	105,00
-1613,28	154,00
-1604,19	60,00
-1595,10	51,00
-1586,03	141,00
-1576,97	60,00
-1567,93	99,00
-1558,89	0,00
-1549,87	-3,00
-1540,86	118,00
-1531,86	82,00
-1522,87	103,00
-1513,90	256,00
-1504,93	15,00
-1495,98	135,00
-1487,04	204,00
-1478,12	88,00
-1469,20	-56,00
-1460,30	39,00
-1451,40	74,00
-1442,52	240,00
-1433,65	171,00
-1424,80	171,00
-1415,95	110,00
-1407,12	30,00
-1398,30	168,00
-1389,48	30,00
-1380,69	223,00
-1371,90	32,00
-1363,12	207,00
-1354,36	44,00
-1345,60	149,00
-1336,86	-12,00
-1328,13	125,00
-1319,41	39,00
-1310,70	190,00
-1302,01	45,00
-1293,32	16,00
-1284,65	159,00
-1275,99	29,00
-1267,33	40,00
-1258,69	156,00
-1250,06	98,00
-1241,45	44,00
-1232,84	82,00
-1224,25	66,00
-1215,66	21,00
-1207,09	69,00
-1198,53	102,00
-1189,97	256,00
-1181,43	-7,00
-1172,91	94,00
-1164,39	29,00
-1155,88	191,00
-1147,38	27,00
-1138,90	67,00
-1130,43	19,00
-1121,96	192,00
-1113,51	121,00
-1105,07	38,00
-1096,64	4,00
-1088,22	48,00
-1079,81	136,00
-1071,41	66,00
-1063,02	90,00
-1054,65	100,00
-1046,28	124,00
-1037,92	23,00
-1029,58	111,00
-1021,24	177,00
-1012,92	255,00
-1004,61	1,00
-996,30	196,00
-988,01	6,00
-979,73	75,00
-971,46	172,00
-963,20	-48,00
-954,95	45,00
-946,71	40,00
-938,48	51,00
-930,26	94,00
-922,06	-42,00
-913,86	30,00
-905,67	66,00
-897,49	34,00
-889,33	88,00
-881,17	113,00
-873,02	-69,00
-864,89	99,00
-856,76	225,00
-848,65	194,00
-840,54	134,00
-832,45	94,00
-824,36	101,00
-816,29	58,00
-808,22	92,00
-800,17	-32,00
-792,12	137,00
-784,09	203,00
-776,06	96,00
-768,05	252,00
-760,04	78,00
-752,05	156,00
-744,07	35,00
-736,09	55,00
-728,13	114,00
-720,17	8,00
-712,23	34,00
-704,29	137,00
-696,37	120,00
-688,45	138,00
-680,55	-12,00
-672,65	214,00
-664,77	201,00
-656,89	-5,00
-649,03	164,00
-641,17	142,00
-633,32	14,00
-625,49	160,00
-617,66	98,00
-609,84	20,00
-602,03	144,00
-594,23	88,00
-586,45	137,00
-578,67	38,00
-570,90	34,00
-563,14	81,00
-555,39	11,00
-547,65	93,00
-539,91	130,00
-532,19	120,00
-524,48	75,00
-516,78	132,00
-509,08	165,00
-501,40	90,00
-493,72	62,00
-486,06	121,00
-478,40	67,00
-470,76	169,00
-463,12	226,00
-455,49	52,00
-447,87	78,00
-440,26	163,00
-432,66	-65,00
-425,07	16,00
-417,49	127,00
-409,92	104,00
-402,35	213,00
-394,80	106,00
-387,25	104,00
-379,72	77,00
-372,19	108,00
-364,67	270,00
-357,17	163,00
-349,67	59,00
-342,18	161,00
-334,69	86,00
-327,22	-10,00
-319,76	39,00
-312,30	144,00
-304,86	208,00
-297,42	76,00
-290,00	138,00
-282,58	168,00
-275,17	163,00
-267,77	194,00
-260,37	272,00
-252,99	192,00
-245,62	67,00
-238,25	122,00
-230,90	65,00
-223,55	40,00
-216,21	170,00
-208,88	151,00
-201,56	241,00
-194,25	167,00
-186,94	228,00
-179,65	162,00
-172,36	260,00
-165,08	430,00
-157,81	174,00
-150,55	316,00
-143,30	378,00
-136,06	323,00
-128,82	453,00
-121,60	400,00
-114,38	509,00
-107,17	532,00
-99,97	724,00
-92,78	558,00
-85,60	640,00
-78,42	1005,00
-71,25	947,00
-64,10	1113,00
-56,95	1316,00
-49,81	1559,00
-42,67	1889,00
-35,55	2372,00
-28,43	3053,00
-21,33	5150,00
-14,23	16933,00
-7,14	55164,00
-0,05	54791,00
7,02	54542,00
14,09	54846,00
21,14	15173,00
28,19	6309,00
35,23	4066,00
42,27	3012,00
49,29	2508,00
56,31	2090,00
63,32	1747,00
70,32	1414,00
77,31	1335,00
84,29	1072,00
91,27	1043,00
98,23	900,00
105,19	860,00
112,14	1039,00
119,09	1299,00
126,02	2039,00
132,95	2252,00
139,87	2488,00
146,78	2357,00
153,68	2223,00
160,58	2205,00
167,46	2209,00
174,34	2125,00
181,21	2364,00
188,08	2203,00
194,93	2059,00
201,78	2062,00
208,62	2099,00
215,45	2171,00
222,27	2149,00
229,09	2155,00
235,90	1993,00
242,70	2066,00
249,49	2105,00
256,27	2054,00
263,05	1914,00
269,82	2044,00
276,58	2010,00
283,33	1963,00
290,08	2083,00
296,82	1937,00
303,55	2017,00
310,27	1818,00
316,98	1868,00
323,69	1895,00
330,39	1819,00
337,08	1757,00
343,76	1801,00
350,44	1861,00
357,11	1799,00
363,77	1832,00
370,42	1793,00
377,07	1818,00
383,71	1902,00
390,34	1770,00
396,96	1753,00
403,58	1706,00
410,19	1747,00
416,79	1762,00
423,38	1768,00
429,97	1638,00
436,55	1677,00
443,12	1602,00
449,68	1691,00
456,24	1621,00
462,79	1383,00
469,33	1568,00
475,86	1432,00
482,39	1469,00
488,91	1523,00
495,42	1521,00
501,93	1610,00
508,42	1554,00
514,91	1630,00
521,40	1486,00
527,87	1514,00
534,34	1350,00
540,80	1521,00
547,25	1369,00
553,70	1458,00
560,14	1495,00
566,57	1620,00
573,00	1433,00
579,41	1455,00
585,83	1327,00
592,23	1285,00
598,62	1393,00
605,01	1411,00
611,40	1446,00
617,77	1460,00
624,14	1364,00
630,50	1377,00
636,85	1362,00
643,20	1332,00
649,54	1434,00
655,87	1262,00
662,20	1244,00
668,52	1234,00
674,83	1320,00
681,13	1251,00
687,43	1079,00
693,72	1242,00
700,00	1306,00
706,28	1254,00
712,55	1247,00
718,81	1376,00
725,07	1250,00
731,32	1227,00
737,56	1264,00
743,79	1289,00
750,02	1245,00
756,24	1210,00
762,46	1221,00
768,67	1195,00
774,87	1165,00
781,06	1191,00
787,25	1231,00
793,43	1239,00
799,60	1244,00
805,77	949,00
811,93	1269,00
818,08	1283,00
824,23	1235,00
830,37	1096,00
836,50	1155,00
842,63	1141,00
848,75	1117,00
854,87	1148,00
860,97	1227,00
867,07	1272,00
873,17	1129,00
879,25	1225,00
885,33	1210,00
891,41	1186,00
897,47	1164,00
903,53	1224,00
909,59	1210,00
915,63	1161,00
921,67	1148,00
927,71	1005,00
933,74	1069,00
939,76	1035,00
945,77	1010,00
951,78	973,00
957,78	1046,00
963,78	975,00
969,77	1062,00
975,75	1049,00
981,72	1035,00
987,69	1318,00
993,66	1061,00
999,61	1085,00
1005,56	1112,00
1011,51	1191,00
1017,44	1093,00
1023,37	1156,00
1029,30	1068,00
1035,22	1155,00
1041,13	1179,00
1047,03	1044,00
1052,93	1206,00
1058,83	1382,00
1064,71	1397,00
1070,59	1446,00
1076,47	1252,00
1082,33	1281,00
1088,20	1090,00
1094,05	1030,00
1099,90	1008,00
1105,74	1027,00
1111,58	1128,00
1117,41	1047,00
1123,23	1318,00
1129,05	1350,00
1134,86	1336,00
1140,67	1128,00
1146,47	1260,00
1152,26	1073,00
1158,05	890,00
1163,83	1015,00
1169,60	1217,00
1175,37	964,00
1181,13	931,00
1186,89	1096,00
1192,64	889,00
1198,38	1058,00
1204,12	871,00
1209,85	887,00
1215,58	1000,00
1221,30	921,00
1227,02	1060,00
1232,72	1107,00
1238,43	1044,00
1244,12	967,00
1249,81	950,00
1255,50	1163,00
1261,17	982,00
1266,85	1060,00
1272,51	1084,00
1278,17	1042,00
1283,83	1174,00
1289,47	1483,00
1295,12	1639,00
1300,75	1579,00
1306,38	1336,00
1312,01	1214,00
1317,63	1172,00
1323,24	982,00
1328,85	1251,00
1334,45	1129,00
1340,04	993,00
1345,63	1061,00
1351,22	1068,00
1356,80	1084,00
1362,37	1015,00
1367,93	1051,00
1373,49	1159,00
1379,05	1072,00
1384,60	1174,00
1390,14	1116,00
1395,68	1046,00
1401,21	908,00
1406,74	1024,00
1412,26	1127,00
1417,77	1250,00
1423,28	1162,00
1428,78	1338,00
1434,28	1590,00
1439,77	1793,00
1445,26	1764,00
1450,74	1622,00
1456,22	1502,00
1461,68	1446,00
1467,15	1469,00
1472,61	1271,00
1478,06	1161,00
1483,51	1203,00
1488,95	993,00
1494,38	1017,00
1499,81	1067,00
1505,24	805,00
1510,65	879,00
1516,07	1028,00
1521,48	1048,00
1526,88	896,00
1532,27	856,00
1537,67	934,00
1543,05	903,00
1548,43	989,00
1553,81	1048,00
1559,18	929,00
1564,54	859,00
1569,90	897,00
1575,25	825,00
1580,60	920,00
1585,94	700,00
1591,28	873,00
1596,61	826,00
1601,93	710,00
1607,25	819,00
1612,57	947,00
1617,88	951,00
1623,18	859,00
1628,48	797,00
1633,77	732,00
1639,06	635,00
1644,34	752,00
1649,62	889,00
1654,89	928,00
1660,16	805,00
1665,42	703,00
1670,67	751,00
1675,92	778,00
1681,17	814,00
1686,41	796,00
1691,64	623,00
1696,87	698,00
1702,10	702,00
1707,32	758,00
1712,53	684,00
1717,74	793,00
1722,94	514,00
1728,14	766,00
1733,33	721,00
1738,52	690,00
1743,70	682,00
1748,88	694,00
1754,05	686,00
1759,22	744,00
1764,38	-858,00
1769,53	815,00
1774,69	699,00
1779,83	753,00
1784,97	643,00
1790,11	583,00
1795,24	665,00
1800,36	774,00
1805,48	694,00
1810,60	599,00
1815,71	575,00
1820,82	656,00
1825,92	609,00
1831,01	711,00
1836,10	453,00
1841,19	782,00
1846,26	678,00
1851,34	544,00
1856,41	590,00
1861,47	513,00
1866,53	589,00
1871,59	470,00
1876,64	467,00
1881,68	413,00
1886,72	614,00
1891,76	607,00
1896,79	546,00
1901,81	689,00
1906,83	570,00
1911,85	553,00
1916,86	621,00
1921,86	603,00
1926,86	529,00
1931,86	569,00
1936,85	503,00
1941,83	516,00
1946,81	576,00
1951,79	550,00
1956,76	497,00
1961,72	507,00
1966,68	614,00
1971,64	510,00
1976,59	506,00
1981,54	530,00
1986,48	483,00
1991,42	419,00
1996,35	517,00
2001,27	438,00
2006,20	430,00
2011,11	637,00
2016,03	510,00
2020,93	427,00
2025,84	468,00
2030,73	454,00
2035,63	523,00
2040,52	600,00
2045,40	452,00
2050,28	484,00
2055,15	382,00
2060,02	443,00
2064,89	472,00
2069,75	436,00
2074,60	393,00
2079,46	470,00
2084,30	370,00
2089,14	455,00
2093,98	450,00
2098,81	568,00
2103,64	458,00
2108,46	465,00
2113,28	397,00
2118,09	379,00
2122,90	469,00
2127,70	414,00
2132,50	462,00
2137,30	351,00
2142,09	415,00
2146,87	426,00
2151,66	434,00
2156,43	399,00
2161,20	445,00
2165,97	384,00
2170,73	458,00
2175,49	443,00
2180,24	376,00
2184,99	548,00
2189,74	396,00
2194,48	310,00
2199,21	539,00
2203,94	353,00
2208,67	349,00
2213,39	419,00
2218,11	359,00
2222,82	359,00
2227,53	336,00
2232,23	341,00
2236,93	410,00
2241,63	374,00
2246,32	480,00
2251,00	337,00
2255,68	365,00
2260,36	389,00
2265,03	375,00
2269,70	356,00
2274,36	262,00
2279,02	292,00
2283,68	251,00
2288,33	186,00
2292,97	293,00
2297,61	403,00
2302,25	369,00
2306,88	458,00
2311,51	335,00
2316,14	252,00
2320,75	359,00
2325,37	308,00
2329,98	454,00
2334,59	329,00
2339,19	265,00
2343,79	219,00
2348,38	328,00
2352,97	360,00
2357,55	213,00
2362,13	250,00
2366,71	449,00
2371,28	266,00
2375,85	360,00
2380,41	298,00
2384,97	265,00
2389,52	236,00
2394,07	319,00
2398,62	352,00
2403,16	317,00
2407,70	336,00
2412,23	449,00
2416,76	321,00
2421,29	358,00
2425,81	318,00
2430,32	255,00
2434,84	295,00
2439,34	371,00
2443,85	171,00
2448,35	263,00
2452,84	256,00
2457,33	218,00
2461,82	305,00
2466,30	258,00
2470,78	320,00
2475,25	248,00
2479,72	254,00
2484,19	265,00
2488,65	427,00
2493,11	172,00
2497,56	346,00
2502,01	264,00
2506,46	325,00
2510,90	222,00
2515,34	326,00
2519,77	265,00
2524,20	249,00
2528,62	257,00
2533,04	329,00
2537,46	179,00
2541,87	227,00
2546,28	227,00
2550,68	339,00
2555,08	254,00
2559,48	253,00
2563,87	244,00
2568,26	182,00
2572,64	243,00
2577,02	308,00
2581,40	354,00
2585,77	172,00
2590,14	294,00
2594,50	220,00
2598,86	324,00
2603,22	265,00
2607,57	255,00
2611,92	164,00
2616,26	153,00
2620,60	328,00
2624,94	252,00
2629,27	342,00
2633,60	148,00
2637,92	356,00
2642,24	180,00
2646,56	224,00
2650,87	203,00
2655,18	175,00
2659,48	268,00
2663,78	239,00
2668,08	282,00
2672,37	394,00
2676,66	254,00
2680,95	247,00
2685,23	187,00
2689,50	254,00
2693,78	258,00
2698,05	260,00
2702,31	255,00
2706,57	237,00
2710,83	241,00
2715,08	303,00
2719,33	393,00
2723,58	429,00
2727,82	430,00
2732,06	301,00
2736,29	342,00
2740,53	362,00
2744,75	301,00
2748,97	256,00
2753,19	348,00
2757,41	309,00
2761,62	315,00
2765,83	385,00
2770,03	263,00
2774,23	321,00
2778,43	397,00
2782,62	236,00
2786,81	283,00
2791,00	235,00
2795,18	324,00
2799,35	199,00
2803,53	365,00
2807,70	436,00
2811,86	370,00
2816,03	344,00
2820,19	463,00
2824,34	419,00
2828,49	634,00
2832,64	706,00
2836,78	645,00
2840,92	853,00
2845,06	975,00
2849,19	1039,00
2853,32	1053,00
2857,45	987,00
2861,57	1141,00
2865,69	1109,00
2869,80	1089,00
2873,91	1088,00
2878,02	1183,00
2882,12	1146,00
2886,22	1110,00
2890,32	1092,00
2894,41	1176,00
2898,50	952,00
2902,58	1067,00
2906,67	981,00
2910,74	731,00
2914,82	687,00
2918,89	711,00
2922,96	814,00
2927,02	611,00
2931,08	650,00
2935,13	567,00
2939,19	525,00
2943,24	482,00
2947,28	421,00
2951,32	309,00
2955,36	436,00
2959,40	385,00
2963,43	357,00
2967,46	318,00
2971,48	313,00
2975,50	258,00
2979,52	258,00
2983,53	313,00
2987,54	354,00
2991,55	234,00
2995,55	233,00
2999,55	206,00
3003,54	249,00
3007,54	183,00
3011,53	162,00
3015,51	198,00
3019,49	134,00
3023,47	279,00
3027,45	272,00
3031,42	194,00
3035,39	106,00
3039,35	326,00
3043,31	163,00
3047,27	145,00
3051,22	214,00
3055,17	129,00
3059,12	101,00
3063,06	95,00
3067,00	19,00
3070,94	139,00
3074,87	101,00
3078,80	210,00
3082,73	179,00
3086,65	57,00
3090,57	75,00
3094,49	104,00
3098,40	33,00
3102,31	235,00
3106,22	140,00
3110,12	75,00
3114,02	271,00
3117,92	62,00
3121,81	136,00
3125,70	165,00
3129,58	183,00
3133,47	208,00
3137,34	150,00
3141,22	150,00
3145,09	151,00
3148,96	168,00
3152,83	146,00
3156,69	150,00
3160,55	192,00
3164,40	21,00
3168,26	119,00
3172,10	214,00
3175,95	269,00
3179,79	203,00
3183,63	181,00
3187,47	261,00
3191,30	139,00
3195,13	160,00
3198,95	133,00
3202,78	39,00
3206,60	105,00
3210,41	33,00
3214,23	195,00
3218,03	180,00
3221,84	127,00
3225,64	141,00
3229,44	175,00
3233,24	258,00
3237,03	144,00
3240,82	91,00
3244,61	151,00
3248,39	84,00
3252,17	129,00
3255,95	218,00
3259,72	174,00
3263,49	103,00
3267,26	63,00
3271,03	119,00
3274,79	101,00
3278,54	266,00
3282,30	95,00
3286,05	158,00
3289,80	85,00
3293,54	102,00
3297,29	158,00
3301,02	34,00
3304,76	101,00
3308,49	118,00
3312,22	96,00
3315,95	110,00
3319,67	-20,00
3323,39	211,00
3327,10	78,00
3330,82	202,00
3334,53	101,00
3338,24	131,00
3341,94	158,00
3345,64	176,00
3349,34	37,00
3353,03	141,00
3356,72	169,00
3360,41	72,00
3364,10	172,00
3367,78	99,00
3371,46	121,00
3375,13	68,00
3378,81	79,00
3382,48	84,00
3386,14	236,00
3389,81	10,00
3393,47	101,00
3397,12	106,00
3400,78	148,00
3404,43	136,00
3408,08	94,00
3411,72	74,00
3415,36	32,00
3419,00	32,00
3422,64	-86,00
3426,27	190,00
3429,90	190,00
3433,53	38,00
3437,15	190,00
3440,77	162,00
3444,39	37,00
3448,00	2,00
3451,62	229,00
3455,22	100,00
3458,83	96,00
3462,43	212,00
3466,03	137,00
3469,63	18,00
3473,22	127,00
3476,81	109,00
3480,40	65,00
3483,99	110,00
3487,57	102,00
3491,15	61,00
3494,72	166,00
3498,29	118,00
3501,86	156,00
3505,43	135,00
3508,99	95,00
3512,56	160,00
3516,11	25,00
3519,67	85,00
3523,22	64,00
3526,77	91,00
3530,32	138,00
3533,86	53,00
3537,40	65,00
3540,94	117,00
3544,47	54,00
3548,00	250,00
3551,53	171,00
3555,06	132,00
3558,58	143,00
3562,10	134,00
3565,62	154,00
3569,13	90,00
3572,64	237,00
3576,15	88,00
3579,66	171,00
3583,16	62,00
3586,66	2,00
3590,16	72,00
3593,65	129,00
3597,14	96,00
3600,63	74,00
3604,11	70,00
3607,60	-20,00
3611,08	59,00
3614,55	61,00
3618,03	53,00
3621,50	70,00
3624,97	105,00
3628,43	-4,00
3631,90	47,00
3635,36	129,00
3638,81	128,00
3642,27	35,00
3645,72	142,00
3649,17	106,00
3652,61	141,00
3656,06	-20,00
3659,50	173,00
3662,93	84,00
3666,37	23,00
3669,80	148,00
3673,23	77,00
3676,65	173,00
3680,08	31,00
3683,50	121,00
3686,92	44,00
3690,33	85,00
3693,74	114,00
3697,15	115,00
3700,56	98,00
3703,96	31,00
3707,36	-69,00
3710,76	-58,00
3714,16	74,00
3717,55	21,00
3720,94	115,00
3724,33	-1,00
3727,71	70,00
3731,10	44,00
3734,48	64,00
3737,85	9,00
3741,23	27,00
3744,60	10,00
3747,97	-96,00
3751,33	199,00
3754,69	59,00
3758,05	134,00
3761,41	-1,00
3764,77	15,00
3768,12	114,00
3771,47	106,00
3774,82	47,00
3778,16	2,00
3781,50	-1,00
3784,84	1,00
3788,18	4,00
>>>>>End Processed Spectral Data<<<<<
