SpectraSuite Data File
++++++++++++++++++++++++++++++++++++
Date: Mon Mar 09 16:26:15 ICT 2026
User: Administrator
Dark Spectrum Present: Yes
Reference Spectrum Present: No
Number of Sampled Component Spectra: 1
Spectrometers: MAYP113682
Integration Time (usec): 3000000 (MAYP113682)
Spectra Averaged: 1 (MAYP113682)
Boxcar Smoothing: 0 (MAYP113682)
Correct for Electrical Dark: No (MAYP113682)
Strobe/Lamp Enabled: No (MAYP113682)
Correct for Detector Non-linearity: No (MAYP113682)
Correct for Stray Light: No (MAYP113682)
Number of Pixels in Processed Spectrum: 2068
>>>>>Begin Processed Spectral Data<<<<<
-37534,58	-6,00
-37414,56	8,00
-37295,11	-5,00
-37176,24	2,00
-37057,95	77,00
-36940,22	141,00
-36823,05	119,00
-36706,45	55,00
-36590,40	82,00
-36474,90	164,00
-36359,95	38,00
-36245,55	180,00
-36131,68	104,00
-36018,35	155,00
-35905,55	58,00
-35793,29	-3,00
-35681,54	24,00
-35570,32	70,00
-35459,62	72,00
-35349,43	40,00
-35239,75	138,00
-35130,58	28,00
-35021,91	18,00
-34913,74	81,00
-34806,07	66,00
-34698,89	71,00
-34592,20	44,00
-34486,00	92,00
-34380,28	149,00
-34275,04	61,00
-34170,27	57,00
-34065,98	94,00
-33962,16	179,00
-33858,81	100,00
-33755,92	226,00
-33653,49	201,00
-33551,52	-33,00
-33450,01	84,00
-33348,94	179,00
-33248,33	50,00
-33148,16	-3,00
-33048,43	141,00
-32949,14	155,00
-32850,29	60,00
-32751,87	63,00
-32653,89	112,00
-32556,33	35,00
-32459,20	214,00
-32362,49	156,00
-32266,19	106,00
-32170,32	143,00
-32074,86	53,00
-31979,82	-37,00
-31885,18	110,00
-31790,95	86,00
-31697,12	0,00
-31603,69	99,00
-31510,67	53,00
-31418,04	47,00
-31325,80	192,00
-31233,95	140,00
-31142,49	122,00
-31051,42	128,00
-30960,73	66,00
-30870,43	113,00
-30780,50	44,00
-30690,95	50,00
-30601,77	156,00
-30512,97	135,00
-30424,53	113,00
-30336,46	115,00
-30248,76	48,00
-30161,42	140,00
-30074,44	118,00
-29987,81	80,00
-29901,55	94,00
-29815,63	172,00
-29730,07	13,00
-29644,86	39,00
-29560,00	31,00
-29475,48	121,00
-29391,30	125,00
-29307,47	55,00
-29223,97	-47,00
-29140,81	136,00
-29057,99	157,00
-28975,50	117,00
-28893,34	121,00
-28811,51	49,00
-28730,00	113,00
-28648,82	95,00
-28567,97	46,00
-28487,43	94,00
-28407,21	4,00
-28327,32	119,00
-28247,73	88,00
-28168,46	47,00
-28089,50	3,00
-28010,85	5,00
-27932,51	83,00
-27854,48	75,00
-27776,75	121,00
-27699,32	150,00
-27622,19	116,00
-27545,37	28,00
-27468,84	100,00
-27392,60	92,00
-27316,66	61,00
-27241,01	116,00
-27165,66	129,00
-27090,59	39,00
-27015,81	134,00
-26941,31	105,00
-26867,10	55,00
-26793,17	79,00
-26719,52	-33,00
-26646,15	153,00
-26573,06	77,00
-26500,24	127,00
-26427,70	141,00
-26355,43	145,00
-26283,43	55,00
-26211,71	-16,00
-26140,25	111,00
-26069,06	118,00
-25998,13	134,00
-25927,46	5,00
-25857,06	122,00
-25786,92	129,00
-25717,04	96,00
-25647,42	229,00
-25578,05	120,00
-25508,94	167,00
-25440,09	93,00
-25371,48	107,00
-25303,13	125,00
-25235,02	89,00
-25167,17	81,00
-25099,56	50,00
-25032,19	148,00
-24965,07	25,00
-24898,20	113,00
-24831,56	62,00
-24765,17	109,00
-24699,01	230,00
-24633,10	-47,00
-24567,41	140,00
-24501,97	144,00
-24436,75	7,00
-24371,77	119,00
-24307,03	35,00
-24242,51	128,00
-24178,22	-43,00
-24114,16	88,00
-24050,32	103,00
-23986,71	171,00
-23923,32	72,00
-23860,16	-21,00
-23797,22	112,00
-23734,50	50,00
-23672,00	3,00
-23609,71	110,00
-23547,65	4,00
-23485,80	65,00
-23424,16	109,00
-23362,74	242,00
-23301,53	-41,00
-23240,54	49,00
-23179,75	93,00
-23119,17	70,00
-23058,80	62,00
-22998,64	161,00
-22938,68	91,00
-22878,93	85,00
-22819,39	143,00
-22760,04	111,00
-22700,90	-42,00
-22641,96	33,00
-22583,22	128,00
-22524,68	82,00
-22466,33	114,00
-22408,19	112,00
-22350,23	94,00
-22292,48	79,00
-22234,92	68,00
-22177,55	79,00
-22120,37	162,00
-22063,38	83,00
-22006,58	-20,00
-21949,98	134,00
-21893,56	89,00
-21837,33	2,00
-21781,28	114,00
-21725,42	133,00
-21669,74	60,00
-21614,25	111,00
-21558,94	71,00
-21503,81	128,00
-21448,86	-16,00
-21394,10	119,00
-21339,51	-6,00
-21285,10	105,00
-21230,86	100,00
-21176,81	123,00
-21122,93	82,00
-21069,22	74,00
-21015,69	87,00
-20962,33	198,00
-20909,14	77,00
-20856,13	-6,00
-20803,28	79,00
-20750,61	63,00
-20698,10	-36,00
-20645,76	154,00
-20593,59	179,00
-20541,59	126,00
-20489,75	-24,00
-20438,07	107,00
-20386,56	88,00
-20335,22	154,00
-20284,03	31,00
-20233,01	15,00
-20182,15	1,00
-20131,45	76,00
-20080,91	96,00
-20030,52	10,00
-19980,30	61,00
-19930,23	118,00
-19880,32	51,00
-19830,56	86,00
-19780,96	95,00
-19731,52	174,00
-19682,23	114,00
-19633,09	158,00
-19584,10	158,00
-19535,26	116,00
-19486,58	114,00
-19438,04	77,00
-19389,66	52,00
-19341,42	110,00
-19293,33	71,00
-19245,39	61,00
-19197,60	137,00
-19149,95	108,00
-19102,45	105,00
-19055,09	68,00
-19007,87	139,00
-18960,80	151,00
-18913,87	79,00
-18867,09	38,00
-18820,44	28,00
-18773,94	137,00
-18727,57	44,00
-18681,35	82,00
-18635,26	99,00
-18589,31	177,00
-18543,50	51,00
-18497,83	3,00
-18452,29	111,00
-18406,89	81,00
-18361,63	89,00
-18316,50	154,00
-18271,50	239,00
-18226,63	58,00
-18181,90	185,00
-18137,30	201,00
-18092,84	20,00
-18048,50	129,00
-18004,29	119,00
-17960,22	162,00
-17916,27	65,00
-17872,45	101,00
-17828,76	58,00
-17785,20	112,00
-17741,77	101,00
-17698,46	131,00
-17655,28	108,00
-17612,22	103,00
-17569,29	92,00
-17526,48	173,00
-17483,79	64,00
-17441,23	-6,00
-17398,79	104,00
-17356,48	134,00
-17314,28	133,00
-17272,21	19,00
-17230,26	94,00
-17188,42	196,00
-17146,71	79,00
-17105,12	14,00
-17063,64	47,00
-17022,28	158,00
-16981,04	167,00
-16939,92	86,00
-16898,91	44,00
-16858,02	103,00
-16817,25	106,00
-16776,59	76,00
-16736,04	-76,00
-16695,61	38,00
-16655,29	68,00
-16615,09	187,00
-16574,99	189,00
-16535,01	42,00
-16495,15	123,00
-16455,39	56,00
-16415,74	44,00
-16376,21	134,00
-16336,78	140,00
-16297,46	112,00
-16258,26	71,00
-16219,16	180,00
-16180,17	158,00
-16141,28	138,00
-16102,51	63,00
-16063,84	38,00
-16025,27	95,00
-15986,82	186,00
-15948,46	14,00
-15910,22	97,00
-15872,07	113,00
-15834,04	97,00
-15796,10	40,00
-15758,27	256,00
-15720,54	79,00
-15682,91	99,00
-15645,39	71,00
-15607,97	28,00
-15570,64	180,00
-15533,42	57,00
-15496,30	143,00
-15459,28	32,00
-15422,36	102,00
-15385,54	-21,00
-15348,82	20,00
-15312,19	-8,00
-15275,66	99,00
-15239,23	205,00
-15202,90	89,00
-15166,67	48,00
-15130,53	40,00
-15094,48	57,00
-15058,54	15,00
-15022,68	120,00
-14986,93	50,00
-14951,26	141,00
-14915,69	98,00
-14880,22	284,00
-14844,84	95,00
-14809,55	108,00
-14774,35	238,00
-14739,25	189,00
-14704,24	131,00
-14669,32	65,00
-14634,49	215,00
-14599,75	126,00
-14565,10	46,00
-14530,55	57,00
-14496,08	124,00
-14461,70	162,00
-14427,41	126,00
-14393,21	82,00
-14359,10	69,00
-14325,07	96,00
-14291,14	138,00
-14257,29	62,00
-14223,52	98,00
-14189,85	272,00
-14156,26	182,00
-14122,76	71,00
-14089,34	214,00
-14056,01	127,00
-14022,76	228,00
-13989,60	-124,00
-13956,52	178,00
-13923,53	-67,00
-13890,62	140,00
-13857,79	2,00
-13825,05	180,00
-13792,39	90,00
-13759,81	9,00
-13727,31	-19,00
-13694,90	43,00
-13662,57	98,00
-13630,31	48,00
-13598,14	23,00
-13566,05	37,00
-13534,05	71,00
-13502,12	37,00
-13470,27	194,00
-13438,50	-28,00
-13406,80	55,00
-13375,19	38,00
-13343,66	57,00
-13312,20	75,00
-13280,83	52,00
-13249,53	36,00
-13218,30	72,00
-13187,16	79,00
-13156,09	84,00
-13125,10	114,00
-13094,18	140,00
-13063,34	95,00
-13032,58	1,00
-13001,89	97,00
-12971,28	4,00
-12940,74	243,00
-12910,27	36,00
-12879,88	88,00
-12849,57	81,00
-12819,33	118,00
-12789,16	121,00
-12759,06	136,00
-12729,04	98,00
-12699,09	148,00
-12669,21	45,00
-12639,41	123,00
-12609,68	156,00
-12580,02	90,00
-12550,43	46,00
-12520,91	72,00
-12491,46	140,00
-12462,08	135,00
-12432,77	-52,00
-12403,54	-2,00
-12374,37	177,00
-12345,27	186,00
-12316,24	70,00
-12287,29	155,00
-12258,40	54,00
-12229,57	163,00
-12200,82	35,00
-12172,14	-28,00
-12143,52	43,00
-12114,97	128,00
-12086,49	179,00
-12058,07	49,00
-12029,73	125,00
-12001,44	92,00
-11973,23	134,00
-11945,08	12,00
-11917,00	173,00
-11888,98	170,00
-11861,03	194,00
-11833,15	16,00
-11805,32	129,00
-11777,57	91,00
-11749,88	98,00
-11722,25	44,00
-11694,69	254,00
-11667,19	167,00
-11639,75	136,00
-11612,38	36,00
-11585,07	90,00
-11557,83	131,00
-11530,65	144,00
-11503,53	104,00
-11476,47	141,00
-11449,48	208,00
-11422,54	27,00
-11395,67	82,00
-11368,86	-8,00
-11342,11	129,00
-11315,43	88,00
-11288,80	95,00
-11262,23	160,00
-11235,73	16,00
-11209,28	21,00
-11182,90	144,00
-11156,57	52,00
-11130,31	99,00
-11104,10	-75,00
-11077,96	128,00
-11051,87	116,00
-11025,84	92,00
-10999,87	173,00
-10973,96	76,00
-10948,11	20,00
-10922,31	-51,00
-10896,58	117,00
-10870,90	66,00
-10845,28	84,00
-10819,71	74,00
-10794,20	199,00
-10768,75	111,00
-10743,36	103,00
-10718,02	63,00
-10692,74	162,00
-10667,52	107,00
-10642,35	151,00
-10617,24	42,00
-10592,18	101,00
-10567,18	212,00
-10542,23	189,00
-10517,34	149,00
-10492,51	25,00
-10467,72	96,00
-10443,00	137,00
-10418,32	128,00
-10393,70	46,00
-10369,14	156,00
-10344,63	2,00
-10320,17	141,00
-10295,77	133,00
-10271,42	166,00
-10247,12	4,00
-10222,88	74,00
-10198,68	118,00
-10174,54	145,00
-10150,46	75,00
-10126,42	208,00
-10102,44	115,00
-10078,51	111,00
-10054,63	50,00
-10030,80	177,00
-10007,03	49,00
-9983,30	110,00
-9959,63	78,00
-9936,01	245,00
-9912,44	174,00
-9888,92	153,00
-9865,44	207,00
-9842,02	78,00
-9818,65	164,00
-9795,33	133,00
-9772,06	138,00
-9748,84	167,00
-9725,67	119,00
-9702,55	70,00
-9679,47	269,00
-9656,45	264,00
-9633,47	233,00
-9610,55	235,00
-9587,67	33,00
-9564,84	172,00
-9542,06	24,00
-9519,32	333,00
-9496,64	297,00
-9474,00	257,00
-9451,41	225,00
-9428,87	186,00
-9406,37	200,00
-9383,92	172,00
-9361,52	114,00
-9339,17	59,00
-9316,86	96,00
-9294,60	262,00
-9272,38	229,00
-9250,21	417,00
-9228,09	365,00
-9206,01	248,00
-9183,98	299,00
-9162,00	213,00
-9140,06	19,00
-9118,16	175,00
-9096,31	256,00
-9074,51	357,00
-9052,75	180,00
-9031,04	351,00
-9009,37	288,00
-8987,74	141,00
-8966,16	165,00
-8944,63	15,00
-8923,14	87,00
-8901,69	46,00
-8880,29	318,00
-8858,93	240,00
-8837,61	399,00
-8816,34	493,00
-8795,11	492,00
-8773,92	402,00
-8752,78	265,00
-8731,68	295,00
-8710,62	226,00
-8689,61	265,00
-8668,63	404,00
-8647,70	282,00
-8626,82	378,00
-8605,97	298,00
-8585,17	246,00
-8564,41	248,00
-8543,69	203,00
-8523,01	144,00
-8502,37	207,00
-8481,78	243,00
-8461,23	275,00
-8440,71	296,00
-8420,24	349,00
-8399,81	387,00
-8379,42	480,00
-8359,08	356,00
-8338,77	238,00
-8318,50	381,00
-8298,27	285,00
-8278,09	250,00
-8257,94	245,00
-8237,83	383,00
-8217,76	503,00
-8197,74	497,00
-8177,75	328,00
-8157,80	366,00
-8137,89	410,00
-8118,02	363,00
-8098,19	226,00
-8078,40	354,00
-8058,65	345,00
-8038,93	508,00
-8019,26	449,00
-7999,62	323,00
-7980,02	263,00
-7960,46	347,00
-7940,94	345,00
-7921,46	176,00
-7902,01	242,00
-7882,60	306,00
-7863,23	331,00
-7843,90	298,00
-7824,61	278,00
-7805,35	400,00
-7786,13	399,00
-7766,95	418,00
-7747,80	333,00
-7728,69	389,00
-7709,62	323,00
-7690,59	357,00
-7671,59	369,00
-7652,63	358,00
-7633,70	435,00
-7614,81	395,00
-7595,96	501,00
-7577,15	289,00
-7558,37	337,00
-7539,62	328,00
-7520,91	378,00
-7502,24	288,00
-7483,60	443,00
-7465,00	271,00
-7446,44	345,00
-7427,91	220,00
-7409,41	191,00
-7390,95	251,00
-7372,53	213,00
-7354,14	102,00
-7335,78	-19,00
-7317,46	359,00
-7299,18	250,00
-7280,92	286,00
-7262,71	301,00
-7244,52	321,00
-7226,38	456,00
-7208,26	390,00
-7190,18	362,00
-7172,14	247,00
-7154,12	193,00
-7136,15	324,00
-7118,20	355,00
-7100,29	271,00
-7082,41	321,00
-7064,57	311,00
-7046,76	206,00
-7028,98	203,00
-7011,24	254,00
-6993,53	32,00
-6975,85	40,00
-6958,20	69,00
-6940,59	-37,00
-6923,01	164,00
-6905,46	81,00
-6887,94	227,00
-6870,46	-2440,00
-6853,01	279,00
-6835,59	300,00
-6818,21	207,00
-6800,85	261,00
-6783,53	47,00
-6766,24	-55,00
-6748,98	-145,00
-6731,76	-116,00
-6714,56	-118,00
-6697,40	79,00
-6680,26	-137,00
-6663,16	123,00
-6646,09	198,00
-6629,05	82,00
-6612,05	187,00
-6595,07	182,00
-6578,13	106,00
-6561,21	98,00
-6544,33	53,00
-6527,47	11,00
-6510,65	-58,00
-6493,86	-31,00
-6477,10	63,00
-6460,36	-35,00
-6443,66	87,00
-6426,99	2,00
-6410,35	-1,00
-6393,74	144,00
-6377,16	113,00
-6360,61	-60,00
-6344,09	91,00
-6327,59	14,00
-6311,13	49,00
-6294,70	52,00
-6278,29	340,00
-6261,92	253,00
-6245,58	199,00
-6229,26	312,00
-6212,97	278,00
-6196,72	148,00
-6180,49	27,00
-6164,29	-30,00
-6148,12	-16,00
-6131,98	-152,00
-6115,86	66,00
-6099,78	-61,00
-6083,72	-58,00
-6067,69	-77,00
-6051,69	11,00
-6035,72	107,00
-6019,78	27,00
-6003,87	-15,00
-5987,98	120,00
-5972,12	187,00
-5956,29	244,00
-5940,49	165,00
-5924,71	149,00
-5908,96	53,00
-5893,24	-40,00
-5877,55	101,00
-5861,89	1,00
-5846,25	-157,00
-5830,64	-93,00
-5815,05	38,00
-5799,50	63,00
-5783,97	127,00
-5768,47	13,00
-5752,99	49,00
-5737,55	94,00
-5722,12	65,00
-5706,73	286,00
-5691,36	166,00
-5676,02	102,00
-5660,71	0,00
-5645,42	27,00
-5630,16	-62,00
-5614,92	19,00
-5599,71	61,00
-5584,53	-15,00
-5569,37	61,00
-5554,24	86,00
-5539,14	118,00
-5524,06	142,00
-5509,01	93,00
-5493,98	109,00
-5478,98	-12,00
-5464,00	6,00
-5449,05	50,00
-5434,13	113,00
-5419,23	-33,00
-5404,36	76,00
-5389,51	131,00
-5374,69	137,00
-5359,89	33,00
-5345,12	155,00
-5330,37	249,00
-5315,65	115,00
-5300,95	218,00
-5286,28	66,00
-5271,63	63,00
-5257,01	-85,00
-5242,41	23,00
-5227,84	-9,00
-5213,29	-21,00
-5198,76	9,00
-5184,26	70,00
-5169,79	16,00
-5155,33	113,00
-5140,91	-11,00
-5126,51	84,00
-5112,13	132,00
-5097,77	79,00
-5083,44	-79,00
-5069,13	3,00
-5054,85	139,00
-5040,59	35,00
-5026,36	23,00
-5012,15	64,00
-4997,96	-64,00
-4983,80	-9,00
-4969,66	38,00
-4955,54	100,00
-4941,44	144,00
-4927,37	147,00
-4913,33	174,00
-4899,30	225,00
-4885,30	173,00
-4871,33	227,00
-4857,37	92,00
-4843,44	215,00
-4829,53	104,00
-4815,65	140,00
-4801,79	-21,00
-4787,95	-12,00
-4774,13	98,00
-4760,34	44,00
-4746,56	24,00
-4732,82	15,00
-4719,09	54,00
-4705,38	125,00
-4691,70	167,00
-4678,04	151,00
-4664,41	147,00
-4650,79	135,00
-4637,20	59,00
-4623,63	167,00
-4610,08	-20,00
-4596,56	32,00
-4583,05	106,00
-4569,57	49,00
-4556,11	101,00
-4542,67	104,00
-4529,25	90,00
-4515,86	82,00
-4502,49	184,00
-4489,13	189,00
-4475,80	151,00
-4462,49	154,00
-4449,21	160,00
-4435,94	231,00
-4422,70	21,00
-4409,47	93,00
-4396,27	123,00
-4383,09	115,00
-4369,93	25,00
-4356,79	93,00
-4343,67	104,00
-4330,58	81,00
-4317,50	108,00
-4304,45	118,00
-4291,41	24,00
-4278,40	-30,00
-4265,41	108,00
-4252,44	119,00
-4239,49	77,00
-4226,55	121,00
-4213,65	99,00
-4200,76	110,00
-4187,89	32,00
-4175,04	134,00
-4162,21	99,00
-4149,40	50,00
-4136,61	133,00
-4123,85	75,00
-4111,10	-13,00
-4098,37	85,00
-4085,66	190,00
-4072,98	168,00
-4060,31	65,00
-4047,66	213,00
-4035,04	62,00
-4022,43	183,00
-4009,84	235,00
-3997,27	64,00
-3984,72	210,00
-3972,19	-29,00
-3959,69	72,00
-3947,20	70,00
-3934,73	22,00
-3922,27	206,00
-3909,84	101,00
-3897,43	153,00
-3885,04	58,00
-3872,67	59,00
-3860,31	-14,00
-3847,98	135,00
-3835,66	-12,00
-3823,36	64,00
-3811,09	126,00
-3798,83	198,00
-3786,59	73,00
-3774,37	103,00
-3762,17	239,00
-3749,98	67,00
-3737,82	18,00
-3725,67	97,00
-3713,55	-8,00
-3701,44	137,00
-3689,35	9,00
-3677,28	38,00
-3665,22	40,00
-3653,19	-17,00
-3641,17	177,00
-3629,18	47,00
-3617,20	57,00
-3605,24	101,00
-3593,30	-68,00
-3581,37	156,00
-3569,47	51,00
-3557,58	79,00
-3545,71	164,00
-3533,86	108,00
-3522,02	-9,00
-3510,21	106,00
-3498,41	-127,00
-3486,63	135,00
-3474,87	82,00
-3463,12	143,00
-3451,40	187,00
-3439,69	178,00
-3428,00	179,00
-3416,33	55,00
-3404,67	26,00
-3393,03	124,00
-3381,41	-31,00
-3369,81	-48,00
-3358,22	152,00
-3346,66	161,00
-3335,10	48,00
-3323,57	158,00
-3312,06	72,00
-3300,56	81,00
-3289,08	51,00
-3277,61	67,00
-3266,16	111,00
-3254,73	241,00
-3243,32	102,00
-3231,92	138,00
-3220,55	29,00
-3209,18	158,00
-3197,84	165,00
-3186,51	128,00
-3175,20	84,00
-3163,90	110,00
-3152,63	27,00
-3141,36	55,00
-3130,12	146,00
-3118,89	-62,00
-3107,68	277,00
-3096,49	80,00
-3085,31	65,00
-3074,15	159,00
-3063,00	38,00
-3051,87	88,00
-3040,76	54,00
-3029,67	24,00
-3018,59	-33,00
-3007,52	27,00
-2996,48	23,00
-2985,44	129,00
-2974,43	107,00
-2963,43	96,00
-2952,45	95,00
-2941,48	47,00
-2930,53	-20,00
-2919,60	61,00
-2908,68	139,00
-2897,78	122,00
-2886,89	150,00
-2876,02	120,00
-2865,17	124,00
-2854,33	104,00
-2843,50	103,00
-2832,70	64,00
-2821,90	118,00
-2811,13	99,00
-2800,37	-40,00
-2789,62	54,00
-2778,89	228,00
-2768,18	101,00
-2757,48	85,00
-2746,80	131,00
-2736,13	-17,00
-2725,48	139,00
-2714,84	156,00
-2704,22	56,00
-2693,61	10,00
-2683,02	22,00
-2672,45	183,00
-2661,89	108,00
-2651,34	-86,00
-2640,81	96,00
-2630,30	138,00
-2619,80	63,00
-2609,31	-21,00
-2598,84	-16,00
-2588,39	63,00
-2577,95	86,00
-2567,52	53,00
-2557,11	-30,00
-2546,71	78,00
-2536,33	136,00
-2525,97	58,00
-2515,62	15,00
-2505,28	83,00
-2494,96	42,00
-2484,65	125,00
-2474,36	302,00
-2464,08	94,00
-2453,82	91,00
-2443,57	218,00
-2433,33	105,00
-2423,11	131,00
-2412,91	179,00
-2402,72	179,00
-2392,54	176,00
-2382,38	71,00
-2372,23	29,00
-2362,09	650,00
-2351,97	66,00
-2341,87	128,00
-2331,78	46,00
-2321,70	32,00
-2311,64	97,00
-2301,59	107,00
-2291,55	95,00
-2281,53	-9,00
-2271,53	32,00
-2261,53	254,00
-2251,55	88,00
-2241,59	163,00
-2231,64	86,00
-2221,70	145,00
-2211,78	32,00
-2201,87	86,00
-2191,97	63,00
-2182,09	91,00
-2172,22	106,00
-2162,37	95,00
-2152,53	74,00
-2142,70	33,00
-2132,89	74,00
-2123,09	1,00
-2113,30	73,00
-2103,53	259,00
-2093,77	166,00
-2084,02	93,00
-2074,29	23,00
-2064,57	29,00
-2054,86	118,00
-2045,17	56,00
-2035,49	46,00
-2025,82	-46,00
-2016,17	99,00
-2006,53	133,00
-1996,91	17,00
-1987,29	87,00
-1977,69	118,00
-1968,11	100,00
-1958,53	103,00
-1948,97	125,00
-1939,42	196,00
-1929,89	95,00
-1920,37	154,00
-1910,86	89,00
-1901,36	215,00
-1891,88	98,00
-1882,41	69,00
-1872,95	139,00
-1863,51	-40,00
-1854,08	-21,00
-1844,66	100,00
-1835,26	135,00
-1825,86	158,00
-1816,48	72,00
-1807,11	119,00
-1797,76	48,00
-1788,42	101,00
-1779,09	-25,00
-1769,77	33,00
-1760,47	23,00
-1751,17	56,00
-1741,89	41,00
-1732,63	168,00
-1723,37	404,00
-1714,13	57,00
-1704,90	-34,00
-1695,68	136,00
-1686,48	97,00
-1677,29	158,00
-1668,11	266,00
-1658,94	152,00
-1649,78	86,00
-1640,64	221,00
-1631,51	9,00
-1622,39	102,00
-1613,28	126,00
-1604,19	-4,00
-1595,10	52,00
-1586,03	53,00
-1576,97	3,00
-1567,93	121,00
-1558,89	94,00
-1549,87	6,00
-1540,86	130,00
-1531,86	75,00
-1522,87	-39,00
-1513,90	207,00
-1504,93	-24,00
-1495,98	269,00
-1487,04	119,00
-1478,12	93,00
-1469,20	125,00
-1460,30	42,00
-1451,40	94,00
-1442,52	142,00
-1433,65	117,00
-1424,80	111,00
-1415,95	90,00
-1407,12	110,00
-1398,30	266,00
-1389,48	111,00
-1380,69	87,00
-1371,90	108,00
-1363,12	77,00
-1354,36	75,00
-1345,60	109,00
-1336,86	75,00
-1328,13	127,00
-1319,41	96,00
-1310,70	172,00
-1302,01	103,00
-1293,32	87,00
-1284,65	114,00
-1275,99	40,00
-1267,33	105,00
-1258,69	147,00
-1250,06	124,00
-1241,45	78,00
-1232,84	77,00
-1224,25	115,00
-1215,66	76,00
-1207,09	7,00
-1198,53	100,00
-1189,97	195,00
-1181,43	123,00
-1172,91	151,00
-1164,39	67,00
-1155,88	242,00
-1147,38	51,00
-1138,90	93,00
-1130,43	17,00
-1121,96	235,00
-1113,51	92,00
-1105,07	115,00
-1096,64	82,00
-1088,22	197,00
-1079,81	139,00
-1071,41	-11,00
-1063,02	78,00
-1054,65	132,00
-1046,28	74,00
-1037,92	162,00
-1029,58	180,00
-1021,24	111,00
-1012,92	223,00
-1004,61	26,00
-996,30	366,00
-988,01	87,00
-979,73	-11,00
-971,46	69,00
-963,20	42,00
-954,95	10,00
-946,71	78,00
-938,48	88,00
-930,26	67,00
-922,06	98,00
-913,86	175,00
-905,67	-41,00
-897,49	-9,00
-889,33	-6,00
-881,17	74,00
-873,02	29,00
-864,89	177,00
-856,76	177,00
-848,65	189,00
-840,54	6,00
-832,45	50,00
-824,36	155,00
-816,29	37,00
-808,22	130,00
-800,17	60,00
-792,12	197,00
-784,09	121,00
-776,06	32,00
-768,05	158,00
-760,04	94,00
-752,05	152,00
-744,07	26,00
-736,09	87,00
-728,13	103,00
-720,17	86,00
-712,23	128,00
-704,29	150,00
-696,37	119,00
-688,45	111,00
-680,55	124,00
-672,65	128,00
-664,77	192,00
-656,89	-4,00
-649,03	90,00
-641,17	81,00
-633,32	36,00
-625,49	171,00
-617,66	63,00
-609,84	107,00
-602,03	105,00
-594,23	110,00
-586,45	135,00
-578,67	58,00
-570,90	39,00
-563,14	187,00
-555,39	-3,00
-547,65	168,00
-539,91	63,00
-532,19	111,00
-524,48	88,00
-516,78	82,00
-509,08	266,00
-501,40	79,00
-493,72	79,00
-486,06	110,00
-478,40	80,00
-470,76	189,00
-463,12	134,00
-455,49	88,00
-447,87	175,00
-440,26	80,00
-432,66	43,00
-425,07	25,00
-417,49	201,00
-409,92	83,00
-402,35	226,00
-394,80	143,00
-387,25	121,00
-379,72	63,00
-372,19	137,00
-364,67	181,00
-357,17	131,00
-349,67	197,00
-342,18	78,00
-334,69	67,00
-327,22	29,00
-319,76	99,00
-312,30	140,00
-304,86	153,00
-297,42	182,00
-290,00	142,00
-282,58	160,00
-275,17	188,00
-267,77	103,00
-260,37	200,00
-252,99	198,00
-245,62	85,00
-238,25	168,00
-230,90	112,00
-223,55	35,00
-216,21	204,00
-208,88	177,00
-201,56	129,00
-194,25	161,00
-186,94	346,00
-179,65	150,00
-172,36	252,00
-165,08	328,00
-157,81	180,00
-150,55	268,00
-143,30	375,00
-136,06	312,00
-128,82	422,00
-121,60	395,00
-114,38	390,00
-107,17	520,00
-99,97	554,00
-92,78	593,00
-85,60	667,00
-78,42	965,00
-71,25	993,00
-64,10	1121,00
-56,95	1294,00
-49,81	1423,00
-42,67	1820,00
-35,55	2213,00
-28,43	2784,00
-21,33	4821,00
-14,23	15745,00
-7,14	55164,00
-0,05	54791,00
7,02	54542,00
14,09	51953,00
21,14	14141,00
28,19	5998,00
35,23	3713,00
42,27	2833,00
49,29	2314,00
56,31	1991,00
63,32	1720,00
70,32	1241,00
77,31	1235,00
84,29	977,00
91,27	1010,00
98,23	882,00
105,19	819,00
112,14	935,00
119,09	1212,00
126,02	1920,00
132,95	2399,00
139,87	2623,00
146,78	2615,00
153,68	2505,00
160,58	2426,00
167,46	2390,00
174,34	2427,00
181,21	2495,00
188,08	2434,00
194,93	2296,00
201,78	2204,00
208,62	2365,00
215,45	2471,00
222,27	2371,00
229,09	2409,00
235,90	2336,00
242,70	2280,00
249,49	2259,00
256,27	2210,00
263,05	2201,00
269,82	2261,00
276,58	2269,00
283,33	2111,00
290,08	2244,00
296,82	2150,00
303,55	2192,00
310,27	2023,00
316,98	2043,00
323,69	2171,00
330,39	2049,00
337,08	2072,00
343,76	2075,00
350,44	2050,00
357,11	2017,00
363,77	2039,00
370,42	2045,00
377,07	2000,00
383,71	2031,00
390,34	1959,00
396,96	1944,00
403,58	1960,00
410,19	1975,00
416,79	2004,00
423,38	1874,00
429,97	1886,00
436,55	1877,00
443,12	1871,00
449,68	1846,00
456,24	1785,00
462,79	1621,00
469,33	1795,00
475,86	1751,00
482,39	1746,00
488,91	1764,00
495,42	1718,00
501,93	1835,00
508,42	1620,00
514,91	1701,00
521,40	1622,00
527,87	1718,00
534,34	1655,00
540,80	1709,00
547,25	1582,00
553,70	1727,00
560,14	1475,00
566,57	1820,00
573,00	1544,00
579,41	1571,00
585,83	1475,00
592,23	1519,00
598,62	1589,00
605,01	1497,00
611,40	1567,00
617,77	1602,00
624,14	1441,00
630,50	1511,00
636,85	1416,00
643,20	1410,00
649,54	1480,00
655,87	1403,00
662,20	1401,00
668,52	1409,00
674,83	1331,00
681,13	1310,00
687,43	1295,00
693,72	1266,00
700,00	1355,00
706,28	1426,00
712,55	1465,00
718,81	1551,00
725,07	1319,00
731,32	1297,00
737,56	1388,00
743,79	1411,00
750,02	1429,00
756,24	1407,00
762,46	1256,00
768,67	1384,00
774,87	1223,00
781,06	1297,00
787,25	1364,00
793,43	1358,00
799,60	1314,00
805,77	1221,00
811,93	1457,00
818,08	1354,00
824,23	1438,00
830,37	1284,00
836,50	1371,00
842,63	1378,00
848,75	1278,00
854,87	1307,00
860,97	1255,00
867,07	1397,00
873,17	1239,00
879,25	1331,00
885,33	1253,00
891,41	1341,00
897,47	1273,00
903,53	1372,00
909,59	1329,00
915,63	1251,00
921,67	1191,00
927,71	1177,00
933,74	1191,00
939,76	1074,00
945,77	1008,00
951,78	1090,00
957,78	1233,00
963,78	1231,00
969,77	1106,00
975,75	1111,00
981,72	1235,00
987,69	1212,00
993,66	1199,00
999,61	1176,00
1005,56	1175,00
1011,51	1238,00
1017,44	1199,00
1023,37	1116,00
1029,30	1083,00
1035,22	1274,00
1041,13	1228,00
1047,03	1256,00
1052,93	1199,00
1058,83	1450,00
1064,71	1558,00
1070,59	1427,00
1076,47	1269,00
1082,33	1310,00
1088,20	1247,00
1094,05	1101,00
1099,90	1175,00
1105,74	1100,00
1111,58	1220,00
1117,41	1180,00
1123,23	1457,00
1129,05	1440,00
1134,86	1403,00
1140,67	1259,00
1146,47	1275,00
1152,26	1111,00
1158,05	1047,00
1163,83	1206,00
1169,60	1160,00
1175,37	934,00
1181,13	1020,00
1186,89	1019,00
1192,64	1039,00
1198,38	1125,00
1204,12	1069,00
1209,85	1087,00
1215,58	1131,00
1221,30	1044,00
1227,02	1179,00
1232,72	1097,00
1238,43	1076,00
1244,12	1134,00
1249,81	1110,00
1255,50	1110,00
1261,17	1087,00
1266,85	1217,00
1272,51	1243,00
1278,17	1198,00
1283,83	1133,00
1289,47	1568,00
1295,12	1730,00
1300,75	1651,00
1306,38	1417,00
1312,01	1372,00
1317,63	1247,00
1323,24	1117,00
1328,85	1132,00
1334,45	1254,00
1340,04	1111,00
1345,63	1159,00
1351,22	1176,00
1356,80	1175,00
1362,37	1174,00
1367,93	1140,00
1373,49	1268,00
1379,05	1152,00
1384,60	1169,00
1390,14	1300,00
1395,68	1198,00
1401,21	1118,00
1406,74	1175,00
1412,26	1258,00
1417,77	1238,00
1423,28	1395,00
1428,78	1384,00
1434,28	1654,00
1439,77	1766,00
1445,26	1683,00
1450,74	1647,00
1456,22	1621,00
1461,68	1611,00
1467,15	1542,00
1472,61	1312,00
1478,06	1342,00
1483,51	1202,00
1488,95	1173,00
1494,38	1090,00
1499,81	975,00
1505,24	933,00
1510,65	954,00
1516,07	1143,00
1521,48	1007,00
1526,88	959,00
1532,27	994,00
1537,67	1102,00
1543,05	971,00
1548,43	1032,00
1553,81	1117,00
1559,18	1000,00
1564,54	910,00
1569,90	918,00
1575,25	1002,00
1580,60	886,00
1585,94	936,00
1591,28	904,00
1596,61	788,00
1601,93	974,00
1607,25	1030,00
1612,57	1034,00
1617,88	871,00
1623,18	1017,00
1628,48	829,00
1633,77	829,00
1639,06	845,00
1644,34	905,00
1649,62	938,00
1654,89	950,00
1660,16	884,00
1665,42	843,00
1670,67	745,00
1675,92	912,00
1681,17	832,00
1686,41	877,00
1691,64	855,00
1696,87	856,00
1702,10	821,00
1707,32	856,00
1712,53	831,00
1717,74	873,00
1722,94	668,00
1728,14	834,00
1733,33	823,00
1738,52	757,00
1743,70	739,00
1748,88	781,00
1754,05	824,00
1759,22	740,00
1764,38	811,00
1769,53	800,00
1774,69	715,00
1779,83	791,00
1784,97	704,00
1790,11	616,00
1795,24	822,00
1800,36	849,00
1805,48	833,00
1810,60	733,00
1815,71	646,00
1820,82	668,00
1825,92	626,00
1831,01	773,00
1836,10	652,00
1841,19	694,00
1846,26	751,00
1851,34	664,00
1856,41	689,00
1861,47	579,00
1866,53	680,00
1871,59	554,00
1876,64	537,00
1881,68	594,00
1886,72	555,00
1891,76	674,00
1896,79	672,00
1901,81	717,00
1906,83	516,00
1911,85	651,00
1916,86	686,00
1921,86	705,00
1926,86	560,00
1931,86	729,00
1936,85	426,00
1941,83	624,00
1946,81	615,00
1951,79	506,00
1956,76	592,00
1961,72	534,00
1966,68	558,00
1971,64	512,00
1976,59	607,00
1981,54	489,00
1986,48	577,00
1991,42	604,00
1996,35	616,00
2001,27	453,00
2006,20	461,00
2011,11	633,00
2016,03	637,00
2020,93	414,00
2025,84	537,00
2030,73	469,00
2035,63	522,00
2040,52	600,00
2045,40	547,00
2050,28	512,00
2055,15	418,00
2060,02	406,00
2064,89	540,00
2069,75	579,00
2074,60	440,00
2079,46	520,00
2084,30	489,00
2089,14	540,00
2093,98	486,00
2098,81	506,00
2103,64	548,00
2108,46	471,00
2113,28	546,00
2118,09	393,00
2122,90	443,00
2127,70	436,00
2132,50	461,00
2137,30	464,00
2142,09	509,00
2146,87	391,00
2151,66	520,00
2156,43	447,00
2161,20	354,00
2165,97	431,00
2170,73	428,00
2175,49	504,00
2180,24	380,00
2184,99	647,00
2189,74	461,00
2194,48	449,00
2199,21	493,00
2203,94	351,00
2208,67	317,00
2213,39	511,00
2218,11	320,00
2222,82	410,00
2227,53	433,00
2232,23	378,00
2236,93	442,00
2241,63	455,00
2246,32	407,00
2251,00	437,00
2255,68	418,00
2260,36	371,00
2265,03	441,00
2269,70	292,00
2274,36	387,00
2279,02	326,00
2283,68	430,00
2288,33	359,00
2292,97	379,00
2297,61	336,00
2302,25	365,00
2306,88	518,00
2311,51	420,00
2316,14	378,00
2320,75	455,00
2325,37	401,00
2329,98	461,00
2334,59	335,00
2339,19	408,00
2343,79	255,00
2348,38	335,00
2352,97	335,00
2357,55	292,00
2362,13	373,00
2366,71	509,00
2371,28	289,00
2375,85	339,00
2380,41	317,00
2384,97	347,00
2389,52	229,00
2394,07	292,00
2398,62	272,00
2403,16	438,00
2407,70	476,00
2412,23	453,00
2416,76	377,00
2421,29	439,00
2425,81	372,00
2430,32	369,00
2434,84	212,00
2439,34	460,00
2443,85	246,00
2448,35	266,00
2452,84	272,00
2457,33	237,00
2461,82	389,00
2466,30	294,00
2470,78	437,00
2475,25	217,00
2479,72	240,00
2484,19	360,00
2488,65	405,00
2493,11	275,00
2497,56	305,00
2502,01	289,00
2506,46	392,00
2510,90	229,00
2515,34	466,00
2519,77	280,00
2524,20	355,00
2528,62	182,00
2533,04	290,00
2537,46	265,00
2541,87	269,00
2546,28	213,00
2550,68	316,00
2555,08	319,00
2559,48	378,00
2563,87	244,00
2568,26	265,00
2572,64	227,00
2577,02	349,00
2581,40	304,00
2585,77	283,00
2590,14	257,00
2594,50	190,00
2598,86	212,00
2603,22	293,00
2607,57	290,00
2611,92	233,00
2616,26	280,00
2620,60	368,00
2624,94	294,00
2629,27	329,00
2633,60	191,00
2637,92	284,00
2642,24	278,00
2646,56	192,00
2650,87	163,00
2655,18	293,00
2659,48	249,00
2663,78	275,00
2668,08	380,00
2672,37	334,00
2676,66	301,00
2680,95	314,00
2685,23	265,00
2689,50	229,00
2693,78	376,00
2698,05	311,00
2702,31	228,00
2706,57	305,00
2710,83	376,00
2715,08	281,00
2719,33	299,00
2723,58	477,00
2727,82	494,00
2732,06	301,00
2736,29	407,00
2740,53	337,00
2744,75	356,00
2748,97	269,00
2753,19	425,00
2757,41	338,00
2761,62	355,00
2765,83	258,00
2770,03	130,00
2774,23	297,00
2778,43	415,00
2782,62	259,00
2786,81	222,00
2791,00	332,00
2795,18	457,00
2799,35	302,00
2803,53	481,00
2807,70	472,00
2811,86	295,00
2816,03	488,00
2820,19	416,00
2824,34	443,00
2828,49	665,00
2832,64	686,00
2836,78	616,00
2840,92	790,00
2845,06	965,00
2849,19	906,00
2853,32	1033,00
2857,45	1001,00
2861,57	1106,00
2865,69	1116,00
2869,80	1096,00
2873,91	1038,00
2878,02	1191,00
2882,12	1170,00
2886,22	1091,00
2890,32	1101,00
2894,41	1140,00
2898,50	965,00
2902,58	921,00
2906,67	942,00
2910,74	758,00
2914,82	750,00
2918,89	736,00
2922,96	784,00
2927,02	660,00
2931,08	718,00
2935,13	552,00
2939,19	638,00
2943,24	463,00
2947,28	464,00
2951,32	277,00
2955,36	456,00
2959,40	390,00
2963,43	311,00
2967,46	394,00
2971,48	367,00
2975,50	194,00
2979,52	282,00
2983,53	327,00
2987,54	327,00
2991,55	273,00
2995,55	237,00
2999,55	228,00
3003,54	142,00
3007,54	151,00
3011,53	177,00
3015,51	285,00
3019,49	238,00
3023,47	261,00
3027,45	283,00
3031,42	300,00
3035,39	152,00
3039,35	188,00
3043,31	98,00
3047,27	122,00
3051,22	272,00
3055,17	191,00
3059,12	100,00
3063,06	250,00
3067,00	31,00
3070,94	113,00
3074,87	45,00
3078,80	181,00
3082,73	173,00
3086,65	201,00
3090,57	123,00
3094,49	162,00
3098,40	163,00
3102,31	252,00
3106,22	170,00
3110,12	125,00
3114,02	223,00
3117,92	147,00
3121,81	200,00
3125,70	160,00
3129,58	201,00
3133,47	36,00
3137,34	148,00
3141,22	126,00
3145,09	176,00
3148,96	139,00
3152,83	109,00
3156,69	141,00
3160,55	196,00
3164,40	116,00
3168,26	127,00
3172,10	167,00
3175,95	238,00
3179,79	199,00
3183,63	67,00
3187,47	329,00
3191,30	216,00
3195,13	230,00
3198,95	83,00
3202,78	139,00
3206,60	131,00
3210,41	43,00
3214,23	226,00
3218,03	176,00
3221,84	211,00
3225,64	100,00
3229,44	121,00
3233,24	258,00
3237,03	185,00
3240,82	36,00
3244,61	79,00
3248,39	53,00
3252,17	202,00
3255,95	258,00
3259,72	207,00
3263,49	119,00
3267,26	141,00
3271,03	96,00
3274,79	111,00
3278,54	258,00
3282,30	178,00
3286,05	213,00
3289,80	84,00
3293,54	86,00
3297,29	100,00
3301,02	57,00
3304,76	159,00
3308,49	148,00
3312,22	-36,00
3315,95	153,00
3319,67	3,00
3323,39	150,00
3327,10	132,00
3330,82	158,00
3334,53	118,00
3338,24	149,00
3341,94	224,00
3345,64	130,00
3349,34	-32,00
3353,03	143,00
3356,72	113,00
3360,41	143,00
3364,10	195,00
3367,78	126,00
3371,46	132,00
3375,13	128,00
3378,81	98,00
3382,48	58,00
3386,14	247,00
3389,81	96,00
3393,47	209,00
3397,12	119,00
3400,78	203,00
3404,43	120,00
3408,08	47,00
3411,72	127,00
3415,36	127,00
3419,00	77,00
3422,64	-36,00
3426,27	120,00
3429,90	4,00
3433,53	102,00
3437,15	99,00
3440,77	110,00
3444,39	64,00
3448,00	27,00
3451,62	246,00
3455,22	153,00
3458,83	32,00
3462,43	180,00
3466,03	63,00
3469,63	28,00
3473,22	140,00
3476,81	60,00
3480,40	134,00
3483,99	204,00
3487,57	89,00
3491,15	35,00
3494,72	40,00
3498,29	170,00
3501,86	61,00
3505,43	118,00
3508,99	79,00
3512,56	173,00
3516,11	70,00
3519,67	192,00
3523,22	90,00
3526,77	142,00
3530,32	127,00
3533,86	-51,00
3537,40	101,00
3540,94	196,00
3544,47	-12,00
3548,00	202,00
3551,53	145,00
3555,06	104,00
3558,58	81,00
3562,10	26,00
3565,62	109,00
3569,13	108,00
3572,64	234,00
3576,15	124,00
3579,66	128,00
3583,16	119,00
3586,66	59,00
3590,16	97,00
3593,65	64,00
3597,14	41,00
3600,63	196,00
3604,11	82,00
3607,60	33,00
3611,08	102,00
3614,55	-82,00
3618,03	111,00
3621,50	43,00
3624,97	61,00
3628,43	-18,00
3631,90	21,00
3635,36	124,00
3638,81	66,00
3642,27	29,00
3645,72	140,00
3649,17	158,00
3652,61	93,00
3656,06	54,00
3659,50	143,00
3662,93	44,00
3666,37	22,00
3669,80	125,00
3673,23	93,00
3676,65	191,00
3680,08	45,00
3683,50	63,00
3686,92	79,00
3690,33	123,00
3693,74	151,00
3697,15	140,00
3700,56	75,00
3703,96	47,00
3707,36	22,00
3710,76	95,00
3714,16	83,00
3717,55	-4,00
3720,94	67,00
3724,33	115,00
3727,71	79,00
3731,10	132,00
3734,48	31,00
3737,85	-72,00
3741,23	15,00
3744,60	32,00
3747,97	-12,00
3751,33	105,00
3754,69	117,00
3758,05	95,00
3761,41	65,00
3764,77	79,00
3768,12	120,00
3771,47	36,00
3774,82	17,00
3778,16	-2,00
3781,50	2,00
3784,84	7,00
3788,18	5,00
>>>>>End Processed Spectral Data<<<<<
