SpectraSuite Data File
++++++++++++++++++++++++++++++++++++
Date: Mon Mar 09 16:25:33 ICT 2026
User: Administrator
Dark Spectrum Present: Yes
Reference Spectrum Present: No
Number of Sampled Component Spectra: 1
Spectrometers: MAYP113682
Integration Time (usec): 3000000 (MAYP113682)
Spectra Averaged: 1 (MAYP113682)
Boxcar Smoothing: 0 (MAYP113682)
Correct for Electrical Dark: No (MAYP113682)
Strobe/Lamp Enabled: No (MAYP113682)
Correct for Detector Non-linearity: No (MAYP113682)
Correct for Stray Light: No (MAYP113682)
Number of Pixels in Processed Spectrum: 2068
>>>>>Begin Processed Spectral Data<<<<<
-37534,58	-3,00
-37414,56	3,00
-37295,11	-4,00
-37176,24	1,00
-37057,95	38,00
-36940,22	120,00
-36823,05	174,00
-36706,45	78,00
-36590,40	128,00
-36474,90	165,00
-36359,95	123,00
-36245,55	101,00
-36131,68	95,00
-36018,35	123,00
-35905,55	61,00
-35793,29	-23,00
-35681,54	112,00
-35570,32	76,00
-35459,62	89,00
-35349,43	38,00
-35239,75	41,00
-35130,58	126,00
-35021,91	-48,00
-34913,74	11,00
-34806,07	101,00
-34698,89	90,00
-34592,20	-25,00
-34486,00	115,00
-34380,28	184,00
-34275,04	67,00
-34170,27	49,00
-34065,98	-19,00
-33962,16	107,00
-33858,81	63,00
-33755,92	183,00
-33653,49	142,00
-33551,52	59,00
-33450,01	77,00
-33348,94	110,00
-33248,33	48,00
-33148,16	-58,00
-33048,43	169,00
-32949,14	159,00
-32850,29	111,00
-32751,87	80,00
-32653,89	118,00
-32556,33	11,00
-32459,20	197,00
-32362,49	236,00
-32266,19	133,00
-32170,32	-8,00
-32074,86	100,00
-31979,82	-75,00
-31885,18	162,00
-31790,95	141,00
-31697,12	-13,00
-31603,69	225,00
-31510,67	77,00
-31418,04	77,00
-31325,80	134,00
-31233,95	293,00
-31142,49	93,00
-31051,42	194,00
-30960,73	150,00
-30870,43	72,00
-30780,50	76,00
-30690,95	20,00
-30601,77	197,00
-30512,97	251,00
-30424,53	31,00
-30336,46	108,00
-30248,76	-23,00
-30161,42	163,00
-30074,44	107,00
-29987,81	120,00
-29901,55	181,00
-29815,63	155,00
-29730,07	74,00
-29644,86	90,00
-29560,00	-20,00
-29475,48	236,00
-29391,30	42,00
-29307,47	37,00
-29223,97	58,00
-29140,81	131,00
-29057,99	161,00
-28975,50	37,00
-28893,34	168,00
-28811,51	127,00
-28730,00	99,00
-28648,82	26,00
-28567,97	82,00
-28487,43	99,00
-28407,21	44,00
-28327,32	149,00
-28247,73	169,00
-28168,46	140,00
-28089,50	-29,00
-28010,85	-78,00
-27932,51	69,00
-27854,48	52,00
-27776,75	73,00
-27699,32	120,00
-27622,19	134,00
-27545,37	96,00
-27468,84	115,00
-27392,60	31,00
-27316,66	30,00
-27241,01	108,00
-27165,66	93,00
-27090,59	73,00
-27015,81	126,00
-26941,31	44,00
-26867,10	114,00
-26793,17	12,00
-26719,52	28,00
-26646,15	186,00
-26573,06	74,00
-26500,24	39,00
-26427,70	53,00
-26355,43	141,00
-26283,43	57,00
-26211,71	37,00
-26140,25	152,00
-26069,06	112,00
-25998,13	163,00
-25927,46	40,00
-25857,06	118,00
-25786,92	-33,00
-25717,04	116,00
-25647,42	140,00
-25578,05	160,00
-25508,94	193,00
-25440,09	21,00
-25371,48	164,00
-25303,13	134,00
-25235,02	79,00
-25167,17	83,00
-25099,56	83,00
-25032,19	136,00
-24965,07	122,00
-24898,20	60,00
-24831,56	102,00
-24765,17	69,00
-24699,01	147,00
-24633,10	214,00
-24567,41	115,00
-24501,97	234,00
-24436,75	79,00
-24371,77	224,00
-24307,03	109,00
-24242,51	142,00
-24178,22	32,00
-24114,16	138,00
-24050,32	164,00
-23986,71	127,00
-23923,32	136,00
-23860,16	35,00
-23797,22	127,00
-23734,50	97,00
-23672,00	-41,00
-23609,71	80,00
-23547,65	208,00
-23485,80	85,00
-23424,16	59,00
-23362,74	73,00
-23301,53	63,00
-23240,54	-98,00
-23179,75	140,00
-23119,17	88,00
-23058,80	36,00
-22998,64	56,00
-22938,68	125,00
-22878,93	106,00
-22819,39	98,00
-22760,04	46,00
-22700,90	-64,00
-22641,96	57,00
-22583,22	131,00
-22524,68	73,00
-22466,33	92,00
-22408,19	70,00
-22350,23	-22,00
-22292,48	145,00
-22234,92	135,00
-22177,55	42,00
-22120,37	194,00
-22063,38	179,00
-22006,58	102,00
-21949,98	141,00
-21893,56	121,00
-21837,33	2,00
-21781,28	135,00
-21725,42	109,00
-21669,74	110,00
-21614,25	90,00
-21558,94	92,00
-21503,81	42,00
-21448,86	-21,00
-21394,10	159,00
-21339,51	48,00
-21285,10	90,00
-21230,86	57,00
-21176,81	69,00
-21122,93	103,00
-21069,22	74,00
-21015,69	134,00
-20962,33	57,00
-20909,14	98,00
-20856,13	66,00
-20803,28	138,00
-20750,61	102,00
-20698,10	4,00
-20645,76	27,00
-20593,59	188,00
-20541,59	124,00
-20489,75	-6,00
-20438,07	143,00
-20386,56	-11,00
-20335,22	132,00
-20284,03	15,00
-20233,01	47,00
-20182,15	7,00
-20131,45	60,00
-20080,91	-1,00
-20030,52	76,00
-19980,30	36,00
-19930,23	106,00
-19880,32	51,00
-19830,56	35,00
-19780,96	77,00
-19731,52	123,00
-19682,23	120,00
-19633,09	102,00
-19584,10	38,00
-19535,26	107,00
-19486,58	223,00
-19438,04	118,00
-19389,66	26,00
-19341,42	-18,00
-19293,33	110,00
-19245,39	59,00
-19197,60	174,00
-19149,95	138,00
-19102,45	153,00
-19055,09	109,00
-19007,87	95,00
-18960,80	117,00
-18913,87	35,00
-18867,09	82,00
-18820,44	-13,00
-18773,94	69,00
-18727,57	2,00
-18681,35	113,00
-18635,26	86,00
-18589,31	137,00
-18543,50	34,00
-18497,83	94,00
-18452,29	137,00
-18406,89	88,00
-18361,63	137,00
-18316,50	144,00
-18271,50	199,00
-18226,63	39,00
-18181,90	38,00
-18137,30	171,00
-18092,84	69,00
-18048,50	138,00
-18004,29	131,00
-17960,22	-7,00
-17916,27	239,00
-17872,45	92,00
-17828,76	93,00
-17785,20	69,00
-17741,77	76,00
-17698,46	171,00
-17655,28	74,00
-17612,22	94,00
-17569,29	116,00
-17526,48	103,00
-17483,79	44,00
-17441,23	5,00
-17398,79	71,00
-17356,48	196,00
-17314,28	-35,00
-17272,21	29,00
-17230,26	68,00
-17188,42	154,00
-17146,71	67,00
-17105,12	72,00
-17063,64	82,00
-17022,28	168,00
-16981,04	145,00
-16939,92	100,00
-16898,91	46,00
-16858,02	103,00
-16817,25	69,00
-16776,59	56,00
-16736,04	84,00
-16695,61	51,00
-16655,29	75,00
-16615,09	141,00
-16574,99	72,00
-16535,01	117,00
-16495,15	85,00
-16455,39	52,00
-16415,74	151,00
-16376,21	77,00
-16336,78	79,00
-16297,46	98,00
-16258,26	117,00
-16219,16	95,00
-16180,17	79,00
-16141,28	57,00
-16102,51	94,00
-16063,84	40,00
-16025,27	143,00
-15986,82	233,00
-15948,46	-44,00
-15910,22	83,00
-15872,07	-4,00
-15834,04	159,00
-15796,10	57,00
-15758,27	242,00
-15720,54	43,00
-15682,91	-16,00
-15645,39	87,00
-15607,97	27,00
-15570,64	120,00
-15533,42	-25,00
-15496,30	134,00
-15459,28	133,00
-15422,36	21,00
-15385,54	32,00
-15348,82	21,00
-15312,19	-59,00
-15275,66	94,00
-15239,23	146,00
-15202,90	102,00
-15166,67	128,00
-15130,53	75,00
-15094,48	75,00
-15058,54	35,00
-15022,68	84,00
-14986,93	145,00
-14951,26	50,00
-14915,69	94,00
-14880,22	124,00
-14844,84	19,00
-14809,55	5,00
-14774,35	57,00
-14739,25	22,00
-14704,24	48,00
-14669,32	-19,00
-14634,49	186,00
-14599,75	123,00
-14565,10	99,00
-14530,55	97,00
-14496,08	106,00
-14461,70	114,00
-14427,41	58,00
-14393,21	73,00
-14359,10	68,00
-14325,07	-12,00
-14291,14	105,00
-14257,29	38,00
-14223,52	67,00
-14189,85	114,00
-14156,26	178,00
-14122,76	180,00
-14089,34	231,00
-14056,01	209,00
-14022,76	108,00
-13989,60	-48,00
-13956,52	95,00
-13923,53	34,00
-13890,62	109,00
-13857,79	51,00
-13825,05	175,00
-13792,39	117,00
-13759,81	82,00
-13727,31	100,00
-13694,90	39,00
-13662,57	114,00
-13630,31	103,00
-13598,14	9,00
-13566,05	45,00
-13534,05	166,00
-13502,12	-17,00
-13470,27	131,00
-13438,50	35,00
-13406,80	-54,00
-13375,19	135,00
-13343,66	21,00
-13312,20	57,00
-13280,83	6,00
-13249,53	18,00
-13218,30	69,00
-13187,16	65,00
-13156,09	62,00
-13125,10	86,00
-13094,18	73,00
-13063,34	29,00
-13032,58	67,00
-13001,89	83,00
-12971,28	15,00
-12940,74	85,00
-12910,27	68,00
-12879,88	29,00
-12849,57	173,00
-12819,33	152,00
-12789,16	-21,00
-12759,06	109,00
-12729,04	147,00
-12699,09	291,00
-12669,21	-32,00
-12639,41	35,00
-12609,68	110,00
-12580,02	103,00
-12550,43	47,00
-12520,91	144,00
-12491,46	136,00
-12462,08	53,00
-12432,77	84,00
-12403,54	-27,00
-12374,37	108,00
-12345,27	157,00
-12316,24	74,00
-12287,29	124,00
-12258,40	139,00
-12229,57	183,00
-12200,82	70,00
-12172,14	41,00
-12143,52	0,00
-12114,97	209,00
-12086,49	110,00
-12058,07	39,00
-12029,73	164,00
-12001,44	102,00
-11973,23	80,00
-11945,08	183,00
-11917,00	155,00
-11888,98	119,00
-11861,03	220,00
-11833,15	69,00
-11805,32	162,00
-11777,57	159,00
-11749,88	103,00
-11722,25	34,00
-11694,69	195,00
-11667,19	82,00
-11639,75	78,00
-11612,38	56,00
-11585,07	80,00
-11557,83	97,00
-11530,65	81,00
-11503,53	201,00
-11476,47	169,00
-11449,48	101,00
-11422,54	32,00
-11395,67	-13,00
-11368,86	159,00
-11342,11	68,00
-11315,43	69,00
-11288,80	110,00
-11262,23	93,00
-11235,73	71,00
-11209,28	15,00
-11182,90	155,00
-11156,57	128,00
-11130,31	144,00
-11104,10	-78,00
-11077,96	57,00
-11051,87	35,00
-11025,84	88,00
-10999,87	115,00
-10973,96	116,00
-10948,11	12,00
-10922,31	106,00
-10896,58	104,00
-10870,90	129,00
-10845,28	24,00
-10819,71	100,00
-10794,20	18,00
-10768,75	99,00
-10743,36	-1,00
-10718,02	50,00
-10692,74	120,00
-10667,52	186,00
-10642,35	133,00
-10617,24	38,00
-10592,18	141,00
-10567,18	208,00
-10542,23	207,00
-10517,34	213,00
-10492,51	96,00
-10467,72	216,00
-10443,00	179,00
-10418,32	103,00
-10393,70	-15,00
-10369,14	97,00
-10344,63	71,00
-10320,17	178,00
-10295,77	161,00
-10271,42	125,00
-10247,12	34,00
-10222,88	73,00
-10198,68	36,00
-10174,54	164,00
-10150,46	38,00
-10126,42	126,00
-10102,44	113,00
-10078,51	135,00
-10054,63	70,00
-10030,80	108,00
-10007,03	70,00
-9983,30	24,00
-9959,63	136,00
-9936,01	136,00
-9912,44	108,00
-9888,92	79,00
-9865,44	107,00
-9842,02	40,00
-9818,65	191,00
-9795,33	154,00
-9772,06	23,00
-9748,84	120,00
-9725,67	77,00
-9702,55	93,00
-9679,47	54,00
-9656,45	243,00
-9633,47	131,00
-9610,55	266,00
-9587,67	-55,00
-9564,84	192,00
-9542,06	112,00
-9519,32	182,00
-9496,64	178,00
-9474,00	137,00
-9451,41	162,00
-9428,87	77,00
-9406,37	154,00
-9383,92	83,00
-9361,52	63,00
-9339,17	-118,00
-9316,86	3,00
-9294,60	108,00
-9272,38	158,00
-9250,21	180,00
-9228,09	186,00
-9206,01	134,00
-9183,98	165,00
-9162,00	64,00
-9140,06	-74,00
-9118,16	26,00
-9096,31	92,00
-9074,51	160,00
-9052,75	142,00
-9031,04	169,00
-9009,37	161,00
-8987,74	34,00
-8966,16	-3,00
-8944,63	-11,00
-8923,14	-96,00
-8901,69	66,00
-8880,29	115,00
-8858,93	253,00
-8837,61	120,00
-8816,34	436,00
-8795,11	290,00
-8773,92	297,00
-8752,78	120,00
-8731,68	212,00
-8710,62	97,00
-8689,61	217,00
-8668,63	303,00
-8647,70	150,00
-8626,82	345,00
-8605,97	240,00
-8585,17	195,00
-8564,41	52,00
-8543,69	188,00
-8523,01	79,00
-8502,37	187,00
-8481,78	226,00
-8461,23	278,00
-8440,71	242,00
-8420,24	225,00
-8399,81	323,00
-8379,42	469,00
-8359,08	197,00
-8338,77	185,00
-8318,50	187,00
-8298,27	282,00
-8278,09	149,00
-8257,94	292,00
-8237,83	270,00
-8217,76	290,00
-8197,74	445,00
-8177,75	261,00
-8157,80	293,00
-8137,89	220,00
-8118,02	363,00
-8098,19	295,00
-8078,40	337,00
-8058,65	317,00
-8038,93	294,00
-8019,26	286,00
-7999,62	234,00
-7980,02	237,00
-7960,46	377,00
-7940,94	302,00
-7921,46	215,00
-7902,01	174,00
-7882,60	214,00
-7863,23	334,00
-7843,90	274,00
-7824,61	260,00
-7805,35	294,00
-7786,13	409,00
-7766,95	414,00
-7747,80	251,00
-7728,69	309,00
-7709,62	224,00
-7690,59	354,00
-7671,59	326,00
-7652,63	234,00
-7633,70	381,00
-7614,81	304,00
-7595,96	319,00
-7577,15	274,00
-7558,37	282,00
-7539,62	270,00
-7520,91	335,00
-7502,24	146,00
-7483,60	330,00
-7465,00	247,00
-7446,44	274,00
-7427,91	258,00
-7409,41	118,00
-7390,95	109,00
-7372,53	122,00
-7354,14	84,00
-7335,78	-9,00
-7317,46	246,00
-7299,18	128,00
-7280,92	202,00
-7262,71	286,00
-7244,52	333,00
-7226,38	269,00
-7208,26	274,00
-7190,18	336,00
-7172,14	354,00
-7154,12	163,00
-7136,15	190,00
-7118,20	264,00
-7100,29	263,00
-7082,41	167,00
-7064,57	285,00
-7046,76	153,00
-7028,98	2,00
-7011,24	66,00
-6993,53	-39,00
-6975,85	54,00
-6958,20	19,00
-6940,59	62,00
-6923,01	141,00
-6905,46	93,00
-6887,94	162,00
-6870,46	-2521,00
-6853,01	304,00
-6835,59	195,00
-6818,21	191,00
-6800,85	198,00
-6783,53	32,00
-6766,24	-30,00
-6748,98	-180,00
-6731,76	-145,00
-6714,56	-144,00
-6697,40	112,00
-6680,26	7,00
-6663,16	96,00
-6646,09	102,00
-6629,05	55,00
-6612,05	165,00
-6595,07	245,00
-6578,13	32,00
-6561,21	-13,00
-6544,33	46,00
-6527,47	25,00
-6510,65	-66,00
-6493,86	-88,00
-6477,10	-22,00
-6460,36	19,00
-6443,66	1,00
-6426,99	-73,00
-6410,35	-33,00
-6393,74	5,00
-6377,16	136,00
-6360,61	-11,00
-6344,09	50,00
-6327,59	13,00
-6311,13	19,00
-6294,70	80,00
-6278,29	195,00
-6261,92	191,00
-6245,58	104,00
-6229,26	149,00
-6212,97	153,00
-6196,72	-3,00
-6180,49	12,00
-6164,29	51,00
-6148,12	-45,00
-6131,98	-164,00
-6115,86	63,00
-6099,78	-203,00
-6083,72	-98,00
-6067,69	-141,00
-6051,69	-104,00
-6035,72	45,00
-6019,78	104,00
-6003,87	40,00
-5987,98	123,00
-5972,12	153,00
-5956,29	97,00
-5940,49	76,00
-5924,71	43,00
-5908,96	-43,00
-5893,24	-9,00
-5877,55	78,00
-5861,89	-4,00
-5846,25	2,00
-5830,64	-35,00
-5815,05	-23,00
-5799,50	55,00
-5783,97	-68,00
-5768,47	101,00
-5752,99	-37,00
-5737,55	167,00
-5722,12	-42,00
-5706,73	193,00
-5691,36	117,00
-5676,02	-59,00
-5660,71	199,00
-5645,42	71,00
-5630,16	76,00
-5614,92	73,00
-5599,71	0,00
-5584,53	-87,00
-5569,37	20,00
-5554,24	1122,00
-5539,14	129,00
-5524,06	-48,00
-5509,01	39,00
-5493,98	-11,00
-5478,98	11,00
-5464,00	-29,00
-5449,05	-44,00
-5434,13	23,00
-5419,23	-15,00
-5404,36	6,00
-5389,51	13,00
-5374,69	192,00
-5359,89	6,00
-5345,12	16,00
-5330,37	193,00
-5315,65	155,00
-5300,95	126,00
-5286,28	73,00
-5271,63	23,00
-5257,01	26,00
-5242,41	41,00
-5227,84	-171,00
-5213,29	-60,00
-5198,76	-43,00
-5184,26	80,00
-5169,79	83,00
-5155,33	52,00
-5140,91	21,00
-5126,51	68,00
-5112,13	56,00
-5097,77	61,00
-5083,44	16,00
-5069,13	56,00
-5054,85	50,00
-5040,59	10,00
-5026,36	-7,00
-5012,15	58,00
-4997,96	14,00
-4983,80	11,00
-4969,66	13,00
-4955,54	63,00
-4941,44	140,00
-4927,37	96,00
-4913,33	190,00
-4899,30	121,00
-4885,30	243,00
-4871,33	181,00
-4857,37	82,00
-4843,44	140,00
-4829,53	33,00
-4815,65	16,00
-4801,79	4,00
-4787,95	-42,00
-4774,13	61,00
-4760,34	99,00
-4746,56	57,00
-4732,82	50,00
-4719,09	44,00
-4705,38	164,00
-4691,70	124,00
-4678,04	70,00
-4664,41	144,00
-4650,79	64,00
-4637,20	63,00
-4623,63	23,00
-4610,08	80,00
-4596,56	0,00
-4583,05	0,00
-4569,57	62,00
-4556,11	116,00
-4542,67	67,00
-4529,25	101,00
-4515,86	109,00
-4502,49	121,00
-4489,13	49,00
-4475,80	69,00
-4462,49	160,00
-4449,21	129,00
-4435,94	58,00
-4422,70	94,00
-4409,47	105,00
-4396,27	58,00
-4383,09	77,00
-4369,93	-12,00
-4356,79	45,00
-4343,67	114,00
-4330,58	64,00
-4317,50	117,00
-4304,45	48,00
-4291,41	74,00
-4278,40	1,00
-4265,41	30,00
-4252,44	191,00
-4239,49	111,00
-4226,55	116,00
-4213,65	148,00
-4200,76	46,00
-4187,89	7,00
-4175,04	35,00
-4162,21	114,00
-4149,40	92,00
-4136,61	183,00
-4123,85	119,00
-4111,10	9,00
-4098,37	46,00
-4085,66	209,00
-4072,98	155,00
-4060,31	21,00
-4047,66	166,00
-4035,04	47,00
-4022,43	173,00
-4009,84	147,00
-3997,27	25,00
-3984,72	165,00
-3972,19	56,00
-3959,69	18,00
-3947,20	70,00
-3934,73	123,00
-3922,27	113,00
-3909,84	82,00
-3897,43	168,00
-3885,04	46,00
-3872,67	87,00
-3860,31	27,00
-3847,98	180,00
-3835,66	57,00
-3823,36	65,00
-3811,09	150,00
-3798,83	93,00
-3786,59	91,00
-3774,37	195,00
-3762,17	203,00
-3749,98	51,00
-3737,82	-11,00
-3725,67	18,00
-3713,55	41,00
-3701,44	27,00
-3689,35	34,00
-3677,28	-73,00
-3665,22	21,00
-3653,19	69,00
-3641,17	135,00
-3629,18	135,00
-3617,20	95,00
-3605,24	137,00
-3593,30	-3,00
-3581,37	67,00
-3569,47	106,00
-3557,58	120,00
-3545,71	122,00
-3533,86	127,00
-3522,02	-13,00
-3510,21	170,00
-3498,41	-21,00
-3486,63	142,00
-3474,87	11,00
-3463,12	212,00
-3451,40	125,00
-3439,69	186,00
-3428,00	171,00
-3416,33	119,00
-3404,67	103,00
-3393,03	155,00
-3381,41	9,00
-3369,81	-47,00
-3358,22	163,00
-3346,66	133,00
-3335,10	-11,00
-3323,57	111,00
-3312,06	97,00
-3300,56	71,00
-3289,08	118,00
-3277,61	79,00
-3266,16	163,00
-3254,73	93,00
-3243,32	119,00
-3231,92	67,00
-3220,55	-6,00
-3209,18	-32,00
-3197,84	85,00
-3186,51	51,00
-3175,20	148,00
-3163,90	150,00
-3152,63	23,00
-3141,36	90,00
-3130,12	130,00
-3118,89	18,00
-3107,68	176,00
-3096,49	54,00
-3085,31	18,00
-3074,15	57,00
-3063,00	47,00
-3051,87	-14,00
-3040,76	61,00
-3029,67	70,00
-3018,59	-24,00
-3007,52	85,00
-2996,48	131,00
-2985,44	126,00
-2974,43	58,00
-2963,43	87,00
-2952,45	159,00
-2941,48	119,00
-2930,53	33,00
-2919,60	73,00
-2908,68	106,00
-2897,78	141,00
-2886,89	146,00
-2876,02	84,00
-2865,17	226,00
-2854,33	34,00
-2843,50	70,00
-2832,70	143,00
-2821,90	105,00
-2811,13	71,00
-2800,37	-36,00
-2789,62	205,00
-2778,89	304,00
-2768,18	177,00
-2757,48	-2,00
-2746,80	67,00
-2736,13	115,00
-2725,48	124,00
-2714,84	5,00
-2704,22	74,00
-2693,61	50,00
-2683,02	-49,00
-2672,45	137,00
-2661,89	49,00
-2651,34	-49,00
-2640,81	107,00
-2630,30	175,00
-2619,80	105,00
-2609,31	-4,00
-2598,84	59,00
-2588,39	34,00
-2577,95	170,00
-2567,52	98,00
-2557,11	90,00
-2546,71	71,00
-2536,33	170,00
-2525,97	21,00
-2515,62	94,00
-2505,28	200,00
-2494,96	32,00
-2484,65	105,00
-2474,36	506,00
-2464,08	172,00
-2453,82	85,00
-2443,57	148,00
-2433,33	77,00
-2423,11	167,00
-2412,91	144,00
-2402,72	111,00
-2392,54	172,00
-2382,38	123,00
-2372,23	27,00
-2362,09	347,00
-2351,97	59,00
-2341,87	50,00
-2331,78	92,00
-2321,70	-5,00
-2311,64	207,00
-2301,59	97,00
-2291,55	25,00
-2281,53	65,00
-2271,53	-12,00
-2261,53	169,00
-2251,55	81,00
-2241,59	138,00
-2231,64	63,00
-2221,70	62,00
-2211,78	163,00
-2201,87	164,00
-2191,97	62,00
-2182,09	48,00
-2172,22	102,00
-2162,37	64,00
-2152,53	73,00
-2142,70	37,00
-2132,89	39,00
-2123,09	11,00
-2113,30	214,00
-2103,53	224,00
-2093,77	89,00
-2084,02	119,00
-2074,29	137,00
-2064,57	128,00
-2054,86	90,00
-2045,17	76,00
-2035,49	35,00
-2025,82	-53,00
-2016,17	110,00
-2006,53	67,00
-1996,91	30,00
-1987,29	144,00
-1977,69	103,00
-1968,11	75,00
-1958,53	124,00
-1948,97	82,00
-1939,42	104,00
-1929,89	25,00
-1920,37	86,00
-1910,86	138,00
-1901,36	105,00
-1891,88	81,00
-1882,41	57,00
-1872,95	106,00
-1863,51	94,00
-1854,08	100,00
-1844,66	172,00
-1835,26	207,00
-1825,86	205,00
-1816,48	96,00
-1807,11	109,00
-1797,76	80,00
-1788,42	92,00
-1779,09	103,00
-1769,77	43,00
-1760,47	100,00
-1751,17	94,00
-1741,89	-5,00
-1732,63	146,00
-1723,37	337,00
-1714,13	58,00
-1704,90	29,00
-1695,68	140,00
-1686,48	68,00
-1677,29	176,00
-1668,11	266,00
-1658,94	123,00
-1649,78	135,00
-1640,64	230,00
-1631,51	29,00
-1622,39	56,00
-1613,28	5,00
-1604,19	-58,00
-1595,10	103,00
-1586,03	96,00
-1576,97	-56,00
-1567,93	131,00
-1558,89	22,00
-1549,87	82,00
-1540,86	98,00
-1531,86	64,00
-1522,87	1,00
-1513,90	227,00
-1504,93	-99,00
-1495,98	215,00
-1487,04	213,00
-1478,12	54,00
-1469,20	62,00
-1460,30	72,00
-1451,40	7,00
-1442,52	260,00
-1433,65	161,00
-1424,80	153,00
-1415,95	118,00
-1407,12	145,00
-1398,30	186,00
-1389,48	74,00
-1380,69	98,00
-1371,90	41,00
-1363,12	188,00
-1354,36	151,00
-1345,60	105,00
-1336,86	67,00
-1328,13	20,00
-1319,41	40,00
-1310,70	163,00
-1302,01	5,00
-1293,32	-4,00
-1284,65	95,00
-1275,99	66,00
-1267,33	4,00
-1258,69	169,00
-1250,06	218,00
-1241,45	100,00
-1232,84	97,00
-1224,25	95,00
-1215,66	86,00
-1207,09	103,00
-1198,53	133,00
-1189,97	180,00
-1181,43	112,00
-1172,91	70,00
-1164,39	105,00
-1155,88	160,00
-1147,38	99,00
-1138,90	74,00
-1130,43	42,00
-1121,96	107,00
-1113,51	164,00
-1105,07	57,00
-1096,64	39,00
-1088,22	98,00
-1079,81	118,00
-1071,41	176,00
-1063,02	136,00
-1054,65	196,00
-1046,28	-17,00
-1037,92	82,00
-1029,58	171,00
-1021,24	143,00
-1012,92	128,00
-1004,61	-43,00
-996,30	193,00
-988,01	-17,00
-979,73	39,00
-971,46	92,00
-963,20	-106,00
-954,95	65,00
-946,71	81,00
-938,48	72,00
-930,26	112,00
-922,06	130,00
-913,86	65,00
-905,67	8,00
-897,49	25,00
-889,33	66,00
-881,17	70,00
-873,02	22,00
-864,89	93,00
-856,76	177,00
-848,65	127,00
-840,54	104,00
-832,45	23,00
-824,36	147,00
-816,29	80,00
-808,22	118,00
-800,17	-62,00
-792,12	70,00
-784,09	125,00
-776,06	26,00
-768,05	97,00
-760,04	93,00
-752,05	204,00
-744,07	75,00
-736,09	43,00
-728,13	109,00
-720,17	79,00
-712,23	134,00
-704,29	121,00
-696,37	170,00
-688,45	163,00
-680,55	114,00
-672,65	234,00
-664,77	162,00
-656,89	27,00
-649,03	121,00
-641,17	85,00
-633,32	22,00
-625,49	147,00
-617,66	98,00
-609,84	104,00
-602,03	123,00
-594,23	-8,00
-586,45	189,00
-578,67	68,00
-570,90	101,00
-563,14	149,00
-555,39	-38,00
-547,65	115,00
-539,91	54,00
-532,19	81,00
-524,48	45,00
-516,78	63,00
-509,08	123,00
-501,40	88,00
-493,72	67,00
-486,06	82,00
-478,40	71,00
-470,76	162,00
-463,12	210,00
-455,49	89,00
-447,87	144,00
-440,26	73,00
-432,66	82,00
-425,07	-81,00
-417,49	194,00
-409,92	-31,00
-402,35	263,00
-394,80	148,00
-387,25	63,00
-379,72	68,00
-372,19	186,00
-364,67	211,00
-357,17	123,00
-349,67	103,00
-342,18	152,00
-334,69	178,00
-327,22	13,00
-319,76	61,00
-312,30	194,00
-304,86	193,00
-297,42	87,00
-290,00	122,00
-282,58	114,00
-275,17	155,00
-267,77	40,00
-260,37	68,00
-252,99	266,00
-245,62	137,00
-238,25	55,00
-230,90	137,00
-223,55	119,00
-216,21	185,00
-208,88	221,00
-201,56	249,00
-194,25	293,00
-186,94	267,00
-179,65	141,00
-172,36	200,00
-165,08	218,00
-157,81	203,00
-150,55	268,00
-143,30	365,00
-136,06	419,00
-128,82	450,00
-121,60	406,00
-114,38	455,00
-107,17	477,00
-99,97	522,00
-92,78	427,00
-85,60	587,00
-78,42	863,00
-71,25	912,00
-64,10	1058,00
-56,95	1192,00
-49,81	1405,00
-42,67	1701,00
-35,55	2071,00
-28,43	2744,00
-21,33	4564,00
-14,23	15065,00
-7,14	55164,00
-0,05	54791,00
7,02	54542,00
14,09	49800,00
21,14	13401,00
28,19	5610,00
35,23	3529,00
42,27	2798,00
49,29	2165,00
56,31	1773,00
63,32	1513,00
70,32	1275,00
77,31	1090,00
84,29	900,00
91,27	895,00
98,23	728,00
105,19	796,00
112,14	836,00
119,09	1223,00
126,02	1909,00
132,95	2434,00
139,87	2632,00
146,78	2572,00
153,68	2429,00
160,58	2430,00
167,46	2367,00
174,34	2494,00
181,21	2561,00
188,08	2355,00
194,93	2182,00
201,78	2332,00
208,62	2358,00
215,45	2422,00
222,27	2520,00
229,09	2354,00
235,90	2368,00
242,70	2233,00
249,49	2348,00
256,27	2206,00
263,05	2191,00
269,82	2279,00
276,58	2347,00
283,33	2159,00
290,08	2277,00
296,82	2139,00
303,55	2145,00
310,27	2071,00
316,98	2036,00
323,69	2140,00
330,39	1926,00
337,08	2020,00
343,76	2040,00
350,44	2016,00
357,11	1965,00
363,77	2001,00
370,42	2030,00
377,07	2000,00
383,71	2060,00
390,34	1895,00
396,96	1942,00
403,58	1955,00
410,19	1996,00
416,79	1883,00
423,38	1958,00
429,97	1910,00
436,55	1995,00
443,12	1943,00
449,68	1814,00
456,24	1847,00
462,79	1659,00
469,33	1776,00
475,86	1766,00
482,39	1743,00
488,91	1635,00
495,42	1761,00
501,93	1799,00
508,42	1568,00
514,91	1732,00
521,40	1628,00
527,87	1618,00
534,34	1624,00
540,80	1581,00
547,25	1512,00
553,70	1561,00
560,14	1613,00
566,57	1585,00
573,00	1606,00
579,41	1609,00
585,83	1514,00
592,23	1461,00
598,62	1536,00
605,01	1480,00
611,40	1582,00
617,77	1571,00
624,14	1560,00
630,50	1581,00
636,85	1411,00
643,20	1416,00
649,54	1505,00
655,87	1377,00
662,20	1390,00
668,52	1359,00
674,83	1371,00
681,13	1344,00
687,43	1324,00
693,72	1386,00
700,00	1371,00
706,28	1351,00
712,55	1291,00
718,81	1426,00
725,07	1328,00
731,32	1246,00
737,56	1390,00
743,79	1464,00
750,02	1391,00
756,24	1354,00
762,46	1292,00
768,67	1397,00
774,87	1302,00
781,06	1300,00
787,25	1330,00
793,43	1421,00
799,60	1321,00
805,77	1233,00
811,93	1424,00
818,08	1254,00
824,23	1352,00
830,37	1289,00
836,50	1455,00
842,63	1360,00
848,75	1359,00
854,87	1318,00
860,97	1323,00
867,07	1349,00
873,17	1297,00
879,25	1276,00
885,33	1235,00
891,41	1306,00
897,47	1204,00
903,53	1318,00
909,59	1303,00
915,63	1226,00
921,67	1192,00
927,71	1069,00
933,74	1188,00
939,76	1101,00
945,77	1053,00
951,78	1029,00
957,78	1155,00
963,78	1195,00
969,77	1076,00
975,75	1201,00
981,72	1155,00
987,69	1309,00
993,66	1147,00
999,61	1146,00
1005,56	1126,00
1011,51	1202,00
1017,44	1131,00
1023,37	1118,00
1029,30	1198,00
1035,22	1255,00
1041,13	1195,00
1047,03	1212,00
1052,93	1248,00
1058,83	1478,00
1064,71	1543,00
1070,59	1498,00
1076,47	1295,00
1082,33	1259,00
1088,20	1186,00
1094,05	1103,00
1099,90	1146,00
1105,74	1182,00
1111,58	1190,00
1117,41	1083,00
1123,23	1330,00
1129,05	1390,00
1134,86	1424,00
1140,67	1157,00
1146,47	1187,00
1152,26	1134,00
1158,05	1022,00
1163,83	1057,00
1169,60	1188,00
1175,37	1094,00
1181,13	1077,00
1186,89	1155,00
1192,64	894,00
1198,38	1197,00
1204,12	998,00
1209,85	915,00
1215,58	1080,00
1221,30	947,00
1227,02	1110,00
1232,72	1074,00
1238,43	992,00
1244,12	1192,00
1249,81	1008,00
1255,50	1044,00
1261,17	1159,00
1266,85	1050,00
1272,51	1121,00
1278,17	1043,00
1283,83	1160,00
1289,47	1452,00
1295,12	1794,00
1300,75	1622,00
1306,38	1459,00
1312,01	1411,00
1317,63	1129,00
1323,24	1074,00
1328,85	1238,00
1334,45	1113,00
1340,04	1092,00
1345,63	1208,00
1351,22	1192,00
1356,80	1148,00
1362,37	1025,00
1367,93	1192,00
1373,49	1291,00
1379,05	1154,00
1384,60	1153,00
1390,14	1108,00
1395,68	1061,00
1401,21	1010,00
1406,74	1068,00
1412,26	1223,00
1417,77	1221,00
1423,28	1324,00
1428,78	1366,00
1434,28	1656,00
1439,77	1809,00
1445,26	1676,00
1450,74	1723,00
1456,22	1448,00
1461,68	1484,00
1467,15	1514,00
1472,61	1300,00
1478,06	1333,00
1483,51	1293,00
1488,95	1156,00
1494,38	1076,00
1499,81	1096,00
1505,24	911,00
1510,65	1017,00
1516,07	1089,00
1521,48	886,00
1526,88	1026,00
1532,27	907,00
1537,67	952,00
1543,05	927,00
1548,43	975,00
1553,81	991,00
1559,18	919,00
1564,54	923,00
1569,90	959,00
1575,25	918,00
1580,60	934,00
1585,94	823,00
1591,28	889,00
1596,61	928,00
1601,93	947,00
1607,25	960,00
1612,57	942,00
1617,88	1029,00
1623,18	941,00
1628,48	887,00
1633,77	843,00
1639,06	861,00
1644,34	806,00
1649,62	931,00
1654,89	858,00
1660,16	856,00
1665,42	771,00
1670,67	819,00
1675,92	918,00
1681,17	746,00
1686,41	834,00
1691,64	667,00
1696,87	860,00
1702,10	709,00
1707,32	842,00
1712,53	820,00
1717,74	815,00
1722,94	603,00
1728,14	705,00
1733,33	756,00
1738,52	704,00
1743,70	734,00
1748,88	730,00
1754,05	647,00
1759,22	738,00
1764,38	808,00
1769,53	782,00
1774,69	739,00
1779,83	777,00
1784,97	676,00
1790,11	663,00
1795,24	823,00
1800,36	670,00
1805,48	693,00
1810,60	721,00
1815,71	636,00
1820,82	642,00
1825,92	604,00
1831,01	797,00
1836,10	614,00
1841,19	741,00
1846,26	738,00
1851,34	579,00
1856,41	697,00
1861,47	667,00
1866,53	639,00
1871,59	552,00
1876,64	569,00
1881,68	511,00
1886,72	615,00
1891,76	645,00
1896,79	521,00
1901,81	662,00
1906,83	541,00
1911,85	550,00
1916,86	627,00
1921,86	541,00
1926,86	590,00
1931,86	609,00
1936,85	500,00
1941,83	608,00
1946,81	652,00
1951,79	563,00
1956,76	515,00
1961,72	390,00
1966,68	431,00
1971,64	491,00
1976,59	545,00
1981,54	512,00
1986,48	512,00
1991,42	530,00
1996,35	478,00
2001,27	510,00
2006,20	534,00
2011,11	610,00
2016,03	553,00
2020,93	498,00
2025,84	538,00
2030,73	411,00
2035,63	470,00
2040,52	582,00
2045,40	528,00
2050,28	507,00
2055,15	338,00
2060,02	510,00
2064,89	628,00
2069,75	479,00
2074,60	377,00
2079,46	447,00
2084,30	352,00
2089,14	512,00
2093,98	473,00
2098,81	478,00
2103,64	494,00
2108,46	412,00
2113,28	408,00
2118,09	408,00
2122,90	388,00
2127,70	407,00
2132,50	564,00
2137,30	488,00
2142,09	407,00
2146,87	404,00
2151,66	506,00
2156,43	475,00
2161,20	391,00
2165,97	415,00
2170,73	442,00
2175,49	399,00
2180,24	365,00
2184,99	577,00
2189,74	359,00
2194,48	347,00
2199,21	505,00
2203,94	411,00
2208,67	402,00
2213,39	504,00
2218,11	294,00
2222,82	380,00
2227,53	411,00
2232,23	317,00
2236,93	355,00
2241,63	405,00
2246,32	401,00
2251,00	347,00
2255,68	379,00
2260,36	344,00
2265,03	416,00
2269,70	312,00
2274,36	372,00
2279,02	305,00
2283,68	436,00
2288,33	303,00
2292,97	320,00
2297,61	414,00
2302,25	445,00
2306,88	369,00
2311,51	290,00
2316,14	235,00
2320,75	368,00
2325,37	376,00
2329,98	388,00
2334,59	336,00
2339,19	291,00
2343,79	235,00
2348,38	271,00
2352,97	314,00
2357,55	313,00
2362,13	343,00
2366,71	460,00
2371,28	307,00
2375,85	291,00
2380,41	237,00
2384,97	189,00
2389,52	171,00
2394,07	256,00
2398,62	270,00
2403,16	341,00
2407,70	350,00
2412,23	376,00
2416,76	341,00
2421,29	350,00
2425,81	285,00
2430,32	329,00
2434,84	356,00
2439,34	315,00
2443,85	267,00
2448,35	237,00
2452,84	254,00
2457,33	240,00
2461,82	418,00
2466,30	322,00
2470,78	354,00
2475,25	219,00
2479,72	221,00
2484,19	360,00
2488,65	367,00
2493,11	324,00
2497,56	336,00
2502,01	273,00
2506,46	325,00
2510,90	251,00
2515,34	393,00
2519,77	165,00
2524,20	296,00
2528,62	211,00
2533,04	379,00
2537,46	233,00
2541,87	268,00
2546,28	285,00
2550,68	298,00
2555,08	350,00
2559,48	317,00
2563,87	163,00
2568,26	273,00
2572,64	222,00
2577,02	241,00
2581,40	282,00
2585,77	322,00
2590,14	173,00
2594,50	198,00
2598,86	274,00
2603,22	242,00
2607,57	224,00
2611,92	174,00
2616,26	208,00
2620,60	298,00
2624,94	264,00
2629,27	259,00
2633,60	177,00
2637,92	241,00
2642,24	269,00
2646,56	209,00
2650,87	194,00
2655,18	237,00
2659,48	222,00
2663,78	292,00
2668,08	294,00
2672,37	302,00
2676,66	276,00
2680,95	287,00
2685,23	304,00
2689,50	299,00
2693,78	197,00
2698,05	238,00
2702,31	357,00
2706,57	351,00
2710,83	387,00
2715,08	373,00
2719,33	369,00
2723,58	410,00
2727,82	482,00
2732,06	223,00
2736,29	336,00
2740,53	369,00
2744,75	350,00
2748,97	390,00
2753,19	282,00
2757,41	360,00
2761,62	366,00
2765,83	291,00
2770,03	198,00
2774,23	128,00
2778,43	350,00
2782,62	282,00
2786,81	350,00
2791,00	258,00
2795,18	407,00
2799,35	285,00
2803,53	399,00
2807,70	465,00
2811,86	373,00
2816,03	425,00
2820,19	307,00
2824,34	341,00
2828,49	654,00
2832,64	615,00
2836,78	518,00
2840,92	839,00
2845,06	871,00
2849,19	829,00
2853,32	950,00
2857,45	1060,00
2861,57	1017,00
2865,69	1121,00
2869,80	1032,00
2873,91	1040,00
2878,02	1162,00
2882,12	1070,00
2886,22	1140,00
2890,32	1111,00
2894,41	1023,00
2898,50	969,00
2902,58	942,00
2906,67	884,00
2910,74	852,00
2914,82	710,00
2918,89	703,00
2922,96	819,00
2927,02	597,00
2931,08	692,00
2935,13	598,00
2939,19	598,00
2943,24	390,00
2947,28	492,00
2951,32	355,00
2955,36	498,00
2959,40	376,00
2963,43	316,00
2967,46	379,00
2971,48	345,00
2975,50	247,00
2979,52	415,00
2983,53	314,00
2987,54	261,00
2991,55	248,00
2995,55	288,00
2999,55	131,00
3003,54	255,00
3007,54	224,00
3011,53	225,00
3015,51	103,00
3019,49	261,00
3023,47	327,00
3027,45	224,00
3031,42	179,00
3035,39	212,00
3039,35	268,00
3043,31	119,00
3047,27	158,00
3051,22	289,00
3055,17	133,00
3059,12	68,00
3063,06	168,00
3067,00	89,00
3070,94	90,00
3074,87	136,00
3078,80	209,00
3082,73	118,00
3086,65	88,00
3090,57	6,00
3094,49	182,00
3098,40	167,00
3102,31	201,00
3106,22	159,00
3110,12	129,00
3114,02	200,00
3117,92	147,00
3121,81	181,00
3125,70	198,00
3129,58	174,00
3133,47	85,00
3137,34	82,00
3141,22	75,00
3145,09	186,00
3148,96	113,00
3152,83	174,00
3156,69	124,00
3160,55	125,00
3164,40	-33,00
3168,26	75,00
3172,10	245,00
3175,95	181,00
3179,79	230,00
3183,63	124,00
3187,47	249,00
3191,30	133,00
3195,13	121,00
3198,95	149,00
3202,78	80,00
3206,60	100,00
3210,41	144,00
3214,23	194,00
3218,03	127,00
3221,84	151,00
3225,64	106,00
3229,44	115,00
3233,24	325,00
3237,03	158,00
3240,82	108,00
3244,61	127,00
3248,39	174,00
3252,17	250,00
3255,95	254,00
3259,72	227,00
3263,49	161,00
3267,26	145,00
3271,03	136,00
3274,79	132,00
3278,54	170,00
3282,30	123,00
3286,05	194,00
3289,80	62,00
3293,54	63,00
3297,29	186,00
3301,02	79,00
3304,76	105,00
3308,49	167,00
3312,22	-3,00
3315,95	137,00
3319,67	28,00
3323,39	144,00
3327,10	73,00
3330,82	251,00
3334,53	182,00
3338,24	117,00
3341,94	159,00
3345,64	194,00
3349,34	84,00
3353,03	109,00
3356,72	24,00
3360,41	20,00
3364,10	195,00
3367,78	145,00
3371,46	138,00
3375,13	112,00
3378,81	149,00
3382,48	27,00
3386,14	296,00
3389,81	0,00
3393,47	96,00
3397,12	206,00
3400,78	164,00
3404,43	196,00
3408,08	105,00
3411,72	87,00
3415,36	74,00
3419,00	85,00
3422,64	-53,00
3426,27	102,00
3429,90	141,00
3433,53	102,00
3437,15	125,00
3440,77	128,00
3444,39	43,00
3448,00	127,00
3451,62	255,00
3455,22	91,00
3458,83	150,00
3462,43	188,00
3466,03	67,00
3469,63	55,00
3473,22	139,00
3476,81	35,00
3480,40	181,00
3483,99	101,00
3487,57	153,00
3491,15	42,00
3494,72	47,00
3498,29	202,00
3501,86	64,00
3505,43	212,00
3508,99	89,00
3512,56	103,00
3516,11	154,00
3519,67	116,00
3523,22	181,00
3526,77	95,00
3530,32	194,00
3533,86	-20,00
3537,40	127,00
3540,94	106,00
3544,47	23,00
3548,00	192,00
3551,53	86,00
3555,06	57,00
3558,58	32,00
3562,10	133,00
3565,62	171,00
3569,13	0,00
3572,64	174,00
3576,15	103,00
3579,66	104,00
3583,16	119,00
3586,66	62,00
3590,16	81,00
3593,65	142,00
3597,14	101,00
3600,63	138,00
3604,11	138,00
3607,60	80,00
3611,08	168,00
3614,55	13,00
3618,03	74,00
3621,50	21,00
3624,97	105,00
3628,43	-40,00
3631,90	49,00
3635,36	114,00
3638,81	62,00
3642,27	28,00
3645,72	199,00
3649,17	156,00
3652,61	89,00
3656,06	51,00
3659,50	207,00
3662,93	131,00
3666,37	51,00
3669,80	175,00
3673,23	51,00
3676,65	146,00
3680,08	-48,00
3683,50	103,00
3686,92	-39,00
3690,33	190,00
3693,74	158,00
3697,15	98,00
3700,56	146,00
3703,96	18,00
3707,36	-58,00
3710,76	57,00
3714,16	76,00
3717,55	19,00
3720,94	35,00
3724,33	78,00
3727,71	47,00
3731,10	81,00
3734,48	154,00
3737,85	-47,00
3741,23	7,00
3744,60	-69,00
3747,97	-69,00
3751,33	148,00
3754,69	98,00
3758,05	187,00
3761,41	15,00
3764,77	40,00
3768,12	87,00
3771,47	89,00
3774,82	81,00
3778,16	-6,00
3781,50	-1,00
3784,84	2,00
3788,18	4,00
>>>>>End Processed Spectral Data<<<<<
