SpectraSuite Data File
++++++++++++++++++++++++++++++++++++
Date: Mon Mar 09 16:08:21 ICT 2026
User: Administrator
Dark Spectrum Present: Yes
Reference Spectrum Present: No
Number of Sampled Component Spectra: 1
Spectrometers: MAYP113682
Integration Time (usec): 3000000 (MAYP113682)
Spectra Averaged: 1 (MAYP113682)
Boxcar Smoothing: 0 (MAYP113682)
Correct for Electrical Dark: No (MAYP113682)
Strobe/Lamp Enabled: No (MAYP113682)
Correct for Detector Non-linearity: No (MAYP113682)
Correct for Stray Light: No (MAYP113682)
Number of Pixels in Processed Spectrum: 2068
>>>>>Begin Processed Spectral Data<<<<<
-37534,58	-7,00
-37414,56	-9,00
-37295,11	4,00
-37176,24	-1,00
-37057,95	108,00
-36940,22	16,00
-36823,05	127,00
-36706,45	192,00
-36590,40	120,00
-36474,90	66,00
-36359,95	90,00
-36245,55	142,00
-36131,68	-34,00
-36018,35	81,00
-35905,55	158,00
-35793,29	85,00
-35681,54	26,00
-35570,32	128,00
-35459,62	146,00
-35349,43	54,00
-35239,75	184,00
-35130,58	114,00
-35021,91	35,00
-34913,74	-7,00
-34806,07	127,00
-34698,89	31,00
-34592,20	84,00
-34486,00	161,00
-34380,28	193,00
-34275,04	69,00
-34170,27	109,00
-34065,98	107,00
-33962,16	169,00
-33858,81	157,00
-33755,92	212,00
-33653,49	89,00
-33551,52	137,00
-33450,01	160,00
-33348,94	-29,00
-33248,33	5,00
-33148,16	48,00
-33048,43	34,00
-32949,14	164,00
-32850,29	25,00
-32751,87	32,00
-32653,89	186,00
-32556,33	74,00
-32459,20	97,00
-32362,49	118,00
-32266,19	134,00
-32170,32	17,00
-32074,86	199,00
-31979,82	46,00
-31885,18	98,00
-31790,95	124,00
-31697,12	107,00
-31603,69	248,00
-31510,67	101,00
-31418,04	118,00
-31325,80	39,00
-31233,95	151,00
-31142,49	54,00
-31051,42	150,00
-30960,73	152,00
-30870,43	259,00
-30780,50	112,00
-30690,95	162,00
-30601,77	-21,00
-30512,97	79,00
-30424,53	40,00
-30336,46	30,00
-30248,76	165,00
-30161,42	90,00
-30074,44	57,00
-29987,81	104,00
-29901,55	29,00
-29815,63	4,00
-29730,07	242,00
-29644,86	52,00
-29560,00	128,00
-29475,48	145,00
-29391,30	145,00
-29307,47	84,00
-29223,97	94,00
-29140,81	176,00
-29057,99	149,00
-28975,50	172,00
-28893,34	47,00
-28811,51	123,00
-28730,00	141,00
-28648,82	182,00
-28567,97	223,00
-28487,43	47,00
-28407,21	78,00
-28327,32	112,00
-28247,73	51,00
-28168,46	33,00
-28089,50	183,00
-28010,85	100,00
-27932,51	210,00
-27854,48	-9,00
-27776,75	-5,00
-27699,32	105,00
-27622,19	31,00
-27545,37	74,00
-27468,84	51,00
-27392,60	164,00
-27316,66	8,00
-27241,01	104,00
-27165,66	195,00
-27090,59	75,00
-27015,81	210,00
-26941,31	68,00
-26867,10	94,00
-26793,17	121,00
-26719,52	104,00
-26646,15	25,00
-26573,06	-50,00
-26500,24	35,00
-26427,70	21,00
-26355,43	157,00
-26283,43	110,00
-26211,71	126,00
-26140,25	144,00
-26069,06	173,00
-25998,13	46,00
-25927,46	90,00
-25857,06	21,00
-25786,92	89,00
-25717,04	103,00
-25647,42	155,00
-25578,05	46,00
-25508,94	105,00
-25440,09	62,00
-25371,48	93,00
-25303,13	68,00
-25235,02	116,00
-25167,17	183,00
-25099,56	109,00
-25032,19	12,00
-24965,07	129,00
-24898,20	-16,00
-24831,56	70,00
-24765,17	100,00
-24699,01	108,00
-24633,10	51,00
-24567,41	33,00
-24501,97	48,00
-24436,75	47,00
-24371,77	20,00
-24307,03	107,00
-24242,51	136,00
-24178,22	16,00
-24114,16	62,00
-24050,32	153,00
-23986,71	161,00
-23923,32	260,00
-23860,16	192,00
-23797,22	93,00
-23734,50	-30,00
-23672,00	141,00
-23609,71	130,00
-23547,65	176,00
-23485,80	126,00
-23424,16	26,00
-23362,74	122,00
-23301,53	122,00
-23240,54	115,00
-23179,75	38,00
-23119,17	162,00
-23058,80	15,00
-22998,64	52,00
-22938,68	88,00
-22878,93	144,00
-22819,39	87,00
-22760,04	157,00
-22700,90	103,00
-22641,96	84,00
-22583,22	197,00
-22524,68	45,00
-22466,33	63,00
-22408,19	118,00
-22350,23	54,00
-22292,48	42,00
-22234,92	91,00
-22177,55	244,00
-22120,37	180,00
-22063,38	169,00
-22006,58	107,00
-21949,98	72,00
-21893,56	42,00
-21837,33	129,00
-21781,28	119,00
-21725,42	143,00
-21669,74	96,00
-21614,25	0,00
-21558,94	72,00
-21503,81	275,00
-21448,86	179,00
-21394,10	23,00
-21339,51	129,00
-21285,10	70,00
-21230,86	61,00
-21176,81	42,00
-21122,93	84,00
-21069,22	78,00
-21015,69	20,00
-20962,33	172,00
-20909,14	136,00
-20856,13	94,00
-20803,28	23,00
-20750,61	63,00
-20698,10	153,00
-20645,76	122,00
-20593,59	142,00
-20541,59	82,00
-20489,75	126,00
-20438,07	153,00
-20386,56	132,00
-20335,22	110,00
-20284,03	103,00
-20233,01	96,00
-20182,15	119,00
-20131,45	117,00
-20080,91	79,00
-20030,52	186,00
-19980,30	134,00
-19930,23	154,00
-19880,32	202,00
-19830,56	83,00
-19780,96	132,00
-19731,52	48,00
-19682,23	124,00
-19633,09	164,00
-19584,10	36,00
-19535,26	89,00
-19486,58	38,00
-19438,04	99,00
-19389,66	123,00
-19341,42	104,00
-19293,33	10,00
-19245,39	153,00
-19197,60	68,00
-19149,95	118,00
-19102,45	69,00
-19055,09	74,00
-19007,87	71,00
-18960,80	167,00
-18913,87	-12,00
-18867,09	97,00
-18820,44	158,00
-18773,94	88,00
-18727,57	80,00
-18681,35	181,00
-18635,26	155,00
-18589,31	82,00
-18543,50	60,00
-18497,83	127,00
-18452,29	75,00
-18406,89	100,00
-18361,63	151,00
-18316,50	155,00
-18271,50	141,00
-18226,63	133,00
-18181,90	35,00
-18137,30	-73,00
-18092,84	136,00
-18048,50	10,00
-18004,29	-20,00
-17960,22	70,00
-17916,27	58,00
-17872,45	83,00
-17828,76	226,00
-17785,20	40,00
-17741,77	127,00
-17698,46	133,00
-17655,28	139,00
-17612,22	76,00
-17569,29	120,00
-17526,48	192,00
-17483,79	110,00
-17441,23	142,00
-17398,79	151,00
-17356,48	104,00
-17314,28	168,00
-17272,21	37,00
-17230,26	76,00
-17188,42	145,00
-17146,71	132,00
-17105,12	117,00
-17063,64	101,00
-17022,28	34,00
-16981,04	52,00
-16939,92	128,00
-16898,91	122,00
-16858,02	-36,00
-16817,25	103,00
-16776,59	62,00
-16736,04	71,00
-16695,61	41,00
-16655,29	-46,00
-16615,09	-6,00
-16574,99	86,00
-16535,01	63,00
-16495,15	122,00
-16455,39	136,00
-16415,74	134,00
-16376,21	9,00
-16336,78	159,00
-16297,46	91,00
-16258,26	149,00
-16219,16	133,00
-16180,17	41,00
-16141,28	163,00
-16102,51	66,00
-16063,84	85,00
-16025,27	119,00
-15986,82	65,00
-15948,46	150,00
-15910,22	6,00
-15872,07	158,00
-15834,04	146,00
-15796,10	130,00
-15758,27	106,00
-15720,54	113,00
-15682,91	55,00
-15645,39	90,00
-15607,97	138,00
-15570,64	136,00
-15533,42	141,00
-15496,30	100,00
-15459,28	164,00
-15422,36	37,00
-15385,54	15,00
-15348,82	84,00
-15312,19	95,00
-15275,66	-10,00
-15239,23	38,00
-15202,90	134,00
-15166,67	118,00
-15130,53	75,00
-15094,48	140,00
-15058,54	85,00
-15022,68	161,00
-14986,93	71,00
-14951,26	171,00
-14915,69	-40,00
-14880,22	129,00
-14844,84	190,00
-14809,55	67,00
-14774,35	48,00
-14739,25	86,00
-14704,24	133,00
-14669,32	76,00
-14634,49	115,00
-14599,75	76,00
-14565,10	73,00
-14530,55	49,00
-14496,08	201,00
-14461,70	105,00
-14427,41	134,00
-14393,21	97,00
-14359,10	46,00
-14325,07	18,00
-14291,14	109,00
-14257,29	134,00
-14223,52	124,00
-14189,85	176,00
-14156,26	12,00
-14122,76	125,00
-14089,34	106,00
-14056,01	164,00
-14022,76	-46,00
-13989,60	86,00
-13956,52	72,00
-13923,53	56,00
-13890,62	79,00
-13857,79	107,00
-13825,05	184,00
-13792,39	130,00
-13759,81	137,00
-13727,31	126,00
-13694,90	232,00
-13662,57	192,00
-13630,31	118,00
-13598,14	193,00
-13566,05	161,00
-13534,05	135,00
-13502,12	102,00
-13470,27	56,00
-13438,50	64,00
-13406,80	104,00
-13375,19	51,00
-13343,66	180,00
-13312,20	127,00
-13280,83	84,00
-13249,53	-37,00
-13218,30	224,00
-13187,16	105,00
-13156,09	138,00
-13125,10	64,00
-13094,18	87,00
-13063,34	153,00
-13032,58	126,00
-13001,89	93,00
-12971,28	37,00
-12940,74	155,00
-12910,27	144,00
-12879,88	155,00
-12849,57	83,00
-12819,33	39,00
-12789,16	20,00
-12759,06	216,00
-12729,04	93,00
-12699,09	250,00
-12669,21	102,00
-12639,41	66,00
-12609,68	13,00
-12580,02	176,00
-12550,43	160,00
-12520,91	75,00
-12491,46	136,00
-12462,08	28,00
-12432,77	189,00
-12403,54	147,00
-12374,37	102,00
-12345,27	106,00
-12316,24	92,00
-12287,29	-7,00
-12258,40	116,00
-12229,57	107,00
-12200,82	77,00
-12172,14	92,00
-12143,52	54,00
-12114,97	197,00
-12086,49	106,00
-12058,07	246,00
-12029,73	33,00
-12001,44	-49,00
-11973,23	101,00
-11945,08	134,00
-11917,00	175,00
-11888,98	146,00
-11861,03	-31,00
-11833,15	98,00
-11805,32	19,00
-11777,57	4,00
-11749,88	30,00
-11722,25	159,00
-11694,69	54,00
-11667,19	126,00
-11639,75	20,00
-11612,38	111,00
-11585,07	157,00
-11557,83	99,00
-11530,65	60,00
-11503,53	110,00
-11476,47	235,00
-11449,48	176,00
-11422,54	19,00
-11395,67	84,00
-11368,86	85,00
-11342,11	64,00
-11315,43	157,00
-11288,80	75,00
-11262,23	69,00
-11235,73	123,00
-11209,28	123,00
-11182,90	42,00
-11156,57	153,00
-11130,31	138,00
-11104,10	86,00
-11077,96	113,00
-11051,87	103,00
-11025,84	64,00
-10999,87	95,00
-10973,96	-41,00
-10948,11	62,00
-10922,31	122,00
-10896,58	163,00
-10870,90	217,00
-10845,28	44,00
-10819,71	170,00
-10794,20	81,00
-10768,75	247,00
-10743,36	113,00
-10718,02	126,00
-10692,74	170,00
-10667,52	166,00
-10642,35	116,00
-10617,24	202,00
-10592,18	141,00
-10567,18	107,00
-10542,23	206,00
-10517,34	239,00
-10492,51	116,00
-10467,72	127,00
-10443,00	130,00
-10418,32	147,00
-10393,70	129,00
-10369,14	131,00
-10344,63	161,00
-10320,17	223,00
-10295,77	127,00
-10271,42	56,00
-10247,12	291,00
-10222,88	264,00
-10198,68	182,00
-10174,54	118,00
-10150,46	293,00
-10126,42	130,00
-10102,44	281,00
-10078,51	183,00
-10054,63	308,00
-10030,80	165,00
-10007,03	88,00
-9983,30	38,00
-9959,63	218,00
-9936,01	139,00
-9912,44	227,00
-9888,92	314,00
-9865,44	152,00
-9842,02	243,00
-9818,65	407,00
-9795,33	221,00
-9772,06	332,00
-9748,84	322,00
-9725,67	384,00
-9702,55	352,00
-9679,47	373,00
-9656,45	393,00
-9633,47	411,00
-9610,55	485,00
-9587,67	430,00
-9564,84	364,00
-9542,06	518,00
-9519,32	405,00
-9496,64	605,00
-9474,00	522,00
-9451,41	652,00
-9428,87	656,00
-9406,37	643,00
-9383,92	701,00
-9361,52	668,00
-9339,17	783,00
-9316,86	673,00
-9294,60	814,00
-9272,38	891,00
-9250,21	980,00
-9228,09	1026,00
-9206,01	920,00
-9183,98	752,00
-9162,00	774,00
-9140,06	835,00
-9118,16	842,00
-9096,31	924,00
-9074,51	843,00
-9052,75	899,00
-9031,04	840,00
-9009,37	825,00
-8987,74	772,00
-8966,16	790,00
-8944,63	698,00
-8923,14	651,00
-8901,69	598,00
-8880,29	619,00
-8858,93	652,00
-8837,61	747,00
-8816,34	847,00
-8795,11	778,00
-8773,92	742,00
-8752,78	721,00
-8731,68	721,00
-8710,62	643,00
-8689,61	639,00
-8668,63	704,00
-8647,70	865,00
-8626,82	929,00
-8605,97	676,00
-8585,17	720,00
-8564,41	632,00
-8543,69	685,00
-8523,01	506,00
-8502,37	640,00
-8481,78	673,00
-8461,23	696,00
-8440,71	778,00
-8420,24	792,00
-8399,81	685,00
-8379,42	762,00
-8359,08	827,00
-8338,77	670,00
-8318,50	632,00
-8298,27	608,00
-8278,09	636,00
-8257,94	782,00
-8237,83	811,00
-8217,76	744,00
-8197,74	630,00
-8177,75	754,00
-8157,80	633,00
-8137,89	610,00
-8118,02	575,00
-8098,19	602,00
-8078,40	612,00
-8058,65	654,00
-8038,93	699,00
-8019,26	677,00
-7999,62	587,00
-7980,02	534,00
-7960,46	468,00
-7940,94	553,00
-7921,46	391,00
-7902,01	374,00
-7882,60	604,00
-7863,23	433,00
-7843,90	551,00
-7824,61	528,00
-7805,35	597,00
-7786,13	544,00
-7766,95	586,00
-7747,80	605,00
-7728,69	493,00
-7709,62	490,00
-7690,59	547,00
-7671,59	594,00
-7652,63	696,00
-7633,70	680,00
-7614,81	618,00
-7595,96	492,00
-7577,15	583,00
-7558,37	599,00
-7539,62	591,00
-7520,91	653,00
-7502,24	486,00
-7483,60	590,00
-7465,00	509,00
-7446,44	494,00
-7427,91	447,00
-7409,41	512,00
-7390,95	284,00
-7372,53	301,00
-7354,14	468,00
-7335,78	399,00
-7317,46	404,00
-7299,18	427,00
-7280,92	464,00
-7262,71	554,00
-7244,52	603,00
-7226,38	499,00
-7208,26	515,00
-7190,18	439,00
-7172,14	478,00
-7154,12	430,00
-7136,15	540,00
-7118,20	557,00
-7100,29	543,00
-7082,41	516,00
-7064,57	504,00
-7046,76	481,00
-7028,98	467,00
-7011,24	392,00
-6993,53	269,00
-6975,85	354,00
-6958,20	310,00
-6940,59	333,00
-6923,01	289,00
-6905,46	372,00
-6887,94	196,00
-6870,46	3086,00
-6853,01	464,00
-6835,59	499,00
-6818,21	441,00
-6800,85	379,00
-6783,53	278,00
-6766,24	208,00
-6748,98	342,00
-6731,76	272,00
-6714,56	151,00
-6697,40	224,00
-6680,26	250,00
-6663,16	383,00
-6646,09	273,00
-6629,05	415,00
-6612,05	360,00
-6595,07	474,00
-6578,13	364,00
-6561,21	256,00
-6544,33	287,00
-6527,47	244,00
-6510,65	245,00
-6493,86	167,00
-6477,10	220,00
-6460,36	250,00
-6443,66	207,00
-6426,99	230,00
-6410,35	311,00
-6393,74	139,00
-6377,16	233,00
-6360,61	285,00
-6344,09	305,00
-6327,59	344,00
-6311,13	320,00
-6294,70	336,00
-6278,29	370,00
-6261,92	429,00
-6245,58	396,00
-6229,26	375,00
-6212,97	413,00
-6196,72	324,00
-6180,49	255,00
-6164,29	276,00
-6148,12	94,00
-6131,98	94,00
-6115,86	134,00
-6099,78	196,00
-6083,72	235,00
-6067,69	180,00
-6051,69	133,00
-6035,72	197,00
-6019,78	166,00
-6003,87	318,00
-5987,98	323,00
-5972,12	378,00
-5956,29	249,00
-5940,49	285,00
-5924,71	372,00
-5908,96	126,00
-5893,24	280,00
-5877,55	219,00
-5861,89	100,00
-5846,25	275,00
-5830,64	215,00
-5815,05	164,00
-5799,50	131,00
-5783,97	118,00
-5768,47	225,00
-5752,99	230,00
-5737,55	221,00
-5722,12	226,00
-5706,73	217,00
-5691,36	350,00
-5676,02	225,00
-5660,71	167,00
-5645,42	178,00
-5630,16	247,00
-5614,92	263,00
-5599,71	192,00
-5584,53	242,00
-5569,37	298,00
-5554,24	-592,00
-5539,14	261,00
-5524,06	207,00
-5509,01	235,00
-5493,98	226,00
-5478,98	165,00
-5464,00	204,00
-5449,05	139,00
-5434,13	229,00
-5419,23	185,00
-5404,36	134,00
-5389,51	340,00
-5374,69	222,00
-5359,89	457,00
-5345,12	379,00
-5330,37	254,00
-5315,65	263,00
-5300,95	197,00
-5286,28	250,00
-5271,63	209,00
-5257,01	370,00
-5242,41	258,00
-5227,84	134,00
-5213,29	255,00
-5198,76	20,00
-5184,26	205,00
-5169,79	86,00
-5155,33	96,00
-5140,91	272,00
-5126,51	258,00
-5112,13	265,00
-5097,77	250,00
-5083,44	181,00
-5069,13	142,00
-5054,85	111,00
-5040,59	219,00
-5026,36	366,00
-5012,15	153,00
-4997,96	278,00
-4983,80	38,00
-4969,66	185,00
-4955,54	80,00
-4941,44	287,00
-4927,37	231,00
-4913,33	278,00
-4899,30	405,00
-4885,30	348,00
-4871,33	304,00
-4857,37	249,00
-4843,44	242,00
-4829,53	261,00
-4815,65	266,00
-4801,79	103,00
-4787,95	235,00
-4774,13	175,00
-4760,34	43,00
-4746,56	51,00
-4732,82	146,00
-4719,09	166,00
-4705,38	208,00
-4691,70	240,00
-4678,04	310,00
-4664,41	306,00
-4650,79	145,00
-4637,20	115,00
-4623,63	72,00
-4610,08	240,00
-4596,56	62,00
-4583,05	118,00
-4569,57	155,00
-4556,11	153,00
-4542,67	67,00
-4529,25	123,00
-4515,86	359,00
-4502,49	233,00
-4489,13	301,00
-4475,80	206,00
-4462,49	226,00
-4449,21	208,00
-4435,94	123,00
-4422,70	120,00
-4409,47	253,00
-4396,27	280,00
-4383,09	207,00
-4369,93	207,00
-4356,79	123,00
-4343,67	38,00
-4330,58	28,00
-4317,50	181,00
-4304,45	108,00
-4291,41	42,00
-4278,40	167,00
-4265,41	18,00
-4252,44	184,00
-4239,49	228,00
-4226,55	100,00
-4213,65	142,00
-4200,76	355,00
-4187,89	3,00
-4175,04	154,00
-4162,21	93,00
-4149,40	86,00
-4136,61	209,00
-4123,85	-49,00
-4111,10	95,00
-4098,37	192,00
-4085,66	118,00
-4072,98	209,00
-4060,31	30,00
-4047,66	41,00
-4035,04	46,00
-4022,43	266,00
-4009,84	3,00
-3997,27	111,00
-3984,72	122,00
-3972,19	104,00
-3959,69	156,00
-3947,20	83,00
-3934,73	98,00
-3922,27	16,00
-3909,84	1,00
-3897,43	87,00
-3885,04	163,00
-3872,67	67,00
-3860,31	150,00
-3847,98	-24,00
-3835,66	94,00
-3823,36	83,00
-3811,09	234,00
-3798,83	78,00
-3786,59	28,00
-3774,37	154,00
-3762,17	0,00
-3749,98	146,00
-3737,82	97,00
-3725,67	201,00
-3713,55	122,00
-3701,44	83,00
-3689,35	227,00
-3677,28	293,00
-3665,22	219,00
-3653,19	134,00
-3641,17	88,00
-3629,18	24,00
-3617,20	124,00
-3605,24	210,00
-3593,30	203,00
-3581,37	136,00
-3569,47	260,00
-3557,58	253,00
-3545,71	77,00
-3533,86	216,00
-3522,02	138,00
-3510,21	60,00
-3498,41	210,00
-3486,63	81,00
-3474,87	175,00
-3463,12	60,00
-3451,40	145,00
-3439,69	149,00
-3428,00	168,00
-3416,33	59,00
-3404,67	30,00
-3393,03	125,00
-3381,41	107,00
-3369,81	59,00
-3358,22	197,00
-3346,66	134,00
-3335,10	124,00
-3323,57	-57,00
-3312,06	-27,00
-3300,56	171,00
-3289,08	129,00
-3277,61	51,00
-3266,16	144,00
-3254,73	68,00
-3243,32	100,00
-3231,92	47,00
-3220,55	33,00
-3209,18	36,00
-3197,84	125,00
-3186,51	41,00
-3175,20	193,00
-3163,90	88,00
-3152,63	176,00
-3141,36	166,00
-3130,12	74,00
-3118,89	21,00
-3107,68	126,00
-3096,49	133,00
-3085,31	246,00
-3074,15	50,00
-3063,00	160,00
-3051,87	78,00
-3040,76	222,00
-3029,67	85,00
-3018,59	87,00
-3007,52	3,00
-2996,48	116,00
-2985,44	124,00
-2974,43	-20,00
-2963,43	162,00
-2952,45	62,00
-2941,48	95,00
-2930,53	159,00
-2919,60	208,00
-2908,68	-45,00
-2897,78	57,00
-2886,89	-19,00
-2876,02	35,00
-2865,17	65,00
-2854,33	248,00
-2843,50	89,00
-2832,70	94,00
-2821,90	50,00
-2811,13	150,00
-2800,37	47,00
-2789,62	90,00
-2778,89	79,00
-2768,18	108,00
-2757,48	164,00
-2746,80	197,00
-2736,13	56,00
-2725,48	-103,00
-2714,84	145,00
-2704,22	64,00
-2693,61	164,00
-2683,02	155,00
-2672,45	89,00
-2661,89	171,00
-2651,34	158,00
-2640,81	122,00
-2630,30	37,00
-2619,80	107,00
-2609,31	244,00
-2598,84	92,00
-2588,39	163,00
-2577,95	75,00
-2567,52	77,00
-2557,11	169,00
-2546,71	46,00
-2536,33	212,00
-2525,97	15,00
-2515,62	226,00
-2505,28	67,00
-2494,96	148,00
-2484,65	-5,00
-2474,36	220,00
-2464,08	110,00
-2453,82	180,00
-2443,57	150,00
-2433,33	62,00
-2423,11	131,00
-2412,91	14,00
-2402,72	103,00
-2392,54	88,00
-2382,38	38,00
-2372,23	108,00
-2362,09	46,00
-2351,97	59,00
-2341,87	109,00
-2331,78	144,00
-2321,70	95,00
-2311,64	48,00
-2301,59	179,00
-2291,55	119,00
-2281,53	79,00
-2271,53	67,00
-2261,53	162,00
-2251,55	242,00
-2241,59	29,00
-2231,64	78,00
-2221,70	-19,00
-2211,78	81,00
-2201,87	23,00
-2191,97	98,00
-2182,09	113,00
-2172,22	80,00
-2162,37	101,00
-2152,53	99,00
-2142,70	111,00
-2132,89	173,00
-2123,09	164,00
-2113,30	110,00
-2103,53	134,00
-2093,77	102,00
-2084,02	109,00
-2074,29	53,00
-2064,57	65,00
-2054,86	97,00
-2045,17	41,00
-2035,49	71,00
-2025,82	101,00
-2016,17	62,00
-2006,53	139,00
-1996,91	54,00
-1987,29	141,00
-1977,69	220,00
-1968,11	-19,00
-1958,53	162,00
-1948,97	85,00
-1939,42	-48,00
-1929,89	115,00
-1920,37	-20,00
-1910,86	151,00
-1901,36	-2,00
-1891,88	142,00
-1882,41	50,00
-1872,95	2,00
-1863,51	168,00
-1854,08	88,00
-1844,66	123,00
-1835,26	99,00
-1825,86	32,00
-1816,48	165,00
-1807,11	71,00
-1797,76	233,00
-1788,42	69,00
-1779,09	21,00
-1769,77	112,00
-1760,47	186,00
-1751,17	189,00
-1741,89	-2,00
-1732,63	203,00
-1723,37	85,00
-1714,13	39,00
-1704,90	59,00
-1695,68	126,00
-1686,48	74,00
-1677,29	66,00
-1668,11	142,00
-1658,94	118,00
-1649,78	119,00
-1640,64	152,00
-1631,51	101,00
-1622,39	6,00
-1613,28	117,00
-1604,19	117,00
-1595,10	52,00
-1586,03	193,00
-1576,97	-23,00
-1567,93	4,00
-1558,89	104,00
-1549,87	165,00
-1540,86	44,00
-1531,86	92,00
-1522,87	87,00
-1513,90	109,00
-1504,93	137,00
-1495,98	248,00
-1487,04	44,00
-1478,12	165,00
-1469,20	67,00
-1460,30	55,00
-1451,40	49,00
-1442,52	84,00
-1433,65	12,00
-1424,80	100,00
-1415,95	208,00
-1407,12	233,00
-1398,30	120,00
-1389,48	61,00
-1380,69	164,00
-1371,90	29,00
-1363,12	95,00
-1354,36	158,00
-1345,60	100,00
-1336,86	59,00
-1328,13	159,00
-1319,41	144,00
-1310,70	33,00
-1302,01	140,00
-1293,32	75,00
-1284,65	84,00
-1275,99	172,00
-1267,33	141,00
-1258,69	106,00
-1250,06	86,00
-1241,45	52,00
-1232,84	120,00
-1224,25	151,00
-1215,66	112,00
-1207,09	129,00
-1198,53	178,00
-1189,97	73,00
-1181,43	23,00
-1172,91	12,00
-1164,39	193,00
-1155,88	61,00
-1147,38	105,00
-1138,90	58,00
-1130,43	81,00
-1121,96	91,00
-1113,51	174,00
-1105,07	73,00
-1096,64	132,00
-1088,22	99,00
-1079,81	209,00
-1071,41	121,00
-1063,02	128,00
-1054,65	-34,00
-1046,28	197,00
-1037,92	122,00
-1029,58	242,00
-1021,24	56,00
-1012,92	184,00
-1004,61	43,00
-996,30	183,00
-988,01	129,00
-979,73	131,00
-971,46	155,00
-963,20	106,00
-954,95	54,00
-946,71	76,00
-938,48	169,00
-930,26	169,00
-922,06	174,00
-913,86	152,00
-905,67	241,00
-897,49	67,00
-889,33	31,00
-881,17	143,00
-873,02	50,00
-864,89	126,00
-856,76	33,00
-848,65	117,00
-840,54	177,00
-832,45	163,00
-824,36	104,00
-816,29	89,00
-808,22	27,00
-800,17	90,00
-792,12	158,00
-784,09	73,00
-776,06	-49,00
-768,05	61,00
-760,04	150,00
-752,05	32,00
-744,07	51,00
-736,09	177,00
-728,13	104,00
-720,17	-8,00
-712,23	91,00
-704,29	77,00
-696,37	145,00
-688,45	210,00
-680,55	102,00
-672,65	-37,00
-664,77	53,00
-656,89	46,00
-649,03	177,00
-641,17	76,00
-633,32	-36,00
-625,49	118,00
-617,66	175,00
-609,84	13,00
-602,03	153,00
-594,23	156,00
-586,45	105,00
-578,67	102,00
-570,90	218,00
-563,14	60,00
-555,39	116,00
-547,65	116,00
-539,91	121,00
-532,19	69,00
-524,48	86,00
-516,78	104,00
-509,08	-15,00
-501,40	172,00
-493,72	98,00
-486,06	133,00
-478,40	157,00
-470,76	88,00
-463,12	80,00
-455,49	76,00
-447,87	218,00
-440,26	-35,00
-432,66	162,00
-425,07	100,00
-417,49	159,00
-409,92	87,00
-402,35	270,00
-394,80	187,00
-387,25	156,00
-379,72	223,00
-372,19	197,00
-364,67	158,00
-357,17	38,00
-349,67	47,00
-342,18	176,00
-334,69	239,00
-327,22	183,00
-319,76	152,00
-312,30	107,00
-304,86	121,00
-297,42	141,00
-290,00	166,00
-282,58	121,00
-275,17	189,00
-267,77	50,00
-260,37	57,00
-252,99	71,00
-245,62	133,00
-238,25	206,00
-230,90	139,00
-223,55	259,00
-216,21	142,00
-208,88	245,00
-201,56	158,00
-194,25	293,00
-186,94	277,00
-179,65	204,00
-172,36	280,00
-165,08	351,00
-157,81	214,00
-150,55	371,00
-143,30	492,00
-136,06	363,00
-128,82	565,00
-121,60	457,00
-114,38	335,00
-107,17	708,00
-99,97	699,00
-92,78	659,00
-85,60	928,00
-78,42	866,00
-71,25	1066,00
-64,10	1268,00
-56,95	1376,00
-49,81	1526,00
-42,67	1854,00
-35,55	2414,00
-28,43	3185,00
-21,33	5445,00
-14,23	17718,00
-7,14	55238,00
-0,05	54948,00
7,02	54664,00
14,09	54888,00
21,14	15705,00
28,19	6450,00
35,23	4111,00
42,27	3129,00
49,29	2510,00
56,31	2175,00
63,32	1838,00
70,32	1457,00
77,31	1258,00
84,29	1085,00
91,27	948,00
98,23	920,00
105,19	911,00
112,14	918,00
119,09	1353,00
126,02	2084,00
132,95	2308,00
139,87	2463,00
146,78	2441,00
153,68	2353,00
160,58	2233,00
167,46	2251,00
174,34	2344,00
181,21	2253,00
188,08	2356,00
194,93	2217,00
201,78	2134,00
208,62	2117,00
215,45	2228,00
222,27	2192,00
229,09	2025,00
235,90	2116,00
242,70	2182,00
249,49	2060,00
256,27	2041,00
263,05	2119,00
269,82	1951,00
276,58	2096,00
283,33	1977,00
290,08	1975,00
296,82	1986,00
303,55	1893,00
310,27	1964,00
316,98	1883,00
323,69	1884,00
330,39	1887,00
337,08	1942,00
343,76	1895,00
350,44	1803,00
357,11	1822,00
363,77	1849,00
370,42	1723,00
377,07	1734,00
383,71	1839,00
390,34	1884,00
396,96	1877,00
403,58	1907,00
410,19	1668,00
416,79	1853,00
423,38	1702,00
429,97	1690,00
436,55	1638,00
443,12	1644,00
449,68	1666,00
456,24	1748,00
462,79	1578,00
469,33	1603,00
475,86	1623,00
482,39	1643,00
488,91	1484,00
495,42	1558,00
501,93	1507,00
508,42	1531,00
514,91	1557,00
521,40	1573,00
527,87	1503,00
534,34	1544,00
540,80	1538,00
547,25	1559,00
553,70	1484,00
560,14	1482,00
566,57	1315,00
573,00	1521,00
579,41	1484,00
585,83	1390,00
592,23	1527,00
598,62	1422,00
605,01	1367,00
611,40	1482,00
617,77	1340,00
624,14	1511,00
630,50	1346,00
636,85	1419,00
643,20	1345,00
649,54	1372,00
655,87	1267,00
662,20	1329,00
668,52	1364,00
674,83	1257,00
681,13	1268,00
687,43	1235,00
693,72	1239,00
700,00	1293,00
706,28	1375,00
712,55	1269,00
718,81	1312,00
725,07	1267,00
731,32	1203,00
737,56	1242,00
743,79	1210,00
750,02	1279,00
756,24	1129,00
762,46	1209,00
768,67	1204,00
774,87	1162,00
781,06	1313,00
787,25	1257,00
793,43	1274,00
799,60	1140,00
805,77	1219,00
811,93	1203,00
818,08	1127,00
824,23	1271,00
830,37	1261,00
836,50	1353,00
842,63	1188,00
848,75	1329,00
854,87	1228,00
860,97	1177,00
867,07	1246,00
873,17	1126,00
879,25	1217,00
885,33	1183,00
891,41	1184,00
897,47	1173,00
903,53	1021,00
909,59	1079,00
915,63	1110,00
921,67	1080,00
927,71	1061,00
933,74	1010,00
939,76	1052,00
945,77	1111,00
951,78	1099,00
957,78	978,00
963,78	1126,00
969,77	1078,00
975,75	1050,00
981,72	1045,00
987,69	1152,00
993,66	1146,00
999,61	1049,00
1005,56	993,00
1011,51	1094,00
1017,44	1072,00
1023,37	1111,00
1029,30	1093,00
1035,22	1145,00
1041,13	1115,00
1047,03	1110,00
1052,93	1102,00
1058,83	1443,00
1064,71	1280,00
1070,59	1284,00
1076,47	1095,00
1082,33	1120,00
1088,20	998,00
1094,05	1069,00
1099,90	1048,00
1105,74	906,00
1111,58	1002,00
1117,41	1214,00
1123,23	1226,00
1129,05	1209,00
1134,86	1218,00
1140,67	1250,00
1146,47	1158,00
1152,26	1120,00
1158,05	974,00
1163,83	1041,00
1169,60	970,00
1175,37	941,00
1181,13	959,00
1186,89	1019,00
1192,64	997,00
1198,38	1083,00
1204,12	947,00
1209,85	873,00
1215,58	1007,00
1221,30	931,00
1227,02	979,00
1232,72	1053,00
1238,43	939,00
1244,12	850,00
1249,81	934,00
1255,50	852,00
1261,17	972,00
1266,85	1076,00
1272,51	1003,00
1278,17	1070,00
1283,83	1073,00
1289,47	1257,00
1295,12	1463,00
1300,75	1434,00
1306,38	1328,00
1312,01	1172,00
1317,63	1129,00
1323,24	968,00
1328,85	1022,00
1334,45	1010,00
1340,04	999,00
1345,63	1118,00
1351,22	950,00
1356,80	1000,00
1362,37	1070,00
1367,93	1063,00
1373,49	1076,00
1379,05	998,00
1384,60	1141,00
1390,14	1054,00
1395,68	1111,00
1401,21	1048,00
1406,74	1125,00
1412,26	1146,00
1417,77	1118,00
1423,28	1197,00
1428,78	1392,00
1434,28	1541,00
1439,77	1573,00
1445,26	1525,00
1450,74	1505,00
1456,22	1488,00
1461,68	1322,00
1467,15	1327,00
1472,61	1170,00
1478,06	1099,00
1483,51	1046,00
1488,95	1048,00
1494,38	1043,00
1499,81	751,00
1505,24	1048,00
1510,65	897,00
1516,07	929,00
1521,48	992,00
1526,88	876,00
1532,27	904,00
1537,67	897,00
1543,05	876,00
1548,43	842,00
1553,81	863,00
1559,18	761,00
1564,54	952,00
1569,90	769,00
1575,25	788,00
1580,60	1020,00
1585,94	874,00
1591,28	956,00
1596,61	897,00
1601,93	806,00
1607,25	811,00
1612,57	870,00
1617,88	921,00
1623,18	739,00
1628,48	768,00
1633,77	827,00
1639,06	784,00
1644,34	742,00
1649,62	1006,00
1654,89	856,00
1660,16	807,00
1665,42	634,00
1670,67	811,00
1675,92	759,00
1681,17	838,00
1686,41	767,00
1691,64	686,00
1696,87	658,00
1702,10	694,00
1707,32	735,00
1712,53	783,00
1717,74	689,00
1722,94	579,00
1728,14	729,00
1733,33	724,00
1738,52	740,00
1743,70	716,00
1748,88	725,00
1754,05	685,00
1759,22	655,00
1764,38	-720,00
1769,53	662,00
1774,69	667,00
1779,83	583,00
1784,97	725,00
1790,11	682,00
1795,24	686,00
1800,36	493,00
1805,48	555,00
1810,60	580,00
1815,71	553,00
1820,82	579,00
1825,92	595,00
1831,01	562,00
1836,10	691,00
1841,19	606,00
1846,26	581,00
1851,34	553,00
1856,41	618,00
1861,47	600,00
1866,53	672,00
1871,59	622,00
1876,64	575,00
1881,68	516,00
1886,72	482,00
1891,76	737,00
1896,79	552,00
1901,81	515,00
1906,83	659,00
1911,85	608,00
1916,86	636,00
1921,86	484,00
1926,86	455,00
1931,86	611,00
1936,85	552,00
1941,83	496,00
1946,81	578,00
1951,79	434,00
1956,76	545,00
1961,72	577,00
1966,68	442,00
1971,64	549,00
1976,59	489,00
1981,54	541,00
1986,48	547,00
1991,42	518,00
1996,35	421,00
2001,27	463,00
2006,20	521,00
2011,11	619,00
2016,03	480,00
2020,93	489,00
2025,84	365,00
2030,73	525,00
2035,63	393,00
2040,52	478,00
2045,40	351,00
2050,28	392,00
2055,15	508,00
2060,02	453,00
2064,89	443,00
2069,75	387,00
2074,60	458,00
2079,46	438,00
2084,30	334,00
2089,14	330,00
2093,98	447,00
2098,81	548,00
2103,64	424,00
2108,46	450,00
2113,28	549,00
2118,09	557,00
2122,90	332,00
2127,70	373,00
2132,50	513,00
2137,30	385,00
2142,09	491,00
2146,87	513,00
2151,66	389,00
2156,43	490,00
2161,20	526,00
2165,97	463,00
2170,73	365,00
2175,49	547,00
2180,24	402,00
2184,99	439,00
2189,74	416,00
2194,48	302,00
2199,21	508,00
2203,94	379,00
2208,67	303,00
2213,39	473,00
2218,11	383,00
2222,82	364,00
2227,53	341,00
2232,23	275,00
2236,93	389,00
2241,63	400,00
2246,32	322,00
2251,00	323,00
2255,68	247,00
2260,36	238,00
2265,03	409,00
2269,70	261,00
2274,36	395,00
2279,02	314,00
2283,68	319,00
2288,33	343,00
2292,97	507,00
2297,61	410,00
2302,25	426,00
2306,88	511,00
2311,51	305,00
2316,14	438,00
2320,75	178,00
2325,37	357,00
2329,98	280,00
2334,59	316,00
2339,19	337,00
2343,79	256,00
2348,38	326,00
2352,97	277,00
2357,55	351,00
2362,13	313,00
2366,71	319,00
2371,28	405,00
2375,85	240,00
2380,41	461,00
2384,97	294,00
2389,52	341,00
2394,07	303,00
2398,62	265,00
2403,16	277,00
2407,70	246,00
2412,23	269,00
2416,76	262,00
2421,29	284,00
2425,81	331,00
2430,32	345,00
2434,84	299,00
2439,34	310,00
2443,85	187,00
2448,35	309,00
2452,84	270,00
2457,33	237,00
2461,82	249,00
2466,30	355,00
2470,78	345,00
2475,25	284,00
2479,72	240,00
2484,19	188,00
2488,65	334,00
2493,11	398,00
2497,56	308,00
2502,01	255,00
2506,46	248,00
2510,90	327,00
2515,34	194,00
2519,77	289,00
2524,20	301,00
2528,62	229,00
2533,04	211,00
2537,46	312,00
2541,87	168,00
2546,28	327,00
2550,68	242,00
2555,08	274,00
2559,48	155,00
2563,87	280,00
2568,26	249,00
2572,64	333,00
2577,02	95,00
2581,40	160,00
2585,77	374,00
2590,14	224,00
2594,50	284,00
2598,86	300,00
2603,22	254,00
2607,57	290,00
2611,92	286,00
2616,26	311,00
2620,60	214,00
2624,94	262,00
2629,27	222,00
2633,60	269,00
2637,92	339,00
2642,24	405,00
2646,56	235,00
2650,87	326,00
2655,18	252,00
2659,48	288,00
2663,78	190,00
2668,08	310,00
2672,37	356,00
2676,66	262,00
2680,95	241,00
2685,23	299,00
2689,50	187,00
2693,78	351,00
2698,05	308,00
2702,31	352,00
2706,57	266,00
2710,83	278,00
2715,08	249,00
2719,33	296,00
2723,58	389,00
2727,82	307,00
2732,06	340,00
2736,29	429,00
2740,53	316,00
2744,75	297,00
2748,97	254,00
2753,19	305,00
2757,41	327,00
2761,62	230,00
2765,83	221,00
2770,03	269,00
2774,23	305,00
2778,43	291,00
2782,62	144,00
2786,81	235,00
2791,00	271,00
2795,18	306,00
2799,35	334,00
2803,53	347,00
2807,70	272,00
2811,86	422,00
2816,03	289,00
2820,19	430,00
2824,34	344,00
2828,49	475,00
2832,64	428,00
2836,78	593,00
2840,92	681,00
2845,06	807,00
2849,19	869,00
2853,32	882,00
2857,45	1108,00
2861,57	981,00
2865,69	973,00
2869,80	794,00
2873,91	916,00
2878,02	970,00
2882,12	954,00
2886,22	929,00
2890,32	906,00
2894,41	977,00
2898,50	742,00
2902,58	780,00
2906,67	753,00
2910,74	692,00
2914,82	647,00
2918,89	647,00
2922,96	692,00
2927,02	612,00
2931,08	463,00
2935,13	588,00
2939,19	584,00
2943,24	424,00
2947,28	406,00
2951,32	470,00
2955,36	420,00
2959,40	314,00
2963,43	288,00
2967,46	350,00
2971,48	271,00
2975,50	377,00
2979,52	283,00
2983,53	269,00
2987,54	153,00
2991,55	217,00
2995,55	178,00
2999,55	47,00
3003,54	178,00
3007,54	340,00
3011,53	200,00
3015,51	298,00
3019,49	261,00
3023,47	169,00
3027,45	97,00
3031,42	138,00
3035,39	175,00
3039,35	288,00
3043,31	19,00
3047,27	114,00
3051,22	207,00
3055,17	155,00
3059,12	54,00
3063,06	233,00
3067,00	153,00
3070,94	198,00
3074,87	244,00
3078,80	89,00
3082,73	130,00
3086,65	105,00
3090,57	166,00
3094,49	242,00
3098,40	148,00
3102,31	134,00
3106,22	265,00
3110,12	94,00
3114,02	158,00
3117,92	157,00
3121,81	202,00
3125,70	118,00
3129,58	168,00
3133,47	196,00
3137,34	102,00
3141,22	174,00
3145,09	172,00
3148,96	196,00
3152,83	221,00
3156,69	239,00
3160,55	182,00
3164,40	145,00
3168,26	209,00
3172,10	155,00
3175,95	53,00
3179,79	154,00
3183,63	109,00
3187,47	223,00
3191,30	153,00
3195,13	156,00
3198,95	131,00
3202,78	122,00
3206,60	62,00
3210,41	45,00
3214,23	187,00
3218,03	181,00
3221,84	129,00
3225,64	167,00
3229,44	252,00
3233,24	269,00
3237,03	199,00
3240,82	24,00
3244,61	251,00
3248,39	174,00
3252,17	85,00
3255,95	189,00
3259,72	119,00
3263,49	93,00
3267,26	204,00
3271,03	116,00
3274,79	136,00
3278,54	124,00
3282,30	109,00
3286,05	181,00
3289,80	125,00
3293,54	161,00
3297,29	69,00
3301,02	128,00
3304,76	160,00
3308,49	110,00
3312,22	263,00
3315,95	153,00
3319,67	12,00
3323,39	167,00
3327,10	129,00
3330,82	100,00
3334,53	78,00
3338,24	169,00
3341,94	53,00
3345,64	116,00
3349,34	229,00
3353,03	96,00
3356,72	161,00
3360,41	272,00
3364,10	216,00
3367,78	64,00
3371,46	74,00
3375,13	220,00
3378,81	184,00
3382,48	95,00
3386,14	79,00
3389,81	114,00
3393,47	16,00
3397,12	124,00
3400,78	-27,00
3404,43	117,00
3408,08	194,00
3411,72	173,00
3415,36	66,00
3419,00	136,00
3422,64	206,00
3426,27	114,00
3429,90	175,00
3433,53	73,00
3437,15	114,00
3440,77	113,00
3444,39	29,00
3448,00	170,00
3451,62	167,00
3455,22	227,00
3458,83	18,00
3462,43	172,00
3466,03	-29,00
3469,63	83,00
3473,22	214,00
3476,81	188,00
3480,40	107,00
3483,99	134,00
3487,57	188,00
3491,15	113,00
3494,72	145,00
3498,29	69,00
3501,86	90,00
3505,43	129,00
3508,99	119,00
3512,56	119,00
3516,11	128,00
3519,67	142,00
3523,22	121,00
3526,77	203,00
3530,32	119,00
3533,86	152,00
3537,40	137,00
3540,94	50,00
3544,47	90,00
3548,00	126,00
3551,53	183,00
3555,06	79,00
3558,58	55,00
3562,10	86,00
3565,62	86,00
3569,13	172,00
3572,64	43,00
3576,15	81,00
3579,66	60,00
3583,16	144,00
3586,66	179,00
3590,16	80,00
3593,65	168,00
3597,14	54,00
3600,63	104,00
3604,11	139,00
3607,60	73,00
3611,08	10,00
3614,55	209,00
3618,03	103,00
3621,50	48,00
3624,97	112,00
3628,43	153,00
3631,90	73,00
3635,36	116,00
3638,81	75,00
3642,27	89,00
3645,72	138,00
3649,17	120,00
3652,61	60,00
3656,06	196,00
3659,50	77,00
3662,93	31,00
3666,37	44,00
3669,80	151,00
3673,23	13,00
3676,65	76,00
3680,08	46,00
3683,50	89,00
3686,92	176,00
3690,33	220,00
3693,74	15,00
3697,15	63,00
3700,56	119,00
3703,96	43,00
3707,36	97,00
3710,76	88,00
3714,16	41,00
3717,55	8,00
3720,94	112,00
3724,33	123,00
3727,71	-46,00
3731,10	185,00
3734,48	91,00
3737,85	62,00
3741,23	139,00
3744,60	36,00
3747,97	53,00
3751,33	-18,00
3754,69	37,00
3758,05	85,00
3761,41	62,00
3764,77	51,00
3768,12	115,00
3771,47	130,00
3774,82	-4,00
3778,16	3,00
3781,50	1,00
3784,84	1,00
3788,18	-2,00
>>>>>End Processed Spectral Data<<<<<
