SpectraSuite Data File
++++++++++++++++++++++++++++++++++++
Date: Mon Mar 09 16:22:09 ICT 2026
User: Administrator
Dark Spectrum Present: Yes
Reference Spectrum Present: No
Number of Sampled Component Spectra: 1
Spectrometers: MAYP113682
Integration Time (usec): 3000000 (MAYP113682)
Spectra Averaged: 1 (MAYP113682)
Boxcar Smoothing: 0 (MAYP113682)
Correct for Electrical Dark: No (MAYP113682)
Strobe/Lamp Enabled: No (MAYP113682)
Correct for Detector Non-linearity: No (MAYP113682)
Correct for Stray Light: No (MAYP113682)
Number of Pixels in Processed Spectrum: 2068
>>>>>Begin Processed Spectral Data<<<<<
-37534,58	-4,00
-37414,56	1,00
-37295,11	-7,00
-37176,24	-4,00
-37057,95	-39,00
-36940,22	102,00
-36823,05	110,00
-36706,45	22,00
-36590,40	55,00
-36474,90	230,00
-36359,95	79,00
-36245,55	121,00
-36131,68	42,00
-36018,35	162,00
-35905,55	5,00
-35793,29	-33,00
-35681,54	110,00
-35570,32	63,00
-35459,62	20,00
-35349,43	58,00
-35239,75	37,00
-35130,58	93,00
-35021,91	5,00
-34913,74	-43,00
-34806,07	98,00
-34698,89	36,00
-34592,20	19,00
-34486,00	85,00
-34380,28	57,00
-34275,04	5,00
-34170,27	12,00
-34065,98	-78,00
-33962,16	-18,00
-33858,81	58,00
-33755,92	211,00
-33653,49	157,00
-33551,52	-69,00
-33450,01	162,00
-33348,94	70,00
-33248,33	-34,00
-33148,16	51,00
-33048,43	182,00
-32949,14	87,00
-32850,29	37,00
-32751,87	47,00
-32653,89	121,00
-32556,33	108,00
-32459,20	136,00
-32362,49	193,00
-32266,19	169,00
-32170,32	28,00
-32074,86	109,00
-31979,82	15,00
-31885,18	75,00
-31790,95	39,00
-31697,12	48,00
-31603,69	145,00
-31510,67	121,00
-31418,04	68,00
-31325,80	84,00
-31233,95	94,00
-31142,49	139,00
-31051,42	164,00
-30960,73	18,00
-30870,43	79,00
-30780,50	-81,00
-30690,95	82,00
-30601,77	186,00
-30512,97	134,00
-30424,53	120,00
-30336,46	-57,00
-30248,76	85,00
-30161,42	213,00
-30074,44	-29,00
-29987,81	205,00
-29901,55	111,00
-29815,63	92,00
-29730,07	159,00
-29644,86	39,00
-29560,00	-71,00
-29475,48	200,00
-29391,30	95,00
-29307,47	60,00
-29223,97	29,00
-29140,81	121,00
-29057,99	31,00
-28975,50	86,00
-28893,34	64,00
-28811,51	10,00
-28730,00	-24,00
-28648,82	54,00
-28567,97	11,00
-28487,43	115,00
-28407,21	27,00
-28327,32	117,00
-28247,73	122,00
-28168,46	112,00
-28089,50	127,00
-28010,85	63,00
-27932,51	83,00
-27854,48	84,00
-27776,75	-22,00
-27699,32	76,00
-27622,19	153,00
-27545,37	-10,00
-27468,84	68,00
-27392,60	54,00
-27316,66	-8,00
-27241,01	107,00
-27165,66	92,00
-27090,59	12,00
-27015,81	95,00
-26941,31	85,00
-26867,10	140,00
-26793,17	-8,00
-26719,52	16,00
-26646,15	43,00
-26573,06	83,00
-26500,24	91,00
-26427,70	94,00
-26355,43	-62,00
-26283,43	-57,00
-26211,71	59,00
-26140,25	103,00
-26069,06	119,00
-25998,13	74,00
-25927,46	25,00
-25857,06	106,00
-25786,92	138,00
-25717,04	134,00
-25647,42	55,00
-25578,05	87,00
-25508,94	126,00
-25440,09	-48,00
-25371,48	-26,00
-25303,13	27,00
-25235,02	86,00
-25167,17	83,00
-25099,56	-36,00
-25032,19	150,00
-24965,07	98,00
-24898,20	119,00
-24831,56	61,00
-24765,17	143,00
-24699,01	115,00
-24633,10	-1,00
-24567,41	30,00
-24501,97	22,00
-24436,75	52,00
-24371,77	159,00
-24307,03	17,00
-24242,51	36,00
-24178,22	1,00
-24114,16	72,00
-24050,32	131,00
-23986,71	129,00
-23923,32	-11,00
-23860,16	-18,00
-23797,22	39,00
-23734,50	78,00
-23672,00	-58,00
-23609,71	39,00
-23547,65	23,00
-23485,80	4,00
-23424,16	37,00
-23362,74	38,00
-23301,53	22,00
-23240,54	-36,00
-23179,75	134,00
-23119,17	51,00
-23058,80	125,00
-22998,64	60,00
-22938,68	98,00
-22878,93	12,00
-22819,39	88,00
-22760,04	90,00
-22700,90	-20,00
-22641,96	69,00
-22583,22	63,00
-22524,68	111,00
-22466,33	84,00
-22408,19	37,00
-22350,23	64,00
-22292,48	70,00
-22234,92	88,00
-22177,55	101,00
-22120,37	118,00
-22063,38	79,00
-22006,58	35,00
-21949,98	110,00
-21893,56	128,00
-21837,33	-54,00
-21781,28	69,00
-21725,42	107,00
-21669,74	25,00
-21614,25	-24,00
-21558,94	14,00
-21503,81	145,00
-21448,86	-110,00
-21394,10	121,00
-21339,51	111,00
-21285,10	33,00
-21230,86	3,00
-21176,81	171,00
-21122,93	70,00
-21069,22	113,00
-21015,69	138,00
-20962,33	92,00
-20909,14	12,00
-20856,13	21,00
-20803,28	125,00
-20750,61	95,00
-20698,10	8,00
-20645,76	30,00
-20593,59	68,00
-20541,59	43,00
-20489,75	21,00
-20438,07	137,00
-20386,56	32,00
-20335,22	213,00
-20284,03	16,00
-20233,01	60,00
-20182,15	-4,00
-20131,45	-49,00
-20080,91	30,00
-20030,52	40,00
-19980,30	-32,00
-19930,23	79,00
-19880,32	55,00
-19830,56	25,00
-19780,96	136,00
-19731,52	78,00
-19682,23	82,00
-19633,09	134,00
-19584,10	44,00
-19535,26	70,00
-19486,58	160,00
-19438,04	158,00
-19389,66	52,00
-19341,42	19,00
-19293,33	35,00
-19245,39	99,00
-19197,60	178,00
-19149,95	-19,00
-19102,45	54,00
-19055,09	85,00
-19007,87	75,00
-18960,80	176,00
-18913,87	16,00
-18867,09	30,00
-18820,44	105,00
-18773,94	93,00
-18727,57	65,00
-18681,35	-39,00
-18635,26	88,00
-18589,31	81,00
-18543,50	-52,00
-18497,83	24,00
-18452,29	59,00
-18406,89	-5,00
-18361,63	147,00
-18316,50	113,00
-18271,50	90,00
-18226,63	6,00
-18181,90	86,00
-18137,30	191,00
-18092,84	-47,00
-18048,50	173,00
-18004,29	56,00
-17960,22	25,00
-17916,27	119,00
-17872,45	98,00
-17828,76	93,00
-17785,20	107,00
-17741,77	184,00
-17698,46	41,00
-17655,28	7,00
-17612,22	157,00
-17569,29	119,00
-17526,48	92,00
-17483,79	12,00
-17441,23	-12,00
-17398,79	21,00
-17356,48	107,00
-17314,28	149,00
-17272,21	14,00
-17230,26	80,00
-17188,42	118,00
-17146,71	14,00
-17105,12	31,00
-17063,64	47,00
-17022,28	196,00
-16981,04	71,00
-16939,92	65,00
-16898,91	156,00
-16858,02	6,00
-16817,25	86,00
-16776,59	54,00
-16736,04	-54,00
-16695,61	71,00
-16655,29	67,00
-16615,09	140,00
-16574,99	141,00
-16535,01	59,00
-16495,15	103,00
-16455,39	90,00
-16415,74	51,00
-16376,21	72,00
-16336,78	43,00
-16297,46	55,00
-16258,26	93,00
-16219,16	71,00
-16180,17	88,00
-16141,28	121,00
-16102,51	15,00
-16063,84	14,00
-16025,27	65,00
-15986,82	239,00
-15948,46	23,00
-15910,22	54,00
-15872,07	159,00
-15834,04	120,00
-15796,10	12,00
-15758,27	169,00
-15720,54	66,00
-15682,91	83,00
-15645,39	-16,00
-15607,97	56,00
-15570,64	83,00
-15533,42	21,00
-15496,30	153,00
-15459,28	215,00
-15422,36	105,00
-15385,54	26,00
-15348,82	-24,00
-15312,19	-13,00
-15275,66	123,00
-15239,23	249,00
-15202,90	60,00
-15166,67	-30,00
-15130,53	43,00
-15094,48	93,00
-15058,54	94,00
-15022,68	91,00
-14986,93	198,00
-14951,26	36,00
-14915,69	56,00
-14880,22	146,00
-14844,84	-15,00
-14809,55	66,00
-14774,35	110,00
-14739,25	80,00
-14704,24	101,00
-14669,32	-62,00
-14634,49	131,00
-14599,75	157,00
-14565,10	33,00
-14530,55	25,00
-14496,08	148,00
-14461,70	-15,00
-14427,41	115,00
-14393,21	124,00
-14359,10	31,00
-14325,07	-45,00
-14291,14	-6,00
-14257,29	131,00
-14223,52	71,00
-14189,85	78,00
-14156,26	146,00
-14122,76	75,00
-14089,34	147,00
-14056,01	115,00
-14022,76	169,00
-13989,60	-22,00
-13956,52	211,00
-13923,53	-27,00
-13890,62	57,00
-13857,79	63,00
-13825,05	105,00
-13792,39	-63,00
-13759,81	141,00
-13727,31	79,00
-13694,90	-81,00
-13662,57	55,00
-13630,31	69,00
-13598,14	16,00
-13566,05	98,00
-13534,05	135,00
-13502,12	-12,00
-13470,27	95,00
-13438,50	56,00
-13406,80	-54,00
-13375,19	94,00
-13343,66	19,00
-13312,20	43,00
-13280,83	59,00
-13249,53	-7,00
-13218,30	81,00
-13187,16	81,00
-13156,09	83,00
-13125,10	16,00
-13094,18	60,00
-13063,34	62,00
-13032,58	-34,00
-13001,89	84,00
-12971,28	-36,00
-12940,74	122,00
-12910,27	80,00
-12879,88	20,00
-12849,57	36,00
-12819,33	90,00
-12789,16	-3,00
-12759,06	77,00
-12729,04	127,00
-12699,09	-1295,00
-12669,21	69,00
-12639,41	-14,00
-12609,68	79,00
-12580,02	88,00
-12550,43	52,00
-12520,91	60,00
-12491,46	3,00
-12462,08	63,00
-12432,77	-41,00
-12403,54	14,00
-12374,37	167,00
-12345,27	-5,00
-12316,24	97,00
-12287,29	33,00
-12258,40	42,00
-12229,57	123,00
-12200,82	-54,00
-12172,14	73,00
-12143,52	60,00
-12114,97	200,00
-12086,49	76,00
-12058,07	-10,00
-12029,73	58,00
-12001,44	66,00
-11973,23	87,00
-11945,08	166,00
-11917,00	214,00
-11888,98	75,00
-11861,03	175,00
-11833,15	20,00
-11805,32	36,00
-11777,57	104,00
-11749,88	62,00
-11722,25	-9,00
-11694,69	108,00
-11667,19	153,00
-11639,75	134,00
-11612,38	-9,00
-11585,07	58,00
-11557,83	115,00
-11530,65	112,00
-11503,53	58,00
-11476,47	127,00
-11449,48	89,00
-11422,54	63,00
-11395,67	36,00
-11368,86	63,00
-11342,11	159,00
-11315,43	-33,00
-11288,80	119,00
-11262,23	120,00
-11235,73	98,00
-11209,28	51,00
-11182,90	183,00
-11156,57	105,00
-11130,31	165,00
-11104,10	-8,00
-11077,96	54,00
-11051,87	191,00
-11025,84	50,00
-10999,87	61,00
-10973,96	48,00
-10948,11	76,00
-10922,31	57,00
-10896,58	112,00
-10870,90	99,00
-10845,28	-2,00
-10819,71	56,00
-10794,20	59,00
-10768,75	242,00
-10743,36	32,00
-10718,02	129,00
-10692,74	147,00
-10667,52	82,00
-10642,35	159,00
-10617,24	77,00
-10592,18	163,00
-10567,18	67,00
-10542,23	110,00
-10517,34	191,00
-10492,51	178,00
-10467,72	223,00
-10443,00	212,00
-10418,32	179,00
-10393,70	25,00
-10369,14	52,00
-10344,63	29,00
-10320,17	269,00
-10295,77	163,00
-10271,42	169,00
-10247,12	121,00
-10222,88	78,00
-10198,68	129,00
-10174,54	103,00
-10150,46	59,00
-10126,42	206,00
-10102,44	135,00
-10078,51	136,00
-10054,63	142,00
-10030,80	152,00
-10007,03	154,00
-9983,30	142,00
-9959,63	141,00
-9936,01	366,00
-9912,44	245,00
-9888,92	191,00
-9865,44	172,00
-9842,02	101,00
-9818,65	245,00
-9795,33	202,00
-9772,06	180,00
-9748,84	126,00
-9725,67	128,00
-9702,55	222,00
-9679,47	175,00
-9656,45	267,00
-9633,47	323,00
-9610,55	379,00
-9587,67	223,00
-9564,84	389,00
-9542,06	438,00
-9519,32	466,00
-9496,64	402,00
-9474,00	438,00
-9451,41	622,00
-9428,87	451,00
-9406,37	435,00
-9383,92	417,00
-9361,52	535,00
-9339,17	322,00
-9316,86	574,00
-9294,60	627,00
-9272,38	683,00
-9250,21	726,00
-9228,09	720,00
-9206,01	708,00
-9183,98	631,00
-9162,00	635,00
-9140,06	583,00
-9118,16	641,00
-9096,31	722,00
-9074,51	644,00
-9052,75	707,00
-9031,04	744,00
-9009,37	638,00
-8987,74	435,00
-8966,16	423,00
-8944,63	279,00
-8923,14	291,00
-8901,69	448,00
-8880,29	607,00
-8858,93	655,00
-8837,61	643,00
-8816,34	909,00
-8795,11	680,00
-8773,92	598,00
-8752,78	507,00
-8731,68	615,00
-8710,62	477,00
-8689,61	644,00
-8668,63	678,00
-8647,70	562,00
-8626,82	707,00
-8605,97	761,00
-8585,17	522,00
-8564,41	481,00
-8543,69	527,00
-8523,01	349,00
-8502,37	502,00
-8481,78	585,00
-8461,23	594,00
-8440,71	526,00
-8420,24	702,00
-8399,81	720,00
-8379,42	725,00
-8359,08	594,00
-8338,77	478,00
-8318,50	595,00
-8298,27	559,00
-8278,09	460,00
-8257,94	558,00
-8237,83	704,00
-8217,76	771,00
-8197,74	744,00
-8177,75	611,00
-8157,80	727,00
-8137,89	585,00
-8118,02	548,00
-8098,19	408,00
-8078,40	555,00
-8058,65	586,00
-8038,93	650,00
-8019,26	614,00
-7999,62	520,00
-7980,02	414,00
-7960,46	526,00
-7940,94	543,00
-7921,46	382,00
-7902,01	348,00
-7882,60	444,00
-7863,23	465,00
-7843,90	485,00
-7824,61	475,00
-7805,35	568,00
-7786,13	635,00
-7766,95	580,00
-7747,80	508,00
-7728,69	489,00
-7709,62	519,00
-7690,59	556,00
-7671,59	584,00
-7652,63	654,00
-7633,70	603,00
-7614,81	579,00
-7595,96	593,00
-7577,15	474,00
-7558,37	410,00
-7539,62	522,00
-7520,91	561,00
-7502,24	480,00
-7483,60	538,00
-7465,00	459,00
-7446,44	499,00
-7427,91	409,00
-7409,41	387,00
-7390,95	301,00
-7372,53	350,00
-7354,14	229,00
-7335,78	215,00
-7317,46	441,00
-7299,18	450,00
-7280,92	460,00
-7262,71	549,00
-7244,52	487,00
-7226,38	596,00
-7208,26	513,00
-7190,18	562,00
-7172,14	543,00
-7154,12	341,00
-7136,15	456,00
-7118,20	543,00
-7100,29	553,00
-7082,41	445,00
-7064,57	492,00
-7046,76	486,00
-7028,98	362,00
-7011,24	325,00
-6993,53	188,00
-6975,85	255,00
-6958,20	97,00
-6940,59	92,00
-6923,01	257,00
-6905,46	213,00
-6887,94	330,00
-6870,46	448,00
-6853,01	445,00
-6835,59	515,00
-6818,21	300,00
-6800,85	351,00
-6783,53	278,00
-6766,24	89,00
-6748,98	62,00
-6731,76	153,00
-6714,56	20,00
-6697,40	162,00
-6680,26	58,00
-6663,16	252,00
-6646,09	280,00
-6629,05	342,00
-6612,05	428,00
-6595,07	383,00
-6578,13	254,00
-6561,21	154,00
-6544,33	178,00
-6527,47	56,00
-6510,65	-32,00
-6493,86	48,00
-6477,10	145,00
-6460,36	82,00
-6443,66	64,00
-6426,99	209,00
-6410,35	90,00
-6393,74	187,00
-6377,16	229,00
-6360,61	136,00
-6344,09	66,00
-6327,59	176,00
-6311,13	160,00
-6294,70	85,00
-6278,29	350,00
-6261,92	403,00
-6245,58	332,00
-6229,26	435,00
-6212,97	374,00
-6196,72	273,00
-6180,49	67,00
-6164,29	139,00
-6148,12	95,00
-6131,98	-8,00
-6115,86	77,00
-6099,78	-69,00
-6083,72	26,00
-6067,69	-87,00
-6051,69	42,00
-6035,72	111,00
-6019,78	188,00
-6003,87	108,00
-5987,98	195,00
-5972,12	283,00
-5956,29	340,00
-5940,49	294,00
-5924,71	143,00
-5908,96	2,00
-5893,24	86,00
-5877,55	175,00
-5861,89	47,00
-5846,25	104,00
-5830,64	19,00
-5815,05	101,00
-5799,50	107,00
-5783,97	119,00
-5768,47	213,00
-5752,99	133,00
-5737,55	179,00
-5722,12	217,00
-5706,73	387,00
-5691,36	221,00
-5676,02	54,00
-5660,71	52,00
-5645,42	110,00
-5630,16	149,00
-5614,92	142,00
-5599,71	115,00
-5584,53	115,00
-5569,37	132,00
-5554,24	232,00
-5539,14	179,00
-5524,06	84,00
-5509,01	171,00
-5493,98	10,00
-5478,98	130,00
-5464,00	209,00
-5449,05	47,00
-5434,13	133,00
-5419,23	-10,00
-5404,36	125,00
-5389,51	240,00
-5374,69	305,00
-5359,89	117,00
-5345,12	308,00
-5330,37	334,00
-5315,65	142,00
-5300,95	215,00
-5286,28	118,00
-5271,63	166,00
-5257,01	89,00
-5242,41	97,00
-5227,84	75,00
-5213,29	138,00
-5198,76	34,00
-5184,26	2,00
-5169,79	90,00
-5155,33	144,00
-5140,91	-23,00
-5126,51	228,00
-5112,13	165,00
-5097,77	110,00
-5083,44	80,00
-5069,13	56,00
-5054,85	76,00
-5040,59	83,00
-5026,36	159,00
-5012,15	99,00
-4997,96	78,00
-4983,80	50,00
-4969,66	49,00
-4955,54	121,00
-4941,44	132,00
-4927,37	219,00
-4913,33	341,00
-4899,30	305,00
-4885,30	356,00
-4871,33	278,00
-4857,37	133,00
-4843,44	95,00
-4829,53	150,00
-4815,65	58,00
-4801,79	117,00
-4787,95	58,00
-4774,13	125,00
-4760,34	178,00
-4746,56	-37,00
-4732,82	82,00
-4719,09	185,00
-4705,38	230,00
-4691,70	251,00
-4678,04	83,00
-4664,41	133,00
-4650,79	107,00
-4637,20	112,00
-4623,63	86,00
-4610,08	69,00
-4596,56	69,00
-4583,05	237,00
-4569,57	184,00
-4556,11	243,00
-4542,67	117,00
-4529,25	139,00
-4515,86	101,00
-4502,49	232,00
-4489,13	256,00
-4475,80	261,00
-4462,49	214,00
-4449,21	141,00
-4435,94	133,00
-4422,70	96,00
-4409,47	42,00
-4396,27	183,00
-4383,09	200,00
-4369,93	26,00
-4356,79	152,00
-4343,67	83,00
-4330,58	29,00
-4317,50	217,00
-4304,45	146,00
-4291,41	28,00
-4278,40	-5,00
-4265,41	94,00
-4252,44	81,00
-4239,49	126,00
-4226,55	160,00
-4213,65	255,00
-4200,76	162,00
-4187,89	61,00
-4175,04	77,00
-4162,21	158,00
-4149,40	110,00
-4136,61	154,00
-4123,85	77,00
-4111,10	-6,00
-4098,37	117,00
-4085,66	115,00
-4072,98	200,00
-4060,31	61,00
-4047,66	96,00
-4035,04	171,00
-4022,43	148,00
-4009,84	95,00
-3997,27	61,00
-3984,72	166,00
-3972,19	14,00
-3959,69	53,00
-3947,20	99,00
-3934,73	18,00
-3922,27	41,00
-3909,84	65,00
-3897,43	82,00
-3885,04	53,00
-3872,67	-20,00
-3860,31	-2,00
-3847,98	97,00
-3835,66	4,00
-3823,36	50,00
-3811,09	95,00
-3798,83	81,00
-3786,59	165,00
-3774,37	147,00
-3762,17	163,00
-3749,98	65,00
-3737,82	60,00
-3725,67	-11,00
-3713,55	-33,00
-3701,44	57,00
-3689,35	12,00
-3677,28	32,00
-3665,22	20,00
-3653,19	11,00
-3641,17	107,00
-3629,18	23,00
-3617,20	53,00
-3605,24	132,00
-3593,30	-42,00
-3581,37	105,00
-3569,47	75,00
-3557,58	45,00
-3545,71	121,00
-3533,86	80,00
-3522,02	12,00
-3510,21	148,00
-3498,41	60,00
-3486,63	169,00
-3474,87	-35,00
-3463,12	87,00
-3451,40	160,00
-3439,69	158,00
-3428,00	222,00
-3416,33	84,00
-3404,67	68,00
-3393,03	109,00
-3381,41	-59,00
-3369,81	-33,00
-3358,22	153,00
-3346,66	130,00
-3335,10	100,00
-3323,57	137,00
-3312,06	95,00
-3300,56	5,00
-3289,08	19,00
-3277,61	36,00
-3266,16	2,00
-3254,73	121,00
-3243,32	-40,00
-3231,92	104,00
-3220,55	-61,00
-3209,18	100,00
-3197,84	186,00
-3186,51	73,00
-3175,20	65,00
-3163,90	92,00
-3152,63	-16,00
-3141,36	31,00
-3130,12	46,00
-3118,89	-61,00
-3107,68	146,00
-3096,49	86,00
-3085,31	102,00
-3074,15	92,00
-3063,00	-81,00
-3051,87	38,00
-3040,76	23,00
-3029,67	18,00
-3018,59	-40,00
-3007,52	72,00
-2996,48	107,00
-2985,44	152,00
-2974,43	85,00
-2963,43	38,00
-2952,45	59,00
-2941,48	16,00
-2930,53	-114,00
-2919,60	22,00
-2908,68	141,00
-2897,78	112,00
-2886,89	147,00
-2876,02	150,00
-2865,17	140,00
-2854,33	120,00
-2843,50	79,00
-2832,70	94,00
-2821,90	105,00
-2811,13	-2,00
-2800,37	-23,00
-2789,62	149,00
-2778,89	123,00
-2768,18	115,00
-2757,48	-2,00
-2746,80	55,00
-2736,13	67,00
-2725,48	35,00
-2714,84	-14,00
-2704,22	84,00
-2693,61	-60,00
-2683,02	-93,00
-2672,45	33,00
-2661,89	-16,00
-2651,34	-75,00
-2640,81	71,00
-2630,30	198,00
-2619,80	120,00
-2609,31	38,00
-2598,84	-15,00
-2588,39	46,00
-2577,95	163,00
-2567,52	45,00
-2557,11	30,00
-2546,71	104,00
-2536,33	144,00
-2525,97	144,00
-2515,62	-7,00
-2505,28	100,00
-2494,96	-48,00
-2484,65	72,00
-2474,36	456,00
-2464,08	25,00
-2453,82	116,00
-2443,57	134,00
-2433,33	95,00
-2423,11	141,00
-2412,91	20,00
-2402,72	120,00
-2392,54	241,00
-2382,38	110,00
-2372,23	76,00
-2362,09	454,00
-2351,97	41,00
-2341,87	18,00
-2331,78	22,00
-2321,70	-14,00
-2311,64	173,00
-2301,59	209,00
-2291,55	22,00
-2281,53	49,00
-2271,53	37,00
-2261,53	147,00
-2251,55	41,00
-2241,59	176,00
-2231,64	32,00
-2221,70	80,00
-2211,78	61,00
-2201,87	127,00
-2191,97	6,00
-2182,09	34,00
-2172,22	117,00
-2162,37	26,00
-2152,53	80,00
-2142,70	47,00
-2132,89	77,00
-2123,09	-15,00
-2113,30	93,00
-2103,53	171,00
-2093,77	-30,00
-2084,02	60,00
-2074,29	69,00
-2064,57	129,00
-2054,86	132,00
-2045,17	99,00
-2035,49	52,00
-2025,82	-42,00
-2016,17	59,00
-2006,53	23,00
-1996,91	23,00
-1987,29	126,00
-1977,69	76,00
-1968,11	133,00
-1958,53	39,00
-1948,97	29,00
-1939,42	97,00
-1929,89	-36,00
-1920,37	116,00
-1910,86	156,00
-1901,36	170,00
-1891,88	45,00
-1882,41	29,00
-1872,95	129,00
-1863,51	-15,00
-1854,08	46,00
-1844,66	179,00
-1835,26	133,00
-1825,86	109,00
-1816,48	-2,00
-1807,11	87,00
-1797,76	66,00
-1788,42	85,00
-1779,09	72,00
-1769,77	39,00
-1760,47	78,00
-1751,17	-58,00
-1741,89	5,00
-1732,63	0,00
-1723,37	240,00
-1714,13	42,00
-1704,90	38,00
-1695,68	94,00
-1686,48	54,00
-1677,29	132,00
-1668,11	99,00
-1658,94	75,00
-1649,78	58,00
-1640,64	93,00
-1631,51	78,00
-1622,39	61,00
-1613,28	69,00
-1604,19	20,00
-1595,10	216,00
-1586,03	188,00
-1576,97	14,00
-1567,93	146,00
-1558,89	52,00
-1549,87	-2,00
-1540,86	144,00
-1531,86	71,00
-1522,87	16,00
-1513,90	252,00
-1504,93	-63,00
-1495,98	84,00
-1487,04	229,00
-1478,12	53,00
-1469,20	-55,00
-1460,30	72,00
-1451,40	84,00
-1442,52	127,00
-1433,65	114,00
-1424,80	148,00
-1415,95	92,00
-1407,12	54,00
-1398,30	212,00
-1389,48	131,00
-1380,69	118,00
-1371,90	-4,00
-1363,12	151,00
-1354,36	65,00
-1345,60	124,00
-1336,86	128,00
-1328,13	151,00
-1319,41	-15,00
-1310,70	108,00
-1302,01	81,00
-1293,32	81,00
-1284,65	107,00
-1275,99	100,00
-1267,33	73,00
-1258,69	145,00
-1250,06	267,00
-1241,45	115,00
-1232,84	109,00
-1224,25	25,00
-1215,66	11,00
-1207,09	31,00
-1198,53	136,00
-1189,97	148,00
-1181,43	-15,00
-1172,91	173,00
-1164,39	88,00
-1155,88	211,00
-1147,38	-12,00
-1138,90	-28,00
-1130,43	70,00
-1121,96	121,00
-1113,51	128,00
-1105,07	67,00
-1096,64	94,00
-1088,22	149,00
-1079,81	136,00
-1071,41	84,00
-1063,02	147,00
-1054,65	131,00
-1046,28	-24,00
-1037,92	87,00
-1029,58	160,00
-1021,24	70,00
-1012,92	219,00
-1004,61	-49,00
-996,30	172,00
-988,01	-37,00
-979,73	61,00
-971,46	105,00
-963,20	-24,00
-954,95	61,00
-946,71	89,00
-938,48	47,00
-930,26	84,00
-922,06	29,00
-913,86	49,00
-905,67	31,00
-897,49	-29,00
-889,33	41,00
-881,17	108,00
-873,02	-40,00
-864,89	152,00
-856,76	50,00
-848,65	152,00
-840,54	44,00
-832,45	53,00
-824,36	108,00
-816,29	89,00
-808,22	59,00
-800,17	-55,00
-792,12	249,00
-784,09	78,00
-776,06	-13,00
-768,05	149,00
-760,04	60,00
-752,05	182,00
-744,07	1,00
-736,09	10,00
-728,13	6,00
-720,17	57,00
-712,23	86,00
-704,29	85,00
-696,37	41,00
-688,45	43,00
-680,55	60,00
-672,65	128,00
-664,77	200,00
-656,89	-14,00
-649,03	117,00
-641,17	99,00
-633,32	22,00
-625,49	175,00
-617,66	99,00
-609,84	30,00
-602,03	117,00
-594,23	58,00
-586,45	29,00
-578,67	-4,00
-570,90	70,00
-563,14	75,00
-555,39	29,00
-547,65	155,00
-539,91	98,00
-532,19	155,00
-524,48	35,00
-516,78	85,00
-509,08	101,00
-501,40	95,00
-493,72	19,00
-486,06	71,00
-478,40	95,00
-470,76	143,00
-463,12	161,00
-455,49	73,00
-447,87	169,00
-440,26	2,00
-432,66	-44,00
-425,07	48,00
-417,49	184,00
-409,92	70,00
-402,35	167,00
-394,80	62,00
-387,25	83,00
-379,72	69,00
-372,19	85,00
-364,67	194,00
-357,17	164,00
-349,67	112,00
-342,18	124,00
-334,69	-14,00
-327,22	56,00
-319,76	104,00
-312,30	170,00
-304,86	139,00
-297,42	115,00
-290,00	2,00
-282,58	103,00
-275,17	189,00
-267,77	58,00
-260,37	148,00
-252,99	129,00
-245,62	44,00
-238,25	83,00
-230,90	133,00
-223,55	109,00
-216,21	114,00
-208,88	79,00
-201,56	149,00
-194,25	188,00
-186,94	279,00
-179,65	242,00
-172,36	190,00
-165,08	264,00
-157,81	235,00
-150,55	279,00
-143,30	248,00
-136,06	481,00
-128,82	446,00
-121,60	460,00
-114,38	441,00
-107,17	606,00
-99,97	730,00
-92,78	636,00
-85,60	807,00
-78,42	1043,00
-71,25	1019,00
-64,10	1200,00
-56,95	1420,00
-49,81	1582,00
-42,67	1977,00
-35,55	2465,00
-28,43	3305,00
-21,33	5407,00
-14,23	18319,00
-7,14	55164,00
-0,05	54791,00
7,02	54542,00
14,09	54846,00
21,14	16635,00
28,19	6914,00
35,23	4212,00
42,27	3312,00
49,29	2783,00
56,31	2180,00
63,32	2012,00
70,32	1568,00
77,31	1435,00
84,29	1093,00
91,27	1041,00
98,23	827,00
105,19	872,00
112,14	1079,00
119,09	1462,00
126,02	2079,00
132,95	2332,00
139,87	2295,00
146,78	2347,00
153,68	2158,00
160,58	2128,00
167,46	2082,00
174,34	2126,00
181,21	2220,00
188,08	2013,00
194,93	1801,00
201,78	1991,00
208,62	2021,00
215,45	2022,00
222,27	2050,00
229,09	2021,00
235,90	2095,00
242,70	1957,00
249,49	1992,00
256,27	1937,00
263,05	1872,00
269,82	1900,00
276,58	1819,00
283,33	1891,00
290,08	1864,00
296,82	1783,00
303,55	1752,00
310,27	1744,00
316,98	1744,00
323,69	1728,00
330,39	1771,00
337,08	1716,00
343,76	1689,00
350,44	1779,00
357,11	1744,00
363,77	1733,00
370,42	1758,00
377,07	1695,00
383,71	1718,00
390,34	1670,00
396,96	1654,00
403,58	1607,00
410,19	1681,00
416,79	1660,00
423,38	1704,00
429,97	1656,00
436,55	1669,00
443,12	1605,00
449,68	1447,00
456,24	1471,00
462,79	1400,00
469,33	1422,00
475,86	1438,00
482,39	1491,00
488,91	1521,00
495,42	1510,00
501,93	1399,00
508,42	1408,00
514,91	1541,00
521,40	1462,00
527,87	1336,00
534,34	1304,00
540,80	1336,00
547,25	1300,00
553,70	1479,00
560,14	1327,00
566,57	1356,00
573,00	1287,00
579,41	1331,00
585,83	1260,00
592,23	1163,00
598,62	1342,00
605,01	1265,00
611,40	1336,00
617,77	1296,00
624,14	1244,00
630,50	1414,00
636,85	1288,00
643,20	1179,00
649,54	1188,00
655,87	1188,00
662,20	1261,00
668,52	1097,00
674,83	1159,00
681,13	1219,00
687,43	1028,00
693,72	1170,00
700,00	1149,00
706,28	1171,00
712,55	1164,00
718,81	1228,00
725,07	1229,00
731,32	1136,00
737,56	1321,00
743,79	1174,00
750,02	1296,00
756,24	1053,00
762,46	1041,00
768,67	1208,00
774,87	1056,00
781,06	1059,00
787,25	1147,00
793,43	1134,00
799,60	1172,00
805,77	1022,00
811,93	1278,00
818,08	1192,00
824,23	1276,00
830,37	1142,00
836,50	1195,00
842,63	1222,00
848,75	1194,00
854,87	1133,00
860,97	1255,00
867,07	1235,00
873,17	1056,00
879,25	1033,00
885,33	1068,00
891,41	1143,00
897,47	1075,00
903,53	1134,00
909,59	1097,00
915,63	1098,00
921,67	983,00
927,71	1001,00
933,74	907,00
939,76	977,00
945,77	871,00
951,78	949,00
957,78	1069,00
963,78	1061,00
969,77	983,00
975,75	1125,00
981,72	897,00
987,69	993,00
993,66	1059,00
999,61	970,00
1005,56	1013,00
1011,51	1011,00
1017,44	1073,00
1023,37	956,00
1029,30	1023,00
1035,22	1118,00
1041,13	1051,00
1047,03	1111,00
1052,93	1024,00
1058,83	1244,00
1064,71	1344,00
1070,59	1303,00
1076,47	1129,00
1082,33	1211,00
1088,20	1114,00
1094,05	1022,00
1099,90	1031,00
1105,74	1032,00
1111,58	1024,00
1117,41	956,00
1123,23	1281,00
1129,05	1338,00
1134,86	1283,00
1140,67	1067,00
1146,47	1147,00
1152,26	987,00
1158,05	977,00
1163,83	1012,00
1169,60	1049,00
1175,37	929,00
1181,13	807,00
1186,89	920,00
1192,64	906,00
1198,38	922,00
1204,12	807,00
1209,85	741,00
1215,58	985,00
1221,30	844,00
1227,02	941,00
1232,72	1001,00
1238,43	877,00
1244,12	1019,00
1249,81	900,00
1255,50	1045,00
1261,17	962,00
1266,85	1030,00
1272,51	1047,00
1278,17	1016,00
1283,83	1102,00
1289,47	1382,00
1295,12	1584,00
1300,75	1454,00
1306,38	1300,00
1312,01	1140,00
1317,63	1138,00
1323,24	960,00
1328,85	1100,00
1334,45	1088,00
1340,04	975,00
1345,63	1097,00
1351,22	969,00
1356,80	1005,00
1362,37	956,00
1367,93	979,00
1373,49	1023,00
1379,05	958,00
1384,60	1024,00
1390,14	1051,00
1395,68	1033,00
1401,21	882,00
1406,74	938,00
1412,26	1171,00
1417,77	1164,00
1423,28	1178,00
1428,78	1294,00
1434,28	1476,00
1439,77	1558,00
1445,26	1595,00
1450,74	1541,00
1456,22	1429,00
1461,68	1440,00
1467,15	1458,00
1472,61	1160,00
1478,06	1129,00
1483,51	1128,00
1488,95	1006,00
1494,38	984,00
1499,81	1011,00
1505,24	896,00
1510,65	844,00
1516,07	912,00
1521,48	927,00
1526,88	906,00
1532,27	825,00
1537,67	849,00
1543,05	861,00
1548,43	853,00
1553,81	965,00
1559,18	813,00
1564,54	818,00
1569,90	801,00
1575,25	845,00
1580,60	755,00
1585,94	738,00
1591,28	795,00
1596,61	773,00
1601,93	814,00
1607,25	861,00
1612,57	838,00
1617,88	856,00
1623,18	821,00
1628,48	738,00
1633,77	740,00
1639,06	721,00
1644,34	771,00
1649,62	769,00
1654,89	849,00
1660,16	672,00
1665,42	658,00
1670,67	726,00
1675,92	630,00
1681,17	718,00
1686,41	708,00
1691,64	669,00
1696,87	722,00
1702,10	601,00
1707,32	751,00
1712,53	690,00
1717,74	634,00
1722,94	614,00
1728,14	690,00
1733,33	689,00
1738,52	634,00
1743,70	623,00
1748,88	729,00
1754,05	676,00
1759,22	670,00
1764,38	741,00
1769,53	619,00
1774,69	634,00
1779,83	678,00
1784,97	579,00
1790,11	633,00
1795,24	809,00
1800,36	615,00
1805,48	609,00
1810,60	576,00
1815,71	591,00
1820,82	624,00
1825,92	561,00
1831,01	639,00
1836,10	449,00
1841,19	650,00
1846,26	702,00
1851,34	507,00
1856,41	621,00
1861,47	502,00
1866,53	663,00
1871,59	475,00
1876,64	496,00
1881,68	367,00
1886,72	547,00
1891,76	580,00
1896,79	540,00
1901,81	644,00
1906,83	468,00
1911,85	566,00
1916,86	548,00
1921,86	647,00
1926,86	514,00
1931,86	569,00
1936,85	510,00
1941,83	525,00
1946,81	483,00
1951,79	472,00
1956,76	475,00
1961,72	344,00
1966,68	509,00
1971,64	418,00
1976,59	460,00
1981,54	372,00
1986,48	506,00
1991,42	468,00
1996,35	496,00
2001,27	479,00
2006,20	393,00
2011,11	467,00
2016,03	443,00
2020,93	430,00
2025,84	538,00
2030,73	410,00
2035,63	397,00
2040,52	423,00
2045,40	511,00
2050,28	472,00
2055,15	382,00
2060,02	456,00
2064,89	418,00
2069,75	464,00
2074,60	373,00
2079,46	328,00
2084,30	409,00
2089,14	366,00
2093,98	498,00
2098,81	485,00
2103,64	517,00
2108,46	411,00
2113,28	399,00
2118,09	238,00
2122,90	369,00
2127,70	335,00
2132,50	440,00
2137,30	389,00
2142,09	421,00
2146,87	326,00
2151,66	403,00
2156,43	347,00
2161,20	231,00
2165,97	364,00
2170,73	316,00
2175,49	399,00
2180,24	446,00
2184,99	607,00
2189,74	437,00
2194,48	427,00
2199,21	462,00
2203,94	433,00
2208,67	331,00
2213,39	395,00
2218,11	232,00
2222,82	421,00
2227,53	345,00
2232,23	315,00
2236,93	382,00
2241,63	314,00
2246,32	378,00
2251,00	316,00
2255,68	420,00
2260,36	301,00
2265,03	353,00
2269,70	286,00
2274,36	368,00
2279,02	295,00
2283,68	263,00
2288,33	167,00
2292,97	275,00
2297,61	305,00
2302,25	363,00
2306,88	309,00
2311,51	389,00
2316,14	345,00
2320,75	425,00
2325,37	348,00
2329,98	401,00
2334,59	297,00
2339,19	285,00
2343,79	265,00
2348,38	358,00
2352,97	321,00
2357,55	233,00
2362,13	353,00
2366,71	446,00
2371,28	269,00
2375,85	256,00
2380,41	220,00
2384,97	313,00
2389,52	282,00
2394,07	195,00
2398,62	314,00
2403,16	288,00
2407,70	356,00
2412,23	355,00
2416,76	212,00
2421,29	316,00
2425,81	259,00
2430,32	318,00
2434,84	260,00
2439,34	304,00
2443,85	204,00
2448,35	158,00
2452,84	283,00
2457,33	178,00
2461,82	311,00
2466,30	323,00
2470,78	399,00
2475,25	233,00
2479,72	312,00
2484,19	356,00
2488,65	351,00
2493,11	178,00
2497,56	330,00
2502,01	259,00
2506,46	321,00
2510,90	189,00
2515,34	305,00
2519,77	202,00
2524,20	334,00
2528,62	179,00
2533,04	345,00
2537,46	222,00
2541,87	149,00
2546,28	179,00
2550,68	312,00
2555,08	102,00
2559,48	305,00
2563,87	195,00
2568,26	280,00
2572,64	313,00
2577,02	317,00
2581,40	266,00
2585,77	291,00
2590,14	179,00
2594,50	132,00
2598,86	337,00
2603,22	288,00
2607,57	229,00
2611,92	211,00
2616,26	143,00
2620,60	269,00
2624,94	219,00
2629,27	304,00
2633,60	172,00
2637,92	262,00
2642,24	274,00
2646,56	167,00
2650,87	90,00
2655,18	242,00
2659,48	275,00
2663,78	332,00
2668,08	241,00
2672,37	429,00
2676,66	275,00
2680,95	238,00
2685,23	124,00
2689,50	340,00
2693,78	230,00
2698,05	200,00
2702,31	305,00
2706,57	245,00
2710,83	355,00
2715,08	296,00
2719,33	441,00
2723,58	385,00
2727,82	476,00
2732,06	355,00
2736,29	328,00
2740,53	359,00
2744,75	326,00
2748,97	353,00
2753,19	388,00
2757,41	348,00
2761,62	316,00
2765,83	230,00
2770,03	265,00
2774,23	194,00
2778,43	313,00
2782,62	274,00
2786,81	215,00
2791,00	162,00
2795,18	401,00
2799,35	171,00
2803,53	414,00
2807,70	470,00
2811,86	295,00
2816,03	332,00
2820,19	374,00
2824,34	370,00
2828,49	453,00
2832,64	527,00
2836,78	621,00
2840,92	805,00
2845,06	896,00
2849,19	1053,00
2853,32	1028,00
2857,45	970,00
2861,57	1128,00
2865,69	1014,00
2869,80	1184,00
2873,91	1093,00
2878,02	1177,00
2882,12	1130,00
2886,22	1196,00
2890,32	1118,00
2894,41	1021,00
2898,50	899,00
2902,58	874,00
2906,67	843,00
2910,74	825,00
2914,82	670,00
2918,89	717,00
2922,96	740,00
2927,02	667,00
2931,08	622,00
2935,13	651,00
2939,19	522,00
2943,24	493,00
2947,28	352,00
2951,32	416,00
2955,36	500,00
2959,40	370,00
2963,43	246,00
2967,46	320,00
2971,48	353,00
2975,50	268,00
2979,52	322,00
2983,53	315,00
2987,54	299,00
2991,55	217,00
2995,55	204,00
2999,55	117,00
3003,54	217,00
3007,54	187,00
3011,53	137,00
3015,51	251,00
3019,49	168,00
3023,47	241,00
3027,45	253,00
3031,42	236,00
3035,39	229,00
3039,35	255,00
3043,31	187,00
3047,27	140,00
3051,22	205,00
3055,17	157,00
3059,12	144,00
3063,06	195,00
3067,00	29,00
3070,94	47,00
3074,87	103,00
3078,80	231,00
3082,73	109,00
3086,65	73,00
3090,57	104,00
3094,49	185,00
3098,40	72,00
3102,31	175,00
3106,22	37,00
3110,12	8,00
3114,02	190,00
3117,92	97,00
3121,81	64,00
3125,70	238,00
3129,58	145,00
3133,47	69,00
3137,34	3,00
3141,22	34,00
3145,09	161,00
3148,96	114,00
3152,83	126,00
3156,69	120,00
3160,55	155,00
3164,40	39,00
3168,26	67,00
3172,10	258,00
3175,95	139,00
3179,79	233,00
3183,63	109,00
3187,47	262,00
3191,30	133,00
3195,13	182,00
3198,95	224,00
3202,78	33,00
3206,60	145,00
3210,41	137,00
3214,23	165,00
3218,03	89,00
3221,84	189,00
3225,64	116,00
3229,44	138,00
3233,24	221,00
3237,03	78,00
3240,82	80,00
3244,61	50,00
3248,39	33,00
3252,17	149,00
3255,95	122,00
3259,72	176,00
3263,49	139,00
3267,26	55,00
3271,03	108,00
3274,79	135,00
3278,54	173,00
3282,30	119,00
3286,05	206,00
3289,80	135,00
3293,54	62,00
3297,29	165,00
3301,02	114,00
3304,76	101,00
3308,49	78,00
3312,22	165,00
3315,95	87,00
3319,67	110,00
3323,39	113,00
3327,10	48,00
3330,82	144,00
3334,53	158,00
3338,24	16,00
3341,94	170,00
3345,64	134,00
3349,34	-3,00
3353,03	101,00
3356,72	153,00
3360,41	-2,00
3364,10	159,00
3367,78	65,00
3371,46	85,00
3375,13	129,00
3378,81	130,00
3382,48	62,00
3386,14	263,00
3389,81	-50,00
3393,47	56,00
3397,12	121,00
3400,78	30,00
3404,43	126,00
3408,08	-16,00
3411,72	84,00
3415,36	110,00
3419,00	38,00
3422,64	-64,00
3426,27	175,00
3429,90	202,00
3433,53	-2,00
3437,15	93,00
3440,77	62,00
3444,39	63,00
3448,00	48,00
3451,62	161,00
3455,22	-18,00
3458,83	110,00
3462,43	149,00
3466,03	106,00
3469,63	6,00
3473,22	81,00
3476,81	96,00
3480,40	95,00
3483,99	146,00
3487,57	103,00
3491,15	64,00
3494,72	123,00
3498,29	102,00
3501,86	97,00
3505,43	84,00
3508,99	95,00
3512,56	75,00
3516,11	70,00
3519,67	-14,00
3523,22	62,00
3526,77	91,00
3530,32	126,00
3533,86	23,00
3537,40	72,00
3540,94	110,00
3544,47	-41,00
3548,00	103,00
3551,53	98,00
3555,06	52,00
3558,58	83,00
3562,10	52,00
3565,62	174,00
3569,13	60,00
3572,64	126,00
3576,15	58,00
3579,66	108,00
3583,16	81,00
3586,66	94,00
3590,16	61,00
3593,65	82,00
3597,14	87,00
3600,63	49,00
3604,11	74,00
3607,60	24,00
3611,08	128,00
3614,55	-11,00
3618,03	81,00
3621,50	-20,00
3624,97	145,00
3628,43	60,00
3631,90	35,00
3635,36	37,00
3638,81	42,00
3642,27	6,00
3645,72	153,00
3649,17	72,00
3652,61	120,00
3656,06	-3,00
3659,50	74,00
3662,93	20,00
3666,37	-5,00
3669,80	109,00
3673,23	-2,00
3676,65	108,00
3680,08	106,00
3683,50	40,00
3686,92	-7,00
3690,33	124,00
3693,74	143,00
3697,15	145,00
3700,56	114,00
3703,96	24,00
3707,36	-53,00
3710,76	66,00
3714,16	67,00
3717,55	29,00
3720,94	70,00
3724,33	18,00
3727,71	24,00
3731,10	26,00
3734,48	50,00
3737,85	-49,00
3741,23	-3,00
3744,60	-16,00
3747,97	-70,00
3751,33	104,00
3754,69	63,00
3758,05	128,00
3761,41	-20,00
3764,77	138,00
3768,12	73,00
3771,47	72,00
3774,82	47,00
3778,16	3,00
3781,50	-5,00
3784,84	0,00
3788,18	9,00
>>>>>End Processed Spectral Data<<<<<
