SpectraSuite Data File
++++++++++++++++++++++++++++++++++++
Date: Mon Mar 09 15:48:20 ICT 2026
User: Administrator
Dark Spectrum Present: Yes
Reference Spectrum Present: No
Number of Sampled Component Spectra: 1
Spectrometers: MAYP113682
Integration Time (usec): 3000000 (MAYP113682)
Spectra Averaged: 1 (MAYP113682)
Boxcar Smoothing: 0 (MAYP113682)
Correct for Electrical Dark: No (MAYP113682)
Strobe/Lamp Enabled: No (MAYP113682)
Correct for Detector Non-linearity: No (MAYP113682)
Correct for Stray Light: No (MAYP113682)
Number of Pixels in Processed Spectrum: 2068
>>>>>Begin Processed Spectral Data<<<<<
-37534,58	10,00
-37414,56	0,00
-37295,11	3,00
-37176,24	3,00
-37057,95	361,00
-36940,22	332,00
-36823,05	274,00
-36706,45	451,00
-36590,40	256,00
-36474,90	286,00
-36359,95	426,00
-36245,55	361,00
-36131,68	244,00
-36018,35	365,00
-35905,55	376,00
-35793,29	302,00
-35681,54	453,00
-35570,32	348,00
-35459,62	378,00
-35349,43	185,00
-35239,75	311,00
-35130,58	372,00
-35021,91	247,00
-34913,74	316,00
-34806,07	344,00
-34698,89	385,00
-34592,20	247,00
-34486,00	346,00
-34380,28	325,00
-34275,04	388,00
-34170,27	381,00
-34065,98	302,00
-33962,16	471,00
-33858,81	328,00
-33755,92	438,00
-33653,49	347,00
-33551,52	440,00
-33450,01	390,00
-33348,94	303,00
-33248,33	327,00
-33148,16	359,00
-33048,43	469,00
-32949,14	377,00
-32850,29	379,00
-32751,87	523,00
-32653,89	375,00
-32556,33	332,00
-32459,20	323,00
-32362,49	349,00
-32266,19	325,00
-32170,32	412,00
-32074,86	427,00
-31979,82	406,00
-31885,18	364,00
-31790,95	328,00
-31697,12	326,00
-31603,69	472,00
-31510,67	427,00
-31418,04	494,00
-31325,80	321,00
-31233,95	448,00
-31142,49	306,00
-31051,42	418,00
-30960,73	366,00
-30870,43	388,00
-30780,50	364,00
-30690,95	490,00
-30601,77	423,00
-30512,97	414,00
-30424,53	342,00
-30336,46	449,00
-30248,76	410,00
-30161,42	488,00
-30074,44	390,00
-29987,81	390,00
-29901,55	387,00
-29815,63	348,00
-29730,07	256,00
-29644,86	268,00
-29560,00	408,00
-29475,48	499,00
-29391,30	269,00
-29307,47	361,00
-29223,97	403,00
-29140,81	396,00
-29057,99	382,00
-28975,50	373,00
-28893,34	405,00
-28811,51	407,00
-28730,00	401,00
-28648,82	396,00
-28567,97	491,00
-28487,43	353,00
-28407,21	357,00
-28327,32	325,00
-28247,73	367,00
-28168,46	483,00
-28089,50	353,00
-28010,85	453,00
-27932,51	254,00
-27854,48	427,00
-27776,75	352,00
-27699,32	506,00
-27622,19	349,00
-27545,37	487,00
-27468,84	432,00
-27392,60	463,00
-27316,66	406,00
-27241,01	376,00
-27165,66	456,00
-27090,59	341,00
-27015,81	467,00
-26941,31	604,00
-26867,10	406,00
-26793,17	457,00
-26719,52	511,00
-26646,15	414,00
-26573,06	358,00
-26500,24	321,00
-26427,70	377,00
-26355,43	281,00
-26283,43	408,00
-26211,71	330,00
-26140,25	361,00
-26069,06	404,00
-25998,13	377,00
-25927,46	439,00
-25857,06	310,00
-25786,92	456,00
-25717,04	361,00
-25647,42	518,00
-25578,05	360,00
-25508,94	411,00
-25440,09	412,00
-25371,48	447,00
-25303,13	448,00
-25235,02	293,00
-25167,17	283,00
-25099,56	446,00
-25032,19	435,00
-24965,07	431,00
-24898,20	363,00
-24831,56	407,00
-24765,17	384,00
-24699,01	338,00
-24633,10	367,00
-24567,41	366,00
-24501,97	391,00
-24436,75	458,00
-24371,77	356,00
-24307,03	378,00
-24242,51	443,00
-24178,22	372,00
-24114,16	294,00
-24050,32	552,00
-23986,71	380,00
-23923,32	387,00
-23860,16	396,00
-23797,22	435,00
-23734,50	424,00
-23672,00	352,00
-23609,71	379,00
-23547,65	360,00
-23485,80	459,00
-23424,16	366,00
-23362,74	452,00
-23301,53	376,00
-23240,54	379,00
-23179,75	355,00
-23119,17	433,00
-23058,80	368,00
-22998,64	388,00
-22938,68	402,00
-22878,93	370,00
-22819,39	428,00
-22760,04	326,00
-22700,90	446,00
-22641,96	436,00
-22583,22	282,00
-22524,68	361,00
-22466,33	325,00
-22408,19	419,00
-22350,23	334,00
-22292,48	428,00
-22234,92	489,00
-22177,55	373,00
-22120,37	457,00
-22063,38	434,00
-22006,58	384,00
-21949,98	481,00
-21893,56	393,00
-21837,33	381,00
-21781,28	511,00
-21725,42	318,00
-21669,74	401,00
-21614,25	360,00
-21558,94	248,00
-21503,81	437,00
-21448,86	333,00
-21394,10	408,00
-21339,51	438,00
-21285,10	381,00
-21230,86	344,00
-21176,81	426,00
-21122,93	399,00
-21069,22	343,00
-21015,69	230,00
-20962,33	366,00
-20909,14	358,00
-20856,13	311,00
-20803,28	295,00
-20750,61	406,00
-20698,10	327,00
-20645,76	399,00
-20593,59	378,00
-20541,59	400,00
-20489,75	544,00
-20438,07	369,00
-20386,56	394,00
-20335,22	392,00
-20284,03	276,00
-20233,01	395,00
-20182,15	294,00
-20131,45	439,00
-20080,91	423,00
-20030,52	347,00
-19980,30	398,00
-19930,23	359,00
-19880,32	475,00
-19830,56	483,00
-19780,96	219,00
-19731,52	413,00
-19682,23	344,00
-19633,09	410,00
-19584,10	466,00
-19535,26	425,00
-19486,58	400,00
-19438,04	350,00
-19389,66	447,00
-19341,42	337,00
-19293,33	390,00
-19245,39	322,00
-19197,60	541,00
-19149,95	409,00
-19102,45	361,00
-19055,09	220,00
-19007,87	385,00
-18960,80	384,00
-18913,87	490,00
-18867,09	336,00
-18820,44	444,00
-18773,94	471,00
-18727,57	398,00
-18681,35	351,00
-18635,26	249,00
-18589,31	312,00
-18543,50	323,00
-18497,83	375,00
-18452,29	408,00
-18406,89	412,00
-18361,63	356,00
-18316,50	483,00
-18271,50	374,00
-18226,63	466,00
-18181,90	426,00
-18137,30	393,00
-18092,84	221,00
-18048,50	259,00
-18004,29	498,00
-17960,22	364,00
-17916,27	338,00
-17872,45	416,00
-17828,76	405,00
-17785,20	292,00
-17741,77	250,00
-17698,46	420,00
-17655,28	441,00
-17612,22	433,00
-17569,29	428,00
-17526,48	362,00
-17483,79	389,00
-17441,23	242,00
-17398,79	349,00
-17356,48	354,00
-17314,28	398,00
-17272,21	413,00
-17230,26	335,00
-17188,42	414,00
-17146,71	385,00
-17105,12	317,00
-17063,64	360,00
-17022,28	331,00
-16981,04	435,00
-16939,92	443,00
-16898,91	463,00
-16858,02	448,00
-16817,25	443,00
-16776,59	430,00
-16736,04	399,00
-16695,61	411,00
-16655,29	264,00
-16615,09	433,00
-16574,99	361,00
-16535,01	303,00
-16495,15	418,00
-16455,39	391,00
-16415,74	352,00
-16376,21	322,00
-16336,78	432,00
-16297,46	333,00
-16258,26	369,00
-16219,16	439,00
-16180,17	320,00
-16141,28	342,00
-16102,51	383,00
-16063,84	357,00
-16025,27	341,00
-15986,82	374,00
-15948,46	378,00
-15910,22	307,00
-15872,07	428,00
-15834,04	354,00
-15796,10	483,00
-15758,27	457,00
-15720,54	411,00
-15682,91	456,00
-15645,39	375,00
-15607,97	369,00
-15570,64	336,00
-15533,42	346,00
-15496,30	199,00
-15459,28	391,00
-15422,36	305,00
-15385,54	378,00
-15348,82	419,00
-15312,19	414,00
-15275,66	277,00
-15239,23	415,00
-15202,90	311,00
-15166,67	358,00
-15130,53	246,00
-15094,48	279,00
-15058,54	375,00
-15022,68	346,00
-14986,93	332,00
-14951,26	371,00
-14915,69	342,00
-14880,22	381,00
-14844,84	391,00
-14809,55	444,00
-14774,35	350,00
-14739,25	374,00
-14704,24	295,00
-14669,32	355,00
-14634,49	398,00
-14599,75	401,00
-14565,10	362,00
-14530,55	378,00
-14496,08	419,00
-14461,70	324,00
-14427,41	342,00
-14393,21	339,00
-14359,10	453,00
-14325,07	314,00
-14291,14	338,00
-14257,29	437,00
-14223,52	467,00
-14189,85	278,00
-14156,26	353,00
-14122,76	400,00
-14089,34	461,00
-14056,01	288,00
-14022,76	407,00
-13989,60	330,00
-13956,52	395,00
-13923,53	329,00
-13890,62	403,00
-13857,79	448,00
-13825,05	382,00
-13792,39	488,00
-13759,81	358,00
-13727,31	422,00
-13694,90	335,00
-13662,57	414,00
-13630,31	389,00
-13598,14	403,00
-13566,05	256,00
-13534,05	304,00
-13502,12	446,00
-13470,27	377,00
-13438,50	424,00
-13406,80	470,00
-13375,19	346,00
-13343,66	342,00
-13312,20	395,00
-13280,83	390,00
-13249,53	384,00
-13218,30	311,00
-13187,16	337,00
-13156,09	383,00
-13125,10	374,00
-13094,18	467,00
-13063,34	286,00
-13032,58	335,00
-13001,89	370,00
-12971,28	294,00
-12940,74	449,00
-12910,27	404,00
-12879,88	380,00
-12849,57	451,00
-12819,33	420,00
-12789,16	284,00
-12759,06	383,00
-12729,04	440,00
-12699,09	780,00
-12669,21	283,00
-12639,41	405,00
-12609,68	262,00
-12580,02	364,00
-12550,43	379,00
-12520,91	297,00
-12491,46	393,00
-12462,08	417,00
-12432,77	397,00
-12403,54	309,00
-12374,37	379,00
-12345,27	334,00
-12316,24	401,00
-12287,29	429,00
-12258,40	264,00
-12229,57	395,00
-12200,82	457,00
-12172,14	387,00
-12143,52	170,00
-12114,97	317,00
-12086,49	309,00
-12058,07	416,00
-12029,73	318,00
-12001,44	484,00
-11973,23	251,00
-11945,08	438,00
-11917,00	366,00
-11888,98	285,00
-11861,03	400,00
-11833,15	259,00
-11805,32	303,00
-11777,57	357,00
-11749,88	296,00
-11722,25	345,00
-11694,69	284,00
-11667,19	525,00
-11639,75	475,00
-11612,38	432,00
-11585,07	352,00
-11557,83	474,00
-11530,65	426,00
-11503,53	319,00
-11476,47	459,00
-11449,48	355,00
-11422,54	407,00
-11395,67	472,00
-11368,86	427,00
-11342,11	380,00
-11315,43	340,00
-11288,80	365,00
-11262,23	390,00
-11235,73	322,00
-11209,28	386,00
-11182,90	311,00
-11156,57	462,00
-11130,31	571,00
-11104,10	285,00
-11077,96	361,00
-11051,87	353,00
-11025,84	432,00
-10999,87	349,00
-10973,96	406,00
-10948,11	409,00
-10922,31	337,00
-10896,58	451,00
-10870,90	502,00
-10845,28	335,00
-10819,71	357,00
-10794,20	419,00
-10768,75	364,00
-10743,36	379,00
-10718,02	283,00
-10692,74	281,00
-10667,52	282,00
-10642,35	379,00
-10617,24	319,00
-10592,18	399,00
-10567,18	377,00
-10542,23	409,00
-10517,34	309,00
-10492,51	343,00
-10467,72	296,00
-10443,00	330,00
-10418,32	291,00
-10393,70	318,00
-10369,14	447,00
-10344,63	414,00
-10320,17	411,00
-10295,77	424,00
-10271,42	375,00
-10247,12	428,00
-10222,88	452,00
-10198,68	331,00
-10174,54	339,00
-10150,46	322,00
-10126,42	397,00
-10102,44	432,00
-10078,51	177,00
-10054,63	434,00
-10030,80	330,00
-10007,03	378,00
-9983,30	370,00
-9959,63	333,00
-9936,01	300,00
-9912,44	225,00
-9888,92	322,00
-9865,44	348,00
-9842,02	319,00
-9818,65	261,00
-9795,33	145,00
-9772,06	291,00
-9748,84	259,00
-9725,67	233,00
-9702,55	201,00
-9679,47	194,00
-9656,45	252,00
-9633,47	202,00
-9610,55	122,00
-9587,67	231,00
-9564,84	287,00
-9542,06	142,00
-9519,32	29,00
-9496,64	35,00
-9474,00	-38,00
-9451,41	-109,00
-9428,87	-86,00
-9406,37	-74,00
-9383,92	102,00
-9361,52	-106,00
-9339,17	-54,00
-9316,86	-180,00
-9294,60	-134,00
-9272,38	-87,00
-9250,21	-123,00
-9228,09	-213,00
-9206,01	-232,00
-9183,98	-68,00
-9162,00	-157,00
-9140,06	-188,00
-9118,16	-110,00
-9096,31	-284,00
-9074,51	-257,00
-9052,75	-43,00
-9031,04	-9,00
-9009,37	-83,00
-8987,74	-75,00
-8966,16	47,00
-8944,63	62,00
-8923,14	-122,00
-8901,69	18,00
-8880,29	40,00
-8858,93	-34,00
-8837,61	5,00
-8816,34	-31,00
-8795,11	-129,00
-8773,92	-60,00
-8752,78	51,00
-8731,68	80,00
-8710,62	141,00
-8689,61	-42,00
-8668,63	-18,00
-8647,70	0,00
-8626,82	-100,00
-8605,97	1,00
-8585,17	52,00
-8564,41	71,00
-8543,69	106,00
-8523,01	119,00
-8502,37	110,00
-8481,78	126,00
-8461,23	23,00
-8440,71	21,00
-8420,24	16,00
-8399,81	88,00
-8379,42	-7,00
-8359,08	195,00
-8338,77	86,00
-8318,50	94,00
-8298,27	48,00
-8278,09	108,00
-8257,94	156,00
-8237,83	143,00
-8217,76	154,00
-8197,74	8,00
-8177,75	-80,00
-8157,80	176,00
-8137,89	114,00
-8118,02	96,00
-8098,19	108,00
-8078,40	231,00
-8058,65	230,00
-8038,93	259,00
-8019,26	105,00
-7999,62	168,00
-7980,02	163,00
-7960,46	228,00
-7940,94	98,00
-7921,46	258,00
-7902,01	135,00
-7882,60	260,00
-7863,23	148,00
-7843,90	169,00
-7824,61	181,00
-7805,35	272,00
-7786,13	126,00
-7766,95	203,00
-7747,80	164,00
-7728,69	255,00
-7709,62	237,00
-7690,59	245,00
-7671,59	226,00
-7652,63	128,00
-7633,70	251,00
-7614,81	222,00
-7595,96	118,00
-7577,15	261,00
-7558,37	191,00
-7539,62	320,00
-7520,91	173,00
-7502,24	161,00
-7483,60	242,00
-7465,00	112,00
-7446,44	218,00
-7427,91	242,00
-7409,41	218,00
-7390,95	235,00
-7372,53	197,00
-7354,14	261,00
-7335,78	201,00
-7317,46	247,00
-7299,18	102,00
-7280,92	194,00
-7262,71	266,00
-7244,52	142,00
-7226,38	270,00
-7208,26	120,00
-7190,18	125,00
-7172,14	282,00
-7154,12	275,00
-7136,15	46,00
-7118,20	269,00
-7100,29	217,00
-7082,41	188,00
-7064,57	162,00
-7046,76	294,00
-7028,98	149,00
-7011,24	298,00
-6993,53	172,00
-6975,85	254,00
-6958,20	311,00
-6940,59	245,00
-6923,01	170,00
-6905,46	235,00
-6887,94	109,00
-6870,46	2880,00
-6853,01	144,00
-6835,59	359,00
-6818,21	216,00
-6800,85	308,00
-6783,53	258,00
-6766,24	310,00
-6748,98	226,00
-6731,76	298,00
-6714,56	315,00
-6697,40	168,00
-6680,26	317,00
-6663,16	120,00
-6646,09	205,00
-6629,05	190,00
-6612,05	256,00
-6595,07	189,00
-6578,13	212,00
-6561,21	202,00
-6544,33	244,00
-6527,47	359,00
-6510,65	198,00
-6493,86	300,00
-6477,10	216,00
-6460,36	197,00
-6443,66	264,00
-6426,99	298,00
-6410,35	311,00
-6393,74	278,00
-6377,16	300,00
-6360,61	264,00
-6344,09	291,00
-6327,59	236,00
-6311,13	140,00
-6294,70	233,00
-6278,29	360,00
-6261,92	184,00
-6245,58	283,00
-6229,26	231,00
-6212,97	318,00
-6196,72	290,00
-6180,49	243,00
-6164,29	305,00
-6148,12	299,00
-6131,98	203,00
-6115,86	303,00
-6099,78	213,00
-6083,72	146,00
-6067,69	378,00
-6051,69	206,00
-6035,72	316,00
-6019,78	268,00
-6003,87	239,00
-5987,98	256,00
-5972,12	155,00
-5956,29	222,00
-5940,49	287,00
-5924,71	378,00
-5908,96	403,00
-5893,24	306,00
-5877,55	291,00
-5861,89	268,00
-5846,25	284,00
-5830,64	146,00
-5815,05	243,00
-5799,50	227,00
-5783,97	240,00
-5768,47	334,00
-5752,99	336,00
-5737,55	305,00
-5722,12	219,00
-5706,73	230,00
-5691,36	347,00
-5676,02	282,00
-5660,71	314,00
-5645,42	246,00
-5630,16	236,00
-5614,92	267,00
-5599,71	204,00
-5584,53	250,00
-5569,37	243,00
-5554,24	-558,00
-5539,14	285,00
-5524,06	258,00
-5509,01	301,00
-5493,98	239,00
-5478,98	287,00
-5464,00	286,00
-5449,05	367,00
-5434,13	404,00
-5419,23	400,00
-5404,36	337,00
-5389,51	208,00
-5374,69	353,00
-5359,89	332,00
-5345,12	234,00
-5330,37	371,00
-5315,65	335,00
-5300,95	388,00
-5286,28	172,00
-5271,63	201,00
-5257,01	376,00
-5242,41	296,00
-5227,84	176,00
-5213,29	249,00
-5198,76	364,00
-5184,26	241,00
-5169,79	323,00
-5155,33	346,00
-5140,91	302,00
-5126,51	450,00
-5112,13	273,00
-5097,77	259,00
-5083,44	271,00
-5069,13	339,00
-5054,85	407,00
-5040,59	324,00
-5026,36	350,00
-5012,15	286,00
-4997,96	280,00
-4983,80	347,00
-4969,66	314,00
-4955,54	332,00
-4941,44	366,00
-4927,37	343,00
-4913,33	306,00
-4899,30	353,00
-4885,30	304,00
-4871,33	311,00
-4857,37	312,00
-4843,44	328,00
-4829,53	419,00
-4815,65	396,00
-4801,79	287,00
-4787,95	362,00
-4774,13	301,00
-4760,34	375,00
-4746,56	414,00
-4732,82	376,00
-4719,09	371,00
-4705,38	333,00
-4691,70	389,00
-4678,04	304,00
-4664,41	275,00
-4650,79	358,00
-4637,20	368,00
-4623,63	383,00
-4610,08	197,00
-4596,56	194,00
-4583,05	386,00
-4569,57	442,00
-4556,11	391,00
-4542,67	251,00
-4529,25	415,00
-4515,86	383,00
-4502,49	255,00
-4489,13	380,00
-4475,80	383,00
-4462,49	344,00
-4449,21	356,00
-4435,94	391,00
-4422,70	377,00
-4409,47	187,00
-4396,27	353,00
-4383,09	259,00
-4369,93	382,00
-4356,79	448,00
-4343,67	316,00
-4330,58	352,00
-4317,50	456,00
-4304,45	318,00
-4291,41	308,00
-4278,40	384,00
-4265,41	411,00
-4252,44	377,00
-4239,49	206,00
-4226,55	385,00
-4213,65	303,00
-4200,76	427,00
-4187,89	296,00
-4175,04	289,00
-4162,21	290,00
-4149,40	358,00
-4136,61	350,00
-4123,85	409,00
-4111,10	427,00
-4098,37	341,00
-4085,66	434,00
-4072,98	411,00
-4060,31	418,00
-4047,66	429,00
-4035,04	499,00
-4022,43	354,00
-4009,84	443,00
-3997,27	255,00
-3984,72	378,00
-3972,19	370,00
-3959,69	312,00
-3947,20	360,00
-3934,73	379,00
-3922,27	376,00
-3909,84	342,00
-3897,43	392,00
-3885,04	381,00
-3872,67	406,00
-3860,31	319,00
-3847,98	420,00
-3835,66	449,00
-3823,36	233,00
-3811,09	314,00
-3798,83	439,00
-3786,59	406,00
-3774,37	354,00
-3762,17	477,00
-3749,98	401,00
-3737,82	343,00
-3725,67	479,00
-3713,55	288,00
-3701,44	328,00
-3689,35	322,00
-3677,28	346,00
-3665,22	438,00
-3653,19	396,00
-3641,17	478,00
-3629,18	396,00
-3617,20	419,00
-3605,24	297,00
-3593,30	267,00
-3581,37	422,00
-3569,47	409,00
-3557,58	327,00
-3545,71	517,00
-3533,86	466,00
-3522,02	410,00
-3510,21	408,00
-3498,41	371,00
-3486,63	492,00
-3474,87	316,00
-3463,12	408,00
-3451,40	372,00
-3439,69	313,00
-3428,00	393,00
-3416,33	383,00
-3404,67	387,00
-3393,03	308,00
-3381,41	408,00
-3369,81	336,00
-3358,22	407,00
-3346,66	477,00
-3335,10	434,00
-3323,57	326,00
-3312,06	454,00
-3300,56	465,00
-3289,08	291,00
-3277,61	378,00
-3266,16	458,00
-3254,73	482,00
-3243,32	264,00
-3231,92	442,00
-3220,55	367,00
-3209,18	474,00
-3197,84	372,00
-3186,51	326,00
-3175,20	326,00
-3163,90	339,00
-3152,63	453,00
-3141,36	421,00
-3130,12	341,00
-3118,89	412,00
-3107,68	325,00
-3096,49	352,00
-3085,31	263,00
-3074,15	444,00
-3063,00	388,00
-3051,87	496,00
-3040,76	409,00
-3029,67	493,00
-3018,59	260,00
-3007,52	408,00
-2996,48	426,00
-2985,44	416,00
-2974,43	371,00
-2963,43	367,00
-2952,45	409,00
-2941,48	438,00
-2930,53	302,00
-2919,60	510,00
-2908,68	450,00
-2897,78	288,00
-2886,89	327,00
-2876,02	370,00
-2865,17	353,00
-2854,33	399,00
-2843,50	363,00
-2832,70	539,00
-2821,90	391,00
-2811,13	339,00
-2800,37	398,00
-2789,62	430,00
-2778,89	383,00
-2768,18	556,00
-2757,48	354,00
-2746,80	364,00
-2736,13	398,00
-2725,48	343,00
-2714,84	425,00
-2704,22	384,00
-2693,61	346,00
-2683,02	358,00
-2672,45	399,00
-2661,89	417,00
-2651,34	494,00
-2640,81	394,00
-2630,30	540,00
-2619,80	403,00
-2609,31	474,00
-2598,84	306,00
-2588,39	404,00
-2577,95	279,00
-2567,52	372,00
-2557,11	443,00
-2546,71	458,00
-2536,33	377,00
-2525,97	360,00
-2515,62	363,00
-2505,28	360,00
-2494,96	409,00
-2484,65	346,00
-2474,36	538,00
-2464,08	433,00
-2453,82	465,00
-2443,57	294,00
-2433,33	339,00
-2423,11	337,00
-2412,91	348,00
-2402,72	240,00
-2392,54	308,00
-2382,38	294,00
-2372,23	402,00
-2362,09	831,00
-2351,97	374,00
-2341,87	206,00
-2331,78	455,00
-2321,70	369,00
-2311,64	286,00
-2301,59	353,00
-2291,55	320,00
-2281,53	413,00
-2271,53	278,00
-2261,53	321,00
-2251,55	366,00
-2241,59	375,00
-2231,64	449,00
-2221,70	408,00
-2211,78	427,00
-2201,87	336,00
-2191,97	374,00
-2182,09	485,00
-2172,22	401,00
-2162,37	325,00
-2152,53	320,00
-2142,70	262,00
-2132,89	391,00
-2123,09	407,00
-2113,30	402,00
-2103,53	394,00
-2093,77	350,00
-2084,02	423,00
-2074,29	583,00
-2064,57	370,00
-2054,86	445,00
-2045,17	416,00
-2035,49	362,00
-2025,82	373,00
-2016,17	362,00
-2006,53	420,00
-1996,91	420,00
-1987,29	372,00
-1977,69	381,00
-1968,11	469,00
-1958,53	347,00
-1948,97	418,00
-1939,42	391,00
-1929,89	417,00
-1920,37	483,00
-1910,86	439,00
-1901,36	506,00
-1891,88	393,00
-1882,41	312,00
-1872,95	362,00
-1863,51	267,00
-1854,08	405,00
-1844,66	407,00
-1835,26	347,00
-1825,86	414,00
-1816,48	353,00
-1807,11	398,00
-1797,76	448,00
-1788,42	393,00
-1779,09	366,00
-1769,77	414,00
-1760,47	371,00
-1751,17	322,00
-1741,89	329,00
-1732,63	477,00
-1723,37	315,00
-1714,13	498,00
-1704,90	336,00
-1695,68	396,00
-1686,48	430,00
-1677,29	354,00
-1668,11	400,00
-1658,94	326,00
-1649,78	365,00
-1640,64	378,00
-1631,51	485,00
-1622,39	474,00
-1613,28	322,00
-1604,19	343,00
-1595,10	393,00
-1586,03	403,00
-1576,97	443,00
-1567,93	338,00
-1558,89	417,00
-1549,87	287,00
-1540,86	286,00
-1531,86	437,00
-1522,87	396,00
-1513,90	465,00
-1504,93	367,00
-1495,98	411,00
-1487,04	339,00
-1478,12	328,00
-1469,20	468,00
-1460,30	346,00
-1451,40	446,00
-1442,52	398,00
-1433,65	341,00
-1424,80	449,00
-1415,95	355,00
-1407,12	397,00
-1398,30	392,00
-1389,48	334,00
-1380,69	370,00
-1371,90	285,00
-1363,12	368,00
-1354,36	471,00
-1345,60	227,00
-1336,86	483,00
-1328,13	414,00
-1319,41	379,00
-1310,70	239,00
-1302,01	438,00
-1293,32	401,00
-1284,65	437,00
-1275,99	406,00
-1267,33	281,00
-1258,69	412,00
-1250,06	284,00
-1241,45	335,00
-1232,84	326,00
-1224,25	362,00
-1215,66	316,00
-1207,09	338,00
-1198,53	355,00
-1189,97	330,00
-1181,43	327,00
-1172,91	388,00
-1164,39	438,00
-1155,88	336,00
-1147,38	370,00
-1138,90	493,00
-1130,43	383,00
-1121,96	420,00
-1113,51	442,00
-1105,07	346,00
-1096,64	370,00
-1088,22	350,00
-1079,81	437,00
-1071,41	469,00
-1063,02	375,00
-1054,65	336,00
-1046,28	449,00
-1037,92	359,00
-1029,58	312,00
-1021,24	424,00
-1012,92	449,00
-1004,61	405,00
-996,30	531,00
-988,01	291,00
-979,73	433,00
-971,46	491,00
-963,20	280,00
-954,95	292,00
-946,71	305,00
-938,48	448,00
-930,26	441,00
-922,06	305,00
-913,86	345,00
-905,67	295,00
-897,49	418,00
-889,33	332,00
-881,17	400,00
-873,02	404,00
-864,89	369,00
-856,76	285,00
-848,65	382,00
-840,54	442,00
-832,45	458,00
-824,36	332,00
-816,29	541,00
-808,22	572,00
-800,17	398,00
-792,12	469,00
-784,09	494,00
-776,06	467,00
-768,05	465,00
-760,04	358,00
-752,05	329,00
-744,07	338,00
-736,09	442,00
-728,13	393,00
-720,17	428,00
-712,23	297,00
-704,29	220,00
-696,37	453,00
-688,45	432,00
-680,55	367,00
-672,65	240,00
-664,77	328,00
-656,89	407,00
-649,03	295,00
-641,17	352,00
-633,32	451,00
-625,49	305,00
-617,66	471,00
-609,84	404,00
-602,03	317,00
-594,23	335,00
-586,45	517,00
-578,67	483,00
-570,90	435,00
-563,14	268,00
-555,39	330,00
-547,65	399,00
-539,91	352,00
-532,19	339,00
-524,48	446,00
-516,78	338,00
-509,08	424,00
-501,40	397,00
-493,72	332,00
-486,06	314,00
-478,40	445,00
-470,76	455,00
-463,12	406,00
-455,49	394,00
-447,87	478,00
-440,26	468,00
-432,66	432,00
-425,07	386,00
-417,49	390,00
-409,92	395,00
-402,35	207,00
-394,80	398,00
-387,25	460,00
-379,72	445,00
-372,19	355,00
-364,67	335,00
-357,17	361,00
-349,67	324,00
-342,18	390,00
-334,69	404,00
-327,22	284,00
-319,76	495,00
-312,30	502,00
-304,86	424,00
-297,42	368,00
-290,00	328,00
-282,58	297,00
-275,17	473,00
-267,77	380,00
-260,37	340,00
-252,99	390,00
-245,62	361,00
-238,25	381,00
-230,90	436,00
-223,55	480,00
-216,21	386,00
-208,88	488,00
-201,56	500,00
-194,25	396,00
-186,94	470,00
-179,65	517,00
-172,36	415,00
-165,08	479,00
-157,81	528,00
-150,55	688,00
-143,30	496,00
-136,06	589,00
-128,82	619,00
-121,60	661,00
-114,38	727,00
-107,17	621,00
-99,97	853,00
-92,78	789,00
-85,60	787,00
-78,42	1020,00
-71,25	1034,00
-64,10	1116,00
-56,95	1250,00
-49,81	1495,00
-42,67	1757,00
-35,55	1959,00
-28,43	2451,00
-21,33	3988,00
-14,23	12964,00
-7,14	55635,00
-0,05	55419,00
7,02	55129,00
14,09	41349,00
21,14	10861,00
28,19	4754,00
35,23	3155,00
42,27	2585,00
49,29	2204,00
56,31	1808,00
63,32	1637,00
70,32	1344,00
77,31	1239,00
84,29	1085,00
91,27	1036,00
98,23	1002,00
105,19	931,00
112,14	937,00
119,09	1303,00
126,02	1716,00
132,95	1810,00
139,87	1899,00
146,78	1992,00
153,68	1944,00
160,58	1965,00
167,46	1833,00
174,34	1919,00
181,21	1931,00
188,08	1831,00
194,93	1835,00
201,78	1926,00
208,62	1844,00
215,45	1758,00
222,27	1852,00
229,09	1922,00
235,90	1842,00
242,70	1869,00
249,49	1871,00
256,27	1696,00
263,05	1788,00
269,82	1763,00
276,58	1785,00
283,33	1742,00
290,08	1746,00
296,82	1727,00
303,55	1546,00
310,27	1630,00
316,98	1695,00
323,69	1704,00
330,39	1647,00
337,08	1476,00
343,76	1634,00
350,44	1597,00
357,11	1592,00
363,77	1611,00
370,42	1602,00
377,07	1563,00
383,71	1470,00
390,34	1593,00
396,96	1510,00
403,58	1417,00
410,19	1589,00
416,79	1566,00
423,38	1590,00
429,97	1566,00
436,55	1517,00
443,12	1566,00
449,68	1568,00
456,24	1463,00
462,79	1455,00
469,33	1471,00
475,86	1459,00
482,39	1440,00
488,91	1304,00
495,42	1365,00
501,93	1354,00
508,42	1371,00
514,91	1419,00
521,40	1404,00
527,87	1331,00
534,34	1307,00
540,80	1349,00
547,25	1442,00
553,70	1246,00
560,14	1293,00
566,57	1297,00
573,00	1326,00
579,41	1288,00
585,83	1269,00
592,23	1278,00
598,62	1295,00
605,01	1214,00
611,40	1280,00
617,77	1263,00
624,14	1170,00
630,50	1311,00
636,85	1166,00
643,20	1374,00
649,54	1172,00
655,87	1264,00
662,20	1256,00
668,52	1103,00
674,83	1304,00
681,13	1037,00
687,43	1051,00
693,72	1198,00
700,00	1251,00
706,28	1295,00
712,55	1092,00
718,81	1255,00
725,07	1127,00
731,32	1090,00
737,56	1179,00
743,79	1059,00
750,02	1313,00
756,24	1100,00
762,46	1119,00
768,67	1164,00
774,87	1253,00
781,06	1250,00
787,25	1162,00
793,43	1246,00
799,60	1116,00
805,77	1248,00
811,93	1198,00
818,08	1090,00
824,23	1085,00
830,37	1289,00
836,50	1188,00
842,63	1088,00
848,75	1184,00
854,87	1141,00
860,97	1120,00
867,07	1171,00
873,17	1166,00
879,25	1114,00
885,33	1193,00
891,41	1147,00
897,47	1178,00
903,53	1111,00
909,59	1017,00
915,63	1081,00
921,67	1086,00
927,71	1117,00
933,74	1188,00
939,76	925,00
945,77	1085,00
951,78	1114,00
957,78	1010,00
963,78	1072,00
969,77	1049,00
975,75	1136,00
981,72	1098,00
987,69	1683,00
993,66	1093,00
999,61	1150,00
1005,56	1064,00
1011,51	1142,00
1017,44	1119,00
1023,37	1166,00
1029,30	1156,00
1035,22	1015,00
1041,13	1157,00
1047,03	1091,00
1052,93	1172,00
1058,83	1400,00
1064,71	1435,00
1070,59	1281,00
1076,47	1081,00
1082,33	1088,00
1088,20	1180,00
1094,05	1060,00
1099,90	1148,00
1105,74	1037,00
1111,58	978,00
1117,41	1087,00
1123,23	1288,00
1129,05	1274,00
1134,86	1286,00
1140,67	1142,00
1146,47	988,00
1152,26	965,00
1158,05	1013,00
1163,83	1056,00
1169,60	1070,00
1175,37	985,00
1181,13	1109,00
1186,89	995,00
1192,64	978,00
1198,38	978,00
1204,12	942,00
1209,85	1035,00
1215,58	1083,00
1221,30	978,00
1227,02	1018,00
1232,72	1071,00
1238,43	1030,00
1244,12	1020,00
1249,81	1102,00
1255,50	1068,00
1261,17	987,00
1266,85	1154,00
1272,51	1108,00
1278,17	1106,00
1283,83	1072,00
1289,47	1336,00
1295,12	1470,00
1300,75	1549,00
1306,38	1165,00
1312,01	1209,00
1317,63	1076,00
1323,24	1139,00
1328,85	1015,00
1334,45	1181,00
1340,04	1113,00
1345,63	988,00
1351,22	1240,00
1356,80	1098,00
1362,37	1092,00
1367,93	1057,00
1373,49	1033,00
1379,05	1090,00
1384,60	1028,00
1390,14	1079,00
1395,68	1013,00
1401,21	1027,00
1406,74	1141,00
1412,26	1081,00
1417,77	1259,00
1423,28	1209,00
1428,78	1393,00
1434,28	1395,00
1439,77	1615,00
1445,26	1544,00
1450,74	1466,00
1456,22	1526,00
1461,68	1404,00
1467,15	1369,00
1472,61	1282,00
1478,06	1323,00
1483,51	1095,00
1488,95	1011,00
1494,38	958,00
1499,81	1027,00
1505,24	978,00
1510,65	1067,00
1516,07	1010,00
1521,48	1032,00
1526,88	884,00
1532,27	964,00
1537,67	911,00
1543,05	1077,00
1548,43	790,00
1553,81	985,00
1559,18	962,00
1564,54	1038,00
1569,90	983,00
1575,25	803,00
1580,60	903,00
1585,94	835,00
1591,28	930,00
1596,61	823,00
1601,93	896,00
1607,25	979,00
1612,57	1028,00
1617,88	923,00
1623,18	880,00
1628,48	869,00
1633,77	874,00
1639,06	1044,00
1644,34	805,00
1649,62	860,00
1654,89	900,00
1660,16	804,00
1665,42	833,00
1670,67	856,00
1675,92	880,00
1681,17	806,00
1686,41	795,00
1691,64	809,00
1696,87	825,00
1702,10	746,00
1707,32	793,00
1712,53	781,00
1717,74	827,00
1722,94	808,00
1728,14	716,00
1733,33	803,00
1738,52	776,00
1743,70	790,00
1748,88	725,00
1754,05	855,00
1759,22	749,00
1764,38	996,00
1769,53	853,00
1774,69	674,00
1779,83	807,00
1784,97	850,00
1790,11	730,00
1795,24	726,00
1800,36	839,00
1805,48	832,00
1810,60	825,00
1815,71	814,00
1820,82	710,00
1825,92	796,00
1831,01	699,00
1836,10	865,00
1841,19	695,00
1846,26	635,00
1851,34	685,00
1856,41	689,00
1861,47	705,00
1866,53	728,00
1871,59	714,00
1876,64	782,00
1881,68	840,00
1886,72	680,00
1891,76	720,00
1896,79	729,00
1901,81	683,00
1906,83	850,00
1911,85	644,00
1916,86	708,00
1921,86	679,00
1926,86	750,00
1931,86	599,00
1936,85	558,00
1941,83	726,00
1946,81	802,00
1951,79	817,00
1956,76	653,00
1961,72	615,00
1966,68	658,00
1971,64	561,00
1976,59	546,00
1981,54	610,00
1986,48	754,00
1991,42	715,00
1996,35	738,00
2001,27	507,00
2006,20	688,00
2011,11	586,00
2016,03	663,00
2020,93	593,00
2025,84	671,00
2030,73	708,00
2035,63	669,00
2040,52	607,00
2045,40	638,00
2050,28	632,00
2055,15	736,00
2060,02	642,00
2064,89	611,00
2069,75	617,00
2074,60	703,00
2079,46	597,00
2084,30	540,00
2089,14	678,00
2093,98	590,00
2098,81	719,00
2103,64	632,00
2108,46	578,00
2113,28	615,00
2118,09	466,00
2122,90	518,00
2127,70	524,00
2132,50	522,00
2137,30	580,00
2142,09	536,00
2146,87	537,00
2151,66	581,00
2156,43	643,00
2161,20	563,00
2165,97	520,00
2170,73	608,00
2175,49	634,00
2180,24	497,00
2184,99	557,00
2189,74	570,00
2194,48	680,00
2199,21	728,00
2203,94	521,00
2208,67	591,00
2213,39	562,00
2218,11	505,00
2222,82	533,00
2227,53	570,00
2232,23	489,00
2236,93	627,00
2241,63	617,00
2246,32	580,00
2251,00	591,00
2255,68	567,00
2260,36	588,00
2265,03	504,00
2269,70	500,00
2274,36	554,00
2279,02	510,00
2283,68	623,00
2288,33	461,00
2292,97	598,00
2297,61	577,00
2302,25	647,00
2306,88	502,00
2311,51	574,00
2316,14	569,00
2320,75	635,00
2325,37	622,00
2329,98	662,00
2334,59	396,00
2339,19	562,00
2343,79	509,00
2348,38	510,00
2352,97	498,00
2357,55	639,00
2362,13	506,00
2366,71	477,00
2371,28	601,00
2375,85	543,00
2380,41	522,00
2384,97	584,00
2389,52	497,00
2394,07	576,00
2398,62	570,00
2403,16	507,00
2407,70	502,00
2412,23	552,00
2416,76	579,00
2421,29	583,00
2425,81	523,00
2430,32	616,00
2434,84	500,00
2439,34	437,00
2443,85	605,00
2448,35	519,00
2452,84	513,00
2457,33	683,00
2461,82	525,00
2466,30	405,00
2470,78	584,00
2475,25	536,00
2479,72	500,00
2484,19	518,00
2488,65	544,00
2493,11	470,00
2497,56	571,00
2502,01	422,00
2506,46	459,00
2510,90	417,00
2515,34	463,00
2519,77	444,00
2524,20	586,00
2528,62	543,00
2533,04	451,00
2537,46	520,00
2541,87	400,00
2546,28	487,00
2550,68	512,00
2555,08	578,00
2559,48	522,00
2563,87	505,00
2568,26	448,00
2572,64	499,00
2577,02	488,00
2581,40	542,00
2585,77	439,00
2590,14	398,00
2594,50	380,00
2598,86	460,00
2603,22	529,00
2607,57	550,00
2611,92	438,00
2616,26	516,00
2620,60	537,00
2624,94	326,00
2629,27	521,00
2633,60	391,00
2637,92	556,00
2642,24	576,00
2646,56	528,00
2650,87	498,00
2655,18	575,00
2659,48	484,00
2663,78	467,00
2668,08	478,00
2672,37	502,00
2676,66	597,00
2680,95	602,00
2685,23	550,00
2689,50	588,00
2693,78	505,00
2698,05	517,00
2702,31	599,00
2706,57	545,00
2710,83	600,00
2715,08	499,00
2719,33	627,00
2723,58	533,00
2727,82	557,00
2732,06	440,00
2736,29	584,00
2740,53	536,00
2744,75	445,00
2748,97	444,00
2753,19	546,00
2757,41	494,00
2761,62	560,00
2765,83	535,00
2770,03	354,00
2774,23	529,00
2778,43	448,00
2782,62	505,00
2786,81	492,00
2791,00	540,00
2795,18	557,00
2799,35	478,00
2803,53	698,00
2807,70	553,00
2811,86	551,00
2816,03	478,00
2820,19	531,00
2824,34	750,00
2828,49	604,00
2832,64	685,00
2836,78	731,00
2840,92	817,00
2845,06	987,00
2849,19	1045,00
2853,32	1155,00
2857,45	1115,00
2861,57	1091,00
2865,69	1085,00
2869,80	1075,00
2873,91	1047,00
2878,02	1137,00
2882,12	1162,00
2886,22	1211,00
2890,32	1102,00
2894,41	942,00
2898,50	1077,00
2902,58	949,00
2906,67	951,00
2910,74	908,00
2914,82	915,00
2918,89	988,00
2922,96	893,00
2927,02	731,00
2931,08	762,00
2935,13	764,00
2939,19	739,00
2943,24	808,00
2947,28	653,00
2951,32	664,00
2955,36	683,00
2959,40	517,00
2963,43	645,00
2967,46	492,00
2971,48	483,00
2975,50	532,00
2979,52	576,00
2983,53	559,00
2987,54	487,00
2991,55	532,00
2995,55	438,00
2999,55	482,00
3003,54	511,00
3007,54	559,00
3011,53	473,00
3015,51	463,00
3019,49	463,00
3023,47	439,00
3027,45	400,00
3031,42	402,00
3035,39	486,00
3039,35	408,00
3043,31	493,00
3047,27	503,00
3051,22	418,00
3055,17	401,00
3059,12	393,00
3063,06	429,00
3067,00	324,00
3070,94	446,00
3074,87	363,00
3078,80	502,00
3082,73	544,00
3086,65	368,00
3090,57	336,00
3094,49	532,00
3098,40	545,00
3102,31	381,00
3106,22	352,00
3110,12	494,00
3114,02	539,00
3117,92	370,00
3121,81	335,00
3125,70	411,00
3129,58	383,00
3133,47	300,00
3137,34	398,00
3141,22	296,00
3145,09	464,00
3148,96	421,00
3152,83	357,00
3156,69	492,00
3160,55	437,00
3164,40	366,00
3168,26	377,00
3172,10	481,00
3175,95	429,00
3179,79	374,00
3183,63	430,00
3187,47	382,00
3191,30	466,00
3195,13	375,00
3198,95	415,00
3202,78	324,00
3206,60	463,00
3210,41	357,00
3214,23	432,00
3218,03	369,00
3221,84	423,00
3225,64	380,00
3229,44	459,00
3233,24	344,00
3237,03	387,00
3240,82	366,00
3244,61	341,00
3248,39	359,00
3252,17	450,00
3255,95	382,00
3259,72	504,00
3263,49	549,00
3267,26	310,00
3271,03	417,00
3274,79	371,00
3278,54	362,00
3282,30	271,00
3286,05	428,00
3289,80	404,00
3293,54	488,00
3297,29	418,00
3301,02	422,00
3304,76	469,00
3308,49	347,00
3312,22	434,00
3315,95	330,00
3319,67	410,00
3323,39	528,00
3327,10	436,00
3330,82	447,00
3334,53	418,00
3338,24	412,00
3341,94	419,00
3345,64	368,00
3349,34	339,00
3353,03	373,00
3356,72	343,00
3360,41	433,00
3364,10	423,00
3367,78	419,00
3371,46	444,00
3375,13	423,00
3378,81	317,00
3382,48	421,00
3386,14	434,00
3389,81	296,00
3393,47	398,00
3397,12	471,00
3400,78	475,00
3404,43	335,00
3408,08	372,00
3411,72	279,00
3415,36	344,00
3419,00	331,00
3422,64	466,00
3426,27	443,00
3429,90	364,00
3433,53	401,00
3437,15	412,00
3440,77	351,00
3444,39	455,00
3448,00	304,00
3451,62	369,00
3455,22	404,00
3458,83	421,00
3462,43	425,00
3466,03	447,00
3469,63	462,00
3473,22	303,00
3476,81	352,00
3480,40	355,00
3483,99	328,00
3487,57	419,00
3491,15	441,00
3494,72	433,00
3498,29	423,00
3501,86	399,00
3505,43	473,00
3508,99	295,00
3512,56	314,00
3516,11	260,00
3519,67	376,00
3523,22	444,00
3526,77	446,00
3530,32	463,00
3533,86	346,00
3537,40	522,00
3540,94	567,00
3544,47	276,00
3548,00	340,00
3551,53	325,00
3555,06	461,00
3558,58	336,00
3562,10	400,00
3565,62	265,00
3569,13	384,00
3572,64	461,00
3576,15	300,00
3579,66	334,00
3583,16	383,00
3586,66	419,00
3590,16	263,00
3593,65	292,00
3597,14	393,00
3600,63	438,00
3604,11	361,00
3607,60	429,00
3611,08	281,00
3614,55	407,00
3618,03	392,00
3621,50	331,00
3624,97	300,00
3628,43	367,00
3631,90	380,00
3635,36	344,00
3638,81	346,00
3642,27	399,00
3645,72	318,00
3649,17	269,00
3652,61	279,00
3656,06	329,00
3659,50	277,00
3662,93	293,00
3666,37	340,00
3669,80	375,00
3673,23	303,00
3676,65	401,00
3680,08	414,00
3683,50	317,00
3686,92	426,00
3690,33	406,00
3693,74	254,00
3697,15	318,00
3700,56	440,00
3703,96	318,00
3707,36	327,00
3710,76	331,00
3714,16	345,00
3717,55	400,00
3720,94	363,00
3724,33	324,00
3727,71	398,00
3731,10	441,00
3734,48	268,00
3737,85	210,00
3741,23	304,00
3744,60	268,00
3747,97	367,00
3751,33	300,00
3754,69	364,00
3758,05	322,00
3761,41	369,00
3764,77	289,00
3768,12	298,00
3771,47	313,00
3774,82	367,00
3778,16	-6,00
3781,50	4,00
3784,84	-5,00
3788,18	8,00
>>>>>End Processed Spectral Data<<<<<
