SpectraSuite Data File
++++++++++++++++++++++++++++++++++++
Date: Mon Mar 09 16:19:12 ICT 2026
User: Administrator
Dark Spectrum Present: Yes
Reference Spectrum Present: No
Number of Sampled Component Spectra: 1
Spectrometers: MAYP113682
Integration Time (usec): 3000000 (MAYP113682)
Spectra Averaged: 1 (MAYP113682)
Boxcar Smoothing: 0 (MAYP113682)
Correct for Electrical Dark: No (MAYP113682)
Strobe/Lamp Enabled: No (MAYP113682)
Correct for Detector Non-linearity: No (MAYP113682)
Correct for Stray Light: No (MAYP113682)
Number of Pixels in Processed Spectrum: 2068
>>>>>Begin Processed Spectral Data<<<<<
-37534,58	-10,00
-37414,56	5,00
-37295,11	-2,00
-37176,24	2,00
-37057,95	-9,00
-36940,22	140,00
-36823,05	71,00
-36706,45	58,00
-36590,40	99,00
-36474,90	130,00
-36359,95	122,00
-36245,55	33,00
-36131,68	17,00
-36018,35	92,00
-35905,55	32,00
-35793,29	37,00
-35681,54	-100,00
-35570,32	24,00
-35459,62	-55,00
-35349,43	-23,00
-35239,75	-14,00
-35130,58	159,00
-35021,91	-10,00
-34913,74	-36,00
-34806,07	28,00
-34698,89	-14,00
-34592,20	0,00
-34486,00	187,00
-34380,28	-7,00
-34275,04	95,00
-34170,27	-62,00
-34065,98	-63,00
-33962,16	140,00
-33858,81	31,00
-33755,92	142,00
-33653,49	175,00
-33551,52	39,00
-33450,01	155,00
-33348,94	15,00
-33248,33	32,00
-33148,16	15,00
-33048,43	206,00
-32949,14	-18,00
-32850,29	115,00
-32751,87	51,00
-32653,89	32,00
-32556,33	-11,00
-32459,20	91,00
-32362,49	187,00
-32266,19	140,00
-32170,32	8,00
-32074,86	4,00
-31979,82	-32,00
-31885,18	5,00
-31790,95	38,00
-31697,12	-41,00
-31603,69	150,00
-31510,67	-10,00
-31418,04	-4,00
-31325,80	40,00
-31233,95	131,00
-31142,49	101,00
-31051,42	92,00
-30960,73	45,00
-30870,43	-25,00
-30780,50	46,00
-30690,95	-8,00
-30601,77	38,00
-30512,97	283,00
-30424,53	40,00
-30336,46	87,00
-30248,76	33,00
-30161,42	141,00
-30074,44	55,00
-29987,81	115,00
-29901,55	94,00
-29815,63	125,00
-29730,07	34,00
-29644,86	67,00
-29560,00	-108,00
-29475,48	175,00
-29391,30	85,00
-29307,47	62,00
-29223,97	71,00
-29140,81	101,00
-29057,99	72,00
-28975,50	40,00
-28893,34	45,00
-28811,51	-14,00
-28730,00	118,00
-28648,82	-45,00
-28567,97	1,00
-28487,43	93,00
-28407,21	7,00
-28327,32	74,00
-28247,73	104,00
-28168,46	93,00
-28089,50	42,00
-28010,85	-1,00
-27932,51	107,00
-27854,48	68,00
-27776,75	-42,00
-27699,32	146,00
-27622,19	8,00
-27545,37	4,00
-27468,84	157,00
-27392,60	29,00
-27316,66	5,00
-27241,01	94,00
-27165,66	121,00
-27090,59	-34,00
-27015,81	76,00
-26941,31	43,00
-26867,10	87,00
-26793,17	-41,00
-26719,52	-4,00
-26646,15	5,00
-26573,06	88,00
-26500,24	104,00
-26427,70	104,00
-26355,43	-14,00
-26283,43	65,00
-26211,71	26,00
-26140,25	-4,00
-26069,06	125,00
-25998,13	97,00
-25927,46	94,00
-25857,06	62,00
-25786,92	81,00
-25717,04	40,00
-25647,42	121,00
-25578,05	21,00
-25508,94	61,00
-25440,09	67,00
-25371,48	89,00
-25303,13	38,00
-25235,02	-30,00
-25167,17	-7,00
-25099,56	-88,00
-25032,19	39,00
-24965,07	-18,00
-24898,20	32,00
-24831,56	-33,00
-24765,17	100,00
-24699,01	101,00
-24633,10	-24,00
-24567,41	130,00
-24501,97	80,00
-24436,75	-9,00
-24371,77	77,00
-24307,03	5,00
-24242,51	58,00
-24178,22	10,00
-24114,16	8,00
-24050,32	111,00
-23986,71	98,00
-23923,32	127,00
-23860,16	28,00
-23797,22	57,00
-23734,50	20,00
-23672,00	-79,00
-23609,71	89,00
-23547,65	66,00
-23485,80	19,00
-23424,16	12,00
-23362,74	139,00
-23301,53	-33,00
-23240,54	-46,00
-23179,75	143,00
-23119,17	23,00
-23058,80	25,00
-22998,64	48,00
-22938,68	110,00
-22878,93	144,00
-22819,39	147,00
-22760,04	87,00
-22700,90	-54,00
-22641,96	-47,00
-22583,22	81,00
-22524,68	52,00
-22466,33	121,00
-22408,19	-4,00
-22350,23	3,00
-22292,48	114,00
-22234,92	11,00
-22177,55	24,00
-22120,37	61,00
-22063,38	52,00
-22006,58	88,00
-21949,98	94,00
-21893,56	89,00
-21837,33	-2,00
-21781,28	107,00
-21725,42	59,00
-21669,74	-56,00
-21614,25	10,00
-21558,94	117,00
-21503,81	14,00
-21448,86	-143,00
-21394,10	102,00
-21339,51	-25,00
-21285,10	38,00
-21230,86	13,00
-21176,81	30,00
-21122,93	-9,00
-21069,22	23,00
-21015,69	126,00
-20962,33	97,00
-20909,14	80,00
-20856,13	13,00
-20803,28	108,00
-20750,61	17,00
-20698,10	63,00
-20645,76	119,00
-20593,59	103,00
-20541,59	95,00
-20489,75	-23,00
-20438,07	170,00
-20386,56	-24,00
-20335,22	29,00
-20284,03	-34,00
-20233,01	52,00
-20182,15	51,00
-20131,45	83,00
-20080,91	16,00
-20030,52	35,00
-19980,30	32,00
-19930,23	38,00
-19880,32	120,00
-19830,56	-4,00
-19780,96	68,00
-19731,52	94,00
-19682,23	106,00
-19633,09	111,00
-19584,10	24,00
-19535,26	69,00
-19486,58	20,00
-19438,04	122,00
-19389,66	-89,00
-19341,42	-14,00
-19293,33	90,00
-19245,39	44,00
-19197,60	194,00
-19149,95	-6,00
-19102,45	113,00
-19055,09	20,00
-19007,87	91,00
-18960,80	201,00
-18913,87	-44,00
-18867,09	13,00
-18820,44	-50,00
-18773,94	76,00
-18727,57	25,00
-18681,35	79,00
-18635,26	7,00
-18589,31	45,00
-18543,50	15,00
-18497,83	19,00
-18452,29	88,00
-18406,89	-80,00
-18361,63	98,00
-18316,50	107,00
-18271,50	214,00
-18226,63	1,00
-18181,90	-48,00
-18137,30	42,00
-18092,84	-120,00
-18048,50	58,00
-18004,29	60,00
-17960,22	22,00
-17916,27	84,00
-17872,45	-38,00
-17828,76	94,00
-17785,20	54,00
-17741,77	146,00
-17698,46	58,00
-17655,28	132,00
-17612,22	128,00
-17569,29	91,00
-17526,48	33,00
-17483,79	119,00
-17441,23	36,00
-17398,79	-41,00
-17356,48	171,00
-17314,28	16,00
-17272,21	106,00
-17230,26	73,00
-17188,42	84,00
-17146,71	76,00
-17105,12	49,00
-17063,64	62,00
-17022,28	304,00
-16981,04	85,00
-16939,92	19,00
-16898,91	94,00
-16858,02	113,00
-16817,25	99,00
-16776,59	133,00
-16736,04	-70,00
-16695,61	-46,00
-16655,29	87,00
-16615,09	96,00
-16574,99	38,00
-16535,01	73,00
-16495,15	48,00
-16455,39	62,00
-16415,74	84,00
-16376,21	3,00
-16336,78	-7,00
-16297,46	47,00
-16258,26	71,00
-16219,16	72,00
-16180,17	0,00
-16141,28	47,00
-16102,51	-3,00
-16063,84	-65,00
-16025,27	72,00
-15986,82	121,00
-15948,46	-36,00
-15910,22	78,00
-15872,07	71,00
-15834,04	103,00
-15796,10	57,00
-15758,27	175,00
-15720,54	47,00
-15682,91	112,00
-15645,39	13,00
-15607,97	-19,00
-15570,64	-1,00
-15533,42	4,00
-15496,30	92,00
-15459,28	123,00
-15422,36	41,00
-15385,54	-52,00
-15348,82	-10,00
-15312,19	-12,00
-15275,66	-2,00
-15239,23	183,00
-15202,90	54,00
-15166,67	-6,00
-15130,53	34,00
-15094,48	66,00
-15058,54	7,00
-15022,68	77,00
-14986,93	87,00
-14951,26	54,00
-14915,69	185,00
-14880,22	167,00
-14844,84	43,00
-14809,55	39,00
-14774,35	127,00
-14739,25	89,00
-14704,24	46,00
-14669,32	-11,00
-14634,49	147,00
-14599,75	77,00
-14565,10	62,00
-14530,55	-25,00
-14496,08	27,00
-14461,70	-43,00
-14427,41	44,00
-14393,21	104,00
-14359,10	40,00
-14325,07	-12,00
-14291,14	21,00
-14257,29	64,00
-14223,52	51,00
-14189,85	189,00
-14156,26	33,00
-14122,76	58,00
-14089,34	167,00
-14056,01	14,00
-14022,76	76,00
-13989,60	-45,00
-13956,52	121,00
-13923,53	2,00
-13890,62	37,00
-13857,79	-91,00
-13825,05	75,00
-13792,39	6,00
-13759,81	-9,00
-13727,31	-32,00
-13694,90	43,00
-13662,57	79,00
-13630,31	-19,00
-13598,14	-91,00
-13566,05	21,00
-13534,05	71,00
-13502,12	45,00
-13470,27	-6,00
-13438,50	57,00
-13406,80	-3,00
-13375,19	72,00
-13343,66	0,00
-13312,20	-4,00
-13280,83	61,00
-13249,53	-3,00
-13218,30	80,00
-13187,16	112,00
-13156,09	108,00
-13125,10	25,00
-13094,18	112,00
-13063,34	-35,00
-13032,58	71,00
-13001,89	-3,00
-12971,28	11,00
-12940,74	14,00
-12910,27	25,00
-12879,88	-27,00
-12849,57	109,00
-12819,33	78,00
-12789,16	-41,00
-12759,06	-12,00
-12729,04	27,00
-12699,09	107,00
-12669,21	36,00
-12639,41	-30,00
-12609,68	48,00
-12580,02	-14,00
-12550,43	30,00
-12520,91	110,00
-12491,46	38,00
-12462,08	-20,00
-12432,77	-64,00
-12403,54	-71,00
-12374,37	181,00
-12345,27	127,00
-12316,24	102,00
-12287,29	74,00
-12258,40	126,00
-12229,57	148,00
-12200,82	95,00
-12172,14	-75,00
-12143,52	131,00
-12114,97	87,00
-12086,49	63,00
-12058,07	24,00
-12029,73	33,00
-12001,44	64,00
-11973,23	64,00
-11945,08	-34,00
-11917,00	107,00
-11888,98	20,00
-11861,03	115,00
-11833,15	89,00
-11805,32	147,00
-11777,57	126,00
-11749,88	73,00
-11722,25	-81,00
-11694,69	48,00
-11667,19	-9,00
-11639,75	47,00
-11612,38	14,00
-11585,07	12,00
-11557,83	66,00
-11530,65	5,00
-11503,53	65,00
-11476,47	141,00
-11449,48	82,00
-11422,54	-50,00
-11395,67	-74,00
-11368,86	30,00
-11342,11	69,00
-11315,43	-60,00
-11288,80	-4,00
-11262,23	158,00
-11235,73	25,00
-11209,28	-70,00
-11182,90	184,00
-11156,57	81,00
-11130,31	138,00
-11104,10	-9,00
-11077,96	64,00
-11051,87	21,00
-11025,84	28,00
-10999,87	40,00
-10973,96	32,00
-10948,11	-9,00
-10922,31	35,00
-10896,58	100,00
-10870,90	65,00
-10845,28	3,00
-10819,71	69,00
-10794,20	-63,00
-10768,75	83,00
-10743,36	65,00
-10718,02	14,00
-10692,74	4,00
-10667,52	84,00
-10642,35	168,00
-10617,24	33,00
-10592,18	139,00
-10567,18	202,00
-10542,23	27,00
-10517,34	76,00
-10492,51	72,00
-10467,72	96,00
-10443,00	199,00
-10418,32	77,00
-10393,70	-19,00
-10369,14	126,00
-10344,63	11,00
-10320,17	228,00
-10295,77	174,00
-10271,42	131,00
-10247,12	13,00
-10222,88	124,00
-10198,68	46,00
-10174,54	82,00
-10150,46	-17,00
-10126,42	195,00
-10102,44	114,00
-10078,51	139,00
-10054,63	45,00
-10030,80	100,00
-10007,03	141,00
-9983,30	155,00
-9959,63	169,00
-9936,01	308,00
-9912,44	111,00
-9888,92	124,00
-9865,44	175,00
-9842,02	74,00
-9818,65	223,00
-9795,33	171,00
-9772,06	168,00
-9748,84	177,00
-9725,67	210,00
-9702,55	125,00
-9679,47	260,00
-9656,45	307,00
-9633,47	328,00
-9610,55	286,00
-9587,67	108,00
-9564,84	294,00
-9542,06	353,00
-9519,32	340,00
-9496,64	420,00
-9474,00	450,00
-9451,41	474,00
-9428,87	427,00
-9406,37	385,00
-9383,92	302,00
-9361,52	358,00
-9339,17	190,00
-9316,86	475,00
-9294,60	609,00
-9272,38	596,00
-9250,21	649,00
-9228,09	678,00
-9206,01	622,00
-9183,98	554,00
-9162,00	444,00
-9140,06	399,00
-9118,16	520,00
-9096,31	645,00
-9074,51	692,00
-9052,75	650,00
-9031,04	571,00
-9009,37	574,00
-8987,74	422,00
-8966,16	435,00
-8944,63	197,00
-8923,14	172,00
-8901,69	336,00
-8880,29	468,00
-8858,93	488,00
-8837,61	588,00
-8816,34	732,00
-8795,11	714,00
-8773,92	610,00
-8752,78	413,00
-8731,68	584,00
-8710,62	405,00
-8689,61	535,00
-8668,63	601,00
-8647,70	641,00
-8626,82	585,00
-8605,97	554,00
-8585,17	444,00
-8564,41	458,00
-8543,69	344,00
-8523,01	310,00
-8502,37	357,00
-8481,78	521,00
-8461,23	509,00
-8440,71	558,00
-8420,24	536,00
-8399,81	552,00
-8379,42	660,00
-8359,08	450,00
-8338,77	491,00
-8318,50	433,00
-8298,27	451,00
-8278,09	363,00
-8257,94	484,00
-8237,83	451,00
-8217,76	623,00
-8197,74	596,00
-8177,75	566,00
-8157,80	554,00
-8137,89	515,00
-8118,02	519,00
-8098,19	477,00
-8078,40	488,00
-8058,65	388,00
-8038,93	625,00
-8019,26	569,00
-7999,62	522,00
-7980,02	446,00
-7960,46	489,00
-7940,94	414,00
-7921,46	360,00
-7902,01	398,00
-7882,60	414,00
-7863,23	457,00
-7843,90	439,00
-7824,61	362,00
-7805,35	510,00
-7786,13	598,00
-7766,95	467,00
-7747,80	496,00
-7728,69	475,00
-7709,62	416,00
-7690,59	459,00
-7671,59	521,00
-7652,63	497,00
-7633,70	608,00
-7614,81	425,00
-7595,96	529,00
-7577,15	407,00
-7558,37	387,00
-7539,62	356,00
-7520,91	464,00
-7502,24	371,00
-7483,60	559,00
-7465,00	391,00
-7446,44	448,00
-7427,91	336,00
-7409,41	371,00
-7390,95	337,00
-7372,53	268,00
-7354,14	192,00
-7335,78	89,00
-7317,46	351,00
-7299,18	337,00
-7280,92	433,00
-7262,71	458,00
-7244,52	508,00
-7226,38	540,00
-7208,26	451,00
-7190,18	389,00
-7172,14	410,00
-7154,12	257,00
-7136,15	412,00
-7118,20	490,00
-7100,29	404,00
-7082,41	383,00
-7064,57	489,00
-7046,76	284,00
-7028,98	248,00
-7011,24	253,00
-6993,53	167,00
-6975,85	121,00
-6958,20	75,00
-6940,59	169,00
-6923,01	175,00
-6905,46	100,00
-6887,94	300,00
-6870,46	328,00
-6853,01	374,00
-6835,59	418,00
-6818,21	276,00
-6800,85	287,00
-6783,53	298,00
-6766,24	54,00
-6748,98	-27,00
-6731,76	68,00
-6714,56	-62,00
-6697,40	149,00
-6680,26	-18,00
-6663,16	165,00
-6646,09	171,00
-6629,05	199,00
-6612,05	264,00
-6595,07	366,00
-6578,13	317,00
-6561,21	96,00
-6544,33	198,00
-6527,47	81,00
-6510,65	14,00
-6493,86	-12,00
-6477,10	16,00
-6460,36	113,00
-6443,66	64,00
-6426,99	39,00
-6410,35	161,00
-6393,74	118,00
-6377,16	150,00
-6360,61	82,00
-6344,09	125,00
-6327,59	80,00
-6311,13	133,00
-6294,70	164,00
-6278,29	314,00
-6261,92	348,00
-6245,58	295,00
-6229,26	298,00
-6212,97	284,00
-6196,72	193,00
-6180,49	11,00
-6164,29	58,00
-6148,12	45,00
-6131,98	-77,00
-6115,86	-48,00
-6099,78	14,00
-6083,72	-43,00
-6067,69	-32,00
-6051,69	-10,00
-6035,72	67,00
-6019,78	10,00
-6003,87	97,00
-5987,98	208,00
-5972,12	259,00
-5956,29	188,00
-5940,49	188,00
-5924,71	173,00
-5908,96	-58,00
-5893,24	48,00
-5877,55	129,00
-5861,89	41,00
-5846,25	66,00
-5830,64	42,00
-5815,05	43,00
-5799,50	48,00
-5783,97	124,00
-5768,47	46,00
-5752,99	29,00
-5737,55	157,00
-5722,12	103,00
-5706,73	258,00
-5691,36	115,00
-5676,02	211,00
-5660,71	94,00
-5645,42	31,00
-5630,16	12,00
-5614,92	96,00
-5599,71	81,00
-5584,53	6,00
-5569,37	125,00
-5554,24	1153,00
-5539,14	142,00
-5524,06	36,00
-5509,01	201,00
-5493,98	-1,00
-5478,98	-28,00
-5464,00	88,00
-5449,05	33,00
-5434,13	25,00
-5419,23	55,00
-5404,36	89,00
-5389,51	82,00
-5374,69	197,00
-5359,89	95,00
-5345,12	296,00
-5330,37	315,00
-5315,65	110,00
-5300,95	189,00
-5286,28	189,00
-5271,63	93,00
-5257,01	2,00
-5242,41	81,00
-5227,84	46,00
-5213,29	94,00
-5198,76	2,00
-5184,26	49,00
-5169,79	74,00
-5155,33	96,00
-5140,91	77,00
-5126,51	163,00
-5112,13	145,00
-5097,77	134,00
-5083,44	14,00
-5069,13	27,00
-5054,85	87,00
-5040,59	85,00
-5026,36	10,00
-5012,15	78,00
-4997,96	-14,00
-4983,80	-22,00
-4969,66	129,00
-4955,54	104,00
-4941,44	119,00
-4927,37	175,00
-4913,33	257,00
-4899,30	217,00
-4885,30	272,00
-4871,33	197,00
-4857,37	-33,00
-4843,44	133,00
-4829,53	119,00
-4815,65	-13,00
-4801,79	5,00
-4787,95	39,00
-4774,13	108,00
-4760,34	97,00
-4746,56	-12,00
-4732,82	4,00
-4719,09	116,00
-4705,38	213,00
-4691,70	191,00
-4678,04	112,00
-4664,41	162,00
-4650,79	154,00
-4637,20	121,00
-4623,63	72,00
-4610,08	30,00
-4596,56	18,00
-4583,05	47,00
-4569,57	132,00
-4556,11	170,00
-4542,67	144,00
-4529,25	59,00
-4515,86	121,00
-4502,49	112,00
-4489,13	125,00
-4475,80	145,00
-4462,49	172,00
-4449,21	85,00
-4435,94	165,00
-4422,70	216,00
-4409,47	97,00
-4396,27	84,00
-4383,09	42,00
-4369,93	31,00
-4356,79	99,00
-4343,67	15,00
-4330,58	97,00
-4317,50	152,00
-4304,45	72,00
-4291,41	68,00
-4278,40	-42,00
-4265,41	23,00
-4252,44	24,00
-4239,49	63,00
-4226,55	56,00
-4213,65	96,00
-4200,76	52,00
-4187,89	50,00
-4175,04	96,00
-4162,21	118,00
-4149,40	66,00
-4136,61	126,00
-4123,85	9,00
-4111,10	31,00
-4098,37	36,00
-4085,66	100,00
-4072,98	239,00
-4060,31	87,00
-4047,66	185,00
-4035,04	180,00
-4022,43	83,00
-4009,84	118,00
-3997,27	50,00
-3984,72	117,00
-3972,19	-54,00
-3959,69	-6,00
-3947,20	-16,00
-3934,73	-29,00
-3922,27	163,00
-3909,84	148,00
-3897,43	98,00
-3885,04	-71,00
-3872,67	-22,00
-3860,31	-17,00
-3847,98	177,00
-3835,66	-4,00
-3823,36	-80,00
-3811,09	87,00
-3798,83	-2,00
-3786,59	36,00
-3774,37	240,00
-3762,17	152,00
-3749,98	30,00
-3737,82	21,00
-3725,67	-3,00
-3713,55	12,00
-3701,44	194,00
-3689,35	-10,00
-3677,28	-20,00
-3665,22	14,00
-3653,19	-76,00
-3641,17	38,00
-3629,18	165,00
-3617,20	-42,00
-3605,24	157,00
-3593,30	-9,00
-3581,37	-22,00
-3569,47	58,00
-3557,58	45,00
-3545,71	27,00
-3533,86	33,00
-3522,02	-65,00
-3510,21	66,00
-3498,41	28,00
-3486,63	103,00
-3474,87	61,00
-3463,12	170,00
-3451,40	86,00
-3439,69	179,00
-3428,00	216,00
-3416,33	49,00
-3404,67	-1,00
-3393,03	175,00
-3381,41	-54,00
-3369,81	-56,00
-3358,22	211,00
-3346,66	137,00
-3335,10	106,00
-3323,57	55,00
-3312,06	12,00
-3300,56	43,00
-3289,08	94,00
-3277,61	52,00
-3266,16	8,00
-3254,73	146,00
-3243,32	13,00
-3231,92	106,00
-3220,55	-11,00
-3209,18	104,00
-3197,84	74,00
-3186,51	27,00
-3175,20	154,00
-3163,90	-6,00
-3152,63	102,00
-3141,36	43,00
-3130,12	103,00
-3118,89	-34,00
-3107,68	142,00
-3096,49	106,00
-3085,31	-57,00
-3074,15	31,00
-3063,00	-42,00
-3051,87	161,00
-3040,76	14,00
-3029,67	70,00
-3018,59	-64,00
-3007,52	53,00
-2996,48	32,00
-2985,44	105,00
-2974,43	39,00
-2963,43	27,00
-2952,45	145,00
-2941,48	59,00
-2930,53	-30,00
-2919,60	40,00
-2908,68	101,00
-2897,78	52,00
-2886,89	58,00
-2876,02	74,00
-2865,17	113,00
-2854,33	119,00
-2843,50	11,00
-2832,70	112,00
-2821,90	89,00
-2811,13	87,00
-2800,37	-26,00
-2789,62	125,00
-2778,89	106,00
-2768,18	71,00
-2757,48	27,00
-2746,80	48,00
-2736,13	57,00
-2725,48	177,00
-2714,84	10,00
-2704,22	67,00
-2693,61	-38,00
-2683,02	-83,00
-2672,45	98,00
-2661,89	80,00
-2651,34	-23,00
-2640,81	66,00
-2630,30	77,00
-2619,80	174,00
-2609,31	52,00
-2598,84	14,00
-2588,39	61,00
-2577,95	98,00
-2567,52	77,00
-2557,11	32,00
-2546,71	108,00
-2536,33	202,00
-2525,97	97,00
-2515,62	51,00
-2505,28	31,00
-2494,96	36,00
-2484,65	1,00
-2474,36	418,00
-2464,08	22,00
-2453,82	105,00
-2443,57	169,00
-2433,33	49,00
-2423,11	110,00
-2412,91	29,00
-2402,72	89,00
-2392,54	155,00
-2382,38	79,00
-2372,23	46,00
-2362,09	450,00
-2351,97	8,00
-2341,87	10,00
-2331,78	0,00
-2321,70	-42,00
-2311,64	183,00
-2301,59	81,00
-2291,55	-5,00
-2281,53	-11,00
-2271,53	31,00
-2261,53	104,00
-2251,55	114,00
-2241,59	70,00
-2231,64	41,00
-2221,70	46,00
-2211,78	95,00
-2201,87	93,00
-2191,97	41,00
-2182,09	108,00
-2172,22	152,00
-2162,37	5,00
-2152,53	146,00
-2142,70	82,00
-2132,89	28,00
-2123,09	79,00
-2113,30	7,00
-2103,53	48,00
-2093,77	70,00
-2084,02	-37,00
-2074,29	3,00
-2064,57	101,00
-2054,86	82,00
-2045,17	-48,00
-2035,49	69,00
-2025,82	32,00
-2016,17	49,00
-2006,53	-23,00
-1996,91	16,00
-1987,29	74,00
-1977,69	105,00
-1968,11	-40,00
-1958,53	116,00
-1948,97	72,00
-1939,42	124,00
-1929,89	-24,00
-1920,37	112,00
-1910,86	75,00
-1901,36	57,00
-1891,88	-7,00
-1882,41	42,00
-1872,95	12,00
-1863,51	-52,00
-1854,08	46,00
-1844,66	53,00
-1835,26	44,00
-1825,86	137,00
-1816,48	50,00
-1807,11	48,00
-1797,76	74,00
-1788,42	-73,00
-1779,09	130,00
-1769,77	4,00
-1760,47	61,00
-1751,17	-33,00
-1741,89	63,00
-1732,63	88,00
-1723,37	118,00
-1714,13	86,00
-1704,90	-57,00
-1695,68	84,00
-1686,48	27,00
-1677,29	156,00
-1668,11	77,00
-1658,94	196,00
-1649,78	32,00
-1640,64	50,00
-1631,51	28,00
-1622,39	80,00
-1613,28	-24,00
-1604,19	-34,00
-1595,10	29,00
-1586,03	111,00
-1576,97	-26,00
-1567,93	20,00
-1558,89	12,00
-1549,87	-88,00
-1540,86	44,00
-1531,86	88,00
-1522,87	82,00
-1513,90	157,00
-1504,93	-46,00
-1495,98	109,00
-1487,04	99,00
-1478,12	132,00
-1469,20	-6,00
-1460,30	82,00
-1451,40	59,00
-1442,52	121,00
-1433,65	16,00
-1424,80	145,00
-1415,95	35,00
-1407,12	-47,00
-1398,30	152,00
-1389,48	60,00
-1380,69	93,00
-1371,90	-54,00
-1363,12	133,00
-1354,36	-34,00
-1345,60	27,00
-1336,86	132,00
-1328,13	117,00
-1319,41	-38,00
-1310,70	112,00
-1302,01	20,00
-1293,32	18,00
-1284,65	103,00
-1275,99	11,00
-1267,33	111,00
-1258,69	106,00
-1250,06	231,00
-1241,45	225,00
-1232,84	12,00
-1224,25	-54,00
-1215,66	53,00
-1207,09	82,00
-1198,53	97,00
-1189,97	110,00
-1181,43	9,00
-1172,91	87,00
-1164,39	54,00
-1155,88	20,00
-1147,38	-34,00
-1138,90	27,00
-1130,43	-30,00
-1121,96	99,00
-1113,51	122,00
-1105,07	105,00
-1096,64	-36,00
-1088,22	159,00
-1079,81	95,00
-1071,41	101,00
-1063,02	116,00
-1054,65	147,00
-1046,28	33,00
-1037,92	6,00
-1029,58	152,00
-1021,24	67,00
-1012,92	102,00
-1004,61	22,00
-996,30	130,00
-988,01	-14,00
-979,73	46,00
-971,46	43,00
-963,20	-44,00
-954,95	-42,00
-946,71	-34,00
-938,48	68,00
-930,26	177,00
-922,06	66,00
-913,86	60,00
-905,67	50,00
-897,49	-6,00
-889,33	26,00
-881,17	45,00
-873,02	13,00
-864,89	77,00
-856,76	128,00
-848,65	143,00
-840,54	52,00
-832,45	-46,00
-824,36	58,00
-816,29	97,00
-808,22	160,00
-800,17	-20,00
-792,12	108,00
-784,09	-28,00
-776,06	29,00
-768,05	175,00
-760,04	15,00
-752,05	-43,00
-744,07	111,00
-736,09	20,00
-728,13	35,00
-720,17	-97,00
-712,23	31,00
-704,29	77,00
-696,37	235,00
-688,45	69,00
-680,55	-50,00
-672,65	40,00
-664,77	207,00
-656,89	-32,00
-649,03	140,00
-641,17	40,00
-633,32	-35,00
-625,49	49,00
-617,66	27,00
-609,84	0,00
-602,03	-3,00
-594,23	26,00
-586,45	118,00
-578,67	93,00
-570,90	17,00
-563,14	97,00
-555,39	-5,00
-547,65	85,00
-539,91	157,00
-532,19	69,00
-524,48	-10,00
-516,78	-48,00
-509,08	123,00
-501,40	56,00
-493,72	63,00
-486,06	122,00
-478,40	85,00
-470,76	126,00
-463,12	130,00
-455,49	34,00
-447,87	98,00
-440,26	41,00
-432,66	11,00
-425,07	-98,00
-417,49	168,00
-409,92	55,00
-402,35	183,00
-394,80	96,00
-387,25	21,00
-379,72	72,00
-372,19	129,00
-364,67	164,00
-357,17	-3,00
-349,67	72,00
-342,18	73,00
-334,69	-43,00
-327,22	-54,00
-319,76	105,00
-312,30	97,00
-304,86	268,00
-297,42	20,00
-290,00	99,00
-282,58	98,00
-275,17	175,00
-267,77	134,00
-260,37	116,00
-252,99	78,00
-245,62	143,00
-238,25	114,00
-230,90	61,00
-223,55	-26,00
-216,21	137,00
-208,88	217,00
-201,56	198,00
-194,25	119,00
-186,94	247,00
-179,65	188,00
-172,36	284,00
-165,08	390,00
-157,81	204,00
-150,55	242,00
-143,30	385,00
-136,06	387,00
-128,82	422,00
-121,60	538,00
-114,38	498,00
-107,17	640,00
-99,97	567,00
-92,78	609,00
-85,60	668,00
-78,42	1100,00
-71,25	1053,00
-64,10	1187,00
-56,95	1394,00
-49,81	1722,00
-42,67	2029,00
-35,55	2587,00
-28,43	3590,00
-21,33	5746,00
-14,23	19324,00
-7,14	55164,00
-0,05	54791,00
7,02	54542,00
14,09	54846,00
21,14	17411,00
28,19	7198,00
35,23	4508,00
42,27	3304,00
49,29	2816,00
56,31	2355,00
63,32	1931,00
70,32	1565,00
77,31	1435,00
84,29	1205,00
91,27	1112,00
98,23	900,00
105,19	911,00
112,14	959,00
119,09	1418,00
126,02	2068,00
132,95	2338,00
139,87	2386,00
146,78	2245,00
153,68	2105,00
160,58	2055,00
167,46	1987,00
174,34	2074,00
181,21	2027,00
188,08	1986,00
194,93	1902,00
201,78	1942,00
208,62	1921,00
215,45	1957,00
222,27	2064,00
229,09	1903,00
235,90	1973,00
242,70	1786,00
249,49	1838,00
256,27	1819,00
263,05	1788,00
269,82	1878,00
276,58	1796,00
283,33	1772,00
290,08	1900,00
296,82	1816,00
303,55	1739,00
310,27	1638,00
316,98	1721,00
323,69	1673,00
330,39	1683,00
337,08	1559,00
343,76	1640,00
350,44	1742,00
357,11	1735,00
363,77	1682,00
370,42	1658,00
377,07	1683,00
383,71	1724,00
390,34	1591,00
396,96	1594,00
403,58	1520,00
410,19	1682,00
416,79	1547,00
423,38	1635,00
429,97	1585,00
436,55	1525,00
443,12	1470,00
449,68	1409,00
456,24	1382,00
462,79	1263,00
469,33	1391,00
475,86	1393,00
482,39	1382,00
488,91	1401,00
495,42	1347,00
501,93	1359,00
508,42	1309,00
514,91	1374,00
521,40	1325,00
527,87	1348,00
534,34	1298,00
540,80	1346,00
547,25	1221,00
553,70	1309,00
560,14	1228,00
566,57	1343,00
573,00	1308,00
579,41	1249,00
585,83	1139,00
592,23	1149,00
598,62	1216,00
605,01	1140,00
611,40	1251,00
617,77	1235,00
624,14	1325,00
630,50	1216,00
636,85	1130,00
643,20	1122,00
649,54	1205,00
655,87	1147,00
662,20	1204,00
668,52	1105,00
674,83	1143,00
681,13	1125,00
687,43	1085,00
693,72	1043,00
700,00	1105,00
706,28	1145,00
712,55	1114,00
718,81	1237,00
725,07	1167,00
731,32	1030,00
737,56	1163,00
743,79	1066,00
750,02	1183,00
756,24	1095,00
762,46	1138,00
768,67	1041,00
774,87	1072,00
781,06	1026,00
787,25	968,00
793,43	1145,00
799,60	1112,00
805,77	844,00
811,93	1203,00
818,08	1018,00
824,23	1155,00
830,37	1029,00
836,50	1122,00
842,63	1136,00
848,75	1058,00
854,87	1051,00
860,97	1124,00
867,07	1064,00
873,17	1057,00
879,25	1076,00
885,33	1058,00
891,41	1145,00
897,47	916,00
903,53	1107,00
909,59	1065,00
915,63	1044,00
921,67	990,00
927,71	914,00
933,74	956,00
939,76	920,00
945,77	811,00
951,78	847,00
957,78	1014,00
963,78	898,00
969,77	882,00
975,75	1001,00
981,72	885,00
987,69	805,00
993,66	957,00
999,61	957,00
1005,56	886,00
1011,51	1009,00
1017,44	927,00
1023,37	1011,00
1029,30	883,00
1035,22	1041,00
1041,13	959,00
1047,03	948,00
1052,93	980,00
1058,83	1236,00
1064,71	1282,00
1070,59	1194,00
1076,47	1131,00
1082,33	961,00
1088,20	998,00
1094,05	904,00
1099,90	955,00
1105,74	835,00
1111,58	970,00
1117,41	1019,00
1123,23	1269,00
1129,05	1311,00
1134,86	1228,00
1140,67	1046,00
1146,47	1008,00
1152,26	934,00
1158,05	740,00
1163,83	858,00
1169,60	980,00
1175,37	909,00
1181,13	830,00
1186,89	959,00
1192,64	849,00
1198,38	883,00
1204,12	942,00
1209,85	882,00
1215,58	860,00
1221,30	767,00
1227,02	912,00
1232,72	886,00
1238,43	772,00
1244,12	933,00
1249,81	890,00
1255,50	959,00
1261,17	968,00
1266,85	886,00
1272,51	886,00
1278,17	968,00
1283,83	1077,00
1289,47	1281,00
1295,12	1444,00
1300,75	1387,00
1306,38	1239,00
1312,01	1189,00
1317,63	1048,00
1323,24	944,00
1328,85	1023,00
1334,45	1014,00
1340,04	930,00
1345,63	973,00
1351,22	905,00
1356,80	1009,00
1362,37	922,00
1367,93	956,00
1373,49	1063,00
1379,05	949,00
1384,60	1045,00
1390,14	996,00
1395,68	965,00
1401,21	942,00
1406,74	1037,00
1412,26	1057,00
1417,77	1042,00
1423,28	1159,00
1428,78	1158,00
1434,28	1437,00
1439,77	1559,00
1445,26	1489,00
1450,74	1468,00
1456,22	1366,00
1461,68	1445,00
1467,15	1305,00
1472,61	984,00
1478,06	1026,00
1483,51	979,00
1488,95	916,00
1494,38	909,00
1499,81	1016,00
1505,24	770,00
1510,65	937,00
1516,07	950,00
1521,48	896,00
1526,88	870,00
1532,27	799,00
1537,67	837,00
1543,05	864,00
1548,43	802,00
1553,81	832,00
1559,18	772,00
1564,54	808,00
1569,90	859,00
1575,25	881,00
1580,60	814,00
1585,94	844,00
1591,28	658,00
1596,61	774,00
1601,93	765,00
1607,25	820,00
1612,57	747,00
1617,88	763,00
1623,18	739,00
1628,48	824,00
1633,77	674,00
1639,06	597,00
1644,34	805,00
1649,62	833,00
1654,89	755,00
1660,16	640,00
1665,42	715,00
1670,67	670,00
1675,92	663,00
1681,17	710,00
1686,41	736,00
1691,64	634,00
1696,87	595,00
1702,10	666,00
1707,32	738,00
1712,53	720,00
1717,74	704,00
1722,94	528,00
1728,14	609,00
1733,33	615,00
1738,52	661,00
1743,70	655,00
1748,88	636,00
1754,05	590,00
1759,22	602,00
1764,38	588,00
1769,53	660,00
1774,69	606,00
1779,83	560,00
1784,97	637,00
1790,11	532,00
1795,24	586,00
1800,36	737,00
1805,48	624,00
1810,60	581,00
1815,71	547,00
1820,82	479,00
1825,92	543,00
1831,01	572,00
1836,10	469,00
1841,19	606,00
1846,26	669,00
1851,34	544,00
1856,41	525,00
1861,47	482,00
1866,53	530,00
1871,59	528,00
1876,64	399,00
1881,68	418,00
1886,72	543,00
1891,76	548,00
1896,79	602,00
1901,81	543,00
1906,83	451,00
1911,85	520,00
1916,86	507,00
1921,86	630,00
1926,86	545,00
1931,86	589,00
1936,85	433,00
1941,83	475,00
1946,81	398,00
1951,79	382,00
1956,76	411,00
1961,72	364,00
1966,68	502,00
1971,64	452,00
1976,59	364,00
1981,54	409,00
1986,48	395,00
1991,42	349,00
1996,35	389,00
2001,27	336,00
2006,20	371,00
2011,11	490,00
2016,03	489,00
2020,93	437,00
2025,84	452,00
2030,73	346,00
2035,63	467,00
2040,52	522,00
2045,40	431,00
2050,28	497,00
2055,15	371,00
2060,02	383,00
2064,89	434,00
2069,75	456,00
2074,60	317,00
2079,46	332,00
2084,30	446,00
2089,14	428,00
2093,98	427,00
2098,81	444,00
2103,64	463,00
2108,46	450,00
2113,28	397,00
2118,09	325,00
2122,90	371,00
2127,70	334,00
2132,50	397,00
2137,30	315,00
2142,09	410,00
2146,87	379,00
2151,66	449,00
2156,43	384,00
2161,20	341,00
2165,97	354,00
2170,73	427,00
2175,49	411,00
2180,24	424,00
2184,99	528,00
2189,74	410,00
2194,48	358,00
2199,21	443,00
2203,94	397,00
2208,67	394,00
2213,39	383,00
2218,11	258,00
2222,82	424,00
2227,53	298,00
2232,23	316,00
2236,93	308,00
2241,63	327,00
2246,32	384,00
2251,00	350,00
2255,68	357,00
2260,36	244,00
2265,03	346,00
2269,70	289,00
2274,36	217,00
2279,02	311,00
2283,68	292,00
2288,33	280,00
2292,97	232,00
2297,61	332,00
2302,25	410,00
2306,88	387,00
2311,51	350,00
2316,14	346,00
2320,75	331,00
2325,37	327,00
2329,98	384,00
2334,59	274,00
2339,19	277,00
2343,79	161,00
2348,38	261,00
2352,97	279,00
2357,55	211,00
2362,13	271,00
2366,71	361,00
2371,28	162,00
2375,85	335,00
2380,41	240,00
2384,97	115,00
2389,52	181,00
2394,07	202,00
2398,62	215,00
2403,16	266,00
2407,70	310,00
2412,23	325,00
2416,76	346,00
2421,29	279,00
2425,81	334,00
2430,32	291,00
2434,84	258,00
2439,34	303,00
2443,85	194,00
2448,35	161,00
2452,84	202,00
2457,33	222,00
2461,82	350,00
2466,30	288,00
2470,78	305,00
2475,25	214,00
2479,72	249,00
2484,19	253,00
2488,65	271,00
2493,11	210,00
2497,56	291,00
2502,01	241,00
2506,46	231,00
2510,90	50,00
2515,34	372,00
2519,77	222,00
2524,20	331,00
2528,62	182,00
2533,04	362,00
2537,46	158,00
2541,87	196,00
2546,28	216,00
2550,68	324,00
2555,08	182,00
2559,48	275,00
2563,87	198,00
2568,26	202,00
2572,64	223,00
2577,02	355,00
2581,40	272,00
2585,77	237,00
2590,14	209,00
2594,50	161,00
2598,86	220,00
2603,22	129,00
2607,57	241,00
2611,92	215,00
2616,26	137,00
2620,60	221,00
2624,94	128,00
2629,27	258,00
2633,60	95,00
2637,92	270,00
2642,24	255,00
2646,56	237,00
2650,87	120,00
2655,18	152,00
2659,48	242,00
2663,78	271,00
2668,08	291,00
2672,37	342,00
2676,66	263,00
2680,95	213,00
2685,23	191,00
2689,50	363,00
2693,78	157,00
2698,05	245,00
2702,31	146,00
2706,57	251,00
2710,83	316,00
2715,08	298,00
2719,33	270,00
2723,58	385,00
2727,82	323,00
2732,06	220,00
2736,29	263,00
2740,53	235,00
2744,75	282,00
2748,97	252,00
2753,19	286,00
2757,41	263,00
2761,62	257,00
2765,83	165,00
2770,03	205,00
2774,23	208,00
2778,43	427,00
2782,62	198,00
2786,81	251,00
2791,00	158,00
2795,18	302,00
2799,35	149,00
2803,53	365,00
2807,70	395,00
2811,86	323,00
2816,03	388,00
2820,19	260,00
2824,34	244,00
2828,49	489,00
2832,64	613,00
2836,78	572,00
2840,92	749,00
2845,06	857,00
2849,19	927,00
2853,32	936,00
2857,45	934,00
2861,57	987,00
2865,69	911,00
2869,80	878,00
2873,91	924,00
2878,02	924,00
2882,12	971,00
2886,22	957,00
2890,32	965,00
2894,41	916,00
2898,50	801,00
2902,58	865,00
2906,67	849,00
2910,74	629,00
2914,82	683,00
2918,89	677,00
2922,96	737,00
2927,02	488,00
2931,08	618,00
2935,13	504,00
2939,19	433,00
2943,24	367,00
2947,28	455,00
2951,32	179,00
2955,36	399,00
2959,40	320,00
2963,43	120,00
2967,46	263,00
2971,48	367,00
2975,50	197,00
2979,52	303,00
2983,53	272,00
2987,54	284,00
2991,55	292,00
2995,55	166,00
2999,55	78,00
3003,54	189,00
3007,54	147,00
3011,53	123,00
3015,51	120,00
3019,49	91,00
3023,47	202,00
3027,45	217,00
3031,42	125,00
3035,39	188,00
3039,35	194,00
3043,31	133,00
3047,27	251,00
3051,22	188,00
3055,17	110,00
3059,12	20,00
3063,06	180,00
3067,00	50,00
3070,94	173,00
3074,87	-15,00
3078,80	227,00
3082,73	236,00
3086,65	136,00
3090,57	116,00
3094,49	141,00
3098,40	85,00
3102,31	285,00
3106,22	62,00
3110,12	29,00
3114,02	102,00
3117,92	131,00
3121,81	236,00
3125,70	163,00
3129,58	94,00
3133,47	8,00
3137,34	47,00
3141,22	173,00
3145,09	85,00
3148,96	183,00
3152,83	73,00
3156,69	25,00
3160,55	128,00
3164,40	-50,00
3168,26	55,00
3172,10	177,00
3175,95	141,00
3179,79	107,00
3183,63	111,00
3187,47	278,00
3191,30	71,00
3195,13	90,00
3198,95	150,00
3202,78	86,00
3206,60	150,00
3210,41	92,00
3214,23	88,00
3218,03	76,00
3221,84	140,00
3225,64	-77,00
3229,44	98,00
3233,24	251,00
3237,03	123,00
3240,82	69,00
3244,61	65,00
3248,39	51,00
3252,17	89,00
3255,95	198,00
3259,72	114,00
3263,49	84,00
3267,26	10,00
3271,03	21,00
3274,79	190,00
3278,54	44,00
3282,30	95,00
3286,05	145,00
3289,80	58,00
3293,54	94,00
3297,29	186,00
3301,02	108,00
3304,76	85,00
3308,49	77,00
3312,22	42,00
3315,95	72,00
3319,67	95,00
3323,39	31,00
3327,10	120,00
3330,82	214,00
3334,53	136,00
3338,24	64,00
3341,94	94,00
3345,64	83,00
3349,34	-8,00
3353,03	65,00
3356,72	119,00
3360,41	87,00
3364,10	161,00
3367,78	65,00
3371,46	151,00
3375,13	77,00
3378,81	143,00
3382,48	27,00
3386,14	200,00
3389,81	-47,00
3393,47	-26,00
3397,12	33,00
3400,78	114,00
3404,43	222,00
3408,08	1,00
3411,72	57,00
3415,36	25,00
3419,00	-82,00
3422,64	-74,00
3426,27	2,00
3429,90	140,00
3433,53	76,00
3437,15	101,00
3440,77	50,00
3444,39	17,00
3448,00	-25,00
3451,62	147,00
3455,22	132,00
3458,83	20,00
3462,43	144,00
3466,03	20,00
3469,63	-9,00
3473,22	80,00
3476,81	120,00
3480,40	73,00
3483,99	-13,00
3487,57	125,00
3491,15	-3,00
3494,72	-31,00
3498,29	176,00
3501,86	6,00
3505,43	57,00
3508,99	67,00
3512,56	60,00
3516,11	82,00
3519,67	95,00
3523,22	74,00
3526,77	118,00
3530,32	102,00
3533,86	23,00
3537,40	74,00
3540,94	186,00
3544,47	35,00
3548,00	164,00
3551,53	43,00
3555,06	17,00
3558,58	20,00
3562,10	44,00
3565,62	157,00
3569,13	-36,00
3572,64	148,00
3576,15	79,00
3579,66	142,00
3583,16	102,00
3586,66	-18,00
3590,16	24,00
3593,65	114,00
3597,14	70,00
3600,63	152,00
3604,11	23,00
3607,60	70,00
3611,08	126,00
3614,55	95,00
3618,03	49,00
3621,50	72,00
3624,97	92,00
3628,43	16,00
3631,90	4,00
3635,36	81,00
3638,81	-20,00
3642,27	-39,00
3645,72	181,00
3649,17	55,00
3652,61	25,00
3656,06	-84,00
3659,50	51,00
3662,93	80,00
3666,37	-38,00
3669,80	52,00
3673,23	20,00
3676,65	74,00
3680,08	-30,00
3683,50	65,00
3686,92	-38,00
3690,33	69,00
3693,74	119,00
3697,15	119,00
3700,56	125,00
3703,96	-15,00
3707,36	-44,00
3710,76	-52,00
3714,16	48,00
3717,55	-22,00
3720,94	63,00
3724,33	8,00
3727,71	-32,00
3731,10	-2,00
3734,48	-12,00
3737,85	-84,00
3741,23	16,00
3744,60	-24,00
3747,97	-41,00
3751,33	145,00
3754,69	147,00
3758,05	120,00
3761,41	42,00
3764,77	38,00
3768,12	36,00
3771,47	101,00
3774,82	-17,00
3778,16	4,00
3781,50	0,00
3784,84	0,00
3788,18	8,00
>>>>>End Processed Spectral Data<<<<<
