SpectraSuite Data File
++++++++++++++++++++++++++++++++++++
Date: Mon Mar 09 16:03:12 ICT 2026
User: Administrator
Dark Spectrum Present: Yes
Reference Spectrum Present: No
Number of Sampled Component Spectra: 1
Spectrometers: MAYP113682
Integration Time (usec): 3000000 (MAYP113682)
Spectra Averaged: 1 (MAYP113682)
Boxcar Smoothing: 0 (MAYP113682)
Correct for Electrical Dark: No (MAYP113682)
Strobe/Lamp Enabled: No (MAYP113682)
Correct for Detector Non-linearity: No (MAYP113682)
Correct for Stray Light: No (MAYP113682)
Number of Pixels in Processed Spectrum: 2068
>>>>>Begin Processed Spectral Data<<<<<
-37534,58	-5,00
-37414,56	-4,00
-37295,11	6,00
-37176,24	-3,00
-37057,95	110,00
-36940,22	-39,00
-36823,05	107,00
-36706,45	160,00
-36590,40	60,00
-36474,90	26,00
-36359,95	26,00
-36245,55	77,00
-36131,68	-10,00
-36018,35	19,00
-35905,55	60,00
-35793,29	111,00
-35681,54	86,00
-35570,32	19,00
-35459,62	70,00
-35349,43	111,00
-35239,75	122,00
-35130,58	149,00
-35021,91	-22,00
-34913,74	-37,00
-34806,07	126,00
-34698,89	49,00
-34592,20	154,00
-34486,00	89,00
-34380,28	45,00
-34275,04	30,00
-34170,27	50,00
-34065,98	126,00
-33962,16	72,00
-33858,81	66,00
-33755,92	187,00
-33653,49	139,00
-33551,52	63,00
-33450,01	65,00
-33348,94	31,00
-33248,33	4,00
-33148,16	72,00
-33048,43	66,00
-32949,14	84,00
-32850,29	85,00
-32751,87	73,00
-32653,89	140,00
-32556,33	-15,00
-32459,20	82,00
-32362,49	108,00
-32266,19	48,00
-32170,32	84,00
-32074,86	118,00
-31979,82	35,00
-31885,18	52,00
-31790,95	38,00
-31697,12	73,00
-31603,69	128,00
-31510,67	60,00
-31418,04	107,00
-31325,80	27,00
-31233,95	-1,00
-31142,49	141,00
-31051,42	128,00
-30960,73	41,00
-30870,43	66,00
-30780,50	-10,00
-30690,95	97,00
-30601,77	42,00
-30512,97	48,00
-30424,53	63,00
-30336,46	149,00
-30248,76	149,00
-30161,42	59,00
-30074,44	102,00
-29987,81	-97,00
-29901,55	116,00
-29815,63	-11,00
-29730,07	109,00
-29644,86	-96,00
-29560,00	126,00
-29475,48	166,00
-29391,30	17,00
-29307,47	6,00
-29223,97	76,00
-29140,81	138,00
-29057,99	77,00
-28975,50	92,00
-28893,34	86,00
-28811,51	64,00
-28730,00	19,00
-28648,82	133,00
-28567,97	62,00
-28487,43	59,00
-28407,21	54,00
-28327,32	86,00
-28247,73	211,00
-28168,46	6,00
-28089,50	63,00
-28010,85	157,00
-27932,51	83,00
-27854,48	-34,00
-27776,75	43,00
-27699,32	-37,00
-27622,19	64,00
-27545,37	78,00
-27468,84	44,00
-27392,60	80,00
-27316,66	51,00
-27241,01	83,00
-27165,66	188,00
-27090,59	112,00
-27015,81	82,00
-26941,31	115,00
-26867,10	36,00
-26793,17	45,00
-26719,52	158,00
-26646,15	-36,00
-26573,06	-5,00
-26500,24	103,00
-26427,70	110,00
-26355,43	116,00
-26283,43	155,00
-26211,71	105,00
-26140,25	144,00
-26069,06	86,00
-25998,13	26,00
-25927,46	111,00
-25857,06	-51,00
-25786,92	9,00
-25717,04	108,00
-25647,42	128,00
-25578,05	30,00
-25508,94	71,00
-25440,09	68,00
-25371,48	71,00
-25303,13	162,00
-25235,02	75,00
-25167,17	162,00
-25099,56	65,00
-25032,19	-42,00
-24965,07	75,00
-24898,20	-5,00
-24831,56	25,00
-24765,17	121,00
-24699,01	47,00
-24633,10	67,00
-24567,41	-3,00
-24501,97	-87,00
-24436,75	-96,00
-24371,77	3,00
-24307,03	77,00
-24242,51	-2,00
-24178,22	102,00
-24114,16	63,00
-24050,32	138,00
-23986,71	54,00
-23923,32	186,00
-23860,16	51,00
-23797,22	57,00
-23734,50	21,00
-23672,00	114,00
-23609,71	156,00
-23547,65	136,00
-23485,80	-75,00
-23424,16	13,00
-23362,74	79,00
-23301,53	14,00
-23240,54	72,00
-23179,75	46,00
-23119,17	87,00
-23058,80	-23,00
-22998,64	53,00
-22938,68	101,00
-22878,93	171,00
-22819,39	101,00
-22760,04	145,00
-22700,90	68,00
-22641,96	-18,00
-22583,22	166,00
-22524,68	150,00
-22466,33	-2,00
-22408,19	-23,00
-22350,23	73,00
-22292,48	64,00
-22234,92	120,00
-22177,55	187,00
-22120,37	61,00
-22063,38	186,00
-22006,58	145,00
-21949,98	146,00
-21893,56	21,00
-21837,33	83,00
-21781,28	90,00
-21725,42	99,00
-21669,74	64,00
-21614,25	69,00
-21558,94	63,00
-21503,81	209,00
-21448,86	60,00
-21394,10	84,00
-21339,51	156,00
-21285,10	7,00
-21230,86	-36,00
-21176,81	29,00
-21122,93	114,00
-21069,22	93,00
-21015,69	-8,00
-20962,33	100,00
-20909,14	62,00
-20856,13	122,00
-20803,28	108,00
-20750,61	113,00
-20698,10	236,00
-20645,76	89,00
-20593,59	21,00
-20541,59	75,00
-20489,75	41,00
-20438,07	82,00
-20386,56	129,00
-20335,22	131,00
-20284,03	34,00
-20233,01	52,00
-20182,15	74,00
-20131,45	154,00
-20080,91	6,00
-20030,52	143,00
-19980,30	1,00
-19930,23	137,00
-19880,32	108,00
-19830,56	67,00
-19780,96	58,00
-19731,52	-3,00
-19682,23	152,00
-19633,09	162,00
-19584,10	103,00
-19535,26	119,00
-19486,58	14,00
-19438,04	52,00
-19389,66	111,00
-19341,42	-8,00
-19293,33	7,00
-19245,39	40,00
-19197,60	-29,00
-19149,95	-57,00
-19102,45	158,00
-19055,09	80,00
-19007,87	132,00
-18960,80	81,00
-18913,87	85,00
-18867,09	35,00
-18820,44	142,00
-18773,94	17,00
-18727,57	-26,00
-18681,35	25,00
-18635,26	64,00
-18589,31	104,00
-18543,50	38,00
-18497,83	92,00
-18452,29	64,00
-18406,89	74,00
-18361,63	146,00
-18316,50	121,00
-18271,50	107,00
-18226,63	89,00
-18181,90	40,00
-18137,30	-72,00
-18092,84	190,00
-18048,50	88,00
-18004,29	10,00
-17960,22	-6,00
-17916,27	-3,00
-17872,45	41,00
-17828,76	81,00
-17785,20	33,00
-17741,77	23,00
-17698,46	-52,00
-17655,28	0,00
-17612,22	93,00
-17569,29	221,00
-17526,48	71,00
-17483,79	114,00
-17441,23	23,00
-17398,79	65,00
-17356,48	58,00
-17314,28	69,00
-17272,21	88,00
-17230,26	-74,00
-17188,42	91,00
-17146,71	56,00
-17105,12	142,00
-17063,64	90,00
-17022,28	-35,00
-16981,04	79,00
-16939,92	65,00
-16898,91	65,00
-16858,02	35,00
-16817,25	-65,00
-16776,59	79,00
-16736,04	35,00
-16695,61	48,00
-16655,29	61,00
-16615,09	41,00
-16574,99	110,00
-16535,01	195,00
-16495,15	107,00
-16455,39	107,00
-16415,74	56,00
-16376,21	-15,00
-16336,78	186,00
-16297,46	26,00
-16258,26	101,00
-16219,16	-8,00
-16180,17	-35,00
-16141,28	38,00
-16102,51	73,00
-16063,84	57,00
-16025,27	47,00
-15986,82	-50,00
-15948,46	114,00
-15910,22	16,00
-15872,07	146,00
-15834,04	140,00
-15796,10	139,00
-15758,27	66,00
-15720,54	109,00
-15682,91	21,00
-15645,39	91,00
-15607,97	110,00
-15570,64	7,00
-15533,42	66,00
-15496,30	26,00
-15459,28	124,00
-15422,36	15,00
-15385,54	45,00
-15348,82	49,00
-15312,19	84,00
-15275,66	-9,00
-15239,23	105,00
-15202,90	91,00
-15166,67	69,00
-15130,53	72,00
-15094,48	94,00
-15058,54	160,00
-15022,68	172,00
-14986,93	66,00
-14951,26	120,00
-14915,69	14,00
-14880,22	18,00
-14844,84	-4,00
-14809,55	106,00
-14774,35	93,00
-14739,25	26,00
-14704,24	121,00
-14669,32	-30,00
-14634,49	73,00
-14599,75	-12,00
-14565,10	116,00
-14530,55	33,00
-14496,08	103,00
-14461,70	81,00
-14427,41	4,00
-14393,21	136,00
-14359,10	27,00
-14325,07	5,00
-14291,14	-8,00
-14257,29	56,00
-14223,52	107,00
-14189,85	133,00
-14156,26	108,00
-14122,76	74,00
-14089,34	135,00
-14056,01	153,00
-14022,76	-49,00
-13989,60	84,00
-13956,52	61,00
-13923,53	102,00
-13890,62	25,00
-13857,79	77,00
-13825,05	163,00
-13792,39	51,00
-13759,81	114,00
-13727,31	45,00
-13694,90	147,00
-13662,57	58,00
-13630,31	78,00
-13598,14	106,00
-13566,05	84,00
-13534,05	81,00
-13502,12	53,00
-13470,27	3,00
-13438,50	-17,00
-13406,80	75,00
-13375,19	177,00
-13343,66	114,00
-13312,20	29,00
-13280,83	78,00
-13249,53	11,00
-13218,30	223,00
-13187,16	-26,00
-13156,09	112,00
-13125,10	-1,00
-13094,18	175,00
-13063,34	109,00
-13032,58	-24,00
-13001,89	18,00
-12971,28	92,00
-12940,74	10,00
-12910,27	93,00
-12879,88	114,00
-12849,57	25,00
-12819,33	-76,00
-12789,16	-48,00
-12759,06	152,00
-12729,04	108,00
-12699,09	1623,00
-12669,21	120,00
-12639,41	25,00
-12609,68	28,00
-12580,02	120,00
-12550,43	130,00
-12520,91	79,00
-12491,46	104,00
-12462,08	-47,00
-12432,77	98,00
-12403,54	186,00
-12374,37	42,00
-12345,27	88,00
-12316,24	41,00
-12287,29	0,00
-12258,40	-26,00
-12229,57	114,00
-12200,82	40,00
-12172,14	111,00
-12143,52	1,00
-12114,97	94,00
-12086,49	145,00
-12058,07	169,00
-12029,73	60,00
-12001,44	33,00
-11973,23	-5,00
-11945,08	32,00
-11917,00	85,00
-11888,98	52,00
-11861,03	59,00
-11833,15	59,00
-11805,32	-4,00
-11777,57	19,00
-11749,88	165,00
-11722,25	96,00
-11694,69	103,00
-11667,19	-12,00
-11639,75	-14,00
-11612,38	-40,00
-11585,07	104,00
-11557,83	80,00
-11530,65	-24,00
-11503,53	198,00
-11476,47	83,00
-11449,48	180,00
-11422,54	53,00
-11395,67	177,00
-11368,86	146,00
-11342,11	-11,00
-11315,43	71,00
-11288,80	10,00
-11262,23	24,00
-11235,73	100,00
-11209,28	168,00
-11182,90	58,00
-11156,57	55,00
-11130,31	63,00
-11104,10	84,00
-11077,96	46,00
-11051,87	34,00
-11025,84	125,00
-10999,87	87,00
-10973,96	31,00
-10948,11	115,00
-10922,31	195,00
-10896,58	120,00
-10870,90	194,00
-10845,28	27,00
-10819,71	93,00
-10794,20	169,00
-10768,75	275,00
-10743,36	32,00
-10718,02	3,00
-10692,74	159,00
-10667,52	-9,00
-10642,35	134,00
-10617,24	156,00
-10592,18	49,00
-10567,18	64,00
-10542,23	142,00
-10517,34	133,00
-10492,51	130,00
-10467,72	113,00
-10443,00	62,00
-10418,32	108,00
-10393,70	139,00
-10369,14	70,00
-10344,63	146,00
-10320,17	111,00
-10295,77	72,00
-10271,42	23,00
-10247,12	213,00
-10222,88	161,00
-10198,68	282,00
-10174,54	106,00
-10150,46	274,00
-10126,42	92,00
-10102,44	246,00
-10078,51	173,00
-10054,63	283,00
-10030,80	261,00
-10007,03	105,00
-9983,30	-13,00
-9959,63	269,00
-9936,01	255,00
-9912,44	247,00
-9888,92	305,00
-9865,44	267,00
-9842,02	328,00
-9818,65	398,00
-9795,33	262,00
-9772,06	283,00
-9748,84	330,00
-9725,67	368,00
-9702,55	363,00
-9679,47	393,00
-9656,45	538,00
-9633,47	595,00
-9610,55	539,00
-9587,67	568,00
-9564,84	599,00
-9542,06	772,00
-9519,32	634,00
-9496,64	866,00
-9474,00	915,00
-9451,41	962,00
-9428,87	982,00
-9406,37	890,00
-9383,92	892,00
-9361,52	1029,00
-9339,17	985,00
-9316,86	1019,00
-9294,60	1329,00
-9272,38	1278,00
-9250,21	1501,00
-9228,09	1476,00
-9206,01	1512,00
-9183,98	1284,00
-9162,00	1148,00
-9140,06	1176,00
-9118,16	1277,00
-9096,31	1386,00
-9074,51	1469,00
-9052,75	1277,00
-9031,04	1323,00
-9009,37	1190,00
-8987,74	1083,00
-8966,16	1023,00
-8944,63	844,00
-8923,14	943,00
-8901,69	965,00
-8880,29	948,00
-8858,93	965,00
-8837,61	1078,00
-8816,34	1321,00
-8795,11	1117,00
-8773,92	1069,00
-8752,78	954,00
-8731,68	928,00
-8710,62	990,00
-8689,61	956,00
-8668,63	1063,00
-8647,70	1206,00
-8626,82	1202,00
-8605,97	1094,00
-8585,17	1035,00
-8564,41	866,00
-8543,69	942,00
-8523,01	674,00
-8502,37	951,00
-8481,78	953,00
-8461,23	1016,00
-8440,71	1123,00
-8420,24	1074,00
-8399,81	1112,00
-8379,42	1145,00
-8359,08	1115,00
-8338,77	917,00
-8318,50	921,00
-8298,27	873,00
-8278,09	890,00
-8257,94	1021,00
-8237,83	1066,00
-8217,76	1080,00
-8197,74	1072,00
-8177,75	1023,00
-8157,80	910,00
-8137,89	981,00
-8118,02	791,00
-8098,19	816,00
-8078,40	824,00
-8058,65	824,00
-8038,93	842,00
-8019,26	989,00
-7999,62	878,00
-7980,02	808,00
-7960,46	775,00
-7940,94	795,00
-7921,46	577,00
-7902,01	656,00
-7882,60	785,00
-7863,23	646,00
-7843,90	668,00
-7824,61	841,00
-7805,35	754,00
-7786,13	990,00
-7766,95	891,00
-7747,80	848,00
-7728,69	753,00
-7709,62	826,00
-7690,59	725,00
-7671,59	876,00
-7652,63	857,00
-7633,70	807,00
-7614,81	854,00
-7595,96	795,00
-7577,15	692,00
-7558,37	687,00
-7539,62	756,00
-7520,91	828,00
-7502,24	740,00
-7483,60	783,00
-7465,00	708,00
-7446,44	723,00
-7427,91	601,00
-7409,41	617,00
-7390,95	517,00
-7372,53	505,00
-7354,14	535,00
-7335,78	526,00
-7317,46	542,00
-7299,18	622,00
-7280,92	653,00
-7262,71	723,00
-7244,52	927,00
-7226,38	755,00
-7208,26	835,00
-7190,18	749,00
-7172,14	682,00
-7154,12	778,00
-7136,15	792,00
-7118,20	836,00
-7100,29	775,00
-7082,41	872,00
-7064,57	692,00
-7046,76	737,00
-7028,98	665,00
-7011,24	708,00
-6993,53	516,00
-6975,85	508,00
-6958,20	383,00
-6940,59	416,00
-6923,01	534,00
-6905,46	595,00
-6887,94	483,00
-6870,46	3376,00
-6853,01	658,00
-6835,59	882,00
-6818,21	543,00
-6800,85	581,00
-6783,53	512,00
-6766,24	332,00
-6748,98	396,00
-6731,76	345,00
-6714,56	290,00
-6697,40	322,00
-6680,26	291,00
-6663,16	500,00
-6646,09	421,00
-6629,05	558,00
-6612,05	525,00
-6595,07	653,00
-6578,13	567,00
-6561,21	420,00
-6544,33	361,00
-6527,47	214,00
-6510,65	356,00
-6493,86	355,00
-6477,10	190,00
-6460,36	301,00
-6443,66	274,00
-6426,99	317,00
-6410,35	451,00
-6393,74	306,00
-6377,16	273,00
-6360,61	432,00
-6344,09	454,00
-6327,59	439,00
-6311,13	446,00
-6294,70	535,00
-6278,29	529,00
-6261,92	469,00
-6245,58	528,00
-6229,26	561,00
-6212,97	550,00
-6196,72	331,00
-6180,49	385,00
-6164,29	389,00
-6148,12	226,00
-6131,98	169,00
-6115,86	257,00
-6099,78	276,00
-6083,72	272,00
-6067,69	91,00
-6051,69	214,00
-6035,72	307,00
-6019,78	294,00
-6003,87	434,00
-5987,98	326,00
-5972,12	479,00
-5956,29	426,00
-5940,49	366,00
-5924,71	374,00
-5908,96	308,00
-5893,24	201,00
-5877,55	189,00
-5861,89	239,00
-5846,25	275,00
-5830,64	380,00
-5815,05	227,00
-5799,50	201,00
-5783,97	213,00
-5768,47	427,00
-5752,99	289,00
-5737,55	336,00
-5722,12	546,00
-5706,73	336,00
-5691,36	404,00
-5676,02	257,00
-5660,71	316,00
-5645,42	170,00
-5630,16	353,00
-5614,92	286,00
-5599,71	304,00
-5584,53	396,00
-5569,37	479,00
-5554,24	-494,00
-5539,14	381,00
-5524,06	262,00
-5509,01	255,00
-5493,98	332,00
-5478,98	274,00
-5464,00	348,00
-5449,05	245,00
-5434,13	245,00
-5419,23	231,00
-5404,36	186,00
-5389,51	366,00
-5374,69	275,00
-5359,89	585,00
-5345,12	461,00
-5330,37	438,00
-5315,65	406,00
-5300,95	308,00
-5286,28	326,00
-5271,63	387,00
-5257,01	342,00
-5242,41	415,00
-5227,84	157,00
-5213,29	292,00
-5198,76	148,00
-5184,26	288,00
-5169,79	103,00
-5155,33	164,00
-5140,91	366,00
-5126,51	445,00
-5112,13	328,00
-5097,77	416,00
-5083,44	317,00
-5069,13	134,00
-5054,85	142,00
-5040,59	268,00
-5026,36	516,00
-5012,15	231,00
-4997,96	341,00
-4983,80	137,00
-4969,66	225,00
-4955,54	151,00
-4941,44	277,00
-4927,37	347,00
-4913,33	445,00
-4899,30	505,00
-4885,30	475,00
-4871,33	355,00
-4857,37	290,00
-4843,44	300,00
-4829,53	254,00
-4815,65	282,00
-4801,79	141,00
-4787,95	149,00
-4774,13	243,00
-4760,34	117,00
-4746,56	45,00
-4732,82	166,00
-4719,09	245,00
-4705,38	347,00
-4691,70	357,00
-4678,04	370,00
-4664,41	280,00
-4650,79	185,00
-4637,20	167,00
-4623,63	49,00
-4610,08	259,00
-4596,56	276,00
-4583,05	242,00
-4569,57	269,00
-4556,11	136,00
-4542,67	93,00
-4529,25	128,00
-4515,86	327,00
-4502,49	335,00
-4489,13	398,00
-4475,80	324,00
-4462,49	252,00
-4449,21	153,00
-4435,94	205,00
-4422,70	228,00
-4409,47	298,00
-4396,27	273,00
-4383,09	236,00
-4369,93	237,00
-4356,79	53,00
-4343,67	102,00
-4330,58	186,00
-4317,50	203,00
-4304,45	240,00
-4291,41	72,00
-4278,40	123,00
-4265,41	46,00
-4252,44	232,00
-4239,49	236,00
-4226,55	107,00
-4213,65	203,00
-4200,76	241,00
-4187,89	101,00
-4175,04	208,00
-4162,21	-24,00
-4149,40	136,00
-4136,61	128,00
-4123,85	-63,00
-4111,10	59,00
-4098,37	67,00
-4085,66	83,00
-4072,98	169,00
-4060,31	54,00
-4047,66	38,00
-4035,04	-43,00
-4022,43	240,00
-4009,84	53,00
-3997,27	-31,00
-3984,72	93,00
-3972,19	120,00
-3959,69	74,00
-3947,20	126,00
-3934,73	10,00
-3922,27	-76,00
-3909,84	-25,00
-3897,43	120,00
-3885,04	102,00
-3872,67	123,00
-3860,31	12,00
-3847,98	-3,00
-3835,66	7,00
-3823,36	74,00
-3811,09	153,00
-3798,83	-1,00
-3786,59	14,00
-3774,37	107,00
-3762,17	29,00
-3749,98	138,00
-3737,82	80,00
-3725,67	79,00
-3713,55	100,00
-3701,44	77,00
-3689,35	136,00
-3677,28	219,00
-3665,22	162,00
-3653,19	59,00
-3641,17	14,00
-3629,18	66,00
-3617,20	23,00
-3605,24	176,00
-3593,30	110,00
-3581,37	179,00
-3569,47	21,00
-3557,58	32,00
-3545,71	77,00
-3533,86	3,00
-3522,02	24,00
-3510,21	105,00
-3498,41	82,00
-3486,63	65,00
-3474,87	104,00
-3463,12	7,00
-3451,40	145,00
-3439,69	143,00
-3428,00	77,00
-3416,33	57,00
-3404,67	59,00
-3393,03	85,00
-3381,41	105,00
-3369,81	112,00
-3358,22	79,00
-3346,66	162,00
-3335,10	50,00
-3323,57	103,00
-3312,06	44,00
-3300,56	37,00
-3289,08	18,00
-3277,61	-1,00
-3266,16	70,00
-3254,73	42,00
-3243,32	120,00
-3231,92	71,00
-3220,55	101,00
-3209,18	78,00
-3197,84	45,00
-3186,51	-39,00
-3175,20	152,00
-3163,90	17,00
-3152,63	65,00
-3141,36	118,00
-3130,12	178,00
-3118,89	18,00
-3107,68	-66,00
-3096,49	24,00
-3085,31	177,00
-3074,15	57,00
-3063,00	35,00
-3051,87	77,00
-3040,76	130,00
-3029,67	14,00
-3018,59	68,00
-3007,52	90,00
-2996,48	34,00
-2985,44	214,00
-2974,43	-31,00
-2963,43	61,00
-2952,45	60,00
-2941,48	27,00
-2930,53	21,00
-2919,60	68,00
-2908,68	-59,00
-2897,78	-12,00
-2886,89	-23,00
-2876,02	-35,00
-2865,17	66,00
-2854,33	84,00
-2843,50	-74,00
-2832,70	-27,00
-2821,90	11,00
-2811,13	106,00
-2800,37	66,00
-2789,62	47,00
-2778,89	127,00
-2768,18	85,00
-2757,48	91,00
-2746,80	35,00
-2736,13	70,00
-2725,48	-94,00
-2714,84	50,00
-2704,22	126,00
-2693,61	120,00
-2683,02	220,00
-2672,45	145,00
-2661,89	56,00
-2651,34	108,00
-2640,81	142,00
-2630,30	40,00
-2619,80	75,00
-2609,31	116,00
-2598,84	85,00
-2588,39	0,00
-2577,95	102,00
-2567,52	73,00
-2557,11	49,00
-2546,71	87,00
-2536,33	142,00
-2525,97	-13,00
-2515,62	21,00
-2505,28	34,00
-2494,96	111,00
-2484,65	63,00
-2474,36	16,00
-2464,08	6,00
-2453,82	148,00
-2443,57	68,00
-2433,33	36,00
-2423,11	150,00
-2412,91	67,00
-2402,72	99,00
-2392,54	31,00
-2382,38	37,00
-2372,23	103,00
-2362,09	-7,00
-2351,97	-55,00
-2341,87	135,00
-2331,78	81,00
-2321,70	38,00
-2311,64	37,00
-2301,59	76,00
-2291,55	96,00
-2281,53	32,00
-2271,53	30,00
-2261,53	71,00
-2251,55	144,00
-2241,59	79,00
-2231,64	-39,00
-2221,70	33,00
-2211,78	91,00
-2201,87	76,00
-2191,97	86,00
-2182,09	175,00
-2172,22	61,00
-2162,37	-1,00
-2152,53	93,00
-2142,70	15,00
-2132,89	123,00
-2123,09	170,00
-2113,30	104,00
-2103,53	-26,00
-2093,77	-6,00
-2084,02	18,00
-2074,29	18,00
-2064,57	60,00
-2054,86	-109,00
-2045,17	28,00
-2035,49	40,00
-2025,82	11,00
-2016,17	26,00
-2006,53	125,00
-1996,91	-18,00
-1987,29	38,00
-1977,69	113,00
-1968,11	-24,00
-1958,53	106,00
-1948,97	67,00
-1939,42	37,00
-1929,89	124,00
-1920,37	12,00
-1910,86	52,00
-1901,36	-36,00
-1891,88	95,00
-1882,41	76,00
-1872,95	48,00
-1863,51	140,00
-1854,08	48,00
-1844,66	57,00
-1835,26	55,00
-1825,86	129,00
-1816,48	247,00
-1807,11	57,00
-1797,76	323,00
-1788,42	22,00
-1779,09	17,00
-1769,77	111,00
-1760,47	172,00
-1751,17	108,00
-1741,89	-28,00
-1732,63	181,00
-1723,37	190,00
-1714,13	38,00
-1704,90	101,00
-1695,68	16,00
-1686,48	38,00
-1677,29	21,00
-1668,11	119,00
-1658,94	-14,00
-1649,78	112,00
-1640,64	127,00
-1631,51	22,00
-1622,39	18,00
-1613,28	32,00
-1604,19	90,00
-1595,10	19,00
-1586,03	166,00
-1576,97	-62,00
-1567,93	85,00
-1558,89	31,00
-1549,87	80,00
-1540,86	100,00
-1531,86	120,00
-1522,87	-22,00
-1513,90	106,00
-1504,93	210,00
-1495,98	162,00
-1487,04	44,00
-1478,12	9,00
-1469,20	111,00
-1460,30	43,00
-1451,40	133,00
-1442,52	76,00
-1433,65	60,00
-1424,80	72,00
-1415,95	171,00
-1407,12	118,00
-1398,30	48,00
-1389,48	7,00
-1380,69	142,00
-1371,90	110,00
-1363,12	45,00
-1354,36	175,00
-1345,60	-32,00
-1336,86	-45,00
-1328,13	98,00
-1319,41	40,00
-1310,70	-6,00
-1302,01	86,00
-1293,32	91,00
-1284,65	82,00
-1275,99	34,00
-1267,33	79,00
-1258,69	45,00
-1250,06	63,00
-1241,45	-3,00
-1232,84	62,00
-1224,25	67,00
-1215,66	70,00
-1207,09	100,00
-1198,53	-24,00
-1189,97	85,00
-1181,43	-4,00
-1172,91	84,00
-1164,39	21,00
-1155,88	29,00
-1147,38	137,00
-1138,90	82,00
-1130,43	47,00
-1121,96	36,00
-1113,51	89,00
-1105,07	13,00
-1096,64	60,00
-1088,22	199,00
-1079,81	1,00
-1071,41	51,00
-1063,02	79,00
-1054,65	-21,00
-1046,28	85,00
-1037,92	94,00
-1029,58	78,00
-1021,24	124,00
-1012,92	68,00
-1004,61	89,00
-996,30	149,00
-988,01	137,00
-979,73	44,00
-971,46	95,00
-963,20	6,00
-954,95	-24,00
-946,71	61,00
-938,48	62,00
-930,26	103,00
-922,06	-2,00
-913,86	63,00
-905,67	75,00
-897,49	138,00
-889,33	-42,00
-881,17	10,00
-873,02	-15,00
-864,89	-12,00
-856,76	-7,00
-848,65	60,00
-840,54	125,00
-832,45	163,00
-824,36	58,00
-816,29	96,00
-808,22	111,00
-800,17	16,00
-792,12	97,00
-784,09	92,00
-776,06	-60,00
-768,05	125,00
-760,04	157,00
-752,05	52,00
-744,07	67,00
-736,09	131,00
-728,13	30,00
-720,17	-17,00
-712,23	64,00
-704,29	49,00
-696,37	65,00
-688,45	17,00
-680,55	-24,00
-672,65	-25,00
-664,77	-36,00
-656,89	66,00
-649,03	165,00
-641,17	132,00
-633,32	38,00
-625,49	57,00
-617,66	111,00
-609,84	-37,00
-602,03	96,00
-594,23	4,00
-586,45	20,00
-578,67	13,00
-570,90	57,00
-563,14	57,00
-555,39	134,00
-547,65	199,00
-539,91	24,00
-532,19	105,00
-524,48	-28,00
-516,78	104,00
-509,08	-126,00
-501,40	104,00
-493,72	123,00
-486,06	127,00
-478,40	98,00
-470,76	185,00
-463,12	-2,00
-455,49	56,00
-447,87	135,00
-440,26	-57,00
-432,66	5,00
-425,07	96,00
-417,49	138,00
-409,92	10,00
-402,35	60,00
-394,80	211,00
-387,25	62,00
-379,72	112,00
-372,19	168,00
-364,67	150,00
-357,17	84,00
-349,67	23,00
-342,18	114,00
-334,69	259,00
-327,22	104,00
-319,76	163,00
-312,30	55,00
-304,86	61,00
-297,42	51,00
-290,00	85,00
-282,58	-58,00
-275,17	18,00
-267,77	92,00
-260,37	84,00
-252,99	176,00
-245,62	125,00
-238,25	70,00
-230,90	20,00
-223,55	170,00
-216,21	63,00
-208,88	159,00
-201,56	124,00
-194,25	110,00
-186,94	211,00
-179,65	218,00
-172,36	168,00
-165,08	77,00
-157,81	193,00
-150,55	272,00
-143,30	374,00
-136,06	279,00
-128,82	282,00
-121,60	399,00
-114,38	247,00
-107,17	522,00
-99,97	445,00
-92,78	459,00
-85,60	583,00
-78,42	637,00
-71,25	663,00
-64,10	926,00
-56,95	848,00
-49,81	1223,00
-42,67	1362,00
-35,55	1754,00
-28,43	2258,00
-21,33	3827,00
-14,23	13005,00
-7,14	55238,00
-0,05	54948,00
7,02	54664,00
14,09	41062,00
21,14	10575,00
28,19	4356,00
35,23	2914,00
42,27	2196,00
49,29	1864,00
56,31	1647,00
63,32	1284,00
70,32	1020,00
77,31	854,00
84,29	812,00
91,27	750,00
98,23	661,00
105,19	607,00
112,14	608,00
119,09	1088,00
126,02	1679,00
132,95	1861,00
139,87	2054,00
146,78	1961,00
153,68	1949,00
160,58	1854,00
167,46	1842,00
174,34	2085,00
181,21	1916,00
188,08	1997,00
194,93	1769,00
201,78	1834,00
208,62	1706,00
215,45	1890,00
222,27	1876,00
229,09	1774,00
235,90	1871,00
242,70	1868,00
249,49	1731,00
256,27	1845,00
263,05	1717,00
269,82	1734,00
276,58	1761,00
283,33	1701,00
290,08	1734,00
296,82	1689,00
303,55	1636,00
310,27	1605,00
316,98	1632,00
323,69	1631,00
330,39	1678,00
337,08	1469,00
343,76	1623,00
350,44	1451,00
357,11	1535,00
363,77	1524,00
370,42	1339,00
377,07	1550,00
383,71	1517,00
390,34	1533,00
396,96	1547,00
403,58	1582,00
410,19	1407,00
416,79	1510,00
423,38	1483,00
429,97	1361,00
436,55	1371,00
443,12	1449,00
449,68	1374,00
456,24	1580,00
462,79	1390,00
469,33	1331,00
475,86	1465,00
482,39	1412,00
488,91	1214,00
495,42	1245,00
501,93	1313,00
508,42	1315,00
514,91	1283,00
521,40	1355,00
527,87	1328,00
534,34	1250,00
540,80	1279,00
547,25	1306,00
553,70	1298,00
560,14	1228,00
566,57	1186,00
573,00	1291,00
579,41	1271,00
585,83	1147,00
592,23	1318,00
598,62	1118,00
605,01	1149,00
611,40	1166,00
617,77	1193,00
624,14	1258,00
630,50	1152,00
636,85	1187,00
643,20	1081,00
649,54	1169,00
655,87	1089,00
662,20	1018,00
668,52	1060,00
674,83	1022,00
681,13	1112,00
687,43	1008,00
693,72	1047,00
700,00	1087,00
706,28	1004,00
712,55	1017,00
718,81	1122,00
725,07	956,00
731,32	1041,00
737,56	1044,00
743,79	1069,00
750,02	1022,00
756,24	1002,00
762,46	1019,00
768,67	1014,00
774,87	1072,00
781,06	1079,00
787,25	1132,00
793,43	1056,00
799,60	964,00
805,77	934,00
811,93	1059,00
818,08	919,00
824,23	1099,00
830,37	926,00
836,50	1042,00
842,63	1006,00
848,75	1031,00
854,87	1013,00
860,97	1025,00
867,07	1024,00
873,17	1100,00
879,25	1126,00
885,33	940,00
891,41	956,00
897,47	945,00
903,53	883,00
909,59	896,00
915,63	1105,00
921,67	996,00
927,71	805,00
933,74	986,00
939,76	871,00
945,77	904,00
951,78	1025,00
957,78	926,00
963,78	954,00
969,77	885,00
975,75	1010,00
981,72	844,00
987,69	1102,00
993,66	979,00
999,61	965,00
1005,56	842,00
1011,51	921,00
1017,44	879,00
1023,37	957,00
1029,30	985,00
1035,22	965,00
1041,13	1037,00
1047,03	1005,00
1052,93	1000,00
1058,83	1269,00
1064,71	1250,00
1070,59	1019,00
1076,47	1073,00
1082,33	1053,00
1088,20	926,00
1094,05	865,00
1099,90	864,00
1105,74	788,00
1111,58	867,00
1117,41	968,00
1123,23	1143,00
1129,05	1172,00
1134,86	1062,00
1140,67	1091,00
1146,47	1021,00
1152,26	969,00
1158,05	864,00
1163,83	897,00
1169,60	922,00
1175,37	853,00
1181,13	876,00
1186,89	884,00
1192,64	856,00
1198,38	921,00
1204,12	828,00
1209,85	809,00
1215,58	810,00
1221,30	689,00
1227,02	838,00
1232,72	814,00
1238,43	787,00
1244,12	811,00
1249,81	844,00
1255,50	762,00
1261,17	868,00
1266,85	826,00
1272,51	903,00
1278,17	882,00
1283,83	990,00
1289,47	1124,00
1295,12	1394,00
1300,75	1281,00
1306,38	1215,00
1312,01	956,00
1317,63	1035,00
1323,24	997,00
1328,85	843,00
1334,45	815,00
1340,04	964,00
1345,63	913,00
1351,22	871,00
1356,80	818,00
1362,37	942,00
1367,93	889,00
1373,49	925,00
1379,05	845,00
1384,60	900,00
1390,14	933,00
1395,68	982,00
1401,21	897,00
1406,74	914,00
1412,26	901,00
1417,77	1035,00
1423,28	986,00
1428,78	1090,00
1434,28	1416,00
1439,77	1353,00
1445,26	1361,00
1450,74	1453,00
1456,22	1304,00
1461,68	1199,00
1467,15	1253,00
1472,61	1067,00
1478,06	1055,00
1483,51	857,00
1488,95	842,00
1494,38	895,00
1499,81	746,00
1505,24	889,00
1510,65	752,00
1516,07	841,00
1521,48	830,00
1526,88	745,00
1532,27	870,00
1537,67	862,00
1543,05	729,00
1548,43	772,00
1553,81	791,00
1559,18	691,00
1564,54	778,00
1569,90	832,00
1575,25	728,00
1580,60	808,00
1585,94	737,00
1591,28	803,00
1596,61	789,00
1601,93	682,00
1607,25	788,00
1612,57	679,00
1617,88	784,00
1623,18	686,00
1628,48	578,00
1633,77	614,00
1639,06	773,00
1644,34	683,00
1649,62	795,00
1654,89	700,00
1660,16	695,00
1665,42	613,00
1670,67	662,00
1675,92	739,00
1681,17	867,00
1686,41	602,00
1691,64	631,00
1696,87	515,00
1702,10	517,00
1707,32	665,00
1712,53	547,00
1717,74	494,00
1722,94	447,00
1728,14	650,00
1733,33	641,00
1738,52	627,00
1743,70	630,00
1748,88	583,00
1754,05	571,00
1759,22	528,00
1764,38	638,00
1769,53	498,00
1774,69	415,00
1779,83	419,00
1784,97	522,00
1790,11	520,00
1795,24	564,00
1800,36	468,00
1805,48	487,00
1810,60	530,00
1815,71	456,00
1820,82	396,00
1825,92	501,00
1831,01	412,00
1836,10	556,00
1841,19	477,00
1846,26	364,00
1851,34	472,00
1856,41	490,00
1861,47	495,00
1866,53	629,00
1871,59	545,00
1876,64	435,00
1881,68	448,00
1886,72	308,00
1891,76	516,00
1896,79	373,00
1901,81	499,00
1906,83	629,00
1911,85	502,00
1916,86	513,00
1921,86	406,00
1926,86	453,00
1931,86	465,00
1936,85	412,00
1941,83	503,00
1946,81	427,00
1951,79	445,00
1956,76	492,00
1961,72	443,00
1966,68	436,00
1971,64	451,00
1976,59	448,00
1981,54	473,00
1986,48	406,00
1991,42	382,00
1996,35	402,00
2001,27	361,00
2006,20	468,00
2011,11	445,00
2016,03	360,00
2020,93	312,00
2025,84	344,00
2030,73	328,00
2035,63	334,00
2040,52	331,00
2045,40	303,00
2050,28	276,00
2055,15	438,00
2060,02	289,00
2064,89	418,00
2069,75	287,00
2074,60	401,00
2079,46	254,00
2084,30	342,00
2089,14	255,00
2093,98	326,00
2098,81	437,00
2103,64	362,00
2108,46	363,00
2113,28	369,00
2118,09	371,00
2122,90	336,00
2127,70	288,00
2132,50	387,00
2137,30	372,00
2142,09	360,00
2146,87	400,00
2151,66	318,00
2156,43	236,00
2161,20	383,00
2165,97	248,00
2170,73	224,00
2175,49	478,00
2180,24	379,00
2184,99	337,00
2189,74	303,00
2194,48	212,00
2199,21	392,00
2203,94	336,00
2208,67	234,00
2213,39	353,00
2218,11	275,00
2222,82	234,00
2227,53	258,00
2232,23	270,00
2236,93	318,00
2241,63	252,00
2246,32	311,00
2251,00	321,00
2255,68	257,00
2260,36	274,00
2265,03	379,00
2269,70	258,00
2274,36	275,00
2279,02	217,00
2283,68	264,00
2288,33	247,00
2292,97	389,00
2297,61	368,00
2302,25	319,00
2306,88	376,00
2311,51	271,00
2316,14	431,00
2320,75	46,00
2325,37	214,00
2329,98	176,00
2334,59	274,00
2339,19	183,00
2343,79	220,00
2348,38	224,00
2352,97	206,00
2357,55	231,00
2362,13	225,00
2366,71	276,00
2371,28	189,00
2375,85	282,00
2380,41	362,00
2384,97	239,00
2389,52	177,00
2394,07	201,00
2398,62	148,00
2403,16	183,00
2407,70	165,00
2412,23	295,00
2416,76	358,00
2421,29	288,00
2425,81	235,00
2430,32	315,00
2434,84	230,00
2439,34	163,00
2443,85	233,00
2448,35	188,00
2452,84	196,00
2457,33	303,00
2461,82	243,00
2466,30	230,00
2470,78	208,00
2475,25	176,00
2479,72	181,00
2484,19	96,00
2488,65	197,00
2493,11	260,00
2497,56	208,00
2502,01	213,00
2506,46	140,00
2510,90	181,00
2515,34	158,00
2519,77	196,00
2524,20	174,00
2528,62	192,00
2533,04	187,00
2537,46	179,00
2541,87	156,00
2546,28	209,00
2550,68	215,00
2555,08	209,00
2559,48	202,00
2563,87	125,00
2568,26	232,00
2572,64	210,00
2577,02	167,00
2581,40	176,00
2585,77	245,00
2590,14	150,00
2594,50	189,00
2598,86	277,00
2603,22	239,00
2607,57	244,00
2611,92	207,00
2616,26	319,00
2620,60	145,00
2624,94	144,00
2629,27	269,00
2633,60	191,00
2637,92	271,00
2642,24	238,00
2646,56	221,00
2650,87	277,00
2655,18	166,00
2659,48	206,00
2663,78	295,00
2668,08	249,00
2672,37	305,00
2676,66	122,00
2680,95	219,00
2685,23	272,00
2689,50	133,00
2693,78	265,00
2698,05	186,00
2702,31	202,00
2706,57	228,00
2710,83	265,00
2715,08	268,00
2719,33	233,00
2723,58	199,00
2727,82	318,00
2732,06	269,00
2736,29	271,00
2740,53	271,00
2744,75	168,00
2748,97	298,00
2753,19	116,00
2757,41	348,00
2761,62	228,00
2765,83	171,00
2770,03	192,00
2774,23	167,00
2778,43	218,00
2782,62	242,00
2786,81	273,00
2791,00	175,00
2795,18	244,00
2799,35	324,00
2803,53	282,00
2807,70	223,00
2811,86	309,00
2816,03	297,00
2820,19	444,00
2824,34	296,00
2828,49	490,00
2832,64	383,00
2836,78	501,00
2840,92	577,00
2845,06	662,00
2849,19	863,00
2853,32	882,00
2857,45	1016,00
2861,57	907,00
2865,69	931,00
2869,80	884,00
2873,91	866,00
2878,02	950,00
2882,12	1007,00
2886,22	945,00
2890,32	908,00
2894,41	931,00
2898,50	849,00
2902,58	768,00
2906,67	756,00
2910,74	645,00
2914,82	618,00
2918,89	703,00
2922,96	589,00
2927,02	489,00
2931,08	524,00
2935,13	469,00
2939,19	570,00
2943,24	429,00
2947,28	245,00
2951,32	375,00
2955,36	460,00
2959,40	89,00
2963,43	443,00
2967,46	243,00
2971,48	365,00
2975,50	301,00
2979,52	323,00
2983,53	206,00
2987,54	122,00
2991,55	146,00
2995,55	80,00
2999,55	135,00
3003,54	156,00
3007,54	220,00
3011,53	159,00
3015,51	162,00
3019,49	225,00
3023,47	205,00
3027,45	96,00
3031,42	212,00
3035,39	162,00
3039,35	216,00
3043,31	-41,00
3047,27	93,00
3051,22	70,00
3055,17	204,00
3059,12	66,00
3063,06	140,00
3067,00	134,00
3070,94	149,00
3074,87	126,00
3078,80	85,00
3082,73	63,00
3086,65	44,00
3090,57	175,00
3094,49	188,00
3098,40	97,00
3102,31	154,00
3106,22	151,00
3110,12	21,00
3114,02	113,00
3117,92	97,00
3121,81	105,00
3125,70	-2,00
3129,58	57,00
3133,47	179,00
3137,34	175,00
3141,22	114,00
3145,09	138,00
3148,96	267,00
3152,83	165,00
3156,69	196,00
3160,55	169,00
3164,40	98,00
3168,26	184,00
3172,10	68,00
3175,95	74,00
3179,79	67,00
3183,63	104,00
3187,47	127,00
3191,30	68,00
3195,13	172,00
3198,95	162,00
3202,78	123,00
3206,60	28,00
3210,41	15,00
3214,23	67,00
3218,03	88,00
3221,84	194,00
3225,64	157,00
3229,44	179,00
3233,24	156,00
3237,03	207,00
3240,82	-39,00
3244,61	123,00
3248,39	148,00
3252,17	51,00
3255,95	127,00
3259,72	189,00
3263,49	65,00
3267,26	94,00
3271,03	150,00
3274,79	193,00
3278,54	82,00
3282,30	213,00
3286,05	43,00
3289,80	128,00
3293,54	45,00
3297,29	8,00
3301,02	69,00
3304,76	17,00
3308,49	123,00
3312,22	210,00
3315,95	130,00
3319,67	63,00
3323,39	98,00
3327,10	145,00
3330,82	124,00
3334,53	78,00
3338,24	90,00
3341,94	-9,00
3345,64	139,00
3349,34	191,00
3353,03	87,00
3356,72	102,00
3360,41	212,00
3364,10	307,00
3367,78	81,00
3371,46	137,00
3375,13	134,00
3378,81	148,00
3382,48	87,00
3386,14	105,00
3389,81	76,00
3393,47	-44,00
3397,12	112,00
3400,78	0,00
3404,43	101,00
3408,08	186,00
3411,72	68,00
3415,36	9,00
3419,00	54,00
3422,64	83,00
3426,27	92,00
3429,90	168,00
3433,53	139,00
3437,15	86,00
3440,77	63,00
3444,39	-109,00
3448,00	162,00
3451,62	193,00
3455,22	62,00
3458,83	-14,00
3462,43	128,00
3466,03	20,00
3469,63	92,00
3473,22	145,00
3476,81	152,00
3480,40	108,00
3483,99	128,00
3487,57	154,00
3491,15	50,00
3494,72	108,00
3498,29	36,00
3501,86	22,00
3505,43	146,00
3508,99	150,00
3512,56	99,00
3516,11	39,00
3519,67	81,00
3523,22	60,00
3526,77	126,00
3530,32	116,00
3533,86	75,00
3537,40	101,00
3540,94	69,00
3544,47	35,00
3548,00	91,00
3551,53	85,00
3555,06	91,00
3558,58	160,00
3562,10	118,00
3565,62	-3,00
3569,13	152,00
3572,64	-49,00
3576,15	52,00
3579,66	13,00
3583,16	82,00
3586,66	189,00
3590,16	117,00
3593,65	68,00
3597,14	97,00
3600,63	112,00
3604,11	127,00
3607,60	43,00
3611,08	-25,00
3614,55	110,00
3618,03	87,00
3621,50	-25,00
3624,97	102,00
3628,43	69,00
3631,90	38,00
3635,36	201,00
3638,81	-44,00
3642,27	95,00
3645,72	36,00
3649,17	151,00
3652,61	80,00
3656,06	192,00
3659,50	113,00
3662,93	16,00
3666,37	72,00
3669,80	21,00
3673,23	-5,00
3676,65	3,00
3680,08	47,00
3683,50	85,00
3686,92	212,00
3690,33	104,00
3693,74	16,00
3697,15	47,00
3700,56	3,00
3703,96	9,00
3707,36	92,00
3710,76	108,00
3714,16	-5,00
3717,55	3,00
3720,94	71,00
3724,33	71,00
3727,71	-55,00
3731,10	142,00
3734,48	66,00
3737,85	72,00
3741,23	185,00
3744,60	3,00
3747,97	13,00
3751,33	38,00
3754,69	-50,00
3758,05	56,00
3761,41	-29,00
3764,77	61,00
3768,12	69,00
3771,47	22,00
3774,82	-33,00
3778,16	5,00
3781,50	-1,00
3784,84	-4,00
3788,18	-2,00
>>>>>End Processed Spectral Data<<<<<
