SpectraSuite Data File
++++++++++++++++++++++++++++++++++++
Date: Mon Mar 09 16:09:36 ICT 2026
User: Administrator
Dark Spectrum Present: Yes
Reference Spectrum Present: No
Number of Sampled Component Spectra: 1
Spectrometers: MAYP113682
Integration Time (usec): 3000000 (MAYP113682)
Spectra Averaged: 1 (MAYP113682)
Boxcar Smoothing: 0 (MAYP113682)
Correct for Electrical Dark: No (MAYP113682)
Strobe/Lamp Enabled: No (MAYP113682)
Correct for Detector Non-linearity: No (MAYP113682)
Correct for Stray Light: No (MAYP113682)
Number of Pixels in Processed Spectrum: 2068
>>>>>Begin Processed Spectral Data<<<<<
-37534,58	-3,00
-37414,56	0,00
-37295,11	6,00
-37176,24	-2,00
-37057,95	48,00
-36940,22	96,00
-36823,05	84,00
-36706,45	211,00
-36590,40	170,00
-36474,90	19,00
-36359,95	112,00
-36245,55	76,00
-36131,68	2,00
-36018,35	136,00
-35905,55	117,00
-35793,29	137,00
-35681,54	124,00
-35570,32	179,00
-35459,62	103,00
-35349,43	136,00
-35239,75	143,00
-35130,58	128,00
-35021,91	147,00
-34913,74	26,00
-34806,07	139,00
-34698,89	126,00
-34592,20	194,00
-34486,00	227,00
-34380,28	124,00
-34275,04	-53,00
-34170,27	112,00
-34065,98	144,00
-33962,16	172,00
-33858,81	189,00
-33755,92	173,00
-33653,49	179,00
-33551,52	65,00
-33450,01	174,00
-33348,94	124,00
-33248,33	58,00
-33148,16	137,00
-33048,43	36,00
-32949,14	126,00
-32850,29	188,00
-32751,87	111,00
-32653,89	183,00
-32556,33	52,00
-32459,20	104,00
-32362,49	134,00
-32266,19	19,00
-32170,32	145,00
-32074,86	138,00
-31979,82	190,00
-31885,18	130,00
-31790,95	90,00
-31697,12	189,00
-31603,69	144,00
-31510,67	142,00
-31418,04	69,00
-31325,80	91,00
-31233,95	67,00
-31142,49	192,00
-31051,42	144,00
-30960,73	115,00
-30870,43	167,00
-30780,50	84,00
-30690,95	119,00
-30601,77	-7,00
-30512,97	57,00
-30424,53	29,00
-30336,46	145,00
-30248,76	81,00
-30161,42	91,00
-30074,44	70,00
-29987,81	102,00
-29901,55	137,00
-29815,63	37,00
-29730,07	195,00
-29644,86	128,00
-29560,00	96,00
-29475,48	113,00
-29391,30	98,00
-29307,47	100,00
-29223,97	171,00
-29140,81	195,00
-29057,99	64,00
-28975,50	107,00
-28893,34	89,00
-28811,51	49,00
-28730,00	102,00
-28648,82	156,00
-28567,97	136,00
-28487,43	69,00
-28407,21	128,00
-28327,32	30,00
-28247,73	182,00
-28168,46	41,00
-28089,50	125,00
-28010,85	224,00
-27932,51	122,00
-27854,48	47,00
-27776,75	49,00
-27699,32	48,00
-27622,19	161,00
-27545,37	124,00
-27468,84	36,00
-27392,60	194,00
-27316,66	62,00
-27241,01	68,00
-27165,66	108,00
-27090,59	174,00
-27015,81	98,00
-26941,31	110,00
-26867,10	86,00
-26793,17	247,00
-26719,52	86,00
-26646,15	38,00
-26573,06	5,00
-26500,24	112,00
-26427,70	151,00
-26355,43	177,00
-26283,43	160,00
-26211,71	125,00
-26140,25	148,00
-26069,06	158,00
-25998,13	109,00
-25927,46	174,00
-25857,06	100,00
-25786,92	117,00
-25717,04	74,00
-25647,42	117,00
-25578,05	36,00
-25508,94	169,00
-25440,09	129,00
-25371,48	107,00
-25303,13	197,00
-25235,02	82,00
-25167,17	243,00
-25099,56	114,00
-25032,19	2,00
-24965,07	97,00
-24898,20	71,00
-24831,56	77,00
-24765,17	210,00
-24699,01	117,00
-24633,10	106,00
-24567,41	33,00
-24501,97	61,00
-24436,75	56,00
-24371,77	25,00
-24307,03	33,00
-24242,51	151,00
-24178,22	144,00
-24114,16	128,00
-24050,32	168,00
-23986,71	184,00
-23923,32	135,00
-23860,16	52,00
-23797,22	131,00
-23734,50	78,00
-23672,00	122,00
-23609,71	90,00
-23547,65	76,00
-23485,80	44,00
-23424,16	62,00
-23362,74	228,00
-23301,53	79,00
-23240,54	175,00
-23179,75	46,00
-23119,17	198,00
-23058,80	45,00
-22998,64	38,00
-22938,68	80,00
-22878,93	133,00
-22819,39	216,00
-22760,04	75,00
-22700,90	86,00
-22641,96	79,00
-22583,22	242,00
-22524,68	83,00
-22466,33	58,00
-22408,19	-3,00
-22350,23	204,00
-22292,48	75,00
-22234,92	116,00
-22177,55	139,00
-22120,37	55,00
-22063,38	212,00
-22006,58	133,00
-21949,98	139,00
-21893,56	75,00
-21837,33	59,00
-21781,28	198,00
-21725,42	193,00
-21669,74	51,00
-21614,25	71,00
-21558,94	128,00
-21503,81	306,00
-21448,86	114,00
-21394,10	121,00
-21339,51	101,00
-21285,10	70,00
-21230,86	80,00
-21176,81	112,00
-21122,93	172,00
-21069,22	126,00
-21015,69	111,00
-20962,33	122,00
-20909,14	137,00
-20856,13	161,00
-20803,28	63,00
-20750,61	58,00
-20698,10	197,00
-20645,76	109,00
-20593,59	106,00
-20541,59	101,00
-20489,75	178,00
-20438,07	116,00
-20386,56	144,00
-20335,22	218,00
-20284,03	61,00
-20233,01	14,00
-20182,15	162,00
-20131,45	179,00
-20080,91	45,00
-20030,52	127,00
-19980,30	109,00
-19930,23	139,00
-19880,32	142,00
-19830,56	200,00
-19780,96	101,00
-19731,52	89,00
-19682,23	142,00
-19633,09	171,00
-19584,10	87,00
-19535,26	72,00
-19486,58	177,00
-19438,04	225,00
-19389,66	179,00
-19341,42	83,00
-19293,33	97,00
-19245,39	47,00
-19197,60	110,00
-19149,95	42,00
-19102,45	151,00
-19055,09	34,00
-19007,87	98,00
-18960,80	159,00
-18913,87	147,00
-18867,09	89,00
-18820,44	141,00
-18773,94	-18,00
-18727,57	12,00
-18681,35	69,00
-18635,26	125,00
-18589,31	116,00
-18543,50	51,00
-18497,83	166,00
-18452,29	98,00
-18406,89	33,00
-18361,63	68,00
-18316,50	114,00
-18271,50	140,00
-18226,63	100,00
-18181,90	140,00
-18137,30	51,00
-18092,84	83,00
-18048,50	191,00
-18004,29	-125,00
-17960,22	-16,00
-17916,27	52,00
-17872,45	61,00
-17828,76	164,00
-17785,20	143,00
-17741,77	147,00
-17698,46	70,00
-17655,28	55,00
-17612,22	69,00
-17569,29	187,00
-17526,48	132,00
-17483,79	104,00
-17441,23	120,00
-17398,79	143,00
-17356,48	180,00
-17314,28	141,00
-17272,21	110,00
-17230,26	82,00
-17188,42	199,00
-17146,71	148,00
-17105,12	86,00
-17063,64	101,00
-17022,28	14,00
-16981,04	75,00
-16939,92	131,00
-16898,91	228,00
-16858,02	61,00
-16817,25	38,00
-16776,59	87,00
-16736,04	52,00
-16695,61	112,00
-16655,29	37,00
-16615,09	-13,00
-16574,99	56,00
-16535,01	123,00
-16495,15	125,00
-16455,39	57,00
-16415,74	93,00
-16376,21	77,00
-16336,78	117,00
-16297,46	73,00
-16258,26	96,00
-16219,16	82,00
-16180,17	13,00
-16141,28	99,00
-16102,51	135,00
-16063,84	126,00
-16025,27	123,00
-15986,82	1,00
-15948,46	121,00
-15910,22	125,00
-15872,07	159,00
-15834,04	140,00
-15796,10	103,00
-15758,27	240,00
-15720,54	139,00
-15682,91	135,00
-15645,39	142,00
-15607,97	147,00
-15570,64	180,00
-15533,42	-4,00
-15496,30	116,00
-15459,28	142,00
-15422,36	161,00
-15385,54	58,00
-15348,82	-73,00
-15312,19	143,00
-15275,66	46,00
-15239,23	134,00
-15202,90	142,00
-15166,67	112,00
-15130,53	15,00
-15094,48	135,00
-15058,54	125,00
-15022,68	155,00
-14986,93	181,00
-14951,26	136,00
-14915,69	-44,00
-14880,22	106,00
-14844,84	79,00
-14809,55	88,00
-14774,35	115,00
-14739,25	109,00
-14704,24	76,00
-14669,32	46,00
-14634,49	84,00
-14599,75	33,00
-14565,10	109,00
-14530,55	158,00
-14496,08	154,00
-14461,70	116,00
-14427,41	52,00
-14393,21	167,00
-14359,10	47,00
-14325,07	134,00
-14291,14	109,00
-14257,29	29,00
-14223,52	68,00
-14189,85	190,00
-14156,26	60,00
-14122,76	101,00
-14089,34	93,00
-14056,01	228,00
-14022,76	12,00
-13989,60	123,00
-13956,52	160,00
-13923,53	72,00
-13890,62	209,00
-13857,79	83,00
-13825,05	166,00
-13792,39	51,00
-13759,81	95,00
-13727,31	209,00
-13694,90	158,00
-13662,57	146,00
-13630,31	98,00
-13598,14	204,00
-13566,05	251,00
-13534,05	145,00
-13502,12	50,00
-13470,27	48,00
-13438,50	151,00
-13406,80	132,00
-13375,19	82,00
-13343,66	69,00
-13312,20	64,00
-13280,83	133,00
-13249,53	123,00
-13218,30	236,00
-13187,16	120,00
-13156,09	205,00
-13125,10	137,00
-13094,18	190,00
-13063,34	133,00
-13032,58	-37,00
-13001,89	68,00
-12971,28	106,00
-12940,74	56,00
-12910,27	137,00
-12879,88	143,00
-12849,57	163,00
-12819,33	66,00
-12789,16	15,00
-12759,06	200,00
-12729,04	193,00
-12699,09	1597,00
-12669,21	124,00
-12639,41	18,00
-12609,68	25,00
-12580,02	138,00
-12550,43	135,00
-12520,91	160,00
-12491,46	210,00
-12462,08	18,00
-12432,77	126,00
-12403,54	188,00
-12374,37	144,00
-12345,27	96,00
-12316,24	98,00
-12287,29	52,00
-12258,40	56,00
-12229,57	137,00
-12200,82	113,00
-12172,14	75,00
-12143,52	125,00
-12114,97	180,00
-12086,49	127,00
-12058,07	251,00
-12029,73	133,00
-12001,44	4,00
-11973,23	133,00
-11945,08	138,00
-11917,00	72,00
-11888,98	88,00
-11861,03	17,00
-11833,15	133,00
-11805,32	19,00
-11777,57	81,00
-11749,88	44,00
-11722,25	213,00
-11694,69	116,00
-11667,19	23,00
-11639,75	111,00
-11612,38	58,00
-11585,07	163,00
-11557,83	116,00
-11530,65	40,00
-11503,53	219,00
-11476,47	186,00
-11449,48	105,00
-11422,54	77,00
-11395,67	139,00
-11368,86	137,00
-11342,11	46,00
-11315,43	124,00
-11288,80	27,00
-11262,23	48,00
-11235,73	93,00
-11209,28	242,00
-11182,90	82,00
-11156,57	115,00
-11130,31	210,00
-11104,10	102,00
-11077,96	64,00
-11051,87	216,00
-11025,84	173,00
-10999,87	167,00
-10973,96	34,00
-10948,11	120,00
-10922,31	126,00
-10896,58	202,00
-10870,90	220,00
-10845,28	29,00
-10819,71	110,00
-10794,20	178,00
-10768,75	255,00
-10743,36	106,00
-10718,02	66,00
-10692,74	160,00
-10667,52	136,00
-10642,35	135,00
-10617,24	177,00
-10592,18	189,00
-10567,18	216,00
-10542,23	258,00
-10517,34	184,00
-10492,51	109,00
-10467,72	244,00
-10443,00	114,00
-10418,32	133,00
-10393,70	155,00
-10369,14	120,00
-10344,63	110,00
-10320,17	135,00
-10295,77	101,00
-10271,42	78,00
-10247,12	257,00
-10222,88	135,00
-10198,68	135,00
-10174,54	142,00
-10150,46	299,00
-10126,42	104,00
-10102,44	238,00
-10078,51	257,00
-10054,63	218,00
-10030,80	313,00
-10007,03	101,00
-9983,30	41,00
-9959,63	277,00
-9936,01	310,00
-9912,44	286,00
-9888,92	387,00
-9865,44	296,00
-9842,02	335,00
-9818,65	442,00
-9795,33	301,00
-9772,06	349,00
-9748,84	407,00
-9725,67	340,00
-9702,55	351,00
-9679,47	415,00
-9656,45	534,00
-9633,47	428,00
-9610,55	500,00
-9587,67	540,00
-9564,84	571,00
-9542,06	651,00
-9519,32	612,00
-9496,64	724,00
-9474,00	855,00
-9451,41	947,00
-9428,87	775,00
-9406,37	832,00
-9383,92	843,00
-9361,52	913,00
-9339,17	960,00
-9316,86	935,00
-9294,60	1066,00
-9272,38	1111,00
-9250,21	1251,00
-9228,09	1181,00
-9206,01	1183,00
-9183,98	1082,00
-9162,00	980,00
-9140,06	1088,00
-9118,16	1268,00
-9096,31	1138,00
-9074,51	1160,00
-9052,75	1066,00
-9031,04	1150,00
-9009,37	1024,00
-8987,74	940,00
-8966,16	978,00
-8944,63	881,00
-8923,14	870,00
-8901,69	778,00
-8880,29	892,00
-8858,93	897,00
-8837,61	931,00
-8816,34	1005,00
-8795,11	921,00
-8773,92	937,00
-8752,78	808,00
-8731,68	898,00
-8710,62	791,00
-8689,61	757,00
-8668,63	817,00
-8647,70	1063,00
-8626,82	1059,00
-8605,97	880,00
-8585,17	929,00
-8564,41	661,00
-8543,69	819,00
-8523,01	653,00
-8502,37	737,00
-8481,78	784,00
-8461,23	966,00
-8440,71	930,00
-8420,24	931,00
-8399,81	1023,00
-8379,42	994,00
-8359,08	939,00
-8338,77	820,00
-8318,50	886,00
-8298,27	800,00
-8278,09	804,00
-8257,94	819,00
-8237,83	916,00
-8217,76	872,00
-8197,74	859,00
-8177,75	841,00
-8157,80	889,00
-8137,89	847,00
-8118,02	779,00
-8098,19	769,00
-8078,40	814,00
-8058,65	803,00
-8038,93	737,00
-8019,26	829,00
-7999,62	713,00
-7980,02	763,00
-7960,46	648,00
-7940,94	635,00
-7921,46	540,00
-7902,01	598,00
-7882,60	631,00
-7863,23	610,00
-7843,90	643,00
-7824,61	733,00
-7805,35	640,00
-7786,13	726,00
-7766,95	758,00
-7747,80	823,00
-7728,69	575,00
-7709,62	641,00
-7690,59	707,00
-7671,59	735,00
-7652,63	787,00
-7633,70	712,00
-7614,81	768,00
-7595,96	621,00
-7577,15	674,00
-7558,37	614,00
-7539,62	773,00
-7520,91	743,00
-7502,24	632,00
-7483,60	732,00
-7465,00	523,00
-7446,44	595,00
-7427,91	534,00
-7409,41	632,00
-7390,95	456,00
-7372,53	449,00
-7354,14	596,00
-7335,78	509,00
-7317,46	403,00
-7299,18	524,00
-7280,92	511,00
-7262,71	718,00
-7244,52	682,00
-7226,38	657,00
-7208,26	599,00
-7190,18	590,00
-7172,14	613,00
-7154,12	609,00
-7136,15	685,00
-7118,20	677,00
-7100,29	703,00
-7082,41	649,00
-7064,57	734,00
-7046,76	588,00
-7028,98	558,00
-7011,24	534,00
-6993,53	415,00
-6975,85	536,00
-6958,20	464,00
-6940,59	287,00
-6923,01	380,00
-6905,46	470,00
-6887,94	414,00
-6870,46	3309,00
-6853,01	599,00
-6835,59	641,00
-6818,21	541,00
-6800,85	448,00
-6783,53	374,00
-6766,24	278,00
-6748,98	408,00
-6731,76	418,00
-6714,56	368,00
-6697,40	320,00
-6680,26	329,00
-6663,16	399,00
-6646,09	508,00
-6629,05	594,00
-6612,05	573,00
-6595,07	594,00
-6578,13	528,00
-6561,21	321,00
-6544,33	331,00
-6527,47	367,00
-6510,65	371,00
-6493,86	387,00
-6477,10	374,00
-6460,36	416,00
-6443,66	253,00
-6426,99	322,00
-6410,35	405,00
-6393,74	327,00
-6377,16	298,00
-6360,61	297,00
-6344,09	384,00
-6327,59	466,00
-6311,13	402,00
-6294,70	464,00
-6278,29	558,00
-6261,92	428,00
-6245,58	496,00
-6229,26	562,00
-6212,97	427,00
-6196,72	422,00
-6180,49	407,00
-6164,29	354,00
-6148,12	263,00
-6131,98	292,00
-6115,86	189,00
-6099,78	294,00
-6083,72	105,00
-6067,69	256,00
-6051,69	205,00
-6035,72	267,00
-6019,78	256,00
-6003,87	357,00
-5987,98	381,00
-5972,12	481,00
-5956,29	367,00
-5940,49	319,00
-5924,71	309,00
-5908,96	304,00
-5893,24	231,00
-5877,55	348,00
-5861,89	160,00
-5846,25	364,00
-5830,64	346,00
-5815,05	143,00
-5799,50	217,00
-5783,97	242,00
-5768,47	312,00
-5752,99	324,00
-5737,55	409,00
-5722,12	385,00
-5706,73	388,00
-5691,36	523,00
-5676,02	260,00
-5660,71	255,00
-5645,42	330,00
-5630,16	379,00
-5614,92	305,00
-5599,71	317,00
-5584,53	298,00
-5569,37	344,00
-5554,24	409,00
-5539,14	237,00
-5524,06	286,00
-5509,01	236,00
-5493,98	249,00
-5478,98	324,00
-5464,00	315,00
-5449,05	225,00
-5434,13	378,00
-5419,23	229,00
-5404,36	259,00
-5389,51	319,00
-5374,69	296,00
-5359,89	423,00
-5345,12	349,00
-5330,37	285,00
-5315,65	259,00
-5300,95	312,00
-5286,28	330,00
-5271,63	367,00
-5257,01	325,00
-5242,41	363,00
-5227,84	244,00
-5213,29	266,00
-5198,76	173,00
-5184,26	162,00
-5169,79	99,00
-5155,33	189,00
-5140,91	322,00
-5126,51	432,00
-5112,13	300,00
-5097,77	325,00
-5083,44	285,00
-5069,13	298,00
-5054,85	208,00
-5040,59	263,00
-5026,36	431,00
-5012,15	222,00
-4997,96	317,00
-4983,80	137,00
-4969,66	152,00
-4955,54	184,00
-4941,44	320,00
-4927,37	316,00
-4913,33	345,00
-4899,30	468,00
-4885,30	377,00
-4871,33	359,00
-4857,37	251,00
-4843,44	363,00
-4829,53	203,00
-4815,65	274,00
-4801,79	201,00
-4787,95	234,00
-4774,13	329,00
-4760,34	139,00
-4746,56	75,00
-4732,82	226,00
-4719,09	254,00
-4705,38	230,00
-4691,70	302,00
-4678,04	299,00
-4664,41	300,00
-4650,79	193,00
-4637,20	173,00
-4623,63	82,00
-4610,08	280,00
-4596,56	272,00
-4583,05	256,00
-4569,57	284,00
-4556,11	135,00
-4542,67	116,00
-4529,25	94,00
-4515,86	368,00
-4502,49	265,00
-4489,13	340,00
-4475,80	206,00
-4462,49	231,00
-4449,21	234,00
-4435,94	104,00
-4422,70	215,00
-4409,47	237,00
-4396,27	115,00
-4383,09	118,00
-4369,93	314,00
-4356,79	113,00
-4343,67	141,00
-4330,58	161,00
-4317,50	265,00
-4304,45	277,00
-4291,41	153,00
-4278,40	273,00
-4265,41	66,00
-4252,44	227,00
-4239,49	160,00
-4226,55	244,00
-4213,65	270,00
-4200,76	307,00
-4187,89	63,00
-4175,04	236,00
-4162,21	105,00
-4149,40	272,00
-4136,61	109,00
-4123,85	91,00
-4111,10	131,00
-4098,37	241,00
-4085,66	133,00
-4072,98	194,00
-4060,31	0,00
-4047,66	46,00
-4035,04	51,00
-4022,43	229,00
-4009,84	14,00
-3997,27	102,00
-3984,72	70,00
-3972,19	129,00
-3959,69	143,00
-3947,20	117,00
-3934,73	127,00
-3922,27	9,00
-3909,84	-3,00
-3897,43	76,00
-3885,04	119,00
-3872,67	185,00
-3860,31	-12,00
-3847,98	27,00
-3835,66	117,00
-3823,36	137,00
-3811,09	181,00
-3798,83	110,00
-3786,59	65,00
-3774,37	192,00
-3762,17	32,00
-3749,98	222,00
-3737,82	150,00
-3725,67	235,00
-3713,55	177,00
-3701,44	20,00
-3689,35	131,00
-3677,28	260,00
-3665,22	140,00
-3653,19	63,00
-3641,17	80,00
-3629,18	3,00
-3617,20	59,00
-3605,24	149,00
-3593,30	191,00
-3581,37	158,00
-3569,47	160,00
-3557,58	247,00
-3545,71	127,00
-3533,86	168,00
-3522,02	56,00
-3510,21	167,00
-3498,41	218,00
-3486,63	134,00
-3474,87	214,00
-3463,12	28,00
-3451,40	106,00
-3439,69	285,00
-3428,00	61,00
-3416,33	83,00
-3404,67	115,00
-3393,03	103,00
-3381,41	182,00
-3369,81	112,00
-3358,22	139,00
-3346,66	157,00
-3335,10	50,00
-3323,57	33,00
-3312,06	117,00
-3300,56	122,00
-3289,08	109,00
-3277,61	25,00
-3266,16	115,00
-3254,73	-29,00
-3243,32	114,00
-3231,92	57,00
-3220,55	110,00
-3209,18	45,00
-3197,84	103,00
-3186,51	87,00
-3175,20	153,00
-3163,90	89,00
-3152,63	167,00
-3141,36	106,00
-3130,12	140,00
-3118,89	81,00
-3107,68	38,00
-3096,49	89,00
-3085,31	260,00
-3074,15	155,00
-3063,00	84,00
-3051,87	120,00
-3040,76	199,00
-3029,67	137,00
-3018,59	98,00
-3007,52	116,00
-2996,48	184,00
-2985,44	207,00
-2974,43	48,00
-2963,43	154,00
-2952,45	173,00
-2941,48	138,00
-2930,53	172,00
-2919,60	195,00
-2908,68	-77,00
-2897,78	40,00
-2886,89	124,00
-2876,02	41,00
-2865,17	121,00
-2854,33	163,00
-2843,50	4,00
-2832,70	191,00
-2821,90	55,00
-2811,13	85,00
-2800,37	78,00
-2789,62	63,00
-2778,89	120,00
-2768,18	116,00
-2757,48	98,00
-2746,80	122,00
-2736,13	85,00
-2725,48	33,00
-2714,84	81,00
-2704,22	124,00
-2693,61	145,00
-2683,02	199,00
-2672,45	-21,00
-2661,89	89,00
-2651,34	78,00
-2640,81	115,00
-2630,30	51,00
-2619,80	209,00
-2609,31	189,00
-2598,84	131,00
-2588,39	74,00
-2577,95	135,00
-2567,52	209,00
-2557,11	165,00
-2546,71	42,00
-2536,33	175,00
-2525,97	11,00
-2515,62	94,00
-2505,28	62,00
-2494,96	184,00
-2484,65	141,00
-2474,36	169,00
-2464,08	-30,00
-2453,82	161,00
-2443,57	137,00
-2433,33	-21,00
-2423,11	93,00
-2412,91	168,00
-2402,72	117,00
-2392,54	153,00
-2382,38	65,00
-2372,23	235,00
-2362,09	222,00
-2351,97	-77,00
-2341,87	33,00
-2331,78	90,00
-2321,70	113,00
-2311,64	116,00
-2301,59	97,00
-2291,55	112,00
-2281,53	99,00
-2271,53	129,00
-2261,53	46,00
-2251,55	152,00
-2241,59	139,00
-2231,64	73,00
-2221,70	15,00
-2211,78	77,00
-2201,87	148,00
-2191,97	96,00
-2182,09	94,00
-2172,22	125,00
-2162,37	92,00
-2152,53	95,00
-2142,70	98,00
-2132,89	156,00
-2123,09	168,00
-2113,30	199,00
-2103,53	94,00
-2093,77	25,00
-2084,02	96,00
-2074,29	90,00
-2064,57	68,00
-2054,86	22,00
-2045,17	115,00
-2035,49	113,00
-2025,82	138,00
-2016,17	121,00
-2006,53	121,00
-1996,91	124,00
-1987,29	137,00
-1977,69	32,00
-1968,11	52,00
-1958,53	233,00
-1948,97	149,00
-1939,42	9,00
-1929,89	131,00
-1920,37	61,00
-1910,86	75,00
-1901,36	27,00
-1891,88	55,00
-1882,41	55,00
-1872,95	-55,00
-1863,51	153,00
-1854,08	61,00
-1844,66	108,00
-1835,26	122,00
-1825,86	11,00
-1816,48	140,00
-1807,11	183,00
-1797,76	233,00
-1788,42	91,00
-1779,09	40,00
-1769,77	184,00
-1760,47	226,00
-1751,17	167,00
-1741,89	-38,00
-1732,63	264,00
-1723,37	122,00
-1714,13	89,00
-1704,90	154,00
-1695,68	94,00
-1686,48	188,00
-1677,29	102,00
-1668,11	192,00
-1658,94	81,00
-1649,78	141,00
-1640,64	78,00
-1631,51	43,00
-1622,39	118,00
-1613,28	136,00
-1604,19	103,00
-1595,10	16,00
-1586,03	187,00
-1576,97	106,00
-1567,93	64,00
-1558,89	107,00
-1549,87	178,00
-1540,86	160,00
-1531,86	52,00
-1522,87	84,00
-1513,90	103,00
-1504,93	255,00
-1495,98	186,00
-1487,04	130,00
-1478,12	151,00
-1469,20	58,00
-1460,30	129,00
-1451,40	152,00
-1442,52	65,00
-1433,65	9,00
-1424,80	181,00
-1415,95	187,00
-1407,12	178,00
-1398,30	94,00
-1389,48	155,00
-1380,69	123,00
-1371,90	114,00
-1363,12	142,00
-1354,36	63,00
-1345,60	103,00
-1336,86	144,00
-1328,13	149,00
-1319,41	166,00
-1310,70	67,00
-1302,01	210,00
-1293,32	105,00
-1284,65	162,00
-1275,99	137,00
-1267,33	39,00
-1258,69	77,00
-1250,06	27,00
-1241,45	125,00
-1232,84	154,00
-1224,25	100,00
-1215,66	141,00
-1207,09	146,00
-1198,53	152,00
-1189,97	35,00
-1181,43	2,00
-1172,91	-4,00
-1164,39	136,00
-1155,88	100,00
-1147,38	163,00
-1138,90	61,00
-1130,43	175,00
-1121,96	122,00
-1113,51	165,00
-1105,07	17,00
-1096,64	174,00
-1088,22	324,00
-1079,81	152,00
-1071,41	31,00
-1063,02	229,00
-1054,65	-9,00
-1046,28	123,00
-1037,92	108,00
-1029,58	139,00
-1021,24	91,00
-1012,92	121,00
-1004,61	48,00
-996,30	176,00
-988,01	170,00
-979,73	133,00
-971,46	167,00
-963,20	128,00
-954,95	-10,00
-946,71	48,00
-938,48	47,00
-930,26	94,00
-922,06	64,00
-913,86	262,00
-905,67	189,00
-897,49	116,00
-889,33	93,00
-881,17	66,00
-873,02	27,00
-864,89	79,00
-856,76	-28,00
-848,65	158,00
-840,54	163,00
-832,45	151,00
-824,36	99,00
-816,29	34,00
-808,22	60,00
-800,17	278,00
-792,12	146,00
-784,09	81,00
-776,06	-4,00
-768,05	129,00
-760,04	153,00
-752,05	-31,00
-744,07	140,00
-736,09	193,00
-728,13	73,00
-720,17	49,00
-712,23	92,00
-704,29	81,00
-696,37	121,00
-688,45	148,00
-680,55	103,00
-672,65	-25,00
-664,77	40,00
-656,89	112,00
-649,03	197,00
-641,17	150,00
-633,32	46,00
-625,49	169,00
-617,66	190,00
-609,84	63,00
-602,03	33,00
-594,23	72,00
-586,45	143,00
-578,67	75,00
-570,90	211,00
-563,14	109,00
-555,39	203,00
-547,65	122,00
-539,91	188,00
-532,19	35,00
-524,48	148,00
-516,78	91,00
-509,08	33,00
-501,40	105,00
-493,72	165,00
-486,06	171,00
-478,40	297,00
-470,76	163,00
-463,12	43,00
-455,49	19,00
-447,87	143,00
-440,26	34,00
-432,66	80,00
-425,07	97,00
-417,49	203,00
-409,92	171,00
-402,35	203,00
-394,80	219,00
-387,25	60,00
-379,72	200,00
-372,19	264,00
-364,67	108,00
-357,17	116,00
-349,67	150,00
-342,18	190,00
-334,69	257,00
-327,22	135,00
-319,76	163,00
-312,30	215,00
-304,86	165,00
-297,42	253,00
-290,00	146,00
-282,58	146,00
-275,17	87,00
-267,77	85,00
-260,37	58,00
-252,99	245,00
-245,62	123,00
-238,25	197,00
-230,90	148,00
-223,55	212,00
-216,21	215,00
-208,88	286,00
-201,56	214,00
-194,25	292,00
-186,94	288,00
-179,65	255,00
-172,36	282,00
-165,08	396,00
-157,81	297,00
-150,55	520,00
-143,30	468,00
-136,06	368,00
-128,82	489,00
-121,60	579,00
-114,38	511,00
-107,17	748,00
-99,97	757,00
-92,78	756,00
-85,60	973,00
-78,42	1023,00
-71,25	1138,00
-64,10	1489,00
-56,95	1429,00
-49,81	1766,00
-42,67	2124,00
-35,55	2683,00
-28,43	3544,00
-21,33	6015,00
-14,23	19890,00
-7,14	55238,00
-0,05	54948,00
7,02	54664,00
14,09	54888,00
21,14	17543,00
28,19	7160,00
35,23	4509,00
42,27	3584,00
49,29	2928,00
56,31	2478,00
63,32	1988,00
70,32	1623,00
77,31	1319,00
84,29	1261,00
91,27	1137,00
98,23	1054,00
105,19	1038,00
112,14	981,00
119,09	1469,00
126,02	2249,00
132,95	2491,00
139,87	2709,00
146,78	2484,00
153,68	2641,00
160,58	2434,00
167,46	2436,00
174,34	2531,00
181,21	2447,00
188,08	2377,00
194,93	2461,00
201,78	2363,00
208,62	2406,00
215,45	2357,00
222,27	2424,00
229,09	2291,00
235,90	2370,00
242,70	2282,00
249,49	2197,00
256,27	2324,00
263,05	2221,00
269,82	2247,00
276,58	2212,00
283,33	2108,00
290,08	2217,00
296,82	2227,00
303,55	2055,00
310,27	2158,00
316,98	2037,00
323,69	2110,00
330,39	2069,00
337,08	2029,00
343,76	1954,00
350,44	1995,00
357,11	2105,00
363,77	2100,00
370,42	1891,00
377,07	1968,00
383,71	2037,00
390,34	1972,00
396,96	1949,00
403,58	2055,00
410,19	1903,00
416,79	2025,00
423,38	1941,00
429,97	1856,00
436,55	1733,00
443,12	1851,00
449,68	1716,00
456,24	1870,00
462,79	1777,00
469,33	1748,00
475,86	1779,00
482,39	1795,00
488,91	1575,00
495,42	1650,00
501,93	1716,00
508,42	1626,00
514,91	1645,00
521,40	1694,00
527,87	1633,00
534,34	1699,00
540,80	1673,00
547,25	1640,00
553,70	1628,00
560,14	1587,00
566,57	1605,00
573,00	1642,00
579,41	1671,00
585,83	1623,00
592,23	1593,00
598,62	1480,00
605,01	1574,00
611,40	1512,00
617,77	1435,00
624,14	1668,00
630,50	1536,00
636,85	1521,00
643,20	1419,00
649,54	1592,00
655,87	1337,00
662,20	1406,00
668,52	1431,00
674,83	1353,00
681,13	1443,00
687,43	1346,00
693,72	1367,00
700,00	1328,00
706,28	1249,00
712,55	1367,00
718,81	1405,00
725,07	1295,00
731,32	1335,00
737,56	1328,00
743,79	1280,00
750,02	1398,00
756,24	1227,00
762,46	1262,00
768,67	1398,00
774,87	1331,00
781,06	1410,00
787,25	1385,00
793,43	1324,00
799,60	1322,00
805,77	1277,00
811,93	1352,00
818,08	1240,00
824,23	1432,00
830,37	1283,00
836,50	1328,00
842,63	1221,00
848,75	1369,00
854,87	1222,00
860,97	1362,00
867,07	1294,00
873,17	1280,00
879,25	1376,00
885,33	1258,00
891,41	1403,00
897,47	1250,00
903,53	1124,00
909,59	1259,00
915,63	1220,00
921,67	1207,00
927,71	1136,00
933,74	1100,00
939,76	1269,00
945,77	1145,00
951,78	1083,00
957,78	1130,00
963,78	1195,00
969,77	1094,00
975,75	1241,00
981,72	1118,00
987,69	1074,00
993,66	1237,00
999,61	1140,00
1005,56	1159,00
1011,51	1238,00
1017,44	1178,00
1023,37	1124,00
1029,30	1315,00
1035,22	1129,00
1041,13	1256,00
1047,03	1216,00
1052,93	1223,00
1058,83	1480,00
1064,71	1529,00
1070,59	1319,00
1076,47	1271,00
1082,33	1255,00
1088,20	1130,00
1094,05	1211,00
1099,90	1089,00
1105,74	1104,00
1111,58	1036,00
1117,41	1277,00
1123,23	1428,00
1129,05	1339,00
1134,86	1335,00
1140,67	1284,00
1146,47	1267,00
1152,26	1242,00
1158,05	1094,00
1163,83	1168,00
1169,60	1119,00
1175,37	1131,00
1181,13	1117,00
1186,89	1185,00
1192,64	1063,00
1198,38	1151,00
1204,12	1032,00
1209,85	968,00
1215,58	1071,00
1221,30	1012,00
1227,02	1098,00
1232,72	1110,00
1238,43	1053,00
1244,12	1080,00
1249,81	1024,00
1255,50	908,00
1261,17	1027,00
1266,85	1114,00
1272,51	1120,00
1278,17	1202,00
1283,83	1231,00
1289,47	1366,00
1295,12	1689,00
1300,75	1647,00
1306,38	1491,00
1312,01	1295,00
1317,63	1282,00
1323,24	1152,00
1328,85	1098,00
1334,45	1129,00
1340,04	1136,00
1345,63	1124,00
1351,22	1119,00
1356,80	1142,00
1362,37	1229,00
1367,93	1124,00
1373,49	1092,00
1379,05	1248,00
1384,60	1218,00
1390,14	1196,00
1395,68	1135,00
1401,21	1128,00
1406,74	1092,00
1412,26	1330,00
1417,77	1234,00
1423,28	1305,00
1428,78	1379,00
1434,28	1705,00
1439,77	1598,00
1445,26	1628,00
1450,74	1681,00
1456,22	1627,00
1461,68	1485,00
1467,15	1318,00
1472,61	1416,00
1478,06	1308,00
1483,51	1175,00
1488,95	1123,00
1494,38	1082,00
1499,81	981,00
1505,24	1141,00
1510,65	942,00
1516,07	992,00
1521,48	1004,00
1526,88	868,00
1532,27	1084,00
1537,67	939,00
1543,05	995,00
1548,43	950,00
1553,81	960,00
1559,18	843,00
1564,54	922,00
1569,90	867,00
1575,25	1009,00
1580,60	977,00
1585,94	956,00
1591,28	984,00
1596,61	1023,00
1601,93	876,00
1607,25	901,00
1612,57	892,00
1617,88	923,00
1623,18	861,00
1628,48	873,00
1633,77	891,00
1639,06	898,00
1644,34	877,00
1649,62	884,00
1654,89	915,00
1660,16	864,00
1665,42	725,00
1670,67	880,00
1675,92	870,00
1681,17	921,00
1686,41	762,00
1691,64	907,00
1696,87	762,00
1702,10	693,00
1707,32	826,00
1712,53	734,00
1717,74	796,00
1722,94	720,00
1728,14	784,00
1733,33	742,00
1738,52	861,00
1743,70	822,00
1748,88	811,00
1754,05	782,00
1759,22	710,00
1764,38	-655,00
1769,53	725,00
1774,69	655,00
1779,83	707,00
1784,97	730,00
1790,11	716,00
1795,24	686,00
1800,36	580,00
1805,48	613,00
1810,60	684,00
1815,71	599,00
1820,82	547,00
1825,92	668,00
1831,01	671,00
1836,10	757,00
1841,19	657,00
1846,26	610,00
1851,34	616,00
1856,41	648,00
1861,47	616,00
1866,53	776,00
1871,59	657,00
1876,64	642,00
1881,68	595,00
1886,72	452,00
1891,76	703,00
1896,79	539,00
1901,81	607,00
1906,83	667,00
1911,85	636,00
1916,86	636,00
1921,86	524,00
1926,86	517,00
1931,86	583,00
1936,85	584,00
1941,83	566,00
1946,81	615,00
1951,79	549,00
1956,76	656,00
1961,72	531,00
1966,68	534,00
1971,64	577,00
1976,59	639,00
1981,54	521,00
1986,48	554,00
1991,42	550,00
1996,35	580,00
2001,27	432,00
2006,20	502,00
2011,11	631,00
2016,03	562,00
2020,93	485,00
2025,84	482,00
2030,73	439,00
2035,63	415,00
2040,52	522,00
2045,40	516,00
2050,28	455,00
2055,15	395,00
2060,02	552,00
2064,89	506,00
2069,75	513,00
2074,60	511,00
2079,46	518,00
2084,30	394,00
2089,14	454,00
2093,98	453,00
2098,81	514,00
2103,64	512,00
2108,46	577,00
2113,28	523,00
2118,09	493,00
2122,90	360,00
2127,70	356,00
2132,50	567,00
2137,30	533,00
2142,09	352,00
2146,87	560,00
2151,66	524,00
2156,43	421,00
2161,20	448,00
2165,97	521,00
2170,73	372,00
2175,49	685,00
2180,24	448,00
2184,99	490,00
2189,74	508,00
2194,48	347,00
2199,21	631,00
2203,94	410,00
2208,67	479,00
2213,39	451,00
2218,11	450,00
2222,82	419,00
2227,53	420,00
2232,23	362,00
2236,93	344,00
2241,63	307,00
2246,32	402,00
2251,00	383,00
2255,68	422,00
2260,36	368,00
2265,03	431,00
2269,70	480,00
2274,36	384,00
2279,02	353,00
2283,68	339,00
2288,33	367,00
2292,97	475,00
2297,61	423,00
2302,25	532,00
2306,88	434,00
2311,51	270,00
2316,14	437,00
2320,75	144,00
2325,37	387,00
2329,98	307,00
2334,59	381,00
2339,19	199,00
2343,79	315,00
2348,38	253,00
2352,97	314,00
2357,55	435,00
2362,13	342,00
2366,71	369,00
2371,28	400,00
2375,85	412,00
2380,41	427,00
2384,97	249,00
2389,52	442,00
2394,07	335,00
2398,62	236,00
2403,16	279,00
2407,70	231,00
2412,23	314,00
2416,76	211,00
2421,29	381,00
2425,81	354,00
2430,32	322,00
2434,84	271,00
2439,34	291,00
2443,85	320,00
2448,35	399,00
2452,84	274,00
2457,33	364,00
2461,82	336,00
2466,30	277,00
2470,78	380,00
2475,25	269,00
2479,72	231,00
2484,19	181,00
2488,65	368,00
2493,11	398,00
2497,56	364,00
2502,01	224,00
2506,46	198,00
2510,90	362,00
2515,34	285,00
2519,77	297,00
2524,20	268,00
2528,62	239,00
2533,04	283,00
2537,46	236,00
2541,87	303,00
2546,28	244,00
2550,68	304,00
2555,08	215,00
2559,48	181,00
2563,87	208,00
2568,26	206,00
2572,64	374,00
2577,02	335,00
2581,40	243,00
2585,77	294,00
2590,14	205,00
2594,50	301,00
2598,86	206,00
2603,22	255,00
2607,57	292,00
2611,92	266,00
2616,26	334,00
2620,60	278,00
2624,94	278,00
2629,27	270,00
2633,60	251,00
2637,92	313,00
2642,24	336,00
2646,56	311,00
2650,87	292,00
2655,18	422,00
2659,48	240,00
2663,78	271,00
2668,08	341,00
2672,37	304,00
2676,66	123,00
2680,95	311,00
2685,23	258,00
2689,50	181,00
2693,78	358,00
2698,05	309,00
2702,31	262,00
2706,57	369,00
2710,83	353,00
2715,08	341,00
2719,33	309,00
2723,58	356,00
2727,82	328,00
2732,06	374,00
2736,29	344,00
2740,53	350,00
2744,75	368,00
2748,97	369,00
2753,19	274,00
2757,41	443,00
2761,62	159,00
2765,83	293,00
2770,03	273,00
2774,23	312,00
2778,43	273,00
2782,62	459,00
2786,81	283,00
2791,00	226,00
2795,18	395,00
2799,35	382,00
2803,53	296,00
2807,70	263,00
2811,86	370,00
2816,03	301,00
2820,19	534,00
2824,34	387,00
2828,49	495,00
2832,64	419,00
2836,78	640,00
2840,92	703,00
2845,06	933,00
2849,19	949,00
2853,32	1031,00
2857,45	1112,00
2861,57	1153,00
2865,69	980,00
2869,80	926,00
2873,91	924,00
2878,02	993,00
2882,12	1151,00
2886,22	1080,00
2890,32	1016,00
2894,41	1052,00
2898,50	889,00
2902,58	886,00
2906,67	839,00
2910,74	753,00
2914,82	799,00
2918,89	795,00
2922,96	670,00
2927,02	629,00
2931,08	586,00
2935,13	564,00
2939,19	629,00
2943,24	539,00
2947,28	414,00
2951,32	536,00
2955,36	568,00
2959,40	227,00
2963,43	437,00
2967,46	318,00
2971,48	418,00
2975,50	352,00
2979,52	369,00
2983,53	274,00
2987,54	201,00
2991,55	166,00
2995,55	170,00
2999,55	148,00
3003,54	220,00
3007,54	263,00
3011,53	351,00
3015,51	231,00
3019,49	292,00
3023,47	241,00
3027,45	159,00
3031,42	89,00
3035,39	241,00
3039,35	183,00
3043,31	24,00
3047,27	181,00
3051,22	260,00
3055,17	226,00
3059,12	137,00
3063,06	180,00
3067,00	136,00
3070,94	158,00
3074,87	166,00
3078,80	73,00
3082,73	166,00
3086,65	122,00
3090,57	258,00
3094,49	162,00
3098,40	138,00
3102,31	150,00
3106,22	211,00
3110,12	81,00
3114,02	186,00
3117,92	136,00
3121,81	183,00
3125,70	124,00
3129,58	165,00
3133,47	145,00
3137,34	67,00
3141,22	208,00
3145,09	155,00
3148,96	226,00
3152,83	228,00
3156,69	226,00
3160,55	218,00
3164,40	146,00
3168,26	146,00
3172,10	169,00
3175,95	104,00
3179,79	187,00
3183,63	90,00
3187,47	231,00
3191,30	208,00
3195,13	97,00
3198,95	216,00
3202,78	138,00
3206,60	117,00
3210,41	163,00
3214,23	145,00
3218,03	147,00
3221,84	294,00
3225,64	146,00
3229,44	196,00
3233,24	217,00
3237,03	251,00
3240,82	54,00
3244,61	164,00
3248,39	164,00
3252,17	101,00
3255,95	149,00
3259,72	203,00
3263,49	110,00
3267,26	182,00
3271,03	160,00
3274,79	112,00
3278,54	137,00
3282,30	170,00
3286,05	255,00
3289,80	50,00
3293,54	145,00
3297,29	178,00
3301,02	110,00
3304,76	88,00
3308,49	174,00
3312,22	220,00
3315,95	150,00
3319,67	141,00
3323,39	135,00
3327,10	187,00
3330,82	139,00
3334,53	120,00
3338,24	199,00
3341,94	150,00
3345,64	181,00
3349,34	238,00
3353,03	184,00
3356,72	188,00
3360,41	277,00
3364,10	321,00
3367,78	138,00
3371,46	151,00
3375,13	99,00
3378,81	163,00
3382,48	133,00
3386,14	69,00
3389,81	90,00
3393,47	29,00
3397,12	84,00
3400,78	53,00
3404,43	153,00
3408,08	208,00
3411,72	175,00
3415,36	99,00
3419,00	125,00
3422,64	123,00
3426,27	95,00
3429,90	185,00
3433,53	261,00
3437,15	144,00
3440,77	156,00
3444,39	-10,00
3448,00	227,00
3451,62	144,00
3455,22	124,00
3458,83	4,00
3462,43	136,00
3466,03	70,00
3469,63	194,00
3473,22	87,00
3476,81	202,00
3480,40	56,00
3483,99	147,00
3487,57	175,00
3491,15	201,00
3494,72	48,00
3498,29	35,00
3501,86	23,00
3505,43	118,00
3508,99	143,00
3512,56	143,00
3516,11	77,00
3519,67	143,00
3523,22	89,00
3526,77	212,00
3530,32	145,00
3533,86	117,00
3537,40	23,00
3540,94	111,00
3544,47	22,00
3548,00	141,00
3551,53	81,00
3555,06	120,00
3558,58	122,00
3562,10	133,00
3565,62	185,00
3569,13	222,00
3572,64	25,00
3576,15	125,00
3579,66	150,00
3583,16	74,00
3586,66	196,00
3590,16	137,00
3593,65	116,00
3597,14	128,00
3600,63	134,00
3604,11	58,00
3607,60	4,00
3611,08	0,00
3614,55	152,00
3618,03	68,00
3621,50	-30,00
3624,97	121,00
3628,43	124,00
3631,90	120,00
3635,36	157,00
3638,81	140,00
3642,27	138,00
3645,72	170,00
3649,17	162,00
3652,61	-3,00
3656,06	247,00
3659,50	104,00
3662,93	49,00
3666,37	83,00
3669,80	107,00
3673,23	60,00
3676,65	-13,00
3680,08	148,00
3683,50	84,00
3686,92	226,00
3690,33	196,00
3693,74	205,00
3697,15	136,00
3700,56	148,00
3703,96	-7,00
3707,36	82,00
3710,76	220,00
3714,16	103,00
3717,55	122,00
3720,94	176,00
3724,33	158,00
3727,71	-6,00
3731,10	236,00
3734,48	135,00
3737,85	152,00
3741,23	234,00
3744,60	77,00
3747,97	21,00
3751,33	24,00
3754,69	85,00
3758,05	134,00
3761,41	116,00
3764,77	182,00
3768,12	71,00
3771,47	90,00
3774,82	44,00
3778,16	2,00
3781,50	1,00
3784,84	0,00
3788,18	-5,00
>>>>>End Processed Spectral Data<<<<<
