SpectraSuite Data File
++++++++++++++++++++++++++++++++++++
Date: Mon Mar 09 16:24:03 ICT 2026
User: Administrator
Dark Spectrum Present: Yes
Reference Spectrum Present: No
Number of Sampled Component Spectra: 1
Spectrometers: MAYP113682
Integration Time (usec): 3000000 (MAYP113682)
Spectra Averaged: 1 (MAYP113682)
Boxcar Smoothing: 0 (MAYP113682)
Correct for Electrical Dark: No (MAYP113682)
Strobe/Lamp Enabled: No (MAYP113682)
Correct for Detector Non-linearity: No (MAYP113682)
Correct for Stray Light: No (MAYP113682)
Number of Pixels in Processed Spectrum: 2068
>>>>>Begin Processed Spectral Data<<<<<
-37534,58	-7,00
-37414,56	5,00
-37295,11	-5,00
-37176,24	-1,00
-37057,95	9,00
-36940,22	80,00
-36823,05	78,00
-36706,45	95,00
-36590,40	73,00
-36474,90	78,00
-36359,95	58,00
-36245,55	41,00
-36131,68	2,00
-36018,35	114,00
-35905,55	36,00
-35793,29	7,00
-35681,54	124,00
-35570,32	100,00
-35459,62	41,00
-35349,43	98,00
-35239,75	86,00
-35130,58	145,00
-35021,91	18,00
-34913,74	17,00
-34806,07	117,00
-34698,89	16,00
-34592,20	36,00
-34486,00	121,00
-34380,28	116,00
-34275,04	68,00
-34170,27	-33,00
-34065,98	37,00
-33962,16	81,00
-33858,81	63,00
-33755,92	238,00
-33653,49	155,00
-33551,52	52,00
-33450,01	203,00
-33348,94	57,00
-33248,33	-56,00
-33148,16	-36,00
-33048,43	134,00
-32949,14	42,00
-32850,29	85,00
-32751,87	64,00
-32653,89	-16,00
-32556,33	52,00
-32459,20	88,00
-32362,49	138,00
-32266,19	191,00
-32170,32	80,00
-32074,86	77,00
-31979,82	-37,00
-31885,18	79,00
-31790,95	49,00
-31697,12	-2,00
-31603,69	111,00
-31510,67	74,00
-31418,04	122,00
-31325,80	83,00
-31233,95	150,00
-31142,49	162,00
-31051,42	152,00
-30960,73	-4,00
-30870,43	151,00
-30780,50	106,00
-30690,95	90,00
-30601,77	125,00
-30512,97	227,00
-30424,53	101,00
-30336,46	54,00
-30248,76	126,00
-30161,42	189,00
-30074,44	102,00
-29987,81	150,00
-29901,55	68,00
-29815,63	26,00
-29730,07	47,00
-29644,86	141,00
-29560,00	-51,00
-29475,48	293,00
-29391,30	134,00
-29307,47	55,00
-29223,97	69,00
-29140,81	29,00
-29057,99	76,00
-28975,50	94,00
-28893,34	233,00
-28811,51	56,00
-28730,00	129,00
-28648,82	-4,00
-28567,97	70,00
-28487,43	49,00
-28407,21	53,00
-28327,32	78,00
-28247,73	54,00
-28168,46	70,00
-28089,50	84,00
-28010,85	-81,00
-27932,51	97,00
-27854,48	100,00
-27776,75	24,00
-27699,32	99,00
-27622,19	120,00
-27545,37	72,00
-27468,84	137,00
-27392,60	38,00
-27316,66	61,00
-27241,01	102,00
-27165,66	49,00
-27090,59	60,00
-27015,81	144,00
-26941,31	40,00
-26867,10	92,00
-26793,17	122,00
-26719,52	138,00
-26646,15	55,00
-26573,06	77,00
-26500,24	152,00
-26427,70	128,00
-26355,43	80,00
-26283,43	-14,00
-26211,71	63,00
-26140,25	83,00
-26069,06	112,00
-25998,13	121,00
-25927,46	47,00
-25857,06	134,00
-25786,92	53,00
-25717,04	86,00
-25647,42	133,00
-25578,05	91,00
-25508,94	164,00
-25440,09	-123,00
-25371,48	111,00
-25303,13	75,00
-25235,02	14,00
-25167,17	147,00
-25099,56	45,00
-25032,19	171,00
-24965,07	108,00
-24898,20	48,00
-24831,56	1,00
-24765,17	127,00
-24699,01	227,00
-24633,10	19,00
-24567,41	104,00
-24501,97	230,00
-24436,75	42,00
-24371,77	122,00
-24307,03	-30,00
-24242,51	69,00
-24178,22	-2,00
-24114,16	88,00
-24050,32	171,00
-23986,71	120,00
-23923,32	138,00
-23860,16	49,00
-23797,22	220,00
-23734,50	77,00
-23672,00	14,00
-23609,71	101,00
-23547,65	80,00
-23485,80	42,00
-23424,16	-11,00
-23362,74	77,00
-23301,53	110,00
-23240,54	-10,00
-23179,75	166,00
-23119,17	152,00
-23058,80	58,00
-22998,64	117,00
-22938,68	13,00
-22878,93	113,00
-22819,39	-5,00
-22760,04	91,00
-22700,90	-60,00
-22641,96	-2,00
-22583,22	82,00
-22524,68	145,00
-22466,33	121,00
-22408,19	18,00
-22350,23	-52,00
-22292,48	118,00
-22234,92	89,00
-22177,55	-30,00
-22120,37	88,00
-22063,38	92,00
-22006,58	56,00
-21949,98	129,00
-21893,56	128,00
-21837,33	21,00
-21781,28	115,00
-21725,42	172,00
-21669,74	18,00
-21614,25	100,00
-21558,94	90,00
-21503,81	63,00
-21448,86	-70,00
-21394,10	75,00
-21339,51	23,00
-21285,10	33,00
-21230,86	107,00
-21176,81	146,00
-21122,93	22,00
-21069,22	34,00
-21015,69	4,00
-20962,33	153,00
-20909,14	49,00
-20856,13	53,00
-20803,28	72,00
-20750,61	67,00
-20698,10	-47,00
-20645,76	119,00
-20593,59	73,00
-20541,59	144,00
-20489,75	-3,00
-20438,07	66,00
-20386,56	-45,00
-20335,22	185,00
-20284,03	13,00
-20233,01	76,00
-20182,15	55,00
-20131,45	80,00
-20080,91	130,00
-20030,52	85,00
-19980,30	29,00
-19930,23	132,00
-19880,32	154,00
-19830,56	-37,00
-19780,96	84,00
-19731,52	175,00
-19682,23	39,00
-19633,09	120,00
-19584,10	-3,00
-19535,26	188,00
-19486,58	165,00
-19438,04	50,00
-19389,66	69,00
-19341,42	-48,00
-19293,33	86,00
-19245,39	89,00
-19197,60	62,00
-19149,95	68,00
-19102,45	102,00
-19055,09	85,00
-19007,87	153,00
-18960,80	139,00
-18913,87	-14,00
-18867,09	108,00
-18820,44	21,00
-18773,94	104,00
-18727,57	21,00
-18681,35	82,00
-18635,26	45,00
-18589,31	104,00
-18543,50	48,00
-18497,83	-11,00
-18452,29	122,00
-18406,89	48,00
-18361,63	134,00
-18316,50	142,00
-18271,50	218,00
-18226,63	108,00
-18181,90	78,00
-18137,30	170,00
-18092,84	65,00
-18048,50	77,00
-18004,29	40,00
-17960,22	58,00
-17916,27	109,00
-17872,45	63,00
-17828,76	104,00
-17785,20	53,00
-17741,77	86,00
-17698,46	193,00
-17655,28	69,00
-17612,22	101,00
-17569,29	153,00
-17526,48	124,00
-17483,79	137,00
-17441,23	53,00
-17398,79	17,00
-17356,48	182,00
-17314,28	62,00
-17272,21	71,00
-17230,26	148,00
-17188,42	171,00
-17146,71	2,00
-17105,12	101,00
-17063,64	-26,00
-17022,28	170,00
-16981,04	121,00
-16939,92	147,00
-16898,91	104,00
-16858,02	62,00
-16817,25	115,00
-16776,59	85,00
-16736,04	-25,00
-16695,61	-64,00
-16655,29	111,00
-16615,09	154,00
-16574,99	118,00
-16535,01	91,00
-16495,15	154,00
-16455,39	71,00
-16415,74	79,00
-16376,21	118,00
-16336,78	80,00
-16297,46	38,00
-16258,26	-15,00
-16219,16	60,00
-16180,17	31,00
-16141,28	18,00
-16102,51	24,00
-16063,84	1,00
-16025,27	102,00
-15986,82	152,00
-15948,46	30,00
-15910,22	63,00
-15872,07	140,00
-15834,04	20,00
-15796,10	107,00
-15758,27	226,00
-15720,54	142,00
-15682,91	82,00
-15645,39	96,00
-15607,97	-6,00
-15570,64	-22,00
-15533,42	-4,00
-15496,30	132,00
-15459,28	130,00
-15422,36	215,00
-15385,54	-16,00
-15348,82	46,00
-15312,19	41,00
-15275,66	30,00
-15239,23	135,00
-15202,90	116,00
-15166,67	-47,00
-15130,53	133,00
-15094,48	44,00
-15058,54	43,00
-15022,68	89,00
-14986,93	112,00
-14951,26	71,00
-14915,69	153,00
-14880,22	131,00
-14844,84	-13,00
-14809,55	107,00
-14774,35	67,00
-14739,25	65,00
-14704,24	15,00
-14669,32	-50,00
-14634,49	158,00
-14599,75	75,00
-14565,10	-6,00
-14530,55	21,00
-14496,08	183,00
-14461,70	72,00
-14427,41	129,00
-14393,21	60,00
-14359,10	53,00
-14325,07	-146,00
-14291,14	87,00
-14257,29	142,00
-14223,52	50,00
-14189,85	136,00
-14156,26	124,00
-14122,76	63,00
-14089,34	152,00
-14056,01	126,00
-14022,76	208,00
-13989,60	-54,00
-13956,52	84,00
-13923,53	11,00
-13890,62	95,00
-13857,79	18,00
-13825,05	85,00
-13792,39	83,00
-13759,81	58,00
-13727,31	125,00
-13694,90	21,00
-13662,57	139,00
-13630,31	54,00
-13598,14	-26,00
-13566,05	83,00
-13534,05	45,00
-13502,12	101,00
-13470,27	87,00
-13438,50	71,00
-13406,80	39,00
-13375,19	185,00
-13343,66	-106,00
-13312,20	63,00
-13280,83	47,00
-13249,53	41,00
-13218,30	80,00
-13187,16	35,00
-13156,09	137,00
-13125,10	218,00
-13094,18	103,00
-13063,34	90,00
-13032,58	38,00
-13001,89	97,00
-12971,28	55,00
-12940,74	91,00
-12910,27	81,00
-12879,88	47,00
-12849,57	44,00
-12819,33	33,00
-12789,16	54,00
-12759,06	63,00
-12729,04	165,00
-12699,09	149,00
-12669,21	77,00
-12639,41	38,00
-12609,68	188,00
-12580,02	22,00
-12550,43	12,00
-12520,91	40,00
-12491,46	88,00
-12462,08	-8,00
-12432,77	-4,00
-12403,54	18,00
-12374,37	130,00
-12345,27	105,00
-12316,24	91,00
-12287,29	161,00
-12258,40	123,00
-12229,57	56,00
-12200,82	12,00
-12172,14	-3,00
-12143,52	83,00
-12114,97	109,00
-12086,49	141,00
-12058,07	52,00
-12029,73	42,00
-12001,44	-30,00
-11973,23	143,00
-11945,08	110,00
-11917,00	164,00
-11888,98	70,00
-11861,03	80,00
-11833,15	114,00
-11805,32	82,00
-11777,57	171,00
-11749,88	-50,00
-11722,25	2,00
-11694,69	117,00
-11667,19	109,00
-11639,75	87,00
-11612,38	45,00
-11585,07	25,00
-11557,83	119,00
-11530,65	62,00
-11503,53	134,00
-11476,47	154,00
-11449,48	79,00
-11422,54	11,00
-11395,67	32,00
-11368,86	-13,00
-11342,11	34,00
-11315,43	15,00
-11288,80	79,00
-11262,23	99,00
-11235,73	-1,00
-11209,28	1,00
-11182,90	97,00
-11156,57	133,00
-11130,31	195,00
-11104,10	-12,00
-11077,96	93,00
-11051,87	159,00
-11025,84	40,00
-10999,87	81,00
-10973,96	23,00
-10948,11	12,00
-10922,31	76,00
-10896,58	100,00
-10870,90	116,00
-10845,28	18,00
-10819,71	47,00
-10794,20	123,00
-10768,75	154,00
-10743,36	62,00
-10718,02	111,00
-10692,74	176,00
-10667,52	186,00
-10642,35	187,00
-10617,24	85,00
-10592,18	141,00
-10567,18	125,00
-10542,23	152,00
-10517,34	168,00
-10492,51	-5,00
-10467,72	180,00
-10443,00	190,00
-10418,32	73,00
-10393,70	35,00
-10369,14	102,00
-10344,63	83,00
-10320,17	203,00
-10295,77	199,00
-10271,42	159,00
-10247,12	82,00
-10222,88	131,00
-10198,68	195,00
-10174,54	141,00
-10150,46	131,00
-10126,42	133,00
-10102,44	189,00
-10078,51	114,00
-10054,63	139,00
-10030,80	182,00
-10007,03	221,00
-9983,30	18,00
-9959,63	163,00
-9936,01	322,00
-9912,44	209,00
-9888,92	177,00
-9865,44	240,00
-9842,02	135,00
-9818,65	334,00
-9795,33	223,00
-9772,06	254,00
-9748,84	201,00
-9725,67	248,00
-9702,55	255,00
-9679,47	338,00
-9656,45	280,00
-9633,47	456,00
-9610,55	345,00
-9587,67	236,00
-9564,84	489,00
-9542,06	312,00
-9519,32	437,00
-9496,64	562,00
-9474,00	587,00
-9451,41	613,00
-9428,87	639,00
-9406,37	573,00
-9383,92	518,00
-9361,52	447,00
-9339,17	346,00
-9316,86	552,00
-9294,60	661,00
-9272,38	670,00
-9250,21	815,00
-9228,09	892,00
-9206,01	703,00
-9183,98	725,00
-9162,00	731,00
-9140,06	621,00
-9118,16	707,00
-9096,31	709,00
-9074,51	856,00
-9052,75	760,00
-9031,04	734,00
-9009,37	640,00
-8987,74	598,00
-8966,16	510,00
-8944,63	450,00
-8923,14	318,00
-8901,69	485,00
-8880,29	599,00
-8858,93	609,00
-8837,61	745,00
-8816,34	905,00
-8795,11	790,00
-8773,92	697,00
-8752,78	549,00
-8731,68	605,00
-8710,62	529,00
-8689,61	588,00
-8668,63	683,00
-8647,70	591,00
-8626,82	646,00
-8605,97	836,00
-8585,17	611,00
-8564,41	452,00
-8543,69	416,00
-8523,01	522,00
-8502,37	551,00
-8481,78	544,00
-8461,23	715,00
-8440,71	609,00
-8420,24	793,00
-8399,81	783,00
-8379,42	809,00
-8359,08	638,00
-8338,77	580,00
-8318,50	640,00
-8298,27	553,00
-8278,09	529,00
-8257,94	622,00
-8237,83	638,00
-8217,76	790,00
-8197,74	701,00
-8177,75	660,00
-8157,80	723,00
-8137,89	490,00
-8118,02	629,00
-8098,19	517,00
-8078,40	623,00
-8058,65	536,00
-8038,93	788,00
-8019,26	638,00
-7999,62	623,00
-7980,02	450,00
-7960,46	584,00
-7940,94	516,00
-7921,46	476,00
-7902,01	496,00
-7882,60	416,00
-7863,23	498,00
-7843,90	492,00
-7824,61	541,00
-7805,35	622,00
-7786,13	718,00
-7766,95	552,00
-7747,80	593,00
-7728,69	518,00
-7709,62	473,00
-7690,59	578,00
-7671,59	587,00
-7652,63	523,00
-7633,70	657,00
-7614,81	574,00
-7595,96	588,00
-7577,15	442,00
-7558,37	475,00
-7539,62	464,00
-7520,91	570,00
-7502,24	453,00
-7483,60	665,00
-7465,00	509,00
-7446,44	514,00
-7427,91	421,00
-7409,41	493,00
-7390,95	336,00
-7372,53	327,00
-7354,14	222,00
-7335,78	189,00
-7317,46	445,00
-7299,18	350,00
-7280,92	526,00
-7262,71	494,00
-7244,52	613,00
-7226,38	588,00
-7208,26	692,00
-7190,18	535,00
-7172,14	459,00
-7154,12	362,00
-7136,15	449,00
-7118,20	484,00
-7100,29	551,00
-7082,41	550,00
-7064,57	524,00
-7046,76	481,00
-7028,98	264,00
-7011,24	423,00
-6993,53	322,00
-6975,85	211,00
-6958,20	242,00
-6940,59	147,00
-6923,01	283,00
-6905,46	317,00
-6887,94	397,00
-6870,46	387,00
-6853,01	488,00
-6835,59	491,00
-6818,21	403,00
-6800,85	304,00
-6783,53	267,00
-6766,24	95,00
-6748,98	33,00
-6731,76	73,00
-6714,56	31,00
-6697,40	233,00
-6680,26	110,00
-6663,16	367,00
-6646,09	264,00
-6629,05	372,00
-6612,05	344,00
-6595,07	447,00
-6578,13	328,00
-6561,21	193,00
-6544,33	250,00
-6527,47	171,00
-6510,65	0,00
-6493,86	38,00
-6477,10	180,00
-6460,36	110,00
-6443,66	132,00
-6426,99	98,00
-6410,35	199,00
-6393,74	324,00
-6377,16	241,00
-6360,61	154,00
-6344,09	199,00
-6327,59	215,00
-6311,13	196,00
-6294,70	245,00
-6278,29	441,00
-6261,92	307,00
-6245,58	301,00
-6229,26	362,00
-6212,97	483,00
-6196,72	277,00
-6180,49	209,00
-6164,29	91,00
-6148,12	148,00
-6131,98	86,00
-6115,86	62,00
-6099,78	114,00
-6083,72	23,00
-6067,69	-55,00
-6051,69	44,00
-6035,72	121,00
-6019,78	133,00
-6003,87	139,00
-5987,98	222,00
-5972,12	380,00
-5956,29	303,00
-5940,49	259,00
-5924,71	160,00
-5908,96	87,00
-5893,24	119,00
-5877,55	143,00
-5861,89	145,00
-5846,25	58,00
-5830,64	73,00
-5815,05	65,00
-5799,50	68,00
-5783,97	154,00
-5768,47	179,00
-5752,99	244,00
-5737,55	266,00
-5722,12	237,00
-5706,73	341,00
-5691,36	172,00
-5676,02	278,00
-5660,71	168,00
-5645,42	199,00
-5630,16	151,00
-5614,92	256,00
-5599,71	153,00
-5584,53	-20,00
-5569,37	162,00
-5554,24	1269,00
-5539,14	205,00
-5524,06	58,00
-5509,01	265,00
-5493,98	70,00
-5478,98	175,00
-5464,00	198,00
-5449,05	96,00
-5434,13	148,00
-5419,23	82,00
-5404,36	142,00
-5389,51	306,00
-5374,69	313,00
-5359,89	110,00
-5345,12	266,00
-5330,37	385,00
-5315,65	234,00
-5300,95	331,00
-5286,28	116,00
-5271,63	187,00
-5257,01	87,00
-5242,41	197,00
-5227,84	50,00
-5213,29	24,00
-5198,76	-21,00
-5184,26	93,00
-5169,79	154,00
-5155,33	198,00
-5140,91	168,00
-5126,51	214,00
-5112,13	171,00
-5097,77	255,00
-5083,44	62,00
-5069,13	33,00
-5054,85	151,00
-5040,59	150,00
-5026,36	62,00
-5012,15	178,00
-4997,96	100,00
-4983,80	33,00
-4969,66	88,00
-4955,54	100,00
-4941,44	164,00
-4927,37	190,00
-4913,33	349,00
-4899,30	245,00
-4885,30	350,00
-4871,33	285,00
-4857,37	143,00
-4843,44	141,00
-4829,53	82,00
-4815,65	158,00
-4801,79	161,00
-4787,95	-21,00
-4774,13	249,00
-4760,34	107,00
-4746,56	69,00
-4732,82	14,00
-4719,09	200,00
-4705,38	221,00
-4691,70	244,00
-4678,04	276,00
-4664,41	196,00
-4650,79	162,00
-4637,20	128,00
-4623,63	167,00
-4610,08	121,00
-4596,56	-28,00
-4583,05	279,00
-4569,57	136,00
-4556,11	152,00
-4542,67	89,00
-4529,25	117,00
-4515,86	79,00
-4502,49	350,00
-4489,13	164,00
-4475,80	240,00
-4462,49	234,00
-4449,21	139,00
-4435,94	198,00
-4422,70	153,00
-4409,47	129,00
-4396,27	211,00
-4383,09	135,00
-4369,93	142,00
-4356,79	83,00
-4343,67	-4,00
-4330,58	75,00
-4317,50	154,00
-4304,45	112,00
-4291,41	85,00
-4278,40	-43,00
-4265,41	60,00
-4252,44	154,00
-4239,49	142,00
-4226,55	186,00
-4213,65	135,00
-4200,76	158,00
-4187,89	75,00
-4175,04	120,00
-4162,21	110,00
-4149,40	128,00
-4136,61	194,00
-4123,85	99,00
-4111,10	45,00
-4098,37	108,00
-4085,66	169,00
-4072,98	184,00
-4060,31	117,00
-4047,66	134,00
-4035,04	80,00
-4022,43	84,00
-4009,84	187,00
-3997,27	63,00
-3984,72	151,00
-3972,19	12,00
-3959,69	-97,00
-3947,20	88,00
-3934,73	29,00
-3922,27	65,00
-3909,84	126,00
-3897,43	134,00
-3885,04	11,00
-3872,67	13,00
-3860,31	13,00
-3847,98	128,00
-3835,66	34,00
-3823,36	18,00
-3811,09	-5,00
-3798,83	43,00
-3786,59	126,00
-3774,37	143,00
-3762,17	131,00
-3749,98	79,00
-3737,82	30,00
-3725,67	59,00
-3713,55	65,00
-3701,44	44,00
-3689,35	119,00
-3677,28	8,00
-3665,22	-74,00
-3653,19	89,00
-3641,17	40,00
-3629,18	151,00
-3617,20	137,00
-3605,24	203,00
-3593,30	-15,00
-3581,37	4,00
-3569,47	68,00
-3557,58	133,00
-3545,71	83,00
-3533,86	111,00
-3522,02	-22,00
-3510,21	107,00
-3498,41	14,00
-3486,63	169,00
-3474,87	130,00
-3463,12	151,00
-3451,40	102,00
-3439,69	191,00
-3428,00	211,00
-3416,33	11,00
-3404,67	79,00
-3393,03	195,00
-3381,41	71,00
-3369,81	-41,00
-3358,22	239,00
-3346,66	98,00
-3335,10	146,00
-3323,57	115,00
-3312,06	68,00
-3300,56	32,00
-3289,08	72,00
-3277,61	59,00
-3266,16	113,00
-3254,73	226,00
-3243,32	57,00
-3231,92	99,00
-3220,55	146,00
-3209,18	79,00
-3197,84	145,00
-3186,51	43,00
-3175,20	69,00
-3163,90	46,00
-3152,63	95,00
-3141,36	-49,00
-3130,12	104,00
-3118,89	116,00
-3107,68	198,00
-3096,49	-6,00
-3085,31	52,00
-3074,15	118,00
-3063,00	44,00
-3051,87	56,00
-3040,76	74,00
-3029,67	222,00
-3018,59	-68,00
-3007,52	119,00
-2996,48	67,00
-2985,44	208,00
-2974,43	30,00
-2963,43	37,00
-2952,45	95,00
-2941,48	-1,00
-2930,53	3,00
-2919,60	152,00
-2908,68	192,00
-2897,78	105,00
-2886,89	135,00
-2876,02	128,00
-2865,17	172,00
-2854,33	128,00
-2843,50	83,00
-2832,70	143,00
-2821,90	173,00
-2811,13	17,00
-2800,37	44,00
-2789,62	77,00
-2778,89	215,00
-2768,18	137,00
-2757,48	-17,00
-2746,80	38,00
-2736,13	109,00
-2725,48	168,00
-2714,84	21,00
-2704,22	111,00
-2693,61	55,00
-2683,02	-10,00
-2672,45	209,00
-2661,89	104,00
-2651,34	-36,00
-2640,81	-5,00
-2630,30	93,00
-2619,80	132,00
-2609,31	25,00
-2598,84	32,00
-2588,39	-29,00
-2577,95	71,00
-2567,52	53,00
-2557,11	10,00
-2546,71	152,00
-2536,33	155,00
-2525,97	51,00
-2515,62	78,00
-2505,28	110,00
-2494,96	50,00
-2484,65	4,00
-2474,36	444,00
-2464,08	109,00
-2453,82	84,00
-2443,57	205,00
-2433,33	40,00
-2423,11	154,00
-2412,91	123,00
-2402,72	46,00
-2392,54	167,00
-2382,38	71,00
-2372,23	94,00
-2362,09	428,00
-2351,97	175,00
-2341,87	-7,00
-2331,78	23,00
-2321,70	-90,00
-2311,64	135,00
-2301,59	59,00
-2291,55	54,00
-2281,53	61,00
-2271,53	83,00
-2261,53	207,00
-2251,55	16,00
-2241,59	132,00
-2231,64	52,00
-2221,70	56,00
-2211,78	118,00
-2201,87	106,00
-2191,97	124,00
-2182,09	-43,00
-2172,22	222,00
-2162,37	-27,00
-2152,53	174,00
-2142,70	50,00
-2132,89	22,00
-2123,09	0,00
-2113,30	38,00
-2103,53	82,00
-2093,77	104,00
-2084,02	56,00
-2074,29	100,00
-2064,57	99,00
-2054,86	87,00
-2045,17	71,00
-2035,49	69,00
-2025,82	43,00
-2016,17	75,00
-2006,53	71,00
-1996,91	16,00
-1987,29	104,00
-1977,69	31,00
-1968,11	100,00
-1958,53	111,00
-1948,97	62,00
-1939,42	191,00
-1929,89	42,00
-1920,37	168,00
-1910,86	26,00
-1901,36	40,00
-1891,88	267,00
-1882,41	95,00
-1872,95	116,00
-1863,51	6,00
-1854,08	55,00
-1844,66	87,00
-1835,26	136,00
-1825,86	153,00
-1816,48	27,00
-1807,11	81,00
-1797,76	27,00
-1788,42	73,00
-1779,09	35,00
-1769,77	98,00
-1760,47	118,00
-1751,17	-33,00
-1741,89	9,00
-1732,63	137,00
-1723,37	235,00
-1714,13	174,00
-1704,90	-64,00
-1695,68	89,00
-1686,48	57,00
-1677,29	198,00
-1668,11	237,00
-1658,94	175,00
-1649,78	149,00
-1640,64	64,00
-1631,51	47,00
-1622,39	125,00
-1613,28	49,00
-1604,19	-30,00
-1595,10	44,00
-1586,03	40,00
-1576,97	65,00
-1567,93	46,00
-1558,89	18,00
-1549,87	36,00
-1540,86	81,00
-1531,86	67,00
-1522,87	76,00
-1513,90	140,00
-1504,93	-85,00
-1495,98	63,00
-1487,04	179,00
-1478,12	65,00
-1469,20	15,00
-1460,30	105,00
-1451,40	78,00
-1442,52	148,00
-1433,65	110,00
-1424,80	263,00
-1415,95	29,00
-1407,12	206,00
-1398,30	182,00
-1389,48	121,00
-1380,69	42,00
-1371,90	43,00
-1363,12	41,00
-1354,36	74,00
-1345,60	90,00
-1336,86	103,00
-1328,13	107,00
-1319,41	55,00
-1310,70	128,00
-1302,01	164,00
-1293,32	74,00
-1284,65	196,00
-1275,99	118,00
-1267,33	127,00
-1258,69	32,00
-1250,06	79,00
-1241,45	82,00
-1232,84	58,00
-1224,25	84,00
-1215,66	70,00
-1207,09	22,00
-1198,53	26,00
-1189,97	267,00
-1181,43	18,00
-1172,91	144,00
-1164,39	118,00
-1155,88	120,00
-1147,38	-31,00
-1138,90	55,00
-1130,43	161,00
-1121,96	147,00
-1113,51	124,00
-1105,07	43,00
-1096,64	23,00
-1088,22	171,00
-1079,81	9,00
-1071,41	101,00
-1063,02	99,00
-1054,65	182,00
-1046,28	8,00
-1037,92	82,00
-1029,58	75,00
-1021,24	103,00
-1012,92	107,00
-1004,61	-34,00
-996,30	109,00
-988,01	74,00
-979,73	113,00
-971,46	128,00
-963,20	-30,00
-954,95	71,00
-946,71	9,00
-938,48	114,00
-930,26	113,00
-922,06	119,00
-913,86	128,00
-905,67	39,00
-897,49	45,00
-889,33	101,00
-881,17	58,00
-873,02	48,00
-864,89	69,00
-856,76	132,00
-848,65	60,00
-840,54	43,00
-832,45	36,00
-824,36	132,00
-816,29	143,00
-808,22	118,00
-800,17	-66,00
-792,12	149,00
-784,09	81,00
-776,06	5,00
-768,05	132,00
-760,04	-50,00
-752,05	149,00
-744,07	6,00
-736,09	-31,00
-728,13	161,00
-720,17	57,00
-712,23	129,00
-704,29	50,00
-696,37	120,00
-688,45	107,00
-680,55	109,00
-672,65	151,00
-664,77	131,00
-656,89	81,00
-649,03	102,00
-641,17	114,00
-633,32	144,00
-625,49	129,00
-617,66	101,00
-609,84	69,00
-602,03	19,00
-594,23	94,00
-586,45	145,00
-578,67	-9,00
-570,90	24,00
-563,14	92,00
-555,39	-17,00
-547,65	81,00
-539,91	52,00
-532,19	81,00
-524,48	72,00
-516,78	36,00
-509,08	131,00
-501,40	106,00
-493,72	62,00
-486,06	128,00
-478,40	142,00
-470,76	153,00
-463,12	225,00
-455,49	0,00
-447,87	147,00
-440,26	37,00
-432,66	4,00
-425,07	-25,00
-417,49	126,00
-409,92	41,00
-402,35	174,00
-394,80	42,00
-387,25	96,00
-379,72	-7,00
-372,19	170,00
-364,67	173,00
-357,17	116,00
-349,67	112,00
-342,18	211,00
-334,69	-14,00
-327,22	26,00
-319,76	75,00
-312,30	261,00
-304,86	79,00
-297,42	87,00
-290,00	125,00
-282,58	133,00
-275,17	135,00
-267,77	122,00
-260,37	186,00
-252,99	58,00
-245,62	29,00
-238,25	151,00
-230,90	124,00
-223,55	47,00
-216,21	204,00
-208,88	121,00
-201,56	263,00
-194,25	215,00
-186,94	293,00
-179,65	199,00
-172,36	233,00
-165,08	366,00
-157,81	209,00
-150,55	429,00
-143,30	389,00
-136,06	468,00
-128,82	433,00
-121,60	468,00
-114,38	399,00
-107,17	605,00
-99,97	640,00
-92,78	642,00
-85,60	708,00
-78,42	1052,00
-71,25	1036,00
-64,10	1259,00
-56,95	1487,00
-49,81	1650,00
-42,67	1923,00
-35,55	2450,00
-28,43	3343,00
-21,33	5454,00
-14,23	18124,00
-7,14	55164,00
-0,05	54791,00
7,02	54542,00
14,09	54846,00
21,14	16250,00
28,19	6787,00
35,23	4240,00
42,27	3231,00
49,29	2648,00
56,31	2178,00
63,32	1874,00
70,32	1566,00
77,31	1388,00
84,29	1175,00
91,27	1179,00
98,23	902,00
105,19	897,00
112,14	1056,00
119,09	1435,00
126,02	2397,00
132,95	2632,00
139,87	2799,00
146,78	2633,00
153,68	2596,00
160,58	2458,00
167,46	2399,00
174,34	2618,00
181,21	2633,00
188,08	2504,00
194,93	2355,00
201,78	2359,00
208,62	2356,00
215,45	2394,00
222,27	2445,00
229,09	2447,00
235,90	2362,00
242,70	2382,00
249,49	2306,00
256,27	2260,00
263,05	2374,00
269,82	2311,00
276,58	2168,00
283,33	2170,00
290,08	2344,00
296,82	2242,00
303,55	2241,00
310,27	2138,00
316,98	2051,00
323,69	2267,00
330,39	2027,00
337,08	2131,00
343,76	2109,00
350,44	2186,00
357,11	2062,00
363,77	2059,00
370,42	2119,00
377,07	2125,00
383,71	2113,00
390,34	1977,00
396,96	1936,00
403,58	2053,00
410,19	2041,00
416,79	1923,00
423,38	2055,00
429,97	1866,00
436,55	2028,00
443,12	1868,00
449,68	1853,00
456,24	1857,00
462,79	1664,00
469,33	1772,00
475,86	1671,00
482,39	1707,00
488,91	1903,00
495,42	1784,00
501,93	1718,00
508,42	1710,00
514,91	1684,00
521,40	1683,00
527,87	1642,00
534,34	1604,00
540,80	1662,00
547,25	1582,00
553,70	1667,00
560,14	1592,00
566,57	1727,00
573,00	1620,00
579,41	1530,00
585,83	1587,00
592,23	1486,00
598,62	1580,00
605,01	1596,00
611,40	1584,00
617,77	1522,00
624,14	1469,00
630,50	1619,00
636,85	1498,00
643,20	1454,00
649,54	1579,00
655,87	1448,00
662,20	1430,00
668,52	1467,00
674,83	1443,00
681,13	1417,00
687,43	1220,00
693,72	1381,00
700,00	1474,00
706,28	1342,00
712,55	1332,00
718,81	1463,00
725,07	1434,00
731,32	1357,00
737,56	1429,00
743,79	1379,00
750,02	1479,00
756,24	1375,00
762,46	1329,00
768,67	1304,00
774,87	1261,00
781,06	1350,00
787,25	1350,00
793,43	1331,00
799,60	1330,00
805,77	1222,00
811,93	1466,00
818,08	1352,00
824,23	1397,00
830,37	1307,00
836,50	1383,00
842,63	1306,00
848,75	1320,00
854,87	1304,00
860,97	1380,00
867,07	1383,00
873,17	1108,00
879,25	1264,00
885,33	1273,00
891,41	1254,00
897,47	1181,00
903,53	1337,00
909,59	1324,00
915,63	1303,00
921,67	1115,00
927,71	1164,00
933,74	1188,00
939,76	1138,00
945,77	1056,00
951,78	1122,00
957,78	1104,00
963,78	1122,00
969,77	1112,00
975,75	1173,00
981,72	1098,00
987,69	1398,00
993,66	1119,00
999,61	1203,00
1005,56	1074,00
1011,51	1180,00
1017,44	1161,00
1023,37	1097,00
1029,30	1167,00
1035,22	1190,00
1041,13	1241,00
1047,03	1126,00
1052,93	1264,00
1058,83	1422,00
1064,71	1510,00
1070,59	1396,00
1076,47	1335,00
1082,33	1297,00
1088,20	1210,00
1094,05	1103,00
1099,90	1114,00
1105,74	1125,00
1111,58	1164,00
1117,41	1184,00
1123,23	1295,00
1129,05	1444,00
1134,86	1298,00
1140,67	1105,00
1146,47	1201,00
1152,26	1058,00
1158,05	1059,00
1163,83	1087,00
1169,60	1198,00
1175,37	1053,00
1181,13	1029,00
1186,89	1129,00
1192,64	1109,00
1198,38	1076,00
1204,12	1014,00
1209,85	1102,00
1215,58	1113,00
1221,30	932,00
1227,02	1147,00
1232,72	1098,00
1238,43	984,00
1244,12	1171,00
1249,81	1042,00
1255,50	1204,00
1261,17	1103,00
1266,85	1275,00
1272,51	1175,00
1278,17	1078,00
1283,83	1206,00
1289,47	1428,00
1295,12	1797,00
1300,75	1669,00
1306,38	1326,00
1312,01	1349,00
1317,63	1215,00
1323,24	1165,00
1328,85	1287,00
1334,45	1165,00
1340,04	1152,00
1345,63	1161,00
1351,22	1203,00
1356,80	1232,00
1362,37	1044,00
1367,93	1130,00
1373,49	1258,00
1379,05	1127,00
1384,60	1225,00
1390,14	1153,00
1395,68	1152,00
1401,21	1090,00
1406,74	1041,00
1412,26	1178,00
1417,77	1271,00
1423,28	1287,00
1428,78	1487,00
1434,28	1608,00
1439,77	1874,00
1445,26	1736,00
1450,74	1667,00
1456,22	1540,00
1461,68	1467,00
1467,15	1406,00
1472,61	1343,00
1478,06	1265,00
1483,51	1120,00
1488,95	1119,00
1494,38	1153,00
1499,81	1114,00
1505,24	974,00
1510,65	877,00
1516,07	1121,00
1521,48	1061,00
1526,88	918,00
1532,27	958,00
1537,67	1056,00
1543,05	1054,00
1548,43	981,00
1553,81	1094,00
1559,18	955,00
1564,54	885,00
1569,90	911,00
1575,25	1040,00
1580,60	889,00
1585,94	843,00
1591,28	888,00
1596,61	864,00
1601,93	1001,00
1607,25	985,00
1612,57	961,00
1617,88	985,00
1623,18	900,00
1628,48	888,00
1633,77	881,00
1639,06	710,00
1644,34	858,00
1649,62	913,00
1654,89	943,00
1660,16	850,00
1665,42	758,00
1670,67	909,00
1675,92	776,00
1681,17	827,00
1686,41	779,00
1691,64	814,00
1696,87	817,00
1702,10	711,00
1707,32	851,00
1712,53	815,00
1717,74	777,00
1722,94	652,00
1728,14	789,00
1733,33	765,00
1738,52	704,00
1743,70	829,00
1748,88	641,00
1754,05	749,00
1759,22	712,00
1764,38	677,00
1769,53	734,00
1774,69	680,00
1779,83	768,00
1784,97	690,00
1790,11	804,00
1795,24	741,00
1800,36	760,00
1805,48	715,00
1810,60	721,00
1815,71	603,00
1820,82	659,00
1825,92	658,00
1831,01	755,00
1836,10	575,00
1841,19	752,00
1846,26	731,00
1851,34	650,00
1856,41	675,00
1861,47	679,00
1866,53	671,00
1871,59	541,00
1876,64	621,00
1881,68	489,00
1886,72	581,00
1891,76	746,00
1896,79	668,00
1901,81	647,00
1906,83	620,00
1911,85	606,00
1916,86	623,00
1921,86	579,00
1926,86	593,00
1931,86	668,00
1936,85	493,00
1941,83	628,00
1946,81	600,00
1951,79	588,00
1956,76	612,00
1961,72	415,00
1966,68	587,00
1971,64	488,00
1976,59	606,00
1981,54	542,00
1986,48	454,00
1991,42	495,00
1996,35	500,00
2001,27	469,00
2006,20	443,00
2011,11	571,00
2016,03	585,00
2020,93	469,00
2025,84	515,00
2030,73	421,00
2035,63	512,00
2040,52	608,00
2045,40	595,00
2050,28	500,00
2055,15	396,00
2060,02	612,00
2064,89	414,00
2069,75	455,00
2074,60	273,00
2079,46	447,00
2084,30	418,00
2089,14	475,00
2093,98	483,00
2098,81	523,00
2103,64	480,00
2108,46	497,00
2113,28	432,00
2118,09	275,00
2122,90	458,00
2127,70	345,00
2132,50	526,00
2137,30	384,00
2142,09	524,00
2146,87	413,00
2151,66	465,00
2156,43	466,00
2161,20	456,00
2165,97	365,00
2170,73	565,00
2175,49	506,00
2180,24	506,00
2184,99	627,00
2189,74	469,00
2194,48	480,00
2199,21	425,00
2203,94	305,00
2208,67	313,00
2213,39	474,00
2218,11	305,00
2222,82	438,00
2227,53	431,00
2232,23	385,00
2236,93	311,00
2241,63	327,00
2246,32	403,00
2251,00	375,00
2255,68	447,00
2260,36	284,00
2265,03	384,00
2269,70	338,00
2274,36	337,00
2279,02	338,00
2283,68	408,00
2288,33	293,00
2292,97	299,00
2297,61	329,00
2302,25	370,00
2306,88	406,00
2311,51	388,00
2316,14	257,00
2320,75	477,00
2325,37	355,00
2329,98	417,00
2334,59	372,00
2339,19	349,00
2343,79	232,00
2348,38	284,00
2352,97	378,00
2357,55	272,00
2362,13	371,00
2366,71	514,00
2371,28	342,00
2375,85	342,00
2380,41	300,00
2384,97	336,00
2389,52	335,00
2394,07	289,00
2398,62	281,00
2403,16	302,00
2407,70	338,00
2412,23	361,00
2416,76	401,00
2421,29	373,00
2425,81	224,00
2430,32	401,00
2434,84	256,00
2439,34	335,00
2443,85	157,00
2448,35	320,00
2452,84	284,00
2457,33	254,00
2461,82	382,00
2466,30	293,00
2470,78	378,00
2475,25	389,00
2479,72	229,00
2484,19	270,00
2488,65	366,00
2493,11	286,00
2497,56	249,00
2502,01	247,00
2506,46	352,00
2510,90	212,00
2515,34	293,00
2519,77	272,00
2524,20	284,00
2528,62	132,00
2533,04	359,00
2537,46	310,00
2541,87	276,00
2546,28	372,00
2550,68	247,00
2555,08	233,00
2559,48	274,00
2563,87	229,00
2568,26	248,00
2572,64	299,00
2577,02	341,00
2581,40	304,00
2585,77	185,00
2590,14	195,00
2594,50	213,00
2598,86	305,00
2603,22	215,00
2607,57	229,00
2611,92	188,00
2616,26	205,00
2620,60	289,00
2624,94	283,00
2629,27	317,00
2633,60	100,00
2637,92	248,00
2642,24	328,00
2646,56	184,00
2650,87	189,00
2655,18	205,00
2659,48	174,00
2663,78	241,00
2668,08	308,00
2672,37	301,00
2676,66	264,00
2680,95	283,00
2685,23	230,00
2689,50	346,00
2693,78	216,00
2698,05	251,00
2702,31	202,00
2706,57	359,00
2710,83	273,00
2715,08	402,00
2719,33	371,00
2723,58	356,00
2727,82	365,00
2732,06	242,00
2736,29	344,00
2740,53	287,00
2744,75	256,00
2748,97	349,00
2753,19	332,00
2757,41	364,00
2761,62	297,00
2765,83	243,00
2770,03	235,00
2774,23	168,00
2778,43	284,00
2782,62	327,00
2786,81	227,00
2791,00	193,00
2795,18	348,00
2799,35	272,00
2803,53	397,00
2807,70	455,00
2811,86	288,00
2816,03	446,00
2820,19	344,00
2824,34	360,00
2828,49	590,00
2832,64	477,00
2836,78	668,00
2840,92	822,00
2845,06	816,00
2849,19	882,00
2853,32	986,00
2857,45	998,00
2861,57	1031,00
2865,69	1034,00
2869,80	969,00
2873,91	984,00
2878,02	1071,00
2882,12	1052,00
2886,22	1086,00
2890,32	1077,00
2894,41	996,00
2898,50	1040,00
2902,58	898,00
2906,67	781,00
2910,74	800,00
2914,82	750,00
2918,89	676,00
2922,96	715,00
2927,02	511,00
2931,08	680,00
2935,13	482,00
2939,19	576,00
2943,24	431,00
2947,28	401,00
2951,32	412,00
2955,36	399,00
2959,40	289,00
2963,43	280,00
2967,46	293,00
2971,48	368,00
2975,50	285,00
2979,52	339,00
2983,53	241,00
2987,54	337,00
2991,55	229,00
2995,55	201,00
2999,55	167,00
3003,54	242,00
3007,54	131,00
3011,53	215,00
3015,51	223,00
3019,49	110,00
3023,47	213,00
3027,45	256,00
3031,42	161,00
3035,39	75,00
3039,35	166,00
3043,31	60,00
3047,27	176,00
3051,22	226,00
3055,17	193,00
3059,12	12,00
3063,06	213,00
3067,00	130,00
3070,94	142,00
3074,87	177,00
3078,80	187,00
3082,73	121,00
3086,65	73,00
3090,57	117,00
3094,49	129,00
3098,40	155,00
3102,31	197,00
3106,22	110,00
3110,12	88,00
3114,02	282,00
3117,92	168,00
3121,81	163,00
3125,70	127,00
3129,58	85,00
3133,47	170,00
3137,34	145,00
3141,22	106,00
3145,09	149,00
3148,96	207,00
3152,83	237,00
3156,69	-7,00
3160,55	209,00
3164,40	45,00
3168,26	105,00
3172,10	169,00
3175,95	178,00
3179,79	69,00
3183,63	174,00
3187,47	160,00
3191,30	163,00
3195,13	139,00
3198,95	0,00
3202,78	68,00
3206,60	112,00
3210,41	69,00
3214,23	88,00
3218,03	45,00
3221,84	153,00
3225,64	86,00
3229,44	184,00
3233,24	314,00
3237,03	225,00
3240,82	28,00
3244,61	56,00
3248,39	128,00
3252,17	136,00
3255,95	200,00
3259,72	180,00
3263,49	167,00
3267,26	56,00
3271,03	79,00
3274,79	140,00
3278,54	161,00
3282,30	175,00
3286,05	139,00
3289,80	110,00
3293,54	199,00
3297,29	150,00
3301,02	80,00
3304,76	112,00
3308,49	68,00
3312,22	9,00
3315,95	178,00
3319,67	148,00
3323,39	126,00
3327,10	91,00
3330,82	188,00
3334,53	43,00
3338,24	58,00
3341,94	171,00
3345,64	154,00
3349,34	77,00
3353,03	154,00
3356,72	66,00
3360,41	17,00
3364,10	171,00
3367,78	209,00
3371,46	159,00
3375,13	141,00
3378,81	114,00
3382,48	105,00
3386,14	169,00
3389,81	75,00
3393,47	61,00
3397,12	188,00
3400,78	73,00
3404,43	140,00
3408,08	-23,00
3411,72	74,00
3415,36	18,00
3419,00	6,00
3422,64	-40,00
3426,27	188,00
3429,90	140,00
3433,53	78,00
3437,15	121,00
3440,77	134,00
3444,39	68,00
3448,00	-30,00
3451,62	265,00
3455,22	129,00
3458,83	113,00
3462,43	140,00
3466,03	134,00
3469,63	21,00
3473,22	84,00
3476,81	95,00
3480,40	191,00
3483,99	43,00
3487,57	172,00
3491,15	107,00
3494,72	105,00
3498,29	101,00
3501,86	23,00
3505,43	162,00
3508,99	13,00
3512,56	85,00
3516,11	89,00
3519,67	70,00
3523,22	79,00
3526,77	64,00
3530,32	57,00
3533,86	-24,00
3537,40	51,00
3540,94	113,00
3544,47	-43,00
3548,00	259,00
3551,53	173,00
3555,06	145,00
3558,58	64,00
3562,10	11,00
3565,62	124,00
3569,13	97,00
3572,64	130,00
3576,15	77,00
3579,66	51,00
3583,16	97,00
3586,66	17,00
3590,16	13,00
3593,65	79,00
3597,14	30,00
3600,63	139,00
3604,11	39,00
3607,60	70,00
3611,08	206,00
3614,55	-15,00
3618,03	81,00
3621,50	69,00
3624,97	93,00
3628,43	91,00
3631,90	-5,00
3635,36	176,00
3638,81	128,00
3642,27	24,00
3645,72	84,00
3649,17	64,00
3652,61	125,00
3656,06	23,00
3659,50	124,00
3662,93	40,00
3666,37	47,00
3669,80	-3,00
3673,23	61,00
3676,65	121,00
3680,08	185,00
3683,50	42,00
3686,92	20,00
3690,33	96,00
3693,74	100,00
3697,15	142,00
3700,56	86,00
3703,96	41,00
3707,36	63,00
3710,76	21,00
3714,16	82,00
3717,55	61,00
3720,94	93,00
3724,33	7,00
3727,71	96,00
3731,10	101,00
3734,48	45,00
3737,85	-77,00
3741,23	34,00
3744,60	-70,00
3747,97	-18,00
3751,33	206,00
3754,69	120,00
3758,05	158,00
3761,41	23,00
3764,77	25,00
3768,12	-13,00
3771,47	114,00
3774,82	61,00
3778,16	-1,00
3781,50	4,00
3784,84	4,00
3788,18	6,00
>>>>>End Processed Spectral Data<<<<<
