SpectraSuite Data File
++++++++++++++++++++++++++++++++++++
Date: Mon Mar 09 15:43:38 ICT 2026
User: Administrator
Dark Spectrum Present: Yes
Reference Spectrum Present: No
Number of Sampled Component Spectra: 1
Spectrometers: MAYP113682
Integration Time (usec): 3000000 (MAYP113682)
Spectra Averaged: 1 (MAYP113682)
Boxcar Smoothing: 0 (MAYP113682)
Correct for Electrical Dark: No (MAYP113682)
Strobe/Lamp Enabled: No (MAYP113682)
Correct for Detector Non-linearity: No (MAYP113682)
Correct for Stray Light: No (MAYP113682)
Number of Pixels in Processed Spectrum: 2068
>>>>>Begin Processed Spectral Data<<<<<
-37534,58	6,00
-37414,56	-6,00
-37295,11	7,00
-37176,24	3,00
-37057,95	196,00
-36940,22	183,00
-36823,05	212,00
-36706,45	325,00
-36590,40	217,00
-36474,90	273,00
-36359,95	386,00
-36245,55	301,00
-36131,68	213,00
-36018,35	298,00
-35905,55	232,00
-35793,29	357,00
-35681,54	310,00
-35570,32	264,00
-35459,62	289,00
-35349,43	191,00
-35239,75	272,00
-35130,58	334,00
-35021,91	316,00
-34913,74	213,00
-34806,07	362,00
-34698,89	244,00
-34592,20	200,00
-34486,00	351,00
-34380,28	252,00
-34275,04	295,00
-34170,27	401,00
-34065,98	211,00
-33962,16	395,00
-33858,81	356,00
-33755,92	328,00
-33653,49	295,00
-33551,52	317,00
-33450,01	394,00
-33348,94	273,00
-33248,33	222,00
-33148,16	358,00
-33048,43	383,00
-32949,14	307,00
-32850,29	341,00
-32751,87	281,00
-32653,89	410,00
-32556,33	242,00
-32459,20	224,00
-32362,49	331,00
-32266,19	254,00
-32170,32	306,00
-32074,86	407,00
-31979,82	413,00
-31885,18	248,00
-31790,95	306,00
-31697,12	289,00
-31603,69	382,00
-31510,67	308,00
-31418,04	339,00
-31325,80	207,00
-31233,95	417,00
-31142,49	338,00
-31051,42	347,00
-30960,73	360,00
-30870,43	395,00
-30780,50	266,00
-30690,95	435,00
-30601,77	332,00
-30512,97	307,00
-30424,53	239,00
-30336,46	337,00
-30248,76	327,00
-30161,42	355,00
-30074,44	338,00
-29987,81	339,00
-29901,55	388,00
-29815,63	316,00
-29730,07	313,00
-29644,86	195,00
-29560,00	471,00
-29475,48	314,00
-29391,30	300,00
-29307,47	320,00
-29223,97	309,00
-29140,81	385,00
-29057,99	298,00
-28975,50	245,00
-28893,34	461,00
-28811,51	245,00
-28730,00	377,00
-28648,82	342,00
-28567,97	412,00
-28487,43	288,00
-28407,21	353,00
-28327,32	245,00
-28247,73	370,00
-28168,46	328,00
-28089,50	208,00
-28010,85	324,00
-27932,51	346,00
-27854,48	261,00
-27776,75	325,00
-27699,32	380,00
-27622,19	392,00
-27545,37	360,00
-27468,84	387,00
-27392,60	392,00
-27316,66	277,00
-27241,01	302,00
-27165,66	356,00
-27090,59	234,00
-27015,81	380,00
-26941,31	331,00
-26867,10	340,00
-26793,17	391,00
-26719,52	340,00
-26646,15	268,00
-26573,06	290,00
-26500,24	199,00
-26427,70	381,00
-26355,43	220,00
-26283,43	328,00
-26211,71	338,00
-26140,25	237,00
-26069,06	265,00
-25998,13	264,00
-25927,46	259,00
-25857,06	335,00
-25786,92	348,00
-25717,04	354,00
-25647,42	383,00
-25578,05	233,00
-25508,94	274,00
-25440,09	413,00
-25371,48	416,00
-25303,13	265,00
-25235,02	229,00
-25167,17	261,00
-25099,56	361,00
-25032,19	371,00
-24965,07	346,00
-24898,20	231,00
-24831,56	280,00
-24765,17	324,00
-24699,01	256,00
-24633,10	335,00
-24567,41	410,00
-24501,97	293,00
-24436,75	339,00
-24371,77	270,00
-24307,03	327,00
-24242,51	347,00
-24178,22	311,00
-24114,16	311,00
-24050,32	437,00
-23986,71	263,00
-23923,32	401,00
-23860,16	351,00
-23797,22	307,00
-23734,50	327,00
-23672,00	240,00
-23609,71	216,00
-23547,65	256,00
-23485,80	365,00
-23424,16	306,00
-23362,74	392,00
-23301,53	273,00
-23240,54	269,00
-23179,75	462,00
-23119,17	336,00
-23058,80	304,00
-22998,64	369,00
-22938,68	255,00
-22878,93	325,00
-22819,39	245,00
-22760,04	264,00
-22700,90	226,00
-22641,96	412,00
-22583,22	217,00
-22524,68	335,00
-22466,33	255,00
-22408,19	469,00
-22350,23	327,00
-22292,48	336,00
-22234,92	377,00
-22177,55	269,00
-22120,37	341,00
-22063,38	355,00
-22006,58	333,00
-21949,98	417,00
-21893,56	346,00
-21837,33	365,00
-21781,28	328,00
-21725,42	347,00
-21669,74	324,00
-21614,25	283,00
-21558,94	216,00
-21503,81	332,00
-21448,86	341,00
-21394,10	306,00
-21339,51	376,00
-21285,10	306,00
-21230,86	297,00
-21176,81	346,00
-21122,93	289,00
-21069,22	341,00
-21015,69	265,00
-20962,33	300,00
-20909,14	328,00
-20856,13	257,00
-20803,28	374,00
-20750,61	341,00
-20698,10	224,00
-20645,76	339,00
-20593,59	403,00
-20541,59	280,00
-20489,75	438,00
-20438,07	367,00
-20386,56	338,00
-20335,22	347,00
-20284,03	216,00
-20233,01	378,00
-20182,15	277,00
-20131,45	428,00
-20080,91	265,00
-20030,52	280,00
-19980,30	313,00
-19930,23	326,00
-19880,32	469,00
-19830,56	189,00
-19780,96	239,00
-19731,52	347,00
-19682,23	318,00
-19633,09	293,00
-19584,10	380,00
-19535,26	327,00
-19486,58	344,00
-19438,04	379,00
-19389,66	409,00
-19341,42	277,00
-19293,33	287,00
-19245,39	250,00
-19197,60	325,00
-19149,95	386,00
-19102,45	302,00
-19055,09	272,00
-19007,87	361,00
-18960,80	323,00
-18913,87	394,00
-18867,09	204,00
-18820,44	300,00
-18773,94	434,00
-18727,57	339,00
-18681,35	234,00
-18635,26	246,00
-18589,31	239,00
-18543,50	362,00
-18497,83	364,00
-18452,29	304,00
-18406,89	297,00
-18361,63	308,00
-18316,50	434,00
-18271,50	326,00
-18226,63	341,00
-18181,90	418,00
-18137,30	263,00
-18092,84	256,00
-18048,50	232,00
-18004,29	282,00
-17960,22	342,00
-17916,27	236,00
-17872,45	281,00
-17828,76	313,00
-17785,20	330,00
-17741,77	180,00
-17698,46	207,00
-17655,28	394,00
-17612,22	357,00
-17569,29	264,00
-17526,48	201,00
-17483,79	323,00
-17441,23	176,00
-17398,79	255,00
-17356,48	319,00
-17314,28	300,00
-17272,21	339,00
-17230,26	213,00
-17188,42	368,00
-17146,71	325,00
-17105,12	275,00
-17063,64	353,00
-17022,28	292,00
-16981,04	355,00
-16939,92	322,00
-16898,91	371,00
-16858,02	301,00
-16817,25	346,00
-16776,59	362,00
-16736,04	320,00
-16695,61	404,00
-16655,29	254,00
-16615,09	393,00
-16574,99	336,00
-16535,01	301,00
-16495,15	351,00
-16455,39	281,00
-16415,74	297,00
-16376,21	255,00
-16336,78	253,00
-16297,46	188,00
-16258,26	223,00
-16219,16	325,00
-16180,17	313,00
-16141,28	337,00
-16102,51	165,00
-16063,84	342,00
-16025,27	337,00
-15986,82	366,00
-15948,46	281,00
-15910,22	314,00
-15872,07	330,00
-15834,04	345,00
-15796,10	317,00
-15758,27	443,00
-15720,54	286,00
-15682,91	285,00
-15645,39	307,00
-15607,97	237,00
-15570,64	361,00
-15533,42	330,00
-15496,30	276,00
-15459,28	371,00
-15422,36	325,00
-15385,54	269,00
-15348,82	284,00
-15312,19	226,00
-15275,66	269,00
-15239,23	342,00
-15202,90	241,00
-15166,67	322,00
-15130,53	286,00
-15094,48	353,00
-15058,54	460,00
-15022,68	307,00
-14986,93	303,00
-14951,26	339,00
-14915,69	309,00
-14880,22	354,00
-14844,84	365,00
-14809,55	380,00
-14774,35	354,00
-14739,25	317,00
-14704,24	261,00
-14669,32	332,00
-14634,49	320,00
-14599,75	290,00
-14565,10	186,00
-14530,55	281,00
-14496,08	305,00
-14461,70	244,00
-14427,41	290,00
-14393,21	311,00
-14359,10	316,00
-14325,07	334,00
-14291,14	269,00
-14257,29	302,00
-14223,52	270,00
-14189,85	333,00
-14156,26	337,00
-14122,76	381,00
-14089,34	280,00
-14056,01	331,00
-14022,76	305,00
-13989,60	272,00
-13956,52	287,00
-13923,53	288,00
-13890,62	270,00
-13857,79	271,00
-13825,05	340,00
-13792,39	305,00
-13759,81	209,00
-13727,31	321,00
-13694,90	269,00
-13662,57	395,00
-13630,31	448,00
-13598,14	361,00
-13566,05	121,00
-13534,05	226,00
-13502,12	382,00
-13470,27	374,00
-13438,50	340,00
-13406,80	408,00
-13375,19	377,00
-13343,66	287,00
-13312,20	367,00
-13280,83	295,00
-13249,53	347,00
-13218,30	255,00
-13187,16	243,00
-13156,09	274,00
-13125,10	253,00
-13094,18	309,00
-13063,34	312,00
-13032,58	180,00
-13001,89	219,00
-12971,28	351,00
-12940,74	371,00
-12910,27	254,00
-12879,88	304,00
-12849,57	370,00
-12819,33	308,00
-12789,16	297,00
-12759,06	392,00
-12729,04	329,00
-12699,09	-644,00
-12669,21	333,00
-12639,41	250,00
-12609,68	204,00
-12580,02	234,00
-12550,43	391,00
-12520,91	262,00
-12491,46	318,00
-12462,08	359,00
-12432,77	217,00
-12403,54	280,00
-12374,37	235,00
-12345,27	357,00
-12316,24	280,00
-12287,29	302,00
-12258,40	212,00
-12229,57	361,00
-12200,82	383,00
-12172,14	302,00
-12143,52	112,00
-12114,97	281,00
-12086,49	283,00
-12058,07	333,00
-12029,73	308,00
-12001,44	446,00
-11973,23	188,00
-11945,08	369,00
-11917,00	357,00
-11888,98	239,00
-11861,03	332,00
-11833,15	232,00
-11805,32	244,00
-11777,57	333,00
-11749,88	202,00
-11722,25	270,00
-11694,69	270,00
-11667,19	395,00
-11639,75	317,00
-11612,38	340,00
-11585,07	271,00
-11557,83	349,00
-11530,65	253,00
-11503,53	319,00
-11476,47	392,00
-11449,48	283,00
-11422,54	310,00
-11395,67	310,00
-11368,86	346,00
-11342,11	354,00
-11315,43	284,00
-11288,80	344,00
-11262,23	245,00
-11235,73	327,00
-11209,28	324,00
-11182,90	330,00
-11156,57	425,00
-11130,31	376,00
-11104,10	298,00
-11077,96	308,00
-11051,87	310,00
-11025,84	269,00
-10999,87	182,00
-10973,96	212,00
-10948,11	280,00
-10922,31	239,00
-10896,58	405,00
-10870,90	449,00
-10845,28	311,00
-10819,71	339,00
-10794,20	332,00
-10768,75	346,00
-10743,36	330,00
-10718,02	237,00
-10692,74	330,00
-10667,52	278,00
-10642,35	369,00
-10617,24	311,00
-10592,18	290,00
-10567,18	194,00
-10542,23	378,00
-10517,34	256,00
-10492,51	306,00
-10467,72	315,00
-10443,00	331,00
-10418,32	294,00
-10393,70	287,00
-10369,14	359,00
-10344,63	388,00
-10320,17	352,00
-10295,77	399,00
-10271,42	337,00
-10247,12	378,00
-10222,88	395,00
-10198,68	301,00
-10174,54	405,00
-10150,46	369,00
-10126,42	309,00
-10102,44	430,00
-10078,51	211,00
-10054,63	315,00
-10030,80	291,00
-10007,03	308,00
-9983,30	385,00
-9959,63	364,00
-9936,01	386,00
-9912,44	291,00
-9888,92	384,00
-9865,44	363,00
-9842,02	417,00
-9818,65	335,00
-9795,33	286,00
-9772,06	395,00
-9748,84	321,00
-9725,67	334,00
-9702,55	421,00
-9679,47	402,00
-9656,45	362,00
-9633,47	367,00
-9610,55	322,00
-9587,67	431,00
-9564,84	547,00
-9542,06	388,00
-9519,32	289,00
-9496,64	427,00
-9474,00	481,00
-9451,41	292,00
-9428,87	452,00
-9406,37	466,00
-9383,92	499,00
-9361,52	401,00
-9339,17	530,00
-9316,86	424,00
-9294,60	407,00
-9272,38	597,00
-9250,21	594,00
-9228,09	463,00
-9206,01	501,00
-9183,98	647,00
-9162,00	394,00
-9140,06	559,00
-9118,16	530,00
-9096,31	474,00
-9074,51	435,00
-9052,75	482,00
-9031,04	542,00
-9009,37	388,00
-8987,74	493,00
-8966,16	526,00
-8944,63	591,00
-8923,14	369,00
-8901,69	575,00
-8880,29	441,00
-8858,93	514,00
-8837,61	398,00
-8816,34	456,00
-8795,11	313,00
-8773,92	452,00
-8752,78	376,00
-8731,68	585,00
-8710,62	481,00
-8689,61	349,00
-8668,63	396,00
-8647,70	360,00
-8626,82	312,00
-8605,97	454,00
-8585,17	328,00
-8564,41	459,00
-8543,69	545,00
-8523,01	475,00
-8502,37	400,00
-8481,78	491,00
-8461,23	482,00
-8440,71	448,00
-8420,24	361,00
-8399,81	487,00
-8379,42	583,00
-8359,08	503,00
-8338,77	364,00
-8318,50	514,00
-8298,27	523,00
-8278,09	341,00
-8257,94	335,00
-8237,83	459,00
-8217,76	325,00
-8197,74	322,00
-8177,75	443,00
-8157,80	345,00
-8137,89	319,00
-8118,02	258,00
-8098,19	316,00
-8078,40	442,00
-8058,65	490,00
-8038,93	481,00
-8019,26	351,00
-7999,62	434,00
-7980,02	368,00
-7960,46	418,00
-7940,94	369,00
-7921,46	533,00
-7902,01	283,00
-7882,60	448,00
-7863,23	327,00
-7843,90	453,00
-7824,61	398,00
-7805,35	470,00
-7786,13	311,00
-7766,95	389,00
-7747,80	355,00
-7728,69	530,00
-7709,62	361,00
-7690,59	442,00
-7671,59	514,00
-7652,63	257,00
-7633,70	361,00
-7614,81	251,00
-7595,96	328,00
-7577,15	257,00
-7558,37	335,00
-7539,62	405,00
-7520,91	283,00
-7502,24	474,00
-7483,60	458,00
-7465,00	375,00
-7446,44	406,00
-7427,91	246,00
-7409,41	464,00
-7390,95	380,00
-7372,53	307,00
-7354,14	340,00
-7335,78	370,00
-7317,46	369,00
-7299,18	325,00
-7280,92	260,00
-7262,71	390,00
-7244,52	385,00
-7226,38	456,00
-7208,26	410,00
-7190,18	362,00
-7172,14	576,00
-7154,12	451,00
-7136,15	204,00
-7118,20	432,00
-7100,29	351,00
-7082,41	428,00
-7064,57	334,00
-7046,76	313,00
-7028,98	326,00
-7011,24	531,00
-6993,53	317,00
-6975,85	568,00
-6958,20	447,00
-6940,59	382,00
-6923,01	332,00
-6905,46	434,00
-6887,94	376,00
-6870,46	3008,00
-6853,01	412,00
-6835,59	441,00
-6818,21	343,00
-6800,85	468,00
-6783,53	470,00
-6766,24	566,00
-6748,98	318,00
-6731,76	459,00
-6714,56	459,00
-6697,40	267,00
-6680,26	462,00
-6663,16	345,00
-6646,09	377,00
-6629,05	401,00
-6612,05	415,00
-6595,07	488,00
-6578,13	259,00
-6561,21	401,00
-6544,33	491,00
-6527,47	431,00
-6510,65	379,00
-6493,86	424,00
-6477,10	417,00
-6460,36	290,00
-6443,66	376,00
-6426,99	376,00
-6410,35	456,00
-6393,74	390,00
-6377,16	416,00
-6360,61	505,00
-6344,09	435,00
-6327,59	413,00
-6311,13	367,00
-6294,70	297,00
-6278,29	381,00
-6261,92	369,00
-6245,58	413,00
-6229,26	354,00
-6212,97	395,00
-6196,72	353,00
-6180,49	328,00
-6164,29	371,00
-6148,12	462,00
-6131,98	322,00
-6115,86	394,00
-6099,78	349,00
-6083,72	273,00
-6067,69	424,00
-6051,69	355,00
-6035,72	329,00
-6019,78	312,00
-6003,87	264,00
-5987,98	355,00
-5972,12	264,00
-5956,29	368,00
-5940,49	365,00
-5924,71	480,00
-5908,96	419,00
-5893,24	374,00
-5877,55	342,00
-5861,89	347,00
-5846,25	391,00
-5830,64	300,00
-5815,05	393,00
-5799,50	341,00
-5783,97	325,00
-5768,47	378,00
-5752,99	333,00
-5737,55	406,00
-5722,12	398,00
-5706,73	461,00
-5691,36	382,00
-5676,02	367,00
-5660,71	345,00
-5645,42	423,00
-5630,16	385,00
-5614,92	399,00
-5599,71	320,00
-5584,53	381,00
-5569,37	341,00
-5554,24	-20,00
-5539,14	401,00
-5524,06	316,00
-5509,01	409,00
-5493,98	430,00
-5478,98	393,00
-5464,00	418,00
-5449,05	432,00
-5434,13	496,00
-5419,23	417,00
-5404,36	398,00
-5389,51	254,00
-5374,69	436,00
-5359,89	370,00
-5345,12	364,00
-5330,37	544,00
-5315,65	289,00
-5300,95	405,00
-5286,28	259,00
-5271,63	360,00
-5257,01	509,00
-5242,41	441,00
-5227,84	458,00
-5213,29	209,00
-5198,76	352,00
-5184,26	403,00
-5169,79	366,00
-5155,33	298,00
-5140,91	358,00
-5126,51	510,00
-5112,13	343,00
-5097,77	308,00
-5083,44	307,00
-5069,13	361,00
-5054,85	306,00
-5040,59	509,00
-5026,36	391,00
-5012,15	324,00
-4997,96	311,00
-4983,80	300,00
-4969,66	289,00
-4955,54	321,00
-4941,44	445,00
-4927,37	379,00
-4913,33	464,00
-4899,30	377,00
-4885,30	397,00
-4871,33	239,00
-4857,37	265,00
-4843,44	293,00
-4829,53	321,00
-4815,65	407,00
-4801,79	406,00
-4787,95	372,00
-4774,13	388,00
-4760,34	319,00
-4746,56	316,00
-4732,82	308,00
-4719,09	412,00
-4705,38	406,00
-4691,70	454,00
-4678,04	344,00
-4664,41	378,00
-4650,79	388,00
-4637,20	331,00
-4623,63	315,00
-4610,08	379,00
-4596,56	379,00
-4583,05	455,00
-4569,57	397,00
-4556,11	324,00
-4542,67	246,00
-4529,25	372,00
-4515,86	346,00
-4502,49	312,00
-4489,13	347,00
-4475,80	420,00
-4462,49	331,00
-4449,21	452,00
-4435,94	363,00
-4422,70	337,00
-4409,47	407,00
-4396,27	380,00
-4383,09	266,00
-4369,93	339,00
-4356,79	378,00
-4343,67	324,00
-4330,58	277,00
-4317,50	472,00
-4304,45	356,00
-4291,41	349,00
-4278,40	331,00
-4265,41	299,00
-4252,44	397,00
-4239,49	299,00
-4226,55	356,00
-4213,65	363,00
-4200,76	329,00
-4187,89	242,00
-4175,04	368,00
-4162,21	289,00
-4149,40	300,00
-4136,61	308,00
-4123,85	439,00
-4111,10	356,00
-4098,37	301,00
-4085,66	366,00
-4072,98	320,00
-4060,31	388,00
-4047,66	344,00
-4035,04	361,00
-4022,43	299,00
-4009,84	416,00
-3997,27	287,00
-3984,72	204,00
-3972,19	284,00
-3959,69	311,00
-3947,20	342,00
-3934,73	313,00
-3922,27	320,00
-3909,84	248,00
-3897,43	287,00
-3885,04	297,00
-3872,67	369,00
-3860,31	312,00
-3847,98	315,00
-3835,66	329,00
-3823,36	252,00
-3811,09	245,00
-3798,83	323,00
-3786,59	369,00
-3774,37	269,00
-3762,17	395,00
-3749,98	285,00
-3737,82	254,00
-3725,67	447,00
-3713,55	293,00
-3701,44	293,00
-3689,35	293,00
-3677,28	360,00
-3665,22	411,00
-3653,19	245,00
-3641,17	324,00
-3629,18	366,00
-3617,20	280,00
-3605,24	272,00
-3593,30	186,00
-3581,37	404,00
-3569,47	279,00
-3557,58	229,00
-3545,71	414,00
-3533,86	432,00
-3522,02	199,00
-3510,21	347,00
-3498,41	242,00
-3486,63	359,00
-3474,87	242,00
-3463,12	319,00
-3451,40	296,00
-3439,69	285,00
-3428,00	240,00
-3416,33	301,00
-3404,67	385,00
-3393,03	265,00
-3381,41	341,00
-3369,81	301,00
-3358,22	330,00
-3346,66	364,00
-3335,10	252,00
-3323,57	299,00
-3312,06	352,00
-3300,56	244,00
-3289,08	266,00
-3277,61	338,00
-3266,16	355,00
-3254,73	405,00
-3243,32	262,00
-3231,92	314,00
-3220,55	392,00
-3209,18	357,00
-3197,84	344,00
-3186,51	343,00
-3175,20	198,00
-3163,90	257,00
-3152,63	407,00
-3141,36	326,00
-3130,12	339,00
-3118,89	405,00
-3107,68	248,00
-3096,49	320,00
-3085,31	241,00
-3074,15	461,00
-3063,00	390,00
-3051,87	412,00
-3040,76	260,00
-3029,67	372,00
-3018,59	329,00
-3007,52	318,00
-2996,48	318,00
-2985,44	364,00
-2974,43	351,00
-2963,43	267,00
-2952,45	237,00
-2941,48	337,00
-2930,53	264,00
-2919,60	378,00
-2908,68	378,00
-2897,78	249,00
-2886,89	340,00
-2876,02	308,00
-2865,17	351,00
-2854,33	316,00
-2843,50	400,00
-2832,70	392,00
-2821,90	382,00
-2811,13	184,00
-2800,37	244,00
-2789,62	262,00
-2778,89	352,00
-2768,18	403,00
-2757,48	351,00
-2746,80	265,00
-2736,13	337,00
-2725,48	355,00
-2714,84	321,00
-2704,22	316,00
-2693,61	129,00
-2683,02	268,00
-2672,45	361,00
-2661,89	318,00
-2651,34	322,00
-2640,81	329,00
-2630,30	321,00
-2619,80	372,00
-2609,31	377,00
-2598,84	192,00
-2588,39	357,00
-2577,95	262,00
-2567,52	343,00
-2557,11	290,00
-2546,71	353,00
-2536,33	393,00
-2525,97	240,00
-2515,62	324,00
-2505,28	294,00
-2494,96	243,00
-2484,65	333,00
-2474,36	439,00
-2464,08	350,00
-2453,82	347,00
-2443,57	208,00
-2433,33	360,00
-2423,11	263,00
-2412,91	263,00
-2402,72	233,00
-2392,54	265,00
-2382,38	180,00
-2372,23	275,00
-2362,09	802,00
-2351,97	305,00
-2341,87	142,00
-2331,78	448,00
-2321,70	334,00
-2311,64	215,00
-2301,59	283,00
-2291,55	327,00
-2281,53	275,00
-2271,53	152,00
-2261,53	270,00
-2251,55	453,00
-2241,59	239,00
-2231,64	312,00
-2221,70	308,00
-2211,78	365,00
-2201,87	345,00
-2191,97	364,00
-2182,09	391,00
-2172,22	451,00
-2162,37	278,00
-2152,53	278,00
-2142,70	252,00
-2132,89	248,00
-2123,09	290,00
-2113,30	287,00
-2103,53	265,00
-2093,77	328,00
-2084,02	323,00
-2074,29	492,00
-2064,57	231,00
-2054,86	322,00
-2045,17	269,00
-2035,49	370,00
-2025,82	267,00
-2016,17	334,00
-2006,53	358,00
-1996,91	280,00
-1987,29	257,00
-1977,69	294,00
-1968,11	335,00
-1958,53	339,00
-1948,97	440,00
-1939,42	344,00
-1929,89	321,00
-1920,37	403,00
-1910,86	299,00
-1901,36	388,00
-1891,88	356,00
-1882,41	250,00
-1872,95	286,00
-1863,51	279,00
-1854,08	309,00
-1844,66	313,00
-1835,26	217,00
-1825,86	280,00
-1816,48	288,00
-1807,11	214,00
-1797,76	344,00
-1788,42	273,00
-1779,09	343,00
-1769,77	365,00
-1760,47	337,00
-1751,17	336,00
-1741,89	235,00
-1732,63	299,00
-1723,37	380,00
-1714,13	421,00
-1704,90	327,00
-1695,68	232,00
-1686,48	334,00
-1677,29	339,00
-1668,11	360,00
-1658,94	320,00
-1649,78	302,00
-1640,64	372,00
-1631,51	371,00
-1622,39	476,00
-1613,28	361,00
-1604,19	299,00
-1595,10	268,00
-1586,03	375,00
-1576,97	426,00
-1567,93	375,00
-1558,89	427,00
-1549,87	242,00
-1540,86	236,00
-1531,86	379,00
-1522,87	295,00
-1513,90	436,00
-1504,93	273,00
-1495,98	403,00
-1487,04	375,00
-1478,12	273,00
-1469,20	335,00
-1460,30	237,00
-1451,40	341,00
-1442,52	237,00
-1433,65	249,00
-1424,80	381,00
-1415,95	292,00
-1407,12	352,00
-1398,30	323,00
-1389,48	262,00
-1380,69	245,00
-1371,90	209,00
-1363,12	323,00
-1354,36	401,00
-1345,60	238,00
-1336,86	439,00
-1328,13	384,00
-1319,41	381,00
-1310,70	238,00
-1302,01	415,00
-1293,32	219,00
-1284,65	376,00
-1275,99	385,00
-1267,33	255,00
-1258,69	306,00
-1250,06	288,00
-1241,45	277,00
-1232,84	240,00
-1224,25	310,00
-1215,66	314,00
-1207,09	207,00
-1198,53	285,00
-1189,97	297,00
-1181,43	229,00
-1172,91	291,00
-1164,39	368,00
-1155,88	228,00
-1147,38	220,00
-1138,90	479,00
-1130,43	343,00
-1121,96	292,00
-1113,51	312,00
-1105,07	287,00
-1096,64	419,00
-1088,22	332,00
-1079,81	421,00
-1071,41	275,00
-1063,02	283,00
-1054,65	391,00
-1046,28	365,00
-1037,92	273,00
-1029,58	289,00
-1021,24	301,00
-1012,92	264,00
-1004,61	415,00
-996,30	423,00
-988,01	305,00
-979,73	388,00
-971,46	375,00
-963,20	241,00
-954,95	280,00
-946,71	305,00
-938,48	269,00
-930,26	319,00
-922,06	293,00
-913,86	330,00
-905,67	254,00
-897,49	221,00
-889,33	360,00
-881,17	334,00
-873,02	290,00
-864,89	282,00
-856,76	228,00
-848,65	260,00
-840,54	382,00
-832,45	462,00
-824,36	385,00
-816,29	523,00
-808,22	439,00
-800,17	386,00
-792,12	316,00
-784,09	310,00
-776,06	360,00
-768,05	406,00
-760,04	343,00
-752,05	293,00
-744,07	253,00
-736,09	351,00
-728,13	267,00
-720,17	367,00
-712,23	303,00
-704,29	256,00
-696,37	453,00
-688,45	375,00
-680,55	265,00
-672,65	297,00
-664,77	257,00
-656,89	289,00
-649,03	224,00
-641,17	265,00
-633,32	376,00
-625,49	257,00
-617,66	361,00
-609,84	258,00
-602,03	307,00
-594,23	337,00
-586,45	383,00
-578,67	366,00
-570,90	384,00
-563,14	229,00
-555,39	340,00
-547,65	308,00
-539,91	263,00
-532,19	316,00
-524,48	363,00
-516,78	290,00
-509,08	374,00
-501,40	275,00
-493,72	343,00
-486,06	195,00
-478,40	377,00
-470,76	306,00
-463,12	349,00
-455,49	293,00
-447,87	396,00
-440,26	298,00
-432,66	312,00
-425,07	384,00
-417,49	278,00
-409,92	356,00
-402,35	285,00
-394,80	337,00
-387,25	402,00
-379,72	304,00
-372,19	282,00
-364,67	379,00
-357,17	322,00
-349,67	260,00
-342,18	165,00
-334,69	381,00
-327,22	236,00
-319,76	262,00
-312,30	382,00
-304,86	403,00
-297,42	192,00
-290,00	287,00
-282,58	316,00
-275,17	504,00
-267,77	241,00
-260,37	365,00
-252,99	389,00
-245,62	342,00
-238,25	338,00
-230,90	488,00
-223,55	372,00
-216,21	280,00
-208,88	532,00
-201,56	461,00
-194,25	365,00
-186,94	453,00
-179,65	468,00
-172,36	447,00
-165,08	500,00
-157,81	534,00
-150,55	587,00
-143,30	517,00
-136,06	584,00
-128,82	584,00
-121,60	668,00
-114,38	756,00
-107,17	613,00
-99,97	843,00
-92,78	848,00
-85,60	937,00
-78,42	1038,00
-71,25	1093,00
-64,10	1267,00
-56,95	1494,00
-49,81	1636,00
-42,67	2087,00
-35,55	2365,00
-28,43	3059,00
-21,33	5097,00
-14,23	16979,00
-7,14	55635,00
-0,05	55419,00
7,02	55129,00
14,09	51345,00
21,14	14087,00
28,19	6119,00
35,23	4034,00
42,27	3026,00
49,29	2546,00
56,31	2230,00
63,32	1914,00
70,32	1495,00
77,31	1455,00
84,29	1253,00
91,27	1206,00
98,23	1008,00
105,19	1145,00
112,14	1052,00
119,09	1529,00
126,02	1917,00
132,95	2030,00
139,87	1932,00
146,78	1984,00
153,68	1922,00
160,58	1918,00
167,46	1825,00
174,34	1835,00
181,21	1790,00
188,08	1799,00
194,93	1729,00
201,78	1757,00
208,62	1777,00
215,45	1636,00
222,27	1693,00
229,09	1758,00
235,90	1723,00
242,70	1790,00
249,49	1785,00
256,27	1575,00
263,05	1751,00
269,82	1591,00
276,58	1651,00
283,33	1590,00
290,08	1610,00
296,82	1523,00
303,55	1439,00
310,27	1442,00
316,98	1531,00
323,69	1459,00
330,39	1472,00
337,08	1431,00
343,76	1512,00
350,44	1609,00
357,11	1440,00
363,77	1489,00
370,42	1471,00
377,07	1457,00
383,71	1336,00
390,34	1532,00
396,96	1363,00
403,58	1376,00
410,19	1482,00
416,79	1519,00
423,38	1484,00
429,97	1484,00
436,55	1266,00
443,12	1353,00
449,68	1364,00
456,24	1341,00
462,79	1288,00
469,33	1312,00
475,86	1279,00
482,39	1373,00
488,91	1261,00
495,42	1283,00
501,93	1164,00
508,42	1273,00
514,91	1356,00
521,40	1203,00
527,87	1159,00
534,34	1149,00
540,80	1208,00
547,25	1288,00
553,70	1111,00
560,14	1243,00
566,57	1173,00
573,00	1181,00
579,41	1213,00
585,83	1125,00
592,23	1109,00
598,62	1187,00
605,01	1072,00
611,40	1132,00
617,77	1146,00
624,14	1110,00
630,50	1199,00
636,85	1106,00
643,20	1192,00
649,54	1034,00
655,87	1105,00
662,20	1194,00
668,52	992,00
674,83	1109,00
681,13	1041,00
687,43	983,00
693,72	1041,00
700,00	1116,00
706,28	1161,00
712,55	954,00
718,81	1097,00
725,07	1085,00
731,32	1046,00
737,56	1018,00
743,79	970,00
750,02	1241,00
756,24	932,00
762,46	1102,00
768,67	1094,00
774,87	1083,00
781,06	1135,00
787,25	1015,00
793,43	1121,00
799,60	914,00
805,77	1183,00
811,93	1070,00
818,08	895,00
824,23	981,00
830,37	1105,00
836,50	1089,00
842,63	1013,00
848,75	1053,00
854,87	1149,00
860,97	1034,00
867,07	1038,00
873,17	980,00
879,25	1105,00
885,33	1071,00
891,41	1073,00
897,47	1168,00
903,53	1028,00
909,59	1015,00
915,63	1053,00
921,67	929,00
927,71	984,00
933,74	1044,00
939,76	952,00
945,77	999,00
951,78	1013,00
957,78	921,00
963,78	992,00
969,77	883,00
975,75	1024,00
981,72	1018,00
987,69	1551,00
993,66	982,00
999,61	961,00
1005,56	955,00
1011,51	1019,00
1017,44	1030,00
1023,37	1077,00
1029,30	1010,00
1035,22	978,00
1041,13	1026,00
1047,03	1014,00
1052,93	970,00
1058,83	1190,00
1064,71	1303,00
1070,59	1133,00
1076,47	1018,00
1082,33	1028,00
1088,20	1151,00
1094,05	967,00
1099,90	929,00
1105,74	987,00
1111,58	925,00
1117,41	1054,00
1123,23	1287,00
1129,05	1148,00
1134,86	1122,00
1140,67	1093,00
1146,47	820,00
1152,26	828,00
1158,05	947,00
1163,83	892,00
1169,60	938,00
1175,37	796,00
1181,13	979,00
1186,89	862,00
1192,64	865,00
1198,38	859,00
1204,12	876,00
1209,85	845,00
1215,58	937,00
1221,30	885,00
1227,02	960,00
1232,72	871,00
1238,43	924,00
1244,12	941,00
1249,81	956,00
1255,50	965,00
1261,17	882,00
1266,85	942,00
1272,51	971,00
1278,17	959,00
1283,83	937,00
1289,47	1239,00
1295,12	1382,00
1300,75	1330,00
1306,38	1018,00
1312,01	1026,00
1317,63	1003,00
1323,24	908,00
1328,85	945,00
1334,45	1040,00
1340,04	944,00
1345,63	867,00
1351,22	1158,00
1356,80	1034,00
1362,37	997,00
1367,93	923,00
1373,49	997,00
1379,05	1084,00
1384,60	1021,00
1390,14	999,00
1395,68	948,00
1401,21	960,00
1406,74	1063,00
1412,26	923,00
1417,77	1037,00
1423,28	1101,00
1428,78	1323,00
1434,28	1337,00
1439,77	1512,00
1445,26	1403,00
1450,74	1394,00
1456,22	1327,00
1461,68	1267,00
1467,15	1175,00
1472,61	1241,00
1478,06	1207,00
1483,51	1095,00
1488,95	890,00
1494,38	941,00
1499,81	972,00
1505,24	961,00
1510,65	955,00
1516,07	922,00
1521,48	1034,00
1526,88	812,00
1532,27	906,00
1537,67	852,00
1543,05	940,00
1548,43	795,00
1553,81	819,00
1559,18	901,00
1564,54	916,00
1569,90	809,00
1575,25	827,00
1580,60	813,00
1585,94	763,00
1591,28	824,00
1596,61	723,00
1601,93	772,00
1607,25	886,00
1612,57	877,00
1617,88	783,00
1623,18	744,00
1628,48	901,00
1633,77	802,00
1639,06	871,00
1644,34	798,00
1649,62	742,00
1654,89	837,00
1660,16	858,00
1665,42	948,00
1670,67	730,00
1675,92	792,00
1681,17	874,00
1686,41	755,00
1691,64	754,00
1696,87	843,00
1702,10	675,00
1707,32	708,00
1712,53	782,00
1717,74	747,00
1722,94	768,00
1728,14	684,00
1733,33	743,00
1738,52	764,00
1743,70	728,00
1748,88	805,00
1754,05	676,00
1759,22	667,00
1764,38	858,00
1769,53	770,00
1774,69	639,00
1779,83	667,00
1784,97	721,00
1790,11	674,00
1795,24	619,00
1800,36	696,00
1805,48	714,00
1810,60	742,00
1815,71	684,00
1820,82	646,00
1825,92	683,00
1831,01	686,00
1836,10	711,00
1841,19	695,00
1846,26	549,00
1851,34	635,00
1856,41	669,00
1861,47	648,00
1866,53	622,00
1871,59	596,00
1876,64	822,00
1881,68	706,00
1886,72	624,00
1891,76	648,00
1896,79	613,00
1901,81	529,00
1906,83	604,00
1911,85	580,00
1916,86	661,00
1921,86	571,00
1926,86	583,00
1931,86	591,00
1936,85	593,00
1941,83	629,00
1946,81	579,00
1951,79	646,00
1956,76	583,00
1961,72	430,00
1966,68	500,00
1971,64	561,00
1976,59	519,00
1981,54	564,00
1986,48	439,00
1991,42	557,00
1996,35	699,00
2001,27	468,00
2006,20	555,00
2011,11	511,00
2016,03	586,00
2020,93	542,00
2025,84	596,00
2030,73	668,00
2035,63	637,00
2040,52	593,00
2045,40	578,00
2050,28	576,00
2055,15	624,00
2060,02	565,00
2064,89	529,00
2069,75	542,00
2074,60	633,00
2079,46	505,00
2084,30	460,00
2089,14	548,00
2093,98	492,00
2098,81	518,00
2103,64	437,00
2108,46	505,00
2113,28	611,00
2118,09	438,00
2122,90	502,00
2127,70	455,00
2132,50	470,00
2137,30	648,00
2142,09	466,00
2146,87	575,00
2151,66	502,00
2156,43	650,00
2161,20	503,00
2165,97	474,00
2170,73	475,00
2175,49	596,00
2180,24	498,00
2184,99	546,00
2189,74	618,00
2194,48	674,00
2199,21	594,00
2203,94	537,00
2208,67	573,00
2213,39	591,00
2218,11	387,00
2222,82	458,00
2227,53	507,00
2232,23	498,00
2236,93	490,00
2241,63	561,00
2246,32	642,00
2251,00	601,00
2255,68	459,00
2260,36	514,00
2265,03	495,00
2269,70	468,00
2274,36	537,00
2279,02	526,00
2283,68	489,00
2288,33	456,00
2292,97	622,00
2297,61	485,00
2302,25	510,00
2306,88	537,00
2311,51	478,00
2316,14	474,00
2320,75	514,00
2325,37	462,00
2329,98	632,00
2334,59	312,00
2339,19	405,00
2343,79	497,00
2348,38	457,00
2352,97	526,00
2357,55	465,00
2362,13	479,00
2366,71	339,00
2371,28	529,00
2375,85	505,00
2380,41	406,00
2384,97	557,00
2389,52	461,00
2394,07	416,00
2398,62	574,00
2403,16	495,00
2407,70	382,00
2412,23	484,00
2416,76	461,00
2421,29	532,00
2425,81	427,00
2430,32	479,00
2434,84	480,00
2439,34	468,00
2443,85	562,00
2448,35	419,00
2452,84	525,00
2457,33	560,00
2461,82	519,00
2466,30	398,00
2470,78	487,00
2475,25	498,00
2479,72	398,00
2484,19	396,00
2488,65	543,00
2493,11	450,00
2497,56	495,00
2502,01	366,00
2506,46	413,00
2510,90	346,00
2515,34	457,00
2519,77	340,00
2524,20	424,00
2528,62	375,00
2533,04	433,00
2537,46	434,00
2541,87	310,00
2546,28	508,00
2550,68	479,00
2555,08	425,00
2559,48	479,00
2563,87	501,00
2568,26	416,00
2572,64	430,00
2577,02	453,00
2581,40	476,00
2585,77	487,00
2590,14	339,00
2594,50	356,00
2598,86	319,00
2603,22	413,00
2607,57	563,00
2611,92	445,00
2616,26	442,00
2620,60	496,00
2624,94	247,00
2629,27	365,00
2633,60	342,00
2637,92	365,00
2642,24	457,00
2646,56	457,00
2650,87	421,00
2655,18	518,00
2659,48	460,00
2663,78	428,00
2668,08	401,00
2672,37	372,00
2676,66	574,00
2680,95	509,00
2685,23	467,00
2689,50	369,00
2693,78	454,00
2698,05	487,00
2702,31	431,00
2706,57	420,00
2710,83	488,00
2715,08	506,00
2719,33	664,00
2723,58	555,00
2727,82	466,00
2732,06	362,00
2736,29	482,00
2740,53	497,00
2744,75	364,00
2748,97	362,00
2753,19	413,00
2757,41	512,00
2761,62	470,00
2765,83	405,00
2770,03	393,00
2774,23	429,00
2778,43	368,00
2782,62	416,00
2786,81	467,00
2791,00	449,00
2795,18	469,00
2799,35	556,00
2803,53	547,00
2807,70	608,00
2811,86	461,00
2816,03	438,00
2820,19	418,00
2824,34	665,00
2828,49	506,00
2832,64	590,00
2836,78	654,00
2840,92	720,00
2845,06	961,00
2849,19	1032,00
2853,32	1073,00
2857,45	1117,00
2861,57	1063,00
2865,69	1054,00
2869,80	947,00
2873,91	924,00
2878,02	1103,00
2882,12	1130,00
2886,22	1100,00
2890,32	1111,00
2894,41	1018,00
2898,50	997,00
2902,58	696,00
2906,67	829,00
2910,74	837,00
2914,82	911,00
2918,89	917,00
2922,96	758,00
2927,02	678,00
2931,08	748,00
2935,13	662,00
2939,19	682,00
2943,24	648,00
2947,28	601,00
2951,32	489,00
2955,36	585,00
2959,40	566,00
2963,43	518,00
2967,46	457,00
2971,48	386,00
2975,50	499,00
2979,52	379,00
2983,53	523,00
2987,54	376,00
2991,55	399,00
2995,55	410,00
2999,55	443,00
3003,54	482,00
3007,54	361,00
3011,53	424,00
3015,51	450,00
3019,49	335,00
3023,47	357,00
3027,45	350,00
3031,42	263,00
3035,39	374,00
3039,35	379,00
3043,31	507,00
3047,27	352,00
3051,22	348,00
3055,17	320,00
3059,12	315,00
3063,06	271,00
3067,00	346,00
3070,94	399,00
3074,87	351,00
3078,80	341,00
3082,73	363,00
3086,65	259,00
3090,57	254,00
3094,49	377,00
3098,40	336,00
3102,31	395,00
3106,22	247,00
3110,12	366,00
3114,02	403,00
3117,92	340,00
3121,81	299,00
3125,70	347,00
3129,58	298,00
3133,47	278,00
3137,34	344,00
3141,22	244,00
3145,09	423,00
3148,96	277,00
3152,83	288,00
3156,69	420,00
3160,55	379,00
3164,40	360,00
3168,26	331,00
3172,10	397,00
3175,95	416,00
3179,79	276,00
3183,63	495,00
3187,47	367,00
3191,30	371,00
3195,13	364,00
3198,95	437,00
3202,78	327,00
3206,60	449,00
3210,41	357,00
3214,23	315,00
3218,03	298,00
3221,84	371,00
3225,64	242,00
3229,44	351,00
3233,24	422,00
3237,03	327,00
3240,82	270,00
3244,61	363,00
3248,39	228,00
3252,17	412,00
3255,95	338,00
3259,72	394,00
3263,49	320,00
3267,26	442,00
3271,03	360,00
3274,79	369,00
3278,54	372,00
3282,30	228,00
3286,05	457,00
3289,80	289,00
3293,54	275,00
3297,29	319,00
3301,02	354,00
3304,76	364,00
3308,49	257,00
3312,22	341,00
3315,95	365,00
3319,67	330,00
3323,39	463,00
3327,10	323,00
3330,82	348,00
3334,53	365,00
3338,24	329,00
3341,94	354,00
3345,64	344,00
3349,34	267,00
3353,03	383,00
3356,72	370,00
3360,41	362,00
3364,10	342,00
3367,78	327,00
3371,46	271,00
3375,13	300,00
3378,81	275,00
3382,48	343,00
3386,14	403,00
3389,81	302,00
3393,47	395,00
3397,12	448,00
3400,78	373,00
3404,43	279,00
3408,08	209,00
3411,72	265,00
3415,36	329,00
3419,00	306,00
3422,64	354,00
3426,27	304,00
3429,90	260,00
3433,53	282,00
3437,15	403,00
3440,77	259,00
3444,39	350,00
3448,00	294,00
3451,62	241,00
3455,22	341,00
3458,83	310,00
3462,43	429,00
3466,03	286,00
3469,63	344,00
3473,22	272,00
3476,81	320,00
3480,40	335,00
3483,99	194,00
3487,57	228,00
3491,15	267,00
3494,72	347,00
3498,29	298,00
3501,86	281,00
3505,43	374,00
3508,99	277,00
3512,56	245,00
3516,11	331,00
3519,67	308,00
3523,22	379,00
3526,77	354,00
3530,32	312,00
3533,86	298,00
3537,40	372,00
3540,94	402,00
3544,47	268,00
3548,00	282,00
3551,53	285,00
3555,06	342,00
3558,58	235,00
3562,10	307,00
3565,62	264,00
3569,13	289,00
3572,64	330,00
3576,15	256,00
3579,66	400,00
3583,16	358,00
3586,66	254,00
3590,16	292,00
3593,65	162,00
3597,14	336,00
3600,63	344,00
3604,11	269,00
3607,60	360,00
3611,08	349,00
3614,55	258,00
3618,03	264,00
3621,50	333,00
3624,97	310,00
3628,43	346,00
3631,90	330,00
3635,36	217,00
3638,81	313,00
3642,27	338,00
3645,72	331,00
3649,17	258,00
3652,61	213,00
3656,06	224,00
3659,50	213,00
3662,93	239,00
3666,37	293,00
3669,80	173,00
3673,23	161,00
3676,65	413,00
3680,08	297,00
3683,50	248,00
3686,92	293,00
3690,33	327,00
3693,74	209,00
3697,15	274,00
3700,56	351,00
3703,96	156,00
3707,36	258,00
3710,76	236,00
3714,16	394,00
3717,55	303,00
3720,94	335,00
3724,33	234,00
3727,71	287,00
3731,10	372,00
3734,48	238,00
3737,85	264,00
3741,23	276,00
3744,60	266,00
3747,97	178,00
3751,33	271,00
3754,69	262,00
3758,05	257,00
3761,41	279,00
3764,77	206,00
3768,12	249,00
3771,47	204,00
3774,82	283,00
3778,16	-4,00
3781,50	3,00
3784,84	-4,00
3788,18	8,00
>>>>>End Processed Spectral Data<<<<<
