SpectraSuite Data File
++++++++++++++++++++++++++++++++++++
Date: Mon Mar 09 15:56:57 ICT 2026
User: Administrator
Dark Spectrum Present: Yes
Reference Spectrum Present: No
Number of Sampled Component Spectra: 1
Spectrometers: MAYP113682
Integration Time (usec): 3000000 (MAYP113682)
Spectra Averaged: 1 (MAYP113682)
Boxcar Smoothing: 0 (MAYP113682)
Correct for Electrical Dark: No (MAYP113682)
Strobe/Lamp Enabled: No (MAYP113682)
Correct for Detector Non-linearity: No (MAYP113682)
Correct for Stray Light: No (MAYP113682)
Number of Pixels in Processed Spectrum: 2068
>>>>>Begin Processed Spectral Data<<<<<
-37534,58	-5,00
-37414,56	1,00
-37295,11	2,00
-37176,24	-1,00
-37057,95	22,00
-36940,22	-36,00
-36823,05	47,00
-36706,45	184,00
-36590,40	7,00
-36474,90	-24,00
-36359,95	31,00
-36245,55	11,00
-36131,68	18,00
-36018,35	26,00
-35905,55	28,00
-35793,29	126,00
-35681,54	74,00
-35570,32	42,00
-35459,62	55,00
-35349,43	50,00
-35239,75	10,00
-35130,58	35,00
-35021,91	-74,00
-34913,74	-22,00
-34806,07	69,00
-34698,89	-21,00
-34592,20	134,00
-34486,00	59,00
-34380,28	10,00
-34275,04	-79,00
-34170,27	-22,00
-34065,98	71,00
-33962,16	3,00
-33858,81	67,00
-33755,92	57,00
-33653,49	185,00
-33551,52	93,00
-33450,01	70,00
-33348,94	-68,00
-33248,33	-60,00
-33148,16	29,00
-33048,43	-93,00
-32949,14	-15,00
-32850,29	101,00
-32751,87	25,00
-32653,89	171,00
-32556,33	-138,00
-32459,20	185,00
-32362,49	86,00
-32266,19	-60,00
-32170,32	41,00
-32074,86	46,00
-31979,82	-38,00
-31885,18	57,00
-31790,95	-41,00
-31697,12	47,00
-31603,69	113,00
-31510,67	-16,00
-31418,04	1,00
-31325,80	35,00
-31233,95	-92,00
-31142,49	59,00
-31051,42	29,00
-30960,73	121,00
-30870,43	66,00
-30780,50	-118,00
-30690,95	30,00
-30601,77	-56,00
-30512,97	-29,00
-30424,53	25,00
-30336,46	53,00
-30248,76	7,00
-30161,42	78,00
-30074,44	-16,00
-29987,81	39,00
-29901,55	134,00
-29815,63	-61,00
-29730,07	15,00
-29644,86	-28,00
-29560,00	-11,00
-29475,48	69,00
-29391,30	109,00
-29307,47	-81,00
-29223,97	-3,00
-29140,81	119,00
-29057,99	-60,00
-28975,50	63,00
-28893,34	5,00
-28811,51	34,00
-28730,00	45,00
-28648,82	129,00
-28567,97	65,00
-28487,43	-79,00
-28407,21	-3,00
-28327,32	34,00
-28247,73	13,00
-28168,46	-21,00
-28089,50	101,00
-28010,85	157,00
-27932,51	70,00
-27854,48	-47,00
-27776,75	-16,00
-27699,32	40,00
-27622,19	22,00
-27545,37	94,00
-27468,84	-25,00
-27392,60	75,00
-27316,66	-12,00
-27241,01	4,00
-27165,66	133,00
-27090,59	13,00
-27015,81	25,00
-26941,31	34,00
-26867,10	26,00
-26793,17	80,00
-26719,52	28,00
-26646,15	-72,00
-26573,06	-57,00
-26500,24	115,00
-26427,70	-8,00
-26355,43	49,00
-26283,43	60,00
-26211,71	42,00
-26140,25	93,00
-26069,06	26,00
-25998,13	0,00
-25927,46	55,00
-25857,06	41,00
-25786,92	-40,00
-25717,04	143,00
-25647,42	-18,00
-25578,05	9,00
-25508,94	35,00
-25440,09	6,00
-25371,48	60,00
-25303,13	53,00
-25235,02	6,00
-25167,17	77,00
-25099,56	132,00
-25032,19	-70,00
-24965,07	47,00
-24898,20	3,00
-24831,56	4,00
-24765,17	100,00
-24699,01	22,00
-24633,10	21,00
-24567,41	-111,00
-24501,97	-171,00
-24436,75	-21,00
-24371,77	51,00
-24307,03	-34,00
-24242,51	30,00
-24178,22	-12,00
-24114,16	83,00
-24050,32	28,00
-23986,71	40,00
-23923,32	182,00
-23860,16	95,00
-23797,22	28,00
-23734,50	-13,00
-23672,00	210,00
-23609,71	84,00
-23547,65	25,00
-23485,80	-22,00
-23424,16	102,00
-23362,74	85,00
-23301,53	-2,00
-23240,54	11,00
-23179,75	11,00
-23119,17	104,00
-23058,80	-66,00
-22998,64	19,00
-22938,68	-21,00
-22878,93	67,00
-22819,39	33,00
-22760,04	21,00
-22700,90	-24,00
-22641,96	-109,00
-22583,22	133,00
-22524,68	98,00
-22466,33	45,00
-22408,19	-36,00
-22350,23	22,00
-22292,48	53,00
-22234,92	-48,00
-22177,55	17,00
-22120,37	114,00
-22063,38	84,00
-22006,58	18,00
-21949,98	152,00
-21893,56	-51,00
-21837,33	-23,00
-21781,28	73,00
-21725,42	22,00
-21669,74	35,00
-21614,25	-2,00
-21558,94	124,00
-21503,81	183,00
-21448,86	80,00
-21394,10	13,00
-21339,51	74,00
-21285,10	-51,00
-21230,86	-57,00
-21176,81	70,00
-21122,93	71,00
-21069,22	86,00
-21015,69	89,00
-20962,33	19,00
-20909,14	106,00
-20856,13	107,00
-20803,28	22,00
-20750,61	-6,00
-20698,10	17,00
-20645,76	88,00
-20593,59	110,00
-20541,59	40,00
-20489,75	21,00
-20438,07	77,00
-20386,56	40,00
-20335,22	25,00
-20284,03	-11,00
-20233,01	7,00
-20182,15	57,00
-20131,45	70,00
-20080,91	-43,00
-20030,52	62,00
-19980,30	-59,00
-19930,23	119,00
-19880,32	102,00
-19830,56	-8,00
-19780,96	55,00
-19731,52	-59,00
-19682,23	141,00
-19633,09	70,00
-19584,10	40,00
-19535,26	-30,00
-19486,58	36,00
-19438,04	37,00
-19389,66	101,00
-19341,42	37,00
-19293,33	23,00
-19245,39	69,00
-19197,60	8,00
-19149,95	-7,00
-19102,45	55,00
-19055,09	-2,00
-19007,87	110,00
-18960,80	48,00
-18913,87	-2,00
-18867,09	80,00
-18820,44	157,00
-18773,94	45,00
-18727,57	-62,00
-18681,35	44,00
-18635,26	42,00
-18589,31	45,00
-18543,50	-63,00
-18497,83	140,00
-18452,29	-46,00
-18406,89	-2,00
-18361,63	-111,00
-18316,50	15,00
-18271,50	-10,00
-18226,63	77,00
-18181,90	39,00
-18137,30	-86,00
-18092,84	40,00
-18048,50	117,00
-18004,29	-41,00
-17960,22	-69,00
-17916,27	54,00
-17872,45	-16,00
-17828,76	69,00
-17785,20	-60,00
-17741,77	51,00
-17698,46	-59,00
-17655,28	-76,00
-17612,22	76,00
-17569,29	90,00
-17526,48	51,00
-17483,79	35,00
-17441,23	72,00
-17398,79	-34,00
-17356,48	113,00
-17314,28	107,00
-17272,21	10,00
-17230,26	-65,00
-17188,42	58,00
-17146,71	53,00
-17105,12	56,00
-17063,64	-2,00
-17022,28	18,00
-16981,04	40,00
-16939,92	66,00
-16898,91	48,00
-16858,02	-23,00
-16817,25	-69,00
-16776,59	-19,00
-16736,04	-32,00
-16695,61	55,00
-16655,29	-39,00
-16615,09	-36,00
-16574,99	-59,00
-16535,01	78,00
-16495,15	9,00
-16455,39	56,00
-16415,74	0,00
-16376,21	-56,00
-16336,78	25,00
-16297,46	14,00
-16258,26	40,00
-16219,16	38,00
-16180,17	-72,00
-16141,28	79,00
-16102,51	-5,00
-16063,84	-15,00
-16025,27	54,00
-15986,82	-96,00
-15948,46	15,00
-15910,22	-49,00
-15872,07	-21,00
-15834,04	107,00
-15796,10	90,00
-15758,27	139,00
-15720,54	14,00
-15682,91	-4,00
-15645,39	-15,00
-15607,97	47,00
-15570,64	-73,00
-15533,42	-14,00
-15496,30	97,00
-15459,28	62,00
-15422,36	-83,00
-15385,54	18,00
-15348,82	-3,00
-15312,19	9,00
-15275,66	80,00
-15239,23	-17,00
-15202,90	116,00
-15166,67	54,00
-15130,53	25,00
-15094,48	25,00
-15058,54	123,00
-15022,68	68,00
-14986,93	56,00
-14951,26	102,00
-14915,69	-85,00
-14880,22	49,00
-14844,84	-54,00
-14809,55	44,00
-14774,35	-42,00
-14739,25	-54,00
-14704,24	1,00
-14669,32	-123,00
-14634,49	15,00
-14599,75	15,00
-14565,10	81,00
-14530,55	-11,00
-14496,08	82,00
-14461,70	-15,00
-14427,41	-78,00
-14393,21	89,00
-14359,10	13,00
-14325,07	-30,00
-14291,14	-77,00
-14257,29	-31,00
-14223,52	84,00
-14189,85	-29,00
-14156,26	26,00
-14122,76	97,00
-14089,34	98,00
-14056,01	17,00
-14022,76	-132,00
-13989,60	-29,00
-13956,52	92,00
-13923,53	61,00
-13890,62	43,00
-13857,79	111,00
-13825,05	50,00
-13792,39	-63,00
-13759,81	76,00
-13727,31	96,00
-13694,90	145,00
-13662,57	-19,00
-13630,31	34,00
-13598,14	167,00
-13566,05	107,00
-13534,05	13,00
-13502,12	6,00
-13470,27	-1,00
-13438,50	-29,00
-13406,80	113,00
-13375,19	-13,00
-13343,66	89,00
-13312,20	-16,00
-13280,83	-39,00
-13249,53	24,00
-13218,30	63,00
-13187,16	-12,00
-13156,09	125,00
-13125,10	21,00
-13094,18	27,00
-13063,34	38,00
-13032,58	-17,00
-13001,89	-17,00
-12971,28	53,00
-12940,74	10,00
-12910,27	46,00
-12879,88	74,00
-12849,57	48,00
-12819,33	14,00
-12789,16	-28,00
-12759,06	105,00
-12729,04	195,00
-12699,09	1495,00
-12669,21	13,00
-12639,41	-32,00
-12609,68	-22,00
-12580,02	64,00
-12550,43	63,00
-12520,91	-5,00
-12491,46	55,00
-12462,08	41,00
-12432,77	2,00
-12403,54	63,00
-12374,37	17,00
-12345,27	81,00
-12316,24	35,00
-12287,29	-23,00
-12258,40	32,00
-12229,57	52,00
-12200,82	18,00
-12172,14	92,00
-12143,52	70,00
-12114,97	82,00
-12086,49	51,00
-12058,07	116,00
-12029,73	81,00
-12001,44	-51,00
-11973,23	56,00
-11945,08	-7,00
-11917,00	108,00
-11888,98	33,00
-11861,03	-72,00
-11833,15	70,00
-11805,32	-66,00
-11777,57	-34,00
-11749,88	30,00
-11722,25	59,00
-11694,69	-20,00
-11667,19	32,00
-11639,75	-83,00
-11612,38	108,00
-11585,07	148,00
-11557,83	3,00
-11530,65	69,00
-11503,53	3,00
-11476,47	70,00
-11449,48	106,00
-11422,54	-12,00
-11395,67	78,00
-11368,86	64,00
-11342,11	16,00
-11315,43	72,00
-11288,80	-81,00
-11262,23	96,00
-11235,73	39,00
-11209,28	148,00
-11182,90	42,00
-11156,57	-3,00
-11130,31	91,00
-11104,10	89,00
-11077,96	2,00
-11051,87	-6,00
-11025,84	41,00
-10999,87	94,00
-10973,96	-3,00
-10948,11	49,00
-10922,31	18,00
-10896,58	56,00
-10870,90	56,00
-10845,28	-64,00
-10819,71	81,00
-10794,20	-30,00
-10768,75	185,00
-10743,36	81,00
-10718,02	8,00
-10692,74	88,00
-10667,52	12,00
-10642,35	-18,00
-10617,24	95,00
-10592,18	-1,00
-10567,18	64,00
-10542,23	-7,00
-10517,34	117,00
-10492,51	58,00
-10467,72	86,00
-10443,00	-16,00
-10418,32	95,00
-10393,70	31,00
-10369,14	102,00
-10344,63	-27,00
-10320,17	42,00
-10295,77	17,00
-10271,42	89,00
-10247,12	67,00
-10222,88	38,00
-10198,68	-6,00
-10174,54	-52,00
-10150,46	118,00
-10126,42	-34,00
-10102,44	182,00
-10078,51	-4,00
-10054,63	82,00
-10030,80	118,00
-10007,03	40,00
-9983,30	-149,00
-9959,63	4,00
-9936,01	60,00
-9912,44	123,00
-9888,92	59,00
-9865,44	23,00
-9842,02	59,00
-9818,65	164,00
-9795,33	39,00
-9772,06	90,00
-9748,84	86,00
-9725,67	49,00
-9702,55	-70,00
-9679,47	90,00
-9656,45	89,00
-9633,47	63,00
-9610,55	41,00
-9587,67	57,00
-9564,84	58,00
-9542,06	182,00
-9519,32	-61,00
-9496,64	162,00
-9474,00	101,00
-9451,41	186,00
-9428,87	122,00
-9406,37	57,00
-9383,92	30,00
-9361,52	72,00
-9339,17	106,00
-9316,86	-18,00
-9294,60	188,00
-9272,38	152,00
-9250,21	180,00
-9228,09	63,00
-9206,01	150,00
-9183,98	29,00
-9162,00	37,00
-9140,06	135,00
-9118,16	85,00
-9096,31	192,00
-9074,51	201,00
-9052,75	37,00
-9031,04	100,00
-9009,37	237,00
-8987,74	12,00
-8966,16	109,00
-8944,63	28,00
-8923,14	96,00
-8901,69	0,00
-8880,29	48,00
-8858,93	194,00
-8837,61	174,00
-8816,34	192,00
-8795,11	64,00
-8773,92	213,00
-8752,78	161,00
-8731,68	151,00
-8710,62	203,00
-8689,61	183,00
-8668,63	62,00
-8647,70	328,00
-8626,82	237,00
-8605,97	155,00
-8585,17	177,00
-8564,41	103,00
-8543,69	55,00
-8523,01	-46,00
-8502,37	84,00
-8481,78	174,00
-8461,23	173,00
-8440,71	204,00
-8420,24	284,00
-8399,81	121,00
-8379,42	123,00
-8359,08	188,00
-8338,77	160,00
-8318,50	208,00
-8298,27	137,00
-8278,09	208,00
-8257,94	223,00
-8237,83	374,00
-8217,76	211,00
-8197,74	214,00
-8177,75	338,00
-8157,80	190,00
-8137,89	270,00
-8118,02	131,00
-8098,19	75,00
-8078,40	209,00
-8058,65	208,00
-8038,93	223,00
-8019,26	374,00
-7999,62	241,00
-7980,02	173,00
-7960,46	160,00
-7940,94	139,00
-7921,46	115,00
-7902,01	84,00
-7882,60	110,00
-7863,23	-8,00
-7843,90	241,00
-7824,61	230,00
-7805,35	154,00
-7786,13	252,00
-7766,95	210,00
-7747,80	195,00
-7728,69	124,00
-7709,62	197,00
-7690,59	45,00
-7671,59	260,00
-7652,63	246,00
-7633,70	220,00
-7614,81	200,00
-7595,96	141,00
-7577,15	234,00
-7558,37	210,00
-7539,62	241,00
-7520,91	288,00
-7502,24	103,00
-7483,60	223,00
-7465,00	122,00
-7446,44	90,00
-7427,91	60,00
-7409,41	145,00
-7390,95	17,00
-7372,53	28,00
-7354,14	81,00
-7335,78	72,00
-7317,46	16,00
-7299,18	157,00
-7280,92	51,00
-7262,71	195,00
-7244,52	274,00
-7226,38	155,00
-7208,26	144,00
-7190,18	149,00
-7172,14	104,00
-7154,12	249,00
-7136,15	193,00
-7118,20	188,00
-7100,29	163,00
-7082,41	220,00
-7064,57	167,00
-7046,76	64,00
-7028,98	133,00
-7011,24	-20,00
-6993,53	18,00
-6975,85	118,00
-6958,20	5,00
-6940,59	20,00
-6923,01	-30,00
-6905,46	81,00
-6887,94	18,00
-6870,46	2768,00
-6853,01	63,00
-6835,59	187,00
-6818,21	75,00
-6800,85	114,00
-6783,53	-53,00
-6766,24	-42,00
-6748,98	10,00
-6731,76	-52,00
-6714,56	-52,00
-6697,40	-72,00
-6680,26	-29,00
-6663,16	59,00
-6646,09	160,00
-6629,05	50,00
-6612,05	-74,00
-6595,07	79,00
-6578,13	93,00
-6561,21	16,00
-6544,33	-12,00
-6527,47	-81,00
-6510,65	44,00
-6493,86	-9,00
-6477,10	-110,00
-6460,36	55,00
-6443,66	-99,00
-6426,99	-4,00
-6410,35	-42,00
-6393,74	0,00
-6377,16	-139,00
-6360,61	22,00
-6344,09	-8,00
-6327,59	32,00
-6311,13	42,00
-6294,70	115,00
-6278,29	129,00
-6261,92	131,00
-6245,58	-70,00
-6229,26	86,00
-6212,97	43,00
-6196,72	14,00
-6180,49	-49,00
-6164,29	71,00
-6148,12	-124,00
-6131,98	-127,00
-6115,86	-31,00
-6099,78	-51,00
-6083,72	-114,00
-6067,69	-71,00
-6051,69	-23,00
-6035,72	24,00
-6019,78	21,00
-6003,87	85,00
-5987,98	50,00
-5972,12	55,00
-5956,29	-28,00
-5940,49	80,00
-5924,71	95,00
-5908,96	47,00
-5893,24	-49,00
-5877,55	43,00
-5861,89	-89,00
-5846,25	7,00
-5830,64	82,00
-5815,05	-63,00
-5799,50	17,00
-5783,97	-112,00
-5768,47	58,00
-5752,99	57,00
-5737,55	68,00
-5722,12	9,00
-5706,73	-84,00
-5691,36	112,00
-5676,02	29,00
-5660,71	32,00
-5645,42	0,00
-5630,16	110,00
-5614,92	10,00
-5599,71	33,00
-5584,53	55,00
-5569,37	98,00
-5554,24	150,00
-5539,14	81,00
-5524,06	-3,00
-5509,01	16,00
-5493,98	-9,00
-5478,98	-44,00
-5464,00	-35,00
-5449,05	83,00
-5434,13	43,00
-5419,23	-41,00
-5404,36	83,00
-5389,51	16,00
-5374,69	-53,00
-5359,89	83,00
-5345,12	21,00
-5330,37	66,00
-5315,65	44,00
-5300,95	13,00
-5286,28	53,00
-5271,63	2,00
-5257,01	25,00
-5242,41	46,00
-5227,84	-80,00
-5213,29	117,00
-5198,76	-77,00
-5184,26	-18,00
-5169,79	-111,00
-5155,33	-33,00
-5140,91	-7,00
-5126,51	-2,00
-5112,13	21,00
-5097,77	122,00
-5083,44	120,00
-5069,13	-8,00
-5054,85	-36,00
-5040,59	-21,00
-5026,36	101,00
-5012,15	1,00
-4997,96	84,00
-4983,80	-109,00
-4969,66	-42,00
-4955,54	-17,00
-4941,44	117,00
-4927,37	65,00
-4913,33	-7,00
-4899,30	49,00
-4885,30	76,00
-4871,33	149,00
-4857,37	59,00
-4843,44	80,00
-4829,53	24,00
-4815,65	121,00
-4801,79	-33,00
-4787,95	35,00
-4774,13	37,00
-4760,34	-60,00
-4746,56	-15,00
-4732,82	-77,00
-4719,09	162,00
-4705,38	47,00
-4691,70	-19,00
-4678,04	66,00
-4664,41	29,00
-4650,79	106,00
-4637,20	-4,00
-4623,63	-75,00
-4610,08	-32,00
-4596,56	30,00
-4583,05	47,00
-4569,57	-63,00
-4556,11	-21,00
-4542,67	-20,00
-4529,25	-27,00
-4515,86	235,00
-4502,49	87,00
-4489,13	90,00
-4475,80	-48,00
-4462,49	46,00
-4449,21	-18,00
-4435,94	69,00
-4422,70	-2,00
-4409,47	91,00
-4396,27	-42,00
-4383,09	6,00
-4369,93	107,00
-4356,79	26,00
-4343,67	-32,00
-4330,58	21,00
-4317,50	80,00
-4304,45	-24,00
-4291,41	-29,00
-4278,40	-27,00
-4265,41	25,00
-4252,44	123,00
-4239,49	75,00
-4226,55	-28,00
-4213,65	102,00
-4200,76	162,00
-4187,89	-89,00
-4175,04	122,00
-4162,21	-25,00
-4149,40	43,00
-4136,61	16,00
-4123,85	-62,00
-4111,10	40,00
-4098,37	-1,00
-4085,66	34,00
-4072,98	137,00
-4060,31	-103,00
-4047,66	1,00
-4035,04	-81,00
-4022,43	115,00
-4009,84	-90,00
-3997,27	22,00
-3984,72	36,00
-3972,19	33,00
-3959,69	22,00
-3947,20	104,00
-3934,73	-129,00
-3922,27	-71,00
-3909,84	7,00
-3897,43	-11,00
-3885,04	133,00
-3872,67	-83,00
-3860,31	-6,00
-3847,98	-129,00
-3835,66	-10,00
-3823,36	82,00
-3811,09	-29,00
-3798,83	91,00
-3786,59	16,00
-3774,37	77,00
-3762,17	74,00
-3749,98	73,00
-3737,82	109,00
-3725,67	42,00
-3713,55	78,00
-3701,44	28,00
-3689,35	121,00
-3677,28	145,00
-3665,22	184,00
-3653,19	81,00
-3641,17	-44,00
-3629,18	76,00
-3617,20	19,00
-3605,24	90,00
-3593,30	93,00
-3581,37	168,00
-3569,47	-29,00
-3557,58	-4,00
-3545,71	75,00
-3533,86	86,00
-3522,02	28,00
-3510,21	46,00
-3498,41	22,00
-3486,63	137,00
-3474,87	196,00
-3463,12	-28,00
-3451,40	187,00
-3439,69	92,00
-3428,00	-25,00
-3416,33	-120,00
-3404,67	-5,00
-3393,03	65,00
-3381,41	100,00
-3369,81	-15,00
-3358,22	37,00
-3346,66	158,00
-3335,10	-32,00
-3323,57	4,00
-3312,06	34,00
-3300,56	12,00
-3289,08	73,00
-3277,61	30,00
-3266,16	91,00
-3254,73	-25,00
-3243,32	86,00
-3231,92	63,00
-3220,55	85,00
-3209,18	-69,00
-3197,84	91,00
-3186,51	-71,00
-3175,20	58,00
-3163,90	-16,00
-3152,63	43,00
-3141,36	10,00
-3130,12	90,00
-3118,89	-55,00
-3107,68	-32,00
-3096,49	-35,00
-3085,31	160,00
-3074,15	134,00
-3063,00	21,00
-3051,87	23,00
-3040,76	107,00
-3029,67	-16,00
-3018,59	57,00
-3007,52	-30,00
-2996,48	-93,00
-2985,44	145,00
-2974,43	-96,00
-2963,43	67,00
-2952,45	70,00
-2941,48	-6,00
-2930,53	102,00
-2919,60	16,00
-2908,68	-131,00
-2897,78	-22,00
-2886,89	-22,00
-2876,02	-54,00
-2865,17	18,00
-2854,33	7,00
-2843,50	31,00
-2832,70	-81,00
-2821,90	20,00
-2811,13	42,00
-2800,37	-66,00
-2789,62	-80,00
-2778,89	-9,00
-2768,18	209,00
-2757,48	-43,00
-2746,80	34,00
-2736,13	16,00
-2725,48	-43,00
-2714,84	50,00
-2704,22	-23,00
-2693,61	50,00
-2683,02	111,00
-2672,45	-35,00
-2661,89	28,00
-2651,34	120,00
-2640,81	67,00
-2630,30	57,00
-2619,80	147,00
-2609,31	87,00
-2598,84	85,00
-2588,39	-86,00
-2577,95	57,00
-2567,52	26,00
-2557,11	91,00
-2546,71	-28,00
-2536,33	83,00
-2525,97	-79,00
-2515,62	72,00
-2505,28	63,00
-2494,96	95,00
-2484,65	36,00
-2474,36	55,00
-2464,08	32,00
-2453,82	148,00
-2443,57	98,00
-2433,33	-47,00
-2423,11	63,00
-2412,91	-86,00
-2402,72	91,00
-2392,54	45,00
-2382,38	-9,00
-2372,23	-5,00
-2362,09	-4656,00
-2351,97	15,00
-2341,87	-4,00
-2331,78	-20,00
-2321,70	56,00
-2311,64	-36,00
-2301,59	-33,00
-2291,55	42,00
-2281,53	75,00
-2271,53	52,00
-2261,53	79,00
-2251,55	114,00
-2241,59	0,00
-2231,64	-77,00
-2221,70	-72,00
-2211,78	92,00
-2201,87	44,00
-2191,97	34,00
-2182,09	14,00
-2172,22	64,00
-2162,37	-20,00
-2152,53	76,00
-2142,70	128,00
-2132,89	59,00
-2123,09	127,00
-2113,30	35,00
-2103,53	-85,00
-2093,77	-40,00
-2084,02	79,00
-2074,29	15,00
-2064,57	-65,00
-2054,86	-47,00
-2045,17	59,00
-2035,49	58,00
-2025,82	-18,00
-2016,17	39,00
-2006,53	89,00
-1996,91	15,00
-1987,29	21,00
-1977,69	35,00
-1968,11	-75,00
-1958,53	100,00
-1948,97	12,00
-1939,42	-62,00
-1929,89	-8,00
-1920,37	-45,00
-1910,86	6,00
-1901,36	-2,00
-1891,88	87,00
-1882,41	-53,00
-1872,95	59,00
-1863,51	63,00
-1854,08	17,00
-1844,66	-2,00
-1835,26	37,00
-1825,86	16,00
-1816,48	90,00
-1807,11	51,00
-1797,76	176,00
-1788,42	74,00
-1779,09	-24,00
-1769,77	34,00
-1760,47	206,00
-1751,17	29,00
-1741,89	-71,00
-1732,63	94,00
-1723,37	-1,00
-1714,13	23,00
-1704,90	64,00
-1695,68	-58,00
-1686,48	112,00
-1677,29	34,00
-1668,11	168,00
-1658,94	0,00
-1649,78	-30,00
-1640,64	122,00
-1631,51	47,00
-1622,39	0,00
-1613,28	20,00
-1604,19	-30,00
-1595,10	-29,00
-1586,03	99,00
-1576,97	2,00
-1567,93	-58,00
-1558,89	-75,00
-1549,87	64,00
-1540,86	11,00
-1531,86	67,00
-1522,87	33,00
-1513,90	45,00
-1504,93	82,00
-1495,98	42,00
-1487,04	72,00
-1478,12	101,00
-1469,20	42,00
-1460,30	18,00
-1451,40	253,00
-1442,52	122,00
-1433,65	-62,00
-1424,80	39,00
-1415,95	65,00
-1407,12	66,00
-1398,30	12,00
-1389,48	38,00
-1380,69	65,00
-1371,90	86,00
-1363,12	-59,00
-1354,36	-77,00
-1345,60	-6,00
-1336,86	-13,00
-1328,13	-2,00
-1319,41	77,00
-1310,70	-21,00
-1302,01	83,00
-1293,32	-59,00
-1284,65	35,00
-1275,99	20,00
-1267,33	43,00
-1258,69	22,00
-1250,06	61,00
-1241,45	16,00
-1232,84	-26,00
-1224,25	-15,00
-1215,66	61,00
-1207,09	67,00
-1198,53	-12,00
-1189,97	36,00
-1181,43	0,00
-1172,91	4,00
-1164,39	53,00
-1155,88	21,00
-1147,38	52,00
-1138,90	-53,00
-1130,43	37,00
-1121,96	4,00
-1113,51	111,00
-1105,07	41,00
-1096,64	12,00
-1088,22	162,00
-1079,81	-16,00
-1071,41	5,00
-1063,02	152,00
-1054,65	-143,00
-1046,28	-11,00
-1037,92	53,00
-1029,58	59,00
-1021,24	-22,00
-1012,92	95,00
-1004,61	7,00
-996,30	126,00
-988,01	65,00
-979,73	42,00
-971,46	38,00
-963,20	-19,00
-954,95	-26,00
-946,71	11,00
-938,48	54,00
-930,26	49,00
-922,06	138,00
-913,86	137,00
-905,67	123,00
-897,49	34,00
-889,33	-15,00
-881,17	-32,00
-873,02	-62,00
-864,89	48,00
-856,76	-16,00
-848,65	45,00
-840,54	39,00
-832,45	70,00
-824,36	-10,00
-816,29	54,00
-808,22	30,00
-800,17	127,00
-792,12	122,00
-784,09	-111,00
-776,06	-97,00
-768,05	63,00
-760,04	91,00
-752,05	92,00
-744,07	3,00
-736,09	176,00
-728,13	116,00
-720,17	-29,00
-712,23	16,00
-704,29	-48,00
-696,37	-45,00
-688,45	-35,00
-680,55	12,00
-672,65	-101,00
-664,77	-58,00
-656,89	99,00
-649,03	97,00
-641,17	91,00
-633,32	-3,00
-625,49	24,00
-617,66	153,00
-609,84	-39,00
-602,03	64,00
-594,23	-103,00
-586,45	-65,00
-578,67	-73,00
-570,90	69,00
-563,14	62,00
-555,39	75,00
-547,65	65,00
-539,91	-30,00
-532,19	-62,00
-524,48	10,00
-516,78	25,00
-509,08	-20,00
-501,40	112,00
-493,72	-8,00
-486,06	143,00
-478,40	79,00
-470,76	56,00
-463,12	55,00
-455,49	21,00
-447,87	86,00
-440,26	-70,00
-432,66	-15,00
-425,07	29,00
-417,49	12,00
-409,92	-6,00
-402,35	106,00
-394,80	95,00
-387,25	13,00
-379,72	117,00
-372,19	127,00
-364,67	11,00
-357,17	-25,00
-349,67	-25,00
-342,18	76,00
-334,69	171,00
-327,22	32,00
-319,76	98,00
-312,30	64,00
-304,86	34,00
-297,42	44,00
-290,00	72,00
-282,58	-78,00
-275,17	-5,00
-267,77	81,00
-260,37	20,00
-252,99	24,00
-245,62	-18,00
-238,25	110,00
-230,90	47,00
-223,55	111,00
-216,21	11,00
-208,88	193,00
-201,56	113,00
-194,25	144,00
-186,94	241,00
-179,65	136,00
-172,36	96,00
-165,08	269,00
-157,81	199,00
-150,55	260,00
-143,30	428,00
-136,06	300,00
-128,82	367,00
-121,60	349,00
-114,38	403,00
-107,17	467,00
-99,97	512,00
-92,78	601,00
-85,60	744,00
-78,42	771,00
-71,25	863,00
-64,10	1147,00
-56,95	1070,00
-49,81	1458,00
-42,67	1622,00
-35,55	2264,00
-28,43	3005,00
-21,33	4988,00
-14,23	17153,00
-7,14	55238,00
-0,05	54948,00
7,02	54664,00
14,09	52452,00
21,14	14261,00
28,19	6045,00
35,23	3779,00
42,27	2863,00
49,29	2183,00
56,31	1940,00
63,32	1654,00
70,32	1354,00
77,31	1117,00
84,29	1044,00
91,27	861,00
98,23	837,00
105,19	759,00
112,14	671,00
119,09	1031,00
126,02	1472,00
132,95	1668,00
139,87	1713,00
146,78	1717,00
153,68	1586,00
160,58	1584,00
167,46	1487,00
174,34	1695,00
181,21	1449,00
188,08	1621,00
194,93	1425,00
201,78	1568,00
208,62	1470,00
215,45	1395,00
222,27	1559,00
229,09	1407,00
235,90	1496,00
242,70	1444,00
249,49	1293,00
256,27	1481,00
263,05	1360,00
269,82	1373,00
276,58	1348,00
283,33	1364,00
290,08	1282,00
296,82	1287,00
303,55	1306,00
310,27	1202,00
316,98	1298,00
323,69	1344,00
330,39	1369,00
337,08	1255,00
343,76	1266,00
350,44	1174,00
357,11	1269,00
363,77	1274,00
370,42	1161,00
377,07	1127,00
383,71	1157,00
390,34	1077,00
396,96	1230,00
403,58	1294,00
410,19	1113,00
416,79	1233,00
423,38	1164,00
429,97	1168,00
436,55	1013,00
443,12	1123,00
449,68	1017,00
456,24	1136,00
462,79	1064,00
469,33	1126,00
475,86	1242,00
482,39	1100,00
488,91	913,00
495,42	965,00
501,93	996,00
508,42	975,00
514,91	911,00
521,40	1068,00
527,87	962,00
534,34	1012,00
540,80	1016,00
547,25	924,00
553,70	1015,00
560,14	907,00
566,57	875,00
573,00	1051,00
579,41	959,00
585,83	934,00
592,23	1028,00
598,62	904,00
605,01	878,00
611,40	954,00
617,77	893,00
624,14	1017,00
630,50	1024,00
636,85	902,00
643,20	980,00
649,54	945,00
655,87	928,00
662,20	804,00
668,52	974,00
674,83	770,00
681,13	852,00
687,43	891,00
693,72	795,00
700,00	801,00
706,28	760,00
712,55	854,00
718,81	915,00
725,07	867,00
731,32	861,00
737,56	818,00
743,79	819,00
750,02	856,00
756,24	749,00
762,46	812,00
768,67	804,00
774,87	781,00
781,06	964,00
787,25	806,00
793,43	793,00
799,60	743,00
805,77	807,00
811,93	920,00
818,08	824,00
824,23	921,00
830,37	820,00
836,50	931,00
842,63	831,00
848,75	927,00
854,87	788,00
860,97	800,00
867,07	830,00
873,17	818,00
879,25	928,00
885,33	764,00
891,41	863,00
897,47	800,00
903,53	746,00
909,59	788,00
915,63	825,00
921,67	858,00
927,71	811,00
933,74	739,00
939,76	777,00
945,77	756,00
951,78	772,00
957,78	759,00
963,78	696,00
969,77	763,00
975,75	817,00
981,72	627,00
987,69	751,00
993,66	748,00
999,61	774,00
1005,56	761,00
1011,51	734,00
1017,44	792,00
1023,37	763,00
1029,30	884,00
1035,22	801,00
1041,13	905,00
1047,03	829,00
1052,93	859,00
1058,83	1026,00
1064,71	1069,00
1070,59	881,00
1076,47	853,00
1082,33	766,00
1088,20	793,00
1094,05	776,00
1099,90	774,00
1105,74	609,00
1111,58	757,00
1117,41	972,00
1123,23	973,00
1129,05	975,00
1134,86	921,00
1140,67	970,00
1146,47	801,00
1152,26	851,00
1158,05	722,00
1163,83	739,00
1169,60	768,00
1175,37	786,00
1181,13	705,00
1186,89	680,00
1192,64	781,00
1198,38	760,00
1204,12	634,00
1209,85	673,00
1215,58	741,00
1221,30	753,00
1227,02	721,00
1232,72	713,00
1238,43	684,00
1244,12	725,00
1249,81	729,00
1255,50	620,00
1261,17	708,00
1266,85	805,00
1272,51	757,00
1278,17	763,00
1283,83	843,00
1289,47	1065,00
1295,12	1191,00
1300,75	1206,00
1306,38	1093,00
1312,01	893,00
1317,63	799,00
1323,24	837,00
1328,85	761,00
1334,45	794,00
1340,04	775,00
1345,63	869,00
1351,22	767,00
1356,80	822,00
1362,37	850,00
1367,93	831,00
1373,49	670,00
1379,05	698,00
1384,60	756,00
1390,14	828,00
1395,68	826,00
1401,21	785,00
1406,74	798,00
1412,26	872,00
1417,77	755,00
1423,28	850,00
1428,78	1063,00
1434,28	1347,00
1439,77	1234,00
1445,26	1187,00
1450,74	1217,00
1456,22	1210,00
1461,68	1083,00
1467,15	1021,00
1472,61	849,00
1478,06	828,00
1483,51	812,00
1488,95	820,00
1494,38	771,00
1499,81	647,00
1505,24	811,00
1510,65	603,00
1516,07	624,00
1521,48	735,00
1526,88	607,00
1532,27	645,00
1537,67	700,00
1543,05	748,00
1548,43	718,00
1553,81	682,00
1559,18	628,00
1564,54	746,00
1569,90	607,00
1575,25	601,00
1580,60	643,00
1585,94	640,00
1591,28	795,00
1596,61	648,00
1601,93	602,00
1607,25	650,00
1612,57	631,00
1617,88	687,00
1623,18	624,00
1628,48	575,00
1633,77	571,00
1639,06	530,00
1644,34	610,00
1649,62	594,00
1654,89	644,00
1660,16	607,00
1665,42	606,00
1670,67	588,00
1675,92	610,00
1681,17	542,00
1686,41	580,00
1691,64	524,00
1696,87	541,00
1702,10	453,00
1707,32	532,00
1712,53	480,00
1717,74	463,00
1722,94	524,00
1728,14	542,00
1733,33	575,00
1738,52	623,00
1743,70	550,00
1748,88	521,00
1754,05	584,00
1759,22	431,00
1764,38	559,00
1769,53	520,00
1774,69	481,00
1779,83	426,00
1784,97	556,00
1790,11	547,00
1795,24	482,00
1800,36	395,00
1805,48	386,00
1810,60	489,00
1815,71	314,00
1820,82	403,00
1825,92	441,00
1831,01	346,00
1836,10	524,00
1841,19	460,00
1846,26	477,00
1851,34	442,00
1856,41	400,00
1861,47	384,00
1866,53	583,00
1871,59	455,00
1876,64	295,00
1881,68	366,00
1886,72	176,00
1891,76	547,00
1896,79	378,00
1901,81	428,00
1906,83	482,00
1911,85	407,00
1916,86	493,00
1921,86	371,00
1926,86	405,00
1931,86	443,00
1936,85	421,00
1941,83	452,00
1946,81	419,00
1951,79	386,00
1956,76	364,00
1961,72	333,00
1966,68	360,00
1971,64	445,00
1976,59	419,00
1981,54	409,00
1986,48	496,00
1991,42	275,00
1996,35	301,00
2001,27	320,00
2006,20	419,00
2011,11	415,00
2016,03	351,00
2020,93	346,00
2025,84	188,00
2030,73	344,00
2035,63	239,00
2040,52	290,00
2045,40	366,00
2050,28	328,00
2055,15	375,00
2060,02	385,00
2064,89	306,00
2069,75	292,00
2074,60	363,00
2079,46	333,00
2084,30	327,00
2089,14	225,00
2093,98	260,00
2098,81	309,00
2103,64	306,00
2108,46	327,00
2113,28	333,00
2118,09	330,00
2122,90	319,00
2127,70	191,00
2132,50	453,00
2137,30	270,00
2142,09	295,00
2146,87	490,00
2151,66	207,00
2156,43	408,00
2161,20	265,00
2165,97	317,00
2170,73	222,00
2175,49	459,00
2180,24	266,00
2184,99	264,00
2189,74	319,00
2194,48	256,00
2199,21	333,00
2203,94	351,00
2208,67	265,00
2213,39	293,00
2218,11	196,00
2222,82	242,00
2227,53	253,00
2232,23	286,00
2236,93	243,00
2241,63	146,00
2246,32	295,00
2251,00	187,00
2255,68	239,00
2260,36	268,00
2265,03	346,00
2269,70	214,00
2274,36	343,00
2279,02	229,00
2283,68	240,00
2288,33	256,00
2292,97	413,00
2297,61	272,00
2302,25	358,00
2306,88	354,00
2311,51	195,00
2316,14	232,00
2320,75	153,00
2325,37	168,00
2329,98	132,00
2334,59	278,00
2339,19	105,00
2343,79	131,00
2348,38	202,00
2352,97	186,00
2357,55	221,00
2362,13	261,00
2366,71	305,00
2371,28	310,00
2375,85	237,00
2380,41	239,00
2384,97	178,00
2389,52	192,00
2394,07	245,00
2398,62	247,00
2403,16	272,00
2407,70	159,00
2412,23	223,00
2416,76	238,00
2421,29	221,00
2425,81	302,00
2430,32	225,00
2434,84	149,00
2439,34	208,00
2443,85	131,00
2448,35	210,00
2452,84	161,00
2457,33	201,00
2461,82	264,00
2466,30	133,00
2470,78	182,00
2475,25	175,00
2479,72	133,00
2484,19	95,00
2488,65	200,00
2493,11	202,00
2497,56	262,00
2502,01	180,00
2506,46	134,00
2510,90	207,00
2515,34	204,00
2519,77	215,00
2524,20	267,00
2528,62	157,00
2533,04	222,00
2537,46	136,00
2541,87	221,00
2546,28	187,00
2550,68	177,00
2555,08	152,00
2559,48	110,00
2563,87	117,00
2568,26	140,00
2572,64	248,00
2577,02	112,00
2581,40	169,00
2585,77	244,00
2590,14	136,00
2594,50	164,00
2598,86	158,00
2603,22	153,00
2607,57	247,00
2611,92	106,00
2616,26	210,00
2620,60	171,00
2624,94	123,00
2629,27	215,00
2633,60	184,00
2637,92	183,00
2642,24	215,00
2646,56	190,00
2650,87	224,00
2655,18	219,00
2659,48	132,00
2663,78	92,00
2668,08	278,00
2672,37	300,00
2676,66	158,00
2680,95	104,00
2685,23	154,00
2689,50	214,00
2693,78	267,00
2698,05	178,00
2702,31	178,00
2706,57	182,00
2710,83	133,00
2715,08	199,00
2719,33	308,00
2723,58	265,00
2727,82	207,00
2732,06	218,00
2736,29	188,00
2740,53	225,00
2744,75	199,00
2748,97	167,00
2753,19	260,00
2757,41	317,00
2761,62	100,00
2765,83	195,00
2770,03	190,00
2774,23	197,00
2778,43	125,00
2782,62	228,00
2786,81	158,00
2791,00	178,00
2795,18	257,00
2799,35	317,00
2803,53	227,00
2807,70	202,00
2811,86	301,00
2816,03	246,00
2820,19	311,00
2824,34	368,00
2828,49	379,00
2832,64	263,00
2836,78	481,00
2840,92	565,00
2845,06	662,00
2849,19	704,00
2853,32	680,00
2857,45	947,00
2861,57	827,00
2865,69	790,00
2869,80	687,00
2873,91	779,00
2878,02	893,00
2882,12	789,00
2886,22	800,00
2890,32	723,00
2894,41	799,00
2898,50	778,00
2902,58	766,00
2906,67	625,00
2910,74	563,00
2914,82	602,00
2918,89	537,00
2922,96	559,00
2927,02	480,00
2931,08	466,00
2935,13	443,00
2939,19	570,00
2943,24	284,00
2947,28	283,00
2951,32	313,00
2955,36	348,00
2959,40	23,00
2963,43	171,00
2967,46	205,00
2971,48	244,00
2975,50	181,00
2979,52	267,00
2983,53	260,00
2987,54	112,00
2991,55	149,00
2995,55	150,00
2999,55	63,00
3003,54	104,00
3007,54	184,00
3011,53	244,00
3015,51	189,00
3019,49	186,00
3023,47	197,00
3027,45	117,00
3031,42	123,00
3035,39	134,00
3039,35	235,00
3043,31	-38,00
3047,27	37,00
3051,22	120,00
3055,17	106,00
3059,12	72,00
3063,06	102,00
3067,00	128,00
3070,94	74,00
3074,87	129,00
3078,80	-44,00
3082,73	94,00
3086,65	154,00
3090,57	134,00
3094,49	151,00
3098,40	99,00
3102,31	171,00
3106,22	23,00
3110,12	-11,00
3114,02	116,00
3117,92	134,00
3121,81	86,00
3125,70	2,00
3129,58	68,00
3133,47	101,00
3137,34	55,00
3141,22	70,00
3145,09	52,00
3148,96	71,00
3152,83	57,00
3156,69	86,00
3160,55	147,00
3164,40	36,00
3168,26	139,00
3172,10	27,00
3175,95	5,00
3179,79	72,00
3183,63	99,00
3187,47	130,00
3191,30	153,00
3195,13	49,00
3198,95	13,00
3202,78	112,00
3206,60	23,00
3210,41	150,00
3214,23	130,00
3218,03	92,00
3221,84	92,00
3225,64	106,00
3229,44	134,00
3233,24	211,00
3237,03	35,00
3240,82	-49,00
3244,61	118,00
3248,39	162,00
3252,17	31,00
3255,95	46,00
3259,72	-1,00
3263,49	26,00
3267,26	-40,00
3271,03	135,00
3274,79	104,00
3278,54	45,00
3282,30	91,00
3286,05	180,00
3289,80	14,00
3293,54	29,00
3297,29	-21,00
3301,02	59,00
3304,76	33,00
3308,49	64,00
3312,22	146,00
3315,95	56,00
3319,67	103,00
3323,39	17,00
3327,10	68,00
3330,82	122,00
3334,53	40,00
3338,24	87,00
3341,94	53,00
3345,64	160,00
3349,34	128,00
3353,03	70,00
3356,72	87,00
3360,41	201,00
3364,10	100,00
3367,78	41,00
3371,46	71,00
3375,13	122,00
3378,81	106,00
3382,48	8,00
3386,14	-8,00
3389,81	23,00
3393,47	15,00
3397,12	94,00
3400,78	-45,00
3404,43	135,00
3408,08	125,00
3411,72	96,00
3415,36	111,00
3419,00	64,00
3422,64	61,00
3426,27	135,00
3429,90	-9,00
3433,53	162,00
3437,15	65,00
3440,77	83,00
3444,39	-29,00
3448,00	91,00
3451,62	104,00
3455,22	98,00
3458,83	22,00
3462,43	110,00
3466,03	-31,00
3469,63	74,00
3473,22	64,00
3476,81	69,00
3480,40	39,00
3483,99	31,00
3487,57	119,00
3491,15	95,00
3494,72	-43,00
3498,29	42,00
3501,86	-26,00
3505,43	-21,00
3508,99	29,00
3512,56	128,00
3516,11	91,00
3519,67	59,00
3523,22	-6,00
3526,77	174,00
3530,32	79,00
3533,86	98,00
3537,40	48,00
3540,94	-6,00
3544,47	-5,00
3548,00	94,00
3551,53	87,00
3555,06	78,00
3558,58	150,00
3562,10	9,00
3565,62	2,00
3569,13	120,00
3572,64	-51,00
3576,15	-29,00
3579,66	27,00
3583,16	-9,00
3586,66	13,00
3590,16	114,00
3593,65	22,00
3597,14	11,00
3600,63	96,00
3604,11	146,00
3607,60	-53,00
3611,08	6,00
3614,55	117,00
3618,03	29,00
3621,50	23,00
3624,97	19,00
3628,43	23,00
3631,90	2,00
3635,36	124,00
3638,81	99,00
3642,27	-76,00
3645,72	63,00
3649,17	-40,00
3652,61	-22,00
3656,06	177,00
3659,50	23,00
3662,93	-87,00
3666,37	77,00
3669,80	37,00
3673,23	-58,00
3676,65	87,00
3680,08	28,00
3683,50	36,00
3686,92	159,00
3690,33	103,00
3693,74	70,00
3697,15	86,00
3700,56	17,00
3703,96	-12,00
3707,36	35,00
3710,76	75,00
3714,16	-16,00
3717,55	-46,00
3720,94	12,00
3724,33	85,00
3727,71	-39,00
3731,10	28,00
3734,48	-39,00
3737,85	34,00
3741,23	111,00
3744,60	27,00
3747,97	30,00
3751,33	10,00
3754,69	-69,00
3758,05	126,00
3761,41	-62,00
3764,77	56,00
3768,12	54,00
3771,47	32,00
3774,82	-98,00
3778,16	1,00
3781,50	-2,00
3784,84	-1,00
3788,18	-4,00
>>>>>End Processed Spectral Data<<<<<
