SpectraSuite Data File
++++++++++++++++++++++++++++++++++++
Date: Mon Mar 09 16:23:00 ICT 2026
User: Administrator
Dark Spectrum Present: Yes
Reference Spectrum Present: No
Number of Sampled Component Spectra: 1
Spectrometers: MAYP113682
Integration Time (usec): 3000000 (MAYP113682)
Spectra Averaged: 1 (MAYP113682)
Boxcar Smoothing: 0 (MAYP113682)
Correct for Electrical Dark: No (MAYP113682)
Strobe/Lamp Enabled: No (MAYP113682)
Correct for Detector Non-linearity: No (MAYP113682)
Correct for Stray Light: No (MAYP113682)
Number of Pixels in Processed Spectrum: 2068
>>>>>Begin Processed Spectral Data<<<<<
-37534,58	-4,00
-37414,56	4,00
-37295,11	-3,00
-37176,24	-1,00
-37057,95	-61,00
-36940,22	69,00
-36823,05	136,00
-36706,45	47,00
-36590,40	41,00
-36474,90	111,00
-36359,95	79,00
-36245,55	28,00
-36131,68	100,00
-36018,35	204,00
-35905,55	60,00
-35793,29	-57,00
-35681,54	44,00
-35570,32	90,00
-35459,62	52,00
-35349,43	58,00
-35239,75	19,00
-35130,58	74,00
-35021,91	55,00
-34913,74	11,00
-34806,07	66,00
-34698,89	37,00
-34592,20	84,00
-34486,00	86,00
-34380,28	112,00
-34275,04	127,00
-34170,27	-5,00
-34065,98	20,00
-33962,16	81,00
-33858,81	-35,00
-33755,92	159,00
-33653,49	15,00
-33551,52	39,00
-33450,01	203,00
-33348,94	60,00
-33248,33	-72,00
-33148,16	22,00
-33048,43	114,00
-32949,14	-6,00
-32850,29	70,00
-32751,87	7,00
-32653,89	53,00
-32556,33	70,00
-32459,20	144,00
-32362,49	209,00
-32266,19	128,00
-32170,32	107,00
-32074,86	80,00
-31979,82	34,00
-31885,18	33,00
-31790,95	105,00
-31697,12	38,00
-31603,69	128,00
-31510,67	33,00
-31418,04	79,00
-31325,80	68,00
-31233,95	172,00
-31142,49	91,00
-31051,42	103,00
-30960,73	16,00
-30870,43	16,00
-30780,50	98,00
-30690,95	40,00
-30601,77	100,00
-30512,97	181,00
-30424,53	65,00
-30336,46	22,00
-30248,76	18,00
-30161,42	110,00
-30074,44	-4,00
-29987,81	127,00
-29901,55	142,00
-29815,63	73,00
-29730,07	50,00
-29644,86	110,00
-29560,00	68,00
-29475,48	111,00
-29391,30	165,00
-29307,47	40,00
-29223,97	9,00
-29140,81	132,00
-29057,99	120,00
-28975,50	9,00
-28893,34	95,00
-28811,51	116,00
-28730,00	109,00
-28648,82	138,00
-28567,97	16,00
-28487,43	74,00
-28407,21	110,00
-28327,32	79,00
-28247,73	150,00
-28168,46	-18,00
-28089,50	73,00
-28010,85	-45,00
-27932,51	159,00
-27854,48	114,00
-27776,75	57,00
-27699,32	138,00
-27622,19	-23,00
-27545,37	74,00
-27468,84	144,00
-27392,60	110,00
-27316,66	3,00
-27241,01	167,00
-27165,66	103,00
-27090,59	79,00
-27015,81	122,00
-26941,31	80,00
-26867,10	60,00
-26793,17	-35,00
-26719,52	81,00
-26646,15	-3,00
-26573,06	127,00
-26500,24	100,00
-26427,70	76,00
-26355,43	42,00
-26283,43	124,00
-26211,71	-31,00
-26140,25	90,00
-26069,06	92,00
-25998,13	142,00
-25927,46	30,00
-25857,06	120,00
-25786,92	77,00
-25717,04	87,00
-25647,42	195,00
-25578,05	132,00
-25508,94	94,00
-25440,09	147,00
-25371,48	92,00
-25303,13	112,00
-25235,02	69,00
-25167,17	90,00
-25099,56	97,00
-25032,19	134,00
-24965,07	121,00
-24898,20	100,00
-24831,56	72,00
-24765,17	77,00
-24699,01	143,00
-24633,10	62,00
-24567,41	121,00
-24501,97	-9,00
-24436,75	-61,00
-24371,77	160,00
-24307,03	65,00
-24242,51	70,00
-24178,22	40,00
-24114,16	104,00
-24050,32	153,00
-23986,71	205,00
-23923,32	117,00
-23860,16	23,00
-23797,22	108,00
-23734,50	85,00
-23672,00	-45,00
-23609,71	81,00
-23547,65	87,00
-23485,80	13,00
-23424,16	27,00
-23362,74	252,00
-23301,53	-58,00
-23240,54	56,00
-23179,75	91,00
-23119,17	-40,00
-23058,80	94,00
-22998,64	72,00
-22938,68	130,00
-22878,93	62,00
-22819,39	166,00
-22760,04	167,00
-22700,90	-33,00
-22641,96	35,00
-22583,22	68,00
-22524,68	100,00
-22466,33	76,00
-22408,19	93,00
-22350,23	-10,00
-22292,48	162,00
-22234,92	160,00
-22177,55	73,00
-22120,37	55,00
-22063,38	157,00
-22006,58	138,00
-21949,98	32,00
-21893,56	76,00
-21837,33	2,00
-21781,28	27,00
-21725,42	52,00
-21669,74	70,00
-21614,25	98,00
-21558,94	140,00
-21503,81	60,00
-21448,86	-9,00
-21394,10	110,00
-21339,51	6,00
-21285,10	79,00
-21230,86	50,00
-21176,81	14,00
-21122,93	50,00
-21069,22	73,00
-21015,69	161,00
-20962,33	204,00
-20909,14	55,00
-20856,13	10,00
-20803,28	163,00
-20750,61	32,00
-20698,10	-23,00
-20645,76	48,00
-20593,59	13,00
-20541,59	106,00
-20489,75	-17,00
-20438,07	117,00
-20386,56	69,00
-20335,22	134,00
-20284,03	-18,00
-20233,01	81,00
-20182,15	10,00
-20131,45	-14,00
-20080,91	78,00
-20030,52	67,00
-19980,30	30,00
-19930,23	30,00
-19880,32	24,00
-19830,56	69,00
-19780,96	70,00
-19731,52	109,00
-19682,23	82,00
-19633,09	23,00
-19584,10	11,00
-19535,26	103,00
-19486,58	146,00
-19438,04	45,00
-19389,66	66,00
-19341,42	15,00
-19293,33	137,00
-19245,39	48,00
-19197,60	176,00
-19149,95	147,00
-19102,45	196,00
-19055,09	57,00
-19007,87	48,00
-18960,80	157,00
-18913,87	8,00
-18867,09	-20,00
-18820,44	44,00
-18773,94	148,00
-18727,57	28,00
-18681,35	113,00
-18635,26	77,00
-18589,31	60,00
-18543,50	-37,00
-18497,83	29,00
-18452,29	45,00
-18406,89	47,00
-18361,63	140,00
-18316,50	57,00
-18271,50	92,00
-18226,63	51,00
-18181,90	67,00
-18137,30	180,00
-18092,84	10,00
-18048,50	147,00
-18004,29	67,00
-17960,22	115,00
-17916,27	152,00
-17872,45	97,00
-17828,76	65,00
-17785,20	104,00
-17741,77	99,00
-17698,46	152,00
-17655,28	24,00
-17612,22	144,00
-17569,29	154,00
-17526,48	54,00
-17483,79	76,00
-17441,23	45,00
-17398,79	45,00
-17356,48	119,00
-17314,28	150,00
-17272,21	42,00
-17230,26	-4,00
-17188,42	163,00
-17146,71	29,00
-17105,12	36,00
-17063,64	48,00
-17022,28	163,00
-16981,04	113,00
-16939,92	41,00
-16898,91	65,00
-16858,02	35,00
-16817,25	-43,00
-16776,59	118,00
-16736,04	41,00
-16695,61	72,00
-16655,29	-12,00
-16615,09	81,00
-16574,99	178,00
-16535,01	117,00
-16495,15	153,00
-16455,39	25,00
-16415,74	79,00
-16376,21	21,00
-16336,78	28,00
-16297,46	-9,00
-16258,26	109,00
-16219,16	-40,00
-16180,17	85,00
-16141,28	82,00
-16102,51	73,00
-16063,84	25,00
-16025,27	26,00
-15986,82	169,00
-15948,46	33,00
-15910,22	54,00
-15872,07	64,00
-15834,04	138,00
-15796,10	82,00
-15758,27	197,00
-15720,54	17,00
-15682,91	54,00
-15645,39	-18,00
-15607,97	21,00
-15570,64	-3,00
-15533,42	124,00
-15496,30	177,00
-15459,28	80,00
-15422,36	61,00
-15385,54	17,00
-15348,82	11,00
-15312,19	70,00
-15275,66	46,00
-15239,23	173,00
-15202,90	-28,00
-15166,67	-5,00
-15130,53	65,00
-15094,48	54,00
-15058,54	53,00
-15022,68	-53,00
-14986,93	156,00
-14951,26	60,00
-14915,69	162,00
-14880,22	61,00
-14844,84	9,00
-14809,55	161,00
-14774,35	135,00
-14739,25	6,00
-14704,24	105,00
-14669,32	-17,00
-14634,49	166,00
-14599,75	-4,00
-14565,10	6,00
-14530,55	61,00
-14496,08	85,00
-14461,70	122,00
-14427,41	111,00
-14393,21	69,00
-14359,10	57,00
-14325,07	83,00
-14291,14	-30,00
-14257,29	93,00
-14223,52	101,00
-14189,85	125,00
-14156,26	194,00
-14122,76	36,00
-14089,34	126,00
-14056,01	108,00
-14022,76	78,00
-13989,60	-34,00
-13956,52	169,00
-13923,53	-51,00
-13890,62	102,00
-13857,79	29,00
-13825,05	16,00
-13792,39	10,00
-13759,81	149,00
-13727,31	74,00
-13694,90	92,00
-13662,57	80,00
-13630,31	61,00
-13598,14	-78,00
-13566,05	112,00
-13534,05	96,00
-13502,12	-15,00
-13470,27	86,00
-13438,50	47,00
-13406,80	-39,00
-13375,19	92,00
-13343,66	30,00
-13312,20	38,00
-13280,83	32,00
-13249,53	35,00
-13218,30	86,00
-13187,16	108,00
-13156,09	64,00
-13125,10	115,00
-13094,18	106,00
-13063,34	104,00
-13032,58	19,00
-13001,89	75,00
-12971,28	-63,00
-12940,74	79,00
-12910,27	-25,00
-12879,88	29,00
-12849,57	45,00
-12819,33	42,00
-12789,16	52,00
-12759,06	33,00
-12729,04	121,00
-12699,09	-1175,00
-12669,21	99,00
-12639,41	14,00
-12609,68	195,00
-12580,02	69,00
-12550,43	30,00
-12520,91	95,00
-12491,46	58,00
-12462,08	49,00
-12432,77	-29,00
-12403,54	66,00
-12374,37	206,00
-12345,27	52,00
-12316,24	82,00
-12287,29	107,00
-12258,40	100,00
-12229,57	60,00
-12200,82	82,00
-12172,14	-5,00
-12143,52	85,00
-12114,97	160,00
-12086,49	9,00
-12058,07	79,00
-12029,73	50,00
-12001,44	60,00
-11973,23	101,00
-11945,08	204,00
-11917,00	168,00
-11888,98	99,00
-11861,03	175,00
-11833,15	92,00
-11805,32	93,00
-11777,57	78,00
-11749,88	103,00
-11722,25	-83,00
-11694,69	58,00
-11667,19	111,00
-11639,75	78,00
-11612,38	143,00
-11585,07	159,00
-11557,83	128,00
-11530,65	86,00
-11503,53	79,00
-11476,47	139,00
-11449,48	66,00
-11422,54	35,00
-11395,67	3,00
-11368,86	137,00
-11342,11	126,00
-11315,43	29,00
-11288,80	112,00
-11262,23	188,00
-11235,73	100,00
-11209,28	41,00
-11182,90	152,00
-11156,57	93,00
-11130,31	201,00
-11104,10	-50,00
-11077,96	77,00
-11051,87	75,00
-11025,84	108,00
-10999,87	158,00
-10973,96	70,00
-10948,11	-8,00
-10922,31	60,00
-10896,58	62,00
-10870,90	122,00
-10845,28	43,00
-10819,71	64,00
-10794,20	128,00
-10768,75	84,00
-10743,36	68,00
-10718,02	98,00
-10692,74	112,00
-10667,52	145,00
-10642,35	199,00
-10617,24	-46,00
-10592,18	116,00
-10567,18	94,00
-10542,23	101,00
-10517,34	195,00
-10492,51	-14,00
-10467,72	166,00
-10443,00	96,00
-10418,32	98,00
-10393,70	19,00
-10369,14	163,00
-10344,63	30,00
-10320,17	249,00
-10295,77	238,00
-10271,42	88,00
-10247,12	168,00
-10222,88	127,00
-10198,68	222,00
-10174,54	60,00
-10150,46	90,00
-10126,42	254,00
-10102,44	134,00
-10078,51	203,00
-10054,63	246,00
-10030,80	151,00
-10007,03	139,00
-9983,30	138,00
-9959,63	193,00
-9936,01	320,00
-9912,44	135,00
-9888,92	215,00
-9865,44	207,00
-9842,02	142,00
-9818,65	269,00
-9795,33	275,00
-9772,06	202,00
-9748,84	254,00
-9725,67	259,00
-9702,55	161,00
-9679,47	316,00
-9656,45	417,00
-9633,47	414,00
-9610,55	460,00
-9587,67	323,00
-9564,84	372,00
-9542,06	347,00
-9519,32	617,00
-9496,64	566,00
-9474,00	551,00
-9451,41	671,00
-9428,87	488,00
-9406,37	673,00
-9383,92	603,00
-9361,52	597,00
-9339,17	457,00
-9316,86	598,00
-9294,60	757,00
-9272,38	840,00
-9250,21	880,00
-9228,09	967,00
-9206,01	958,00
-9183,98	842,00
-9162,00	776,00
-9140,06	693,00
-9118,16	704,00
-9096,31	810,00
-9074,51	884,00
-9052,75	1016,00
-9031,04	854,00
-9009,37	748,00
-8987,74	601,00
-8966,16	552,00
-8944,63	356,00
-8923,14	434,00
-8901,69	464,00
-8880,29	630,00
-8858,93	648,00
-8837,61	716,00
-8816,34	953,00
-8795,11	822,00
-8773,92	809,00
-8752,78	537,00
-8731,68	722,00
-8710,62	519,00
-8689,61	830,00
-8668,63	765,00
-8647,70	886,00
-8626,82	757,00
-8605,97	818,00
-8585,17	678,00
-8564,41	510,00
-8543,69	604,00
-8523,01	481,00
-8502,37	509,00
-8481,78	620,00
-8461,23	635,00
-8440,71	699,00
-8420,24	698,00
-8399,81	711,00
-8379,42	881,00
-8359,08	654,00
-8338,77	696,00
-8318,50	679,00
-8298,27	509,00
-8278,09	560,00
-8257,94	644,00
-8237,83	778,00
-8217,76	829,00
-8197,74	811,00
-8177,75	703,00
-8157,80	720,00
-8137,89	764,00
-8118,02	678,00
-8098,19	597,00
-8078,40	672,00
-8058,65	630,00
-8038,93	732,00
-8019,26	661,00
-7999,62	603,00
-7980,02	551,00
-7960,46	547,00
-7940,94	566,00
-7921,46	473,00
-7902,01	571,00
-7882,60	545,00
-7863,23	615,00
-7843,90	483,00
-7824,61	487,00
-7805,35	647,00
-7786,13	769,00
-7766,95	628,00
-7747,80	564,00
-7728,69	612,00
-7709,62	538,00
-7690,59	573,00
-7671,59	674,00
-7652,63	602,00
-7633,70	582,00
-7614,81	593,00
-7595,96	636,00
-7577,15	564,00
-7558,37	507,00
-7539,62	527,00
-7520,91	601,00
-7502,24	580,00
-7483,60	623,00
-7465,00	588,00
-7446,44	496,00
-7427,91	429,00
-7409,41	450,00
-7390,95	410,00
-7372,53	314,00
-7354,14	310,00
-7335,78	242,00
-7317,46	503,00
-7299,18	481,00
-7280,92	505,00
-7262,71	516,00
-7244,52	618,00
-7226,38	636,00
-7208,26	618,00
-7190,18	509,00
-7172,14	510,00
-7154,12	408,00
-7136,15	476,00
-7118,20	571,00
-7100,29	624,00
-7082,41	586,00
-7064,57	512,00
-7046,76	406,00
-7028,98	294,00
-7011,24	483,00
-6993,53	324,00
-6975,85	269,00
-6958,20	210,00
-6940,59	263,00
-6923,01	262,00
-6905,46	263,00
-6887,94	522,00
-6870,46	-2192,00
-6853,01	536,00
-6835,59	516,00
-6818,21	497,00
-6800,85	387,00
-6783,53	221,00
-6766,24	197,00
-6748,98	158,00
-6731,76	161,00
-6714,56	28,00
-6697,40	246,00
-6680,26	142,00
-6663,16	217,00
-6646,09	298,00
-6629,05	296,00
-6612,05	372,00
-6595,07	418,00
-6578,13	276,00
-6561,21	316,00
-6544,33	157,00
-6527,47	191,00
-6510,65	78,00
-6493,86	85,00
-6477,10	165,00
-6460,36	194,00
-6443,66	196,00
-6426,99	108,00
-6410,35	205,00
-6393,74	165,00
-6377,16	345,00
-6360,61	125,00
-6344,09	271,00
-6327,59	275,00
-6311,13	304,00
-6294,70	221,00
-6278,29	471,00
-6261,92	409,00
-6245,58	400,00
-6229,26	473,00
-6212,97	459,00
-6196,72	225,00
-6180,49	114,00
-6164,29	178,00
-6148,12	124,00
-6131,98	6,00
-6115,86	112,00
-6099,78	42,00
-6083,72	67,00
-6067,69	13,00
-6051,69	90,00
-6035,72	185,00
-6019,78	184,00
-6003,87	70,00
-5987,98	237,00
-5972,12	421,00
-5956,29	243,00
-5940,49	330,00
-5924,71	298,00
-5908,96	56,00
-5893,24	16,00
-5877,55	176,00
-5861,89	117,00
-5846,25	133,00
-5830,64	139,00
-5815,05	140,00
-5799,50	203,00
-5783,97	137,00
-5768,47	166,00
-5752,99	176,00
-5737,55	227,00
-5722,12	240,00
-5706,73	300,00
-5691,36	314,00
-5676,02	146,00
-5660,71	302,00
-5645,42	127,00
-5630,16	80,00
-5614,92	170,00
-5599,71	244,00
-5584,53	76,00
-5569,37	178,00
-5554,24	255,00
-5539,14	212,00
-5524,06	122,00
-5509,01	276,00
-5493,98	117,00
-5478,98	182,00
-5464,00	217,00
-5449,05	186,00
-5434,13	136,00
-5419,23	45,00
-5404,36	113,00
-5389,51	260,00
-5374,69	235,00
-5359,89	158,00
-5345,12	298,00
-5330,37	379,00
-5315,65	316,00
-5300,95	240,00
-5286,28	201,00
-5271,63	247,00
-5257,01	210,00
-5242,41	282,00
-5227,84	158,00
-5213,29	126,00
-5198,76	3,00
-5184,26	129,00
-5169,79	138,00
-5155,33	153,00
-5140,91	163,00
-5126,51	149,00
-5112,13	231,00
-5097,77	168,00
-5083,44	59,00
-5069,13	23,00
-5054,85	105,00
-5040,59	169,00
-5026,36	238,00
-5012,15	196,00
-4997,96	172,00
-4983,80	111,00
-4969,66	109,00
-4955,54	145,00
-4941,44	251,00
-4927,37	237,00
-4913,33	337,00
-4899,30	331,00
-4885,30	355,00
-4871,33	354,00
-4857,37	125,00
-4843,44	217,00
-4829,53	128,00
-4815,65	167,00
-4801,79	192,00
-4787,95	92,00
-4774,13	200,00
-4760,34	208,00
-4746,56	106,00
-4732,82	68,00
-4719,09	231,00
-4705,38	203,00
-4691,70	280,00
-4678,04	294,00
-4664,41	222,00
-4650,79	64,00
-4637,20	27,00
-4623,63	199,00
-4610,08	162,00
-4596,56	115,00
-4583,05	260,00
-4569,57	97,00
-4556,11	204,00
-4542,67	148,00
-4529,25	148,00
-4515,86	125,00
-4502,49	247,00
-4489,13	222,00
-4475,80	263,00
-4462,49	194,00
-4449,21	191,00
-4435,94	264,00
-4422,70	91,00
-4409,47	164,00
-4396,27	85,00
-4383,09	184,00
-4369,93	62,00
-4356,79	88,00
-4343,67	45,00
-4330,58	45,00
-4317,50	183,00
-4304,45	47,00
-4291,41	87,00
-4278,40	70,00
-4265,41	111,00
-4252,44	28,00
-4239,49	188,00
-4226,55	142,00
-4213,65	177,00
-4200,76	158,00
-4187,89	50,00
-4175,04	94,00
-4162,21	128,00
-4149,40	102,00
-4136,61	258,00
-4123,85	149,00
-4111,10	16,00
-4098,37	61,00
-4085,66	157,00
-4072,98	201,00
-4060,31	169,00
-4047,66	68,00
-4035,04	173,00
-4022,43	132,00
-4009,84	214,00
-3997,27	20,00
-3984,72	160,00
-3972,19	127,00
-3959,69	-16,00
-3947,20	74,00
-3934,73	-73,00
-3922,27	124,00
-3909,84	126,00
-3897,43	138,00
-3885,04	32,00
-3872,67	-3,00
-3860,31	-62,00
-3847,98	174,00
-3835,66	-18,00
-3823,36	79,00
-3811,09	40,00
-3798,83	79,00
-3786,59	95,00
-3774,37	261,00
-3762,17	108,00
-3749,98	105,00
-3737,82	61,00
-3725,67	19,00
-3713,55	30,00
-3701,44	96,00
-3689,35	31,00
-3677,28	11,00
-3665,22	5,00
-3653,19	91,00
-3641,17	88,00
-3629,18	134,00
-3617,20	73,00
-3605,24	140,00
-3593,30	-58,00
-3581,37	102,00
-3569,47	72,00
-3557,58	161,00
-3545,71	98,00
-3533,86	148,00
-3522,02	-7,00
-3510,21	118,00
-3498,41	-57,00
-3486,63	139,00
-3474,87	16,00
-3463,12	257,00
-3451,40	140,00
-3439,69	120,00
-3428,00	153,00
-3416,33	68,00
-3404,67	107,00
-3393,03	137,00
-3381,41	70,00
-3369,81	-109,00
-3358,22	180,00
-3346,66	58,00
-3335,10	57,00
-3323,57	142,00
-3312,06	163,00
-3300,56	155,00
-3289,08	18,00
-3277,61	65,00
-3266,16	66,00
-3254,73	68,00
-3243,32	83,00
-3231,92	147,00
-3220,55	111,00
-3209,18	16,00
-3197,84	84,00
-3186,51	87,00
-3175,20	110,00
-3163,90	11,00
-3152,63	-20,00
-3141,36	42,00
-3130,12	130,00
-3118,89	39,00
-3107,68	119,00
-3096,49	33,00
-3085,31	18,00
-3074,15	114,00
-3063,00	46,00
-3051,87	63,00
-3040,76	148,00
-3029,67	99,00
-3018,59	-5,00
-3007,52	82,00
-2996,48	49,00
-2985,44	172,00
-2974,43	131,00
-2963,43	50,00
-2952,45	133,00
-2941,48	127,00
-2930,53	69,00
-2919,60	127,00
-2908,68	147,00
-2897,78	140,00
-2886,89	75,00
-2876,02	91,00
-2865,17	148,00
-2854,33	71,00
-2843,50	50,00
-2832,70	163,00
-2821,90	106,00
-2811,13	-10,00
-2800,37	16,00
-2789,62	58,00
-2778,89	194,00
-2768,18	135,00
-2757,48	164,00
-2746,80	14,00
-2736,13	108,00
-2725,48	155,00
-2714,84	47,00
-2704,22	48,00
-2693,61	34,00
-2683,02	40,00
-2672,45	115,00
-2661,89	49,00
-2651,34	-49,00
-2640,81	-36,00
-2630,30	61,00
-2619,80	170,00
-2609,31	20,00
-2598,84	24,00
-2588,39	133,00
-2577,95	111,00
-2567,52	27,00
-2557,11	-6,00
-2546,71	-3,00
-2536,33	259,00
-2525,97	49,00
-2515,62	45,00
-2505,28	140,00
-2494,96	67,00
-2484,65	41,00
-2474,36	465,00
-2464,08	63,00
-2453,82	184,00
-2443,57	183,00
-2433,33	38,00
-2423,11	149,00
-2412,91	58,00
-2402,72	116,00
-2392,54	226,00
-2382,38	56,00
-2372,23	22,00
-2362,09	695,00
-2351,97	111,00
-2341,87	92,00
-2331,78	64,00
-2321,70	-65,00
-2311,64	100,00
-2301,59	139,00
-2291,55	-36,00
-2281,53	-11,00
-2271,53	45,00
-2261,53	90,00
-2251,55	47,00
-2241,59	67,00
-2231,64	152,00
-2221,70	84,00
-2211,78	30,00
-2201,87	165,00
-2191,97	41,00
-2182,09	73,00
-2172,22	187,00
-2162,37	6,00
-2152,53	57,00
-2142,70	65,00
-2132,89	122,00
-2123,09	-26,00
-2113,30	77,00
-2103,53	134,00
-2093,77	69,00
-2084,02	67,00
-2074,29	37,00
-2064,57	59,00
-2054,86	124,00
-2045,17	14,00
-2035,49	87,00
-2025,82	35,00
-2016,17	40,00
-2006,53	27,00
-1996,91	118,00
-1987,29	150,00
-1977,69	105,00
-1968,11	119,00
-1958,53	111,00
-1948,97	99,00
-1939,42	152,00
-1929,89	6,00
-1920,37	91,00
-1910,86	57,00
-1901,36	44,00
-1891,88	79,00
-1882,41	69,00
-1872,95	51,00
-1863,51	-50,00
-1854,08	68,00
-1844,66	79,00
-1835,26	99,00
-1825,86	-8,00
-1816,48	8,00
-1807,11	33,00
-1797,76	68,00
-1788,42	101,00
-1779,09	77,00
-1769,77	-4,00
-1760,47	80,00
-1751,17	89,00
-1741,89	71,00
-1732,63	124,00
-1723,37	223,00
-1714,13	77,00
-1704,90	30,00
-1695,68	89,00
-1686,48	47,00
-1677,29	134,00
-1668,11	251,00
-1658,94	117,00
-1649,78	38,00
-1640,64	124,00
-1631,51	93,00
-1622,39	75,00
-1613,28	114,00
-1604,19	36,00
-1595,10	-19,00
-1586,03	60,00
-1576,97	30,00
-1567,93	57,00
-1558,89	-22,00
-1549,87	62,00
-1540,86	118,00
-1531,86	95,00
-1522,87	55,00
-1513,90	117,00
-1504,93	-96,00
-1495,98	71,00
-1487,04	274,00
-1478,12	121,00
-1469,20	33,00
-1460,30	54,00
-1451,40	32,00
-1442,52	159,00
-1433,65	36,00
-1424,80	159,00
-1415,95	74,00
-1407,12	27,00
-1398,30	141,00
-1389,48	77,00
-1380,69	40,00
-1371,90	38,00
-1363,12	162,00
-1354,36	51,00
-1345,60	130,00
-1336,86	73,00
-1328,13	64,00
-1319,41	26,00
-1310,70	124,00
-1302,01	19,00
-1293,32	10,00
-1284,65	100,00
-1275,99	165,00
-1267,33	33,00
-1258,69	56,00
-1250,06	188,00
-1241,45	129,00
-1232,84	-5,00
-1224,25	63,00
-1215,66	75,00
-1207,09	50,00
-1198,53	56,00
-1189,97	191,00
-1181,43	86,00
-1172,91	135,00
-1164,39	59,00
-1155,88	21,00
-1147,38	71,00
-1138,90	13,00
-1130,43	16,00
-1121,96	157,00
-1113,51	110,00
-1105,07	65,00
-1096,64	-3,00
-1088,22	193,00
-1079,81	86,00
-1071,41	136,00
-1063,02	81,00
-1054,65	104,00
-1046,28	57,00
-1037,92	128,00
-1029,58	41,00
-1021,24	19,00
-1012,92	138,00
-1004,61	-2,00
-996,30	222,00
-988,01	39,00
-979,73	9,00
-971,46	129,00
-963,20	-36,00
-954,95	49,00
-946,71	67,00
-938,48	31,00
-930,26	124,00
-922,06	19,00
-913,86	104,00
-905,67	34,00
-897,49	40,00
-889,33	41,00
-881,17	98,00
-873,02	84,00
-864,89	159,00
-856,76	164,00
-848,65	198,00
-840,54	32,00
-832,45	53,00
-824,36	117,00
-816,29	124,00
-808,22	31,00
-800,17	-123,00
-792,12	198,00
-784,09	144,00
-776,06	8,00
-768,05	101,00
-760,04	71,00
-752,05	139,00
-744,07	81,00
-736,09	56,00
-728,13	34,00
-720,17	2,00
-712,23	135,00
-704,29	152,00
-696,37	181,00
-688,45	122,00
-680,55	118,00
-672,65	90,00
-664,77	187,00
-656,89	116,00
-649,03	109,00
-641,17	71,00
-633,32	50,00
-625,49	155,00
-617,66	92,00
-609,84	189,00
-602,03	5,00
-594,23	90,00
-586,45	56,00
-578,67	158,00
-570,90	73,00
-563,14	110,00
-555,39	13,00
-547,65	83,00
-539,91	48,00
-532,19	153,00
-524,48	59,00
-516,78	95,00
-509,08	147,00
-501,40	78,00
-493,72	108,00
-486,06	90,00
-478,40	128,00
-470,76	161,00
-463,12	174,00
-455,49	32,00
-447,87	160,00
-440,26	65,00
-432,66	92,00
-425,07	43,00
-417,49	168,00
-409,92	71,00
-402,35	142,00
-394,80	107,00
-387,25	108,00
-379,72	67,00
-372,19	156,00
-364,67	128,00
-357,17	154,00
-349,67	32,00
-342,18	88,00
-334,69	-10,00
-327,22	93,00
-319,76	128,00
-312,30	157,00
-304,86	188,00
-297,42	166,00
-290,00	64,00
-282,58	162,00
-275,17	118,00
-267,77	103,00
-260,37	206,00
-252,99	147,00
-245,62	107,00
-238,25	150,00
-230,90	105,00
-223,55	46,00
-216,21	212,00
-208,88	158,00
-201,56	183,00
-194,25	138,00
-186,94	285,00
-179,65	203,00
-172,36	280,00
-165,08	302,00
-157,81	315,00
-150,55	376,00
-143,30	391,00
-136,06	437,00
-128,82	483,00
-121,60	412,00
-114,38	467,00
-107,17	621,00
-99,97	656,00
-92,78	647,00
-85,60	760,00
-78,42	1038,00
-71,25	955,00
-64,10	1177,00
-56,95	1424,00
-49,81	1695,00
-42,67	1996,00
-35,55	2641,00
-28,43	3490,00
-21,33	5734,00
-14,23	19297,00
-7,14	55164,00
-0,05	54791,00
7,02	54542,00
14,09	54846,00
21,14	17292,00
28,19	7109,00
35,23	4457,00
42,27	3312,00
49,29	2864,00
56,31	2411,00
63,32	2057,00
70,32	1627,00
77,31	1429,00
84,29	1240,00
91,27	1126,00
98,23	956,00
105,19	860,00
112,14	1106,00
119,09	1381,00
126,02	1999,00
132,95	2215,00
139,87	2218,00
146,78	2225,00
153,68	2025,00
160,58	2022,00
167,46	1905,00
174,34	1982,00
181,21	2061,00
188,08	1989,00
194,93	1823,00
201,78	1891,00
208,62	1868,00
215,45	1922,00
222,27	1931,00
229,09	1820,00
235,90	1824,00
242,70	1784,00
249,49	1875,00
256,27	1726,00
263,05	1787,00
269,82	1793,00
276,58	1742,00
283,33	1678,00
290,08	1774,00
296,82	1720,00
303,55	1650,00
310,27	1573,00
316,98	1707,00
323,69	1615,00
330,39	1459,00
337,08	1539,00
343,76	1570,00
350,44	1709,00
357,11	1632,00
363,77	1482,00
370,42	1588,00
377,07	1530,00
383,71	1615,00
390,34	1530,00
396,96	1483,00
403,58	1488,00
410,19	1551,00
416,79	1488,00
423,38	1575,00
429,97	1477,00
436,55	1551,00
443,12	1442,00
449,68	1342,00
456,24	1398,00
462,79	1254,00
469,33	1334,00
475,86	1284,00
482,39	1421,00
488,91	1477,00
495,42	1291,00
501,93	1400,00
508,42	1230,00
514,91	1357,00
521,40	1312,00
527,87	1286,00
534,34	1175,00
540,80	1279,00
547,25	1319,00
553,70	1206,00
560,14	1210,00
566,57	1302,00
573,00	1248,00
579,41	1301,00
585,83	1103,00
592,23	1160,00
598,62	1220,00
605,01	1187,00
611,40	1295,00
617,77	1173,00
624,14	1192,00
630,50	1254,00
636,85	1164,00
643,20	1156,00
649,54	1118,00
655,87	1071,00
662,20	1038,00
668,52	1133,00
674,83	1026,00
681,13	1125,00
687,43	995,00
693,72	1011,00
700,00	1044,00
706,28	1027,00
712,55	1073,00
718,81	1159,00
725,07	973,00
731,32	1061,00
737,56	1123,00
743,79	1176,00
750,02	1229,00
756,24	1052,00
762,46	995,00
768,67	1126,00
774,87	1056,00
781,06	985,00
787,25	1107,00
793,43	1106,00
799,60	1025,00
805,77	923,00
811,93	1102,00
818,08	1137,00
824,23	1110,00
830,37	963,00
836,50	1103,00
842,63	981,00
848,75	1149,00
854,87	1050,00
860,97	1018,00
867,07	1082,00
873,17	1048,00
879,25	1033,00
885,33	1007,00
891,41	1151,00
897,47	980,00
903,53	1078,00
909,59	1026,00
915,63	1012,00
921,67	930,00
927,71	886,00
933,74	924,00
939,76	938,00
945,77	855,00
951,78	884,00
957,78	871,00
963,78	916,00
969,77	890,00
975,75	989,00
981,72	920,00
987,69	903,00
993,66	1006,00
999,61	877,00
1005,56	929,00
1011,51	1053,00
1017,44	849,00
1023,37	988,00
1029,30	843,00
1035,22	1030,00
1041,13	1062,00
1047,03	938,00
1052,93	1048,00
1058,83	1300,00
1064,71	1314,00
1070,59	1206,00
1076,47	1120,00
1082,33	1024,00
1088,20	1004,00
1094,05	956,00
1099,90	954,00
1105,74	955,00
1111,58	963,00
1117,41	966,00
1123,23	1158,00
1129,05	1207,00
1134,86	1194,00
1140,67	1037,00
1146,47	1146,00
1152,26	970,00
1158,05	792,00
1163,83	867,00
1169,60	988,00
1175,37	841,00
1181,13	830,00
1186,89	940,00
1192,64	895,00
1198,38	907,00
1204,12	821,00
1209,85	750,00
1215,58	897,00
1221,30	751,00
1227,02	982,00
1232,72	953,00
1238,43	767,00
1244,12	893,00
1249,81	897,00
1255,50	846,00
1261,17	925,00
1266,85	886,00
1272,51	1010,00
1278,17	912,00
1283,83	1076,00
1289,47	1405,00
1295,12	1512,00
1300,75	1487,00
1306,38	1332,00
1312,01	1156,00
1317,63	1025,00
1323,24	967,00
1328,85	1031,00
1334,45	966,00
1340,04	1013,00
1345,63	1038,00
1351,22	1041,00
1356,80	1011,00
1362,37	873,00
1367,93	1031,00
1373,49	1056,00
1379,05	862,00
1384,60	965,00
1390,14	952,00
1395,68	974,00
1401,21	828,00
1406,74	912,00
1412,26	1129,00
1417,77	1074,00
1423,28	1094,00
1428,78	1222,00
1434,28	1528,00
1439,77	1659,00
1445,26	1514,00
1450,74	1528,00
1456,22	1391,00
1461,68	1477,00
1467,15	1333,00
1472,61	1250,00
1478,06	1006,00
1483,51	1079,00
1488,95	1011,00
1494,38	878,00
1499,81	872,00
1505,24	741,00
1510,65	819,00
1516,07	856,00
1521,48	843,00
1526,88	763,00
1532,27	770,00
1537,67	868,00
1543,05	794,00
1548,43	723,00
1553,81	893,00
1559,18	902,00
1564,54	802,00
1569,90	794,00
1575,25	773,00
1580,60	741,00
1585,94	707,00
1591,28	751,00
1596,61	610,00
1601,93	823,00
1607,25	800,00
1612,57	878,00
1617,88	882,00
1623,18	808,00
1628,48	689,00
1633,77	648,00
1639,06	628,00
1644,34	773,00
1649,62	785,00
1654,89	798,00
1660,16	703,00
1665,42	632,00
1670,67	542,00
1675,92	594,00
1681,17	712,00
1686,41	635,00
1691,64	575,00
1696,87	594,00
1702,10	658,00
1707,32	681,00
1712,53	684,00
1717,74	678,00
1722,94	549,00
1728,14	622,00
1733,33	631,00
1738,52	617,00
1743,70	662,00
1748,88	614,00
1754,05	647,00
1759,22	620,00
1764,38	596,00
1769,53	565,00
1774,69	663,00
1779,83	671,00
1784,97	642,00
1790,11	552,00
1795,24	703,00
1800,36	603,00
1805,48	648,00
1810,60	660,00
1815,71	524,00
1820,82	624,00
1825,92	510,00
1831,01	661,00
1836,10	406,00
1841,19	621,00
1846,26	643,00
1851,34	489,00
1856,41	600,00
1861,47	480,00
1866,53	551,00
1871,59	513,00
1876,64	471,00
1881,68	386,00
1886,72	565,00
1891,76	535,00
1896,79	553,00
1901,81	590,00
1906,83	514,00
1911,85	476,00
1916,86	543,00
1921,86	591,00
1926,86	461,00
1931,86	529,00
1936,85	417,00
1941,83	581,00
1946,81	491,00
1951,79	448,00
1956,76	459,00
1961,72	329,00
1966,68	432,00
1971,64	337,00
1976,59	456,00
1981,54	433,00
1986,48	395,00
1991,42	409,00
1996,35	417,00
2001,27	355,00
2006,20	455,00
2011,11	476,00
2016,03	429,00
2020,93	423,00
2025,84	517,00
2030,73	430,00
2035,63	439,00
2040,52	513,00
2045,40	543,00
2050,28	382,00
2055,15	344,00
2060,02	463,00
2064,89	425,00
2069,75	419,00
2074,60	413,00
2079,46	347,00
2084,30	357,00
2089,14	370,00
2093,98	442,00
2098,81	559,00
2103,64	384,00
2108,46	318,00
2113,28	404,00
2118,09	300,00
2122,90	325,00
2127,70	347,00
2132,50	378,00
2137,30	341,00
2142,09	367,00
2146,87	336,00
2151,66	384,00
2156,43	422,00
2161,20	322,00
2165,97	396,00
2170,73	399,00
2175,49	411,00
2180,24	383,00
2184,99	536,00
2189,74	310,00
2194,48	313,00
2199,21	472,00
2203,94	354,00
2208,67	381,00
2213,39	296,00
2218,11	271,00
2222,82	426,00
2227,53	355,00
2232,23	234,00
2236,93	320,00
2241,63	345,00
2246,32	399,00
2251,00	292,00
2255,68	435,00
2260,36	294,00
2265,03	408,00
2269,70	245,00
2274,36	251,00
2279,02	286,00
2283,68	323,00
2288,33	201,00
2292,97	212,00
2297,61	252,00
2302,25	287,00
2306,88	449,00
2311,51	339,00
2316,14	342,00
2320,75	320,00
2325,37	228,00
2329,98	355,00
2334,59	308,00
2339,19	276,00
2343,79	168,00
2348,38	325,00
2352,97	321,00
2357,55	322,00
2362,13	253,00
2366,71	468,00
2371,28	244,00
2375,85	304,00
2380,41	289,00
2384,97	279,00
2389,52	208,00
2394,07	248,00
2398,62	262,00
2403,16	296,00
2407,70	305,00
2412,23	324,00
2416,76	303,00
2421,29	328,00
2425,81	180,00
2430,32	331,00
2434,84	222,00
2439,34	325,00
2443,85	246,00
2448,35	237,00
2452,84	243,00
2457,33	236,00
2461,82	276,00
2466,30	271,00
2470,78	364,00
2475,25	227,00
2479,72	265,00
2484,19	217,00
2488,65	424,00
2493,11	173,00
2497,56	251,00
2502,01	185,00
2506,46	305,00
2510,90	218,00
2515,34	350,00
2519,77	142,00
2524,20	309,00
2528,62	189,00
2533,04	272,00
2537,46	138,00
2541,87	231,00
2546,28	216,00
2550,68	225,00
2555,08	250,00
2559,48	216,00
2563,87	197,00
2568,26	193,00
2572,64	296,00
2577,02	345,00
2581,40	189,00
2585,77	221,00
2590,14	136,00
2594,50	136,00
2598,86	196,00
2603,22	223,00
2607,57	205,00
2611,92	155,00
2616,26	156,00
2620,60	241,00
2624,94	235,00
2629,27	307,00
2633,60	223,00
2637,92	257,00
2642,24	190,00
2646,56	218,00
2650,87	191,00
2655,18	212,00
2659,48	193,00
2663,78	288,00
2668,08	304,00
2672,37	308,00
2676,66	161,00
2680,95	244,00
2685,23	181,00
2689,50	300,00
2693,78	226,00
2698,05	278,00
2702,31	219,00
2706,57	259,00
2710,83	367,00
2715,08	308,00
2719,33	406,00
2723,58	295,00
2727,82	405,00
2732,06	289,00
2736,29	232,00
2740,53	292,00
2744,75	272,00
2748,97	386,00
2753,19	350,00
2757,41	326,00
2761,62	382,00
2765,83	202,00
2770,03	241,00
2774,23	278,00
2778,43	275,00
2782,62	255,00
2786,81	239,00
2791,00	235,00
2795,18	416,00
2799,35	161,00
2803,53	436,00
2807,70	475,00
2811,86	321,00
2816,03	458,00
2820,19	330,00
2824,34	371,00
2828,49	557,00
2832,64	669,00
2836,78	561,00
2840,92	886,00
2845,06	965,00
2849,19	867,00
2853,32	1150,00
2857,45	995,00
2861,57	1141,00
2865,69	1095,00
2869,80	1092,00
2873,91	1116,00
2878,02	1205,00
2882,12	1108,00
2886,22	1152,00
2890,32	1067,00
2894,41	1031,00
2898,50	975,00
2902,58	918,00
2906,67	884,00
2910,74	868,00
2914,82	702,00
2918,89	741,00
2922,96	717,00
2927,02	560,00
2931,08	666,00
2935,13	612,00
2939,19	638,00
2943,24	462,00
2947,28	472,00
2951,32	301,00
2955,36	375,00
2959,40	384,00
2963,43	307,00
2967,46	361,00
2971,48	333,00
2975,50	214,00
2979,52	276,00
2983,53	279,00
2987,54	278,00
2991,55	225,00
2995,55	222,00
2999,55	202,00
3003,54	178,00
3007,54	185,00
3011,53	143,00
3015,51	180,00
3019,49	150,00
3023,47	200,00
3027,45	251,00
3031,42	132,00
3035,39	160,00
3039,35	96,00
3043,31	83,00
3047,27	199,00
3051,22	275,00
3055,17	104,00
3059,12	18,00
3063,06	145,00
3067,00	76,00
3070,94	152,00
3074,87	6,00
3078,80	208,00
3082,73	195,00
3086,65	113,00
3090,57	74,00
3094,49	133,00
3098,40	178,00
3102,31	215,00
3106,22	128,00
3110,12	60,00
3114,02	112,00
3117,92	103,00
3121,81	150,00
3125,70	247,00
3129,58	219,00
3133,47	71,00
3137,34	98,00
3141,22	83,00
3145,09	115,00
3148,96	153,00
3152,83	111,00
3156,69	116,00
3160,55	240,00
3164,40	29,00
3168,26	77,00
3172,10	154,00
3175,95	168,00
3179,79	38,00
3183,63	73,00
3187,47	211,00
3191,30	165,00
3195,13	193,00
3198,95	55,00
3202,78	102,00
3206,60	162,00
3210,41	120,00
3214,23	287,00
3218,03	-19,00
3221,84	149,00
3225,64	81,00
3229,44	129,00
3233,24	209,00
3237,03	98,00
3240,82	49,00
3244,61	51,00
3248,39	87,00
3252,17	147,00
3255,95	211,00
3259,72	237,00
3263,49	86,00
3267,26	135,00
3271,03	76,00
3274,79	152,00
3278,54	235,00
3282,30	143,00
3286,05	179,00
3289,80	41,00
3293,54	111,00
3297,29	152,00
3301,02	123,00
3304,76	208,00
3308,49	211,00
3312,22	-40,00
3315,95	120,00
3319,67	151,00
3323,39	65,00
3327,10	78,00
3330,82	195,00
3334,53	55,00
3338,24	150,00
3341,94	169,00
3345,64	160,00
3349,34	-4,00
3353,03	40,00
3356,72	107,00
3360,41	-8,00
3364,10	89,00
3367,78	75,00
3371,46	119,00
3375,13	62,00
3378,81	45,00
3382,48	63,00
3386,14	192,00
3389,81	42,00
3393,47	141,00
3397,12	50,00
3400,78	136,00
3404,43	78,00
3408,08	61,00
3411,72	47,00
3415,36	76,00
3419,00	2,00
3422,64	-63,00
3426,27	198,00
3429,90	77,00
3433,53	89,00
3437,15	148,00
3440,77	120,00
3444,39	127,00
3448,00	30,00
3451,62	221,00
3455,22	114,00
3458,83	62,00
3462,43	169,00
3466,03	49,00
3469,63	-24,00
3473,22	154,00
3476,81	108,00
3480,40	132,00
3483,99	121,00
3487,57	113,00
3491,15	65,00
3494,72	88,00
3498,29	211,00
3501,86	64,00
3505,43	159,00
3508,99	123,00
3512,56	73,00
3516,11	117,00
3519,67	116,00
3523,22	95,00
3526,77	94,00
3530,32	88,00
3533,86	45,00
3537,40	86,00
3540,94	92,00
3544,47	2,00
3548,00	223,00
3551,53	34,00
3555,06	42,00
3558,58	35,00
3562,10	-11,00
3565,62	107,00
3569,13	97,00
3572,64	190,00
3576,15	61,00
3579,66	96,00
3583,16	74,00
3586,66	-5,00
3590,16	108,00
3593,65	114,00
3597,14	95,00
3600,63	104,00
3604,11	14,00
3607,60	74,00
3611,08	171,00
3614,55	34,00
3618,03	31,00
3621,50	46,00
3624,97	48,00
3628,43	12,00
3631,90	38,00
3635,36	92,00
3638,81	6,00
3642,27	50,00
3645,72	143,00
3649,17	108,00
3652,61	26,00
3656,06	7,00
3659,50	32,00
3662,93	36,00
3666,37	37,00
3669,80	52,00
3673,23	24,00
3676,65	129,00
3680,08	90,00
3683,50	84,00
3686,92	24,00
3690,33	38,00
3693,74	157,00
3697,15	92,00
3700,56	155,00
3703,96	16,00
3707,36	-7,00
3710,76	58,00
3714,16	38,00
3717,55	-16,00
3720,94	-1,00
3724,33	36,00
3727,71	52,00
3731,10	50,00
3734,48	67,00
3737,85	-30,00
3741,23	69,00
3744,60	-22,00
3747,97	-92,00
3751,33	113,00
3754,69	116,00
3758,05	114,00
3761,41	-33,00
3764,77	19,00
3768,12	30,00
3771,47	118,00
3774,82	-24,00
3778,16	9,00
3781,50	-3,00
3784,84	-1,00
3788,18	11,00
>>>>>End Processed Spectral Data<<<<<
