SpectraSuite Data File
++++++++++++++++++++++++++++++++++++
Date: Mon Mar 09 15:33:26 ICT 2026
User: Administrator
Dark Spectrum Present: Yes
Reference Spectrum Present: No
Number of Sampled Component Spectra: 1
Spectrometers: MAYP113682
Integration Time (usec): 3000000 (MAYP113682)
Spectra Averaged: 1 (MAYP113682)
Boxcar Smoothing: 0 (MAYP113682)
Correct for Electrical Dark: No (MAYP113682)
Strobe/Lamp Enabled: No (MAYP113682)
Correct for Detector Non-linearity: No (MAYP113682)
Correct for Stray Light: No (MAYP113682)
Number of Pixels in Processed Spectrum: 2068
>>>>>Begin Processed Spectral Data<<<<<
-37534,58	5,00
-37414,56	1,00
-37295,11	2,00
-37176,24	2,00
-37057,95	137,00
-36940,22	60,00
-36823,05	117,00
-36706,45	193,00
-36590,40	147,00
-36474,90	144,00
-36359,95	210,00
-36245,55	195,00
-36131,68	64,00
-36018,35	193,00
-35905,55	144,00
-35793,29	75,00
-35681,54	148,00
-35570,32	74,00
-35459,62	95,00
-35349,43	57,00
-35239,75	177,00
-35130,58	192,00
-35021,91	52,00
-34913,74	66,00
-34806,07	263,00
-34698,89	92,00
-34592,20	104,00
-34486,00	162,00
-34380,28	154,00
-34275,04	146,00
-34170,27	166,00
-34065,98	133,00
-33962,16	256,00
-33858,81	130,00
-33755,92	128,00
-33653,49	153,00
-33551,52	130,00
-33450,01	302,00
-33348,94	103,00
-33248,33	109,00
-33148,16	182,00
-33048,43	114,00
-32949,14	160,00
-32850,29	211,00
-32751,87	192,00
-32653,89	197,00
-32556,33	115,00
-32459,20	37,00
-32362,49	158,00
-32266,19	142,00
-32170,32	156,00
-32074,86	118,00
-31979,82	181,00
-31885,18	125,00
-31790,95	129,00
-31697,12	73,00
-31603,69	173,00
-31510,67	139,00
-31418,04	257,00
-31325,80	79,00
-31233,95	130,00
-31142,49	154,00
-31051,42	83,00
-30960,73	171,00
-30870,43	194,00
-30780,50	87,00
-30690,95	201,00
-30601,77	163,00
-30512,97	138,00
-30424,53	116,00
-30336,46	174,00
-30248,76	195,00
-30161,42	269,00
-30074,44	231,00
-29987,81	162,00
-29901,55	189,00
-29815,63	154,00
-29730,07	137,00
-29644,86	-1,00
-29560,00	209,00
-29475,48	139,00
-29391,30	102,00
-29307,47	160,00
-29223,97	247,00
-29140,81	255,00
-29057,99	87,00
-28975,50	123,00
-28893,34	239,00
-28811,51	120,00
-28730,00	223,00
-28648,82	147,00
-28567,97	258,00
-28487,43	15,00
-28407,21	175,00
-28327,32	184,00
-28247,73	92,00
-28168,46	193,00
-28089,50	129,00
-28010,85	72,00
-27932,51	163,00
-27854,48	201,00
-27776,75	69,00
-27699,32	251,00
-27622,19	88,00
-27545,37	190,00
-27468,84	224,00
-27392,60	171,00
-27316,66	39,00
-27241,01	175,00
-27165,66	192,00
-27090,59	56,00
-27015,81	184,00
-26941,31	222,00
-26867,10	212,00
-26793,17	176,00
-26719,52	232,00
-26646,15	191,00
-26573,06	147,00
-26500,24	171,00
-26427,70	175,00
-26355,43	110,00
-26283,43	163,00
-26211,71	172,00
-26140,25	159,00
-26069,06	158,00
-25998,13	138,00
-25927,46	178,00
-25857,06	128,00
-25786,92	160,00
-25717,04	183,00
-25647,42	263,00
-25578,05	132,00
-25508,94	178,00
-25440,09	138,00
-25371,48	223,00
-25303,13	266,00
-25235,02	175,00
-25167,17	87,00
-25099,56	144,00
-25032,19	167,00
-24965,07	174,00
-24898,20	189,00
-24831,56	165,00
-24765,17	186,00
-24699,01	47,00
-24633,10	216,00
-24567,41	162,00
-24501,97	200,00
-24436,75	240,00
-24371,77	119,00
-24307,03	135,00
-24242,51	184,00
-24178,22	101,00
-24114,16	202,00
-24050,32	152,00
-23986,71	3,00
-23923,32	174,00
-23860,16	152,00
-23797,22	152,00
-23734,50	155,00
-23672,00	130,00
-23609,71	81,00
-23547,65	155,00
-23485,80	207,00
-23424,16	83,00
-23362,74	204,00
-23301,53	193,00
-23240,54	107,00
-23179,75	181,00
-23119,17	159,00
-23058,80	213,00
-22998,64	191,00
-22938,68	197,00
-22878,93	91,00
-22819,39	138,00
-22760,04	195,00
-22700,90	137,00
-22641,96	157,00
-22583,22	193,00
-22524,68	137,00
-22466,33	93,00
-22408,19	261,00
-22350,23	209,00
-22292,48	227,00
-22234,92	189,00
-22177,55	65,00
-22120,37	124,00
-22063,38	126,00
-22006,58	89,00
-21949,98	216,00
-21893,56	126,00
-21837,33	209,00
-21781,28	152,00
-21725,42	176,00
-21669,74	180,00
-21614,25	215,00
-21558,94	101,00
-21503,81	224,00
-21448,86	240,00
-21394,10	58,00
-21339,51	173,00
-21285,10	197,00
-21230,86	174,00
-21176,81	167,00
-21122,93	100,00
-21069,22	225,00
-21015,69	136,00
-20962,33	155,00
-20909,14	151,00
-20856,13	137,00
-20803,28	174,00
-20750,61	149,00
-20698,10	-34,00
-20645,76	166,00
-20593,59	157,00
-20541,59	143,00
-20489,75	260,00
-20438,07	245,00
-20386,56	128,00
-20335,22	120,00
-20284,03	185,00
-20233,01	272,00
-20182,15	288,00
-20131,45	177,00
-20080,91	84,00
-20030,52	140,00
-19980,30	162,00
-19930,23	138,00
-19880,32	354,00
-19830,56	59,00
-19780,96	67,00
-19731,52	199,00
-19682,23	73,00
-19633,09	191,00
-19584,10	187,00
-19535,26	189,00
-19486,58	105,00
-19438,04	177,00
-19389,66	228,00
-19341,42	117,00
-19293,33	157,00
-19245,39	109,00
-19197,60	219,00
-19149,95	264,00
-19102,45	99,00
-19055,09	107,00
-19007,87	181,00
-18960,80	147,00
-18913,87	304,00
-18867,09	131,00
-18820,44	176,00
-18773,94	261,00
-18727,57	197,00
-18681,35	199,00
-18635,26	74,00
-18589,31	201,00
-18543,50	226,00
-18497,83	175,00
-18452,29	161,00
-18406,89	121,00
-18361,63	95,00
-18316,50	357,00
-18271,50	182,00
-18226,63	226,00
-18181,90	133,00
-18137,30	186,00
-18092,84	72,00
-18048,50	128,00
-18004,29	200,00
-17960,22	175,00
-17916,27	214,00
-17872,45	290,00
-17828,76	108,00
-17785,20	135,00
-17741,77	146,00
-17698,46	55,00
-17655,28	112,00
-17612,22	218,00
-17569,29	133,00
-17526,48	179,00
-17483,79	235,00
-17441,23	23,00
-17398,79	109,00
-17356,48	152,00
-17314,28	144,00
-17272,21	186,00
-17230,26	122,00
-17188,42	218,00
-17146,71	105,00
-17105,12	58,00
-17063,64	196,00
-17022,28	83,00
-16981,04	183,00
-16939,92	158,00
-16898,91	176,00
-16858,02	109,00
-16817,25	171,00
-16776,59	120,00
-16736,04	231,00
-16695,61	78,00
-16655,29	24,00
-16615,09	223,00
-16574,99	158,00
-16535,01	122,00
-16495,15	139,00
-16455,39	110,00
-16415,74	112,00
-16376,21	85,00
-16336,78	142,00
-16297,46	62,00
-16258,26	106,00
-16219,16	191,00
-16180,17	215,00
-16141,28	89,00
-16102,51	138,00
-16063,84	193,00
-16025,27	109,00
-15986,82	213,00
-15948,46	162,00
-15910,22	171,00
-15872,07	168,00
-15834,04	152,00
-15796,10	143,00
-15758,27	263,00
-15720,54	219,00
-15682,91	67,00
-15645,39	188,00
-15607,97	134,00
-15570,64	128,00
-15533,42	261,00
-15496,30	76,00
-15459,28	282,00
-15422,36	94,00
-15385,54	169,00
-15348,82	140,00
-15312,19	124,00
-15275,66	75,00
-15239,23	161,00
-15202,90	104,00
-15166,67	170,00
-15130,53	24,00
-15094,48	98,00
-15058,54	112,00
-15022,68	132,00
-14986,93	198,00
-14951,26	97,00
-14915,69	118,00
-14880,22	103,00
-14844,84	116,00
-14809,55	186,00
-14774,35	214,00
-14739,25	205,00
-14704,24	108,00
-14669,32	38,00
-14634,49	128,00
-14599,75	188,00
-14565,10	153,00
-14530,55	105,00
-14496,08	52,00
-14461,70	89,00
-14427,41	216,00
-14393,21	155,00
-14359,10	155,00
-14325,07	112,00
-14291,14	110,00
-14257,29	137,00
-14223,52	92,00
-14189,85	2,00
-14156,26	131,00
-14122,76	185,00
-14089,34	160,00
-14056,01	113,00
-14022,76	128,00
-13989,60	156,00
-13956,52	225,00
-13923,53	149,00
-13890,62	138,00
-13857,79	202,00
-13825,05	155,00
-13792,39	220,00
-13759,81	47,00
-13727,31	225,00
-13694,90	141,00
-13662,57	202,00
-13630,31	198,00
-13598,14	298,00
-13566,05	113,00
-13534,05	133,00
-13502,12	205,00
-13470,27	148,00
-13438,50	106,00
-13406,80	230,00
-13375,19	211,00
-13343,66	263,00
-13312,20	179,00
-13280,83	143,00
-13249,53	156,00
-13218,30	152,00
-13187,16	214,00
-13156,09	155,00
-13125,10	189,00
-13094,18	150,00
-13063,34	91,00
-13032,58	161,00
-13001,89	149,00
-12971,28	184,00
-12940,74	132,00
-12910,27	100,00
-12879,88	194,00
-12849,57	247,00
-12819,33	81,00
-12789,16	65,00
-12759,06	125,00
-12729,04	179,00
-12699,09	343,00
-12669,21	130,00
-12639,41	168,00
-12609,68	198,00
-12580,02	101,00
-12550,43	182,00
-12520,91	99,00
-12491,46	53,00
-12462,08	160,00
-12432,77	58,00
-12403,54	116,00
-12374,37	74,00
-12345,27	165,00
-12316,24	173,00
-12287,29	237,00
-12258,40	50,00
-12229,57	121,00
-12200,82	246,00
-12172,14	172,00
-12143,52	25,00
-12114,97	128,00
-12086,49	131,00
-12058,07	157,00
-12029,73	190,00
-12001,44	279,00
-11973,23	99,00
-11945,08	203,00
-11917,00	191,00
-11888,98	22,00
-11861,03	202,00
-11833,15	62,00
-11805,32	88,00
-11777,57	192,00
-11749,88	126,00
-11722,25	164,00
-11694,69	211,00
-11667,19	163,00
-11639,75	92,00
-11612,38	184,00
-11585,07	57,00
-11557,83	166,00
-11530,65	169,00
-11503,53	83,00
-11476,47	157,00
-11449,48	174,00
-11422,54	165,00
-11395,67	128,00
-11368,86	110,00
-11342,11	155,00
-11315,43	68,00
-11288,80	212,00
-11262,23	112,00
-11235,73	206,00
-11209,28	133,00
-11182,90	219,00
-11156,57	251,00
-11130,31	272,00
-11104,10	192,00
-11077,96	156,00
-11051,87	171,00
-11025,84	138,00
-10999,87	-45,00
-10973,96	174,00
-10948,11	111,00
-10922,31	136,00
-10896,58	131,00
-10870,90	135,00
-10845,28	206,00
-10819,71	163,00
-10794,20	98,00
-10768,75	217,00
-10743,36	119,00
-10718,02	159,00
-10692,74	130,00
-10667,52	113,00
-10642,35	225,00
-10617,24	135,00
-10592,18	173,00
-10567,18	63,00
-10542,23	233,00
-10517,34	-29,00
-10492,51	82,00
-10467,72	54,00
-10443,00	102,00
-10418,32	-28,00
-10393,70	79,00
-10369,14	133,00
-10344,63	147,00
-10320,17	126,00
-10295,77	195,00
-10271,42	58,00
-10247,12	210,00
-10222,88	179,00
-10198,68	55,00
-10174,54	47,00
-10150,46	56,00
-10126,42	57,00
-10102,44	128,00
-10078,51	26,00
-10054,63	144,00
-10030,80	-34,00
-10007,03	-11,00
-9983,30	141,00
-9959,63	47,00
-9936,01	30,00
-9912,44	85,00
-9888,92	63,00
-9865,44	32,00
-9842,02	110,00
-9818,65	54,00
-9795,33	-38,00
-9772,06	57,00
-9748,84	-78,00
-9725,67	-97,00
-9702,55	-71,00
-9679,47	-107,00
-9656,45	-90,00
-9633,47	-142,00
-9610,55	-223,00
-9587,67	-215,00
-9564,84	-155,00
-9542,06	-277,00
-9519,32	-465,00
-9496,64	-331,00
-9474,00	-376,00
-9451,41	-584,00
-9428,87	-311,00
-9406,37	-491,00
-9383,92	-394,00
-9361,52	-516,00
-9339,17	-498,00
-9316,86	-452,00
-9294,60	-501,00
-9272,38	-630,00
-9250,21	-694,00
-9228,09	-769,00
-9206,01	-708,00
-9183,98	-595,00
-9162,00	-694,00
-9140,06	-574,00
-9118,16	-780,00
-9096,31	-710,00
-9074,51	-788,00
-9052,75	-682,00
-9031,04	-645,00
-9009,37	-527,00
-8987,74	-587,00
-8966,16	-403,00
-8944,63	-330,00
-8923,14	-483,00
-8901,69	-458,00
-8880,29	-385,00
-8858,93	-404,00
-8837,61	-482,00
-8816,34	-408,00
-8795,11	-696,00
-8773,92	-496,00
-8752,78	-405,00
-8731,68	-331,00
-8710,62	-376,00
-8689,61	-404,00
-8668,63	-499,00
-8647,70	-458,00
-8626,82	-442,00
-8605,97	-428,00
-8585,17	-451,00
-8564,41	-300,00
-8543,69	-346,00
-8523,01	-251,00
-8502,37	-267,00
-8481,78	-248,00
-8461,23	-404,00
-8440,71	-372,00
-8420,24	-521,00
-8399,81	-387,00
-8379,42	-321,00
-8359,08	-301,00
-8338,77	-367,00
-8318,50	-367,00
-8298,27	-250,00
-8278,09	-351,00
-8257,94	-349,00
-8237,83	-382,00
-8217,76	-385,00
-8197,74	-394,00
-8177,75	-366,00
-8157,80	-300,00
-8137,89	-253,00
-8118,02	-295,00
-8098,19	-321,00
-8078,40	-183,00
-8058,65	-240,00
-8038,93	-166,00
-8019,26	-264,00
-7999,62	-213,00
-7980,02	-240,00
-7960,46	-172,00
-7940,94	-293,00
-7921,46	-213,00
-7902,01	-277,00
-7882,60	-101,00
-7863,23	-228,00
-7843,90	-195,00
-7824,61	-223,00
-7805,35	-187,00
-7786,13	-314,00
-7766,95	-146,00
-7747,80	-164,00
-7728,69	-67,00
-7709,62	-187,00
-7690,59	-201,00
-7671,59	-188,00
-7652,63	-175,00
-7633,70	-253,00
-7614,81	-302,00
-7595,96	-315,00
-7577,15	-119,00
-7558,37	-238,00
-7539,62	-89,00
-7520,91	-189,00
-7502,24	-323,00
-7483,60	-120,00
-7465,00	-248,00
-7446,44	-140,00
-7427,91	-248,00
-7409,41	-75,00
-7390,95	-133,00
-7372,53	-107,00
-7354,14	-124,00
-7335,78	-115,00
-7317,46	-70,00
-7299,18	-175,00
-7280,92	-247,00
-7262,71	-87,00
-7244,52	-196,00
-7226,38	-127,00
-7208,26	-254,00
-7190,18	-251,00
-7172,14	-212,00
-7154,12	-113,00
-7136,15	-299,00
-7118,20	-168,00
-7100,29	-290,00
-7082,41	-183,00
-7064,57	-197,00
-7046,76	-160,00
-7028,98	-172,00
-7011,24	-77,00
-6993,53	-174,00
-6975,85	-70,00
-6958,20	-15,00
-6940,59	-62,00
-6923,01	-88,00
-6905,46	-63,00
-6887,94	-213,00
-6870,46	2388,00
-6853,01	-238,00
-6835,59	-138,00
-6818,21	-158,00
-6800,85	-26,00
-6783,53	20,00
-6766,24	-33,00
-6748,98	-59,00
-6731,76	-58,00
-6714,56	-51,00
-6697,40	-124,00
-6680,26	28,00
-6663,16	-188,00
-6646,09	-55,00
-6629,05	-137,00
-6612,05	-87,00
-6595,07	-223,00
-6578,13	-173,00
-6561,21	-109,00
-6544,33	-19,00
-6527,47	-34,00
-6510,65	-79,00
-6493,86	-61,00
-6477,10	-20,00
-6460,36	-154,00
-6443,66	-13,00
-6426,99	-81,00
-6410,35	36,00
-6393,74	-7,00
-6377,16	-20,00
-6360,61	5,00
-6344,09	-71,00
-6327,59	-27,00
-6311,13	-69,00
-6294,70	-169,00
-6278,29	-27,00
-6261,92	-138,00
-6245,58	-65,00
-6229,26	-171,00
-6212,97	-119,00
-6196,72	-64,00
-6180,49	0,00
-6164,29	60,00
-6148,12	-41,00
-6131,98	45,00
-6115,86	-2,00
-6099,78	42,00
-6083,72	-46,00
-6067,69	58,00
-6051,69	4,00
-6035,72	39,00
-6019,78	-14,00
-6003,87	-47,00
-5987,98	-71,00
-5972,12	-120,00
-5956,29	-129,00
-5940,49	16,00
-5924,71	-11,00
-5908,96	71,00
-5893,24	59,00
-5877,55	-56,00
-5861,89	-14,00
-5846,25	6,00
-5830,64	-73,00
-5815,05	14,00
-5799,50	20,00
-5783,97	66,00
-5768,47	64,00
-5752,99	-74,00
-5737,55	-43,00
-5722,12	52,00
-5706,73	-20,00
-5691,36	-72,00
-5676,02	34,00
-5660,71	10,00
-5645,42	63,00
-5630,16	-14,00
-5614,92	25,00
-5599,71	-69,00
-5584,53	-91,00
-5569,37	-76,00
-5554,24	-822,00
-5539,14	19,00
-5524,06	-28,00
-5509,01	23,00
-5493,98	-46,00
-5478,98	41,00
-5464,00	-20,00
-5449,05	69,00
-5434,13	61,00
-5419,23	81,00
-5404,36	98,00
-5389,51	-88,00
-5374,69	7,00
-5359,89	-115,00
-5345,12	-91,00
-5330,37	49,00
-5315,65	0,00
-5300,95	-11,00
-5286,28	50,00
-5271,63	-26,00
-5257,01	130,00
-5242,41	-50,00
-5227,84	25,00
-5213,29	18,00
-5198,76	48,00
-5184,26	7,00
-5169,79	61,00
-5155,33	-104,00
-5140,91	-23,00
-5126,51	10,00
-5112,13	34,00
-5097,77	-21,00
-5083,44	-83,00
-5069,13	27,00
-5054,85	59,00
-5040,59	41,00
-5026,36	38,00
-5012,15	-61,00
-4997,96	-47,00
-4983,80	-40,00
-4969,66	-28,00
-4955,54	119,00
-4941,44	143,00
-4927,37	35,00
-4913,33	24,00
-4899,30	-2,00
-4885,30	-12,00
-4871,33	-65,00
-4857,37	14,00
-4843,44	55,00
-4829,53	134,00
-4815,65	77,00
-4801,79	-73,00
-4787,95	65,00
-4774,13	101,00
-4760,34	110,00
-4746,56	168,00
-4732,82	96,00
-4719,09	47,00
-4705,38	36,00
-4691,70	-19,00
-4678,04	45,00
-4664,41	-41,00
-4650,79	123,00
-4637,20	128,00
-4623,63	134,00
-4610,08	82,00
-4596,56	64,00
-4583,05	65,00
-4569,57	65,00
-4556,11	96,00
-4542,67	75,00
-4529,25	165,00
-4515,86	84,00
-4502,49	-8,00
-4489,13	-62,00
-4475,80	-23,00
-4462,49	33,00
-4449,21	126,00
-4435,94	87,00
-4422,70	122,00
-4409,47	-32,00
-4396,27	90,00
-4383,09	-91,00
-4369,93	119,00
-4356,79	228,00
-4343,67	112,00
-4330,58	13,00
-4317,50	230,00
-4304,45	80,00
-4291,41	150,00
-4278,40	100,00
-4265,41	174,00
-4252,44	77,00
-4239,49	-36,00
-4226,55	51,00
-4213,65	92,00
-4200,76	73,00
-4187,89	17,00
-4175,04	62,00
-4162,21	112,00
-4149,40	192,00
-4136,61	102,00
-4123,85	120,00
-4111,10	118,00
-4098,37	175,00
-4085,66	209,00
-4072,98	143,00
-4060,31	163,00
-4047,66	118,00
-4035,04	154,00
-4022,43	167,00
-4009,84	166,00
-3997,27	83,00
-3984,72	71,00
-3972,19	166,00
-3959,69	109,00
-3947,20	114,00
-3934,73	23,00
-3922,27	166,00
-3909,84	122,00
-3897,43	113,00
-3885,04	168,00
-3872,67	191,00
-3860,31	197,00
-3847,98	220,00
-3835,66	101,00
-3823,36	164,00
-3811,09	145,00
-3798,83	194,00
-3786,59	215,00
-3774,37	264,00
-3762,17	179,00
-3749,98	122,00
-3737,82	124,00
-3725,67	234,00
-3713,55	133,00
-3701,44	124,00
-3689,35	192,00
-3677,28	219,00
-3665,22	201,00
-3653,19	137,00
-3641,17	221,00
-3629,18	200,00
-3617,20	256,00
-3605,24	148,00
-3593,30	103,00
-3581,37	181,00
-3569,47	164,00
-3557,58	152,00
-3545,71	206,00
-3533,86	278,00
-3522,02	142,00
-3510,21	199,00
-3498,41	216,00
-3486,63	246,00
-3474,87	106,00
-3463,12	162,00
-3451,40	219,00
-3439,69	118,00
-3428,00	176,00
-3416,33	161,00
-3404,67	247,00
-3393,03	65,00
-3381,41	181,00
-3369,81	85,00
-3358,22	150,00
-3346,66	218,00
-3335,10	192,00
-3323,57	117,00
-3312,06	158,00
-3300,56	121,00
-3289,08	108,00
-3277,61	166,00
-3266,16	103,00
-3254,73	144,00
-3243,32	-8,00
-3231,92	153,00
-3220,55	146,00
-3209,18	270,00
-3197,84	130,00
-3186,51	126,00
-3175,20	103,00
-3163,90	81,00
-3152,63	215,00
-3141,36	146,00
-3130,12	163,00
-3118,89	185,00
-3107,68	192,00
-3096,49	192,00
-3085,31	100,00
-3074,15	273,00
-3063,00	218,00
-3051,87	217,00
-3040,76	150,00
-3029,67	129,00
-3018,59	84,00
-3007,52	167,00
-2996,48	233,00
-2985,44	78,00
-2974,43	261,00
-2963,43	216,00
-2952,45	169,00
-2941,48	211,00
-2930,53	186,00
-2919,60	227,00
-2908,68	194,00
-2897,78	120,00
-2886,89	160,00
-2876,02	233,00
-2865,17	134,00
-2854,33	189,00
-2843,50	161,00
-2832,70	244,00
-2821,90	144,00
-2811,13	89,00
-2800,37	155,00
-2789,62	142,00
-2778,89	146,00
-2768,18	193,00
-2757,48	185,00
-2746,80	134,00
-2736,13	169,00
-2725,48	118,00
-2714,84	85,00
-2704,22	173,00
-2693,61	71,00
-2683,02	130,00
-2672,45	196,00
-2661,89	286,00
-2651,34	176,00
-2640,81	164,00
-2630,30	271,00
-2619,80	174,00
-2609,31	146,00
-2598,84	82,00
-2588,39	263,00
-2577,95	157,00
-2567,52	163,00
-2557,11	201,00
-2546,71	150,00
-2536,33	117,00
-2525,97	71,00
-2515,62	128,00
-2505,28	175,00
-2494,96	103,00
-2484,65	132,00
-2474,36	126,00
-2464,08	149,00
-2453,82	127,00
-2443,57	112,00
-2433,33	146,00
-2423,11	130,00
-2412,91	138,00
-2402,72	49,00
-2392,54	39,00
-2382,38	106,00
-2372,23	144,00
-2362,09	209,00
-2351,97	144,00
-2341,87	-21,00
-2331,78	242,00
-2321,70	118,00
-2311,64	129,00
-2301,59	82,00
-2291,55	63,00
-2281,53	65,00
-2271,53	144,00
-2261,53	199,00
-2251,55	271,00
-2241,59	149,00
-2231,64	205,00
-2221,70	159,00
-2211,78	179,00
-2201,87	158,00
-2191,97	201,00
-2182,09	176,00
-2172,22	226,00
-2162,37	99,00
-2152,53	165,00
-2142,70	102,00
-2132,89	118,00
-2123,09	125,00
-2113,30	69,00
-2103,53	159,00
-2093,77	168,00
-2084,02	112,00
-2074,29	360,00
-2064,57	180,00
-2054,86	135,00
-2045,17	103,00
-2035,49	251,00
-2025,82	220,00
-2016,17	181,00
-2006,53	174,00
-1996,91	192,00
-1987,29	128,00
-1977,69	129,00
-1968,11	171,00
-1958,53	245,00
-1948,97	173,00
-1939,42	114,00
-1929,89	235,00
-1920,37	183,00
-1910,86	148,00
-1901,36	121,00
-1891,88	185,00
-1882,41	152,00
-1872,95	107,00
-1863,51	142,00
-1854,08	98,00
-1844,66	134,00
-1835,26	107,00
-1825,86	210,00
-1816,48	103,00
-1807,11	150,00
-1797,76	105,00
-1788,42	162,00
-1779,09	79,00
-1769,77	167,00
-1760,47	100,00
-1751,17	111,00
-1741,89	98,00
-1732,63	217,00
-1723,37	155,00
-1714,13	138,00
-1704,90	156,00
-1695,68	159,00
-1686,48	79,00
-1677,29	72,00
-1668,11	233,00
-1658,94	202,00
-1649,78	123,00
-1640,64	211,00
-1631,51	174,00
-1622,39	338,00
-1613,28	196,00
-1604,19	169,00
-1595,10	115,00
-1586,03	207,00
-1576,97	209,00
-1567,93	192,00
-1558,89	187,00
-1549,87	145,00
-1540,86	88,00
-1531,86	232,00
-1522,87	224,00
-1513,90	282,00
-1504,93	66,00
-1495,98	123,00
-1487,04	146,00
-1478,12	154,00
-1469,20	168,00
-1460,30	95,00
-1451,40	186,00
-1442,52	103,00
-1433,65	87,00
-1424,80	237,00
-1415,95	239,00
-1407,12	227,00
-1398,30	40,00
-1389,48	155,00
-1380,69	111,00
-1371,90	65,00
-1363,12	85,00
-1354,36	247,00
-1345,60	185,00
-1336,86	266,00
-1328,13	178,00
-1319,41	149,00
-1310,70	129,00
-1302,01	229,00
-1293,32	168,00
-1284,65	186,00
-1275,99	200,00
-1267,33	92,00
-1258,69	198,00
-1250,06	141,00
-1241,45	83,00
-1232,84	71,00
-1224,25	162,00
-1215,66	151,00
-1207,09	73,00
-1198,53	204,00
-1189,97	109,00
-1181,43	82,00
-1172,91	117,00
-1164,39	127,00
-1155,88	116,00
-1147,38	154,00
-1138,90	197,00
-1130,43	213,00
-1121,96	204,00
-1113,51	180,00
-1105,07	135,00
-1096,64	234,00
-1088,22	139,00
-1079,81	111,00
-1071,41	239,00
-1063,02	145,00
-1054,65	112,00
-1046,28	201,00
-1037,92	-16,00
-1029,58	82,00
-1021,24	141,00
-1012,92	229,00
-1004,61	217,00
-996,30	181,00
-988,01	90,00
-979,73	184,00
-971,46	115,00
-963,20	122,00
-954,95	144,00
-946,71	184,00
-938,48	205,00
-930,26	139,00
-922,06	61,00
-913,86	117,00
-905,67	105,00
-897,49	192,00
-889,33	176,00
-881,17	221,00
-873,02	193,00
-864,89	169,00
-856,76	52,00
-848,65	133,00
-840,54	266,00
-832,45	208,00
-824,36	166,00
-816,29	223,00
-808,22	230,00
-800,17	198,00
-792,12	118,00
-784,09	306,00
-776,06	248,00
-768,05	158,00
-760,04	132,00
-752,05	123,00
-744,07	75,00
-736,09	141,00
-728,13	137,00
-720,17	241,00
-712,23	213,00
-704,29	56,00
-696,37	273,00
-688,45	194,00
-680,55	120,00
-672,65	187,00
-664,77	94,00
-656,89	215,00
-649,03	138,00
-641,17	208,00
-633,32	280,00
-625,49	50,00
-617,66	257,00
-609,84	146,00
-602,03	142,00
-594,23	50,00
-586,45	317,00
-578,67	203,00
-570,90	180,00
-563,14	107,00
-555,39	124,00
-547,65	245,00
-539,91	184,00
-532,19	93,00
-524,48	215,00
-516,78	130,00
-509,08	171,00
-501,40	120,00
-493,72	192,00
-486,06	151,00
-478,40	135,00
-470,76	149,00
-463,12	134,00
-455,49	123,00
-447,87	168,00
-440,26	143,00
-432,66	175,00
-425,07	250,00
-417,49	267,00
-409,92	128,00
-402,35	90,00
-394,80	229,00
-387,25	305,00
-379,72	234,00
-372,19	185,00
-364,67	105,00
-357,17	92,00
-349,67	109,00
-342,18	139,00
-334,69	187,00
-327,22	133,00
-319,76	211,00
-312,30	218,00
-304,86	187,00
-297,42	175,00
-290,00	107,00
-282,58	210,00
-275,17	227,00
-267,77	139,00
-260,37	172,00
-252,99	225,00
-245,62	83,00
-238,25	183,00
-230,90	217,00
-223,55	170,00
-216,21	78,00
-208,88	406,00
-201,56	311,00
-194,25	178,00
-186,94	255,00
-179,65	260,00
-172,36	205,00
-165,08	295,00
-157,81	340,00
-150,55	442,00
-143,30	241,00
-136,06	390,00
-128,82	391,00
-121,60	563,00
-114,38	557,00
-107,17	530,00
-99,97	704,00
-92,78	690,00
-85,60	693,00
-78,42	887,00
-71,25	1005,00
-64,10	1042,00
-56,95	1193,00
-49,81	1444,00
-42,67	1855,00
-35,55	2137,00
-28,43	2857,00
-21,33	4719,00
-14,23	15797,00
-7,14	55635,00
-0,05	55419,00
7,02	55129,00
14,09	49834,00
21,14	13518,00
28,19	5694,00
35,23	3599,00
42,27	2777,00
49,29	2287,00
56,31	1923,00
63,32	1604,00
70,32	1379,00
77,31	1188,00
84,29	1078,00
91,27	928,00
98,23	898,00
105,19	975,00
112,14	788,00
119,09	1125,00
126,02	1475,00
132,95	1509,00
139,87	1632,00
146,78	1440,00
153,68	1555,00
160,58	1575,00
167,46	1494,00
174,34	1489,00
181,21	1372,00
188,08	1464,00
194,93	1410,00
201,78	1460,00
208,62	1488,00
215,45	1474,00
222,27	1456,00
229,09	1404,00
235,90	1381,00
242,70	1390,00
249,49	1359,00
256,27	1343,00
263,05	1199,00
269,82	1395,00
276,58	1377,00
283,33	1227,00
290,08	1275,00
296,82	1240,00
303,55	1075,00
310,27	1150,00
316,98	1184,00
323,69	1215,00
330,39	1143,00
337,08	1142,00
343,76	1188,00
350,44	1166,00
357,11	1184,00
363,77	1146,00
370,42	1264,00
377,07	1199,00
383,71	1100,00
390,34	1156,00
396,96	1160,00
403,58	1091,00
410,19	1163,00
416,79	1137,00
423,38	1121,00
429,97	1175,00
436,55	1032,00
443,12	1081,00
449,68	1078,00
456,24	1152,00
462,79	1066,00
469,33	1083,00
475,86	1097,00
482,39	1086,00
488,91	1022,00
495,42	1079,00
501,93	1004,00
508,42	1043,00
514,91	1077,00
521,40	1030,00
527,87	957,00
534,34	863,00
540,80	880,00
547,25	994,00
553,70	812,00
560,14	955,00
566,57	986,00
573,00	906,00
579,41	957,00
585,83	971,00
592,23	968,00
598,62	832,00
605,01	862,00
611,40	926,00
617,77	950,00
624,14	951,00
630,50	916,00
636,85	817,00
643,20	962,00
649,54	789,00
655,87	846,00
662,20	885,00
668,52	839,00
674,83	840,00
681,13	808,00
687,43	728,00
693,72	887,00
700,00	857,00
706,28	864,00
712,55	827,00
718,81	834,00
725,07	838,00
731,32	822,00
737,56	817,00
743,79	839,00
750,02	849,00
756,24	714,00
762,46	855,00
768,67	941,00
774,87	907,00
781,06	859,00
787,25	886,00
793,43	905,00
799,60	764,00
805,77	882,00
811,93	806,00
818,08	771,00
824,23	799,00
830,37	829,00
836,50	951,00
842,63	811,00
848,75	873,00
854,87	870,00
860,97	911,00
867,07	840,00
873,17	877,00
879,25	799,00
885,33	812,00
891,41	865,00
897,47	869,00
903,53	767,00
909,59	808,00
915,63	787,00
921,67	820,00
927,71	796,00
933,74	861,00
939,76	760,00
945,77	755,00
951,78	772,00
957,78	740,00
963,78	854,00
969,77	627,00
975,75	771,00
981,72	791,00
987,69	950,00
993,66	685,00
999,61	800,00
1005,56	801,00
1011,51	765,00
1017,44	769,00
1023,37	914,00
1029,30	879,00
1035,22	797,00
1041,13	795,00
1047,03	905,00
1052,93	988,00
1058,83	1138,00
1064,71	1043,00
1070,59	867,00
1076,47	872,00
1082,33	876,00
1088,20	936,00
1094,05	818,00
1099,90	841,00
1105,74	699,00
1111,58	817,00
1117,41	820,00
1123,23	1046,00
1129,05	1075,00
1134,86	960,00
1140,67	903,00
1146,47	703,00
1152,26	673,00
1158,05	777,00
1163,83	725,00
1169,60	735,00
1175,37	680,00
1181,13	799,00
1186,89	829,00
1192,64	665,00
1198,38	648,00
1204,12	700,00
1209,85	719,00
1215,58	774,00
1221,30	689,00
1227,02	822,00
1232,72	677,00
1238,43	788,00
1244,12	757,00
1249,81	731,00
1255,50	739,00
1261,17	674,00
1266,85	852,00
1272,51	800,00
1278,17	863,00
1283,83	763,00
1289,47	1145,00
1295,12	1243,00
1300,75	1146,00
1306,38	950,00
1312,01	885,00
1317,63	886,00
1323,24	839,00
1328,85	874,00
1334,45	880,00
1340,04	813,00
1345,63	783,00
1351,22	952,00
1356,80	868,00
1362,37	738,00
1367,93	876,00
1373,49	858,00
1379,05	971,00
1384,60	808,00
1390,14	880,00
1395,68	836,00
1401,21	766,00
1406,74	801,00
1412,26	908,00
1417,77	843,00
1423,28	1039,00
1428,78	1069,00
1434,28	1177,00
1439,77	1317,00
1445,26	1282,00
1450,74	1255,00
1456,22	1193,00
1461,68	1232,00
1467,15	901,00
1472,61	1166,00
1478,06	861,00
1483,51	839,00
1488,95	664,00
1494,38	755,00
1499,81	788,00
1505,24	778,00
1510,65	741,00
1516,07	747,00
1521,48	753,00
1526,88	652,00
1532,27	807,00
1537,67	616,00
1543,05	822,00
1548,43	549,00
1553,81	792,00
1559,18	686,00
1564,54	766,00
1569,90	658,00
1575,25	627,00
1580,60	678,00
1585,94	582,00
1591,28	676,00
1596,61	585,00
1601,93	633,00
1607,25	643,00
1612,57	841,00
1617,88	604,00
1623,18	646,00
1628,48	584,00
1633,77	601,00
1639,06	668,00
1644,34	748,00
1649,62	628,00
1654,89	653,00
1660,16	559,00
1665,42	684,00
1670,67	635,00
1675,92	640,00
1681,17	615,00
1686,41	692,00
1691,64	538,00
1696,87	744,00
1702,10	608,00
1707,32	567,00
1712,53	601,00
1717,74	673,00
1722,94	628,00
1728,14	518,00
1733,33	547,00
1738,52	615,00
1743,70	552,00
1748,88	524,00
1754,05	643,00
1759,22	521,00
1764,38	-877,00
1769,53	561,00
1774,69	457,00
1779,83	556,00
1784,97	605,00
1790,11	544,00
1795,24	527,00
1800,36	572,00
1805,48	599,00
1810,60	534,00
1815,71	589,00
1820,82	528,00
1825,92	560,00
1831,01	562,00
1836,10	604,00
1841,19	538,00
1846,26	388,00
1851,34	503,00
1856,41	504,00
1861,47	515,00
1866,53	513,00
1871,59	517,00
1876,64	621,00
1881,68	516,00
1886,72	451,00
1891,76	467,00
1896,79	479,00
1901,81	373,00
1906,83	553,00
1911,85	491,00
1916,86	484,00
1921,86	466,00
1926,86	430,00
1931,86	498,00
1936,85	409,00
1941,83	466,00
1946,81	404,00
1951,79	518,00
1956,76	503,00
1961,72	346,00
1966,68	450,00
1971,64	447,00
1976,59	396,00
1981,54	451,00
1986,48	448,00
1991,42	545,00
1996,35	449,00
2001,27	370,00
2006,20	440,00
2011,11	422,00
2016,03	351,00
2020,93	384,00
2025,84	430,00
2030,73	412,00
2035,63	392,00
2040,52	305,00
2045,40	408,00
2050,28	384,00
2055,15	425,00
2060,02	430,00
2064,89	378,00
2069,75	310,00
2074,60	472,00
2079,46	331,00
2084,30	276,00
2089,14	416,00
2093,98	456,00
2098,81	444,00
2103,64	327,00
2108,46	306,00
2113,28	374,00
2118,09	283,00
2122,90	293,00
2127,70	401,00
2132,50	406,00
2137,30	389,00
2142,09	415,00
2146,87	376,00
2151,66	431,00
2156,43	392,00
2161,20	347,00
2165,97	317,00
2170,73	425,00
2175,49	437,00
2180,24	401,00
2184,99	344,00
2189,74	458,00
2194,48	401,00
2199,21	449,00
2203,94	378,00
2208,67	428,00
2213,39	358,00
2218,11	184,00
2222,82	349,00
2227,53	393,00
2232,23	315,00
2236,93	392,00
2241,63	356,00
2246,32	398,00
2251,00	400,00
2255,68	401,00
2260,36	373,00
2265,03	411,00
2269,70	278,00
2274,36	307,00
2279,02	318,00
2283,68	280,00
2288,33	294,00
2292,97	417,00
2297,61	227,00
2302,25	447,00
2306,88	322,00
2311,51	321,00
2316,14	324,00
2320,75	364,00
2325,37	387,00
2329,98	406,00
2334,59	276,00
2339,19	234,00
2343,79	331,00
2348,38	327,00
2352,97	243,00
2357,55	336,00
2362,13	324,00
2366,71	183,00
2371,28	395,00
2375,85	318,00
2380,41	67,00
2384,97	396,00
2389,52	299,00
2394,07	302,00
2398,62	394,00
2403,16	286,00
2407,70	294,00
2412,23	199,00
2416,76	238,00
2421,29	353,00
2425,81	362,00
2430,32	284,00
2434,84	327,00
2439,34	260,00
2443,85	364,00
2448,35	292,00
2452,84	372,00
2457,33	410,00
2461,82	432,00
2466,30	260,00
2470,78	344,00
2475,25	297,00
2479,72	228,00
2484,19	315,00
2488,65	449,00
2493,11	248,00
2497,56	441,00
2502,01	240,00
2506,46	207,00
2510,90	195,00
2515,34	275,00
2519,77	318,00
2524,20	294,00
2528,62	353,00
2533,04	284,00
2537,46	266,00
2541,87	250,00
2546,28	294,00
2550,68	284,00
2555,08	426,00
2559,48	243,00
2563,87	265,00
2568,26	289,00
2572,64	281,00
2577,02	451,00
2581,40	357,00
2585,77	284,00
2590,14	149,00
2594,50	267,00
2598,86	184,00
2603,22	186,00
2607,57	437,00
2611,92	275,00
2616,26	277,00
2620,60	344,00
2624,94	126,00
2629,27	261,00
2633,60	255,00
2637,92	340,00
2642,24	334,00
2646,56	298,00
2650,87	309,00
2655,18	381,00
2659,48	361,00
2663,78	134,00
2668,08	333,00
2672,37	274,00
2676,66	326,00
2680,95	341,00
2685,23	312,00
2689,50	320,00
2693,78	341,00
2698,05	370,00
2702,31	299,00
2706,57	270,00
2710,83	307,00
2715,08	324,00
2719,33	300,00
2723,58	410,00
2727,82	353,00
2732,06	318,00
2736,29	326,00
2740,53	335,00
2744,75	267,00
2748,97	234,00
2753,19	242,00
2757,41	354,00
2761,62	390,00
2765,83	292,00
2770,03	301,00
2774,23	310,00
2778,43	242,00
2782,62	312,00
2786,81	326,00
2791,00	360,00
2795,18	321,00
2799,35	252,00
2803,53	456,00
2807,70	344,00
2811,86	365,00
2816,03	339,00
2820,19	354,00
2824,34	510,00
2828,49	441,00
2832,64	520,00
2836,78	472,00
2840,92	619,00
2845,06	753,00
2849,19	834,00
2853,32	873,00
2857,45	1007,00
2861,57	888,00
2865,69	812,00
2869,80	866,00
2873,91	878,00
2878,02	857,00
2882,12	921,00
2886,22	1023,00
2890,32	910,00
2894,41	872,00
2898,50	893,00
2902,58	677,00
2906,67	832,00
2910,74	693,00
2914,82	750,00
2918,89	695,00
2922,96	547,00
2927,02	585,00
2931,08	527,00
2935,13	475,00
2939,19	600,00
2943,24	584,00
2947,28	364,00
2951,32	441,00
2955,36	453,00
2959,40	328,00
2963,43	286,00
2967,46	345,00
2971,48	233,00
2975,50	302,00
2979,52	224,00
2983,53	381,00
2987,54	242,00
2991,55	285,00
2995,55	159,00
2999,55	271,00
3003,54	277,00
3007,54	278,00
3011,53	303,00
3015,51	259,00
3019,49	285,00
3023,47	229,00
3027,45	173,00
3031,42	211,00
3035,39	268,00
3039,35	202,00
3043,31	188,00
3047,27	187,00
3051,22	224,00
3055,17	257,00
3059,12	211,00
3063,06	184,00
3067,00	197,00
3070,94	282,00
3074,87	189,00
3078,80	284,00
3082,73	255,00
3086,65	162,00
3090,57	129,00
3094,49	301,00
3098,40	239,00
3102,31	268,00
3106,22	178,00
3110,12	187,00
3114,02	245,00
3117,92	90,00
3121,81	230,00
3125,70	257,00
3129,58	152,00
3133,47	223,00
3137,34	194,00
3141,22	61,00
3145,09	236,00
3148,96	191,00
3152,83	177,00
3156,69	207,00
3160,55	199,00
3164,40	196,00
3168,26	289,00
3172,10	272,00
3175,95	259,00
3179,79	115,00
3183,63	272,00
3187,47	228,00
3191,30	220,00
3195,13	192,00
3198,95	266,00
3202,78	29,00
3206,60	276,00
3210,41	118,00
3214,23	207,00
3218,03	177,00
3221,84	228,00
3225,64	171,00
3229,44	279,00
3233,24	192,00
3237,03	186,00
3240,82	209,00
3244,61	234,00
3248,39	48,00
3252,17	225,00
3255,95	99,00
3259,72	102,00
3263,49	238,00
3267,26	181,00
3271,03	142,00
3274,79	165,00
3278,54	79,00
3282,30	69,00
3286,05	342,00
3289,80	210,00
3293,54	167,00
3297,29	187,00
3301,02	165,00
3304,76	151,00
3308,49	158,00
3312,22	105,00
3315,95	133,00
3319,67	288,00
3323,39	235,00
3327,10	143,00
3330,82	222,00
3334,53	107,00
3338,24	143,00
3341,94	216,00
3345,64	171,00
3349,34	127,00
3353,03	217,00
3356,72	136,00
3360,41	181,00
3364,10	261,00
3367,78	159,00
3371,46	95,00
3375,13	180,00
3378,81	90,00
3382,48	255,00
3386,14	171,00
3389,81	103,00
3393,47	255,00
3397,12	241,00
3400,78	166,00
3404,43	179,00
3408,08	122,00
3411,72	90,00
3415,36	116,00
3419,00	157,00
3422,64	229,00
3426,27	164,00
3429,90	131,00
3433,53	186,00
3437,15	173,00
3440,77	120,00
3444,39	249,00
3448,00	93,00
3451,62	209,00
3455,22	158,00
3458,83	191,00
3462,43	134,00
3466,03	125,00
3469,63	167,00
3473,22	72,00
3476,81	95,00
3480,40	118,00
3483,99	121,00
3487,57	121,00
3491,15	177,00
3494,72	226,00
3498,29	237,00
3501,86	115,00
3505,43	198,00
3508,99	79,00
3512,56	119,00
3516,11	161,00
3519,67	65,00
3523,22	221,00
3526,77	180,00
3530,32	156,00
3533,86	100,00
3537,40	264,00
3540,94	270,00
3544,47	186,00
3548,00	204,00
3551,53	107,00
3555,06	179,00
3558,58	254,00
3562,10	144,00
3565,62	203,00
3569,13	151,00
3572,64	200,00
3576,15	108,00
3579,66	175,00
3583,16	249,00
3586,66	196,00
3590,16	84,00
3593,65	181,00
3597,14	169,00
3600,63	226,00
3604,11	177,00
3607,60	161,00
3611,08	166,00
3614,55	166,00
3618,03	101,00
3621,50	193,00
3624,97	183,00
3628,43	181,00
3631,90	101,00
3635,36	162,00
3638,81	88,00
3642,27	198,00
3645,72	62,00
3649,17	141,00
3652,61	83,00
3656,06	122,00
3659,50	84,00
3662,93	111,00
3666,37	155,00
3669,80	168,00
3673,23	90,00
3676,65	153,00
3680,08	161,00
3683,50	47,00
3686,92	231,00
3690,33	258,00
3693,74	623,00
3697,15	884,00
3700,56	426,00
3703,96	30,00
3707,36	112,00
3710,76	97,00
3714,16	131,00
3717,55	191,00
3720,94	194,00
3724,33	140,00
3727,71	214,00
3731,10	256,00
3734,48	92,00
3737,85	122,00
3741,23	132,00
3744,60	120,00
3747,97	83,00
3751,33	120,00
3754,69	189,00
3758,05	193,00
3761,41	207,00
3764,77	104,00
3768,12	208,00
3771,47	212,00
3774,82	129,00
3778,16	-5,00
3781,50	3,00
3784,84	-5,00
3788,18	5,00
>>>>>End Processed Spectral Data<<<<<
