SpectraSuite Data File
++++++++++++++++++++++++++++++++++++
Date: Mon Mar 09 15:57:57 ICT 2026
User: Administrator
Dark Spectrum Present: Yes
Reference Spectrum Present: No
Number of Sampled Component Spectra: 1
Spectrometers: MAYP113682
Integration Time (usec): 3000000 (MAYP113682)
Spectra Averaged: 1 (MAYP113682)
Boxcar Smoothing: 0 (MAYP113682)
Correct for Electrical Dark: No (MAYP113682)
Strobe/Lamp Enabled: No (MAYP113682)
Correct for Detector Non-linearity: No (MAYP113682)
Correct for Stray Light: No (MAYP113682)
Number of Pixels in Processed Spectrum: 2068
>>>>>Begin Processed Spectral Data<<<<<
-37534,58	0,00
-37414,56	1,00
-37295,11	4,00
-37176,24	-2,00
-37057,95	66,00
-36940,22	-59,00
-36823,05	-15,00
-36706,45	148,00
-36590,40	10,00
-36474,90	-44,00
-36359,95	48,00
-36245,55	60,00
-36131,68	-36,00
-36018,35	29,00
-35905,55	75,00
-35793,29	48,00
-35681,54	65,00
-35570,32	-26,00
-35459,62	-44,00
-35349,43	21,00
-35239,75	4,00
-35130,58	29,00
-35021,91	-44,00
-34913,74	-64,00
-34806,07	59,00
-34698,89	-27,00
-34592,20	109,00
-34486,00	83,00
-34380,28	132,00
-34275,04	-66,00
-34170,27	18,00
-34065,98	50,00
-33962,16	131,00
-33858,81	94,00
-33755,92	47,00
-33653,49	49,00
-33551,52	17,00
-33450,01	131,00
-33348,94	-52,00
-33248,33	-6,00
-33148,16	14,00
-33048,43	-45,00
-32949,14	-59,00
-32850,29	160,00
-32751,87	-83,00
-32653,89	129,00
-32556,33	-49,00
-32459,20	96,00
-32362,49	39,00
-32266,19	-39,00
-32170,32	69,00
-32074,86	160,00
-31979,82	84,00
-31885,18	52,00
-31790,95	25,00
-31697,12	27,00
-31603,69	10,00
-31510,67	49,00
-31418,04	17,00
-31325,80	137,00
-31233,95	12,00
-31142,49	-7,00
-31051,42	73,00
-30960,73	7,00
-30870,43	231,00
-30780,50	60,00
-30690,95	170,00
-30601,77	-16,00
-30512,97	111,00
-30424,53	-59,00
-30336,46	192,00
-30248,76	15,00
-30161,42	45,00
-30074,44	-21,00
-29987,81	15,00
-29901,55	76,00
-29815,63	-41,00
-29730,07	117,00
-29644,86	56,00
-29560,00	40,00
-29475,48	14,00
-29391,30	54,00
-29307,47	-24,00
-29223,97	-24,00
-29140,81	49,00
-29057,99	-11,00
-28975,50	67,00
-28893,34	43,00
-28811,51	35,00
-28730,00	43,00
-28648,82	134,00
-28567,97	111,00
-28487,43	-58,00
-28407,21	2,00
-28327,32	74,00
-28247,73	-20,00
-28168,46	-107,00
-28089,50	104,00
-28010,85	99,00
-27932,51	52,00
-27854,48	-167,00
-27776,75	11,00
-27699,32	22,00
-27622,19	12,00
-27545,37	71,00
-27468,84	32,00
-27392,60	93,00
-27316,66	-33,00
-27241,01	-76,00
-27165,66	80,00
-27090,59	12,00
-27015,81	11,00
-26941,31	-24,00
-26867,10	8,00
-26793,17	19,00
-26719,52	18,00
-26646,15	-48,00
-26573,06	-49,00
-26500,24	-35,00
-26427,70	54,00
-26355,43	26,00
-26283,43	44,00
-26211,71	98,00
-26140,25	94,00
-26069,06	99,00
-25998,13	-35,00
-25927,46	77,00
-25857,06	-53,00
-25786,92	27,00
-25717,04	23,00
-25647,42	-8,00
-25578,05	43,00
-25508,94	-57,00
-25440,09	92,00
-25371,48	45,00
-25303,13	65,00
-25235,02	11,00
-25167,17	-12,00
-25099,56	51,00
-25032,19	-39,00
-24965,07	106,00
-24898,20	-63,00
-24831,56	45,00
-24765,17	135,00
-24699,01	160,00
-24633,10	-26,00
-24567,41	-25,00
-24501,97	-107,00
-24436,75	-36,00
-24371,77	4,00
-24307,03	-58,00
-24242,51	80,00
-24178,22	-22,00
-24114,16	-15,00
-24050,32	40,00
-23986,71	74,00
-23923,32	182,00
-23860,16	167,00
-23797,22	75,00
-23734,50	-58,00
-23672,00	132,00
-23609,71	40,00
-23547,65	32,00
-23485,80	6,00
-23424,16	42,00
-23362,74	149,00
-23301,53	-53,00
-23240,54	104,00
-23179,75	-25,00
-23119,17	108,00
-23058,80	-39,00
-22998,64	-48,00
-22938,68	3,00
-22878,93	31,00
-22819,39	103,00
-22760,04	84,00
-22700,90	-36,00
-22641,96	-117,00
-22583,22	194,00
-22524,68	88,00
-22466,33	76,00
-22408,19	51,00
-22350,23	-9,00
-22292,48	0,00
-22234,92	-103,00
-22177,55	108,00
-22120,37	-8,00
-22063,38	29,00
-22006,58	27,00
-21949,98	82,00
-21893,56	64,00
-21837,33	40,00
-21781,28	55,00
-21725,42	46,00
-21669,74	30,00
-21614,25	22,00
-21558,94	72,00
-21503,81	121,00
-21448,86	46,00
-21394,10	40,00
-21339,51	113,00
-21285,10	-9,00
-21230,86	2,00
-21176,81	-26,00
-21122,93	72,00
-21069,22	51,00
-21015,69	-65,00
-20962,33	105,00
-20909,14	115,00
-20856,13	-2,00
-20803,28	-17,00
-20750,61	90,00
-20698,10	208,00
-20645,76	114,00
-20593,59	36,00
-20541,59	46,00
-20489,75	6,00
-20438,07	5,00
-20386,56	40,00
-20335,22	68,00
-20284,03	-18,00
-20233,01	-40,00
-20182,15	9,00
-20131,45	144,00
-20080,91	-89,00
-20030,52	74,00
-19980,30	9,00
-19930,23	68,00
-19880,32	34,00
-19830,56	25,00
-19780,96	100,00
-19731,52	-23,00
-19682,23	76,00
-19633,09	77,00
-19584,10	1,00
-19535,26	14,00
-19486,58	29,00
-19438,04	35,00
-19389,66	50,00
-19341,42	55,00
-19293,33	48,00
-19245,39	141,00
-19197,60	40,00
-19149,95	-118,00
-19102,45	33,00
-19055,09	68,00
-19007,87	10,00
-18960,80	55,00
-18913,87	8,00
-18867,09	-29,00
-18820,44	73,00
-18773,94	30,00
-18727,57	21,00
-18681,35	36,00
-18635,26	61,00
-18589,31	81,00
-18543,50	41,00
-18497,83	136,00
-18452,29	40,00
-18406,89	-33,00
-18361,63	-54,00
-18316,50	53,00
-18271,50	32,00
-18226,63	68,00
-18181,90	27,00
-18137,30	-62,00
-18092,84	-39,00
-18048,50	-3,00
-18004,29	-128,00
-17960,22	14,00
-17916,27	-7,00
-17872,45	30,00
-17828,76	144,00
-17785,20	28,00
-17741,77	44,00
-17698,46	78,00
-17655,28	-71,00
-17612,22	45,00
-17569,29	102,00
-17526,48	90,00
-17483,79	142,00
-17441,23	28,00
-17398,79	98,00
-17356,48	-29,00
-17314,28	139,00
-17272,21	33,00
-17230,26	65,00
-17188,42	179,00
-17146,71	27,00
-17105,12	119,00
-17063,64	82,00
-17022,28	0,00
-16981,04	35,00
-16939,92	42,00
-16898,91	160,00
-16858,02	3,00
-16817,25	103,00
-16776,59	-114,00
-16736,04	10,00
-16695,61	-3,00
-16655,29	-16,00
-16615,09	-20,00
-16574,99	34,00
-16535,01	-2,00
-16495,15	113,00
-16455,39	42,00
-16415,74	27,00
-16376,21	-54,00
-16336,78	14,00
-16297,46	9,00
-16258,26	51,00
-16219,16	53,00
-16180,17	-43,00
-16141,28	25,00
-16102,51	7,00
-16063,84	54,00
-16025,27	59,00
-15986,82	-29,00
-15948,46	52,00
-15910,22	-21,00
-15872,07	99,00
-15834,04	73,00
-15796,10	197,00
-15758,27	74,00
-15720,54	70,00
-15682,91	17,00
-15645,39	24,00
-15607,97	38,00
-15570,64	77,00
-15533,42	36,00
-15496,30	104,00
-15459,28	58,00
-15422,36	-2,00
-15385,54	11,00
-15348,82	-21,00
-15312,19	82,00
-15275,66	-27,00
-15239,23	-3,00
-15202,90	35,00
-15166,67	36,00
-15130,53	2,00
-15094,48	76,00
-15058,54	132,00
-15022,68	85,00
-14986,93	68,00
-14951,26	65,00
-14915,69	32,00
-14880,22	-31,00
-14844,84	16,00
-14809,55	69,00
-14774,35	-94,00
-14739,25	14,00
-14704,24	130,00
-14669,32	-45,00
-14634,49	-78,00
-14599,75	-51,00
-14565,10	19,00
-14530,55	64,00
-14496,08	142,00
-14461,70	-46,00
-14427,41	-48,00
-14393,21	127,00
-14359,10	63,00
-14325,07	-7,00
-14291,14	80,00
-14257,29	67,00
-14223,52	-57,00
-14189,85	105,00
-14156,26	-6,00
-14122,76	65,00
-14089,34	62,00
-14056,01	110,00
-14022,76	46,00
-13989,60	100,00
-13956,52	14,00
-13923,53	-22,00
-13890,62	52,00
-13857,79	-43,00
-13825,05	25,00
-13792,39	22,00
-13759,81	91,00
-13727,31	116,00
-13694,90	29,00
-13662,57	56,00
-13630,31	141,00
-13598,14	86,00
-13566,05	100,00
-13534,05	46,00
-13502,12	27,00
-13470,27	-47,00
-13438,50	51,00
-13406,80	69,00
-13375,19	41,00
-13343,66	104,00
-13312,20	-3,00
-13280,83	56,00
-13249,53	-47,00
-13218,30	109,00
-13187,16	-20,00
-13156,09	94,00
-13125,10	22,00
-13094,18	66,00
-13063,34	46,00
-13032,58	-34,00
-13001,89	66,00
-12971,28	24,00
-12940,74	107,00
-12910,27	24,00
-12879,88	202,00
-12849,57	47,00
-12819,33	19,00
-12789,16	-27,00
-12759,06	87,00
-12729,04	127,00
-12699,09	1555,00
-12669,21	39,00
-12639,41	55,00
-12609,68	23,00
-12580,02	61,00
-12550,43	33,00
-12520,91	150,00
-12491,46	82,00
-12462,08	61,00
-12432,77	137,00
-12403,54	26,00
-12374,37	84,00
-12345,27	-18,00
-12316,24	-33,00
-12287,29	-116,00
-12258,40	-24,00
-12229,57	-8,00
-12200,82	-9,00
-12172,14	129,00
-12143,52	-16,00
-12114,97	153,00
-12086,49	5,00
-12058,07	96,00
-12029,73	65,00
-12001,44	-1,00
-11973,23	63,00
-11945,08	42,00
-11917,00	52,00
-11888,98	-5,00
-11861,03	42,00
-11833,15	4,00
-11805,32	2,00
-11777,57	-15,00
-11749,88	16,00
-11722,25	27,00
-11694,69	9,00
-11667,19	-14,00
-11639,75	-114,00
-11612,38	23,00
-11585,07	146,00
-11557,83	49,00
-11530,65	-45,00
-11503,53	97,00
-11476,47	140,00
-11449,48	76,00
-11422,54	37,00
-11395,67	5,00
-11368,86	51,00
-11342,11	-31,00
-11315,43	95,00
-11288,80	53,00
-11262,23	23,00
-11235,73	44,00
-11209,28	53,00
-11182,90	54,00
-11156,57	74,00
-11130,31	103,00
-11104,10	4,00
-11077,96	-53,00
-11051,87	4,00
-11025,84	-19,00
-10999,87	60,00
-10973,96	3,00
-10948,11	53,00
-10922,31	104,00
-10896,58	72,00
-10870,90	110,00
-10845,28	-42,00
-10819,71	73,00
-10794,20	97,00
-10768,75	172,00
-10743,36	47,00
-10718,02	17,00
-10692,74	133,00
-10667,52	40,00
-10642,35	52,00
-10617,24	-14,00
-10592,18	91,00
-10567,18	81,00
-10542,23	72,00
-10517,34	86,00
-10492,51	115,00
-10467,72	49,00
-10443,00	132,00
-10418,32	30,00
-10393,70	64,00
-10369,14	11,00
-10344,63	110,00
-10320,17	31,00
-10295,77	25,00
-10271,42	-69,00
-10247,12	53,00
-10222,88	76,00
-10198,68	63,00
-10174,54	110,00
-10150,46	141,00
-10126,42	-13,00
-10102,44	102,00
-10078,51	-49,00
-10054,63	133,00
-10030,80	162,00
-10007,03	-49,00
-9983,30	-122,00
-9959,63	109,00
-9936,01	50,00
-9912,44	40,00
-9888,92	161,00
-9865,44	32,00
-9842,02	160,00
-9818,65	187,00
-9795,33	97,00
-9772,06	123,00
-9748,84	123,00
-9725,67	85,00
-9702,55	14,00
-9679,47	128,00
-9656,45	196,00
-9633,47	119,00
-9610,55	243,00
-9587,67	198,00
-9564,84	78,00
-9542,06	201,00
-9519,32	72,00
-9496,64	209,00
-9474,00	240,00
-9451,41	297,00
-9428,87	326,00
-9406,37	256,00
-9383,92	212,00
-9361,52	273,00
-9339,17	227,00
-9316,86	193,00
-9294,60	348,00
-9272,38	427,00
-9250,21	330,00
-9228,09	483,00
-9206,01	328,00
-9183,98	302,00
-9162,00	268,00
-9140,06	260,00
-9118,16	168,00
-9096,31	369,00
-9074,51	343,00
-9052,75	361,00
-9031,04	273,00
-9009,37	352,00
-8987,74	289,00
-8966,16	313,00
-8944,63	120,00
-8923,14	220,00
-8901,69	137,00
-8880,29	254,00
-8858,93	296,00
-8837,61	200,00
-8816,34	353,00
-8795,11	231,00
-8773,92	380,00
-8752,78	340,00
-8731,68	250,00
-8710,62	227,00
-8689,61	211,00
-8668,63	325,00
-8647,70	495,00
-8626,82	499,00
-8605,97	287,00
-8585,17	403,00
-8564,41	176,00
-8543,69	234,00
-8523,01	117,00
-8502,37	191,00
-8481,78	312,00
-8461,23	271,00
-8440,71	243,00
-8420,24	281,00
-8399,81	316,00
-8379,42	239,00
-8359,08	301,00
-8338,77	308,00
-8318,50	339,00
-8298,27	222,00
-8278,09	304,00
-8257,94	349,00
-8237,83	290,00
-8217,76	367,00
-8197,74	276,00
-8177,75	442,00
-8157,80	273,00
-8137,89	261,00
-8118,02	259,00
-8098,19	234,00
-8078,40	335,00
-8058,65	231,00
-8038,93	318,00
-8019,26	434,00
-7999,62	306,00
-7980,02	193,00
-7960,46	203,00
-7940,94	184,00
-7921,46	134,00
-7902,01	183,00
-7882,60	286,00
-7863,23	171,00
-7843,90	204,00
-7824,61	195,00
-7805,35	337,00
-7786,13	234,00
-7766,95	328,00
-7747,80	232,00
-7728,69	198,00
-7709,62	310,00
-7690,59	262,00
-7671,59	346,00
-7652,63	456,00
-7633,70	366,00
-7614,81	221,00
-7595,96	245,00
-7577,15	316,00
-7558,37	315,00
-7539,62	305,00
-7520,91	420,00
-7502,24	256,00
-7483,60	178,00
-7465,00	212,00
-7446,44	139,00
-7427,91	248,00
-7409,41	262,00
-7390,95	94,00
-7372,53	125,00
-7354,14	217,00
-7335,78	247,00
-7317,46	104,00
-7299,18	215,00
-7280,92	222,00
-7262,71	258,00
-7244,52	278,00
-7226,38	246,00
-7208,26	375,00
-7190,18	229,00
-7172,14	249,00
-7154,12	159,00
-7136,15	246,00
-7118,20	261,00
-7100,29	309,00
-7082,41	314,00
-7064,57	195,00
-7046,76	248,00
-7028,98	176,00
-7011,24	86,00
-6993,53	94,00
-6975,85	227,00
-6958,20	81,00
-6940,59	98,00
-6923,01	167,00
-6905,46	144,00
-6887,94	113,00
-6870,46	341,00
-6853,01	230,00
-6835,59	252,00
-6818,21	157,00
-6800,85	175,00
-6783,53	97,00
-6766,24	-65,00
-6748,98	118,00
-6731,76	66,00
-6714,56	25,00
-6697,40	68,00
-6680,26	41,00
-6663,16	205,00
-6646,09	129,00
-6629,05	259,00
-6612,05	158,00
-6595,07	204,00
-6578,13	200,00
-6561,21	123,00
-6544,33	91,00
-6527,47	-1,00
-6510,65	146,00
-6493,86	23,00
-6477,10	45,00
-6460,36	59,00
-6443,66	52,00
-6426,99	-5,00
-6410,35	63,00
-6393,74	55,00
-6377,16	68,00
-6360,61	134,00
-6344,09	83,00
-6327,59	129,00
-6311,13	201,00
-6294,70	181,00
-6278,29	143,00
-6261,92	86,00
-6245,58	242,00
-6229,26	76,00
-6212,97	82,00
-6196,72	77,00
-6180,49	101,00
-6164,29	116,00
-6148,12	-19,00
-6131,98	-57,00
-6115,86	-38,00
-6099,78	44,00
-6083,72	-80,00
-6067,69	14,00
-6051,69	24,00
-6035,72	203,00
-6019,78	55,00
-6003,87	125,00
-5987,98	130,00
-5972,12	66,00
-5956,29	60,00
-5940,49	93,00
-5924,71	156,00
-5908,96	-14,00
-5893,24	73,00
-5877,55	151,00
-5861,89	59,00
-5846,25	139,00
-5830,64	103,00
-5815,05	-21,00
-5799,50	17,00
-5783,97	-47,00
-5768,47	142,00
-5752,99	44,00
-5737,55	98,00
-5722,12	76,00
-5706,73	58,00
-5691,36	158,00
-5676,02	62,00
-5660,71	58,00
-5645,42	88,00
-5630,16	238,00
-5614,92	59,00
-5599,71	30,00
-5584,53	98,00
-5569,37	123,00
-5554,24	-407,00
-5539,14	127,00
-5524,06	112,00
-5509,01	26,00
-5493,98	67,00
-5478,98	50,00
-5464,00	-6,00
-5449,05	204,00
-5434,13	123,00
-5419,23	69,00
-5404,36	21,00
-5389,51	110,00
-5374,69	-13,00
-5359,89	274,00
-5345,12	85,00
-5330,37	28,00
-5315,65	126,00
-5300,95	64,00
-5286,28	133,00
-5271,63	46,00
-5257,01	137,00
-5242,41	72,00
-5227,84	49,00
-5213,29	114,00
-5198,76	-41,00
-5184,26	74,00
-5169,79	-89,00
-5155,33	1,00
-5140,91	74,00
-5126,51	143,00
-5112,13	19,00
-5097,77	32,00
-5083,44	217,00
-5069,13	31,00
-5054,85	87,00
-5040,59	96,00
-5026,36	166,00
-5012,15	-14,00
-4997,96	84,00
-4983,80	-12,00
-4969,66	2,00
-4955,54	-30,00
-4941,44	83,00
-4927,37	143,00
-4913,33	82,00
-4899,30	177,00
-4885,30	85,00
-4871,33	229,00
-4857,37	77,00
-4843,44	146,00
-4829,53	166,00
-4815,65	111,00
-4801,79	-18,00
-4787,95	44,00
-4774,13	53,00
-4760,34	15,00
-4746,56	3,00
-4732,82	-15,00
-4719,09	15,00
-4705,38	84,00
-4691,70	105,00
-4678,04	35,00
-4664,41	131,00
-4650,79	164,00
-4637,20	42,00
-4623,63	-43,00
-4610,08	55,00
-4596,56	68,00
-4583,05	115,00
-4569,57	31,00
-4556,11	11,00
-4542,67	-12,00
-4529,25	-54,00
-4515,86	209,00
-4502,49	124,00
-4489,13	179,00
-4475,80	4,00
-4462,49	140,00
-4449,21	15,00
-4435,94	58,00
-4422,70	25,00
-4409,47	138,00
-4396,27	27,00
-4383,09	50,00
-4369,93	69,00
-4356,79	58,00
-4343,67	-37,00
-4330,58	6,00
-4317,50	156,00
-4304,45	58,00
-4291,41	78,00
-4278,40	131,00
-4265,41	25,00
-4252,44	17,00
-4239,49	-30,00
-4226,55	75,00
-4213,65	145,00
-4200,76	181,00
-4187,89	84,00
-4175,04	254,00
-4162,21	-3,00
-4149,40	75,00
-4136,61	-90,00
-4123,85	-93,00
-4111,10	-28,00
-4098,37	42,00
-4085,66	25,00
-4072,98	110,00
-4060,31	18,00
-4047,66	-78,00
-4035,04	-55,00
-4022,43	39,00
-4009,84	50,00
-3997,27	13,00
-3984,72	-2,00
-3972,19	-15,00
-3959,69	60,00
-3947,20	38,00
-3934,73	28,00
-3922,27	-24,00
-3909,84	-64,00
-3897,43	15,00
-3885,04	108,00
-3872,67	44,00
-3860,31	8,00
-3847,98	-20,00
-3835,66	-25,00
-3823,36	114,00
-3811,09	0,00
-3798,83	20,00
-3786,59	8,00
-3774,37	81,00
-3762,17	-31,00
-3749,98	41,00
-3737,82	38,00
-3725,67	215,00
-3713,55	84,00
-3701,44	-52,00
-3689,35	192,00
-3677,28	72,00
-3665,22	123,00
-3653,19	21,00
-3641,17	82,00
-3629,18	41,00
-3617,20	25,00
-3605,24	140,00
-3593,30	91,00
-3581,37	161,00
-3569,47	-4,00
-3557,58	156,00
-3545,71	-25,00
-3533,86	84,00
-3522,02	4,00
-3510,21	35,00
-3498,41	118,00
-3486,63	18,00
-3474,87	111,00
-3463,12	31,00
-3451,40	70,00
-3439,69	30,00
-3428,00	78,00
-3416,33	-24,00
-3404,67	-72,00
-3393,03	81,00
-3381,41	22,00
-3369,81	-1,00
-3358,22	75,00
-3346,66	141,00
-3335,10	-5,00
-3323,57	14,00
-3312,06	-24,00
-3300,56	38,00
-3289,08	22,00
-3277,61	-56,00
-3266,16	55,00
-3254,73	28,00
-3243,32	19,00
-3231,92	6,00
-3220,55	81,00
-3209,18	-22,00
-3197,84	37,00
-3186,51	-30,00
-3175,20	66,00
-3163,90	-32,00
-3152,63	88,00
-3141,36	35,00
-3130,12	50,00
-3118,89	-104,00
-3107,68	66,00
-3096,49	4,00
-3085,31	145,00
-3074,15	131,00
-3063,00	77,00
-3051,87	-7,00
-3040,76	121,00
-3029,67	-60,00
-3018,59	21,00
-3007,52	84,00
-2996,48	18,00
-2985,44	55,00
-2974,43	-68,00
-2963,43	-29,00
-2952,45	-25,00
-2941,48	11,00
-2930,53	2,00
-2919,60	79,00
-2908,68	-106,00
-2897,78	-31,00
-2886,89	-51,00
-2876,02	-31,00
-2865,17	128,00
-2854,33	50,00
-2843,50	-35,00
-2832,70	37,00
-2821,90	-14,00
-2811,13	-24,00
-2800,37	-42,00
-2789,62	-61,00
-2778,89	45,00
-2768,18	108,00
-2757,48	61,00
-2746,80	31,00
-2736,13	80,00
-2725,48	-119,00
-2714,84	45,00
-2704,22	-10,00
-2693,61	48,00
-2683,02	4,00
-2672,45	-21,00
-2661,89	85,00
-2651,34	9,00
-2640,81	69,00
-2630,30	-15,00
-2619,80	-14,00
-2609,31	29,00
-2598,84	91,00
-2588,39	17,00
-2577,95	-11,00
-2567,52	113,00
-2557,11	104,00
-2546,71	32,00
-2536,33	127,00
-2525,97	-80,00
-2515,62	-26,00
-2505,28	29,00
-2494,96	87,00
-2484,65	-59,00
-2474,36	12,00
-2464,08	50,00
-2453,82	116,00
-2443,57	108,00
-2433,33	12,00
-2423,11	-7,00
-2412,91	-51,00
-2402,72	0,00
-2392,54	44,00
-2382,38	-16,00
-2372,23	23,00
-2362,09	-4774,00
-2351,97	57,00
-2341,87	3,00
-2331,78	-104,00
-2321,70	59,00
-2311,64	-56,00
-2301,59	48,00
-2291,55	24,00
-2281,53	38,00
-2271,53	74,00
-2261,53	64,00
-2251,55	155,00
-2241,59	50,00
-2231,64	-89,00
-2221,70	-2,00
-2211,78	98,00
-2201,87	12,00
-2191,97	18,00
-2182,09	-12,00
-2172,22	55,00
-2162,37	81,00
-2152,53	12,00
-2142,70	21,00
-2132,89	153,00
-2123,09	63,00
-2113,30	101,00
-2103,53	-15,00
-2093,77	-60,00
-2084,02	1,00
-2074,29	6,00
-2064,57	-82,00
-2054,86	-34,00
-2045,17	8,00
-2035,49	-29,00
-2025,82	78,00
-2016,17	65,00
-2006,53	171,00
-1996,91	3,00
-1987,29	11,00
-1977,69	-19,00
-1968,11	33,00
-1958,53	0,00
-1948,97	-18,00
-1939,42	-83,00
-1929,89	37,00
-1920,37	-13,00
-1910,86	-21,00
-1901,36	-60,00
-1891,88	51,00
-1882,41	-26,00
-1872,95	-28,00
-1863,51	105,00
-1854,08	4,00
-1844,66	132,00
-1835,26	21,00
-1825,86	39,00
-1816,48	167,00
-1807,11	68,00
-1797,76	187,00
-1788,42	19,00
-1779,09	3,00
-1769,77	62,00
-1760,47	74,00
-1751,17	110,00
-1741,89	-52,00
-1732,63	30,00
-1723,37	51,00
-1714,13	56,00
-1704,90	43,00
-1695,68	25,00
-1686,48	50,00
-1677,29	-69,00
-1668,11	-2,00
-1658,94	16,00
-1649,78	55,00
-1640,64	22,00
-1631,51	-43,00
-1622,39	91,00
-1613,28	46,00
-1604,19	-28,00
-1595,10	-94,00
-1586,03	190,00
-1576,97	-20,00
-1567,93	31,00
-1558,89	-37,00
-1549,87	142,00
-1540,86	94,00
-1531,86	-24,00
-1522,87	53,00
-1513,90	32,00
-1504,93	271,00
-1495,98	50,00
-1487,04	12,00
-1478,12	181,00
-1469,20	-41,00
-1460,30	70,00
-1451,40	96,00
-1442,52	44,00
-1433,65	-61,00
-1424,80	11,00
-1415,95	115,00
-1407,12	135,00
-1398,30	-7,00
-1389,48	33,00
-1380,69	-44,00
-1371,90	52,00
-1363,12	36,00
-1354,36	-20,00
-1345,60	92,00
-1336,86	-22,00
-1328,13	90,00
-1319,41	20,00
-1310,70	-16,00
-1302,01	31,00
-1293,32	60,00
-1284,65	94,00
-1275,99	92,00
-1267,33	-11,00
-1258,69	16,00
-1250,06	32,00
-1241,45	45,00
-1232,84	36,00
-1224,25	31,00
-1215,66	70,00
-1207,09	99,00
-1198,53	90,00
-1189,97	40,00
-1181,43	-58,00
-1172,91	56,00
-1164,39	107,00
-1155,88	-4,00
-1147,38	57,00
-1138,90	46,00
-1130,43	117,00
-1121,96	119,00
-1113,51	49,00
-1105,07	29,00
-1096,64	92,00
-1088,22	211,00
-1079,81	-4,00
-1071,41	-27,00
-1063,02	100,00
-1054,65	-110,00
-1046,28	5,00
-1037,92	-16,00
-1029,58	-3,00
-1021,24	20,00
-1012,92	126,00
-1004,61	57,00
-996,30	57,00
-988,01	119,00
-979,73	54,00
-971,46	-37,00
-963,20	14,00
-954,95	-3,00
-946,71	-77,00
-938,48	56,00
-930,26	64,00
-922,06	14,00
-913,86	88,00
-905,67	121,00
-897,49	-3,00
-889,33	44,00
-881,17	43,00
-873,02	-77,00
-864,89	10,00
-856,76	-50,00
-848,65	58,00
-840,54	68,00
-832,45	22,00
-824,36	0,00
-816,29	11,00
-808,22	71,00
-800,17	-2,00
-792,12	-4,00
-784,09	-5,00
-776,06	32,00
-768,05	0,00
-760,04	136,00
-752,05	75,00
-744,07	105,00
-736,09	123,00
-728,13	85,00
-720,17	-21,00
-712,23	5,00
-704,29	66,00
-696,37	106,00
-688,45	-4,00
-680,55	51,00
-672,65	-104,00
-664,77	-18,00
-656,89	52,00
-649,03	14,00
-641,17	-7,00
-633,32	-52,00
-625,49	24,00
-617,66	45,00
-609,84	52,00
-602,03	-33,00
-594,23	66,00
-586,45	-34,00
-578,67	-63,00
-570,90	36,00
-563,14	92,00
-555,39	91,00
-547,65	86,00
-539,91	34,00
-532,19	-22,00
-524,48	-30,00
-516,78	53,00
-509,08	-21,00
-501,40	40,00
-493,72	120,00
-486,06	186,00
-478,40	96,00
-470,76	116,00
-463,12	-104,00
-455,49	84,00
-447,87	106,00
-440,26	-50,00
-432,66	53,00
-425,07	76,00
-417,49	90,00
-409,92	100,00
-402,35	118,00
-394,80	57,00
-387,25	82,00
-379,72	59,00
-372,19	135,00
-364,67	45,00
-357,17	29,00
-349,67	-15,00
-342,18	72,00
-334,69	244,00
-327,22	127,00
-319,76	118,00
-312,30	-36,00
-304,86	-5,00
-297,42	160,00
-290,00	44,00
-282,58	16,00
-275,17	-23,00
-267,77	37,00
-260,37	119,00
-252,99	75,00
-245,62	7,00
-238,25	218,00
-230,90	83,00
-223,55	137,00
-216,21	105,00
-208,88	163,00
-201,56	141,00
-194,25	218,00
-186,94	207,00
-179,65	123,00
-172,36	149,00
-165,08	122,00
-157,81	228,00
-150,55	280,00
-143,30	372,00
-136,06	414,00
-128,82	516,00
-121,60	415,00
-114,38	415,00
-107,17	609,00
-99,97	570,00
-92,78	564,00
-85,60	799,00
-78,42	894,00
-71,25	905,00
-64,10	1192,00
-56,95	1175,00
-49,81	1618,00
-42,67	1934,00
-35,55	2456,00
-28,43	3177,00
-21,33	5340,00
-14,23	18526,00
-7,14	55238,00
-0,05	54948,00
7,02	54664,00
14,09	54888,00
21,14	15538,00
28,19	6418,00
35,23	4075,00
42,27	3201,00
49,29	2589,00
56,31	2106,00
63,32	1849,00
70,32	1494,00
77,31	1193,00
84,29	1142,00
91,27	957,00
98,23	948,00
105,19	777,00
112,14	860,00
119,09	1339,00
126,02	2032,00
132,95	2042,00
139,87	2086,00
146,78	2055,00
153,68	2078,00
160,58	1909,00
167,46	1744,00
174,34	2011,00
181,21	1830,00
188,08	1903,00
194,93	1783,00
201,78	1728,00
208,62	1626,00
215,45	1737,00
222,27	1884,00
229,09	1741,00
235,90	1742,00
242,70	1726,00
249,49	1677,00
256,27	1783,00
263,05	1645,00
269,82	1661,00
276,58	1654,00
283,33	1629,00
290,08	1754,00
296,82	1648,00
303,55	1500,00
310,27	1608,00
316,98	1522,00
323,69	1449,00
330,39	1566,00
337,08	1575,00
343,76	1602,00
350,44	1416,00
357,11	1508,00
363,77	1486,00
370,42	1376,00
377,07	1425,00
383,71	1479,00
390,34	1515,00
396,96	1564,00
403,58	1583,00
410,19	1372,00
416,79	1528,00
423,38	1529,00
429,97	1440,00
436,55	1267,00
443,12	1288,00
449,68	1278,00
456,24	1453,00
462,79	1333,00
469,33	1354,00
475,86	1359,00
482,39	1258,00
488,91	1205,00
495,42	1140,00
501,93	1207,00
508,42	1253,00
514,91	1155,00
521,40	1295,00
527,87	1267,00
534,34	1224,00
540,80	1317,00
547,25	1204,00
553,70	1210,00
560,14	1129,00
566,57	1164,00
573,00	1145,00
579,41	1220,00
585,83	1185,00
592,23	1189,00
598,62	1149,00
605,01	1119,00
611,40	1116,00
617,77	1031,00
624,14	1204,00
630,50	1129,00
636,85	1180,00
643,20	1173,00
649,54	1070,00
655,87	996,00
662,20	981,00
668,52	1073,00
674,83	1075,00
681,13	1003,00
687,43	980,00
693,72	970,00
700,00	1038,00
706,28	1050,00
712,55	1026,00
718,81	1060,00
725,07	1021,00
731,32	976,00
737,56	1022,00
743,79	1043,00
750,02	1129,00
756,24	927,00
762,46	957,00
768,67	975,00
774,87	1051,00
781,06	1103,00
787,25	1036,00
793,43	978,00
799,60	979,00
805,77	915,00
811,93	1054,00
818,08	969,00
824,23	1102,00
830,37	973,00
836,50	1102,00
842,63	945,00
848,75	1086,00
854,87	930,00
860,97	1042,00
867,07	1068,00
873,17	969,00
879,25	1101,00
885,33	865,00
891,41	987,00
897,47	917,00
903,53	877,00
909,59	960,00
915,63	991,00
921,67	978,00
927,71	757,00
933,74	949,00
939,76	866,00
945,77	882,00
951,78	832,00
957,78	792,00
963,78	922,00
969,77	892,00
975,75	861,00
981,72	890,00
987,69	891,00
993,66	802,00
999,61	943,00
1005,56	918,00
1011,51	826,00
1017,44	932,00
1023,37	879,00
1029,30	966,00
1035,22	910,00
1041,13	1036,00
1047,03	1050,00
1052,93	1006,00
1058,83	1273,00
1064,71	1316,00
1070,59	1114,00
1076,47	946,00
1082,33	940,00
1088,20	929,00
1094,05	885,00
1099,90	853,00
1105,74	821,00
1111,58	911,00
1117,41	991,00
1123,23	1036,00
1129,05	1167,00
1134,86	1056,00
1140,67	1130,00
1146,47	940,00
1152,26	897,00
1158,05	719,00
1163,83	872,00
1169,60	872,00
1175,37	801,00
1181,13	897,00
1186,89	864,00
1192,64	726,00
1198,38	804,00
1204,12	832,00
1209,85	864,00
1215,58	857,00
1221,30	686,00
1227,02	772,00
1232,72	874,00
1238,43	788,00
1244,12	777,00
1249,81	858,00
1255,50	631,00
1261,17	750,00
1266,85	889,00
1272,51	799,00
1278,17	936,00
1283,83	1015,00
1289,47	1247,00
1295,12	1435,00
1300,75	1330,00
1306,38	1238,00
1312,01	1060,00
1317,63	1024,00
1323,24	961,00
1328,85	842,00
1334,45	936,00
1340,04	787,00
1345,63	894,00
1351,22	902,00
1356,80	881,00
1362,37	934,00
1367,93	983,00
1373,49	865,00
1379,05	844,00
1384,60	924,00
1390,14	883,00
1395,68	918,00
1401,21	870,00
1406,74	894,00
1412,26	933,00
1417,77	975,00
1423,28	1023,00
1428,78	1163,00
1434,28	1439,00
1439,77	1297,00
1445,26	1365,00
1450,74	1285,00
1456,22	1435,00
1461,68	1228,00
1467,15	1215,00
1472,61	1081,00
1478,06	1047,00
1483,51	843,00
1488,95	866,00
1494,38	848,00
1499,81	711,00
1505,24	940,00
1510,65	793,00
1516,07	750,00
1521,48	799,00
1526,88	651,00
1532,27	844,00
1537,67	702,00
1543,05	759,00
1548,43	740,00
1553,81	733,00
1559,18	701,00
1564,54	814,00
1569,90	711,00
1575,25	730,00
1580,60	693,00
1585,94	676,00
1591,28	781,00
1596,61	797,00
1601,93	660,00
1607,25	764,00
1612,57	625,00
1617,88	657,00
1623,18	623,00
1628,48	676,00
1633,77	680,00
1639,06	695,00
1644,34	656,00
1649,62	644,00
1654,89	634,00
1660,16	629,00
1665,42	534,00
1670,67	616,00
1675,92	610,00
1681,17	570,00
1686,41	570,00
1691,64	730,00
1696,87	537,00
1702,10	560,00
1707,32	515,00
1712,53	599,00
1717,74	609,00
1722,94	496,00
1728,14	573,00
1733,33	542,00
1738,52	557,00
1743,70	665,00
1748,88	504,00
1754,05	573,00
1759,22	560,00
1764,38	693,00
1769,53	514,00
1774,69	467,00
1779,83	441,00
1784,97	533,00
1790,11	547,00
1795,24	565,00
1800,36	465,00
1805,48	371,00
1810,60	491,00
1815,71	475,00
1820,82	444,00
1825,92	421,00
1831,01	414,00
1836,10	580,00
1841,19	456,00
1846,26	470,00
1851,34	459,00
1856,41	488,00
1861,47	447,00
1866,53	563,00
1871,59	458,00
1876,64	476,00
1881,68	479,00
1886,72	316,00
1891,76	558,00
1896,79	477,00
1901,81	392,00
1906,83	514,00
1911,85	479,00
1916,86	444,00
1921,86	390,00
1926,86	390,00
1931,86	468,00
1936,85	412,00
1941,83	494,00
1946,81	380,00
1951,79	359,00
1956,76	364,00
1961,72	387,00
1966,68	410,00
1971,64	423,00
1976,59	452,00
1981,54	392,00
1986,48	519,00
1991,42	392,00
1996,35	427,00
2001,27	400,00
2006,20	350,00
2011,11	411,00
2016,03	440,00
2020,93	310,00
2025,84	293,00
2030,73	420,00
2035,63	314,00
2040,52	345,00
2045,40	388,00
2050,28	326,00
2055,15	337,00
2060,02	357,00
2064,89	351,00
2069,75	294,00
2074,60	374,00
2079,46	473,00
2084,30	362,00
2089,14	212,00
2093,98	433,00
2098,81	358,00
2103,64	329,00
2108,46	377,00
2113,28	321,00
2118,09	347,00
2122,90	332,00
2127,70	296,00
2132,50	378,00
2137,30	343,00
2142,09	333,00
2146,87	402,00
2151,66	379,00
2156,43	420,00
2161,20	370,00
2165,97	319,00
2170,73	340,00
2175,49	453,00
2180,24	301,00
2184,99	371,00
2189,74	458,00
2194,48	226,00
2199,21	300,00
2203,94	342,00
2208,67	390,00
2213,39	360,00
2218,11	366,00
2222,82	243,00
2227,53	268,00
2232,23	246,00
2236,93	165,00
2241,63	287,00
2246,32	344,00
2251,00	275,00
2255,68	249,00
2260,36	331,00
2265,03	294,00
2269,70	199,00
2274,36	291,00
2279,02	236,00
2283,68	264,00
2288,33	250,00
2292,97	434,00
2297,61	166,00
2302,25	407,00
2306,88	309,00
2311,51	221,00
2316,14	342,00
2320,75	130,00
2325,37	158,00
2329,98	227,00
2334,59	252,00
2339,19	163,00
2343,79	196,00
2348,38	228,00
2352,97	185,00
2357,55	296,00
2362,13	292,00
2366,71	262,00
2371,28	293,00
2375,85	271,00
2380,41	259,00
2384,97	242,00
2389,52	148,00
2394,07	218,00
2398,62	156,00
2403,16	324,00
2407,70	151,00
2412,23	267,00
2416,76	251,00
2421,29	261,00
2425,81	308,00
2430,32	239,00
2434,84	186,00
2439,34	216,00
2443,85	222,00
2448,35	291,00
2452,84	151,00
2457,33	286,00
2461,82	296,00
2466,30	137,00
2470,78	318,00
2475,25	149,00
2479,72	160,00
2484,19	125,00
2488,65	259,00
2493,11	229,00
2497,56	225,00
2502,01	114,00
2506,46	96,00
2510,90	197,00
2515,34	162,00
2519,77	187,00
2524,20	174,00
2528,62	183,00
2533,04	147,00
2537,46	206,00
2541,87	147,00
2546,28	195,00
2550,68	247,00
2555,08	239,00
2559,48	83,00
2563,87	255,00
2568,26	180,00
2572,64	260,00
2577,02	125,00
2581,40	155,00
2585,77	260,00
2590,14	159,00
2594,50	280,00
2598,86	228,00
2603,22	189,00
2607,57	154,00
2611,92	194,00
2616,26	252,00
2620,60	249,00
2624,94	242,00
2629,27	154,00
2633,60	197,00
2637,92	296,00
2642,24	243,00
2646,56	262,00
2650,87	248,00
2655,18	232,00
2659,48	208,00
2663,78	170,00
2668,08	200,00
2672,37	220,00
2676,66	182,00
2680,95	223,00
2685,23	264,00
2689,50	48,00
2693,78	242,00
2698,05	136,00
2702,31	241,00
2706,57	267,00
2710,83	232,00
2715,08	235,00
2719,33	220,00
2723,58	240,00
2727,82	265,00
2732,06	273,00
2736,29	281,00
2740,53	166,00
2744,75	195,00
2748,97	222,00
2753,19	245,00
2757,41	281,00
2761,62	69,00
2765,83	263,00
2770,03	189,00
2774,23	247,00
2778,43	159,00
2782,62	298,00
2786,81	228,00
2791,00	253,00
2795,18	240,00
2799,35	273,00
2803,53	240,00
2807,70	253,00
2811,86	333,00
2816,03	206,00
2820,19	406,00
2824,34	274,00
2828,49	424,00
2832,64	444,00
2836,78	575,00
2840,92	616,00
2845,06	744,00
2849,19	861,00
2853,32	927,00
2857,45	1034,00
2861,57	970,00
2865,69	871,00
2869,80	923,00
2873,91	932,00
2878,02	1090,00
2882,12	924,00
2886,22	994,00
2890,32	992,00
2894,41	912,00
2898,50	833,00
2902,58	786,00
2906,67	810,00
2910,74	694,00
2914,82	646,00
2918,89	765,00
2922,96	613,00
2927,02	449,00
2931,08	489,00
2935,13	506,00
2939,19	505,00
2943,24	345,00
2947,28	278,00
2951,32	377,00
2955,36	453,00
2959,40	135,00
2963,43	254,00
2967,46	215,00
2971,48	289,00
2975,50	319,00
2979,52	309,00
2983,53	207,00
2987,54	47,00
2991,55	242,00
2995,55	133,00
2999,55	107,00
3003,54	235,00
3007,54	224,00
3011,53	213,00
3015,51	115,00
3019,49	235,00
3023,47	101,00
3027,45	-22,00
3031,42	127,00
3035,39	182,00
3039,35	187,00
3043,31	4,00
3047,27	101,00
3051,22	27,00
3055,17	157,00
3059,12	93,00
3063,06	192,00
3067,00	93,00
3070,94	63,00
3074,87	181,00
3078,80	52,00
3082,73	105,00
3086,65	90,00
3090,57	153,00
3094,49	93,00
3098,40	60,00
3102,31	176,00
3106,22	171,00
3110,12	-56,00
3114,02	95,00
3117,92	81,00
3121,81	162,00
3125,70	64,00
3129,58	78,00
3133,47	87,00
3137,34	146,00
3141,22	52,00
3145,09	90,00
3148,96	45,00
3152,83	44,00
3156,69	129,00
3160,55	168,00
3164,40	111,00
3168,26	138,00
3172,10	77,00
3175,95	11,00
3179,79	40,00
3183,63	68,00
3187,47	153,00
3191,30	94,00
3195,13	-2,00
3198,95	112,00
3202,78	159,00
3206,60	50,00
3210,41	50,00
3214,23	84,00
3218,03	104,00
3221,84	89,00
3225,64	120,00
3229,44	194,00
3233,24	203,00
3237,03	162,00
3240,82	-13,00
3244,61	171,00
3248,39	155,00
3252,17	45,00
3255,95	63,00
3259,72	89,00
3263,49	-63,00
3267,26	141,00
3271,03	33,00
3274,79	102,00
3278,54	22,00
3282,30	120,00
3286,05	126,00
3289,80	69,00
3293,54	62,00
3297,29	-2,00
3301,02	83,00
3304,76	49,00
3308,49	147,00
3312,22	192,00
3315,95	49,00
3319,67	101,00
3323,39	37,00
3327,10	249,00
3330,82	26,00
3334,53	89,00
3338,24	82,00
3341,94	-37,00
3345,64	226,00
3349,34	174,00
3353,03	69,00
3356,72	-13,00
3360,41	121,00
3364,10	140,00
3367,78	86,00
3371,46	36,00
3375,13	106,00
3378,81	150,00
3382,48	43,00
3386,14	-33,00
3389,81	-31,00
3393,47	13,00
3397,12	34,00
3400,78	-111,00
3404,43	133,00
3408,08	131,00
3411,72	150,00
3415,36	22,00
3419,00	88,00
3422,64	74,00
3426,27	57,00
3429,90	18,00
3433,53	74,00
3437,15	-1,00
3440,77	84,00
3444,39	-70,00
3448,00	120,00
3451,62	95,00
3455,22	110,00
3458,83	30,00
3462,43	149,00
3466,03	-59,00
3469,63	65,00
3473,22	-2,00
3476,81	97,00
3480,40	81,00
3483,99	147,00
3487,57	90,00
3491,15	55,00
3494,72	62,00
3498,29	86,00
3501,86	-19,00
3505,43	68,00
3508,99	-23,00
3512,56	103,00
3516,11	66,00
3519,67	95,00
3523,22	-15,00
3526,77	143,00
3530,32	142,00
3533,86	-13,00
3537,40	49,00
3540,94	3,00
3544,47	34,00
3548,00	78,00
3551,53	38,00
3555,06	-7,00
3558,58	56,00
3562,10	12,00
3565,62	62,00
3569,13	152,00
3572,64	-47,00
3576,15	101,00
3579,66	87,00
3583,16	103,00
3586,66	106,00
3590,16	86,00
3593,65	-6,00
3597,14	-45,00
3600,63	124,00
3604,11	33,00
3607,60	-4,00
3611,08	-56,00
3614,55	13,00
3618,03	79,00
3621,50	-33,00
3624,97	-22,00
3628,43	144,00
3631,90	67,00
3635,36	83,00
3638,81	101,00
3642,27	-28,00
3645,72	80,00
3649,17	111,00
3652,61	-71,00
3656,06	89,00
3659,50	94,00
3662,93	-147,00
3666,37	-43,00
3669,80	-9,00
3673,23	-37,00
3676,65	3,00
3680,08	-24,00
3683,50	10,00
3686,92	47,00
3690,33	173,00
3693,74	74,00
3697,15	61,00
3700,56	96,00
3703,96	-30,00
3707,36	18,00
3710,76	93,00
3714,16	51,00
3717,55	-3,00
3720,94	54,00
3724,33	156,00
3727,71	-65,00
3731,10	124,00
3734,48	10,00
3737,85	-11,00
3741,23	112,00
3744,60	28,00
3747,97	-25,00
3751,33	82,00
3754,69	20,00
3758,05	55,00
3761,41	12,00
3764,77	20,00
3768,12	113,00
3771,47	9,00
3774,82	-18,00
3778,16	1,00
3781,50	-3,00
3784,84	-5,00
3788,18	-5,00
>>>>>End Processed Spectral Data<<<<<
