SpectraSuite Data File
++++++++++++++++++++++++++++++++++++
Date: Mon Mar 09 16:16:12 ICT 2026
User: Administrator
Dark Spectrum Present: Yes
Reference Spectrum Present: No
Number of Sampled Component Spectra: 1
Spectrometers: MAYP113682
Integration Time (usec): 3000000 (MAYP113682)
Spectra Averaged: 1 (MAYP113682)
Boxcar Smoothing: 0 (MAYP113682)
Correct for Electrical Dark: No (MAYP113682)
Strobe/Lamp Enabled: No (MAYP113682)
Correct for Detector Non-linearity: No (MAYP113682)
Correct for Stray Light: No (MAYP113682)
Number of Pixels in Processed Spectrum: 2068
>>>>>Begin Processed Spectral Data<<<<<
-37534,58	-6,00
-37414,56	6,00
-37295,11	0,00
-37176,24	-4,00
-37057,95	-41,00
-36940,22	84,00
-36823,05	44,00
-36706,45	17,00
-36590,40	-50,00
-36474,90	17,00
-36359,95	18,00
-36245,55	72,00
-36131,68	38,00
-36018,35	3,00
-35905,55	71,00
-35793,29	-36,00
-35681,54	22,00
-35570,32	86,00
-35459,62	-21,00
-35349,43	2,00
-35239,75	-11,00
-35130,58	36,00
-35021,91	-48,00
-34913,74	50,00
-34806,07	4,00
-34698,89	-20,00
-34592,20	2,00
-34486,00	20,00
-34380,28	64,00
-34275,04	50,00
-34170,27	-41,00
-34065,98	-30,00
-33962,16	-51,00
-33858,81	65,00
-33755,92	177,00
-33653,49	70,00
-33551,52	55,00
-33450,01	173,00
-33348,94	-29,00
-33248,33	-72,00
-33148,16	-80,00
-33048,43	60,00
-32949,14	1,00
-32850,29	46,00
-32751,87	100,00
-32653,89	49,00
-32556,33	58,00
-32459,20	123,00
-32362,49	162,00
-32266,19	-13,00
-32170,32	-41,00
-32074,86	-5,00
-31979,82	-107,00
-31885,18	45,00
-31790,95	98,00
-31697,12	-39,00
-31603,69	109,00
-31510,67	37,00
-31418,04	-1,00
-31325,80	49,00
-31233,95	31,00
-31142,49	96,00
-31051,42	133,00
-30960,73	-22,00
-30870,43	112,00
-30780,50	-9,00
-30690,95	-12,00
-30601,77	4,00
-30512,97	193,00
-30424,53	10,00
-30336,46	-19,00
-30248,76	-54,00
-30161,42	86,00
-30074,44	6,00
-29987,81	127,00
-29901,55	-7,00
-29815,63	5,00
-29730,07	25,00
-29644,86	96,00
-29560,00	-102,00
-29475,48	163,00
-29391,30	75,00
-29307,47	9,00
-29223,97	-37,00
-29140,81	11,00
-29057,99	35,00
-28975,50	44,00
-28893,34	176,00
-28811,51	38,00
-28730,00	60,00
-28648,82	6,00
-28567,97	-2,00
-28487,43	-14,00
-28407,21	-21,00
-28327,32	76,00
-28247,73	19,00
-28168,46	-24,00
-28089,50	31,00
-28010,85	-122,00
-27932,51	89,00
-27854,48	101,00
-27776,75	-8,00
-27699,32	111,00
-27622,19	63,00
-27545,37	24,00
-27468,84	50,00
-27392,60	-65,00
-27316,66	-45,00
-27241,01	101,00
-27165,66	48,00
-27090,59	-14,00
-27015,81	98,00
-26941,31	47,00
-26867,10	10,00
-26793,17	-46,00
-26719,52	-2,00
-26646,15	20,00
-26573,06	42,00
-26500,24	68,00
-26427,70	60,00
-26355,43	2,00
-26283,43	-3,00
-26211,71	41,00
-26140,25	75,00
-26069,06	62,00
-25998,13	80,00
-25927,46	-9,00
-25857,06	31,00
-25786,92	68,00
-25717,04	133,00
-25647,42	134,00
-25578,05	62,00
-25508,94	111,00
-25440,09	-66,00
-25371,48	61,00
-25303,13	21,00
-25235,02	-6,00
-25167,17	27,00
-25099,56	15,00
-25032,19	102,00
-24965,07	11,00
-24898,20	68,00
-24831,56	-13,00
-24765,17	90,00
-24699,01	139,00
-24633,10	-16,00
-24567,41	57,00
-24501,97	72,00
-24436,75	-155,00
-24371,77	44,00
-24307,03	-6,00
-24242,51	96,00
-24178,22	-45,00
-24114,16	98,00
-24050,32	-15,00
-23986,71	50,00
-23923,32	65,00
-23860,16	89,00
-23797,22	100,00
-23734,50	-59,00
-23672,00	-39,00
-23609,71	81,00
-23547,65	-8,00
-23485,80	-12,00
-23424,16	-30,00
-23362,74	17,00
-23301,53	-48,00
-23240,54	-67,00
-23179,75	101,00
-23119,17	-47,00
-23058,80	68,00
-22998,64	-10,00
-22938,68	59,00
-22878,93	96,00
-22819,39	122,00
-22760,04	-7,00
-22700,90	-9,00
-22641,96	83,00
-22583,22	65,00
-22524,68	19,00
-22466,33	145,00
-22408,19	41,00
-22350,23	3,00
-22292,48	105,00
-22234,92	25,00
-22177,55	-22,00
-22120,37	90,00
-22063,38	105,00
-22006,58	19,00
-21949,98	75,00
-21893,56	66,00
-21837,33	-164,00
-21781,28	28,00
-21725,42	42,00
-21669,74	3,00
-21614,25	112,00
-21558,94	-48,00
-21503,81	-7,00
-21448,86	-6,00
-21394,10	62,00
-21339,51	58,00
-21285,10	54,00
-21230,86	60,00
-21176,81	13,00
-21122,93	17,00
-21069,22	8,00
-21015,69	56,00
-20962,33	90,00
-20909,14	68,00
-20856,13	-6,00
-20803,28	-19,00
-20750,61	53,00
-20698,10	16,00
-20645,76	133,00
-20593,59	23,00
-20541,59	104,00
-20489,75	67,00
-20438,07	108,00
-20386,56	16,00
-20335,22	88,00
-20284,03	-25,00
-20233,01	-7,00
-20182,15	-39,00
-20131,45	-25,00
-20080,91	101,00
-20030,52	2,00
-19980,30	-11,00
-19930,23	12,00
-19880,32	26,00
-19830,56	-94,00
-19780,96	31,00
-19731,52	34,00
-19682,23	87,00
-19633,09	28,00
-19584,10	-38,00
-19535,26	71,00
-19486,58	53,00
-19438,04	35,00
-19389,66	-7,00
-19341,42	7,00
-19293,33	29,00
-19245,39	100,00
-19197,60	165,00
-19149,95	20,00
-19102,45	155,00
-19055,09	45,00
-19007,87	54,00
-18960,80	159,00
-18913,87	12,00
-18867,09	0,00
-18820,44	73,00
-18773,94	-24,00
-18727,57	-5,00
-18681,35	132,00
-18635,26	32,00
-18589,31	32,00
-18543,50	-25,00
-18497,83	-69,00
-18452,29	40,00
-18406,89	-35,00
-18361,63	209,00
-18316,50	2,00
-18271,50	107,00
-18226,63	-30,00
-18181,90	21,00
-18137,30	168,00
-18092,84	-37,00
-18048,50	15,00
-18004,29	46,00
-17960,22	82,00
-17916,27	171,00
-17872,45	49,00
-17828,76	33,00
-17785,20	27,00
-17741,77	32,00
-17698,46	73,00
-17655,28	41,00
-17612,22	66,00
-17569,29	112,00
-17526,48	-23,00
-17483,79	135,00
-17441,23	13,00
-17398,79	-10,00
-17356,48	144,00
-17314,28	48,00
-17272,21	73,00
-17230,26	38,00
-17188,42	35,00
-17146,71	48,00
-17105,12	43,00
-17063,64	6,00
-17022,28	184,00
-16981,04	80,00
-16939,92	74,00
-16898,91	41,00
-16858,02	40,00
-16817,25	26,00
-16776,59	41,00
-16736,04	35,00
-16695,61	-99,00
-16655,29	-12,00
-16615,09	85,00
-16574,99	138,00
-16535,01	61,00
-16495,15	88,00
-16455,39	67,00
-16415,74	-7,00
-16376,21	33,00
-16336,78	33,00
-16297,46	49,00
-16258,26	22,00
-16219,16	31,00
-16180,17	179,00
-16141,28	31,00
-16102,51	-19,00
-16063,84	-15,00
-16025,27	16,00
-15986,82	116,00
-15948,46	28,00
-15910,22	-10,00
-15872,07	50,00
-15834,04	81,00
-15796,10	-1,00
-15758,27	126,00
-15720,54	57,00
-15682,91	67,00
-15645,39	93,00
-15607,97	-23,00
-15570,64	6,00
-15533,42	-33,00
-15496,30	96,00
-15459,28	95,00
-15422,36	77,00
-15385,54	-118,00
-15348,82	39,00
-15312,19	-25,00
-15275,66	-16,00
-15239,23	181,00
-15202,90	0,00
-15166,67	-26,00
-15130,53	78,00
-15094,48	38,00
-15058,54	15,00
-15022,68	35,00
-14986,93	36,00
-14951,26	-37,00
-14915,69	43,00
-14880,22	79,00
-14844,84	-70,00
-14809,55	47,00
-14774,35	113,00
-14739,25	-11,00
-14704,24	30,00
-14669,32	-80,00
-14634,49	131,00
-14599,75	23,00
-14565,10	48,00
-14530,55	-61,00
-14496,08	113,00
-14461,70	-18,00
-14427,41	48,00
-14393,21	-1,00
-14359,10	0,00
-14325,07	-10,00
-14291,14	-25,00
-14257,29	-29,00
-14223,52	102,00
-14189,85	4,00
-14156,26	56,00
-14122,76	85,00
-14089,34	98,00
-14056,01	123,00
-14022,76	41,00
-13989,60	-94,00
-13956,52	4,00
-13923,53	-91,00
-13890,62	50,00
-13857,79	-74,00
-13825,05	21,00
-13792,39	-53,00
-13759,81	33,00
-13727,31	-35,00
-13694,90	-6,00
-13662,57	-23,00
-13630,31	30,00
-13598,14	-92,00
-13566,05	-17,00
-13534,05	105,00
-13502,12	-43,00
-13470,27	101,00
-13438,50	90,00
-13406,80	-4,00
-13375,19	106,00
-13343,66	-104,00
-13312,20	8,00
-13280,83	-20,00
-13249,53	-26,00
-13218,30	35,00
-13187,16	50,00
-13156,09	-22,00
-13125,10	127,00
-13094,18	102,00
-13063,34	-28,00
-13032,58	34,00
-13001,89	-16,00
-12971,28	-68,00
-12940,74	9,00
-12910,27	33,00
-12879,88	-15,00
-12849,57	64,00
-12819,33	54,00
-12789,16	58,00
-12759,06	-11,00
-12729,04	79,00
-12699,09	202,00
-12669,21	23,00
-12639,41	-18,00
-12609,68	116,00
-12580,02	68,00
-12550,43	-35,00
-12520,91	25,00
-12491,46	49,00
-12462,08	37,00
-12432,77	-85,00
-12403,54	-17,00
-12374,37	137,00
-12345,27	-13,00
-12316,24	11,00
-12287,29	84,00
-12258,40	114,00
-12229,57	106,00
-12200,82	42,00
-12172,14	54,00
-12143,52	43,00
-12114,97	111,00
-12086,49	89,00
-12058,07	-33,00
-12029,73	38,00
-12001,44	7,00
-11973,23	85,00
-11945,08	4,00
-11917,00	178,00
-11888,98	49,00
-11861,03	62,00
-11833,15	-31,00
-11805,32	112,00
-11777,57	31,00
-11749,88	20,00
-11722,25	-53,00
-11694,69	72,00
-11667,19	98,00
-11639,75	13,00
-11612,38	28,00
-11585,07	-20,00
-11557,83	46,00
-11530,65	4,00
-11503,53	23,00
-11476,47	37,00
-11449,48	116,00
-11422,54	-1,00
-11395,67	-113,00
-11368,86	14,00
-11342,11	-10,00
-11315,43	-33,00
-11288,80	-7,00
-11262,23	111,00
-11235,73	-7,00
-11209,28	36,00
-11182,90	153,00
-11156,57	79,00
-11130,31	51,00
-11104,10	-113,00
-11077,96	-14,00
-11051,87	50,00
-11025,84	55,00
-10999,87	29,00
-10973,96	45,00
-10948,11	29,00
-10922,31	36,00
-10896,58	-20,00
-10870,90	27,00
-10845,28	37,00
-10819,71	54,00
-10794,20	5,00
-10768,75	94,00
-10743,36	23,00
-10718,02	-70,00
-10692,74	59,00
-10667,52	143,00
-10642,35	10,00
-10617,24	-15,00
-10592,18	65,00
-10567,18	91,00
-10542,23	100,00
-10517,34	133,00
-10492,51	0,00
-10467,72	37,00
-10443,00	150,00
-10418,32	31,00
-10393,70	-100,00
-10369,14	93,00
-10344,63	-60,00
-10320,17	136,00
-10295,77	124,00
-10271,42	3,00
-10247,12	21,00
-10222,88	-102,00
-10198,68	97,00
-10174,54	93,00
-10150,46	-45,00
-10126,42	62,00
-10102,44	-42,00
-10078,51	35,00
-10054,63	15,00
-10030,80	50,00
-10007,03	51,00
-9983,30	-45,00
-9959,63	-15,00
-9936,01	160,00
-9912,44	-13,00
-9888,92	21,00
-9865,44	-83,00
-9842,02	-116,00
-9818,65	44,00
-9795,33	-71,00
-9772,06	-33,00
-9748,84	-94,00
-9725,67	-98,00
-9702,55	-143,00
-9679,47	-66,00
-9656,45	-134,00
-9633,47	-48,00
-9610,55	-48,00
-9587,67	-174,00
-9564,84	-119,00
-9542,06	-164,00
-9519,32	-81,00
-9496,64	-114,00
-9474,00	-144,00
-9451,41	-183,00
-9428,87	-221,00
-9406,37	-329,00
-9383,92	-306,00
-9361,52	-392,00
-9339,17	-578,00
-9316,86	-377,00
-9294,60	-199,00
-9272,38	-275,00
-9250,21	-388,00
-9228,09	-337,00
-9206,01	-576,00
-9183,98	-376,00
-9162,00	-421,00
-9140,06	-536,00
-9118,16	-450,00
-9096,31	-453,00
-9074,51	-382,00
-9052,75	-336,00
-9031,04	-260,00
-9009,37	-292,00
-8987,74	-389,00
-8966,16	-437,00
-8944,63	-473,00
-8923,14	-478,00
-8901,69	-299,00
-8880,29	-229,00
-8858,93	-218,00
-8837,61	-133,00
-8816,34	16,00
-8795,11	-74,00
-8773,92	-176,00
-8752,78	-277,00
-8731,68	-55,00
-8710,62	-213,00
-8689,61	-78,00
-8668,63	-189,00
-8647,70	-113,00
-8626,82	-120,00
-8605,97	-134,00
-8585,17	-74,00
-8564,41	-129,00
-8543,69	-302,00
-8523,01	-260,00
-8502,37	-246,00
-8481,78	-135,00
-8461,23	-132,00
-8440,71	-121,00
-8420,24	-113,00
-8399,81	-15,00
-8379,42	76,00
-8359,08	-182,00
-8338,77	-34,00
-8318,50	-57,00
-8298,27	-38,00
-8278,09	-46,00
-8257,94	-114,00
-8237,83	-6,00
-8217,76	83,00
-8197,74	37,00
-8177,75	12,00
-8157,80	79,00
-8137,89	42,00
-8118,02	158,00
-8098,19	-49,00
-8078,40	89,00
-8058,65	64,00
-8038,93	124,00
-8019,26	111,00
-7999,62	21,00
-7980,02	-20,00
-7960,46	42,00
-7940,94	-6,00
-7921,46	-70,00
-7902,01	-30,00
-7882,60	51,00
-7863,23	110,00
-7843,90	-25,00
-7824,61	73,00
-7805,35	92,00
-7786,13	189,00
-7766,95	84,00
-7747,80	85,00
-7728,69	277,00
-7709,62	55,00
-7690,59	137,00
-7671,59	164,00
-7652,63	125,00
-7633,70	156,00
-7614,81	59,00
-7595,96	124,00
-7577,15	143,00
-7558,37	101,00
-7539,62	-3,00
-7520,91	149,00
-7502,24	-67,00
-7483,60	217,00
-7465,00	163,00
-7446,44	61,00
-7427,91	42,00
-7409,41	11,00
-7390,95	-115,00
-7372,53	-84,00
-7354,14	-187,00
-7335,78	-179,00
-7317,46	62,00
-7299,18	27,00
-7280,92	112,00
-7262,71	58,00
-7244,52	208,00
-7226,38	170,00
-7208,26	113,00
-7190,18	132,00
-7172,14	1,00
-7154,12	-25,00
-7136,15	37,00
-7118,20	87,00
-7100,29	49,00
-7082,41	-38,00
-7064,57	17,00
-7046,76	-34,00
-7028,98	-185,00
-7011,24	1,00
-6993,53	-224,00
-6975,85	-235,00
-6958,20	-208,00
-6940,59	-157,00
-6923,01	-146,00
-6905,46	-138,00
-6887,94	-49,00
-6870,46	-69,00
-6853,01	18,00
-6835,59	19,00
-6818,21	15,00
-6800,85	-6,00
-6783,53	-181,00
-6766,24	-344,00
-6748,98	-322,00
-6731,76	-234,00
-6714,56	-271,00
-6697,40	-169,00
-6680,26	-135,00
-6663,16	-74,00
-6646,09	-139,00
-6629,05	-68,00
-6612,05	-105,00
-6595,07	-55,00
-6578,13	-107,00
-6561,21	-88,00
-6544,33	-168,00
-6527,47	-178,00
-6510,65	-381,00
-6493,86	-280,00
-6477,10	-299,00
-6460,36	-205,00
-6443,66	-178,00
-6426,99	-213,00
-6410,35	-67,00
-6393,74	-63,00
-6377,16	-72,00
-6360,61	-196,00
-6344,09	-198,00
-6327,59	-273,00
-6311,13	-165,00
-6294,70	-172,00
-6278,29	132,00
-6261,92	30,00
-6245,58	24,00
-6229,26	42,00
-6212,97	0,00
-6196,72	-150,00
-6180,49	-262,00
-6164,29	-153,00
-6148,12	-120,00
-6131,98	-225,00
-6115,86	-171,00
-6099,78	-304,00
-6083,72	-292,00
-6067,69	-236,00
-6051,69	-212,00
-6035,72	-126,00
-6019,78	-123,00
-6003,87	-137,00
-5987,98	5,00
-5972,12	-23,00
-5956,29	-11,00
-5940,49	-7,00
-5924,71	-126,00
-5908,96	-153,00
-5893,24	-169,00
-5877,55	-114,00
-5861,89	-136,00
-5846,25	-333,00
-5830,64	-162,00
-5815,05	-267,00
-5799,50	-187,00
-5783,97	-77,00
-5768,47	4,00
-5752,99	-220,00
-5737,55	-161,00
-5722,12	15,00
-5706,73	-117,00
-5691,36	-146,00
-5676,02	-47,00
-5660,71	-89,00
-5645,42	-78,00
-5630,16	-104,00
-5614,92	-80,00
-5599,71	-149,00
-5584,53	-199,00
-5569,37	-135,00
-5554,24	-53,00
-5539,14	-15,00
-5524,06	-46,00
-5509,01	-83,00
-5493,98	-182,00
-5478,98	-205,00
-5464,00	-181,00
-5449,05	-167,00
-5434,13	-121,00
-5419,23	-217,00
-5404,36	-120,00
-5389,51	10,00
-5374,69	-30,00
-5359,89	-291,00
-5345,12	-48,00
-5330,37	86,00
-5315,65	-32,00
-5300,95	-26,00
-5286,28	-64,00
-5271,63	-120,00
-5257,01	-225,00
-5242,41	-152,00
-5227,84	-146,00
-5213,29	-239,00
-5198,76	-206,00
-5184,26	-87,00
-5169,79	-45,00
-5155,33	-124,00
-5140,91	-167,00
-5126,51	-175,00
-5112,13	-172,00
-5097,77	-45,00
-5083,44	-117,00
-5069,13	-121,00
-5054,85	-39,00
-5040,59	-28,00
-5026,36	-155,00
-5012,15	-145,00
-4997,96	-144,00
-4983,80	-201,00
-4969,66	-44,00
-4955,54	24,00
-4941,44	-61,00
-4927,37	10,00
-4913,33	92,00
-4899,30	23,00
-4885,30	8,00
-4871,33	43,00
-4857,37	7,00
-4843,44	5,00
-4829,53	-90,00
-4815,65	-131,00
-4801,79	-81,00
-4787,95	-204,00
-4774,13	-51,00
-4760,34	-58,00
-4746,56	7,00
-4732,82	-140,00
-4719,09	-52,00
-4705,38	-3,00
-4691,70	-63,00
-4678,04	-125,00
-4664,41	-86,00
-4650,79	-32,00
-4637,20	9,00
-4623,63	11,00
-4610,08	-91,00
-4596,56	-131,00
-4583,05	-91,00
-4569,57	-37,00
-4556,11	-20,00
-4542,67	-60,00
-4529,25	46,00
-4515,86	-73,00
-4502,49	108,00
-4489,13	-90,00
-4475,80	30,00
-4462,49	32,00
-4449,21	56,00
-4435,94	74,00
-4422,70	35,00
-4409,47	-67,00
-4396,27	-13,00
-4383,09	-36,00
-4369,93	-76,00
-4356,79	81,00
-4343,67	26,00
-4330,58	-57,00
-4317,50	29,00
-4304,45	6,00
-4291,41	37,00
-4278,40	-66,00
-4265,41	69,00
-4252,44	77,00
-4239,49	-14,00
-4226,55	1,00
-4213,65	27,00
-4200,76	-9,00
-4187,89	17,00
-4175,04	28,00
-4162,21	31,00
-4149,40	57,00
-4136,61	138,00
-4123,85	94,00
-4111,10	-38,00
-4098,37	-16,00
-4085,66	70,00
-4072,98	197,00
-4060,31	14,00
-4047,66	90,00
-4035,04	1,00
-4022,43	74,00
-4009,84	77,00
-3997,27	-43,00
-3984,72	78,00
-3972,19	-100,00
-3959,69	23,00
-3947,20	48,00
-3934,73	-80,00
-3922,27	61,00
-3909,84	61,00
-3897,43	155,00
-3885,04	-2,00
-3872,67	-41,00
-3860,31	-40,00
-3847,98	172,00
-3835,66	6,00
-3823,36	-46,00
-3811,09	85,00
-3798,83	-61,00
-3786,59	63,00
-3774,37	97,00
-3762,17	106,00
-3749,98	17,00
-3737,82	-27,00
-3725,67	-46,00
-3713,55	17,00
-3701,44	128,00
-3689,35	51,00
-3677,28	-41,00
-3665,22	-9,00
-3653,19	-76,00
-3641,17	10,00
-3629,18	-44,00
-3617,20	90,00
-3605,24	85,00
-3593,30	2,00
-3581,37	31,00
-3569,47	48,00
-3557,58	65,00
-3545,71	35,00
-3533,86	117,00
-3522,02	-85,00
-3510,21	163,00
-3498,41	-66,00
-3486,63	79,00
-3474,87	9,00
-3463,12	37,00
-3451,40	85,00
-3439,69	202,00
-3428,00	202,00
-3416,33	23,00
-3404,67	130,00
-3393,03	-19,00
-3381,41	63,00
-3369,81	-143,00
-3358,22	178,00
-3346,66	-54,00
-3335,10	118,00
-3323,57	82,00
-3312,06	17,00
-3300,56	-56,00
-3289,08	9,00
-3277,61	125,00
-3266,16	113,00
-3254,73	63,00
-3243,32	-38,00
-3231,92	66,00
-3220,55	-3,00
-3209,18	50,00
-3197,84	180,00
-3186,51	91,00
-3175,20	92,00
-3163,90	41,00
-3152,63	15,00
-3141,36	-34,00
-3130,12	60,00
-3118,89	-40,00
-3107,68	118,00
-3096,49	13,00
-3085,31	44,00
-3074,15	26,00
-3063,00	-82,00
-3051,87	52,00
-3040,76	71,00
-3029,67	14,00
-3018,59	-152,00
-3007,52	20,00
-2996,48	118,00
-2985,44	171,00
-2974,43	4,00
-2963,43	116,00
-2952,45	13,00
-2941,48	68,00
-2930,53	-106,00
-2919,60	-8,00
-2908,68	90,00
-2897,78	114,00
-2886,89	99,00
-2876,02	119,00
-2865,17	169,00
-2854,33	32,00
-2843,50	18,00
-2832,70	136,00
-2821,90	30,00
-2811,13	0,00
-2800,37	9,00
-2789,62	22,00
-2778,89	114,00
-2768,18	83,00
-2757,48	16,00
-2746,80	-1,00
-2736,13	-3,00
-2725,48	201,00
-2714,84	-79,00
-2704,22	-27,00
-2693,61	-109,00
-2683,02	-53,00
-2672,45	64,00
-2661,89	14,00
-2651,34	-35,00
-2640,81	15,00
-2630,30	141,00
-2619,80	89,00
-2609,31	67,00
-2598,84	-91,00
-2588,39	57,00
-2577,95	112,00
-2567,52	55,00
-2557,11	-94,00
-2546,71	44,00
-2536,33	79,00
-2525,97	-25,00
-2515,62	-93,00
-2505,28	49,00
-2494,96	3,00
-2484,65	81,00
-2474,36	257,00
-2464,08	21,00
-2453,82	9,00
-2443,57	156,00
-2433,33	42,00
-2423,11	137,00
-2412,91	69,00
-2402,72	129,00
-2392,54	151,00
-2382,38	-14,00
-2372,23	54,00
-2362,09	632,00
-2351,97	-21,00
-2341,87	15,00
-2331,78	21,00
-2321,70	-81,00
-2311,64	151,00
-2301,59	47,00
-2291,55	55,00
-2281,53	-107,00
-2271,53	-78,00
-2261,53	164,00
-2251,55	11,00
-2241,59	29,00
-2231,64	6,00
-2221,70	-45,00
-2211,78	-7,00
-2201,87	132,00
-2191,97	-5,00
-2182,09	45,00
-2172,22	82,00
-2162,37	-45,00
-2152,53	-24,00
-2142,70	17,00
-2132,89	-20,00
-2123,09	-23,00
-2113,30	47,00
-2103,53	51,00
-2093,77	-50,00
-2084,02	67,00
-2074,29	78,00
-2064,57	41,00
-2054,86	-20,00
-2045,17	83,00
-2035,49	-44,00
-2025,82	-86,00
-2016,17	-62,00
-2006,53	24,00
-1996,91	51,00
-1987,29	-14,00
-1977,69	26,00
-1968,11	-29,00
-1958,53	-2,00
-1948,97	115,00
-1939,42	57,00
-1929,89	-4,00
-1920,37	18,00
-1910,86	59,00
-1901,36	43,00
-1891,88	94,00
-1882,41	43,00
-1872,95	-34,00
-1863,51	-71,00
-1854,08	-15,00
-1844,66	101,00
-1835,26	12,00
-1825,86	81,00
-1816,48	64,00
-1807,11	49,00
-1797,76	7,00
-1788,42	70,00
-1779,09	31,00
-1769,77	32,00
-1760,47	11,00
-1751,17	-66,00
-1741,89	36,00
-1732,63	52,00
-1723,37	175,00
-1714,13	48,00
-1704,90	-53,00
-1695,68	-52,00
-1686,48	97,00
-1677,29	73,00
-1668,11	160,00
-1658,94	30,00
-1649,78	4,00
-1640,64	95,00
-1631,51	56,00
-1622,39	7,00
-1613,28	102,00
-1604,19	12,00
-1595,10	16,00
-1586,03	113,00
-1576,97	-105,00
-1567,93	79,00
-1558,89	-25,00
-1549,87	-85,00
-1540,86	-20,00
-1531,86	69,00
-1522,87	-22,00
-1513,90	155,00
-1504,93	-152,00
-1495,98	44,00
-1487,04	181,00
-1478,12	37,00
-1469,20	-19,00
-1460,30	-100,00
-1451,40	-3,00
-1442,52	101,00
-1433,65	63,00
-1424,80	101,00
-1415,95	-8,00
-1407,12	81,00
-1398,30	140,00
-1389,48	30,00
-1380,69	64,00
-1371,90	34,00
-1363,12	77,00
-1354,36	-68,00
-1345,60	82,00
-1336,86	1,00
-1328,13	63,00
-1319,41	-79,00
-1310,70	87,00
-1302,01	76,00
-1293,32	-146,00
-1284,65	43,00
-1275,99	32,00
-1267,33	-10,00
-1258,69	66,00
-1250,06	121,00
-1241,45	81,00
-1232,84	56,00
-1224,25	-8,00
-1215,66	81,00
-1207,09	19,00
-1198,53	52,00
-1189,97	110,00
-1181,43	-15,00
-1172,91	-68,00
-1164,39	64,00
-1155,88	46,00
-1147,38	32,00
-1138,90	-37,00
-1130,43	73,00
-1121,96	95,00
-1113,51	107,00
-1105,07	-1,00
-1096,64	-64,00
-1088,22	118,00
-1079,81	113,00
-1071,41	76,00
-1063,02	45,00
-1054,65	135,00
-1046,28	-7,00
-1037,92	-7,00
-1029,58	11,00
-1021,24	-10,00
-1012,92	156,00
-1004,61	3,00
-996,30	180,00
-988,01	-84,00
-979,73	35,00
-971,46	24,00
-963,20	-35,00
-954,95	19,00
-946,71	11,00
-938,48	74,00
-930,26	119,00
-922,06	17,00
-913,86	169,00
-905,67	-41,00
-897,49	-91,00
-889,33	-17,00
-881,17	-43,00
-873,02	-28,00
-864,89	90,00
-856,76	69,00
-848,65	96,00
-840,54	24,00
-832,45	-42,00
-824,36	114,00
-816,29	-73,00
-808,22	50,00
-800,17	-90,00
-792,12	22,00
-784,09	41,00
-776,06	2,00
-768,05	52,00
-760,04	-8,00
-752,05	72,00
-744,07	51,00
-736,09	23,00
-728,13	7,00
-720,17	-75,00
-712,23	41,00
-704,29	113,00
-696,37	55,00
-688,45	60,00
-680,55	30,00
-672,65	53,00
-664,77	159,00
-656,89	-34,00
-649,03	76,00
-641,17	-32,00
-633,32	-50,00
-625,49	179,00
-617,66	30,00
-609,84	0,00
-602,03	14,00
-594,23	85,00
-586,45	112,00
-578,67	18,00
-570,90	69,00
-563,14	109,00
-555,39	-59,00
-547,65	84,00
-539,91	145,00
-532,19	84,00
-524,48	-13,00
-516,78	45,00
-509,08	38,00
-501,40	27,00
-493,72	124,00
-486,06	69,00
-478,40	195,00
-470,76	113,00
-463,12	206,00
-455,49	39,00
-447,87	149,00
-440,26	31,00
-432,66	-43,00
-425,07	-76,00
-417,49	136,00
-409,92	-19,00
-402,35	132,00
-394,80	73,00
-387,25	101,00
-379,72	73,00
-372,19	74,00
-364,67	114,00
-357,17	96,00
-349,67	26,00
-342,18	55,00
-334,69	-75,00
-327,22	-56,00
-319,76	92,00
-312,30	126,00
-304,86	22,00
-297,42	29,00
-290,00	51,00
-282,58	101,00
-275,17	105,00
-267,77	15,00
-260,37	196,00
-252,99	135,00
-245,62	85,00
-238,25	106,00
-230,90	149,00
-223,55	74,00
-216,21	162,00
-208,88	162,00
-201,56	270,00
-194,25	139,00
-186,94	300,00
-179,65	105,00
-172,36	262,00
-165,08	299,00
-157,81	81,00
-150,55	218,00
-143,30	297,00
-136,06	296,00
-128,82	390,00
-121,60	409,00
-114,38	395,00
-107,17	467,00
-99,97	539,00
-92,78	473,00
-85,60	571,00
-78,42	878,00
-71,25	958,00
-64,10	1045,00
-56,95	1203,00
-49,81	1461,00
-42,67	1809,00
-35,55	2286,00
-28,43	3005,00
-21,33	4949,00
-14,23	16648,00
-7,14	55164,00
-0,05	54791,00
7,02	54542,00
14,09	54564,00
21,14	14900,00
28,19	6159,00
35,23	3845,00
42,27	2969,00
49,29	2413,00
56,31	1968,00
63,32	1784,00
70,32	1298,00
77,31	1299,00
84,29	1054,00
91,27	912,00
98,23	785,00
105,19	744,00
112,14	939,00
119,09	1200,00
126,02	1794,00
132,95	1972,00
139,87	2240,00
146,78	2037,00
153,68	1987,00
160,58	1978,00
167,46	1962,00
174,34	1991,00
181,21	2124,00
188,08	1968,00
194,93	1961,00
201,78	1888,00
208,62	1868,00
215,45	2002,00
222,27	2068,00
229,09	1952,00
235,90	1909,00
242,70	1791,00
249,49	1822,00
256,27	1866,00
263,05	1780,00
269,82	1869,00
276,58	1645,00
283,33	1696,00
290,08	1865,00
296,82	1703,00
303,55	1667,00
310,27	1536,00
316,98	1630,00
323,69	1668,00
330,39	1644,00
337,08	1603,00
343,76	1557,00
350,44	1631,00
357,11	1594,00
363,77	1590,00
370,42	1556,00
377,07	1624,00
383,71	1525,00
390,34	1516,00
396,96	1516,00
403,58	1567,00
410,19	1690,00
416,79	1565,00
423,38	1635,00
429,97	1442,00
436,55	1500,00
443,12	1579,00
449,68	1419,00
456,24	1354,00
462,79	1289,00
469,33	1316,00
475,86	1279,00
482,39	1439,00
488,91	1432,00
495,42	1387,00
501,93	1317,00
508,42	1325,00
514,91	1400,00
521,40	1379,00
527,87	1430,00
534,34	1243,00
540,80	1247,00
547,25	1204,00
553,70	1270,00
560,14	1236,00
566,57	1365,00
573,00	1201,00
579,41	1249,00
585,83	1109,00
592,23	1106,00
598,62	1228,00
605,01	1148,00
611,40	1251,00
617,77	1208,00
624,14	1180,00
630,50	1191,00
636,85	1173,00
643,20	1106,00
649,54	1099,00
655,87	1083,00
662,20	1144,00
668,52	1070,00
674,83	1170,00
681,13	989,00
687,43	976,00
693,72	937,00
700,00	1061,00
706,28	1020,00
712,55	980,00
718,81	1155,00
725,07	1035,00
731,32	1028,00
737,56	1071,00
743,79	1075,00
750,02	1124,00
756,24	1052,00
762,46	898,00
768,67	1013,00
774,87	977,00
781,06	1034,00
787,25	998,00
793,43	1056,00
799,60	975,00
805,77	892,00
811,93	1118,00
818,08	1085,00
824,23	1107,00
830,37	1012,00
836,50	1009,00
842,63	1028,00
848,75	1048,00
854,87	1059,00
860,97	1041,00
867,07	1100,00
873,17	934,00
879,25	942,00
885,33	989,00
891,41	1115,00
897,47	1025,00
903,53	973,00
909,59	1056,00
915,63	956,00
921,67	880,00
927,71	908,00
933,74	934,00
939,76	901,00
945,77	862,00
951,78	779,00
957,78	844,00
963,78	895,00
969,77	818,00
975,75	851,00
981,72	895,00
987,69	823,00
993,66	892,00
999,61	833,00
1005,56	887,00
1011,51	917,00
1017,44	848,00
1023,37	845,00
1029,30	837,00
1035,22	951,00
1041,13	971,00
1047,03	850,00
1052,93	969,00
1058,83	1215,00
1064,71	1261,00
1070,59	1227,00
1076,47	1026,00
1082,33	1100,00
1088,20	935,00
1094,05	886,00
1099,90	874,00
1105,74	986,00
1111,58	898,00
1117,41	896,00
1123,23	1173,00
1129,05	1217,00
1134,86	1099,00
1140,67	989,00
1146,47	946,00
1152,26	876,00
1158,05	791,00
1163,83	846,00
1169,60	897,00
1175,37	763,00
1181,13	816,00
1186,89	879,00
1192,64	775,00
1198,38	805,00
1204,12	740,00
1209,85	868,00
1215,58	955,00
1221,30	801,00
1227,02	852,00
1232,72	864,00
1238,43	788,00
1244,12	817,00
1249,81	789,00
1255,50	977,00
1261,17	828,00
1266,85	864,00
1272,51	902,00
1278,17	864,00
1283,83	937,00
1289,47	1294,00
1295,12	1448,00
1300,75	1284,00
1306,38	1132,00
1312,01	1167,00
1317,63	902,00
1323,24	932,00
1328,85	998,00
1334,45	1041,00
1340,04	874,00
1345,63	904,00
1351,22	913,00
1356,80	935,00
1362,37	809,00
1367,93	943,00
1373,49	999,00
1379,05	842,00
1384,60	988,00
1390,14	953,00
1395,68	910,00
1401,21	800,00
1406,74	943,00
1412,26	1032,00
1417,77	942,00
1423,28	1079,00
1428,78	1164,00
1434,28	1318,00
1439,77	1439,00
1445,26	1430,00
1450,74	1448,00
1456,22	1268,00
1461,68	1292,00
1467,15	1153,00
1472,61	1099,00
1478,06	940,00
1483,51	866,00
1488,95	926,00
1494,38	819,00
1499,81	849,00
1505,24	727,00
1510,65	797,00
1516,07	855,00
1521,48	699,00
1526,88	778,00
1532,27	655,00
1537,67	808,00
1543,05	636,00
1548,43	820,00
1553,81	806,00
1559,18	716,00
1564,54	759,00
1569,90	706,00
1575,25	735,00
1580,60	706,00
1585,94	729,00
1591,28	671,00
1596,61	708,00
1601,93	706,00
1607,25	699,00
1612,57	739,00
1617,88	633,00
1623,18	779,00
1628,48	661,00
1633,77	593,00
1639,06	551,00
1644,34	696,00
1649,62	627,00
1654,89	724,00
1660,16	620,00
1665,42	601,00
1670,67	615,00
1675,92	553,00
1681,17	659,00
1686,41	609,00
1691,64	516,00
1696,87	549,00
1702,10	546,00
1707,32	668,00
1712,53	715,00
1717,74	686,00
1722,94	547,00
1728,14	594,00
1733,33	619,00
1738,52	519,00
1743,70	641,00
1748,88	501,00
1754,05	468,00
1759,22	593,00
1764,38	559,00
1769,53	603,00
1774,69	583,00
1779,83	663,00
1784,97	570,00
1790,11	382,00
1795,24	703,00
1800,36	631,00
1805,48	470,00
1810,60	561,00
1815,71	504,00
1820,82	478,00
1825,92	472,00
1831,01	583,00
1836,10	434,00
1841,19	513,00
1846,26	600,00
1851,34	432,00
1856,41	469,00
1861,47	441,00
1866,53	545,00
1871,59	400,00
1876,64	430,00
1881,68	313,00
1886,72	414,00
1891,76	556,00
1896,79	392,00
1901,81	492,00
1906,83	370,00
1911,85	463,00
1916,86	489,00
1921,86	591,00
1926,86	525,00
1931,86	429,00
1936,85	349,00
1941,83	422,00
1946,81	420,00
1951,79	403,00
1956,76	308,00
1961,72	364,00
1966,68	424,00
1971,64	404,00
1976,59	449,00
1981,54	323,00
1986,48	358,00
1991,42	364,00
1996,35	350,00
2001,27	269,00
2006,20	404,00
2011,11	404,00
2016,03	321,00
2020,93	423,00
2025,84	368,00
2030,73	280,00
2035,63	345,00
2040,52	332,00
2045,40	390,00
2050,28	400,00
2055,15	266,00
2060,02	435,00
2064,89	349,00
2069,75	368,00
2074,60	266,00
2079,46	285,00
2084,30	416,00
2089,14	450,00
2093,98	245,00
2098,81	376,00
2103,64	362,00
2108,46	295,00
2113,28	263,00
2118,09	195,00
2122,90	293,00
2127,70	293,00
2132,50	362,00
2137,30	316,00
2142,09	310,00
2146,87	325,00
2151,66	327,00
2156,43	256,00
2161,20	212,00
2165,97	307,00
2170,73	358,00
2175,49	325,00
2180,24	353,00
2184,99	497,00
2189,74	257,00
2194,48	293,00
2199,21	280,00
2203,94	319,00
2208,67	162,00
2213,39	322,00
2218,11	161,00
2222,82	344,00
2227,53	270,00
2232,23	200,00
2236,93	182,00
2241,63	290,00
2246,32	262,00
2251,00	311,00
2255,68	266,00
2260,36	266,00
2265,03	356,00
2269,70	98,00
2274,36	193,00
2279,02	235,00
2283,68	279,00
2288,33	190,00
2292,97	321,00
2297,61	269,00
2302,25	260,00
2306,88	377,00
2311,51	239,00
2316,14	142,00
2320,75	285,00
2325,37	257,00
2329,98	245,00
2334,59	264,00
2339,19	271,00
2343,79	173,00
2348,38	333,00
2352,97	255,00
2357,55	290,00
2362,13	182,00
2366,71	293,00
2371,28	209,00
2375,85	141,00
2380,41	219,00
2384,97	258,00
2389,52	196,00
2394,07	145,00
2398,62	228,00
2403,16	173,00
2407,70	345,00
2412,23	296,00
2416,76	210,00
2421,29	231,00
2425,81	146,00
2430,32	172,00
2434,84	127,00
2439,34	253,00
2443,85	156,00
2448,35	170,00
2452,84	82,00
2457,33	102,00
2461,82	298,00
2466,30	201,00
2470,78	189,00
2475,25	162,00
2479,72	140,00
2484,19	243,00
2488,65	319,00
2493,11	108,00
2497,56	244,00
2502,01	199,00
2506,46	264,00
2510,90	128,00
2515,34	353,00
2519,77	165,00
2524,20	285,00
2528,62	132,00
2533,04	329,00
2537,46	193,00
2541,87	268,00
2546,28	202,00
2550,68	267,00
2555,08	154,00
2559,48	263,00
2563,87	111,00
2568,26	279,00
2572,64	112,00
2577,02	208,00
2581,40	241,00
2585,77	236,00
2590,14	184,00
2594,50	29,00
2598,86	197,00
2603,22	185,00
2607,57	149,00
2611,92	125,00
2616,26	192,00
2620,60	267,00
2624,94	123,00
2629,27	175,00
2633,60	85,00
2637,92	152,00
2642,24	98,00
2646,56	224,00
2650,87	39,00
2655,18	130,00
2659,48	184,00
2663,78	260,00
2668,08	305,00
2672,37	277,00
2676,66	127,00
2680,95	140,00
2685,23	144,00
2689,50	259,00
2693,78	80,00
2698,05	254,00
2702,31	217,00
2706,57	151,00
2710,83	284,00
2715,08	234,00
2719,33	322,00
2723,58	266,00
2727,82	331,00
2732,06	172,00
2736,29	162,00
2740,53	309,00
2744,75	179,00
2748,97	176,00
2753,19	275,00
2757,41	241,00
2761,62	272,00
2765,83	161,00
2770,03	138,00
2774,23	84,00
2778,43	247,00
2782,62	254,00
2786,81	187,00
2791,00	125,00
2795,18	302,00
2799,35	190,00
2803,53	453,00
2807,70	425,00
2811,86	221,00
2816,03	330,00
2820,19	272,00
2824,34	323,00
2828,49	471,00
2832,64	453,00
2836,78	495,00
2840,92	704,00
2845,06	875,00
2849,19	783,00
2853,32	867,00
2857,45	806,00
2861,57	910,00
2865,69	917,00
2869,80	912,00
2873,91	878,00
2878,02	999,00
2882,12	1079,00
2886,22	1019,00
2890,32	1039,00
2894,41	917,00
2898,50	838,00
2902,58	821,00
2906,67	836,00
2910,74	597,00
2914,82	598,00
2918,89	666,00
2922,96	582,00
2927,02	510,00
2931,08	551,00
2935,13	511,00
2939,19	412,00
2943,24	406,00
2947,28	368,00
2951,32	270,00
2955,36	393,00
2959,40	333,00
2963,43	169,00
2967,46	292,00
2971,48	230,00
2975,50	218,00
2979,52	219,00
2983,53	209,00
2987,54	140,00
2991,55	211,00
2995,55	161,00
2999,55	66,00
3003,54	180,00
3007,54	76,00
3011,53	105,00
3015,51	59,00
3019,49	118,00
3023,47	129,00
3027,45	214,00
3031,42	155,00
3035,39	81,00
3039,35	125,00
3043,31	64,00
3047,27	200,00
3051,22	172,00
3055,17	-18,00
3059,12	-38,00
3063,06	153,00
3067,00	17,00
3070,94	90,00
3074,87	40,00
3078,80	168,00
3082,73	73,00
3086,65	32,00
3090,57	16,00
3094,49	26,00
3098,40	100,00
3102,31	150,00
3106,22	107,00
3110,12	26,00
3114,02	177,00
3117,92	6,00
3121,81	68,00
3125,70	125,00
3129,58	120,00
3133,47	35,00
3137,34	19,00
3141,22	93,00
3145,09	117,00
3148,96	68,00
3152,83	113,00
3156,69	3,00
3160,55	179,00
3164,40	-24,00
3168,26	-56,00
3172,10	208,00
3175,95	137,00
3179,79	36,00
3183,63	50,00
3187,47	183,00
3191,30	99,00
3195,13	76,00
3198,95	88,00
3202,78	64,00
3206,60	48,00
3210,41	68,00
3214,23	99,00
3218,03	112,00
3221,84	98,00
3225,64	-55,00
3229,44	158,00
3233,24	179,00
3237,03	127,00
3240,82	118,00
3244,61	-15,00
3248,39	88,00
3252,17	82,00
3255,95	136,00
3259,72	137,00
3263,49	91,00
3267,26	19,00
3271,03	3,00
3274,79	33,00
3278,54	108,00
3282,30	56,00
3286,05	60,00
3289,80	-25,00
3293,54	90,00
3297,29	118,00
3301,02	-7,00
3304,76	127,00
3308,49	-19,00
3312,22	1,00
3315,95	120,00
3319,67	87,00
3323,39	129,00
3327,10	63,00
3330,82	167,00
3334,53	6,00
3338,24	26,00
3341,94	150,00
3345,64	36,00
3349,34	-33,00
3353,03	66,00
3356,72	60,00
3360,41	24,00
3364,10	112,00
3367,78	16,00
3371,46	47,00
3375,13	-24,00
3378,81	46,00
3382,48	-39,00
3386,14	213,00
3389,81	38,00
3393,47	20,00
3397,12	166,00
3400,78	108,00
3404,43	126,00
3408,08	-18,00
3411,72	103,00
3415,36	77,00
3419,00	-126,00
3422,64	-110,00
3426,27	78,00
3429,90	43,00
3433,53	87,00
3437,15	13,00
3440,77	82,00
3444,39	11,00
3448,00	-10,00
3451,62	147,00
3455,22	100,00
3458,83	74,00
3462,43	41,00
3466,03	73,00
3469,63	-60,00
3473,22	72,00
3476,81	25,00
3480,40	15,00
3483,99	84,00
3487,57	58,00
3491,15	-8,00
3494,72	55,00
3498,29	95,00
3501,86	-2,00
3505,43	104,00
3508,99	-15,00
3512,56	65,00
3516,11	-26,00
3519,67	72,00
3523,22	88,00
3526,77	82,00
3530,32	123,00
3533,86	8,00
3537,40	21,00
3540,94	77,00
3544,47	24,00
3548,00	90,00
3551,53	90,00
3555,06	112,00
3558,58	7,00
3562,10	41,00
3565,62	31,00
3569,13	-2,00
3572,64	165,00
3576,15	100,00
3579,66	77,00
3583,16	117,00
3586,66	-33,00
3590,16	22,00
3593,65	22,00
3597,14	-8,00
3600,63	40,00
3604,11	45,00
3607,60	69,00
3611,08	98,00
3614,55	-93,00
3618,03	28,00
3621,50	21,00
3624,97	18,00
3628,43	-10,00
3631,90	-74,00
3635,36	102,00
3638,81	59,00
3642,27	27,00
3645,72	83,00
3649,17	75,00
3652,61	79,00
3656,06	-48,00
3659,50	53,00
3662,93	-29,00
3666,37	-20,00
3669,80	119,00
3673,23	-21,00
3676,65	146,00
3680,08	66,00
3683,50	6,00
3686,92	-42,00
3690,33	76,00
3693,74	51,00
3697,15	59,00
3700,56	121,00
3703,96	-41,00
3707,36	-47,00
3710,76	-9,00
3714,16	38,00
3717,55	-31,00
3720,94	11,00
3724,33	5,00
3727,71	-47,00
3731,10	-21,00
3734,48	21,00
3737,85	-59,00
3741,23	42,00
3744,60	-111,00
3747,97	-79,00
3751,33	79,00
3754,69	97,00
3758,05	88,00
3761,41	-70,00
3764,77	68,00
3768,12	76,00
3771,47	77,00
3774,82	-8,00
3778,16	1,00
3781,50	-4,00
3784,84	4,00
3788,18	3,00
>>>>>End Processed Spectral Data<<<<<
