SpectraSuite Data File
++++++++++++++++++++++++++++++++++++
Date: Mon Mar 09 15:54:54 ICT 2026
User: Administrator
Dark Spectrum Present: Yes
Reference Spectrum Present: No
Number of Sampled Component Spectra: 1
Spectrometers: MAYP113682
Integration Time (usec): 3000000 (MAYP113682)
Spectra Averaged: 1 (MAYP113682)
Boxcar Smoothing: 0 (MAYP113682)
Correct for Electrical Dark: No (MAYP113682)
Strobe/Lamp Enabled: No (MAYP113682)
Correct for Detector Non-linearity: No (MAYP113682)
Correct for Stray Light: No (MAYP113682)
Number of Pixels in Processed Spectrum: 2068
>>>>>Begin Processed Spectral Data<<<<<
-37534,58	-2,00
-37414,56	-3,00
-37295,11	4,00
-37176,24	0,00
-37057,95	30,00
-36940,22	43,00
-36823,05	87,00
-36706,45	155,00
-36590,40	12,00
-36474,90	-17,00
-36359,95	-11,00
-36245,55	10,00
-36131,68	-104,00
-36018,35	-52,00
-35905,55	-3,00
-35793,29	-7,00
-35681,54	-20,00
-35570,32	55,00
-35459,62	34,00
-35349,43	-12,00
-35239,75	-13,00
-35130,58	-39,00
-35021,91	-53,00
-34913,74	-48,00
-34806,07	24,00
-34698,89	-29,00
-34592,20	125,00
-34486,00	32,00
-34380,28	-3,00
-34275,04	-49,00
-34170,27	11,00
-34065,98	9,00
-33962,16	126,00
-33858,81	115,00
-33755,92	26,00
-33653,49	63,00
-33551,52	20,00
-33450,01	71,00
-33348,94	45,00
-33248,33	-66,00
-33148,16	-23,00
-33048,43	-33,00
-32949,14	0,00
-32850,29	115,00
-32751,87	-67,00
-32653,89	117,00
-32556,33	-120,00
-32459,20	82,00
-32362,49	-9,00
-32266,19	3,00
-32170,32	-20,00
-32074,86	63,00
-31979,82	-4,00
-31885,18	35,00
-31790,95	46,00
-31697,12	22,00
-31603,69	72,00
-31510,67	89,00
-31418,04	-11,00
-31325,80	48,00
-31233,95	-123,00
-31142,49	63,00
-31051,42	85,00
-30960,73	44,00
-30870,43	55,00
-30780,50	41,00
-30690,95	136,00
-30601,77	-42,00
-30512,97	-5,00
-30424,53	-57,00
-30336,46	-15,00
-30248,76	5,00
-30161,42	102,00
-30074,44	4,00
-29987,81	39,00
-29901,55	-23,00
-29815,63	-105,00
-29730,07	40,00
-29644,86	47,00
-29560,00	-121,00
-29475,48	7,00
-29391,30	43,00
-29307,47	-65,00
-29223,97	-14,00
-29140,81	116,00
-29057,99	17,00
-28975,50	42,00
-28893,34	-98,00
-28811,51	-69,00
-28730,00	60,00
-28648,82	65,00
-28567,97	111,00
-28487,43	-77,00
-28407,21	-22,00
-28327,32	39,00
-28247,73	-2,00
-28168,46	-33,00
-28089,50	-39,00
-28010,85	167,00
-27932,51	55,00
-27854,48	-67,00
-27776,75	-48,00
-27699,32	32,00
-27622,19	35,00
-27545,37	80,00
-27468,84	-60,00
-27392,60	37,00
-27316,66	49,00
-27241,01	-30,00
-27165,66	107,00
-27090,59	5,00
-27015,81	7,00
-26941,31	-151,00
-26867,10	-105,00
-26793,17	3,00
-26719,52	114,00
-26646,15	-61,00
-26573,06	-101,00
-26500,24	39,00
-26427,70	85,00
-26355,43	65,00
-26283,43	79,00
-26211,71	47,00
-26140,25	62,00
-26069,06	8,00
-25998,13	-30,00
-25927,46	8,00
-25857,06	-3,00
-25786,92	39,00
-25717,04	106,00
-25647,42	-54,00
-25578,05	37,00
-25508,94	-26,00
-25440,09	-9,00
-25371,48	30,00
-25303,13	100,00
-25235,02	42,00
-25167,17	56,00
-25099,56	-38,00
-25032,19	-113,00
-24965,07	67,00
-24898,20	-96,00
-24831,56	1,00
-24765,17	13,00
-24699,01	-75,00
-24633,10	-32,00
-24567,41	-17,00
-24501,97	-22,00
-24436,75	-75,00
-24371,77	-85,00
-24307,03	-18,00
-24242,51	47,00
-24178,22	106,00
-24114,16	-18,00
-24050,32	-15,00
-23986,71	35,00
-23923,32	86,00
-23860,16	140,00
-23797,22	-11,00
-23734,50	-95,00
-23672,00	91,00
-23609,71	-25,00
-23547,65	36,00
-23485,80	-65,00
-23424,16	-36,00
-23362,74	44,00
-23301,53	-9,00
-23240,54	155,00
-23179,75	37,00
-23119,17	20,00
-23058,80	-34,00
-22998,64	114,00
-22938,68	-3,00
-22878,93	12,00
-22819,39	71,00
-22760,04	-62,00
-22700,90	7,00
-22641,96	-68,00
-22583,22	77,00
-22524,68	26,00
-22466,33	-26,00
-22408,19	-101,00
-22350,23	-25,00
-22292,48	-2,00
-22234,92	37,00
-22177,55	146,00
-22120,37	-53,00
-22063,38	63,00
-22006,58	106,00
-21949,98	71,00
-21893,56	-75,00
-21837,33	74,00
-21781,28	12,00
-21725,42	100,00
-21669,74	-14,00
-21614,25	3,00
-21558,94	144,00
-21503,81	174,00
-21448,86	106,00
-21394,10	-68,00
-21339,51	130,00
-21285,10	15,00
-21230,86	38,00
-21176,81	66,00
-21122,93	80,00
-21069,22	70,00
-21015,69	65,00
-20962,33	72,00
-20909,14	27,00
-20856,13	85,00
-20803,28	93,00
-20750,61	3,00
-20698,10	116,00
-20645,76	-40,00
-20593,59	74,00
-20541,59	-18,00
-20489,75	24,00
-20438,07	-12,00
-20386,56	46,00
-20335,22	79,00
-20284,03	-86,00
-20233,01	-29,00
-20182,15	-4,00
-20131,45	19,00
-20080,91	62,00
-20030,52	20,00
-19980,30	-4,00
-19930,23	47,00
-19880,32	39,00
-19830,56	22,00
-19780,96	3,00
-19731,52	-22,00
-19682,23	40,00
-19633,09	74,00
-19584,10	-98,00
-19535,26	14,00
-19486,58	11,00
-19438,04	13,00
-19389,66	1,00
-19341,42	37,00
-19293,33	-60,00
-19245,39	36,00
-19197,60	15,00
-19149,95	-41,00
-19102,45	-13,00
-19055,09	-1,00
-19007,87	-1,00
-18960,80	-4,00
-18913,87	42,00
-18867,09	10,00
-18820,44	67,00
-18773,94	5,00
-18727,57	-32,00
-18681,35	12,00
-18635,26	-26,00
-18589,31	-17,00
-18543,50	-72,00
-18497,83	92,00
-18452,29	-33,00
-18406,89	-13,00
-18361,63	-13,00
-18316,50	55,00
-18271,50	43,00
-18226,63	-84,00
-18181,90	-2,00
-18137,30	-197,00
-18092,84	31,00
-18048,50	-29,00
-18004,29	-75,00
-17960,22	-63,00
-17916,27	36,00
-17872,45	-8,00
-17828,76	74,00
-17785,20	-20,00
-17741,77	-43,00
-17698,46	31,00
-17655,28	20,00
-17612,22	47,00
-17569,29	68,00
-17526,48	-10,00
-17483,79	26,00
-17441,23	11,00
-17398,79	52,00
-17356,48	54,00
-17314,28	64,00
-17272,21	-5,00
-17230,26	-6,00
-17188,42	106,00
-17146,71	19,00
-17105,12	46,00
-17063,64	-1,00
-17022,28	14,00
-16981,04	24,00
-16939,92	-1,00
-16898,91	93,00
-16858,02	-17,00
-16817,25	-118,00
-16776,59	9,00
-16736,04	11,00
-16695,61	-17,00
-16655,29	-109,00
-16615,09	20,00
-16574,99	45,00
-16535,01	-28,00
-16495,15	129,00
-16455,39	-18,00
-16415,74	82,00
-16376,21	-46,00
-16336,78	63,00
-16297,46	14,00
-16258,26	-32,00
-16219,16	30,00
-16180,17	-86,00
-16141,28	11,00
-16102,51	-61,00
-16063,84	35,00
-16025,27	85,00
-15986,82	6,00
-15948,46	108,00
-15910,22	-79,00
-15872,07	65,00
-15834,04	69,00
-15796,10	71,00
-15758,27	27,00
-15720,54	-34,00
-15682,91	35,00
-15645,39	85,00
-15607,97	-1,00
-15570,64	38,00
-15533,42	9,00
-15496,30	38,00
-15459,28	111,00
-15422,36	-24,00
-15385,54	18,00
-15348,82	-65,00
-15312,19	-28,00
-15275,66	-20,00
-15239,23	-44,00
-15202,90	71,00
-15166,67	17,00
-15130,53	4,00
-15094,48	-17,00
-15058,54	63,00
-15022,68	1,00
-14986,93	-70,00
-14951,26	-77,00
-14915,69	-59,00
-14880,22	31,00
-14844,84	-47,00
-14809,55	1,00
-14774,35	-81,00
-14739,25	-37,00
-14704,24	34,00
-14669,32	-138,00
-14634,49	-50,00
-14599,75	-9,00
-14565,10	30,00
-14530,55	-21,00
-14496,08	79,00
-14461,70	23,00
-14427,41	-15,00
-14393,21	60,00
-14359,10	43,00
-14325,07	-75,00
-14291,14	-38,00
-14257,29	-13,00
-14223,52	-54,00
-14189,85	-24,00
-14156,26	81,00
-14122,76	42,00
-14089,34	36,00
-14056,01	-20,00
-14022,76	-72,00
-13989,60	43,00
-13956,52	68,00
-13923,53	37,00
-13890,62	49,00
-13857,79	-58,00
-13825,05	-11,00
-13792,39	-37,00
-13759,81	71,00
-13727,31	87,00
-13694,90	111,00
-13662,57	-8,00
-13630,31	-33,00
-13598,14	87,00
-13566,05	157,00
-13534,05	4,00
-13502,12	46,00
-13470,27	-58,00
-13438,50	5,00
-13406,80	83,00
-13375,19	25,00
-13343,66	66,00
-13312,20	139,00
-13280,83	32,00
-13249,53	92,00
-13218,30	84,00
-13187,16	65,00
-13156,09	30,00
-13125,10	-9,00
-13094,18	74,00
-13063,34	76,00
-13032,58	8,00
-13001,89	-55,00
-12971,28	-54,00
-12940,74	75,00
-12910,27	15,00
-12879,88	93,00
-12849,57	-69,00
-12819,33	-21,00
-12789,16	-87,00
-12759,06	38,00
-12729,04	112,00
-12699,09	92,00
-12669,21	66,00
-12639,41	-22,00
-12609,68	-55,00
-12580,02	-31,00
-12550,43	-23,00
-12520,91	-6,00
-12491,46	113,00
-12462,08	-101,00
-12432,77	6,00
-12403,54	53,00
-12374,37	2,00
-12345,27	-1,00
-12316,24	72,00
-12287,29	-83,00
-12258,40	-94,00
-12229,57	25,00
-12200,82	18,00
-12172,14	51,00
-12143,52	1,00
-12114,97	101,00
-12086,49	-25,00
-12058,07	160,00
-12029,73	32,00
-12001,44	-106,00
-11973,23	8,00
-11945,08	-2,00
-11917,00	26,00
-11888,98	111,00
-11861,03	-86,00
-11833,15	64,00
-11805,32	49,00
-11777,57	-78,00
-11749,88	92,00
-11722,25	15,00
-11694,69	61,00
-11667,19	-46,00
-11639,75	-54,00
-11612,38	1,00
-11585,07	42,00
-11557,83	87,00
-11530,65	-78,00
-11503,53	-60,00
-11476,47	107,00
-11449,48	25,00
-11422,54	36,00
-11395,67	47,00
-11368,86	0,00
-11342,11	-103,00
-11315,43	22,00
-11288,80	18,00
-11262,23	39,00
-11235,73	-72,00
-11209,28	89,00
-11182,90	51,00
-11156,57	30,00
-11130,31	25,00
-11104,10	46,00
-11077,96	-29,00
-11051,87	92,00
-11025,84	40,00
-10999,87	118,00
-10973,96	-109,00
-10948,11	-3,00
-10922,31	96,00
-10896,58	-20,00
-10870,90	140,00
-10845,28	-23,00
-10819,71	53,00
-10794,20	-28,00
-10768,75	166,00
-10743,36	43,00
-10718,02	-49,00
-10692,74	107,00
-10667,52	39,00
-10642,35	31,00
-10617,24	20,00
-10592,18	-3,00
-10567,18	113,00
-10542,23	85,00
-10517,34	55,00
-10492,51	0,00
-10467,72	90,00
-10443,00	49,00
-10418,32	-24,00
-10393,70	45,00
-10369,14	41,00
-10344,63	-13,00
-10320,17	63,00
-10295,77	22,00
-10271,42	-27,00
-10247,12	102,00
-10222,88	60,00
-10198,68	71,00
-10174,54	50,00
-10150,46	127,00
-10126,42	53,00
-10102,44	195,00
-10078,51	46,00
-10054,63	149,00
-10030,80	113,00
-10007,03	-50,00
-9983,30	-46,00
-9959,63	71,00
-9936,01	111,00
-9912,44	105,00
-9888,92	163,00
-9865,44	207,00
-9842,02	287,00
-9818,65	266,00
-9795,33	45,00
-9772,06	159,00
-9748,84	159,00
-9725,67	196,00
-9702,55	204,00
-9679,47	211,00
-9656,45	212,00
-9633,47	171,00
-9610,55	263,00
-9587,67	392,00
-9564,84	222,00
-9542,06	391,00
-9519,32	283,00
-9496,64	439,00
-9474,00	443,00
-9451,41	421,00
-9428,87	452,00
-9406,37	456,00
-9383,92	483,00
-9361,52	520,00
-9339,17	461,00
-9316,86	526,00
-9294,60	706,00
-9272,38	684,00
-9250,21	785,00
-9228,09	607,00
-9206,01	691,00
-9183,98	639,00
-9162,00	565,00
-9140,06	594,00
-9118,16	559,00
-9096,31	666,00
-9074,51	643,00
-9052,75	683,00
-9031,04	590,00
-9009,37	583,00
-8987,74	523,00
-8966,16	567,00
-8944,63	399,00
-8923,14	454,00
-8901,69	467,00
-8880,29	374,00
-8858,93	381,00
-8837,61	580,00
-8816,34	677,00
-8795,11	520,00
-8773,92	516,00
-8752,78	478,00
-8731,68	523,00
-8710,62	401,00
-8689,61	423,00
-8668,63	505,00
-8647,70	576,00
-8626,82	690,00
-8605,97	379,00
-8585,17	396,00
-8564,41	427,00
-8543,69	363,00
-8523,01	358,00
-8502,37	384,00
-8481,78	407,00
-8461,23	505,00
-8440,71	560,00
-8420,24	525,00
-8399,81	537,00
-8379,42	483,00
-8359,08	531,00
-8338,77	390,00
-8318,50	477,00
-8298,27	400,00
-8278,09	527,00
-8257,94	482,00
-8237,83	580,00
-8217,76	573,00
-8197,74	435,00
-8177,75	559,00
-8157,80	496,00
-8137,89	468,00
-8118,02	481,00
-8098,19	300,00
-8078,40	425,00
-8058,65	486,00
-8038,93	469,00
-8019,26	422,00
-7999,62	478,00
-7980,02	363,00
-7960,46	414,00
-7940,94	374,00
-7921,46	209,00
-7902,01	279,00
-7882,60	330,00
-7863,23	358,00
-7843,90	353,00
-7824,61	345,00
-7805,35	453,00
-7786,13	384,00
-7766,95	437,00
-7747,80	422,00
-7728,69	219,00
-7709,62	355,00
-7690,59	369,00
-7671,59	481,00
-7652,63	527,00
-7633,70	389,00
-7614,81	416,00
-7595,96	270,00
-7577,15	340,00
-7558,37	423,00
-7539,62	406,00
-7520,91	381,00
-7502,24	484,00
-7483,60	367,00
-7465,00	266,00
-7446,44	371,00
-7427,91	262,00
-7409,41	263,00
-7390,95	280,00
-7372,53	182,00
-7354,14	267,00
-7335,78	233,00
-7317,46	294,00
-7299,18	239,00
-7280,92	271,00
-7262,71	293,00
-7244,52	421,00
-7226,38	307,00
-7208,26	385,00
-7190,18	386,00
-7172,14	335,00
-7154,12	302,00
-7136,15	411,00
-7118,20	361,00
-7100,29	404,00
-7082,41	363,00
-7064,57	384,00
-7046,76	282,00
-7028,98	316,00
-7011,24	220,00
-6993,53	129,00
-6975,85	286,00
-6958,20	212,00
-6940,59	138,00
-6923,01	144,00
-6905,46	251,00
-6887,94	202,00
-6870,46	1570,00
-6853,01	284,00
-6835,59	434,00
-6818,21	267,00
-6800,85	282,00
-6783,53	206,00
-6766,24	115,00
-6748,98	211,00
-6731,76	193,00
-6714,56	53,00
-6697,40	91,00
-6680,26	186,00
-6663,16	254,00
-6646,09	253,00
-6629,05	246,00
-6612,05	248,00
-6595,07	260,00
-6578,13	281,00
-6561,21	98,00
-6544,33	157,00
-6527,47	103,00
-6510,65	147,00
-6493,86	144,00
-6477,10	91,00
-6460,36	184,00
-6443,66	142,00
-6426,99	153,00
-6410,35	138,00
-6393,74	78,00
-6377,16	100,00
-6360,61	153,00
-6344,09	101,00
-6327,59	245,00
-6311,13	189,00
-6294,70	150,00
-6278,29	288,00
-6261,92	195,00
-6245,58	222,00
-6229,26	187,00
-6212,97	171,00
-6196,72	158,00
-6180,49	224,00
-6164,29	155,00
-6148,12	-164,00
-6131,98	-6,00
-6115,86	-99,00
-6099,78	-18,00
-6083,72	82,00
-6067,69	38,00
-6051,69	54,00
-6035,72	31,00
-6019,78	207,00
-6003,87	239,00
-5987,98	100,00
-5972,12	99,00
-5956,29	149,00
-5940,49	93,00
-5924,71	246,00
-5908,96	86,00
-5893,24	115,00
-5877,55	176,00
-5861,89	-25,00
-5846,25	56,00
-5830,64	151,00
-5815,05	-52,00
-5799,50	-21,00
-5783,97	49,00
-5768,47	103,00
-5752,99	9,00
-5737,55	250,00
-5722,12	181,00
-5706,73	64,00
-5691,36	172,00
-5676,02	142,00
-5660,71	105,00
-5645,42	137,00
-5630,16	157,00
-5614,92	32,00
-5599,71	138,00
-5584,53	130,00
-5569,37	245,00
-5554,24	-794,00
-5539,14	99,00
-5524,06	118,00
-5509,01	117,00
-5493,98	160,00
-5478,98	144,00
-5464,00	85,00
-5449,05	221,00
-5434,13	221,00
-5419,23	65,00
-5404,36	18,00
-5389,51	176,00
-5374,69	80,00
-5359,89	177,00
-5345,12	143,00
-5330,37	163,00
-5315,65	224,00
-5300,95	12,00
-5286,28	129,00
-5271,63	151,00
-5257,01	145,00
-5242,41	77,00
-5227,84	119,00
-5213,29	172,00
-5198,76	-54,00
-5184,26	35,00
-5169,79	-95,00
-5155,33	50,00
-5140,91	133,00
-5126,51	194,00
-5112,13	158,00
-5097,77	174,00
-5083,44	166,00
-5069,13	17,00
-5054,85	46,00
-5040,59	119,00
-5026,36	219,00
-5012,15	83,00
-4997,96	52,00
-4983,80	82,00
-4969,66	43,00
-4955,54	41,00
-4941,44	141,00
-4927,37	174,00
-4913,33	92,00
-4899,30	119,00
-4885,30	189,00
-4871,33	200,00
-4857,37	142,00
-4843,44	94,00
-4829,53	141,00
-4815,65	81,00
-4801,79	-17,00
-4787,95	87,00
-4774,13	37,00
-4760,34	-5,00
-4746,56	6,00
-4732,82	49,00
-4719,09	138,00
-4705,38	126,00
-4691,70	136,00
-4678,04	142,00
-4664,41	202,00
-4650,79	91,00
-4637,20	44,00
-4623,63	-44,00
-4610,08	106,00
-4596,56	93,00
-4583,05	87,00
-4569,57	174,00
-4556,11	-112,00
-4542,67	8,00
-4529,25	-57,00
-4515,86	277,00
-4502,49	121,00
-4489,13	60,00
-4475,80	77,00
-4462,49	113,00
-4449,21	117,00
-4435,94	223,00
-4422,70	124,00
-4409,47	143,00
-4396,27	64,00
-4383,09	-54,00
-4369,93	37,00
-4356,79	-56,00
-4343,67	10,00
-4330,58	49,00
-4317,50	112,00
-4304,45	130,00
-4291,41	53,00
-4278,40	152,00
-4265,41	-92,00
-4252,44	110,00
-4239,49	68,00
-4226,55	112,00
-4213,65	88,00
-4200,76	163,00
-4187,89	49,00
-4175,04	133,00
-4162,21	-9,00
-4149,40	98,00
-4136,61	89,00
-4123,85	81,00
-4111,10	-60,00
-4098,37	28,00
-4085,66	59,00
-4072,98	206,00
-4060,31	-59,00
-4047,66	45,00
-4035,04	-107,00
-4022,43	109,00
-4009,84	-127,00
-3997,27	-13,00
-3984,72	17,00
-3972,19	-127,00
-3959,69	0,00
-3947,20	27,00
-3934,73	5,00
-3922,27	-19,00
-3909,84	-63,00
-3897,43	15,00
-3885,04	57,00
-3872,67	47,00
-3860,31	31,00
-3847,98	-90,00
-3835,66	-15,00
-3823,36	-3,00
-3811,09	41,00
-3798,83	58,00
-3786,59	36,00
-3774,37	19,00
-3762,17	-49,00
-3749,98	-12,00
-3737,82	65,00
-3725,67	72,00
-3713,55	43,00
-3701,44	65,00
-3689,35	115,00
-3677,28	141,00
-3665,22	130,00
-3653,19	74,00
-3641,17	96,00
-3629,18	42,00
-3617,20	-3,00
-3605,24	81,00
-3593,30	117,00
-3581,37	178,00
-3569,47	2,00
-3557,58	179,00
-3545,71	48,00
-3533,86	21,00
-3522,02	15,00
-3510,21	102,00
-3498,41	21,00
-3486,63	16,00
-3474,87	58,00
-3463,12	-68,00
-3451,40	48,00
-3439,69	59,00
-3428,00	-15,00
-3416,33	11,00
-3404,67	-42,00
-3393,03	66,00
-3381,41	72,00
-3369,81	23,00
-3358,22	87,00
-3346,66	14,00
-3335,10	71,00
-3323,57	-65,00
-3312,06	-28,00
-3300,56	47,00
-3289,08	47,00
-3277,61	-59,00
-3266,16	-89,00
-3254,73	-14,00
-3243,32	-19,00
-3231,92	5,00
-3220,55	24,00
-3209,18	-71,00
-3197,84	49,00
-3186,51	-11,00
-3175,20	66,00
-3163,90	-15,00
-3152,63	-62,00
-3141,36	67,00
-3130,12	30,00
-3118,89	-18,00
-3107,68	-18,00
-3096,49	24,00
-3085,31	144,00
-3074,15	8,00
-3063,00	37,00
-3051,87	23,00
-3040,76	139,00
-3029,67	23,00
-3018,59	19,00
-3007,52	-85,00
-2996,48	33,00
-2985,44	135,00
-2974,43	-64,00
-2963,43	57,00
-2952,45	86,00
-2941,48	-18,00
-2930,53	67,00
-2919,60	101,00
-2908,68	-105,00
-2897,78	-29,00
-2886,89	36,00
-2876,02	6,00
-2865,17	36,00
-2854,33	41,00
-2843,50	-44,00
-2832,70	-25,00
-2821,90	-132,00
-2811,13	-28,00
-2800,37	-31,00
-2789,62	32,00
-2778,89	6,00
-2768,18	139,00
-2757,48	50,00
-2746,80	37,00
-2736,13	-10,00
-2725,48	-60,00
-2714,84	-11,00
-2704,22	49,00
-2693,61	160,00
-2683,02	52,00
-2672,45	54,00
-2661,89	49,00
-2651,34	56,00
-2640,81	138,00
-2630,30	3,00
-2619,80	79,00
-2609,31	45,00
-2598,84	4,00
-2588,39	-22,00
-2577,95	-83,00
-2567,52	25,00
-2557,11	36,00
-2546,71	3,00
-2536,33	128,00
-2525,97	-79,00
-2515,62	-46,00
-2505,28	-44,00
-2494,96	125,00
-2484,65	-116,00
-2474,36	27,00
-2464,08	-46,00
-2453,82	34,00
-2443,57	30,00
-2433,33	-110,00
-2423,11	48,00
-2412,91	-21,00
-2402,72	9,00
-2392,54	19,00
-2382,38	-40,00
-2372,23	100,00
-2362,09	-150,00
-2351,97	-45,00
-2341,87	-5,00
-2331,78	3,00
-2321,70	-1,00
-2311,64	-24,00
-2301,59	31,00
-2291,55	59,00
-2281,53	-53,00
-2271,53	-26,00
-2261,53	13,00
-2251,55	131,00
-2241,59	-7,00
-2231,64	-17,00
-2221,70	22,00
-2211,78	-15,00
-2201,87	-43,00
-2191,97	-45,00
-2182,09	17,00
-2172,22	56,00
-2162,37	-40,00
-2152,53	44,00
-2142,70	79,00
-2132,89	159,00
-2123,09	44,00
-2113,30	-78,00
-2103,53	84,00
-2093,77	66,00
-2084,02	0,00
-2074,29	-8,00
-2064,57	-101,00
-2054,86	-63,00
-2045,17	80,00
-2035,49	-19,00
-2025,82	64,00
-2016,17	-3,00
-2006,53	-4,00
-1996,91	36,00
-1987,29	-36,00
-1977,69	36,00
-1968,11	-96,00
-1958,53	17,00
-1948,97	0,00
-1939,42	-103,00
-1929,89	22,00
-1920,37	10,00
-1910,86	-56,00
-1901,36	-10,00
-1891,88	45,00
-1882,41	-48,00
-1872,95	-82,00
-1863,51	91,00
-1854,08	16,00
-1844,66	53,00
-1835,26	66,00
-1825,86	0,00
-1816,48	105,00
-1807,11	105,00
-1797,76	171,00
-1788,42	27,00
-1779,09	-114,00
-1769,77	31,00
-1760,47	97,00
-1751,17	76,00
-1741,89	-106,00
-1732,63	27,00
-1723,37	40,00
-1714,13	-61,00
-1704,90	16,00
-1695,68	80,00
-1686,48	40,00
-1677,29	-115,00
-1668,11	32,00
-1658,94	-79,00
-1649,78	35,00
-1640,64	-8,00
-1631,51	-76,00
-1622,39	-39,00
-1613,28	-45,00
-1604,19	61,00
-1595,10	-131,00
-1586,03	198,00
-1576,97	-70,00
-1567,93	41,00
-1558,89	-29,00
-1549,87	37,00
-1540,86	-6,00
-1531,86	-20,00
-1522,87	53,00
-1513,90	-44,00
-1504,93	204,00
-1495,98	30,00
-1487,04	-30,00
-1478,12	42,00
-1469,20	-43,00
-1460,30	-39,00
-1451,40	121,00
-1442,52	-36,00
-1433,65	7,00
-1424,80	52,00
-1415,95	114,00
-1407,12	57,00
-1398,30	30,00
-1389,48	28,00
-1380,69	-7,00
-1371,90	62,00
-1363,12	-39,00
-1354,36	-32,00
-1345,60	-7,00
-1336,86	26,00
-1328,13	95,00
-1319,41	93,00
-1310,70	-29,00
-1302,01	9,00
-1293,32	40,00
-1284,65	162,00
-1275,99	117,00
-1267,33	41,00
-1258,69	86,00
-1250,06	16,00
-1241,45	-7,00
-1232,84	12,00
-1224,25	42,00
-1215,66	-5,00
-1207,09	86,00
-1198,53	28,00
-1189,97	75,00
-1181,43	-42,00
-1172,91	-16,00
-1164,39	7,00
-1155,88	87,00
-1147,38	57,00
-1138,90	-39,00
-1130,43	-7,00
-1121,96	89,00
-1113,51	-3,00
-1105,07	48,00
-1096,64	4,00
-1088,22	172,00
-1079,81	13,00
-1071,41	64,00
-1063,02	170,00
-1054,65	-103,00
-1046,28	82,00
-1037,92	57,00
-1029,58	-42,00
-1021,24	108,00
-1012,92	181,00
-1004,61	-73,00
-996,30	129,00
-988,01	49,00
-979,73	-15,00
-971,46	76,00
-963,20	-43,00
-954,95	-22,00
-946,71	-54,00
-938,48	12,00
-930,26	31,00
-922,06	-13,00
-913,86	136,00
-905,67	80,00
-897,49	-38,00
-889,33	-11,00
-881,17	17,00
-873,02	-63,00
-864,89	39,00
-856,76	-54,00
-848,65	68,00
-840,54	104,00
-832,45	-9,00
-824,36	-7,00
-816,29	26,00
-808,22	-52,00
-800,17	84,00
-792,12	72,00
-784,09	16,00
-776,06	-30,00
-768,05	86,00
-760,04	105,00
-752,05	-47,00
-744,07	54,00
-736,09	46,00
-728,13	-47,00
-720,17	-46,00
-712,23	-40,00
-704,29	-23,00
-696,37	-5,00
-688,45	8,00
-680,55	54,00
-672,65	-98,00
-664,77	-2,00
-656,89	42,00
-649,03	93,00
-641,17	-72,00
-633,32	9,00
-625,49	37,00
-617,66	28,00
-609,84	-27,00
-602,03	69,00
-594,23	27,00
-586,45	-104,00
-578,67	-8,00
-570,90	84,00
-563,14	58,00
-555,39	68,00
-547,65	57,00
-539,91	53,00
-532,19	5,00
-524,48	13,00
-516,78	0,00
-509,08	-30,00
-501,40	86,00
-493,72	83,00
-486,06	102,00
-478,40	-5,00
-470,76	93,00
-463,12	16,00
-455,49	-43,00
-447,87	166,00
-440,26	-51,00
-432,66	104,00
-425,07	73,00
-417,49	58,00
-409,92	76,00
-402,35	91,00
-394,80	179,00
-387,25	10,00
-379,72	109,00
-372,19	60,00
-364,67	89,00
-357,17	-8,00
-349,67	-34,00
-342,18	119,00
-334,69	203,00
-327,22	39,00
-319,76	45,00
-312,30	102,00
-304,86	129,00
-297,42	10,00
-290,00	20,00
-282,58	32,00
-275,17	16,00
-267,77	91,00
-260,37	56,00
-252,99	117,00
-245,62	87,00
-238,25	245,00
-230,90	82,00
-223,55	168,00
-216,21	129,00
-208,88	170,00
-201,56	138,00
-194,25	228,00
-186,94	244,00
-179,65	319,00
-172,36	272,00
-165,08	323,00
-157,81	234,00
-150,55	539,00
-143,30	441,00
-136,06	654,00
-128,82	731,00
-121,60	674,00
-114,38	742,00
-107,17	983,00
-99,97	922,00
-92,78	1159,00
-85,60	1375,00
-78,42	1513,00
-71,25	1821,00
-64,10	2167,00
-56,95	2228,00
-49,81	2913,00
-42,67	3626,00
-35,55	4502,00
-28,43	5901,00
-21,33	10122,00
-14,23	34056,00
-7,14	55238,00
-0,05	54948,00
7,02	54664,00
14,09	54888,00
21,14	29570,00
28,19	12573,00
35,23	7849,00
42,27	5907,00
49,29	4870,00
56,31	3996,00
63,32	3249,00
70,32	2697,00
77,31	2251,00
84,29	1933,00
91,27	1679,00
98,23	1636,00
105,19	1415,00
112,14	1428,00
119,09	1605,00
126,02	2126,00
132,95	2288,00
139,87	2279,00
146,78	2105,00
153,68	2066,00
160,58	1996,00
167,46	1928,00
174,34	2086,00
181,21	1766,00
188,08	1884,00
194,93	1738,00
201,78	1765,00
208,62	1795,00
215,45	1747,00
222,27	1867,00
229,09	1662,00
235,90	1803,00
242,70	1700,00
249,49	1631,00
256,27	1734,00
263,05	1655,00
269,82	1579,00
276,58	1585,00
283,33	1634,00
290,08	1635,00
296,82	1568,00
303,55	1529,00
310,27	1509,00
316,98	1514,00
323,69	1548,00
330,39	1621,00
337,08	1483,00
343,76	1417,00
350,44	1457,00
357,11	1429,00
363,77	1515,00
370,42	1333,00
377,07	1408,00
383,71	1478,00
390,34	1472,00
396,96	1529,00
403,58	1594,00
410,19	1356,00
416,79	1544,00
423,38	1440,00
429,97	1405,00
436,55	1267,00
443,12	1272,00
449,68	1315,00
456,24	1311,00
462,79	1333,00
469,33	1305,00
475,86	1268,00
482,39	1292,00
488,91	1156,00
495,42	1062,00
501,93	1214,00
508,42	1205,00
514,91	1204,00
521,40	1215,00
527,87	1266,00
534,34	1164,00
540,80	1216,00
547,25	1073,00
553,70	1132,00
560,14	1110,00
566,57	1016,00
573,00	1170,00
579,41	1252,00
585,83	1064,00
592,23	1124,00
598,62	1114,00
605,01	1055,00
611,40	1159,00
617,77	948,00
624,14	1197,00
630,50	1164,00
636,85	1062,00
643,20	1044,00
649,54	1076,00
655,87	945,00
662,20	998,00
668,52	1053,00
674,83	947,00
681,13	1047,00
687,43	1010,00
693,72	915,00
700,00	1046,00
706,28	930,00
712,55	909,00
718,81	1101,00
725,07	964,00
731,32	944,00
737,56	903,00
743,79	958,00
750,02	1061,00
756,24	869,00
762,46	983,00
768,67	958,00
774,87	917,00
781,06	1013,00
787,25	1055,00
793,43	967,00
799,60	825,00
805,77	932,00
811,93	973,00
818,08	897,00
824,23	1044,00
830,37	889,00
836,50	1015,00
842,63	849,00
848,75	1044,00
854,87	926,00
860,97	859,00
867,07	964,00
873,17	978,00
879,25	1091,00
885,33	931,00
891,41	1044,00
897,47	892,00
903,53	802,00
909,59	895,00
915,63	910,00
921,67	816,00
927,71	805,00
933,74	845,00
939,76	818,00
945,77	921,00
951,78	960,00
957,78	795,00
963,78	830,00
969,77	724,00
975,75	864,00
981,72	858,00
987,69	1119,00
993,66	847,00
999,61	894,00
1005,56	754,00
1011,51	847,00
1017,44	768,00
1023,37	855,00
1029,30	877,00
1035,22	921,00
1041,13	945,00
1047,03	882,00
1052,93	878,00
1058,83	995,00
1064,71	1160,00
1070,59	984,00
1076,47	873,00
1082,33	936,00
1088,20	844,00
1094,05	854,00
1099,90	824,00
1105,74	751,00
1111,58	826,00
1117,41	945,00
1123,23	1052,00
1129,05	1040,00
1134,86	1017,00
1140,67	976,00
1146,47	851,00
1152,26	954,00
1158,05	723,00
1163,83	809,00
1169,60	792,00
1175,37	792,00
1181,13	733,00
1186,89	750,00
1192,64	862,00
1198,38	774,00
1204,12	762,00
1209,85	713,00
1215,58	819,00
1221,30	669,00
1227,02	749,00
1232,72	800,00
1238,43	888,00
1244,12	747,00
1249,81	840,00
1255,50	675,00
1261,17	739,00
1266,85	897,00
1272,51	821,00
1278,17	831,00
1283,83	835,00
1289,47	1098,00
1295,12	1259,00
1300,75	1223,00
1306,38	1076,00
1312,01	941,00
1317,63	998,00
1323,24	916,00
1328,85	823,00
1334,45	803,00
1340,04	830,00
1345,63	959,00
1351,22	829,00
1356,80	816,00
1362,37	858,00
1367,93	876,00
1373,49	788,00
1379,05	888,00
1384,60	892,00
1390,14	914,00
1395,68	894,00
1401,21	879,00
1406,74	921,00
1412,26	936,00
1417,77	945,00
1423,28	982,00
1428,78	1034,00
1434,28	1297,00
1439,77	1263,00
1445,26	1264,00
1450,74	1286,00
1456,22	1279,00
1461,68	1102,00
1467,15	1063,00
1472,61	974,00
1478,06	894,00
1483,51	874,00
1488,95	886,00
1494,38	837,00
1499,81	627,00
1505,24	884,00
1510,65	780,00
1516,07	711,00
1521,48	792,00
1526,88	627,00
1532,27	816,00
1537,67	653,00
1543,05	778,00
1548,43	694,00
1553,81	713,00
1559,18	629,00
1564,54	774,00
1569,90	647,00
1575,25	649,00
1580,60	664,00
1585,94	683,00
1591,28	731,00
1596,61	744,00
1601,93	656,00
1607,25	709,00
1612,57	647,00
1617,88	752,00
1623,18	522,00
1628,48	616,00
1633,77	705,00
1639,06	653,00
1644,34	665,00
1649,62	652,00
1654,89	578,00
1660,16	676,00
1665,42	573,00
1670,67	673,00
1675,92	692,00
1681,17	661,00
1686,41	553,00
1691,64	588,00
1696,87	637,00
1702,10	353,00
1707,32	607,00
1712,53	579,00
1717,74	559,00
1722,94	564,00
1728,14	669,00
1733,33	587,00
1738,52	591,00
1743,70	593,00
1748,88	564,00
1754,05	416,00
1759,22	488,00
1764,38	551,00
1769,53	495,00
1774,69	433,00
1779,83	445,00
1784,97	582,00
1790,11	520,00
1795,24	500,00
1800,36	399,00
1805,48	448,00
1810,60	474,00
1815,71	482,00
1820,82	464,00
1825,92	473,00
1831,01	359,00
1836,10	590,00
1841,19	565,00
1846,26	555,00
1851,34	489,00
1856,41	386,00
1861,47	439,00
1866,53	629,00
1871,59	534,00
1876,64	408,00
1881,68	396,00
1886,72	399,00
1891,76	546,00
1896,79	467,00
1901,81	463,00
1906,83	506,00
1911,85	474,00
1916,86	436,00
1921,86	418,00
1926,86	436,00
1931,86	524,00
1936,85	456,00
1941,83	442,00
1946,81	429,00
1951,79	392,00
1956,76	475,00
1961,72	326,00
1966,68	429,00
1971,64	381,00
1976,59	412,00
1981,54	447,00
1986,48	417,00
1991,42	389,00
1996,35	381,00
2001,27	336,00
2006,20	414,00
2011,11	451,00
2016,03	470,00
2020,93	356,00
2025,84	324,00
2030,73	278,00
2035,63	332,00
2040,52	300,00
2045,40	348,00
2050,28	338,00
2055,15	386,00
2060,02	357,00
2064,89	338,00
2069,75	286,00
2074,60	319,00
2079,46	392,00
2084,30	305,00
2089,14	234,00
2093,98	360,00
2098,81	351,00
2103,64	358,00
2108,46	372,00
2113,28	474,00
2118,09	405,00
2122,90	346,00
2127,70	347,00
2132,50	272,00
2137,30	378,00
2142,09	439,00
2146,87	423,00
2151,66	279,00
2156,43	380,00
2161,20	399,00
2165,97	358,00
2170,73	228,00
2175,49	555,00
2180,24	312,00
2184,99	345,00
2189,74	338,00
2194,48	217,00
2199,21	340,00
2203,94	357,00
2208,67	237,00
2213,39	291,00
2218,11	264,00
2222,82	409,00
2227,53	270,00
2232,23	210,00
2236,93	264,00
2241,63	235,00
2246,32	335,00
2251,00	367,00
2255,68	341,00
2260,36	292,00
2265,03	298,00
2269,70	259,00
2274,36	319,00
2279,02	293,00
2283,68	177,00
2288,33	242,00
2292,97	363,00
2297,61	291,00
2302,25	351,00
2306,88	300,00
2311,51	198,00
2316,14	303,00
2320,75	156,00
2325,37	236,00
2329,98	198,00
2334,59	298,00
2339,19	117,00
2343,79	223,00
2348,38	193,00
2352,97	148,00
2357,55	352,00
2362,13	192,00
2366,71	223,00
2371,28	232,00
2375,85	167,00
2380,41	338,00
2384,97	288,00
2389,52	172,00
2394,07	124,00
2398,62	178,00
2403,16	166,00
2407,70	146,00
2412,23	267,00
2416,76	213,00
2421,29	287,00
2425,81	155,00
2430,32	250,00
2434,84	224,00
2439,34	237,00
2443,85	181,00
2448,35	223,00
2452,84	275,00
2457,33	303,00
2461,82	317,00
2466,30	249,00
2470,78	324,00
2475,25	137,00
2479,72	205,00
2484,19	205,00
2488,65	185,00
2493,11	259,00
2497,56	231,00
2502,01	178,00
2506,46	110,00
2510,90	112,00
2515,34	113,00
2519,77	152,00
2524,20	253,00
2528,62	85,00
2533,04	121,00
2537,46	158,00
2541,87	265,00
2546,28	206,00
2550,68	185,00
2555,08	144,00
2559,48	129,00
2563,87	145,00
2568,26	203,00
2572,64	177,00
2577,02	197,00
2581,40	155,00
2585,77	143,00
2590,14	148,00
2594,50	213,00
2598,86	238,00
2603,22	211,00
2607,57	120,00
2611,92	118,00
2616,26	153,00
2620,60	237,00
2624,94	210,00
2629,27	242,00
2633,60	175,00
2637,92	271,00
2642,24	189,00
2646,56	184,00
2650,87	255,00
2655,18	236,00
2659,48	155,00
2663,78	218,00
2668,08	204,00
2672,37	210,00
2676,66	65,00
2680,95	169,00
2685,23	142,00
2689,50	233,00
2693,78	237,00
2698,05	183,00
2702,31	149,00
2706,57	196,00
2710,83	127,00
2715,08	240,00
2719,33	225,00
2723,58	287,00
2727,82	156,00
2732,06	316,00
2736,29	181,00
2740,53	196,00
2744,75	293,00
2748,97	188,00
2753,19	257,00
2757,41	246,00
2761,62	113,00
2765,83	202,00
2770,03	231,00
2774,23	165,00
2778,43	145,00
2782,62	197,00
2786,81	191,00
2791,00	167,00
2795,18	244,00
2799,35	273,00
2803,53	238,00
2807,70	296,00
2811,86	245,00
2816,03	211,00
2820,19	418,00
2824,34	316,00
2828,49	448,00
2832,64	336,00
2836,78	495,00
2840,92	593,00
2845,06	724,00
2849,19	772,00
2853,32	770,00
2857,45	880,00
2861,57	765,00
2865,69	808,00
2869,80	670,00
2873,91	731,00
2878,02	950,00
2882,12	924,00
2886,22	821,00
2890,32	900,00
2894,41	833,00
2898,50	583,00
2902,58	702,00
2906,67	655,00
2910,74	656,00
2914,82	628,00
2918,89	620,00
2922,96	545,00
2927,02	540,00
2931,08	324,00
2935,13	443,00
2939,19	438,00
2943,24	381,00
2947,28	215,00
2951,32	417,00
2955,36	398,00
2959,40	149,00
2963,43	337,00
2967,46	188,00
2971,48	226,00
2975,50	353,00
2979,52	220,00
2983,53	242,00
2987,54	81,00
2991,55	61,00
2995,55	116,00
2999,55	57,00
3003,54	150,00
3007,54	90,00
3011,53	153,00
3015,51	43,00
3019,49	194,00
3023,47	80,00
3027,45	45,00
3031,42	131,00
3035,39	169,00
3039,35	176,00
3043,31	15,00
3047,27	51,00
3051,22	107,00
3055,17	99,00
3059,12	140,00
3063,06	156,00
3067,00	64,00
3070,94	129,00
3074,87	94,00
3078,80	33,00
3082,73	101,00
3086,65	56,00
3090,57	103,00
3094,49	204,00
3098,40	79,00
3102,31	46,00
3106,22	56,00
3110,12	-47,00
3114,02	93,00
3117,92	-9,00
3121,81	160,00
3125,70	-45,00
3129,58	-29,00
3133,47	48,00
3137,34	92,00
3141,22	81,00
3145,09	22,00
3148,96	51,00
3152,83	156,00
3156,69	164,00
3160,55	130,00
3164,40	0,00
3168,26	47,00
3172,10	155,00
3175,95	68,00
3179,79	-53,00
3183,63	152,00
3187,47	120,00
3191,30	23,00
3195,13	141,00
3198,95	83,00
3202,78	12,00
3206,60	46,00
3210,41	42,00
3214,23	95,00
3218,03	46,00
3221,84	35,00
3225,64	183,00
3229,44	141,00
3233,24	163,00
3237,03	37,00
3240,82	-40,00
3244,61	107,00
3248,39	112,00
3252,17	20,00
3255,95	-37,00
3259,72	59,00
3263,49	-42,00
3267,26	115,00
3271,03	43,00
3274,79	56,00
3278,54	-5,00
3282,30	88,00
3286,05	46,00
3289,80	41,00
3293,54	-49,00
3297,29	31,00
3301,02	118,00
3304,76	39,00
3308,49	86,00
3312,22	164,00
3315,95	-14,00
3319,67	8,00
3323,39	130,00
3327,10	49,00
3330,82	87,00
3334,53	129,00
3338,24	55,00
3341,94	42,00
3345,64	56,00
3349,34	206,00
3353,03	18,00
3356,72	142,00
3360,41	113,00
3364,10	72,00
3367,78	28,00
3371,46	32,00
3375,13	182,00
3378,81	22,00
3382,48	53,00
3386,14	107,00
3389,81	-60,00
3393,47	-81,00
3397,12	47,00
3400,78	-145,00
3404,43	107,00
3408,08	116,00
3411,72	158,00
3415,36	-9,00
3419,00	-51,00
3422,64	128,00
3426,27	79,00
3429,90	48,00
3433,53	26,00
3437,15	47,00
3440,77	0,00
3444,39	-8,00
3448,00	155,00
3451,62	60,00
3455,22	31,00
3458,83	-46,00
3462,43	101,00
3466,03	39,00
3469,63	90,00
3473,22	42,00
3476,81	85,00
3480,40	79,00
3483,99	-23,00
3487,57	27,00
3491,15	19,00
3494,72	64,00
3498,29	-93,00
3501,86	-1,00
3505,43	-39,00
3508,99	100,00
3512,56	134,00
3516,11	14,00
3519,67	25,00
3523,22	22,00
3526,77	27,00
3530,32	113,00
3533,86	86,00
3537,40	-49,00
3540,94	80,00
3544,47	-99,00
3548,00	140,00
3551,53	3,00
3555,06	41,00
3558,58	-50,00
3562,10	73,00
3565,62	-37,00
3569,13	105,00
3572,64	8,00
3576,15	48,00
3579,66	-71,00
3583,16	110,00
3586,66	33,00
3590,16	62,00
3593,65	-74,00
3597,14	70,00
3600,63	43,00
3604,11	-13,00
3607,60	-15,00
3611,08	-5,00
3614,55	41,00
3618,03	34,00
3621,50	-32,00
3624,97	19,00
3628,43	-7,00
3631,90	51,00
3635,36	17,00
3638,81	90,00
3642,27	28,00
3645,72	73,00
3649,17	51,00
3652,61	-75,00
3656,06	139,00
3659,50	-27,00
3662,93	-39,00
3666,37	81,00
3669,80	49,00
3673,23	-90,00
3676,65	-42,00
3680,08	-53,00
3683,50	-42,00
3686,92	202,00
3690,33	129,00
3693,74	-20,00
3697,15	8,00
3700,56	5,00
3703,96	-59,00
3707,36	-64,00
3710,76	103,00
3714,16	53,00
3717,55	-15,00
3720,94	77,00
3724,33	102,00
3727,71	-68,00
3731,10	70,00
3734,48	15,00
3737,85	-13,00
3741,23	126,00
3744,60	27,00
3747,97	23,00
3751,33	-43,00
3754,69	36,00
3758,05	-7,00
3761,41	35,00
3764,77	115,00
3768,12	-29,00
3771,47	-26,00
3774,82	-161,00
3778,16	4,00
3781,50	-5,00
3784,84	-4,00
3788,18	-3,00
>>>>>End Processed Spectral Data<<<<<
