SpectraSuite Data File
++++++++++++++++++++++++++++++++++++
Date: Mon Mar 09 16:21:21 ICT 2026
User: Administrator
Dark Spectrum Present: Yes
Reference Spectrum Present: No
Number of Sampled Component Spectra: 1
Spectrometers: MAYP113682
Integration Time (usec): 3000000 (MAYP113682)
Spectra Averaged: 1 (MAYP113682)
Boxcar Smoothing: 0 (MAYP113682)
Correct for Electrical Dark: No (MAYP113682)
Strobe/Lamp Enabled: No (MAYP113682)
Correct for Detector Non-linearity: No (MAYP113682)
Correct for Stray Light: No (MAYP113682)
Number of Pixels in Processed Spectrum: 2068
>>>>>Begin Processed Spectral Data<<<<<
-37534,58	3,00
-37414,56	4,00
-37295,11	-6,00
-37176,24	-3,00
-37057,95	-28,00
-36940,22	64,00
-36823,05	73,00
-36706,45	-25,00
-36590,40	29,00
-36474,90	198,00
-36359,95	56,00
-36245,55	20,00
-36131,68	-4,00
-36018,35	136,00
-35905,55	135,00
-35793,29	-17,00
-35681,54	47,00
-35570,32	91,00
-35459,62	51,00
-35349,43	147,00
-35239,75	73,00
-35130,58	93,00
-35021,91	-85,00
-34913,74	67,00
-34806,07	109,00
-34698,89	13,00
-34592,20	57,00
-34486,00	222,00
-34380,28	111,00
-34275,04	95,00
-34170,27	-61,00
-34065,98	36,00
-33962,16	50,00
-33858,81	62,00
-33755,92	226,00
-33653,49	34,00
-33551,52	78,00
-33450,01	203,00
-33348,94	36,00
-33248,33	-33,00
-33148,16	46,00
-33048,43	168,00
-32949,14	49,00
-32850,29	139,00
-32751,87	-35,00
-32653,89	29,00
-32556,33	171,00
-32459,20	134,00
-32362,49	195,00
-32266,19	151,00
-32170,32	67,00
-32074,86	-23,00
-31979,82	-48,00
-31885,18	72,00
-31790,95	-33,00
-31697,12	-52,00
-31603,69	154,00
-31510,67	74,00
-31418,04	60,00
-31325,80	38,00
-31233,95	165,00
-31142,49	84,00
-31051,42	108,00
-30960,73	35,00
-30870,43	32,00
-30780,50	131,00
-30690,95	13,00
-30601,77	43,00
-30512,97	212,00
-30424,53	53,00
-30336,46	27,00
-30248,76	8,00
-30161,42	208,00
-30074,44	43,00
-29987,81	91,00
-29901,55	25,00
-29815,63	89,00
-29730,07	32,00
-29644,86	86,00
-29560,00	-47,00
-29475,48	145,00
-29391,30	143,00
-29307,47	-21,00
-29223,97	49,00
-29140,81	93,00
-29057,99	143,00
-28975,50	60,00
-28893,34	89,00
-28811,51	77,00
-28730,00	107,00
-28648,82	18,00
-28567,97	-60,00
-28487,43	97,00
-28407,21	119,00
-28327,32	49,00
-28247,73	81,00
-28168,46	22,00
-28089,50	54,00
-28010,85	-90,00
-27932,51	203,00
-27854,48	62,00
-27776,75	-1,00
-27699,32	95,00
-27622,19	108,00
-27545,37	110,00
-27468,84	125,00
-27392,60	115,00
-27316,66	49,00
-27241,01	48,00
-27165,66	95,00
-27090,59	-3,00
-27015,81	118,00
-26941,31	39,00
-26867,10	137,00
-26793,17	-6,00
-26719,52	-61,00
-26646,15	4,00
-26573,06	22,00
-26500,24	126,00
-26427,70	82,00
-26355,43	6,00
-26283,43	18,00
-26211,71	31,00
-26140,25	117,00
-26069,06	57,00
-25998,13	114,00
-25927,46	40,00
-25857,06	84,00
-25786,92	77,00
-25717,04	149,00
-25647,42	146,00
-25578,05	84,00
-25508,94	96,00
-25440,09	46,00
-25371,48	69,00
-25303,13	173,00
-25235,02	29,00
-25167,17	9,00
-25099,56	27,00
-25032,19	93,00
-24965,07	16,00
-24898,20	50,00
-24831,56	49,00
-24765,17	88,00
-24699,01	151,00
-24633,10	-14,00
-24567,41	148,00
-24501,97	70,00
-24436,75	48,00
-24371,77	129,00
-24307,03	-1,00
-24242,51	149,00
-24178,22	-45,00
-24114,16	36,00
-24050,32	-3,00
-23986,71	141,00
-23923,32	-11,00
-23860,16	52,00
-23797,22	60,00
-23734,50	41,00
-23672,00	-76,00
-23609,71	112,00
-23547,65	121,00
-23485,80	26,00
-23424,16	-26,00
-23362,74	97,00
-23301,53	-97,00
-23240,54	-11,00
-23179,75	41,00
-23119,17	-9,00
-23058,80	46,00
-22998,64	98,00
-22938,68	94,00
-22878,93	102,00
-22819,39	132,00
-22760,04	9,00
-22700,90	-41,00
-22641,96	68,00
-22583,22	66,00
-22524,68	90,00
-22466,33	123,00
-22408,19	-8,00
-22350,23	45,00
-22292,48	101,00
-22234,92	111,00
-22177,55	89,00
-22120,37	129,00
-22063,38	53,00
-22006,58	78,00
-21949,98	50,00
-21893,56	110,00
-21837,33	-67,00
-21781,28	86,00
-21725,42	124,00
-21669,74	38,00
-21614,25	18,00
-21558,94	89,00
-21503,81	108,00
-21448,86	-75,00
-21394,10	174,00
-21339,51	17,00
-21285,10	138,00
-21230,86	61,00
-21176,81	85,00
-21122,93	13,00
-21069,22	44,00
-21015,69	70,00
-20962,33	181,00
-20909,14	51,00
-20856,13	34,00
-20803,28	43,00
-20750,61	-28,00
-20698,10	10,00
-20645,76	73,00
-20593,59	82,00
-20541,59	70,00
-20489,75	-30,00
-20438,07	114,00
-20386,56	-78,00
-20335,22	134,00
-20284,03	-24,00
-20233,01	18,00
-20182,15	-74,00
-20131,45	33,00
-20080,91	35,00
-20030,52	38,00
-19980,30	44,00
-19930,23	15,00
-19880,32	-22,00
-19830,56	7,00
-19780,96	48,00
-19731,52	100,00
-19682,23	51,00
-19633,09	34,00
-19584,10	4,00
-19535,26	78,00
-19486,58	147,00
-19438,04	21,00
-19389,66	-11,00
-19341,42	-6,00
-19293,33	144,00
-19245,39	72,00
-19197,60	71,00
-19149,95	15,00
-19102,45	134,00
-19055,09	49,00
-19007,87	109,00
-18960,80	197,00
-18913,87	-71,00
-18867,09	34,00
-18820,44	-20,00
-18773,94	79,00
-18727,57	10,00
-18681,35	27,00
-18635,26	127,00
-18589,31	53,00
-18543,50	-26,00
-18497,83	-38,00
-18452,29	87,00
-18406,89	44,00
-18361,63	63,00
-18316,50	34,00
-18271,50	138,00
-18226,63	-10,00
-18181,90	-17,00
-18137,30	153,00
-18092,84	-6,00
-18048,50	181,00
-18004,29	108,00
-17960,22	101,00
-17916,27	132,00
-17872,45	126,00
-17828,76	127,00
-17785,20	93,00
-17741,77	110,00
-17698,46	21,00
-17655,28	102,00
-17612,22	88,00
-17569,29	131,00
-17526,48	49,00
-17483,79	50,00
-17441,23	-17,00
-17398,79	20,00
-17356,48	91,00
-17314,28	2,00
-17272,21	100,00
-17230,26	103,00
-17188,42	70,00
-17146,71	87,00
-17105,12	86,00
-17063,64	18,00
-17022,28	195,00
-16981,04	156,00
-16939,92	91,00
-16898,91	50,00
-16858,02	79,00
-16817,25	187,00
-16776,59	198,00
-16736,04	-42,00
-16695,61	-33,00
-16655,29	105,00
-16615,09	7,00
-16574,99	73,00
-16535,01	176,00
-16495,15	40,00
-16455,39	8,00
-16415,74	41,00
-16376,21	90,00
-16336,78	57,00
-16297,46	-1,00
-16258,26	105,00
-16219,16	64,00
-16180,17	133,00
-16141,28	40,00
-16102,51	26,00
-16063,84	20,00
-16025,27	193,00
-15986,82	94,00
-15948,46	41,00
-15910,22	11,00
-15872,07	63,00
-15834,04	168,00
-15796,10	91,00
-15758,27	165,00
-15720,54	51,00
-15682,91	47,00
-15645,39	32,00
-15607,97	15,00
-15570,64	16,00
-15533,42	32,00
-15496,30	194,00
-15459,28	68,00
-15422,36	105,00
-15385,54	-140,00
-15348,82	-4,00
-15312,19	34,00
-15275,66	132,00
-15239,23	215,00
-15202,90	45,00
-15166,67	-36,00
-15130,53	137,00
-15094,48	119,00
-15058,54	56,00
-15022,68	66,00
-14986,93	176,00
-14951,26	91,00
-14915,69	46,00
-14880,22	119,00
-14844,84	61,00
-14809,55	13,00
-14774,35	117,00
-14739,25	29,00
-14704,24	57,00
-14669,32	-38,00
-14634,49	191,00
-14599,75	57,00
-14565,10	63,00
-14530,55	24,00
-14496,08	215,00
-14461,70	56,00
-14427,41	60,00
-14393,21	30,00
-14359,10	29,00
-14325,07	-11,00
-14291,14	-4,00
-14257,29	102,00
-14223,52	51,00
-14189,85	86,00
-14156,26	51,00
-14122,76	117,00
-14089,34	228,00
-14056,01	172,00
-14022,76	133,00
-13989,60	-122,00
-13956,52	131,00
-13923,53	-57,00
-13890,62	52,00
-13857,79	50,00
-13825,05	155,00
-13792,39	48,00
-13759,81	-10,00
-13727,31	-7,00
-13694,90	25,00
-13662,57	149,00
-13630,31	-22,00
-13598,14	-141,00
-13566,05	28,00
-13534,05	105,00
-13502,12	9,00
-13470,27	1,00
-13438,50	52,00
-13406,80	30,00
-13375,19	155,00
-13343,66	68,00
-13312,20	99,00
-13280,83	39,00
-13249,53	36,00
-13218,30	62,00
-13187,16	109,00
-13156,09	28,00
-13125,10	52,00
-13094,18	129,00
-13063,34	60,00
-13032,58	-17,00
-13001,89	78,00
-12971,28	59,00
-12940,74	79,00
-12910,27	93,00
-12879,88	0,00
-12849,57	9,00
-12819,33	44,00
-12789,16	9,00
-12759,06	108,00
-12729,04	161,00
-12699,09	-1251,00
-12669,21	27,00
-12639,41	16,00
-12609,68	85,00
-12580,02	79,00
-12550,43	71,00
-12520,91	38,00
-12491,46	8,00
-12462,08	-81,00
-12432,77	1,00
-12403,54	32,00
-12374,37	113,00
-12345,27	36,00
-12316,24	110,00
-12287,29	85,00
-12258,40	0,00
-12229,57	30,00
-12200,82	62,00
-12172,14	18,00
-12143,52	157,00
-12114,97	74,00
-12086,49	136,00
-12058,07	-9,00
-12029,73	91,00
-12001,44	25,00
-11973,23	146,00
-11945,08	57,00
-11917,00	124,00
-11888,98	135,00
-11861,03	137,00
-11833,15	39,00
-11805,32	46,00
-11777,57	167,00
-11749,88	72,00
-11722,25	63,00
-11694,69	154,00
-11667,19	201,00
-11639,75	69,00
-11612,38	64,00
-11585,07	-61,00
-11557,83	116,00
-11530,65	35,00
-11503,53	54,00
-11476,47	106,00
-11449,48	153,00
-11422,54	36,00
-11395,67	-6,00
-11368,86	33,00
-11342,11	106,00
-11315,43	-9,00
-11288,80	-45,00
-11262,23	101,00
-11235,73	57,00
-11209,28	33,00
-11182,90	160,00
-11156,57	100,00
-11130,31	96,00
-11104,10	46,00
-11077,96	7,00
-11051,87	114,00
-11025,84	75,00
-10999,87	72,00
-10973,96	121,00
-10948,11	-39,00
-10922,31	51,00
-10896,58	127,00
-10870,90	109,00
-10845,28	52,00
-10819,71	86,00
-10794,20	7,00
-10768,75	104,00
-10743,36	39,00
-10718,02	122,00
-10692,74	103,00
-10667,52	62,00
-10642,35	176,00
-10617,24	-75,00
-10592,18	112,00
-10567,18	147,00
-10542,23	117,00
-10517,34	169,00
-10492,51	113,00
-10467,72	124,00
-10443,00	137,00
-10418,32	92,00
-10393,70	106,00
-10369,14	104,00
-10344,63	18,00
-10320,17	238,00
-10295,77	109,00
-10271,42	166,00
-10247,12	126,00
-10222,88	62,00
-10198,68	160,00
-10174,54	89,00
-10150,46	47,00
-10126,42	80,00
-10102,44	93,00
-10078,51	76,00
-10054,63	136,00
-10030,80	190,00
-10007,03	139,00
-9983,30	119,00
-9959,63	142,00
-9936,01	281,00
-9912,44	195,00
-9888,92	143,00
-9865,44	107,00
-9842,02	17,00
-9818,65	242,00
-9795,33	201,00
-9772,06	181,00
-9748,84	190,00
-9725,67	172,00
-9702,55	100,00
-9679,47	208,00
-9656,45	323,00
-9633,47	313,00
-9610,55	312,00
-9587,67	166,00
-9564,84	316,00
-9542,06	220,00
-9519,32	355,00
-9496,64	369,00
-9474,00	307,00
-9451,41	403,00
-9428,87	284,00
-9406,37	381,00
-9383,92	382,00
-9361,52	301,00
-9339,17	188,00
-9316,86	336,00
-9294,60	482,00
-9272,38	608,00
-9250,21	514,00
-9228,09	556,00
-9206,01	479,00
-9183,98	554,00
-9162,00	376,00
-9140,06	369,00
-9118,16	428,00
-9096,31	506,00
-9074,51	609,00
-9052,75	662,00
-9031,04	479,00
-9009,37	558,00
-8987,74	274,00
-8966,16	391,00
-8944,63	197,00
-8923,14	156,00
-8901,69	279,00
-8880,29	453,00
-8858,93	474,00
-8837,61	429,00
-8816,34	673,00
-8795,11	508,00
-8773,92	531,00
-8752,78	380,00
-8731,68	478,00
-8710,62	302,00
-8689,61	473,00
-8668,63	512,00
-8647,70	545,00
-8626,82	544,00
-8605,97	551,00
-8585,17	448,00
-8564,41	321,00
-8543,69	394,00
-8523,01	286,00
-8502,37	279,00
-8481,78	427,00
-8461,23	574,00
-8440,71	486,00
-8420,24	427,00
-8399,81	570,00
-8379,42	708,00
-8359,08	395,00
-8338,77	440,00
-8318,50	468,00
-8298,27	412,00
-8278,09	396,00
-8257,94	490,00
-8237,83	532,00
-8217,76	463,00
-8197,74	657,00
-8177,75	455,00
-8157,80	533,00
-8137,89	447,00
-8118,02	459,00
-8098,19	376,00
-8078,40	514,00
-8058,65	566,00
-8038,93	570,00
-8019,26	511,00
-7999,62	422,00
-7980,02	398,00
-7960,46	569,00
-7940,94	460,00
-7921,46	331,00
-7902,01	429,00
-7882,60	406,00
-7863,23	426,00
-7843,90	406,00
-7824,61	373,00
-7805,35	430,00
-7786,13	573,00
-7766,95	583,00
-7747,80	420,00
-7728,69	450,00
-7709,62	348,00
-7690,59	413,00
-7671,59	563,00
-7652,63	504,00
-7633,70	539,00
-7614,81	557,00
-7595,96	501,00
-7577,15	432,00
-7558,37	380,00
-7539,62	335,00
-7520,91	434,00
-7502,24	427,00
-7483,60	501,00
-7465,00	513,00
-7446,44	336,00
-7427,91	393,00
-7409,41	244,00
-7390,95	133,00
-7372,53	291,00
-7354,14	199,00
-7335,78	15,00
-7317,46	434,00
-7299,18	334,00
-7280,92	321,00
-7262,71	436,00
-7244,52	402,00
-7226,38	451,00
-7208,26	510,00
-7190,18	372,00
-7172,14	463,00
-7154,12	275,00
-7136,15	372,00
-7118,20	447,00
-7100,29	426,00
-7082,41	316,00
-7064,57	466,00
-7046,76	379,00
-7028,98	129,00
-7011,24	279,00
-6993,53	87,00
-6975,85	103,00
-6958,20	162,00
-6940,59	151,00
-6923,01	168,00
-6905,46	148,00
-6887,94	306,00
-6870,46	382,00
-6853,01	364,00
-6835,59	454,00
-6818,21	347,00
-6800,85	282,00
-6783,53	192,00
-6766,24	17,00
-6748,98	2,00
-6731,76	85,00
-6714,56	-71,00
-6697,40	144,00
-6680,26	81,00
-6663,16	195,00
-6646,09	151,00
-6629,05	258,00
-6612,05	252,00
-6595,07	305,00
-6578,13	193,00
-6561,21	188,00
-6544,33	149,00
-6527,47	141,00
-6510,65	-10,00
-6493,86	86,00
-6477,10	69,00
-6460,36	40,00
-6443,66	40,00
-6426,99	187,00
-6410,35	74,00
-6393,74	166,00
-6377,16	208,00
-6360,61	106,00
-6344,09	104,00
-6327,59	83,00
-6311,13	165,00
-6294,70	192,00
-6278,29	238,00
-6261,92	380,00
-6245,58	373,00
-6229,26	450,00
-6212,97	260,00
-6196,72	232,00
-6180,49	150,00
-6164,29	67,00
-6148,12	-10,00
-6131,98	-23,00
-6115,86	2,00
-6099,78	-123,00
-6083,72	-77,00
-6067,69	22,00
-6051,69	25,00
-6035,72	78,00
-6019,78	25,00
-6003,87	6,00
-5987,98	91,00
-5972,12	251,00
-5956,29	177,00
-5940,49	222,00
-5924,71	171,00
-5908,96	14,00
-5893,24	54,00
-5877,55	173,00
-5861,89	90,00
-5846,25	-72,00
-5830,64	-48,00
-5815,05	33,00
-5799,50	112,00
-5783,97	31,00
-5768,47	125,00
-5752,99	111,00
-5737,55	186,00
-5722,12	119,00
-5706,73	249,00
-5691,36	130,00
-5676,02	108,00
-5660,71	174,00
-5645,42	9,00
-5630,16	105,00
-5614,92	58,00
-5599,71	121,00
-5584,53	-17,00
-5569,37	99,00
-5554,24	164,00
-5539,14	87,00
-5524,06	41,00
-5509,01	128,00
-5493,98	110,00
-5478,98	95,00
-5464,00	84,00
-5449,05	22,00
-5434,13	86,00
-5419,23	84,00
-5404,36	119,00
-5389,51	128,00
-5374,69	87,00
-5359,89	99,00
-5345,12	203,00
-5330,37	159,00
-5315,65	183,00
-5300,95	190,00
-5286,28	117,00
-5271,63	37,00
-5257,01	66,00
-5242,41	197,00
-5227,84	-25,00
-5213,29	-37,00
-5198,76	-8,00
-5184,26	102,00
-5169,79	85,00
-5155,33	143,00
-5140,91	15,00
-5126,51	76,00
-5112,13	24,00
-5097,77	33,00
-5083,44	-52,00
-5069,13	35,00
-5054,85	136,00
-5040,59	92,00
-5026,36	-53,00
-5012,15	186,00
-4997,96	77,00
-4983,80	11,00
-4969,66	9,00
-4955,54	50,00
-4941,44	202,00
-4927,37	132,00
-4913,33	299,00
-4899,30	275,00
-4885,30	239,00
-4871,33	178,00
-4857,37	-63,00
-4843,44	197,00
-4829,53	119,00
-4815,65	82,00
-4801,79	60,00
-4787,95	69,00
-4774,13	52,00
-4760,34	92,00
-4746,56	54,00
-4732,82	38,00
-4719,09	152,00
-4705,38	197,00
-4691,70	226,00
-4678,04	176,00
-4664,41	201,00
-4650,79	77,00
-4637,20	103,00
-4623,63	57,00
-4610,08	48,00
-4596,56	-35,00
-4583,05	117,00
-4569,57	66,00
-4556,11	128,00
-4542,67	98,00
-4529,25	113,00
-4515,86	-1,00
-4502,49	222,00
-4489,13	214,00
-4475,80	211,00
-4462,49	89,00
-4449,21	41,00
-4435,94	168,00
-4422,70	89,00
-4409,47	121,00
-4396,27	147,00
-4383,09	42,00
-4369,93	46,00
-4356,79	117,00
-4343,67	31,00
-4330,58	3,00
-4317,50	118,00
-4304,45	62,00
-4291,41	106,00
-4278,40	-25,00
-4265,41	45,00
-4252,44	59,00
-4239,49	119,00
-4226,55	118,00
-4213,65	164,00
-4200,76	64,00
-4187,89	105,00
-4175,04	31,00
-4162,21	129,00
-4149,40	90,00
-4136,61	78,00
-4123,85	94,00
-4111,10	-9,00
-4098,37	-28,00
-4085,66	137,00
-4072,98	150,00
-4060,31	27,00
-4047,66	82,00
-4035,04	136,00
-4022,43	105,00
-4009,84	199,00
-3997,27	82,00
-3984,72	149,00
-3972,19	35,00
-3959,69	62,00
-3947,20	-21,00
-3934,73	6,00
-3922,27	174,00
-3909,84	99,00
-3897,43	116,00
-3885,04	-24,00
-3872,67	57,00
-3860,31	2,00
-3847,98	147,00
-3835,66	-61,00
-3823,36	2,00
-3811,09	83,00
-3798,83	105,00
-3786,59	111,00
-3774,37	58,00
-3762,17	75,00
-3749,98	126,00
-3737,82	104,00
-3725,67	-52,00
-3713,55	-4,00
-3701,44	71,00
-3689,35	52,00
-3677,28	-42,00
-3665,22	24,00
-3653,19	37,00
-3641,17	158,00
-3629,18	154,00
-3617,20	149,00
-3605,24	187,00
-3593,30	-36,00
-3581,37	28,00
-3569,47	76,00
-3557,58	145,00
-3545,71	101,00
-3533,86	179,00
-3522,02	-85,00
-3510,21	158,00
-3498,41	98,00
-3486,63	152,00
-3474,87	50,00
-3463,12	142,00
-3451,40	108,00
-3439,69	156,00
-3428,00	221,00
-3416,33	34,00
-3404,67	61,00
-3393,03	214,00
-3381,41	-12,00
-3369,81	12,00
-3358,22	226,00
-3346,66	49,00
-3335,10	75,00
-3323,57	169,00
-3312,06	58,00
-3300,56	58,00
-3289,08	78,00
-3277,61	91,00
-3266,16	142,00
-3254,73	54,00
-3243,32	-18,00
-3231,92	66,00
-3220,55	73,00
-3209,18	106,00
-3197,84	133,00
-3186,51	188,00
-3175,20	44,00
-3163,90	93,00
-3152,63	-5,00
-3141,36	35,00
-3130,12	120,00
-3118,89	44,00
-3107,68	174,00
-3096,49	74,00
-3085,31	-5,00
-3074,15	75,00
-3063,00	-37,00
-3051,87	56,00
-3040,76	-1,00
-3029,67	10,00
-3018,59	-9,00
-3007,52	-15,00
-2996,48	102,00
-2985,44	76,00
-2974,43	85,00
-2963,43	92,00
-2952,45	92,00
-2941,48	37,00
-2930,53	-25,00
-2919,60	61,00
-2908,68	161,00
-2897,78	47,00
-2886,89	52,00
-2876,02	97,00
-2865,17	190,00
-2854,33	115,00
-2843,50	87,00
-2832,70	86,00
-2821,90	109,00
-2811,13	90,00
-2800,37	57,00
-2789,62	-37,00
-2778,89	223,00
-2768,18	135,00
-2757,48	44,00
-2746,80	43,00
-2736,13	-10,00
-2725,48	98,00
-2714,84	-28,00
-2704,22	166,00
-2693,61	68,00
-2683,02	-19,00
-2672,45	146,00
-2661,89	4,00
-2651,34	-103,00
-2640,81	-5,00
-2630,30	117,00
-2619,80	89,00
-2609,31	130,00
-2598,84	-38,00
-2588,39	49,00
-2577,95	131,00
-2567,52	10,00
-2557,11	-38,00
-2546,71	145,00
-2536,33	154,00
-2525,97	15,00
-2515,62	98,00
-2505,28	119,00
-2494,96	23,00
-2484,65	50,00
-2474,36	350,00
-2464,08	68,00
-2453,82	66,00
-2443,57	118,00
-2433,33	95,00
-2423,11	171,00
-2412,91	-3,00
-2402,72	111,00
-2392,54	166,00
-2382,38	102,00
-2372,23	43,00
-2362,09	704,00
-2351,97	95,00
-2341,87	22,00
-2331,78	-15,00
-2321,70	0,00
-2311,64	105,00
-2301,59	47,00
-2291,55	115,00
-2281,53	-49,00
-2271,53	-19,00
-2261,53	74,00
-2251,55	-7,00
-2241,59	128,00
-2231,64	16,00
-2221,70	72,00
-2211,78	-18,00
-2201,87	165,00
-2191,97	-31,00
-2182,09	56,00
-2172,22	117,00
-2162,37	50,00
-2152,53	113,00
-2142,70	-30,00
-2132,89	118,00
-2123,09	13,00
-2113,30	75,00
-2103,53	64,00
-2093,77	107,00
-2084,02	-19,00
-2074,29	92,00
-2064,57	32,00
-2054,86	75,00
-2045,17	10,00
-2035,49	117,00
-2025,82	-17,00
-2016,17	64,00
-2006,53	131,00
-1996,91	-36,00
-1987,29	176,00
-1977,69	38,00
-1968,11	119,00
-1958,53	28,00
-1948,97	29,00
-1939,42	234,00
-1929,89	41,00
-1920,37	182,00
-1910,86	21,00
-1901,36	58,00
-1891,88	111,00
-1882,41	45,00
-1872,95	117,00
-1863,51	35,00
-1854,08	82,00
-1844,66	157,00
-1835,26	171,00
-1825,86	30,00
-1816,48	67,00
-1807,11	69,00
-1797,76	-5,00
-1788,42	52,00
-1779,09	75,00
-1769,77	17,00
-1760,47	118,00
-1751,17	117,00
-1741,89	-29,00
-1732,63	93,00
-1723,37	185,00
-1714,13	82,00
-1704,90	78,00
-1695,68	63,00
-1686,48	99,00
-1677,29	118,00
-1668,11	142,00
-1658,94	90,00
-1649,78	35,00
-1640,64	150,00
-1631,51	29,00
-1622,39	67,00
-1613,28	89,00
-1604,19	-32,00
-1595,10	137,00
-1586,03	103,00
-1576,97	-18,00
-1567,93	39,00
-1558,89	51,00
-1549,87	29,00
-1540,86	143,00
-1531,86	88,00
-1522,87	69,00
-1513,90	204,00
-1504,93	-40,00
-1495,98	21,00
-1487,04	193,00
-1478,12	217,00
-1469,20	27,00
-1460,30	100,00
-1451,40	43,00
-1442,52	137,00
-1433,65	86,00
-1424,80	88,00
-1415,95	80,00
-1407,12	115,00
-1398,30	262,00
-1389,48	-2,00
-1380,69	108,00
-1371,90	72,00
-1363,12	208,00
-1354,36	-27,00
-1345,60	76,00
-1336,86	15,00
-1328,13	212,00
-1319,41	-6,00
-1310,70	188,00
-1302,01	26,00
-1293,32	2,00
-1284,65	80,00
-1275,99	31,00
-1267,33	70,00
-1258,69	78,00
-1250,06	136,00
-1241,45	119,00
-1232,84	16,00
-1224,25	22,00
-1215,66	34,00
-1207,09	37,00
-1198,53	72,00
-1189,97	188,00
-1181,43	88,00
-1172,91	96,00
-1164,39	102,00
-1155,88	69,00
-1147,38	25,00
-1138,90	-78,00
-1130,43	92,00
-1121,96	223,00
-1113,51	148,00
-1105,07	176,00
-1096,64	57,00
-1088,22	137,00
-1079,81	213,00
-1071,41	89,00
-1063,02	194,00
-1054,65	60,00
-1046,28	74,00
-1037,92	-2,00
-1029,58	191,00
-1021,24	59,00
-1012,92	37,00
-1004,61	-68,00
-996,30	146,00
-988,01	-5,00
-979,73	-26,00
-971,46	82,00
-963,20	-16,00
-954,95	18,00
-946,71	124,00
-938,48	35,00
-930,26	30,00
-922,06	95,00
-913,86	33,00
-905,67	105,00
-897,49	34,00
-889,33	13,00
-881,17	70,00
-873,02	31,00
-864,89	167,00
-856,76	166,00
-848,65	154,00
-840,54	-12,00
-832,45	13,00
-824,36	104,00
-816,29	70,00
-808,22	57,00
-800,17	-41,00
-792,12	174,00
-784,09	137,00
-776,06	1,00
-768,05	83,00
-760,04	55,00
-752,05	185,00
-744,07	47,00
-736,09	-50,00
-728,13	96,00
-720,17	58,00
-712,23	82,00
-704,29	57,00
-696,37	108,00
-688,45	132,00
-680,55	187,00
-672,65	46,00
-664,77	145,00
-656,89	12,00
-649,03	59,00
-641,17	50,00
-633,32	-54,00
-625,49	116,00
-617,66	19,00
-609,84	45,00
-602,03	49,00
-594,23	35,00
-586,45	4,00
-578,67	91,00
-570,90	28,00
-563,14	63,00
-555,39	32,00
-547,65	68,00
-539,91	78,00
-532,19	49,00
-524,48	117,00
-516,78	68,00
-509,08	116,00
-501,40	71,00
-493,72	34,00
-486,06	132,00
-478,40	52,00
-470,76	132,00
-463,12	133,00
-455,49	61,00
-447,87	111,00
-440,26	132,00
-432,66	-60,00
-425,07	41,00
-417,49	175,00
-409,92	82,00
-402,35	119,00
-394,80	87,00
-387,25	65,00
-379,72	33,00
-372,19	75,00
-364,67	118,00
-357,17	180,00
-349,67	64,00
-342,18	106,00
-334,69	67,00
-327,22	-21,00
-319,76	76,00
-312,30	139,00
-304,86	185,00
-297,42	62,00
-290,00	87,00
-282,58	103,00
-275,17	90,00
-267,77	121,00
-260,37	138,00
-252,99	213,00
-245,62	97,00
-238,25	84,00
-230,90	84,00
-223,55	92,00
-216,21	178,00
-208,88	191,00
-201,56	132,00
-194,25	237,00
-186,94	236,00
-179,65	278,00
-172,36	187,00
-165,08	386,00
-157,81	88,00
-150,55	421,00
-143,30	350,00
-136,06	421,00
-128,82	443,00
-121,60	479,00
-114,38	461,00
-107,17	498,00
-99,97	508,00
-92,78	582,00
-85,60	680,00
-78,42	981,00
-71,25	1029,00
-64,10	1156,00
-56,95	1351,00
-49,81	1644,00
-42,67	1864,00
-35,55	2422,00
-28,43	3170,00
-21,33	5463,00
-14,23	18147,00
-7,14	55164,00
-0,05	54791,00
7,02	54542,00
14,09	54846,00
21,14	16407,00
28,19	6790,00
35,23	4153,00
42,27	3205,00
49,29	2651,00
56,31	2238,00
63,32	1897,00
70,32	1548,00
77,31	1299,00
84,29	1162,00
91,27	1112,00
98,23	881,00
105,19	917,00
112,14	1001,00
119,09	1175,00
126,02	1779,00
132,95	2070,00
139,87	2018,00
146,78	1955,00
153,68	1839,00
160,58	1844,00
167,46	1870,00
174,34	1903,00
181,21	1910,00
188,08	1741,00
194,93	1694,00
201,78	1701,00
208,62	1734,00
215,45	1822,00
222,27	1750,00
229,09	1822,00
235,90	1726,00
242,70	1642,00
249,49	1626,00
256,27	1582,00
263,05	1627,00
269,82	1694,00
276,58	1667,00
283,33	1671,00
290,08	1608,00
296,82	1495,00
303,55	1501,00
310,27	1488,00
316,98	1556,00
323,69	1556,00
330,39	1498,00
337,08	1511,00
343,76	1420,00
350,44	1486,00
357,11	1428,00
363,77	1451,00
370,42	1481,00
377,07	1506,00
383,71	1563,00
390,34	1384,00
396,96	1519,00
403,58	1509,00
410,19	1522,00
416,79	1503,00
423,38	1468,00
429,97	1348,00
436,55	1407,00
443,12	1445,00
449,68	1324,00
456,24	1266,00
462,79	1206,00
469,33	1366,00
475,86	1188,00
482,39	1264,00
488,91	1351,00
495,42	1325,00
501,93	1277,00
508,42	1230,00
514,91	1294,00
521,40	1282,00
527,87	1192,00
534,34	1183,00
540,80	1199,00
547,25	1239,00
553,70	1206,00
560,14	1149,00
566,57	1180,00
573,00	1149,00
579,41	1177,00
585,83	1091,00
592,23	1065,00
598,62	1130,00
605,01	1079,00
611,40	1136,00
617,77	1139,00
624,14	1112,00
630,50	1078,00
636,85	1094,00
643,20	1045,00
649,54	1109,00
655,87	1041,00
662,20	981,00
668,52	1055,00
674,83	943,00
681,13	1070,00
687,43	885,00
693,72	1040,00
700,00	965,00
706,28	1074,00
712,55	974,00
718,81	1082,00
725,07	1052,00
731,32	875,00
737,56	1040,00
743,79	1071,00
750,02	1062,00
756,24	921,00
762,46	980,00
768,67	925,00
774,87	944,00
781,06	1014,00
787,25	936,00
793,43	975,00
799,60	992,00
805,77	751,00
811,93	1077,00
818,08	1020,00
824,23	1018,00
830,37	1046,00
836,50	1037,00
842,63	943,00
848,75	992,00
854,87	931,00
860,97	1057,00
867,07	1110,00
873,17	906,00
879,25	941,00
885,33	940,00
891,41	1047,00
897,47	900,00
903,53	976,00
909,59	1055,00
915,63	993,00
921,67	912,00
927,71	782,00
933,74	914,00
939,76	859,00
945,77	826,00
951,78	751,00
957,78	845,00
963,78	973,00
969,77	855,00
975,75	882,00
981,72	789,00
987,69	851,00
993,66	865,00
999,61	837,00
1005,56	790,00
1011,51	985,00
1017,44	800,00
1023,37	774,00
1029,30	885,00
1035,22	1037,00
1041,13	939,00
1047,03	841,00
1052,93	943,00
1058,83	1071,00
1064,71	1152,00
1070,59	1098,00
1076,47	1010,00
1082,33	984,00
1088,20	882,00
1094,05	912,00
1099,90	787,00
1105,74	854,00
1111,58	927,00
1117,41	912,00
1123,23	1070,00
1129,05	1133,00
1134,86	1071,00
1140,67	915,00
1146,47	918,00
1152,26	859,00
1158,05	784,00
1163,83	881,00
1169,60	785,00
1175,37	827,00
1181,13	795,00
1186,89	736,00
1192,64	771,00
1198,38	740,00
1204,12	746,00
1209,85	778,00
1215,58	845,00
1221,30	668,00
1227,02	867,00
1232,72	851,00
1238,43	696,00
1244,12	809,00
1249,81	733,00
1255,50	903,00
1261,17	861,00
1266,85	859,00
1272,51	852,00
1278,17	914,00
1283,83	914,00
1289,47	1225,00
1295,12	1425,00
1300,75	1314,00
1306,38	1145,00
1312,01	1126,00
1317,63	1002,00
1323,24	820,00
1328,85	920,00
1334,45	878,00
1340,04	901,00
1345,63	837,00
1351,22	842,00
1356,80	924,00
1362,37	820,00
1367,93	718,00
1373,49	924,00
1379,05	911,00
1384,60	951,00
1390,14	941,00
1395,68	832,00
1401,21	766,00
1406,74	883,00
1412,26	968,00
1417,77	872,00
1423,28	1016,00
1428,78	1164,00
1434,28	1320,00
1439,77	1429,00
1445,26	1430,00
1450,74	1391,00
1456,22	1261,00
1461,68	1256,00
1467,15	1131,00
1472,61	1073,00
1478,06	1069,00
1483,51	941,00
1488,95	920,00
1494,38	878,00
1499,81	834,00
1505,24	663,00
1510,65	684,00
1516,07	741,00
1521,48	792,00
1526,88	727,00
1532,27	768,00
1537,67	857,00
1543,05	639,00
1548,43	718,00
1553,81	818,00
1559,18	695,00
1564,54	763,00
1569,90	731,00
1575,25	710,00
1580,60	707,00
1585,94	618,00
1591,28	640,00
1596,61	699,00
1601,93	676,00
1607,25	701,00
1612,57	679,00
1617,88	829,00
1623,18	754,00
1628,48	644,00
1633,77	612,00
1639,06	426,00
1644,34	683,00
1649,62	695,00
1654,89	867,00
1660,16	577,00
1665,42	609,00
1670,67	615,00
1675,92	558,00
1681,17	634,00
1686,41	565,00
1691,64	589,00
1696,87	589,00
1702,10	524,00
1707,32	620,00
1712,53	575,00
1717,74	514,00
1722,94	523,00
1728,14	617,00
1733,33	684,00
1738,52	490,00
1743,70	651,00
1748,88	639,00
1754,05	579,00
1759,22	602,00
1764,38	578,00
1769,53	501,00
1774,69	607,00
1779,83	518,00
1784,97	545,00
1790,11	433,00
1795,24	667,00
1800,36	632,00
1805,48	614,00
1810,60	572,00
1815,71	472,00
1820,82	520,00
1825,92	463,00
1831,01	572,00
1836,10	551,00
1841,19	558,00
1846,26	504,00
1851,34	537,00
1856,41	454,00
1861,47	421,00
1866,53	468,00
1871,59	406,00
1876,64	353,00
1881,68	368,00
1886,72	477,00
1891,76	503,00
1896,79	489,00
1901,81	511,00
1906,83	513,00
1911,85	432,00
1916,86	468,00
1921,86	416,00
1926,86	475,00
1931,86	501,00
1936,85	329,00
1941,83	474,00
1946,81	395,00
1951,79	447,00
1956,76	367,00
1961,72	321,00
1966,68	362,00
1971,64	317,00
1976,59	391,00
1981,54	397,00
1986,48	345,00
1991,42	308,00
1996,35	430,00
2001,27	343,00
2006,20	468,00
2011,11	463,00
2016,03	431,00
2020,93	340,00
2025,84	401,00
2030,73	339,00
2035,63	424,00
2040,52	429,00
2045,40	352,00
2050,28	278,00
2055,15	292,00
2060,02	353,00
2064,89	349,00
2069,75	410,00
2074,60	291,00
2079,46	408,00
2084,30	458,00
2089,14	328,00
2093,98	229,00
2098,81	370,00
2103,64	368,00
2108,46	332,00
2113,28	373,00
2118,09	273,00
2122,90	363,00
2127,70	360,00
2132,50	304,00
2137,30	291,00
2142,09	389,00
2146,87	296,00
2151,66	327,00
2156,43	358,00
2161,20	254,00
2165,97	455,00
2170,73	319,00
2175,49	379,00
2180,24	390,00
2184,99	488,00
2189,74	297,00
2194,48	297,00
2199,21	342,00
2203,94	318,00
2208,67	307,00
2213,39	408,00
2218,11	108,00
2222,82	376,00
2227,53	227,00
2232,23	326,00
2236,93	320,00
2241,63	353,00
2246,32	381,00
2251,00	333,00
2255,68	303,00
2260,36	329,00
2265,03	299,00
2269,70	149,00
2274,36	251,00
2279,02	210,00
2283,68	261,00
2288,33	280,00
2292,97	195,00
2297,61	230,00
2302,25	398,00
2306,88	349,00
2311,51	271,00
2316,14	262,00
2320,75	301,00
2325,37	310,00
2329,98	313,00
2334,59	261,00
2339,19	291,00
2343,79	240,00
2348,38	254,00
2352,97	244,00
2357,55	233,00
2362,13	325,00
2366,71	383,00
2371,28	251,00
2375,85	238,00
2380,41	257,00
2384,97	242,00
2389,52	164,00
2394,07	260,00
2398,62	274,00
2403,16	261,00
2407,70	363,00
2412,23	267,00
2416,76	299,00
2421,29	276,00
2425,81	271,00
2430,32	303,00
2434,84	194,00
2439,34	184,00
2443,85	199,00
2448,35	162,00
2452,84	212,00
2457,33	169,00
2461,82	267,00
2466,30	263,00
2470,78	289,00
2475,25	236,00
2479,72	323,00
2484,19	191,00
2488,65	314,00
2493,11	137,00
2497,56	255,00
2502,01	223,00
2506,46	214,00
2510,90	169,00
2515,34	296,00
2519,77	142,00
2524,20	330,00
2528,62	63,00
2533,04	347,00
2537,46	173,00
2541,87	197,00
2546,28	217,00
2550,68	217,00
2555,08	165,00
2559,48	273,00
2563,87	95,00
2568,26	116,00
2572,64	230,00
2577,02	309,00
2581,40	152,00
2585,77	169,00
2590,14	178,00
2594,50	148,00
2598,86	183,00
2603,22	205,00
2607,57	154,00
2611,92	233,00
2616,26	176,00
2620,60	268,00
2624,94	137,00
2629,27	303,00
2633,60	166,00
2637,92	271,00
2642,24	172,00
2646,56	139,00
2650,87	161,00
2655,18	103,00
2659,48	255,00
2663,78	272,00
2668,08	339,00
2672,37	359,00
2676,66	201,00
2680,95	194,00
2685,23	174,00
2689,50	255,00
2693,78	213,00
2698,05	161,00
2702,31	169,00
2706,57	177,00
2710,83	283,00
2715,08	401,00
2719,33	283,00
2723,58	311,00
2727,82	318,00
2732,06	210,00
2736,29	328,00
2740,53	314,00
2744,75	207,00
2748,97	224,00
2753,19	224,00
2757,41	353,00
2761,62	259,00
2765,83	158,00
2770,03	145,00
2774,23	143,00
2778,43	239,00
2782,62	269,00
2786,81	259,00
2791,00	170,00
2795,18	284,00
2799,35	198,00
2803,53	345,00
2807,70	371,00
2811,86	312,00
2816,03	357,00
2820,19	212,00
2824,34	315,00
2828,49	554,00
2832,64	534,00
2836,78	500,00
2840,92	702,00
2845,06	799,00
2849,19	801,00
2853,32	914,00
2857,45	938,00
2861,57	889,00
2865,69	912,00
2869,80	997,00
2873,91	887,00
2878,02	959,00
2882,12	918,00
2886,22	960,00
2890,32	1047,00
2894,41	846,00
2898,50	903,00
2902,58	871,00
2906,67	752,00
2910,74	694,00
2914,82	587,00
2918,89	665,00
2922,96	659,00
2927,02	488,00
2931,08	628,00
2935,13	458,00
2939,19	525,00
2943,24	398,00
2947,28	425,00
2951,32	292,00
2955,36	421,00
2959,40	210,00
2963,43	239,00
2967,46	175,00
2971,48	329,00
2975,50	164,00
2979,52	257,00
2983,53	207,00
2987,54	252,00
2991,55	140,00
2995,55	144,00
2999,55	200,00
3003,54	97,00
3007,54	62,00
3011,53	153,00
3015,51	170,00
3019,49	128,00
3023,47	204,00
3027,45	194,00
3031,42	198,00
3035,39	126,00
3039,35	167,00
3043,31	173,00
3047,27	164,00
3051,22	164,00
3055,17	112,00
3059,12	53,00
3063,06	105,00
3067,00	80,00
3070,94	135,00
3074,87	71,00
3078,80	182,00
3082,73	145,00
3086,65	79,00
3090,57	83,00
3094,49	175,00
3098,40	123,00
3102,31	133,00
3106,22	200,00
3110,12	45,00
3114,02	260,00
3117,92	86,00
3121,81	115,00
3125,70	144,00
3129,58	228,00
3133,47	124,00
3137,34	7,00
3141,22	124,00
3145,09	131,00
3148,96	78,00
3152,83	108,00
3156,69	62,00
3160,55	201,00
3164,40	57,00
3168,26	85,00
3172,10	201,00
3175,95	181,00
3179,79	143,00
3183,63	117,00
3187,47	259,00
3191,30	172,00
3195,13	116,00
3198,95	38,00
3202,78	128,00
3206,60	118,00
3210,41	83,00
3214,23	43,00
3218,03	63,00
3221,84	194,00
3225,64	18,00
3229,44	103,00
3233,24	248,00
3237,03	107,00
3240,82	85,00
3244,61	76,00
3248,39	-20,00
3252,17	177,00
3255,95	155,00
3259,72	209,00
3263,49	132,00
3267,26	92,00
3271,03	133,00
3274,79	87,00
3278,54	247,00
3282,30	156,00
3286,05	78,00
3289,80	127,00
3293,54	92,00
3297,29	166,00
3301,02	31,00
3304,76	68,00
3308,49	26,00
3312,22	25,00
3315,95	180,00
3319,67	39,00
3323,39	187,00
3327,10	24,00
3330,82	118,00
3334,53	132,00
3338,24	175,00
3341,94	193,00
3345,64	155,00
3349,34	42,00
3353,03	174,00
3356,72	126,00
3360,41	57,00
3364,10	72,00
3367,78	109,00
3371,46	99,00
3375,13	132,00
3378,81	227,00
3382,48	97,00
3386,14	284,00
3389,81	-26,00
3393,47	66,00
3397,12	61,00
3400,78	165,00
3404,43	146,00
3408,08	48,00
3411,72	126,00
3415,36	62,00
3419,00	14,00
3422,64	-50,00
3426,27	149,00
3429,90	150,00
3433,53	114,00
3437,15	177,00
3440,77	87,00
3444,39	68,00
3448,00	29,00
3451,62	147,00
3455,22	1,00
3458,83	153,00
3462,43	157,00
3466,03	49,00
3469,63	-58,00
3473,22	97,00
3476,81	49,00
3480,40	125,00
3483,99	92,00
3487,57	165,00
3491,15	78,00
3494,72	48,00
3498,29	182,00
3501,86	123,00
3505,43	88,00
3508,99	119,00
3512,56	69,00
3516,11	145,00
3519,67	115,00
3523,22	82,00
3526,77	36,00
3530,32	92,00
3533,86	-32,00
3537,40	11,00
3540,94	148,00
3544,47	-1,00
3548,00	134,00
3551,53	150,00
3555,06	73,00
3558,58	26,00
3562,10	69,00
3565,62	119,00
3569,13	77,00
3572,64	122,00
3576,15	35,00
3579,66	173,00
3583,16	63,00
3586,66	24,00
3590,16	8,00
3593,65	89,00
3597,14	-59,00
3600,63	88,00
3604,11	6,00
3607,60	36,00
3611,08	161,00
3614,55	52,00
3618,03	97,00
3621,50	66,00
3624,97	204,00
3628,43	25,00
3631,90	12,00
3635,36	84,00
3638,81	111,00
3642,27	-36,00
3645,72	184,00
3649,17	74,00
3652,61	-3,00
3656,06	-37,00
3659,50	78,00
3662,93	72,00
3666,37	13,00
3669,80	20,00
3673,23	126,00
3676,65	145,00
3680,08	45,00
3683,50	141,00
3686,92	57,00
3690,33	52,00
3693,74	108,00
3697,15	83,00
3700,56	66,00
3703,96	-47,00
3707,36	34,00
3710,76	-20,00
3714,16	119,00
3717,55	-50,00
3720,94	64,00
3724,33	30,00
3727,71	18,00
3731,10	28,00
3734,48	27,00
3737,85	22,00
3741,23	-49,00
3744,60	37,00
3747,97	-121,00
3751,33	222,00
3754,69	131,00
3758,05	106,00
3761,41	-65,00
3764,77	53,00
3768,12	7,00
3771,47	59,00
3774,82	19,00
3778,16	-4,00
3781,50	3,00
3784,84	4,00
3788,18	7,00
>>>>>End Processed Spectral Data<<<<<
