SpectraSuite Data File
++++++++++++++++++++++++++++++++++++
Date: Mon Mar 09 15:34:35 ICT 2026
User: Administrator
Dark Spectrum Present: Yes
Reference Spectrum Present: No
Number of Sampled Component Spectra: 1
Spectrometers: MAYP113682
Integration Time (usec): 3000000 (MAYP113682)
Spectra Averaged: 1 (MAYP113682)
Boxcar Smoothing: 0 (MAYP113682)
Correct for Electrical Dark: No (MAYP113682)
Strobe/Lamp Enabled: No (MAYP113682)
Correct for Detector Non-linearity: No (MAYP113682)
Correct for Stray Light: No (MAYP113682)
Number of Pixels in Processed Spectrum: 2068
>>>>>Begin Processed Spectral Data<<<<<
-37534,58	6,00
-37414,56	-7,00
-37295,11	2,00
-37176,24	1,00
-37057,95	117,00
-36940,22	59,00
-36823,05	76,00
-36706,45	187,00
-36590,40	223,00
-36474,90	62,00
-36359,95	251,00
-36245,55	212,00
-36131,68	82,00
-36018,35	226,00
-35905,55	141,00
-35793,29	148,00
-35681,54	126,00
-35570,32	55,00
-35459,62	216,00
-35349,43	-68,00
-35239,75	167,00
-35130,58	223,00
-35021,91	146,00
-34913,74	124,00
-34806,07	192,00
-34698,89	92,00
-34592,20	123,00
-34486,00	274,00
-34380,28	155,00
-34275,04	143,00
-34170,27	239,00
-34065,98	169,00
-33962,16	247,00
-33858,81	144,00
-33755,92	150,00
-33653,49	163,00
-33551,52	136,00
-33450,01	249,00
-33348,94	100,00
-33248,33	171,00
-33148,16	202,00
-33048,43	180,00
-32949,14	260,00
-32850,29	249,00
-32751,87	258,00
-32653,89	176,00
-32556,33	146,00
-32459,20	133,00
-32362,49	198,00
-32266,19	152,00
-32170,32	206,00
-32074,86	227,00
-31979,82	236,00
-31885,18	126,00
-31790,95	84,00
-31697,12	213,00
-31603,69	221,00
-31510,67	111,00
-31418,04	223,00
-31325,80	163,00
-31233,95	245,00
-31142,49	228,00
-31051,42	158,00
-30960,73	120,00
-30870,43	290,00
-30780,50	150,00
-30690,95	246,00
-30601,77	273,00
-30512,97	105,00
-30424,53	177,00
-30336,46	220,00
-30248,76	225,00
-30161,42	299,00
-30074,44	258,00
-29987,81	178,00
-29901,55	260,00
-29815,63	168,00
-29730,07	178,00
-29644,86	-4,00
-29560,00	238,00
-29475,48	261,00
-29391,30	95,00
-29307,47	196,00
-29223,97	136,00
-29140,81	169,00
-29057,99	222,00
-28975,50	131,00
-28893,34	280,00
-28811,51	236,00
-28730,00	205,00
-28648,82	169,00
-28567,97	234,00
-28487,43	15,00
-28407,21	115,00
-28327,32	122,00
-28247,73	78,00
-28168,46	233,00
-28089,50	-15,00
-28010,85	199,00
-27932,51	131,00
-27854,48	176,00
-27776,75	179,00
-27699,32	279,00
-27622,19	236,00
-27545,37	270,00
-27468,84	198,00
-27392,60	129,00
-27316,66	143,00
-27241,01	193,00
-27165,66	257,00
-27090,59	71,00
-27015,81	237,00
-26941,31	200,00
-26867,10	280,00
-26793,17	239,00
-26719,52	96,00
-26646,15	133,00
-26573,06	171,00
-26500,24	223,00
-26427,70	109,00
-26355,43	131,00
-26283,43	104,00
-26211,71	155,00
-26140,25	140,00
-26069,06	215,00
-25998,13	132,00
-25927,46	168,00
-25857,06	194,00
-25786,92	193,00
-25717,04	205,00
-25647,42	197,00
-25578,05	122,00
-25508,94	223,00
-25440,09	143,00
-25371,48	140,00
-25303,13	233,00
-25235,02	235,00
-25167,17	118,00
-25099,56	189,00
-25032,19	242,00
-24965,07	257,00
-24898,20	215,00
-24831,56	121,00
-24765,17	187,00
-24699,01	165,00
-24633,10	230,00
-24567,41	155,00
-24501,97	110,00
-24436,75	258,00
-24371,77	270,00
-24307,03	239,00
-24242,51	241,00
-24178,22	105,00
-24114,16	101,00
-24050,32	255,00
-23986,71	92,00
-23923,32	197,00
-23860,16	175,00
-23797,22	161,00
-23734,50	204,00
-23672,00	173,00
-23609,71	120,00
-23547,65	207,00
-23485,80	283,00
-23424,16	197,00
-23362,74	199,00
-23301,53	121,00
-23240,54	181,00
-23179,75	274,00
-23119,17	276,00
-23058,80	124,00
-22998,64	48,00
-22938,68	254,00
-22878,93	128,00
-22819,39	186,00
-22760,04	74,00
-22700,90	253,00
-22641,96	190,00
-22583,22	124,00
-22524,68	144,00
-22466,33	191,00
-22408,19	285,00
-22350,23	147,00
-22292,48	160,00
-22234,92	195,00
-22177,55	161,00
-22120,37	176,00
-22063,38	145,00
-22006,58	131,00
-21949,98	269,00
-21893,56	116,00
-21837,33	205,00
-21781,28	153,00
-21725,42	230,00
-21669,74	246,00
-21614,25	246,00
-21558,94	65,00
-21503,81	250,00
-21448,86	258,00
-21394,10	110,00
-21339,51	182,00
-21285,10	170,00
-21230,86	156,00
-21176,81	213,00
-21122,93	238,00
-21069,22	175,00
-21015,69	57,00
-20962,33	118,00
-20909,14	262,00
-20856,13	130,00
-20803,28	127,00
-20750,61	140,00
-20698,10	57,00
-20645,76	187,00
-20593,59	287,00
-20541,59	202,00
-20489,75	290,00
-20438,07	129,00
-20386,56	169,00
-20335,22	223,00
-20284,03	148,00
-20233,01	252,00
-20182,15	201,00
-20131,45	209,00
-20080,91	177,00
-20030,52	224,00
-19980,30	138,00
-19930,23	80,00
-19880,32	392,00
-19830,56	115,00
-19780,96	91,00
-19731,52	74,00
-19682,23	150,00
-19633,09	172,00
-19584,10	217,00
-19535,26	194,00
-19486,58	162,00
-19438,04	180,00
-19389,66	227,00
-19341,42	137,00
-19293,33	141,00
-19245,39	128,00
-19197,60	215,00
-19149,95	185,00
-19102,45	173,00
-19055,09	73,00
-19007,87	197,00
-18960,80	208,00
-18913,87	363,00
-18867,09	105,00
-18820,44	178,00
-18773,94	224,00
-18727,57	191,00
-18681,35	213,00
-18635,26	29,00
-18589,31	153,00
-18543,50	323,00
-18497,83	235,00
-18452,29	97,00
-18406,89	140,00
-18361,63	68,00
-18316,50	179,00
-18271,50	167,00
-18226,63	159,00
-18181,90	212,00
-18137,30	189,00
-18092,84	185,00
-18048,50	118,00
-18004,29	239,00
-17960,22	238,00
-17916,27	112,00
-17872,45	267,00
-17828,76	98,00
-17785,20	103,00
-17741,77	33,00
-17698,46	207,00
-17655,28	150,00
-17612,22	137,00
-17569,29	166,00
-17526,48	199,00
-17483,79	272,00
-17441,23	151,00
-17398,79	174,00
-17356,48	276,00
-17314,28	101,00
-17272,21	124,00
-17230,26	207,00
-17188,42	156,00
-17146,71	173,00
-17105,12	120,00
-17063,64	193,00
-17022,28	118,00
-16981,04	169,00
-16939,92	192,00
-16898,91	193,00
-16858,02	138,00
-16817,25	262,00
-16776,59	164,00
-16736,04	183,00
-16695,61	252,00
-16655,29	56,00
-16615,09	246,00
-16574,99	166,00
-16535,01	121,00
-16495,15	213,00
-16455,39	119,00
-16415,74	124,00
-16376,21	138,00
-16336,78	80,00
-16297,46	62,00
-16258,26	172,00
-16219,16	241,00
-16180,17	131,00
-16141,28	35,00
-16102,51	127,00
-16063,84	142,00
-16025,27	54,00
-15986,82	200,00
-15948,46	162,00
-15910,22	200,00
-15872,07	277,00
-15834,04	137,00
-15796,10	190,00
-15758,27	239,00
-15720,54	273,00
-15682,91	205,00
-15645,39	135,00
-15607,97	89,00
-15570,64	137,00
-15533,42	200,00
-15496,30	206,00
-15459,28	197,00
-15422,36	110,00
-15385,54	121,00
-15348,82	225,00
-15312,19	97,00
-15275,66	173,00
-15239,23	175,00
-15202,90	150,00
-15166,67	189,00
-15130,53	67,00
-15094,48	100,00
-15058,54	251,00
-15022,68	177,00
-14986,93	216,00
-14951,26	105,00
-14915,69	159,00
-14880,22	139,00
-14844,84	230,00
-14809,55	216,00
-14774,35	252,00
-14739,25	211,00
-14704,24	156,00
-14669,32	97,00
-14634,49	96,00
-14599,75	279,00
-14565,10	171,00
-14530,55	185,00
-14496,08	156,00
-14461,70	83,00
-14427,41	201,00
-14393,21	158,00
-14359,10	204,00
-14325,07	145,00
-14291,14	156,00
-14257,29	183,00
-14223,52	168,00
-14189,85	176,00
-14156,26	184,00
-14122,76	140,00
-14089,34	138,00
-14056,01	217,00
-14022,76	126,00
-13989,60	214,00
-13956,52	139,00
-13923,53	111,00
-13890,62	147,00
-13857,79	129,00
-13825,05	255,00
-13792,39	205,00
-13759,81	126,00
-13727,31	165,00
-13694,90	190,00
-13662,57	173,00
-13630,31	222,00
-13598,14	209,00
-13566,05	38,00
-13534,05	118,00
-13502,12	174,00
-13470,27	83,00
-13438,50	213,00
-13406,80	202,00
-13375,19	158,00
-13343,66	216,00
-13312,20	212,00
-13280,83	163,00
-13249,53	100,00
-13218,30	140,00
-13187,16	123,00
-13156,09	149,00
-13125,10	170,00
-13094,18	274,00
-13063,34	186,00
-13032,58	147,00
-13001,89	165,00
-12971,28	210,00
-12940,74	178,00
-12910,27	60,00
-12879,88	78,00
-12849,57	253,00
-12819,33	148,00
-12789,16	179,00
-12759,06	179,00
-12729,04	160,00
-12699,09	509,00
-12669,21	212,00
-12639,41	201,00
-12609,68	154,00
-12580,02	121,00
-12550,43	132,00
-12520,91	106,00
-12491,46	180,00
-12462,08	137,00
-12432,77	184,00
-12403,54	231,00
-12374,37	26,00
-12345,27	163,00
-12316,24	122,00
-12287,29	187,00
-12258,40	123,00
-12229,57	225,00
-12200,82	260,00
-12172,14	199,00
-12143,52	64,00
-12114,97	212,00
-12086,49	161,00
-12058,07	193,00
-12029,73	182,00
-12001,44	249,00
-11973,23	131,00
-11945,08	200,00
-11917,00	183,00
-11888,98	45,00
-11861,03	219,00
-11833,15	69,00
-11805,32	63,00
-11777,57	171,00
-11749,88	115,00
-11722,25	221,00
-11694,69	144,00
-11667,19	219,00
-11639,75	102,00
-11612,38	164,00
-11585,07	44,00
-11557,83	111,00
-11530,65	146,00
-11503,53	114,00
-11476,47	239,00
-11449,48	173,00
-11422,54	78,00
-11395,67	87,00
-11368,86	83,00
-11342,11	204,00
-11315,43	134,00
-11288,80	213,00
-11262,23	-22,00
-11235,73	252,00
-11209,28	124,00
-11182,90	190,00
-11156,57	216,00
-11130,31	199,00
-11104,10	199,00
-11077,96	209,00
-11051,87	136,00
-11025,84	157,00
-10999,87	67,00
-10973,96	143,00
-10948,11	238,00
-10922,31	224,00
-10896,58	135,00
-10870,90	164,00
-10845,28	106,00
-10819,71	122,00
-10794,20	248,00
-10768,75	146,00
-10743,36	252,00
-10718,02	145,00
-10692,74	296,00
-10667,52	129,00
-10642,35	155,00
-10617,24	97,00
-10592,18	268,00
-10567,18	28,00
-10542,23	272,00
-10517,34	124,00
-10492,51	168,00
-10467,72	150,00
-10443,00	90,00
-10418,32	70,00
-10393,70	171,00
-10369,14	183,00
-10344,63	244,00
-10320,17	231,00
-10295,77	218,00
-10271,42	125,00
-10247,12	145,00
-10222,88	191,00
-10198,68	149,00
-10174,54	250,00
-10150,46	62,00
-10126,42	87,00
-10102,44	147,00
-10078,51	58,00
-10054,63	22,00
-10030,80	55,00
-10007,03	31,00
-9983,30	141,00
-9959,63	77,00
-9936,01	211,00
-9912,44	31,00
-9888,92	99,00
-9865,44	77,00
-9842,02	138,00
-9818,65	142,00
-9795,33	1,00
-9772,06	-52,00
-9748,84	19,00
-9725,67	-28,00
-9702,55	-17,00
-9679,47	-99,00
-9656,45	-102,00
-9633,47	-112,00
-9610,55	-117,00
-9587,67	-133,00
-9564,84	-93,00
-9542,06	-167,00
-9519,32	-402,00
-9496,64	-259,00
-9474,00	-340,00
-9451,41	-423,00
-9428,87	-453,00
-9406,37	-518,00
-9383,92	-380,00
-9361,52	-625,00
-9339,17	-521,00
-9316,86	-545,00
-9294,60	-586,00
-9272,38	-545,00
-9250,21	-536,00
-9228,09	-815,00
-9206,01	-607,00
-9183,98	-631,00
-9162,00	-628,00
-9140,06	-540,00
-9118,16	-709,00
-9096,31	-778,00
-9074,51	-676,00
-9052,75	-648,00
-9031,04	-616,00
-9009,37	-464,00
-8987,74	-515,00
-8966,16	-443,00
-8944,63	-348,00
-8923,14	-476,00
-8901,69	-416,00
-8880,29	-443,00
-8858,93	-300,00
-8837,61	-514,00
-8816,34	-361,00
-8795,11	-580,00
-8773,92	-512,00
-8752,78	-404,00
-8731,68	-243,00
-8710,62	-405,00
-8689,61	-405,00
-8668,63	-491,00
-8647,70	-314,00
-8626,82	-453,00
-8605,97	-422,00
-8585,17	-370,00
-8564,41	-372,00
-8543,69	-366,00
-8523,01	-220,00
-8502,37	-293,00
-8481,78	-284,00
-8461,23	-382,00
-8440,71	-341,00
-8420,24	-447,00
-8399,81	-419,00
-8379,42	-390,00
-8359,08	-188,00
-8338,77	-363,00
-8318,50	-279,00
-8298,27	-183,00
-8278,09	-350,00
-8257,94	-339,00
-8237,83	-344,00
-8217,76	-427,00
-8197,74	-328,00
-8177,75	-329,00
-8157,80	-375,00
-8137,89	-257,00
-8118,02	-270,00
-8098,19	-217,00
-8078,40	-170,00
-8058,65	-230,00
-8038,93	-135,00
-8019,26	-176,00
-7999,62	-151,00
-7980,02	-207,00
-7960,46	-141,00
-7940,94	-201,00
-7921,46	-135,00
-7902,01	-219,00
-7882,60	-116,00
-7863,23	-202,00
-7843,90	-131,00
-7824,61	-169,00
-7805,35	-95,00
-7786,13	-149,00
-7766,95	-147,00
-7747,80	-147,00
-7728,69	-38,00
-7709,62	-179,00
-7690,59	-65,00
-7671,59	-117,00
-7652,63	-132,00
-7633,70	-177,00
-7614,81	-214,00
-7595,96	-136,00
-7577,15	-154,00
-7558,37	-185,00
-7539,62	-43,00
-7520,91	-287,00
-7502,24	-187,00
-7483,60	-147,00
-7465,00	-126,00
-7446,44	-116,00
-7427,91	-227,00
-7409,41	-119,00
-7390,95	-45,00
-7372,53	-66,00
-7354,14	-64,00
-7335,78	-141,00
-7317,46	-23,00
-7299,18	-104,00
-7280,92	-274,00
-7262,71	-125,00
-7244,52	-202,00
-7226,38	-81,00
-7208,26	-174,00
-7190,18	-162,00
-7172,14	-143,00
-7154,12	7,00
-7136,15	-216,00
-7118,20	-142,00
-7100,29	-256,00
-7082,41	-192,00
-7064,57	-241,00
-7046,76	-95,00
-7028,98	-184,00
-7011,24	-1,00
-6993,53	-172,00
-6975,85	-56,00
-6958,20	-42,00
-6940,59	-55,00
-6923,01	-76,00
-6905,46	-32,00
-6887,94	-39,00
-6870,46	2365,00
-6853,01	-136,00
-6835,59	-70,00
-6818,21	-104,00
-6800,85	-23,00
-6783,53	-55,00
-6766,24	74,00
-6748,98	-65,00
-6731,76	-98,00
-6714,56	13,00
-6697,40	-59,00
-6680,26	-37,00
-6663,16	-56,00
-6646,09	-44,00
-6629,05	-82,00
-6612,05	-71,00
-6595,07	-162,00
-6578,13	-152,00
-6561,21	-36,00
-6544,33	-33,00
-6527,47	-8,00
-6510,65	-35,00
-6493,86	-45,00
-6477,10	-45,00
-6460,36	-70,00
-6443,66	-36,00
-6426,99	3,00
-6410,35	46,00
-6393,74	-42,00
-6377,16	-5,00
-6360,61	18,00
-6344,09	-66,00
-6327,59	-35,00
-6311,13	-44,00
-6294,70	-135,00
-6278,29	48,00
-6261,92	-80,00
-6245,58	44,00
-6229,26	-27,00
-6212,97	-8,00
-6196,72	-65,00
-6180,49	65,00
-6164,29	15,00
-6148,12	48,00
-6131,98	-15,00
-6115,86	74,00
-6099,78	-57,00
-6083,72	-66,00
-6067,69	12,00
-6051,69	-17,00
-6035,72	88,00
-6019,78	128,00
-6003,87	-45,00
-5987,98	-13,00
-5972,12	-143,00
-5956,29	-77,00
-5940,49	-32,00
-5924,71	93,00
-5908,96	100,00
-5893,24	35,00
-5877,55	53,00
-5861,89	-36,00
-5846,25	27,00
-5830,64	-63,00
-5815,05	32,00
-5799,50	44,00
-5783,97	-31,00
-5768,47	25,00
-5752,99	-26,00
-5737,55	-3,00
-5722,12	-24,00
-5706,73	-57,00
-5691,36	36,00
-5676,02	7,00
-5660,71	8,00
-5645,42	27,00
-5630,16	98,00
-5614,92	-67,00
-5599,71	-16,00
-5584,53	-47,00
-5569,37	-71,00
-5554,24	-725,00
-5539,14	116,00
-5524,06	59,00
-5509,01	65,00
-5493,98	-19,00
-5478,98	-62,00
-5464,00	43,00
-5449,05	104,00
-5434,13	106,00
-5419,23	138,00
-5404,36	131,00
-5389,51	-44,00
-5374,69	24,00
-5359,89	-108,00
-5345,12	-103,00
-5330,37	106,00
-5315,65	28,00
-5300,95	120,00
-5286,28	-73,00
-5271,63	33,00
-5257,01	57,00
-5242,41	-39,00
-5227,84	-16,00
-5213,29	1,00
-5198,76	5,00
-5184,26	-9,00
-5169,79	12,00
-5155,33	-65,00
-5140,91	102,00
-5126,51	115,00
-5112,13	76,00
-5097,77	-14,00
-5083,44	0,00
-5069,13	15,00
-5054,85	88,00
-5040,59	173,00
-5026,36	20,00
-5012,15	-7,00
-4997,96	-119,00
-4983,80	24,00
-4969,66	85,00
-4955,54	92,00
-4941,44	175,00
-4927,37	56,00
-4913,33	5,00
-4899,30	-73,00
-4885,30	22,00
-4871,33	15,00
-4857,37	95,00
-4843,44	222,00
-4829,53	133,00
-4815,65	-28,00
-4801,79	-18,00
-4787,95	42,00
-4774,13	97,00
-4760,34	35,00
-4746,56	167,00
-4732,82	40,00
-4719,09	89,00
-4705,38	-12,00
-4691,70	119,00
-4678,04	82,00
-4664,41	56,00
-4650,79	162,00
-4637,20	174,00
-4623,63	96,00
-4610,08	108,00
-4596,56	-40,00
-4583,05	-40,00
-4569,57	180,00
-4556,11	160,00
-4542,67	118,00
-4529,25	198,00
-4515,86	111,00
-4502,49	53,00
-4489,13	62,00
-4475,80	114,00
-4462,49	132,00
-4449,21	97,00
-4435,94	105,00
-4422,70	102,00
-4409,47	56,00
-4396,27	158,00
-4383,09	-28,00
-4369,93	139,00
-4356,79	158,00
-4343,67	56,00
-4330,58	-50,00
-4317,50	235,00
-4304,45	121,00
-4291,41	94,00
-4278,40	152,00
-4265,41	140,00
-4252,44	131,00
-4239,49	90,00
-4226,55	96,00
-4213,65	112,00
-4200,76	145,00
-4187,89	117,00
-4175,04	76,00
-4162,21	83,00
-4149,40	97,00
-4136,61	139,00
-4123,85	143,00
-4111,10	185,00
-4098,37	120,00
-4085,66	170,00
-4072,98	7,00
-4060,31	161,00
-4047,66	157,00
-4035,04	185,00
-4022,43	191,00
-4009,84	212,00
-3997,27	151,00
-3984,72	52,00
-3972,19	177,00
-3959,69	171,00
-3947,20	191,00
-3934,73	134,00
-3922,27	150,00
-3909,84	100,00
-3897,43	204,00
-3885,04	157,00
-3872,67	207,00
-3860,31	135,00
-3847,98	42,00
-3835,66	222,00
-3823,36	33,00
-3811,09	123,00
-3798,83	171,00
-3786,59	112,00
-3774,37	158,00
-3762,17	224,00
-3749,98	128,00
-3737,82	167,00
-3725,67	289,00
-3713,55	167,00
-3701,44	103,00
-3689,35	160,00
-3677,28	178,00
-3665,22	208,00
-3653,19	151,00
-3641,17	180,00
-3629,18	184,00
-3617,20	201,00
-3605,24	174,00
-3593,30	133,00
-3581,37	208,00
-3569,47	186,00
-3557,58	83,00
-3545,71	337,00
-3533,86	275,00
-3522,02	225,00
-3510,21	183,00
-3498,41	241,00
-3486,63	155,00
-3474,87	196,00
-3463,12	230,00
-3451,40	161,00
-3439,69	128,00
-3428,00	261,00
-3416,33	140,00
-3404,67	231,00
-3393,03	153,00
-3381,41	324,00
-3369,81	195,00
-3358,22	202,00
-3346,66	165,00
-3335,10	155,00
-3323,57	146,00
-3312,06	148,00
-3300,56	198,00
-3289,08	172,00
-3277,61	73,00
-3266,16	59,00
-3254,73	246,00
-3243,32	160,00
-3231,92	281,00
-3220,55	216,00
-3209,18	270,00
-3197,84	115,00
-3186,51	127,00
-3175,20	92,00
-3163,90	231,00
-3152,63	170,00
-3141,36	179,00
-3130,12	197,00
-3118,89	296,00
-3107,68	215,00
-3096,49	155,00
-3085,31	137,00
-3074,15	270,00
-3063,00	224,00
-3051,87	167,00
-3040,76	139,00
-3029,67	207,00
-3018,59	149,00
-3007,52	141,00
-2996,48	184,00
-2985,44	131,00
-2974,43	139,00
-2963,43	200,00
-2952,45	169,00
-2941,48	246,00
-2930,53	213,00
-2919,60	220,00
-2908,68	200,00
-2897,78	140,00
-2886,89	194,00
-2876,02	195,00
-2865,17	118,00
-2854,33	143,00
-2843,50	264,00
-2832,70	302,00
-2821,90	179,00
-2811,13	178,00
-2800,37	192,00
-2789,62	150,00
-2778,89	158,00
-2768,18	265,00
-2757,48	172,00
-2746,80	115,00
-2736,13	226,00
-2725,48	183,00
-2714,84	103,00
-2704,22	209,00
-2693,61	70,00
-2683,02	256,00
-2672,45	214,00
-2661,89	248,00
-2651,34	200,00
-2640,81	164,00
-2630,30	215,00
-2619,80	216,00
-2609,31	179,00
-2598,84	98,00
-2588,39	130,00
-2577,95	95,00
-2567,52	164,00
-2557,11	278,00
-2546,71	217,00
-2536,33	142,00
-2525,97	157,00
-2515,62	141,00
-2505,28	246,00
-2494,96	139,00
-2484,65	154,00
-2474,36	172,00
-2464,08	220,00
-2453,82	193,00
-2443,57	193,00
-2433,33	173,00
-2423,11	81,00
-2412,91	79,00
-2402,72	59,00
-2392,54	179,00
-2382,38	108,00
-2372,23	188,00
-2362,09	-4059,00
-2351,97	293,00
-2341,87	-28,00
-2331,78	227,00
-2321,70	77,00
-2311,64	49,00
-2301,59	122,00
-2291,55	119,00
-2281,53	153,00
-2271,53	106,00
-2261,53	91,00
-2251,55	253,00
-2241,59	107,00
-2231,64	232,00
-2221,70	117,00
-2211,78	239,00
-2201,87	232,00
-2191,97	164,00
-2182,09	176,00
-2172,22	192,00
-2162,37	276,00
-2152,53	129,00
-2142,70	155,00
-2132,89	97,00
-2123,09	175,00
-2113,30	176,00
-2103,53	147,00
-2093,77	165,00
-2084,02	208,00
-2074,29	313,00
-2064,57	189,00
-2054,86	183,00
-2045,17	171,00
-2035,49	202,00
-2025,82	187,00
-2016,17	187,00
-2006,53	140,00
-1996,91	211,00
-1987,29	128,00
-1977,69	149,00
-1968,11	168,00
-1958,53	223,00
-1948,97	262,00
-1939,42	168,00
-1929,89	181,00
-1920,37	289,00
-1910,86	167,00
-1901,36	254,00
-1891,88	223,00
-1882,41	74,00
-1872,95	204,00
-1863,51	100,00
-1854,08	118,00
-1844,66	195,00
-1835,26	179,00
-1825,86	172,00
-1816,48	145,00
-1807,11	101,00
-1797,76	129,00
-1788,42	143,00
-1779,09	193,00
-1769,77	137,00
-1760,47	25,00
-1751,17	144,00
-1741,89	65,00
-1732,63	208,00
-1723,37	152,00
-1714,13	251,00
-1704,90	196,00
-1695,68	114,00
-1686,48	193,00
-1677,29	183,00
-1668,11	328,00
-1658,94	204,00
-1649,78	146,00
-1640,64	224,00
-1631,51	244,00
-1622,39	297,00
-1613,28	115,00
-1604,19	196,00
-1595,10	123,00
-1586,03	281,00
-1576,97	218,00
-1567,93	218,00
-1558,89	236,00
-1549,87	160,00
-1540,86	167,00
-1531,86	225,00
-1522,87	199,00
-1513,90	256,00
-1504,93	189,00
-1495,98	180,00
-1487,04	117,00
-1478,12	180,00
-1469,20	276,00
-1460,30	124,00
-1451,40	191,00
-1442,52	113,00
-1433,65	99,00
-1424,80	202,00
-1415,95	235,00
-1407,12	160,00
-1398,30	148,00
-1389,48	161,00
-1380,69	205,00
-1371,90	-3,00
-1363,12	132,00
-1354,36	201,00
-1345,60	145,00
-1336,86	376,00
-1328,13	196,00
-1319,41	129,00
-1310,70	114,00
-1302,01	241,00
-1293,32	223,00
-1284,65	187,00
-1275,99	254,00
-1267,33	96,00
-1258,69	160,00
-1250,06	164,00
-1241,45	185,00
-1232,84	82,00
-1224,25	123,00
-1215,66	236,00
-1207,09	119,00
-1198,53	211,00
-1189,97	183,00
-1181,43	66,00
-1172,91	98,00
-1164,39	224,00
-1155,88	99,00
-1147,38	173,00
-1138,90	300,00
-1130,43	177,00
-1121,96	170,00
-1113,51	252,00
-1105,07	120,00
-1096,64	122,00
-1088,22	266,00
-1079,81	114,00
-1071,41	292,00
-1063,02	176,00
-1054,65	294,00
-1046,28	255,00
-1037,92	116,00
-1029,58	166,00
-1021,24	131,00
-1012,92	149,00
-1004,61	219,00
-996,30	323,00
-988,01	77,00
-979,73	226,00
-971,46	156,00
-963,20	62,00
-954,95	16,00
-946,71	228,00
-938,48	264,00
-930,26	173,00
-922,06	124,00
-913,86	107,00
-905,67	146,00
-897,49	175,00
-889,33	146,00
-881,17	283,00
-873,02	151,00
-864,89	150,00
-856,76	77,00
-848,65	233,00
-840,54	103,00
-832,45	235,00
-824,36	172,00
-816,29	273,00
-808,22	418,00
-800,17	179,00
-792,12	195,00
-784,09	199,00
-776,06	251,00
-768,05	173,00
-760,04	205,00
-752,05	128,00
-744,07	130,00
-736,09	182,00
-728,13	198,00
-720,17	257,00
-712,23	158,00
-704,29	109,00
-696,37	251,00
-688,45	143,00
-680,55	139,00
-672,65	157,00
-664,77	174,00
-656,89	113,00
-649,03	41,00
-641,17	147,00
-633,32	229,00
-625,49	210,00
-617,66	226,00
-609,84	141,00
-602,03	106,00
-594,23	98,00
-586,45	302,00
-578,67	199,00
-570,90	167,00
-563,14	114,00
-555,39	170,00
-547,65	200,00
-539,91	195,00
-532,19	126,00
-524,48	257,00
-516,78	190,00
-509,08	191,00
-501,40	219,00
-493,72	127,00
-486,06	47,00
-478,40	152,00
-470,76	209,00
-463,12	246,00
-455,49	175,00
-447,87	262,00
-440,26	145,00
-432,66	221,00
-425,07	255,00
-417,49	197,00
-409,92	239,00
-402,35	163,00
-394,80	201,00
-387,25	274,00
-379,72	316,00
-372,19	141,00
-364,67	225,00
-357,17	173,00
-349,67	125,00
-342,18	215,00
-334,69	198,00
-327,22	136,00
-319,76	154,00
-312,30	298,00
-304,86	120,00
-297,42	154,00
-290,00	211,00
-282,58	130,00
-275,17	280,00
-267,77	185,00
-260,37	239,00
-252,99	214,00
-245,62	243,00
-238,25	258,00
-230,90	202,00
-223,55	242,00
-216,21	204,00
-208,88	341,00
-201,56	329,00
-194,25	256,00
-186,94	427,00
-179,65	358,00
-172,36	266,00
-165,08	361,00
-157,81	400,00
-150,55	545,00
-143,30	379,00
-136,06	481,00
-128,82	512,00
-121,60	556,00
-114,38	603,00
-107,17	521,00
-99,97	725,00
-92,78	769,00
-85,60	820,00
-78,42	1099,00
-71,25	1045,00
-64,10	1218,00
-56,95	1358,00
-49,81	1742,00
-42,67	2098,00
-35,55	2533,00
-28,43	3255,00
-21,33	5467,00
-14,23	18674,00
-7,14	55635,00
-0,05	55419,00
7,02	55129,00
14,09	55339,00
21,14	15792,00
28,19	6669,00
35,23	4188,00
42,27	3228,00
49,29	2626,00
56,31	2321,00
63,32	1960,00
70,32	1562,00
77,31	1461,00
84,29	1277,00
91,27	1117,00
98,23	1021,00
105,19	1015,00
112,14	983,00
119,09	1488,00
126,02	2141,00
132,95	2128,00
139,87	2116,00
146,78	2130,00
153,68	2079,00
160,58	2039,00
167,46	1991,00
174,34	2073,00
181,21	1895,00
188,08	1992,00
194,93	1868,00
201,78	1899,00
208,62	1996,00
215,45	1870,00
222,27	1870,00
229,09	1992,00
235,90	1948,00
242,70	1862,00
249,49	1879,00
256,27	1793,00
263,05	1755,00
269,82	1769,00
276,58	1766,00
283,33	1774,00
290,08	1713,00
296,82	1702,00
303,55	1533,00
310,27	1588,00
316,98	1748,00
323,69	1722,00
330,39	1581,00
337,08	1598,00
343,76	1684,00
350,44	1680,00
357,11	1578,00
363,77	1639,00
370,42	1610,00
377,07	1649,00
383,71	1602,00
390,34	1616,00
396,96	1611,00
403,58	1620,00
410,19	1709,00
416,79	1504,00
423,38	1640,00
429,97	1700,00
436,55	1405,00
443,12	1476,00
449,68	1427,00
456,24	1471,00
462,79	1390,00
469,33	1363,00
475,86	1515,00
482,39	1525,00
488,91	1334,00
495,42	1433,00
501,93	1274,00
508,42	1290,00
514,91	1401,00
521,40	1417,00
527,87	1290,00
534,34	1304,00
540,80	1329,00
547,25	1426,00
553,70	1283,00
560,14	1317,00
566,57	1249,00
573,00	1379,00
579,41	1264,00
585,83	1292,00
592,23	1314,00
598,62	1243,00
605,01	1192,00
611,40	1226,00
617,77	1296,00
624,14	1298,00
630,50	1276,00
636,85	1265,00
643,20	1225,00
649,54	1092,00
655,87	1228,00
662,20	1232,00
668,52	1067,00
674,83	1247,00
681,13	1096,00
687,43	1080,00
693,72	1145,00
700,00	1193,00
706,28	1172,00
712,55	1038,00
718,81	1235,00
725,07	1159,00
731,32	1157,00
737,56	1069,00
743,79	1129,00
750,02	1233,00
756,24	1138,00
762,46	1141,00
768,67	1180,00
774,87	1276,00
781,06	1152,00
787,25	1224,00
793,43	1204,00
799,60	1041,00
805,77	1231,00
811,93	1207,00
818,08	1115,00
824,23	1071,00
830,37	1217,00
836,50	1270,00
842,63	1170,00
848,75	1172,00
854,87	1145,00
860,97	1165,00
867,07	1232,00
873,17	1126,00
879,25	1138,00
885,33	1103,00
891,41	1167,00
897,47	1123,00
903,53	1115,00
909,59	1018,00
915,63	1074,00
921,67	1061,00
927,71	1058,00
933,74	1108,00
939,76	915,00
945,77	1115,00
951,78	1109,00
957,78	917,00
963,78	934,00
969,77	949,00
975,75	1075,00
981,72	1098,00
987,69	1261,00
993,66	862,00
999,61	1019,00
1005,56	963,00
1011,51	991,00
1017,44	1085,00
1023,37	1026,00
1029,30	1000,00
1035,22	1052,00
1041,13	1082,00
1047,03	1103,00
1052,93	1245,00
1058,83	1376,00
1064,71	1365,00
1070,59	1194,00
1076,47	1105,00
1082,33	1096,00
1088,20	1186,00
1094,05	1016,00
1099,90	1106,00
1105,74	964,00
1111,58	1099,00
1117,41	1155,00
1123,23	1223,00
1129,05	1137,00
1134,86	1190,00
1140,67	1064,00
1146,47	841,00
1152,26	893,00
1158,05	980,00
1163,83	985,00
1169,60	1098,00
1175,37	879,00
1181,13	1018,00
1186,89	918,00
1192,64	878,00
1198,38	900,00
1204,12	948,00
1209,85	866,00
1215,58	968,00
1221,30	914,00
1227,02	1045,00
1232,72	992,00
1238,43	1026,00
1244,12	929,00
1249,81	1021,00
1255,50	892,00
1261,17	968,00
1266,85	1011,00
1272,51	1066,00
1278,17	1069,00
1283,83	974,00
1289,47	1343,00
1295,12	1423,00
1300,75	1502,00
1306,38	1216,00
1312,01	1223,00
1317,63	1039,00
1323,24	1126,00
1328,85	962,00
1334,45	1056,00
1340,04	1026,00
1345,63	992,00
1351,22	1160,00
1356,80	1002,00
1362,37	980,00
1367,93	1069,00
1373,49	1005,00
1379,05	1130,00
1384,60	1047,00
1390,14	1073,00
1395,68	969,00
1401,21	1006,00
1406,74	1114,00
1412,26	1038,00
1417,77	1115,00
1423,28	1134,00
1428,78	1429,00
1434,28	1446,00
1439,77	1635,00
1445,26	1519,00
1450,74	1574,00
1456,22	1471,00
1461,68	1384,00
1467,15	1323,00
1472,61	1224,00
1478,06	1182,00
1483,51	1131,00
1488,95	890,00
1494,38	1040,00
1499,81	977,00
1505,24	946,00
1510,65	1031,00
1516,07	982,00
1521,48	940,00
1526,88	860,00
1532,27	984,00
1537,67	940,00
1543,05	945,00
1548,43	776,00
1553,81	833,00
1559,18	895,00
1564,54	914,00
1569,90	911,00
1575,25	891,00
1580,60	812,00
1585,94	711,00
1591,28	886,00
1596,61	850,00
1601,93	740,00
1607,25	955,00
1612,57	993,00
1617,88	753,00
1623,18	821,00
1628,48	745,00
1633,77	757,00
1639,06	827,00
1644,34	766,00
1649,62	771,00
1654,89	726,00
1660,16	776,00
1665,42	748,00
1670,67	814,00
1675,92	710,00
1681,17	807,00
1686,41	723,00
1691,64	801,00
1696,87	857,00
1702,10	668,00
1707,32	660,00
1712,53	774,00
1717,74	659,00
1722,94	736,00
1728,14	646,00
1733,33	721,00
1738,52	735,00
1743,70	792,00
1748,88	784,00
1754,05	757,00
1759,22	690,00
1764,38	773,00
1769,53	742,00
1774,69	748,00
1779,83	709,00
1784,97	726,00
1790,11	644,00
1795,24	561,00
1800,36	699,00
1805,48	688,00
1810,60	732,00
1815,71	621,00
1820,82	694,00
1825,92	714,00
1831,01	739,00
1836,10	663,00
1841,19	739,00
1846,26	554,00
1851,34	591,00
1856,41	626,00
1861,47	614,00
1866,53	641,00
1871,59	625,00
1876,64	698,00
1881,68	683,00
1886,72	572,00
1891,76	603,00
1896,79	679,00
1901,81	516,00
1906,83	587,00
1911,85	601,00
1916,86	567,00
1921,86	500,00
1926,86	569,00
1931,86	565,00
1936,85	410,00
1941,83	610,00
1946,81	595,00
1951,79	580,00
1956,76	462,00
1961,72	432,00
1966,68	460,00
1971,64	517,00
1976,59	438,00
1981,54	462,00
1986,48	555,00
1991,42	559,00
1996,35	596,00
2001,27	388,00
2006,20	544,00
2011,11	609,00
2016,03	491,00
2020,93	507,00
2025,84	565,00
2030,73	546,00
2035,63	546,00
2040,52	529,00
2045,40	493,00
2050,28	552,00
2055,15	582,00
2060,02	517,00
2064,89	535,00
2069,75	427,00
2074,60	651,00
2079,46	462,00
2084,30	421,00
2089,14	535,00
2093,98	547,00
2098,81	633,00
2103,64	500,00
2108,46	524,00
2113,28	525,00
2118,09	443,00
2122,90	492,00
2127,70	440,00
2132,50	489,00
2137,30	562,00
2142,09	399,00
2146,87	450,00
2151,66	552,00
2156,43	569,00
2161,20	530,00
2165,97	473,00
2170,73	470,00
2175,49	445,00
2180,24	455,00
2184,99	497,00
2189,74	461,00
2194,48	598,00
2199,21	636,00
2203,94	416,00
2208,67	488,00
2213,39	525,00
2218,11	403,00
2222,82	333,00
2227,53	501,00
2232,23	356,00
2236,93	548,00
2241,63	484,00
2246,32	499,00
2251,00	455,00
2255,68	309,00
2260,36	426,00
2265,03	452,00
2269,70	408,00
2274,36	401,00
2279,02	459,00
2283,68	439,00
2288,33	332,00
2292,97	487,00
2297,61	453,00
2302,25	426,00
2306,88	461,00
2311,51	393,00
2316,14	448,00
2320,75	423,00
2325,37	453,00
2329,98	538,00
2334,59	288,00
2339,19	425,00
2343,79	433,00
2348,38	409,00
2352,97	363,00
2357,55	470,00
2362,13	463,00
2366,71	269,00
2371,28	507,00
2375,85	403,00
2380,41	306,00
2384,97	493,00
2389,52	385,00
2394,07	379,00
2398,62	479,00
2403,16	344,00
2407,70	348,00
2412,23	404,00
2416,76	365,00
2421,29	358,00
2425,81	502,00
2430,32	324,00
2434,84	375,00
2439,34	346,00
2443,85	382,00
2448,35	318,00
2452,84	372,00
2457,33	481,00
2461,82	391,00
2466,30	380,00
2470,78	437,00
2475,25	312,00
2479,72	281,00
2484,19	379,00
2488,65	489,00
2493,11	262,00
2497,56	412,00
2502,01	196,00
2506,46	245,00
2510,90	325,00
2515,34	323,00
2519,77	275,00
2524,20	367,00
2528,62	360,00
2533,04	359,00
2537,46	346,00
2541,87	275,00
2546,28	387,00
2550,68	418,00
2555,08	355,00
2559,48	313,00
2563,87	442,00
2568,26	337,00
2572,64	318,00
2577,02	420,00
2581,40	342,00
2585,77	316,00
2590,14	248,00
2594,50	341,00
2598,86	287,00
2603,22	312,00
2607,57	366,00
2611,92	368,00
2616,26	360,00
2620,60	333,00
2624,94	209,00
2629,27	351,00
2633,60	290,00
2637,92	350,00
2642,24	373,00
2646,56	384,00
2650,87	329,00
2655,18	393,00
2659,48	344,00
2663,78	344,00
2668,08	367,00
2672,37	297,00
2676,66	448,00
2680,95	335,00
2685,23	380,00
2689,50	420,00
2693,78	326,00
2698,05	336,00
2702,31	357,00
2706,57	364,00
2710,83	395,00
2715,08	374,00
2719,33	518,00
2723,58	526,00
2727,82	491,00
2732,06	403,00
2736,29	399,00
2740,53	329,00
2744,75	289,00
2748,97	357,00
2753,19	249,00
2757,41	443,00
2761,62	396,00
2765,83	337,00
2770,03	283,00
2774,23	352,00
2778,43	225,00
2782,62	311,00
2786,81	404,00
2791,00	483,00
2795,18	434,00
2799,35	322,00
2803,53	527,00
2807,70	445,00
2811,86	351,00
2816,03	389,00
2820,19	398,00
2824,34	685,00
2828,49	398,00
2832,64	478,00
2836,78	661,00
2840,92	671,00
2845,06	833,00
2849,19	923,00
2853,32	1200,00
2857,45	1173,00
2861,57	1081,00
2865,69	966,00
2869,80	913,00
2873,91	928,00
2878,02	1188,00
2882,12	1053,00
2886,22	1145,00
2890,32	1099,00
2894,41	1051,00
2898,50	972,00
2902,58	840,00
2906,67	831,00
2910,74	890,00
2914,82	907,00
2918,89	790,00
2922,96	684,00
2927,02	658,00
2931,08	566,00
2935,13	583,00
2939,19	693,00
2943,24	643,00
2947,28	487,00
2951,32	468,00
2955,36	441,00
2959,40	464,00
2963,43	384,00
2967,46	354,00
2971,48	309,00
2975,50	276,00
2979,52	278,00
2983,53	355,00
2987,54	271,00
2991,55	349,00
2995,55	242,00
2999,55	299,00
3003,54	324,00
3007,54	323,00
3011,53	325,00
3015,51	262,00
3019,49	381,00
3023,47	279,00
3027,45	248,00
3031,42	193,00
3035,39	322,00
3039,35	250,00
3043,31	256,00
3047,27	283,00
3051,22	237,00
3055,17	161,00
3059,12	107,00
3063,06	310,00
3067,00	189,00
3070,94	292,00
3074,87	201,00
3078,80	298,00
3082,73	323,00
3086,65	178,00
3090,57	111,00
3094,49	299,00
3098,40	253,00
3102,31	282,00
3106,22	104,00
3110,12	230,00
3114,02	276,00
3117,92	269,00
3121,81	235,00
3125,70	278,00
3129,58	210,00
3133,47	333,00
3137,34	182,00
3141,22	108,00
3145,09	208,00
3148,96	233,00
3152,83	180,00
3156,69	236,00
3160,55	261,00
3164,40	207,00
3168,26	221,00
3172,10	167,00
3175,95	182,00
3179,79	273,00
3183,63	272,00
3187,47	253,00
3191,30	270,00
3195,13	202,00
3198,95	159,00
3202,78	134,00
3206,60	295,00
3210,41	247,00
3214,23	167,00
3218,03	158,00
3221,84	283,00
3225,64	174,00
3229,44	270,00
3233,24	229,00
3237,03	232,00
3240,82	176,00
3244,61	198,00
3248,39	209,00
3252,17	296,00
3255,95	234,00
3259,72	200,00
3263,49	216,00
3267,26	221,00
3271,03	253,00
3274,79	223,00
3278,54	213,00
3282,30	106,00
3286,05	226,00
3289,80	151,00
3293,54	245,00
3297,29	182,00
3301,02	145,00
3304,76	214,00
3308,49	85,00
3312,22	206,00
3315,95	228,00
3319,67	169,00
3323,39	282,00
3327,10	134,00
3330,82	270,00
3334,53	284,00
3338,24	194,00
3341,94	191,00
3345,64	115,00
3349,34	214,00
3353,03	176,00
3356,72	237,00
3360,41	229,00
3364,10	272,00
3367,78	199,00
3371,46	190,00
3375,13	142,00
3378,81	116,00
3382,48	280,00
3386,14	160,00
3389,81	147,00
3393,47	270,00
3397,12	143,00
3400,78	239,00
3404,43	191,00
3408,08	190,00
3411,72	124,00
3415,36	97,00
3419,00	111,00
3422,64	279,00
3426,27	126,00
3429,90	97,00
3433,53	131,00
3437,15	195,00
3440,77	187,00
3444,39	181,00
3448,00	123,00
3451,62	94,00
3455,22	207,00
3458,83	179,00
3462,43	243,00
3466,03	164,00
3469,63	238,00
3473,22	67,00
3476,81	142,00
3480,40	128,00
3483,99	150,00
3487,57	156,00
3491,15	165,00
3494,72	233,00
3498,29	135,00
3501,86	136,00
3505,43	211,00
3508,99	160,00
3512,56	155,00
3516,11	233,00
3519,67	25,00
3523,22	210,00
3526,77	200,00
3530,32	210,00
3533,86	146,00
3537,40	302,00
3540,94	231,00
3544,47	82,00
3548,00	98,00
3551,53	143,00
3555,06	224,00
3558,58	102,00
3562,10	204,00
3565,62	163,00
3569,13	174,00
3572,64	213,00
3576,15	83,00
3579,66	182,00
3583,16	232,00
3586,66	94,00
3590,16	73,00
3593,65	223,00
3597,14	258,00
3600,63	240,00
3604,11	216,00
3607,60	215,00
3611,08	222,00
3614,55	167,00
3618,03	170,00
3621,50	253,00
3624,97	147,00
3628,43	128,00
3631,90	152,00
3635,36	190,00
3638,81	172,00
3642,27	174,00
3645,72	138,00
3649,17	155,00
3652,61	56,00
3656,06	121,00
3659,50	132,00
3662,93	133,00
3666,37	120,00
3669,80	67,00
3673,23	31,00
3676,65	90,00
3680,08	226,00
3683,50	150,00
3686,92	193,00
3690,33	139,00
3693,74	193,00
3697,15	106,00
3700,56	151,00
3703,96	48,00
3707,36	179,00
3710,76	232,00
3714,16	101,00
3717,55	163,00
3720,94	203,00
3724,33	125,00
3727,71	223,00
3731,10	323,00
3734,48	109,00
3737,85	54,00
3741,23	121,00
3744,60	72,00
3747,97	173,00
3751,33	171,00
3754,69	216,00
3758,05	160,00
3761,41	210,00
3764,77	17,00
3768,12	165,00
3771,47	206,00
3774,82	204,00
3778,16	-4,00
3781,50	0,00
3784,84	-1,00
3788,18	0,00
>>>>>End Processed Spectral Data<<<<<
