SpectraSuite Data File
++++++++++++++++++++++++++++++++++++
Date: Mon Mar 09 16:19:24 ICT 2026
User: Administrator
Dark Spectrum Present: Yes
Reference Spectrum Present: No
Number of Sampled Component Spectra: 1
Spectrometers: MAYP113682
Integration Time (usec): 3000000 (MAYP113682)
Spectra Averaged: 1 (MAYP113682)
Boxcar Smoothing: 0 (MAYP113682)
Correct for Electrical Dark: No (MAYP113682)
Strobe/Lamp Enabled: No (MAYP113682)
Correct for Detector Non-linearity: No (MAYP113682)
Correct for Stray Light: No (MAYP113682)
Number of Pixels in Processed Spectrum: 2068
>>>>>Begin Processed Spectral Data<<<<<
-37534,58	-3,00
-37414,56	5,00
-37295,11	-7,00
-37176,24	0,00
-37057,95	32,00
-36940,22	44,00
-36823,05	41,00
-36706,45	77,00
-36590,40	91,00
-36474,90	68,00
-36359,95	49,00
-36245,55	116,00
-36131,68	-23,00
-36018,35	52,00
-35905,55	118,00
-35793,29	-88,00
-35681,54	26,00
-35570,32	76,00
-35459,62	16,00
-35349,43	16,00
-35239,75	19,00
-35130,58	43,00
-35021,91	-9,00
-34913,74	134,00
-34806,07	42,00
-34698,89	56,00
-34592,20	36,00
-34486,00	175,00
-34380,28	95,00
-34275,04	6,00
-34170,27	-68,00
-34065,98	-85,00
-33962,16	42,00
-33858,81	25,00
-33755,92	106,00
-33653,49	174,00
-33551,52	73,00
-33450,01	134,00
-33348,94	85,00
-33248,33	-54,00
-33148,16	-19,00
-33048,43	59,00
-32949,14	69,00
-32850,29	48,00
-32751,87	25,00
-32653,89	142,00
-32556,33	-3,00
-32459,20	90,00
-32362,49	151,00
-32266,19	149,00
-32170,32	114,00
-32074,86	51,00
-31979,82	-11,00
-31885,18	61,00
-31790,95	91,00
-31697,12	35,00
-31603,69	215,00
-31510,67	14,00
-31418,04	98,00
-31325,80	114,00
-31233,95	176,00
-31142,49	100,00
-31051,42	121,00
-30960,73	69,00
-30870,43	78,00
-30780,50	42,00
-30690,95	46,00
-30601,77	126,00
-30512,97	225,00
-30424,53	44,00
-30336,46	43,00
-30248,76	-45,00
-30161,42	68,00
-30074,44	16,00
-29987,81	135,00
-29901,55	14,00
-29815,63	57,00
-29730,07	32,00
-29644,86	11,00
-29560,00	39,00
-29475,48	136,00
-29391,30	55,00
-29307,47	76,00
-29223,97	9,00
-29140,81	96,00
-29057,99	141,00
-28975,50	26,00
-28893,34	69,00
-28811,51	58,00
-28730,00	10,00
-28648,82	61,00
-28567,97	-27,00
-28487,43	78,00
-28407,21	-29,00
-28327,32	85,00
-28247,73	69,00
-28168,46	157,00
-28089,50	92,00
-28010,85	-85,00
-27932,51	56,00
-27854,48	37,00
-27776,75	66,00
-27699,32	77,00
-27622,19	84,00
-27545,37	59,00
-27468,84	170,00
-27392,60	63,00
-27316,66	32,00
-27241,01	146,00
-27165,66	72,00
-27090,59	12,00
-27015,81	43,00
-26941,31	127,00
-26867,10	-16,00
-26793,17	18,00
-26719,52	2,00
-26646,15	62,00
-26573,06	69,00
-26500,24	166,00
-26427,70	51,00
-26355,43	16,00
-26283,43	-17,00
-26211,71	21,00
-26140,25	74,00
-26069,06	68,00
-25998,13	47,00
-25927,46	-30,00
-25857,06	155,00
-25786,92	97,00
-25717,04	66,00
-25647,42	225,00
-25578,05	64,00
-25508,94	29,00
-25440,09	90,00
-25371,48	63,00
-25303,13	148,00
-25235,02	39,00
-25167,17	50,00
-25099,56	16,00
-25032,19	79,00
-24965,07	64,00
-24898,20	63,00
-24831,56	-12,00
-24765,17	55,00
-24699,01	192,00
-24633,10	28,00
-24567,41	86,00
-24501,97	84,00
-24436,75	17,00
-24371,77	16,00
-24307,03	-15,00
-24242,51	68,00
-24178,22	20,00
-24114,16	61,00
-24050,32	146,00
-23986,71	52,00
-23923,32	91,00
-23860,16	-29,00
-23797,22	144,00
-23734,50	27,00
-23672,00	-12,00
-23609,71	150,00
-23547,65	-21,00
-23485,80	7,00
-23424,16	-7,00
-23362,74	108,00
-23301,53	3,00
-23240,54	-22,00
-23179,75	96,00
-23119,17	18,00
-23058,80	104,00
-22998,64	6,00
-22938,68	103,00
-22878,93	64,00
-22819,39	71,00
-22760,04	-4,00
-22700,90	-45,00
-22641,96	17,00
-22583,22	83,00
-22524,68	24,00
-22466,33	65,00
-22408,19	22,00
-22350,23	5,00
-22292,48	13,00
-22234,92	42,00
-22177,55	24,00
-22120,37	127,00
-22063,38	123,00
-22006,58	43,00
-21949,98	99,00
-21893,56	22,00
-21837,33	13,00
-21781,28	98,00
-21725,42	101,00
-21669,74	117,00
-21614,25	49,00
-21558,94	32,00
-21503,81	39,00
-21448,86	-144,00
-21394,10	58,00
-21339,51	65,00
-21285,10	34,00
-21230,86	66,00
-21176,81	24,00
-21122,93	20,00
-21069,22	-28,00
-21015,69	35,00
-20962,33	90,00
-20909,14	65,00
-20856,13	-18,00
-20803,28	81,00
-20750,61	41,00
-20698,10	42,00
-20645,76	62,00
-20593,59	148,00
-20541,59	166,00
-20489,75	15,00
-20438,07	103,00
-20386,56	17,00
-20335,22	165,00
-20284,03	-25,00
-20233,01	66,00
-20182,15	-82,00
-20131,45	43,00
-20080,91	41,00
-20030,52	28,00
-19980,30	26,00
-19930,23	80,00
-19880,32	37,00
-19830,56	-62,00
-19780,96	26,00
-19731,52	76,00
-19682,23	135,00
-19633,09	72,00
-19584,10	-79,00
-19535,26	95,00
-19486,58	54,00
-19438,04	90,00
-19389,66	17,00
-19341,42	-32,00
-19293,33	95,00
-19245,39	20,00
-19197,60	80,00
-19149,95	36,00
-19102,45	129,00
-19055,09	70,00
-19007,87	8,00
-18960,80	204,00
-18913,87	-45,00
-18867,09	15,00
-18820,44	121,00
-18773,94	148,00
-18727,57	-13,00
-18681,35	135,00
-18635,26	-5,00
-18589,31	71,00
-18543,50	28,00
-18497,83	-49,00
-18452,29	16,00
-18406,89	125,00
-18361,63	151,00
-18316,50	43,00
-18271,50	166,00
-18226,63	113,00
-18181,90	100,00
-18137,30	234,00
-18092,84	-75,00
-18048,50	175,00
-18004,29	157,00
-17960,22	61,00
-17916,27	205,00
-17872,45	28,00
-17828,76	117,00
-17785,20	63,00
-17741,77	57,00
-17698,46	123,00
-17655,28	12,00
-17612,22	40,00
-17569,29	92,00
-17526,48	68,00
-17483,79	86,00
-17441,23	19,00
-17398,79	37,00
-17356,48	156,00
-17314,28	88,00
-17272,21	0,00
-17230,26	131,00
-17188,42	93,00
-17146,71	26,00
-17105,12	12,00
-17063,64	-60,00
-17022,28	201,00
-16981,04	60,00
-16939,92	60,00
-16898,91	22,00
-16858,02	141,00
-16817,25	36,00
-16776,59	110,00
-16736,04	48,00
-16695,61	-45,00
-16655,29	69,00
-16615,09	64,00
-16574,99	103,00
-16535,01	98,00
-16495,15	44,00
-16455,39	90,00
-16415,74	74,00
-16376,21	64,00
-16336,78	25,00
-16297,46	-13,00
-16258,26	36,00
-16219,16	79,00
-16180,17	-18,00
-16141,28	75,00
-16102,51	13,00
-16063,84	-22,00
-16025,27	10,00
-15986,82	163,00
-15948,46	6,00
-15910,22	127,00
-15872,07	38,00
-15834,04	9,00
-15796,10	24,00
-15758,27	204,00
-15720,54	84,00
-15682,91	142,00
-15645,39	-3,00
-15607,97	134,00
-15570,64	3,00
-15533,42	-17,00
-15496,30	125,00
-15459,28	58,00
-15422,36	103,00
-15385,54	-51,00
-15348,82	-20,00
-15312,19	-50,00
-15275,66	-35,00
-15239,23	108,00
-15202,90	20,00
-15166,67	92,00
-15130,53	54,00
-15094,48	48,00
-15058,54	-20,00
-15022,68	91,00
-14986,93	64,00
-14951,26	40,00
-14915,69	77,00
-14880,22	123,00
-14844,84	15,00
-14809,55	92,00
-14774,35	100,00
-14739,25	96,00
-14704,24	-34,00
-14669,32	-16,00
-14634,49	128,00
-14599,75	105,00
-14565,10	6,00
-14530,55	74,00
-14496,08	56,00
-14461,70	77,00
-14427,41	-9,00
-14393,21	68,00
-14359,10	-50,00
-14325,07	-66,00
-14291,14	2,00
-14257,29	8,00
-14223,52	64,00
-14189,85	65,00
-14156,26	105,00
-14122,76	21,00
-14089,34	143,00
-14056,01	80,00
-14022,76	136,00
-13989,60	-73,00
-13956,52	144,00
-13923,53	8,00
-13890,62	35,00
-13857,79	85,00
-13825,05	131,00
-13792,39	3,00
-13759,81	77,00
-13727,31	-23,00
-13694,90	-21,00
-13662,57	43,00
-13630,31	65,00
-13598,14	-31,00
-13566,05	-54,00
-13534,05	132,00
-13502,12	12,00
-13470,27	98,00
-13438,50	36,00
-13406,80	-11,00
-13375,19	97,00
-13343,66	18,00
-13312,20	-25,00
-13280,83	37,00
-13249,53	12,00
-13218,30	56,00
-13187,16	51,00
-13156,09	30,00
-13125,10	127,00
-13094,18	119,00
-13063,34	-23,00
-13032,58	45,00
-13001,89	122,00
-12971,28	20,00
-12940,74	153,00
-12910,27	-7,00
-12879,88	-33,00
-12849,57	159,00
-12819,33	76,00
-12789,16	2,00
-12759,06	49,00
-12729,04	86,00
-12699,09	47,00
-12669,21	14,00
-12639,41	-38,00
-12609,68	52,00
-12580,02	22,00
-12550,43	106,00
-12520,91	25,00
-12491,46	72,00
-12462,08	94,00
-12432,77	-32,00
-12403,54	-3,00
-12374,37	88,00
-12345,27	31,00
-12316,24	42,00
-12287,29	108,00
-12258,40	28,00
-12229,57	66,00
-12200,82	39,00
-12172,14	14,00
-12143,52	11,00
-12114,97	73,00
-12086,49	122,00
-12058,07	-36,00
-12029,73	20,00
-12001,44	-53,00
-11973,23	73,00
-11945,08	37,00
-11917,00	126,00
-11888,98	131,00
-11861,03	119,00
-11833,15	80,00
-11805,32	73,00
-11777,57	143,00
-11749,88	25,00
-11722,25	-7,00
-11694,69	63,00
-11667,19	-1,00
-11639,75	103,00
-11612,38	61,00
-11585,07	-3,00
-11557,83	31,00
-11530,65	169,00
-11503,53	50,00
-11476,47	103,00
-11449,48	122,00
-11422,54	20,00
-11395,67	44,00
-11368,86	20,00
-11342,11	129,00
-11315,43	-32,00
-11288,80	46,00
-11262,23	88,00
-11235,73	59,00
-11209,28	16,00
-11182,90	196,00
-11156,57	75,00
-11130,31	57,00
-11104,10	-67,00
-11077,96	48,00
-11051,87	141,00
-11025,84	91,00
-10999,87	46,00
-10973,96	36,00
-10948,11	3,00
-10922,31	75,00
-10896,58	-5,00
-10870,90	56,00
-10845,28	45,00
-10819,71	87,00
-10794,20	-27,00
-10768,75	126,00
-10743,36	48,00
-10718,02	1,00
-10692,74	100,00
-10667,52	124,00
-10642,35	196,00
-10617,24	-15,00
-10592,18	91,00
-10567,18	143,00
-10542,23	124,00
-10517,34	72,00
-10492,51	22,00
-10467,72	88,00
-10443,00	136,00
-10418,32	117,00
-10393,70	6,00
-10369,14	149,00
-10344,63	59,00
-10320,17	225,00
-10295,77	161,00
-10271,42	29,00
-10247,12	7,00
-10222,88	14,00
-10198,68	184,00
-10174,54	58,00
-10150,46	116,00
-10126,42	130,00
-10102,44	84,00
-10078,51	150,00
-10054,63	104,00
-10030,80	152,00
-10007,03	176,00
-9983,30	95,00
-9959,63	94,00
-9936,01	330,00
-9912,44	94,00
-9888,92	163,00
-9865,44	131,00
-9842,02	86,00
-9818,65	272,00
-9795,33	153,00
-9772,06	181,00
-9748,84	168,00
-9725,67	223,00
-9702,55	121,00
-9679,47	271,00
-9656,45	321,00
-9633,47	423,00
-9610,55	386,00
-9587,67	234,00
-9564,84	314,00
-9542,06	337,00
-9519,32	408,00
-9496,64	491,00
-9474,00	425,00
-9451,41	613,00
-9428,87	313,00
-9406,37	456,00
-9383,92	344,00
-9361,52	410,00
-9339,17	256,00
-9316,86	417,00
-9294,60	643,00
-9272,38	625,00
-9250,21	758,00
-9228,09	755,00
-9206,01	617,00
-9183,98	603,00
-9162,00	516,00
-9140,06	420,00
-9118,16	606,00
-9096,31	740,00
-9074,51	731,00
-9052,75	655,00
-9031,04	683,00
-9009,37	584,00
-8987,74	475,00
-8966,16	322,00
-8944,63	302,00
-8923,14	258,00
-8901,69	371,00
-8880,29	451,00
-8858,93	515,00
-8837,61	575,00
-8816,34	752,00
-8795,11	727,00
-8773,92	631,00
-8752,78	540,00
-8731,68	661,00
-8710,62	525,00
-8689,61	450,00
-8668,63	608,00
-8647,70	642,00
-8626,82	553,00
-8605,97	500,00
-8585,17	512,00
-8564,41	491,00
-8543,69	509,00
-8523,01	363,00
-8502,37	535,00
-8481,78	536,00
-8461,23	517,00
-8440,71	566,00
-8420,24	672,00
-8399,81	652,00
-8379,42	700,00
-8359,08	570,00
-8338,77	521,00
-8318,50	537,00
-8298,27	514,00
-8278,09	444,00
-8257,94	467,00
-8237,83	649,00
-8217,76	653,00
-8197,74	782,00
-8177,75	581,00
-8157,80	677,00
-8137,89	514,00
-8118,02	463,00
-8098,19	498,00
-8078,40	576,00
-8058,65	556,00
-8038,93	652,00
-8019,26	580,00
-7999,62	491,00
-7980,02	392,00
-7960,46	505,00
-7940,94	463,00
-7921,46	328,00
-7902,01	443,00
-7882,60	427,00
-7863,23	398,00
-7843,90	407,00
-7824,61	431,00
-7805,35	519,00
-7786,13	587,00
-7766,95	578,00
-7747,80	590,00
-7728,69	646,00
-7709,62	393,00
-7690,59	477,00
-7671,59	566,00
-7652,63	526,00
-7633,70	554,00
-7614,81	469,00
-7595,96	593,00
-7577,15	391,00
-7558,37	492,00
-7539,62	417,00
-7520,91	489,00
-7502,24	402,00
-7483,60	524,00
-7465,00	540,00
-7446,44	407,00
-7427,91	356,00
-7409,41	348,00
-7390,95	301,00
-7372,53	235,00
-7354,14	181,00
-7335,78	171,00
-7317,46	408,00
-7299,18	304,00
-7280,92	305,00
-7262,71	499,00
-7244,52	521,00
-7226,38	552,00
-7208,26	570,00
-7190,18	449,00
-7172,14	437,00
-7154,12	315,00
-7136,15	403,00
-7118,20	417,00
-7100,29	364,00
-7082,41	479,00
-7064,57	490,00
-7046,76	347,00
-7028,98	266,00
-7011,24	320,00
-6993,53	172,00
-6975,85	218,00
-6958,20	148,00
-6940,59	195,00
-6923,01	260,00
-6905,46	227,00
-6887,94	300,00
-6870,46	-2261,00
-6853,01	436,00
-6835,59	388,00
-6818,21	391,00
-6800,85	332,00
-6783,53	201,00
-6766,24	-4,00
-6748,98	-20,00
-6731,76	7,00
-6714,56	32,00
-6697,40	188,00
-6680,26	33,00
-6663,16	159,00
-6646,09	216,00
-6629,05	314,00
-6612,05	328,00
-6595,07	295,00
-6578,13	239,00
-6561,21	179,00
-6544,33	131,00
-6527,47	145,00
-6510,65	-31,00
-6493,86	55,00
-6477,10	65,00
-6460,36	67,00
-6443,66	111,00
-6426,99	53,00
-6410,35	30,00
-6393,74	149,00
-6377,16	240,00
-6360,61	89,00
-6344,09	189,00
-6327,59	129,00
-6311,13	181,00
-6294,70	160,00
-6278,29	361,00
-6261,92	344,00
-6245,58	280,00
-6229,26	354,00
-6212,97	315,00
-6196,72	173,00
-6180,49	20,00
-6164,29	10,00
-6148,12	49,00
-6131,98	-18,00
-6115,86	63,00
-6099,78	-14,00
-6083,72	-75,00
-6067,69	-56,00
-6051,69	-2,00
-6035,72	83,00
-6019,78	93,00
-6003,87	65,00
-5987,98	237,00
-5972,12	299,00
-5956,29	167,00
-5940,49	181,00
-5924,71	85,00
-5908,96	21,00
-5893,24	3,00
-5877,55	107,00
-5861,89	-6,00
-5846,25	76,00
-5830,64	23,00
-5815,05	15,00
-5799,50	131,00
-5783,97	14,00
-5768,47	66,00
-5752,99	127,00
-5737,55	172,00
-5722,12	163,00
-5706,73	312,00
-5691,36	181,00
-5676,02	108,00
-5660,71	146,00
-5645,42	100,00
-5630,16	141,00
-5614,92	157,00
-5599,71	182,00
-5584,53	-22,00
-5569,37	94,00
-5554,24	1146,00
-5539,14	101,00
-5524,06	35,00
-5509,01	105,00
-5493,98	83,00
-5478,98	77,00
-5464,00	107,00
-5449,05	55,00
-5434,13	8,00
-5419,23	-92,00
-5404,36	33,00
-5389,51	244,00
-5374,69	207,00
-5359,89	111,00
-5345,12	268,00
-5330,37	306,00
-5315,65	202,00
-5300,95	178,00
-5286,28	98,00
-5271,63	137,00
-5257,01	122,00
-5242,41	69,00
-5227,84	-49,00
-5213,29	4,00
-5198,76	-5,00
-5184,26	112,00
-5169,79	41,00
-5155,33	124,00
-5140,91	25,00
-5126,51	149,00
-5112,13	161,00
-5097,77	120,00
-5083,44	42,00
-5069,13	57,00
-5054,85	102,00
-5040,59	70,00
-5026,36	72,00
-5012,15	128,00
-4997,96	132,00
-4983,80	-20,00
-4969,66	32,00
-4955,54	111,00
-4941,44	113,00
-4927,37	210,00
-4913,33	359,00
-4899,30	283,00
-4885,30	198,00
-4871,33	291,00
-4857,37	49,00
-4843,44	88,00
-4829,53	123,00
-4815,65	144,00
-4801,79	112,00
-4787,95	66,00
-4774,13	120,00
-4760,34	0,00
-4746,56	31,00
-4732,82	23,00
-4719,09	138,00
-4705,38	145,00
-4691,70	245,00
-4678,04	170,00
-4664,41	212,00
-4650,79	68,00
-4637,20	107,00
-4623,63	112,00
-4610,08	91,00
-4596,56	105,00
-4583,05	230,00
-4569,57	105,00
-4556,11	105,00
-4542,67	89,00
-4529,25	60,00
-4515,86	146,00
-4502,49	213,00
-4489,13	150,00
-4475,80	202,00
-4462,49	208,00
-4449,21	75,00
-4435,94	141,00
-4422,70	68,00
-4409,47	80,00
-4396,27	159,00
-4383,09	122,00
-4369,93	15,00
-4356,79	63,00
-4343,67	3,00
-4330,58	77,00
-4317,50	103,00
-4304,45	66,00
-4291,41	-46,00
-4278,40	8,00
-4265,41	114,00
-4252,44	60,00
-4239,49	117,00
-4226,55	70,00
-4213,65	-20,00
-4200,76	153,00
-4187,89	109,00
-4175,04	23,00
-4162,21	123,00
-4149,40	18,00
-4136,61	125,00
-4123,85	104,00
-4111,10	-12,00
-4098,37	128,00
-4085,66	148,00
-4072,98	115,00
-4060,31	-13,00
-4047,66	81,00
-4035,04	12,00
-4022,43	94,00
-4009,84	132,00
-3997,27	56,00
-3984,72	113,00
-3972,19	-47,00
-3959,69	-31,00
-3947,20	87,00
-3934,73	-4,00
-3922,27	175,00
-3909,84	64,00
-3897,43	135,00
-3885,04	47,00
-3872,67	-104,00
-3860,31	-139,00
-3847,98	181,00
-3835,66	31,00
-3823,36	48,00
-3811,09	49,00
-3798,83	50,00
-3786,59	115,00
-3774,37	98,00
-3762,17	120,00
-3749,98	12,00
-3737,82	108,00
-3725,67	64,00
-3713,55	13,00
-3701,44	113,00
-3689,35	143,00
-3677,28	-67,00
-3665,22	-66,00
-3653,19	-9,00
-3641,17	78,00
-3629,18	74,00
-3617,20	49,00
-3605,24	56,00
-3593,30	-71,00
-3581,37	102,00
-3569,47	53,00
-3557,58	29,00
-3545,71	92,00
-3533,86	87,00
-3522,02	-3,00
-3510,21	87,00
-3498,41	0,00
-3486,63	93,00
-3474,87	48,00
-3463,12	108,00
-3451,40	132,00
-3439,69	60,00
-3428,00	173,00
-3416,33	48,00
-3404,67	-28,00
-3393,03	215,00
-3381,41	-14,00
-3369,81	2,00
-3358,22	191,00
-3346,66	120,00
-3335,10	109,00
-3323,57	77,00
-3312,06	118,00
-3300,56	88,00
-3289,08	57,00
-3277,61	-27,00
-3266,16	120,00
-3254,73	89,00
-3243,32	-33,00
-3231,92	-21,00
-3220,55	-3,00
-3209,18	68,00
-3197,84	67,00
-3186,51	39,00
-3175,20	63,00
-3163,90	25,00
-3152,63	22,00
-3141,36	36,00
-3130,12	51,00
-3118,89	-15,00
-3107,68	235,00
-3096,49	124,00
-3085,31	56,00
-3074,15	36,00
-3063,00	12,00
-3051,87	127,00
-3040,76	11,00
-3029,67	33,00
-3018,59	-67,00
-3007,52	41,00
-2996,48	27,00
-2985,44	107,00
-2974,43	-14,00
-2963,43	50,00
-2952,45	-26,00
-2941,48	-10,00
-2930,53	12,00
-2919,60	8,00
-2908,68	177,00
-2897,78	-3,00
-2886,89	111,00
-2876,02	70,00
-2865,17	80,00
-2854,33	81,00
-2843,50	39,00
-2832,70	139,00
-2821,90	55,00
-2811,13	-27,00
-2800,37	-59,00
-2789,62	60,00
-2778,89	140,00
-2768,18	166,00
-2757,48	124,00
-2746,80	22,00
-2736,13	46,00
-2725,48	55,00
-2714,84	45,00
-2704,22	100,00
-2693,61	-69,00
-2683,02	94,00
-2672,45	109,00
-2661,89	-16,00
-2651,34	-85,00
-2640,81	3,00
-2630,30	64,00
-2619,80	112,00
-2609,31	45,00
-2598,84	-3,00
-2588,39	17,00
-2577,95	50,00
-2567,52	87,00
-2557,11	-36,00
-2546,71	-4,00
-2536,33	199,00
-2525,97	-7,00
-2515,62	-50,00
-2505,28	-2,00
-2494,96	-38,00
-2484,65	-13,00
-2474,36	493,00
-2464,08	21,00
-2453,82	115,00
-2443,57	102,00
-2433,33	29,00
-2423,11	124,00
-2412,91	39,00
-2402,72	88,00
-2392,54	183,00
-2382,38	36,00
-2372,23	24,00
-2362,09	505,00
-2351,97	96,00
-2341,87	122,00
-2331,78	22,00
-2321,70	-116,00
-2311,64	53,00
-2301,59	112,00
-2291,55	41,00
-2281,53	-6,00
-2271,53	-14,00
-2261,53	145,00
-2251,55	60,00
-2241,59	80,00
-2231,64	49,00
-2221,70	117,00
-2211,78	54,00
-2201,87	99,00
-2191,97	13,00
-2182,09	55,00
-2172,22	1,00
-2162,37	-62,00
-2152,53	92,00
-2142,70	98,00
-2132,89	92,00
-2123,09	-26,00
-2113,30	110,00
-2103,53	71,00
-2093,77	20,00
-2084,02	16,00
-2074,29	-70,00
-2064,57	75,00
-2054,86	21,00
-2045,17	-27,00
-2035,49	170,00
-2025,82	-13,00
-2016,17	42,00
-2006,53	-20,00
-1996,91	-35,00
-1987,29	19,00
-1977,69	-4,00
-1968,11	-31,00
-1958,53	56,00
-1948,97	18,00
-1939,42	10,00
-1929,89	70,00
-1920,37	58,00
-1910,86	-12,00
-1901,36	23,00
-1891,88	66,00
-1882,41	-39,00
-1872,95	31,00
-1863,51	-40,00
-1854,08	56,00
-1844,66	43,00
-1835,26	20,00
-1825,86	130,00
-1816,48	-6,00
-1807,11	18,00
-1797,76	65,00
-1788,42	-27,00
-1779,09	63,00
-1769,77	33,00
-1760,47	49,00
-1751,17	57,00
-1741,89	6,00
-1732,63	117,00
-1723,37	255,00
-1714,13	36,00
-1704,90	69,00
-1695,68	15,00
-1686,48	62,00
-1677,29	124,00
-1668,11	177,00
-1658,94	41,00
-1649,78	88,00
-1640,64	29,00
-1631,51	62,00
-1622,39	65,00
-1613,28	83,00
-1604,19	33,00
-1595,10	62,00
-1586,03	57,00
-1576,97	-40,00
-1567,93	134,00
-1558,89	-60,00
-1549,87	-21,00
-1540,86	54,00
-1531,86	95,00
-1522,87	-36,00
-1513,90	238,00
-1504,93	-84,00
-1495,98	-2,00
-1487,04	175,00
-1478,12	84,00
-1469,20	26,00
-1460,30	-33,00
-1451,40	-12,00
-1442,52	208,00
-1433,65	91,00
-1424,80	89,00
-1415,95	-46,00
-1407,12	26,00
-1398,30	47,00
-1389,48	130,00
-1380,69	117,00
-1371,90	69,00
-1363,12	130,00
-1354,36	63,00
-1345,60	30,00
-1336,86	100,00
-1328,13	131,00
-1319,41	34,00
-1310,70	161,00
-1302,01	6,00
-1293,32	-11,00
-1284,65	53,00
-1275,99	133,00
-1267,33	-40,00
-1258,69	17,00
-1250,06	45,00
-1241,45	1,00
-1232,84	83,00
-1224,25	-26,00
-1215,66	4,00
-1207,09	8,00
-1198,53	120,00
-1189,97	146,00
-1181,43	-37,00
-1172,91	71,00
-1164,39	-14,00
-1155,88	53,00
-1147,38	47,00
-1138,90	21,00
-1130,43	-10,00
-1121,96	95,00
-1113,51	145,00
-1105,07	26,00
-1096,64	-1,00
-1088,22	99,00
-1079,81	83,00
-1071,41	70,00
-1063,02	91,00
-1054,65	99,00
-1046,28	99,00
-1037,92	-18,00
-1029,58	144,00
-1021,24	181,00
-1012,92	54,00
-1004,61	-109,00
-996,30	144,00
-988,01	9,00
-979,73	37,00
-971,46	53,00
-963,20	35,00
-954,95	12,00
-946,71	42,00
-938,48	69,00
-930,26	52,00
-922,06	6,00
-913,86	45,00
-905,67	73,00
-897,49	-156,00
-889,33	48,00
-881,17	32,00
-873,02	-25,00
-864,89	62,00
-856,76	128,00
-848,65	19,00
-840,54	162,00
-832,45	-21,00
-824,36	119,00
-816,29	83,00
-808,22	37,00
-800,17	-44,00
-792,12	114,00
-784,09	126,00
-776,06	122,00
-768,05	99,00
-760,04	27,00
-752,05	-39,00
-744,07	-16,00
-736,09	36,00
-728,13	46,00
-720,17	-50,00
-712,23	126,00
-704,29	117,00
-696,37	128,00
-688,45	84,00
-680,55	18,00
-672,65	107,00
-664,77	186,00
-656,89	21,00
-649,03	102,00
-641,17	85,00
-633,32	74,00
-625,49	149,00
-617,66	70,00
-609,84	64,00
-602,03	60,00
-594,23	51,00
-586,45	102,00
-578,67	34,00
-570,90	7,00
-563,14	105,00
-555,39	0,00
-547,65	72,00
-539,91	21,00
-532,19	53,00
-524,48	160,00
-516,78	95,00
-509,08	108,00
-501,40	135,00
-493,72	26,00
-486,06	194,00
-478,40	38,00
-470,76	122,00
-463,12	241,00
-455,49	27,00
-447,87	120,00
-440,26	55,00
-432,66	-27,00
-425,07	1,00
-417,49	119,00
-409,92	41,00
-402,35	122,00
-394,80	64,00
-387,25	37,00
-379,72	-14,00
-372,19	71,00
-364,67	141,00
-357,17	179,00
-349,67	-16,00
-342,18	36,00
-334,69	-23,00
-327,22	12,00
-319,76	-10,00
-312,30	211,00
-304,86	186,00
-297,42	115,00
-290,00	123,00
-282,58	54,00
-275,17	105,00
-267,77	65,00
-260,37	139,00
-252,99	122,00
-245,62	33,00
-238,25	112,00
-230,90	97,00
-223,55	-57,00
-216,21	198,00
-208,88	181,00
-201,56	196,00
-194,25	213,00
-186,94	223,00
-179,65	118,00
-172,36	250,00
-165,08	291,00
-157,81	193,00
-150,55	268,00
-143,30	327,00
-136,06	355,00
-128,82	388,00
-121,60	312,00
-114,38	458,00
-107,17	480,00
-99,97	566,00
-92,78	473,00
-85,60	643,00
-78,42	937,00
-71,25	933,00
-64,10	1039,00
-56,95	1269,00
-49,81	1362,00
-42,67	1778,00
-35,55	2167,00
-28,43	2985,00
-21,33	4888,00
-14,23	16443,00
-7,14	55164,00
-0,05	54791,00
7,02	54542,00
14,09	53481,00
21,14	14627,00
28,19	6052,00
35,23	3774,00
42,27	2797,00
49,29	2417,00
56,31	2144,00
63,32	1651,00
70,32	1378,00
77,31	1362,00
84,29	922,00
91,27	952,00
98,23	793,00
105,19	791,00
112,14	872,00
119,09	1177,00
126,02	1856,00
132,95	2230,00
139,87	2278,00
146,78	2297,00
153,68	2049,00
160,58	2042,00
167,46	2120,00
174,34	2162,00
181,21	2256,00
188,08	2107,00
194,93	2030,00
201,78	1883,00
208,62	2051,00
215,45	2058,00
222,27	2033,00
229,09	1889,00
235,90	1995,00
242,70	1990,00
249,49	1999,00
256,27	1944,00
263,05	1955,00
269,82	1945,00
276,58	1815,00
283,33	1904,00
290,08	1899,00
296,82	1795,00
303,55	1882,00
310,27	1700,00
316,98	1797,00
323,69	1833,00
330,39	1657,00
337,08	1756,00
343,76	1678,00
350,44	1700,00
357,11	1676,00
363,77	1654,00
370,42	1679,00
377,07	1694,00
383,71	1724,00
390,34	1696,00
396,96	1598,00
403,58	1699,00
410,19	1714,00
416,79	1743,00
423,38	1594,00
429,97	1590,00
436,55	1644,00
443,12	1619,00
449,68	1554,00
456,24	1513,00
462,79	1361,00
469,33	1492,00
475,86	1461,00
482,39	1392,00
488,91	1521,00
495,42	1285,00
501,93	1523,00
508,42	1406,00
514,91	1388,00
521,40	1338,00
527,87	1465,00
534,34	1459,00
540,80	1335,00
547,25	1247,00
553,70	1398,00
560,14	1301,00
566,57	1475,00
573,00	1335,00
579,41	1293,00
585,83	1225,00
592,23	1089,00
598,62	1243,00
605,01	1229,00
611,40	1274,00
617,77	1330,00
624,14	1361,00
630,50	1297,00
636,85	1188,00
643,20	1196,00
649,54	1212,00
655,87	1233,00
662,20	1147,00
668,52	1090,00
674,83	1176,00
681,13	1165,00
687,43	997,00
693,72	1135,00
700,00	1140,00
706,28	1285,00
712,55	1118,00
718,81	1240,00
725,07	1128,00
731,32	1038,00
737,56	1164,00
743,79	1223,00
750,02	1313,00
756,24	1179,00
762,46	1059,00
768,67	1251,00
774,87	993,00
781,06	1022,00
787,25	1139,00
793,43	1170,00
799,60	1133,00
805,77	1032,00
811,93	1266,00
818,08	1252,00
824,23	1248,00
830,37	1086,00
836,50	1164,00
842,63	1143,00
848,75	1182,00
854,87	1080,00
860,97	1120,00
867,07	1199,00
873,17	1124,00
879,25	1038,00
885,33	1133,00
891,41	1238,00
897,47	973,00
903,53	1123,00
909,59	1068,00
915,63	1191,00
921,67	935,00
927,71	995,00
933,74	1038,00
939,76	992,00
945,77	911,00
951,78	909,00
957,78	1021,00
963,78	959,00
969,77	891,00
975,75	1057,00
981,72	979,00
987,69	912,00
993,66	1013,00
999,61	914,00
1005,56	888,00
1011,51	1023,00
1017,44	981,00
1023,37	1021,00
1029,30	946,00
1035,22	1090,00
1041,13	1128,00
1047,03	1014,00
1052,93	1036,00
1058,83	1283,00
1064,71	1356,00
1070,59	1229,00
1076,47	1146,00
1082,33	1060,00
1088,20	1034,00
1094,05	974,00
1099,90	975,00
1105,74	999,00
1111,58	1012,00
1117,41	1044,00
1123,23	1204,00
1129,05	1258,00
1134,86	1201,00
1140,67	908,00
1146,47	1030,00
1152,26	990,00
1158,05	761,00
1163,83	973,00
1169,60	975,00
1175,37	910,00
1181,13	916,00
1186,89	895,00
1192,64	783,00
1198,38	930,00
1204,12	819,00
1209,85	927,00
1215,58	963,00
1221,30	833,00
1227,02	934,00
1232,72	976,00
1238,43	797,00
1244,12	899,00
1249,81	926,00
1255,50	929,00
1261,17	903,00
1266,85	935,00
1272,51	994,00
1278,17	960,00
1283,83	1000,00
1289,47	1366,00
1295,12	1487,00
1300,75	1412,00
1306,38	1264,00
1312,01	1183,00
1317,63	1043,00
1323,24	930,00
1328,85	1015,00
1334,45	1066,00
1340,04	904,00
1345,63	1066,00
1351,22	955,00
1356,80	1007,00
1362,37	936,00
1367,93	1025,00
1373,49	1082,00
1379,05	1008,00
1384,60	1087,00
1390,14	1006,00
1395,68	978,00
1401,21	844,00
1406,74	910,00
1412,26	1039,00
1417,77	1112,00
1423,28	1184,00
1428,78	1202,00
1434,28	1457,00
1439,77	1541,00
1445,26	1431,00
1450,74	1495,00
1456,22	1334,00
1461,68	1335,00
1467,15	1292,00
1472,61	1144,00
1478,06	1114,00
1483,51	1086,00
1488,95	943,00
1494,38	930,00
1499,81	948,00
1505,24	746,00
1510,65	829,00
1516,07	940,00
1521,48	889,00
1526,88	866,00
1532,27	834,00
1537,67	885,00
1543,05	745,00
1548,43	868,00
1553,81	793,00
1559,18	854,00
1564,54	707,00
1569,90	827,00
1575,25	854,00
1580,60	850,00
1585,94	643,00
1591,28	749,00
1596,61	787,00
1601,93	797,00
1607,25	872,00
1612,57	814,00
1617,88	860,00
1623,18	809,00
1628,48	649,00
1633,77	642,00
1639,06	751,00
1644,34	682,00
1649,62	824,00
1654,89	787,00
1660,16	696,00
1665,42	772,00
1670,67	710,00
1675,92	731,00
1681,17	738,00
1686,41	698,00
1691,64	615,00
1696,87	693,00
1702,10	590,00
1707,32	786,00
1712,53	654,00
1717,74	697,00
1722,94	540,00
1728,14	570,00
1733,33	778,00
1738,52	632,00
1743,70	691,00
1748,88	643,00
1754,05	651,00
1759,22	671,00
1764,38	691,00
1769,53	593,00
1774,69	687,00
1779,83	608,00
1784,97	646,00
1790,11	555,00
1795,24	652,00
1800,36	624,00
1805,48	571,00
1810,60	589,00
1815,71	455,00
1820,82	557,00
1825,92	592,00
1831,01	585,00
1836,10	504,00
1841,19	630,00
1846,26	715,00
1851,34	628,00
1856,41	592,00
1861,47	539,00
1866,53	602,00
1871,59	534,00
1876,64	489,00
1881,68	398,00
1886,72	507,00
1891,76	622,00
1896,79	474,00
1901,81	507,00
1906,83	385,00
1911,85	499,00
1916,86	492,00
1921,86	635,00
1926,86	467,00
1931,86	475,00
1936,85	405,00
1941,83	485,00
1946,81	444,00
1951,79	471,00
1956,76	507,00
1961,72	387,00
1966,68	496,00
1971,64	395,00
1976,59	435,00
1981,54	450,00
1986,48	383,00
1991,42	535,00
1996,35	488,00
2001,27	349,00
2006,20	405,00
2011,11	522,00
2016,03	437,00
2020,93	312,00
2025,84	465,00
2030,73	398,00
2035,63	429,00
2040,52	599,00
2045,40	491,00
2050,28	430,00
2055,15	280,00
2060,02	436,00
2064,89	427,00
2069,75	400,00
2074,60	403,00
2079,46	381,00
2084,30	386,00
2089,14	429,00
2093,98	354,00
2098,81	357,00
2103,64	336,00
2108,46	314,00
2113,28	363,00
2118,09	304,00
2122,90	410,00
2127,70	336,00
2132,50	390,00
2137,30	325,00
2142,09	437,00
2146,87	388,00
2151,66	412,00
2156,43	370,00
2161,20	198,00
2165,97	464,00
2170,73	370,00
2175,49	413,00
2180,24	348,00
2184,99	555,00
2189,74	415,00
2194,48	361,00
2199,21	379,00
2203,94	313,00
2208,67	332,00
2213,39	284,00
2218,11	220,00
2222,82	442,00
2227,53	374,00
2232,23	310,00
2236,93	274,00
2241,63	345,00
2246,32	414,00
2251,00	221,00
2255,68	291,00
2260,36	277,00
2265,03	322,00
2269,70	327,00
2274,36	250,00
2279,02	298,00
2283,68	367,00
2288,33	254,00
2292,97	269,00
2297,61	328,00
2302,25	339,00
2306,88	349,00
2311,51	323,00
2316,14	283,00
2320,75	319,00
2325,37	234,00
2329,98	418,00
2334,59	280,00
2339,19	250,00
2343,79	234,00
2348,38	237,00
2352,97	226,00
2357,55	255,00
2362,13	238,00
2366,71	374,00
2371,28	238,00
2375,85	276,00
2380,41	225,00
2384,97	235,00
2389,52	242,00
2394,07	284,00
2398,62	145,00
2403,16	183,00
2407,70	345,00
2412,23	263,00
2416,76	369,00
2421,29	269,00
2425,81	312,00
2430,32	362,00
2434,84	181,00
2439,34	269,00
2443,85	242,00
2448,35	195,00
2452,84	158,00
2457,33	130,00
2461,82	301,00
2466,30	286,00
2470,78	343,00
2475,25	210,00
2479,72	255,00
2484,19	251,00
2488,65	235,00
2493,11	180,00
2497,56	235,00
2502,01	200,00
2506,46	331,00
2510,90	126,00
2515,34	296,00
2519,77	235,00
2524,20	259,00
2528,62	172,00
2533,04	269,00
2537,46	87,00
2541,87	244,00
2546,28	183,00
2550,68	366,00
2555,08	281,00
2559,48	338,00
2563,87	175,00
2568,26	140,00
2572,64	374,00
2577,02	226,00
2581,40	230,00
2585,77	238,00
2590,14	201,00
2594,50	152,00
2598,86	239,00
2603,22	154,00
2607,57	292,00
2611,92	168,00
2616,26	183,00
2620,60	275,00
2624,94	210,00
2629,27	366,00
2633,60	191,00
2637,92	245,00
2642,24	206,00
2646,56	173,00
2650,87	78,00
2655,18	227,00
2659,48	214,00
2663,78	258,00
2668,08	301,00
2672,37	298,00
2676,66	218,00
2680,95	204,00
2685,23	209,00
2689,50	186,00
2693,78	211,00
2698,05	216,00
2702,31	115,00
2706,57	215,00
2710,83	318,00
2715,08	201,00
2719,33	335,00
2723,58	284,00
2727,82	331,00
2732,06	167,00
2736,29	387,00
2740,53	210,00
2744,75	251,00
2748,97	260,00
2753,19	300,00
2757,41	361,00
2761,62	324,00
2765,83	193,00
2770,03	149,00
2774,23	154,00
2778,43	281,00
2782,62	225,00
2786,81	294,00
2791,00	208,00
2795,18	363,00
2799,35	149,00
2803,53	325,00
2807,70	384,00
2811,86	244,00
2816,03	349,00
2820,19	343,00
2824,34	338,00
2828,49	467,00
2832,64	489,00
2836,78	547,00
2840,92	702,00
2845,06	814,00
2849,19	761,00
2853,32	819,00
2857,45	957,00
2861,57	1022,00
2865,69	821,00
2869,80	939,00
2873,91	901,00
2878,02	1030,00
2882,12	892,00
2886,22	969,00
2890,32	900,00
2894,41	925,00
2898,50	777,00
2902,58	779,00
2906,67	666,00
2910,74	629,00
2914,82	633,00
2918,89	564,00
2922,96	612,00
2927,02	543,00
2931,08	586,00
2935,13	496,00
2939,19	510,00
2943,24	383,00
2947,28	393,00
2951,32	276,00
2955,36	356,00
2959,40	297,00
2963,43	222,00
2967,46	218,00
2971,48	220,00
2975,50	214,00
2979,52	239,00
2983,53	328,00
2987,54	269,00
2991,55	120,00
2995,55	174,00
2999,55	165,00
3003,54	192,00
3007,54	57,00
3011,53	108,00
3015,51	184,00
3019,49	65,00
3023,47	155,00
3027,45	299,00
3031,42	145,00
3035,39	211,00
3039,35	137,00
3043,31	7,00
3047,27	276,00
3051,22	160,00
3055,17	68,00
3059,12	93,00
3063,06	166,00
3067,00	67,00
3070,94	68,00
3074,87	69,00
3078,80	95,00
3082,73	219,00
3086,65	173,00
3090,57	55,00
3094,49	216,00
3098,40	79,00
3102,31	261,00
3106,22	59,00
3110,12	46,00
3114,02	234,00
3117,92	59,00
3121,81	191,00
3125,70	175,00
3129,58	157,00
3133,47	106,00
3137,34	93,00
3141,22	160,00
3145,09	123,00
3148,96	103,00
3152,83	94,00
3156,69	62,00
3160,55	121,00
3164,40	115,00
3168,26	2,00
3172,10	185,00
3175,95	108,00
3179,79	74,00
3183,63	35,00
3187,47	125,00
3191,30	23,00
3195,13	127,00
3198,95	117,00
3202,78	84,00
3206,60	72,00
3210,41	49,00
3214,23	83,00
3218,03	117,00
3221,84	120,00
3225,64	17,00
3229,44	91,00
3233,24	244,00
3237,03	127,00
3240,82	70,00
3244,61	30,00
3248,39	96,00
3252,17	178,00
3255,95	119,00
3259,72	69,00
3263,49	83,00
3267,26	24,00
3271,03	116,00
3274,79	13,00
3278,54	255,00
3282,30	168,00
3286,05	169,00
3289,80	-27,00
3293,54	114,00
3297,29	131,00
3301,02	32,00
3304,76	149,00
3308,49	97,00
3312,22	-22,00
3315,95	127,00
3319,67	74,00
3323,39	68,00
3327,10	58,00
3330,82	245,00
3334,53	170,00
3338,24	93,00
3341,94	47,00
3345,64	168,00
3349,34	26,00
3353,03	104,00
3356,72	90,00
3360,41	34,00
3364,10	202,00
3367,78	71,00
3371,46	165,00
3375,13	12,00
3378,81	122,00
3382,48	24,00
3386,14	215,00
3389,81	-23,00
3393,47	47,00
3397,12	111,00
3400,78	148,00
3404,43	112,00
3408,08	15,00
3411,72	63,00
3415,36	75,00
3419,00	-146,00
3422,64	-75,00
3426,27	70,00
3429,90	57,00
3433,53	11,00
3437,15	114,00
3440,77	36,00
3444,39	8,00
3448,00	-103,00
3451,62	170,00
3455,22	58,00
3458,83	-15,00
3462,43	159,00
3466,03	55,00
3469,63	-30,00
3473,22	104,00
3476,81	48,00
3480,40	100,00
3483,99	28,00
3487,57	63,00
3491,15	-66,00
3494,72	91,00
3498,29	160,00
3501,86	14,00
3505,43	60,00
3508,99	49,00
3512,56	79,00
3516,11	11,00
3519,67	49,00
3523,22	44,00
3526,77	96,00
3530,32	131,00
3533,86	65,00
3537,40	59,00
3540,94	177,00
3544,47	28,00
3548,00	195,00
3551,53	126,00
3555,06	64,00
3558,58	35,00
3562,10	-19,00
3565,62	92,00
3569,13	78,00
3572,64	100,00
3576,15	30,00
3579,66	68,00
3583,16	104,00
3586,66	33,00
3590,16	57,00
3593,65	107,00
3597,14	36,00
3600,63	67,00
3604,11	15,00
3607,60	76,00
3611,08	128,00
3614,55	-37,00
3618,03	92,00
3621,50	-75,00
3624,97	96,00
3628,43	66,00
3631,90	-76,00
3635,36	114,00
3638,81	114,00
3642,27	-90,00
3645,72	174,00
3649,17	123,00
3652,61	79,00
3656,06	-32,00
3659,50	100,00
3662,93	12,00
3666,37	15,00
3669,80	93,00
3673,23	-35,00
3676,65	141,00
3680,08	43,00
3683,50	61,00
3686,92	-18,00
3690,33	79,00
3693,74	-49,00
3697,15	182,00
3700,56	149,00
3703,96	-14,00
3707,36	-127,00
3710,76	4,00
3714,16	23,00
3717,55	-10,00
3720,94	6,00
3724,33	78,00
3727,71	79,00
3731,10	-4,00
3734,48	78,00
3737,85	-17,00
3741,23	20,00
3744,60	-90,00
3747,97	-61,00
3751,33	117,00
3754,69	107,00
3758,05	49,00
3761,41	-43,00
3764,77	-13,00
3768,12	27,00
3771,47	151,00
3774,82	84,00
3778,16	-1,00
3781,50	1,00
3784,84	3,00
3788,18	5,00
>>>>>End Processed Spectral Data<<<<<
