SpectraSuite Data File
++++++++++++++++++++++++++++++++++++
Date: Mon Mar 09 16:19:54 ICT 2026
User: Administrator
Dark Spectrum Present: Yes
Reference Spectrum Present: No
Number of Sampled Component Spectra: 1
Spectrometers: MAYP113682
Integration Time (usec): 3000000 (MAYP113682)
Spectra Averaged: 1 (MAYP113682)
Boxcar Smoothing: 0 (MAYP113682)
Correct for Electrical Dark: No (MAYP113682)
Strobe/Lamp Enabled: No (MAYP113682)
Correct for Detector Non-linearity: No (MAYP113682)
Correct for Stray Light: No (MAYP113682)
Number of Pixels in Processed Spectrum: 2068
>>>>>Begin Processed Spectral Data<<<<<
-37534,58	-3,00
-37414,56	-2,00
-37295,11	-3,00
-37176,24	0,00
-37057,95	-44,00
-36940,22	118,00
-36823,05	103,00
-36706,45	77,00
-36590,40	66,00
-36474,90	119,00
-36359,95	-48,00
-36245,55	75,00
-36131,68	98,00
-36018,35	116,00
-35905,55	13,00
-35793,29	-41,00
-35681,54	91,00
-35570,32	54,00
-35459,62	-35,00
-35349,43	28,00
-35239,75	118,00
-35130,58	98,00
-35021,91	64,00
-34913,74	29,00
-34806,07	122,00
-34698,89	2,00
-34592,20	-26,00
-34486,00	21,00
-34380,28	76,00
-34275,04	102,00
-34170,27	-67,00
-34065,98	52,00
-33962,16	79,00
-33858,81	38,00
-33755,92	163,00
-33653,49	124,00
-33551,52	45,00
-33450,01	139,00
-33348,94	50,00
-33248,33	-53,00
-33148,16	68,00
-33048,43	149,00
-32949,14	74,00
-32850,29	75,00
-32751,87	-28,00
-32653,89	66,00
-32556,33	-69,00
-32459,20	154,00
-32362,49	188,00
-32266,19	154,00
-32170,32	51,00
-32074,86	59,00
-31979,82	-98,00
-31885,18	-9,00
-31790,95	73,00
-31697,12	-43,00
-31603,69	170,00
-31510,67	-38,00
-31418,04	130,00
-31325,80	49,00
-31233,95	162,00
-31142,49	142,00
-31051,42	98,00
-30960,73	-39,00
-30870,43	-19,00
-30780,50	96,00
-30690,95	-18,00
-30601,77	136,00
-30512,97	123,00
-30424,53	15,00
-30336,46	33,00
-30248,76	42,00
-30161,42	113,00
-30074,44	117,00
-29987,81	97,00
-29901,55	106,00
-29815,63	26,00
-29730,07	41,00
-29644,86	54,00
-29560,00	60,00
-29475,48	168,00
-29391,30	116,00
-29307,47	36,00
-29223,97	10,00
-29140,81	164,00
-29057,99	75,00
-28975,50	84,00
-28893,34	15,00
-28811,51	20,00
-28730,00	131,00
-28648,82	-18,00
-28567,97	-12,00
-28487,43	21,00
-28407,21	95,00
-28327,32	70,00
-28247,73	130,00
-28168,46	95,00
-28089,50	111,00
-28010,85	-29,00
-27932,51	128,00
-27854,48	9,00
-27776,75	17,00
-27699,32	42,00
-27622,19	132,00
-27545,37	-5,00
-27468,84	64,00
-27392,60	24,00
-27316,66	32,00
-27241,01	20,00
-27165,66	-61,00
-27090,59	60,00
-27015,81	152,00
-26941,31	-88,00
-26867,10	83,00
-26793,17	-47,00
-26719,52	25,00
-26646,15	39,00
-26573,06	-2,00
-26500,24	100,00
-26427,70	123,00
-26355,43	-27,00
-26283,43	54,00
-26211,71	-23,00
-26140,25	144,00
-26069,06	128,00
-25998,13	110,00
-25927,46	-62,00
-25857,06	138,00
-25786,92	107,00
-25717,04	59,00
-25647,42	151,00
-25578,05	1,00
-25508,94	141,00
-25440,09	41,00
-25371,48	41,00
-25303,13	161,00
-25235,02	84,00
-25167,17	115,00
-25099,56	7,00
-25032,19	78,00
-24965,07	20,00
-24898,20	61,00
-24831,56	110,00
-24765,17	163,00
-24699,01	147,00
-24633,10	1,00
-24567,41	104,00
-24501,97	80,00
-24436,75	32,00
-24371,77	119,00
-24307,03	25,00
-24242,51	145,00
-24178,22	-48,00
-24114,16	47,00
-24050,32	33,00
-23986,71	213,00
-23923,32	118,00
-23860,16	14,00
-23797,22	93,00
-23734,50	54,00
-23672,00	37,00
-23609,71	101,00
-23547,65	-21,00
-23485,80	24,00
-23424,16	27,00
-23362,74	44,00
-23301,53	-30,00
-23240,54	0,00
-23179,75	93,00
-23119,17	16,00
-23058,80	92,00
-22998,64	46,00
-22938,68	11,00
-22878,93	141,00
-22819,39	147,00
-22760,04	37,00
-22700,90	-4,00
-22641,96	-34,00
-22583,22	70,00
-22524,68	60,00
-22466,33	26,00
-22408,19	72,00
-22350,23	10,00
-22292,48	81,00
-22234,92	81,00
-22177,55	6,00
-22120,37	85,00
-22063,38	103,00
-22006,58	52,00
-21949,98	8,00
-21893,56	24,00
-21837,33	38,00
-21781,28	90,00
-21725,42	78,00
-21669,74	97,00
-21614,25	53,00
-21558,94	40,00
-21503,81	73,00
-21448,86	-11,00
-21394,10	147,00
-21339,51	84,00
-21285,10	-2,00
-21230,86	63,00
-21176,81	58,00
-21122,93	89,00
-21069,22	18,00
-21015,69	18,00
-20962,33	124,00
-20909,14	72,00
-20856,13	69,00
-20803,28	142,00
-20750,61	-3,00
-20698,10	36,00
-20645,76	50,00
-20593,59	64,00
-20541,59	55,00
-20489,75	-91,00
-20438,07	166,00
-20386,56	30,00
-20335,22	204,00
-20284,03	4,00
-20233,01	23,00
-20182,15	-50,00
-20131,45	4,00
-20080,91	12,00
-20030,52	50,00
-19980,30	59,00
-19930,23	23,00
-19880,32	78,00
-19830,56	21,00
-19780,96	66,00
-19731,52	45,00
-19682,23	151,00
-19633,09	6,00
-19584,10	14,00
-19535,26	83,00
-19486,58	10,00
-19438,04	9,00
-19389,66	39,00
-19341,42	-42,00
-19293,33	39,00
-19245,39	83,00
-19197,60	213,00
-19149,95	138,00
-19102,45	101,00
-19055,09	67,00
-19007,87	83,00
-18960,80	194,00
-18913,87	-24,00
-18867,09	64,00
-18820,44	-24,00
-18773,94	47,00
-18727,57	88,00
-18681,35	70,00
-18635,26	92,00
-18589,31	135,00
-18543,50	1,00
-18497,83	-1,00
-18452,29	29,00
-18406,89	19,00
-18361,63	121,00
-18316,50	143,00
-18271,50	155,00
-18226,63	-45,00
-18181,90	43,00
-18137,30	136,00
-18092,84	16,00
-18048,50	138,00
-18004,29	54,00
-17960,22	41,00
-17916,27	130,00
-17872,45	66,00
-17828,76	109,00
-17785,20	11,00
-17741,77	69,00
-17698,46	48,00
-17655,28	101,00
-17612,22	96,00
-17569,29	80,00
-17526,48	60,00
-17483,79	110,00
-17441,23	22,00
-17398,79	0,00
-17356,48	7,00
-17314,28	36,00
-17272,21	16,00
-17230,26	103,00
-17188,42	146,00
-17146,71	22,00
-17105,12	43,00
-17063,64	-94,00
-17022,28	174,00
-16981,04	51,00
-16939,92	104,00
-16898,91	68,00
-16858,02	44,00
-16817,25	17,00
-16776,59	88,00
-16736,04	58,00
-16695,61	51,00
-16655,29	-12,00
-16615,09	157,00
-16574,99	72,00
-16535,01	42,00
-16495,15	82,00
-16455,39	112,00
-16415,74	70,00
-16376,21	129,00
-16336,78	9,00
-16297,46	81,00
-16258,26	68,00
-16219,16	3,00
-16180,17	57,00
-16141,28	155,00
-16102,51	45,00
-16063,84	31,00
-16025,27	61,00
-15986,82	155,00
-15948,46	-29,00
-15910,22	34,00
-15872,07	68,00
-15834,04	100,00
-15796,10	15,00
-15758,27	214,00
-15720,54	9,00
-15682,91	119,00
-15645,39	28,00
-15607,97	36,00
-15570,64	58,00
-15533,42	0,00
-15496,30	169,00
-15459,28	167,00
-15422,36	82,00
-15385,54	-48,00
-15348,82	35,00
-15312,19	75,00
-15275,66	77,00
-15239,23	101,00
-15202,90	35,00
-15166,67	-5,00
-15130,53	81,00
-15094,48	89,00
-15058,54	71,00
-15022,68	78,00
-14986,93	95,00
-14951,26	110,00
-14915,69	87,00
-14880,22	112,00
-14844,84	-13,00
-14809,55	81,00
-14774,35	89,00
-14739,25	55,00
-14704,24	-36,00
-14669,32	-72,00
-14634,49	167,00
-14599,75	-7,00
-14565,10	65,00
-14530,55	48,00
-14496,08	-26,00
-14461,70	44,00
-14427,41	84,00
-14393,21	61,00
-14359,10	42,00
-14325,07	22,00
-14291,14	-2,00
-14257,29	73,00
-14223,52	16,00
-14189,85	102,00
-14156,26	110,00
-14122,76	18,00
-14089,34	143,00
-14056,01	147,00
-14022,76	40,00
-13989,60	-28,00
-13956,52	116,00
-13923,53	-19,00
-13890,62	92,00
-13857,79	-116,00
-13825,05	27,00
-13792,39	-13,00
-13759,81	31,00
-13727,31	51,00
-13694,90	64,00
-13662,57	28,00
-13630,31	79,00
-13598,14	44,00
-13566,05	51,00
-13534,05	145,00
-13502,12	-73,00
-13470,27	73,00
-13438,50	66,00
-13406,80	-14,00
-13375,19	145,00
-13343,66	-30,00
-13312,20	-59,00
-13280,83	-89,00
-13249,53	124,00
-13218,30	73,00
-13187,16	87,00
-13156,09	2,00
-13125,10	155,00
-13094,18	119,00
-13063,34	126,00
-13032,58	29,00
-13001,89	27,00
-12971,28	3,00
-12940,74	109,00
-12910,27	108,00
-12879,88	7,00
-12849,57	133,00
-12819,33	57,00
-12789,16	38,00
-12759,06	169,00
-12729,04	29,00
-12699,09	130,00
-12669,21	-46,00
-12639,41	16,00
-12609,68	26,00
-12580,02	83,00
-12550,43	14,00
-12520,91	-41,00
-12491,46	79,00
-12462,08	5,00
-12432,77	-45,00
-12403,54	-55,00
-12374,37	177,00
-12345,27	76,00
-12316,24	63,00
-12287,29	137,00
-12258,40	130,00
-12229,57	135,00
-12200,82	69,00
-12172,14	59,00
-12143,52	113,00
-12114,97	124,00
-12086,49	42,00
-12058,07	14,00
-12029,73	65,00
-12001,44	69,00
-11973,23	113,00
-11945,08	53,00
-11917,00	192,00
-11888,98	-6,00
-11861,03	111,00
-11833,15	49,00
-11805,32	29,00
-11777,57	97,00
-11749,88	38,00
-11722,25	-72,00
-11694,69	43,00
-11667,19	114,00
-11639,75	24,00
-11612,38	49,00
-11585,07	16,00
-11557,83	34,00
-11530,65	5,00
-11503,53	118,00
-11476,47	108,00
-11449,48	46,00
-11422,54	-61,00
-11395,67	-15,00
-11368,86	94,00
-11342,11	8,00
-11315,43	-29,00
-11288,80	-5,00
-11262,23	58,00
-11235,73	-8,00
-11209,28	2,00
-11182,90	126,00
-11156,57	51,00
-11130,31	208,00
-11104,10	-55,00
-11077,96	0,00
-11051,87	177,00
-11025,84	33,00
-10999,87	75,00
-10973,96	28,00
-10948,11	5,00
-10922,31	88,00
-10896,58	23,00
-10870,90	8,00
-10845,28	39,00
-10819,71	31,00
-10794,20	-29,00
-10768,75	20,00
-10743,36	27,00
-10718,02	90,00
-10692,74	96,00
-10667,52	113,00
-10642,35	78,00
-10617,24	56,00
-10592,18	88,00
-10567,18	159,00
-10542,23	179,00
-10517,34	108,00
-10492,51	-21,00
-10467,72	143,00
-10443,00	160,00
-10418,32	154,00
-10393,70	0,00
-10369,14	56,00
-10344,63	65,00
-10320,17	192,00
-10295,77	179,00
-10271,42	44,00
-10247,12	84,00
-10222,88	-50,00
-10198,68	57,00
-10174,54	55,00
-10150,46	57,00
-10126,42	66,00
-10102,44	86,00
-10078,51	48,00
-10054,63	53,00
-10030,80	125,00
-10007,03	71,00
-9983,30	64,00
-9959,63	64,00
-9936,01	240,00
-9912,44	128,00
-9888,92	62,00
-9865,44	172,00
-9842,02	50,00
-9818,65	244,00
-9795,33	103,00
-9772,06	56,00
-9748,84	65,00
-9725,67	143,00
-9702,55	153,00
-9679,47	181,00
-9656,45	241,00
-9633,47	249,00
-9610,55	250,00
-9587,67	129,00
-9564,84	260,00
-9542,06	107,00
-9519,32	264,00
-9496,64	316,00
-9474,00	205,00
-9451,41	352,00
-9428,87	248,00
-9406,37	209,00
-9383,92	183,00
-9361,52	233,00
-9339,17	50,00
-9316,86	226,00
-9294,60	370,00
-9272,38	353,00
-9250,21	351,00
-9228,09	430,00
-9206,01	322,00
-9183,98	404,00
-9162,00	235,00
-9140,06	195,00
-9118,16	255,00
-9096,31	349,00
-9074,51	308,00
-9052,75	300,00
-9031,04	326,00
-9009,37	336,00
-8987,74	235,00
-8966,16	207,00
-8944,63	79,00
-8923,14	104,00
-8901,69	210,00
-8880,29	352,00
-8858,93	317,00
-8837,61	398,00
-8816,34	546,00
-8795,11	505,00
-8773,92	314,00
-8752,78	257,00
-8731,68	345,00
-8710,62	293,00
-8689,61	423,00
-8668,63	465,00
-8647,70	300,00
-8626,82	405,00
-8605,97	447,00
-8585,17	286,00
-8564,41	343,00
-8543,69	195,00
-8523,01	181,00
-8502,37	247,00
-8481,78	430,00
-8461,23	308,00
-8440,71	379,00
-8420,24	302,00
-8399,81	411,00
-8379,42	492,00
-8359,08	340,00
-8338,77	373,00
-8318,50	253,00
-8298,27	238,00
-8278,09	316,00
-8257,94	347,00
-8237,83	428,00
-8217,76	538,00
-8197,74	485,00
-8177,75	275,00
-8157,80	428,00
-8137,89	405,00
-8118,02	332,00
-8098,19	341,00
-8078,40	385,00
-8058,65	400,00
-8038,93	461,00
-8019,26	397,00
-7999,62	380,00
-7980,02	268,00
-7960,46	353,00
-7940,94	351,00
-7921,46	242,00
-7902,01	341,00
-7882,60	315,00
-7863,23	382,00
-7843,90	311,00
-7824,61	291,00
-7805,35	297,00
-7786,13	410,00
-7766,95	374,00
-7747,80	359,00
-7728,69	369,00
-7709,62	272,00
-7690,59	468,00
-7671,59	449,00
-7652,63	461,00
-7633,70	398,00
-7614,81	338,00
-7595,96	472,00
-7577,15	224,00
-7558,37	336,00
-7539,62	350,00
-7520,91	467,00
-7502,24	355,00
-7483,60	367,00
-7465,00	372,00
-7446,44	266,00
-7427,91	254,00
-7409,41	246,00
-7390,95	183,00
-7372,53	111,00
-7354,14	240,00
-7335,78	49,00
-7317,46	372,00
-7299,18	190,00
-7280,92	224,00
-7262,71	378,00
-7244,52	359,00
-7226,38	485,00
-7208,26	483,00
-7190,18	383,00
-7172,14	299,00
-7154,12	239,00
-7136,15	194,00
-7118,20	453,00
-7100,29	284,00
-7082,41	386,00
-7064,57	431,00
-7046,76	181,00
-7028,98	251,00
-7011,24	167,00
-6993,53	64,00
-6975,85	119,00
-6958,20	96,00
-6940,59	-19,00
-6923,01	111,00
-6905,46	77,00
-6887,94	279,00
-6870,46	256,00
-6853,01	274,00
-6835,59	330,00
-6818,21	311,00
-6800,85	288,00
-6783,53	68,00
-6766,24	-20,00
-6748,98	-92,00
-6731,76	-49,00
-6714,56	-142,00
-6697,40	63,00
-6680,26	-49,00
-6663,16	121,00
-6646,09	74,00
-6629,05	169,00
-6612,05	274,00
-6595,07	271,00
-6578,13	119,00
-6561,21	172,00
-6544,33	91,00
-6527,47	110,00
-6510,65	-112,00
-6493,86	-78,00
-6477,10	42,00
-6460,36	-3,00
-6443,66	-6,00
-6426,99	49,00
-6410,35	14,00
-6393,74	108,00
-6377,16	114,00
-6360,61	-9,00
-6344,09	147,00
-6327,59	-24,00
-6311,13	101,00
-6294,70	103,00
-6278,29	337,00
-6261,92	259,00
-6245,58	250,00
-6229,26	196,00
-6212,97	216,00
-6196,72	135,00
-6180,49	-122,00
-6164,29	76,00
-6148,12	11,00
-6131,98	-136,00
-6115,86	-43,00
-6099,78	-103,00
-6083,72	-68,00
-6067,69	-113,00
-6051,69	-68,00
-6035,72	77,00
-6019,78	67,00
-6003,87	7,00
-5987,98	99,00
-5972,12	162,00
-5956,29	132,00
-5940,49	151,00
-5924,71	9,00
-5908,96	20,00
-5893,24	-8,00
-5877,55	54,00
-5861,89	40,00
-5846,25	-127,00
-5830,64	-5,00
-5815,05	2,00
-5799,50	49,00
-5783,97	79,00
-5768,47	107,00
-5752,99	41,00
-5737,55	115,00
-5722,12	165,00
-5706,73	175,00
-5691,36	171,00
-5676,02	91,00
-5660,71	1,00
-5645,42	25,00
-5630,16	-78,00
-5614,92	131,00
-5599,71	65,00
-5584,53	-48,00
-5569,37	123,00
-5554,24	1098,00
-5539,14	-8,00
-5524,06	-10,00
-5509,01	79,00
-5493,98	-90,00
-5478,98	124,00
-5464,00	98,00
-5449,05	-9,00
-5434,13	-78,00
-5419,23	-34,00
-5404,36	-17,00
-5389,51	144,00
-5374,69	133,00
-5359,89	-12,00
-5345,12	235,00
-5330,37	236,00
-5315,65	145,00
-5300,95	102,00
-5286,28	55,00
-5271,63	6,00
-5257,01	-15,00
-5242,41	120,00
-5227,84	-26,00
-5213,29	-30,00
-5198,76	-88,00
-5184,26	110,00
-5169,79	33,00
-5155,33	23,00
-5140,91	-89,00
-5126,51	-50,00
-5112,13	135,00
-5097,77	47,00
-5083,44	-86,00
-5069,13	3,00
-5054,85	33,00
-5040,59	11,00
-5026,36	21,00
-5012,15	72,00
-4997,96	-8,00
-4983,80	-4,00
-4969,66	108,00
-4955,54	38,00
-4941,44	154,00
-4927,37	102,00
-4913,33	268,00
-4899,30	284,00
-4885,30	164,00
-4871,33	121,00
-4857,37	85,00
-4843,44	131,00
-4829,53	49,00
-4815,65	18,00
-4801,79	111,00
-4787,95	52,00
-4774,13	99,00
-4760,34	82,00
-4746,56	-59,00
-4732,82	62,00
-4719,09	28,00
-4705,38	237,00
-4691,70	163,00
-4678,04	93,00
-4664,41	68,00
-4650,79	29,00
-4637,20	36,00
-4623,63	91,00
-4610,08	46,00
-4596,56	-24,00
-4583,05	138,00
-4569,57	93,00
-4556,11	121,00
-4542,67	52,00
-4529,25	62,00
-4515,86	25,00
-4502,49	121,00
-4489,13	135,00
-4475,80	167,00
-4462,49	96,00
-4449,21	137,00
-4435,94	98,00
-4422,70	4,00
-4409,47	29,00
-4396,27	84,00
-4383,09	75,00
-4369,93	-45,00
-4356,79	92,00
-4343,67	56,00
-4330,58	95,00
-4317,50	63,00
-4304,45	68,00
-4291,41	-18,00
-4278,40	24,00
-4265,41	35,00
-4252,44	82,00
-4239,49	48,00
-4226,55	103,00
-4213,65	91,00
-4200,76	20,00
-4187,89	69,00
-4175,04	56,00
-4162,21	40,00
-4149,40	26,00
-4136,61	218,00
-4123,85	79,00
-4111,10	-2,00
-4098,37	27,00
-4085,66	172,00
-4072,98	188,00
-4060,31	41,00
-4047,66	51,00
-4035,04	69,00
-4022,43	81,00
-4009,84	77,00
-3997,27	-2,00
-3984,72	132,00
-3972,19	80,00
-3959,69	31,00
-3947,20	51,00
-3934,73	-105,00
-3922,27	219,00
-3909,84	26,00
-3897,43	131,00
-3885,04	-5,00
-3872,67	28,00
-3860,31	-101,00
-3847,98	94,00
-3835,66	4,00
-3823,36	11,00
-3811,09	24,00
-3798,83	29,00
-3786,59	95,00
-3774,37	207,00
-3762,17	83,00
-3749,98	70,00
-3737,82	112,00
-3725,67	73,00
-3713,55	-29,00
-3701,44	133,00
-3689,35	-15,00
-3677,28	48,00
-3665,22	-48,00
-3653,19	-16,00
-3641,17	71,00
-3629,18	114,00
-3617,20	54,00
-3605,24	57,00
-3593,30	-32,00
-3581,37	33,00
-3569,47	66,00
-3557,58	46,00
-3545,71	150,00
-3533,86	135,00
-3522,02	-53,00
-3510,21	82,00
-3498,41	-42,00
-3486,63	88,00
-3474,87	29,00
-3463,12	133,00
-3451,40	201,00
-3439,69	170,00
-3428,00	205,00
-3416,33	47,00
-3404,67	31,00
-3393,03	90,00
-3381,41	25,00
-3369,81	-119,00
-3358,22	52,00
-3346,66	126,00
-3335,10	93,00
-3323,57	105,00
-3312,06	161,00
-3300,56	40,00
-3289,08	10,00
-3277,61	40,00
-3266,16	54,00
-3254,73	144,00
-3243,32	69,00
-3231,92	64,00
-3220,55	-1,00
-3209,18	66,00
-3197,84	46,00
-3186,51	39,00
-3175,20	107,00
-3163,90	14,00
-3152,63	20,00
-3141,36	78,00
-3130,12	39,00
-3118,89	9,00
-3107,68	101,00
-3096,49	99,00
-3085,31	35,00
-3074,15	29,00
-3063,00	42,00
-3051,87	91,00
-3040,76	31,00
-3029,67	68,00
-3018,59	-71,00
-3007,52	32,00
-2996,48	-25,00
-2985,44	67,00
-2974,43	63,00
-2963,43	69,00
-2952,45	66,00
-2941,48	57,00
-2930,53	-104,00
-2919,60	107,00
-2908,68	131,00
-2897,78	61,00
-2886,89	80,00
-2876,02	84,00
-2865,17	69,00
-2854,33	154,00
-2843,50	71,00
-2832,70	52,00
-2821,90	-10,00
-2811,13	126,00
-2800,37	-78,00
-2789,62	91,00
-2778,89	224,00
-2768,18	122,00
-2757,48	40,00
-2746,80	6,00
-2736,13	38,00
-2725,48	107,00
-2714,84	-19,00
-2704,22	80,00
-2693,61	52,00
-2683,02	-14,00
-2672,45	117,00
-2661,89	-67,00
-2651,34	23,00
-2640,81	101,00
-2630,30	-14,00
-2619,80	158,00
-2609,31	84,00
-2598,84	-48,00
-2588,39	30,00
-2577,95	23,00
-2567,52	102,00
-2557,11	51,00
-2546,71	96,00
-2536,33	159,00
-2525,97	24,00
-2515,62	-62,00
-2505,28	88,00
-2494,96	47,00
-2484,65	118,00
-2474,36	389,00
-2464,08	35,00
-2453,82	1,00
-2443,57	116,00
-2433,33	85,00
-2423,11	130,00
-2412,91	-61,00
-2402,72	33,00
-2392,54	146,00
-2382,38	56,00
-2372,23	19,00
-2362,09	522,00
-2351,97	160,00
-2341,87	43,00
-2331,78	-40,00
-2321,70	-56,00
-2311,64	117,00
-2301,59	126,00
-2291,55	70,00
-2281,53	75,00
-2271,53	-22,00
-2261,53	200,00
-2251,55	86,00
-2241,59	74,00
-2231,64	-10,00
-2221,70	53,00
-2211,78	161,00
-2201,87	100,00
-2191,97	26,00
-2182,09	38,00
-2172,22	197,00
-2162,37	109,00
-2152,53	-3,00
-2142,70	16,00
-2132,89	87,00
-2123,09	-66,00
-2113,30	168,00
-2103,53	53,00
-2093,77	103,00
-2084,02	49,00
-2074,29	59,00
-2064,57	47,00
-2054,86	36,00
-2045,17	30,00
-2035,49	98,00
-2025,82	-24,00
-2016,17	7,00
-2006,53	124,00
-1996,91	19,00
-1987,29	29,00
-1977,69	37,00
-1968,11	46,00
-1958,53	-16,00
-1948,97	34,00
-1939,42	95,00
-1929,89	-6,00
-1920,37	134,00
-1910,86	51,00
-1901,36	50,00
-1891,88	77,00
-1882,41	39,00
-1872,95	154,00
-1863,51	-44,00
-1854,08	21,00
-1844,66	79,00
-1835,26	147,00
-1825,86	32,00
-1816,48	7,00
-1807,11	143,00
-1797,76	22,00
-1788,42	15,00
-1779,09	68,00
-1769,77	50,00
-1760,47	48,00
-1751,17	-52,00
-1741,89	-6,00
-1732,63	55,00
-1723,37	266,00
-1714,13	71,00
-1704,90	-16,00
-1695,68	38,00
-1686,48	117,00
-1677,29	55,00
-1668,11	154,00
-1658,94	142,00
-1649,78	16,00
-1640,64	115,00
-1631,51	-19,00
-1622,39	104,00
-1613,28	72,00
-1604,19	-45,00
-1595,10	70,00
-1586,03	95,00
-1576,97	9,00
-1567,93	101,00
-1558,89	24,00
-1549,87	-68,00
-1540,86	68,00
-1531,86	125,00
-1522,87	-13,00
-1513,90	164,00
-1504,93	-115,00
-1495,98	10,00
-1487,04	92,00
-1478,12	50,00
-1469,20	1,00
-1460,30	11,00
-1451,40	18,00
-1442,52	164,00
-1433,65	107,00
-1424,80	69,00
-1415,95	112,00
-1407,12	1,00
-1398,30	152,00
-1389,48	60,00
-1380,69	47,00
-1371,90	90,00
-1363,12	174,00
-1354,36	-3,00
-1345,60	73,00
-1336,86	71,00
-1328,13	111,00
-1319,41	-3,00
-1310,70	74,00
-1302,01	120,00
-1293,32	-69,00
-1284,65	152,00
-1275,99	63,00
-1267,33	71,00
-1258,69	57,00
-1250,06	107,00
-1241,45	128,00
-1232,84	75,00
-1224,25	-41,00
-1215,66	66,00
-1207,09	-8,00
-1198,53	52,00
-1189,97	139,00
-1181,43	27,00
-1172,91	65,00
-1164,39	80,00
-1155,88	53,00
-1147,38	7,00
-1138,90	78,00
-1130,43	22,00
-1121,96	66,00
-1113,51	117,00
-1105,07	57,00
-1096,64	-36,00
-1088,22	124,00
-1079,81	119,00
-1071,41	100,00
-1063,02	13,00
-1054,65	22,00
-1046,28	43,00
-1037,92	85,00
-1029,58	114,00
-1021,24	46,00
-1012,92	195,00
-1004,61	12,00
-996,30	93,00
-988,01	-59,00
-979,73	25,00
-971,46	65,00
-963,20	-57,00
-954,95	45,00
-946,71	50,00
-938,48	13,00
-930,26	119,00
-922,06	40,00
-913,86	101,00
-905,67	61,00
-897,49	-21,00
-889,33	27,00
-881,17	88,00
-873,02	0,00
-864,89	189,00
-856,76	72,00
-848,65	106,00
-840,54	82,00
-832,45	-90,00
-824,36	108,00
-816,29	39,00
-808,22	62,00
-800,17	10,00
-792,12	147,00
-784,09	61,00
-776,06	41,00
-768,05	81,00
-760,04	-48,00
-752,05	68,00
-744,07	76,00
-736,09	-22,00
-728,13	-22,00
-720,17	-6,00
-712,23	24,00
-704,29	144,00
-696,37	135,00
-688,45	76,00
-680,55	107,00
-672,65	138,00
-664,77	151,00
-656,89	57,00
-649,03	97,00
-641,17	66,00
-633,32	55,00
-625,49	58,00
-617,66	46,00
-609,84	68,00
-602,03	65,00
-594,23	130,00
-586,45	121,00
-578,67	0,00
-570,90	-14,00
-563,14	110,00
-555,39	35,00
-547,65	184,00
-539,91	61,00
-532,19	155,00
-524,48	50,00
-516,78	85,00
-509,08	105,00
-501,40	88,00
-493,72	107,00
-486,06	118,00
-478,40	98,00
-470,76	137,00
-463,12	180,00
-455,49	-44,00
-447,87	81,00
-440,26	102,00
-432,66	-33,00
-425,07	-14,00
-417,49	135,00
-409,92	19,00
-402,35	161,00
-394,80	141,00
-387,25	11,00
-379,72	42,00
-372,19	84,00
-364,67	220,00
-357,17	76,00
-349,67	33,00
-342,18	69,00
-334,69	31,00
-327,22	-77,00
-319,76	78,00
-312,30	148,00
-304,86	116,00
-297,42	130,00
-290,00	83,00
-282,58	140,00
-275,17	101,00
-267,77	157,00
-260,37	165,00
-252,99	218,00
-245,62	43,00
-238,25	218,00
-230,90	28,00
-223,55	-9,00
-216,21	155,00
-208,88	213,00
-201,56	248,00
-194,25	244,00
-186,94	243,00
-179,65	212,00
-172,36	331,00
-165,08	266,00
-157,81	178,00
-150,55	299,00
-143,30	357,00
-136,06	371,00
-128,82	378,00
-121,60	473,00
-114,38	465,00
-107,17	560,00
-99,97	572,00
-92,78	618,00
-85,60	641,00
-78,42	933,00
-71,25	1019,00
-64,10	1191,00
-56,95	1366,00
-49,81	1603,00
-42,67	1997,00
-35,55	2419,00
-28,43	3360,00
-21,33	5438,00
-14,23	18393,00
-7,14	55164,00
-0,05	54791,00
7,02	54542,00
14,09	54846,00
21,14	16503,00
28,19	6791,00
35,23	4262,00
42,27	3113,00
49,29	2617,00
56,31	2188,00
63,32	1837,00
70,32	1500,00
77,31	1364,00
84,29	1037,00
91,27	1138,00
98,23	810,00
105,19	964,00
112,14	952,00
119,09	1381,00
126,02	2090,00
132,95	2329,00
139,87	2375,00
146,78	2371,00
153,68	2261,00
160,58	2226,00
167,46	2170,00
174,34	2226,00
181,21	2180,00
188,08	2158,00
194,93	2078,00
201,78	2079,00
208,62	2089,00
215,45	2149,00
222,27	2239,00
229,09	2100,00
235,90	1990,00
242,70	1948,00
249,49	2075,00
256,27	2004,00
263,05	1965,00
269,82	2086,00
276,58	1971,00
283,33	1893,00
290,08	1928,00
296,82	1846,00
303,55	1934,00
310,27	1749,00
316,98	1910,00
323,69	1872,00
330,39	1786,00
337,08	1785,00
343,76	1753,00
350,44	1787,00
357,11	1793,00
363,77	1764,00
370,42	1803,00
377,07	1748,00
383,71	1783,00
390,34	1597,00
396,96	1792,00
403,58	1704,00
410,19	1870,00
416,79	1720,00
423,38	1761,00
429,97	1665,00
436,55	1652,00
443,12	1589,00
449,68	1526,00
456,24	1631,00
462,79	1497,00
469,33	1413,00
475,86	1462,00
482,39	1511,00
488,91	1483,00
495,42	1495,00
501,93	1455,00
508,42	1483,00
514,91	1475,00
521,40	1537,00
527,87	1509,00
534,34	1408,00
540,80	1382,00
547,25	1401,00
553,70	1404,00
560,14	1394,00
566,57	1415,00
573,00	1407,00
579,41	1361,00
585,83	1318,00
592,23	1221,00
598,62	1307,00
605,01	1339,00
611,40	1374,00
617,77	1411,00
624,14	1411,00
630,50	1289,00
636,85	1153,00
643,20	1292,00
649,54	1313,00
655,87	1233,00
662,20	1158,00
668,52	1229,00
674,83	1219,00
681,13	1165,00
687,43	976,00
693,72	1134,00
700,00	1231,00
706,28	1194,00
712,55	1227,00
718,81	1191,00
725,07	1241,00
731,32	1201,00
737,56	1242,00
743,79	1198,00
750,02	1253,00
756,24	1268,00
762,46	1136,00
768,67	1189,00
774,87	1140,00
781,06	1015,00
787,25	1144,00
793,43	1184,00
799,60	1109,00
805,77	1097,00
811,93	1240,00
818,08	1147,00
824,23	1207,00
830,37	1152,00
836,50	1258,00
842,63	1184,00
848,75	1206,00
854,87	1133,00
860,97	1152,00
867,07	1210,00
873,17	1125,00
879,25	1115,00
885,33	1092,00
891,41	1205,00
897,47	1019,00
903,53	1142,00
909,59	1181,00
915,63	1098,00
921,67	1078,00
927,71	1012,00
933,74	1088,00
939,76	1035,00
945,77	911,00
951,78	999,00
957,78	1107,00
963,78	986,00
969,77	944,00
975,75	1032,00
981,72	993,00
987,69	1157,00
993,66	980,00
999,61	919,00
1005,56	1020,00
1011,51	1079,00
1017,44	1060,00
1023,37	990,00
1029,30	978,00
1035,22	1048,00
1041,13	1089,00
1047,03	1077,00
1052,93	1151,00
1058,83	1346,00
1064,71	1449,00
1070,59	1343,00
1076,47	1153,00
1082,33	1133,00
1088,20	1066,00
1094,05	886,00
1099,90	958,00
1105,74	1049,00
1111,58	1083,00
1117,41	1027,00
1123,23	1339,00
1129,05	1373,00
1134,86	1354,00
1140,67	1028,00
1146,47	1105,00
1152,26	919,00
1158,05	858,00
1163,83	907,00
1169,60	1042,00
1175,37	870,00
1181,13	949,00
1186,89	1109,00
1192,64	849,00
1198,38	957,00
1204,12	811,00
1209,85	873,00
1215,58	1046,00
1221,30	896,00
1227,02	978,00
1232,72	1053,00
1238,43	857,00
1244,12	944,00
1249,81	922,00
1255,50	1006,00
1261,17	970,00
1266,85	998,00
1272,51	931,00
1278,17	1031,00
1283,83	1098,00
1289,47	1385,00
1295,12	1632,00
1300,75	1465,00
1306,38	1370,00
1312,01	1261,00
1317,63	1050,00
1323,24	1008,00
1328,85	1022,00
1334,45	1002,00
1340,04	973,00
1345,63	1081,00
1351,22	960,00
1356,80	1003,00
1362,37	919,00
1367,93	1000,00
1373,49	1122,00
1379,05	1000,00
1384,60	1019,00
1390,14	1063,00
1395,68	1062,00
1401,21	940,00
1406,74	936,00
1412,26	1166,00
1417,77	1069,00
1423,28	1270,00
1428,78	1269,00
1434,28	1571,00
1439,77	1675,00
1445,26	1535,00
1450,74	1524,00
1456,22	1431,00
1461,68	1444,00
1467,15	1359,00
1472,61	1222,00
1478,06	1127,00
1483,51	1037,00
1488,95	998,00
1494,38	907,00
1499,81	942,00
1505,24	869,00
1510,65	931,00
1516,07	894,00
1521,48	845,00
1526,88	899,00
1532,27	914,00
1537,67	948,00
1543,05	805,00
1548,43	879,00
1553,81	945,00
1559,18	872,00
1564,54	833,00
1569,90	825,00
1575,25	785,00
1580,60	783,00
1585,94	643,00
1591,28	824,00
1596,61	838,00
1601,93	769,00
1607,25	775,00
1612,57	816,00
1617,88	934,00
1623,18	872,00
1628,48	737,00
1633,77	727,00
1639,06	732,00
1644,34	751,00
1649,62	781,00
1654,89	811,00
1660,16	687,00
1665,42	725,00
1670,67	691,00
1675,92	746,00
1681,17	717,00
1686,41	715,00
1691,64	639,00
1696,87	614,00
1702,10	713,00
1707,32	700,00
1712,53	731,00
1717,74	686,00
1722,94	579,00
1728,14	590,00
1733,33	667,00
1738,52	558,00
1743,70	778,00
1748,88	583,00
1754,05	705,00
1759,22	716,00
1764,38	571,00
1769,53	582,00
1774,69	653,00
1779,83	617,00
1784,97	684,00
1790,11	499,00
1795,24	671,00
1800,36	642,00
1805,48	630,00
1810,60	590,00
1815,71	481,00
1820,82	487,00
1825,92	585,00
1831,01	632,00
1836,10	461,00
1841,19	608,00
1846,26	558,00
1851,34	593,00
1856,41	481,00
1861,47	529,00
1866,53	572,00
1871,59	502,00
1876,64	493,00
1881,68	447,00
1886,72	510,00
1891,76	598,00
1896,79	625,00
1901,81	536,00
1906,83	467,00
1911,85	459,00
1916,86	630,00
1921,86	529,00
1926,86	473,00
1931,86	453,00
1936,85	415,00
1941,83	492,00
1946,81	470,00
1951,79	535,00
1956,76	399,00
1961,72	383,00
1966,68	490,00
1971,64	473,00
1976,59	508,00
1981,54	429,00
1986,48	423,00
1991,42	440,00
1996,35	407,00
2001,27	395,00
2006,20	460,00
2011,11	505,00
2016,03	527,00
2020,93	421,00
2025,84	500,00
2030,73	459,00
2035,63	434,00
2040,52	612,00
2045,40	449,00
2050,28	373,00
2055,15	299,00
2060,02	502,00
2064,89	403,00
2069,75	409,00
2074,60	279,00
2079,46	405,00
2084,30	407,00
2089,14	431,00
2093,98	446,00
2098,81	442,00
2103,64	461,00
2108,46	369,00
2113,28	435,00
2118,09	341,00
2122,90	419,00
2127,70	351,00
2132,50	347,00
2137,30	402,00
2142,09	469,00
2146,87	368,00
2151,66	381,00
2156,43	337,00
2161,20	285,00
2165,97	402,00
2170,73	430,00
2175,49	438,00
2180,24	342,00
2184,99	561,00
2189,74	428,00
2194,48	324,00
2199,21	357,00
2203,94	342,00
2208,67	362,00
2213,39	391,00
2218,11	298,00
2222,82	357,00
2227,53	328,00
2232,23	299,00
2236,93	308,00
2241,63	330,00
2246,32	381,00
2251,00	318,00
2255,68	308,00
2260,36	395,00
2265,03	369,00
2269,70	166,00
2274,36	333,00
2279,02	370,00
2283,68	326,00
2288,33	220,00
2292,97	249,00
2297,61	305,00
2302,25	361,00
2306,88	392,00
2311,51	330,00
2316,14	215,00
2320,75	449,00
2325,37	335,00
2329,98	408,00
2334,59	268,00
2339,19	296,00
2343,79	265,00
2348,38	308,00
2352,97	152,00
2357,55	347,00
2362,13	300,00
2366,71	386,00
2371,28	245,00
2375,85	317,00
2380,41	226,00
2384,97	233,00
2389,52	245,00
2394,07	238,00
2398,62	210,00
2403,16	211,00
2407,70	306,00
2412,23	351,00
2416,76	262,00
2421,29	355,00
2425,81	337,00
2430,32	319,00
2434,84	237,00
2439,34	351,00
2443,85	184,00
2448,35	324,00
2452,84	174,00
2457,33	228,00
2461,82	354,00
2466,30	195,00
2470,78	319,00
2475,25	184,00
2479,72	286,00
2484,19	242,00
2488,65	378,00
2493,11	207,00
2497,56	268,00
2502,01	304,00
2506,46	227,00
2510,90	181,00
2515,34	313,00
2519,77	222,00
2524,20	322,00
2528,62	214,00
2533,04	304,00
2537,46	182,00
2541,87	215,00
2546,28	271,00
2550,68	285,00
2555,08	208,00
2559,48	354,00
2563,87	186,00
2568,26	240,00
2572,64	178,00
2577,02	295,00
2581,40	308,00
2585,77	146,00
2590,14	230,00
2594,50	64,00
2598,86	239,00
2603,22	191,00
2607,57	190,00
2611,92	226,00
2616,26	204,00
2620,60	313,00
2624,94	275,00
2629,27	356,00
2633,60	246,00
2637,92	292,00
2642,24	140,00
2646,56	193,00
2650,87	127,00
2655,18	180,00
2659,48	167,00
2663,78	274,00
2668,08	369,00
2672,37	330,00
2676,66	227,00
2680,95	357,00
2685,23	206,00
2689,50	305,00
2693,78	232,00
2698,05	178,00
2702,31	329,00
2706,57	331,00
2710,83	232,00
2715,08	381,00
2719,33	365,00
2723,58	396,00
2727,82	345,00
2732,06	238,00
2736,29	205,00
2740,53	304,00
2744,75	277,00
2748,97	251,00
2753,19	257,00
2757,41	341,00
2761,62	300,00
2765,83	233,00
2770,03	212,00
2774,23	202,00
2778,43	309,00
2782,62	256,00
2786,81	295,00
2791,00	113,00
2795,18	416,00
2799,35	167,00
2803,53	311,00
2807,70	384,00
2811,86	213,00
2816,03	427,00
2820,19	282,00
2824,34	346,00
2828,49	525,00
2832,64	561,00
2836,78	601,00
2840,92	755,00
2845,06	871,00
2849,19	875,00
2853,32	1065,00
2857,45	946,00
2861,57	1121,00
2865,69	1008,00
2869,80	1083,00
2873,91	1011,00
2878,02	1118,00
2882,12	1065,00
2886,22	1091,00
2890,32	967,00
2894,41	1035,00
2898,50	972,00
2902,58	870,00
2906,67	963,00
2910,74	733,00
2914,82	708,00
2918,89	647,00
2922,96	684,00
2927,02	622,00
2931,08	651,00
2935,13	562,00
2939,19	507,00
2943,24	497,00
2947,28	457,00
2951,32	321,00
2955,36	458,00
2959,40	378,00
2963,43	251,00
2967,46	331,00
2971,48	328,00
2975,50	242,00
2979,52	272,00
2983,53	309,00
2987,54	322,00
2991,55	154,00
2995,55	171,00
2999,55	63,00
3003,54	175,00
3007,54	100,00
3011,53	158,00
3015,51	169,00
3019,49	150,00
3023,47	196,00
3027,45	169,00
3031,42	178,00
3035,39	130,00
3039,35	142,00
3043,31	61,00
3047,27	180,00
3051,22	200,00
3055,17	40,00
3059,12	60,00
3063,06	193,00
3067,00	40,00
3070,94	155,00
3074,87	3,00
3078,80	231,00
3082,73	242,00
3086,65	95,00
3090,57	60,00
3094,49	144,00
3098,40	28,00
3102,31	186,00
3106,22	47,00
3110,12	100,00
3114,02	215,00
3117,92	82,00
3121,81	96,00
3125,70	114,00
3129,58	216,00
3133,47	45,00
3137,34	82,00
3141,22	36,00
3145,09	151,00
3148,96	178,00
3152,83	165,00
3156,69	101,00
3160,55	170,00
3164,40	20,00
3168,26	80,00
3172,10	189,00
3175,95	235,00
3179,79	107,00
3183,63	2,00
3187,47	208,00
3191,30	171,00
3195,13	112,00
3198,95	52,00
3202,78	142,00
3206,60	174,00
3210,41	151,00
3214,23	180,00
3218,03	5,00
3221,84	193,00
3225,64	-20,00
3229,44	164,00
3233,24	182,00
3237,03	101,00
3240,82	80,00
3244,61	10,00
3248,39	60,00
3252,17	127,00
3255,95	308,00
3259,72	137,00
3263,49	135,00
3267,26	109,00
3271,03	-27,00
3274,79	73,00
3278,54	163,00
3282,30	130,00
3286,05	148,00
3289,80	0,00
3293,54	128,00
3297,29	160,00
3301,02	79,00
3304,76	141,00
3308,49	82,00
3312,22	46,00
3315,95	54,00
3319,67	-11,00
3323,39	124,00
3327,10	8,00
3330,82	81,00
3334,53	112,00
3338,24	157,00
3341,94	116,00
3345,64	90,00
3349,34	95,00
3353,03	123,00
3356,72	67,00
3360,41	4,00
3364,10	78,00
3367,78	108,00
3371,46	187,00
3375,13	24,00
3378,81	97,00
3382,48	65,00
3386,14	140,00
3389,81	-57,00
3393,47	102,00
3397,12	127,00
3400,78	127,00
3404,43	165,00
3408,08	14,00
3411,72	105,00
3415,36	1,00
3419,00	-4,00
3422,64	-1,00
3426,27	146,00
3429,90	-3,00
3433,53	-39,00
3437,15	84,00
3440,77	-10,00
3444,39	-8,00
3448,00	18,00
3451,62	195,00
3455,22	80,00
3458,83	125,00
3462,43	114,00
3466,03	87,00
3469,63	-106,00
3473,22	127,00
3476,81	94,00
3480,40	68,00
3483,99	78,00
3487,57	133,00
3491,15	12,00
3494,72	122,00
3498,29	212,00
3501,86	26,00
3505,43	63,00
3508,99	50,00
3512,56	121,00
3516,11	31,00
3519,67	96,00
3523,22	69,00
3526,77	93,00
3530,32	76,00
3533,86	70,00
3537,40	54,00
3540,94	171,00
3544,47	-9,00
3548,00	163,00
3551,53	64,00
3555,06	69,00
3558,58	32,00
3562,10	17,00
3565,62	119,00
3569,13	85,00
3572,64	113,00
3576,15	137,00
3579,66	110,00
3583,16	91,00
3586,66	17,00
3590,16	31,00
3593,65	160,00
3597,14	46,00
3600,63	85,00
3604,11	35,00
3607,60	32,00
3611,08	127,00
3614,55	49,00
3618,03	58,00
3621,50	-60,00
3624,97	170,00
3628,43	37,00
3631,90	-26,00
3635,36	84,00
3638,81	0,00
3642,27	-64,00
3645,72	185,00
3649,17	156,00
3652,61	109,00
3656,06	-28,00
3659,50	113,00
3662,93	84,00
3666,37	81,00
3669,80	174,00
3673,23	45,00
3676,65	45,00
3680,08	-25,00
3683,50	40,00
3686,92	-37,00
3690,33	143,00
3693,74	136,00
3697,15	57,00
3700,56	23,00
3703,96	-18,00
3707,36	-51,00
3710,76	2,00
3714,16	77,00
3717,55	-8,00
3720,94	110,00
3724,33	23,00
3727,71	-14,00
3731,10	-2,00
3734,48	9,00
3737,85	14,00
3741,23	-11,00
3744,60	-29,00
3747,97	-88,00
3751,33	157,00
3754,69	-6,00
3758,05	-24,00
3761,41	-35,00
3764,77	3,00
3768,12	11,00
3771,47	104,00
3774,82	16,00
3778,16	3,00
3781,50	-1,00
3784,84	2,00
3788,18	5,00
>>>>>End Processed Spectral Data<<<<<
