SpectraSuite Data File
++++++++++++++++++++++++++++++++++++
Date: Mon Mar 09 16:02:12 ICT 2026
User: Administrator
Dark Spectrum Present: Yes
Reference Spectrum Present: No
Number of Sampled Component Spectra: 1
Spectrometers: MAYP113682
Integration Time (usec): 3000000 (MAYP113682)
Spectra Averaged: 1 (MAYP113682)
Boxcar Smoothing: 0 (MAYP113682)
Correct for Electrical Dark: No (MAYP113682)
Strobe/Lamp Enabled: No (MAYP113682)
Correct for Detector Non-linearity: No (MAYP113682)
Correct for Stray Light: No (MAYP113682)
Number of Pixels in Processed Spectrum: 2068
>>>>>Begin Processed Spectral Data<<<<<
-37534,58	-7,00
-37414,56	3,00
-37295,11	4,00
-37176,24	2,00
-37057,95	12,00
-36940,22	88,00
-36823,05	78,00
-36706,45	214,00
-36590,40	61,00
-36474,90	-18,00
-36359,95	10,00
-36245,55	3,00
-36131,68	-14,00
-36018,35	83,00
-35905,55	125,00
-35793,29	168,00
-35681,54	56,00
-35570,32	116,00
-35459,62	61,00
-35349,43	56,00
-35239,75	83,00
-35130,58	79,00
-35021,91	53,00
-34913,74	22,00
-34806,07	115,00
-34698,89	16,00
-34592,20	94,00
-34486,00	57,00
-34380,28	121,00
-34275,04	-82,00
-34170,27	34,00
-34065,98	-50,00
-33962,16	130,00
-33858,81	208,00
-33755,92	104,00
-33653,49	134,00
-33551,52	103,00
-33450,01	90,00
-33348,94	-23,00
-33248,33	-21,00
-33148,16	2,00
-33048,43	54,00
-32949,14	0,00
-32850,29	85,00
-32751,87	55,00
-32653,89	90,00
-32556,33	-72,00
-32459,20	109,00
-32362,49	77,00
-32266,19	-15,00
-32170,32	130,00
-32074,86	94,00
-31979,82	53,00
-31885,18	72,00
-31790,95	21,00
-31697,12	102,00
-31603,69	112,00
-31510,67	24,00
-31418,04	30,00
-31325,80	88,00
-31233,95	56,00
-31142,49	70,00
-31051,42	150,00
-30960,73	83,00
-30870,43	170,00
-30780,50	78,00
-30690,95	138,00
-30601,77	-32,00
-30512,97	94,00
-30424,53	-39,00
-30336,46	32,00
-30248,76	138,00
-30161,42	125,00
-30074,44	84,00
-29987,81	-49,00
-29901,55	21,00
-29815,63	-33,00
-29730,07	102,00
-29644,86	46,00
-29560,00	-27,00
-29475,48	97,00
-29391,30	82,00
-29307,47	-26,00
-29223,97	41,00
-29140,81	215,00
-29057,99	69,00
-28975,50	105,00
-28893,34	-38,00
-28811,51	-1,00
-28730,00	21,00
-28648,82	117,00
-28567,97	100,00
-28487,43	38,00
-28407,21	-81,00
-28327,32	-57,00
-28247,73	139,00
-28168,46	12,00
-28089,50	24,00
-28010,85	109,00
-27932,51	36,00
-27854,48	-33,00
-27776,75	-34,00
-27699,32	7,00
-27622,19	33,00
-27545,37	176,00
-27468,84	117,00
-27392,60	90,00
-27316,66	114,00
-27241,01	-8,00
-27165,66	237,00
-27090,59	66,00
-27015,81	16,00
-26941,31	18,00
-26867,10	41,00
-26793,17	60,00
-26719,52	33,00
-26646,15	-53,00
-26573,06	-43,00
-26500,24	50,00
-26427,70	38,00
-26355,43	154,00
-26283,43	41,00
-26211,71	128,00
-26140,25	90,00
-26069,06	121,00
-25998,13	83,00
-25927,46	124,00
-25857,06	34,00
-25786,92	68,00
-25717,04	131,00
-25647,42	38,00
-25578,05	49,00
-25508,94	-8,00
-25440,09	-19,00
-25371,48	78,00
-25303,13	96,00
-25235,02	68,00
-25167,17	143,00
-25099,56	71,00
-25032,19	19,00
-24965,07	31,00
-24898,20	-27,00
-24831,56	28,00
-24765,17	166,00
-24699,01	78,00
-24633,10	32,00
-24567,41	30,00
-24501,97	-30,00
-24436,75	-28,00
-24371,77	23,00
-24307,03	-2,00
-24242,51	17,00
-24178,22	42,00
-24114,16	90,00
-24050,32	147,00
-23986,71	129,00
-23923,32	174,00
-23860,16	105,00
-23797,22	131,00
-23734,50	53,00
-23672,00	149,00
-23609,71	158,00
-23547,65	93,00
-23485,80	41,00
-23424,16	19,00
-23362,74	137,00
-23301,53	51,00
-23240,54	123,00
-23179,75	70,00
-23119,17	50,00
-23058,80	7,00
-22998,64	-36,00
-22938,68	140,00
-22878,93	68,00
-22819,39	114,00
-22760,04	25,00
-22700,90	-70,00
-22641,96	54,00
-22583,22	170,00
-22524,68	63,00
-22466,33	45,00
-22408,19	13,00
-22350,23	54,00
-22292,48	8,00
-22234,92	30,00
-22177,55	111,00
-22120,37	-11,00
-22063,38	94,00
-22006,58	110,00
-21949,98	151,00
-21893,56	32,00
-21837,33	7,00
-21781,28	125,00
-21725,42	86,00
-21669,74	110,00
-21614,25	107,00
-21558,94	173,00
-21503,81	125,00
-21448,86	150,00
-21394,10	35,00
-21339,51	135,00
-21285,10	-52,00
-21230,86	32,00
-21176,81	82,00
-21122,93	97,00
-21069,22	108,00
-21015,69	-47,00
-20962,33	166,00
-20909,14	74,00
-20856,13	113,00
-20803,28	59,00
-20750,61	28,00
-20698,10	89,00
-20645,76	28,00
-20593,59	24,00
-20541,59	55,00
-20489,75	91,00
-20438,07	91,00
-20386,56	69,00
-20335,22	58,00
-20284,03	-52,00
-20233,01	112,00
-20182,15	49,00
-20131,45	155,00
-20080,91	15,00
-20030,52	61,00
-19980,30	-44,00
-19930,23	173,00
-19880,32	138,00
-19830,56	132,00
-19780,96	98,00
-19731,52	32,00
-19682,23	129,00
-19633,09	174,00
-19584,10	38,00
-19535,26	39,00
-19486,58	37,00
-19438,04	77,00
-19389,66	176,00
-19341,42	102,00
-19293,33	41,00
-19245,39	34,00
-19197,60	144,00
-19149,95	-7,00
-19102,45	3,00
-19055,09	-61,00
-19007,87	79,00
-18960,80	109,00
-18913,87	56,00
-18867,09	35,00
-18820,44	104,00
-18773,94	36,00
-18727,57	30,00
-18681,35	180,00
-18635,26	67,00
-18589,31	66,00
-18543,50	30,00
-18497,83	0,00
-18452,29	137,00
-18406,89	83,00
-18361,63	-46,00
-18316,50	159,00
-18271,50	81,00
-18226,63	136,00
-18181,90	-63,00
-18137,30	-75,00
-18092,84	86,00
-18048,50	-33,00
-18004,29	6,00
-17960,22	-56,00
-17916,27	83,00
-17872,45	28,00
-17828,76	96,00
-17785,20	35,00
-17741,77	-16,00
-17698,46	-21,00
-17655,28	10,00
-17612,22	39,00
-17569,29	142,00
-17526,48	150,00
-17483,79	152,00
-17441,23	98,00
-17398,79	118,00
-17356,48	1,00
-17314,28	123,00
-17272,21	13,00
-17230,26	-14,00
-17188,42	50,00
-17146,71	165,00
-17105,12	116,00
-17063,64	72,00
-17022,28	0,00
-16981,04	32,00
-16939,92	156,00
-16898,91	122,00
-16858,02	0,00
-16817,25	-5,00
-16776,59	17,00
-16736,04	-4,00
-16695,61	85,00
-16655,29	6,00
-16615,09	96,00
-16574,99	63,00
-16535,01	34,00
-16495,15	115,00
-16455,39	110,00
-16415,74	98,00
-16376,21	-13,00
-16336,78	107,00
-16297,46	-11,00
-16258,26	93,00
-16219,16	24,00
-16180,17	-11,00
-16141,28	85,00
-16102,51	78,00
-16063,84	42,00
-16025,27	104,00
-15986,82	-170,00
-15948,46	20,00
-15910,22	22,00
-15872,07	71,00
-15834,04	72,00
-15796,10	23,00
-15758,27	65,00
-15720,54	17,00
-15682,91	125,00
-15645,39	15,00
-15607,97	83,00
-15570,64	117,00
-15533,42	44,00
-15496,30	84,00
-15459,28	122,00
-15422,36	22,00
-15385,54	81,00
-15348,82	25,00
-15312,19	158,00
-15275,66	-65,00
-15239,23	36,00
-15202,90	94,00
-15166,67	0,00
-15130,53	23,00
-15094,48	77,00
-15058,54	107,00
-15022,68	54,00
-14986,93	54,00
-14951,26	94,00
-14915,69	33,00
-14880,22	-12,00
-14844,84	33,00
-14809,55	69,00
-14774,35	-64,00
-14739,25	102,00
-14704,24	95,00
-14669,32	-80,00
-14634,49	64,00
-14599,75	-60,00
-14565,10	-37,00
-14530,55	79,00
-14496,08	93,00
-14461,70	111,00
-14427,41	49,00
-14393,21	86,00
-14359,10	29,00
-14325,07	57,00
-14291,14	57,00
-14257,29	35,00
-14223,52	58,00
-14189,85	16,00
-14156,26	93,00
-14122,76	50,00
-14089,34	49,00
-14056,01	88,00
-14022,76	-47,00
-13989,60	50,00
-13956,52	-5,00
-13923,53	-17,00
-13890,62	58,00
-13857,79	70,00
-13825,05	119,00
-13792,39	54,00
-13759,81	141,00
-13727,31	77,00
-13694,90	157,00
-13662,57	167,00
-13630,31	71,00
-13598,14	34,00
-13566,05	42,00
-13534,05	72,00
-13502,12	59,00
-13470,27	30,00
-13438,50	20,00
-13406,80	70,00
-13375,19	-22,00
-13343,66	83,00
-13312,20	12,00
-13280,83	96,00
-13249,53	98,00
-13218,30	174,00
-13187,16	10,00
-13156,09	60,00
-13125,10	143,00
-13094,18	184,00
-13063,34	108,00
-13032,58	-61,00
-13001,89	-3,00
-12971,28	-41,00
-12940,74	28,00
-12910,27	54,00
-12879,88	118,00
-12849,57	12,00
-12819,33	51,00
-12789,16	-59,00
-12759,06	132,00
-12729,04	98,00
-12699,09	1608,00
-12669,21	95,00
-12639,41	-1,00
-12609,68	30,00
-12580,02	66,00
-12550,43	62,00
-12520,91	-5,00
-12491,46	88,00
-12462,08	-44,00
-12432,77	74,00
-12403,54	42,00
-12374,37	75,00
-12345,27	109,00
-12316,24	30,00
-12287,29	9,00
-12258,40	16,00
-12229,57	-3,00
-12200,82	28,00
-12172,14	50,00
-12143,52	10,00
-12114,97	95,00
-12086,49	18,00
-12058,07	159,00
-12029,73	-10,00
-12001,44	-51,00
-11973,23	36,00
-11945,08	64,00
-11917,00	128,00
-11888,98	24,00
-11861,03	-61,00
-11833,15	4,00
-11805,32	-47,00
-11777,57	-36,00
-11749,88	57,00
-11722,25	171,00
-11694,69	-48,00
-11667,19	57,00
-11639,75	33,00
-11612,38	119,00
-11585,07	190,00
-11557,83	7,00
-11530,65	35,00
-11503,53	64,00
-11476,47	146,00
-11449,48	-23,00
-11422,54	71,00
-11395,67	78,00
-11368,86	111,00
-11342,11	-60,00
-11315,43	56,00
-11288,80	86,00
-11262,23	167,00
-11235,73	112,00
-11209,28	122,00
-11182,90	52,00
-11156,57	75,00
-11130,31	152,00
-11104,10	142,00
-11077,96	13,00
-11051,87	8,00
-11025,84	12,00
-10999,87	91,00
-10973,96	6,00
-10948,11	-52,00
-10922,31	130,00
-10896,58	48,00
-10870,90	123,00
-10845,28	-75,00
-10819,71	19,00
-10794,20	164,00
-10768,75	166,00
-10743,36	47,00
-10718,02	12,00
-10692,74	159,00
-10667,52	15,00
-10642,35	87,00
-10617,24	77,00
-10592,18	135,00
-10567,18	123,00
-10542,23	83,00
-10517,34	116,00
-10492,51	89,00
-10467,72	81,00
-10443,00	149,00
-10418,32	45,00
-10393,70	146,00
-10369,14	-71,00
-10344,63	32,00
-10320,17	74,00
-10295,77	110,00
-10271,42	11,00
-10247,12	130,00
-10222,88	120,00
-10198,68	15,00
-10174,54	12,00
-10150,46	119,00
-10126,42	33,00
-10102,44	130,00
-10078,51	92,00
-10054,63	242,00
-10030,80	75,00
-10007,03	-62,00
-9983,30	-60,00
-9959,63	96,00
-9936,01	193,00
-9912,44	127,00
-9888,92	116,00
-9865,44	142,00
-9842,02	199,00
-9818,65	136,00
-9795,33	76,00
-9772,06	260,00
-9748,84	134,00
-9725,67	297,00
-9702,55	92,00
-9679,47	278,00
-9656,45	240,00
-9633,47	230,00
-9610,55	102,00
-9587,67	320,00
-9564,84	266,00
-9542,06	358,00
-9519,32	232,00
-9496,64	315,00
-9474,00	324,00
-9451,41	351,00
-9428,87	344,00
-9406,37	322,00
-9383,92	283,00
-9361,52	403,00
-9339,17	377,00
-9316,86	367,00
-9294,60	409,00
-9272,38	482,00
-9250,21	579,00
-9228,09	494,00
-9206,01	574,00
-9183,98	300,00
-9162,00	256,00
-9140,06	287,00
-9118,16	533,00
-9096,31	416,00
-9074,51	525,00
-9052,75	379,00
-9031,04	333,00
-9009,37	475,00
-8987,74	328,00
-8966,16	444,00
-8944,63	310,00
-8923,14	290,00
-8901,69	227,00
-8880,29	293,00
-8858,93	341,00
-8837,61	340,00
-8816,34	537,00
-8795,11	401,00
-8773,92	585,00
-8752,78	411,00
-8731,68	388,00
-8710,62	363,00
-8689,61	362,00
-8668,63	399,00
-8647,70	474,00
-8626,82	563,00
-8605,97	456,00
-8585,17	382,00
-8564,41	257,00
-8543,69	414,00
-8523,01	170,00
-8502,37	289,00
-8481,78	422,00
-8461,23	474,00
-8440,71	372,00
-8420,24	512,00
-8399,81	414,00
-8379,42	444,00
-8359,08	480,00
-8338,77	399,00
-8318,50	453,00
-8298,27	239,00
-8278,09	380,00
-8257,94	350,00
-8237,83	496,00
-8217,76	483,00
-8197,74	443,00
-8177,75	497,00
-8157,80	348,00
-8137,89	306,00
-8118,02	355,00
-8098,19	231,00
-8078,40	316,00
-8058,65	480,00
-8038,93	461,00
-8019,26	482,00
-7999,62	404,00
-7980,02	315,00
-7960,46	334,00
-7940,94	363,00
-7921,46	301,00
-7902,01	279,00
-7882,60	270,00
-7863,23	267,00
-7843,90	333,00
-7824,61	340,00
-7805,35	387,00
-7786,13	420,00
-7766,95	382,00
-7747,80	400,00
-7728,69	276,00
-7709,62	391,00
-7690,59	348,00
-7671,59	421,00
-7652,63	472,00
-7633,70	395,00
-7614,81	421,00
-7595,96	403,00
-7577,15	375,00
-7558,37	326,00
-7539,62	355,00
-7520,91	449,00
-7502,24	390,00
-7483,60	370,00
-7465,00	285,00
-7446,44	218,00
-7427,91	269,00
-7409,41	360,00
-7390,95	206,00
-7372,53	206,00
-7354,14	229,00
-7335,78	271,00
-7317,46	188,00
-7299,18	281,00
-7280,92	284,00
-7262,71	304,00
-7244,52	421,00
-7226,38	257,00
-7208,26	361,00
-7190,18	333,00
-7172,14	306,00
-7154,12	288,00
-7136,15	380,00
-7118,20	429,00
-7100,29	451,00
-7082,41	361,00
-7064,57	376,00
-7046,76	305,00
-7028,98	306,00
-7011,24	257,00
-6993,53	172,00
-6975,85	190,00
-6958,20	131,00
-6940,59	150,00
-6923,01	159,00
-6905,46	208,00
-6887,94	154,00
-6870,46	2918,00
-6853,01	262,00
-6835,59	369,00
-6818,21	237,00
-6800,85	193,00
-6783,53	150,00
-6766,24	72,00
-6748,98	165,00
-6731,76	114,00
-6714,56	-16,00
-6697,40	88,00
-6680,26	81,00
-6663,16	235,00
-6646,09	211,00
-6629,05	294,00
-6612,05	182,00
-6595,07	223,00
-6578,13	273,00
-6561,21	192,00
-6544,33	171,00
-6527,47	88,00
-6510,65	105,00
-6493,86	57,00
-6477,10	-49,00
-6460,36	141,00
-6443,66	94,00
-6426,99	103,00
-6410,35	143,00
-6393,74	45,00
-6377,16	114,00
-6360,61	139,00
-6344,09	195,00
-6327,59	181,00
-6311,13	190,00
-6294,70	236,00
-6278,29	205,00
-6261,92	197,00
-6245,58	231,00
-6229,26	156,00
-6212,97	238,00
-6196,72	106,00
-6180,49	136,00
-6164,29	123,00
-6148,12	-36,00
-6131,98	-77,00
-6115,86	-33,00
-6099,78	43,00
-6083,72	-19,00
-6067,69	28,00
-6051,69	33,00
-6035,72	154,00
-6019,78	101,00
-6003,87	186,00
-5987,98	109,00
-5972,12	129,00
-5956,29	113,00
-5940,49	46,00
-5924,71	168,00
-5908,96	198,00
-5893,24	189,00
-5877,55	112,00
-5861,89	72,00
-5846,25	135,00
-5830,64	192,00
-5815,05	34,00
-5799,50	-8,00
-5783,97	-55,00
-5768,47	204,00
-5752,99	158,00
-5737,55	93,00
-5722,12	103,00
-5706,73	108,00
-5691,36	229,00
-5676,02	131,00
-5660,71	88,00
-5645,42	68,00
-5630,16	169,00
-5614,92	24,00
-5599,71	-8,00
-5584,53	139,00
-5569,37	142,00
-5554,24	-823,00
-5539,14	119,00
-5524,06	178,00
-5509,01	120,00
-5493,98	170,00
-5478,98	79,00
-5464,00	54,00
-5449,05	59,00
-5434,13	129,00
-5419,23	83,00
-5404,36	-1,00
-5389,51	152,00
-5374,69	-1,00
-5359,89	192,00
-5345,12	208,00
-5330,37	119,00
-5315,65	85,00
-5300,95	106,00
-5286,28	132,00
-5271,63	91,00
-5257,01	122,00
-5242,41	151,00
-5227,84	88,00
-5213,29	207,00
-5198,76	45,00
-5184,26	88,00
-5169,79	-34,00
-5155,33	69,00
-5140,91	138,00
-5126,51	169,00
-5112,13	95,00
-5097,77	42,00
-5083,44	211,00
-5069,13	70,00
-5054,85	-17,00
-5040,59	184,00
-5026,36	247,00
-5012,15	67,00
-4997,96	150,00
-4983,80	67,00
-4969,66	105,00
-4955,54	33,00
-4941,44	174,00
-4927,37	228,00
-4913,33	135,00
-4899,30	226,00
-4885,30	245,00
-4871,33	160,00
-4857,37	149,00
-4843,44	153,00
-4829,53	127,00
-4815,65	204,00
-4801,79	-72,00
-4787,95	159,00
-4774,13	105,00
-4760,34	29,00
-4746,56	104,00
-4732,82	1,00
-4719,09	94,00
-4705,38	167,00
-4691,70	110,00
-4678,04	172,00
-4664,41	194,00
-4650,79	210,00
-4637,20	25,00
-4623,63	62,00
-4610,08	88,00
-4596,56	54,00
-4583,05	45,00
-4569,57	137,00
-4556,11	-38,00
-4542,67	65,00
-4529,25	104,00
-4515,86	260,00
-4502,49	111,00
-4489,13	174,00
-4475,80	142,00
-4462,49	184,00
-4449,21	159,00
-4435,94	139,00
-4422,70	69,00
-4409,47	115,00
-4396,27	50,00
-4383,09	66,00
-4369,93	149,00
-4356,79	42,00
-4343,67	26,00
-4330,58	-9,00
-4317,50	139,00
-4304,45	63,00
-4291,41	-5,00
-4278,40	147,00
-4265,41	36,00
-4252,44	210,00
-4239,49	170,00
-4226,55	98,00
-4213,65	109,00
-4200,76	174,00
-4187,89	-49,00
-4175,04	165,00
-4162,21	40,00
-4149,40	135,00
-4136,61	71,00
-4123,85	-53,00
-4111,10	106,00
-4098,37	115,00
-4085,66	-29,00
-4072,98	128,00
-4060,31	77,00
-4047,66	49,00
-4035,04	-55,00
-4022,43	105,00
-4009,84	4,00
-3997,27	50,00
-3984,72	6,00
-3972,19	-26,00
-3959,69	222,00
-3947,20	127,00
-3934,73	57,00
-3922,27	48,00
-3909,84	8,00
-3897,43	11,00
-3885,04	72,00
-3872,67	92,00
-3860,31	69,00
-3847,98	-37,00
-3835,66	105,00
-3823,36	54,00
-3811,09	49,00
-3798,83	60,00
-3786,59	-24,00
-3774,37	119,00
-3762,17	57,00
-3749,98	188,00
-3737,82	48,00
-3725,67	80,00
-3713,55	105,00
-3701,44	86,00
-3689,35	211,00
-3677,28	109,00
-3665,22	53,00
-3653,19	109,00
-3641,17	-26,00
-3629,18	77,00
-3617,20	-3,00
-3605,24	109,00
-3593,30	125,00
-3581,37	149,00
-3569,47	118,00
-3557,58	66,00
-3545,71	-25,00
-3533,86	165,00
-3522,02	-17,00
-3510,21	49,00
-3498,41	90,00
-3486,63	106,00
-3474,87	187,00
-3463,12	11,00
-3451,40	125,00
-3439,69	157,00
-3428,00	39,00
-3416,33	58,00
-3404,67	39,00
-3393,03	162,00
-3381,41	120,00
-3369,81	28,00
-3358,22	86,00
-3346,66	187,00
-3335,10	69,00
-3323,57	78,00
-3312,06	-59,00
-3300,56	98,00
-3289,08	68,00
-3277,61	101,00
-3266,16	66,00
-3254,73	-5,00
-3243,32	150,00
-3231,92	55,00
-3220,55	12,00
-3209,18	15,00
-3197,84	161,00
-3186,51	-17,00
-3175,20	119,00
-3163,90	43,00
-3152,63	49,00
-3141,36	135,00
-3130,12	103,00
-3118,89	-1,00
-3107,68	-10,00
-3096,49	100,00
-3085,31	137,00
-3074,15	75,00
-3063,00	16,00
-3051,87	54,00
-3040,76	163,00
-3029,67	29,00
-3018,59	170,00
-3007,52	23,00
-2996,48	54,00
-2985,44	143,00
-2974,43	77,00
-2963,43	51,00
-2952,45	88,00
-2941,48	64,00
-2930,53	74,00
-2919,60	103,00
-2908,68	-159,00
-2897,78	34,00
-2886,89	8,00
-2876,02	37,00
-2865,17	29,00
-2854,33	94,00
-2843,50	50,00
-2832,70	53,00
-2821,90	-8,00
-2811,13	78,00
-2800,37	-15,00
-2789,62	82,00
-2778,89	112,00
-2768,18	105,00
-2757,48	-36,00
-2746,80	115,00
-2736,13	33,00
-2725,48	-5,00
-2714,84	20,00
-2704,22	86,00
-2693,61	133,00
-2683,02	118,00
-2672,45	16,00
-2661,89	66,00
-2651,34	56,00
-2640,81	115,00
-2630,30	5,00
-2619,80	135,00
-2609,31	91,00
-2598,84	87,00
-2588,39	223,00
-2577,95	1,00
-2567,52	108,00
-2557,11	27,00
-2546,71	-27,00
-2536,33	135,00
-2525,97	12,00
-2515,62	-10,00
-2505,28	-10,00
-2494,96	159,00
-2484,65	71,00
-2474,36	47,00
-2464,08	-98,00
-2453,82	144,00
-2443,57	14,00
-2433,33	29,00
-2423,11	122,00
-2412,91	86,00
-2402,72	73,00
-2392,54	115,00
-2382,38	-40,00
-2372,23	83,00
-2362,09	-159,00
-2351,97	-51,00
-2341,87	31,00
-2331,78	-59,00
-2321,70	163,00
-2311,64	100,00
-2301,59	72,00
-2291,55	83,00
-2281,53	65,00
-2271,53	61,00
-2261,53	20,00
-2251,55	147,00
-2241,59	185,00
-2231,64	-27,00
-2221,70	24,00
-2211,78	-32,00
-2201,87	64,00
-2191,97	50,00
-2182,09	127,00
-2172,22	58,00
-2162,37	32,00
-2152,53	95,00
-2142,70	157,00
-2132,89	102,00
-2123,09	47,00
-2113,30	86,00
-2103,53	11,00
-2093,77	15,00
-2084,02	43,00
-2074,29	128,00
-2064,57	-111,00
-2054,86	-2,00
-2045,17	88,00
-2035,49	117,00
-2025,82	64,00
-2016,17	71,00
-2006,53	100,00
-1996,91	139,00
-1987,29	48,00
-1977,69	78,00
-1968,11	2,00
-1958,53	75,00
-1948,97	43,00
-1939,42	104,00
-1929,89	93,00
-1920,37	34,00
-1910,86	35,00
-1901,36	1,00
-1891,88	93,00
-1882,41	20,00
-1872,95	-37,00
-1863,51	152,00
-1854,08	21,00
-1844,66	90,00
-1835,26	0,00
-1825,86	40,00
-1816,48	112,00
-1807,11	144,00
-1797,76	241,00
-1788,42	41,00
-1779,09	3,00
-1769,77	120,00
-1760,47	180,00
-1751,17	184,00
-1741,89	-81,00
-1732,63	63,00
-1723,37	194,00
-1714,13	-17,00
-1704,90	69,00
-1695,68	33,00
-1686,48	68,00
-1677,29	57,00
-1668,11	111,00
-1658,94	-21,00
-1649,78	154,00
-1640,64	-29,00
-1631,51	45,00
-1622,39	-35,00
-1613,28	117,00
-1604,19	81,00
-1595,10	-15,00
-1586,03	171,00
-1576,97	-39,00
-1567,93	41,00
-1558,89	-14,00
-1549,87	163,00
-1540,86	58,00
-1531,86	32,00
-1522,87	63,00
-1513,90	97,00
-1504,93	195,00
-1495,98	103,00
-1487,04	72,00
-1478,12	48,00
-1469,20	61,00
-1460,30	78,00
-1451,40	136,00
-1442,52	38,00
-1433,65	25,00
-1424,80	133,00
-1415,95	81,00
-1407,12	149,00
-1398,30	101,00
-1389,48	-96,00
-1380,69	29,00
-1371,90	61,00
-1363,12	46,00
-1354,36	60,00
-1345,60	-57,00
-1336,86	-31,00
-1328,13	116,00
-1319,41	116,00
-1310,70	37,00
-1302,01	198,00
-1293,32	-29,00
-1284,65	141,00
-1275,99	189,00
-1267,33	65,00
-1258,69	30,00
-1250,06	74,00
-1241,45	127,00
-1232,84	11,00
-1224,25	54,00
-1215,66	-48,00
-1207,09	91,00
-1198,53	17,00
-1189,97	16,00
-1181,43	27,00
-1172,91	16,00
-1164,39	192,00
-1155,88	146,00
-1147,38	55,00
-1138,90	-12,00
-1130,43	22,00
-1121,96	84,00
-1113,51	112,00
-1105,07	101,00
-1096,64	57,00
-1088,22	92,00
-1079,81	108,00
-1071,41	8,00
-1063,02	197,00
-1054,65	61,00
-1046,28	68,00
-1037,92	93,00
-1029,58	123,00
-1021,24	41,00
-1012,92	110,00
-1004,61	19,00
-996,30	51,00
-988,01	108,00
-979,73	55,00
-971,46	91,00
-963,20	-34,00
-954,95	13,00
-946,71	-22,00
-938,48	95,00
-930,26	36,00
-922,06	-22,00
-913,86	82,00
-905,67	205,00
-897,49	4,00
-889,33	46,00
-881,17	140,00
-873,02	-55,00
-864,89	28,00
-856,76	7,00
-848,65	77,00
-840,54	91,00
-832,45	57,00
-824,36	63,00
-816,29	67,00
-808,22	44,00
-800,17	85,00
-792,12	167,00
-784,09	101,00
-776,06	-8,00
-768,05	40,00
-760,04	131,00
-752,05	28,00
-744,07	35,00
-736,09	156,00
-728,13	15,00
-720,17	94,00
-712,23	68,00
-704,29	83,00
-696,37	44,00
-688,45	42,00
-680,55	103,00
-672,65	-48,00
-664,77	42,00
-656,89	62,00
-649,03	150,00
-641,17	130,00
-633,32	21,00
-625,49	117,00
-617,66	73,00
-609,84	15,00
-602,03	91,00
-594,23	34,00
-586,45	4,00
-578,67	41,00
-570,90	104,00
-563,14	-9,00
-555,39	201,00
-547,65	170,00
-539,91	50,00
-532,19	-48,00
-524,48	15,00
-516,78	86,00
-509,08	13,00
-501,40	113,00
-493,72	21,00
-486,06	54,00
-478,40	103,00
-470,76	129,00
-463,12	-26,00
-455,49	48,00
-447,87	84,00
-440,26	-38,00
-432,66	108,00
-425,07	191,00
-417,49	168,00
-409,92	79,00
-402,35	133,00
-394,80	146,00
-387,25	121,00
-379,72	124,00
-372,19	119,00
-364,67	65,00
-357,17	28,00
-349,67	-4,00
-342,18	130,00
-334,69	209,00
-327,22	1,00
-319,76	160,00
-312,30	-29,00
-304,86	100,00
-297,42	169,00
-290,00	30,00
-282,58	86,00
-275,17	53,00
-267,77	89,00
-260,37	118,00
-252,99	114,00
-245,62	54,00
-238,25	144,00
-230,90	84,00
-223,55	181,00
-216,21	126,00
-208,88	116,00
-201,56	175,00
-194,25	245,00
-186,94	234,00
-179,65	327,00
-172,36	203,00
-165,08	219,00
-157,81	322,00
-150,55	330,00
-143,30	338,00
-136,06	319,00
-128,82	435,00
-121,60	438,00
-114,38	315,00
-107,17	611,00
-99,97	504,00
-92,78	602,00
-85,60	714,00
-78,42	758,00
-71,25	848,00
-64,10	1210,00
-56,95	1130,00
-49,81	1431,00
-42,67	1740,00
-35,55	2231,00
-28,43	2921,00
-21,33	4791,00
-14,23	16160,00
-7,14	55238,00
-0,05	54948,00
7,02	54664,00
14,09	51371,00
21,14	13889,00
28,19	5720,00
35,23	3702,00
42,27	2792,00
49,29	2257,00
56,31	1993,00
63,32	1716,00
70,32	1291,00
77,31	1097,00
84,29	1043,00
91,27	857,00
98,23	813,00
105,19	819,00
112,14	807,00
119,09	1228,00
126,02	2164,00
132,95	2419,00
139,87	2566,00
146,78	2589,00
153,68	2538,00
160,58	2391,00
167,46	2342,00
174,34	2352,00
181,21	2324,00
188,08	2382,00
194,93	2249,00
201,78	2420,00
208,62	2302,00
215,45	2321,00
222,27	2300,00
229,09	2185,00
235,90	2248,00
242,70	2235,00
249,49	2133,00
256,27	2202,00
263,05	2159,00
269,82	2142,00
276,58	2139,00
283,33	2077,00
290,08	2105,00
296,82	2032,00
303,55	2067,00
310,27	2068,00
316,98	2062,00
323,69	2033,00
330,39	2084,00
337,08	1953,00
343,76	1915,00
350,44	1939,00
357,11	1868,00
363,77	1942,00
370,42	1821,00
377,07	1942,00
383,71	1946,00
390,34	1869,00
396,96	1884,00
403,58	1989,00
410,19	1884,00
416,79	1938,00
423,38	1928,00
429,97	1791,00
436,55	1712,00
443,12	1719,00
449,68	1730,00
456,24	1842,00
462,79	1699,00
469,33	1693,00
475,86	1786,00
482,39	1738,00
488,91	1580,00
495,42	1622,00
501,93	1706,00
508,42	1619,00
514,91	1621,00
521,40	1645,00
527,87	1604,00
534,34	1512,00
540,80	1518,00
547,25	1547,00
553,70	1709,00
560,14	1623,00
566,57	1490,00
573,00	1531,00
579,41	1569,00
585,83	1454,00
592,23	1580,00
598,62	1486,00
605,01	1499,00
611,40	1469,00
617,77	1424,00
624,14	1534,00
630,50	1475,00
636,85	1432,00
643,20	1433,00
649,54	1354,00
655,87	1260,00
662,20	1291,00
668,52	1359,00
674,83	1322,00
681,13	1328,00
687,43	1348,00
693,72	1218,00
700,00	1289,00
706,28	1275,00
712,55	1421,00
718,81	1223,00
725,07	1330,00
731,32	1304,00
737,56	1252,00
743,79	1353,00
750,02	1265,00
756,24	1211,00
762,46	1193,00
768,67	1141,00
774,87	1209,00
781,06	1340,00
787,25	1307,00
793,43	1193,00
799,60	1124,00
805,77	1208,00
811,93	1154,00
818,08	1171,00
824,23	1369,00
830,37	1287,00
836,50	1303,00
842,63	1294,00
848,75	1314,00
854,87	1278,00
860,97	1323,00
867,07	1284,00
873,17	1335,00
879,25	1262,00
885,33	1183,00
891,41	1272,00
897,47	1084,00
903,53	1163,00
909,59	1151,00
915,63	1144,00
921,67	1189,00
927,71	1126,00
933,74	1029,00
939,76	1077,00
945,77	1088,00
951,78	1118,00
957,78	1003,00
963,78	1149,00
969,77	1092,00
975,75	1219,00
981,72	1067,00
987,69	1079,00
993,66	1088,00
999,61	1135,00
1005,56	1039,00
1011,51	1191,00
1017,44	1174,00
1023,37	1118,00
1029,30	1175,00
1035,22	1119,00
1041,13	1231,00
1047,03	1215,00
1052,93	1268,00
1058,83	1427,00
1064,71	1490,00
1070,59	1229,00
1076,47	1238,00
1082,33	1141,00
1088,20	1116,00
1094,05	1148,00
1099,90	1088,00
1105,74	1049,00
1111,58	1097,00
1117,41	1196,00
1123,23	1356,00
1129,05	1285,00
1134,86	1278,00
1140,67	1302,00
1146,47	1159,00
1152,26	1161,00
1158,05	930,00
1163,83	1111,00
1169,60	1088,00
1175,37	1048,00
1181,13	1041,00
1186,89	1028,00
1192,64	1050,00
1198,38	961,00
1204,12	954,00
1209,85	982,00
1215,58	1101,00
1221,30	942,00
1227,02	1052,00
1232,72	1041,00
1238,43	982,00
1244,12	919,00
1249,81	1045,00
1255,50	963,00
1261,17	1032,00
1266,85	1070,00
1272,51	1117,00
1278,17	1193,00
1283,83	1141,00
1289,47	1315,00
1295,12	1615,00
1300,75	1562,00
1306,38	1456,00
1312,01	1237,00
1317,63	1218,00
1323,24	1115,00
1328,85	1081,00
1334,45	1053,00
1340,04	1104,00
1345,63	1062,00
1351,22	991,00
1356,80	1074,00
1362,37	1124,00
1367,93	1086,00
1373,49	1178,00
1379,05	1093,00
1384,60	1052,00
1390,14	1131,00
1395,68	1150,00
1401,21	1128,00
1406,74	1095,00
1412,26	1192,00
1417,77	1171,00
1423,28	1275,00
1428,78	1279,00
1434,28	1647,00
1439,77	1708,00
1445,26	1573,00
1450,74	1702,00
1456,22	1612,00
1461,68	1495,00
1467,15	1380,00
1472,61	1176,00
1478,06	1149,00
1483,51	1086,00
1488,95	1078,00
1494,38	1171,00
1499,81	918,00
1505,24	1095,00
1510,65	899,00
1516,07	958,00
1521,48	952,00
1526,88	875,00
1532,27	962,00
1537,67	918,00
1543,05	928,00
1548,43	833,00
1553,81	903,00
1559,18	779,00
1564,54	936,00
1569,90	873,00
1575,25	907,00
1580,60	876,00
1585,94	920,00
1591,28	921,00
1596,61	933,00
1601,93	768,00
1607,25	873,00
1612,57	861,00
1617,88	905,00
1623,18	790,00
1628,48	864,00
1633,77	840,00
1639,06	818,00
1644,34	776,00
1649,62	838,00
1654,89	893,00
1660,16	898,00
1665,42	775,00
1670,67	819,00
1675,92	794,00
1681,17	761,00
1686,41	742,00
1691,64	727,00
1696,87	711,00
1702,10	646,00
1707,32	737,00
1712,53	740,00
1717,74	723,00
1722,94	799,00
1728,14	734,00
1733,33	845,00
1738,52	760,00
1743,70	741,00
1748,88	748,00
1754,05	750,00
1759,22	775,00
1764,38	690,00
1769,53	516,00
1774,69	663,00
1779,83	601,00
1784,97	638,00
1790,11	606,00
1795,24	666,00
1800,36	494,00
1805,48	519,00
1810,60	655,00
1815,71	546,00
1820,82	590,00
1825,92	550,00
1831,01	535,00
1836,10	684,00
1841,19	657,00
1846,26	529,00
1851,34	572,00
1856,41	583,00
1861,47	536,00
1866,53	639,00
1871,59	601,00
1876,64	638,00
1881,68	515,00
1886,72	459,00
1891,76	748,00
1896,79	547,00
1901,81	639,00
1906,83	630,00
1911,85	590,00
1916,86	535,00
1921,86	551,00
1926,86	497,00
1931,86	523,00
1936,85	548,00
1941,83	565,00
1946,81	506,00
1951,79	526,00
1956,76	531,00
1961,72	469,00
1966,68	527,00
1971,64	576,00
1976,59	578,00
1981,54	576,00
1986,48	585,00
1991,42	489,00
1996,35	381,00
2001,27	384,00
2006,20	595,00
2011,11	478,00
2016,03	527,00
2020,93	443,00
2025,84	317,00
2030,73	464,00
2035,63	487,00
2040,52	382,00
2045,40	456,00
2050,28	349,00
2055,15	424,00
2060,02	426,00
2064,89	424,00
2069,75	292,00
2074,60	494,00
2079,46	486,00
2084,30	341,00
2089,14	347,00
2093,98	435,00
2098,81	498,00
2103,64	476,00
2108,46	363,00
2113,28	436,00
2118,09	484,00
2122,90	425,00
2127,70	362,00
2132,50	512,00
2137,30	404,00
2142,09	439,00
2146,87	575,00
2151,66	416,00
2156,43	350,00
2161,20	439,00
2165,97	383,00
2170,73	327,00
2175,49	511,00
2180,24	333,00
2184,99	506,00
2189,74	427,00
2194,48	372,00
2199,21	437,00
2203,94	437,00
2208,67	403,00
2213,39	393,00
2218,11	299,00
2222,82	358,00
2227,53	372,00
2232,23	318,00
2236,93	343,00
2241,63	401,00
2246,32	360,00
2251,00	363,00
2255,68	303,00
2260,36	352,00
2265,03	523,00
2269,70	275,00
2274,36	386,00
2279,02	233,00
2283,68	317,00
2288,33	245,00
2292,97	508,00
2297,61	418,00
2302,25	433,00
2306,88	472,00
2311,51	266,00
2316,14	383,00
2320,75	178,00
2325,37	251,00
2329,98	265,00
2334,59	351,00
2339,19	189,00
2343,79	220,00
2348,38	272,00
2352,97	173,00
2357,55	388,00
2362,13	286,00
2366,71	247,00
2371,28	353,00
2375,85	281,00
2380,41	371,00
2384,97	152,00
2389,52	243,00
2394,07	220,00
2398,62	189,00
2403,16	232,00
2407,70	289,00
2412,23	367,00
2416,76	257,00
2421,29	300,00
2425,81	318,00
2430,32	280,00
2434,84	278,00
2439,34	242,00
2443,85	258,00
2448,35	329,00
2452,84	224,00
2457,33	304,00
2461,82	292,00
2466,30	179,00
2470,78	303,00
2475,25	244,00
2479,72	146,00
2484,19	269,00
2488,65	364,00
2493,11	185,00
2497,56	297,00
2502,01	294,00
2506,46	226,00
2510,90	164,00
2515,34	200,00
2519,77	187,00
2524,20	210,00
2528,62	154,00
2533,04	184,00
2537,46	191,00
2541,87	253,00
2546,28	280,00
2550,68	269,00
2555,08	182,00
2559,48	191,00
2563,87	210,00
2568,26	211,00
2572,64	171,00
2577,02	189,00
2581,40	268,00
2585,77	276,00
2590,14	206,00
2594,50	223,00
2598,86	277,00
2603,22	163,00
2607,57	243,00
2611,92	92,00
2616,26	196,00
2620,60	264,00
2624,94	294,00
2629,27	251,00
2633,60	201,00
2637,92	269,00
2642,24	265,00
2646,56	329,00
2650,87	281,00
2655,18	287,00
2659,48	216,00
2663,78	191,00
2668,08	237,00
2672,37	319,00
2676,66	152,00
2680,95	289,00
2685,23	252,00
2689,50	107,00
2693,78	245,00
2698,05	258,00
2702,31	264,00
2706,57	224,00
2710,83	311,00
2715,08	337,00
2719,33	224,00
2723,58	415,00
2727,82	320,00
2732,06	321,00
2736,29	282,00
2740,53	197,00
2744,75	176,00
2748,97	262,00
2753,19	294,00
2757,41	401,00
2761,62	129,00
2765,83	299,00
2770,03	227,00
2774,23	237,00
2778,43	253,00
2782,62	287,00
2786,81	254,00
2791,00	216,00
2795,18	253,00
2799,35	273,00
2803,53	347,00
2807,70	370,00
2811,86	309,00
2816,03	219,00
2820,19	436,00
2824,34	385,00
2828,49	511,00
2832,64	421,00
2836,78	526,00
2840,92	712,00
2845,06	899,00
2849,19	949,00
2853,32	909,00
2857,45	1196,00
2861,57	1054,00
2865,69	983,00
2869,80	1042,00
2873,91	990,00
2878,02	1243,00
2882,12	1092,00
2886,22	1143,00
2890,32	1106,00
2894,41	1114,00
2898,50	1030,00
2902,58	838,00
2906,67	850,00
2910,74	798,00
2914,82	749,00
2918,89	750,00
2922,96	687,00
2927,02	606,00
2931,08	513,00
2935,13	609,00
2939,19	673,00
2943,24	443,00
2947,28	356,00
2951,32	424,00
2955,36	516,00
2959,40	251,00
2963,43	368,00
2967,46	238,00
2971,48	248,00
2975,50	371,00
2979,52	324,00
2983,53	266,00
2987,54	130,00
2991,55	226,00
2995,55	190,00
2999,55	136,00
3003,54	218,00
3007,54	203,00
3011,53	211,00
3015,51	194,00
3019,49	305,00
3023,47	195,00
3027,45	58,00
3031,42	174,00
3035,39	96,00
3039,35	188,00
3043,31	-78,00
3047,27	138,00
3051,22	164,00
3055,17	117,00
3059,12	-13,00
3063,06	158,00
3067,00	69,00
3070,94	119,00
3074,87	156,00
3078,80	66,00
3082,73	29,00
3086,65	89,00
3090,57	75,00
3094,49	116,00
3098,40	116,00
3102,31	209,00
3106,22	160,00
3110,12	18,00
3114,02	147,00
3117,92	109,00
3121,81	151,00
3125,70	84,00
3129,58	143,00
3133,47	103,00
3137,34	139,00
3141,22	118,00
3145,09	101,00
3148,96	89,00
3152,83	164,00
3156,69	46,00
3160,55	182,00
3164,40	134,00
3168,26	159,00
3172,10	102,00
3175,95	45,00
3179,79	131,00
3183,63	155,00
3187,47	211,00
3191,30	164,00
3195,13	205,00
3198,95	209,00
3202,78	187,00
3206,60	60,00
3210,41	81,00
3214,23	186,00
3218,03	81,00
3221,84	158,00
3225,64	97,00
3229,44	78,00
3233,24	133,00
3237,03	119,00
3240,82	65,00
3244,61	94,00
3248,39	222,00
3252,17	70,00
3255,95	84,00
3259,72	51,00
3263,49	9,00
3267,26	16,00
3271,03	178,00
3274,79	147,00
3278,54	102,00
3282,30	137,00
3286,05	110,00
3289,80	22,00
3293,54	-47,00
3297,29	39,00
3301,02	111,00
3304,76	17,00
3308,49	174,00
3312,22	282,00
3315,95	32,00
3319,67	85,00
3323,39	144,00
3327,10	124,00
3330,82	147,00
3334,53	156,00
3338,24	121,00
3341,94	81,00
3345,64	117,00
3349,34	232,00
3353,03	190,00
3356,72	151,00
3360,41	209,00
3364,10	87,00
3367,78	-8,00
3371,46	95,00
3375,13	159,00
3378,81	43,00
3382,48	52,00
3386,14	30,00
3389,81	45,00
3393,47	-3,00
3397,12	23,00
3400,78	-57,00
3404,43	103,00
3408,08	162,00
3411,72	64,00
3415,36	46,00
3419,00	104,00
3422,64	64,00
3426,27	152,00
3429,90	178,00
3433,53	49,00
3437,15	74,00
3440,77	137,00
3444,39	-29,00
3448,00	111,00
3451,62	180,00
3455,22	22,00
3458,83	-41,00
3462,43	87,00
3466,03	57,00
3469,63	127,00
3473,22	109,00
3476,81	90,00
3480,40	56,00
3483,99	76,00
3487,57	109,00
3491,15	175,00
3494,72	67,00
3498,29	20,00
3501,86	70,00
3505,43	66,00
3508,99	123,00
3512,56	111,00
3516,11	32,00
3519,67	140,00
3523,22	19,00
3526,77	201,00
3530,32	106,00
3533,86	113,00
3537,40	74,00
3540,94	90,00
3544,47	1,00
3548,00	85,00
3551,53	5,00
3555,06	40,00
3558,58	136,00
3562,10	25,00
3565,62	61,00
3569,13	56,00
3572,64	145,00
3576,15	86,00
3579,66	33,00
3583,16	42,00
3586,66	124,00
3590,16	37,00
3593,65	90,00
3597,14	53,00
3600,63	102,00
3604,11	43,00
3607,60	-19,00
3611,08	-18,00
3614,55	165,00
3618,03	73,00
3621,50	-10,00
3624,97	75,00
3628,43	94,00
3631,90	54,00
3635,36	57,00
3638,81	135,00
3642,27	101,00
3645,72	66,00
3649,17	53,00
3652,61	-46,00
3656,06	141,00
3659,50	95,00
3662,93	43,00
3666,37	78,00
3669,80	40,00
3673,23	7,00
3676,65	73,00
3680,08	38,00
3683,50	14,00
3686,92	115,00
3690,33	93,00
3693,74	81,00
3697,15	77,00
3700,56	124,00
3703,96	-13,00
3707,36	59,00
3710,76	66,00
3714,16	79,00
3717,55	-35,00
3720,94	73,00
3724,33	20,00
3727,71	-22,00
3731,10	153,00
3734,48	48,00
3737,85	65,00
3741,23	145,00
3744,60	76,00
3747,97	-38,00
3751,33	29,00
3754,69	-24,00
3758,05	94,00
3761,41	48,00
3764,77	-20,00
3768,12	31,00
3771,47	-13,00
3774,82	-52,00
3778,16	-1,00
3781,50	-1,00
3784,84	-1,00
3788,18	-2,00
>>>>>End Processed Spectral Data<<<<<
