SpectraSuite Data File
++++++++++++++++++++++++++++++++++++
Date: Mon Mar 09 15:55:45 ICT 2026
User: Administrator
Dark Spectrum Present: Yes
Reference Spectrum Present: No
Number of Sampled Component Spectra: 1
Spectrometers: MAYP113682
Integration Time (usec): 3000000 (MAYP113682)
Spectra Averaged: 1 (MAYP113682)
Boxcar Smoothing: 0 (MAYP113682)
Correct for Electrical Dark: No (MAYP113682)
Strobe/Lamp Enabled: No (MAYP113682)
Correct for Detector Non-linearity: No (MAYP113682)
Correct for Stray Light: No (MAYP113682)
Number of Pixels in Processed Spectrum: 2068
>>>>>Begin Processed Spectral Data<<<<<
-37534,58	-3,00
-37414,56	-1,00
-37295,11	4,00
-37176,24	-5,00
-37057,95	97,00
-36940,22	-41,00
-36823,05	-10,00
-36706,45	167,00
-36590,40	4,00
-36474,90	-29,00
-36359,95	21,00
-36245,55	-30,00
-36131,68	-64,00
-36018,35	-86,00
-35905,55	109,00
-35793,29	13,00
-35681,54	95,00
-35570,32	44,00
-35459,62	96,00
-35349,43	49,00
-35239,75	62,00
-35130,58	41,00
-35021,91	-80,00
-34913,74	37,00
-34806,07	38,00
-34698,89	-80,00
-34592,20	56,00
-34486,00	99,00
-34380,28	5,00
-34275,04	-83,00
-34170,27	86,00
-34065,98	44,00
-33962,16	33,00
-33858,81	154,00
-33755,92	81,00
-33653,49	37,00
-33551,52	55,00
-33450,01	108,00
-33348,94	17,00
-33248,33	48,00
-33148,16	18,00
-33048,43	-2,00
-32949,14	75,00
-32850,29	36,00
-32751,87	-128,00
-32653,89	21,00
-32556,33	-137,00
-32459,20	84,00
-32362,49	111,00
-32266,19	-14,00
-32170,32	-31,00
-32074,86	111,00
-31979,82	51,00
-31885,18	-29,00
-31790,95	60,00
-31697,12	0,00
-31603,69	102,00
-31510,67	55,00
-31418,04	-55,00
-31325,80	-24,00
-31233,95	-59,00
-31142,49	15,00
-31051,42	87,00
-30960,73	-33,00
-30870,43	101,00
-30780,50	12,00
-30690,95	83,00
-30601,77	-72,00
-30512,97	-4,00
-30424,53	-66,00
-30336,46	150,00
-30248,76	9,00
-30161,42	24,00
-30074,44	-26,00
-29987,81	-8,00
-29901,55	-22,00
-29815,63	-20,00
-29730,07	47,00
-29644,86	-35,00
-29560,00	-61,00
-29475,48	83,00
-29391,30	0,00
-29307,47	-62,00
-29223,97	-7,00
-29140,81	64,00
-29057,99	-26,00
-28975,50	53,00
-28893,34	-37,00
-28811,51	-76,00
-28730,00	26,00
-28648,82	49,00
-28567,97	46,00
-28487,43	11,00
-28407,21	-49,00
-28327,32	21,00
-28247,73	-46,00
-28168,46	-29,00
-28089,50	4,00
-28010,85	84,00
-27932,51	43,00
-27854,48	-143,00
-27776,75	-63,00
-27699,32	-23,00
-27622,19	-21,00
-27545,37	114,00
-27468,84	80,00
-27392,60	97,00
-27316,66	69,00
-27241,01	-19,00
-27165,66	225,00
-27090,59	-105,00
-27015,81	-5,00
-26941,31	-3,00
-26867,10	61,00
-26793,17	71,00
-26719,52	58,00
-26646,15	-28,00
-26573,06	-47,00
-26500,24	34,00
-26427,70	11,00
-26355,43	11,00
-26283,43	65,00
-26211,71	16,00
-26140,25	113,00
-26069,06	39,00
-25998,13	-6,00
-25927,46	-11,00
-25857,06	-58,00
-25786,92	1,00
-25717,04	-35,00
-25647,42	61,00
-25578,05	3,00
-25508,94	25,00
-25440,09	-26,00
-25371,48	1,00
-25303,13	28,00
-25235,02	28,00
-25167,17	53,00
-25099,56	0,00
-25032,19	-76,00
-24965,07	12,00
-24898,20	-100,00
-24831,56	25,00
-24765,17	68,00
-24699,01	43,00
-24633,10	-87,00
-24567,41	16,00
-24501,97	-134,00
-24436,75	-110,00
-24371,77	-83,00
-24307,03	-23,00
-24242,51	14,00
-24178,22	-30,00
-24114,16	-59,00
-24050,32	-21,00
-23986,71	30,00
-23923,32	213,00
-23860,16	99,00
-23797,22	38,00
-23734,50	-1,00
-23672,00	17,00
-23609,71	31,00
-23547,65	75,00
-23485,80	-87,00
-23424,16	-7,00
-23362,74	0,00
-23301,53	44,00
-23240,54	72,00
-23179,75	-97,00
-23119,17	68,00
-23058,80	-1,00
-22998,64	4,00
-22938,68	26,00
-22878,93	66,00
-22819,39	42,00
-22760,04	49,00
-22700,90	38,00
-22641,96	-65,00
-22583,22	106,00
-22524,68	25,00
-22466,33	-37,00
-22408,19	-53,00
-22350,23	40,00
-22292,48	84,00
-22234,92	-19,00
-22177,55	161,00
-22120,37	-7,00
-22063,38	62,00
-22006,58	165,00
-21949,98	92,00
-21893,56	-7,00
-21837,33	21,00
-21781,28	31,00
-21725,42	110,00
-21669,74	48,00
-21614,25	-50,00
-21558,94	24,00
-21503,81	39,00
-21448,86	22,00
-21394,10	-116,00
-21339,51	63,00
-21285,10	-62,00
-21230,86	10,00
-21176,81	27,00
-21122,93	93,00
-21069,22	75,00
-21015,69	-18,00
-20962,33	70,00
-20909,14	44,00
-20856,13	90,00
-20803,28	23,00
-20750,61	53,00
-20698,10	72,00
-20645,76	33,00
-20593,59	-63,00
-20541,59	35,00
-20489,75	34,00
-20438,07	-25,00
-20386,56	-44,00
-20335,22	-11,00
-20284,03	-55,00
-20233,01	-2,00
-20182,15	-20,00
-20131,45	28,00
-20080,91	-76,00
-20030,52	11,00
-19980,30	-54,00
-19930,23	93,00
-19880,32	55,00
-19830,56	-31,00
-19780,96	61,00
-19731,52	-80,00
-19682,23	63,00
-19633,09	116,00
-19584,10	-120,00
-19535,26	57,00
-19486,58	-37,00
-19438,04	65,00
-19389,66	76,00
-19341,42	41,00
-19293,33	-69,00
-19245,39	-22,00
-19197,60	74,00
-19149,95	23,00
-19102,45	33,00
-19055,09	54,00
-19007,87	18,00
-18960,80	80,00
-18913,87	-47,00
-18867,09	-10,00
-18820,44	33,00
-18773,94	47,00
-18727,57	-74,00
-18681,35	93,00
-18635,26	-45,00
-18589,31	21,00
-18543,50	20,00
-18497,83	50,00
-18452,29	47,00
-18406,89	-21,00
-18361,63	-72,00
-18316,50	93,00
-18271,50	84,00
-18226,63	112,00
-18181,90	52,00
-18137,30	-143,00
-18092,84	42,00
-18048,50	27,00
-18004,29	-85,00
-17960,22	-71,00
-17916,27	-80,00
-17872,45	-13,00
-17828,76	79,00
-17785,20	5,00
-17741,77	29,00
-17698,46	50,00
-17655,28	44,00
-17612,22	-35,00
-17569,29	32,00
-17526,48	181,00
-17483,79	-46,00
-17441,23	-22,00
-17398,79	118,00
-17356,48	-1,00
-17314,28	61,00
-17272,21	30,00
-17230,26	45,00
-17188,42	95,00
-17146,71	67,00
-17105,12	56,00
-17063,64	-49,00
-17022,28	-84,00
-16981,04	-1,00
-16939,92	73,00
-16898,91	149,00
-16858,02	63,00
-16817,25	-78,00
-16776,59	-42,00
-16736,04	23,00
-16695,61	-1,00
-16655,29	36,00
-16615,09	-2,00
-16574,99	0,00
-16535,01	83,00
-16495,15	166,00
-16455,39	41,00
-16415,74	37,00
-16376,21	-20,00
-16336,78	73,00
-16297,46	53,00
-16258,26	21,00
-16219,16	63,00
-16180,17	-56,00
-16141,28	108,00
-16102,51	93,00
-16063,84	-59,00
-16025,27	77,00
-15986,82	7,00
-15948,46	72,00
-15910,22	1,00
-15872,07	71,00
-15834,04	66,00
-15796,10	-6,00
-15758,27	74,00
-15720,54	48,00
-15682,91	75,00
-15645,39	24,00
-15607,97	25,00
-15570,64	-14,00
-15533,42	-6,00
-15496,30	36,00
-15459,28	75,00
-15422,36	-15,00
-15385,54	-40,00
-15348,82	-81,00
-15312,19	53,00
-15275,66	-14,00
-15239,23	7,00
-15202,90	71,00
-15166,67	109,00
-15130,53	-10,00
-15094,48	-47,00
-15058,54	115,00
-15022,68	61,00
-14986,93	74,00
-14951,26	19,00
-14915,69	-108,00
-14880,22	-81,00
-14844,84	19,00
-14809,55	-37,00
-14774,35	-37,00
-14739,25	-3,00
-14704,24	61,00
-14669,32	-158,00
-14634,49	-27,00
-14599,75	52,00
-14565,10	-15,00
-14530,55	-16,00
-14496,08	212,00
-14461,70	55,00
-14427,41	-129,00
-14393,21	86,00
-14359,10	-34,00
-14325,07	-30,00
-14291,14	4,00
-14257,29	5,00
-14223,52	53,00
-14189,85	-35,00
-14156,26	1,00
-14122,76	80,00
-14089,34	117,00
-14056,01	145,00
-14022,76	-57,00
-13989,60	-33,00
-13956,52	51,00
-13923,53	3,00
-13890,62	-11,00
-13857,79	87,00
-13825,05	67,00
-13792,39	20,00
-13759,81	-65,00
-13727,31	90,00
-13694,90	42,00
-13662,57	149,00
-13630,31	56,00
-13598,14	118,00
-13566,05	93,00
-13534,05	13,00
-13502,12	-26,00
-13470,27	20,00
-13438,50	-50,00
-13406,80	28,00
-13375,19	-63,00
-13343,66	69,00
-13312,20	38,00
-13280,83	37,00
-13249,53	-12,00
-13218,30	141,00
-13187,16	13,00
-13156,09	79,00
-13125,10	47,00
-13094,18	123,00
-13063,34	122,00
-13032,58	27,00
-13001,89	-20,00
-12971,28	-86,00
-12940,74	86,00
-12910,27	3,00
-12879,88	165,00
-12849,57	133,00
-12819,33	-115,00
-12789,16	94,00
-12759,06	30,00
-12729,04	124,00
-12699,09	17,00
-12669,21	18,00
-12639,41	-85,00
-12609,68	-33,00
-12580,02	-42,00
-12550,43	15,00
-12520,91	33,00
-12491,46	80,00
-12462,08	-109,00
-12432,77	184,00
-12403,54	40,00
-12374,37	132,00
-12345,27	87,00
-12316,24	158,00
-12287,29	2,00
-12258,40	-73,00
-12229,57	8,00
-12200,82	-36,00
-12172,14	17,00
-12143,52	28,00
-12114,97	82,00
-12086,49	93,00
-12058,07	26,00
-12029,73	26,00
-12001,44	-48,00
-11973,23	-36,00
-11945,08	59,00
-11917,00	86,00
-11888,98	-24,00
-11861,03	-56,00
-11833,15	68,00
-11805,32	-61,00
-11777,57	-104,00
-11749,88	-56,00
-11722,25	114,00
-11694,69	41,00
-11667,19	-72,00
-11639,75	-114,00
-11612,38	-10,00
-11585,07	112,00
-11557,83	74,00
-11530,65	-52,00
-11503,53	25,00
-11476,47	163,00
-11449,48	40,00
-11422,54	60,00
-11395,67	12,00
-11368,86	-19,00
-11342,11	-40,00
-11315,43	80,00
-11288,80	16,00
-11262,23	58,00
-11235,73	8,00
-11209,28	105,00
-11182,90	47,00
-11156,57	84,00
-11130,31	57,00
-11104,10	50,00
-11077,96	-1,00
-11051,87	-55,00
-11025,84	-31,00
-10999,87	84,00
-10973,96	-69,00
-10948,11	27,00
-10922,31	-5,00
-10896,58	45,00
-10870,90	118,00
-10845,28	-98,00
-10819,71	-24,00
-10794,20	-21,00
-10768,75	179,00
-10743,36	78,00
-10718,02	13,00
-10692,74	4,00
-10667,52	4,00
-10642,35	51,00
-10617,24	-34,00
-10592,18	36,00
-10567,18	68,00
-10542,23	80,00
-10517,34	0,00
-10492,51	-78,00
-10467,72	33,00
-10443,00	-87,00
-10418,32	9,00
-10393,70	107,00
-10369,14	8,00
-10344,63	-10,00
-10320,17	12,00
-10295,77	-15,00
-10271,42	-135,00
-10247,12	113,00
-10222,88	100,00
-10198,68	64,00
-10174,54	-34,00
-10150,46	77,00
-10126,42	64,00
-10102,44	180,00
-10078,51	-7,00
-10054,63	82,00
-10030,80	-48,00
-10007,03	-50,00
-9983,30	-121,00
-9959,63	-1,00
-9936,01	-79,00
-9912,44	46,00
-9888,92	32,00
-9865,44	32,00
-9842,02	-11,00
-9818,65	33,00
-9795,33	-38,00
-9772,06	44,00
-9748,84	-22,00
-9725,67	-16,00
-9702,55	-22,00
-9679,47	-46,00
-9656,45	-8,00
-9633,47	-102,00
-9610,55	-127,00
-9587,67	-27,00
-9564,84	-101,00
-9542,06	56,00
-9519,32	-191,00
-9496,64	-160,00
-9474,00	-87,00
-9451,41	-90,00
-9428,87	68,00
-9406,37	-249,00
-9383,92	-217,00
-9361,52	-210,00
-9339,17	-108,00
-9316,86	-221,00
-9294,60	-131,00
-9272,38	-244,00
-9250,21	-107,00
-9228,09	-220,00
-9206,01	-269,00
-9183,98	-334,00
-9162,00	-321,00
-9140,06	-251,00
-9118,16	-217,00
-9096,31	-213,00
-9074,51	-231,00
-9052,75	-151,00
-9031,04	-173,00
-9009,37	-166,00
-8987,74	-196,00
-8966,16	-64,00
-8944,63	-274,00
-8923,14	-175,00
-8901,69	-273,00
-8880,29	-102,00
-8858,93	-74,00
-8837,61	-145,00
-8816,34	-27,00
-8795,11	-152,00
-8773,92	-44,00
-8752,78	-76,00
-8731,68	-14,00
-8710,62	-99,00
-8689,61	-66,00
-8668,63	-158,00
-8647,70	89,00
-8626,82	87,00
-8605,97	-121,00
-8585,17	-9,00
-8564,41	-174,00
-8543,69	-97,00
-8523,01	-227,00
-8502,37	-137,00
-8481,78	-122,00
-8461,23	-24,00
-8440,71	-93,00
-8420,24	-55,00
-8399,81	-34,00
-8379,42	58,00
-8359,08	40,00
-8338,77	-91,00
-8318,50	91,00
-8298,27	-63,00
-8278,09	-39,00
-8257,94	43,00
-8237,83	95,00
-8217,76	108,00
-8197,74	-16,00
-8177,75	93,00
-8157,80	23,00
-8137,89	33,00
-8118,02	50,00
-8098,19	-76,00
-8078,40	49,00
-8058,65	33,00
-8038,93	71,00
-8019,26	47,00
-7999,62	43,00
-7980,02	14,00
-7960,46	-38,00
-7940,94	112,00
-7921,46	-109,00
-7902,01	-96,00
-7882,60	42,00
-7863,23	-21,00
-7843,90	35,00
-7824,61	59,00
-7805,35	98,00
-7786,13	77,00
-7766,95	155,00
-7747,80	100,00
-7728,69	59,00
-7709,62	36,00
-7690,59	46,00
-7671,59	60,00
-7652,63	63,00
-7633,70	-58,00
-7614,81	34,00
-7595,96	30,00
-7577,15	103,00
-7558,37	58,00
-7539,62	59,00
-7520,91	98,00
-7502,24	105,00
-7483,60	81,00
-7465,00	-26,00
-7446,44	122,00
-7427,91	32,00
-7409,41	25,00
-7390,95	-109,00
-7372,53	-120,00
-7354,14	-96,00
-7335,78	-2,00
-7317,46	-65,00
-7299,18	-31,00
-7280,92	-51,00
-7262,71	55,00
-7244,52	84,00
-7226,38	41,00
-7208,26	64,00
-7190,18	-124,00
-7172,14	-41,00
-7154,12	26,00
-7136,15	84,00
-7118,20	85,00
-7100,29	113,00
-7082,41	34,00
-7064,57	19,00
-7046,76	-143,00
-7028,98	-48,00
-7011,24	-157,00
-6993,53	-115,00
-6975,85	1,00
-6958,20	-129,00
-6940,59	69,00
-6923,01	-123,00
-6905,46	25,00
-6887,94	-80,00
-6870,46	87,00
-6853,01	30,00
-6835,59	-25,00
-6818,21	-86,00
-6800,85	43,00
-6783,53	-47,00
-6766,24	-164,00
-6748,98	-36,00
-6731,76	-118,00
-6714,56	-176,00
-6697,40	-104,00
-6680,26	-51,00
-6663,16	11,00
-6646,09	-93,00
-6629,05	-61,00
-6612,05	-84,00
-6595,07	-43,00
-6578,13	-24,00
-6561,21	-131,00
-6544,33	-100,00
-6527,47	-165,00
-6510,65	-126,00
-6493,86	-180,00
-6477,10	-172,00
-6460,36	-65,00
-6443,66	-251,00
-6426,99	-57,00
-6410,35	-71,00
-6393,74	-119,00
-6377,16	-145,00
-6360,61	-120,00
-6344,09	-31,00
-6327,59	-62,00
-6311,13	24,00
-6294,70	-19,00
-6278,29	60,00
-6261,92	-36,00
-6245,58	-12,00
-6229,26	-52,00
-6212,97	-52,00
-6196,72	-63,00
-6180,49	-50,00
-6164,29	17,00
-6148,12	-111,00
-6131,98	-204,00
-6115,86	-131,00
-6099,78	-221,00
-6083,72	-248,00
-6067,69	-180,00
-6051,69	-168,00
-6035,72	0,00
-6019,78	-106,00
-6003,87	48,00
-5987,98	-81,00
-5972,12	21,00
-5956,29	-82,00
-5940,49	4,00
-5924,71	7,00
-5908,96	-20,00
-5893,24	-110,00
-5877,55	-25,00
-5861,89	-183,00
-5846,25	5,00
-5830,64	-111,00
-5815,05	-198,00
-5799,50	-55,00
-5783,97	-15,00
-5768,47	68,00
-5752,99	-25,00
-5737,55	-83,00
-5722,12	-169,00
-5706,73	-36,00
-5691,36	41,00
-5676,02	-123,00
-5660,71	7,00
-5645,42	-44,00
-5630,16	124,00
-5614,92	-94,00
-5599,71	-173,00
-5584,53	-65,00
-5569,37	38,00
-5554,24	-325,00
-5539,14	-28,00
-5524,06	-157,00
-5509,01	-50,00
-5493,98	-17,00
-5478,98	-156,00
-5464,00	-60,00
-5449,05	-97,00
-5434,13	-58,00
-5419,23	20,00
-5404,36	-40,00
-5389,51	24,00
-5374,69	-91,00
-5359,89	-34,00
-5345,12	-76,00
-5330,37	-67,00
-5315,65	-2,00
-5300,95	-59,00
-5286,28	12,00
-5271,63	-47,00
-5257,01	-67,00
-5242,41	-90,00
-5227,84	-201,00
-5213,29	40,00
-5198,76	-113,00
-5184,26	-27,00
-5169,79	-129,00
-5155,33	-148,00
-5140,91	-136,00
-5126,51	-48,00
-5112,13	-64,00
-5097,77	-67,00
-5083,44	116,00
-5069,13	-56,00
-5054,85	-132,00
-5040,59	5,00
-5026,36	-44,00
-5012,15	-120,00
-4997,96	-78,00
-4983,80	-124,00
-4969,66	-39,00
-4955,54	-37,00
-4941,44	167,00
-4927,37	35,00
-4913,33	-10,00
-4899,30	-36,00
-4885,30	-17,00
-4871,33	24,00
-4857,37	125,00
-4843,44	93,00
-4829,53	16,00
-4815,65	-60,00
-4801,79	-102,00
-4787,95	-70,00
-4774,13	-65,00
-4760,34	-133,00
-4746,56	38,00
-4732,82	25,00
-4719,09	37,00
-4705,38	65,00
-4691,70	-15,00
-4678,04	-100,00
-4664,41	95,00
-4650,79	77,00
-4637,20	21,00
-4623,63	-88,00
-4610,08	53,00
-4596,56	-136,00
-4583,05	-105,00
-4569,57	-48,00
-4556,11	-6,00
-4542,67	-80,00
-4529,25	-90,00
-4515,86	120,00
-4502,49	18,00
-4489,13	-21,00
-4475,80	-123,00
-4462,49	54,00
-4449,21	25,00
-4435,94	63,00
-4422,70	-12,00
-4409,47	90,00
-4396,27	-11,00
-4383,09	53,00
-4369,93	103,00
-4356,79	10,00
-4343,67	-103,00
-4330,58	-94,00
-4317,50	49,00
-4304,45	47,00
-4291,41	-97,00
-4278,40	67,00
-4265,41	-72,00
-4252,44	40,00
-4239,49	45,00
-4226,55	13,00
-4213,65	96,00
-4200,76	155,00
-4187,89	-28,00
-4175,04	100,00
-4162,21	-47,00
-4149,40	34,00
-4136,61	-2,00
-4123,85	-78,00
-4111,10	5,00
-4098,37	-3,00
-4085,66	-45,00
-4072,98	125,00
-4060,31	-88,00
-4047,66	55,00
-4035,04	-172,00
-4022,43	23,00
-4009,84	-3,00
-3997,27	52,00
-3984,72	41,00
-3972,19	-17,00
-3959,69	159,00
-3947,20	-37,00
-3934,73	37,00
-3922,27	-28,00
-3909,84	-54,00
-3897,43	-28,00
-3885,04	87,00
-3872,67	64,00
-3860,31	-68,00
-3847,98	-58,00
-3835,66	50,00
-3823,36	38,00
-3811,09	75,00
-3798,83	7,00
-3786,59	55,00
-3774,37	18,00
-3762,17	-23,00
-3749,98	70,00
-3737,82	90,00
-3725,67	100,00
-3713,55	38,00
-3701,44	10,00
-3689,35	157,00
-3677,28	73,00
-3665,22	102,00
-3653,19	49,00
-3641,17	33,00
-3629,18	-5,00
-3617,20	54,00
-3605,24	97,00
-3593,30	98,00
-3581,37	148,00
-3569,47	48,00
-3557,58	73,00
-3545,71	-28,00
-3533,86	151,00
-3522,02	-34,00
-3510,21	44,00
-3498,41	38,00
-3486,63	105,00
-3474,87	105,00
-3463,12	-71,00
-3451,40	113,00
-3439,69	64,00
-3428,00	15,00
-3416,33	47,00
-3404,67	-37,00
-3393,03	-58,00
-3381,41	38,00
-3369,81	-83,00
-3358,22	119,00
-3346,66	16,00
-3335,10	11,00
-3323,57	-9,00
-3312,06	3,00
-3300,56	103,00
-3289,08	33,00
-3277,61	19,00
-3266,16	29,00
-3254,73	-30,00
-3243,32	-11,00
-3231,92	-22,00
-3220,55	-59,00
-3209,18	-106,00
-3197,84	20,00
-3186,51	-127,00
-3175,20	110,00
-3163,90	-59,00
-3152,63	82,00
-3141,36	-22,00
-3130,12	72,00
-3118,89	-18,00
-3107,68	-72,00
-3096,49	-43,00
-3085,31	151,00
-3074,15	37,00
-3063,00	-34,00
-3051,87	-55,00
-3040,76	91,00
-3029,67	-91,00
-3018,59	11,00
-3007,52	-127,00
-2996,48	-45,00
-2985,44	137,00
-2974,43	-116,00
-2963,43	35,00
-2952,45	-3,00
-2941,48	48,00
-2930,53	102,00
-2919,60	134,00
-2908,68	-94,00
-2897,78	-59,00
-2886,89	-24,00
-2876,02	-37,00
-2865,17	17,00
-2854,33	-14,00
-2843,50	-14,00
-2832,70	-60,00
-2821,90	-29,00
-2811,13	57,00
-2800,37	43,00
-2789,62	-35,00
-2778,89	43,00
-2768,18	32,00
-2757,48	-31,00
-2746,80	-25,00
-2736,13	19,00
-2725,48	42,00
-2714,84	-1,00
-2704,22	63,00
-2693,61	129,00
-2683,02	51,00
-2672,45	8,00
-2661,89	29,00
-2651,34	42,00
-2640,81	35,00
-2630,30	11,00
-2619,80	63,00
-2609,31	68,00
-2598,84	62,00
-2588,39	-17,00
-2577,95	59,00
-2567,52	105,00
-2557,11	37,00
-2546,71	-43,00
-2536,33	74,00
-2525,97	-17,00
-2515,62	46,00
-2505,28	3,00
-2494,96	87,00
-2484,65	-89,00
-2474,36	41,00
-2464,08	-99,00
-2453,82	53,00
-2443,57	138,00
-2433,33	-39,00
-2423,11	108,00
-2412,91	66,00
-2402,72	95,00
-2392,54	47,00
-2382,38	-40,00
-2372,23	-21,00
-2362,09	-73,00
-2351,97	-69,00
-2341,87	55,00
-2331,78	-53,00
-2321,70	63,00
-2311,64	8,00
-2301,59	19,00
-2291,55	53,00
-2281,53	-42,00
-2271,53	43,00
-2261,53	33,00
-2251,55	109,00
-2241,59	26,00
-2231,64	12,00
-2221,70	-4,00
-2211,78	-44,00
-2201,87	3,00
-2191,97	-49,00
-2182,09	70,00
-2172,22	11,00
-2162,37	128,00
-2152,53	62,00
-2142,70	-49,00
-2132,89	85,00
-2123,09	121,00
-2113,30	1,00
-2103,53	-70,00
-2093,77	-17,00
-2084,02	-1,00
-2074,29	-99,00
-2064,57	-28,00
-2054,86	-120,00
-2045,17	33,00
-2035,49	15,00
-2025,82	-35,00
-2016,17	-34,00
-2006,53	98,00
-1996,91	34,00
-1987,29	-23,00
-1977,69	39,00
-1968,11	-19,00
-1958,53	45,00
-1948,97	55,00
-1939,42	-99,00
-1929,89	2,00
-1920,37	-87,00
-1910,86	136,00
-1901,36	-158,00
-1891,88	-3,00
-1882,41	-67,00
-1872,95	36,00
-1863,51	95,00
-1854,08	67,00
-1844,66	109,00
-1835,26	0,00
-1825,86	10,00
-1816,48	31,00
-1807,11	68,00
-1797,76	181,00
-1788,42	112,00
-1779,09	-51,00
-1769,77	13,00
-1760,47	179,00
-1751,17	79,00
-1741,89	-125,00
-1732,63	99,00
-1723,37	30,00
-1714,13	41,00
-1704,90	-16,00
-1695,68	119,00
-1686,48	24,00
-1677,29	-83,00
-1668,11	96,00
-1658,94	-78,00
-1649,78	34,00
-1640,64	44,00
-1631,51	-138,00
-1622,39	51,00
-1613,28	-60,00
-1604,19	-21,00
-1595,10	23,00
-1586,03	78,00
-1576,97	-120,00
-1567,93	-110,00
-1558,89	22,00
-1549,87	90,00
-1540,86	49,00
-1531,86	-42,00
-1522,87	61,00
-1513,90	-3,00
-1504,93	62,00
-1495,98	106,00
-1487,04	-16,00
-1478,12	37,00
-1469,20	91,00
-1460,30	16,00
-1451,40	118,00
-1442,52	17,00
-1433,65	-178,00
-1424,80	48,00
-1415,95	64,00
-1407,12	127,00
-1398,30	-7,00
-1389,48	-37,00
-1380,69	59,00
-1371,90	119,00
-1363,12	98,00
-1354,36	-36,00
-1345,60	-90,00
-1336,86	-49,00
-1328,13	-8,00
-1319,41	7,00
-1310,70	24,00
-1302,01	33,00
-1293,32	22,00
-1284,65	40,00
-1275,99	69,00
-1267,33	-15,00
-1258,69	-10,00
-1250,06	26,00
-1241,45	93,00
-1232,84	-51,00
-1224,25	16,00
-1215,66	24,00
-1207,09	45,00
-1198,53	28,00
-1189,97	51,00
-1181,43	-11,00
-1172,91	-52,00
-1164,39	48,00
-1155,88	-3,00
-1147,38	108,00
-1138,90	-68,00
-1130,43	33,00
-1121,96	112,00
-1113,51	92,00
-1105,07	-42,00
-1096,64	84,00
-1088,22	70,00
-1079,81	60,00
-1071,41	40,00
-1063,02	112,00
-1054,65	-100,00
-1046,28	86,00
-1037,92	55,00
-1029,58	101,00
-1021,24	-90,00
-1012,92	42,00
-1004,61	-10,00
-996,30	66,00
-988,01	-17,00
-979,73	-40,00
-971,46	11,00
-963,20	16,00
-954,95	-91,00
-946,71	-45,00
-938,48	-35,00
-930,26	88,00
-922,06	-21,00
-913,86	40,00
-905,67	82,00
-897,49	85,00
-889,33	27,00
-881,17	-16,00
-873,02	-35,00
-864,89	32,00
-856,76	-99,00
-848,65	131,00
-840,54	160,00
-832,45	52,00
-824,36	98,00
-816,29	-11,00
-808,22	4,00
-800,17	81,00
-792,12	93,00
-784,09	-16,00
-776,06	34,00
-768,05	41,00
-760,04	67,00
-752,05	-32,00
-744,07	53,00
-736,09	71,00
-728,13	-3,00
-720,17	-27,00
-712,23	-5,00
-704,29	-7,00
-696,37	-39,00
-688,45	-32,00
-680,55	86,00
-672,65	29,00
-664,77	-49,00
-656,89	97,00
-649,03	8,00
-641,17	105,00
-633,32	-39,00
-625,49	61,00
-617,66	70,00
-609,84	23,00
-602,03	70,00
-594,23	104,00
-586,45	119,00
-578,67	20,00
-570,90	47,00
-563,14	-37,00
-555,39	61,00
-547,65	15,00
-539,91	-19,00
-532,19	-46,00
-524,48	-51,00
-516,78	19,00
-509,08	-140,00
-501,40	71,00
-493,72	-7,00
-486,06	19,00
-478,40	54,00
-470,76	141,00
-463,12	-42,00
-455,49	98,00
-447,87	11,00
-440,26	24,00
-432,66	51,00
-425,07	-5,00
-417,49	43,00
-409,92	34,00
-402,35	143,00
-394,80	184,00
-387,25	20,00
-379,72	152,00
-372,19	128,00
-364,67	76,00
-357,17	-42,00
-349,67	87,00
-342,18	111,00
-334,69	306,00
-327,22	96,00
-319,76	158,00
-312,30	33,00
-304,86	48,00
-297,42	158,00
-290,00	54,00
-282,58	112,00
-275,17	-9,00
-267,77	211,00
-260,37	103,00
-252,99	143,00
-245,62	140,00
-238,25	197,00
-230,90	33,00
-223,55	140,00
-216,21	224,00
-208,88	285,00
-201,56	186,00
-194,25	354,00
-186,94	257,00
-179,65	263,00
-172,36	338,00
-165,08	497,00
-157,81	406,00
-150,55	569,00
-143,30	557,00
-136,06	537,00
-128,82	788,00
-121,60	740,00
-114,38	746,00
-107,17	1078,00
-99,97	909,00
-92,78	1080,00
-85,60	1335,00
-78,42	1533,00
-71,25	1677,00
-64,10	2023,00
-56,95	2325,00
-49,81	2821,00
-42,67	3391,00
-35,55	4323,00
-28,43	5671,00
-21,33	9650,00
-14,23	32465,00
-7,14	55238,00
-0,05	54948,00
7,02	54664,00
14,09	54888,00
21,14	28658,00
28,19	11968,00
35,23	7335,00
42,27	5580,00
49,29	4440,00
56,31	3925,00
63,32	3216,00
70,32	2623,00
77,31	2126,00
84,29	1791,00
91,27	1808,00
98,23	1486,00
105,19	1395,00
112,14	1236,00
119,09	1678,00
126,02	2081,00
132,95	2159,00
139,87	2223,00
146,78	2000,00
153,68	2071,00
160,58	1942,00
167,46	1872,00
174,34	2010,00
181,21	1892,00
188,08	1849,00
194,93	1709,00
201,78	1724,00
208,62	1618,00
215,45	1742,00
222,27	1783,00
229,09	1704,00
235,90	1742,00
242,70	1642,00
249,49	1615,00
256,27	1715,00
263,05	1600,00
269,82	1592,00
276,58	1513,00
283,33	1565,00
290,08	1633,00
296,82	1580,00
303,55	1479,00
310,27	1608,00
316,98	1546,00
323,69	1592,00
330,39	1464,00
337,08	1342,00
343,76	1530,00
350,44	1400,00
357,11	1401,00
363,77	1444,00
370,42	1223,00
377,07	1430,00
383,71	1382,00
390,34	1425,00
396,96	1401,00
403,58	1460,00
410,19	1239,00
416,79	1451,00
423,38	1518,00
429,97	1423,00
436,55	1236,00
443,12	1265,00
449,68	1279,00
456,24	1337,00
462,79	1241,00
469,33	1163,00
475,86	1270,00
482,39	1236,00
488,91	1037,00
495,42	1081,00
501,93	1219,00
508,42	1136,00
514,91	1185,00
521,40	1192,00
527,87	1039,00
534,34	1135,00
540,80	1183,00
547,25	1122,00
553,70	1135,00
560,14	1087,00
566,57	1057,00
573,00	1065,00
579,41	1042,00
585,83	1001,00
592,23	1201,00
598,62	952,00
605,01	1010,00
611,40	1059,00
617,77	971,00
624,14	1096,00
630,50	1094,00
636,85	1078,00
643,20	1049,00
649,54	1039,00
655,87	971,00
662,20	985,00
668,52	1031,00
674,83	913,00
681,13	1006,00
687,43	908,00
693,72	988,00
700,00	950,00
706,28	883,00
712,55	1009,00
718,81	1042,00
725,07	1044,00
731,32	943,00
737,56	956,00
743,79	957,00
750,02	916,00
756,24	867,00
762,46	896,00
768,67	981,00
774,87	946,00
781,06	942,00
787,25	872,00
793,43	856,00
799,60	839,00
805,77	899,00
811,93	879,00
818,08	905,00
824,23	1006,00
830,37	903,00
836,50	1007,00
842,63	857,00
848,75	1019,00
854,87	968,00
860,97	1016,00
867,07	916,00
873,17	925,00
879,25	1060,00
885,33	821,00
891,41	908,00
897,47	823,00
903,53	864,00
909,59	839,00
915,63	998,00
921,67	846,00
927,71	770,00
933,74	746,00
939,76	766,00
945,77	778,00
951,78	820,00
957,78	673,00
963,78	836,00
969,77	755,00
975,75	892,00
981,72	811,00
987,69	870,00
993,66	764,00
999,61	762,00
1005,56	763,00
1011,51	834,00
1017,44	774,00
1023,37	780,00
1029,30	901,00
1035,22	812,00
1041,13	823,00
1047,03	974,00
1052,93	800,00
1058,83	1082,00
1064,71	1108,00
1070,59	939,00
1076,47	924,00
1082,33	870,00
1088,20	858,00
1094,05	701,00
1099,90	845,00
1105,74	677,00
1111,58	823,00
1117,41	1012,00
1123,23	987,00
1129,05	884,00
1134,86	927,00
1140,67	1007,00
1146,47	893,00
1152,26	827,00
1158,05	645,00
1163,83	766,00
1169,60	770,00
1175,37	683,00
1181,13	816,00
1186,89	715,00
1192,64	742,00
1198,38	734,00
1204,12	687,00
1209,85	749,00
1215,58	782,00
1221,30	677,00
1227,02	732,00
1232,72	767,00
1238,43	697,00
1244,12	689,00
1249,81	747,00
1255,50	750,00
1261,17	682,00
1266,85	834,00
1272,51	681,00
1278,17	893,00
1283,83	752,00
1289,47	1000,00
1295,12	1193,00
1300,75	1216,00
1306,38	1031,00
1312,01	950,00
1317,63	902,00
1323,24	914,00
1328,85	822,00
1334,45	823,00
1340,04	866,00
1345,63	794,00
1351,22	860,00
1356,80	871,00
1362,37	881,00
1367,93	909,00
1373,49	797,00
1379,05	857,00
1384,60	829,00
1390,14	841,00
1395,68	916,00
1401,21	904,00
1406,74	888,00
1412,26	886,00
1417,77	864,00
1423,28	990,00
1428,78	1051,00
1434,28	1190,00
1439,77	1226,00
1445,26	1225,00
1450,74	1368,00
1456,22	1283,00
1461,68	1063,00
1467,15	1057,00
1472,61	984,00
1478,06	944,00
1483,51	1006,00
1488,95	746,00
1494,38	823,00
1499,81	652,00
1505,24	838,00
1510,65	788,00
1516,07	769,00
1521,48	807,00
1526,88	762,00
1532,27	841,00
1537,67	713,00
1543,05	737,00
1548,43	683,00
1553,81	734,00
1559,18	633,00
1564,54	755,00
1569,90	694,00
1575,25	678,00
1580,60	687,00
1585,94	663,00
1591,28	710,00
1596,61	799,00
1601,93	637,00
1607,25	657,00
1612,57	718,00
1617,88	795,00
1623,18	656,00
1628,48	649,00
1633,77	632,00
1639,06	703,00
1644,34	605,00
1649,62	599,00
1654,89	690,00
1660,16	612,00
1665,42	565,00
1670,67	626,00
1675,92	636,00
1681,17	694,00
1686,41	659,00
1691,64	645,00
1696,87	529,00
1702,10	499,00
1707,32	607,00
1712,53	583,00
1717,74	499,00
1722,94	522,00
1728,14	557,00
1733,33	572,00
1738,52	582,00
1743,70	561,00
1748,88	673,00
1754,05	510,00
1759,22	507,00
1764,38	596,00
1769,53	462,00
1774,69	434,00
1779,83	470,00
1784,97	526,00
1790,11	522,00
1795,24	547,00
1800,36	469,00
1805,48	489,00
1810,60	450,00
1815,71	427,00
1820,82	391,00
1825,92	491,00
1831,01	432,00
1836,10	573,00
1841,19	483,00
1846,26	483,00
1851,34	419,00
1856,41	470,00
1861,47	442,00
1866,53	550,00
1871,59	539,00
1876,64	426,00
1881,68	374,00
1886,72	353,00
1891,76	556,00
1896,79	392,00
1901,81	345,00
1906,83	493,00
1911,85	432,00
1916,86	485,00
1921,86	396,00
1926,86	329,00
1931,86	445,00
1936,85	398,00
1941,83	464,00
1946,81	452,00
1951,79	436,00
1956,76	453,00
1961,72	302,00
1966,68	336,00
1971,64	356,00
1976,59	466,00
1981,54	492,00
1986,48	393,00
1991,42	336,00
1996,35	405,00
2001,27	341,00
2006,20	362,00
2011,11	493,00
2016,03	335,00
2020,93	279,00
2025,84	309,00
2030,73	383,00
2035,63	343,00
2040,52	256,00
2045,40	306,00
2050,28	299,00
2055,15	381,00
2060,02	268,00
2064,89	290,00
2069,75	324,00
2074,60	375,00
2079,46	402,00
2084,30	330,00
2089,14	271,00
2093,98	340,00
2098,81	359,00
2103,64	316,00
2108,46	358,00
2113,28	325,00
2118,09	305,00
2122,90	311,00
2127,70	352,00
2132,50	459,00
2137,30	381,00
2142,09	305,00
2146,87	406,00
2151,66	334,00
2156,43	245,00
2161,20	438,00
2165,97	370,00
2170,73	276,00
2175,49	557,00
2180,24	345,00
2184,99	470,00
2189,74	439,00
2194,48	290,00
2199,21	380,00
2203,94	364,00
2208,67	329,00
2213,39	371,00
2218,11	297,00
2222,82	228,00
2227,53	198,00
2232,23	202,00
2236,93	240,00
2241,63	326,00
2246,32	244,00
2251,00	298,00
2255,68	243,00
2260,36	286,00
2265,03	336,00
2269,70	244,00
2274,36	326,00
2279,02	204,00
2283,68	269,00
2288,33	348,00
2292,97	465,00
2297,61	326,00
2302,25	359,00
2306,88	346,00
2311,51	199,00
2316,14	366,00
2320,75	131,00
2325,37	204,00
2329,98	259,00
2334,59	278,00
2339,19	135,00
2343,79	155,00
2348,38	264,00
2352,97	148,00
2357,55	194,00
2362,13	288,00
2366,71	240,00
2371,28	278,00
2375,85	245,00
2380,41	304,00
2384,97	283,00
2389,52	206,00
2394,07	153,00
2398,62	221,00
2403,16	161,00
2407,70	143,00
2412,23	227,00
2416,76	199,00
2421,29	267,00
2425,81	254,00
2430,32	360,00
2434,84	177,00
2439,34	105,00
2443,85	254,00
2448,35	204,00
2452,84	189,00
2457,33	269,00
2461,82	269,00
2466,30	214,00
2470,78	277,00
2475,25	171,00
2479,72	140,00
2484,19	184,00
2488,65	204,00
2493,11	146,00
2497,56	198,00
2502,01	184,00
2506,46	118,00
2510,90	191,00
2515,34	79,00
2519,77	200,00
2524,20	239,00
2528,62	182,00
2533,04	210,00
2537,46	194,00
2541,87	45,00
2546,28	189,00
2550,68	318,00
2555,08	209,00
2559,48	212,00
2563,87	220,00
2568,26	237,00
2572,64	140,00
2577,02	135,00
2581,40	156,00
2585,77	271,00
2590,14	153,00
2594,50	200,00
2598,86	104,00
2603,22	144,00
2607,57	122,00
2611,92	155,00
2616,26	204,00
2620,60	177,00
2624,94	146,00
2629,27	166,00
2633,60	217,00
2637,92	136,00
2642,24	183,00
2646,56	168,00
2650,87	205,00
2655,18	161,00
2659,48	149,00
2663,78	152,00
2668,08	182,00
2672,37	176,00
2676,66	128,00
2680,95	168,00
2685,23	176,00
2689,50	66,00
2693,78	255,00
2698,05	162,00
2702,31	180,00
2706,57	270,00
2710,83	164,00
2715,08	292,00
2719,33	130,00
2723,58	227,00
2727,82	176,00
2732,06	252,00
2736,29	227,00
2740,53	166,00
2744,75	184,00
2748,97	195,00
2753,19	200,00
2757,41	254,00
2761,62	153,00
2765,83	230,00
2770,03	235,00
2774,23	172,00
2778,43	248,00
2782,62	260,00
2786,81	114,00
2791,00	170,00
2795,18	335,00
2799,35	272,00
2803,53	214,00
2807,70	254,00
2811,86	190,00
2816,03	210,00
2820,19	333,00
2824,34	244,00
2828,49	374,00
2832,64	227,00
2836,78	470,00
2840,92	500,00
2845,06	636,00
2849,19	665,00
2853,32	763,00
2857,45	803,00
2861,57	763,00
2865,69	715,00
2869,80	570,00
2873,91	664,00
2878,02	795,00
2882,12	767,00
2886,22	731,00
2890,32	655,00
2894,41	680,00
2898,50	649,00
2902,58	627,00
2906,67	503,00
2910,74	474,00
2914,82	404,00
2918,89	479,00
2922,96	506,00
2927,02	513,00
2931,08	376,00
2935,13	377,00
2939,19	450,00
2943,24	312,00
2947,28	271,00
2951,32	297,00
2955,36	304,00
2959,40	33,00
2963,43	288,00
2967,46	263,00
2971,48	257,00
2975,50	173,00
2979,52	261,00
2983,53	234,00
2987,54	94,00
2991,55	169,00
2995,55	140,00
2999,55	103,00
3003,54	111,00
3007,54	189,00
3011,53	143,00
3015,51	109,00
3019,49	169,00
3023,47	118,00
3027,45	41,00
3031,42	134,00
3035,39	123,00
3039,35	306,00
3043,31	46,00
3047,27	68,00
3051,22	132,00
3055,17	121,00
3059,12	28,00
3063,06	92,00
3067,00	96,00
3070,94	66,00
3074,87	154,00
3078,80	8,00
3082,73	26,00
3086,65	-25,00
3090,57	119,00
3094,49	153,00
3098,40	97,00
3102,31	80,00
3106,22	125,00
3110,12	115,00
3114,02	116,00
3117,92	49,00
3121,81	159,00
3125,70	101,00
3129,58	115,00
3133,47	83,00
3137,34	79,00
3141,22	47,00
3145,09	124,00
3148,96	69,00
3152,83	46,00
3156,69	162,00
3160,55	162,00
3164,40	32,00
3168,26	86,00
3172,10	96,00
3175,95	-17,00
3179,79	91,00
3183,63	107,00
3187,47	155,00
3191,30	8,00
3195,13	25,00
3198,95	105,00
3202,78	128,00
3206,60	69,00
3210,41	15,00
3214,23	71,00
3218,03	82,00
3221,84	112,00
3225,64	7,00
3229,44	65,00
3233,24	135,00
3237,03	150,00
3240,82	32,00
3244,61	216,00
3248,39	182,00
3252,17	60,00
3255,95	45,00
3259,72	110,00
3263,49	-8,00
3267,26	0,00
3271,03	3,00
3274,79	141,00
3278,54	129,00
3282,30	65,00
3286,05	99,00
3289,80	-25,00
3293,54	74,00
3297,29	46,00
3301,02	73,00
3304,76	51,00
3308,49	121,00
3312,22	133,00
3315,95	-9,00
3319,67	33,00
3323,39	108,00
3327,10	-25,00
3330,82	-20,00
3334,53	-34,00
3338,24	92,00
3341,94	-55,00
3345,64	122,00
3349,34	173,00
3353,03	-38,00
3356,72	163,00
3360,41	157,00
3364,10	139,00
3367,78	13,00
3371,46	32,00
3375,13	101,00
3378,81	116,00
3382,48	-5,00
3386,14	-11,00
3389,81	9,00
3393,47	-43,00
3397,12	32,00
3400,78	-30,00
3404,43	41,00
3408,08	42,00
3411,72	97,00
3415,36	92,00
3419,00	29,00
3422,64	66,00
3426,27	196,00
3429,90	106,00
3433,53	0,00
3437,15	65,00
3440,77	111,00
3444,39	3,00
3448,00	151,00
3451,62	104,00
3455,22	57,00
3458,83	17,00
3462,43	51,00
3466,03	57,00
3469,63	49,00
3473,22	34,00
3476,81	-3,00
3480,40	24,00
3483,99	46,00
3487,57	76,00
3491,15	87,00
3494,72	13,00
3498,29	76,00
3501,86	18,00
3505,43	36,00
3508,99	-54,00
3512,56	81,00
3516,11	55,00
3519,67	-38,00
3523,22	-13,00
3526,77	124,00
3530,32	81,00
3533,86	62,00
3537,40	-24,00
3540,94	37,00
3544,47	-20,00
3548,00	47,00
3551,53	12,00
3555,06	63,00
3558,58	74,00
3562,10	-37,00
3565,62	-31,00
3569,13	97,00
3572,64	-68,00
3576,15	42,00
3579,66	-46,00
3583,16	140,00
3586,66	150,00
3590,16	31,00
3593,65	36,00
3597,14	44,00
3600,63	126,00
3604,11	54,00
3607,60	-32,00
3611,08	-16,00
3614,55	-19,00
3618,03	89,00
3621,50	3,00
3624,97	19,00
3628,43	-43,00
3631,90	75,00
3635,36	93,00
3638,81	44,00
3642,27	10,00
3645,72	6,00
3649,17	7,00
3652,61	-69,00
3656,06	177,00
3659,50	98,00
3662,93	-12,00
3666,37	-73,00
3669,80	69,00
3673,23	32,00
3676,65	54,00
3680,08	-83,00
3683,50	1,00
3686,92	137,00
3690,33	57,00
3693,74	-8,00
3697,15	-10,00
3700,56	54,00
3703,96	-47,00
3707,36	13,00
3710,76	90,00
3714,16	19,00
3717,55	-95,00
3720,94	5,00
3724,33	69,00
3727,71	-126,00
3731,10	30,00
3734,48	44,00
3737,85	95,00
3741,23	51,00
3744,60	89,00
3747,97	-27,00
3751,33	-41,00
3754,69	28,00
3758,05	45,00
3761,41	27,00
3764,77	101,00
3768,12	82,00
3771,47	18,00
3774,82	-15,00
3778,16	1,00
3781,50	-3,00
3784,84	-2,00
3788,18	-2,00
>>>>>End Processed Spectral Data<<<<<
